"SPL Horizontal"																																																																							
"On-Axis"		"10°"		"-10°"		"20°"		"-20°"		"30°"		"-30°"		"40°"		"-40°"		"50°"		"-50°"		"60°"		"-60°"		"70°"		"-70°"		"80°"		"-80°"		"90°"		"-90°"		"100°"		"-100°"		"110°"		"-110°"		"120°"		"-120°"		"130°"		"-130°"		"140°"		"-140°"		"150°"		"-150°"		"160°"		"-160°"		"170°"		"-170°"		"180°"	
"Frequency [Hz]"	"Sound Pessure Level [dB]  / [2.83V 1m] "	"Frequency [Hz]"	"Sound Pessure Level [dB]  / [2.83V 1m] "	"Frequency [Hz]"	"Sound Pessure Level [dB]  / [2.83V 1m] "	"Frequency [Hz]"	"Sound Pessure Level [dB]  / [2.83V 1m] "	"Frequency [Hz]"	"Sound Pessure Level [dB]  / [2.83V 1m] "	"Frequency [Hz]"	"Sound Pessure Level [dB]  / [2.83V 1m] "	"Frequency [Hz]"	"Sound Pessure Level [dB]  / [2.83V 1m] "	"Frequency [Hz]"	"Sound Pessure Level [dB]  / [2.83V 1m] "	"Frequency [Hz]"	"Sound Pessure Level [dB]  / [2.83V 1m] "	"Frequency [Hz]"	"Sound Pessure Level [dB]  / [2.83V 1m] "	"Frequency [Hz]"	"Sound Pessure Level [dB]  / [2.83V 1m] "	"Frequency [Hz]"	"Sound Pessure Level [dB]  / [2.83V 1m] "	"Frequency [Hz]"	"Sound Pessure Level [dB]  / [2.83V 1m] "	"Frequency [Hz]"	"Sound Pessure Level [dB]  / [2.83V 1m] "	"Frequency [Hz]"	"Sound Pessure Level [dB]  / [2.83V 1m] "	"Frequency [Hz]"	"Sound Pessure Level [dB]  / [2.83V 1m] "	"Frequency [Hz]"	"Sound Pessure Level [dB]  / [2.83V 1m] "	"Frequency [Hz]"	"Sound Pessure Level [dB]  / [2.83V 1m] "	"Frequency [Hz]"	"Sound Pessure Level [dB]  / [2.83V 1m] "	"Frequency [Hz]"	"Sound Pessure Level [dB]  / [2.83V 1m] "	"Frequency [Hz]"	"Sound Pessure Level [dB]  / [2.83V 1m] "	"Frequency [Hz]"	"Sound Pessure Level [dB]  / [2.83V 1m] "	"Frequency [Hz]"	"Sound Pessure Level [dB]  / [2.83V 1m] "	"Frequency [Hz]"	"Sound Pessure Level [dB]  / [2.83V 1m] "	"Frequency [Hz]"	"Sound Pessure Level [dB]  / [2.83V 1m] "	"Frequency [Hz]"	"Sound Pessure Level [dB]  / [2.83V 1m] "	"Frequency [Hz]"	"Sound Pessure Level [dB]  / [2.83V 1m] "	"Frequency [Hz]"	"Sound Pessure Level [dB]  / [2.83V 1m] "	"Frequency [Hz]"	"Sound Pessure Level [dB]  / [2.83V 1m] "	"Frequency [Hz]"	"Sound Pessure Level [dB]  / [2.83V 1m] "	"Frequency [Hz]"	"Sound Pessure Level [dB]  / [2.83V 1m] "	"Frequency [Hz]"	"Sound Pessure Level [dB]  / [2.83V 1m] "	"Frequency [Hz]"	"Sound Pessure Level [dB]  / [2.83V 1m] "	"Frequency [Hz]"	"Sound Pessure Level [dB]  / [2.83V 1m] "	"Frequency [Hz]"	"Sound Pessure Level [dB]  / [2.83V 1m] "	"Frequency [Hz]"	"Sound Pessure Level [dB]  / [2.83V 1m] "
20.5078	47.496	20.5078	47.2682	20.5078	47.4798	20.5078	46.7944	20.5078	47.2247	20.5078	46.0879	20.5078	46.7416	20.5078	45.2201	20.5078	46.0664	20.5078	44.4198	20.5078	45.3084	20.5078	44.1706	20.5078	44.735	20.5078	44.9301	20.5078	44.7774	20.5078	46.5375	20.5078	45.698	20.5078	48.4457	20.5078	47.2589	20.5078	50.2857	20.5078	49.0267	20.5078	51.9162	20.5078	50.724	20.5078	53.3014	20.5078	52.2374	20.5078	54.441	20.5078	53.5325	20.5078	55.3428	20.5078	54.6038	20.5078	56.0149	20.5078	55.4539	20.5078	56.4634	20.5078	56.0862	20.5078	56.6926	20.5078	56.503	20.5078	56.7053
23.4375	51.1612	23.4375	51.0139	23.4375	51.1513	23.4375	50.7288	23.4375	50.9873	23.4375	50.3606	23.4375	50.6955	23.4375	50.0242	23.4375	50.3397	23.4375	49.9107	23.4375	50.0444	23.4375	50.2336	23.4375	50.0017	23.4375	51.078	23.4375	50.4033	23.4375	52.3192	23.4375	51.2994	23.4375	53.7368	23.4375	52.5512	23.4375	55.1519	23.4375	53.9504	23.4375	56.4612	23.4375	55.3353	23.4375	57.6145	23.4375	56.6128	23.4375	58.5897	23.4375	57.7366	23.4375	59.3769	23.4375	58.6854	23.4375	59.972	23.4375	59.4489	23.4375	60.3728	23.4375	60.0222	23.4375	60.5783	23.4375	60.4025	23.4375	60.5881
26.3672	54.6098	26.3672	54.4661	26.3672	54.5914	26.3672	54.1703	26.3672	54.4122	26.3672	53.7526	26.3672	54.0867	26.3672	53.2827	26.3672	53.6523	26.3672	52.8981	26.3672	53.1918	26.3672	52.8079	26.3672	52.8593	26.3672	53.2059	26.3672	52.8697	26.3672	54.113	26.3672	53.3878	26.3672	55.3548	26.3672	54.3848	26.3672	56.7099	26.3672	55.6641	26.3672	58.0202	26.3672	57.0156	26.3672	59.2004	26.3672	58.2996	26.3672	60.2102	26.3672	59.443	26.3672	61.0317	26.3672	60.4113	26.3672	61.6572	26.3672	61.1894	26.3672	62.0831	26.3672	61.7704	26.3672	62.3079	26.3672	62.1513	26.3672	62.3306
29.2969	57.4534	29.2969	57.3597	29.2969	57.4307	29.2969	57.164	29.2969	57.294	29.2969	56.9032	29.2969	57.0632	29.2969	56.6475	29.2969	56.7835	29.2969	56.5091	29.2969	56.5371	29.2969	56.6249	29.2969	56.4476	29.2969	57.0956	29.2969	56.6514	29.2969	57.9155	29.2969	57.2254	29.2969	58.975	29.2969	58.1302	29.2969	60.1321	29.2969	59.2372	29.2969	61.2712	29.2969	60.4065	29.2969	62.3175	29.2969	61.5332	29.2969	63.228	29.2969	62.5524	29.2969	63.9785	29.2969	63.4272	29.2969	64.5558	29.2969	64.1373	29.2969	64.9521	29.2969	64.671	29.2969	65.163	29.2969	65.0219	29.2969	65.1863
32.2266	60.2501	32.2266	60.1882	32.2266	60.2316	32.2266	60.0614	32.2266	60.1346	32.2266	59.9057	32.2266	59.979	32.2266	59.7822	32.2266	59.8065	32.2266	59.7771	32.2266	59.6858	32.2266	59.9822	32.2266	59.7088	32.2266	60.4569	32.2266	59.9663	32.2266	61.1915	32.2266	60.5051	32.2266	62.112	32.2266	61.2975	32.2266	63.1183	32.2266	62.2567	32.2266	64.1209	32.2266	63.2806	32.2266	65.0546	32.2266	64.2833	32.2266	65.8765	32.2266	65.2049	32.2266	66.5598	32.2266	66.0069	32.2266	67.0878	32.2266	66.6652	32.2266	67.4502	32.2266	67.1651	32.2266	67.6408	32.2266	67.4973	32.2266	67.6566
35.1563	64.1328	35.1563	64.0904	35.1563	64.1239	35.1563	64.0074	35.1563	64.0655	35.1563	63.9081	35.1563	63.9721	35.1563	63.8321	35.1563	63.8723	35.1563	63.8332	35.1563	63.8099	35.1563	63.9705	35.1563	63.841	35.1563	64.2895	35.1563	64.0228	35.1563	64.802	35.1563	64.3931	35.1563	65.4778	35.1563	64.9524	35.1563	66.257	35.1563	65.6611	35.1563	67.0711	35.1563	66.4554	35.1563	67.8592	35.1563	67.2682	35.1563	68.5741	35.1563	68.042	35.1563	69.1822	35.1563	68.7333	35.1563	69.6604	35.1563	69.3115	35.1563	69.9935	35.1563	69.7555	35.1563	70.1722	35.1563	70.0516	35.1563	70.1917
38.0859	67.1689	38.0859	67.1466	38.0859	67.1578	38.0859	67.0995	38.0859	67.1148	38.0859	67.0472	38.0859	67.0521	38.0859	67.0203	38.0859	66.9927	38.0859	67.0587	38.0859	66.9709	38.0859	67.2048	38.0859	67.0287	38.0859	67.4921	38.0859	67.2078	38.0859	67.9314	38.0859	67.5367	38.0859	68.5049	38.0859	68.0183	38.0859	69.1711	38.0859	68.6264	38.0859	69.8774	38.0859	69.3146	38.0859	70.5721	38.0859	70.0287	38.0859	71.2115	38.0859	70.7187	38.0859	71.7618	38.0859	71.3433	38.0859	72.1984	38.0859	71.8713	38.0859	72.5041	38.0859	72.2801	38.0859	72.6682	38.0859	72.5545	38.0859	72.6852
41.0156	70.4512	41.0156	70.4412	41.0156	70.4437	41.0156	70.4204	41.0156	70.4193	41.0156	70.4035	41.0156	70.3866	41.0156	70.4126	41.0156	70.362	41.0156	70.4751	41.0156	70.369	41.0156	70.6197	41.0156	70.4365	41.0156	70.869	41.0156	70.593	41.0156	71.2318	41.0156	70.8599	41.0156	71.6988	41.0156	71.2433	41.0156	72.2431	41.0156	71.7301	41.0156	72.8272	41.0156	72.2905	41.0156	73.4104	41.0156	72.885	41.0156	73.9548	41.0156	73.4722	41.0156	74.4286	41.0156	74.0145	41.0156	74.8071	41.0156	74.4808	41.0156	75.0722	41.0156	74.8476	41.0156	75.2122	41.0156	75.0978	41.0156	75.2209
43.9453	73.0967	43.9453	73.0933	43.9453	73.0884	43.9453	73.0835	43.9453	73.0696	43.9453	73.0782	43.9453	73.0473	43.9453	73.0941	43.9453	73.0346	43.9453	73.1524	43.9453	73.0501	43.9453	73.2751	43.9453	73.1161	43.9453	73.481	43.9453	73.255	43.9453	73.7799	43.9453	73.4839	43.9453	74.1678	43.9453	73.8093	43.9453	74.6271	43.9453	74.2231	43.9453	75.129	43.9453	74.7035	43.9453	75.6393	43.9453	75.2189	43.9453	76.1239	43.9453	75.734	43.9453	76.5522	43.9453	76.2145	43.9453	76.8989	43.9453	76.631	43.9453	77.1452	43.9453	76.9598	43.9453	77.2783	43.9453	77.1835	43.9453	77.2914
46.875	75.5132	46.875	75.5171	46.875	75.5074	46.875	75.5231	46.875	75.5005	46.875	75.5396	46.875	75.4977	46.875	75.5787	46.875	75.5086	46.875	75.6557	46.875	75.5468	46.875	75.7862	46.875	75.628	46.875	75.9832	46.875	75.768	46.875	76.2532	46.875	75.9788	46.875	76.5935	46.875	76.2654	46.875	76.9912	46.875	76.6225	46.875	77.4245	46.875	77.0347	46.875	77.8664	46.875	77.4784	46.875	78.2883	46.875	77.9252	46.875	78.6633	46.875	78.3463	46.875	78.9681	46.875	78.7148	46.875	79.1848	46.875	79.0085	46.875	79.3009	46.875	79.2105	46.875	79.3097
49.8047	77.2146	49.8047	77.2245	49.8047	77.2092	49.8047	77.2418	49.8047	77.2088	49.8047	77.2726	49.8047	77.2174	49.8047	77.326	49.8047	77.2424	49.8047	77.4128	49.8047	77.2937	49.8047	77.5443	49.8047	77.3828	49.8047	77.7298	49.8047	77.521	49.8047	77.974	49.8047	77.7169	49.8047	78.2749	49.8047	77.9742	49.8047	78.6228	49.8047	78.289	49.8047	79.0011	49.8047	78.6498	49.8047	79.3878	49.8047	79.0379	49.8047	79.7588	49.8047	79.4304	49.8047	80.0904	49.8047	79.8025	49.8047	80.3613	49.8047	80.1302	49.8047	80.5545	49.8047	80.3931	49.8047	80.6578	49.8047	80.575	49.8047	80.6649
52.7344	78.5327	52.7344	78.5453	52.7344	78.529	52.7344	78.5689	52.7344	78.5347	52.7344	78.6075	52.7344	78.5526	52.7344	78.6676	52.7344	78.588	52.7344	78.7567	52.7344	78.6478	52.7344	78.8826	52.7344	78.74	52.7344	79.0518	52.7344	78.8723	52.7344	79.2676	52.7344	79.0508	52.7344	79.5289	52.7344	79.2779	52.7344	79.8288	52.7344	79.551	52.7344	80.1545	52.7344	79.8615	52.7344	80.4887	52.7344	80.1954	52.7344	80.8113	52.7344	80.534	52.7344	81.1017	52.7344	80.8567	52.7344	81.3406	52.7344	81.1426	52.7344	81.512	52.7344	81.3731	52.7344	81.6045	52.7344	81.5329	52.7344	81.6116
55.6641	79.4607	55.6641	79.4768	55.6641	79.4569	55.6641	79.5064	55.6641	79.4657	55.6641	79.5526	55.6641	79.489	55.6641	79.6194	55.6641	79.5304	55.6641	79.7118	55.6641	79.5944	55.6641	79.835	55.6641	79.6864	55.6641	79.9931	55.6641	79.8116	55.6641	80.1882	55.6641	79.9742	55.6641	80.419	55.6641	80.1757	55.6641	80.6802	55.6641	80.4141	55.6641	80.9619	55.6641	80.6832	55.6641	81.2504	55.6641	80.972	55.6641	81.529	55.6641	81.2658	55.6641	81.7802	55.6641	81.5472	55.6641	81.987	55.6641	81.7984	55.6641	82.135	55.6641	82.0024	55.6641	82.2138	55.6641	82.1454	55.6641	82.2174
58.5938	80.1242	58.5938	80.1408	58.5938	80.122	58.5938	80.1725	58.5938	80.1344	58.5938	80.2211	58.5938	80.1628	58.5938	80.289	58.5938	80.2093	58.5938	80.3795	58.5938	80.2769	58.5938	80.4956	58.5938	80.369	58.5938	80.64	58.5938	80.4887	58.5938	80.8138	58.5938	80.6385	58.5938	81.0161	58.5938	80.819	58.5938	81.2428	58.5938	81.0287	58.5938	81.4863	58.5938	81.2625	58.5938	81.7357	58.5938	81.5119	58.5938	81.9776	58.5938	81.7652	58.5938	82.1968	58.5938	82.0079	58.5938	82.3786	58.5938	82.2249	58.5938	82.5098	58.5938	82.4013	58.5938	82.5807	58.5938	82.5246	58.5938	82.5858
61.5234	80.6572	61.5234	80.6741	61.5234	80.6565	61.5234	80.7077	61.5234	80.6721	61.5234	80.7586	61.5234	80.7048	61.5234	80.8283	61.5234	80.7556	61.5234	80.9182	61.5234	80.8261	61.5234	81.0299	61.5234	80.9179	61.5234	81.1646	61.5234	81.0326	61.5234	81.3226	61.5234	81.1712	61.5234	81.5027	61.5234	81.334	61.5234	81.7017	61.5234	81.5191	61.5234	81.9136	61.5234	81.7229	61.5234	82.1299	61.5234	81.9386	61.5234	82.3394	61.5234	82.1571	61.5234	82.5295	61.5234	82.3666	61.5234	82.6876	61.5234	82.5544	61.5234	82.8019	61.5234	82.7075	61.5234	82.8638	61.5234	82.8148	61.5234	82.8683
64.4531	81.1213	64.4531	81.1387	64.4531	81.1214	64.4531	81.1737	64.4531	81.1392	64.4531	81.2264	64.4531	81.1747	64.4531	81.2971	64.4531	81.2283	64.4531	81.3859	64.4531	81.3003	64.4531	81.4933	64.4531	81.3911	64.4531	81.6192	64.4531	81.5009	64.4531	81.7632	64.4531	81.6297	64.4531	81.924	64.4531	81.777	64.4531	82.0988	64.4531	81.9411	64.4531	82.283	64.4531	82.1191	64.4531	82.4697	64.4531	82.3057	64.4531	82.6502	64.4531	82.4937	64.4531	82.814	64.4531	82.6738	64.4531	82.9503	64.4531	82.8353	64.4531	83.0491	64.4531	82.9673	64.4531	83.1026	64.4531	83.06	64.4531	83.1064
67.3828	81.6084	67.3828	81.6264	67.3828	81.609	67.3828	81.6629	67.3828	81.6282	67.3828	81.7173	67.3828	81.6659	67.3828	81.7889	67.3828	81.7216	67.3828	81.877	67.3828	81.7945	67.3828	81.9807	67.3828	81.884	67.3828	82.0991	67.3828	81.9892	67.3828	82.231	67.3828	82.1093	67.3828	82.3748	67.3828	82.2429	67.3828	82.528	67.3828	82.3885	67.3828	82.6872	67.3828	82.5434	67.3828	82.8469	67.3828	82.7039	67.3828	83.0004	67.3828	82.8643	67.3828	83.1393	67.3828	83.0175	67.3828	83.2547	67.3828	83.1548	67.3828	83.3383	67.3828	83.2672	67.3828	83.3834	67.3828	83.3464	67.3828	83.3862
70.3125	82.1361	70.3125	82.1513	70.3125	82.1401	70.3125	82.1851	70.3125	82.1631	70.3125	82.2368	70.3125	82.2046	70.3125	82.305	70.3125	82.2633	70.3125	82.3883	70.3125	82.338	70.3125	82.4851	70.3125	82.427	70.3125	82.5937	70.3125	82.5286	70.3125	82.7125	70.3125	82.6412	70.3125	82.8398	70.3125	82.763	70.3125	82.9736	70.3125	82.8923	70.3125	83.1111	70.3125	83.0268	70.3125	83.2483	70.3125	83.1636	70.3125	83.3801	70.3125	83.2984	70.3125	83.5	70.3125	83.4256	70.3125	83.6005	70.3125	83.5387	70.3125	83.6747	70.3125	83.6302	70.3125	83.7167	70.3125	83.6934	70.3125	83.7231
73.2422	82.6368	73.2422	82.6502	73.2422	82.6435	73.2422	82.6833	73.2422	82.6701	73.2422	82.7347	73.2422	82.7158	73.2422	82.8024	73.2422	82.7787	73.2422	82.8843	73.2422	82.8567	73.2422	82.9779	73.2422	82.9472	73.2422	83.0808	73.2422	83.0476	73.2422	83.1908	73.2422	83.1551	73.2422	83.3058	73.2422	83.2676	73.2422	83.4238	73.2422	83.3828	73.2422	83.5425	73.2422	83.4989	73.2422	83.6591	73.2422	83.6136	73.2422	83.7699	73.2422	83.7241	73.2422	83.8699	73.2422	83.8266	73.2422	83.9538	73.2422	83.9166	73.2422	84.0161	73.2422	83.9886	73.2422	84.0522	73.2422	84.0376	73.2422	84.0595
76.1719	83.1204	76.1719	83.1358	76.1719	83.125	76.1719	83.1704	76.1719	83.1493	76.1719	83.2226	76.1719	83.192	76.1719	83.2901	76.1719	83.2511	76.1719	83.3699	76.1719	83.3238	76.1719	83.4591	76.1719	83.4071	76.1719	83.5544	76.1719	83.4977	76.1719	83.6533	76.1719	83.5927	76.1719	83.7533	76.1719	83.6896	76.1719	83.8525	76.1719	83.7864	76.1719	83.9492	76.1719	83.8816	76.1719	84.0415	76.1719	83.974	76.1719	84.1269	76.1719	84.0619	76.1719	84.2025	76.1719	84.1432	76.1719	84.2645	76.1719	84.215	76.1719	84.3092	76.1719	84.2733	76.1719	84.3334	76.1719	84.3145	76.1719	84.3351
79.1016	83.4685	79.1016	83.4832	79.1016	83.4743	79.1016	83.5175	79.1016	83.5001	79.1016	83.5696	79.1016	83.5445	79.1016	83.6368	79.1016	83.6051	79.1016	83.7158	79.1016	83.6788	79.1016	83.8029	79.1016	83.7618	79.1016	83.8948	79.1016	83.8506	79.1016	83.9881	79.1016	83.9417	79.1016	84.0803	79.1016	84.0322	79.1016	84.1693	79.1016	84.1199	79.1016	84.2535	79.1016	84.2033	79.1016	84.3317	79.1016	84.2816	79.1016	84.4024	79.1016	84.3539	79.1016	84.4638	79.1016	84.4193	79.1016	84.5135	79.1016	84.476	79.1016	84.549	79.1016	84.5217	79.1016	84.5682	79.1016	84.5537	79.1016	84.5697
82.0313	83.8499	82.0313	83.8712	82.0313	83.8491	82.0313	83.9121	82.0313	83.8687	82.0313	83.9701	82.0313	83.9072	82.0313	84.0421	82.0313	83.9621	82.0313	84.124	82.0313	84.0299	82.0313	84.2117	82.0313	84.1066	82.0313	84.3008	82.0313	84.1882	82.0313	84.3875	82.0313	84.2707	82.0313	84.4689	82.0313	84.3508	82.0313	84.5426	82.0313	84.4262	82.0313	84.6075	82.0313	84.4954	82.0313	84.6631	82.0313	84.5579	82.0313	84.709	82.0313	84.6137	82.0313	84.7454	82.0313	84.6631	82.0313	84.7717	82.0313	84.7059	82.0313	84.7876	82.0313	84.7414	82.0313	84.7923	82.0313	84.7685	82.0313	84.7858
84.9609	84.2276	84.9609	84.2497	84.9609	84.223	84.9609	84.2881	84.9609	84.2358	84.9609	84.3403	84.9609	84.2648	84.9609	84.4029	84.9609	84.3075	84.9609	84.4716	84.9609	84.3603	84.9609	84.5421	84.9609	84.4194	84.9609	84.6101	84.9609	84.4805	84.9609	84.6718	84.9609	84.5397	84.9609	84.7244	84.9609	84.5938	84.9609	84.7662	84.9609	84.6406	84.9609	84.7968	84.9609	84.6792	84.9609	84.8171	84.9609	84.7098	84.9609	84.8284	84.9609	84.7338	84.9609	84.8327	84.9609	84.7529	84.9609	84.8316	84.9609	84.7691	84.9609	84.8267	84.9609	84.7834	84.9609	84.8187	84.9609	84.7966	84.9609	84.8085
87.8906	84.5807	87.8906	84.6003	87.8906	84.5743	87.8906	84.6318	87.8906	84.5808	87.8906	84.6728	87.8906	84.5991	87.8906	84.7198	87.8906	84.6267	87.8906	84.769	87.8906	84.6603	87.8906	84.8159	87.8906	84.6961	87.8906	84.8566	87.8906	84.7304	87.8906	84.8878	87.8906	84.7596	87.8906	84.9072	87.8906	84.7813	87.8906	84.9141	87.8906	84.7941	87.8906	84.9092	87.8906	84.7981	87.8906	84.8948	87.8906	84.7949	87.8906	84.8738	87.8906	84.7871	87.8906	84.8498	87.8906	84.7778	87.8906	84.8259	87.8906	84.7701	87.8906	84.8043	87.8906	84.7662	87.8906	84.7868	87.8906	84.7674	87.8906	84.7744
90.8203	84.2753	90.8203	84.2809	90.8203	84.2946	90.8203	84.3103	90.8203	84.3381	90.8203	84.3612	90.8203	84.4036	90.8203	84.4297	90.8203	84.4874	90.8203	84.5113	90.8203	84.5845	90.8203	84.6009	90.8203	84.6896	90.8203	84.6934	90.8203	84.7969	90.8203	84.7844	90.8203	84.9008	90.8203	84.8702	90.8203	84.9966	90.8203	84.9483	90.8203	85.0808	90.8203	85.0176	90.8203	85.1512	90.8203	85.0779	90.8203	85.2068	90.8203	85.1299	90.8203	85.2481	90.8203	85.1744	90.8203	85.2763	90.8203	85.2123	90.8203	85.2929	90.8203	85.2437	90.8203	85.2995	90.8203	85.2686	90.8203	85.2971	90.8203	85.2866
93.75	84.5651	93.75	84.5753	93.75	84.5785	93.75	84.6081	93.75	84.6148	93.75	84.6611	93.75	84.6715	93.75	84.7304	93.75	84.745	93.75	84.811	93.75	84.8301	93.75	84.8972	93.75	84.9213	93.75	84.9833	93.75	85.0124	93.75	85.0638	93.75	85.0978	93.75	85.1344	93.75	85.1726	93.75	85.1917	93.75	85.2331	93.75	85.2344	93.75	85.2772	93.75	85.2626	93.75	85.3049	93.75	85.2783	93.75	85.3178	93.75	85.2846	93.75	85.3191	93.75	85.2852	93.75	85.3128	93.75	85.2839	93.75	85.3031	93.75	85.2837	93.75	85.2936	93.75	85.2868
96.6797	84.9959	96.6797	85.0199	96.6797	84.9865	96.6797	85.0571	96.6797	84.9917	96.6797	85.1044	96.6797	85.0101	96.6797	85.1577	96.6797	85.0387	96.6797	85.2118	96.6797	85.0735	96.6797	85.2612	96.6797	85.1095	96.6797	85.3006	96.6797	85.1418	96.6797	85.3252	96.6797	85.1655	96.6797	85.3316	96.6797	85.1767	96.6797	85.318	96.6797	85.173	96.6797	85.2849	96.6797	85.1537	96.6797	85.2351	96.6797	85.1206	96.6797	85.1736	96.6797	85.0776	96.6797	85.107	96.6797	85.0303	96.6797	85.0428	96.6797	84.9856	96.6797	84.9882	96.6797	84.9503	96.6797	84.9491	96.6797	84.9302	96.6797	84.9293
102.539	84.7514	102.539	84.7709	102.539	84.7509	102.539	84.8079	102.539	84.7693	102.539	84.8591	102.539	84.8047	102.539	84.9201	102.539	84.8538	102.539	84.9852	102.539	84.9118	102.539	85.0485	102.539	84.9729	102.539	85.1038	102.539	85.0311	102.539	85.1458	102.539	85.0805	102.539	85.1703	102.539	85.1159	102.539	85.175	102.539	85.1339	102.539	85.1599	102.539	85.1328	102.539	85.1275	102.539	85.1136	102.539	85.0826	102.539	85.0796	102.539	85.0319	102.539	85.0363	102.539	84.9828	102.539	84.9908	102.539	84.9426	102.539	84.9504	102.539	84.9171	102.539	84.9218	102.539	84.91
105.469	84.7282	105.469	84.7433	105.469	84.7311	105.469	84.7751	105.469	84.7517	105.469	84.8206	105.469	84.788	105.469	84.8755	105.469	84.8367	105.469	84.9347	105.469	84.893	105.469	84.992	105.469	84.9515	105.469	85.0414	105.469	85.006	105.469	85.0775	105.469	85.0508	105.469	85.096	105.469	85.0808	105.469	85.0946	105.469	85.0924	105.469	85.0731	105.469	85.0839	105.469	85.0343	105.469	85.0563	105.469	84.983	105.469	85.013	105.469	84.9266	105.469	84.9597	105.469	84.873	105.469	84.9041	105.469	84.8303	105.469	84.8544	105.469	84.8048	105.469	84.8179	105.469	84.8005
108.398	84.8228	108.398	84.8338	108.398	84.828	108.398	84.8599	108.398	84.8493	108.398	84.8986	108.398	84.8845	108.398	84.9458	108.398	84.9304	108.398	84.9965	108.398	84.9825	108.398	85.045	108.398	85.0351	108.398	85.0855	108.398	85.0826	108.398	85.1126	108.398	85.1189	108.398	85.122	108.398	85.1392	108.398	85.1114	108.398	85.1398	108.398	85.0807	108.398	85.1192	108.398	85.0324	108.398	85.0787	108.398	84.9719	108.398	85.0221	108.398	84.9067	108.398	84.9559	108.398	84.8455	108.398	84.8884	108.398	84.7969	108.398	84.8288	108.398	84.7683	108.398	84.7853	108.398	84.7642
111.328	84.8986	111.328	84.915	111.328	84.8972	111.328	84.9451	111.328	84.9105	111.328	84.9865	111.328	84.9367	111.328	85.0351	111.328	84.9727	111.328	85.086	111.328	85.0142	111.328	85.1335	111.328	85.0558	111.328	85.1717	111.328	85.0919	111.328	85.1951	111.328	85.1168	111.328	85.1993	111.328	85.1256	111.328	85.1814	111.328	85.1152	111.328	85.1413	111.328	85.0843	111.328	85.0815	111.328	85.0345	111.328	85.0072	111.328	84.9705	111.328	84.9264	111.328	84.8991	111.328	84.8485	111.328	84.8296	111.328	84.7833	111.328	84.7716	111.328	84.7393	111.328	84.7337	111.328	84.7221
117.188	84.8319	117.188	84.8479	117.188	84.8292	117.188	84.876	117.188	84.8396	117.188	84.9137	117.188	84.8618	117.188	84.9571	117.188	84.8929	117.188	85.0013	117.188	84.9287	117.188	85.0409	117.188	84.9644	117.188	85.0699	117.188	84.9943	117.188	85.0829	117.188	85.0129	117.188	85.0756	117.188	85.0151	117.188	85.0453	117.188	84.9974	117.188	84.9922	117.188	84.9585	117.188	84.9192	117.188	84.8997	117.188	84.8324	117.188	84.8254	117.188	84.7407	117.188	84.743	117.188	84.6544	117.188	84.6619	117.188	84.5844	117.188	84.5926	117.188	84.5398	117.188	84.5449	117.188	84.5262
120.117	84.8304	120.117	84.8409	120.117	84.8319	120.117	84.8623	120.117	84.8453	120.117	84.8924	120.117	84.869	120.117	84.9275	120.117	84.9006	120.117	84.963	120.117	84.936	120.117	84.9936	120.117	84.9706	120.117	85.0136	120.117	84.9991	120.117	85.018	120.117	85.0159	120.117	85.0025	120.117	85.0162	120.117	84.965	120.117	84.9963	120.117	84.906	120.117	84.9547	120.117	84.8288	120.117	84.8922	120.117	84.7402	120.117	84.8129	120.117	84.6492	120.117	84.7237	120.117	84.5667	120.117	84.634	120.117	84.5034	120.117	84.5544	120.117	84.4678	120.117	84.4953	120.117	84.465
125.977	84.8574	125.977	84.8523	125.977	84.871	125.977	84.8546	125.977	84.8927	125.977	84.8626	125.977	84.9213	125.977	84.8733	125.977	84.9545	125.977	84.8829	125.977	84.9886	125.977	84.8872	125.977	85.0192	125.977	84.8813	125.977	85.041	125.977	84.8608	125.977	85.0485	125.977	84.8226	125.977	85.0369	125.977	84.765	125.977	85.0022	125.977	84.6891	125.977	84.9426	125.977	84.5991	125.977	84.859	125.977	84.502	125.977	84.7555	125.977	84.4078	125.977	84.6394	125.977	84.3278	125.977	84.5209	125.977	84.273	125.977	84.4122	125.977	84.2522	125.977	84.3252	125.977	84.2699
128.906	84.6385	128.906	84.6415	128.906	84.6427	128.906	84.6504	128.906	84.6543	128.906	84.6626	128.906	84.6724	128.906	84.6748	128.906	84.6947	128.906	84.6826	128.906	84.7177	128.906	84.6812	128.906	84.7366	128.906	84.6654	128.906	84.7461	128.906	84.6306	128.906	84.7402	128.906	84.5737	128.906	84.7135	128.906	84.4931	128.906	84.662	128.906	84.3907	128.906	84.5839	128.906	84.2714	128.906	84.4802	128.906	84.1438	128.906	84.3558	128.906	84.0197	128.906	84.2194	128.906	83.9124	128.906	84.0827	128.906	83.8352	128.906	83.9599	128.906	83.7988	128.906	83.8647	128.906	83.8088
134.766	84.1812	134.766	84.2172	134.766	84.1536	134.766	84.2603	134.766	84.1349	134.766	84.3082	134.766	84.1246	134.766	84.3576	134.766	84.121	134.766	84.4039	134.766	84.1215	134.766	84.4421	134.766	84.1225	134.766	84.4662	134.766	84.1195	134.766	84.4707	134.766	84.1077	134.766	84.4509	134.766	84.083	134.766	84.4035	134.766	84.0421	134.766	84.3282	134.766	83.9842	134.766	84.2275	134.766	83.9112	134.766	84.1076	134.766	83.8282	134.766	83.9779	134.766	83.7436	134.766	83.8502	134.766	83.6679	134.766	83.7372	134.766	83.6125	134.766	83.6509	134.766	83.5876	134.766	83.5998
137.695	84.126	137.695	84.1415	137.695	84.12	137.695	84.1661	137.695	84.1228	137.695	84.1985	137.695	84.1329	137.695	84.2361	137.695	84.1481	137.695	84.2753	137.695	84.1653	137.695	84.311	137.695	84.1805	137.695	84.3377	137.695	84.1894	137.695	84.3498	137.695	84.1875	137.695	84.3421	137.695	84.1708	137.695	84.3113	137.695	84.1368	137.695	84.2562	137.695	84.0848	137.695	84.1788	137.695	84.0168	137.695	84.0842	137.695	83.938	137.695	83.9807	137.695	83.8559	137.695	83.8788	137.695	83.7805	137.695	83.7899	137.695	83.7221	137.695	83.7245	137.695	83.6899	137.695	83.6901
143.555	83.7702	143.555	83.7555	143.555	83.7947	143.555	83.7506	143.555	83.8283	143.555	83.7553	143.555	83.8698	143.555	83.7681	143.555	83.9171	143.555	83.787	143.555	83.9672	143.555	83.8084	143.555	84.0156	143.555	83.8279	143.555	84.0573	143.555	83.8407	143.555	84.0866	143.555	83.842	143.555	84.098	143.555	83.8282	143.555	84.0875	143.555	83.798	143.555	84.053	143.555	83.7525	143.555	83.9951	143.555	83.6962	143.555	83.9178	143.555	83.6363	143.555	83.828	143.555	83.582	143.555	83.7351	143.555	83.5428	143.555	83.6498	143.555	83.5271	143.555	83.5821	143.555	83.5399
149.414	83.6198	149.414	83.6148	149.414	83.6216	149.414	83.606	149.414	83.6209	149.414	83.5935	149.414	83.6185	149.414	83.5769	149.414	83.6153	149.414	83.5557	149.414	83.6115	149.414	83.5287	149.414	83.6062	149.414	83.4944	149.414	83.5976	149.414	83.4509	149.414	83.5828	149.414	83.3968	149.414	83.558	149.414	83.3317	149.414	83.52	149.414	83.2567	149.414	83.4663	149.414	83.1754	149.414	83.3968	149.414	83.0932	149.414	83.3136	149.414	83.0174	149.414	83.2215	149.414	82.9563	149.414	83.1278	149.414	82.9171	149.414	83.0412	149.414	82.9055	149.414	82.9707	149.414	82.9238
155.273	83.8745	155.273	83.8816	155.273	83.8607	155.273	83.8816	155.273	83.8401	155.273	83.8741	155.273	83.8128	155.273	83.8578	155.273	83.7781	155.273	83.8309	155.273	83.7354	155.273	83.7908	155.273	83.683	155.273	83.734	155.273	83.6188	155.273	83.6571	155.273	83.5406	155.273	83.5574	155.273	83.4462	155.273	83.4338	155.273	83.3343	155.273	83.288	155.273	83.2054	155.273	83.1249	155.273	83.0627	155.273	82.9535	155.273	82.9123	155.273	82.7857	155.273	82.7632	155.273	82.6355	155.273	82.627	155.273	82.5171	155.273	82.5163	155.273	82.4418	155.273	82.4431	155.273	82.4168
158.203	83.7479	158.203	83.7552	158.203	83.7355	158.203	83.7573	158.203	83.7177	158.203	83.7538	158.203	83.6943	158.203	83.7435	158.203	83.6643	158.203	83.7247	158.203	83.6266	158.203	83.6945	158.203	83.5793	158.203	83.6492	158.203	83.5197	158.203	83.5851	158.203	83.4453	158.203	83.4989	158.203	83.3537	158.203	83.3888	158.203	83.2439	158.203	83.2555	158.203	83.1166	158.203	83.1031	158.203	82.9757	158.203	82.9391	158.203	82.828	158.203	82.7748	158.203	82.6834	158.203	82.6235	158.203	82.554	158.203	82.4994	158.203	82.4528	158.203	82.4146	158.203	82.3913	158.203	82.3776
164.063	83.5591	164.063	83.5489	164.063	83.5652	164.063	83.5349	164.063	83.5663	164.063	83.5173	164.063	83.5617	164.063	83.4958	164.063	83.55	164.063	83.4689	164.063	83.5292	164.063	83.4343	164.063	83.4968	164.063	83.3886	164.063	83.4495	164.063	83.3282	164.063	83.3838	164.063	83.2497	164.063	83.2971	164.063	83.151	164.063	83.1882	164.063	83.0326	164.063	83.0583	164.063	82.8976	164.063	82.9119	164.063	82.7527	164.063	82.7569	164.063	82.6077	164.063	82.6043	164.063	82.4747	164.063	82.4671	164.063	82.3665	164.063	82.3586	164.063	82.2947	164.063	82.2898	164.063	82.2679
169.922	83.3781	169.922	83.3548	169.922	83.3931	169.922	83.3235	169.922	83.4	169.922	83.2849	169.922	83.3992	169.922	83.2396	169.922	83.3913	169.922	83.1882	169.922	83.3761	169.922	83.1304	169.922	83.3528	169.922	83.065	169.922	83.3194	169.922	82.9906	169.922	83.2733	169.922	82.906	169.922	83.2115	169.922	82.8109	169.922	83.1317	169.922	82.7068	169.922	83.0333	169.922	82.5977	169.922	82.9178	169.922	82.4901	169.922	82.7897	169.922	82.3921	169.922	82.6562	169.922	82.313	169.922	82.5269	169.922	82.2616	169.922	82.4123	169.922	82.2444	169.922	82.3223	169.922	82.2648
175.781	83.3996	175.781	83.3854	175.781	83.4031	175.781	83.3597	175.781	83.3969	175.781	83.3224	175.781	83.3827	175.781	83.274	175.781	83.3619	175.781	83.2146	175.781	83.335	175.781	83.1445	175.781	83.3014	175.781	83.0632	175.781	83.2593	175.781	82.9704	175.781	83.2057	175.781	82.8661	175.781	83.1376	175.781	82.7513	175.781	83.0525	175.781	82.6292	175.781	82.9495	175.781	82.5051	175.781	82.8304	175.781	82.3865	175.781	82.6996	175.781	82.2823	175.781	82.5643	175.781	82.2016	175.781	82.4335	175.781	82.152	175.781	82.3172	175.781	82.1388	175.781	82.2247	175.781	82.1635
181.641	83.54	181.641	83.5507	181.641	83.5133	181.641	83.5442	181.641	83.4729	181.641	83.5199	181.641	83.4214	181.641	83.4781	181.641	83.362	181.641	83.4189	181.641	83.297	181.641	83.3424	181.641	83.2277	181.641	83.2488	181.641	83.154	181.641	83.138	181.641	83.074	181.641	83.0107	181.641	82.9852	181.641	82.869	181.641	82.8851	181.641	82.7169	181.641	82.7727	181.641	82.5608	181.641	82.6492	181.641	82.4094	181.641	82.5186	181.641	82.2728	181.641	82.3877	181.641	82.1608	181.641	82.2654	181.641	82.0821	181.641	82.1615	181.641	82.0424	181.641	82.0852	181.641	82.0439
190.43	83.5585	190.43	83.5685	190.43	83.5326	190.43	83.564	190.43	83.4898	190.43	83.5471	190.43	83.4303	190.43	83.5189	190.43	83.3553	190.43	83.4798	190.43	83.2664	190.43	83.4285	190.43	83.1656	190.43	83.3624	190.43	83.0543	190.43	83.2786	190.43	82.9339	190.43	83.1743	190.43	82.8055	190.43	83.0482	190.43	82.6705	190.43	82.9019	190.43	82.5316	190.43	82.7401	190.43	82.3931	190.43	82.5706	190.43	82.2613	190.43	82.4039	190.43	82.144	190.43	82.2511	190.43	82.0496	190.43	82.1231	190.43	81.9859	190.43	82.0285	190.43	81.9591	190.43	81.9731
196.289	83.7907	196.289	83.7696	196.289	83.79	196.289	83.7291	196.289	83.7667	196.289	83.673	196.289	83.7214	196.289	83.6055	196.289	83.6561	196.289	83.5305	196.289	83.5733	196.289	83.4508	196.289	83.4759	196.289	83.3678	196.289	83.3663	196.289	83.2811	196.289	83.2468	196.289	83.1897	196.289	83.1196	196.289	83.0922	196.289	82.9873	196.289	82.9883	196.289	82.8538	196.289	82.8795	196.289	82.7242	196.289	82.7689	196.289	82.6052	196.289	82.6613	196.289	82.5037	196.289	82.5621	196.289	82.4261	196.289	82.4773	196.289	82.3772	196.289	82.4122	196.289	82.3591	196.289	82.3715
202.148	84.0029	202.148	83.9733	202.148	84.0054	202.148	83.9184	202.148	83.9808	202.148	83.8414	202.148	83.9308	202.148	83.7469	202.148	83.8583	202.148	83.6397	202.148	83.767	202.148	83.5246	202.148	83.6608	202.148	83.4054	202.148	83.5431	202.148	83.2852	202.148	83.417	202.148	83.1661	202.148	83.2849	202.148	83.0498	202.148	83.1496	202.148	82.938	202.148	83.0144	202.148	82.8328	202.148	82.884	202.148	82.7368	202.148	82.7639	202.148	82.6526	202.148	82.66	202.148	82.5827	202.148	82.5774	202.148	82.5291	202.148	82.5193	202.148	82.4939	202.148	82.4869	202.148	82.4791
210.938	84.3974	210.938	84.3688	210.938	84.3955	210.938	84.3103	210.938	84.3638	210.938	84.2244	210.938	84.3042	210.938	84.1144	210.938	84.22	210.938	83.9846	210.938	84.1148	210.938	83.8396	210.938	83.9924	210.938	83.6843	210.938	83.8562	210.938	83.5238	210.938	83.7092	210.938	83.3635	210.938	83.5547	210.938	83.2089	210.938	83.3964	210.938	83.0657	210.938	83.2391	210.938	82.9392	210.938	83.0889	210.938	82.833	210.938	82.9524	210.938	82.7492	210.938	82.836	210.938	82.6876	210.938	82.7442	210.938	82.6467	210.938	82.6789	210.938	82.6249	210.938	82.6389	210.938	82.6218
216.797	84.5537	216.797	84.5389	216.797	84.5361	216.797	84.4926	216.797	84.4872	216.797	84.4172	216.797	84.4102	216.797	84.3167	216.797	84.31	216.797	84.1955	216.797	84.1925	216.797	84.0585	216.797	84.0637	216.797	83.9107	216.797	83.9291	216.797	83.7571	216.797	83.793	216.797	83.6033	216.797	83.6589	216.797	83.4553	216.797	83.5294	216.797	83.3196	216.797	83.4069	216.797	83.202	216.797	83.2944	216.797	83.1069	216.797	83.1949	216.797	83.036	216.797	83.1114	216.797	82.9883	216.797	83.0458	216.797	82.9605	216.797	82.9983	216.797	82.9492	216.797	82.9676	216.797	82.9517
225.586	85.1542	225.586	85.1289	225.586	85.1344	225.586	85.0609	225.586	85.0694	225.586	84.9549	225.586	84.9619	225.586	84.8176	225.586	84.8169	225.586	84.6567	225.586	84.6412	225.586	84.4808	225.586	84.4438	225.586	84.2985	225.586	84.2349	225.586	84.1181	225.586	84.0254	225.586	83.9474	225.586	83.8272	225.586	83.7938	225.586	83.6513	225.586	83.6635	225.586	83.5073	225.586	83.5611	225.586	83.402	225.586	83.488	225.586	83.3371	225.586	83.4419	225.586	83.3093	225.586	83.4165	225.586	83.3103	225.586	83.4026	225.586	83.3288	225.586	83.3911	225.586	83.3533	225.586	83.3753
234.375	85.6474	234.375	85.6062	234.375	85.6424	234.375	85.5223	234.375	85.59	234.375	85.401	234.375	85.491	234.375	85.2486	234.375	85.3484	234.375	85.0727	234.375	85.1674	234.375	84.881	234.375	84.9552	234.375	84.6813	234.375	84.7207	234.375	84.4816	234.375	84.4749	234.375	84.2899	234.375	84.2306	234.375	84.1143	234.375	84.0015	234.375	83.9621	234.375	83.8016	234.375	83.8389	234.375	83.6429	234.375	83.7464	234.375	83.533	234.375	83.682	234.375	83.4729	234.375	83.6382	234.375	83.4562	234.375	83.6055	234.375	83.4711	234.375	83.5745	234.375	83.5032	234.375	83.5402
240.234	85.7746	240.234	85.6871	240.234	85.8101	240.234	85.5522	240.234	85.7921	240.234	85.3772	240.234	85.722	240.234	85.1722	240.234	85.6037	240.234	84.9494	240.234	85.4429	240.234	84.7217	240.234	85.2475	240.234	84.5019	240.234	85.0265	240.234	84.301	240.234	84.7906	240.234	84.1281	240.234	84.5517	240.234	83.9889	240.234	84.3227	240.234	83.8861	240.234	84.1171	240.234	83.8186	240.234	83.9468	240.234	83.7816	240.234	83.8206	240.234	83.7669	240.234	83.7417	240.234	83.7641	240.234	83.7059	240.234	83.7628	240.234	83.7029	240.234	83.7555	240.234	83.7186	240.234	83.7394
249.023	86.1429	249.023	86.0628	249.023	86.1573	249.023	85.9182	249.023	86.1069	249.023	85.7127	249.023	85.9945	249.023	85.4529	249.023	85.8247	249.023	85.1491	249.023	85.6045	249.023	84.8153	249.023	85.3432	249.023	84.4698	249.023	85.0536	249.023	84.1343	249.023	84.7522	249.023	83.8325	249.023	84.4589	249.023	83.5871	249.023	84.195	249.023	83.4153	249.023	83.9798	249.023	83.3246	249.023	83.8255	249.023	83.3099	249.023	83.734	249.023	83.355	249.023	83.6952	249.023	83.436	249.023	83.6902	249.023	83.5277	249.023	83.6962	249.023	83.6088	249.023	83.6927	249.023	83.6653
257.813	86.4226	257.813	86.3558	257.813	86.4308	257.813	86.2318	257.813	86.3811	257.813	86.0542	257.813	86.2755	257.813	85.8295	257.813	86.1172	257.813	85.5671	257.813	85.91	257.813	85.2788	257.813	85.6593	257.813	84.9797	257.813	85.3724	257.813	84.6866	257.813	85.0603	257.813	84.4179	257.813	84.7391	257.813	84.1909	257.813	84.4301	257.813	84.0199	257.813	84.1589	257.813	83.9118	257.813	83.9496	257.813	83.864	257.813	83.8183	257.813	83.8636	257.813	83.766	257.813	83.8903	257.813	83.7774	257.813	83.9209	257.813	83.8258	257.813	83.9357	257.813	83.8821	257.813	83.9229
266.602	86.1251	266.602	86.0563	266.602	86.1247	266.602	85.9184	266.602	86.0574	266.602	85.7148	266.602	85.9278	266.602	85.4525	266.602	85.7425	266.602	85.1428	266.602	85.5094	266.602	84.802	266.602	85.2378	266.602	84.4515	266.602	84.9383	266.602	84.117	266.602	84.6237	266.602	83.8257	266.602	84.3094	266.602	83.6016	266.602	84.014	266.602	83.4594	266.602	83.7586	266.602	83.3995	266.602	83.5633	266.602	83.4077	266.602	83.4418	266.602	83.4589	266.602	83.3958	266.602	83.524	266.602	83.4126	266.602	83.5766	266.602	83.468	266.602	83.5984	266.602	83.5331	266.602	83.5822
278.32	86.0147	278.32	85.9827	278.32	85.9707	278.32	85.8718	278.32	85.8554	278.32	85.6815	278.32	85.6763	278.32	85.4141	278.32	85.4431	278.32	85.0749	278.32	85.1679	278.32	84.6749	278.32	84.8648	278.32	84.2323	278.32	84.5495	278.32	83.7754	278.32	84.239	278.32	83.3433	278.32	83.9506	278.32	82.982	278.32	83.7012	278.32	82.7337	278.32	83.5054	278.32	82.6218	278.32	83.3723	278.32	82.6401	278.32	83.3027	278.32	82.7546	278.32	83.2865	278.32	82.9176	278.32	83.3041	278.32	83.0831	278.32	83.3293	278.32	83.2173	278.32	83.3358	278.32	83.3022
287.109	85.8526	287.109	85.8098	287.109	85.8197	287.109	85.6944	287.109	85.7082	287.109	85.5093	287.109	85.517	287.109	85.2576	287.109	85.248	287.109	84.9431	287.109	84.9084	287.109	84.5725	287.109	84.5125	287.109	84.1584	287.109	84.0836	287.109	83.723	287.109	83.654	287.109	83.2997	287.109	83.2629	287.109	82.9317	287.109	82.9488	287.109	82.6628	287.109	82.7402	287.109	82.5216	287.109	82.6455	287.109	82.5083	287.109	82.6508	287.109	82.5926	287.109	82.7251	287.109	82.727	287.109	82.8307	287.109	82.8634	287.109	82.9314	287.109	82.9655	287.109	82.9984	287.109	83.0123
295.898	85.7241	295.898	85.6403	295.898	85.7281	295.898	85.4813	295.898	85.648	295.898	85.2518	295.898	85.4796	295.898	84.958	295.898	85.2191	295.898	84.6073	295.898	84.8652	295.898	84.2102	295.898	84.4207	295.898	83.7817	295.898	83.8978	295.898	83.3436	295.898	83.3227	295.898	82.9261	295.898	82.7413	295.898	82.5672	295.898	82.22	295.898	82.3058	295.898	81.834	295.898	82.1686	295.898	81.6393	295.898	82.1566	295.898	81.6436	295.898	82.2409	295.898	81.8006	295.898	82.3718	295.898	82.0346	295.898	82.4956	295.898	82.2712	295.898	82.5673	295.898	82.4559	295.898	82.5576
307.617	85.4884	307.617	85.3858	307.617	85.5151	307.617	85.2078	307.617	85.4661	307.617	84.9559	307.617	85.3415	307.617	84.6336	307.617	85.1412	307.617	84.2473	307.617	84.8653	307.617	83.808	307.617	84.5151	307.617	83.3339	307.617	84.0952	307.617	82.8531	307.617	83.6177	307.617	82.4052	307.617	83.1069	307.617	82.0385	307.617	82.6032	307.617	81.7985	307.617	82.1629	307.617	81.7097	307.617	81.8473	307.617	81.7614	307.617	81.6987	307.617	81.9089	307.617	81.717	307.617	82.09	307.617	81.8566	307.617	82.2449	307.617	82.0463	307.617	82.3292	307.617	82.2173	307.617	82.3199
319.336	85.1519	319.336	85.0595	319.336	85.1605	319.336	84.8816	319.336	85.0871	319.336	84.6171	319.336	84.9337	319.336	84.2663	319.336	84.702	319.336	83.8325	319.336	84.3941	319.336	83.3237	319.336	84.013	319.336	82.7571	319.336	83.5648	319.336	82.1638	319.336	83.0617	319.336	81.5933	319.336	82.5269	319.336	81.1132	319.336	81.9987	319.336	80.7937	319.336	81.5318	319.336	80.6777	319.336	81.1878	319.336	80.754	319.336	81.0123	319.336	80.9589	319.336	81.0097	319.336	81.2067	319.336	81.1358	319.336	81.4204	319.336	81.317	319.336	81.5481	319.336	81.4793	319.336	81.5665
331.055	84.9792	331.055	84.8935	331.055	84.9789	331.055	84.7192	331.055	84.8959	331.055	84.4545	331.055	84.7342	331.055	84.0993	331.055	84.4981	331.055	83.656	331.055	84.1928	331.055	83.1322	331.055	83.8245	331.055	82.5449	331.055	83.4018	331.055	81.9262	331.055	82.9378	331.055	81.3291	331.055	82.4526	331.055	80.8264	331.055	81.9764	331.055	80.4934	331.055	81.5491	331.055	80.3739	331.055	81.2155	331.055	80.4517	331.055	81.0107	331.055	80.6568	331.055	80.9442	331.055	80.9008	331.055	80.9911	331.055	81.1092	331.055	81.0995	331.055	81.236	331.055	81.2085	331.055	81.2655
342.773	84.6787	342.773	84.6359	342.773	84.6246	342.773	84.4931	342.773	84.4767	342.773	84.2475	342.773	84.2391	342.773	83.897	342.773	83.9168	342.773	83.4407	342.773	83.5171	342.773	82.8824	342.773	83.0507	342.773	82.2351	342.773	82.5346	342.773	81.5303	342.773	81.9959	342.773	80.8294	342.773	81.4753	342.773	80.2305	342.773	81.0272	342.773	79.85	342.773	80.7114	342.773	79.7674	342.773	80.572	342.773	79.9669	342.773	80.6137	342.773	80.3436	342.773	80.7948	342.773	80.7667	342.773	81.0428	342.773	81.1329	342.773	81.2798	342.773	81.3802	342.773	81.4414	342.773	81.4827
354.492	84.8007	354.492	84.7436	354.492	84.762	354.492	84.5914	354.492	84.6255	354.492	84.3434	354.492	84.389	354.492	83.9965	354.492	84.0504	354.492	83.5457	354.492	83.6083	354.492	82.985	354.492	83.0643	354.492	82.3111	354.492	82.4252	354.492	81.5303	354.492	81.709	354.492	80.6729	354.492	80.9527	354.492	79.8136	354.492	80.2217	354.492	79.0877	354.492	79.612	354.492	78.6619	354.492	79.2271	354.492	78.6312	354.492	79.1259	354.492	78.9289	354.492	79.2775	354.492	79.3758	354.492	79.5747	354.492	79.7988	354.492	79.8902	354.492	80.0885	354.492	80.1199	354.492	80.1967
366.211	84.7556	366.211	84.6717	366.211	84.7564	366.211	84.504	366.211	84.6736	366.211	84.2501	366.211	84.5049	366.211	83.906	366.211	84.2461	366.211	83.4663	366.211	83.8908	366.211	82.9247	366.211	83.431	366.211	82.2773	366.211	82.8587	366.211	81.5277	366.211	82.1692	366.211	80.6974	366.211	81.369	366.211	79.8415	366.211	80.4886	366.211	79.0632	366.211	79.6012	366.211	78.5017	366.211	78.8346	366.211	78.2662	366.211	78.3432	366.211	78.3479	366.211	78.2138	366.211	78.6171	366.211	78.3867	366.211	78.9104	366.211	78.6969	366.211	79.1033	366.211	78.9801	366.211	79.1301
377.93	84.8098	377.93	84.696	377.93	84.8376	377.93	84.4962	377.93	84.7802	377.93	84.2114	377.93	84.639	377.93	83.8423	377.93	84.4153	377.93	83.3886	377.93	84.1088	377.93	82.8484	377.93	83.7172	377.93	82.2187	377.93	83.2363	377.93	81.4997	377.93	82.6621	377.93	80.7037	377.93	81.9944	377.93	79.8705	377.93	81.2451	377.93	79.0851	377.93	80.45	377.93	78.4791	377.93	79.6818	377.93	78.1777	377.93	79.0508	377.93	78.2035	377.93	78.6677	377.93	78.4431	377.93	78.5693	377.93	78.7263	377.93	78.6789	377.93	78.9189	377.93	78.8526	377.93	78.958
392.578	84.4011	392.578	84.3523	392.578	84.3444	392.578	84.1954	392.578	84.1886	392.578	83.9313	392.578	83.944	392.578	83.5633	392.578	83.6237	392.578	83.0963	392.578	83.2417	392.578	82.535	392.578	82.8105	392.578	81.8832	392.578	82.3379	392.578	81.1438	392.578	81.8259	392.578	80.3221	392.578	81.2707	392.578	79.4345	392.578	80.6683	392.578	78.5227	392.578	80.0214	392.578	77.6704	392.578	79.35	392.578	77.0006	392.578	78.6989	392.578	76.6242	392.578	78.1319	392.578	76.5558	392.578	77.7052	392.578	76.695	392.578	77.4282	392.578	76.9042	392.578	77.2503	392.578	77.0932
407.227	84.6814	407.227	84.5745	407.227	84.6563	407.227	84.3423	407.227	84.4973	407.227	83.9976	407.227	84.207	407.227	83.5588	407.227	83.7933	407.227	83.0498	407.227	83.2694	407.227	82.4962	407.227	82.655	407.227	81.9202	407.227	81.9766	407.227	81.3329	407.227	81.2661	407.227	80.7307	407.227	80.5562	407.227	80.0981	407.227	79.8746	407.227	79.4189	407.227	79.2378	407.227	78.6929	407.227	78.652	407.227	77.9532	407.227	78.1185	407.227	77.2734	407.227	77.6413	407.227	76.7478	407.227	77.2285	407.227	76.4426	407.227	76.8872	407.227	76.3558	407.227	76.62	407.227	76.4336
421.875	85.2487	421.875	85.0931	421.875	85.2675	421.875	84.7951	421.875	85.1549	421.875	84.3503	421.875	84.9169	421.875	83.7586	421.875	84.5606	421.875	83.0292	421.875	84.0967	421.875	82.1891	421.875	83.5411	421.875	81.2929	421.875	82.9166	421.875	80.4286	421.875	82.252	421.875	79.7029	421.875	81.5793	421.875	79.1964	421.875	80.9285	421.875	78.9129	421.875	80.321	421.875	78.7796	421.875	79.7676	421.875	78.6993	421.875	79.2728	421.875	78.6022	421.875	78.8423	421.875	78.4643	421.875	78.4893	421.875	78.3018	421.875	78.2337	421.875	78.1555	421.875	78.0937	421.875	78.0735
436.523	85.5015	436.523	85.4879	436.523	85.3882	436.523	85.3393	436.523	85.1507	436.523	85.043	436.523	84.7876	436.523	84.5843	436.523	84.2961	436.523	83.9502	436.523	83.6773	436.523	83.1347	436.523	82.9443	436.523	82.1498	436.523	82.1331	436.523	81.044	436.523	81.3131	436.523	79.9299	436.523	80.5889	436.523	78.9993	436.523	80.0732	436.523	78.4612	436.523	79.828	436.523	78.3896	436.523	79.8224	436.523	78.6589	436.523	79.9566	436.523	79.068	436.523	80.1255	436.523	79.4718	436.523	80.2578	436.523	79.8044	436.523	80.3204	436.523	80.051	436.523	80.3059	436.523	80.2162
451.172	85.314	451.172	85.2982	451.172	85.2377	451.172	85.185	451.172	85.068	451.172	84.9625	451.172	84.797	451.172	84.6134	451.172	84.4124	451.172	84.1171	451.172	83.9004	451.172	83.4527	451.172	83.2498	451.172	82.6029	451.172	82.4595	451.172	81.564	451.172	81.5494	451.172	80.3662	451.172	80.5784	451.172	79.1124	451.172	79.6612	451.172	78.0228	451.172	78.9598	451.172	77.3954	451.172	78.6102	451.172	77.3805	451.172	78.6209	451.172	77.8162	451.172	78.8658	451.172	78.409	451.172	79.1808	451.172	78.9486	451.172	79.4416	451.172	79.338	451.172	79.576	451.172	79.5471
465.82	85.416	465.82	85.3427	465.82	85.3948	465.82	85.1725	465.82	85.2733	465.82	84.8961	465.82	85.0382	465.82	84.4994	465.82	84.6717	465.82	83.9673	465.82	84.1541	465.82	83.2884	465.82	83.4686	465.82	82.4622	465.82	82.6086	465.82	81.511	465.82	81.5892	465.82	80.4966	465.82	80.469	465.82	79.537	465.82	79.3781	465.82	78.7935	465.82	78.5219	465.82	78.395	465.82	78.09	465.82	78.3425	465.82	78.1	465.82	78.5153	465.82	78.3821	465.82	78.7689	465.82	78.7315	465.82	79.0031	465.82	79.0175	465.82	79.1663	465.82	79.1872	465.82	79.2332
483.398	85.1266	483.398	85.1003	483.398	85.086	483.398	84.9982	483.398	84.977	483.398	84.8026	483.398	84.7878	483.398	84.4895	483.398	84.4975	483.398	84.0308	483.398	84.0793	483.398	83.3978	483.398	83.5048	483.398	82.5644	483.398	82.7498	483.398	81.5153	483.398	81.8036	483.398	80.2649	483.398	80.6877	483.398	78.8984	483.398	79.4913	483.398	77.6374	483.398	78.4132	483.398	76.8381	483.398	77.7353	483.398	76.7401	483.398	77.6212	483.398	77.1895	483.398	77.9385	483.398	77.8325	483.398	78.403	483.398	78.4159	483.398	78.7982	483.398	78.8279	483.398	79.0197	483.398	79.0319
500.977	85.0172	500.977	84.9885	500.977	85.0159	500.977	84.9197	500.977	84.9797	500.977	84.7876	500.977	84.8895	500.977	84.5602	500.977	84.7154	500.977	84.2017	500.977	84.4214	500.977	83.6763	500.977	83.9707	500.977	82.9528	500.977	83.3291	500.977	82.0116	500.977	82.4713	500.977	80.862	500.977	81.3919	500.977	79.581	500.977	80.1329	500.977	78.3786	500.977	78.8346	500.977	77.6079	500.977	77.786	500.977	77.5259	500.977	77.3262	500.977	77.9917	500.977	77.5295	500.977	78.6342	500.977	78.1183	500.977	79.1734	500.977	78.7606	500.977	79.478	500.977	79.2536	500.977	79.5045
518.555	84.9652	518.555	84.9608	518.555	84.9441	518.555	84.9191	518.555	84.8971	518.555	84.8175	518.555	84.8112	518.555	84.6254	518.555	84.6619	518.555	84.3068	518.555	84.4156	518.555	83.8242	518.555	84.0337	518.555	83.1411	518.555	83.4772	518.555	82.228	518.555	82.7134	518.555	81.0747	518.555	81.7267	518.555	79.7209	518.555	80.5399	518.555	78.3194	518.555	79.2565	518.555	77.1994	518.555	78.1128	518.555	76.7359	518.555	77.4339	518.555	76.9605	518.555	77.3717	518.555	77.525	518.555	77.7277	518.555	78.0858	518.555	78.1778	518.555	78.468	518.555	78.5041	518.555	78.6105
536.133	84.6116	536.133	84.6579	536.133	84.5489	536.133	84.6778	536.133	84.4643	536.133	84.6462	536.133	84.3384	536.133	84.5259	536.133	84.141	536.133	84.2724	536.133	83.836	536.133	83.8393	536.133	83.3855	536.133	83.1824	536.133	82.755	536.133	82.2651	536.133	81.9195	536.133	81.0665	536.133	80.8751	536.133	79.6057	536.133	79.6646	536.133	78.0004	536.133	78.4229	536.133	76.5641	536.133	77.4122	536.133	75.7766	536.133	76.9179	536.133	75.8466	536.133	76.9798	536.133	76.4382	536.133	77.3428	536.133	77.1109	536.133	77.7162	536.133	77.6271	536.133	77.9275	536.133	77.9045
553.711	84.7483	553.711	84.7667	553.711	84.7493	553.711	84.789	553.711	84.7676	553.711	84.7829	553.711	84.7816	553.711	84.7023	553.711	84.7508	553.711	84.4925	553.711	84.6191	553.711	84.0973	553.711	84.3223	553.711	83.4653	553.711	83.796	553.711	82.5591	553.711	82.9822	553.711	81.3693	553.711	81.838	553.711	79.9456	553.711	80.3564	553.711	78.451	553.711	78.6245	553.711	77.1959	553.711	76.9413	553.711	76.4982	553.711	75.852	553.711	76.3824	553.711	75.682	553.711	76.5844	553.711	76.095	553.711	76.845	553.711	76.593	553.711	77.028	553.711	76.9345	553.711	77.0715
574.219	84.4508	574.219	84.5564	574.219	84.4518	574.219	84.7517	574.219	84.5423	574.219	84.9845	574.219	84.6805	574.219	85.1774	574.219	84.8091	574.219	85.2456	574.219	84.863	574.219	85.1114	574.219	84.7745	574.219	84.7119	574.219	84.4795	574.219	84.0034	574.219	83.9228	574.219	82.9678	574.219	83.0669	574.219	81.6354	574.219	81.9102	574.219	80.1312	574.219	80.5247	574.219	78.7269	574.219	79.1181	574.219	77.7671	574.219	78.0389	574.219	77.3851	574.219	77.545	574.219	77.3916	574.219	77.5259	574.219	77.5352	574.219	77.6705	574.219	77.6788	574.219	77.7706	574.219	77.7682
594.727	81.7208	594.727	81.8225	594.727	81.9168	594.727	82.2126	594.727	82.3763	594.727	82.821	594.727	83.0253	594.727	83.5182	594.727	83.7527	594.727	84.1506	594.727	84.4301	594.727	84.5811	594.727	84.9373	594.727	84.7058	594.727	85.1748	594.727	84.4553	594.727	85.0638	594.727	83.8015	594.727	84.5435	594.727	82.7909	594.727	83.5786	594.727	81.6303	594.727	82.2046	594.727	80.7654	594.727	80.664	594.727	80.6323	594.727	79.592	594.727	81.1323	594.727	79.6213	594.727	81.8005	594.727	80.4606	594.727	82.3121	594.727	81.4054	594.727	82.5495	594.727	82.1055	594.727	82.4849
615.234	82.3254	615.234	82.1948	615.234	82.3668	615.234	82.083	615.234	82.3501	615.234	82.1881	615.234	82.4213	615.234	82.6382	615.234	82.7408	615.234	83.3382	615.234	83.327	615.234	84.0393	615.234	84.0173	615.234	84.5086	615.234	84.5906	615.234	84.597	615.234	84.8748	615.234	84.2272	615.234	84.7663	615.234	83.3897	615.234	84.2215	615.234	82.2082	615.234	83.2788	615.234	81.1175	615.234	82.1634	615.234	80.86	615.234	81.4232	615.234	81.6441	615.234	81.6154	615.234	82.822	615.234	82.5405	615.234	83.8214	615.234	83.5594	615.234	84.4254	615.234	84.2831	615.234	84.5811
638.672	84.8737	638.672	84.6655	638.672	84.8335	638.672	84.2443	638.672	84.5746	638.672	83.7269	638.672	84.1919	638.672	83.3124	638.672	83.8436	638.672	83.1914	638.672	83.6981	638.672	83.3724	638.672	83.8126	638.672	83.6493	638.672	84.0654	638.672	83.7595	638.672	84.2359	638.672	83.5069	638.672	84.1194	638.672	82.7813	638.672	83.5728	638.672	81.5808	638.672	82.5305	638.672	80.16	638.672	81.0931	638.672	79.2974	638.672	79.7949	638.672	79.7523	638.672	79.6089	638.672	81.0153	638.672	80.6192	638.672	82.2013	638.672	81.8727	638.672	82.9337	638.672	82.7634	638.672	83.125
659.18	85.3147	659.18	85.1351	659.18	85.2898	659.18	84.7778	659.18	85.0749	659.18	84.3174	659.18	84.7288	659.18	83.8788	659.18	84.3607	659.18	83.5962	659.18	84.1071	659.18	83.5166	659.18	84.0505	659.18	83.5352	659.18	84.1352	659.18	83.4527	659.18	84.1872	659.18	83.0789	659.18	84.0103	659.18	82.2934	659.18	83.4509	659.18	81.0915	659.18	82.4228	659.18	79.7143	659.18	80.9716	659.18	78.835	659.18	79.4984	659.18	79.1058	659.18	78.9299	659.18	80.1668	659.18	79.6662	659.18	81.2461	659.18	80.8554	659.18	81.9436	659.18	81.7542	659.18	82.1263
682.617	85.5983	682.617	85.4337	682.617	85.5291	682.617	85.0608	682.617	85.2347	682.617	84.5517	682.617	84.7595	682.617	84.033	682.617	84.1965	682.617	83.6541	682.617	83.692	682.617	83.491	682.617	83.394	682.617	83.4686	682.617	83.3346	682.617	83.4028	682.617	83.3723	682.617	83.1055	682.617	83.2773	682.617	82.4489	682.617	82.8461	682.617	81.4026	682.617	81.9562	682.617	80.1243	682.617	80.6305	682.617	79.1243	682.617	79.2475	682.617	79.0686	682.617	78.7109	682.617	79.8961	682.617	79.4453	682.617	80.9138	682.617	80.6296	682.617	81.6324	682.617	81.514	682.617	81.8551
706.055	85.9594	706.055	85.779	706.055	85.8827	706.055	85.3565	706.055	85.5607	706.055	84.7434	706.055	85.0384	706.055	84.052	706.055	84.4123	706.055	83.4622	706.055	83.8401	706.055	83.1381	706.055	83.4865	706.055	83.0643	706.055	83.3935	706.055	83.0165	706.055	83.4132	706.055	82.7169	706.055	83.301	706.055	81.9589	706.055	82.8327	706.055	80.6552	706.055	81.8427	706.055	78.9731	706.055	80.2517	706.055	77.7167	706.055	78.2699	706.055	77.9772	706.055	76.9934	706.055	79.2849	706.055	77.6785	706.055	80.5084	706.055	79.2953	706.055	81.188	706.055	80.5864	706.055	81.2234
732.422	85.7835	732.422	85.6606	732.422	85.6762	732.422	85.3262	732.422	85.3325	732.422	84.8238	732.422	84.7656	732.422	84.2394	732.422	84.0379	732.422	83.6962	732.422	83.2978	732.422	83.2994	732.422	82.764	732.422	83.0568	732.422	82.5775	732.422	82.8556	732.422	82.6383	732.422	82.5159	732.422	82.6714	732.422	81.8561	732.422	82.4093	732.422	80.7419	732.422	81.6728	732.422	79.1879	732.422	80.3938	732.422	77.6499	732.422	78.7372	732.422	77.1721	732.422	77.4245	732.422	77.9952	732.422	77.4391	732.422	79.0968	732.422	78.447	732.422	79.7942	732.422	79.425	732.422	79.908
758.789	86.102	758.789	85.8757	758.789	86.0564	758.789	85.3738	758.789	85.7547	758.789	84.6255	758.789	85.214	758.789	83.721	758.789	84.4591	758.789	82.8431	758.789	83.559	758.789	82.2366	758.789	82.684	758.789	82.0286	758.789	82.0813	758.789	82.0517	758.789	81.8468	758.789	81.9611	758.789	81.7556	758.789	81.4598	758.789	81.4572	758.789	80.3922	758.789	80.7079	758.789	78.8227	758.789	79.4416	758.789	77.3257	758.789	77.8956	758.789	77.0455	758.789	76.8916	758.789	78.077	758.789	77.2667	758.789	79.2874	758.789	78.4695	758.789	80.0139	758.789	79.5479	758.789	80.0986
785.156	85.7233	785.156	85.5402	785.156	85.651	785.156	85.122	785.156	85.3149	785.156	84.4942	785.156	84.7384	785.156	83.7094	785.156	83.9907	785.156	82.8924	785.156	83.185	785.156	82.2383	785.156	82.4687	785.156	81.8766	785.156	81.9944	785.156	81.7175	785.156	81.8203	785.156	81.5148	785.156	81.7858	785.156	81.0218	785.156	81.5636	785.156	80.0436	785.156	80.8344	785.156	78.4725	785.156	79.3791	785.156	76.5569	785.156	77.1638	785.156	75.5388	785.156	74.9038	785.156	76.4134	785.156	74.7409	785.156	77.8499	785.156	76.5019	785.156	78.7423	785.156	78.0788	785.156	78.8353
811.523	86.0919	811.523	85.9209	811.523	86.0163	811.523	85.4815	811.523	85.7028	811.523	84.7629	811.523	85.1398	811.523	83.7929	811.523	84.3207	811.523	82.6758	811.523	83.3019	811.523	81.6464	811.523	82.2602	811.523	81.0279	811.523	81.4488	811.523	80.9098	811.523	81.0006	811.523	80.928	811.523	80.8088	811.523	80.5851	811.523	80.6235	811.523	79.5768	811.523	80.14	811.523	77.9079	811.523	79.05	811.523	76.1588	811.523	77.2195	811.523	75.6583	811.523	75.299	811.523	76.7215	811.523	75.1811	811.523	78.0772	811.523	76.7558	811.523	78.9036	811.523	78.2263	811.523	78.9673
840.82	85.9588	840.82	85.7273	840.82	85.9515	840.82	85.272	840.82	85.6988	840.82	84.6123	840.82	85.2024	840.82	83.7762	840.82	84.467	840.82	82.8228	840.82	83.5029	840.82	81.8821	840.82	82.3768	840.82	81.1425	840.82	81.323	840.82	80.6863	840.82	80.7203	840.82	80.3319	840.82	80.6396	840.82	79.7435	840.82	80.6199	840.82	78.6267	840.82	80.1475	840.82	76.8513	840.82	78.9296	840.82	74.8115	840.82	76.8717	840.82	74.0614	840.82	74.4281	840.82	75.2134	840.82	73.6712	840.82	76.637	840.82	75.2511	840.82	77.4728	840.82	76.8346	840.82	77.5685
870.117	86.2192	870.117	85.9995	870.117	86.2062	870.117	85.5344	870.117	85.9646	870.117	84.8173	870.117	85.4809	870.117	83.8628	870.117	84.7405	870.117	82.7443	870.117	83.7641	870.117	81.6733	870.117	82.6452	870.117	80.9845	870.117	81.5742	870.117	80.7887	870.117	80.8145	870.117	80.7263	870.117	80.5179	870.117	80.3095	870.117	80.4678	870.117	79.2126	870.117	80.1915	870.117	77.2937	870.117	79.2964	870.117	74.808	870.117	77.639	870.117	73.3044	870.117	75.5984	870.117	74.3192	870.117	74.6571	870.117	76.119	870.117	75.6488	870.117	77.3237	870.117	76.9957	870.117	77.6279
902.344	86.1959	902.344	86.0287	902.344	86.1696	902.344	85.6478	902.344	85.9456	902.344	85.0145	902.344	85.5045	902.344	84.0939	902.344	84.8202	902.344	82.8933	902.344	83.8701	902.344	81.5322	902.344	82.6817	902.344	80.3287	902.344	81.4504	902.344	79.6838	902.344	80.5639	902.344	79.5964	902.344	80.2018	902.344	79.5565	902.344	80.0342	902.344	79.0036	902.344	79.6171	902.344	77.5371	902.344	78.6549	902.344	75.0177	902.344	76.9394	902.344	72.6976	902.344	74.5668	902.344	73.5893	902.344	73.2148	902.344	75.7171	902.344	74.5756	902.344	76.9688	902.344	76.3317	902.344	77.1651
931.641	86.2421	931.641	86.0185	931.641	86.2187	931.641	85.5619	931.641	85.945	931.641	84.8783	931.641	85.4205	931.641	83.9482	931.641	84.6371	931.641	82.7723	931.641	83.5994	931.641	81.511	931.641	82.377	931.641	80.5665	931.641	81.1634	931.641	80.2427	931.641	80.2958	931.641	80.291	931.641	80.0578	931.641	80.1828	931.641	80.2362	931.641	79.5142	931.641	80.1968	931.641	78.0318	931.641	79.4085	931.641	75.5718	931.641	77.65	931.641	72.6121	931.641	75.1754	931.641	72.36	931.641	73.4125	931.641	74.7863	931.641	74.0366	931.641	76.4089	931.641	75.6413	931.641	76.6212
966.797	85.7335	966.797	85.584	966.797	85.6865	966.797	85.243	966.797	85.4366	966.797	84.7015	966.797	84.9793	966.797	83.9288	966.797	84.3071	966.797	82.8815	966.797	83.4	966.797	81.5483	966.797	82.2346	966.797	80.0905	966.797	80.8759	966.797	79.0081	966.797	79.66	966.797	78.7004	966.797	79.0874	966.797	78.6902	966.797	79.0824	966.797	78.2125	966.797	78.9304	966.797	76.8769	966.797	78.0028	966.797	74.6043	966.797	75.9437	966.797	72.0156	966.797	72.7935	966.797	71.7345	966.797	70.8793	966.797	73.8258	966.797	72.9569	966.797	75.5311	966.797	75.1949	966.797	76.0459
999.023	85.3315	999.023	85.1528	999.023	85.3446	999.023	84.8478	999.023	85.1683	999.023	84.4317	999.023	84.7891	999.023	83.835	999.023	84.1764	999.023	82.9146	999.023	83.2773	999.023	81.6043	999.023	82.0543	999.023	80.116	999.023	80.5443	999.023	78.9492	999.023	78.9732	999.023	78.4153	999.023	77.954	999.023	78.2403	999.023	77.9969	999.023	77.8914	999.023	78.416	999.023	76.8863	999.023	78.1977	999.023	74.8659	999.023	76.8609	999.023	71.9166	999.023	74.301	999.023	70.541	999.023	71.4479	999.023	72.8185	999.023	71.9069	999.023	74.9636	999.023	74.3256	999.023	75.512
1,034.18	84.7989	1,034.18	84.6144	1,034.18	84.7082	1,034.18	84.1731	1,034.18	84.3957	1,034.18	83.5611	1,034.18	83.9326	1,034.18	82.8627	1,034.18	83.349	1,034.18	82.1018	1,034.18	82.6123	1,034.18	81.2562	1,034.18	81.6558	1,034.18	80.2992	1,034.18	80.4451	1,034.18	79.2579	1,034.18	79.092	1,034.18	78.3028	1,034.18	77.9672	1,034.18	77.6052	1,034.18	77.3858	1,034.18	76.9214	1,034.18	77.0103	1,034.18	75.7002	1,034.18	76.2439	1,034.18	73.5829	1,034.18	74.8244	1,034.18	71.1071	1,034.18	72.8449	1,034.18	70.8167	1,034.18	71.1592	1,034.18	72.7287	1,034.18	71.772	1,034.18	74.286	1,034.18	73.6843	1,034.18	74.6696
1,072.27	84.0054	1,072.27	83.9405	1,072.27	83.9076	1,072.27	83.6388	1,072.27	83.6914	1,072.27	83.0955	1,072.27	83.3162	1,072.27	82.3828	1,072.27	82.706	1,072.27	81.511	1,072.27	81.8494	1,072.27	80.3641	1,072.27	80.8516	1,072.27	78.9528	1,072.27	79.836	1,072.27	77.7593	1,072.27	78.782	1,072.27	77.3209	1,072.27	77.6717	1,072.27	77.2279	1,072.27	76.8156	1,072.27	76.7529	1,072.27	76.468	1,072.27	75.5464	1,072.27	76.0991	1,072.27	73.2433	1,072.27	74.9448	1,072.27	69.3685	1,072.27	72.6153	1,072.27	67.7983	1,072.27	69.4014	1,072.27	71.5764	1,072.27	68.7025	1,072.27	73.7193	1,072.27	71.6253	1,072.27	73.6448
1,110.35	83.6763	1,110.35	83.404	1,110.35	83.7536	1,110.35	82.983	1,110.35	83.567	1,110.35	82.3989	1,110.35	83.0571	1,110.35	81.5844	1,110.35	82.1993	1,110.35	80.4898	1,110.35	81.0474	1,110.35	79.1603	1,110.35	79.7728	1,110.35	77.8266	1,110.35	78.5507	1,110.35	76.9636	1,110.35	77.3904	1,110.35	76.8772	1,110.35	76.4348	1,110.35	77.0869	1,110.35	76.2416	1,110.35	76.8205	1,110.35	76.594	1,110.35	75.6456	1,110.35	76.3755	1,110.35	73.4648	1,110.35	74.9599	1,110.35	70.3821	1,110.35	72.375	1,110.35	67.5611	1,110.35	69.6784	1,110.35	68.774	1,110.35	69.4045	1,110.35	71.1814	1,110.35	70.9483	1,110.35	71.8755
1,148.44	83.5716	1,148.44	83.407	1,148.44	83.5162	1,148.44	82.9403	1,148.44	83.2748	1,148.44	82.1089	1,148.44	82.8337	1,148.44	81.0101	1,148.44	82.133	1,148.44	79.8771	1,148.44	81.1127	1,148.44	78.7784	1,148.44	79.8336	1,148.44	77.5903	1,148.44	78.52	1,148.44	76.5517	1,148.44	77.38	1,148.44	76.3136	1,148.44	76.4576	1,148.44	76.5168	1,148.44	75.8627	1,148.44	76.2304	1,148.44	75.7101	1,148.44	75.136	1,148.44	75.5186	1,148.44	73.1316	1,148.44	74.5436	1,148.44	70.011	1,148.44	72.3831	1,148.44	66.9199	1,148.44	69.419	1,148.44	67.7466	1,148.44	68.0126	1,148.44	69.7015	1,148.44	69.1916	1,148.44	70.192
1,189.45	83.6582	1,189.45	83.4852	1,189.45	83.6092	1,189.45	83.09	1,189.45	83.3143	1,189.45	82.4082	1,189.45	82.8048	1,189.45	81.4039	1,189.45	82.1371	1,189.45	80.1666	1,189.45	81.2806	1,189.45	78.797	1,189.45	80.1682	1,189.45	77.2177	1,189.45	78.9106	1,189.45	75.5337	1,189.45	77.7319	1,189.45	74.7978	1,189.45	76.5625	1,189.45	75.3769	1,189.45	75.435	1,189.45	75.6679	1,189.45	75.0575	1,189.45	74.6364	1,189.45	75.3236	1,189.45	72.0462	1,189.45	75.0348	1,189.45	68.5758	1,189.45	73.2809	1,189.45	66.9991	1,189.45	70.2279	1,189.45	67.6513	1,189.45	68.8265	1,189.45	68.5035	1,189.45	69.3239	1,189.45	69.1969
1,230.47	83.8897	1,230.47	83.8193	1,230.47	83.8674	1,230.47	83.6274	1,230.47	83.7011	1,230.47	83.1425	1,230.47	83.35	1,230.47	82.2017	1,230.47	82.7599	1,230.47	80.8352	1,230.47	81.8289	1,230.47	79.182	1,230.47	80.4584	1,230.47	77.1906	1,230.47	78.6852	1,230.47	74.893	1,230.47	76.9493	1,230.47	73.9058	1,230.47	75.9491	1,230.47	75.132	1,230.47	75.6848	1,230.47	76.1221	1,230.47	75.7835	1,230.47	75.7044	1,230.47	75.8636	1,230.47	73.6498	1,230.47	75.1621	1,230.47	69.7621	1,230.47	72.957	1,230.47	65.4739	1,230.47	69.8657	1,230.47	67.0092	1,230.47	68.9352	1,230.47	69.2399	1,230.47	69.5483	1,230.47	69.8326
1,274.41	84.0033	1,274.41	83.9343	1,274.41	83.9962	1,274.41	83.7709	1,274.41	83.9034	1,274.41	83.4463	1,274.41	83.6885	1,274.41	82.8621	1,274.41	83.3436	1,274.41	81.9773	1,274.41	82.8486	1,274.41	80.793	1,274.41	82.0072	1,274.41	79.1871	1,274.41	80.5201	1,274.41	76.8718	1,274.41	78.3754	1,274.41	74.4404	1,274.41	76.3833	1,274.41	74.6602	1,274.41	75.731	1,274.41	76.2938	1,274.41	76.267	1,274.41	76.6227	1,274.41	76.784	1,274.41	75.1423	1,274.41	76.053	1,274.41	72.0735	1,274.41	73.2716	1,274.41	68.8956	1,274.41	69.26	1,274.41	69.4612	1,274.41	68.9206	1,274.41	71.333	1,274.41	70.7645	1,274.41	71.7623
1,318.36	84.1636	1,318.36	83.9207	1,318.36	84.0468	1,318.36	83.41	1,318.36	83.6198	1,318.36	82.8889	1,318.36	82.9665	1,318.36	82.5139	1,318.36	82.2724	1,318.36	82.1356	1,318.36	81.782	1,318.36	81.4625	1,318.36	81.3997	1,318.36	80.285	1,318.36	80.5868	1,318.36	78.4592	1,318.36	78.7974	1,318.36	75.9537	1,318.36	76.0484	1,318.36	74.0967	1,318.36	73.8582	1,318.36	75.0507	1,318.36	74.2757	1,318.36	76.1731	1,318.36	75.5453	1,318.36	75.6388	1,318.36	75.5256	1,318.36	73.535	1,318.36	73.4427	1,318.36	71.1493	1,318.36	69.7963	1,318.36	71.3772	1,318.36	69.5346	1,318.36	73.0206	1,318.36	72.2661	1,318.36	73.5143
1,365.23	82.8592	1,365.23	82.51	1,365.23	82.7654	1,365.23	81.8343	1,365.23	82.259	1,365.23	81.1813	1,365.23	81.3957	1,365.23	80.7702	1,365.23	80.3548	1,365.23	80.3185	1,365.23	79.5687	1,365.23	79.5012	1,365.23	79.2219	1,365.23	78.3718	1,365.23	78.6656	1,365.23	76.9605	1,365.23	77.1609	1,365.23	75.0729	1,365.23	74.7702	1,365.23	73.6116	1,365.23	72.6866	1,365.23	74.0952	1,365.23	72.1452	1,365.23	74.3579	1,365.23	72.6074	1,365.23	72.8909	1,365.23	72.7518	1,365.23	70.5254	1,365.23	71.4554	1,365.23	70.2125	1,365.23	68.819	1,365.23	71.9191	1,365.23	69.6683	1,365.23	73.3604	1,365.23	72.6535	1,365.23	73.8009
1,415.04	82.7472	1,415.04	82.2539	1,415.04	82.7172	1,415.04	81.3549	1,415.04	82.1764	1,415.04	80.3025	1,415.04	81.2138	1,415.04	79.3786	1,415.04	79.9502	1,415.04	78.6968	1,415.04	78.6805	1,415.04	78.0536	1,415.04	78.0025	1,415.04	77.082	1,415.04	77.6479	1,415.04	75.5576	1,415.04	76.4196	1,415.04	73.4958	1,415.04	74.0979	1,415.04	72.2656	1,415.04	71.8931	1,415.04	73.0174	1,415.04	71.3102	1,415.04	73.1016	1,415.04	71.6372	1,415.04	71.3467	1,415.04	71.4939	1,415.04	67.9197	1,415.04	69.4452	1,415.04	67.2438	1,415.04	64.4798	1,415.04	71.7362	1,415.04	67.335	1,415.04	74.2607	1,415.04	72.2029	1,415.04	74.3331
1,464.84	83.9895	1,464.84	83.699	1,464.84	83.897	1,464.84	82.9907	1,464.84	83.5251	1,464.84	81.9293	1,464.84	82.916	1,464.84	80.6559	1,464.84	81.972	1,464.84	79.3842	1,464.84	80.5567	1,464.84	78.127	1,464.84	78.9809	1,464.84	76.7527	1,464.84	78.015	1,464.84	75.3225	1,464.84	77.2272	1,464.84	73.617	1,464.84	75.5738	1,464.84	71.5712	1,464.84	73.1135	1,464.84	71.8808	1,464.84	71.6787	1,464.84	73.3482	1,464.84	72.2427	1,464.84	72.8787	1,464.84	72.5466	1,464.84	69.6408	1,464.84	71.2352	1,464.84	65.168	1,464.84	67.1441	1,464.84	68.6389	1,464.84	62.733	1,464.84	72.0811	1,464.84	69.6164	1,464.84	72.5334
1,514.65	86.0871	1,514.65	85.8065	1,514.65	85.9493	1,514.65	85.1232	1,514.65	85.3724	1,514.65	84.0117	1,514.65	84.4954	1,514.65	82.4577	1,514.65	83.549	1,514.65	80.6952	1,514.65	82.3477	1,514.65	79.2568	1,514.65	80.5821	1,514.65	78.3832	1,514.65	79.1142	1,514.65	77.6076	1,514.65	78.8377	1,514.65	75.9758	1,514.65	78.3108	1,514.65	72.6444	1,514.65	76.1023	1,514.65	70.5532	1,514.65	73.0499	1,514.65	72.872	1,514.65	73.1029	1,514.65	73.6336	1,514.65	73.7399	1,514.65	70.8878	1,514.65	73.2508	1,514.65	66.6977	1,514.65	70.4678	1,514.65	70.5111	1,514.65	66.8371	1,514.65	73.8061	1,514.65	72.2089	1,514.65	74.5464
1,570.31	86.558	1,570.31	86.404	1,570.31	86.4099	1,570.31	85.9767	1,570.31	85.8481	1,570.31	85.0179	1,570.31	84.924	1,570.31	83.2945	1,570.31	83.8154	1,570.31	81.1848	1,570.31	82.5311	1,570.31	79.7627	1,570.31	80.7412	1,570.31	79.3462	1,570.31	78.759	1,570.31	78.9384	1,570.31	78.234	1,570.31	77.8938	1,570.31	78.5565	1,570.31	75.6745	1,570.31	77.275	1,570.31	72.3403	1,570.31	74.2388	1,570.31	72.8587	1,570.31	72.9711	1,570.31	74.4496	1,570.31	73.2496	1,570.31	71.6467	1,570.31	72.6332	1,570.31	65.3363	1,570.31	69.9285	1,570.31	69.2618	1,570.31	66.418	1,570.31	72.6974	1,570.31	71.3238	1,570.31	73.6735
1,623.05	85.7462	1,623.05	85.5616	1,623.05	85.6403	1,623.05	84.9756	1,623.05	85.1787	1,623.05	83.8524	1,623.05	84.3432	1,623.05	82.4692	1,623.05	83.2046	1,623.05	81.0546	1,623.05	81.8051	1,623.05	79.531	1,623.05	79.9258	1,623.05	78.6792	1,623.05	77.5929	1,623.05	78.5984	1,623.05	76.3733	1,623.05	77.8247	1,623.05	76.8537	1,623.05	76.2945	1,623.05	76.3416	1,623.05	74.505	1,623.05	73.8573	1,623.05	73.5686	1,623.05	72.3284	1,623.05	74.2542	1,623.05	73.4509	1,623.05	71.9579	1,623.05	73.4987	1,623.05	64.2576	1,623.05	70.0232	1,623.05	66.5989	1,623.05	63.6324	1,623.05	70.6541	1,623.05	68.8552	1,623.05	71.5812
1,681.64	85.2773	1,681.64	85.0066	1,681.64	85.3333	1,681.64	84.4418	1,681.64	84.9508	1,681.64	83.2291	1,681.64	84.1422	1,681.64	81.7385	1,681.64	82.9499	1,681.64	80.5236	1,681.64	81.3713	1,681.64	79.0853	1,681.64	79.6226	1,681.64	77.6113	1,681.64	77.8839	1,681.64	77.1742	1,681.64	76.1317	1,681.64	76.5281	1,681.64	75.5252	1,681.64	75.4569	1,681.64	75.4169	1,681.64	74.6107	1,681.64	73.7715	1,681.64	73.4031	1,681.64	71.9938	1,681.64	73.0616	1,681.64	73.3147	1,681.64	70.8731	1,681.64	73.6712	1,681.64	65.1818	1,681.64	70.1373	1,681.64	68.9437	1,681.64	65.8387	1,681.64	72.1727	1,681.64	69.3458	1,681.64	72.1407
1,740.23	85.5441	1,740.23	85.2179	1,740.23	85.414	1,740.23	84.7209	1,740.23	85.0049	1,740.23	84.0877	1,740.23	84.5679	1,740.23	82.8422	1,740.23	83.6433	1,740.23	80.7933	1,740.23	81.9782	1,740.23	78.6613	1,740.23	80.5194	1,740.23	76.682	1,740.23	79.5066	1,740.23	74.7568	1,740.23	77.4571	1,740.23	73.8304	1,740.23	74.5256	1,740.23	73.0424	1,740.23	73.2054	1,740.23	72.6907	1,740.23	72.6137	1,740.23	73.0969	1,740.23	72.4045	1,740.23	72.0036	1,740.23	72.8674	1,740.23	67.9089	1,740.23	71.8309	1,740.23	58.8978	1,740.23	68.7341	1,740.23	67.9692	1,740.23	65.019	1,740.23	73.1849	1,740.23	69.549	1,740.23	73.609
1,801.76	86.1289	1,801.76	85.8747	1,801.76	86.0653	1,801.76	85.1314	1,801.76	85.7887	1,801.76	84.2685	1,801.76	85.0311	1,801.76	83.5254	1,801.76	83.5861	1,801.76	82.3483	1,801.76	82.0936	1,801.76	80.3944	1,801.76	81.3842	1,801.76	78.0794	1,801.76	80.5976	1,801.76	76.2776	1,801.76	78.5397	1,801.76	74.6636	1,801.76	75.8533	1,801.76	72.3337	1,801.76	74.4363	1,801.76	70.4921	1,801.76	73.2704	1,801.76	71.2027	1,801.76	70.4807	1,801.76	71.5184	1,801.76	72.0944	1,801.76	70.3232	1,801.76	73.5939	1,801.76	65.9333	1,801.76	70.006	1,801.76	64.6991	1,801.76	62.9324	1,801.76	71.2195	1,801.76	70.1383	1,801.76	72.5608
1,866.21	85.7464	1,866.21	85.4377	1,866.21	85.613	1,866.21	84.5808	1,866.21	84.7966	1,866.21	83.5461	1,866.21	83.3052	1,866.21	82.6423	1,866.21	82.2224	1,866.21	81.5925	1,866.21	81.5803	1,866.21	80.2023	1,866.21	80.1583	1,866.21	78.0979	1,866.21	78.1929	1,866.21	75.5536	1,866.21	76.3928	1,866.21	74.6746	1,866.21	74.7859	1,866.21	73.7643	1,866.21	74.2182	1,866.21	71.3738	1,866.21	73.5551	1,866.21	70.9508	1,866.21	70.6411	1,866.21	71.499	1,866.21	68.6353	1,866.21	70.6864	1,866.21	69.1394	1,866.21	67.4561	1,866.21	66.3646	1,866.21	66.5565	1,866.21	57.2098	1,866.21	71.98	1,866.21	67.4142	1,866.21	72.3155
1,930.66	85.3492	1,930.66	85.027	1,930.66	85.0936	1,930.66	83.9436	1,930.66	84.6461	1,930.66	82.8021	1,930.66	83.403	1,930.66	81.5167	1,930.66	81.6197	1,930.66	80.0127	1,930.66	80.4736	1,930.66	78.9691	1,930.66	79.5131	1,930.66	77.8872	1,930.66	77.7438	1,930.66	75.393	1,930.66	75.2568	1,930.66	72.6889	1,930.66	73.2499	1,930.66	72.5785	1,930.66	72.974	1,930.66	71.0105	1,930.66	72.9286	1,930.66	69.4504	1,930.66	71.9182	1,930.66	72.3923	1,930.66	69.6435	1,930.66	71.801	1,930.66	68.96	1,930.66	67.1479	1,930.66	70.4085	1,930.66	66.1265	1,930.66	67.3019	1,930.66	70.2615	1,930.66	66.2198	1,930.66	71.2208
2,000.98	85.9088	2,000.98	85.1064	2,000.98	85.8315	2,000.98	84.2247	2,000.98	85.0432	2,000.98	83.3622	2,000.98	84.2245	2,000.98	81.8407	2,000.98	83.4009	2,000.98	79.9879	2,000.98	82.1425	2,000.98	78.571	2,000.98	80.2513	2,000.98	77.1516	2,000.98	78.081	2,000.98	75.1738	2,000.98	76.4113	2,000.98	73.4305	2,000.98	75.308	2,000.98	71.9382	2,000.98	74.0834	2,000.98	69.982	2,000.98	72.7896	2,000.98	68.7248	2,000.98	71.6198	2,000.98	68.8182	2,000.98	71.4432	2,000.98	68.2965	2,000.98	71.612	2,000.98	65.1888	2,000.98	69.8592	2,000.98	68.8325	2,000.98	65.8411	2,000.98	71.6337	2,000.98	68.8396	2,000.98	71.5317
2,071.29	86.3144	2,071.29	85.8311	2,071.29	86.3661	2,071.29	85.4644	2,071.29	85.7116	2,071.29	84.5416	2,071.29	84.9031	2,071.29	83.018	2,071.29	83.7465	2,071.29	81.4712	2,071.29	82.0316	2,071.29	79.8259	2,071.29	80.5154	2,071.29	78.3007	2,071.29	79.2789	2,071.29	76.6394	2,071.29	77.5628	2,071.29	74.2967	2,071.29	75.2325	2,071.29	72.2482	2,071.29	73.6652	2,071.29	70.5028	2,071.29	72.9193	2,071.29	68.7287	2,071.29	71.0378	2,071.29	69.3846	2,071.29	69.2893	2,071.29	68.4211	2,071.29	69.1728	2,071.29	59.9444	2,071.29	67.1899	2,071.29	64.1724	2,071.29	63.2576	2,071.29	71.4195	2,071.29	69.1877	2,071.29	72.5427
2,144.53	84.9286	2,144.53	84.862	2,144.53	84.8918	2,144.53	84.4803	2,144.53	84.2429	2,144.53	83.5253	2,144.53	83.2948	2,144.53	82.1843	2,144.53	82.637	2,144.53	80.6006	2,144.53	81.2148	2,144.53	79.3108	2,144.53	78.8595	2,144.53	78.0366	2,144.53	77.3456	2,144.53	76.0236	2,144.53	75.8297	2,144.53	74.501	2,144.53	72.6119	2,144.53	73.9173	2,144.53	70.2106	2,144.53	73.01	2,144.53	69.8257	2,144.53	69.7344	2,144.53	69.1406	2,144.53	67.6274	2,144.53	67.1283	2,144.53	70.2898	2,144.53	65.5475	2,144.53	67.1694	2,144.53	65.2259	2,144.53	62.5332	2,144.53	53.5841	2,144.53	71.0393	2,144.53	67.6241	2,144.53	71.8203
2,217.77	84.1586	2,217.77	84.3495	2,217.77	83.8145	2,217.77	83.5808	2,217.77	83.9389	2,217.77	81.8821	2,217.77	83.4043	2,217.77	79.9083	2,217.77	81.3492	2,217.77	78.9239	2,217.77	79.7089	2,217.77	78.4637	2,217.77	79.511	2,217.77	77.2246	2,217.77	78.192	2,217.77	75.3286	2,217.77	76.2423	2,217.77	73.0376	2,217.77	75.1732	2,217.77	72.0796	2,217.77	72.1553	2,217.77	71.8817	2,217.77	68.8465	2,217.77	69.486	2,217.77	67.8514	2,217.77	69.058	2,217.77	65.3571	2,217.77	70.8962	2,217.77	68.414	2,217.77	68.0396	2,217.77	67.0126	2,217.77	61.7732	2,217.77	59.4228	2,217.77	70.9812	2,217.77	51.494	2,217.77	68.0849
2,296.88	84.6408	2,296.88	84.5258	2,296.88	84.6173	2,296.88	83.8094	2,296.88	84.5614	2,296.88	82.5623	2,296.88	83.9648	2,296.88	81.3298	2,296.88	82.896	2,296.88	80.1057	2,296.88	81.9535	2,296.88	78.1505	2,296.88	80.5657	2,296.88	76.0938	2,296.88	78.5577	2,296.88	75.1433	2,296.88	77.0539	2,296.88	73.4731	2,296.88	75.6122	2,296.88	68.9172	2,296.88	73.4792	2,296.88	67.4973	2,296.88	71.9406	2,296.88	67.1767	2,296.88	71.1698	2,296.88	65.8104	2,296.88	68.6629	2,296.88	67.0606	2,296.88	69.0452	2,296.88	63.2404	2,296.88	70.3676	2,296.88	45.8961	2,296.88	64.2216	2,296.88	63.2749	2,296.88	60.9984	2,296.88	65.5938
2,378.91	84.9631	2,378.91	84.5316	2,378.91	85.1216	2,378.91	84.0259	2,378.91	84.6123	2,378.91	83.1773	2,378.91	83.5148	2,378.91	81.9365	2,378.91	82.866	2,378.91	80.1499	2,378.91	82.5297	2,378.91	78.1604	2,378.91	80.9306	2,378.91	77.3139	2,378.91	78.6216	2,378.91	75.974	2,378.91	77.1198	2,378.91	72.8539	2,378.91	75.5168	2,378.91	71.9452	2,378.91	72.4378	2,378.91	70.4617	2,378.91	71.3196	2,378.91	65.1595	2,378.91	72.5836	2,378.91	65.1972	2,378.91	65.921	2,378.91	65.643	2,378.91	65.6561	2,378.91	65.569	2,378.91	68.8782	2,378.91	59.3591	2,378.91	61.5178	2,378.91	67.1948	2,378.91	62.3497	2,378.91	66.3599
2,460.94	83.6024	2,460.94	83.3833	2,460.94	83.6101	2,460.94	82.962	2,460.94	83.2845	2,460.94	82.4773	2,460.94	82.7629	2,460.94	81.678	2,460.94	82.0119	2,460.94	80.1162	2,460.94	80.8769	2,460.94	78.7206	2,460.94	79.6276	2,460.94	77.5236	2,460.94	77.8386	2,460.94	76.4079	2,460.94	75.5568	2,460.94	74.9521	2,460.94	74.4027	2,460.94	72.5787	2,460.94	73.1664	2,460.94	71.6952	2,460.94	70.9845	2,460.94	69.2955	2,460.94	70.0355	2,460.94	66.5179	2,460.94	67.0244	2,460.94	67.7037	2,460.94	62.3941	2,460.94	64.7282	2,460.94	67.4837	2,460.94	58.1826	2,460.94	62.1609	2,460.94	64.3703	2,460.94	62.2155	2,460.94	67.6039
2,548.83	83.0818	2,548.83	82.875	2,548.83	83.1754	2,548.83	82.1384	2,548.83	83.1241	2,548.83	81.4859	2,548.83	82.6244	2,548.83	80.7306	2,548.83	81.9336	2,548.83	79.5219	2,548.83	81.0657	2,548.83	78.2384	2,548.83	80.0245	2,548.83	76.5457	2,548.83	78.4785	2,548.83	74.5949	2,548.83	75.9744	2,548.83	72.9104	2,548.83	74.0224	2,548.83	70.5825	2,548.83	72.6153	2,548.83	70.0862	2,548.83	70.6814	2,548.83	69.6082	2,548.83	70.2903	2,548.83	61.9184	2,548.83	68.4953	2,548.83	64.9337	2,548.83	63.1647	2,548.83	63.3696	2,548.83	66.0388	2,548.83	59.1159	2,548.83	65.482	2,548.83	70.166	2,548.83	51.738	2,548.83	69.9658
2,639.65	83.2556	2,639.65	83.0067	2,639.65	83.2542	2,639.65	82.6444	2,639.65	83.029	2,639.65	81.8653	2,639.65	82.5749	2,639.65	80.7227	2,639.65	81.8933	2,639.65	79.6613	2,639.65	80.8271	2,639.65	78.1413	2,639.65	79.4871	2,639.65	76.2923	2,639.65	78.0183	2,639.65	74.2955	2,639.65	75.8124	2,639.65	72.2654	2,639.65	73.5207	2,639.65	70.2637	2,639.65	72.1991	2,639.65	68.2172	2,639.65	69.9938	2,639.65	67.4619	2,639.65	69.3559	2,639.65	64.6174	2,639.65	68.9302	2,639.65	65.2754	2,639.65	64.7879	2,639.65	64.7653	2,639.65	65.9525	2,639.65	47.9875	2,639.65	64.4136	2,639.65	65.7197	2,639.65	53.3913	2,639.65	66.0981
2,733.4	81.9487	2,733.4	81.6598	2,733.4	82.0296	2,733.4	81.3138	2,733.4	81.9647	2,733.4	80.7671	2,733.4	81.5818	2,733.4	80.0851	2,733.4	80.7777	2,733.4	78.9967	2,733.4	79.5852	2,733.4	77.3323	2,733.4	78.0542	2,733.4	75.8628	2,733.4	76.6758	2,733.4	74.3159	2,733.4	74.869	2,733.4	71.8768	2,733.4	72.4187	2,733.4	69.2521	2,733.4	70.8831	2,733.4	67.1054	2,733.4	68.203	2,733.4	67.0814	2,733.4	67.2464	2,733.4	62.1529	2,733.4	67.7182	2,733.4	53.3507	2,733.4	62.0092	2,733.4	61.2829	2,733.4	64.1895	2,733.4	54.2018	2,733.4	64.3817	2,733.4	66.5619	2,733.4	42.1836	2,733.4	65.7812
2,827.15	80.6234	2,827.15	80.473	2,827.15	80.7733	2,827.15	80.1503	2,827.15	80.7306	2,827.15	79.5845	2,827.15	80.5841	2,827.15	78.734	2,827.15	79.9589	2,827.15	77.4687	2,827.15	78.6139	2,827.15	76.0644	2,827.15	77.018	2,827.15	73.7748	2,827.15	75.5916	2,827.15	71.8888	2,827.15	74.014	2,827.15	70.7253	2,827.15	71.5861	2,827.15	68.5922	2,827.15	70.2247	2,827.15	67.0642	2,827.15	68.6606	2,827.15	64.5711	2,827.15	65.7086	2,827.15	64.8785	2,827.15	66.3034	2,827.15	63.6574	2,827.15	62.7672	2,827.15	60.5486	2,827.15	63.6445	2,827.15	49.1751	2,827.15	63.8633	2,827.15	60.7606	2,827.15	51.1194	2,827.15	57.7101
2,926.76	80.8763	2,926.76	80.9093	2,926.76	80.9304	2,926.76	80.6724	2,926.76	80.9066	2,926.76	80.1958	2,926.76	80.5204	2,926.76	79.3047	2,926.76	79.98	2,926.76	78.3905	2,926.76	79.005	2,926.76	77.158	2,926.76	77.2204	2,926.76	74.9016	2,926.76	75.1466	2,926.76	72.3887	2,926.76	73.7072	2,926.76	70.7174	2,926.76	71.8013	2,926.76	68.9669	2,926.76	69.5375	2,926.76	67.095	2,926.76	67.9234	2,926.76	66.7469	2,926.76	65.4512	2,926.76	63.6544	2,926.76	66.3389	2,926.76	61.4073	2,926.76	63.4384	2,926.76	63.7674	2,926.76	62.5093	2,926.76	53.3714	2,926.76	63.964	2,926.76	63.1815	2,926.76	43.2891	2,926.76	64.1573
3,032.23	80.9432	3,032.23	80.9083	3,032.23	81.0346	3,032.23	81.0891	3,032.23	81.0594	3,032.23	80.8429	3,032.23	80.9967	3,032.23	79.9124	3,032.23	80.3584	3,032.23	78.0745	3,032.23	79.3685	3,032.23	76.3759	3,032.23	78.015	3,032.23	75.0403	3,032.23	75.8308	3,032.23	72.744	3,032.23	73.2702	3,032.23	70.8399	3,032.23	70.9862	3,032.23	68.9823	3,032.23	69.1567	3,032.23	67.4603	3,032.23	67.4905	3,032.23	66.8202	3,032.23	66.2027	3,032.23	63.3917	3,032.23	66.2145	3,032.23	63.4841	3,032.23	63.3049	3,032.23	63.4204	3,032.23	60.9121	3,032.23	51.954	3,032.23	64.3694	3,032.23	62.288	3,032.23	50.0731	3,032.23	64.5869
3,137.7	81.2233	3,137.7	81.3546	3,137.7	81.1932	3,137.7	81.485	3,137.7	81.384	3,137.7	81.3096	3,137.7	81.4555	3,137.7	80.2504	3,137.7	80.8203	3,137.7	78.5968	3,137.7	79.7738	3,137.7	76.8801	3,137.7	78.4248	3,137.7	75.0741	3,137.7	76.5912	3,137.7	72.9621	3,137.7	74.5599	3,137.7	70.5597	3,137.7	72.1972	3,137.7	68.8133	3,137.7	69.8802	3,137.7	66.6449	3,137.7	68.4117	3,137.7	67.2445	3,137.7	65.7299	3,137.7	65.374	3,137.7	66.0547	3,137.7	53.1192	3,137.7	65.5204	3,137.7	62.3509	3,137.7	63.3655	3,137.7	47.4448	3,137.7	64.635	3,137.7	64.8674	3,137.7	43.8146	3,137.7	64.9475
3,249.02	81.2914	3,249.02	81.5043	3,249.02	81.3124	3,249.02	81.6376	3,249.02	81.5326	3,249.02	81.3909	3,249.02	81.5307	3,249.02	80.4493	3,249.02	81.0195	3,249.02	78.9955	3,249.02	79.7482	3,249.02	76.9147	3,249.02	78.0837	3,249.02	74.6307	3,249.02	76.2268	3,249.02	73.0456	3,249.02	74.263	3,249.02	71.3533	3,249.02	72.1628	3,249.02	68.9	3,249.02	69.7887	3,249.02	66.5576	3,249.02	68.7228	3,249.02	66.6188	3,249.02	66.72	3,249.02	65.9067	3,249.02	66.4673	3,249.02	59.4247	3,249.02	64.4538	3,249.02	63.0472	3,249.02	61.5119	3,249.02	59.8184	3,249.02	63.9982	3,249.02	61.1292	3,249.02	51.9239	3,249.02	63.7403
3,363.28	81.354	3,363.28	81.6049	3,363.28	81.4092	3,363.28	81.6488	3,363.28	81.5184	3,363.28	81.1704	3,363.28	81.2817	3,363.28	80.2107	3,363.28	80.6195	3,363.28	78.7395	3,363.28	79.349	3,363.28	76.8935	3,363.28	77.7708	3,363.28	74.625	3,363.28	75.7782	3,363.28	72.5343	3,363.28	73.7195	3,363.28	71.1355	3,363.28	71.8882	3,363.28	68.4043	3,363.28	69.4312	3,363.28	65.0182	3,363.28	67.0648	3,363.28	64.2506	3,363.28	65.1025	3,363.28	67.1419	3,363.28	64.8506	3,363.28	63.2238	3,363.28	64.1828	3,363.28	63.86	3,363.28	56.7761	3,363.28	58.9062	3,363.28	63.1052	3,363.28	60.9566	3,363.28	54.8223	3,363.28	61.9934
3,483.4	81.7071	3,483.4	81.9346	3,483.4	81.859	3,483.4	81.9961	3,483.4	82.0476	3,483.4	81.5604	3,483.4	82.1078	3,483.4	80.5764	3,483.4	81.3834	3,483.4	78.7401	3,483.4	79.8736	3,483.4	76.8382	3,483.4	78.2231	3,483.4	75.1065	3,483.4	76.2819	3,483.4	72.9001	3,483.4	73.9275	3,483.4	70.4182	3,483.4	72.4619	3,483.4	68.1973	3,483.4	70.8198	3,483.4	66.5011	3,483.4	67.8773	3,483.4	63.4581	3,483.4	66.4872	3,483.4	63.7505	3,483.4	64.5277	3,483.4	61.78	3,483.4	64.602	3,483.4	60.8447	3,483.4	61.2489	3,483.4	55.7672	3,483.4	63.1705	3,483.4	58.628	3,483.4	53.3761	3,483.4	61.6512
3,606.45	81.9949	3,606.45	82.1701	3,606.45	81.8517	3,606.45	82.227	3,606.45	82.1376	3,606.45	81.8862	3,606.45	82.0395	3,606.45	80.5258	3,606.45	81.2992	3,606.45	78.8893	3,606.45	79.8524	3,606.45	77.2492	3,606.45	77.6415	3,606.45	75.4541	3,606.45	75.4777	3,606.45	73.405	3,606.45	73.5872	3,606.45	71.2109	3,606.45	71.9359	3,606.45	69.2416	3,606.45	69.8921	3,606.45	66.8738	3,606.45	68.2778	3,606.45	63.8452	3,606.45	67.0449	3,606.45	62.8119	3,606.45	64.7491	3,606.45	61.3289	3,606.45	63.1515	3,606.45	62.1072	3,606.45	60.405	3,606.45	60.6623	3,606.45	61.4499	3,606.45	53.4188	3,606.45	46.2851	3,606.45	59.5958
3,732.42	81.4416	3,732.42	81.7436	3,732.42	81.5491	3,732.42	81.8009	3,732.42	81.8626	3,732.42	81.1382	3,732.42	81.6999	3,732.42	79.9936	3,732.42	80.7046	3,732.42	78.0173	3,732.42	79.1899	3,732.42	75.8119	3,732.42	77.3252	3,732.42	73.4779	3,732.42	75.2827	3,732.42	71.3985	3,732.42	73.7178	3,732.42	70.4891	3,732.42	71.6462	3,732.42	67.9816	3,732.42	69.3492	3,732.42	65.3583	3,732.42	68.0151	3,732.42	63.8823	3,732.42	66.7311	3,732.42	62.5529	3,732.42	64.8543	3,732.42	59.7377	3,732.42	62.2471	3,732.42	60.8212	3,732.42	54.6671	3,732.42	60.0737	3,732.42	61.7887	3,732.42	56.2755	3,732.42	55.5978	3,732.42	61.44
3,864.26	81.7265	3,864.26	81.9817	3,864.26	81.8429	3,864.26	82.0059	3,864.26	81.9238	3,864.26	81.2631	3,864.26	81.7056	3,864.26	79.8615	3,864.26	80.6566	3,864.26	77.913	3,864.26	78.8319	3,864.26	75.5211	3,864.26	76.8091	3,864.26	72.9727	3,864.26	74.8278	3,864.26	71.1843	3,864.26	72.5537	3,864.26	69.1777	3,864.26	71.1638	3,864.26	67.6567	3,864.26	69.5859	3,864.26	66.7662	3,864.26	67.0035	3,864.26	64.484	3,864.26	66.0839	3,864.26	62.1618	3,864.26	63.9296	3,864.26	60.9446	3,864.26	63.7188	3,864.26	57.5679	3,864.26	56.9625	3,864.26	58.0216	3,864.26	60.5074	3,864.26	57.1935	3,864.26	50.9614	3,864.26	60.4883
3,999.02	81.9782	3,999.02	81.9292	3,999.02	81.8068	3,999.02	81.8134	3,999.02	81.9244	3,999.02	81.3168	3,999.02	81.5263	3,999.02	79.472	3,999.02	80.1819	3,999.02	77.2771	3,999.02	78.5015	3,999.02	75.546	3,999.02	76.4343	3,999.02	74.1372	3,999.02	74.2893	3,999.02	72.2646	3,999.02	72.5767	3,999.02	69.5673	3,999.02	71.0065	3,999.02	68.4145	3,999.02	68.7813	3,999.02	67.4506	3,999.02	67.3496	3,999.02	65.54	3,999.02	66.9984	3,999.02	61.5094	3,999.02	64.6164	3,999.02	61.3607	3,999.02	64.3716	3,999.02	54.774	3,999.02	61.0515	3,999.02	59.3269	3,999.02	57.1901	3,999.02	45.4616	3,999.02	54.9911	3,999.02	55.6871
4,139.65	81.9491	4,139.65	81.9114	4,139.65	81.8453	4,139.65	81.5636	4,139.65	81.8305	4,139.65	80.4441	4,139.65	81.1	4,139.65	78.8572	4,139.65	80.0277	4,139.65	77.3493	4,139.65	78.5413	4,139.65	74.9497	4,139.65	76.0215	4,139.65	72.3446	4,139.65	73.4743	4,139.65	70.5832	4,139.65	71.8114	4,139.65	70.5584	4,139.65	70.0121	4,139.65	68.8627	4,139.65	68.3528	4,139.65	66.0721	4,139.65	66.8058	4,139.65	66.2601	4,139.65	66.741	4,139.65	64.47	4,139.65	63.9977	4,139.65	62.1651	4,139.65	63.9395	4,139.65	60.4265	4,139.65	61.7596	4,139.65	58.7502	4,139.65	59.0725	4,139.65	48.1805	4,139.65	52.2401	4,139.65	55.7683
4,286.13	82.3521	4,286.13	82.2486	4,286.13	82.4063	4,286.13	81.7282	4,286.13	81.7704	4,286.13	80.1387	4,286.13	81.1607	4,286.13	78.5162	4,286.13	79.6506	4,286.13	76.4718	4,286.13	77.8456	4,286.13	74.2937	4,286.13	76.0179	4,286.13	71.9892	4,286.13	74.3274	4,286.13	70.0216	4,286.13	71.9545	4,286.13	67.6571	4,286.13	68.8368	4,286.13	66.8687	4,286.13	67.5593	4,286.13	64.7431	4,286.13	66.0345	4,286.13	65.0891	4,286.13	65.2345	4,286.13	65.4396	4,286.13	66.0735	4,286.13	63.1175	4,286.13	62.7243	4,286.13	61.1168	4,286.13	63.3481	4,286.13	60.9303	4,286.13	60.3427	4,286.13	50.5247	4,286.13	58.8777	4,286.13	53.3423
4,438.48	81.5787	4,438.48	81.2382	4,438.48	81.3537	4,438.48	80.4655	4,438.48	81.2238	4,438.48	80.0268	4,438.48	80.3226	4,438.48	78.0958	4,438.48	78.9255	4,438.48	76.6297	4,438.48	76.765	4,438.48	75.5035	4,438.48	74.843	4,438.48	74.5889	4,438.48	73.1649	4,438.48	71.5453	4,438.48	70.3741	4,438.48	67.9312	4,438.48	69.7617	4,438.48	66.9931	4,438.48	67.7826	4,438.48	64.9529	4,438.48	64.2906	4,438.48	63.1291	4,438.48	63.3366	4,438.48	61.2562	4,438.48	63.1181	4,438.48	61.2099	4,438.48	63.6093	4,438.48	55.9218	4,438.48	57.9682	4,438.48	61.2027	4,438.48	60.5587	4,438.48	35.3063	4,438.48	58.7962	4,438.48	53.5448
4,593.75	80.6298	4,593.75	80.3312	4,593.75	80.7674	4,593.75	79.7823	4,593.75	80.5593	4,593.75	77.9467	4,593.75	79.8206	4,593.75	77.3424	4,593.75	78.5078	4,593.75	76.3037	4,593.75	77.4151	4,593.75	73.9678	4,593.75	75.9515	4,593.75	70.6691	4,593.75	73.5692	4,593.75	69.2583	4,593.75	72.4164	4,593.75	68.5701	4,593.75	68.9327	4,593.75	65.8405	4,593.75	66.965	4,593.75	65.3366	4,593.75	66.328	4,593.75	66.0675	4,593.75	64.1044	4,593.75	63.8825	4,593.75	64.0331	4,593.75	62.4801	4,593.75	61.714	4,593.75	60.1896	4,593.75	60.7832	4,593.75	57.5967	4,593.75	52.825	4,593.75	48.2989	4,593.75	55.9633	4,593.75	58.7562
4,757.81	79.8907	4,757.81	79.9213	4,757.81	79.5738	4,757.81	79.05	4,757.81	79.1753	4,757.81	78.7549	4,757.81	78.6056	4,757.81	77.7542	4,757.81	77.5199	4,757.81	76.5187	4,757.81	76.2018	4,757.81	75.0324	4,757.81	75.1207	4,757.81	73.6008	4,757.81	73.8223	4,757.81	71.2127	4,757.81	70.7582	4,757.81	67.7977	4,757.81	68.9625	4,757.81	66.8282	4,757.81	66.6573	4,757.81	64.0841	4,757.81	64.3995	4,757.81	63.6327	4,757.81	62.5533	4,757.81	64.8896	4,757.81	62.5316	4,757.81	60.8418	4,757.81	61.3897	4,757.81	59.443	4,757.81	60.0607	4,757.81	58.7019	4,757.81	58.4572	4,757.81	48.0986	4,757.81	51.4215	4,757.81	56.9023
4,924.8	79.9632	4,924.8	79.4023	4,924.8	79.6699	4,924.8	79.1879	4,924.8	78.9662	4,924.8	78.8267	4,924.8	77.7172	4,924.8	77.9619	4,924.8	77.2071	4,924.8	77.2057	4,924.8	76.5137	4,924.8	75.754	4,924.8	74.9031	4,924.8	73.6987	4,924.8	72.6137	4,924.8	70.6318	4,924.8	71.2033	4,924.8	67.7386	4,924.8	68.2621	4,924.8	65.197	4,924.8	65.8345	4,924.8	65.9926	4,924.8	64.4136	4,924.8	62.8656	4,924.8	61.7067	4,924.8	63.0593	4,924.8	60.733	4,924.8	62.1477	4,924.8	61.5351	4,924.8	58.241	4,924.8	59.5116	4,924.8	59.2431	4,924.8	55.0659	4,924.8	44.3181	4,924.8	55.5932	4,924.8	53.6428
5,097.66	80.1819	5,097.66	80.2767	5,097.66	80.1292	5,097.66	79.9883	5,097.66	79.5069	5,097.66	79.3069	5,097.66	79.2351	5,097.66	78.566	5,097.66	78.2763	5,097.66	77.2197	5,097.66	77.0182	5,097.66	74.9273	5,097.66	75.704	5,097.66	72.1979	5,097.66	73.3072	5,097.66	70.4341	5,097.66	70.4025	5,097.66	68.5994	5,097.66	67.9482	5,097.66	65.9014	5,097.66	65.0506	5,097.66	63.1082	5,097.66	63.7683	5,097.66	63.9669	5,097.66	61.3711	5,097.66	60.7728	5,097.66	60.2261	5,097.66	62.9368	5,097.66	60.1024	5,097.66	59.1599	5,097.66	61.4165	5,097.66	59.1819	5,097.66	56.6372	5,097.66	41.9398	5,097.66	58.0559	5,097.66	52.3253
5,279.3	81.1884	5,279.3	81.0789	5,279.3	80.8312	5,279.3	80.7145	5,279.3	80.7224	5,279.3	80.2921	5,279.3	79.7434	5,279.3	79.2212	5,279.3	79.0102	5,279.3	77.6366	5,279.3	78.0916	5,279.3	75.0501	5,279.3	75.5634	5,279.3	72.9314	5,279.3	73.1818	5,279.3	69.856	5,279.3	71.2191	5,279.3	67.087	5,279.3	67.0802	5,279.3	66.1421	5,279.3	64.0561	5,279.3	63.2879	5,279.3	63.5251	5,279.3	60.3409	5,279.3	62.3928	5,279.3	62.3688	5,279.3	58.6662	5,279.3	62.5925	5,279.3	59.8038	5,279.3	60.1309	5,279.3	61.7565	5,279.3	58.789	5,279.3	57.5643	5,279.3	48.9648	5,279.3	57.8225	5,279.3	46.564
5,463.87	81.776	5,463.87	81.4064	5,463.87	81.9731	5,463.87	81.1393	5,463.87	81.5987	5,463.87	80.4013	5,463.87	81.2109	5,463.87	79.2686	5,463.87	80.3737	5,463.87	77.4227	5,463.87	78.9162	5,463.87	75.0747	5,463.87	76.9497	5,463.87	71.4605	5,463.87	74.1017	5,463.87	68.1915	5,463.87	70.6306	5,463.87	66.2962	5,463.87	68.6055	5,463.87	63.2155	5,463.87	66.8329	5,463.87	63.0379	5,463.87	63.593	5,463.87	60.2127	5,463.87	61.9235	5,463.87	57.4231	5,463.87	62.8193	5,463.87	63.3938	5,463.87	58.7642	5,463.87	61.9299	5,463.87	64.8306	5,463.87	58.733	5,463.87	58.9429	5,463.87	51.4253	5,463.87	60.2136	5,463.87	38.6085
5,657.23	81.1689	5,657.23	81.0735	5,657.23	80.8165	5,657.23	80.3176	5,657.23	80.7949	5,657.23	79.8742	5,657.23	80.321	5,657.23	79.0576	5,657.23	79.5996	5,657.23	77.4534	5,657.23	78.3951	5,657.23	74.96	5,657.23	76.6725	5,657.23	73.2441	5,657.23	74.5452	5,657.23	70.8581	5,657.23	71.9788	5,657.23	67.9821	5,657.23	69.3964	5,657.23	65.4555	5,657.23	67.0766	5,657.23	63.2743	5,657.23	65.3704	5,657.23	61.721	5,657.23	62.9594	5,657.23	57.7356	5,657.23	62.635	5,657.23	60.0364	5,657.23	60.7859	5,657.23	61.898	5,657.23	61.7641	5,657.23	60.5562	5,657.23	60.272	5,657.23	37.5941	5,657.23	57.3171	5,657.23	53.3315
5,856.45	81.5046	5,856.45	80.672	5,856.45	81.6019	5,856.45	80.1875	5,856.45	80.8205	5,856.45	79.7416	5,856.45	80.4589	5,856.45	79.2783	5,856.45	80.2517	5,856.45	77.9246	5,856.45	79.0916	5,856.45	76.0444	5,856.45	77.3137	5,856.45	73.3276	5,856.45	75.0393	5,856.45	70.142	5,856.45	72.4297	5,856.45	67.1542	5,856.45	69.745	5,856.45	64.0735	5,856.45	67.4203	5,856.45	63.8831	5,856.45	65.0926	5,856.45	60.5403	5,856.45	63.4573	5,856.45	60.2412	5,856.45	62.8233	5,856.45	58.7823	5,856.45	60.106	5,856.45	60.1844	5,856.45	61.2943	5,856.45	59.8857	5,856.45	60.6754	5,856.45	41.5276	5,856.45	58.2803	5,856.45	52.4314
6,061.52	82.6436	6,061.52	81.4714	6,061.52	82.1921	6,061.52	79.8899	6,061.52	81.0335	6,061.52	80.0577	6,061.52	80.194	6,061.52	79.8651	6,061.52	80.155	6,061.52	78.0014	6,061.52	79.4851	6,061.52	75.4424	6,061.52	77.7726	6,061.52	72.3601	6,061.52	75.0738	6,061.52	68.8798	6,061.52	72.6938	6,061.52	67.621	6,061.52	69.9387	6,061.52	64.9981	6,061.52	67.6764	6,061.52	63.7973	6,061.52	66.0553	6,061.52	63.2165	6,061.52	63.6684	6,061.52	60.2777	6,061.52	63.2436	6,061.52	59.6467	6,061.52	60.7949	6,061.52	60.3969	6,061.52	59.8425	6,061.52	58.4711	6,061.52	58.6283	6,061.52	42.008	6,061.52	58.7251	6,061.52	51.919
6,275.39	82.968	6,275.39	81.5261	6,275.39	82.7252	6,275.39	80.4924	6,275.39	81.3628	6,275.39	80.4115	6,275.39	80.8544	6,275.39	79.6896	6,275.39	80.7857	6,275.39	77.8982	6,275.39	80.0421	6,275.39	75.5218	6,275.39	77.8006	6,275.39	72.4847	6,275.39	74.9145	6,275.39	69.8834	6,275.39	72.3264	6,275.39	68.2825	6,275.39	69.1986	6,275.39	65.8742	6,275.39	65.9471	6,275.39	62.7346	6,275.39	64.7111	6,275.39	60.4563	6,275.39	61.6396	6,275.39	61.7295	6,275.39	61.3264	6,275.39	58.535	6,275.39	61.1209	6,275.39	61.0488	6,275.39	61.4124	6,275.39	58.0697	6,275.39	59.1539	6,275.39	49.6958	6,275.39	57.9792	6,275.39	54.1788
6,498.05	82.878	6,498.05	81.488	6,498.05	82.6091	6,498.05	80.5133	6,498.05	81.3718	6,498.05	80.6694	6,498.05	80.8112	6,498.05	79.9076	6,498.05	80.9184	6,498.05	78.1293	6,498.05	79.9009	6,498.05	75.4104	6,498.05	77.6183	6,498.05	72.2943	6,498.05	74.6509	6,498.05	69.7464	6,498.05	71.9867	6,498.05	67.7747	6,498.05	69.2888	6,498.05	65.039	6,498.05	66.7473	6,498.05	62.3424	6,498.05	65.5035	6,498.05	62.0875	6,498.05	63.3727	6,498.05	61.2412	6,498.05	61.3413	6,498.05	60.4919	6,498.05	62.4629	6,498.05	58.5403	6,498.05	60.5728	6,498.05	57.1804	6,498.05	59.0637	6,498.05	35.7808	6,498.05	58.7906	6,498.05	50.4818
6,726.56	82.5431	6,726.56	81.2022	6,726.56	82.287	6,726.56	80.9726	6,726.56	80.8937	6,726.56	80.9391	6,726.56	80.6918	6,726.56	80.1122	6,726.56	80.5218	6,726.56	77.9703	6,726.56	79.0784	6,726.56	75.3542	6,726.56	76.5614	6,726.56	72.8299	6,726.56	73.7016	6,726.56	70.2023	6,726.56	70.7275	6,726.56	67.2103	6,726.56	67.5487	6,726.56	65.2263	6,726.56	65.5416	6,726.56	63.4447	6,726.56	63.5346	6,726.56	61.9005	6,726.56	61.9922	6,726.56	62.1777	6,726.56	58.3789	6,726.56	59.0327	6,726.56	59.5144	6,726.56	60.1823	6,726.56	60.7703	6,726.56	56.8119	6,726.56	56.7622	6,726.56	45.396	6,726.56	56.785	6,726.56	52.5663
6,963.87	82.2608	6,963.87	81.3764	6,963.87	81.787	6,963.87	81.0214	6,963.87	80.7974	6,963.87	80.762	6,963.87	80.7143	6,963.87	79.7906	6,963.87	80.204	6,963.87	77.2441	6,963.87	78.4709	6,963.87	74.7564	6,963.87	75.9151	6,963.87	72.3424	6,963.87	73.0769	6,963.87	70.1836	6,963.87	70.5485	6,963.87	67.6444	6,963.87	67.9186	6,963.87	65.3407	6,963.87	65.4176	6,963.87	63.1602	6,963.87	62.9278	6,963.87	61.083	6,963.87	62.16	6,963.87	61.1692	6,963.87	60.5077	6,963.87	58.4048	6,963.87	59.8668	6,963.87	60.2209	6,963.87	58.8965	6,963.87	56.059	6,963.87	55.8063	6,963.87	45.3813	6,963.87	59.3858	6,963.87	47.9855
7,209.96	81.8748	7,209.96	81.2132	7,209.96	81.5172	7,209.96	80.8857	7,209.96	80.6292	7,209.96	80.4853	7,209.96	80.5765	7,209.96	79.3171	7,209.96	79.7767	7,209.96	76.992	7,209.96	77.95	7,209.96	74.8708	7,209.96	75.2166	7,209.96	72.1496	7,209.96	73.0682	7,209.96	69.5469	7,209.96	70.2053	7,209.96	66.923	7,209.96	67.1754	7,209.96	65.2995	7,209.96	65.5442	7,209.96	63.1602	7,209.96	63.5306	7,209.96	59.879	7,209.96	61.9575	7,209.96	60.379	7,209.96	59.38	7,209.96	56.8605	7,209.96	58.5173	7,209.96	58.1674	7,209.96	58.3355	7,209.96	55.3317	7,209.96	56.8691	7,209.96	42.219	7,209.96	56.1662	7,209.96	52.0566
7,464.84	81.5241	7,464.84	80.9633	7,464.84	81.042	7,464.84	80.8665	7,464.84	80.8268	7,464.84	80.3464	7,464.84	80.7794	7,464.84	78.7388	7,464.84	79.6945	7,464.84	76.7197	7,464.84	77.8356	7,464.84	74.7414	7,464.84	75.1932	7,464.84	71.9045	7,464.84	73.1704	7,464.84	69.4018	7,464.84	70.5569	7,464.84	66.4396	7,464.84	67.5232	7,464.84	65.1036	7,464.84	65.2453	7,464.84	62.6362	7,464.84	63.9539	7,464.84	60.1211	7,464.84	61.9743	7,464.84	59.5402	7,464.84	58.7473	7,464.84	59.2503	7,464.84	60.148	7,464.84	58.0669	7,464.84	57.5498	7,464.84	54.1945	7,464.84	57.0291	7,464.84	45.6588	7,464.84	57.9155	7,464.84	45.6217
7,728.52	80.7668	7,728.52	80.8567	7,728.52	80.4925	7,728.52	80.9851	7,728.52	80.895	7,728.52	80.0628	7,728.52	80.6229	7,728.52	78.6197	7,728.52	79.4787	7,728.52	76.9578	7,728.52	77.7499	7,728.52	74.973	7,728.52	75.7676	7,728.52	72.5602	7,728.52	73.84	7,728.52	70.273	7,728.52	70.7267	7,728.52	66.9673	7,728.52	67.6046	7,728.52	64.9843	7,728.52	65.7771	7,728.52	62.2308	7,728.52	63.3225	7,728.52	61.0567	7,728.52	61.6486	7,728.52	59.4387	7,728.52	59.1433	7,728.52	58.3341	7,728.52	61.192	7,728.52	56.9063	7,728.52	57.9879	7,728.52	53.2906	7,728.52	55.2507	7,728.52	43.4854	7,728.52	57.1204	7,728.52	47.9903
8,000.98	80.4407	8,000.98	81.0066	8,000.98	80.5781	8,000.98	81.3466	8,000.98	81.0348	8,000.98	80.0931	8,000.98	80.699	8,000.98	79.0654	8,000.98	79.5422	8,000.98	77.5925	8,000.98	77.7528	8,000.98	75.4838	8,000.98	76.2953	8,000.98	73.0935	8,000.98	74.1934	8,000.98	70.9205	8,000.98	70.9813	8,000.98	66.2533	8,000.98	67.8995	8,000.98	65.0107	8,000.98	66.4642	8,000.98	63.6694	8,000.98	63.9319	8,000.98	61.9542	8,000.98	62.0008	8,000.98	59.4651	8,000.98	59.4618	8,000.98	59.9305	8,000.98	60.9378	8,000.98	59.3108	8,000.98	59.6313	8,000.98	50.2021	8,000.98	57.7062	8,000.98	45.2465	8,000.98	57.3922	8,000.98	49.8066
8,282.23	80.4016	8,282.23	81.7434	8,282.23	80.4918	8,282.23	81.5144	8,282.23	81.4739	8,282.23	80.1067	8,282.23	80.6102	8,282.23	79.4546	8,282.23	79.2448	8,282.23	78.2701	8,282.23	78.1656	8,282.23	76.1634	8,282.23	76.5854	8,282.23	73.8253	8,282.23	74.6134	8,282.23	71.3143	8,282.23	71.9724	8,282.23	67.5027	8,282.23	68.8749	8,282.23	65.5509	8,282.23	66.5781	8,282.23	63.2911	8,282.23	63.9397	8,282.23	62.7798	8,282.23	62.2626	8,282.23	58.8111	8,282.23	58.5929	8,282.23	60.9424	8,282.23	61.2232	8,282.23	58.9702	8,282.23	57.8305	8,282.23	50.4905	8,282.23	56.3242	8,282.23	44.048	8,282.23	57.1268	8,282.23	52.9272
8,575.2	80.0172	8,575.2	81.5183	8,575.2	80.5409	8,575.2	80.8776	8,575.2	81.6187	8,575.2	79.3755	8,575.2	80.2906	8,575.2	78.9868	8,575.2	79.3652	8,575.2	78.2533	8,575.2	78.4933	8,575.2	76.4467	8,575.2	77.1132	8,575.2	73.7326	8,575.2	75.2621	8,575.2	70.8778	8,575.2	73.0806	8,575.2	67.8256	8,575.2	69.5814	8,575.2	65.4992	8,575.2	66.781	8,575.2	62.8955	8,575.2	65.1036	8,575.2	62.9745	8,575.2	62.6429	8,575.2	56.5063	8,575.2	58.1565	8,575.2	60.4192	8,575.2	61.8557	8,575.2	59.6012	8,575.2	57.4516	8,575.2	52.7407	8,575.2	56.0486	8,575.2	48.1286	8,575.2	57.5984	8,575.2	55.282
8,876.95	78.2487	8,876.95	80.1288	8,876.95	79.1208	8,876.95	79.5284	8,876.95	80.8572	8,876.95	78.5884	8,876.95	79.458	8,876.95	78.6621	8,876.95	79.4357	8,876.95	77.9018	8,876.95	79.0638	8,876.95	76.1194	8,876.95	78.1403	8,876.95	73.4406	8,876.95	75.7723	8,876.95	70.5441	8,876.95	73.3569	8,876.95	66.6928	8,876.95	69.829	8,876.95	64.7668	8,876.95	67.2986	8,876.95	61.331	8,876.95	64.6563	8,876.95	63.0032	8,876.95	62.4856	8,876.95	58.8595	8,876.95	57.4261	8,876.95	59.7327	8,876.95	62.4899	8,876.95	58.2338	8,876.95	56.9694	8,876.95	49.0393	8,876.95	57.7759	8,876.95	50.3186	8,876.95	52.9939	8,876.95	53.1518
9,190.43	78.0111	9,190.43	79.6135	9,190.43	78.5421	9,190.43	79.1585	9,190.43	80.0473	9,190.43	78.7634	9,190.43	78.8741	9,190.43	79.0807	9,190.43	79.1491	9,190.43	78.5082	9,190.43	78.9704	9,190.43	76.5019	9,190.43	78.1295	9,190.43	73.488	9,190.43	75.4239	9,190.43	70.4686	9,190.43	72.8936	9,190.43	67.209	9,190.43	68.6165	9,190.43	64.8695	9,190.43	65.565	9,190.43	61.5057	9,190.43	63.2637	9,190.43	62.03	9,190.43	61.3932	9,190.43	58.595	9,190.43	56.5855	9,190.43	59.9873	9,190.43	60.735	9,190.43	57.6529	9,190.43	53.338	9,190.43	49.2221	9,190.43	56.4632	9,190.43	52.4861	9,190.43	51.1437	9,190.43	52.5874
9,512.7	79.7391	9,512.7	80.302	9,512.7	79.7059	9,512.7	79.8516	9,512.7	80.0918	9,512.7	79.4165	9,512.7	79.245	9,512.7	79.4705	9,512.7	79.1319	9,512.7	78.9102	9,512.7	78.6497	9,512.7	77.0362	9,512.7	77.3376	9,512.7	72.6617	9,512.7	74.2745	9,512.7	68.5244	9,512.7	71.2273	9,512.7	65.8013	9,512.7	67.4418	9,512.7	63.2245	9,512.7	63.8082	9,512.7	61.6678	9,512.7	61.4385	9,512.7	60.3819	9,512.7	60.2875	9,512.7	57.8771	9,512.7	54.5244	9,512.7	59.4933	9,512.7	57.699	9,512.7	57.5598	9,512.7	51.4634	9,512.7	41.5771	9,512.7	55.1327	9,512.7	49.7122	9,512.7	55.5939	9,512.7	50.7912
9,849.61	81.6975	9,849.61	81.2622	9,849.61	81.3663	9,849.61	80.7113	9,849.61	81.0459	9,849.61	79.882	9,849.61	80.3362	9,849.61	79.2924	9,849.61	79.5816	9,849.61	78.2033	9,849.61	78.9741	9,849.61	75.9582	9,849.61	77.325	9,849.61	71.0951	9,849.61	73.7264	9,849.61	66.9511	9,849.61	69.9375	9,849.61	64.9759	9,849.61	66.7488	9,849.61	61.2781	9,849.61	63.1529	9,849.61	60.4942	9,849.61	60.717	9,849.61	57.0743	9,849.61	59.5742	9,849.61	58.7024	9,849.61	55.7612	9,849.61	58.165	9,849.61	57.191	9,849.61	54.3441	9,849.61	51.1228	9,849.61	41.8569	9,849.61	54.1665	9,849.61	50.3963	9,849.61	54.0903	9,849.61	47.8672
10,195.3	83.2468	10,195.3	82.2669	10,195.3	82.7839	10,195.3	81.6416	10,195.3	81.9663	10,195.3	80.6081	10,195.3	81.5626	10,195.3	79.6396	10,195.3	80.6229	10,195.3	77.9206	10,195.3	79.7794	10,195.3	74.8279	10,195.3	77.9227	10,195.3	70.5038	10,195.3	74.3811	10,195.3	66.5946	10,195.3	69.8804	10,195.3	64.3946	10,195.3	66.2521	10,195.3	59.0412	10,195.3	63.6331	10,195.3	59.7776	10,195.3	61.1662	10,195.3	55.324	10,195.3	59.7261	10,195.3	57.8604	10,195.3	57.4991	10,195.3	56.3779	10,195.3	56.707	10,195.3	54.2342	10,195.3	52.2696	10,195.3	31.7595	10,195.3	54.5304	10,195.3	48.4858	10,195.3	50.505	10,195.3	49.6688
10,555.7	85.7562	10,555.7	84.5395	10,555.7	85.3148	10,555.7	83.6385	10,555.7	84.1562	10,555.7	81.9548	10,555.7	83.3212	10,555.7	80.2907	10,555.7	81.7395	10,555.7	77.5431	10,555.7	80.156	10,555.7	74.1924	10,555.7	77.4504	10,555.7	70.2138	10,555.7	74.0403	10,555.7	65.9985	10,555.7	69.7381	10,555.7	63.7249	10,555.7	66.1813	10,555.7	58.7079	10,555.7	63.0229	10,555.7	59.9687	10,555.7	60.5918	10,555.7	54.5889	10,555.7	58.2345	10,555.7	56.3316	10,555.7	56.2172	10,555.7	55.8556	10,555.7	54.0199	10,555.7	51.7751	10,555.7	52.7781	10,555.7	40.9978	10,555.7	52.7105	10,555.7	48.5225	10,555.7	51.3034	10,555.7	46.2708
10,927.7	86.5061	10,927.7	85.3265	10,927.7	86.1836	10,927.7	84.1083	10,927.7	84.9748	10,927.7	82.0255	10,927.7	83.663	10,927.7	79.8972	10,927.7	81.7114	10,927.7	76.1562	10,927.7	79.3621	10,927.7	72.7523	10,927.7	76.0129	10,927.7	68.5539	10,927.7	72.2338	10,927.7	64.3467	10,927.7	67.7999	10,927.7	62.1941	10,927.7	64.2024	10,927.7	57.3927	10,927.7	60.6934	10,927.7	58.1519	10,927.7	58.5103	10,927.7	53.3493	10,927.7	55.6826	10,927.7	55.418	10,927.7	54.9248	10,927.7	53.5093	10,927.7	52.1207	10,927.7	45.2546	10,927.7	51.4535	10,927.7	42.5495	10,927.7	51.3384	10,927.7	45.4916	10,927.7	49.4274	10,927.7	43.7266
11,314.5	87.1788	11,314.5	85.9185	11,314.5	86.7682	11,314.5	84.2861	11,314.5	85.1466	11,314.5	81.8553	11,314.5	83.4741	11,314.5	79.1609	11,314.5	81.1381	11,314.5	75.1113	11,314.5	78.1022	11,314.5	71.9444	11,314.5	74.4659	11,314.5	67.9759	11,314.5	70.8563	11,314.5	63.5483	11,314.5	65.7607	11,314.5	61.1408	11,314.5	62.3799	11,314.5	55.5434	11,314.5	59.2972	11,314.5	56.1139	11,314.5	56.0327	11,314.5	52.1604	11,314.5	54.4124	11,314.5	54.3844	11,314.5	52.9806	11,314.5	51.1638	11,314.5	50.6131	11,314.5	45.4921	11,314.5	50.2383	11,314.5	46.6567	11,314.5	49.2768	11,314.5	43.43	11,314.5	47.2703	11,314.5	39.7444
11,712.9	86.8556	11,712.9	85.6736	11,712.9	86.3908	11,712.9	84.1923	11,712.9	84.7369	11,712.9	81.8842	11,712.9	83.0943	11,712.9	79.1307	11,712.9	80.6379	11,712.9	75.194	11,712.9	76.9895	11,712.9	71.7264	11,712.9	73.1678	11,712.9	67.5468	11,712.9	69.4324	11,712.9	62.841	11,712.9	63.7356	11,712.9	60.8306	11,712.9	59.713	11,712.9	57.5906	11,712.9	57.0089	11,712.9	55.3273	11,712.9	54.7401	11,712.9	52.0441	11,712.9	52.5436	11,712.9	52.7875	11,712.9	50.1233	11,712.9	49.3713	11,712.9	50.2367	11,712.9	43.5827	11,712.9	47.6167	11,712.9	47.1624	11,712.9	44.3405	11,712.9	41.4225	11,712.9	46.7849	11,712.9	43.0516
12,126	86.9569	12,126	85.8279	12,126	86.5056	12,126	84.2876	12,126	84.8428	12,126	81.9545	12,126	83.1399	12,126	79.2224	12,126	80.3786	12,126	75.4883	12,126	75.9889	12,126	72.0894	12,126	71.7982	12,126	68.1999	12,126	67.2183	12,126	63.5825	12,126	62.2254	12,126	60.9584	12,126	58.3242	12,126	57.8997	12,126	53.9413	12,126	55.6619	12,126	51.0609	12,126	52.4812	12,126	51.139	12,126	51.4559	12,126	48.0411	12,126	48.6416	12,126	48.5818	12,126	41.8896	12,126	46.838	12,126	45.2517	12,126	41.3198	12,126	44.6901	12,126	39.212	12,126	43.5766
12,553.7	87.0126	12,553.7	85.991	12,553.7	86.619	12,553.7	84.4823	12,553.7	85.0964	12,553.7	82.0893	12,553.7	83.4792	12,553.7	79.1307	12,553.7	80.4541	12,553.7	75.2141	12,553.7	75.9578	12,553.7	71.8548	12,553.7	71.7828	12,553.7	67.8127	12,553.7	66.7168	12,553.7	63.2658	12,553.7	61.8957	12,553.7	59.706	12,553.7	57.4013	12,553.7	56.5849	12,553.7	54.8364	12,553.7	55.2656	12,553.7	51.8204	12,553.7	51.6814	12,553.7	51.0984	12,553.7	50.5474	12,553.7	47.9516	12,553.7	49.2293	12,553.7	45.9995	12,553.7	39.0974	12,553.7	47.3049	12,553.7	43.7424	12,553.7	39.3977	12,553.7	45.3081	12,553.7	39.572	12,553.7	41.3089
12,996.1	86.8492	12,996.1	85.9131	12,996.1	86.576	12,996.1	84.3074	12,996.1	85.1932	12,996.1	81.7079	12,996.1	83.3051	12,996.1	78.2912	12,996.1	79.7527	12,996.1	74.2547	12,996.1	75.1422	12,996.1	70.7939	12,996.1	70.4629	12,996.1	66.2813	12,996.1	65.4095	12,996.1	60.7359	12,996.1	59.819	12,996.1	57.6433	12,996.1	55.3676	12,996.1	54.7025	12,996.1	52.6825	12,996.1	52.4572	12,996.1	49.8349	12,996.1	47.8103	12,996.1	48.9899	12,996.1	48.8838	12,996.1	44.6691	12,996.1	47.4501	12,996.1	42.9327	12,996.1	35.3337	12,996.1	42.8889	12,996.1	42.8073	12,996.1	36.1443	12,996.1	41.9227	12,996.1	38.3544	12,996.1	28.6332
13,453.1	86.6258	13,453.1	85.7458	13,453.1	86.2794	13,453.1	84.043	13,453.1	84.92	13,453.1	81.0028	13,453.1	82.8333	13,453.1	77.2078	13,453.1	79.0345	13,453.1	72.7648	13,453.1	74.4398	13,453.1	68.477	13,453.1	69.2282	13,453.1	62.0147	13,453.1	63.6245	13,453.1	55.3303	13,453.1	55.5428	13,453.1	52.378	13,453.1	49.8802	13,453.1	49.7517	13,453.1	48.5545	13,453.1	46.9905	13,453.1	46.8909	13,453.1	44.0237	13,453.1	45.6862	13,453.1	44.9321	13,453.1	40.5823	13,453.1	41.2607	13,453.1	40.0363	13,453.1	38.0663	13,453.1	42.5988	13,453.1	43.6272	13,453.1	34.1616	13,453.1	37.1641	13,453.1	37.9072	13,453.1	28.0832
13,927.7	86.4789	13,927.7	85.5426	13,927.7	86.1362	13,927.7	83.5388	13,927.7	84.6697	13,927.7	79.985	13,927.7	82.2324	13,927.7	75.316	13,927.7	77.9659	13,927.7	69.6311	13,927.7	72.7161	13,927.7	62.9652	13,927.7	66.1869	13,927.7	51.9662	13,927.7	58.5555	13,927.7	49.9463	13,927.7	47.8803	13,927.7	44.886	13,927.7	45.9707	13,927.7	45.1704	13,927.7	46.5599	13,927.7	41.1159	13,927.7	45.059	13,927.7	42.2993	13,927.7	43.3695	13,927.7	39.2531	13,927.7	35.7598	13,927.7	31.8936	13,927.7	36.8472	13,927.7	34.2737	13,927.7	43.2914	13,927.7	43.3785	13,927.7	26.3347	13,927.7	33.9371	13,927.7	33.6514	13,927.7	31.479
14,419.9	86.6876	14,419.9	85.6375	14,419.9	86.2723	14,419.9	83.1282	14,419.9	84.5159	14,419.9	79.0504	14,419.9	81.5611	14,419.9	73.5078	14,419.9	76.7505	14,419.9	66.4973	14,419.9	70.8112	14,419.9	56.8968	14,419.9	63.389	14,419.9	52.1752	14,419.9	53.1315	14,419.9	53.8065	14,419.9	39.2954	14,419.9	48.1509	14,419.9	40.022	14,419.9	47.4108	14,419.9	40.1642	14,419.9	44.576	14,419.9	39.1885	14,419.9	41.4432	14,419.9	39.2679	14,419.9	37.8301	14,419.9	24.7762	14,419.9	34.673	14,419.9	30.1175	14,419.9	33.9423	14,419.9	38.0422	14,419.9	39.3575	14,419.9	27.8776	14,419.9	35.6775	14,419.9	31.8443	14,419.9	28.1633
14,929.7	87.463	14,929.7	86.1984	14,929.7	86.8998	14,929.7	83.2509	14,929.7	84.7299	14,929.7	78.2956	14,929.7	81.3086	14,929.7	71.1532	14,929.7	75.4559	14,929.7	60.7561	14,929.7	67.9649	14,929.7	50.4062	14,929.7	57.3465	14,929.7	57.7367	14,929.7	56.8575	14,929.7	57.0567	14,929.7	57.36	14,929.7	51.5295	14,929.7	52.9995	14,929.7	49.6512	14,929.7	49.4783	14,929.7	46.2632	14,929.7	47.2844	14,929.7	42.1342	14,929.7	44.0343	14,929.7	23.908	14,929.7	42.1541	14,929.7	39.327	14,929.7	37.8273	14,929.7	37.7533	14,929.7	39.3746	14,929.7	39.1484	14,929.7	17.1709	14,929.7	31.6656	14,929.7	32.6471	14,929.7	36.4529
15,454.1	87.9913	15,454.1	86.6017	15,454.1	87.3454	15,454.1	83.3534	15,454.1	84.9711	15,454.1	77.418	15,454.1	80.7484	15,454.1	68.7305	15,454.1	73.02	15,454.1	59.5283	15,454.1	62.5601	15,454.1	63.2474	15,454.1	60.0003	15,454.1	64.3472	15,454.1	64.1249	15,454.1	60.7822	15,454.1	62.6032	15,454.1	56.0021	15,454.1	57.4685	15,454.1	54.029	15,454.1	54.4645	15,454.1	50.6337	15,454.1	52.2391	15,454.1	44.813	15,454.1	49.4691	15,454.1	37.6689	15,454.1	44.7035	15,454.1	44.4979	15,454.1	43.4202	15,454.1	40.8391	15,454.1	42.0096	15,454.1	39.6686	15,454.1	35.4789	15,454.1	38.3545	15,454.1	33.399	15,454.1	42.3273
15,999	87.2069	15,999	85.8815	15,999	86.7941	15,999	82.3868	15,999	84.6022	15,999	76.332	15,999	79.695	15,999	68.9568	15,999	71.9546	15,999	62.8643	15,999	53.2031	15,999	67.0446	15,999	65.1374	15,999	64.7588	15,999	64.921	15,999	59.0098	15,999	61.3524	15,999	57.3722	15,999	58.5056	15,999	55.1498	15,999	53.9836	15,999	51.0618	15,999	51.0571	15,999	44.3237	15,999	49.2584	15,999	44.8891	15,999	46.7036	15,999	45.6564	15,999	44.6367	15,999	40.1412	15,999	44.0367	15,999	44.1236	15,999	41.094	15,999	43.3325	15,999	37.7185	15,999	43.0133
16,564.5	85.0805	16,564.5	84.0664	16,564.5	85.2343	16,564.5	80.923	16,564.5	83.7395	16,564.5	75.8103	16,564.5	79.1292	16,564.5	69.2584	16,564.5	72.1411	16,564.5	62.904	16,564.5	49.1441	16,564.5	66.5755	16,564.5	66.1434	16,564.5	60.3021	16,564.5	62.8967	16,564.5	56.4044	16,564.5	60.4043	16,564.5	53.9719	16,564.5	58.0727	16,564.5	52.3987	16,564.5	53.0015	16,564.5	46.8641	16,564.5	52.792	16,564.5	41.9832	16,564.5	49.0371	16,564.5	43.7005	16,564.5	48.8477	16,564.5	44.5886	16,564.5	41.5572	16,564.5	36.5824	16,564.5	40.7811	16,564.5	47.1114	16,564.5	40.8777	16,564.5	40.6521	16,564.5	43.6099	16,564.5	40.8497
17,147.5	82.1888	17,147.5	81.7466	17,147.5	82.9633	17,147.5	78.9499	17,147.5	82.1893	17,147.5	74.1465	17,147.5	78.2538	17,147.5	61.0368	17,147.5	70.193	17,147.5	66.7499	17,147.5	63.1112	17,147.5	65.0969	17,147.5	68.4283	17,147.5	65.4056	17,147.5	66.9603	17,147.5	63.2899	17,147.5	66.3048	17,147.5	56.933	17,147.5	62.9876	17,147.5	55.7248	17,147.5	57.6203	17,147.5	48.6618	17,147.5	57.2281	17,147.5	47.5561	17,147.5	53.9265	17,147.5	39.9104	17,147.5	49.7649	17,147.5	44.7133	17,147.5	21.5209	17,147.5	34.3505	17,147.5	43.2088	17,147.5	49.1301	17,147.5	46.136	17,147.5	39.2076	17,147.5	47.4042	17,147.5	38.8322
17,753.9	83.4307	17,753.9	82.2867	17,753.9	83.1716	17,753.9	78.1415	17,753.9	80.8285	17,753.9	70.6198	17,753.9	75.5676	17,753.9	62.4167	17,753.9	61.7878	17,753.9	70.1043	17,753.9	67.7799	17,753.9	67.2179	17,753.9	68.255	17,753.9	67.7532	17,753.9	68.8227	17,753.9	64.0922	17,753.9	66.6728	17,753.9	57.6531	17,753.9	62.4766	17,753.9	56.2118	17,753.9	56.8177	17,753.9	49.6225	17,753.9	56.4847	17,753.9	46.9135	17,753.9	53.5689	17,753.9	34.6094	17,753.9	48.8511	17,753.9	44.2097	17,753.9	35.3783	17,753.9	39.6139	17,753.9	43.1668	17,753.9	48.6284	17,753.9	46.6852	17,753.9	45.9269	17,753.9	50.5655	17,753.9	40.6131
18,377.9	83.8622	18,377.9	82.2696	18,377.9	83.1591	18,377.9	77.3141	18,377.9	79.9927	18,377.9	68.773	18,377.9	73.1475	18,377.9	67.368	18,377.9	48.6467	18,377.9	69.2203	18,377.9	67.1643	18,377.9	67.2814	18,377.9	67.9009	18,377.9	66.8827	18,377.9	68.1464	18,377.9	62.7786	18,377.9	63.7934	18,377.9	55.4101	18,377.9	59.7043	18,377.9	54.718	18,377.9	53.2116	18,377.9	48.6104	18,377.9	53.7414	18,377.9	42.7492	18,377.9	50.6695	18,377.9	41.2939	18,377.9	45.5529	18,377.9	44.4729	18,377.9	33.371	18,377.9	36.1413	18,377.9	42.1018	18,377.9	47.5728	18,377.9	43.7735	18,377.9	47.0295	18,377.9	50.8806	18,377.9	43.0997
19,028.3	83.5132	19,028.3	81.7371	19,028.3	82.3123	19,028.3	76.7562	19,028.3	78.7339	19,028.3	67.2969	19,028.3	70.4349	19,028.3	66.912	19,028.3	59.3247	19,028.3	68.2198	19,028.3	66.6181	19,028.3	66.9682	19,028.3	69.0472	19,028.3	65.2899	19,028.3	66.3617	19,028.3	60.1975	19,028.3	60.2382	19,028.3	49.7515	19,028.3	54.3176	19,028.3	52.9396	19,028.3	47.2589	19,028.3	47.1705	19,028.3	51.9424	19,028.3	35.7031	19,028.3	49.6257	19,028.3	41.6132	19,028.3	42.8163	19,028.3	44.1213	19,028.3	38.0802	19,028.3	34.1595	19,028.3	44.8301	19,028.3	47.64	19,028.3	38.0018	19,028.3	49.59	19,028.3	49.7127	19,028.3	42.15
19,699.2	82.0142	19,699.2	80.8345	19,699.2	80.4148	19,699.2	75.8126	19,699.2	76.9408	19,699.2	63.5046	19,699.2	67.0219	19,699.2	65.9578	19,699.2	63.9989	19,699.2	69.692	19,699.2	68.7466	19,699.2	67.7012	19,699.2	70.1383	19,699.2	63.1988	19,699.2	64.4358	19,699.2	59.4945	19,699.2	60.2485	19,699.2	45.4476	19,699.2	56.871	19,699.2	54.8401	19,699.2	49.1529	19,699.2	43.8699	19,699.2	54.3218	19,699.2	38.4118	19,699.2	49.347	19,699.2	43.9259	19,699.2	34.9066	19,699.2	45.4932	19,699.2	39.4358	19,699.2	37.5011	19,699.2	47.7459	19,699.2	42.8674	19,699.2	38.1695	19,699.2	51.1567	19,699.2	48.1086	19,699.2	43.0011
19,998	81.5917	19,998	80.3726	19,998	79.537	19,998	74.6545	19,998	75.3065	19,998	61.2168	19,998	64.1677	19,998	66.1323	19,998	67.3034	19,998	69.7528	19,998	70.7679	19,998	66.9549	19,998	70.6995	19,998	61.5094	19,998	64.0786	19,998	60.1373	19,998	61.6494	19,998	45.9831	19,998	58.5352	19,998	55.0447	19,998	51.1957	19,998	42.9836	19,998	55.1363	19,998	42.8082	19,998	49.4831	19,998	46.3182	19,998	35.4667	19,998	42.3552	19,998	38.4163	19,998	42.9918	19,998	46.3006	19,998	38.3484	19,998	46.0838	19,998	53.1741	19,998	47.5197	19,998	40.7229
