"SPL Vertical"																																																																							
"On-Axis"		"10°"		"-10°"		"20°"		"-20°"		"30°"		"-30°"		"40°"		"-40°"		"50°"		"-50°"		"60°"		"-60°"		"70°"		"-70°"		"80°"		"-80°"		"90°"		"-90°"		"100°"		"-100°"		"110°"		"-110°"		"120°"		"-120°"		"130°"		"-130°"		"140°"		"-140°"		"150°"		"-150°"		"160°"		"-160°"		"170°"		"-170°"		"180°"	
"Frequency [Hz]"	"Sound Pessure Level [dB]  / [2.83V 1m] "	"Frequency [Hz]"	"Sound Pessure Level [dB]  / [2.83V 1m] "	"Frequency [Hz]"	"Sound Pessure Level [dB]  / [2.83V 1m] "	"Frequency [Hz]"	"Sound Pessure Level [dB]  / [2.83V 1m] "	"Frequency [Hz]"	"Sound Pessure Level [dB]  / [2.83V 1m] "	"Frequency [Hz]"	"Sound Pessure Level [dB]  / [2.83V 1m] "	"Frequency [Hz]"	"Sound Pessure Level [dB]  / [2.83V 1m] "	"Frequency [Hz]"	"Sound Pessure Level [dB]  / [2.83V 1m] "	"Frequency [Hz]"	"Sound Pessure Level [dB]  / [2.83V 1m] "	"Frequency [Hz]"	"Sound Pessure Level [dB]  / [2.83V 1m] "	"Frequency [Hz]"	"Sound Pessure Level [dB]  / [2.83V 1m] "	"Frequency [Hz]"	"Sound Pessure Level [dB]  / [2.83V 1m] "	"Frequency [Hz]"	"Sound Pessure Level [dB]  / [2.83V 1m] "	"Frequency [Hz]"	"Sound Pessure Level [dB]  / [2.83V 1m] "	"Frequency [Hz]"	"Sound Pessure Level [dB]  / [2.83V 1m] "	"Frequency [Hz]"	"Sound Pessure Level [dB]  / [2.83V 1m] "	"Frequency [Hz]"	"Sound Pessure Level [dB]  / [2.83V 1m] "	"Frequency [Hz]"	"Sound Pessure Level [dB]  / [2.83V 1m] "	"Frequency [Hz]"	"Sound Pessure Level [dB]  / [2.83V 1m] "	"Frequency [Hz]"	"Sound Pessure Level [dB]  / [2.83V 1m] "	"Frequency [Hz]"	"Sound Pessure Level [dB]  / [2.83V 1m] "	"Frequency [Hz]"	"Sound Pessure Level [dB]  / [2.83V 1m] "	"Frequency [Hz]"	"Sound Pessure Level [dB]  / [2.83V 1m] "	"Frequency [Hz]"	"Sound Pessure Level [dB]  / [2.83V 1m] "	"Frequency [Hz]"	"Sound Pessure Level [dB]  / [2.83V 1m] "	"Frequency [Hz]"	"Sound Pessure Level [dB]  / [2.83V 1m] "	"Frequency [Hz]"	"Sound Pessure Level [dB]  / [2.83V 1m] "	"Frequency [Hz]"	"Sound Pessure Level [dB]  / [2.83V 1m] "	"Frequency [Hz]"	"Sound Pessure Level [dB]  / [2.83V 1m] "	"Frequency [Hz]"	"Sound Pessure Level [dB]  / [2.83V 1m] "	"Frequency [Hz]"	"Sound Pessure Level [dB]  / [2.83V 1m] "	"Frequency [Hz]"	"Sound Pessure Level [dB]  / [2.83V 1m] "	"Frequency [Hz]"	"Sound Pessure Level [dB]  / [2.83V 1m] "	"Frequency [Hz]"	"Sound Pessure Level [dB]  / [2.83V 1m] "	"Frequency [Hz]"	"Sound Pessure Level [dB]  / [2.83V 1m] "	"Frequency [Hz]"	"Sound Pessure Level [dB]  / [2.83V 1m] "
20.5078	47.496	20.5078	46.8937	20.5078	47.8849	20.5078	46.1204	20.5078	48.0378	20.5078	45.2777	20.5078	47.9344	20.5078	44.5911	20.5078	47.5526	20.5078	44.4228	20.5078	46.877	20.5078	45.0437	20.5078	45.9414	20.5078	46.331	20.5078	44.96	20.5078	47.923	20.5078	44.547	20.5078	49.5392	20.5078	45.4139	20.5078	51.0452	20.5078	47.3202	20.5078	52.392	20.5078	49.4686	20.5078	53.5651	20.5078	51.4186	20.5078	54.5606	20.5078	53.0484	20.5078	55.3759	20.5078	54.3499	20.5078	56.0065	20.5078	55.3436	20.5078	56.4451	20.5078	56.0534	20.5078	56.682	20.5078	56.5011	20.5078	56.7053
23.4375	51.1612	23.4375	50.7522	23.4375	51.4584	23.4375	50.3128	23.4375	51.5965	23.4375	49.9745	23.4375	51.5487	23.4375	49.9105	23.4375	51.3054	23.4375	50.2651	23.4375	50.8872	23.4375	51.0536	23.4375	50.3842	23.4375	52.1535	23.4375	50.0224	23.4375	53.3993	23.4375	50.1683	23.4375	54.6623	23.4375	51.0682	23.4375	55.865	23.4375	52.552	23.4375	56.9667	23.4375	54.2352	23.4375	57.9456	23.4375	55.8401	23.4375	58.7886	23.4375	57.2405	23.4375	59.4852	23.4375	58.3949	23.4375	60.025	23.4375	59.2975	23.4375	60.3969	23.4375	59.9558	23.4375	60.5888	23.4375	60.3816	23.4375	60.5881
26.3672	54.6098	26.3672	54.2127	26.3672	54.8762	26.3672	53.7327	26.3672	54.9822	26.3672	53.252	26.3672	54.9086	26.3672	52.8997	26.3672	54.6447	26.3672	52.8379	26.3672	54.1975	26.3672	53.1902	26.3672	53.6204	26.3672	53.9543	26.3672	53.0692	26.3672	55.0062	26.3672	52.8549	26.3672	56.1886	26.3672	53.3179	26.3672	57.3794	26.3672	54.4807	26.3672	58.5037	26.3672	56.0109	26.3672	59.5194	26.3672	57.5673	26.3672	60.4023	26.3672	58.9635	26.3672	61.1364	26.3672	60.1272	26.3672	61.7087	26.3672	61.0399	26.3672	62.1068	26.3672	61.7043	26.3672	62.3184	26.3672	62.1303	26.3672	62.3306
29.2969	57.4534	29.2969	57.1357	29.2969	57.6819	29.2969	56.7801	29.2969	57.7905	29.2969	56.4659	29.2969	57.7634	29.2969	56.3008	29.2969	57.6006	29.2969	56.3975	29.2969	57.3273	29.2969	56.822	29.2969	57.0142	29.2969	57.5539	29.2969	56.804	29.2969	58.5006	29.2969	56.902	29.2969	59.5511	29.2969	57.4698	29.2969	60.6139	29.2969	58.481	29.2969	61.6274	29.2969	59.7402	29.2969	62.5527	29.2969	61.0351	29.2969	63.3648	29.2969	62.2248	29.2969	64.0459	29.2969	63.2376	29.2969	64.5817	29.2969	64.0436	29.2969	64.9587	29.2969	64.6347	29.2969	65.1644	29.2969	65.0131	29.2969	65.1863
32.2266	60.2501	32.2266	60.0175	32.2266	60.4288	32.2266	59.7784	32.2266	60.524	32.2266	59.5991	32.2266	60.5216	32.2266	59.5594	32.2266	60.425	32.2266	59.7326	32.2266	60.2617	32.2266	60.1559	32.2266	60.097	32.2266	60.8115	32.2266	60.0428	32.2266	61.6367	32.2266	60.2399	32.2266	62.5535	32.2266	60.7872	32.2266	63.4919	32.2266	61.6648	32.2266	64.3988	32.2266	62.7441	32.2266	65.237	32.2266	63.8712	32.2266	65.9798	32.2266	64.9284	32.2266	66.6071	32.2266	65.8452	32.2266	67.1025	32.2266	66.5858	32.2266	67.4512	32.2266	67.1354	32.2266	67.6399	32.2266	67.4911	32.2266	67.6566
35.1563	64.1328	35.1563	63.9576	35.1563	64.2753	35.1563	63.7817	35.1563	64.3642	35.1563	63.6479	35.1563	64.3901	35.1563	63.6066	35.1563	64.3568	35.1563	63.7059	35.1563	64.2846	35.1563	63.9779	35.1563	64.2168	35.1563	64.4265	35.1563	64.2213	35.1563	65.0254	35.1563	64.381	35.1563	65.7287	35.1563	64.7616	35.1563	66.4843	35.1563	65.3735	35.1563	67.2445	35.1563	66.1598	35.1563	67.9699	35.1563	67.0251	35.1563	68.6292	35.1563	67.8753	35.1563	69.1975	35.1563	68.6391	35.1563	69.6539	35.1563	69.2712	35.1563	69.9812	35.1563	69.7464	35.1563	70.1645	35.1563	70.0538	35.1563	70.1917
38.0859	67.1689	38.0859	67.0365	38.0859	67.2826	38.0859	66.9109	38.0859	67.3606	38.0859	66.8253	38.0859	67.3956	38.0859	66.8169	38.0859	67.3913	38.0859	66.9207	38.0859	67.3653	38.0859	67.1609	38.0859	67.3522	38.0859	67.5428	38.0859	67.4037	38.0859	68.0506	38.0859	67.5794	38.0859	68.6527	38.0859	67.9266	38.0859	69.3094	38.0859	68.4546	38.0859	69.9809	38.0859	69.1258	38.0859	70.6315	38.0859	69.8704	38.0859	71.2306	38.0859	70.6125	38.0859	71.7526	38.0859	71.289	38.0859	72.1759	38.0859	71.8553	38.0859	72.482	38.0859	72.2844	38.0859	72.6558	38.0859	72.5624	38.0859	72.6852
41.0156	70.4512	41.0156	70.3459	41.0156	70.5494	41.0156	70.2519	41.0156	70.6283	41.0156	70.1925	41.0156	70.6826	41.0156	70.1935	41.0156	70.7157	41.0156	70.2797	41.0156	70.7405	41.0156	70.4691	41.0156	70.7813	41.0156	70.7686	41.0156	70.8721	41.0156	71.1716	41.0156	71.0513	41.0156	71.6589	41.0156	71.3493	41.0156	72.2029	41.0156	71.7748	41.0156	72.7724	41.0156	72.3073	41.0156	73.3365	41.0156	72.9022	41.0156	73.8664	41.0156	73.5047	41.0156	74.3364	41.0156	74.0629	41.0156	74.7241	41.0156	74.536	41.0156	75.0105	41.0156	74.896	41.0156	75.18	41.0156	75.1266	41.0156	75.2209
43.9453	73.0967	43.9453	73.0028	43.9453	73.1875	43.9453	72.9201	43.9453	73.2655	43.9453	72.8669	43.9453	73.3266	43.9453	72.8634	43.9453	73.3732	43.9453	72.9291	43.9453	73.4153	43.9453	73.0798	43.9453	73.4712	43.9453	73.3232	43.9453	73.5663	43.9453	73.6571	43.9453	73.7293	43.9453	74.069	43.9453	73.9843	43.9453	74.538	43.9453	74.3402	43.9453	75.0384	43.9453	74.7848	43.9453	75.5423	43.9453	75.2861	43.9453	76.0225	43.9453	75.8004	43.9453	76.4538	43.9453	76.2831	43.9453	76.8138	43.9453	76.6964	43.9453	77.083	43.9453	77.0123	43.9453	77.2459	43.9453	77.2134	43.9453	77.2914
46.875	75.5132	46.875	75.4378	46.875	75.5932	46.875	75.3777	46.875	75.6703	46.875	75.3464	46.875	75.7415	46.875	75.3585	46.875	75.8084	46.875	75.4283	46.875	75.8785	46.875	75.5669	46.875	75.9648	46.875	75.7804	46.875	76.0849	46.875	76.068	46.875	76.2583	46.875	76.4212	46.875	76.5008	46.875	76.8251	46.875	76.8181	46.875	77.2596	46.875	77.2013	46.875	77.7023	46.875	77.6272	46.875	78.1294	46.875	78.0625	46.875	78.5183	46.875	78.4715	46.875	78.8475	46.875	78.8216	46.875	79.0986	46.875	79.0878	46.875	79.2563	46.875	79.2532	46.875	79.3097
49.8047	77.2146	49.8047	77.1482	49.8047	77.2903	49.8047	77.0993	49.8047	77.3697	49.8047	77.0778	49.8047	77.4503	49.8047	77.0948	49.8047	77.5333	49.8047	77.1609	49.8047	77.624	49.8047	77.2846	49.8047	77.7314	49.8047	77.4709	49.8047	77.8677	49.8047	77.72	49.8047	78.0462	49.8047	78.0261	49.8047	78.2769	49.8047	78.3784	49.8047	78.5634	49.8047	78.7612	49.8047	78.8985	49.8047	79.1558	49.8047	79.2645	49.8047	79.5416	49.8047	79.6355	49.8047	79.8979	49.8047	79.9824	49.8047	80.2047	49.8047	80.2776	49.8047	80.444	49.8047	80.4988	49.8047	80.6009	49.8047	80.6306	49.8047	80.6649
52.7344	78.5327	52.7344	78.4752	52.7344	78.6029	52.7344	78.4363	52.7344	78.6815	52.7344	78.4231	52.7344	78.7667	52.7344	78.4435	52.7344	78.8589	52.7344	78.505	52.7344	78.9614	52.7344	78.6141	52.7344	79.08	52.7344	78.7746	52.7344	79.2226	52.7344	78.9872	52.7344	79.3973	52.7344	79.2485	52.7344	79.6106	52.7344	79.5507	52.7344	79.8642	52.7344	79.8819	52.7344	80.1526	52.7344	80.2272	52.7344	80.4627	52.7344	80.5691	52.7344	80.7744	52.7344	80.8891	52.7344	81.0645	52.7344	81.1688	52.7344	81.31	52.7344	81.3912	52.7344	81.4913	52.7344	81.5422	52.7344	81.5944	52.7344	81.6116
55.6641	79.4607	55.6641	79.4096	55.6641	79.527	55.6641	79.3777	55.6641	79.6053	55.6641	79.3702	55.6641	79.6941	55.6641	79.3924	55.6641	79.7933	55.6641	79.4497	55.6641	79.9045	55.6641	79.5466	55.6641	80.0311	55.6641	79.6863	55.6641	80.1775	55.6641	79.8696	55.6641	80.3483	55.6641	80.0942	55.6641	80.547	55.6641	80.3548	55.6641	80.7739	55.6641	80.6424	55.6641	81.0244	55.6641	80.9451	55.6641	81.2884	55.6641	81.2482	55.6641	81.5503	55.6641	81.5355	55.6641	81.7917	55.6641	81.7905	55.6641	81.9935	55.6641	81.9975	55.6641	82.1389	55.6641	82.143	55.6641	82.2158	55.6641	82.2174
58.5938	80.1242	58.5938	80.0791	58.5938	80.186	58.5938	80.0534	58.5938	80.2623	58.5938	80.0503	58.5938	80.3518	58.5938	80.0734	58.5938	80.4542	58.5938	80.1262	58.5938	80.5698	58.5938	80.212	58.5938	80.7002	58.5938	80.3328	58.5938	80.8472	58.5938	80.4898	58.5938	81.013	58.5938	80.6815	58.5938	81.1987	58.5938	80.9046	58.5938	81.4033	58.5938	81.1524	58.5938	81.6228	58.5938	81.4159	58.5938	81.8488	58.5938	81.6831	58.5938	82.0691	58.5938	81.9402	58.5938	82.2689	58.5938	82.1724	58.5938	82.4326	58.5938	82.3653	58.5938	82.5461	58.5938	82.5062	58.5938	82.5991	58.5938	82.5858
61.5234	80.6572	61.5234	80.6139	61.5234	80.7185	61.5234	80.5902	61.5234	80.7964	61.5234	80.5882	61.5234	80.8897	61.5234	80.6098	61.5234	80.9975	61.5234	80.6573	61.5234	81.1193	61.5234	80.7326	61.5234	81.2548	61.5234	80.8373	61.5234	81.4038	61.5234	80.9723	61.5234	81.5662	61.5234	81.1371	61.5234	81.7414	61.5234	81.3293	61.5234	81.9274	61.5234	81.5446	61.5234	82.1201	61.5234	81.7758	61.5234	82.3129	61.5234	82.0135	61.5234	82.496	61.5234	82.2458	61.5234	82.6577	61.5234	82.4599	61.5234	82.7857	61.5234	82.6424	61.5234	82.8684	61.5234	82.7816	61.5234	82.8974	61.5234	82.8683
64.4531	81.1213	64.4531	81.0797	64.4531	81.1819	64.4531	81.0578	64.4531	81.2606	64.4531	81.0565	64.4531	81.3563	64.4531	81.0767	64.4531	81.4679	64.4531	81.1193	64.4531	81.594	64.4531	81.1855	64.4531	81.7329	64.4531	81.2761	64.4531	81.8828	64.4531	81.392	64.4531	82.0419	64.4531	81.5331	64.4531	82.2079	64.4531	81.6982	64.4531	82.378	64.4531	81.8843	64.4531	82.548	64.4531	82.0863	64.4531	82.7122	64.4531	82.297	64.4531	82.863	64.4531	82.5065	64.4531	82.9914	64.4531	82.7035	64.4531	83.0875	64.4531	82.8761	64.4531	83.1425	64.4531	83.0134	64.4531	83.1498	64.4531	83.1064
67.3828	81.6084	67.3828	81.5668	67.3828	81.6697	67.3828	81.545	67.3828	81.7504	67.3828	81.5431	67.3828	81.8494	67.3828	81.5608	67.3828	81.9652	67.3828	81.5983	67.3828	82.0955	67.3828	81.6558	67.3828	82.2376	67.3828	81.7337	67.3828	82.3885	67.3828	81.8325	67.3828	82.5445	67.3828	81.9525	67.3828	82.7023	67.3828	82.0933	67.3828	82.858	67.3828	82.2533	67.3828	83.0075	67.3828	82.4291	67.3828	83.1459	67.3828	82.6152	67.3828	83.2671	67.3828	82.8039	67.3828	83.3642	67.3828	82.9857	67.3828	83.4302	67.3828	83.1498	67.3828	83.4584	67.3828	83.2862	67.3828	83.4443	67.3828	83.3862
70.3125	82.1361	70.3125	82.0958	70.3125	82.1966	70.3125	82.0752	70.3125	82.2771	70.3125	82.0735	70.3125	82.3766	70.3125	82.0898	70.3125	82.4933	70.3125	82.1235	70.3125	82.6245	70.3125	82.1741	70.3125	82.7664	70.3125	82.2416	70.3125	82.9149	70.3125	82.3263	70.3125	83.0655	70.3125	82.4287	70.3125	83.2138	70.3125	82.5488	70.3125	83.3555	70.3125	82.686	70.3125	83.4864	70.3125	82.8382	70.3125	83.6023	70.3125	83.0016	70.3125	83.6985	70.3125	83.1701	70.3125	83.7702	70.3125	83.3356	70.3125	83.8121	70.3125	83.4889	70.3125	83.8198	70.3125	83.6207	70.3125	83.7903	70.3125	83.7231
73.2422	82.6368	73.2422	82.5992	73.2422	82.6953	73.2422	82.5818	73.2422	82.7749	73.2422	82.583	73.2422	82.8747	73.2422	82.6011	73.2422	82.9925	73.2422	82.6347	73.2422	83.1251	73.2422	82.6825	73.2422	83.268	73.2422	82.7438	73.2422	83.416	73.2422	82.8185	73.2422	83.5637	73.2422	82.9066	73.2422	83.7056	73.2422	83.0087	73.2422	83.8368	73.2422	83.1248	73.2422	83.9529	73.2422	83.2539	73.2422	84.0499	73.2422	83.394	73.2422	84.1243	73.2422	83.5408	73.2422	84.1728	73.2422	83.6885	73.2422	84.1921	73.2422	83.8294	73.2422	84.18	73.2422	83.9555	73.2422	84.1355	73.2422	84.0595
76.1719	83.1204	76.1719	83.0828	76.1719	83.1787	76.1719	83.0647	76.1719	83.2581	76.1719	83.064	76.1719	83.3575	76.1719	83.0785	76.1719	83.4748	76.1719	83.1061	76.1719	83.606	76.1719	83.1451	76.1719	83.7462	76.1719	83.1943	76.1719	83.8897	76.1719	83.2533	76.1719	84.03	76.1719	83.3224	76.1719	84.1613	76.1719	83.4025	76.1719	84.2779	76.1719	83.4945	76.1719	84.3755	76.1719	83.5989	76.1719	84.4506	76.1719	83.7153	76.1719	84.5006	76.1719	83.8413	76.1719	84.5235	76.1719	83.9728	76.1719	84.5182	76.1719	84.1037	76.1719	84.4843	76.1719	84.2268	76.1719	84.4224	76.1719	84.3351
79.1016	83.4685	79.1016	83.4268	79.1016	83.5316	79.1016	83.4049	79.1016	83.6164	79.1016	83.4008	79.1016	83.7217	79.1016	83.4116	79.1016	83.8448	79.1016	83.4349	79.1016	83.9814	79.1016	83.4683	79.1016	84.1259	79.1016	83.5104	79.1016	84.2716	79.1016	83.5605	79.1016	84.4118	79.1016	83.6188	79.1016	84.5395	79.1016	83.6864	79.1016	84.649	79.1016	83.7647	79.1016	84.7355	79.1016	83.8553	79.1016	84.7958	79.1016	83.9586	79.1016	84.8277	79.1016	84.0738	79.1016	84.8304	79.1016	84.1982	79.1016	84.8041	79.1016	84.3266	79.1016	84.75	79.1016	84.4528	79.1016	84.6706	79.1016	84.5697
82.0313	83.8499	82.0313	83.8085	82.0313	83.9128	82.0313	83.787	82.0313	83.9977	82.0313	83.7827	82.0313	84.1033	82.0313	83.7924	82.0313	84.2267	82.0313	83.8129	82.0313	84.3632	82.0313	83.8415	82.0313	84.5069	82.0313	83.8758	82.0313	84.6504	82.0313	83.915	82.0313	84.7864	82.0313	83.959	82.0313	84.9074	82.0313	84.0091	82.0313	85.0069	82.0313	84.0674	82.0313	85.0799	82.0313	84.1365	82.0313	85.1231	82.0313	84.2185	82.0313	85.135	82.0313	84.3143	82.0313	85.1159	82.0313	84.4232	82.0313	85.0676	82.0313	84.5418	82.0313	84.9933	82.0313	84.6649	82.0313	84.8975	82.0313	84.7858
84.9609	84.2276	84.9609	84.1851	84.9609	84.2887	84.9609	84.1593	84.9609	84.3687	84.9609	84.1475	84.9609	84.4666	84.9609	84.1463	84.9609	84.5794	84.9609	84.1524	84.9609	84.7026	84.9609	84.1628	84.9609	84.8299	84.9609	84.1752	84.9609	84.9542	84.9609	84.1886	84.9609	85.068	84.9609	84.2032	84.9609	85.1638	84.9609	84.221	84.9609	85.2355	84.9609	84.2449	84.9609	85.2782	84.9609	84.2787	84.9609	85.2893	84.9609	84.3265	84.9609	85.2685	84.9609	84.3914	84.9609	85.2177	84.9609	84.4745	84.9609	85.1405	84.9609	84.5746	84.9609	85.0422	84.9609	84.6879	84.9609	84.9291	84.9609	84.8085
87.8906	84.5807	87.8906	84.5424	87.8906	84.6329	87.8906	84.5152	87.8906	84.7003	87.8906	84.4958	87.8906	84.7827	87.8906	84.4804	87.8906	84.8778	87.8906	84.4656	87.8906	84.9816	87.8906	84.4485	87.8906	85.0885	87.8906	84.4275	87.8906	85.1914	87.8906	84.4027	87.8906	85.2827	87.8906	84.3757	87.8906	85.355	87.8906	84.3502	87.8906	85.4017	87.8906	84.3313	87.8906	85.4181	87.8906	84.3253	87.8906	85.4018	87.8906	84.3385	87.8906	85.3527	87.8906	84.376	87.8906	85.2735	87.8906	84.4405	87.8906	85.1688	87.8906	84.5315	87.8906	85.0452	87.8906	84.6451	87.8906	84.9108	87.8906	84.7744
90.8203	84.2753	90.8203	84.2354	90.8203	84.3411	90.8203	84.2194	90.8203	84.4333	90.8203	84.2239	90.8203	84.5502	90.8203	84.2448	90.8203	84.688	90.8203	84.2776	90.8203	84.8411	90.8203	84.3185	90.8203	85.0022	90.8203	84.3642	90.8203	85.163	90.8203	84.4127	90.8203	85.3146	90.8203	84.4634	90.8203	85.4485	90.8203	84.5171	90.8203	85.5574	90.8203	84.5761	90.8203	85.6354	90.8203	84.6431	90.8203	85.6789	90.8203	84.7212	90.8203	85.6866	90.8203	84.8126	90.8203	85.6594	90.8203	84.9178	90.8203	85.6003	90.8203	85.0351	90.8203	85.5142	90.8203	85.16	90.8203	85.4072	90.8203	85.2866
93.75	84.5651	93.75	84.5172	93.75	84.6372	93.75	84.4911	93.75	84.7341	93.75	84.4834	93.75	84.8545	93.75	84.4897	93.75	84.9949	93.75	84.5054	93.75	85.1497	93.75	84.5263	93.75	85.3116	93.75	84.5492	93.75	85.4717	93.75	84.5721	93.75	85.6201	93.75	84.5946	93.75	85.747	93.75	84.6179	93.75	85.8435	93.75	84.6454	93.75	85.9023	93.75	84.6814	93.75	85.919	93.75	84.7312	93.75	85.8922	93.75	84.7997	93.75	85.8241	93.75	84.8904	93.75	85.7201	93.75	85.0042	93.75	85.5888	93.75	85.1383	93.75	85.4406	93.75	85.2868
96.6797	84.9959	96.6797	84.9593	96.6797	85.0474	96.6797	84.9346	96.6797	85.1156	96.6797	84.9177	96.6797	85.1999	96.6797	84.904	96.6797	85.298	96.6797	84.8888	96.6797	85.4055	96.6797	84.8682	96.6797	85.516	96.6797	84.8392	96.6797	85.6216	96.6797	84.8007	96.6797	85.7134	96.6797	84.7536	96.6797	85.7824	96.6797	84.7012	96.6797	85.8202	96.6797	84.6489	96.6797	85.8205	96.6797	84.6046	96.6797	85.7798	96.6797	84.5773	96.6797	85.6979	96.6797	84.5764	96.6797	85.5788	96.6797	84.6093	96.6797	85.4304	96.6797	84.6802	96.6797	85.2636	96.6797	84.7888	96.6797	85.0919	96.6797	84.9293
102.539	84.7514	102.539	84.7085	102.539	84.8142	102.539	84.6834	102.539	84.8972	102.539	84.6724	102.539	84.9988	102.539	84.6709	102.539	85.1155	102.539	84.6737	102.539	85.2417	102.539	84.6757	102.539	85.3703	102.539	84.673	102.539	85.493	102.539	84.6628	102.539	85.6005	102.539	84.6443	102.539	85.6837	102.539	84.6192	102.539	85.7342	102.539	84.5915	102.539	85.7457	102.539	84.5676	102.539	85.7146	102.539	84.5556	102.539	85.6413	102.539	84.5643	102.539	85.5299	102.539	84.6013	102.539	85.3888	102.539	84.6716	102.539	85.2294	102.539	84.7758	102.539	85.0652	102.539	84.91
105.469	84.7282	105.469	84.6837	105.469	84.7919	105.469	84.6565	105.469	84.8749	105.469	84.6431	105.469	84.9754	105.469	84.639	105.469	85.0897	105.469	84.639	105.469	85.2125	105.469	84.638	105.469	85.3369	105.469	84.6317	105.469	85.4546	105.469	84.6172	105.469	85.5567	105.469	84.5934	105.469	85.6341	105.469	84.5618	105.469	85.6785	105.469	84.5262	105.469	85.6834	105.469	84.4935	105.469	85.6453	105.469	84.472	105.469	85.5644	105.469	84.4713	105.469	85.4452	105.469	84.5002	105.469	85.2961	105.469	84.5645	105.469	85.1293	105.469	84.6659	105.469	84.9592	105.469	84.8005
108.398	84.8228	108.398	84.7687	108.398	84.8944	108.398	84.7308	108.398	84.9834	108.398	84.7062	108.398	85.0877	108.398	84.6905	108.398	85.2035	108.398	84.6789	108.398	85.3255	108.398	84.6665	108.398	85.4468	108.398	84.649	108.398	85.5596	108.398	84.6234	108.398	85.655	108.398	84.5888	108.398	85.724	108.398	84.5466	108.398	85.7584	108.398	84.5011	108.398	85.7516	108.398	84.4591	108.398	85.7002	108.398	84.4299	108.398	85.6044	108.398	84.4236	108.398	85.469	108.398	84.4496	108.398	85.3033	108.398	84.5147	108.398	85.1202	108.398	84.6208	108.398	84.9352	108.398	84.7642
111.328	84.8986	111.328	84.8415	111.328	84.9715	111.328	84.7991	111.328	85.0599	111.328	84.7684	111.328	85.1619	111.328	84.7456	111.328	85.2741	111.328	84.7261	111.328	85.3913	111.328	84.705	111.328	85.5073	111.328	84.6783	111.328	85.6143	111.328	84.6431	111.328	85.7035	111.328	84.5984	111.328	85.7661	111.328	84.5459	111.328	85.7935	111.328	84.49	111.328	85.7791	111.328	84.4379	111.328	85.7191	111.328	84.3993	111.328	85.6135	111.328	84.3849	111.328	85.4672	111.328	84.4052	111.328	85.29	111.328	84.4675	111.328	85.0957	111.328	84.5744	111.328	84.9008	111.328	84.7221
117.188	84.8319	117.188	84.7792	117.188	84.8989	117.188	84.7397	117.188	84.9798	117.188	84.7108	117.188	85.0727	117.188	84.6885	117.188	85.1741	117.188	84.6681	117.188	85.2794	117.188	84.6445	117.188	85.3829	117.188	84.6134	117.188	85.4772	117.188	84.5716	117.188	85.5544	117.188	84.5181	117.188	85.606	117.188	84.4545	117.188	85.6239	117.188	84.3854	117.188	85.6013	117.188	84.3185	117.188	85.5342	117.188	84.2641	117.188	85.4229	117.188	84.2338	117.188	85.272	117.188	84.2392	117.188	85.0914	117.188	84.2885	117.188	84.8955	117.188	84.3853	117.188	84.7012	117.188	84.5262
120.117	84.8304	120.117	84.7774	120.117	84.8971	120.117	84.7377	120.117	84.9766	120.117	84.7092	120.117	85.0665	120.117	84.6881	120.117	85.1631	120.117	84.6699	120.117	85.2618	120.117	84.6493	120.117	85.3566	120.117	84.6218	120.117	85.4409	120.117	84.5836	120.117	85.5072	120.117	84.5333	120.117	85.5474	120.117	84.4716	120.117	85.5542	120.117	84.4025	120.117	85.5216	120.117	84.333	120.117	85.4464	120.117	84.2728	120.117	85.3297	120.117	84.2334	120.117	85.1769	120.117	84.2261	120.117	84.9985	120.117	84.2603	120.117	84.8092	120.117	84.3404	120.117	84.6258	120.117	84.465
125.977	84.8574	125.977	84.8047	125.977	84.9201	125.977	84.7614	125.977	84.9919	125.977	84.726	125.977	85.0713	125.977	84.6957	125.977	85.1555	125.977	84.6669	125.977	85.2408	125.977	84.6353	125.977	85.3225	125.977	84.5967	125.977	85.3941	125.977	84.5478	125.977	85.4481	125.977	84.4865	125.977	85.4761	125.977	84.4131	125.977	85.47	125.977	84.3308	125.977	85.4229	125.977	84.2456	125.977	85.3312	125.977	84.1668	125.977	85.1958	125.977	84.1062	125.977	85.0235	125.977	84.0767	125.977	84.8266	125.977	84.0901	125.977	84.6224	125.977	84.1541	125.977	84.4307	125.977	84.2699
128.906	84.6385	128.906	84.5886	128.906	84.6969	128.906	84.5461	128.906	84.764	128.906	84.5083	128.906	84.8387	128.906	84.472	128.906	84.9188	128.906	84.4327	128.906	85.0008	128.906	84.3861	128.906	85.0798	128.906	84.3279	128.906	85.1493	128.906	84.2549	128.906	85.2009	128.906	84.1659	128.906	85.2254	128.906	84.062	128.906	85.2134	128.906	83.9474	128.906	85.1566	128.906	83.8302	128.906	85.0501	128.906	83.722	128.906	84.8939	128.906	83.6374	128.906	84.6943	128.906	83.5923	128.906	84.465	128.906	83.6011	128.906	84.2253	128.906	83.6731	128.906	83.9989	128.906	83.8088
134.766	84.1812	134.766	84.1236	134.766	84.25	134.766	84.0758	134.766	84.33	134.766	84.0349	134.766	84.4196	134.766	83.9964	134.766	84.5165	134.766	83.9553	134.766	84.6171	134.766	83.9063	134.766	84.7168	134.766	83.8448	134.766	84.8095	134.766	83.7682	134.766	84.8874	134.766	83.6763	134.766	84.9411	134.766	83.5723	134.766	84.9605	134.766	83.4629	134.766	84.936	134.766	83.359	134.766	84.8601	134.766	83.2745	134.766	84.73	134.766	83.2252	134.766	84.5485	134.766	83.226	134.766	84.3257	134.766	83.288	134.766	84.0782	134.766	83.4146	134.766	83.8282	134.766	83.5998
137.695	84.126	137.695	84.0668	137.695	84.1982	137.695	84.0201	137.695	84.2823	137.695	83.9832	137.695	84.3759	137.695	83.952	137.695	84.4759	137.695	83.9212	137.695	84.5785	137.695	83.8849	137.695	84.6793	137.695	83.8382	137.695	84.7725	137.695	83.7778	137.695	84.8513	137.695	83.7031	137.695	84.907	137.695	83.6167	137.695	84.9304	137.695	83.5249	137.695	84.9124	137.695	83.4375	137.695	84.8462	137.695	83.3675	137.695	84.729	137.695	83.3291	137.695	84.5635	137.695	83.336	137.695	84.3592	137.695	83.3979	137.695	84.1317	137.695	83.5177	137.695	83.9013	137.695	83.6901
143.555	83.7702	143.555	83.6949	143.555	83.8603	143.555	83.6374	143.555	83.9606	143.555	83.5986	143.555	84.0663	143.555	83.5762	143.555	84.1728	143.555	83.5655	143.555	84.276	143.555	83.5599	143.555	84.3722	143.555	83.5524	143.555	84.4571	143.555	83.5367	143.555	84.5259	143.555	83.5088	143.555	84.5722	143.555	83.4678	143.555	84.5889	143.555	83.4166	143.555	84.5689	143.555	83.3618	143.555	84.5072	143.555	83.3132	143.555	84.4022	143.555	83.2828	143.555	84.2577	143.555	83.2827	143.555	84.0832	143.555	83.3231	143.555	83.8934	143.555	83.4093	143.555	83.7062	143.555	83.5399
149.414	83.6198	149.414	83.5167	149.414	83.7222	149.414	83.4173	149.414	83.8195	149.414	83.325	149.414	83.9082	149.414	83.2417	149.414	83.9861	149.414	83.1671	149.414	84.0517	149.414	83.0991	149.414	84.1043	149.414	83.0344	149.414	84.1427	149.414	82.9698	149.414	84.1644	149.414	82.9033	149.414	84.1651	149.414	82.835	149.414	84.1393	149.414	82.7677	149.414	84.081	149.414	82.7068	149.414	83.9856	149.414	82.6603	149.414	83.8522	149.414	82.637	149.414	83.6847	149.414	82.6461	149.414	83.4927	149.414	82.695	149.414	83.2907	149.414	82.7879	149.414	83.0956	149.414	82.9238
155.273	83.8745	155.273	83.7797	155.273	83.9618	155.273	83.6805	155.273	84.0389	155.273	83.579	155.273	84.1034	155.273	83.4761	155.273	84.154	155.273	83.3713	155.273	84.1899	155.273	83.2625	155.273	84.2103	155.273	83.1471	155.273	84.2137	155.273	83.0229	155.273	84.1967	155.273	82.8892	155.273	84.1543	155.273	82.7478	155.273	84.0795	155.273	82.6037	155.273	83.9658	155.273	82.4652	155.273	83.8087	155.273	82.3432	155.273	83.6082	155.273	82.251	155.273	83.3713	155.273	82.2022	155.273	83.1123	155.273	82.2091	155.273	82.8515	155.273	82.2801	155.273	82.6125	155.273	82.4168
158.203	83.7479	158.203	83.6605	158.203	83.8295	158.203	83.5699	158.203	83.9027	158.203	83.4781	158.203	83.9652	158.203	83.3854	158.203	84.0159	158.203	83.2906	158.203	84.054	158.203	83.1909	158.203	84.0791	158.203	83.0831	158.203	84.0899	158.203	82.9647	158.203	84.0832	158.203	82.8346	158.203	84.0535	158.203	82.6948	158.203	83.9936	158.203	82.5504	158.203	83.8958	158.203	82.4104	158.203	83.754	158.203	82.2867	158.203	83.5668	158.203	82.1935	158.203	83.3395	158.203	82.1456	158.203	83.0852	158.203	82.1561	158.203	82.8242	158.203	82.2332	158.203	82.5805	158.203	82.3776
164.063	83.5591	164.063	83.4473	164.063	83.6653	164.063	83.3349	164.063	83.7609	164.063	83.2262	164.063	83.8419	164.063	83.1233	164.063	83.9058	164.063	83.0258	164.063	83.9513	164.063	82.9311	164.063	83.978	164.063	82.8351	164.063	83.9848	164.063	82.7338	164.063	83.9694	164.063	82.6245	164.063	83.9279	164.063	82.5074	164.063	83.8547	164.063	82.386	164.063	83.7444	164.063	82.2678	164.063	83.5931	164.063	82.1633	164.063	83.4016	164.063	82.0853	164.063	83.1763	164.063	82.0473	164.063	82.9306	164.063	82.061	164.063	82.6833	164.063	82.1341	164.063	82.4558	164.063	82.2679
169.922	83.3781	169.922	83.2719	169.922	83.4721	169.922	83.1579	169.922	83.5507	169.922	83.0409	169.922	83.6129	169.922	82.9252	169.922	83.6595	169.922	82.8135	169.922	83.6926	169.922	82.7067	169.922	83.7141	169.922	82.6042	169.922	83.725	169.922	82.5046	169.922	83.7233	169.922	82.4068	169.922	83.7039	169.922	82.3112	169.922	83.6591	169.922	82.2202	169.922	83.5806	169.922	82.1384	169.922	83.4617	169.922	82.0722	169.922	83.3007	169.922	82.0299	169.922	83.103	169.922	82.0206	169.922	82.8812	169.922	82.0528	169.922	82.654	169.922	82.1334	169.922	82.4424	169.922	82.2648
175.781	83.3996	175.781	83.3022	175.781	83.4789	175.781	83.1902	175.781	83.5382	175.781	83.0679	175.781	83.5782	175.781	82.9395	175.781	83.6019	175.781	82.8082	175.781	83.6139	175.781	82.6759	175.781	83.6188	175.781	82.5434	175.781	83.6193	175.781	82.4115	175.781	83.6149	175.781	82.2818	175.781	83.6003	175.781	82.1578	175.781	83.5662	175.781	82.0447	175.781	83.5014	175.781	81.9498	175.781	83.396	175.781	81.8807	175.781	83.2451	175.781	81.8455	175.781	83.0516	175.781	81.8515	175.781	82.8269	175.781	81.9047	175.781	82.5898	175.781	82.0088	175.781	82.3619	175.781	82.1635
181.641	83.54	181.641	83.457	181.641	83.5995	181.641	83.3533	181.641	83.6344	181.641	83.2328	181.641	83.6458	181.641	83.099	181.641	83.6375	181.641	82.9546	181.641	83.6153	181.641	82.8009	181.641	83.5859	181.641	82.6391	181.641	83.5544	181.641	82.4705	181.641	83.5232	181.641	82.2986	181.641	83.4893	181.641	82.1295	181.641	83.445	181.641	81.9724	181.641	83.3786	181.641	81.8387	181.641	83.2783	181.641	81.7405	181.641	83.1363	181.641	81.6887	181.641	82.9515	181.641	81.6912	181.641	82.7319	181.641	81.7524	181.641	82.4935	181.641	81.8718	181.641	82.257	181.641	82.0439
190.43	83.5585	190.43	83.4806	190.43	83.6089	190.43	83.3795	190.43	83.6293	190.43	83.2606	190.43	83.6202	190.43	83.1287	190.43	83.5854	190.43	82.9872	190.43	83.5314	190.43	82.838	190.43	83.4665	190.43	82.6819	190.43	83.3988	190.43	82.5198	190.43	83.3334	190.43	82.3539	190.43	83.2705	190.43	82.189	190.43	83.2048	190.43	82.033	190.43	83.1269	190.43	81.8963	190.43	83.026	190.43	81.7904	190.43	82.8947	190.43	81.7258	190.43	82.7314	190.43	81.7102	190.43	82.5428	190.43	81.7474	190.43	82.342	190.43	81.8368	190.43	82.1463	190.43	81.9731
196.289	83.7907	196.289	83.7299	196.289	83.82	196.289	83.6427	196.289	83.8153	196.289	83.5355	196.289	83.7775	196.289	83.4143	196.289	83.7115	196.289	83.2841	196.289	83.6254	196.289	83.1482	196.289	83.5299	196.289	83.0081	196.289	83.4354	196.289	82.8654	196.289	83.3499	196.289	82.7223	196.289	83.2765	196.289	82.583	196.289	83.2121	196.289	82.4541	196.289	83.1486	196.289	82.3436	196.289	83.0761	196.289	82.2597	196.289	82.9866	196.289	82.2092	196.289	82.8771	196.289	82.1958	196.289	82.7511	196.289	82.2202	196.289	82.6172	196.289	82.2803	196.289	82.487	196.289	82.3715
202.148	84.0029	202.148	83.9507	202.148	84.0157	202.148	83.8652	202.148	83.9862	202.148	83.7543	202.148	83.9158	202.148	83.6263	202.148	83.8107	202.148	83.4881	202.148	83.681	202.148	83.3448	202.148	83.5398	202.148	83.1997	202.148	83.4008	202.148	83.055	202.148	83.275	202.148	82.9133	202.148	83.1687	202.148	82.7787	202.148	83.0811	202.148	82.6568	202.148	83.0064	202.148	82.5538	202.148	82.9358	202.148	82.4755	202.148	82.8622	202.148	82.425	202.148	82.7825	202.148	82.4029	202.148	82.6987	202.148	82.4067	202.148	82.6163	202.148	82.4332	202.148	82.5414	202.148	82.4791
210.938	84.3974	210.938	84.3572	210.938	84.3897	210.938	84.2739	210.938	84.3328	210.938	84.1547	210.938	84.2299	210.938	84.0079	210.938	84.0891	210.938	83.8417	210.938	83.9223	210.938	83.6632	210.938	83.7447	210.938	83.4786	210.938	83.5718	210.938	83.2939	210.938	83.4164	210.938	83.1155	210.938	83.2858	210.938	82.9509	210.938	83.1803	210.938	82.8082	210.938	83.0937	210.938	82.6947	210.938	83.0173	210.938	82.6151	210.938	82.9436	210.938	82.5694	210.938	82.8695	210.938	82.5536	210.938	82.7965	210.938	82.5609	210.938	82.7288	210.938	82.585	210.938	82.67	210.938	82.6218
216.797	84.5537	216.797	84.5277	216.797	84.5298	216.797	84.4572	216.797	84.4545	216.797	84.3506	216.797	84.3316	216.797	84.2169	216.797	84.1701	216.797	84.0646	216.797	83.9843	216.797	83.9007	216.797	83.7917	216.797	83.7311	216.797	83.6106	216.797	83.5608	216.797	83.4557	216.797	83.396	216.797	83.3353	216.797	83.244	216.797	83.2491	216.797	83.1131	216.797	83.1895	216.797	83.0111	216.797	83.1461	216.797	82.9425	216.797	83.1093	216.797	82.9066	216.797	83.0742	216.797	82.8978	216.797	83.0398	216.797	82.9076	216.797	83.0075	216.797	82.9274	216.797	82.9783	216.797	82.9517
225.586	85.1542	225.586	85.1562	225.586	85.0848	225.586	85.0967	225.586	84.9472	225.586	84.9847	225.586	84.7464	225.586	84.8312	225.586	84.494	225.586	84.6476	225.586	84.2084	225.586	84.4447	225.586	83.9134	225.586	84.2328	225.586	83.6355	225.586	84.0224	225.586	83.3991	225.586	83.8247	225.586	83.2215	225.586	83.6522	225.586	83.1086	225.586	83.5165	225.586	83.0556	225.586	83.4253	225.586	83.0508	225.586	83.3793	225.586	83.0807	225.586	83.37	225.586	83.1334	225.586	83.3818	225.586	83.1991	225.586	83.3961	225.586	83.2682	225.586	83.397	225.586	83.3302	225.586	83.3753
234.375	85.6474	234.375	85.66	234.375	85.5605	234.375	85.6064	234.375	85.3967	234.375	85.4976	234.375	85.1597	234.375	85.3458	234.375	84.8617	234.375	85.1626	234.375	84.5232	234.375	84.9579	234.375	84.1724	234.375	84.7403	234.375	83.8416	234.375	84.5179	234.375	83.561	234.375	84.2999	234.375	83.3518	234.375	84.0978	234.375	83.2204	234.375	83.9244	234.375	83.1587	234.375	83.7909	234.375	83.1507	234.375	83.7023	234.375	83.1798	234.375	83.654	234.375	83.2344	234.375	83.6317	234.375	83.3066	234.375	83.6158	234.375	83.3888	234.375	83.5887	234.375	83.4707	234.375	83.5402
240.234	85.7746	240.234	85.8102	240.234	85.6628	240.234	85.7774	240.234	85.4724	240.234	85.6867	240.234	85.2076	240.234	85.5501	240.234	84.8811	240.234	85.3785	240.234	84.514	240.234	85.1819	240.234	84.1361	240.234	84.9687	240.234	83.7822	240.234	84.7479	240.234	83.4865	240.234	84.5296	240.234	83.2744	240.234	84.3266	240.234	83.1558	240.234	84.1524	240.234	83.1231	240.234	84.0184	240.234	83.1566	240.234	83.9289	240.234	83.2336	240.234	83.8783	240.234	83.3349	240.234	83.8518	240.234	83.4463	240.234	83.8303	240.234	83.5573	240.234	83.7963	240.234	83.658	240.234	83.7394
249.023	86.1429	249.023	86.1951	249.023	85.9917	249.023	86.1588	249.023	85.7371	249.023	86.0487	249.023	85.3828	249.023	85.8808	249.023	84.9423	249.023	85.6706	249.023	84.4408	249.023	85.4314	249.023	83.9154	249.023	85.1739	249.023	83.4134	249.023	84.908	249.023	82.9862	249.023	84.6451	249.023	82.6773	249.023	84.3991	249.023	82.5097	249.023	84.1866	249.023	82.4796	249.023	84.0222	249.023	82.5619	249.023	83.9132	249.023	82.7215	249.023	83.8538	249.023	82.9246	249.023	83.8252	249.023	83.1422	249.023	83.8005	249.023	83.3504	249.023	83.7534	249.023	83.5294	249.023	83.6653
257.813	86.4226	257.813	86.4964	257.813	86.252	257.813	86.4837	257.813	85.9796	257.813	86.3988	257.813	85.6082	257.813	86.2568	257.813	85.1496	257.813	86.072	257.813	84.6262	257.813	85.8562	257.813	84.0718	257.813	85.6186	257.813	83.5308	257.813	85.368	257.813	83.0536	257.813	85.1143	257.813	82.6878	257.813	84.8713	257.813	82.4668	257.813	84.6551	257.813	82.4002	257.813	84.4808	257.813	82.4734	257.813	84.3559	257.813	82.6551	257.813	84.2747	257.813	82.9069	257.813	84.2179	257.813	83.1908	257.813	84.1574	257.813	83.4722	257.813	84.0655	257.813	83.7227	257.813	83.9229
266.602	86.1251	266.602	86.1785	266.602	85.9649	266.602	86.1399	266.602	85.6895	266.602	86.0291	266.602	85.2994	266.602	85.8671	266.602	84.8053	266.602	85.6734	266.602	84.2297	266.602	85.4627	266.602	83.6088	266.602	85.2443	266.602	82.9924	266.602	85.0227	266.602	82.4406	266.602	84.8017	266.602	82.0147	266.602	84.5871	266.602	81.7612	266.602	84.3889	266.602	81.6978	266.602	84.2193	266.602	81.8083	266.602	84.0871	266.602	82.0512	266.602	83.9919	266.602	82.3744	266.602	83.9199	266.602	82.7266	266.602	83.846	266.602	83.0644	266.602	83.7415	266.602	83.3557	266.602	83.5822
278.32	86.0147	278.32	86.1719	278.32	85.7283	278.32	86.2054	278.32	85.3145	278.32	86.1263	278.32	84.784	278.32	85.9505	278.32	84.1593	278.32	85.6969	278.32	83.4761	278.32	85.3869	278.32	82.7844	278.32	85.0443	278.32	82.1457	278.32	84.6948	278.32	81.6229	278.32	84.3665	278.32	81.266	278.32	84.0871	278.32	81.0973	278.32	83.8791	278.32	81.1088	278.32	83.7517	278.32	81.2712	278.32	83.6952	278.32	81.5465	278.32	83.6811	278.32	81.8964	278.32	83.6696	278.32	82.2831	278.32	83.6206	278.32	82.669	278.32	83.5034	278.32	83.0184	278.32	83.3022
287.109	85.8526	287.109	86.0477	287.109	85.5251	287.109	86.1209	287.109	85.0593	287.109	86.086	287.109	84.4581	287.109	85.9572	287.109	83.7364	287.109	85.748	287.109	82.9263	287.109	85.4709	287.109	82.0834	287.109	85.1386	287.109	81.2899	287.109	84.7665	287.109	80.6469	287.109	84.3762	287.109	80.248	287.109	83.9975	287.109	80.1397	287.109	83.6669	287.109	80.2992	287.109	83.418	287.109	80.6524	287.109	83.2679	287.109	81.1111	287.109	83.2063	287.109	81.6006	287.109	83.1969	287.109	82.0661	287.109	83.1903	287.109	82.4705	287.109	83.1401	287.109	82.7897	287.109	83.0123
295.898	85.7241	295.898	85.8547	295.898	85.4554	295.898	85.8657	295.898	85.0359	295.898	85.7782	295.898	84.4601	295.898	85.614	295.898	83.7322	295.898	85.3917	295.898	82.8704	295.898	85.1248	295.898	81.9127	295.898	84.822	295.898	80.9275	295.898	84.4894	295.898	80.0238	295.898	84.1352	295.898	79.3459	295.898	83.7749	295.898	79.029	295.898	83.434	295.898	79.1212	295.898	83.1445	295.898	79.547	295.898	82.9343	295.898	80.1609	295.898	82.8128	295.898	80.8233	295.898	82.7613	295.898	81.4358	295.898	82.7368	295.898	81.9418	295.898	82.6856	295.898	82.3161	295.898	82.5576
307.617	85.4884	307.617	85.6187	307.617	85.2238	307.617	85.6281	307.617	84.8172	307.617	85.5346	307.617	84.268	307.617	85.3587	307.617	83.5837	307.617	85.121	307.617	82.7814	307.617	84.84	307.617	81.8911	307.617	84.5316	307.617	80.9599	307.617	84.2098	307.617	80.0593	307.617	83.8891	307.617	79.2904	307.617	83.5867	307.617	78.7749	307.617	83.3225	307.617	78.6158	307.617	83.1143	307.617	78.8367	307.617	82.9701	307.617	79.3583	307.617	82.8798	307.617	80.0424	307.617	82.8137	307.617	80.7555	307.617	82.7284	307.617	81.4026	307.617	82.5772	307.617	81.9306	307.617	82.3199
319.336	85.1519	319.336	85.3055	319.336	84.8483	319.336	85.3244	319.336	84.3857	319.336	85.2281	319.336	83.7631	319.336	85.038	319.336	82.9888	319.336	84.7744	319.336	82.0827	319.336	84.4542	319.336	81.0797	319.336	84.0909	319.336	80.0351	319.336	83.6971	319.336	79.0317	319.336	83.2887	319.336	78.1846	319.336	82.8897	319.336	77.6303	319.336	82.5329	319.336	77.4803	319.336	82.2535	319.336	77.7537	319.336	82.0736	319.336	78.3544	319.336	81.9865	319.336	79.1239	319.336	81.9532	319.336	79.9129	319.336	81.913	319.336	80.616	319.336	81.8016	319.336	81.1742	319.336	81.5665
331.055	84.9792	331.055	85.11	331.055	84.703	331.055	85.1097	331.055	84.2746	331.055	84.9987	331.055	83.6959	331.055	84.8007	331.055	82.9777	331.055	84.5392	331.055	82.1415	331.055	84.2337	331.055	81.2212	331.055	83.8982	331.055	80.2654	331.055	83.542	331.055	79.3417	331.055	83.1744	331.055	78.539	331.055	82.81	331.055	77.963	331.055	82.4719	331.055	77.7117	331.055	82.1883	331.055	77.8298	331.055	81.9807	331.055	78.2723	331.055	81.8497	331.055	78.9204	331.055	81.7665	331.055	79.6355	331.055	81.6793	331.055	80.3052	331.055	81.529	331.055	80.8586	331.055	81.2655
342.773	84.6787	342.773	84.8181	342.773	84.3799	342.773	84.8141	342.773	83.9138	342.773	84.6889	342.773	83.2821	342.773	84.4688	342.773	82.4974	342.773	84.1802	342.773	81.5863	342.773	83.8461	342.773	80.5917	342.773	83.4839	342.773	79.5775	342.773	83.1059	342.773	78.6312	342.773	82.7243	342.773	77.8646	342.773	82.3575	342.773	77.4	342.773	82.0346	342.773	77.3306	342.773	81.7907	342.773	77.6657	342.773	81.6529	342.773	78.3101	342.773	81.6201	342.773	79.1083	342.773	81.6543	342.773	79.9103	342.773	81.6896	342.773	80.6074	342.773	81.653	342.773	81.1384	342.773	81.4827
354.492	84.8007	354.492	84.8972	354.492	84.5364	354.492	84.8453	354.492	84.0927	354.492	84.6703	354.492	83.4664	354.492	84.4009	354.492	82.6635	354.492	84.0646	354.492	81.7009	354.492	83.6829	354.492	80.6093	354.492	83.2685	354.492	79.4381	354.492	82.8264	354.492	78.2641	354.492	82.3601	354.492	77.2022	354.492	81.8809	354.492	76.4094	354.492	81.4166	354.492	76.0495	354.492	81.0126	354.492	76.2005	354.492	80.7174	354.492	76.7818	354.492	80.5547	354.492	77.6002	354.492	80.4989	354.492	78.4592	354.492	80.4782	354.492	79.2201	354.492	80.4035	354.492	79.8074	354.492	80.1967
366.211	84.7556	366.211	84.8774	366.211	84.4635	366.211	84.8418	366.211	83.9964	366.211	84.6675	366.211	83.3582	366.211	84.378	366.211	82.562	366.211	83.9972	366.211	81.6294	366.211	83.5469	366.211	80.5908	366.211	83.044	366.211	79.4847	366.211	82.5017	366.211	78.3596	366.211	81.9329	366.211	77.283	366.211	81.3574	366.211	76.3581	366.211	80.8084	366.211	75.7321	366.211	80.332	366.211	75.5525	366.211	79.9725	366.211	75.8567	366.211	79.7468	366.211	76.5145	366.211	79.6249	366.211	77.3134	366.211	79.5364	366.211	78.0743	366.211	79.3959	366.211	78.6928	366.211	79.1301
377.93	84.8098	377.93	84.8997	377.93	84.5485	377.93	84.8388	377.93	84.1067	377.93	84.6572	377.93	83.4876	377.93	84.3893	377.93	82.7069	377.93	84.0658	377.93	81.7924	377.93	83.7045	377.93	80.7838	377.93	83.3052	377.93	79.7313	377.93	82.8523	377.93	78.6934	377.93	82.3243	377.93	77.7369	377.93	81.7095	377.93	76.9408	377.93	81.0228	377.93	76.4013	377.93	80.3214	377.93	76.2123	377.93	79.7064	377.93	76.4083	377.93	79.2847	377.93	76.9123	377.93	79.096	377.93	77.5611	377.93	79.0692	377.93	78.186	377.93	79.0661	377.93	78.669	377.93	78.958
392.578	84.4011	392.578	84.5353	392.578	84.0843	392.578	84.4956	392.578	83.5876	392.578	84.3025	392.578	82.9237	392.578	83.9893	392.578	82.1158	392.578	83.5993	392.578	81.1986	392.578	83.1782	392.578	80.2174	392.578	82.7608	392.578	79.2255	392.578	82.3577	392.578	78.2781	392.578	81.9513	392.578	77.4272	392.578	81.5039	392.578	76.7208	392.578	80.9756	392.578	76.2072	392.578	80.3439	392.578	75.9299	392.578	79.6208	392.578	75.9028	392.578	78.8644	392.578	76.0817	392.578	78.1733	392.578	76.3704	392.578	77.6441	392.578	76.6654	392.578	77.3052	392.578	76.9044	392.578	77.0932
407.227	84.6814	407.227	84.8075	407.227	84.3541	407.227	84.7455	407.227	83.8207	407.227	84.5178	407.227	83.0849	407.227	84.1563	407.227	82.1608	407.227	83.7015	407.227	81.0774	407.227	83.1977	407.227	79.8837	407.227	82.6838	407.227	78.6537	407.227	82.1823	407.227	77.483	407.227	81.6926	407.227	76.473	407.227	81.1929	407.227	75.7032	407.227	80.6526	407.227	75.2106	407.227	80.048	407.227	74.9889	407.227	79.3768	407.227	74.999	407.227	78.6657	407.227	75.1787	407.227	77.9686	407.227	75.456	407.227	77.3467	407.227	75.7701	407.227	76.8376	407.227	76.0919	407.227	76.4336
421.875	85.2487	421.875	85.3284	421.875	84.9957	421.875	85.245	421.875	84.565	421.875	85.0154	421.875	83.9578	421.875	84.6643	421.875	83.1822	421.875	84.2246	421.875	82.2551	421.875	83.7365	421.875	81.2044	421.875	83.2424	421.875	80.072	421.875	82.7775	421.875	78.9153	421.875	82.3597	421.875	77.8085	421.875	81.984	421.875	76.8409	421.875	81.6257	421.875	76.1096	421.875	81.2527	421.875	75.6969	421.875	80.8375	421.875	75.6332	421.875	80.3659	421.875	75.8736	421.875	79.8389	421.875	76.3206	421.875	79.2699	421.875	76.8747	421.875	78.6766	421.875	77.4692	421.875	78.0735
436.523	85.5015	436.523	85.5687	436.523	85.2749	436.523	85.4892	436.523	84.8806	436.523	85.2794	436.523	84.3163	436.523	84.9588	436.523	83.5884	436.523	84.55	436.523	82.7154	436.523	84.0778	436.523	81.7338	436.523	83.5686	436.523	80.7036	436.523	83.0488	436.523	79.7114	436.523	82.5438	436.523	78.8632	436.523	82.0765	436.523	78.2593	436.523	81.6664	436.523	77.959	436.523	81.3279	436.523	77.9577	436.523	81.0669	436.523	78.1963	436.523	80.8767	436.523	78.5893	436.523	80.7343	436.523	79.0499	436.523	80.6037	436.523	79.5051	436.523	80.4429	436.523	79.9029	436.523	80.2162
451.172	85.314	451.172	85.3852	451.172	85.1009	451.172	85.3235	451.172	84.7415	451.172	85.1423	451.172	84.2367	451.172	84.8599	451.172	83.5937	451.172	84.498	451.172	82.8279	451.172	84.0807	451.172	81.9654	451.172	83.6295	451.172	81.0455	451.172	83.1593	451.172	80.1236	451.172	82.6748	451.172	79.2748	451.172	82.1721	451.172	78.5914	451.172	81.647	451.172	78.1654	451.172	81.1064	451.172	78.0492	451.172	80.5808	451.172	78.2143	451.172	80.125	451.172	78.5555	451.172	79.7988	451.172	78.9399	451.172	79.6271	451.172	79.2605	451.172	79.572	451.172	79.4619	451.172	79.5471
465.82	85.416	465.82	85.3819	465.82	85.3125	465.82	85.2337	465.82	85.052	465.82	84.997	465.82	84.6217	465.82	84.6957	465.82	84.0178	465.82	84.3497	465.82	83.2467	465.82	83.9722	465.82	82.3292	465.82	83.5686	465.82	81.306	465.82	83.1365	465.82	80.2465	465.82	82.6685	465.82	79.2568	465.82	82.1565	465.82	78.4721	465.82	81.5999	465.82	78.0108	465.82	81.0142	465.82	77.9062	465.82	80.4393	465.82	78.0807	465.82	79.9366	465.82	78.3977	465.82	79.5681	465.82	78.7301	465.82	79.3583	465.82	78.9949	465.82	79.2727	465.82	79.1585	465.82	79.2332
483.398	85.1266	483.398	84.9567	483.398	85.1532	483.398	84.6673	483.398	85.0193	483.398	84.2909	483.398	84.7131	483.398	83.8707	483.398	84.2282	483.398	83.4593	483.398	83.5652	483.398	83.1093	483.398	82.7354	483.398	82.8532	483.398	81.7685	483.398	82.6854	483.398	80.726	483.398	82.5579	483.398	79.7178	483.398	82.3986	483.398	78.9037	483.398	82.1356	483.398	78.4402	483.398	81.7187	483.398	78.3731	483.398	81.1369	483.398	78.5893	483.398	80.4368	483.398	78.8986	483.398	79.7395	483.398	79.1408	483.398	79.2177	483.398	79.2303	483.398	78.9943	483.398	79.1653	483.398	79.0319
500.977	85.0172	500.977	84.9089	500.977	85.0026	500.977	84.6871	500.977	84.8563	500.977	84.3644	500.977	84.569	500.977	83.9606	500.977	84.131	500.977	83.5074	500.977	83.533	500.977	83.05	500.977	82.7681	500.977	82.6404	500.977	81.8368	500.977	82.3195	500.977	80.7599	500.977	82.0943	500.977	79.6077	500.977	81.9291	500.977	78.5462	500.977	81.7599	500.977	77.8456	500.977	81.5231	500.977	77.7188	500.977	81.182	500.977	78.0827	500.977	80.7445	500.977	78.63	500.977	80.2707	500.977	79.0976	500.977	79.8599	500.977	79.3735	500.977	79.6018	500.977	79.4745	500.977	79.5045
518.555	84.9652	518.555	84.8857	518.555	84.9493	518.555	84.7124	518.555	84.8393	518.555	84.4504	518.555	84.6375	518.555	84.1095	518.555	84.3439	518.555	83.7078	518.555	83.9527	518.555	83.2771	518.555	83.4506	518.555	82.8659	518.555	82.8177	518.555	82.5307	518.555	82.0345	518.555	82.3072	518.555	81.0956	518.555	82.1771	518.555	80.0404	518.555	82.0623	518.555	79.0048	518.555	81.8555	518.555	78.2493	518.555	81.4642	518.555	78.0114	518.555	80.8478	518.555	78.2248	518.555	80.0556	518.555	78.5604	518.555	79.2648	518.555	78.7425	518.555	78.7396	518.555	78.7072	518.555	78.6105
536.133	84.6116	536.133	84.4585	536.133	84.6384	536.133	84.1988	536.133	84.5292	536.133	83.8577	536.133	84.2882	536.133	83.4639	536.133	83.9372	536.133	83.0492	536.133	83.5113	536.133	82.6496	536.133	83.0461	536.133	82.3046	536.133	82.5575	536.133	82.0521	536.133	82.0284	536.133	81.9131	536.133	81.4139	536.133	81.8703	536.133	80.6697	536.133	81.8556	536.133	79.7984	536.133	81.7631	536.133	78.9063	536.133	81.482	536.133	78.2153	536.133	80.9342	536.133	77.904	536.133	80.1153	536.133	77.8853	536.133	79.1509	536.133	77.9074	536.133	78.3227	536.133	77.8596	536.133	77.9045
553.711	84.7483	553.711	84.6467	553.711	84.7552	553.711	84.4652	553.711	84.6491	553.711	84.2125	553.711	84.4128	553.711	83.8891	553.711	84.0369	553.711	83.4908	553.711	83.5291	553.711	83.0206	553.711	82.9222	553.711	82.5111	553.711	82.2725	553.711	82.0453	553.711	81.6396	553.711	81.7441	553.711	81.0501	553.711	81.6855	553.711	80.474	553.711	81.8124	553.711	79.8452	553.711	81.9459	553.711	79.1186	553.711	81.8881	553.711	78.3246	553.711	81.4939	553.711	77.5733	553.711	80.695	553.711	76.9792	553.711	79.5245	553.711	76.6021	553.711	78.1825	553.711	76.5552	553.711	77.0715
574.219	84.4508	574.219	84.1763	574.219	84.6538	574.219	83.8693	574.219	84.7486	574.219	83.5671	574.219	84.7036	574.219	83.2976	574.219	84.4965	574.219	83.0675	574.219	84.1202	574.219	82.8553	574.219	83.5895	574.219	82.6236	574.219	82.9472	574.219	82.3512	574.219	82.2596	574.219	82.0696	574.219	81.5925	574.219	81.8689	574.219	80.9676	574.219	81.8341	574.219	80.3391	574.219	81.9402	574.219	79.6243	574.219	82.0296	574.219	78.7721	574.219	81.9027	574.219	77.8273	574.219	81.4087	574.219	76.9612	574.219	80.4832	574.219	76.4763	574.219	79.184	574.219	76.7253	574.219	77.7682
594.727	81.7208	594.727	81.5422	594.727	82.0218	594.727	81.4277	594.727	82.4507	594.727	81.3309	594.727	82.9239	594.727	81.2465	594.727	83.3118	594.727	81.2	594.727	83.5128	594.727	81.222	594.727	83.4914	594.727	81.3231	594.727	83.2785	594.727	81.4925	594.727	82.949	594.727	81.7261	594.727	82.5856	594.727	82.051	594.727	82.2401	594.727	82.5041	594.727	81.9226	594.727	83.0639	594.727	81.6251	594.727	83.6157	594.727	81.3533	594.727	84.0004	594.727	81.1439	594.727	84.0895	594.727	81.0741	594.727	83.8277	594.727	81.2535	594.727	83.2489	594.727	81.75	594.727	82.4849
615.234	82.3254	615.234	82.3923	615.234	81.9636	615.234	82.1695	615.234	81.3681	615.234	81.708	615.234	80.6923	615.234	81.0875	615.234	80.1676	615.234	80.399	615.234	79.9846	615.234	79.728	615.234	80.1418	615.234	79.1624	615.234	80.4765	615.234	78.8295	615.234	80.8315	615.234	78.898	615.234	81.141	615.234	79.4684	615.234	81.417	615.234	80.4503	615.234	81.7021	615.234	81.6171	615.234	82.0297	615.234	82.7482	615.234	82.4081	615.234	83.6919	615.234	82.8293	615.234	84.3616	615.234	83.2825	615.234	84.7213	615.234	83.7541	615.234	84.7785	615.234	84.2097	615.234	84.5811
638.672	84.8737	638.672	84.7582	638.672	84.7091	638.672	84.3717	638.672	84.2757	638.672	83.7429	638.672	83.6065	638.672	82.9213	638.672	82.7589	638.672	81.9765	638.672	81.8217	638.672	80.9853	638.672	80.9293	638.672	80.0109	638.672	80.2663	638.672	79.1091	638.672	80.0037	638.672	78.3991	638.672	80.1645	638.672	78.1245	638.672	80.5894	638.672	78.4863	638.672	81.0795	638.672	79.3538	638.672	81.5306	638.672	80.3752	638.672	81.949	638.672	81.2896	638.672	82.374	638.672	82.0031	638.672	82.7823	638.672	82.5242	638.672	83.0833	638.672	82.8921	638.672	83.2004	638.672	83.125
659.18	85.3147	659.18	85.2419	659.18	85.1804	659.18	84.9683	659.18	84.8469	659.18	84.5102	659.18	84.33	659.18	83.889	659.18	83.6434	659.18	83.1297	659.18	82.7999	659.18	82.2603	659.18	81.8373	659.18	81.3039	659.18	80.8566	659.18	80.2719	659.18	80.0334	659.18	79.1983	659.18	79.5602	659.18	78.2547	659.18	79.5365	659.18	77.8351	659.18	79.9068	659.18	78.2261	659.18	80.5083	659.18	79.1462	659.18	81.1685	659.18	80.101	659.18	81.7585	659.18	80.8459	659.18	82.1874	659.18	81.3785	659.18	82.3918	659.18	81.7879	659.18	82.3552	659.18	82.1263
682.617	85.5983	682.617	85.5438	682.617	85.4015	682.617	85.2478	682.617	84.9706	682.617	84.7382	682.617	84.351	682.617	84.0535	682.617	83.6029	682.617	83.2388	682.617	82.7766	682.617	82.3436	682.617	81.905	682.617	81.416	682.617	81.0277	682.617	80.4877	682.617	80.2153	682.617	79.566	682.617	79.5594	682.617	78.6899	682.617	79.1457	682.617	78.0526	682.617	79.0467	682.617	77.9835	682.617	79.2996	682.617	78.5626	682.617	79.8561	682.617	79.4522	682.617	80.5751	682.617	80.3047	682.617	81.2695	682.617	80.9913	682.617	81.7659	682.617	81.5108	682.617	81.9622	682.617	81.8551
706.055	85.9594	706.055	85.7652	706.055	85.9004	706.055	85.3378	706.055	85.5832	706.055	84.7148	706.055	85.0159	706.055	83.9533	706.055	84.2191	706.055	83.1198	706.055	83.2401	706.055	82.2626	706.055	82.182	706.055	81.3849	706.055	81.2055	706.055	80.4629	706.055	80.4436	706.055	79.5143	706.055	79.9127	706.055	78.6602	706.055	79.5852	706.055	78.1163	706.055	79.5044	706.055	78.0777	706.055	79.7262	706.055	78.5364	706.055	80.2047	706.055	79.2242	706.055	80.8074	706.055	79.838	706.055	81.3612	706.055	80.2947	706.055	81.6724	706.055	80.7294	706.055	81.611	706.055	81.2234
732.422	85.7835	732.422	85.5464	732.422	85.8267	732.422	85.1144	732.422	85.6894	732.422	84.5123	732.422	85.3736	732.422	83.7961	732.422	84.8528	732.422	83.0426	732.422	84.0918	732.422	82.3085	732.422	83.1102	732.422	81.5783	732.422	82.0464	732.422	80.7609	732.422	81.1194	732.422	79.768	732.422	80.4304	732.422	78.6646	732.422	79.8748	732.422	77.8476	732.422	79.397	732.422	77.8699	732.422	79.2132	732.422	78.6339	732.422	79.5512	732.422	79.4409	732.422	80.2143	732.422	79.8137	732.422	80.7605	732.422	79.7327	732.422	80.8788	732.422	79.6048	732.422	80.5058	732.422	79.908
758.789	86.102	758.789	85.8774	758.789	86.0772	758.789	85.3786	758.789	85.8245	758.789	84.6024	758.789	85.3533	758.789	83.6008	758.789	84.6557	758.789	82.4961	758.789	83.7089	758.789	81.4481	758.789	82.5183	758.789	80.5672	758.789	81.2162	758.789	79.8216	758.789	80.1196	758.789	79.0453	758.789	79.5023	758.789	78.0772	758.789	79.2435	758.789	76.9848	758.789	79.0092	758.789	76.3044	758.789	78.6768	758.789	76.6977	758.789	78.4817	758.789	77.8691	758.789	78.7612	758.789	78.9986	758.789	79.4019	758.789	79.6914	758.789	79.9398	758.789	79.983	758.789	80.136	758.789	80.0986
785.156	85.7233	785.156	85.4418	785.156	85.8361	785.156	84.9556	785.156	85.8106	785.156	84.2528	785.156	85.6387	785.156	83.3658	785.156	85.2569	785.156	82.3767	785.156	84.5746	785.156	81.4036	785.156	83.5376	785.156	80.5636	785.156	82.197	785.156	79.9014	785.156	80.7597	785.156	79.3201	785.156	79.5327	785.156	78.6394	785.156	78.7177	785.156	77.8079	785.156	78.3315	785.156	77.1564	785.156	78.3119	785.156	77.2529	785.156	78.5254	785.156	77.9681	785.156	78.8591	785.156	78.5372	785.156	79.2631	785.156	78.6046	785.156	79.5252	785.156	78.5205	785.156	79.3544	785.156	78.8353
811.523	86.0919	811.523	85.8229	811.523	86.0545	811.523	85.2147	811.523	85.7774	811.523	84.2898	811.523	85.3489	811.523	83.1574	811.523	84.8259	811.523	81.9956	811.523	84.1713	811.523	80.9509	811.523	83.3006	811.523	80.0379	811.523	82.2158	811.523	79.1632	811.523	81.0819	811.523	78.2853	811.523	80.1133	811.523	77.5342	811.523	79.3119	811.523	77.0077	811.523	78.4767	811.523	76.5402	811.523	77.6414	811.523	76.2637	811.523	77.3977	811.523	76.9322	811.523	78.0731	811.523	78.254	811.523	78.9268	811.523	79.0879	811.523	79.2725	811.523	79.1421	811.523	79.1106	811.523	78.9673
840.82	85.9588	840.82	85.4908	840.82	86.047	840.82	84.6777	840.82	85.8085	840.82	83.6646	840.82	85.3473	840.82	82.6712	840.82	84.7441	840.82	81.8461	840.82	83.979	840.82	81.1648	840.82	82.9702	840.82	80.5301	840.82	81.7293	840.82	79.877	840.82	80.4734	840.82	79.1219	840.82	79.5356	840.82	78.1661	840.82	79.0701	840.82	77.1673	840.82	78.8724	840.82	76.6521	840.82	78.552	840.82	76.7262	840.82	77.9509	840.82	76.8396	840.82	77.5392	840.82	76.7494	840.82	77.8338	840.82	76.6929	840.82	78.2672	840.82	76.9581	840.82	78.1629	840.82	77.5685
870.117	86.2192	870.117	85.6639	870.117	86.3555	870.117	84.8539	870.117	86.0587	870.117	84.0323	870.117	85.4735	870.117	83.3665	870.117	84.8155	870.117	82.8538	870.117	84.1508	870.117	82.4152	870.117	83.3333	870.117	81.9689	870.117	82.264	870.117	81.3669	870.117	81.0967	870.117	80.383	870.117	80.084	870.117	78.8186	870.117	79.2543	870.117	76.6667	870.117	78.5115	870.117	74.673	870.117	77.9649	870.117	74.7344	870.117	77.8352	870.117	76.3572	870.117	78.1207	870.117	77.4986	870.117	78.5396	870.117	77.6579	870.117	78.6959	870.117	77.3848	870.117	78.3209	870.117	77.6279
902.344	86.1959	902.344	85.3649	902.344	86.5314	902.344	84.2372	902.344	86.3385	902.344	83.1323	902.344	85.7243	902.344	82.297	902.344	84.877	902.344	81.7613	902.344	83.9364	902.344	81.441	902.344	82.8989	902.344	81.2082	902.344	81.7529	902.344	80.9033	902.344	80.7195	902.344	80.378	902.344	80.106	902.344	79.4625	902.344	79.7903	902.344	78.0298	902.344	79.3511	902.344	76.3885	902.344	78.5793	902.344	75.6281	902.344	77.7094	902.344	76.1611	902.344	77.5471	902.344	76.8781	902.344	78.31	902.344	77.008	902.344	78.8123	902.344	76.751	902.344	78.2805	902.344	77.1651
931.641	86.2421	931.641	85.2492	931.641	86.7477	931.641	84.2255	931.641	86.5876	931.641	83.551	931.641	85.8632	931.641	83.0685	931.641	84.8824	931.641	82.4127	931.641	83.9266	931.641	81.534	931.641	82.9379	931.641	80.7268	931.641	81.6725	931.641	80.282	931.641	80.2367	931.641	80.1411	931.641	79.3429	931.641	79.9352	931.641	79.3392	931.641	79.1708	931.641	79.4829	931.641	77.4009	931.641	79.1592	931.641	74.9962	931.641	78.3822	931.641	75.0509	931.641	77.6922	931.641	77.1998	931.641	77.6517	931.641	78.1793	931.641	77.7105	931.641	77.5681	931.641	77.0645	931.641	76.6212
966.797	85.7335	966.797	85.0035	966.797	86.2325	966.797	84.3437	966.797	86.2204	966.797	83.8258	966.797	85.6197	966.797	83.3362	966.797	84.5811	966.797	82.7832	966.797	83.3921	966.797	82.131	966.797	82.2225	966.797	81.3601	966.797	81.0191	966.797	80.5365	966.797	79.8548	966.797	79.8277	966.797	79.1477	966.797	79.2716	966.797	79.0064	966.797	78.6593	966.797	78.8665	966.797	77.7111	966.797	78.2075	966.797	76.2316	966.797	76.924	966.797	74.6166	966.797	75.7417	966.797	74.4794	966.797	75.9524	966.797	75.5655	966.797	76.6326	966.797	76.035	966.797	76.4819	966.797	76.0459
999.023	85.3315	999.023	84.3788	999.023	86.13	999.023	83.8309	999.023	86.3517	999.023	83.7324	999.023	85.8935	999.023	83.5838	999.023	84.9231	999.023	83.0682	999.023	83.7608	999.023	82.2986	999.023	82.5811	999.023	81.5569	999.023	81.3114	999.023	80.907	999.023	80.0659	999.023	80.187	999.023	79.3218	999.023	79.2583	999.023	79.1803	999.023	78.0707	999.023	79.1935	999.023	76.7265	999.023	78.9745	999.023	75.6792	999.023	78.2856	999.023	75.2957	999.023	77.3292	999.023	75.2477	999.023	76.9261	999.023	75.2463	999.023	76.902	999.023	75.236	999.023	76.3304	999.023	75.512
1,034.18	84.7989	1,034.18	84.2456	1,034.18	85.6168	1,034.18	84.1459	1,034.18	86.0606	1,034.18	83.9424	1,034.18	85.7836	1,034.18	83.1778	1,034.18	84.8068	1,034.18	81.8942	1,034.18	83.3946	1,034.18	80.4726	1,034.18	81.8133	1,034.18	79.2793	1,034.18	80.0401	1,034.18	78.5351	1,034.18	78.0765	1,034.18	78.4483	1,034.18	77.041	1,034.18	78.9152	1,034.18	77.9146	1,034.18	79.3432	1,034.18	78.9363	1,034.18	79.0752	1,034.18	78.8268	1,034.18	77.7295	1,034.18	77.5536	1,034.18	75.8924	1,034.18	75.9526	1,034.18	75.58	1,034.18	75.4704	1,034.18	75.9781	1,034.18	75.8474	1,034.18	75.2453	1,034.18	75.5098	1,034.18	74.6696
1,072.27	84.0054	1,072.27	83.7047	1,072.27	84.9298	1,072.27	83.9077	1,072.27	85.775	1,072.27	83.9091	1,072.27	85.9014	1,072.27	83.2626	1,072.27	85.1263	1,072.27	81.9133	1,072.27	83.7276	1,072.27	80.075	1,072.27	82.1879	1,072.27	78.2258	1,072.27	80.5546	1,072.27	77.0884	1,072.27	78.6913	1,072.27	76.8881	1,072.27	77.555	1,072.27	77.1503	1,072.27	77.7668	1,072.27	77.5474	1,072.27	78.213	1,072.27	77.8494	1,072.27	78.5512	1,072.27	77.6711	1,072.27	78.5332	1,072.27	76.9011	1,072.27	77.7004	1,072.27	76.1841	1,072.27	76.5724	1,072.27	75.7329	1,072.27	75.9717	1,072.27	74.5608	1,072.27	74.8947	1,072.27	73.6448
1,110.35	83.6763	1,110.35	83.6058	1,110.35	84.3577	1,110.35	83.8419	1,110.35	85.1369	1,110.35	83.8097	1,110.35	85.4656	1,110.35	83.3145	1,110.35	85.1574	1,110.35	82.4086	1,110.35	84.2279	1,110.35	81.182	1,110.35	82.7865	1,110.35	79.7857	1,110.35	80.8978	1,110.35	78.4133	1,110.35	78.461	1,110.35	77.162	1,110.35	75.9489	1,110.35	76.1779	1,110.35	75.3985	1,110.35	75.6222	1,110.35	76.367	1,110.35	75.4957	1,110.35	76.8315	1,110.35	75.6792	1,110.35	76.2935	1,110.35	75.7816	1,110.35	75.2912	1,110.35	75.6471	1,110.35	75.3703	1,110.35	75.2545	1,110.35	75.464	1,110.35	73.7695	1,110.35	73.6637	1,110.35	71.8755
1,148.44	83.5716	1,148.44	83.6483	1,148.44	84.0202	1,148.44	83.8466	1,148.44	84.7472	1,148.44	83.9619	1,148.44	85.0504	1,148.44	83.8634	1,148.44	84.7203	1,148.44	83.2849	1,148.44	83.9694	1,148.44	82.0606	1,148.44	82.9465	1,148.44	80.2952	1,148.44	81.4329	1,148.44	78.3699	1,148.44	78.9663	1,148.44	76.8634	1,148.44	75.5219	1,148.44	76.0086	1,148.44	73.788	1,148.44	75.3162	1,148.44	75.3355	1,148.44	74.9017	1,148.44	76.8123	1,148.44	75.7343	1,148.44	77.0956	1,148.44	76.5925	1,148.44	76.1041	1,148.44	76.1996	1,148.44	74.9716	1,148.44	75.1066	1,148.44	74.1565	1,148.44	73.3375	1,148.44	71.4872	1,148.44	70.192
1,189.45	83.6582	1,189.45	83.8233	1,189.45	83.9667	1,189.45	84.0122	1,189.45	84.5512	1,189.45	83.9072	1,189.45	84.7801	1,189.45	83.4444	1,189.45	84.3854	1,189.45	82.5996	1,189.45	83.4626	1,189.45	81.4266	1,189.45	82.1687	1,189.45	80.1735	1,189.45	80.5427	1,189.45	79.1626	1,189.45	78.4991	1,189.45	78.4806	1,189.45	76.136	1,189.45	77.9335	1,189.45	74.6555	1,189.45	77.2374	1,189.45	75.1921	1,189.45	75.9608	1,189.45	76.0681	1,189.45	74.0001	1,189.45	75.5684	1,189.45	73.6464	1,189.45	73.3871	1,189.45	75.208	1,189.45	72.5863	1,189.45	75.3092	1,189.45	72.9808	1,189.45	72.9146	1,189.45	70.8648	1,189.45	69.1969
1,230.47	83.8897	1,230.47	84.3026	1,230.47	83.8112	1,230.47	84.5558	1,230.47	84.2686	1,230.47	84.4074	1,230.47	84.5527	1,230.47	83.7842	1,230.47	84.0706	1,230.47	82.7291	1,230.47	82.9831	1,230.47	81.4222	1,230.47	81.8796	1,230.47	80.1711	1,230.47	80.7362	1,230.47	79.1195	1,230.47	78.6517	1,230.47	78.0484	1,230.47	75.0126	1,230.47	77.2413	1,230.47	72.2054	1,230.47	77.4632	1,230.47	73.8626	1,230.47	77.703	1,230.47	75.2201	1,230.47	76.5213	1,230.47	74.9013	1,230.47	74.6907	1,230.47	72.9017	1,230.47	75.6179	1,230.47	70.1747	1,230.47	76.7659	1,230.47	69.9144	1,230.47	75.2222	1,230.47	67.5422	1,230.47	69.8326
1,274.41	84.0033	1,274.41	84.6828	1,274.41	83.6507	1,274.41	85.0875	1,274.41	83.9442	1,274.41	84.9085	1,274.41	84.2205	1,274.41	84.1473	1,274.41	83.6381	1,274.41	82.9725	1,274.41	82.1647	1,274.41	81.5645	1,274.41	80.8487	1,274.41	80.0933	1,274.41	80.2037	1,274.41	78.7209	1,274.41	78.8702	1,274.41	77.3202	1,274.41	76.103	1,274.41	75.6771	1,274.41	73.8089	1,274.41	75.3266	1,274.41	74.6056	1,274.41	76.7996	1,274.41	76.4926	1,274.41	77.0241	1,274.41	77.4892	1,274.41	75.1913	1,274.41	76.0456	1,274.41	75.1467	1,274.41	71.4135	1,274.41	76.961	1,274.41	68.0405	1,274.41	76.2922	1,274.41	66.209	1,274.41	71.7623
1,318.36	84.1636	1,318.36	84.8231	1,318.36	83.6592	1,318.36	85.1564	1,318.36	83.6084	1,318.36	84.8477	1,318.36	83.811	1,318.36	83.9239	1,318.36	83.6694	1,318.36	82.553	1,318.36	82.6822	1,318.36	80.7829	1,318.36	80.8726	1,318.36	78.9547	1,318.36	78.9886	1,318.36	78.0743	1,318.36	77.3179	1,318.36	77.9046	1,318.36	74.5534	1,318.36	76.9312	1,318.36	70.3978	1,318.36	74.8244	1,318.36	72.1467	1,318.36	74.6677	1,318.36	75.6278	1,318.36	76.1884	1,318.36	76.4426	1,318.36	75.316	1,318.36	75.1258	1,318.36	73.5184	1,318.36	72.6954	1,318.36	76.1087	1,318.36	69.5615	1,318.36	77.0877	1,318.36	65.9955	1,318.36	73.5143
1,365.23	82.8592	1,365.23	83.621	1,365.23	82.4804	1,365.23	84.2312	1,365.23	82.6766	1,365.23	84.1563	1,365.23	83.195	1,365.23	83.3747	1,365.23	83.1479	1,365.23	82.1298	1,365.23	81.801	1,365.23	80.3058	1,365.23	79.2687	1,365.23	77.4966	1,365.23	77.5942	1,365.23	74.5443	1,365.23	77.3683	1,365.23	74.2637	1,365.23	76.0821	1,365.23	74.3459	1,365.23	73.0084	1,365.23	72.3757	1,365.23	70.3872	1,365.23	71.9875	1,365.23	73.3488	1,365.23	75.3227	1,365.23	75.8245	1,365.23	75.9178	1,365.23	75.3689	1,365.23	74.0738	1,365.23	71.5932	1,365.23	75.3378	1,365.23	65.5621	1,365.23	76.6738	1,365.23	65.5184	1,365.23	73.8009
1,415.04	82.7472	1,415.04	83.3863	1,415.04	82.0601	1,415.04	83.6769	1,415.04	81.9015	1,415.04	83.5173	1,415.04	82.2394	1,415.04	82.8861	1,415.04	82.2328	1,415.04	81.7876	1,415.04	81.2208	1,415.04	80.0584	1,415.04	79.0746	1,415.04	77.4037	1,415.04	76.9027	1,415.04	73.7143	1,415.04	76.1788	1,415.04	70.3385	1,415.04	75.3641	1,415.04	70.3875	1,415.04	73.2472	1,415.04	70.0133	1,415.04	70.4868	1,415.04	67.4945	1,415.04	71.9496	1,415.04	71.9745	1,415.04	75.1944	1,415.04	74.1821	1,415.04	74.3786	1,415.04	72.4843	1,415.04	70.0179	1,415.04	72.7253	1,415.04	67.7419	1,415.04	75.1948	1,415.04	69.4622	1,415.04	74.3331
1,464.84	83.9895	1,464.84	84.5826	1,464.84	83.3172	1,464.84	84.7312	1,464.84	82.9776	1,464.84	84.4292	1,464.84	82.9294	1,464.84	83.5951	1,464.84	83.113	1,464.84	82.1543	1,464.84	82.8824	1,464.84	80.2608	1,464.84	81.1587	1,464.84	78.2738	1,464.84	77.6117	1,464.84	76.4018	1,464.84	75.2882	1,464.84	74.3966	1,464.84	76.0022	1,464.84	72.9718	1,464.84	75.0456	1,464.84	72.111	1,464.84	73.4388	1,464.84	66.5503	1,464.84	75.1442	1,464.84	67.7576	1,464.84	75.6803	1,464.84	73.8402	1,464.84	72.7647	1,464.84	73.7587	1,464.84	68.8169	1,464.84	71.9631	1,464.84	66.4129	1,464.84	73.503	1,464.84	67.6517	1,464.84	72.5334
1,514.65	86.0871	1,514.65	86.6507	1,514.65	85.0163	1,514.65	86.2953	1,514.65	84.1845	1,514.65	85.1753	1,514.65	83.9164	1,514.65	83.6218	1,514.65	84.0402	1,514.65	81.8339	1,514.65	84.0613	1,514.65	79.9764	1,514.65	83.0736	1,514.65	78.5096	1,514.65	80.213	1,514.65	77.4131	1,514.65	76.1211	1,514.65	75.7741	1,514.65	75.0443	1,514.65	75.3137	1,514.65	74.008	1,514.65	76.4502	1,514.65	72.8806	1,514.65	74.384	1,514.65	75.7269	1,514.65	61.1399	1,514.65	77.3597	1,514.65	70.5447	1,514.65	76.1295	1,514.65	74.1442	1,514.65	70.1573	1,514.65	73.8098	1,514.65	61.9867	1,514.65	75.1175	1,514.65	68.1402	1,514.65	74.5464
1,570.31	86.558	1,570.31	87.1713	1,570.31	85.501	1,570.31	86.7272	1,570.31	84.5941	1,570.31	85.3212	1,570.31	84.0954	1,570.31	83.5008	1,570.31	83.7964	1,570.31	81.6132	1,570.31	83.3087	1,570.31	79.859	1,570.31	82.6795	1,570.31	78.3528	1,570.31	81.2515	1,570.31	77.0899	1,570.31	77.7221	1,570.31	75.2006	1,570.31	73.674	1,570.31	71.6863	1,570.31	74.1703	1,570.31	74.4393	1,570.31	73.6077	1,570.31	76.8632	1,570.31	74.5318	1,570.31	73.6107	1,570.31	77.8714	1,570.31	66.6452	1,570.31	76.609	1,570.31	73.0261	1,570.31	70.2605	1,570.31	74.5546	1,570.31	64.2247	1,570.31	74.9302	1,570.31	69.2702	1,570.31	73.6735
1,623.05	85.7462	1,623.05	86.6513	1,623.05	84.7375	1,623.05	86.4646	1,623.05	84.4409	1,623.05	85.235	1,623.05	83.9526	1,623.05	83.0698	1,623.05	82.9198	1,623.05	80.5103	1,623.05	81.9831	1,623.05	79.2447	1,623.05	81.2432	1,623.05	78.3522	1,623.05	80.1773	1,623.05	76.2688	1,623.05	78.3786	1,623.05	75.9897	1,623.05	76.0756	1,623.05	75.281	1,623.05	74.5399	1,623.05	70.1217	1,623.05	73.6884	1,623.05	72.9243	1,623.05	74.2431	1,623.05	73.774	1,623.05	75.6325	1,623.05	67.8888	1,623.05	73.1092	1,623.05	69.6004	1,623.05	65.0112	1,623.05	72.5673	1,623.05	61.9199	1,623.05	73.1773	1,623.05	66.8483	1,623.05	71.5812
1,681.64	85.2773	1,681.64	85.9821	1,681.64	84.4123	1,681.64	86.0357	1,681.64	84.2252	1,681.64	85.0225	1,681.64	84.1589	1,681.64	82.8182	1,681.64	83.3726	1,681.64	80.6621	1,681.64	82.0844	1,681.64	79.5701	1,681.64	80.6729	1,681.64	78.6029	1,681.64	79.2861	1,681.64	75.6249	1,681.64	77.3732	1,681.64	71.7514	1,681.64	74.2449	1,681.64	73.3117	1,681.64	72.2552	1,681.64	72.4788	1,681.64	72.5867	1,681.64	68.9315	1,681.64	73.9715	1,681.64	72.6815	1,681.64	75.4065	1,681.64	72.3999	1,681.64	72.8341	1,681.64	70.2547	1,681.64	67.534	1,681.64	71.8617	1,681.64	61.4397	1,681.64	74.225	1,681.64	63.7861	1,681.64	72.1407
1,740.23	85.5441	1,740.23	86.2582	1,740.23	84.1273	1,740.23	85.7679	1,740.23	83.5818	1,740.23	84.2583	1,740.23	83.5992	1,740.23	82.4123	1,740.23	83.2321	1,740.23	80.9318	1,740.23	82.1589	1,740.23	79.5217	1,740.23	80.364	1,740.23	78.0876	1,740.23	78.574	1,740.23	75.8125	1,740.23	77.1847	1,740.23	71.9103	1,740.23	75.9238	1,740.23	72.8793	1,740.23	75.4704	1,740.23	76.0064	1,740.23	73.3846	1,740.23	73.4917	1,740.23	68.9219	1,740.23	68.6777	1,740.23	73.6506	1,740.23	71.9529	1,740.23	74.4834	1,740.23	71.8972	1,740.23	71.5255	1,740.23	69.9101	1,740.23	62.9754	1,740.23	73.8543	1,740.23	64.9471	1,740.23	73.609
1,801.76	86.1289	1,801.76	86.071	1,801.76	84.554	1,801.76	85.1224	1,801.76	83.129	1,801.76	83.5717	1,801.76	83.7098	1,801.76	81.688	1,801.76	83.4493	1,801.76	80.75	1,801.76	81.913	1,801.76	79.4409	1,801.76	80.4028	1,801.76	76.7878	1,801.76	78.5196	1,801.76	75.4303	1,801.76	77.1385	1,801.76	75.0605	1,801.76	76.9506	1,801.76	73.5893	1,801.76	74.885	1,801.76	76.0312	1,801.76	72.6865	1,801.76	75.7605	1,801.76	68.7503	1,801.76	68.811	1,801.76	68.3498	1,801.76	64.6943	1,801.76	72.7626	1,801.76	71.1867	1,801.76	68.3266	1,801.76	71.3402	1,801.76	51.2762	1,801.76	71.8283	1,801.76	64.4263	1,801.76	72.5608
1,866.21	85.7464	1,866.21	85.896	1,866.21	84.747	1,866.21	84.9738	1,866.21	83.4428	1,866.21	82.8894	1,866.21	83.6059	1,866.21	81.3632	1,866.21	83.959	1,866.21	80.4388	1,866.21	82.6897	1,866.21	79.7645	1,866.21	80.3043	1,866.21	79.5101	1,866.21	77.7997	1,866.21	78.5513	1,866.21	76.2773	1,866.21	76.451	1,866.21	74.8584	1,866.21	72.499	1,866.21	73.509	1,866.21	74.7037	1,866.21	73.8618	1,866.21	76.727	1,866.21	72.2893	1,866.21	73.7613	1,866.21	70.0168	1,866.21	67.6088	1,866.21	70.0744	1,866.21	69.1966	1,866.21	67.1056	1,866.21	71.0071	1,866.21	63.1918	1,866.21	71.6467	1,866.21	68.6837	1,866.21	72.3155
1,930.66	85.3492	1,930.66	85.8	1,930.66	84.0822	1,930.66	84.6799	1,930.66	82.8607	1,930.66	83.3324	1,930.66	82.594	1,930.66	82.8366	1,930.66	83.1009	1,930.66	81.2555	1,930.66	82.7371	1,930.66	79.3067	1,930.66	81.1509	1,930.66	77.88	1,930.66	78.6024	1,930.66	76.431	1,930.66	74.9887	1,930.66	75.74	1,930.66	74.1372	1,930.66	74.4128	1,930.66	74.5636	1,930.66	68.5336	1,930.66	72.7724	1,930.66	69.3715	1,930.66	70.3432	1,930.66	71.706	1,930.66	71.7402	1,930.66	69.6308	1,930.66	73.298	1,930.66	71.3573	1,930.66	69.4451	1,930.66	70.2072	1,930.66	64.6827	1,930.66	70.8095	1,930.66	67.626	1,930.66	71.2208
2,000.98	85.9088	2,000.98	85.2445	2,000.98	84.7455	2,000.98	83.639	2,000.98	82.8162	2,000.98	83.2742	2,000.98	81.8719	2,000.98	82.8784	2,000.98	82.315	2,000.98	81.3118	2,000.98	82.3267	2,000.98	79.7868	2,000.98	80.8411	2,000.98	78.2379	2,000.98	78.4984	2,000.98	75.4537	2,000.98	76.328	2,000.98	72.987	2,000.98	74.6092	2,000.98	73.4338	2,000.98	73.2381	2,000.98	71.7146	2,000.98	72.8146	2,000.98	66.7635	2,000.98	71.0433	2,000.98	71.4907	2,000.98	68.7326	2,000.98	72.4206	2,000.98	73.8342	2,000.98	69.6827	2,000.98	68.5696	2,000.98	71.9834	2,000.98	42.173	2,000.98	71.1858	2,000.98	64.677	2,000.98	71.5317
2,071.29	86.3144	2,071.29	85.0177	2,071.29	85.5122	2,071.29	83.5363	2,071.29	83.0963	2,071.29	83.5256	2,071.29	81.5041	2,071.29	83.2925	2,071.29	82.1404	2,071.29	82.5054	2,071.29	82.4519	2,071.29	80.4567	2,071.29	80.958	2,071.29	77.218	2,071.29	77.6653	2,071.29	75.6129	2,071.29	74.7162	2,071.29	72.9771	2,071.29	74.7576	2,071.29	70.4191	2,071.29	73.9746	2,071.29	75.1485	2,071.29	71.9512	2,071.29	73.6382	2,071.29	72.4011	2,071.29	68.7085	2,071.29	67.3278	2,071.29	69.5153	2,071.29	69.5814	2,071.29	70.0412	2,071.29	65.7783	2,071.29	71.1272	2,071.29	58.0344	2,071.29	70.6725	2,071.29	68.4637	2,071.29	72.5427
2,144.53	84.9286	2,144.53	84.4806	2,144.53	84.5264	2,144.53	83.7648	2,144.53	83.1151	2,144.53	82.6207	2,144.53	81.5025	2,144.53	82.2771	2,144.53	80.7749	2,144.53	81.9418	2,144.53	80.7521	2,144.53	79.3773	2,144.53	80.5278	2,144.53	75.9219	2,144.53	79.0905	2,144.53	76.3226	2,144.53	76.1929	2,144.53	76.9571	2,144.53	71.3627	2,144.53	73.5095	2,144.53	71.4594	2,144.53	72.5058	2,144.53	73.131	2,144.53	74.0146	2,144.53	71.6331	2,144.53	71.8983	2,144.53	70.285	2,144.53	69.3679	2,144.53	63.7664	2,144.53	68.052	2,144.53	58.3408	2,144.53	69.8958	2,144.53	60.4796	2,144.53	70.163	2,144.53	68.1863	2,144.53	71.8203
2,217.77	84.1586	2,217.77	83.8602	2,217.77	84.2617	2,217.77	84.2024	2,217.77	83.2896	2,217.77	84.6	2,217.77	81.1986	2,217.77	83.7613	2,217.77	80.6143	2,217.77	81.0189	2,217.77	81.2994	2,217.77	78.1334	2,217.77	80.1205	2,217.77	77.2615	2,217.77	78.2182	2,217.77	74.6729	2,217.77	76.9616	2,217.77	74.1966	2,217.77	73.5045	2,217.77	71.7057	2,217.77	69.2234	2,217.77	66.9741	2,217.77	72.0231	2,217.77	72.361	2,217.77	72.4208	2,217.77	70.7648	2,217.77	69.1818	2,217.77	70.1823	2,217.77	69.1728	2,217.77	69.6152	2,217.77	60.4748	2,217.77	69.518	2,217.77	62.4288	2,217.77	67.5329	2,217.77	60.9586	2,217.77	68.0849
2,296.88	84.6408	2,296.88	83.8925	2,296.88	84.3389	2,296.88	83.572	2,296.88	82.8786	2,296.88	83.568	2,296.88	81.6618	2,296.88	82.9424	2,296.88	81.0763	2,296.88	80.8649	2,296.88	80.8539	2,296.88	79.3405	2,296.88	80.4505	2,296.88	78.8794	2,296.88	79.0563	2,296.88	76.3289	2,296.88	77.2167	2,296.88	71.0658	2,296.88	76.1065	2,296.88	70.8763	2,296.88	73.2052	2,296.88	68.4514	2,296.88	68.4592	2,296.88	65.6698	2,296.88	69.9712	2,296.88	69.9527	2,296.88	69.9171	2,296.88	69.0486	2,296.88	69.9495	2,296.88	67.3603	2,296.88	64.8254	2,296.88	69.3842	2,296.88	63.0792	2,296.88	68.8835	2,296.88	61.4318	2,296.88	65.5938
2,378.91	84.9631	2,378.91	84.2117	2,378.91	85.5704	2,378.91	84.988	2,378.91	84.3522	2,378.91	84.8788	2,378.91	82.0756	2,378.91	82.9402	2,378.91	81.7205	2,378.91	82.2417	2,378.91	81.4338	2,378.91	82.212	2,378.91	79.9015	2,378.91	78.5225	2,378.91	78.131	2,378.91	74.6938	2,378.91	77.0504	2,378.91	74.2074	2,378.91	77.1385	2,378.91	72.6325	2,378.91	75.3661	2,378.91	71.9652	2,378.91	72.2255	2,378.91	67.5415	2,378.91	73.1626	2,378.91	68.5634	2,378.91	71.7741	2,378.91	68.2808	2,378.91	69.0911	2,378.91	71.7396	2,378.91	62.9646	2,378.91	70.224	2,378.91	59.3182	2,378.91	69.2561	2,378.91	58.1	2,378.91	66.3599
2,460.94	83.6024	2,460.94	84.1012	2,460.94	85.2769	2,460.94	85.4094	2,460.94	84.825	2,460.94	84.2139	2,460.94	82.1267	2,460.94	83.0725	2,460.94	81.4183	2,460.94	81.9394	2,460.94	81.9804	2,460.94	78.8948	2,460.94	80.998	2,460.94	76.6404	2,460.94	78.9512	2,460.94	75.615	2,460.94	74.9818	2,460.94	73.3065	2,460.94	72.6027	2,460.94	71.0947	2,460.94	73.17	2,460.94	70.2568	2,460.94	70.462	2,460.94	68.2509	2,460.94	73.4434	2,460.94	68.5396	2,460.94	71.7722	2,460.94	69.7692	2,460.94	68.5772	2,460.94	69.537	2,460.94	63.2062	2,460.94	70.4735	2,460.94	65.3299	2,460.94	70.9264	2,460.94	63.7916	2,460.94	67.6039
2,548.83	83.0818	2,548.83	83.7463	2,548.83	84.1366	2,548.83	84.4855	2,548.83	84.7009	2,548.83	84.709	2,548.83	82.9915	2,548.83	83.5376	2,548.83	81.3373	2,548.83	81.0789	2,548.83	81.5499	2,548.83	79.2946	2,548.83	80.3138	2,548.83	76.7201	2,548.83	78.2905	2,548.83	74.4592	2,548.83	75.7882	2,548.83	74.0964	2,548.83	72.5421	2,548.83	71.223	2,548.83	72.694	2,548.83	69.8793	2,548.83	68.9116	2,548.83	68.8037	2,548.83	69.9125	2,548.83	67.7772	2,548.83	70.754	2,548.83	69.2932	2,548.83	68.503	2,548.83	68.4588	2,548.83	65.8093	2,548.83	69.7043	2,548.83	67.1334	2,548.83	69.6106	2,548.83	67.0217	2,548.83	69.9658
2,639.65	83.2556	2,639.65	83.4483	2,639.65	83.7584	2,639.65	83.6941	2,639.65	84.3612	2,639.65	84.111	2,639.65	83.2308	2,639.65	82.7419	2,639.65	81.6593	2,639.65	80.2145	2,639.65	81.514	2,639.65	78.9833	2,639.65	80.257	2,639.65	77.1996	2,639.65	76.8625	2,639.65	73.9778	2,639.65	72.3645	2,639.65	72.0084	2,639.65	67.2423	2,639.65	69.5167	2,639.65	69.286	2,639.65	64.988	2,639.65	71.3891	2,639.65	67.8653	2,639.65	69.0846	2,639.65	68.1231	2,639.65	69.9702	2,639.65	68.3345	2,639.65	64.885	2,639.65	68.813	2,639.65	63.9037	2,639.65	69.5494	2,639.65	66.0822	2,639.65	69.2059	2,639.65	65.3782	2,639.65	66.0981
2,733.4	81.9487	2,733.4	82.6067	2,733.4	83.0401	2,733.4	83.0462	2,733.4	83.5714	2,733.4	82.3847	2,733.4	82.382	2,733.4	81.4503	2,733.4	81.0819	2,733.4	79.9591	2,733.4	80.6536	2,733.4	77.129	2,733.4	79.7112	2,733.4	74.6184	2,733.4	77.0017	2,733.4	72.522	2,733.4	72.136	2,733.4	70.1449	2,733.4	68.27	2,733.4	68.4607	2,733.4	68.8264	2,733.4	65.4184	2,733.4	70.9217	2,733.4	66.3074	2,733.4	71.0137	2,733.4	67.5106	2,733.4	71.3113	2,733.4	66.3122	2,733.4	66.1678	2,733.4	68.0762	2,733.4	63.2952	2,733.4	67.6001	2,733.4	64.8368	2,733.4	67.5245	2,733.4	62.4587	2,733.4	65.7812
2,827.15	80.6234	2,827.15	81.2504	2,827.15	81.7412	2,827.15	81.5487	2,827.15	82.8724	2,827.15	80.8985	2,827.15	81.7861	2,827.15	79.8112	2,827.15	79.9329	2,827.15	78.4386	2,827.15	79.8765	2,827.15	76.2845	2,827.15	78.9553	2,827.15	73.0318	2,827.15	76.4492	2,827.15	71.4694	2,827.15	72.4177	2,827.15	70.9945	2,827.15	66.387	2,827.15	68.6205	2,827.15	67.5513	2,827.15	65.8117	2,827.15	68.7058	2,827.15	63.0301	2,827.15	69.0226	2,827.15	65.923	2,827.15	69.9531	2,827.15	64.7134	2,827.15	65.3428	2,827.15	65.9404	2,827.15	61.229	2,827.15	67.2072	2,827.15	63.843	2,827.15	67.4146	2,827.15	56.5919	2,827.15	57.7101
2,926.76	80.8763	2,926.76	81.5516	2,926.76	81.6027	2,926.76	81.406	2,926.76	82.9728	2,926.76	80.9903	2,926.76	82.1909	2,926.76	80.2949	2,926.76	80.426	2,926.76	78.5289	2,926.76	79.8888	2,926.76	75.5783	2,926.76	79.0196	2,926.76	73.8027	2,926.76	76.5587	2,926.76	72.5709	2,926.76	73.3492	2,926.76	69.5481	2,926.76	70.2723	2,926.76	64.3431	2,926.76	66.7915	2,926.76	62.9416	2,926.76	69.2467	2,926.76	63.6887	2,926.76	67.7626	2,926.76	65.8393	2,926.76	71.0277	2,926.76	66.0793	2,926.76	66.8308	2,926.76	65.7135	2,926.76	62.5749	2,926.76	66.498	2,926.76	63.0181	2,926.76	68.2971	2,926.76	55.5023	2,926.76	64.1573
3,032.23	80.9432	3,032.23	81.548	3,032.23	81.3364	3,032.23	81.0627	3,032.23	82.938	3,032.23	80.9433	3,032.23	82.7964	3,032.23	81.1773	3,032.23	81.312	3,032.23	78.7605	3,032.23	80.878	3,032.23	76.6657	3,032.23	79.7289	3,032.23	75.2497	3,032.23	77.0035	3,032.23	69.7902	3,032.23	74.3889	3,032.23	69.1358	3,032.23	71.06	3,032.23	68.8746	3,032.23	66.973	3,032.23	64.3361	3,032.23	66.0313	3,032.23	65.6949	3,032.23	66.2823	3,032.23	66.4455	3,032.23	66.8691	3,032.23	66.4078	3,032.23	65.6588	3,032.23	65.9479	3,032.23	61.873	3,032.23	66.4526	3,032.23	63.5821	3,032.23	68.7587	3,032.23	55.2327	3,032.23	64.5869
3,137.7	81.2233	3,137.7	81.874	3,137.7	81.3833	3,137.7	81.1609	3,137.7	82.8963	3,137.7	81.0538	3,137.7	82.627	3,137.7	80.8652	3,137.7	81.2017	3,137.7	79.5234	3,137.7	80.9444	3,137.7	76.5157	3,137.7	80.1343	3,137.7	72.867	3,137.7	77.486	3,137.7	73.7978	3,137.7	73.8967	3,137.7	71.6494	3,137.7	70.2688	3,137.7	68.1037	3,137.7	67.6257	3,137.7	64.2328	3,137.7	68.6547	3,137.7	64.5195	3,137.7	66.3037	3,137.7	66.5965	3,137.7	68.6864	3,137.7	66.4265	3,137.7	65.6591	3,137.7	65.9492	3,137.7	62.9967	3,137.7	66.662	3,137.7	64.4966	3,137.7	66.7967	3,137.7	56.3072	3,137.7	64.9475
3,249.02	81.2914	3,249.02	81.1739	3,249.02	81.1591	3,249.02	81.0642	3,249.02	82.795	3,249.02	81.5293	3,249.02	82.4955	3,249.02	80.6105	3,249.02	80.757	3,249.02	79.3783	3,249.02	80.3746	3,249.02	76.892	3,249.02	79.7281	3,249.02	75.5463	3,249.02	77.8134	3,249.02	73.7545	3,249.02	74.188	3,249.02	68.2166	3,249.02	70.3241	3,249.02	66.3823	3,249.02	68.3028	3,249.02	65.8255	3,249.02	69.6584	3,249.02	63.6113	3,249.02	69.5786	3,249.02	66.61	3,249.02	67.1407	3,249.02	66.6907	3,249.02	67.1876	3,249.02	66.0725	3,249.02	63.4263	3,249.02	66.9325	3,249.02	65.2293	3,249.02	67.4571	3,249.02	60.7527	3,249.02	63.7403
3,363.28	81.354	3,363.28	80.6632	3,363.28	80.8371	3,363.28	80.8731	3,363.28	82.413	3,363.28	81.6269	3,363.28	82.3303	3,363.28	80.5429	3,363.28	80.2926	3,363.28	79.0874	3,363.28	80.0684	3,363.28	77.4355	3,363.28	79.1096	3,363.28	74.6218	3,363.28	77.3272	3,363.28	70.2017	3,363.28	75.6578	3,363.28	70.329	3,363.28	71.469	3,363.28	67.9584	3,363.28	69.229	3,363.28	65.6331	3,363.28	67.7986	3,363.28	64.9293	3,363.28	69.8146	3,363.28	66.236	3,363.28	67.4236	3,363.28	66.0186	3,363.28	66.2596	3,363.28	67.1174	3,363.28	62.048	3,363.28	66.4316	3,363.28	65.6704	3,363.28	66.9594	3,363.28	60.4099	3,363.28	61.9934
3,483.4	81.7071	3,483.4	80.7372	3,483.4	80.9323	3,483.4	80.9736	3,483.4	81.7004	3,483.4	81.3531	3,483.4	82.1047	3,483.4	80.2851	3,483.4	79.9334	3,483.4	78.9922	3,483.4	79.8532	3,483.4	76.7422	3,483.4	79.0411	3,483.4	72.6132	3,483.4	76.0849	3,483.4	71.9835	3,483.4	75.1764	3,483.4	69.6497	3,483.4	70.633	3,483.4	64.8462	3,483.4	64.7148	3,483.4	64.6958	3,483.4	63.7471	3,483.4	64.5173	3,483.4	68.4413	3,483.4	64.2787	3,483.4	65.2651	3,483.4	63.731	3,483.4	65.0146	3,483.4	65.5931	3,483.4	58.3415	3,483.4	65.2586	3,483.4	64.589	3,483.4	66.8257	3,483.4	56.318	3,483.4	61.6512
3,606.45	81.9949	3,606.45	80.8078	3,606.45	81.2302	3,606.45	81.2808	3,606.45	81.4929	3,606.45	81.0476	3,606.45	81.9606	3,606.45	79.963	3,606.45	79.8363	3,606.45	79.4415	3,606.45	79.6523	3,606.45	75.746	3,606.45	79.3981	3,606.45	74.418	3,606.45	75.949	3,606.45	71.6959	3,606.45	72.4104	3,606.45	67.546	3,606.45	68.9309	3,606.45	66.9314	3,606.45	62.5595	3,606.45	66.6902	3,606.45	61.6319	3,606.45	64.7134	3,606.45	67.0116	3,606.45	65.645	3,606.45	66.2116	3,606.45	64.9825	3,606.45	64.0217	3,606.45	64.8061	3,606.45	57.821	3,606.45	66.4646	3,606.45	61.7669	3,606.45	66.8328	3,606.45	57.8249	3,606.45	59.5958
3,732.42	81.4416	3,732.42	80.7147	3,732.42	81.0671	3,732.42	81.227	3,732.42	80.8981	3,732.42	80.5689	3,732.42	81.7285	3,732.42	80.5347	3,732.42	79.0352	3,732.42	77.989	3,732.42	78.0432	3,732.42	76.8231	3,732.42	78.3384	3,732.42	74.7815	3,732.42	74.852	3,732.42	70.0698	3,732.42	69.2756	3,732.42	69.8774	3,732.42	63.0379	3,732.42	67.5764	3,732.42	49.6395	3,732.42	65.9219	3,732.42	62.4422	3,732.42	65.1796	3,732.42	67.0424	3,732.42	64.1916	3,732.42	65.8458	3,732.42	64.5392	3,732.42	63.7589	3,732.42	65.5932	3,732.42	55.1068	3,732.42	65.8741	3,732.42	61.9048	3,732.42	66.7361	3,732.42	57.3491	3,732.42	61.44
3,864.26	81.7265	3,864.26	81.1004	3,864.26	81.5453	3,864.26	80.5951	3,864.26	80.1637	3,864.26	80.4626	3,864.26	80.3038	3,864.26	80.0572	3,864.26	78.0266	3,864.26	78.217	3,864.26	76.7102	3,864.26	77.1901	3,864.26	77.7188	3,864.26	75.0677	3,864.26	74.3254	3,864.26	74.7099	3,864.26	70.987	3,864.26	70.3068	3,864.26	70.6135	3,864.26	66.3463	3,864.26	62.336	3,864.26	67.4369	3,864.26	60.1946	3,864.26	65.9859	3,864.26	66.9402	3,864.26	64.0532	3,864.26	65.9989	3,864.26	65.9987	3,864.26	62.1596	3,864.26	64.8037	3,864.26	42.2244	3,864.26	66.4815	3,864.26	62.5429	3,864.26	65.4148	3,864.26	59.5545	3,864.26	60.4883
3,999.02	81.9782	3,999.02	80.9761	3,999.02	81.8458	3,999.02	80.6385	3,999.02	79.9254	3,999.02	80.1127	3,999.02	79.1636	3,999.02	79.3547	3,999.02	77.311	3,999.02	78.3094	3,999.02	76.387	3,999.02	77.0788	3,999.02	77.6815	3,999.02	75.9231	3,999.02	75.648	3,999.02	70.2815	3,999.02	67.7131	3,999.02	61.9817	3,999.02	65.0325	3,999.02	66.1363	3,999.02	63.3229	3,999.02	64.8611	3,999.02	61.7177	3,999.02	64.0895	3,999.02	64.6503	3,999.02	61.8328	3,999.02	62.7062	3,999.02	65.3019	3,999.02	54.5974	3,999.02	64.3086	3,999.02	57.4804	3,999.02	67.1277	3,999.02	64.4812	3,999.02	65.0829	3,999.02	61.2787	3,999.02	55.6871
4,139.65	81.9491	4,139.65	80.376	4,139.65	81.5448	4,139.65	79.7799	4,139.65	79.8777	4,139.65	79.9037	4,139.65	79.6654	4,139.65	79.2511	4,139.65	77.3047	4,139.65	77.9166	4,139.65	76.4371	4,139.65	77.5727	4,139.65	78.8555	4,139.65	73.4163	4,139.65	77.4685	4,139.65	72.6907	4,139.65	69.388	4,139.65	69.5913	4,139.65	61.5395	4,139.65	65.3657	4,139.65	61.9275	4,139.65	63.444	4,139.65	63.3741	4,139.65	63.0633	4,139.65	63.8614	4,139.65	62.6416	4,139.65	63.3359	4,139.65	63.8404	4,139.65	56.7018	4,139.65	63.955	4,139.65	57.6104	4,139.65	66.1447	4,139.65	63.9081	4,139.65	64.5386	4,139.65	61.807	4,139.65	55.7683
4,286.13	82.3521	4,286.13	80.6057	4,286.13	81.2125	4,286.13	79.768	4,286.13	79.0188	4,286.13	79.7206	4,286.13	79.5548	4,286.13	78.8909	4,286.13	77.9465	4,286.13	78.7357	4,286.13	75.3775	4,286.13	74.3453	4,286.13	78.0165	4,286.13	73.8248	4,286.13	76.7657	4,286.13	70.7244	4,286.13	69.8306	4,286.13	59.2288	4,286.13	68.7459	4,286.13	64.5942	4,286.13	62.5207	4,286.13	63.8469	4,286.13	64.0381	4,286.13	61.9894	4,286.13	61.5956	4,286.13	60.7012	4,286.13	65.434	4,286.13	63.7715	4,286.13	55.5889	4,286.13	63.5264	4,286.13	57.7964	4,286.13	64.576	4,286.13	61.5979	4,286.13	65.7582	4,286.13	55.4019	4,286.13	53.3423
4,438.48	81.5787	4,438.48	80.0179	4,438.48	81.45	4,438.48	79.7818	4,438.48	77.9659	4,438.48	78.342	4,438.48	77.3182	4,438.48	78.7244	4,438.48	77.4122	4,438.48	77.0001	4,438.48	73.9463	4,438.48	75.1839	4,438.48	74.839	4,438.48	72.808	4,438.48	74.4951	4,438.48	70.8209	4,438.48	73.2649	4,438.48	68.3502	4,438.48	70.1324	4,438.48	66.0965	4,438.48	63.5325	4,438.48	61.2392	4,438.48	60.2147	4,438.48	60.8005	4,438.48	60.1147	4,438.48	58.9599	4,438.48	64.8172	4,438.48	63.3195	4,438.48	60.8536	4,438.48	62.9819	4,438.48	54.0569	4,438.48	65.0882	4,438.48	61.4541	4,438.48	62.9119	4,438.48	60.1218	4,438.48	53.5448
4,593.75	80.6298	4,593.75	79.9544	4,593.75	80.6862	4,593.75	78.2027	4,593.75	77.9875	4,593.75	77.4236	4,593.75	77.1675	4,593.75	77.8518	4,593.75	76.6417	4,593.75	76.2758	4,593.75	72.6388	4,593.75	73.7776	4,593.75	72.8822	4,593.75	72.8091	4,593.75	73.3467	4,593.75	71.6713	4,593.75	73.3851	4,593.75	62.8241	4,593.75	70.6762	4,593.75	63.3824	4,593.75	62.8487	4,593.75	63.3763	4,593.75	56.45	4,593.75	56.6154	4,593.75	60.7996	4,593.75	59.2756	4,593.75	59.418	4,593.75	63.0799	4,593.75	59.633	4,593.75	63.6039	4,593.75	52.2637	4,593.75	64.7262	4,593.75	61.9231	4,593.75	63.4135	4,593.75	62.2989	4,593.75	58.7562
4,757.81	79.8907	4,757.81	79.3464	4,757.81	79.4151	4,757.81	77.9948	4,757.81	77.4538	4,757.81	76.6456	4,757.81	77.2285	4,757.81	76.6697	4,757.81	77.426	4,757.81	75.1699	4,757.81	76.1458	4,757.81	74.0401	4,757.81	73.8721	4,757.81	71.5504	4,757.81	73.593	4,757.81	67.1673	4,757.81	72.6433	4,757.81	65.1164	4,757.81	69.342	4,757.81	63.4499	4,757.81	64.7368	4,757.81	59.2519	4,757.81	55.4514	4,757.81	55.4959	4,757.81	61.0669	4,757.81	60.7375	4,757.81	54.9497	4,757.81	62.0604	4,757.81	57.5592	4,757.81	62.4523	4,757.81	50.2857	4,757.81	61.8094	4,757.81	59.0788	4,757.81	62.5295	4,757.81	59.7703	4,757.81	56.9023
4,924.8	79.9632	4,924.8	79.3462	4,924.8	79.6318	4,924.8	76.9567	4,924.8	77.5053	4,924.8	76.15	4,924.8	77.3757	4,924.8	75.9232	4,924.8	78.3976	4,924.8	75.0364	4,924.8	76.0081	4,924.8	72.9167	4,924.8	75.04	4,924.8	71.0778	4,924.8	76.0421	4,924.8	68.2576	4,924.8	73.1348	4,924.8	60.1928	4,924.8	68.8113	4,924.8	61.3685	4,924.8	63.531	4,924.8	55.6702	4,924.8	53.5405	4,924.8	53.0108	4,924.8	58.3131	4,924.8	53.5415	4,924.8	54.8902	4,924.8	60.4268	4,924.8	59.987	4,924.8	58.5515	4,924.8	54.7581	4,924.8	59.061	4,924.8	57.7391	4,924.8	58.7337	4,924.8	57.8637	4,924.8	53.6428
5,097.66	80.1819	5,097.66	79.68	5,097.66	79.8183	5,097.66	77.5672	5,097.66	79.4484	5,097.66	77.2129	5,097.66	78.0243	5,097.66	76.6352	5,097.66	76.6096	5,097.66	75.4947	5,097.66	74.1145	5,097.66	73.232	5,097.66	74.6649	5,097.66	70.2133	5,097.66	76.7981	5,097.66	65.9849	5,097.66	72.9479	5,097.66	66.1741	5,097.66	66.4302	5,097.66	61.7081	5,097.66	64.8918	5,097.66	54.8442	5,097.66	46.4413	5,097.66	56.3475	5,097.66	57.9476	5,097.66	54.4626	5,097.66	57.7117	5,097.66	55.0083	5,097.66	52.663	5,097.66	53.8772	5,097.66	56.9407	5,097.66	58.7424	5,097.66	61.5353	5,097.66	61.8125	5,097.66	61.7299	5,097.66	52.3253
5,279.3	81.1884	5,279.3	80.9311	5,279.3	81.1257	5,279.3	79.8534	5,279.3	81.081	5,279.3	78.8744	5,279.3	80.4421	5,279.3	78.012	5,279.3	79.2227	5,279.3	77.7136	5,279.3	74.7881	5,279.3	74.0316	5,279.3	75.0155	5,279.3	72.923	5,279.3	76.6074	5,279.3	70.3051	5,279.3	73.818	5,279.3	66.0065	5,279.3	66.7394	5,279.3	63.7177	5,279.3	53.7724	5,279.3	58.0863	5,279.3	51.7148	5,279.3	58.4372	5,279.3	57.3739	5,279.3	50.0727	5,279.3	49.5397	5,279.3	60.2123	5,279.3	51.093	5,279.3	57.4817	5,279.3	57.8642	5,279.3	60.0991	5,279.3	61.8238	5,279.3	58.7638	5,279.3	58.3669	5,279.3	46.564
5,463.87	81.776	5,463.87	81.1852	5,463.87	81.5521	5,463.87	80.8277	5,463.87	80.8158	5,463.87	79.2781	5,463.87	80.9749	5,463.87	78.6017	5,463.87	79.7949	5,463.87	77.2161	5,463.87	75.1069	5,463.87	74.8046	5,463.87	73.4896	5,463.87	73.3405	5,463.87	75.0179	5,463.87	70.9055	5,463.87	73.1885	5,463.87	69.1077	5,463.87	65.8772	5,463.87	62.1095	5,463.87	64.6134	5,463.87	59.6936	5,463.87	61.6088	5,463.87	58.5474	5,463.87	59.072	5,463.87	54.3513	5,463.87	58.8106	5,463.87	57.3818	5,463.87	56.9024	5,463.87	57.5187	5,463.87	56.1661	5,463.87	60.7103	5,463.87	59.2534	5,463.87	59.5721	5,463.87	58.5887	5,463.87	38.6085
5,657.23	81.1689	5,657.23	80.8565	5,657.23	81.9957	5,657.23	80.5567	5,657.23	80.7291	5,657.23	79.0015	5,657.23	79.3922	5,657.23	78.8129	5,657.23	78.7301	5,657.23	76.9834	5,657.23	75.8772	5,657.23	75.9133	5,657.23	70.8932	5,657.23	72.776	5,657.23	73.5233	5,657.23	67.7917	5,657.23	73.4056	5,657.23	63.4032	5,657.23	66.711	5,657.23	60.2516	5,657.23	66.7888	5,657.23	58.7969	5,657.23	65.5025	5,657.23	45.4894	5,657.23	54.967	5,657.23	33.8787	5,657.23	58.198	5,657.23	49.2314	5,657.23	52.183	5,657.23	55.2238	5,657.23	54.1493	5,657.23	59.598	5,657.23	50.5826	5,657.23	56.6745	5,657.23	59.8285	5,657.23	53.3315
5,856.45	81.5046	5,856.45	81.8283	5,856.45	81.9158	5,856.45	80.5465	5,856.45	80.7474	5,856.45	79.7955	5,856.45	78.7751	5,856.45	79.3115	5,856.45	78.7176	5,856.45	77.9921	5,856.45	76.2764	5,856.45	76.2135	5,856.45	74.0694	5,856.45	71.3726	5,856.45	74.5897	5,856.45	69.5992	5,856.45	73.6353	5,856.45	66.2378	5,856.45	69.3346	5,856.45	61.678	5,856.45	69.4099	5,856.45	58.9542	5,856.45	67.721	5,856.45	56.7978	5,856.45	48.0109	5,856.45	47.8992	5,856.45	51.8255	5,856.45	44.9487	5,856.45	57.9422	5,856.45	55.5145	5,856.45	60.0499	5,856.45	59.9812	5,856.45	54.5987	5,856.45	57.6973	5,856.45	58.5545	5,856.45	52.4314
6,061.52	82.6436	6,061.52	82.1905	6,061.52	82.2228	6,061.52	80.8149	6,061.52	80.8705	6,061.52	80.1301	6,061.52	79.5608	6,061.52	78.879	6,061.52	78.7738	6,061.52	78.0129	6,061.52	77.9123	6,061.52	75.5118	6,061.52	74.6074	6,061.52	72.4489	6,061.52	72.0321	6,061.52	70.1421	6,061.52	72.0221	6,061.52	68.0907	6,061.52	68.3503	6,061.52	64.1963	6,061.52	69.6649	6,061.52	59.8255	6,061.52	66.7635	6,061.52	56.8197	6,061.52	45.61	6,061.52	51.683	6,061.52	58.7625	6,061.52	40.8922	6,061.52	59.703	6,061.52	55.6055	6,061.52	59.0929	6,061.52	60.1097	6,061.52	52.4301	6,061.52	58.8699	6,061.52	56.3991	6,061.52	51.919
6,275.39	82.968	6,275.39	82.3007	6,275.39	82.0028	6,275.39	81.1802	6,275.39	80.8988	6,275.39	80.0367	6,275.39	79.6434	6,275.39	78.1602	6,275.39	79.1735	6,275.39	77.055	6,275.39	78.4406	6,275.39	74.7451	6,275.39	75.263	6,275.39	74.0351	6,275.39	71.4774	6,275.39	69.5644	6,275.39	67.5851	6,275.39	65.3622	6,275.39	63.8866	6,275.39	60.719	6,275.39	68.9028	6,275.39	58.4829	6,275.39	65.6315	6,275.39	59.1267	6,275.39	52.8015	6,275.39	42.8918	6,275.39	53.4722	6,275.39	47.0757	6,275.39	54.4415	6,275.39	55.3946	6,275.39	55.5161	6,275.39	58.0337	6,275.39	50.9131	6,275.39	59.2177	6,275.39	56.4462	6,275.39	54.1788
6,498.05	82.878	6,498.05	82.3617	6,498.05	82.3386	6,498.05	81.5631	6,498.05	81.4598	6,498.05	79.6831	6,498.05	80.3835	6,498.05	78.8535	6,498.05	79.2023	6,498.05	76.9855	6,498.05	77.6884	6,498.05	74.6068	6,498.05	75.0996	6,498.05	69.6694	6,498.05	69.7997	6,498.05	67.3564	6,498.05	66.923	6,498.05	65.2589	6,498.05	64.246	6,498.05	61.2999	6,498.05	64.6236	6,498.05	59.6331	6,498.05	61.0798	6,498.05	58.9045	6,498.05	54.5771	6,498.05	53.6067	6,498.05	54.9613	6,498.05	47.4426	6,498.05	53.7071	6,498.05	51.362	6,498.05	57.7247	6,498.05	59.4114	6,498.05	45.5916	6,498.05	58.3441	6,498.05	55.7866	6,498.05	50.4818
6,726.56	82.5431	6,726.56	82.6074	6,726.56	82.3449	6,726.56	81.6642	6,726.56	81.5973	6,726.56	79.7161	6,726.56	80.5604	6,726.56	79.2093	6,726.56	79.4903	6,726.56	76.7839	6,726.56	77.4648	6,726.56	72.9776	6,726.56	73.803	6,726.56	68.648	6,726.56	67.7652	6,726.56	68.4464	6,726.56	70.7688	6,726.56	65.9998	6,726.56	64.6107	6,726.56	63.7809	6,726.56	59.7712	6,726.56	62.0512	6,726.56	57.1609	6,726.56	61.778	6,726.56	57.1553	6,726.56	55.9501	6,726.56	53.2056	6,726.56	46.4131	6,726.56	54.5944	6,726.56	48.7155	6,726.56	56.8832	6,726.56	55.4979	6,726.56	54.1451	6,726.56	56.1922	6,726.56	54.8053	6,726.56	52.5663
6,963.87	82.2608	6,963.87	82.8074	6,963.87	82.0247	6,963.87	81.3817	6,963.87	81.8997	6,963.87	80.193	6,963.87	80.6273	6,963.87	79.2118	6,963.87	79.8702	6,963.87	76.7585	6,963.87	77.4233	6,963.87	72.9349	6,963.87	73.3068	6,963.87	71.3253	6,963.87	72.3635	6,963.87	68.9521	6,963.87	73.676	6,963.87	66.3014	6,963.87	65.189	6,963.87	62.9483	6,963.87	51.7331	6,963.87	60.6648	6,963.87	54.553	6,963.87	60.7259	6,963.87	55.7189	6,963.87	57.8751	6,963.87	57.0474	6,963.87	45.6308	6,963.87	47.2025	6,963.87	46.4058	6,963.87	51.7036	6,963.87	55.1412	6,963.87	52.0323	6,963.87	57.8015	6,963.87	52.2146	6,963.87	47.9855
7,209.96	81.8748	7,209.96	82.5159	7,209.96	81.7954	7,209.96	81.2917	7,209.96	81.9747	7,209.96	80.4265	7,209.96	80.6857	7,209.96	79.0358	7,209.96	79.6209	7,209.96	76.5379	7,209.96	76.4936	7,209.96	73.351	7,209.96	73.4165	7,209.96	70.0106	7,209.96	72.2866	7,209.96	66.6559	7,209.96	74.1586	7,209.96	65.7614	7,209.96	65.8408	7,209.96	63.1367	7,209.96	45.9744	7,209.96	62.1135	7,209.96	54.7204	7,209.96	58.457	7,209.96	51.0521	7,209.96	57.7851	7,209.96	56.8833	7,209.96	43.084	7,209.96	51.0768	7,209.96	43.5389	7,209.96	48.9786	7,209.96	54.084	7,209.96	52.6889	7,209.96	58.7274	7,209.96	54.5114	7,209.96	52.0566
7,464.84	81.5241	7,464.84	82.3611	7,464.84	81.4355	7,464.84	81.5681	7,464.84	81.7105	7,464.84	80.3005	7,464.84	80.7441	7,464.84	79.0949	7,464.84	79.2544	7,464.84	76.7095	7,464.84	77.2798	7,464.84	73.2114	7,464.84	74.6424	7,464.84	69.7858	7,464.84	72.1942	7,464.84	68.6411	7,464.84	73.2248	7,464.84	66.4914	7,464.84	65.5495	7,464.84	63.7813	7,464.84	59.8441	7,464.84	63.1401	7,464.84	56.723	7,464.84	59.1657	7,464.84	52.3009	7,464.84	59.7614	7,464.84	60.4353	7,464.84	52.9607	7,464.84	44.5418	7,464.84	36.9522	7,464.84	53.5584	7,464.84	54.1116	7,464.84	51.3875	7,464.84	58.4877	7,464.84	54.1124	7,464.84	45.6217
7,728.52	80.7668	7,728.52	81.9353	7,728.52	81.1629	7,728.52	81.4421	7,728.52	81.4167	7,728.52	80.0522	7,728.52	80.8895	7,728.52	78.765	7,728.52	79.2215	7,728.52	76.0538	7,728.52	76.7233	7,728.52	73.7161	7,728.52	73.723	7,728.52	71.2895	7,728.52	72.4696	7,728.52	67.8145	7,728.52	71.5235	7,728.52	63.9619	7,728.52	65.2429	7,728.52	62.9378	7,728.52	61.403	7,728.52	60.5844	7,728.52	55.9325	7,728.52	59.6661	7,728.52	52.9057	7,728.52	56.8006	7,728.52	57.8723	7,728.52	52.7468	7,728.52	42.9178	7,728.52	46.5989	7,728.52	53.9828	7,728.52	55.81	7,728.52	51.5481	7,728.52	58.2348	7,728.52	53.9333	7,728.52	47.9903
8,000.98	80.4407	8,000.98	81.5822	8,000.98	80.6613	8,000.98	81.2217	8,000.98	80.9718	8,000.98	79.8229	8,000.98	81.1151	8,000.98	77.525	8,000.98	78.3066	8,000.98	75.6411	8,000.98	75.8035	8,000.98	74.7541	8,000.98	72.9427	8,000.98	70.6892	8,000.98	69.8372	8,000.98	65.3222	8,000.98	66.2729	8,000.98	63.2706	8,000.98	61.0031	8,000.98	62.4401	8,000.98	65.7692	8,000.98	60.4637	8,000.98	61.8167	8,000.98	59.3195	8,000.98	55.0053	8,000.98	55.7818	8,000.98	56.4694	8,000.98	46.5342	8,000.98	42.9905	8,000.98	47.4015	8,000.98	51.3446	8,000.98	54.3243	8,000.98	53.3693	8,000.98	58.5892	8,000.98	54.5495	8,000.98	49.8066
8,282.23	80.4016	8,282.23	80.8206	8,282.23	80.5199	8,282.23	81.0388	8,282.23	80.6761	8,282.23	79.1884	8,282.23	80.927	8,282.23	76.1441	8,282.23	78.015	8,282.23	76.2269	8,282.23	76.6811	8,282.23	74.7302	8,282.23	71.9559	8,282.23	70.7215	8,282.23	69.2487	8,282.23	65.9927	8,282.23	57.4941	8,282.23	62.6691	8,282.23	62.8743	8,282.23	62.5904	8,282.23	65.5428	8,282.23	61.2156	8,282.23	65.3192	8,282.23	60.2998	8,282.23	51.5739	8,282.23	57.63	8,282.23	53.3324	8,282.23	51.3794	8,282.23	49.288	8,282.23	44.9142	8,282.23	53.2087	8,282.23	55.318	8,282.23	50.4069	8,282.23	59.1934	8,282.23	51.1811	8,282.23	52.9272
8,575.2	80.0172	8,575.2	79.871	8,575.2	80.3454	8,575.2	80.7319	8,575.2	80.5893	8,575.2	78.3889	8,575.2	80.1478	8,575.2	76.6937	8,575.2	77.9745	8,575.2	76.7412	8,575.2	77.1016	8,575.2	75.8963	8,575.2	73.9798	8,575.2	72.1127	8,575.2	68.0717	8,575.2	67.1873	8,575.2	65.8609	8,575.2	64.0578	8,575.2	66.8935	8,575.2	61.5209	8,575.2	66.3609	8,575.2	62.415	8,575.2	67.7393	8,575.2	60.6466	8,575.2	54.9919	8,575.2	60.8933	8,575.2	47.8649	8,575.2	52.5089	8,575.2	47.0746	8,575.2	47.756	8,575.2	51.9864	8,575.2	51.355	8,575.2	45.62	8,575.2	59.5197	8,575.2	56.8867	8,575.2	55.282
8,876.95	78.2487	8,876.95	78.6578	8,876.95	79.7847	8,876.95	79.9668	8,876.95	80.3131	8,876.95	77.8575	8,876.95	79.5707	8,876.95	77.5556	8,876.95	78.797	8,876.95	77.2177	8,876.95	77.9577	8,876.95	76.4245	8,876.95	74.8374	8,876.95	72.4996	8,876.95	71.9031	8,876.95	68.9457	8,876.95	72.6817	8,876.95	65.0611	8,876.95	68.0448	8,876.95	60.5736	8,876.95	61.9795	8,876.95	62.5073	8,876.95	68.3448	8,876.95	61.5299	8,876.95	48.7688	8,876.95	63.1297	8,876.95	50.3029	8,876.95	48.4183	8,876.95	52.1281	8,876.95	48.8383	8,876.95	53.904	8,876.95	51.6606	8,876.95	46.3367	8,876.95	58.4199	8,876.95	57.1747	8,876.95	53.1518
9,190.43	78.0111	9,190.43	78.4358	9,190.43	79.4438	9,190.43	79.1416	9,190.43	80.0029	9,190.43	78.0932	9,190.43	79.529	9,190.43	78.4036	9,190.43	79.3361	9,190.43	77.5447	9,190.43	78.4536	9,190.43	75.6273	9,190.43	75.0438	9,190.43	73.4968	9,190.43	75.642	9,190.43	69.6122	9,190.43	72.1533	9,190.43	64.775	9,190.43	65.4642	9,190.43	59.0766	9,190.43	58.4648	9,190.43	61.2987	9,190.43	64.5578	9,190.43	60.7436	9,190.43	45.5497	9,190.43	63.7308	9,190.43	56.3325	9,190.43	51.1357	9,190.43	51.4586	9,190.43	47.6878	9,190.43	51.9168	9,190.43	47.4324	9,190.43	47.2626	9,190.43	58.2977	9,190.43	55.2385	9,190.43	52.5874
9,512.7	79.7391	9,512.7	79.794	9,512.7	80.5546	9,512.7	79.4983	9,512.7	80.3979	9,512.7	79.2866	9,512.7	80.0329	9,512.7	79.1092	9,512.7	79.3821	9,512.7	76.9874	9,512.7	77.052	9,512.7	75.4545	9,512.7	75.9477	9,512.7	72.6141	9,512.7	75.5145	9,512.7	67.7979	9,512.7	69.6554	9,512.7	63.7909	9,512.7	63.4355	9,512.7	57.3174	9,512.7	54.4195	9,512.7	58.7589	9,512.7	59.4632	9,512.7	59.1921	9,512.7	45.1861	9,512.7	63.1256	9,512.7	51.9061	9,512.7	52.5011	9,512.7	53.3346	9,512.7	46.201	9,512.7	45.9911	9,512.7	45.9593	9,512.7	45.3281	9,512.7	56.7268	9,512.7	53.4923	9,512.7	50.7912
9,849.61	81.6975	9,849.61	81.7795	9,849.61	81.8468	9,849.61	80.6277	9,849.61	81.344	9,849.61	80.7226	9,849.61	80.5967	9,849.61	79.246	9,849.61	79.612	9,849.61	77.91	9,849.61	77.0451	9,849.61	74.666	9,849.61	75.0816	9,849.61	71.4083	9,849.61	72.9456	9,849.61	64.8403	9,849.61	65.5268	9,849.61	62.5712	9,849.61	59.7529	9,849.61	55.7772	9,849.61	55.5559	9,849.61	55.8459	9,849.61	53.6487	9,849.61	58.0731	9,849.61	53.5633	9,849.61	61.2104	9,849.61	39.9186	9,849.61	53.8175	9,849.61	49.1012	9,849.61	46.5257	9,849.61	48.1691	9,849.61	45.8038	9,849.61	50.7672	9,849.61	53.69	9,849.61	52.9	9,849.61	47.8672
10,195.3	83.2468	10,195.3	82.8427	10,195.3	82.6742	10,195.3	81.7144	10,195.3	81.507	10,195.3	81.5209	10,195.3	80.5245	10,195.3	79.7313	10,195.3	79.5878	10,195.3	78.4403	10,195.3	77.5893	10,195.3	74.6492	10,195.3	75.2874	10,195.3	71.111	10,195.3	70.7766	10,195.3	64.5236	10,195.3	63.4994	10,195.3	61.6627	10,195.3	61.6716	10,195.3	56.1598	10,195.3	58.1083	10,195.3	54.7057	10,195.3	57.9841	10,195.3	56.3937	10,195.3	55.0569	10,195.3	58.7546	10,195.3	48.8964	10,195.3	53.0825	10,195.3	47.4726	10,195.3	41.8242	10,195.3	45.8885	10,195.3	45.591	10,195.3	53.6089	10,195.3	51.6701	10,195.3	46.4008	10,195.3	49.6688
10,555.7	85.7562	10,555.7	84.8045	10,555.7	84.8654	10,555.7	83.4912	10,555.7	82.9574	10,555.7	82.4691	10,555.7	81.1392	10,555.7	80.2301	10,555.7	79.4132	10,555.7	77.6987	10,555.7	78.0426	10,555.7	73.5794	10,555.7	74.747	10,555.7	69.7177	10,555.7	65.225	10,555.7	64.7436	10,555.7	59.3783	10,555.7	59.0303	10,555.7	58.2927	10,555.7	56.4952	10,555.7	58.6659	10,555.7	50.1863	10,555.7	60.5182	10,555.7	53.3626	10,555.7	49.7433	10,555.7	55.3636	10,555.7	48.7528	10,555.7	51.9993	10,555.7	37.7158	10,555.7	37.4659	10,555.7	41.9759	10,555.7	39.2855	10,555.7	51.125	10,555.7	50.8771	10,555.7	46.3444	10,555.7	46.2708
10,927.7	86.5061	10,927.7	85.4137	10,927.7	85.8414	10,927.7	84.0861	10,927.7	83.7477	10,927.7	82.5819	10,927.7	81.2463	10,927.7	80.3505	10,927.7	78.5604	10,927.7	76.7979	10,927.7	76.1128	10,927.7	72.2089	10,927.7	71.3958	10,927.7	68.5942	10,927.7	63.4309	10,927.7	63.2753	10,927.7	56.5278	10,927.7	58.084	10,927.7	55.6159	10,927.7	56.7816	10,927.7	49.2654	10,927.7	46.3002	10,927.7	56.3142	10,927.7	51.1811	10,927.7	41.3393	10,927.7	53.5805	10,927.7	47.5884	10,927.7	51.1312	10,927.7	38.0927	10,927.7	32.7882	10,927.7	37.0228	10,927.7	32.1076	10,927.7	46.9553	10,927.7	47.4492	10,927.7	46.146	10,927.7	43.7266
11,314.5	87.1788	11,314.5	86.3666	11,314.5	86.4328	11,314.5	84.8074	11,314.5	84.2461	11,314.5	82.6607	11,314.5	81.3212	11,314.5	79.9408	11,314.5	77.8932	11,314.5	75.4317	11,314.5	74.2127	11,314.5	70.9122	11,314.5	68.8302	11,314.5	66.6256	11,314.5	62.8855	11,314.5	60.6038	11,314.5	57.1688	11,314.5	55.6766	11,314.5	51.4668	11,314.5	55.1349	11,314.5	45.8394	11,314.5	43.4762	11,314.5	53.6511	11,314.5	47.5338	11,314.5	43.6995	11,314.5	49.5412	11,314.5	42.7719	11,314.5	49.8923	11,314.5	25.5694	11,314.5	38.6566	11,314.5	37.7653	11,314.5	24.2703	11,314.5	37.6197	11,314.5	45.9236	11,314.5	46.6707	11,314.5	39.7444
11,712.9	86.8556	11,712.9	86.4839	11,712.9	86.0029	11,712.9	84.8606	11,712.9	83.9138	11,712.9	82.6353	11,712.9	81.1502	11,712.9	79.6583	11,712.9	77.537	11,712.9	74.7871	11,712.9	73.4956	11,712.9	70.3827	11,712.9	67.6359	11,712.9	65.2758	11,712.9	61.4258	11,712.9	59.7875	11,712.9	50.9117	11,712.9	54.2152	11,712.9	45.8751	11,712.9	54.9727	11,712.9	44.3336	11,712.9	47.2453	11,712.9	47.4159	11,712.9	40.9061	11,712.9	42.9499	11,712.9	40.0392	11,712.9	39.086	11,712.9	49.2105	11,712.9	41.3549	11,712.9	39.4015	11,712.9	30.5136	11,712.9	33.1221	11,712.9	43.9666	11,712.9	46.6104	11,712.9	45.022	11,712.9	43.0516
12,126	86.9569	12,126	86.3772	12,126	85.7478	12,126	84.5935	12,126	83.519	12,126	82.4593	12,126	80.7746	12,126	79.2663	12,126	77.2406	12,126	73.9855	12,126	72.8046	12,126	70.1432	12,126	66.5689	12,126	64.9682	12,126	57.9152	12,126	59.4231	12,126	50.7533	12,126	54.5634	12,126	46.5353	12,126	55.6481	12,126	53.2414	12,126	46.7016	12,126	56.1397	12,126	48.0119	12,126	26.7171	12,126	38.2782	12,126	46.9956	12,126	47.6721	12,126	35.9213	12,126	39.5089	12,126	40.1837	12,126	36.4701	12,126	45.0713	12,126	49.7569	12,126	43.1351	12,126	43.5766
12,553.7	87.0126	12,553.7	86.013	12,553.7	85.8413	12,553.7	84.1258	12,553.7	83.5053	12,553.7	82.1413	12,553.7	80.7058	12,553.7	78.6382	12,553.7	77.3163	12,553.7	73.3492	12,553.7	71.5086	12,553.7	68.673	12,553.7	65.9189	12,553.7	63.6473	12,553.7	56.0744	12,553.7	56.5997	12,553.7	51.4095	12,553.7	52.3672	12,553.7	43.1571	12,553.7	52.2979	12,553.7	51.7766	12,553.7	46.2073	12,553.7	57.5276	12,553.7	48.485	12,553.7	40.326	12,553.7	40.6503	12,553.7	48.5826	12,553.7	45.2067	12,553.7	42.1062	12,553.7	36.9539	12,553.7	34.9312	12,553.7	30.9374	12,553.7	38.6336	12,553.7	49.9494	12,553.7	43.8035	12,553.7	41.3089
12,996.1	86.8492	12,996.1	85.9894	12,996.1	85.9232	12,996.1	83.9998	12,996.1	83.5998	12,996.1	81.5868	12,996.1	80.3429	12,996.1	77.8236	12,996.1	76.4423	12,996.1	72.9422	12,996.1	70.5273	12,996.1	67.0934	12,996.1	64.7938	12,996.1	62.3297	12,996.1	55.2773	12,996.1	54.3263	12,996.1	48.5935	12,996.1	49.5782	12,996.1	39.9488	12,996.1	44.7999	12,996.1	51.9782	12,996.1	46.8224	12,996.1	53.6667	12,996.1	42.9297	12,996.1	43.1544	12,996.1	37.5448	12,996.1	44.7848	12,996.1	43.0242	12,996.1	34.3129	12,996.1	38.9247	12,996.1	32.6097	12,996.1	30.4934	12,996.1	41.9347	12,996.1	47.2698	12,996.1	42.569	12,996.1	28.6332
13,453.1	86.6258	13,453.1	86.3029	13,453.1	85.6937	13,453.1	84.2413	13,453.1	83.6747	13,453.1	81.3928	13,453.1	80.1285	13,453.1	77.0151	13,453.1	75.5935	13,453.1	72.0245	13,453.1	69.5501	13,453.1	65.3985	13,453.1	62.8965	13,453.1	59.4845	13,453.1	51.4267	13,453.1	50.201	13,453.1	44.8285	13,453.1	41.6827	13,453.1	39.5815	13,453.1	38.6065	13,453.1	49.6996	13,453.1	42.6197	13,453.1	55.0707	13,453.1	24.538	13,453.1	41.3976	13,453.1	33.128	13,453.1	41.7081	13,453.1	43.4221	13,453.1	38.7089	13,453.1	40.0497	13,453.1	39.9226	13,453.1	36.0673	13,453.1	42.3451	13,453.1	45.012	13,453.1	39.475	13,453.1	28.0832
13,927.7	86.4789	13,927.7	86.2433	13,927.7	85.4968	13,927.7	84.2158	13,927.7	83.4054	13,927.7	81.1862	13,927.7	79.6436	13,927.7	75.9835	13,927.7	74.2961	13,927.7	69.4424	13,927.7	67.8167	13,927.7	61.3856	13,927.7	60.458	13,927.7	53.1987	13,927.7	47.7269	13,927.7	46.4246	13,927.7	33.1258	13,927.7	45.2332	13,927.7	33.1814	13,927.7	40.4603	13,927.7	53.5285	13,927.7	38.1188	13,927.7	57.4121	13,927.7	38.6494	13,927.7	43.6441	13,927.7	43.142	13,927.7	39.3377	13,927.7	40.7774	13,927.7	40.7683	13,927.7	36.6047	13,927.7	39.1218	13,927.7	35.4439	13,927.7	39.5763	13,927.7	43.5339	13,927.7	31.6273	13,927.7	31.479
14,419.9	86.6876	14,419.9	86.0283	14,419.9	85.6793	14,419.9	83.7891	14,419.9	83.0218	14,419.9	80.6293	14,419.9	78.7493	14,419.9	74.9904	14,419.9	72.931	14,419.9	67.8055	14,419.9	64.6818	14,419.9	58.977	14,419.9	57.1607	14,419.9	52.7662	14,419.9	52.0576	14,419.9	50.9448	14,419.9	45.1855	14,419.9	44.4868	14,419.9	38.0357	14,419.9	42.8846	14,419.9	53.8385	14,419.9	36.9726	14,419.9	55.2552	14,419.9	39.347	14,419.9	45.2751	14,419.9	43.784	14,419.9	34.958	14,419.9	30.7086	14,419.9	39.085	14,419.9	36.9986	14,419.9	40.1638	14,419.9	37.8805	14,419.9	39.2089	14,419.9	38.7007	14,419.9	28.435	14,419.9	28.1633
14,929.7	87.463	14,929.7	86.4324	14,929.7	86.1882	14,929.7	83.6081	14,929.7	82.9355	14,929.7	79.8433	14,929.7	77.7003	14,929.7	73.1624	14,929.7	70.1608	14,929.7	64.4009	14,929.7	57.157	14,929.7	55.395	14,929.7	58.7815	14,929.7	45.9538	14,929.7	56.8681	14,929.7	44.8011	14,929.7	55.9854	14,929.7	43.244	14,929.7	44.044	14,929.7	36.5975	14,929.7	55.6458	14,929.7	35.4619	14,929.7	57.6946	14,929.7	24.864	14,929.7	44.2682	14,929.7	33.5556	14,929.7	33.318	14,929.7	36.9162	14,929.7	45.3353	14,929.7	42.1881	14,929.7	45.3469	14,929.7	40.0936	14,929.7	44.6824	14,929.7	33.3663	14,929.7	32.05	14,929.7	36.4529
15,454.1	87.9913	15,454.1	86.7893	15,454.1	86.5925	15,454.1	83.5442	15,454.1	83.2571	15,454.1	78.7602	15,454.1	77.1389	15,454.1	69.7513	15,454.1	66.3044	15,454.1	60.6403	15,454.1	54.7875	15,454.1	45.0744	15,454.1	62.4861	15,454.1	56.7589	15,454.1	61.0473	15,454.1	52.9249	15,454.1	56.5356	15,454.1	45.9964	15,454.1	49.6518	15,454.1	44.6937	15,454.1	58.6094	15,454.1	37.88	15,454.1	62.6146	15,454.1	39.3991	15,454.1	41.3243	15,454.1	43.3755	15,454.1	35.5031	15,454.1	31.5208	15,454.1	46.8572	15,454.1	41.6037	15,454.1	47.2772	15,454.1	43.7672	15,454.1	46.5413	15,454.1	32.0226	15,454.1	37.9039	15,454.1	42.3273
15,999	87.2069	15,999	86.023	15,999	86.0994	15,999	82.9488	15,999	82.9828	15,999	77.445	15,999	76.2649	15,999	67.5187	15,999	63.7768	15,999	60.8879	15,999	60.0312	15,999	58.1399	15,999	65.0496	15,999	58.5991	15,999	60.1853	15,999	54.9645	15,999	57.153	15,999	46.3221	15,999	52.7277	15,999	48.3333	15,999	61.5646	15,999	37.1684	15,999	64.2559	15,999	41.5896	15,999	46.9821	15,999	43.9687	15,999	33.6111	15,999	28.731	15,999	45.6294	15,999	38.3082	15,999	48.6904	15,999	43.5253	15,999	45.3957	15,999	35.5763	15,999	37.2154	15,999	43.0133
16,564.5	85.0805	16,564.5	84.0691	16,564.5	84.6685	16,564.5	81.6237	16,564.5	82.0319	16,564.5	75.6718	16,564.5	75.0843	16,564.5	68.6538	16,564.5	62.2182	16,564.5	57.173	16,564.5	66.0814	16,564.5	57.5913	16,564.5	67.2516	16,564.5	55.9839	16,564.5	63.8055	16,564.5	50.45	16,564.5	57.7493	16,564.5	43.9138	16,564.5	52.5463	16,564.5	44.0848	16,564.5	62.2521	16,564.5	36.7888	16,564.5	65.0638	16,564.5	42.3337	16,564.5	48.1785	16,564.5	41.0994	16,564.5	37.1157	16,564.5	32.4525	16,564.5	46.5461	16,564.5	41.5812	16,564.5	51.3771	16,564.5	43.1534	16,564.5	49.4799	16,564.5	38.6075	16,564.5	34.5312	16,564.5	40.8497
17,147.5	82.1888	17,147.5	81.3713	17,147.5	82.4338	17,147.5	78.8089	17,147.5	79.7325	17,147.5	72.7373	17,147.5	72.0567	17,147.5	65.2078	17,147.5	50.4951	17,147.5	60.8494	17,147.5	68.5781	17,147.5	60.653	17,147.5	65.2335	17,147.5	61.1661	17,147.5	63.4898	17,147.5	56.2196	17,147.5	55.2813	17,147.5	48.4386	17,147.5	52.7279	17,147.5	45.5954	17,147.5	58.8496	17,147.5	42.6718	17,147.5	64.3589	17,147.5	43.0508	17,147.5	40.8184	17,147.5	40.6423	17,147.5	45.7586	17,147.5	42.2979	17,147.5	49.1225	17,147.5	44.0444	17,147.5	49.1462	17,147.5	41.7839	17,147.5	50.0092	17,147.5	38.8291	17,147.5	36.3011	17,147.5	38.8322
17,753.9	83.4307	17,753.9	82.2787	17,753.9	82.2937	17,753.9	77.917	17,753.9	76.9851	17,753.9	68.7596	17,753.9	64.9359	17,753.9	58.7879	17,753.9	65.1527	17,753.9	65.6428	17,753.9	69.6362	17,753.9	65.0312	17,753.9	64.4069	17,753.9	62.3431	17,753.9	61.8351	17,753.9	59.7984	17,753.9	57.5987	17,753.9	49.5779	17,753.9	54.109	17,753.9	46.3861	17,753.9	59.0841	17,753.9	39.8822	17,753.9	64.657	17,753.9	47.7174	17,753.9	36.7126	17,753.9	42.313	17,753.9	43.0337	17,753.9	38.3934	17,753.9	48.6686	17,753.9	42.1202	17,753.9	47.5235	17,753.9	39.1973	17,753.9	49.6797	17,753.9	27.7255	17,753.9	40.2121	17,753.9	40.6131
18,377.9	83.8622	18,377.9	82.4692	18,377.9	82.1966	18,377.9	76.882	18,377.9	75.8268	18,377.9	64.9699	18,377.9	62.3129	18,377.9	64.9802	18,377.9	69.2892	18,377.9	66.2817	18,377.9	68.5019	18,377.9	64.3129	18,377.9	62.8601	18,377.9	61.5588	18,377.9	63.1985	18,377.9	58.1915	18,377.9	56.6378	18,377.9	48.189	18,377.9	53.165	18,377.9	42.1176	18,377.9	61.5092	18,377.9	36.9662	18,377.9	64.6495	18,377.9	45.8703	18,377.9	40.0766	18,377.9	38.0444	18,377.9	40.9491	18,377.9	37.8745	18,377.9	48.1265	18,377.9	32.2714	18,377.9	42.3167	18,377.9	30.1551	18,377.9	46.6942	18,377.9	40.6717	18,377.9	44.5808	18,377.9	43.0997
19,028.3	83.5132	19,028.3	81.7626	19,028.3	81.4012	19,028.3	74.8496	19,028.3	74.8486	19,028.3	58.9881	19,028.3	65.6814	19,028.3	68.1861	19,028.3	71.0406	19,028.3	64.8862	19,028.3	69.0567	19,028.3	63.464	19,028.3	66.4297	19,028.3	60.5129	19,028.3	61.6735	19,028.3	53.7653	19,028.3	54.6684	19,028.3	40.3941	19,028.3	50.336	19,028.3	39.5029	19,028.3	62.1188	19,028.3	28.8655	19,028.3	65.291	19,028.3	45.7757	19,028.3	41.9584	19,028.3	43.0967	19,028.3	38.5747	19,028.3	41.0437	19,028.3	50.2961	19,028.3	36.6811	19,028.3	45.1263	19,028.3	29.9307	19,028.3	46.0229	19,028.3	33.5312	19,028.3	46.5045	19,028.3	42.15
19,699.2	82.0142	19,699.2	79.7772	19,699.2	80.3793	19,699.2	72.0112	19,699.2	74.8033	19,699.2	61.8714	19,699.2	68.4893	19,699.2	68.6998	19,699.2	71.1695	19,699.2	62.5415	19,699.2	69.2628	19,699.2	62.3999	19,699.2	64.194	19,699.2	55.6385	19,699.2	59.6789	19,699.2	51.7347	19,699.2	54.7366	19,699.2	36.8107	19,699.2	47.6381	19,699.2	44.6747	19,699.2	61.7065	19,699.2	28.1718	19,699.2	64.1566	19,699.2	43.1629	19,699.2	37.521	19,699.2	42.5611	19,699.2	41.5966	19,699.2	41.8929	19,699.2	49.6212	19,699.2	28.6033	19,699.2	38.6124	19,699.2	32.639	19,699.2	41.0044	19,699.2	38.9065	19,699.2	41.9647	19,699.2	43.0011
19,998	81.5917	19,998	79.1712	19,998	80.0833	19,998	71.4046	19,998	74.7842	19,998	64.0689	19,998	67.4668	19,998	67.8486	19,998	71.17	19,998	62.1959	19,998	68.738	19,998	61.6899	19,998	63.4415	19,998	50.2316	19,998	60.121	19,998	51.5284	19,998	53.5619	19,998	43.8713	19,998	40.6604	19,998	45.1629	19,998	61.5835	19,998	36.8091	19,998	64.4018	19,998	43.7236	19,998	26.9487	19,998	44.8394	19,998	38.1249	19,998	36.8874	19,998	50.0776	19,998	24.717	19,998	26.8762	19,998	45.4466	19,998	40.2518	19,998	43.844	19,998	38.2005	19,998	40.7229
