"SPL Horizontal"
"On-Axis"		"10°"		"-10°"		"20°"		"-20°"		"30°"		"-30°"		"40°"		"-40°"		"50°"		"-50°"		"60°"		"-60°"		"70°"		"-70°"		"80°"		"-80°"		"90°"		"-90°"		"100°"		"-100°"		"110°"		"-110°"		"120°"		"-120°"		"130°"		"-130°"		"140°"		"-140°"		"150°"		"-150°"		"160°"		"-160°"		"170°"		"-170°"		"180°"
"Frequency / Hz"	"Sound Pressure Level / dB (re 20 µPa/V)  [2.83  V @ 1. m]"	"Frequency / Hz"	"Sound Pressure Level / dB (re 20 µPa/V)  [2.83  V @ 1. m]"	"Frequency / Hz"	"Sound Pressure Level / dB (re 20 µPa/V)  [2.83  V @ 1. m]"	"Frequency / Hz"	"Sound Pressure Level / dB (re 20 µPa/V)  [2.83  V @ 1. m]"	"Frequency / Hz"	"Sound Pressure Level / dB (re 20 µPa/V)  [2.83  V @ 1. m]"	"Frequency / Hz"	"Sound Pressure Level / dB (re 20 µPa/V)  [2.83  V @ 1. m]"	"Frequency / Hz"	"Sound Pressure Level / dB (re 20 µPa/V)  [2.83  V @ 1. m]"	"Frequency / Hz"	"Sound Pressure Level / dB (re 20 µPa/V)  [2.83  V @ 1. m]"	"Frequency / Hz"	"Sound Pressure Level / dB (re 20 µPa/V)  [2.83  V @ 1. m]"	"Frequency / Hz"	"Sound Pressure Level / dB (re 20 µPa/V)  [2.83  V @ 1. m]"	"Frequency / Hz"	"Sound Pressure Level / dB (re 20 µPa/V)  [2.83  V @ 1. m]"	"Frequency / Hz"	"Sound Pressure Level / dB (re 20 µPa/V)  [2.83  V @ 1. m]"	"Frequency / Hz"	"Sound Pressure Level / dB (re 20 µPa/V)  [2.83  V @ 1. m]"	"Frequency / Hz"	"Sound Pressure Level / dB (re 20 µPa/V)  [2.83  V @ 1. m]"	"Frequency / Hz"	"Sound Pressure Level / dB (re 20 µPa/V)  [2.83  V @ 1. m]"	"Frequency / Hz"	"Sound Pressure Level / dB (re 20 µPa/V)  [2.83  V @ 1. m]"	"Frequency / Hz"	"Sound Pressure Level / dB (re 20 µPa/V)  [2.83  V @ 1. m]"	"Frequency / Hz"	"Sound Pressure Level / dB (re 20 µPa/V)  [2.83  V @ 1. m]"	"Frequency / Hz"	"Sound Pressure Level / dB (re 20 µPa/V)  [2.83  V @ 1. m]"	"Frequency / Hz"	"Sound Pressure Level / dB (re 20 µPa/V)  [2.83  V @ 1. m]"	"Frequency / Hz"	"Sound Pressure Level / dB (re 20 µPa/V)  [2.83  V @ 1. m]"	"Frequency / Hz"	"Sound Pressure Level / dB (re 20 µPa/V)  [2.83  V @ 1. m]"	"Frequency / Hz"	"Sound Pressure Level / dB (re 20 µPa/V)  [2.83  V @ 1. m]"	"Frequency / Hz"	"Sound Pressure Level / dB (re 20 µPa/V)  [2.83  V @ 1. m]"	"Frequency / Hz"	"Sound Pressure Level / dB (re 20 µPa/V)  [2.83  V @ 1. m]"	"Frequency / Hz"	"Sound Pressure Level / dB (re 20 µPa/V)  [2.83  V @ 1. m]"	"Frequency / Hz"	"Sound Pressure Level / dB (re 20 µPa/V)  [2.83  V @ 1. m]"	"Frequency / Hz"	"Sound Pressure Level / dB (re 20 µPa/V)  [2.83  V @ 1. m]"	"Frequency / Hz"	"Sound Pressure Level / dB (re 20 µPa/V)  [2.83  V @ 1. m]"	"Frequency / Hz"	"Sound Pressure Level / dB (re 20 µPa/V)  [2.83  V @ 1. m]"	"Frequency / Hz"	"Sound Pressure Level / dB (re 20 µPa/V)  [2.83  V @ 1. m]"	"Frequency / Hz"	"Sound Pressure Level / dB (re 20 µPa/V)  [2.83  V @ 1. m]"	"Frequency / Hz"	"Sound Pressure Level / dB (re 20 µPa/V)  [2.83  V @ 1. m]"	"Frequency / Hz"	"Sound Pressure Level / dB (re 20 µPa/V)  [2.83  V @ 1. m]"	"Frequency / Hz"	"Sound Pressure Level / dB (re 20 µPa/V)  [2.83  V @ 1. m]"	"Frequency / Hz"	"Sound Pressure Level / dB (re 20 µPa/V)  [2.83  V @ 1. m]"
20.5078	44.1856	20.5078	44.0155	20.5078	44.3471	20.5078	43.8433	20.5078	44.4932	20.5078	43.6756	20.5078	44.6163	20.5078	43.52	20.5078	44.7082	20.5078	43.3862	20.5078	44.7616	20.5078	43.2846	20.5078	44.771	20.5078	43.2234	20.5078	44.7349	20.5078	43.2062	20.5078	44.6569	20.5078	43.2301	20.5078	44.546	20.5078	43.2862	20.5078	44.4157	20.5078	43.3627	20.5078	44.281	20.5078	43.4476	20.5078	44.1559	20.5078	43.531	20.5078	44.0501	20.5078	43.6066	20.5078	43.968	20.5078	43.6711	20.5078	43.9081	20.5078	43.7238	20.5078	43.8651	20.5078	43.766	20.5078	43.8316	20.5078	43.8005
21.9727	46.3268	21.9727	46.3566	21.9727	46.2776	21.9727	46.3652	21.9727	46.2111	21.9727	46.3514	21.9727	46.1295	21.9727	46.3155	21.9727	46.0358	21.9727	46.2599	21.9727	45.9337	21.9727	46.1896	21.9727	45.8285	21.9727	46.1112	21.9727	45.7259	21.9727	46.032	21.9727	45.6322	21.9727	45.9585	21.9727	45.5527	21.9727	45.895	21.9727	45.4912	21.9727	45.843	21.9727	45.45	21.9727	45.8021	21.9727	45.4296	21.9727	45.7698	21.9727	45.4295	21.9727	45.7424	21.9727	45.4475	21.9727	45.7158	21.9727	45.4798	21.9727	45.6866	21.9727	45.5216	21.9727	45.6522	21.9727	45.5673	21.9727	45.6119
23.4375	48.7987	23.4375	48.664	23.4375	48.9325	23.4375	48.5352	23.4375	49.0588	23.4375	48.419	23.4375	49.1713	23.4375	48.3214	23.4375	49.2642	23.4375	48.2472	23.4375	49.3328	23.4375	48.199	23.4375	49.3732	23.4375	48.1765	23.4375	49.3835	23.4375	48.176	23.4375	49.3632	23.4375	48.1916	23.4375	49.3145	23.4375	48.2166	23.4375	49.2413	23.4375	48.2448	23.4375	49.1498	23.4375	48.2726	23.4375	49.0469	23.4375	48.2988	23.4375	48.9394	23.4375	48.3247	23.4375	48.8331	23.4375	48.3533	23.4375	48.7324	23.4375	48.3885	23.4375	48.6404	23.4375	48.4333	23.4375	48.5591	23.4375	48.49
24.9023	48.4708	24.9023	48.3763	24.9023	48.555	24.9023	48.2797	24.9023	48.6218	24.9023	48.1897	24.9023	48.6661	24.9023	48.1147	24.9023	48.6841	24.9023	48.0616	24.9023	48.6746	24.9023	48.0359	24.9023	48.6388	24.9023	48.0398	24.9023	48.581	24.9023	48.0719	24.9023	48.5092	24.9023	48.1266	24.9023	48.4335	24.9023	48.1946	24.9023	48.3644	24.9023	48.2653	24.9023	48.3102	24.9023	48.3285	24.9023	48.2752	24.9023	48.3767	24.9023	48.2599	24.9023	48.4061	24.9023	48.2618	24.9023	48.416	24.9023	48.277	24.9023	48.4091	24.9023	48.3014	24.9023	48.3893	24.9023	48.3309	24.9023	48.3616
26.3672	52.1883	26.3672	52.2066	26.3672	52.1614	26.3672	52.2163	26.3672	52.1264	26.3672	52.2179	26.3672	52.0842	26.3672	52.2123	26.3672	52.0363	26.3672	52.2	26.3672	51.9846	26.3672	52.1813	26.3672	51.9311	26.3672	52.1558	26.3672	51.878	26.3672	52.1227	26.3672	51.8273	26.3672	52.0815	26.3672	51.7806	26.3672	52.0328	26.3672	51.7393	26.3672	51.9782	26.3672	51.7047	26.3672	51.9204	26.3672	51.6777	26.3672	51.8631	26.3672	51.6588	26.3672	51.8096	26.3672	51.6478	26.3672	51.7627	26.3672	51.6441	26.3672	51.7239	26.3672	51.647	26.3672	51.6936	26.3672	51.656	26.3672	51.6713
27.832	53.4624	27.832	53.4452	27.832	53.4705	27.832	53.4199	27.832	53.469	27.832	53.3878	27.832	53.4578	27.832	53.3506	27.832	53.4369	27.832	53.3096	27.832	53.4068	27.832	53.2656	27.832	53.368	27.832	53.2195	27.832	53.3218	27.832	53.1716	27.832	53.2701	27.832	53.1227	27.832	53.2148	27.832	53.0739	27.832	53.1583	27.832	53.0262	27.832	53.1027	27.832	52.9812	27.832	53.0497	27.832	52.9403	27.832	53.0005	27.832	52.9054	27.832	52.9563	27.832	52.878	27.832	52.9184	27.832	52.8597	27.832	52.8878	27.832	52.8514	27.832	52.8659	27.832	52.8535
29.2969	54.6167	29.2969	54.6462	29.2969	54.5813	29.2969	54.6697	29.2969	54.5401	29.2969	54.6872	29.2969	54.4932	29.2969	54.6986	29.2969	54.4411	29.2969	54.7032	29.2969	54.3844	29.2969	54.7001	29.2969	54.324	29.2969	54.688	29.2969	54.2618	29.2969	54.6657	29.2969	54.1999	29.2969	54.6325	29.2969	54.1412	29.2969	54.5887	29.2969	54.0891	29.2969	54.5352	29.2969	54.0463	29.2969	54.474	29.2969	54.0154	29.2969	54.4077	29.2969	53.9977	29.2969	54.3393	29.2969	53.9935	29.2969	54.2717	29.2969	54.0026	29.2969	54.2077	29.2969	54.0238	29.2969	54.1493	29.2969	54.0561	29.2969	54.0983
30.7617	54.9889	30.7617	54.9625	30.7617	55.0175	30.7617	54.94	30.7617	55.0462	30.7617	54.9229	30.7617	55.0734	30.7617	54.9121	30.7617	55.0976	30.7617	54.9074	30.7617	55.1175	30.7617	54.9077	30.7617	55.1322	30.7617	54.9114	30.7617	55.1411	30.7617	54.9164	30.7617	55.1437	30.7617	54.9207	30.7617	55.1399	30.7617	54.9232	30.7617	55.1297	30.7617	54.9234	30.7617	55.1133	30.7617	54.9216	30.7617	55.0914	30.7617	54.9187	30.7617	55.0653	30.7617	54.9162	30.7617	55.0366	30.7617	54.9156	30.7617	55.0075	30.7617	54.9183	30.7617	54.9802	30.7617	54.9256	30.7617	54.9567	30.7617	54.9383
32.2266	54.4852	32.2266	54.495	32.2266	54.47	32.2266	54.5014	32.2266	54.448	32.2266	54.5061	32.2266	54.4181	32.2266	54.511	32.2266	54.38	32.2266	54.5168	32.2266	54.3345	32.2266	54.5235	32.2266	54.2834	32.2266	54.5298	32.2266	54.23	32.2266	54.5333	32.2266	54.1784	32.2266	54.5316	32.2266	54.1333	32.2266	54.5226	32.2266	54.0989	32.2266	54.5056	32.2266	54.0776	32.2266	54.4809	32.2266	54.0703	32.2266	54.4494	32.2266	54.0763	32.2266	54.4124	32.2266	54.0938	32.2266	54.3715	32.2266	54.1208	32.2266	54.3278	32.2266	54.1551	32.2266	54.2827	32.2266	54.1947	32.2266	54.2379
33.6914	53.4813	33.6914	53.5112	33.6914	53.4376	33.6914	53.5268	33.6914	53.3813	33.6914	53.528	33.6914	53.3142	33.6914	53.5152	33.6914	53.2386	33.6914	53.4887	33.6914	53.1571	33.6914	53.4496	33.6914	53.0723	33.6914	53.3989	33.6914	52.9865	33.6914	53.3382	33.6914	52.9019	33.6914	53.2693	33.6914	52.8205	33.6914	53.194	33.6914	52.7446	33.6914	53.1142	33.6914	52.6765	33.6914	53.0318	33.6914	52.6192	33.6914	52.9487	33.6914	52.5753	33.6914	52.8673	33.6914	52.5472	33.6914	52.7896	33.6914	52.5361	33.6914	52.7182	33.6914	52.5425	33.6914	52.6555	33.6914	52.5656	33.6914	52.6039
35.1562	55.0921	35.1562	55.1034	35.1562	55.0735	35.1562	55.1076	35.1562	55.0474	35.1562	55.1049	35.1562	55.0137	35.1562	55.0948	35.1562	54.9726	35.1562	55.0769	35.1562	54.9248	35.1562	55.0504	35.1562	54.8714	35.1562	55.015	35.1562	54.8143	35.1562	54.9709	35.1562	54.7561	35.1562	54.9193	35.1562	54.6999	35.1562	54.8625	35.1562	54.6481	35.1562	54.8035	35.1562	54.6025	35.1562	54.7453	35.1562	54.564	35.1562	54.6904	35.1562	54.5329	35.1562	54.6407	35.1562	54.5097	35.1562	54.5971	35.1562	54.4952	35.1562	54.5601	35.1562	54.49	35.1562	54.5301	35.1562	54.4943	35.1562	54.5079
36.6211	61.011	36.6211	61.0065	36.6211	61.0097	36.6211	60.9968	36.6211	61.0019	36.6211	60.9825	36.6211	60.9873	36.6211	60.9641	36.6211	60.9661	36.6211	60.9419	36.6211	60.9388	36.6211	60.916	36.6211	60.9063	36.6211	60.8869	36.6211	60.8699	36.6211	60.8548	36.6211	60.8313	36.6211	60.8206	36.6211	60.7921	36.6211	60.7854	36.6211	60.754	36.6211	60.7504	36.6211	60.7182	36.6211	60.717	36.6211	60.6858	36.6211	60.6864	36.6211	60.6575	36.6211	60.6596	36.6211	60.6341	36.6211	60.6372	36.6211	60.6163	36.6211	60.6196	36.6211	60.6047	36.6211	60.6072	36.6211	60.5994	36.6211	60.6004
38.0859	66.4544	38.0859	66.4579	38.0859	66.4417	38.0859	66.452	38.0859	66.4204	38.0859	66.4371	38.0859	66.391	38.0859	66.4134	38.0859	66.3546	38.0859	66.3815	38.0859	66.3124	38.0859	66.3421	38.0859	66.2658	38.0859	66.296	38.0859	66.2161	38.0859	66.2446	38.0859	66.1649	38.0859	66.1894	38.0859	66.1139	38.0859	66.1326	38.0859	66.0646	38.0859	66.0768	38.0859	66.0182	38.0859	66.0243	38.0859	65.9759	38.0859	65.9773	38.0859	65.9388	38.0859	65.9374	38.0859	65.9078	38.0859	65.9053	38.0859	65.8837	38.0859	65.8815	38.0859	65.8673	38.0859	65.8659	38.0859	65.8588	38.0859	65.8583
39.5508	69.9807	39.5508	69.9748	39.5508	69.9773	39.5508	69.9595	39.5508	69.9648	39.5508	69.9352	39.5508	69.9436	39.5508	69.9025	39.5508	69.9145	39.5508	69.8623	39.5508	69.8782	39.5508	69.8156	39.5508	69.8359	39.5508	69.7639	39.5508	69.7886	39.5508	69.709	39.5508	69.7377	39.5508	69.6527	39.5508	69.6843	39.5508	69.5973	39.5508	69.6301	39.5508	69.5447	39.5508	69.5766	39.5508	69.4968	39.5508	69.5256	39.5508	69.4549	39.5508	69.479	39.5508	69.4201	39.5508	69.4386	39.5508	69.3929	39.5508	69.4058	39.5508	69.3737	39.5508	69.3817	39.5508	69.3627	39.5508	69.3665	39.5508	69.3602
41.0156	72.5585	41.0156	72.5531	41.0156	72.5535	41.0156	72.5373	41.0156	72.5383	41.0156	72.5118	41.0156	72.5138	41.0156	72.4775	41.0156	72.4812	41.0156	72.4357	41.0156	72.4423	41.0156	72.3884	41.0156	72.399	41.0156	72.3379	41.0156	72.3538	41.0156	72.2872	41.0156	72.3093	41.0156	72.2392	41.0156	72.2675	41.0156	72.197	41.0156	72.2302	41.0156	72.1626	41.0156	72.1982	41.0156	72.1373	41.0156	72.1717	41.0156	72.1207	41.0156	72.1506	41.0156	72.1115	41.0156	72.1345	41.0156	72.1075	41.0156	72.1229	41.0156	72.1065	41.0156	72.1153	41.0156	72.107	41.0156	72.1108	41.0156	72.1084
42.4805	74.6	42.4805	74.5956	42.4805	74.5927	42.4805	74.5797	42.4805	74.5737	42.4805	74.5528	42.4805	74.5434	42.4805	74.5156	42.4805	74.5026	42.4805	74.4694	42.4805	74.4524	42.4805	74.4154	42.4805	74.3943	42.4805	74.3553	42.4805	74.33	42.4805	74.2909	42.4805	74.2613	42.4805	74.224	42.4805	74.1905	42.4805	74.1567	42.4805	74.1197	42.4805	74.0908	42.4805	74.0512	42.4805	74.028	42.4805	73.9873	42.4805	73.9699	42.4805	73.93	42.4805	73.9179	42.4805	73.8814	42.4805	73.8737	42.4805	73.8432	42.4805	73.8388	42.4805	73.8168	42.4805	73.8146	42.4805	73.8031	42.4805	73.8024
43.9453	75.9136	43.9453	75.9081	43.9453	75.9079	43.9453	75.8918	43.9453	75.8912	43.9453	75.8649	43.9453	75.8639	43.9453	75.8284	43.9453	75.8269	43.9453	75.7832	43.9453	75.7813	43.9453	75.7307	43.9453	75.7285	43.9453	75.6724	43.9453	75.6702	43.9453	75.6103	43.9453	75.6084	43.9453	75.5463	43.9453	75.545	43.9453	75.4826	43.9453	75.4821	43.9453	75.4211	43.9453	75.4216	43.9453	75.364	43.9453	75.3653	43.9453	75.3128	43.9453	75.3147	43.9453	75.269	43.9453	75.2712	43.9453	75.2339	43.9453	75.2359	43.9453	75.2084	43.9453	75.2099	43.9453	75.193	43.9453	75.1938	43.9453	75.1881
45.4102	77.1029	45.4102	77.0979	45.4102	77.0966	45.4102	77.0817	45.4102	77.0794	45.4102	77.0547	45.4102	77.0517	45.4102	77.0177	45.4102	77.0144	45.4102	76.9716	45.4102	76.9686	45.4102	76.9179	45.4102	76.9157	45.4102	76.8583	45.4102	76.8574	45.4102	76.7946	45.4102	76.7955	45.4102	76.729	45.4102	76.7317	45.4102	76.6635	45.4102	76.6681	45.4102	76.6004	45.4102	76.6066	45.4102	76.5416	45.4102	76.549	45.4102	76.4891	45.4102	76.497	45.4102	76.4444	45.4102	76.4521	45.4102	76.4089	45.4102	76.4155	45.4102	76.3833	45.4102	76.3882	45.4102	76.3684	45.4102	76.371	45.4102	76.3643
46.875	78.2111	46.875	78.2045	46.875	78.2067	46.875	78.187	46.875	78.1914	46.875	78.159	46.875	78.1656	46.875	78.1213	46.875	78.1303	46.875	78.0751	46.875	78.0865	46.875	78.0218	46.875	78.0355	46.875	77.963	46.875	77.9788	46.875	77.9007	46.875	77.9182	46.875	77.8371	46.875	77.8555	46.875	77.774	46.875	77.7927	46.875	77.7137	46.875	77.7316	46.875	77.6578	46.875	77.6742	46.875	77.6081	46.875	77.6223	46.875	77.5659	46.875	77.5774	46.875	77.5323	46.875	77.5409	46.875	77.5081	46.875	77.5138	46.875	77.4939	46.875	77.4968	46.875	77.4901
48.3398	79.2858	48.3398	79.2793	48.3398	79.2805	48.3398	79.261	48.3398	79.2635	48.3398	79.2315	48.3398	79.2354	48.3398	79.1916	48.3398	79.197	48.3398	79.1427	48.3398	79.1498	48.3398	79.0863	48.3398	79.095	48.3398	79.0242	48.3398	79.0346	48.3398	78.9587	48.3398	78.9703	48.3398	78.892	48.3398	78.9042	48.3398	78.8262	48.3398	78.8384	48.3398	78.7635	48.3398	78.7748	48.3398	78.7055	48.3398	78.7154	48.3398	78.654	48.3398	78.6619	48.3398	78.6101	48.3398	78.6161	48.3398	78.5749	48.3398	78.5791	48.3398	78.5493	48.3398	78.5518	48.3398	78.5339	48.3398	78.5351	48.3398	78.5291
51.2695	81.1249	51.2695	81.1173	51.2695	81.1208	51.2695	81.0981	51.2695	81.1051	51.2695	81.0679	51.2695	81.0785	51.2695	81.0276	51.2695	81.0419	51.2695	80.9787	51.2695	80.9965	51.2695	80.9226	51.2695	80.944	51.2695	80.8615	51.2695	80.8861	51.2695	80.7975	51.2695	80.8247	51.2695	80.7327	51.2695	80.762	51.2695	80.6694	51.2695	80.6998	51.2695	80.6096	51.2695	80.6399	51.2695	80.5551	51.2695	80.5842	51.2695	80.5075	51.2695	80.534	51.2695	80.4678	51.2695	80.4906	51.2695	80.437	51.2695	80.455	51.2695	80.4157	51.2695	80.4281	51.2695	80.4041	51.2695	80.4104	51.2695	80.4023
52.7344	81.9165	52.7344	81.9065	52.7344	81.9138	52.7344	81.8843	52.7344	81.8987	52.7344	81.8505	52.7344	81.8719	52.7344	81.8065	52.7344	81.8343	52.7344	81.7537	52.7344	81.7873	52.7344	81.6943	52.7344	81.7327	52.7344	81.6304	52.7344	81.6724	52.7344	81.5644	52.7344	81.6087	52.7344	81.4985	52.7344	81.5436	52.7344	81.4348	52.7344	81.4795	52.7344	81.3755	52.7344	81.4183	52.7344	81.322	52.7344	81.3617	52.7344	81.2757	52.7344	81.3111	52.7344	81.2378	52.7344	81.2677	52.7344	81.2088	52.7344	81.2322	52.7344	81.1892	52.7344	81.2052	52.7344	81.179	52.7344	81.1872	52.7344	81.1784
54.1992	82.7017	54.1992	82.6924	54.1992	82.6979	54.1992	82.6705	54.1992	82.6814	54.1992	82.6368	54.1992	82.6526	54.1992	82.5925	54.1992	82.6128	54.1992	82.5393	54.1992	82.5634	54.1992	82.4794	54.1992	82.5062	54.1992	82.4149	54.1992	82.4433	54.1992	82.3481	54.1992	82.3769	54.1992	82.2814	54.1992	82.3095	54.1992	82.217	54.1992	82.2432	54.1992	82.1567	54.1992	82.1802	54.1992	82.1022	54.1992	82.1224	54.1992	82.0548	54.1992	82.0713	54.1992	82.0154	54.1992	82.0283	54.1992	81.9847	54.1992	81.9941	54.1992	81.9631	54.1992	81.9691	54.1992	81.9506	54.1992	81.9535	54.1992	81.9473
55.6641	83.5351	55.6641	83.5275	55.6641	83.5285	55.6641	83.5058	55.6641	83.5077	55.6641	83.4709	55.6641	83.4737	55.6641	83.4242	55.6641	83.4276	55.6641	83.3675	55.6641	83.3712	55.6641	83.3028	55.6641	83.3065	55.6641	83.2327	55.6641	83.2361	55.6641	83.1597	55.6641	83.1625	55.6641	83.0863	55.6641	83.0885	55.6641	83.0152	55.6641	83.0166	55.6641	82.9486	55.6641	82.9493	55.6641	82.8884	55.6641	82.8885	55.6641	82.8361	55.6641	82.8358	55.6641	82.7928	55.6641	82.7922	55.6641	82.7591	55.6641	82.7582	55.6641	82.7349	55.6641	82.7341	55.6641	82.7204	55.6641	82.7199	55.6641	82.7154
58.5938	84.6866	58.5938	84.6771	58.5938	84.6814	58.5938	84.6534	58.5938	84.6614	58.5938	84.6166	58.5938	84.6271	58.5938	84.5681	58.5938	84.5793	58.5938	84.5097	58.5938	84.5196	58.5938	84.4436	58.5938	84.4499	58.5938	84.372	58.5938	84.3725	58.5938	84.2973	58.5938	84.29	58.5938	84.2218	58.5938	84.2055	58.5938	84.1476	58.5938	84.1221	58.5938	84.0765	58.5938	84.0429	58.5938	84.0103	58.5938	83.9707	58.5938	83.9501	58.5938	83.9081	58.5938	83.8974	58.5938	83.8569	58.5938	83.8532	58.5938	83.8183	58.5938	83.8186	58.5938	83.7929	58.5938	83.7944	58.5938	83.7808	58.5938	83.7815
60.0586	85.1105	60.0586	85.0972	60.0586	85.109	60.0586	85.0699	60.0586	85.093	60.0586	85.0295	60.0586	85.0627	60.0586	84.9777	60.0586	85.0193	60.0586	84.9164	60.0586	84.9643	60.0586	84.8478	60.0586	84.8995	60.0586	84.7746	60.0586	84.8273	60.0586	84.6993	60.0586	84.7503	60.0586	84.6246	60.0586	84.6713	60.0586	84.5527	60.0586	84.5931	60.0586	84.4856	60.0586	84.5184	60.0586	84.4251	60.0586	84.4497	60.0586	84.3722	60.0586	84.3891	60.0586	84.3279	60.0586	84.3382	60.0586	84.2927	60.0586	84.2982	60.0586	84.2672	60.0586	84.2696	60.0586	84.2517	60.0586	84.2524	60.0586	84.2466
62.9883	85.4219	62.9883	85.4081	62.9883	85.4198	62.9883	85.3791	62.9883	85.402	62.9883	85.3357	62.9883	85.3692	62.9883	85.2797	62.9883	85.3224	62.9883	85.213	62.9883	85.2635	62.9883	85.1381	62.9883	85.1944	62.9883	85.0578	62.9883	85.1176	62.9883	84.9749	62.9883	85.036	62.9883	84.8923	62.9883	84.9525	62.9883	84.8129	62.9883	84.87	62.9883	84.7389	62.9883	84.7912	62.9883	84.6726	62.9883	84.7184	62.9883	84.6152	62.9883	84.6537	62.9883	84.568	62.9883	84.5986	62.9883	84.5316	62.9883	84.5542	62.9883	84.5063	62.9883	84.5212	62.9883	84.4925	62.9883	84.4998	62.9883	84.4903
64.4531	85.4594	64.4531	85.4454	64.4531	85.4578	64.4531	85.4162	64.4531	85.4406	64.4531	85.3728	64.4531	85.4085	64.4531	85.3169	64.4531	85.3625	64.4531	85.2505	64.4531	85.3044	64.4531	85.1758	64.4531	85.2361	64.4531	85.0956	64.4531	85.1602	64.4531	85.0128	64.4531	85.0793	64.4531	84.9301	64.4531	84.9961	64.4531	84.8503	64.4531	84.9136	64.4531	84.7757	64.4531	84.8343	64.4531	84.7085	64.4531	84.7606	64.4531	84.6501	64.4531	84.6947	64.4531	84.602	64.4531	84.638	64.4531	84.5648	64.4531	84.5919	64.4531	84.5391	64.4531	84.5572	64.4531	84.5254	64.4531	84.5344	64.4531	84.5238
67.3828	85.4727	67.3828	85.4568	67.3828	85.4721	67.3828	85.425	67.3828	85.4554	67.3828	85.3785	67.3828	85.423	67.3828	85.3189	67.3828	85.3764	67.3828	85.2483	67.3828	85.3172	67.3828	85.1695	67.3828	85.2474	67.3828	85.0851	67.3828	85.1696	67.3828	84.9983	67.3828	85.0863	67.3828	84.9118	67.3828	85.0004	67.3828	84.8286	67.3828	84.9147	67.3828	84.7509	67.3828	84.8318	67.3828	84.6811	67.3828	84.7542	67.3828	84.6208	67.3828	84.6842	67.3828	84.5714	67.3828	84.6234	67.3828	84.5337	67.3828	84.5734	67.3828	84.5084	67.3828	84.5351	67.3828	84.4959	67.3828	84.5093	67.3828	84.4962
68.8477	85.4572	68.8477	85.4397	68.8477	85.459	68.8477	85.407	68.8477	85.445	68.8477	85.3604	68.8477	85.4159	68.8477	85.3015	68.8477	85.3728	68.8477	85.2327	68.8477	85.3172	68.8477	85.1566	68.8477	85.2514	68.8477	85.076	68.8477	85.1775	68.8477	84.994	68.8477	85.0984	68.8477	84.9133	68.8477	85.0168	68.8477	84.8364	68.8477	84.9355	68.8477	84.7655	68.8477	84.8573	68.8477	84.7024	68.8477	84.7843	68.8477	84.6484	68.8477	84.7187	68.8477	84.6046	68.8477	84.662	68.8477	84.5718	68.8477	84.6153	68.8477	84.5502	68.8477	84.5794	68.8477	84.5402	68.8477	84.5548	68.8477	84.5417
71.7773	85.4456	71.7773	85.4328	71.7773	85.4431	71.7773	85.4053	71.7773	85.4257	71.7773	85.3642	71.7773	85.3942	71.7773	85.3111	71.7773	85.3498	71.7773	85.2481	71.7773	85.2944	71.7773	85.178	71.7773	85.2305	71.7773	85.1036	71.7773	85.1604	71.7773	85.0279	71.7773	85.0872	71.7773	84.9535	71.7773	85.0136	71.7773	84.8831	71.7773	84.9423	71.7773	84.8187	71.7773	84.8756	71.7773	84.762	71.7773	84.8151	71.7773	84.7141	71.7773	84.7622	71.7773	84.6758	71.7773	84.7174	71.7773	84.6475	71.7773	84.6809	71.7773	84.6294	71.7773	84.6529	71.7773	84.6213	71.7773	84.6334	71.7773	84.6228
74.707	85.5835	74.707	85.5691	74.707	85.5825	74.707	85.5398	74.707	85.5663	74.707	85.497	74.707	85.5356	74.707	85.4423	74.707	85.4918	74.707	85.3782	74.707	85.437	74.707	85.3074	74.707	85.3734	74.707	85.2329	74.707	85.3039	74.707	85.1577	74.707	85.2314	74.707	85.0848	74.707	85.1589	74.707	85.0167	74.707	85.0889	74.707	84.9555	74.707	85.0239	74.707	84.9027	74.707	84.9655	74.707	84.8594	74.707	84.9149	74.707	84.8258	74.707	84.8725	74.707	84.8019	74.707	84.8385	74.707	84.7873	74.707	84.8125	74.707	84.7816	74.707	84.7944	74.707	84.7841
77.6367	85.725	77.6367	85.7104	77.6367	85.7241	77.6367	85.6811	77.6367	85.7076	77.6367	85.6387	77.6367	85.6762	77.6367	85.5855	77.6367	85.6313	77.6367	85.524	77.6367	85.5751	77.6367	85.4572	77.6367	85.5104	77.6367	85.3882	77.6367	85.4401	77.6367	85.3199	77.6367	85.3678	77.6367	85.2548	77.6367	85.2968	77.6367	85.1952	77.6367	85.2299	77.6367	85.1425	77.6367	85.1697	77.6367	85.0976	77.6367	85.1177	77.6367	85.0609	77.6367	85.0747	77.6367	85.0322	77.6367	85.0409	77.6367	85.0108	77.6367	85.0158	77.6367	84.9962	77.6367	84.9987	77.6367	84.9878	77.6367	84.9888	77.6367	84.9853
79.1016	85.7885	79.1016	85.7709	79.1016	85.7895	79.1016	85.7377	79.1016	85.774	79.1016	85.6907	79.1016	85.7427	79.1016	85.6321	79.1016	85.6971	79.1016	85.5648	79.1016	85.6393	79.1016	85.4921	79.1016	85.5722	79.1016	85.4175	79.1016	85.4989	79.1016	85.3441	79.1016	85.4231	79.1016	85.2748	79.1016	85.348	79.1016	85.2119	79.1016	85.2769	79.1016	85.157	79.1016	85.2124	79.1016	85.1111	79.1016	85.1562	79.1016	85.0742	79.1016	85.1093	79.1016	85.046	79.1016	85.0719	79.1016	85.0257	79.1016	85.0435	79.1016	85.0125	79.1016	85.0235	79.1016	85.0058	79.1016	85.011	79.1016	85.0053
82.0312	85.8639	82.0312	85.8421	82.0312	85.8675	82.0312	85.8026	82.0312	85.8528	82.0312	85.7473	82.0312	85.8206	82.0312	85.6786	82.0312	85.7726	82.0312	85.5996	82.0312	85.7109	82.0312	85.514	82.0312	85.6383	82.0312	85.4257	82.0312	85.558	82.0312	85.3386	82.0312	85.4735	82.0312	85.2562	82.0312	85.3882	82.0312	85.1812	82.0312	85.3054	82.0312	85.1156	82.0312	85.2281	82.0312	85.0606	82.0312	85.1586	82.0312	85.0166	82.0312	85.0983	82.0312	84.9833	82.0312	85.048	82.0312	84.9601	82.0312	85.0079	82.0312	84.9463	82.0312	84.9777	82.0312	84.9413	82.0312	84.9568	82.0312	84.9448
84.9609	85.8173	84.9609	85.7874	84.9609	85.8324	84.9609	85.7435	84.9609	85.8326	84.9609	85.6871	84.9609	85.8186	84.9609	85.6207	84.9609	85.7916	84.9609	85.5471	84.9609	85.7534	84.9609	85.4698	84.9609	85.7064	84.9609	85.3925	84.9609	85.6528	84.9609	85.3192	84.9609	85.5954	84.9609	85.2534	84.9609	85.5367	84.9609	85.198	84.9609	85.479	84.9609	85.155	84.9609	85.4243	84.9609	85.1253	84.9609	85.3741	84.9609	85.1086	84.9609	85.3289	84.9609	85.1037	84.9609	85.2886	84.9609	85.1087	84.9609	85.2526	84.9609	85.1216	84.9609	85.2201	84.9609	85.1405	84.9609	85.1906	84.9609	85.1639
87.8906	85.8308	87.8906	85.807	87.8906	85.8356	87.8906	85.7644	87.8906	85.8224	87.8906	85.7046	87.8906	85.7936	87.8906	85.6308	87.8906	85.7524	87.8906	85.5475	87.8906	85.7025	87.8906	85.4603	87.8906	85.648	87.8906	85.3756	87.8906	85.5926	87.8906	85.2995	87.8906	85.5395	87.8906	85.2377	87.8906	85.4914	87.8906	85.1938	87.8906	85.4498	87.8906	85.1694	87.8906	85.4159	87.8906	85.1635	87.8906	85.3896	87.8906	85.173	87.8906	85.37	87.8906	85.1936	87.8906	85.3554	87.8906	85.2203	87.8906	85.3434	87.8906	85.2488	87.8906	85.3313	87.8906	85.2756	87.8906	85.3169	87.8906	85.2985
90.8203	86.3655	90.8203	86.3843	90.8203	86.3195	90.8203	86.3758	90.8203	86.2472	90.8203	86.3406	90.8203	86.1504	90.8203	86.28	90.8203	86.0318	90.8203	86.1958	90.8203	85.8953	90.8203	86.0905	90.8203	85.7456	90.8203	85.9675	90.8203	85.5884	90.8203	85.831	90.8203	85.4296	90.8203	85.6858	90.8203	85.2754	90.8203	85.5377	90.8203	85.1315	90.8203	85.3921	90.8203	85.003	90.8203	85.2542	90.8203	84.894	90.8203	85.1281	90.8203	84.8077	90.8203	85.0164	90.8203	84.7456	90.8203	84.9205	90.8203	84.7081	90.8203	84.8407	90.8203	84.6944	90.8203	84.7773	90.8203	84.7026	90.8203	84.7309
95.2148	85.5433	95.2148	85.5154	95.2148	85.5557	95.2148	85.4735	95.2148	85.5521	95.2148	85.4197	95.2148	85.5329	95.2148	85.357	95.2148	85.499	95.2148	85.2888	95.2148	85.4523	95.2148	85.2188	95.2148	85.3954	95.2148	85.1508	95.2148	85.3315	95.2148	85.088	95.2148	85.2642	95.2148	85.033	95.2148	85.1972	95.2148	84.9872	95.2148	85.134	95.2148	84.9512	95.2148	85.0771	95.2148	84.9247	95.2148	85.0286	95.2148	84.9066	95.2148	84.9889	95.2148	84.8956	95.2148	84.9579	95.2148	84.8904	95.2148	84.9347	95.2148	84.8895	95.2148	84.9178	95.2148	84.892	95.2148	84.9057	95.2148	84.8974
98.1445	85.5842	98.1445	85.5734	98.1445	85.5741	98.1445	85.5424	98.1445	85.5439	98.1445	85.4931	98.1445	85.4955	98.1445	85.4284	98.1445	85.4321	98.1445	85.3525	98.1445	85.358	98.1445	85.2701	98.1445	85.2783	98.1445	85.1866	98.1445	85.1982	98.1445	85.1071	98.1445	85.1228	98.1445	85.0362	98.1445	85.0562	98.1445	84.9771	98.1445	85.001	98.1445	84.9315	98.1445	84.9581	98.1445	84.8995	98.1445	84.9268	98.1445	84.8796	98.1445	84.9054	98.1445	84.8696	98.1445	84.8917	98.1445	84.8663	98.1445	84.8833	98.1445	84.867	98.1445	84.8783	98.1445	84.8694	98.1445	84.8749	98.1445	84.8721
101.074	85.1678	101.074	85.1452	101.074	85.173	101.074	85.1061	101.074	85.1609	101.074	85.053	101.074	85.1332	101.074	84.9894	101.074	85.093	101.074	84.92	101.074	85.0446	101.074	84.85	101.074	84.9932	101.074	84.7849	101.074	84.9445	101.074	84.7301	101.074	84.9038	101.074	84.6903	101.074	84.8754	101.074	84.6684	101.074	84.8612	101.074	84.6656	101.074	84.861	101.074	84.6812	101.074	84.8723	101.074	84.7121	101.074	84.8907	101.074	84.7539	101.074	84.9111	101.074	84.8009	101.074	84.928	101.074	84.8474	101.074	84.9367	101.074	84.8876	101.074	84.9337	101.074	84.9172
105.469	85.0095	105.469	85.0145	105.469	84.9821	105.469	84.9973	105.469	84.9334	105.469	84.9595	105.469	84.8659	105.469	84.9044	105.469	84.7829	105.469	84.8361	105.469	84.6884	105.469	84.7593	105.469	84.587	105.469	84.6791	105.469	84.4833	105.469	84.5999	105.469	84.3824	105.469	84.5254	105.469	84.2895	105.469	84.4581	105.469	84.2094	105.469	84.3995	105.469	84.1466	105.469	84.35	105.469	84.1037	105.469	84.309	105.469	84.0814	105.469	84.2752	105.469	84.078	105.469	84.2463	105.469	84.0897	105.469	84.22	105.469	84.1116	105.469	84.194	105.469	84.1387	105.469	84.1668
108.398	84.9133	108.398	84.8997	108.398	84.8991	108.398	84.8588	108.398	84.8583	108.398	84.7928	108.398	84.7935	108.398	84.7055	108.398	84.7088	108.398	84.602	108.398	84.6092	108.398	84.4889	108.398	84.5003	108.398	84.3728	108.398	84.3879	108.398	84.2605	108.398	84.2775	108.398	84.1577	108.398	84.174	108.398	84.0686	108.398	84.081	108.398	83.9953	108.398	84.0014	108.398	83.9378	108.398	83.9366	108.398	83.8946	108.398	83.887	108.398	83.8633	108.398	83.8515	108.398	83.8411	108.398	83.8285	108.398	83.8258	108.398	83.8155	108.398	83.8159	108.398	83.8101	108.398	83.8106
112.793	84.5691	112.793	84.5509	112.793	84.5593	112.793	84.5052	112.793	84.5228	112.793	84.4343	112.793	84.4622	112.793	84.342	112.793	84.3814	112.793	84.2338	112.793	84.2855	112.793	84.1162	112.793	84.1804	112.793	83.9967	112.793	84.0724	112.793	83.8826	112.793	83.9676	112.793	83.7808	112.793	83.8713	112.793	83.6963	112.793	83.7879	112.793	83.6318	112.793	83.7196	112.793	83.5877	112.793	83.6672	112.793	83.5617	112.793	83.6297	112.793	83.5503	112.793	83.6045	112.793	83.5488	112.793	83.5887	112.793	83.5529	112.793	83.5787	112.793	83.5591	112.793	83.5718	112.793	83.5656
117.188	84.4908	117.188	84.4772	117.188	84.4715	117.188	84.432	117.188	84.4198	117.188	84.3579	117.188	84.3377	117.188	84.2591	117.188	84.2289	117.188	84.1411	117.188	84.0989	117.188	84.0106	117.188	83.9546	117.188	83.8748	117.188	83.8041	117.188	83.7415	117.188	83.6563	117.188	83.6177	117.188	83.5198	117.188	83.5091	117.188	83.402	117.188	83.4194	117.188	83.3082	117.188	83.35	117.188	83.2408	117.188	83.3	117.188	83.1992	117.188	83.2665	117.188	83.1796	117.188	83.245	117.188	83.1765	117.188	83.2308	117.188	83.1837	117.188	83.2194	117.188	83.1955	117.188	83.2079
120.117	84.6691	120.117	84.6467	120.117	84.6586	120.117	84.5926	120.117	84.6151	120.117	84.5096	120.117	84.5398	120.117	84.4014	120.117	84.4353	120.117	84.2732	120.117	84.3055	120.117	84.1309	120.117	84.1559	120.117	83.9815	120.117	83.9929	120.117	83.8318	120.117	83.824	120.117	83.6886	120.117	83.6572	120.117	83.5572	120.117	83.5003	120.117	83.4415	120.117	83.3607	120.117	83.3433	120.117	83.244	120.117	83.2626	120.117	83.1539	120.117	83.1979	120.117	83.0912	120.117	83.1469	120.117	83.0541	120.117	83.1069	120.117	83.0385	120.117	83.0759	120.117	83.0397	120.117	83.0532
124.512	84.5656	124.512	84.5492	124.512	84.5534	124.512	84.5054	124.512	84.5131	124.512	84.4363	124.512	84.4462	124.512	84.3453	124.512	84.3553	124.512	84.2371	124.512	84.2444	124.512	84.1174	124.512	84.1183	124.512	83.9926	124.512	83.983	124.512	83.8688	124.512	83.8449	124.512	83.7519	124.512	83.7104	124.512	83.646	124.512	83.5854	124.512	83.5537	124.512	83.4748	124.512	83.4755	124.512	83.3824	124.512	83.4105	124.512	83.3102	124.512	83.357	124.512	83.2587	124.512	83.313	124.512	83.2271	124.512	83.2769	124.512	83.2131	124.512	83.2479	124.512	83.2139	124.512	83.2263
128.906	84.6235	128.906	84.6088	128.906	84.6131	128.906	84.5698	128.906	84.5779	128.906	84.5083	128.906	84.5192	128.906	84.4272	128.906	84.4393	128.906	84.3304	128.906	84.3416	128.906	84.2229	128.906	84.2304	128.906	84.1106	128.906	84.1109	128.906	83.9998	128.906	83.9889	128.906	83.8968	128.906	83.8706	128.906	83.8066	128.906	83.7621	128.906	83.7323	128.906	83.6688	128.906	83.6747	128.906	83.5945	128.906	83.6319	128.906	83.5413	128.906	83.6009	128.906	83.5089	128.906	83.5773	128.906	83.495	128.906	83.5576	128.906	83.4956	128.906	83.5392	128.906	83.5059	128.906	83.5215
133.301	84.7717	133.301	84.7605	133.301	84.7577	133.301	84.7251	133.301	84.7189	133.301	84.6678	133.301	84.6572	133.301	84.5921	133.301	84.5758	133.301	84.5027	133.301	84.4788	133.301	84.4047	133.301	84.3713	133.301	84.3042	133.301	84.2589	133.301	84.2069	133.301	84.1475	133.301	84.118	133.301	84.0424	133.301	84.0414	133.301	83.9486	133.301	83.979	133.301	83.87	133.301	83.9306	133.301	83.8092	133.301	83.894	133.301	83.7673	133.301	83.8657	133.301	83.7438	133.301	83.842	133.301	83.7365	133.301	83.82	133.301	83.7422	133.301	83.7982	133.301	83.7569	133.301	83.7766
139.16	84.9955	139.16	84.977	139.16	84.9846	139.16	84.9311	139.16	84.9442	139.16	84.8613	139.16	84.8755	139.16	84.7722	139.16	84.7818	139.16	84.6698	139.16	84.6678	139.16	84.5604	139.16	84.5397	139.16	84.4508	139.16	84.405	139.16	84.3472	139.16	84.2715	139.16	84.2549	139.16	84.1469	139.16	84.1772	139.16	84.0379	139.16	84.1152	139.16	83.9493	139.16	84.0676	139.16	83.884	139.16	84.0312	139.16	83.8425	139.16	84.0016	139.16	83.8231	139.16	83.9749	139.16	83.8226	139.16	83.9478	139.16	83.8367	139.16	83.919	139.16	83.8604	139.16	83.8891
143.555	85.0146	143.555	84.9825	143.555	85.0162	143.555	84.9218	143.555	84.9874	143.555	84.8366	143.555	84.9304	143.555	84.7328	143.555	84.8493	143.555	84.6177	143.555	84.7495	143.555	84.4993	143.555	84.6377	143.555	84.3859	143.555	84.5208	143.555	84.285	143.555	84.406	143.555	84.2024	143.555	84.2999	143.555	84.1417	143.555	84.2084	143.555	84.1034	143.555	84.1356	143.555	84.0848	143.555	84.084	143.555	84.0813	143.555	84.0536	143.555	84.0865	143.555	84.042	143.555	84.094	143.555	84.0452	143.555	84.0985	143.555	84.0577	143.555	84.0968	143.555	84.0737	143.555	84.088
147.949	85.1053	147.949	85.0713	147.949	85.1057	147.949	85.0058	147.949	85.0726	147.949	84.9131	147.949	85.0083	147.949	84.7991	147.949	84.9168	147.949	84.6715	147.949	84.8041	147.949	84.5389	147.949	84.6774	147.949	84.4104	147.949	84.5448	147.949	84.2944	147.949	84.4145	147.949	84.1978	147.949	84.294	147.949	84.1247	147.949	84.1898	147.949	84.0764	147.949	84.1066	147.949	84.0503	147.949	84.0465	147.949	84.0414	147.949	84.0096	147.949	84.043	147.949	83.9935	147.949	84.0479	147.949	83.9938	147.949	84.0504	147.949	84.005	147.949	84.0469	147.949	84.0211	147.949	84.0365
153.809	85.0061	153.809	84.9751	153.809	85.0023	153.809	84.9113	153.809	84.9637	153.809	84.8189	153.809	84.8922	153.809	84.7035	153.809	84.7919	153.809	84.5725	153.809	84.6689	153.809	84.4347	153.809	84.5307	153.809	84.2994	153.809	84.3865	153.809	84.176	153.809	84.2455	153.809	84.0725	153.809	84.1168	153.809	83.9943	153.809	84.008	153.809	83.9431	153.809	83.9243	153.809	83.9169	153.809	83.868	153.809	83.9101	153.809	83.8383	153.809	83.9149	153.809	83.8318	153.809	83.9231	153.809	83.8427	153.809	83.9276	153.809	83.8642	153.809	83.9238	153.809	83.8889	153.809	83.9103
159.668	84.7218	159.668	84.6821	159.668	84.7275	159.668	84.6102	159.668	84.6995	159.668	84.5098	159.668	84.6398	159.668	84.3866	159.668	84.5525	159.668	84.2482	159.668	84.4431	159.668	84.1037	159.668	84.3189	159.668	83.9626	159.668	84.1881	159.668	83.8344	159.668	84.0596	159.668	83.727	159.668	83.9416	159.668	83.6457	159.668	83.8412	159.668	83.5931	159.668	83.7632	159.668	83.5683	159.668	83.7093	159.668	83.5672	159.668	83.6783	159.668	83.5833	159.668	83.6659	159.668	83.6086	159.668	83.6657	159.668	83.6354	159.668	83.6707	159.668	83.6572	159.668	83.6739	159.668	83.6703
165.527	84.0448	165.527	83.9906	165.527	84.0621	165.527	83.9018	165.527	84.0429	165.527	83.7836	165.527	83.99	165.527	83.6437	165.527	83.909	165.527	83.4924	165.527	83.8069	165.527	83.3412	165.527	83.6925	165.527	83.2024	165.527	83.5749	165.527	83.087	165.527	83.4635	165.527	83.0037	165.527	83.3661	165.527	82.9571	165.527	83.2889	165.527	82.9473	165.527	83.2358	165.527	82.9698	165.527	83.2074	165.527	83.0164	165.527	83.2013	165.527	83.0764	165.527	83.2121	165.527	83.1391	165.527	83.2319	165.527	83.1946	165.527	83.2517	165.527	83.2358	165.527	83.2628	165.527	83.2586
171.387	83.3314	171.387	83.2846	171.387	83.3299	171.387	83.1903	171.387	83.2826	171.387	83.0523	171.387	83.1945	171.387	82.8782	171.387	83.0737	171.387	82.6789	171.387	82.9303	171.387	82.4687	171.387	82.7763	171.387	82.2641	171.387	82.6239	171.387	82.0818	171.387	82.4842	171.387	81.9363	171.387	82.3658	171.387	81.8372	171.387	82.2739	171.387	81.7881	171.387	82.2102	171.387	81.7856	171.387	82.1727	171.387	81.8206	171.387	82.1567	171.387	81.8806	171.387	82.155	171.387	81.9519	171.387	82.1591	171.387	82.0222	171.387	82.1603	171.387	82.082	171.387	82.1508	171.387	82.1254
177.246	83.1388	177.246	83.1158	177.246	83.1193	177.246	83.0507	177.246	83.0586	177.246	82.9459	177.246	82.9597	177.246	82.8064	177.246	82.8278	177.246	82.6397	177.246	82.6703	177.246	82.456	177.246	82.4974	177.246	82.2679	177.246	82.3217	177.246	82.0895	177.246	82.1573	177.246	81.9347	177.246	82.017	177.246	81.8147	177.246	81.9106	177.246	81.7362	177.246	81.8427	177.246	81.6997	177.246	81.8117	177.246	81.6997	177.246	81.8107	177.246	81.7263	177.246	81.829	177.246	81.7678	177.246	81.8544	177.246	81.8125	177.246	81.8756	177.246	81.851	177.246	81.8844	177.246	81.8762
183.105	83.7325	183.105	83.6827	183.105	83.7443	183.105	83.5978	183.105	83.7174	183.105	83.4829	183.105	83.6531	183.105	83.3458	183.105	83.5544	183.105	83.1963	183.105	83.4258	183.105	83.0454	183.105	83.2734	183.105	82.9043	183.105	83.1052	183.105	82.7828	183.105	82.9307	183.105	82.6888	183.105	82.7615	183.105	82.6266	183.105	82.6104	183.105	82.5971	183.105	82.4904	183.105	82.5965	183.105	82.4119	183.105	82.6167	183.105	82.3802	183.105	82.6461	183.105	82.3932	183.105	82.6723	183.105	82.4414	183.105	82.684	183.105	82.5092	183.105	82.6733	183.105	82.5795	183.105	82.6374
188.965	84.4405	188.965	84.3773	188.965	84.453	188.965	84.2658	188.965	84.4163	188.965	84.1119	188.965	84.3357	188.965	83.9262	188.965	84.22	188.965	83.7228	188.965	84.0816	188.965	83.519	188.965	83.9342	188.965	83.333	188.965	83.7913	188.965	83.1805	188.965	83.6635	188.965	83.0725	188.965	83.557	188.965	83.0138	188.965	83.4743	188.965	83.0032	188.965	83.415	188.965	83.0343	188.965	83.3779	188.965	83.0967	188.965	83.3609	188.965	83.1764	188.965	83.3614	188.965	83.2586	188.965	83.3744	188.965	83.3295	188.965	83.3925	188.965	83.3791	188.965	83.4057	188.965	83.4037
196.289	85.0009	196.289	84.9066	196.289	85.0394	196.289	84.7566	196.289	85.0251	196.289	84.5548	196.289	84.9635	196.289	84.3102	196.289	84.8624	196.289	84.0368	196.289	84.7316	196.289	83.7548	196.289	84.5826	196.289	83.4885	196.289	84.4274	196.289	83.2638	196.289	84.2765	196.289	83.1027	196.289	84.1369	196.289	83.0178	196.289	84.0119	196.289	83.0084	196.289	83.9017	196.289	83.0611	196.289	83.8066	196.289	83.1539	196.289	83.7275	196.289	83.2628	196.289	83.6662	196.289	83.3669	196.289	83.6233	196.289	83.4523	196.289	83.5955	196.289	83.5131	196.289	83.5751	196.289	83.5514
203.613	85.1515	203.613	85.1095	203.613	85.1327	203.613	85.0065	203.613	85.0566	203.613	84.8462	203.613	84.9304	203.613	84.6356	203.613	84.7649	203.613	84.3858	203.613	84.5748	203.613	84.112	203.613	84.3776	203.613	83.8329	203.613	84.1931	203.613	83.5699	203.613	84.0395	203.613	83.3449	203.613	83.9299	203.613	83.1765	203.613	83.8684	203.613	83.077	203.613	83.8491	203.613	83.0493	203.613	83.8577	203.613	83.0868	203.613	83.8767	203.613	83.1751	203.613	83.8887	203.613	83.2959	203.613	83.8806	203.613	83.4308	203.613	83.8444	203.613	83.5637	203.613	83.7776	203.613	83.6822
210.938	85.0899	210.938	85.0882	210.938	85.0416	210.938	85.0313	210.938	84.9499	210.938	84.9164	210.938	84.822	210.938	84.7436	210.938	84.6667	210.938	84.5185	210.938	84.4942	210.938	84.2532	210.938	84.3164	210.938	83.9669	210.938	84.1465	210.938	83.6845	210.938	83.9974	210.938	83.4336	210.938	83.8789	210.938	83.2391	210.938	83.7958	210.938	83.1176	210.938	83.7464	210.938	83.0734	210.938	83.7238	210.938	83.0979	210.938	83.7178	210.938	83.1731	210.938	83.7169	210.938	83.2772	210.938	83.7106	210.938	83.3898	210.938	83.6897	210.938	83.4952	210.938	83.6481	210.938	83.583
218.262	84.8016	218.262	84.8262	218.262	84.7259	218.262	84.7986	218.262	84.6036	218.262	84.7194	218.262	84.4422	218.262	84.5912	218.262	84.2531	218.262	84.4188	218.262	84.0515	218.262	84.2109	218.262	83.8553	218.262	83.9812	218.262	83.684	218.262	83.7495	218.262	83.5557	218.262	83.5398	218.262	83.4827	218.262	83.3762	218.262	83.4681	218.262	83.2766	218.262	83.5041	218.262	83.2483	218.262	83.5748	218.262	83.2858	218.262	83.6604	218.262	83.3734	218.262	83.7421	218.262	83.4889	218.262	83.8049	218.262	83.6097	218.262	83.838	218.262	83.7159	218.262	83.8351	218.262	83.7936
225.586	85.0032	225.586	85.0303	225.586	84.9131	225.586	84.9981	225.586	84.7607	225.586	84.9136	225.586	84.5523	225.586	84.7863	225.586	84.2998	225.586	84.6266	225.586	84.0209	225.586	84.4447	225.586	83.738	225.586	84.2506	225.586	83.4768	225.586	84.0549	225.586	83.2631	225.586	83.8707	225.586	83.1189	225.586	83.714	225.586	83.0566	225.586	83.6024	225.586	83.0756	225.586	83.5497	225.586	83.1624	225.586	83.5593	225.586	83.2947	225.586	83.6201	225.586	83.448	225.586	83.7081	225.586	83.5988	225.586	83.7935	225.586	83.7276	225.586	83.8501	225.586	83.8183	225.586	83.8604
232.91	85.0826	232.91	85.0575	232.91	85.0471	232.91	84.9783	232.91	84.9472	232.91	84.8535	232.91	84.7839	232.91	84.6932	232.91	84.5634	232.91	84.5081	232.91	84.2975	232.91	84.3095	232.91	84.0034	232.91	84.1085	232.91	83.7016	232.91	83.9152	232.91	83.4136	232.91	83.738	232.91	83.1602	232.91	83.5844	232.91	82.9602	232.91	83.4614	232.91	82.829	232.91	83.3758	232.91	82.7757	232.91	83.332	232.91	82.7989	232.91	83.327	232.91	82.885	232.91	83.3479	232.91	83.0098	232.91	83.3725	232.91	83.1445	232.91	83.3764	232.91	83.2616	232.91	83.3415
241.699	84.5737	241.699	84.556	241.699	84.5373	241.699	84.4912	241.699	84.4467	241.699	84.3917	241.699	84.3098	241.699	84.2725	241.699	84.1415	241.699	84.1481	241.699	83.9621	241.699	84.0283	241.699	83.7926	241.699	83.9162	241.699	83.6491	241.699	83.8079	241.699	83.5379	241.699	83.6956	241.699	83.455	241.699	83.5721	241.699	83.3892	241.699	83.4355	241.699	83.3286	241.699	83.2923	241.699	83.2661	241.699	83.157	241.699	83.201	241.699	83.0469	241.699	83.1377	241.699	82.9749	241.699	83.0814	241.699	82.9433	241.699	83.0344	241.699	82.944	241.699	82.9958	241.699	82.9646
250.488	84.3429	250.488	84.3416	250.488	84.2346	250.488	84.2376	250.488	84.0228	250.488	84.053	250.488	83.7274	250.488	83.8279	250.488	83.3852	250.488	83.6188	250.488	83.0526	250.488	83.4861	250.488	82.8002	250.488	83.4699	250.488	82.6915	250.488	83.5702	250.488	82.7517	250.488	83.7466	250.488	82.9518	250.488	83.9384	250.488	83.2251	250.488	84.0897	250.488	83.4997	250.488	84.1659	250.488	83.7235	250.488	84.1597	250.488	83.8709	250.488	84.0893	250.488	83.9405	250.488	83.9893	250.488	83.9466	250.488	83.8983	250.488	83.9131	250.488	83.8446	250.488	83.8677	250.488	83.8375
259.277	85.3592	259.277	85.2827	259.277	85.2917	259.277	85.0675	259.277	85.076	259.277	84.7212	259.277	84.7114	259.277	84.2589	259.277	84.205	259.277	83.7126	259.277	83.582	259.277	83.145	259.277	82.8993	259.277	82.6582	259.277	82.2617	259.277	82.3791	259.277	81.8164	259.277	82.4008	259.277	81.6942	259.277	82.7169	259.277	81.917	259.277	83.2232	259.277	82.3804	259.277	83.7866	259.277	82.9383	259.277	84.3024	259.277	83.4819	259.277	84.71	259.277	83.9577	259.277	84.9847	259.277	84.351	259.277	85.1257	259.277	84.6644	259.277	85.1468	259.277	84.9033	259.277	85.0671
268.066	85.8985	268.066	85.8003	268.066	85.8828	268.066	85.5929	268.066	85.7465	268.066	85.2801	268.066	85.4819	268.066	84.8671	268.066	85.0818	268.066	84.3659	268.066	84.5451	268.066	83.8023	268.066	83.8865	268.066	83.2248	268.066	83.1532	268.066	82.7123	268.066	82.4454	268.066	82.3663	268.066	81.9171	268.066	82.2728	268.066	81.7157	268.066	82.4476	268.066	81.8769	268.066	82.8205	268.066	82.2965	268.066	83.2777	268.066	82.8205	268.066	83.7177	268.066	83.3321	268.066	84.0754	268.066	83.7693	268.066	84.3203	268.066	84.1062	268.066	84.4436	268.066	84.3334	268.066	84.4468
276.855	86.0761	276.855	86.0356	276.855	86.0365	276.855	85.9063	276.855	85.9207	276.855	85.6788	276.855	85.7265	276.855	85.3486	276.855	85.4466	276.855	84.9214	276.855	85.0716	276.855	84.4179	276.855	84.5934	276.855	83.8776	276.855	84.0132	276.855	83.3613	276.855	83.3558	276.855	82.9452	276.855	82.6905	276.855	82.7025	276.855	82.141	276.855	82.6719	276.855	81.8501	276.855	82.835	276.855	81.8878	276.855	83.1227	276.855	82.1937	276.855	83.4462	276.855	82.6308	276.855	83.7277	276.855	83.0768	276.855	83.9151	276.855	83.46	276.855	83.9829	276.855	83.7478	276.855	83.9254
287.109	85.7802	287.109	85.7595	287.109	85.7238	287.109	85.6666	287.109	85.5829	287.109	85.5004	287.109	85.351	287.109	85.2554	287.109	85.0255	287.109	84.9275	287.109	84.6108	287.109	84.5243	287.109	84.1247	287.109	84.0765	287.109	83.6055	287.109	83.6433	287.109	83.1164	287.109	83.3074	287.109	82.7389	287.109	83.1483	287.109	82.5508	287.109	83.202	287.109	82.5936	287.109	83.4375	287.109	82.8491	287.109	83.7757	287.109	83.2452	287.109	84.1294	287.109	83.6886	287.109	84.4327	287.109	84.0991	287.109	84.6472	287.109	84.4258	287.109	84.7568	287.109	84.6468	287.109	84.7569
297.363	86.9265	297.363	86.8574	297.363	86.8957	297.363	86.7	297.363	86.754	297.363	86.465	297.363	86.4917	297.363	86.1612	297.363	86.1017	297.363	85.7935	297.363	85.5815	297.363	85.3658	297.363	84.9376	297.363	84.889	297.363	84.1942	297.363	84.3953	297.363	83.4093	297.363	83.9496	297.363	82.6914	297.363	83.6467	297.363	82.1935	297.363	83.5752	297.363	82.0469	297.363	83.7588	297.363	82.2686	297.363	84.128	297.363	82.7525	297.363	84.5601	297.363	83.3542	297.363	84.9401	297.363	83.9598	297.363	85.1918	297.363	84.4958	297.363	85.2761	297.363	84.914	297.363	85.1812
307.617	87.0243	307.617	86.8631	307.617	87.0771	307.617	86.5917	307.617	87.0262	307.617	86.215	307.617	86.8755	307.617	85.7486	307.617	86.6259	307.617	85.2193	307.617	86.2762	307.617	84.6626	307.617	85.8249	307.617	84.1213	307.617	85.2753	307.617	83.6446	307.617	84.646	307.617	83.2859	307.617	83.9879	307.617	83.0893	307.617	83.3991	307.617	83.0709	307.617	83.0128	307.617	83.2122	307.617	82.9342	307.617	83.4728	307.617	83.1614	307.617	83.8069	307.617	83.5837	307.617	84.1651	307.617	84.0562	307.617	84.4909	307.617	84.4612	307.617	84.7239	307.617	84.7246	307.617	84.8121
319.336	87.2463	319.336	87.0875	319.336	87.2848	319.336	86.8099	319.336	87.1985	319.336	86.4121	319.336	86.9812	319.336	85.8918	319.336	86.6269	319.336	85.2509	319.336	86.1329	319.336	84.5038	319.336	85.5068	319.336	83.6926	319.336	84.7752	319.336	82.9049	319.336	83.9959	319.336	82.2855	319.336	83.2672	319.336	81.9992	319.336	82.7208	319.336	82.1248	319.336	82.4775	319.336	82.5783	319.336	82.5764	319.336	83.1788	319.336	82.944	319.336	83.7656	319.336	83.4423	319.336	84.2445	319.336	83.9408	319.336	84.5761	319.336	84.3529	319.336	84.7503	319.336	84.6344	319.336	84.7687
329.59	87.0842	329.59	87.0114	329.59	87.1047	329.59	86.8769	329.59	87.0673	329.59	86.6588	329.59	86.9544	329.59	86.3302	329.59	86.7429	329.59	85.8681	329.59	86.4095	329.59	85.2607	329.59	85.9354	329.59	84.5154	329.59	85.3108	329.59	83.6705	329.59	84.5455	329.59	82.82	329.59	83.6899	329.59	82.141	329.59	82.8638	329.59	81.8599	329.59	82.2569	329.59	82.0882	329.59	82.0441	329.59	82.6895	329.59	82.248	329.59	83.3974	329.59	82.7259	329.59	84.0015	329.59	83.2959	329.59	84.398	329.59	83.8268	329.59	84.5597	329.59	84.243	329.59	84.4988
341.309	86.7786	341.309	86.778	341.309	86.7015	341.309	86.6991	341.309	86.5443	341.309	86.538	341.309	86.3018	341.309	86.2874	341.309	85.966	341.309	85.9367	341.309	85.527	341.309	85.4732	341.309	84.9778	341.309	84.8869	341.309	84.3233	341.309	84.1804	341.309	83.5957	341.309	83.3867	341.309	82.8741	341.309	82.5961	341.309	82.2942	341.309	81.9725	341.309	82.0136	341.309	81.7063	341.309	82.1114	341.309	81.8784	341.309	82.5134	341.309	82.3792	341.309	83.0493	341.309	83.0012	341.309	83.5616	341.309	83.5679	341.309	83.9513	341.309	83.9751	341.309	84.1657	341.309	84.1775
353.027	86.8963	353.027	86.8818	353.027	86.8708	353.027	86.8142	353.027	86.8046	353.027	86.6691	353.027	86.6845	353.027	86.4174	353.027	86.4879	353.027	86.0364	353.027	86.1881	353.027	85.5218	353.027	85.7576	353.027	84.895	353.027	85.1702	353.027	84.2016	353.027	84.4076	353.027	83.5051	353.027	83.4793	353.027	82.8884	353.027	82.4664	353.027	82.4613	353.027	81.5753	353.027	82.3423	353.027	81.1096	353.027	82.5758	353.027	81.246	353.027	83.0618	353.027	81.8483	353.027	83.6092	353.027	82.6271	353.027	84.0453	353.027	83.3563	353.027	84.2644	353.027	83.9089	353.027	84.2206
366.211	87.0863	366.211	86.9646	366.211	87.1056	366.211	86.7428	366.211	87.0333	366.211	86.4337	366.211	86.8872	366.211	86.0483	366.211	86.6781	366.211	85.5863	366.211	86.4019	366.211	85.035	366.211	86.0412	366.211	84.3807	366.211	85.5754	366.211	83.6316	366.211	84.9901	366.211	82.8501	366.211	84.2822	366.211	82.1757	366.211	83.4728	366.211	81.7888	366.211	82.6404	366.211	81.7895	366.211	81.9607	366.211	82.1084	366.211	81.6645	366.211	82.5779	366.211	81.8445	366.211	83.0445	366.211	82.3404	366.211	83.4055	366.211	82.8976	366.211	83.5959	366.211	83.3373	366.211	83.5774
379.395	87.0125	379.395	86.9528	379.395	87.0159	379.395	86.8418	379.395	86.9508	379.395	86.6719	379.395	86.8029	379.395	86.4209	379.395	86.5604	379.395	86.0545	379.395	86.2178	379.395	85.5375	379.395	85.7747	379.395	84.8493	379.395	85.2349	379.395	83.9999	379.395	84.6083	379.395	83.0495	379.395	83.9262	379.395	82.1402	379.395	83.2635	379.395	81.518	379.395	82.7409	379.395	81.4302	379.395	82.4799	379.395	81.8782	379.395	82.5246	379.395	82.5865	379.395	82.8129	379.395	83.2639	379.395	83.2214	379.395	83.7567	379.395	83.6249	379.395	84.0234	379.395	83.9284	379.395	84.0728
392.578	86.8024	392.578	86.7319	392.578	86.8258	392.578	86.6185	392.578	86.7878	392.578	86.4564	392.578	86.6678	392.578	86.2333	392.578	86.4462	392.578	85.9344	392.578	86.1098	392.578	85.5453	392.578	85.6525	392.578	85.0556	392.578	85.0741	392.578	84.4631	392.578	84.381	392.578	83.7817	392.578	83.5961	392.578	83.0574	392.578	82.7844	392.578	82.3916	392.578	82.0927	392.578	81.9561	392.578	81.741	392.578	81.9245	392.578	81.8738	392.578	82.3077	392.578	82.3932	392.578	82.9086	392.578	83.0422	392.578	83.4865	392.578	83.6007	392.578	83.8884	392.578	83.9511	392.578	84.0494
405.762	86.9963	405.762	86.8492	405.762	87.0428	405.762	86.5958	405.762	86.994	405.762	86.2422	405.762	86.8483	405.762	85.8151	405.762	86.5976	405.762	85.3543	405.762	86.2302	405.762	84.8838	405.762	85.7321	405.762	84.3881	405.762	85.0922	405.762	83.828	405.762	84.3135	405.762	83.1962	405.762	83.4357	405.762	82.571	405.762	82.5637	405.762	82.1038	405.762	81.8773	405.762	81.914	405.762	81.5654	405.762	81.9957	405.762	81.6859	405.762	82.2652	405.762	82.1133	405.762	82.6429	405.762	82.6501	405.762	83.0496	405.762	83.1325	405.762	83.3814	405.762	83.4486	405.762	83.534
420.41	87.0465	420.41	87.0184	420.41	87.0069	420.41	86.9111	420.41	86.9123	420.41	86.7136	420.41	86.7742	420.41	86.4118	420.41	86.5969	420.41	85.9902	420.41	86.374	420.41	85.4378	420.41	86.0827	420.41	84.7522	420.41	85.6773	420.41	83.9401	420.41	85.0895	420.41	83.0293	420.41	84.2509	420.41	82.1222	420.41	83.1434	420.41	81.4779	420.41	81.8903	420.41	81.4283	420.41	80.8637	420.41	81.9989	420.41	80.558	420.41	82.8317	420.41	81.0538	420.41	83.5699	420.41	81.9406	420.41	84.0374	420.41	82.8333	420.41	84.183	420.41	83.5483	420.41	84.0113
435.059	87.0905	435.059	87.0544	435.059	87.0639	435.059	86.9604	435.059	86.979	435.059	86.806	435.059	86.8429	435.059	86.5617	435.059	86.645	435.059	86.1735	435.059	86.3527	435.059	85.5885	435.059	85.9326	435.059	84.7806	435.059	85.3768	435.059	83.7605	435.059	84.7099	435.059	82.5774	435.059	83.9727	435.059	81.3509	435.059	83.2107	435.059	80.359	435.059	82.5061	435.059	80.0421	435.059	82.0392	435.059	80.6077	435.059	82.0402	435.059	81.7059	435.059	82.5464	435.059	82.8436	435.059	83.301	435.059	83.7431	435.059	83.9897	435.059	84.3124	435.059	84.4248	435.059	84.5378
451.172	87.915	451.172	87.7477	451.172	87.9465	451.172	87.4625	451.172	87.8317	451.172	87.0895	451.172	87.572	451.172	86.6774	451.172	87.1867	451.172	86.278	451.172	86.7076	451.172	85.9039	451.172	86.1617	451.172	85.5005	451.172	85.5543	451.172	84.9715	451.172	84.8641	451.172	84.2406	451.172	84.0586	451.172	83.3047	451.172	83.1402	451.172	82.2807	451.172	82.2214	451.172	81.4685	451.172	81.5656	451.172	81.284	451.172	81.4287	451.172	81.8178	451.172	81.7833	451.172	82.648	451.172	82.3733	451.172	83.3342	451.172	82.9713	451.172	83.6915	451.172	83.4454	451.172	83.7098
465.82	87.8635	465.82	87.8113	465.82	87.8852	465.82	87.7026	465.82	87.875	465.82	87.4962	465.82	87.8044	465.82	87.151	465.82	87.6351	465.82	86.6411	465.82	87.3347	465.82	85.9719	465.82	86.8804	465.82	85.1833	465.82	86.2555	465.82	84.3274	465.82	85.4561	465.82	83.4476	465.82	84.5055	465.82	82.6131	465.82	83.4654	465.82	81.9839	465.82	82.4591	465.82	81.7645	465.82	81.7232	465.82	82.0054	465.82	81.5626	465.82	82.5406	465.82	82.039	465.82	83.1582	465.82	82.8329	465.82	83.7102	465.82	83.5741	465.82	84.0947	465.82	84.061	465.82	84.2303
483.398	87.6456	483.398	87.5834	483.398	87.6114	483.398	87.4438	483.398	87.4891	483.398	87.2527	483.398	87.3117	483.398	87.0197	483.398	87.1091	483.398	86.7253	483.398	86.8821	483.398	86.3227	483.398	86.6045	483.398	85.7516	483.398	86.2337	483.398	84.9557	483.398	85.7095	483.398	83.8946	483.398	84.9587	483.398	82.567	483.398	83.9361	483.398	81.1216	483.398	82.7209	483.398	80.1242	483.398	81.6538	483.398	80.3728	483.398	81.2693	483.398	81.6321	483.398	81.7085	483.398	82.9524	483.398	82.5325	483.398	83.8458	483.398	83.3223	483.398	84.2465	483.398	83.9086	483.398	84.2363
499.512	87.8038	499.512	87.6933	499.512	87.804	499.512	87.4897	499.512	87.682	499.512	87.1908	499.512	87.4486	499.512	86.7725	499.512	87.1331	499.512	86.2203	499.512	86.755	499.512	85.5632	499.512	86.2992	499.512	84.8634	499.512	85.7236	499.512	84.1578	499.512	84.9975	499.512	83.4213	499.512	84.1325	499.512	82.6178	499.512	83.186	499.512	81.8057	499.512	82.2688	499.512	81.1978	499.512	81.5893	499.512	81.0739	499.512	81.4357	499.512	81.5462	499.512	81.9212	499.512	82.4265	499.512	82.7972	499.512	83.3779	499.512	83.677	499.512	84.1065	499.512	84.272	499.512	84.4281
517.09	88.2242	517.09	88.0534	517.09	88.2328	517.09	87.7568	517.09	88.0827	517.09	87.4015	517.09	87.8049	517.09	87.046	517.09	87.437	517.09	86.6811	517.09	87.0124	517.09	86.2008	517.09	86.558	517.09	85.4536	517.09	86.0772	517.09	84.3475	517.09	85.5175	517.09	82.9471	517.09	84.7803	517.09	81.5267	517.09	83.799	517.09	80.5189	517.09	82.6501	517.09	80.3038	517.09	81.6536	517.09	80.9395	517.09	81.2775	517.09	82.1011	517.09	81.6741	517.09	83.3288	517.09	82.5253	517.09	84.2712	517.09	83.4589	517.09	84.745	517.09	84.2414	517.09	84.7125
536.133	88.6481	536.133	88.5587	536.133	88.5592	536.133	88.304	536.133	88.3202	536.133	87.9234	536.133	87.982	536.133	87.459	536.133	87.5688	536.133	86.9482	536.133	87.0509	536.133	86.4177	536.133	86.3807	536.133	85.8432	536.133	85.5505	536.133	85.1085	536.133	84.5895	536.133	84.0227	536.133	83.4896	536.133	82.3903	536.133	82.1837	536.133	80.2126	536.133	80.7416	536.133	78.4248	536.133	79.7822	536.133	78.8164	536.133	80.187	536.133	80.4924	536.133	81.5735	536.133	81.9094	536.133	82.9307	536.133	82.866	536.133	83.8049	536.133	83.5378	536.133	84.1294	536.133	83.9913
555.176	88.5817	555.176	88.6041	555.176	88.4948	555.176	88.5255	555.176	88.3805	555.176	88.3371	555.176	88.2404	555.176	88.0387	555.176	88.0454	555.176	87.606	555.176	87.7647	555.176	86.9953	555.176	87.3746	555.176	86.1709	555.176	86.841	555.176	85.1105	555.176	86.1039	555.176	83.7957	555.176	85.069	555.176	82.2255	555.176	83.6122	555.176	80.464	555.176	81.6622	555.176	78.8138	555.176	79.5581	555.176	78.1595	555.176	78.5714	555.176	79.1915	555.176	79.3492	555.176	80.9674	555.176	80.683	555.176	82.4043	555.176	81.8405	555.176	83.1451	555.176	82.7097	555.176	83.1992
574.219	88.7684	574.219	88.5834	574.219	88.761	574.219	88.2857	574.219	88.5392	574.219	87.9649	574.219	88.1723	574.219	87.6938	574.219	87.7786	574.219	87.5058	574.219	87.4188	574.219	87.3557	574.219	87.0556	574.219	87.0885	574.219	86.6184	574.219	86.4803	574.219	86.0535	574.219	85.3441	574.219	85.2943	574.219	83.6163	574.219	84.2262	574.219	81.3922	574.219	82.7531	574.219	79.0793	574.219	81.0141	574.219	77.9956	574.219	79.7265	574.219	79.1526	574.219	79.8453	574.219	81.0831	574.219	81.1145	574.219	82.6866	574.219	82.5764	574.219	83.7135	574.219	83.6457	574.219	84.052
594.727	88.3297	594.727	88.2947	594.727	88.3442	594.727	88.2174	594.727	88.2986	594.727	88.0476	594.727	88.1439	594.727	87.7754	594.727	87.898	594.727	87.4347	594.727	87.628	594.727	87.039	594.727	87.318	594.727	86.5631	594.727	86.8395	594.727	85.9812	594.727	86.1217	594.727	85.2246	594.727	85.2161	594.727	84.1225	594.727	84.0858	594.727	82.5345	594.727	82.4635	594.727	80.7694	594.727	80.2178	594.727	80.0477	594.727	78.5743	594.727	81.0129	594.727	79.6552	594.727	82.481	594.727	81.7832	594.727	83.617	594.727	83.3302	594.727	84.2639	594.727	84.1634	594.727	84.4434
615.234	88.2579	615.234	88.1702	615.234	88.2259	615.234	87.9559	615.234	88.1132	615.234	87.629	615.234	87.9545	615.234	87.2381	615.234	87.7422	615.234	86.8811	615.234	87.4738	615.234	86.6156	615.234	87.1887	615.234	86.3496	615.234	86.8662	615.234	85.8878	615.234	86.3275	615.234	85.057	615.234	85.3426	615.234	83.7435	615.234	83.7933	615.234	81.8762	615.234	81.7381	615.234	79.5626	615.234	79.464	615.234	77.6495	615.234	77.8167	615.234	77.7566	615.234	78.2907	615.234	79.4941	615.234	80.3494	615.234	81.2413	615.234	82.1294	615.234	82.428	615.234	82.9952	615.234	83.0298
637.207	88.5402	637.207	88.2796	637.207	88.4702	637.207	87.8102	637.207	88.0995	637.207	87.3515	637.207	87.5676	637.207	87.0375	637.207	87.0467	637.207	86.8123	637.207	86.6468	637.207	86.5795	637.207	86.3902	637.207	86.3385	637.207	86.2607	637.207	86.0754	637.207	86.1744	637.207	85.5884	637.207	85.9322	637.207	84.5604	637.207	85.2542	637.207	82.765	637.207	83.8531	637.207	80.2848	637.207	81.5916	637.207	78.1707	637.207	79.0791	637.207	78.5517	637.207	78.3419	637.207	80.6498	637.207	79.5989	637.207	82.4594	637.207	81.1885	637.207	83.3825	637.207	82.5367	637.207	83.3628
659.18	87.5022	659.18	87.4499	659.18	87.387	659.18	87.1389	659.18	87.1455	659.18	86.5641	659.18	86.7501	659.18	85.8988	659.18	86.2259	659.18	85.3768	659.18	85.6982	659.18	85.0203	659.18	85.2698	659.18	84.653	659.18	84.9566	659.18	84.1378	659.18	84.7172	659.18	83.4581	659.18	84.3926	659.18	82.6176	659.18	83.7198	659.18	81.4043	659.18	82.4686	659.18	79.4295	659.18	80.5176	659.18	77.3775	659.18	78.1547	659.18	78.0415	659.18	77.3517	659.18	80.1196	659.18	79.1321	659.18	81.5017	659.18	80.9644	659.18	82.1293	659.18	81.9515	659.18	82.2697
682.617	86.8871	682.617	86.851	682.617	86.7473	682.617	86.5968	682.617	86.4908	682.617	86.1504	682.617	86.1535	682.617	85.6427	682.617	85.7424	682.617	85.2317	682.617	85.3104	682.617	84.959	682.617	84.9441	682.617	84.7533	682.617	84.5885	682.617	84.4732	682.617	84.0762	682.617	83.8109	682.617	83.3568	682.617	82.4563	682.617	82.4706	682.617	80.6066	682.617	81.319	682.617	79.0361	682.617	79.6194	682.617	78.1791	682.617	77.3566	682.617	78.2651	682.617	76.4276	682.617	79.5085	682.617	78.3956	682.617	81.1086	682.617	80.6331	682.617	82.2337	682.617	82.0438	682.617	82.5721
707.52	87.5021	707.52	87.2389	707.52	87.4795	707.52	86.7745	707.52	87.1483	707.52	86.1795	707.52	86.5682	707.52	85.4724	707.52	85.893	707.52	84.7223	707.52	85.2951	707.52	84.1453	707.52	84.7933	707.52	83.9018	707.52	84.358	707.52	83.8927	707.52	84.107	707.52	83.9212	707.52	83.9394	707.52	83.6272	707.52	83.3415	707.52	82.4398	707.52	81.9073	707.52	79.8446	707.52	79.5972	707.52	76.0794	707.52	76.711	707.52	75.4763	707.52	75.2659	707.52	78.6815	707.52	77.7328	707.52	81.2461	707.52	80.6724	707.52	82.6606	707.52	82.4164	707.52	83.033
732.422	88.3821	732.422	88.3034	732.422	88.2049	732.422	87.9973	732.422	87.7266	732.422	87.4406	732.422	86.9977	732.422	86.6814	732.422	86.1586	732.422	85.9518	732.422	85.3798	732.422	85.5095	732.422	84.8716	732.422	85.3488	732.422	84.7909	732.422	85.1797	732.422	85.0219	732.422	84.666	732.422	85.2258	732.422	83.6736	732.422	85.0031	732.422	82.1616	732.422	83.9769	732.422	79.8793	732.422	81.9131	732.422	76.8234	732.422	78.9099	732.422	76.2209	732.422	76.81	732.422	79.4658	732.422	78.3288	732.422	82.165	732.422	80.8092	732.422	83.4782	732.422	82.6078	732.422	83.5502
757.324	88.3109	757.324	88.1899	757.324	88.159	757.324	87.716	757.324	87.8588	757.324	86.9703	757.324	87.4026	757.324	86.1015	757.324	86.6872	757.324	85.1898	757.324	85.7595	757.324	84.2735	757.324	84.8656	757.324	83.6968	757.324	84.1297	757.324	83.8497	757.324	83.6753	757.324	84.082	757.324	83.7478	757.324	83.6065	757.324	84.0549	757.324	82.2433	757.324	83.9177	757.324	80.083	757.324	82.7543	757.324	78.0021	757.324	80.3627	757.324	78.8462	757.324	78.4067	757.324	81.3415	757.324	79.91	757.324	83.0501	757.324	82.1402	757.324	83.8959	757.324	83.4788	757.324	84.0367
785.156	87.7309	785.156	87.984	785.156	87.4583	785.156	88.0242	785.156	87.2421	785.156	87.7036	785.156	86.9559	785.156	86.9917	785.156	86.452	785.156	85.9542	785.156	85.7996	785.156	84.8575	785.156	85.2124	785.156	83.9922	785.156	85.0218	785.156	83.3209	785.156	85.2084	785.156	82.699	785.156	85.0273	785.156	81.7351	785.156	83.9515	785.156	79.8145	785.156	82.0982	785.156	76.5937	785.156	79.6606	785.156	72.7429	785.156	75.8285	785.156	72.2899	785.156	70.7142	785.156	75.6531	785.156	75.0847	785.156	78.7751	785.156	79.7389	785.156	80.9673	785.156	82.0103	785.156	82.2402
811.523	87.2563	811.523	87.1096	811.523	87.193	811.523	86.7267	811.523	86.8298	811.523	85.8843	811.523	86.1522	811.523	84.5667	811.523	85.1997	811.523	83.2693	811.523	84.0594	811.523	82.459	811.523	82.8445	811.523	82.0942	811.523	81.8148	811.523	82.2979	811.523	81.9803	811.523	82.7612	811.523	83.2603	811.523	82.944	811.523	84.2733	811.523	82.452	811.523	84.4006	811.523	80.5984	811.523	83.3982	811.523	77.5058	811.523	81.5348	811.523	77.9892	811.523	79.3628	811.523	80.7315	811.523	77.9962	811.523	82.1651	811.523	79.8955	811.523	83.0141	811.523	82.3817	811.523	83.3327
840.82	85.7563	840.82	85.6881	840.82	85.8029	840.82	85.5183	840.82	85.9107	840.82	85.1023	840.82	85.8639	840.82	84.0991	840.82	85.276	840.82	82.41	840.82	83.9585	840.82	80.4924	840.82	81.9985	840.82	78.8004	840.82	79.7634	840.82	76.7857	840.82	77.753	840.82	74.3864	840.82	76.8498	840.82	73.5689	840.82	76.8129	840.82	72.6409	840.82	75.9952	840.82	69.4355	840.82	74.9048	840.82	63.3985	840.82	73.6523	840.82	62.1083	840.82	73.072	840.82	73.5317	840.82	76.4604	840.82	78.0455	840.82	79.3359	840.82	80.0502	840.82	80.7145	840.82	80.869
870.117	86.2404	870.117	86.1996	870.117	86.0505	870.117	85.8273	870.117	85.6295	870.117	85.2166	870.117	85.0639	870.117	84.722	870.117	84.5817	870.117	84.208	870.117	84.1656	870.117	83.2072	870.117	83.378	870.117	81.604	870.117	81.9951	870.117	79.7651	870.117	80.4784	870.117	78.3103	870.117	78.7553	870.117	76.3811	870.117	76.9623	870.117	74.2184	870.117	76.6947	870.117	72.894	870.117	75.995	870.117	68.2377	870.117	72.6999	870.117	64.8791	870.117	70.4441	870.117	71.6279	870.117	73.5845	870.117	75.3277	870.117	76.5522	870.117	77.7278	870.117	78.3256	870.117	78.6724
900.879	87.4859	900.879	87.469	900.879	87.4129	900.879	87.265	900.879	87.4023	900.879	86.758	900.879	87.259	900.879	85.7872	900.879	86.6427	900.879	84.4616	900.879	85.7684	900.879	83.2024	900.879	84.8703	900.879	82.1357	900.879	83.5881	900.879	81.0014	900.879	82.1936	900.879	80.206	900.879	81.5433	900.879	80.328	900.879	81.0491	900.879	79.9825	900.879	79.5433	900.879	77.8011	900.879	77.0627	900.879	72.9857	900.879	73.9515	900.879	65.2223	900.879	67.9445	900.879	70.2195	900.879	69.2245	900.879	76.0943	900.879	75.1109	900.879	78.9884	900.879	77.9815	900.879	79.3727
933.105	87.235	933.105	87.0164	933.105	87.1725	933.105	86.6408	933.105	86.7963	933.105	86.1202	933.105	86.1889	933.105	85.4227	933.105	85.4016	933.105	84.594	933.105	84.4313	933.105	83.4619	933.105	83.1967	933.105	81.7228	933.105	81.7723	933.105	80.4162	933.105	81.0259	933.105	80.387	933.105	81.0191	933.105	79.7764	933.105	81.3414	933.105	78.7122	933.105	81.7506	933.105	77.4107	933.105	80.9176	933.105	73.443	933.105	78.0526	933.105	59.8138	933.105	73.5231	933.105	67.1928	933.105	69.9971	933.105	72.692	933.105	72.4878	933.105	75.2645	933.105	75.7547	933.105	76.5406
965.332	88.3076	965.332	88.0945	965.332	88.0679	965.332	87.6029	965.332	87.676	965.332	87.0621	965.332	87.2908	965.332	86.3354	965.332	86.5789	965.332	85.1936	965.332	85.4723	965.332	83.9179	965.332	84.0817	965.332	82.9129	965.332	82.0034	965.332	81.1173	965.332	79.8692	965.332	78.8275	965.332	79.5611	965.332	79.3665	965.332	79.2598	965.332	79.522	965.332	77.9959	965.332	77.9216	965.332	76.5173	965.332	75.3356	965.332	73.5349	965.332	71.1322	965.332	64.8115	965.332	69.2188	965.332	68.4236	965.332	73.6849	965.332	75.3201	965.332	76.3213	965.332	77.3348	965.332	77.2223
1,000.49	87.8189	1,000.49	87.5939	1,000.49	87.7039	1,000.49	87.1068	1,000.49	87.3266	1,000.49	86.5665	1,000.49	86.7782	1,000.49	86.0029	1,000.49	85.9335	1,000.49	85.3118	1,000.49	84.5179	1,000.49	84.3599	1,000.49	82.4927	1,000.49	82.9152	1,000.49	79.939	1,000.49	81.4761	1,000.49	76.6549	1,000.49	80.9753	1,000.49	74.7749	1,000.49	80.183	1,000.49	77.0953	1,000.49	78.9241	1,000.49	78.9282	1,000.49	77.9445	1,000.49	79.4833	1,000.49	75.769	1,000.49	78.8383	1,000.49	71.2985	1,000.49	75.9658	1,000.49	70.4243	1,000.49	71.4855	1,000.49	75.8107	1,000.49	72.265	1,000.49	78.4651	1,000.49	77.1412	1,000.49	79.2444
1,035.64	86.5222	1,035.64	85.9856	1,035.64	86.6122	1,035.64	85.4521	1,035.64	86.1364	1,035.64	85.0724	1,035.64	85.3549	1,035.64	84.5184	1,035.64	84.5695	1,035.64	83.4853	1,035.64	84.0938	1,035.64	82.1901	1,035.64	83.529	1,035.64	81.0079	1,035.64	81.9869	1,035.64	79.7393	1,035.64	79.5304	1,035.64	78.2972	1,035.64	76.7135	1,035.64	77.8891	1,035.64	76.1206	1,035.64	78.2397	1,035.64	77.0612	1,035.64	76.9949	1,035.64	75.926	1,035.64	73.4459	1,035.64	74.4819	1,035.64	69.5977	1,035.64	71.0304	1,035.64	67.939	1,035.64	66.7849	1,035.64	72.8924	1,035.64	74.2405	1,035.64	76.3997	1,035.64	76.3441	1,035.64	76.7691
1,072.27	86.0192	1,072.27	85.6997	1,072.27	85.8765	1,072.27	85.0382	1,072.27	85.3061	1,072.27	84.2486	1,072.27	84.4239	1,072.27	83.5009	1,072.27	83.346	1,072.27	82.6171	1,072.27	82.2442	1,072.27	81.4339	1,072.27	81.2795	1,072.27	79.8956	1,072.27	79.9457	1,072.27	78.0043	1,072.27	78.1057	1,072.27	77.1321	1,072.27	77.7456	1,072.27	77.9455	1,072.27	77.9098	1,072.27	78.661	1,072.27	77.6705	1,072.27	77.9271	1,072.27	78.0605	1,072.27	74.9748	1,072.27	77.4222	1,072.27	71.1223	1,072.27	74.3227	1,072.27	63.812	1,072.27	63.7073	1,072.27	70.4246	1,072.27	68.3585	1,072.27	74.7528	1,072.27	73.6752	1,072.27	75.0284
1,108.89	85.1681	1,108.89	85.3965	1,108.89	85.0818	1,108.89	85.2737	1,108.89	84.7389	1,108.89	84.3481	1,108.89	84.0875	1,108.89	83.2732	1,108.89	83.1775	1,108.89	82.3498	1,108.89	82.1029	1,108.89	81.0825	1,108.89	81.0807	1,108.89	79.5207	1,108.89	79.7954	1,108.89	78.0567	1,108.89	77.67	1,108.89	77.3661	1,108.89	74.6016	1,108.89	76.791	1,108.89	73.2937	1,108.89	76.0455	1,108.89	76.031	1,108.89	76.2202	1,108.89	77.1248	1,108.89	74.3557	1,108.89	76.1969	1,108.89	69.2297	1,108.89	73.2575	1,108.89	67.6675	1,108.89	68.8646	1,108.89	70.8898	1,108.89	72.1284	1,108.89	74.5565	1,108.89	75.1837	1,108.89	76.1595
1,148.44	85.7376	1,148.44	85.1278	1,148.44	85.7837	1,148.44	84.6547	1,148.44	85.1862	1,148.44	83.6228	1,148.44	84.1951	1,148.44	81.7179	1,148.44	82.7428	1,148.44	80.4595	1,148.44	81.4215	1,148.44	78.9042	1,148.44	80.497	1,148.44	77.7212	1,148.44	79.2312	1,148.44	77.4124	1,148.44	77.0657	1,148.44	75.5625	1,148.44	74.2195	1,148.44	75.8378	1,148.44	73.7513	1,148.44	76.7401	1,148.44	74.3425	1,148.44	76.5592	1,148.44	75.6351	1,148.44	73.8355	1,148.44	75.8469	1,148.44	64.558	1,148.44	72.7579	1,148.44	62.276	1,148.44	63.05	1,148.44	70.8735	1,148.44	70.6299	1,148.44	74.3719	1,148.44	75.1864	1,148.44	75.2885
1,189.45	85.7304	1,189.45	85.4585	1,189.45	86.0322	1,189.45	84.6515	1,189.45	86.0161	1,189.45	83.8965	1,189.45	85.068	1,189.45	83.0509	1,189.45	83.7242	1,189.45	81.5617	1,189.45	82.503	1,189.45	80.3582	1,189.45	81.1103	1,189.45	79.0494	1,189.45	79.6215	1,189.45	75.9459	1,189.45	78.2089	1,189.45	72.3968	1,189.45	74.7081	1,189.45	74.1881	1,189.45	68.4836	1,189.45	75.6737	1,189.45	71.84	1,189.45	76.7918	1,189.45	74.0076	1,189.45	75.5644	1,189.45	73.8651	1,189.45	71.743	1,189.45	73.5099	1,189.45	67.8059	1,189.45	68.1764	1,189.45	71.3724	1,189.45	65.7505	1,189.45	72.7058	1,189.45	73.3899	1,189.45	74.905
1,230.47	86.5148	1,230.47	85.9869	1,230.47	86.4598	1,230.47	85.1191	1,230.47	85.7107	1,230.47	84.0704	1,230.47	85.0828	1,230.47	82.6499	1,230.47	84.2241	1,230.47	81.2454	1,230.47	82.4255	1,230.47	80.0965	1,230.47	81.682	1,230.47	77.8848	1,230.47	80.5503	1,230.47	73.7279	1,230.47	78.4315	1,230.47	68.57	1,230.47	76.2603	1,230.47	68.494	1,230.47	74.8875	1,230.47	72.4549	1,230.47	73.9267	1,230.47	74.8398	1,230.47	74.402	1,230.47	74.9625	1,230.47	75.7239	1,230.47	70.2207	1,230.47	73.6643	1,230.47	67.199	1,230.47	64.8149	1,230.47	66.9388	1,230.47	68.5539	1,230.47	74.2253	1,230.47	72.2432	1,230.47	75.2001
1,274.41	86.8922	1,274.41	86.5104	1,274.41	86.9617	1,274.41	85.9724	1,274.41	86.5078	1,274.41	85.0457	1,274.41	85.6556	1,274.41	83.8021	1,274.41	84.0484	1,274.41	82.1979	1,274.41	82.2479	1,274.41	81.4433	1,274.41	81.1209	1,274.41	79.86	1,274.41	79.3694	1,274.41	78.6646	1,274.41	78.407	1,274.41	76.773	1,274.41	77.3923	1,274.41	71.5901	1,274.41	74.3744	1,274.41	72.6482	1,274.41	72.431	1,274.41	75.6815	1,274.41	75.4609	1,274.41	73.9177	1,274.41	75.2593	1,274.41	69.2687	1,274.41	73.5433	1,274.41	65.4712	1,274.41	69.8708	1,274.41	73.493	1,274.41	66.46	1,274.41	76.2322	1,274.41	73.5859	1,274.41	75.6167
1,319.82	87.7444	1,319.82	87.8663	1,319.82	87.3709	1,319.82	87.3391	1,319.82	86.7713	1,319.82	86.0363	1,319.82	86.0975	1,319.82	84.3171	1,319.82	84.9844	1,319.82	82.4934	1,319.82	83.4605	1,319.82	81.3616	1,319.82	82.1104	1,319.82	80.6711	1,319.82	79.9594	1,319.82	79.9149	1,319.82	78.4668	1,319.82	77.6339	1,319.82	76.892	1,319.82	74.1037	1,319.82	76.3571	1,319.82	73.201	1,319.82	75.2328	1,319.82	74.667	1,319.82	74.0815	1,319.82	74.1759	1,319.82	73.2562	1,319.82	67.897	1,319.82	69.4506	1,319.82	56.9945	1,319.82	55.8891	1,319.82	73.1357	1,319.82	72.1587	1,319.82	76.6877	1,319.82	75.3496	1,319.82	77.3018
1,366.7	87.5452	1,366.7	87.2397	1,366.7	87.4459	1,366.7	86.7253	1,366.7	86.6962	1,366.7	85.8302	1,366.7	86.0112	1,366.7	84.3896	1,366.7	85.4022	1,366.7	82.8728	1,366.7	83.7417	1,366.7	80.785	1,366.7	82.8477	1,366.7	78.8865	1,366.7	80.9624	1,366.7	76.1096	1,366.7	78.6728	1,366.7	75.0066	1,366.7	75.9048	1,366.7	74.6076	1,366.7	70.1935	1,366.7	74.6722	1,366.7	70.8292	1,366.7	75.2539	1,366.7	74.8977	1,366.7	75.7558	1,366.7	75.5647	1,366.7	72.4733	1,366.7	71.2013	1,366.7	64.9694	1,366.7	63.9465	1,366.7	70.07	1,366.7	67.5405	1,366.7	74.7934	1,366.7	75.4555	1,366.7	77.124
1,413.57	87.3421	1,413.57	87.1772	1,413.57	86.8901	1,413.57	86.4374	1,413.57	85.9742	1,413.57	85.5872	1,413.57	85.4495	1,413.57	84.3225	1,413.57	84.7263	1,413.57	82.5136	1,413.57	83.185	1,413.57	80.4141	1,413.57	82.1026	1,413.57	79.2938	1,413.57	80.0781	1,413.57	76.7435	1,413.57	78.5981	1,413.57	76.1657	1,413.57	77.0208	1,413.57	75.6913	1,413.57	73.6003	1,413.57	74.0916	1,413.57	73.1181	1,413.57	72.3157	1,413.57	74.9278	1,413.57	74.8329	1,413.57	75.3096	1,413.57	75.0423	1,413.57	74.7246	1,413.57	70.8773	1,413.57	70.0777	1,413.57	65.2582	1,413.57	60.4958	1,413.57	71.558	1,413.57	70.3594	1,413.57	73.1202
1,463.38	86.4805	1,463.38	86.1395	1,463.38	86.0262	1,463.38	84.9725	1,463.38	85.5902	1,463.38	84.1586	1,463.38	84.9949	1,463.38	82.8147	1,463.38	83.2455	1,463.38	81.0689	1,463.38	81.944	1,463.38	79.5187	1,463.38	80.3339	1,463.38	78.3686	1,463.38	79.535	1,463.38	79.3397	1,463.38	78.8439	1,463.38	78.2278	1,463.38	77.3048	1,463.38	74.1769	1,463.38	74.034	1,463.38	72.9222	1,463.38	72.7343	1,463.38	73.5427	1,463.38	75.9556	1,463.38	74.9097	1,463.38	76.4433	1,463.38	74.6895	1,463.38	74.6249	1,463.38	69.577	1,463.38	71.9995	1,463.38	63.9128	1,463.38	55.3534	1,463.38	67.9692	1,463.38	67.842	1,463.38	69.5984
1,516.11	84.4111	1,516.11	84.4035	1,516.11	83.8269	1,516.11	83.0979	1,516.11	83.566	1,516.11	82.6856	1,516.11	82.4855	1,516.11	81.1053	1,516.11	81.2681	1,516.11	78.8521	1,516.11	80.3883	1,516.11	78.0967	1,516.11	78.3059	1,516.11	77.3014	1,516.11	77.7143	1,516.11	77.0293	1,516.11	76.5598	1,516.11	76.311	1,516.11	74.2627	1,516.11	72.6872	1,516.11	74.8189	1,516.11	70.4505	1,516.11	71.7595	1,516.11	68.2733	1,516.11	69.6661	1,516.11	73.3893	1,516.11	74.3361	1,516.11	72.8559	1,516.11	75.0973	1,516.11	67.8193	1,516.11	71.3254	1,516.11	54.0794	1,516.11	64.7704	1,516.11	65.7485	1,516.11	65.6371	1,516.11	70.9027
1,568.85	83.0746	1,568.85	82.0922	1,568.85	82.7381	1,568.85	81.7743	1,568.85	81.6978	1,568.85	80.3934	1,568.85	80.9944	1,568.85	78.7542	1,568.85	80.2588	1,568.85	77.17	1,568.85	78.2701	1,568.85	75.7649	1,568.85	76.6048	1,568.85	72.5191	1,568.85	75.5903	1,568.85	70.5528	1,568.85	75.0608	1,568.85	72.4578	1,568.85	74.6253	1,568.85	71.9608	1,568.85	74.0355	1,568.85	68.4599	1,568.85	70.5868	1,568.85	65.3758	1,568.85	69.1009	1,568.85	67.4755	1,568.85	70.9831	1,568.85	68.8099	1,568.85	71.5467	1,568.85	68.4101	1,568.85	69.8136	1,568.85	59.3587	1,568.85	62.1613	1,568.85	62.6474	1,568.85	62.0783	1,568.85	64.5864
1,624.51	82.367	1,624.51	82.2122	1,624.51	82.0042	1,624.51	82.0107	1,624.51	81.7286	1,624.51	80.6879	1,624.51	80.9473	1,624.51	79.3508	1,624.51	80.3527	1,624.51	78.3083	1,624.51	79.3226	1,624.51	76.2591	1,624.51	77.1059	1,624.51	75.1787	1,624.51	76.7323	1,624.51	74.0734	1,624.51	76.4888	1,624.51	74.2615	1,624.51	75.0482	1,624.51	70.4152	1,624.51	73.7005	1,624.51	67.8058	1,624.51	69.6614	1,624.51	68.7776	1,624.51	69.7253	1,624.51	70.3442	1,624.51	68.6978	1,624.51	71.5587	1,624.51	70.5645	1,624.51	68.6735	1,624.51	67.8921	1,624.51	60.2918	1,624.51	65.1821	1,624.51	62.7381	1,624.51	47.5967	1,624.51	63.8529
1,681.64	83.8754	1,681.64	83.3368	1,681.64	83.1567	1,681.64	82.8149	1,681.64	83.1589	1,681.64	81.7122	1,681.64	82.5176	1,681.64	79.9495	1,681.64	80.7674	1,681.64	78.6241	1,681.64	79.397	1,681.64	77.952	1,681.64	78.2696	1,681.64	76.0353	1,681.64	76.155	1,681.64	74.6059	1,681.64	74.9509	1,681.64	73.8713	1,681.64	73.419	1,681.64	73.7591	1,681.64	72.071	1,681.64	70.0379	1,681.64	72.2589	1,681.64	67.6079	1,681.64	72.1948	1,681.64	70.4605	1,681.64	71.1043	1,681.64	71.0235	1,681.64	73.4681	1,681.64	69.8619	1,681.64	71.9958	1,681.64	64.73	1,681.64	67.6021	1,681.64	58.3331	1,681.64	59.233	1,681.64	64.5873
1,741.7	85.1383	1,741.7	85.109	1,741.7	84.6809	1,741.7	84.2702	1,741.7	84.1727	1,741.7	83.2537	1,741.7	83.2484	1,741.7	81.3694	1,741.7	81.719	1,741.7	80.4542	1,741.7	80.224	1,741.7	78.374	1,741.7	79.2423	1,741.7	76.7145	1,741.7	77.6018	1,741.7	75.2805	1,741.7	76.1454	1,741.7	73.6574	1,741.7	75.2072	1,741.7	71.1621	1,741.7	73.1631	1,741.7	71.1004	1,741.7	69.7173	1,741.7	67.3487	1,741.7	67.1873	1,741.7	69.8437	1,741.7	70.6625	1,741.7	72.0872	1,741.7	70.4826	1,741.7	70.5055	1,741.7	69.4189	1,741.7	62.9681	1,741.7	57.3874	1,741.7	66.7348	1,741.7	63.9614	1,741.7	63.4089
1,803.22	84.0972	1,803.22	84.0378	1,803.22	83.6924	1,803.22	83.3801	1,803.22	83.0647	1,803.22	82.1526	1,803.22	81.8024	1,803.22	80.8948	1,803.22	80.3636	1,803.22	79.4151	1,803.22	78.4331	1,803.22	78.4213	1,803.22	76.8456	1,803.22	76.954	1,803.22	75.8031	1,803.22	75.7945	1,803.22	74.164	1,803.22	74.2598	1,803.22	73.0708	1,803.22	72.7732	1,803.22	71.9246	1,803.22	71.0382	1,803.22	69.9501	1,803.22	70.2565	1,803.22	68.315	1,803.22	71.2455	1,803.22	69.4378	1,803.22	72.099	1,803.22	71.1866	1,803.22	70.4241	1,803.22	68.8696	1,803.22	65.7711	1,803.22	63.367	1,803.22	66.9545	1,803.22	66.1901	1,803.22	68.9715
1,866.21	83.0132	1,866.21	83.0379	1,866.21	82.7475	1,866.21	82.4381	1,866.21	81.8953	1,866.21	81.5221	1,866.21	80.8322	1,866.21	80.2307	1,866.21	79.353	1,866.21	79.5345	1,866.21	77.7597	1,866.21	77.3457	1,866.21	75.7373	1,866.21	76.2896	1,866.21	74.0951	1,866.21	75.7743	1,866.21	73.3304	1,866.21	74.2075	1,866.21	72.6418	1,866.21	72.414	1,866.21	71.0842	1,866.21	71.2695	1,866.21	69.9481	1,866.21	70.8436	1,866.21	67.8788	1,866.21	71.2546	1,866.21	67.7561	1,866.21	72.0343	1,866.21	70.3955	1,866.21	69.5559	1,866.21	70.0509	1,866.21	64.8592	1,866.21	61.6245	1,866.21	66.3905	1,866.21	64.518	1,866.21	66.8316
1,932.13	83.0309	1,932.13	83.1203	1,932.13	82.9564	1,932.13	82.5598	1,932.13	82.3348	1,932.13	81.4278	1,932.13	81.1865	1,932.13	80.3632	1,932.13	80.2428	1,932.13	78.818	1,932.13	78.9363	1,932.13	78.3129	1,932.13	77.0327	1,932.13	76.005	1,932.13	75.0163	1,932.13	75.1141	1,932.13	73.883	1,932.13	74.2042	1,932.13	73.0649	1,932.13	73.3318	1,932.13	71.7243	1,932.13	70.9198	1,932.13	70.2316	1,932.13	69.9125	1,932.13	68.8173	1,932.13	70.7062	1,932.13	68.6161	1,932.13	70.8884	1,932.13	70.2725	1,932.13	68.9218	1,932.13	69.6116	1,932.13	64.5423	1,932.13	65.4101	1,932.13	67.3571	1,932.13	61.8683	1,932.13	67.9288
1,999.51	84.2374	1,999.51	83.8646	1,999.51	84.1824	1,999.51	83.1799	1,999.51	83.4942	1,999.51	82.1495	1,999.51	82.5687	1,999.51	81.2202	1,999.51	81.5851	1,999.51	80.3247	1,999.51	80.1502	1,999.51	77.477	1,999.51	78.8019	1,999.51	75.6438	1,999.51	76.6012	1,999.51	74.1482	1,999.51	74.8017	1,999.51	73.3131	1,999.51	74.2554	1,999.51	70.5658	1,999.51	72.4496	1,999.51	70.5251	1,999.51	70.951	1,999.51	69.1445	1,999.51	70.4373	1,999.51	68.8541	1,999.51	69.0159	1,999.51	71.3355	1,999.51	70.6821	1,999.51	68.2723	1,999.51	70.6038	1,999.51	61.8224	1,999.51	66.7638	1,999.51	65.9275	1,999.51	63.533	1,999.51	67.3424
2,069.82	85.0572	2,069.82	84.6308	2,069.82	84.9038	2,069.82	83.889	2,069.82	84.1129	2,069.82	82.8432	2,069.82	83.1237	2,069.82	81.7836	2,069.82	81.7068	2,069.82	80.3416	2,069.82	80.449	2,069.82	78.2431	2,069.82	78.9705	2,069.82	75.9896	2,069.82	77.1598	2,069.82	73.8249	2,069.82	75.0493	2,069.82	73.36	2,069.82	74.2481	2,069.82	72.1196	2,069.82	71.6473	2,069.82	69.4185	2,069.82	70.1306	2,069.82	68.8988	2,069.82	68.0831	2,069.82	68.9564	2,069.82	70.1685	2,069.82	70.0269	2,069.82	70.8644	2,069.82	68.3159	2,069.82	70.7239	2,069.82	60.1656	2,069.82	66.1338	2,069.82	65.8517	2,069.82	65.2156	2,069.82	67.1327
2,143.07	84.6843	2,143.07	84.4874	2,143.07	84.4982	2,143.07	83.8717	2,143.07	83.7042	2,143.07	82.8445	2,143.07	82.4216	2,143.07	81.631	2,143.07	80.965	2,143.07	80.4079	2,143.07	79.8535	2,143.07	79.07	2,143.07	78.2113	2,143.07	76.3834	2,143.07	76.3953	2,143.07	74.3184	2,143.07	73.9038	2,143.07	72.4204	2,143.07	71.9649	2,143.07	71.8942	2,143.07	70.4906	2,143.07	71.9335	2,143.07	68.3274	2,143.07	68.1554	2,143.07	66.3967	2,143.07	69.2217	2,143.07	67.4958	2,143.07	70.5225	2,143.07	69.7441	2,143.07	69.7358	2,143.07	69.3216	2,143.07	65.6264	2,143.07	64.3363	2,143.07	61.6127	2,143.07	62.5426	2,143.07	68.1476
2,219.24	83.6629	2,219.24	83.2956	2,219.24	83.4248	2,219.24	82.6604	2,219.24	82.4529	2,219.24	82.2358	2,219.24	81.1613	2,219.24	81.2115	2,219.24	79.6028	2,219.24	79.6813	2,219.24	77.9258	2,219.24	77.3059	2,219.24	76.6061	2,219.24	76.0628	2,219.24	74.6986	2,219.24	73.1572	2,219.24	72.3869	2,219.24	73.5201	2,219.24	70.9542	2,219.24	70.4989	2,219.24	70.1414	2,219.24	68.626	2,219.24	67.3508	2,219.24	69.4526	2,219.24	66.5446	2,219.24	66.8314	2,219.24	63.4531	2,219.24	69.9148	2,219.24	67.3845	2,219.24	71.5556	2,219.24	68.5195	2,219.24	66.1384	2,219.24	63.4918	2,219.24	64.3725	2,219.24	56.5156	2,219.24	65.5934
2,296.88	82.9641	2,296.88	82.4775	2,296.88	82.7187	2,296.88	82.007	2,296.88	81.9558	2,296.88	81.1343	2,296.88	80.9847	2,296.88	80.2021	2,296.88	79.3086	2,296.88	78.6024	2,296.88	77.7688	2,296.88	77.1794	2,296.88	76.2688	2,296.88	75.8392	2,296.88	74.5057	2,296.88	75.0698	2,296.88	72.4696	2,296.88	72.0898	2,296.88	71.1294	2,296.88	71.7122	2,296.88	70.1726	2,296.88	69.8787	2,296.88	68.6492	2,296.88	69.2782	2,296.88	66.9966	2,296.88	67.8392	2,296.88	65.753	2,296.88	67.7839	2,296.88	66.0827	2,296.88	68.0346	2,296.88	68.8009	2,296.88	65.1344	2,296.88	65.8737	2,296.88	65.6784	2,296.88	60.5888	2,296.88	64.6739
2,378.91	83.9283	2,378.91	83.2817	2,378.91	83.8235	2,378.91	82.5191	2,378.91	83.4597	2,378.91	81.7084	2,378.91	82.1675	2,378.91	80.3743	2,378.91	81.0061	2,378.91	77.9919	2,378.91	79.6534	2,378.91	75.7542	2,378.91	78.0767	2,378.91	74.76	2,378.91	75.864	2,378.91	71.7067	2,378.91	74.6885	2,378.91	70.5153	2,378.91	70.9613	2,378.91	68.7604	2,378.91	70.9196	2,378.91	66.8314	2,378.91	70.6145	2,378.91	69.2397	2,378.91	68.5665	2,378.91	65.794	2,378.91	68.1369	2,378.91	67.1091	2,378.91	66.0827	2,378.91	66.9434	2,378.91	68.9123	2,378.91	64.2302	2,378.91	65.2626	2,378.91	64.5742	2,378.91	62.5202	2,378.91	66.4275
2,462.4	85.5501	2,462.4	85.2663	2,462.4	85.4319	2,462.4	84.5118	2,462.4	84.6644	2,462.4	83.3835	2,462.4	83.4654	2,462.4	81.6866	2,462.4	81.9846	2,462.4	79.8985	2,462.4	80.3925	2,462.4	78.619	2,462.4	78.7201	2,462.4	76.2535	2,462.4	77.2144	2,462.4	74.7641	2,462.4	75.376	2,462.4	71.9727	2,462.4	72.95	2,462.4	71.5636	2,462.4	72.4244	2,462.4	68.742	2,462.4	70.385	2,462.4	68.1114	2,462.4	70.6417	2,462.4	67.9876	2,462.4	69.2224	2,462.4	65.4881	2,462.4	67.7979	2,462.4	68.7809	2,462.4	68.6975	2,462.4	66.7577	2,462.4	67.3873	2,462.4	65.4983	2,462.4	66.7279	2,462.4	68.0456
2,548.83	85.8658	2,548.83	85.9003	2,548.83	85.9489	2,548.83	85.451	2,548.83	84.8535	2,548.83	84.2892	2,548.83	83.8612	2,548.83	82.9183	2,548.83	82.3605	2,548.83	81.7669	2,548.83	80.5801	2,548.83	80.1875	2,548.83	78.1962	2,548.83	77.9721	2,548.83	76.8376	2,548.83	77.2838	2,548.83	74.3352	2,548.83	73.4011	2,548.83	72.4966	2,548.83	72.1354	2,548.83	70.6532	2,548.83	70.6274	2,548.83	69.4124	2,548.83	69.4321	2,548.83	68.8642	2,548.83	69.2974	2,548.83	67.962	2,548.83	68.2522	2,548.83	66.5192	2,548.83	69.2778	2,548.83	68.8868	2,548.83	64.7479	2,548.83	66.5415	2,548.83	67.6689	2,548.83	62.9178	2,548.83	67.6178
2,639.65	86.277	2,639.65	86.2433	2,639.65	85.8222	2,639.65	84.9367	2,639.65	85.0683	2,639.65	84.2343	2,639.65	83.4876	2,639.65	82.2621	2,639.65	82.1316	2,639.65	80.8403	2,639.65	80.6507	2,639.65	79.2151	2,639.65	78.4181	2,639.65	77.8221	2,639.65	76.3393	2,639.65	75.6575	2,639.65	74.1305	2,639.65	73.6219	2,639.65	72.0808	2,639.65	72.5556	2,639.65	70.6275	2,639.65	69.7608	2,639.65	70.4834	2,639.65	70.3246	2,639.65	68.3806	2,639.65	70.461	2,639.65	68.2575	2,639.65	69.0629	2,639.65	68.3793	2,639.65	71.2344	2,639.65	68.9571	2,639.65	68.6535	2,639.65	67.9983	2,639.65	67.5542	2,639.65	64.4935	2,639.65	68.0792
2,731.93	85.7027	2,731.93	85.3077	2,731.93	84.7985	2,731.93	84.3574	2,731.93	84.6301	2,731.93	83.5225	2,731.93	83.2336	2,731.93	81.7117	2,731.93	82.2365	2,731.93	79.5332	2,731.93	80.7306	2,731.93	78.2337	2,731.93	79.4875	2,731.93	77.5024	2,731.93	77.4443	2,731.93	73.476	2,731.93	75.8282	2,731.93	72.6231	2,731.93	73.88	2,731.93	71.6115	2,731.93	71.9324	2,731.93	70.0043	2,731.93	71.541	2,731.93	70.3529	2,731.93	68.0946	2,731.93	69.7774	2,731.93	70.6776	2,731.93	68.0972	2,731.93	69.3963	2,731.93	69.7091	2,731.93	69.6411	2,731.93	67.366	2,731.93	69.3277	2,731.93	66.5692	2,731.93	65.2107	2,731.93	66.9461
2,828.61	85.5091	2,828.61	85.0571	2,828.61	85.5207	2,828.61	84.8166	2,828.61	84.6199	2,828.61	83.5549	2,828.61	84.0302	2,828.61	82.6352	2,828.61	82.9519	2,828.61	80.7707	2,828.61	81.6551	2,828.61	78.3267	2,828.61	79.9857	2,828.61	76.0007	2,828.61	78.2231	2,828.61	74.319	2,828.61	76.8478	2,828.61	72.2913	2,828.61	75.49	2,828.61	71.7862	2,828.61	73.0395	2,828.61	71.3312	2,828.61	70.6115	2,828.61	68.5801	2,828.61	68.3051	2,828.61	71.351	2,828.61	71.3643	2,828.61	69.4007	2,828.61	68.9785	2,828.61	68.8899	2,828.61	70.4549	2,828.61	68.6797	2,828.61	69.8387	2,828.61	66.1728	2,828.61	65.3578	2,828.61	70.6417
2,928.22	85.9092	2,928.22	85.6509	2,928.22	86.1308	2,928.22	85.7102	2,928.22	85.4092	2,928.22	84.8297	2,928.22	85.0714	2,928.22	83.6235	2,928.22	83.6948	2,928.22	81.9358	2,928.22	82.0845	2,928.22	79.8108	2,928.22	80.592	2,928.22	76.5598	2,928.22	78.4101	2,928.22	75.9263	2,928.22	75.8596	2,928.22	73.4504	2,928.22	74.2018	2,928.22	71.6198	2,928.22	71.8036	2,928.22	72.2361	2,928.22	71.8475	2,928.22	67.9065	2,928.22	69.4388	2,928.22	71.5073	2,928.22	70.6227	2,928.22	70.1055	2,928.22	70.4579	2,928.22	71.037	2,928.22	71.283	2,928.22	69.5326	2,928.22	71.5202	2,928.22	65.7034	2,928.22	68.8942	2,928.22	70.6459
3,030.76	86.1323	3,030.76	85.8797	3,030.76	86.5218	3,030.76	85.7308	3,030.76	85.8216	3,030.76	85.3332	3,030.76	85.4424	3,030.76	84.1711	3,030.76	84.3689	3,030.76	82.7322	3,030.76	82.5201	3,030.76	80.1975	3,030.76	79.633	3,030.76	78.1153	3,030.76	77.6337	3,030.76	76.3636	3,030.76	75.5192	3,030.76	73.1723	3,030.76	73.8801	3,030.76	71.5573	3,030.76	71.3748	3,030.76	71.0368	3,030.76	71.575	3,030.76	68.5354	3,030.76	70.2476	3,030.76	71.4113	3,030.76	68.9798	3,030.76	70.8911	3,030.76	70.9189	3,030.76	72.7206	3,030.76	70.2796	3,030.76	71.2676	3,030.76	72.2039	3,030.76	70.4358	3,030.76	67.376	3,030.76	71.1736
3,137.7	86.3766	3,137.7	86.3733	3,137.7	86.1074	3,137.7	85.9036	3,137.7	85.8404	3,137.7	85.3425	3,137.7	84.9774	3,137.7	84.7936	3,137.7	84.2849	3,137.7	83.0985	3,137.7	82.7868	3,137.7	80.4522	3,137.7	80.2304	3,137.7	79.2251	3,137.7	77.6449	3,137.7	76.1337	3,137.7	76.4099	3,137.7	73.8281	3,137.7	74.5115	3,137.7	71.445	3,137.7	72.567	3,137.7	70.9235	3,137.7	69.6347	3,137.7	67.6575	3,137.7	69.2317	3,137.7	69.3882	3,137.7	68.0731	3,137.7	70.0906	3,137.7	70.3492	3,137.7	72.1527	3,137.7	70.4803	3,137.7	72.0403	3,137.7	71.9826	3,137.7	69.9733	3,137.7	67.3269	3,137.7	71.0305
3,249.02	86.7061	3,249.02	86.2985	3,249.02	86.4785	3,249.02	85.343	3,249.02	85.9021	3,249.02	84.4497	3,249.02	85.0448	3,249.02	83.7176	3,249.02	84.4867	3,249.02	82.5496	3,249.02	83.4453	3,249.02	80.2114	3,249.02	81.376	3,249.02	78.6841	3,249.02	78.248	3,249.02	75.9786	3,249.02	77.0946	3,249.02	73.7008	3,249.02	74.9146	3,249.02	71.4692	3,249.02	72.9426	3,249.02	71.2628	3,249.02	70.6235	3,249.02	68.7782	3,249.02	69.9127	3,249.02	68.7812	3,249.02	67.4616	3,249.02	70.7582	3,249.02	72.06	3,249.02	72.0837	3,249.02	70.2074	3,249.02	71.5093	3,249.02	73.0231	3,249.02	68.6712	3,249.02	68.7189	3,249.02	69.668
3,363.28	86.4547	3,363.28	86.5398	3,363.28	85.7821	3,363.28	85.9331	3,363.28	86.3682	3,363.28	84.943	3,363.28	85.4467	3,363.28	84.0339	3,363.28	84.1421	3,363.28	81.8832	3,363.28	82.6367	3,363.28	80.3166	3,363.28	81.5648	3,363.28	77.3335	3,363.28	78.5024	3,363.28	75.2652	3,363.28	76.0498	3,363.28	73.2668	3,363.28	73.8121	3,363.28	71.3153	3,363.28	72.36	3,363.28	70.551	3,363.28	71.7265	3,363.28	69.9155	3,363.28	70.5194	3,363.28	65.7677	3,363.28	65.7448	3,363.28	71.389	3,363.28	72.0586	3,363.28	71.6366	3,363.28	70.7319	3,363.28	72.5936	3,363.28	73.3891	3,363.28	66.9196	3,363.28	67.6809	3,363.28	69.6369
3,481.93	84.904	3,481.93	85.1443	3,481.93	85.6316	3,481.93	86.1781	3,481.93	85.4845	3,481.93	86.2077	3,481.93	85.5037	3,481.93	84.0193	3,481.93	83.9365	3,481.93	81.2884	3,481.93	82.4807	3,481.93	80.1263	3,481.93	80.5884	3,481.93	76.7739	3,481.93	77.9692	3,481.93	75.3506	3,481.93	75.3813	3,481.93	71.4043	3,481.93	72.1848	3,481.93	70.0861	3,481.93	69.9244	3,481.93	70.2963	3,481.93	70.0868	3,481.93	68.9911	3,481.93	70.3019	3,481.93	67.5336	3,481.93	62.4406	3,481.93	72.5263	3,481.93	71.0835	3,481.93	70.9572	3,481.93	70.3301	3,481.93	72.3092	3,481.93	72.7992	3,481.93	66.9979	3,481.93	67.4565	3,481.93	69.5597
3,604.98	84.9321	3,604.98	84.8895	3,604.98	85.405	3,604.98	85.2946	3,604.98	85.6144	3,604.98	85.6282	3,604.98	85.9502	3,604.98	83.5694	3,604.98	84.7049	3,604.98	81.1257	3,604.98	82.5363	3,604.98	78.5407	3,604.98	80.2077	3,604.98	75.8388	3,604.98	77.8422	3,604.98	73.9098	3,604.98	76.5787	3,604.98	71.8845	3,604.98	74.2057	3,604.98	68.5727	3,604.98	70.3238	3,604.98	67.7544	3,604.98	68.0617	3,604.98	67.1367	3,604.98	70.4163	3,604.98	64.4906	3,604.98	64.084	3,604.98	72.8531	3,604.98	71.0189	3,604.98	71.106	3,604.98	71.5341	3,604.98	73.3947	3,604.98	73.5876	3,604.98	66.0972	3,604.98	67.7449	3,604.98	70.2677
3,732.42	85.8241	3,732.42	85.5706	3,732.42	86.0866	3,732.42	85.6419	3,732.42	86.4344	3,732.42	85.1503	3,732.42	86.3528	3,732.42	83.6988	3,732.42	85.5497	3,732.42	82.3004	3,732.42	82.9618	3,732.42	79.3745	3,732.42	80.0234	3,732.42	77.5188	3,732.42	78.3248	3,732.42	74.0185	3,732.42	74.6289	3,732.42	73.434	3,732.42	72.7771	3,732.42	69.5141	3,732.42	71.8086	3,732.42	64.2092	3,732.42	66.7719	3,732.42	67.7082	3,732.42	68.7291	3,732.42	50.8409	3,732.42	63.3067	3,732.42	70.2367	3,732.42	68.3985	3,732.42	70.6928	3,732.42	69.8215	3,732.42	72.5476	3,732.42	72.8568	3,732.42	64.503	3,732.42	64.9812	3,732.42	68.1199
3,864.26	84.8723	3,864.26	85.5059	3,864.26	84.9368	3,864.26	85.6089	3,864.26	85.7185	3,864.26	84.624	3,864.26	84.982	3,864.26	83.9218	3,864.26	83.962	3,864.26	81.6844	3,864.26	81.6623	3,864.26	79.2617	3,864.26	79.2794	3,864.26	77.4861	3,864.26	77.4523	3,864.26	74.8551	3,864.26	75.7876	3,864.26	73.698	3,864.26	73.0302	3,864.26	70.9382	3,864.26	71.7715	3,864.26	67.5074	3,864.26	67.2058	3,864.26	70.0899	3,864.26	65.5187	3,864.26	64.0864	3,864.26	66.4152	3,864.26	65.2478	3,864.26	65.4872	3,864.26	68.935	3,864.26	66.5727	3,864.26	70.7888	3,864.26	70.8914	3,864.26	61.2798	3,864.26	66.4705	3,864.26	64.8231
4,000.49	85.2023	4,000.49	85.9036	4,000.49	85.3365	4,000.49	85.26	4,000.49	86.0655	4,000.49	84.354	4,000.49	85.0796	4,000.49	83.467	4,000.49	83.8722	4,000.49	80.3979	4,000.49	81.6399	4,000.49	78.2231	4,000.49	79.8674	4,000.49	76.246	4,000.49	78.1093	4,000.49	73.6752	4,000.49	75.4599	4,000.49	71.7156	4,000.49	73.4281	4,000.49	71.0573	4,000.49	72.1096	4,000.49	66.9618	4,000.49	68.2687	4,000.49	67.1163	4,000.49	66.9311	4,000.49	63.9575	4,000.49	67.3502	4,000.49	65.8878	4,000.49	62.1488	4,000.49	66.1677	4,000.49	67.4286	4,000.49	69.994	4,000.49	70.1915	4,000.49	61.7801	4,000.49	66.6848	4,000.49	63.4878
4,141.11	86.3629	4,141.11	85.9808	4,141.11	86.8938	4,141.11	86.3607	4,141.11	86.2012	4,141.11	84.8064	4,141.11	85.5769	4,141.11	82.3417	4,141.11	83.411	4,141.11	80.0832	4,141.11	81.6471	4,141.11	78.6917	4,141.11	80.2321	4,141.11	77.1643	4,141.11	78.1429	4,141.11	75.5575	4,141.11	76.0598	4,141.11	72.0112	4,141.11	73.9835	4,141.11	71.0451	4,141.11	71.8764	4,141.11	66.3246	4,141.11	70.065	4,141.11	67.3438	4,141.11	66.7011	4,141.11	64.3628	4,141.11	65.5552	4,141.11	63.2225	4,141.11	66.9401	4,141.11	65.7337	4,141.11	69.4747	4,141.11	69.554	4,141.11	70.5346	4,141.11	62.442	4,141.11	66.9531	4,141.11	65.4907
4,287.6	86.3649	4,287.6	86.0537	4,287.6	86.4535	4,287.6	86.1335	4,287.6	86.1186	4,287.6	84.4113	4,287.6	85.0384	4,287.6	81.8744	4,287.6	83.2199	4,287.6	80.3672	4,287.6	81.7951	4,287.6	79.3584	4,287.6	80.1432	4,287.6	77.3758	4,287.6	77.7802	4,287.6	75.2257	4,287.6	75.6214	4,287.6	72.249	4,287.6	74.3044	4,287.6	70.4269	4,287.6	71.425	4,287.6	69.5604	4,287.6	69.8381	4,287.6	68.1077	4,287.6	67.4913	4,287.6	66.3019	4,287.6	66.0815	4,287.6	66.1921	4,287.6	67.4144	4,287.6	67.0945	4,287.6	69.2023	4,287.6	69.8273	4,287.6	70.1009	4,287.6	63.1137	4,287.6	66.4515	4,287.6	65.6225
4,438.48	85.6247	4,438.48	86.134	4,438.48	85.8658	4,438.48	84.9782	4,438.48	86.0583	4,438.48	84.8069	4,438.48	85.257	4,438.48	83.4802	4,438.48	83.7623	4,438.48	81.9662	4,438.48	82.1163	4,438.48	79.6136	4,438.48	80.2377	4,438.48	77.5339	4,438.48	78.0727	4,438.48	74.5793	4,438.48	76.4981	4,438.48	72.8711	4,438.48	74.3861	4,438.48	71.8242	4,438.48	72.3796	4,438.48	68.0079	4,438.48	69.3157	4,438.48	66.6364	4,438.48	68.1194	4,438.48	67.2199	4,438.48	65.8568	4,438.48	67.3322	4,438.48	62.3014	4,438.48	68.5323	4,438.48	68.8764	4,438.48	70.7611	4,438.48	68.4243	4,438.48	59.7096	4,438.48	66.4622	4,438.48	62.1692
4,595.21	85.9564	4,595.21	85.599	4,595.21	86.336	4,595.21	85.7032	4,595.21	85.6542	4,595.21	84.335	4,595.21	85.2898	4,595.21	83.3719	4,595.21	83.5276	4,595.21	81.893	4,595.21	81.6311	4,595.21	79.7564	4,595.21	80.2466	4,595.21	77.9295	4,595.21	78.3172	4,595.21	75.6132	4,595.21	75.2664	4,595.21	72.3607	4,595.21	73.7341	4,595.21	72.1452	4,595.21	70.3064	4,595.21	68.3725	4,595.21	69.8122	4,595.21	65.5567	4,595.21	66.764	4,595.21	66.3962	4,595.21	65.6101	4,595.21	64.065	4,595.21	64.5285	4,595.21	68.8529	4,595.21	68.9168	4,595.21	69.9877	4,595.21	69.3007	4,595.21	62.3881	4,595.21	65.2229	4,595.21	62.5392
4,756.35	86.5348	4,756.35	86.4077	4,756.35	86.3958	4,756.35	85.9688	4,756.35	86.1666	4,756.35	84.5146	4,756.35	84.6337	4,756.35	82.7753	4,756.35	83.4805	4,756.35	81.3998	4,756.35	82.7369	4,756.35	79.8462	4,756.35	80.942	4,756.35	77.6101	4,756.35	78.6348	4,756.35	74.1843	4,756.35	76.8299	4,756.35	72.218	4,756.35	73.8759	4,756.35	68.824	4,756.35	70.5705	4,756.35	68.8344	4,756.35	68.42	4,756.35	68.1247	4,756.35	67.1511	4,756.35	64.8213	4,756.35	65.7163	4,756.35	66.0609	4,756.35	66.8627	4,756.35	68.4718	4,756.35	68.5216	4,756.35	67.7371	4,756.35	67.5549	4,756.35	61.4829	4,756.35	65.3419	4,756.35	63.3243
4,924.8	86.1438	4,924.8	86.1288	4,924.8	85.7337	4,924.8	84.7677	4,924.8	85.687	4,924.8	84.3023	4,924.8	84.4764	4,924.8	83.0681	4,924.8	83.4769	4,924.8	82.2306	4,924.8	82.7595	4,924.8	80.89	4,924.8	81.1429	4,924.8	78.8806	4,924.8	78.4596	4,924.8	75.4161	4,924.8	75.6252	4,924.8	73.5353	4,924.8	73.0476	4,924.8	69.6128	4,924.8	70.305	4,924.8	69.1425	4,924.8	69.6236	4,924.8	65.8659	4,924.8	66.0791	4,924.8	65.2088	4,924.8	65.589	4,924.8	66.0062	4,924.8	65.8476	4,924.8	69.3152	4,924.8	67.995	4,924.8	68.5316	4,924.8	67.7012	4,924.8	62.9248	4,924.8	65.9143	4,924.8	60.14
5,097.66	85.8399	5,097.66	85.1132	5,097.66	86.2672	5,097.66	84.2637	5,097.66	85.0448	5,097.66	82.8371	5,097.66	84.5347	5,097.66	82.8611	5,097.66	83.3346	5,097.66	81.1852	5,097.66	81.9662	5,097.66	79.3656	5,097.66	80.5745	5,097.66	75.6417	5,097.66	77.8856	5,097.66	74.064	5,097.66	74.6924	5,097.66	72.4728	5,097.66	72.5386	5,097.66	70.8456	5,097.66	70.1386	5,097.66	67.3889	5,097.66	66.7661	5,097.66	66.3757	5,097.66	65.4236	5,097.66	64.5971	5,097.66	64.8762	5,097.66	66.4829	5,097.66	64.8402	5,097.66	68.6422	5,097.66	67.9385	5,097.66	67.4613	5,097.66	66.7314	5,097.66	61.9058	5,097.66	66.6114	5,097.66	60.0305
5,277.83	86.2	5,277.83	85.589	5,277.83	85.9371	5,277.83	84.9961	5,277.83	84.9825	5,277.83	84.0992	5,277.83	83.9246	5,277.83	83.7401	5,277.83	83.5027	5,277.83	82.1455	5,277.83	82.4874	5,277.83	79.3899	5,277.83	80.0384	5,277.83	75.9774	5,277.83	77.2474	5,277.83	73.4594	5,277.83	74.4959	5,277.83	69.1709	5,277.83	70.6012	5,277.83	67.0833	5,277.83	69.1423	5,277.83	66.0914	5,277.83	66.4868	5,277.83	63.4786	5,277.83	65.5553	5,277.83	63.1349	5,277.83	63.5946	5,277.83	62.8339	5,277.83	63.4266	5,277.83	66.2369	5,277.83	67.9102	5,277.83	65.6104	5,277.83	65.9729	5,277.83	60.8727	5,277.83	65.2324	5,277.83	57.7246
5,463.87	86.0524	5,463.87	85.3669	5,463.87	85.5422	5,463.87	83.9189	5,463.87	84.8443	5,463.87	83.0525	5,463.87	83.7865	5,463.87	82.5244	5,463.87	83.4651	5,463.87	81.1669	5,463.87	82.33	5,463.87	78.5735	5,463.87	79.9985	5,463.87	76.8783	5,463.87	77.1945	5,463.87	73.0793	5,463.87	73.8291	5,463.87	71.4861	5,463.87	70.7711	5,463.87	66.0454	5,463.87	68.6674	5,463.87	65.7437	5,463.87	67.5044	5,463.87	64.2248	5,463.87	63.3576	5,463.87	65.97	5,463.87	62.87	5,463.87	62.9015	5,463.87	62.9751	5,463.87	67.9774	5,463.87	66.9284	5,463.87	66.3236	5,463.87	64.7807	5,463.87	63.3232	5,463.87	65.3577	5,463.87	57.02
5,657.23	86.504	5,657.23	85.7318	5,657.23	86.2313	5,657.23	84.4166	5,657.23	84.4691	5,657.23	83.9272	5,657.23	84.2317	5,657.23	83.5445	5,657.23	83.3503	5,657.23	81.425	5,657.23	81.6297	5,657.23	78.124	5,657.23	79.454	5,657.23	74.7265	5,657.23	76.5119	5,657.23	71.3463	5,657.23	72.6541	5,657.23	68.7163	5,657.23	70.5948	5,657.23	67.8675	5,657.23	68.588	5,657.23	64.5174	5,657.23	65.887	5,657.23	62.9412	5,657.23	63.4044	5,657.23	64.9793	5,657.23	65.4621	5,657.23	64.5657	5,657.23	63.6344	5,657.23	66.6206	5,657.23	65.8511	5,657.23	63.5034	5,657.23	64.457	5,657.23	63.244	5,657.23	65.8702	5,657.23	56.6799
5,856.45	86.5215	5,856.45	85.3476	5,856.45	85.9144	5,856.45	83.9716	5,856.45	84.6896	5,856.45	83.8338	5,856.45	83.9668	5,856.45	83.535	5,856.45	83.7497	5,856.45	81.069	5,856.45	81.7521	5,856.45	78.2254	5,856.45	78.9937	5,856.45	74.5973	5,856.45	75.7167	5,856.45	73.0903	5,856.45	73.8665	5,856.45	70.264	5,856.45	71.7731	5,856.45	69.7348	5,856.45	68.6956	5,856.45	66.435	5,856.45	66.8974	5,856.45	64.6847	5,856.45	64.7921	5,856.45	65.4574	5,856.45	66.2005	5,856.45	63.2179	5,856.45	63.1305	5,856.45	65.8397	5,856.45	64.6728	5,856.45	65.5429	5,856.45	66.7469	5,856.45	62.3161	5,856.45	66.5959	5,856.45	56.3777
6,062.99	86.7556	6,062.99	85.6348	6,062.99	86.0284	6,062.99	84.5622	6,062.99	84.7828	6,062.99	84.9897	6,062.99	84.6513	6,062.99	84.3338	6,062.99	84.1519	6,062.99	82.3507	6,062.99	82.2346	6,062.99	79.1536	6,062.99	79.1281	6,062.99	77.1056	6,062.99	77.0401	6,062.99	73.518	6,062.99	74.3683	6,062.99	71.2689	6,062.99	72.7013	6,062.99	68.4205	6,062.99	69.4165	6,062.99	65.7102	6,062.99	67.4732	6,062.99	64.3717	6,062.99	65.8352	6,062.99	66.3719	6,062.99	65.267	6,062.99	64.0898	6,062.99	63.1674	6,062.99	66.6872	6,062.99	65.545	6,062.99	64.5337	6,062.99	66.5036	6,062.99	61.4672	6,062.99	65.8696	6,062.99	55.5953
6,276.86	86.4464	6,276.86	85.1405	6,276.86	85.9403	6,276.86	84.5885	6,276.86	84.4043	6,276.86	84.8872	6,276.86	85.1441	6,276.86	83.9856	6,276.86	84.3036	6,276.86	81.2259	6,276.86	81.9516	6,276.86	78.1676	6,276.86	79.2569	6,276.86	76.9013	6,276.86	76.4408	6,276.86	74.0264	6,276.86	74.0126	6,276.86	72.2201	6,276.86	72.2585	6,276.86	69.4451	6,276.86	69.5783	6,276.86	67.6657	6,276.86	67.331	6,276.86	66.6264	6,276.86	66.6507	6,276.86	66.5798	6,276.86	64.2914	6,276.86	63.8648	6,276.86	64.0591	6,276.86	66.9975	6,276.86	65.6998	6,276.86	65.3139	6,276.86	65.9583	6,276.86	62.7386	6,276.86	66.0771	6,276.86	57.8181
6,498.05	86.725	6,498.05	85.7141	6,498.05	86.0065	6,498.05	85.0084	6,498.05	85.2751	6,498.05	85.2771	6,498.05	85.3892	6,498.05	84.3122	6,498.05	84.9274	6,498.05	81.2798	6,498.05	82.6978	6,498.05	79.0426	6,498.05	79.9071	6,498.05	76.4092	6,498.05	77.5607	6,498.05	73.7119	6,498.05	75.0242	6,498.05	71.2606	6,498.05	72.5642	6,498.05	68.7257	6,498.05	68.9097	6,498.05	67.1568	6,498.05	68.162	6,498.05	65.496	6,498.05	66.1554	6,498.05	64.364	6,498.05	63.8868	6,498.05	65.0001	6,498.05	64.4555	6,498.05	66.6327	6,498.05	66.0683	6,498.05	65.8887	6,498.05	67.419	6,498.05	60.8907	6,498.05	65.4329	6,498.05	58.0003
6,726.56	86.9518	6,726.56	85.9734	6,726.56	86.5058	6,726.56	85.5979	6,726.56	85.4525	6,726.56	85.6841	6,726.56	85.7697	6,726.56	84.0441	6,726.56	84.2413	6,726.56	81.7205	6,726.56	81.976	6,726.56	79.3569	6,726.56	80.1907	6,726.56	77.5252	6,726.56	78.4419	6,726.56	74.3119	6,726.56	74.835	6,726.56	72.2495	6,726.56	72.0636	6,726.56	68.3569	6,726.56	69.8116	6,726.56	67.3686	6,726.56	68.3431	6,726.56	66.1616	6,726.56	64.5236	6,726.56	63.3073	6,726.56	65.8191	6,726.56	64.3767	6,726.56	63.3633	6,726.56	65.8194	6,726.56	65.9359	6,726.56	66.2245	6,726.56	65.9447	6,726.56	60.4938	6,726.56	65.4826	6,726.56	58.9777
6,963.87	86.7417	6,963.87	85.9016	6,963.87	86.3478	6,963.87	85.8109	6,963.87	85.9482	6,963.87	85.1529	6,963.87	86.0023	6,963.87	83.3874	6,963.87	84.1482	6,963.87	81.0608	6,963.87	81.8616	6,963.87	78.9895	6,963.87	80.0973	6,963.87	76.5871	6,963.87	77.5673	6,963.87	73.4288	6,963.87	74.6253	6,963.87	70.7431	6,963.87	71.6958	6,963.87	68.6942	6,963.87	69.0343	6,963.87	64.5905	6,963.87	66.232	6,963.87	63.7138	6,963.87	65.0106	6,963.87	62.9725	6,963.87	64.9389	6,963.87	63.5604	6,963.87	64.2802	6,963.87	66.1608	6,963.87	65.4231	6,963.87	65.3368	6,963.87	67.4942	6,963.87	60.5159	6,963.87	64.3968	6,963.87	59.244
7,209.96	86.8111	7,209.96	86.0922	7,209.96	86.4043	7,209.96	85.9492	7,209.96	86.2771	7,209.96	85.3096	7,209.96	85.6704	7,209.96	83.2256	7,209.96	83.9298	7,209.96	81.4373	7,209.96	82.4174	7,209.96	80.2106	7,209.96	80.68	7,209.96	77.6495	7,209.96	78.6847	7,209.96	74.1065	7,209.96	74.5244	7,209.96	71.4707	7,209.96	71.8397	7,209.96	68.5206	7,209.96	69.0147	7,209.96	66.5347	7,209.96	67.3862	7,209.96	63.7205	7,209.96	65.2241	7,209.96	62.7781	7,209.96	65.7413	7,209.96	64.3835	7,209.96	62.0194	7,209.96	66.5361	7,209.96	65.4775	7,209.96	66.6203	7,209.96	66.6874	7,209.96	60.0015	7,209.96	64.4344	7,209.96	58.6942
7,464.84	86.2735	7,464.84	86.2467	7,464.84	86.2229	7,464.84	86.3914	7,464.84	86.2163	7,464.84	85.0092	7,464.84	85.5106	7,464.84	83.3785	7,464.84	82.9389	7,464.84	82.7744	7,464.84	81.1434	7,464.84	79.968	7,464.84	80.0494	7,464.84	76.9402	7,464.84	77.1166	7,464.84	73.4155	7,464.84	73.5999	7,464.84	70.0041	7,464.84	70.9113	7,464.84	68.0671	7,464.84	66.8552	7,464.84	64.0837	7,464.84	65.2725	7,464.84	62.6066	7,464.84	64.1579	7,464.84	62.9301	7,464.84	60.2509	7,464.84	62.436	7,464.84	62.944	7,464.84	65.0382	7,464.84	63.7569	7,464.84	65.6479	7,464.84	64.4213	7,464.84	60.777	7,464.84	63.8182	7,464.84	57.7206
7,727.05	86.6369	7,727.05	86.8352	7,727.05	86.7242	7,727.05	86.2965	7,727.05	86.7506	7,727.05	84.6873	7,727.05	85.423	7,727.05	83.1576	7,727.05	83.9992	7,727.05	81.672	7,727.05	83.0913	7,727.05	79.6725	7,727.05	80.8671	7,727.05	76.1075	7,727.05	77.5093	7,727.05	73.1255	7,727.05	73.8947	7,727.05	71.4983	7,727.05	71.85	7,727.05	68.1214	7,727.05	68.7315	7,727.05	66.4736	7,727.05	66.9532	7,727.05	64.1937	7,727.05	64.9289	7,727.05	59.9258	7,727.05	60.7724	7,727.05	62.9271	7,727.05	61.0951	7,727.05	65.7267	7,727.05	64.9628	7,727.05	66.6905	7,727.05	66.3721	7,727.05	55.5026	7,727.05	64.2245	7,727.05	58.4347
7,999.51	86.3502	7,999.51	86.874	7,999.51	86.9458	7,999.51	86.6155	7,999.51	87.0481	7,999.51	84.7929	7,999.51	85.2214	7,999.51	84.1075	7,999.51	83.3813	7,999.51	83.1032	7,999.51	82.8975	7,999.51	80.1188	7,999.51	80.4627	7,999.51	77.1087	7,999.51	77.0749	7,999.51	74.3175	7,999.51	74.7015	7,999.51	71.5735	7,999.51	72.1814	7,999.51	68.4363	7,999.51	68.9374	7,999.51	67.0669	7,999.51	66.4635	7,999.51	65.4039	7,999.51	62.6325	7,999.51	61.0471	7,999.51	59.7039	7,999.51	62.9046	7,999.51	61.7899	7,999.51	65.442	7,999.51	62.1348	7,999.51	66.7545	7,999.51	65.8406	7,999.51	61.8274	7,999.51	62.4123	7,999.51	58.9999
8,282.23	86.2785	8,282.23	87.5936	8,282.23	87.4897	8,282.23	87.0356	8,282.23	87.4939	8,282.23	85.2852	8,282.23	85.7374	8,282.23	84.8915	8,282.23	84.6906	8,282.23	83.1499	8,282.23	83.9113	8,282.23	80.5369	8,282.23	81.1031	8,282.23	76.9332	8,282.23	77.8802	8,282.23	74.1818	8,282.23	74.8672	8,282.23	70.9977	8,282.23	71.7924	8,282.23	68.7332	8,282.23	70.3117	8,282.23	67.3185	8,282.23	66.9269	8,282.23	64.6137	8,282.23	64.7891	8,282.23	58.1519	8,282.23	62.0495	8,282.23	62.2624	8,282.23	62.3266	8,282.23	65.6996	8,282.23	65.3659	8,282.23	67.6554	8,282.23	67.9753	8,282.23	61.0701	8,282.23	62.1117	8,282.23	60.9006
8,573.73	86.681	8,573.73	88.1775	8,573.73	87.6631	8,573.73	87.586	8,573.73	87.9983	8,573.73	85.241	8,573.73	85.7962	8,573.73	85.1639	8,573.73	84.7492	8,573.73	83.2128	8,573.73	83.3581	8,573.73	80.3004	8,573.73	80.5996	8,573.73	77.8014	8,573.73	77.176	8,573.73	73.8364	8,573.73	74.6623	8,573.73	70.0245	8,573.73	71.5246	8,573.73	68.214	8,573.73	69.0778	8,573.73	67.0648	8,573.73	66.9353	8,573.73	63.9721	8,573.73	62.7429	8,573.73	58.3261	8,573.73	59.5596	8,573.73	62.9821	8,573.73	62.7186	8,573.73	65.223	8,573.73	64.0123	8,573.73	67.5195	8,573.73	67.8181	8,573.73	61.2009	8,573.73	59.1876	8,573.73	60.9326
8,876.95	86.7083	8,876.95	88.2766	8,876.95	88.13	8,876.95	87.2757	8,876.95	87.8751	8,876.95	85.0438	8,876.95	85.6305	8,876.95	84.3793	8,876.95	84.5351	8,876.95	81.9716	8,876.95	82.9914	8,876.95	79.0735	8,876.95	80.104	8,876.95	75.9427	8,876.95	77.1274	8,876.95	72.5526	8,876.95	73.5948	8,876.95	71.1402	8,876.95	71.0265	8,876.95	68.3038	8,876.95	68.3267	8,876.95	65.5008	8,876.95	65.74	8,876.95	59.6756	8,876.95	63.929	8,876.95	54.1578	8,876.95	60.0329	8,876.95	63.8671	8,876.95	61.7802	8,876.95	63.712	8,876.95	63.2924	8,876.95	65.5569	8,876.95	67.7523	8,876.95	57.0252	8,876.95	59.9544	8,876.95	62.1307
9,188.96	86.8707	9,188.96	88.1374	9,188.96	88.0636	9,188.96	86.8426	9,188.96	87.5287	9,188.96	84.7765	9,188.96	85.376	9,188.96	83.9691	9,188.96	83.8421	9,188.96	81.5165	9,188.96	81.7699	9,188.96	78.1724	9,188.96	78.7777	9,188.96	75.6525	9,188.96	76.6412	9,188.96	72.6782	9,188.96	72.797	9,188.96	69.378	9,188.96	70.1463	9,188.96	65.7196	9,188.96	65.9172	9,188.96	64.6321	9,188.96	63.5823	9,188.96	62.4713	9,188.96	61.7893	9,188.96	55.7776	9,188.96	59.8809	9,188.96	60.7408	9,188.96	59.9695	9,188.96	63.5961	9,188.96	61.5426	9,188.96	63.6513	9,188.96	66.5182	9,188.96	57.5892	9,188.96	60.1471	9,188.96	58.2451
9,514.16	86.6042	9,514.16	87.7388	9,514.16	87.8642	9,514.16	86.5374	9,514.16	87.1785	9,514.16	85.343	9,514.16	85.6167	9,514.16	83.464	9,514.16	84.0635	9,514.16	80.1782	9,514.16	81.3111	9,514.16	77.4557	9,514.16	77.8506	9,514.16	74.6894	9,514.16	75.3127	9,514.16	71.5972	9,514.16	72.2931	9,514.16	68.5217	9,514.16	68.9235	9,514.16	65.5614	9,514.16	66.2075	9,514.16	63.5638	9,514.16	63.943	9,514.16	61.385	9,514.16	61.6035	9,514.16	57.6099	9,514.16	59.8821	9,514.16	54.9474	9,514.16	60.5667	9,514.16	61.9789	9,514.16	61.2622	9,514.16	63.0542	9,514.16	66.1757	9,514.16	54.9671	9,514.16	57.702	9,514.16	59.8372
9,849.61	86.7153	9,849.61	87.7952	9,849.61	87.5145	9,849.61	86.9591	9,849.61	87.3256	9,849.61	85.4715	9,849.61	86.0547	9,849.61	83.0764	9,849.61	83.8732	9,849.61	79.8262	9,849.61	80.4422	9,849.61	77.3234	9,849.61	78.3246	9,849.61	74.7032	9,849.61	75.5585	9,849.61	71.0884	9,849.61	71.8988	9,849.61	67.4279	9,849.61	68.6183	9,849.61	65.2867	9,849.61	65.5407	9,849.61	62.5698	9,849.61	63.7609	9,849.61	61.2079	9,849.61	61.4475	9,849.61	60.3406	9,849.61	55.8977	9,849.61	56.8558	9,849.61	57.3304	9,849.61	61.9386	9,849.61	59.7166	9,849.61	62.5467	9,849.61	65.7632	9,849.61	42.8895	9,849.61	54.8612	9,849.61	58.4443
10,196.8	86.9126	10,196.8	87.4042	10,196.8	87.7701	10,196.8	86.991	10,196.8	87.2212	10,196.8	85.7914	10,196.8	86.2875	10,196.8	82.5405	10,196.8	83.3692	10,196.8	79.3872	10,196.8	80.4868	10,196.8	77.7493	10,196.8	78.5747	10,196.8	74.1346	10,196.8	75.0838	10,196.8	69.2383	10,196.8	70.829	10,196.8	66.995	10,196.8	67.4437	10,196.8	62.8328	10,196.8	63.3542	10,196.8	62.6986	10,196.8	63.4754	10,196.8	60.8122	10,196.8	59.5996	10,196.8	58.6196	10,196.8	58.8112	10,196.8	51.304	10,196.8	53.9325	10,196.8	60.6754	10,196.8	56.6727	10,196.8	62.9676	10,196.8	64.3802	10,196.8	51.59	10,196.8	53.423	10,196.8	59.6757
10,555.7	87.072	10,555.7	87.3804	10,555.7	87.5429	10,555.7	87.2191	10,555.7	87.3767	10,555.7	85.7694	10,555.7	86.7383	10,555.7	82.5451	10,555.7	83.457	10,555.7	80.7603	10,555.7	81.2575	10,555.7	77.0409	10,555.7	78.2529	10,555.7	73.2532	10,555.7	74.8179	10,555.7	69.7115	10,555.7	70.9779	10,555.7	67.3966	10,555.7	67.7589	10,555.7	63.9236	10,555.7	65.6872	10,555.7	63.032	10,555.7	63.4243	10,555.7	61.0027	10,555.7	62.0588	10,555.7	56.9825	10,555.7	60.3442	10,555.7	54.429	10,555.7	58.0835	10,555.7	60.3567	10,555.7	59.1493	10,555.7	62.281	10,555.7	63.7984	10,555.7	48.7879	10,555.7	44.9981	10,555.7	57.7101
10,927.7	87.3859	10,927.7	87.0582	10,927.7	87.3014	10,927.7	87.8557	10,927.7	87.8299	10,927.7	86.2435	10,927.7	87.077	10,927.7	83.2757	10,927.7	83.5106	10,927.7	80.5408	10,927.7	80.9633	10,927.7	77.7411	10,927.7	78.2197	10,927.7	72.8763	10,927.7	73.9034	10,927.7	70.1167	10,927.7	70.6492	10,927.7	66.8208	10,927.7	66.397	10,927.7	64.8665	10,927.7	65.2255	10,927.7	62.0066	10,927.7	63.2961	10,927.7	62.0454	10,927.7	62.2622	10,927.7	58.143	10,927.7	58.4654	10,927.7	56.6128	10,927.7	57.5053	10,927.7	58.1038	10,927.7	59.2931	10,927.7	62.85	10,927.7	65.2879	10,927.7	51.501	10,927.7	36.4021	10,927.7	57.5941
11,313	88.034	11,313	86.6805	11,313	87.1976	11,313	87.6841	11,313	87.7498	11,313	85.797	11,313	86.7234	11,313	82.9108	11,313	83.6293	11,313	80.6644	11,313	81.3514	11,313	76.2008	11,313	78.1045	11,313	73.197	11,313	73.8668	11,313	69.0787	11,313	71.4545	11,313	67.9311	11,313	67.2039	11,313	63.7238	11,313	63.8259	11,313	62.2049	11,313	61.3069	11,313	61.8258	11,313	60.7693	11,313	55.7389	11,313	60.0756	11,313	56.9419	11,313	53.9941	11,313	56.7607	11,313	55.6319	11,313	61.9398	11,313	63.4528	11,313	51.0526	11,313	37.8435	11,313	58.2569
11,712.9	87.9396	11,712.9	86.184	11,712.9	86.5454	11,712.9	86.8035	11,712.9	86.8931	11,712.9	85.3307	11,712.9	86.2438	11,712.9	82.4986	11,712.9	83.3383	11,712.9	79.2821	11,712.9	80.7018	11,712.9	74.3208	11,712.9	76.4898	11,712.9	72.5886	11,712.9	73.542	11,712.9	67.6846	11,712.9	70.057	11,712.9	66.2881	11,712.9	66.663	11,712.9	61.492	11,712.9	62.6151	11,712.9	61.7446	11,712.9	60.9119	11,712.9	58.3109	11,712.9	58.8045	11,712.9	56.5085	11,712.9	57.5693	11,712.9	51.7959	11,712.9	50.0013	11,712.9	56.4806	11,712.9	52.7109	11,712.9	58.7247	11,712.9	61.4877	11,712.9	48.4714	11,712.9	27.7724	11,712.9	55.5297
12,126	87.596	12,126	85.4496	12,126	86.1367	12,126	86.4794	12,126	86.6636	12,126	84.954	12,126	85.9552	12,126	82.1228	12,126	82.9523	12,126	77.6443	12,126	79.7266	12,126	73.5471	12,126	75.4783	12,126	70.1512	12,126	72.0518	12,126	66.6793	12,126	67.7328	12,126	61.9004	12,126	64.3376	12,126	58.8026	12,126	63.1988	12,126	58.3986	12,126	61.374	12,126	55.7655	12,126	57.6432	12,126	52.6512	12,126	54.1246	12,126	51.0774	12,126	51.531	12,126	54.9646	12,126	54.4624	12,126	57.7041	12,126	60.5718	12,126	49.1407	12,126	31.0959	12,126	54.6145
12,553.7	87.7059	12,553.7	85.8086	12,553.7	86.4663	12,553.7	86.7233	12,553.7	87.1799	12,553.7	85.0657	12,553.7	86.4131	12,553.7	82.2714	12,553.7	83.6711	12,553.7	77.2796	12,553.7	79.7767	12,553.7	73.3877	12,553.7	75.8139	12,553.7	68.99	12,553.7	71.9535	12,553.7	64.5518	12,553.7	67.8069	12,553.7	61.7519	12,553.7	63.9138	12,553.7	59.7799	12,553.7	62.9257	12,553.7	57.9324	12,553.7	59.6145	12,553.7	54.4962	12,553.7	57.0811	12,553.7	47.9792	12,553.7	52.5828	12,553.7	46.2637	12,553.7	50.6738	12,553.7	52.1858	12,553.7	52.3305	12,553.7	56.2878	12,553.7	59.3372	12,553.7	51.6998	12,553.7	43.1258	12,553.7	53.698
12,996.1	87.6936	12,996.1	86.3543	12,996.1	86.7672	12,996.1	86.9756	12,996.1	87.4298	12,996.1	85.7414	12,996.1	87.0161	12,996.1	82.2488	12,996.1	84.3471	12,996.1	77.8462	12,996.1	80.257	12,996.1	73.2174	12,996.1	76.6111	12,996.1	68.4655	12,996.1	72.3782	12,996.1	64.2754	12,996.1	69.0461	12,996.1	63.9339	12,996.1	64.6966	12,996.1	58.4341	12,996.1	60.6841	12,996.1	56.7782	12,996.1	59.3312	12,996.1	51.9455	12,996.1	57.4548	12,996.1	45.2421	12,996.1	52.6594	12,996.1	45.5538	12,996.1	48.8552	12,996.1	50.2108	12,996.1	51.7572	12,996.1	53.8653	12,996.1	56.2606	12,996.1	54.7006	12,996.1	47.2083	12,996.1	54.795
13,454.6	87.4408	13,454.6	86.5803	13,454.6	86.872	13,454.6	86.4417	13,454.6	86.9188	13,454.6	85.4848	13,454.6	86.6152	13,454.6	81.7324	13,454.6	84.0238	13,454.6	77.1364	13,454.6	79.7391	13,454.6	71.8626	13,454.6	75.7066	13,454.6	67.4748	13,454.6	71.7958	13,454.6	63.724	13,454.6	67.0827	13,454.6	60.2876	13,454.6	63.2115	13,454.6	55.843	13,454.6	59.0287	13,454.6	52.7886	13,454.6	58.5479	13,454.6	46.1682	13,454.6	54.9865	13,454.6	45.0887	13,454.6	49.5388	13,454.6	44.52	13,454.6	49.3407	13,454.6	47.2008	13,454.6	53.1238	13,454.6	52.4797	13,454.6	54.3299	13,454.6	54.2961	13,454.6	42.0214	13,454.6	51.5579
13,929.2	87.192	13,929.2	86.3899	13,929.2	86.671	13,929.2	86.0481	13,929.2	86.2897	13,929.2	85.2505	13,929.2	85.9718	13,929.2	80.796	13,929.2	83.0769	13,929.2	75.1813	13,929.2	77.9555	13,929.2	68.2981	13,929.2	72.7326	13,929.2	60.9132	13,929.2	66.5587	13,929.2	56.3097	13,929.2	61.2459	13,929.2	53.1437	13,929.2	56.9554	13,929.2	50.3728	13,929.2	56.8236	13,929.2	47.9691	13,929.2	52.3036	13,929.2	49.7934	13,929.2	49.0664	13,929.2	30.3368	13,929.2	44.1603	13,929.2	39.6098	13,929.2	47.6496	13,929.2	46.0619	13,929.2	52.1787	13,929.2	50.2693	13,929.2	51.8118	13,929.2	51.6392	13,929.2	45.04	13,929.2	47.2255
14,419.9	86.7708	14,419.9	86.0508	14,419.9	86.1095	14,419.9	85.8574	14,419.9	85.6642	14,419.9	85.0708	14,419.9	85.4813	14,419.9	80.2255	14,419.9	81.9949	14,419.9	73.6493	14,419.9	76.7423	14,419.9	65.166	14,419.9	69.4019	14,419.9	60.0141	14,419.9	62.6115	14,419.9	54.315	14,419.9	58.558	14,419.9	54.6564	14,419.9	51.3752	14,419.9	50.6872	14,419.9	49.3803	14,419.9	50.9002	14,419.9	46.5704	14,419.9	47.3155	14,419.9	43.6247	14,419.9	45.9864	14,419.9	42.653	14,419.9	20.8818	14,419.9	41.3071	14,419.9	46.6296	14,419.9	50.8765	14,419.9	48.2413	14,419.9	53.4149	14,419.9	52.2645	14,419.9	49.8325	14,419.9	39.8163
14,928.2	86.3505	14,928.2	86.0998	14,928.2	85.9768	14,928.2	85.722	14,928.2	85.4132	14,928.2	84.775	14,928.2	85.095	14,928.2	79.8553	14,928.2	80.8089	14,928.2	72.4734	14,928.2	75.4675	14,928.2	64.9074	14,928.2	66.6387	14,928.2	56.4435	14,928.2	58.7015	14,928.2	58.0517	14,928.2	53.3644	14,928.2	54.6879	14,928.2	53.0075	14,928.2	51.3268	14,928.2	53.0648	14,928.2	51.7656	14,928.2	48.5192	14,928.2	45.1824	14,928.2	35.7118	14,928.2	42.7592	14,928.2	39.076	14,928.2	32.6982	14,928.2	43.3663	14,928.2	44.8759	14,928.2	48.5608	14,928.2	46.3782	14,928.2	51.0575	14,928.2	52.3093	14,928.2	50.9476	14,928.2	35.9686
15,455.6	86.2099	15,455.6	86.505	15,455.6	86.5071	15,455.6	85.3872	15,455.6	85.2542	15,455.6	84.3401	15,455.6	84.7848	15,455.6	79.3662	15,455.6	80.2175	15,455.6	70.2806	15,455.6	73.6368	15,455.6	62.2861	15,455.6	63.7804	15,455.6	60.9894	15,455.6	46.7261	15,455.6	60.3091	15,455.6	59.3598	15,455.6	54.299	15,455.6	55.4171	15,455.6	52.2575	15,455.6	52.7251	15,455.6	55.3579	15,455.6	49.2767	15,455.6	49.0273	15,455.6	46.5559	15,455.6	45.2088	15,455.6	46.031	15,455.6	36.9695	15,455.6	41.2711	15,455.6	43.6651	15,455.6	47.3082	15,455.6	44.2093	15,455.6	50.6052	15,455.6	51.3258	15,455.6	50.0593	15,455.6	41.8804
16,000.5	86.4793	16,000.5	87.0092	16,000.5	87.2517	16,000.5	85.2623	16,000.5	85.3881	16,000.5	83.9083	16,000.5	84.761	16,000.5	78.8673	16,000.5	79.7292	16,000.5	68.5317	16,000.5	71.0015	16,000.5	60.7443	16,000.5	58.2235	16,000.5	64.0641	16,000.5	62.585	16,000.5	60.9558	16,000.5	59.3128	16,000.5	52.6134	16,000.5	52.3774	16,000.5	53.3667	16,000.5	51.2471	16,000.5	55.4816	16,000.5	50.7117	16,000.5	48.6853	16,000.5	49.3179	16,000.5	47.362	16,000.5	47.7043	16,000.5	41.3989	16,000.5	41.7756	16,000.5	43.1255	16,000.5	46.9247	16,000.5	39.1215	16,000.5	52.3572	16,000.5	49.7021	16,000.5	46.7186	16,000.5	40.1521
16,564.5	86.7408	16,564.5	87.2633	16,564.5	87.5605	16,564.5	85.7945	16,564.5	85.7645	16,564.5	83.3445	16,564.5	84.4681	16,564.5	77.7346	16,564.5	78.8512	16,564.5	68.1923	16,564.5	67.2033	16,564.5	65.2443	16,564.5	60.0828	16,564.5	62.4033	16,564.5	64.708	16,564.5	58.4691	16,564.5	56.4439	16,564.5	56.2013	16,564.5	51.3234	16,564.5	56.4752	16,564.5	54.6499	16,564.5	54.7818	16,564.5	53.2566	16,564.5	51.0092	16,564.5	49.6339	16,564.5	48.0165	16,564.5	47.5159	16,564.5	46.0432	16,564.5	38.2396	16,564.5	40.8937	16,564.5	43.1736	16,564.5	42.346	16,564.5	52.7124	16,564.5	51.9142	16,564.5	35.3781	16,564.5	43.0716
17,148.9	86.9969	17,148.9	87.1714	17,148.9	87.6114	17,148.9	85.8655	17,148.9	86.152	17,148.9	82.4616	17,148.9	83.7746	17,148.9	75.723	17,148.9	77.2336	17,148.9	65.7423	17,148.9	63.3287	17,148.9	67.5267	17,148.9	65.0832	17,148.9	62.6499	17,148.9	64.0687	17,148.9	60.9885	17,148.9	62.6702	17,148.9	61.4142	17,148.9	58.058	17,148.9	58.2384	17,148.9	58.3719	17,148.9	52.5573	17,148.9	55.5033	17,148.9	46.0571	17,148.9	49.4146	17,148.9	48.03	17,148.9	45.135	17,148.9	45.5386	17,148.9	39.092	17,148.9	41.0297	17,148.9	37.7876	17,148.9	46.9599	17,148.9	52.7846	17,148.9	52.2151	17,148.9	43.8452	17,148.9	45.1913
17,752.4	86.6941	17,752.4	86.7245	17,752.4	87.0057	17,752.4	85.2291	17,752.4	85.7304	17,752.4	81.0602	17,752.4	82.2856	17,752.4	72.6436	17,752.4	74.953	17,752.4	66.7124	17,752.4	63.9805	17,752.4	67.6602	17,752.4	67.6485	17,752.4	66.3189	17,752.4	66.0474	17,752.4	62.0647	17,752.4	65.0218	17,752.4	61.6443	17,752.4	59.6699	17,752.4	55.9302	17,752.4	58.8983	17,752.4	50.6923	17,752.4	54.2973	17,752.4	44.6901	17,752.4	45.6961	17,752.4	44.4503	17,752.4	45.7858	17,752.4	44.7139	17,752.4	39.1434	17,752.4	44.8815	17,752.4	37.7968	17,752.4	48.5104	17,752.4	49.6701	17,752.4	51.3706	17,752.4	49.2216	17,752.4	46.7636
18,379.4	86.023	18,379.4	85.7584	18,379.4	85.9916	18,379.4	83.6103	18,379.4	84.6288	18,379.4	78.7805	18,379.4	80.3077	18,379.4	68.0975	18,379.4	71.5406	18,379.4	67.7239	18,379.4	68.316	18,379.4	67.2326	18,379.4	68.7349	18,379.4	65.591	18,379.4	68.4879	18,379.4	57.8838	18,379.4	60.8058	18,379.4	57.5474	18,379.4	56.8405	18,379.4	51.0418	18,379.4	54.7153	18,379.4	49.1207	18,379.4	48.7509	18,379.4	44.6813	18,379.4	36.3877	18,379.4	38.7615	18,379.4	43.6228	18,379.4	45.3129	18,379.4	29.4446	18,379.4	45.6743	18,379.4	40.5957	18,379.4	46.4805	18,379.4	43.4798	18,379.4	47.5346	18,379.4	48.7923	18,379.4	45.347
19,026.9	85.3977	19,026.9	84.7067	19,026.9	84.8808	19,026.9	81.9027	19,026.9	82.9214	19,026.9	76.3521	19,026.9	78.0244	19,026.9	65.3348	19,026.9	67.6757	19,026.9	67.2842	19,026.9	70.9687	19,026.9	67.6139	19,026.9	70.5115	19,026.9	62.5118	19,026.9	67.1509	19,026.9	58.1254	19,026.9	60.6885	19,026.9	58.0946	19,026.9	59.1081	19,026.9	52.5245	19,026.9	54.9092	19,026.9	48.8348	19,026.9	51.6992	19,026.9	39.5967	19,026.9	43.9445	19,026.9	43.9855	19,026.9	42.5631	19,026.9	41.4902	19,026.9	33.1943	19,026.9	43.9676	19,026.9	39.1359	19,026.9	37.7228	19,026.9	40.5273	19,026.9	40.3615	19,026.9	46.613	19,026.9	39.1998
19,697.8	84.2652	19,697.8	83.3372	19,697.8	83.4934	19,697.8	79.7524	19,697.8	80.8354	19,697.8	72.8292	19,697.8	75.6072	19,697.8	66.3297	19,697.8	66.9056	19,697.8	67.8451	19,697.8	70.9299	19,697.8	66.7569	19,697.8	70.7064	19,697.8	62.9646	19,697.8	66.3996	19,697.8	59.3898	19,697.8	63.5042	19,697.8	56.6523	19,697.8	59.3162	19,697.8	50.6884	19,697.8	55.5868	19,697.8	46.452	19,697.8	51.6474	19,697.8	40.2714	19,697.8	44.9295	19,697.8	40.2017	19,697.8	45.0285	19,697.8	27.5891	19,697.8	37.102	19,697.8	40.1228	19,697.8	37.284	19,697.8	36.317	19,697.8	29.4141	19,697.8	29.4187	19,697.8	41.4169	19,697.8	34.9894
19,999.5	82.768	19,999.5	82.1162	19,999.5	82.1701	19,999.5	77.5664	19,999.5	79.2592	19,999.5	70.4078	19,999.5	73.277	19,999.5	66.8724	19,999.5	66.6275	19,999.5	68.0531	19,999.5	69.4222	19,999.5	65.0885	19,999.5	69.4663	19,999.5	62.8818	19,999.5	65.7338	19,999.5	57.7116	19,999.5	62.3709	19,999.5	54.2368	19,999.5	57.699	19,999.5	44.8563	19,999.5	52.5046	19,999.5	53.3616	19,999.5	48.4141	19,999.5	50.1295	19,999.5	46.1949	19,999.5	42.5246	19,999.5	45.3463	19,999.5	45.873	19,999.5	45.1335	19,999.5	45.6339	19,999.5	52.3104	19,999.5	35.5371	19,999.5	51.5979	19,999.5	37.5233	19,999.5	28.25	19,999.5	29.5431
