"SPL Vertical"
"On-Axis"		"10°"		"-10°"		"20°"		"-20°"		"30°"		"-30°"		"40°"		"-40°"		"50°"		"-50°"		"60°"		"-60°"		"70°"		"-70°"		"80°"		"-80°"		"90°"		"-90°"		"100°"		"-100°"		"110°"		"-110°"		"120°"		"-120°"		"130°"		"-130°"		"140°"		"-140°"		"150°"		"-150°"		"160°"		"-160°"		"170°"		"-170°"		"180°"
"Frequency / Hz"	"Sound Pressure Level / dB (re 20 µPa/V)  [2.83  V @ 1. m]"	"Frequency / Hz"	"Sound Pressure Level / dB (re 20 µPa/V)  [2.83  V @ 1. m]"	"Frequency / Hz"	"Sound Pressure Level / dB (re 20 µPa/V)  [2.83  V @ 1. m]"	"Frequency / Hz"	"Sound Pressure Level / dB (re 20 µPa/V)  [2.83  V @ 1. m]"	"Frequency / Hz"	"Sound Pressure Level / dB (re 20 µPa/V)  [2.83  V @ 1. m]"	"Frequency / Hz"	"Sound Pressure Level / dB (re 20 µPa/V)  [2.83  V @ 1. m]"	"Frequency / Hz"	"Sound Pressure Level / dB (re 20 µPa/V)  [2.83  V @ 1. m]"	"Frequency / Hz"	"Sound Pressure Level / dB (re 20 µPa/V)  [2.83  V @ 1. m]"	"Frequency / Hz"	"Sound Pressure Level / dB (re 20 µPa/V)  [2.83  V @ 1. m]"	"Frequency / Hz"	"Sound Pressure Level / dB (re 20 µPa/V)  [2.83  V @ 1. m]"	"Frequency / Hz"	"Sound Pressure Level / dB (re 20 µPa/V)  [2.83  V @ 1. m]"	"Frequency / Hz"	"Sound Pressure Level / dB (re 20 µPa/V)  [2.83  V @ 1. m]"	"Frequency / Hz"	"Sound Pressure Level / dB (re 20 µPa/V)  [2.83  V @ 1. m]"	"Frequency / Hz"	"Sound Pressure Level / dB (re 20 µPa/V)  [2.83  V @ 1. m]"	"Frequency / Hz"	"Sound Pressure Level / dB (re 20 µPa/V)  [2.83  V @ 1. m]"	"Frequency / Hz"	"Sound Pressure Level / dB (re 20 µPa/V)  [2.83  V @ 1. m]"	"Frequency / Hz"	"Sound Pressure Level / dB (re 20 µPa/V)  [2.83  V @ 1. m]"	"Frequency / Hz"	"Sound Pressure Level / dB (re 20 µPa/V)  [2.83  V @ 1. m]"	"Frequency / Hz"	"Sound Pressure Level / dB (re 20 µPa/V)  [2.83  V @ 1. m]"	"Frequency / Hz"	"Sound Pressure Level / dB (re 20 µPa/V)  [2.83  V @ 1. m]"	"Frequency / Hz"	"Sound Pressure Level / dB (re 20 µPa/V)  [2.83  V @ 1. m]"	"Frequency / Hz"	"Sound Pressure Level / dB (re 20 µPa/V)  [2.83  V @ 1. m]"	"Frequency / Hz"	"Sound Pressure Level / dB (re 20 µPa/V)  [2.83  V @ 1. m]"	"Frequency / Hz"	"Sound Pressure Level / dB (re 20 µPa/V)  [2.83  V @ 1. m]"	"Frequency / Hz"	"Sound Pressure Level / dB (re 20 µPa/V)  [2.83  V @ 1. m]"	"Frequency / Hz"	"Sound Pressure Level / dB (re 20 µPa/V)  [2.83  V @ 1. m]"	"Frequency / Hz"	"Sound Pressure Level / dB (re 20 µPa/V)  [2.83  V @ 1. m]"	"Frequency / Hz"	"Sound Pressure Level / dB (re 20 µPa/V)  [2.83  V @ 1. m]"	"Frequency / Hz"	"Sound Pressure Level / dB (re 20 µPa/V)  [2.83  V @ 1. m]"	"Frequency / Hz"	"Sound Pressure Level / dB (re 20 µPa/V)  [2.83  V @ 1. m]"	"Frequency / Hz"	"Sound Pressure Level / dB (re 20 µPa/V)  [2.83  V @ 1. m]"	"Frequency / Hz"	"Sound Pressure Level / dB (re 20 µPa/V)  [2.83  V @ 1. m]"	"Frequency / Hz"	"Sound Pressure Level / dB (re 20 µPa/V)  [2.83  V @ 1. m]"	"Frequency / Hz"	"Sound Pressure Level / dB (re 20 µPa/V)  [2.83  V @ 1. m]"	"Frequency / Hz"	"Sound Pressure Level / dB (re 20 µPa/V)  [2.83  V @ 1. m]"	"Frequency / Hz"	"Sound Pressure Level / dB (re 20 µPa/V)  [2.83  V @ 1. m]"
20.5078	44.1856	20.5078	44.0589	20.5078	44.3254	20.5078	43.9396	20.5078	44.4815	20.5078	43.821	20.5078	44.6526	20.5078	43.6982	20.5078	44.8326	20.5078	43.5692	20.5078	45.0107	20.5078	43.4352	20.5078	45.1738	20.5078	43.301	20.5078	45.3077	20.5078	43.1737	20.5078	45.3998	20.5078	43.0618	20.5078	45.4405	20.5078	42.9745	20.5078	45.4246	20.5078	42.9206	20.5078	45.3512	20.5078	42.9077	20.5078	45.2236	20.5078	42.9415	20.5078	45.0486	20.5078	43.0252	20.5078	44.8346	20.5078	43.1584	20.5078	44.5919	20.5078	43.3374	20.5078	44.331	20.5078	43.5547	20.5078	44.0632	20.5078	43.8005
21.9727	46.3268	21.9727	46.0641	21.9727	46.5906	21.9727	45.8048	21.9727	46.8516	21.9727	45.5508	21.9727	47.1039	21.9727	45.3039	21.9727	47.3391	21.9727	45.0673	21.9727	47.547	21.9727	44.8451	21.9727	47.7166	21.9727	44.6432	21.9727	47.8373	21.9727	44.4687	21.9727	47.9004	21.9727	44.3296	21.9727	47.9002	21.9727	44.2348	21.9727	47.8348	21.9727	44.1931	21.9727	47.7057	21.9727	44.2122	21.9727	47.5178	21.9727	44.2977	21.9727	47.2779	21.9727	44.4513	21.9727	46.9941	21.9727	44.6698	21.9727	46.6754	21.9727	44.945	21.9727	46.3313	21.9727	45.2641	21.9727	45.9725	21.9727	45.6119
23.4375	48.7987	23.4375	48.4064	23.4375	49.1906	23.4375	48.0276	23.4375	49.569	23.4375	47.6756	23.4375	49.9214	23.4375	47.3624	23.4375	50.2363	23.4375	47.0976	23.4375	50.5036	23.4375	46.8883	23.4375	50.714	23.4375	46.7382	23.4375	50.8598	23.4375	46.6486	23.4375	50.935	23.4375	46.6183	23.4375	50.9364	23.4375	46.6448	23.4375	50.8637	23.4375	46.7248	23.4375	50.72	23.4375	46.8548	23.4375	50.5114	23.4375	47.0315	23.4375	50.2467	23.4375	47.2518	23.4375	49.9367	23.4375	47.5124	23.4375	49.5933	23.4375	47.8094	23.4375	49.2293	23.4375	48.1376	23.4375	48.8575	23.4375	48.49
24.9023	48.4708	24.9023	48.0243	24.9023	48.9316	24.9023	47.6074	24.9023	49.3897	24.9023	47.2325	24.9023	49.8274	24.9023	46.9084	24.9023	50.2273	24.9023	46.6406	24.9023	50.5733	24.9023	46.4319	24.9023	50.8517	24.9023	46.2831	24.9023	51.0513	24.9023	46.1939	24.9023	51.1644	24.9023	46.1633	24.9023	51.1872	24.9023	46.1909	24.9023	51.1198	24.9023	46.276	24.9023	50.9664	24.9023	46.4185	24.9023	50.7343	24.9023	46.618	24.9023	50.4337	24.9023	46.8733	24.9023	50.0765	24.9023	47.1819	24.9023	49.6761	24.9023	47.5386	24.9023	49.2469	24.9023	47.9355	24.9023	48.8037	24.9023	48.3616
26.3672	52.1883	26.3672	51.7771	26.3672	52.5986	26.3672	51.3793	26.3672	52.9934	26.3672	51.0084	26.3672	53.3591	26.3672	50.6763	26.3672	53.6831	26.3672	50.3922	26.3672	53.9538	26.3672	50.1626	26.3672	54.1613	26.3672	49.9912	26.3672	54.2977	26.3672	49.8793	26.3672	54.3576	26.3672	49.8265	26.3672	54.3383	26.3672	49.8316	26.3672	54.2411	26.3672	49.8928	26.3672	54.0703	26.3672	50.0082	26.3672	53.8336	26.3672	50.1756	26.3672	53.5411	26.3672	50.3927	26.3672	53.2045	26.3672	50.6563	26.3672	52.8365	26.3672	50.9618	26.3672	52.4499	26.3672	51.3028	26.3672	52.0574	26.3672	51.6713
27.832	53.4624	27.832	53.0898	27.832	53.8369	27.832	52.7319	27.832	54.1998	27.832	52.4001	27.832	54.5376	27.832	52.1034	27.832	54.8376	27.832	51.8488	27.832	55.088	27.832	51.6403	27.832	55.2785	27.832	51.4805	27.832	55.4007	27.832	51.3701	27.832	55.449	27.832	51.3094	27.832	55.4208	27.832	51.2978	27.832	55.3174	27.832	51.335	27.832	55.1435	27.832	51.4202	27.832	54.9073	27.832	51.5528	27.832	54.6195	27.832	51.7315	27.832	54.2925	27.832	51.9548	27.832	53.9394	27.832	52.2195	27.832	53.5736	27.832	52.5213	27.832	53.2077	27.832	52.8535
29.2969	54.6167	29.2969	54.255	29.2969	54.9841	29.2969	53.9112	29.2969	55.3438	29.2969	53.5955	29.2969	55.6821	29.2969	53.316	29.2969	55.9854	29.2969	53.0782	29.2969	56.2411	29.2969	52.8856	29.2969	56.438	29.2969	52.7396	29.2969	56.5672	29.2969	52.6406	29.2969	56.6226	29.2969	52.5881	29.2969	56.6014	29.2969	52.5816	29.2969	56.5049	29.2969	52.6205	29.2969	56.3378	29.2969	52.7045	29.2969	56.1084	29.2969	52.8333	29.2969	55.8275	29.2969	53.0065	29.2969	55.5075	29.2969	53.2229	29.2969	55.1616	29.2969	53.4801	29.2969	54.8031	29.2969	53.774	29.2969	54.4448	29.2969	54.0983
30.7617	54.9889	30.7617	54.6458	30.7617	55.3461	30.7617	54.3287	30.7617	55.7034	30.7617	54.0472	30.7617	56.0463	30.7617	53.8082	30.7617	56.3602	30.7617	53.6158	30.7617	56.6313	30.7617	53.4716	30.7617	56.8476	30.7617	53.3755	30.7617	56.9997	30.7617	53.3262	30.7617	57.0811	30.7617	53.3217	30.7617	57.0891	30.7617	53.3599	30.7617	57.0249	30.7617	53.4384	30.7617	56.8933	30.7617	53.5553	30.7617	56.7024	30.7617	53.7085	30.7617	56.4625	30.7617	53.8963	30.7617	56.1855	30.7617	54.1164	30.7617	55.8834	30.7617	54.3661	30.7617	55.5679	30.7617	54.6417	30.7617	55.2497	30.7617	54.9383
32.2266	54.4852	32.2266	54.1445	32.2266	54.8365	32.2266	53.8258	32.2266	55.1854	32.2266	53.5381	32.2266	55.5181	32.2266	53.2884	32.2266	55.8202	32.2266	53.0811	32.2266	56.0785	32.2266	52.9189	32.2266	56.2811	32.2266	52.8026	32.2266	56.4187	32.2266	52.7321	32.2266	56.485	32.2266	52.7066	32.2266	56.4778	32.2266	52.7247	32.2266	56.3985	32.2266	52.7851	32.2266	56.2525	32.2266	52.8863	32.2266	56.0482	32.2266	53.0268	32.2266	55.7964	32.2266	53.205	32.2266	55.5091	32.2266	53.4187	32.2266	55.1984	32.2266	53.6649	32.2266	54.876	32.2266	53.9397	32.2266	54.5527	32.2266	54.2379
33.6914	53.4813	33.6914	53.1636	33.6914	53.795	33.6914	52.8523	33.6914	54.0941	33.6914	52.5569	33.6914	54.3677	33.6914	52.2854	33.6914	54.6058	33.6914	52.0445	33.6914	54.7987	33.6914	51.839	33.6914	54.938	33.6914	51.6723	33.6914	55.0171	33.6914	51.5465	33.6914	55.0314	33.6914	51.4628	33.6914	54.9792	33.6914	51.4218	33.6914	54.862	33.6914	51.4237	33.6914	54.6848	33.6914	51.4687	33.6914	54.4552	33.6914	51.5566	33.6914	54.1834	33.6914	51.6872	33.6914	53.8808	33.6914	51.8598	33.6914	53.5597	33.6914	52.0726	33.6914	53.2323	33.6914	52.3223	33.6914	52.9102	33.6914	52.6039
35.1562	55.0921	35.1562	54.8524	35.1562	55.3324	35.1562	54.6203	35.1562	55.5653	35.1562	54.4018	35.1562	55.7825	35.1562	54.2019	35.1562	55.9752	35.1562	54.0247	35.1562	56.1349	35.1562	53.8733	35.1562	56.2537	35.1562	53.7503	35.1562	56.3252	35.1562	53.6575	35.1562	56.345	35.1562	53.5964	35.1562	56.3114	35.1562	53.5682	35.1562	56.2257	35.1562	53.5735	35.1562	56.092	35.1562	53.6127	35.1562	55.9172	35.1562	53.6857	35.1562	55.7097	35.1562	53.7919	35.1562	55.4791	35.1562	53.9298	35.1562	55.235	35.1562	54.0974	35.1562	54.9864	35.1562	54.2915	35.1562	54.7417	35.1562	54.5079
36.6211	61.011	36.6211	60.772	36.6211	61.253	36.6211	60.5439	36.6211	61.4892	36.6211	60.3335	36.6211	61.71	36.6211	60.1461	36.6211	61.9064	36.6211	59.9856	36.6211	62.0693	36.6211	59.8546	36.6211	62.1911	36.6211	59.7546	36.6211	62.2656	36.6211	59.6863	36.6211	62.289	36.6211	59.6498	36.6211	62.2603	36.6211	59.6447	36.6211	62.1814	36.6211	59.6703	36.6211	62.0571	36.6211	59.7258	36.6211	61.8944	36.6211	59.8099	36.6211	61.7021	36.6211	59.9213	36.6211	61.4894	36.6211	60.0584	36.6211	61.2653	36.6211	60.2189	36.6211	61.0379	36.6211	60.4006	36.6211	60.8144	36.6211	60.6004
38.0859	66.4544	38.0859	66.2398	38.0859	66.6689	38.0859	66.0316	38.0859	66.8763	38.0859	65.8353	38.0859	67.0687	38.0859	65.6553	38.0859	67.2383	38.0859	65.4954	38.0859	67.377	38.0859	65.3584	38.0859	67.4776	38.0859	65.2466	38.0859	67.5343	38.0859	65.1615	38.0859	67.5433	38.0859	65.1042	38.0859	67.5035	38.0859	65.0756	38.0859	67.4165	38.0859	65.076	38.0859	67.287	38.0859	65.1056	38.0859	67.1218	38.0859	65.1643	38.0859	66.9292	38.0859	65.2516	38.0859	66.7183	38.0859	65.3664	38.0859	66.498	38.0859	65.5074	38.0859	66.2766	38.0859	65.6723	38.0859	66.0614	38.0859	65.8583
39.5508	69.9807	39.5508	69.7718	39.5508	70.1893	39.5508	69.5685	39.5508	70.3903	39.5508	69.3764	39.5508	70.5764	39.5508	69.1998	39.5508	70.7395	39.5508	69.0426	39.5508	70.8719	39.5508	68.9075	39.5508	70.9664	39.5508	68.7968	39.5508	71.0174	39.5508	68.7122	39.5508	71.0212	39.5508	68.6547	39.5508	70.977	39.5508	68.6251	39.5508	70.8867	39.5508	68.6237	39.5508	70.7552	39.5508	68.6504	39.5508	70.5896	39.5508	68.7049	39.5508	70.3984	39.5508	68.7866	39.5508	70.1908	39.5508	68.8946	39.5508	69.9758	39.5508	69.0275	39.5508	69.7613	39.5508	69.1835	39.5508	69.5543	39.5508	69.3602
41.0156	72.5585	41.0156	72.3484	41.0156	72.7695	41.0156	72.1453	41.0156	72.9743	41.0156	71.9547	41.0156	73.1654	41.0156	71.781	41.0156	73.3346	41.0156	71.6281	41.0156	73.4742	41.0156	71.499	41.0156	73.5771	41.0156	71.3962	41.0156	73.6379	41.0156	71.3215	41.0156	73.6531	41.0156	71.2761	41.0156	73.6219	41.0156	71.2607	41.0156	73.5463	41.0156	71.2751	41.0156	73.4308	41.0156	71.3191	41.0156	73.2818	41.0156	71.3914	41.0156	73.1069	41.0156	71.4905	41.0156	72.9142	41.0156	71.6144	41.0156	72.7115	41.0156	71.7606	41.0156	72.5057	41.0156	71.9264	41.0156	72.3029	41.0156	72.1084
42.4805	74.6	42.4805	74.4015	42.4805	74.7954	42.4805	74.2058	42.4805	74.9809	42.4805	74.018	42.4805	75.1494	42.4805	73.8425	42.4805	75.2935	42.4805	73.683	42.4805	75.4061	42.4805	73.5424	42.4805	75.4808	42.4805	73.4233	42.4805	75.5128	42.4805	73.3274	42.4805	75.4993	42.4805	73.2563	42.4805	75.4398	42.4805	73.2109	42.4805	75.3367	42.4805	73.1918	42.4805	75.195	42.4805	73.1996	42.4805	75.0217	42.4805	73.2343	42.4805	74.8252	42.4805	73.2959	42.4805	74.6148	42.4805	73.3842	42.4805	74.3995	42.4805	73.4988	42.4805	74.1878	42.4805	73.6388	42.4805	73.9868	42.4805	73.8024
43.9453	75.9136	43.9453	75.7222	43.9453	76.1017	43.9453	75.5335	43.9453	76.2802	43.9453	75.3523	43.9453	76.4422	43.9453	75.1833	43.9453	76.5807	43.9453	75.0299	43.9453	76.689	43.9453	74.8952	43.9453	76.7611	43.9453	74.7818	43.9453	76.7924	43.9453	74.6916	43.9453	76.7805	43.9453	74.626	43.9453	76.7253	43.9453	74.586	43.9453	76.6291	43.9453	74.5722	43.9453	76.4967	43.9453	74.5847	43.9453	76.3349	43.9453	74.6235	43.9453	76.1516	43.9453	74.6883	43.9453	75.9551	43.9453	74.7783	43.9453	75.7536	43.9453	74.8926	43.9453	75.5546	43.9453	75.0299	43.9453	75.3643	43.9453	75.1881
45.4102	77.1029	45.4102	76.921	45.4102	77.2809	45.4102	76.7407	45.4102	77.4491	45.4102	76.5669	45.4102	77.601	45.4102	76.4038	45.4102	77.7299	45.4102	76.255	45.4102	77.8296	45.4102	76.1235	45.4102	77.8944	45.4102	76.0118	45.4102	77.9202	45.4102	75.922	45.4102	77.9045	45.4102	75.8555	45.4102	77.8475	45.4102	75.8135	45.4102	77.7514	45.4102	75.7964	45.4102	77.6212	45.4102	75.8046	45.4102	77.4634	45.4102	75.8382	45.4102	77.2856	45.4102	75.8967	45.4102	77.0961	45.4102	75.9797	45.4102	76.9027	45.4102	76.0862	45.4102	76.7124	45.4102	76.215	45.4102	76.5313	45.4102	76.3643
46.875	78.2111	46.875	78.0329	46.875	78.3853	46.875	77.8562	46.875	78.5496	46.875	77.6858	46.875	78.6975	46.875	77.526	46.875	78.8226	46.875	77.3803	46.875	78.9188	46.875	77.252	46.875	78.9807	46.875	77.1433	46.875	79.0044	46.875	77.0562	46.875	78.9878	46.875	76.9922	46.875	78.931	46.875	76.9521	46.875	78.8366	46.875	76.9365	46.875	78.7094	46.875	76.9454	46.875	78.5556	46.875	76.9789	46.875	78.3828	46.875	77.0363	46.875	78.1988	46.875	77.1173	46.875	78.0113	46.875	77.2207	46.875	77.827	46.875	77.3456	46.875	77.6517	46.875	77.4901
48.3398	79.2858	48.3398	79.11	48.3398	79.4566	48.3398	78.9346	48.3398	79.6163	48.3398	78.7646	48.3398	79.7589	48.3398	78.6043	48.3398	79.8781	48.3398	78.4576	48.3398	79.9681	48.3398	78.3276	48.3398	80.024	48.3398	78.2168	48.3398	80.0421	48.3398	78.1274	48.3398	80.0206	48.3398	78.0608	48.3398	79.9601	48.3398	78.018	48.3398	79.8631	48.3398	77.9995	48.3398	79.7344	48.3398	78.0055	48.3398	79.5804	48.3398	78.0357	48.3398	79.4084	48.3398	78.0898	48.3398	79.2261	48.3398	78.1672	48.3398	79.0409	48.3398	78.267	48.3398	78.8593	48.3398	78.3882	48.3398	78.6872	48.3398	78.5291
51.2695	81.1249	51.2695	80.958	51.2695	81.2856	51.2695	80.7903	51.2695	81.4343	51.2695	80.6268	51.2695	81.5656	51.2695	80.472	51.2695	81.6737	51.2695	80.33	51.2695	81.7536	51.2695	80.2042	51.2695	81.8011	51.2695	80.0973	51.2695	81.8134	51.2695	80.0114	51.2695	81.7893	51.2695	79.9482	51.2695	81.7296	51.2695	79.9084	51.2695	81.6371	51.2695	79.8924	51.2695	81.5165	51.2695	79.9001	51.2695	81.3735	51.2695	79.931	51.2695	81.2147	51.2695	79.9845	51.2695	81.0469	51.2695	80.0596	51.2695	80.8764	51.2695	80.1552	51.2695	80.709	51.2695	80.2701	51.2695	80.5497	51.2695	80.4023
52.7344	81.9165	52.7344	81.7516	52.7344	82.0742	52.7344	81.5851	52.7344	82.2192	52.7344	81.4219	52.7344	82.346	52.7344	81.267	52.7344	82.449	52.7344	81.1244	52.7344	82.5235	52.7344	80.9978	52.7344	82.5654	52.7344	80.8903	52.7344	82.5721	52.7344	80.8041	52.7344	82.5428	52.7344	80.7409	52.7344	82.4787	52.7344	80.7014	52.7344	82.3829	52.7344	80.6858	52.7344	82.2604	52.7344	80.6938	52.7344	82.1174	52.7344	80.7247	52.7344	81.9606	52.7344	80.7772	52.7344	81.7966	52.7344	80.8502	52.7344	81.6317	52.7344	80.9424	52.7344	81.471	52.7344	81.0523	52.7344	81.3188	52.7344	81.1784
54.1992	82.7017	54.1992	82.5387	54.1992	82.8571	54.1992	82.3735	54.1992	82.9994	54.1992	82.2113	54.1992	83.1232	54.1992	82.0567	54.1992	83.2229	54.1992	81.9141	54.1992	83.2941	54.1992	81.787	54.1992	83.3328	54.1992	81.6787	54.1992	83.3366	54.1992	81.5914	54.1992	83.3049	54.1992	81.5267	54.1992	83.239	54.1992	81.4856	54.1992	83.1421	54.1992	81.4684	54.1992	83.0194	54.1992	81.4746	54.1992	82.8768	54.1992	81.5035	54.1992	82.7209	54.1992	81.5541	54.1992	82.5583	54.1992	81.6251	54.1992	82.395	54.1992	81.7153	54.1992	82.2361	54.1992	81.8232	54.1992	82.0858	54.1992	81.9473
55.6641	83.5351	55.6641	83.3738	55.6641	83.6874	55.6641	83.2089	55.6641	83.825	55.6641	83.0456	55.6641	83.9424	55.6641	82.8889	55.6641	84.0345	55.6641	82.7431	55.6641	84.0967	55.6641	82.612	55.6641	84.1258	55.6641	82.4991	55.6641	84.1196	55.6641	82.4067	55.6641	84.0783	55.6641	82.3367	55.6641	84.0038	55.6641	82.2903	55.6641	83.8998	55.6641	82.2679	55.6641	83.772	55.6641	82.2692	55.6641	83.6265	55.6641	82.2935	55.6641	83.4702	55.6641	82.3397	55.6641	83.3092	55.6641	82.4065	55.6641	83.1491	55.6641	82.4924	55.6641	82.9945	55.6641	82.5959	55.6641	82.849	55.6641	82.7154
58.5938	84.6866	58.5938	84.5325	58.5938	84.8308	58.5938	84.3735	58.5938	84.9598	58.5938	84.2146	58.5938	85.0685	58.5938	84.0603	58.5938	85.1522	58.5938	83.9149	58.5938	85.2066	58.5938	83.7821	58.5938	85.2285	58.5938	83.6653	58.5938	85.216	58.5938	83.567	58.5938	85.1691	58.5938	83.4894	58.5938	85.0895	58.5938	83.4337	58.5938	84.9808	58.5938	83.4007	58.5938	84.8485	58.5938	83.3908	58.5938	84.6987	58.5938	83.4036	58.5938	84.5382	58.5938	83.4386	58.5938	84.3738	58.5938	83.495	58.5938	84.2113	58.5938	83.5717	58.5938	84.056	58.5938	83.6677	58.5938	83.9117	58.5938	83.7815
60.0586	85.1105	60.0586	84.955	60.0586	85.2559	60.0586	84.7948	60.0586	85.3859	60.0586	84.6347	60.0586	85.4956	60.0586	84.4797	60.0586	85.58	60.0586	84.334	60.0586	85.6353	60.0586	84.2016	60.0586	85.6584	60.0586	84.0858	60.0586	85.6477	60.0586	83.9893	60.0586	85.6034	60.0586	83.9142	60.0586	85.5273	60.0586	83.8617	60.0586	85.4231	60.0586	83.8328	60.0586	85.2959	60.0586	83.8274	60.0586	85.1515	60.0586	83.8453	60.0586	84.9964	60.0586	83.8856	60.0586	84.8364	60.0586	83.9473	60.0586	84.6771	60.0586	84.0291	60.0586	84.5232	60.0586	84.1294	60.0586	84.3787	60.0586	84.2466
62.9883	85.4219	62.9883	85.2693	62.9883	85.5628	62.9883	85.1105	62.9883	85.6868	62.9883	84.9507	62.9883	85.789	62.9883	84.7949	62.9883	85.8647	62.9883	84.6476	62.9883	85.9104	62.9883	84.5131	62.9883	85.9234	62.9883	84.3946	62.9883	85.9025	62.9883	84.2952	62.9883	85.8484	62.9883	84.2167	62.9883	85.7634	62.9883	84.1605	62.9883	85.6517	62.9883	84.1273	62.9883	85.5187	62.9883	84.1171	62.9883	85.3706	62.9883	84.1293	62.9883	85.214	62.9883	84.163	62.9883	85.0551	62.9883	84.2172	62.9883	84.8993	62.9883	84.2906	62.9883	84.7511	62.9883	84.382	62.9883	84.6139	62.9883	84.4903
64.4531	85.4594	64.4531	85.3073	64.4531	85.5999	64.4531	85.1489	64.4531	85.7233	64.4531	84.9894	64.4531	85.8248	64.4531	84.8339	64.4531	85.8998	64.4531	84.6871	64.4531	85.9446	64.4531	84.5529	64.4531	85.9568	64.4531	84.4348	64.4531	85.9352	64.4531	84.3357	64.4531	85.8805	64.4531	84.2574	64.4531	85.7952	64.4531	84.2012	64.4531	85.6833	64.4531	84.1678	64.4531	85.5502	64.4531	84.1571	64.4531	85.4023	64.4531	84.1685	64.4531	85.2459	64.4531	84.2011	64.4531	85.0871	64.4531	84.2541	64.4531	84.9315	64.4531	84.3262	64.4531	84.7835	64.4531	84.4165	64.4531	84.6467	64.4531	84.5238
67.3828	85.4727	67.3828	85.3241	67.3828	85.6085	67.3828	85.168	67.3828	85.7266	67.3828	85.0097	67.3828	85.8221	67.3828	84.8541	67.3828	85.8908	67.3828	84.7059	67.3828	85.9296	67.3828	84.5693	67.3828	85.9361	67.3828	84.4478	67.3828	85.9098	67.3828	84.3443	67.3828	85.8517	67.3828	84.2611	67.3828	85.7642	67.3828	84.1997	67.3828	85.6515	67.3828	84.1609	67.3828	85.5186	67.3828	84.145	67.3828	85.3716	67.3828	84.1516	67.3828	85.2163	67.3828	84.1803	67.3828	85.0585	67.3828	84.2302	67.3828	84.9035	67.3828	84.3002	67.3828	84.7558	67.3828	84.3893	67.3828	84.619	67.3828	84.4962
68.8477	85.4572	68.8477	85.3117	68.8477	85.5903	68.8477	85.159	68.8477	85.7059	68.8477	85.0043	68.8477	85.7994	68.8477	84.8525	68.8477	85.8666	68.8477	84.7085	68.8477	85.9044	68.8477	84.5762	68.8477	85.9111	68.8477	84.4594	68.8477	85.8861	68.8477	84.3609	68.8477	85.8306	68.8477	84.2829	68.8477	85.7474	68.8477	84.2266	68.8477	85.6405	68.8477	84.1929	68.8477	85.515	68.8477	84.1817	68.8477	85.3762	68.8477	84.1925	68.8477	85.2297	68.8477	84.2246	68.8477	85.0805	68.8477	84.2768	68.8477	84.9335	68.8477	84.348	68.8477	84.7925	68.8477	84.4368	68.8477	84.661	68.8477	84.5417
71.7773	85.4456	71.7773	85.3021	71.7773	85.5768	71.7773	85.1519	71.7773	85.6906	71.7773	85.0004	71.7773	85.7823	71.7773	84.8528	71.7773	85.8478	71.7773	84.7139	71.7773	85.8842	71.7773	84.5881	71.7773	85.89	71.7773	84.4789	71.7773	85.8652	71.7773	84.3892	71.7773	85.8115	71.7773	84.3207	71.7773	85.732	71.7773	84.2746	71.7773	85.6311	71.7773	84.251	71.7773	85.5139	71.7773	84.2494	71.7773	85.3858	71.7773	84.2686	71.7773	85.2517	71.7773	84.3073	71.7773	85.1161	71.7773	84.3637	71.7773	84.9826	71.7773	84.4362	71.7773	84.8544	71.7773	84.5231	71.7773	84.7338	71.7773	84.6228
74.707	85.5835	74.707	85.4424	74.707	85.7124	74.707	85.2945	74.707	85.8237	74.707	85.1455	74.707	85.9127	74.707	85.0008	74.707	85.9756	74.707	84.8651	74.707	86.0095	74.707	84.7428	74.707	86.0133	74.707	84.6374	74.707	85.987	74.707	84.5515	74.707	85.9326	74.707	84.4868	74.707	85.8533	74.707	84.4441	74.707	85.7537	74.707	84.4233	74.707	85.6388	74.707	84.4237	74.707	85.514	74.707	84.4438	74.707	85.3841	74.707	84.4822	74.707	85.2536	74.707	84.5371	74.707	85.1259	74.707	84.6067	74.707	85.0038	74.707	84.6894	74.707	84.8893	74.707	84.7841
77.6367	85.725	77.6367	85.5888	77.6367	85.8486	77.6367	85.4453	77.6367	85.9546	77.6367	85.3002	77.6367	86.0385	77.6367	85.1587	77.6367	86.0969	77.6367	85.026	77.6367	86.1274	77.6367	84.9066	77.6367	86.1292	77.6367	84.8042	77.6367	86.1028	77.6367	84.7215	77.6367	86.0503	77.6367	84.6605	77.6367	85.9754	77.6367	84.6219	77.6367	85.8824	77.6367	84.6057	77.6367	85.7763	77.6367	84.6109	77.6367	85.6619	77.6367	84.6359	77.6367	85.5435	77.6367	84.6787	77.6367	85.4245	77.6367	84.7371	77.6367	85.3074	77.6367	84.809	77.6367	85.1942	77.6367	84.8923	77.6367	85.0864	77.6367	84.9853
79.1016	85.7885	79.1016	85.6511	79.1016	85.9121	79.1016	85.5056	79.1016	86.017	79.1016	85.3577	79.1016	86.0988	79.1016	85.2129	79.1016	86.1538	79.1016	85.0764	79.1016	86.18	79.1016	84.953	79.1016	86.1765	79.1016	84.8466	79.1016	86.1442	79.1016	84.7602	79.1016	86.0856	79.1016	84.6958	79.1016	86.0047	79.1016	84.6543	79.1016	85.9064	79.1016	84.6356	79.1016	85.7961	79.1016	84.6389	79.1016	85.6787	79.1016	84.6623	79.1016	85.5587	79.1016	84.7039	79.1016	85.4393	79.1016	84.7612	79.1016	85.3228	79.1016	84.8319	79.1016	85.2109	79.1016	84.9139	79.1016	85.1047	79.1016	85.0053
82.0312	85.8639	82.0312	85.7244	82.0312	85.988	82.0312	85.5753	82.0312	86.0912	82.0312	85.4224	82.0312	86.169	82.0312	85.2716	82.0312	86.2177	82.0312	85.1282	82.0312	86.2354	82.0312	84.9971	82.0312	86.2216	82.0312	84.8822	82.0312	86.1776	82.0312	84.7868	82.0312	86.1065	82.0312	84.7128	82.0312	86.0125	82.0312	84.6614	82.0312	85.9011	82.0312	84.6327	82.0312	85.7778	82.0312	84.6257	82.0312	85.6482	82.0312	84.6391	82.0312	85.5172	82.0312	84.671	82.0312	85.3885	82.0312	84.7193	82.0312	85.2653	82.0312	84.7821	82.0312	85.1494	82.0312	84.8577	82.0312	85.0423	82.0312	84.9448
84.9609	85.8173	84.9609	85.6989	84.9609	85.9214	84.9609	85.5708	84.9609	86.0069	84.9609	85.4384	84.9609	86.0711	84.9609	85.3071	84.9609	86.1118	84.9609	85.1825	84.9609	86.1284	84.9609	85.0695	84.9609	86.1212	84.9609	84.9723	84.9609	86.0918	84.9609	84.8944	84.9609	86.043	84.9609	84.8379	84.9609	85.9779	84.9609	84.8039	84.9609	85.9005	84.9609	84.7922	84.9609	85.8145	84.9609	84.8016	84.9609	85.723	84.9609	84.8299	84.9609	85.6286	84.9609	84.8747	84.9609	85.5331	84.9609	84.9332	84.9609	85.438	84.9609	85.0024	84.9609	85.344	84.9609	85.08	84.9609	85.2523	84.9609	85.1639
87.8906	85.8308	87.8906	85.6989	87.8906	85.9479	87.8906	85.5572	87.8906	86.0458	87.8906	85.4112	87.8906	86.1211	87.8906	85.2672	87.8906	86.1713	87.8906	85.1312	87.8906	86.1952	87.8906	85.0095	87.8906	86.1929	87.8906	84.9073	87.8906	86.1661	87.8906	84.8292	87.8906	86.1184	87.8906	84.7782	87.8906	86.0545	87.8906	84.7558	87.8906	85.9799	87.8906	84.7617	87.8906	85.8996	87.8906	84.7939	87.8906	85.8174	87.8906	84.8489	87.8906	85.7351	87.8906	84.9222	87.8906	85.6528	87.8906	85.0087	87.8906	85.5694	87.8906	85.1032	87.8906	85.4832	87.8906	85.2011	87.8906	85.393	87.8906	85.2985
90.8203	86.3655	90.8203	86.2326	90.8203	86.4731	90.8203	86.0794	90.8203	86.5511	90.8203	85.9113	90.8203	86.5956	90.8203	85.7336	90.8203	86.604	90.8203	85.5518	90.8203	86.5748	90.8203	85.3715	90.8203	86.5084	90.8203	85.1979	90.8203	86.4069	90.8203	85.0362	90.8203	86.2747	90.8203	84.8911	90.8203	86.1178	90.8203	84.7669	90.8203	85.9439	90.8203	84.6673	90.8203	85.761	90.8203	84.595	90.8203	85.5774	90.8203	84.5513	90.8203	85.4001	90.8203	84.5365	90.8203	85.2343	90.8203	84.5494	90.8203	85.0832	90.8203	84.5878	90.8203	84.9486	90.8203	84.6491	90.8203	84.831	90.8203	84.7309
95.2148	85.5433	95.2148	85.408	95.2148	85.665	95.2148	85.2651	95.2148	85.768	95.2148	85.1209	95.2148	85.8483	95.2148	84.9817	95.2148	85.9029	95.2148	84.8532	95.2148	85.9306	95.2148	84.7405	95.2148	85.9316	95.2148	84.6472	95.2148	85.9075	95.2148	84.5757	95.2148	85.8613	95.2148	84.527	95.2148	85.7965	95.2148	84.5008	95.2148	85.7172	95.2148	84.4958	95.2148	85.6269	95.2148	84.5101	95.2148	85.5286	95.2148	84.5418	95.2148	85.4248	95.2148	84.5888	95.2148	85.3177	95.2148	84.6494	95.2148	85.2092	95.2148	84.722	95.2148	85.1015	95.2148	84.8052	95.2148	84.9968	95.2148	84.8974
98.1445	85.5842	98.1445	85.4612	98.1445	85.6909	98.1445	85.3276	98.1445	85.777	98.1445	85.1892	98.1445	85.8389	98.1445	85.0522	98.1445	85.8745	98.1445	84.9227	98.1445	85.8831	98.1445	84.806	98.1445	85.8659	98.1445	84.7065	98.1445	85.8253	98.1445	84.6277	98.1445	85.7652	98.1445	84.5712	98.1445	85.69	98.1445	84.5375	98.1445	85.6047	98.1445	84.5258	98.1445	85.5131	98.1445	84.5344	98.1445	85.4185	98.1445	84.5608	98.1445	85.3232	98.1445	84.6024	98.1445	85.2285	98.1445	84.6565	98.1445	85.1352	98.1445	84.7208	98.1445	85.0442	98.1445	84.7932	98.1445	84.9562	98.1445	84.8721
101.074	85.1678	101.074	85.05	101.074	85.2714	101.074	84.9237	101.074	85.3559	101.074	84.7956	101.074	85.4182	101.074	84.6728	101.074	85.4567	101.074	84.5622	101.074	85.4717	101.074	84.4698	101.074	85.4656	101.074	84.4004	101.074	85.4423	101.074	84.3572	101.074	85.4071	101.074	84.3412	101.074	85.3655	101.074	84.3515	101.074	85.3222	101.074	84.3853	101.074	85.2801	101.074	84.4387	101.074	85.2396	101.074	84.5071	101.074	85.1993	101.074	84.5855	101.074	85.1565	101.074	84.6695	101.074	85.1084	101.074	84.755	101.074	85.0529	101.074	84.8385	101.074	84.9891	101.074	84.9172
105.469	85.0095	105.469	84.8795	105.469	85.1185	105.469	84.7349	105.469	85.2006	105.469	84.5828	105.469	85.2511	105.469	84.4303	105.469	85.2673	105.469	84.2841	105.469	85.2481	105.469	84.1507	105.469	85.1955	105.469	84.0356	105.469	85.1141	105.469	83.9431	105.469	85.0108	105.469	83.8763	105.469	84.8948	105.469	83.8365	105.469	84.7756	105.469	83.8234	105.469	84.662	105.469	83.8348	105.469	84.5602	105.469	83.8672	105.469	84.4733	105.469	83.9157	105.469	84.4004	105.469	83.9749	105.469	84.3381	105.469	84.0394	105.469	84.2814	105.469	84.1044	105.469	84.2254	105.469	84.1668
108.398	84.9133	108.398	84.7884	108.398	85.0143	108.398	84.6458	108.398	85.086	108.398	84.4925	108.398	85.1244	108.398	84.3355	108.398	85.1273	108.398	84.1819	108.398	85.0944	108.398	84.038	108.398	85.0278	108.398	83.9096	108.398	84.9322	108.398	83.801	108.398	84.8142	108.398	83.7152	108.398	84.6822	108.398	83.6538	108.398	84.545	108.398	83.6166	108.398	84.4111	108.398	83.6022	108.398	84.2869	108.398	83.6078	108.398	84.1766	108.398	83.6298	108.398	84.0814	108.398	83.6645	108.398	84.0001	108.398	83.708	108.398	83.93	108.398	83.7573	108.398	83.8677	108.398	83.8106
112.793	84.5691	112.793	84.4484	112.793	84.6648	112.793	84.3089	112.793	84.7308	112.793	84.1571	112.793	84.7638	112.793	84.0005	112.793	84.7624	112.793	83.8464	112.793	84.7273	112.793	83.7018	112.793	84.6616	112.793	83.573	112.793	84.5706	112.793	83.465	112.793	84.4614	112.793	83.3815	112.793	84.3425	112.793	83.3242	112.793	84.2223	112.793	83.2934	112.793	84.1079	112.793	83.2873	112.793	84.0041	112.793	83.3031	112.793	83.9126	112.793	83.3368	112.793	83.8324	112.793	83.3841	112.793	83.7607	112.793	83.4404	112.793	83.6941	112.793	83.5019	112.793	83.6296	112.793	83.5656
117.188	84.4908	117.188	84.3507	117.188	84.6006	117.188	84.1873	117.188	84.6745	117.188	84.0084	117.188	84.7086	117.188	83.8224	117.188	84.7005	117.188	83.6381	117.188	84.6502	117.188	83.4641	117.188	84.5603	117.188	83.3083	117.188	84.4361	117.188	83.1771	117.188	84.2858	117.188	83.0751	117.188	84.12	117.188	83.0048	117.188	83.9507	117.188	82.9662	117.188	83.7899	117.188	82.9566	117.188	83.6474	117.188	82.9717	117.188	83.529	117.188	83.0056	117.188	83.4357	117.188	83.0518	117.188	83.3639	117.188	83.104	117.188	83.3067	117.188	83.157	117.188	83.2568	117.188	83.2079
120.117	84.6691	120.117	84.5324	120.117	84.7763	120.117	84.3721	120.117	84.8486	120.117	84.1951	120.117	84.8822	120.117	84.0085	120.117	84.8745	120.117	83.8194	120.117	84.8251	120.117	83.6349	120.117	84.7355	120.117	83.4619	120.117	84.6096	120.117	83.3062	120.117	84.4536	120.117	83.173	120.117	84.2757	120.117	83.0659	120.117	84.0855	120.117	82.987	120.117	83.8938	120.117	82.9363	120.117	83.7106	120.117	82.9122	120.117	83.5448	120.117	82.9111	120.117	83.402	120.117	82.9285	120.117	83.2844	120.117	82.96	120.117	83.1901	120.117	83.0021	120.117	83.1146	120.117	83.0532
124.512	84.5656	124.512	84.4351	124.512	84.6675	124.512	84.2829	124.512	84.7359	124.512	84.1163	124.512	84.7675	124.512	83.9433	124.512	84.761	124.512	83.7719	124.512	84.7175	124.512	83.6091	124.512	84.6402	124.512	83.4611	124.512	84.5342	124.512	83.3327	124.512	84.4061	124.512	83.2269	124.512	84.2634	124.512	83.1456	124.512	84.1135	124.512	83.0889	124.512	83.9638	124.512	83.056	124.512	83.8202	124.512	83.045	124.512	83.6875	124.512	83.0535	124.512	83.5686	124.512	83.0785	124.512	83.4642	124.512	83.1172	124.512	83.3735	124.512	83.167	124.512	83.2948	124.512	83.2263
128.906	84.6235	128.906	84.4894	128.906	84.7307	128.906	84.3348	128.906	84.8064	128.906	84.1676	128.906	84.8477	128.906	83.9965	128.906	84.8541	128.906	83.8303	128.906	84.8268	128.906	83.6773	128.906	84.7686	128.906	83.5443	128.906	84.6839	128.906	83.4361	128.906	84.5782	128.906	83.3554	128.906	84.4575	128.906	83.3027	128.906	84.328	128.906	83.2763	128.906	84.1957	128.906	83.2732	128.906	84.0662	128.906	83.2895	128.906	83.9446	128.906	83.3206	128.906	83.8347	128.906	83.3623	128.906	83.7384	128.906	83.4109	128.906	83.6557	128.906	83.4641	128.906	83.5845	128.906	83.5215
133.301	84.7717	133.301	84.638	133.301	84.8805	133.301	84.486	133.301	84.9594	133.301	84.3233	133.301	85.0053	133.301	84.1583	133.301	85.0169	133.301	83.9994	133.301	84.9954	133.301	83.8544	133.301	84.9442	133.301	83.7299	133.301	84.8682	133.301	83.6304	133.301	84.7738	133.301	83.5584	133.301	84.6674	133.301	83.5139	133.301	84.5547	133.301	83.495	133.301	84.4402	133.301	83.4984	133.301	84.3268	133.301	83.5198	133.301	84.2171	133.301	83.555	133.301	84.1129	133.301	83.6004	133.301	84.0161	133.301	83.6531	133.301	83.9277	133.301	83.7118	133.301	83.8481	133.301	83.7766
139.16	84.9955	139.16	84.8554	139.16	85.105	139.16	84.6924	139.16	85.1784	139.16	84.5152	139.16	85.2126	139.16	84.3333	139.16	85.2072	139.16	84.1562	139.16	85.1647	139.16	83.9929	139.16	85.0901	139.16	83.8506	139.16	84.9907	139.16	83.7349	139.16	84.8749	139.16	83.649	139.16	84.7511	139.16	83.5937	139.16	84.6268	139.16	83.5678	139.16	84.5074	139.16	83.5684	139.16	84.3964	139.16	83.5915	139.16	84.2948	139.16	83.6324	139.16	84.2023	139.16	83.6865	139.16	84.1175	139.16	83.7495	139.16	84.0382	139.16	83.8178	139.16	83.9625	139.16	83.8891
143.555	85.0146	143.555	84.8683	143.555	85.1286	143.555	84.6976	143.555	85.2048	143.555	84.5124	143.555	85.2407	143.555	84.3237	143.555	85.2367	143.555	84.1429	143.555	85.1963	143.555	83.9802	143.555	85.1256	143.555	83.8445	143.555	85.0329	143.555	83.7415	143.555	84.9274	143.555	83.6741	143.555	84.8179	143.555	83.6419	143.555	84.7117	143.555	83.6419	143.555	84.6135	143.555	83.6691	143.555	84.525	143.555	83.7176	143.555	84.4453	143.555	83.7814	143.555	84.3721	143.555	83.8546	143.555	84.3023	143.555	83.9324	143.555	84.233	143.555	84.0111	143.555	84.1619	143.555	84.088
147.949	85.1053	147.949	84.956	147.949	85.2191	147.949	84.7786	147.949	85.2925	147.949	84.5826	147.949	85.3235	147.949	84.3789	147.949	85.3126	147.949	84.1796	147.949	85.2633	147.949	83.996	147.949	85.1816	147.949	83.8386	147.949	85.0757	147.949	83.7152	147.949	84.955	147.949	83.6301	147.949	84.8293	147.949	83.5845	147.949	84.7068	147.949	83.576	147.949	84.5935	147.949	83.5994	147.949	84.4923	147.949	83.6482	147.949	84.4033	147.949	83.7151	147.949	84.3244	147.949	83.7928	147.949	84.252	147.949	83.8752	147.949	84.1821	147.949	83.9575	147.949	84.1111	147.949	84.0365
153.809	85.0061	153.809	84.852	153.809	85.1235	153.809	84.6687	153.809	85.1989	153.809	84.4658	153.809	85.2298	153.809	84.2542	153.809	85.2169	153.809	84.0456	153.809	85.1639	153.809	83.8516	153.809	85.0776	153.809	83.6827	153.809	84.9669	153.809	83.5478	153.809	84.8422	153.809	83.4523	153.809	84.7138	153.809	83.3986	153.809	84.5904	153.809	83.3855	153.809	84.4781	153.809	83.4087	153.809	84.3794	153.809	83.4618	153.809	84.2936	153.809	83.5371	153.809	84.2171	153.809	83.6265	153.809	84.1451	153.809	83.7225	153.809	84.0724	153.809	83.8187	153.809	83.9949	153.809	83.9103
159.668	84.7218	159.668	84.5712	159.668	84.8353	159.668	84.391	159.668	84.907	159.668	84.1906	159.668	84.9354	159.668	83.9813	159.668	84.9219	159.668	83.7747	159.668	84.8713	159.668	83.5825	159.668	84.7906	159.668	83.4147	159.668	84.6888	159.668	83.2797	159.668	84.5758	159.668	83.183	159.668	84.4605	159.668	83.127	159.668	84.3499	159.668	83.1115	159.668	84.2484	159.668	83.1331	159.668	84.1573	159.668	83.1865	159.668	84.0754	159.668	83.2648	159.668	83.9995	159.668	83.36	159.668	83.9251	159.668	83.464	159.668	83.8476	159.668	83.5694	159.668	83.7633	159.668	83.6703
165.527	84.0448	165.527	83.8935	165.527	84.1592	165.527	83.7138	165.527	84.2308	165.527	83.5167	165.527	84.2568	165.527	83.3145	165.527	84.2384	165.527	83.1204	165.527	84.1805	165.527	82.9468	165.527	84.092	165.527	82.8042	165.527	83.9847	165.527	82.7003	165.527	83.8722	165.527	82.6388	165.527	83.7667	165.527	82.6194	165.527	83.6772	165.527	82.6386	165.527	83.6073	165.527	82.6906	165.527	83.5553	165.527	82.7677	165.527	83.5156	165.527	82.8619	165.527	83.4804	165.527	82.9651	165.527	83.4423	165.527	83.0698	165.527	83.3949	165.527	83.1694	165.527	83.3341	165.527	83.2586
171.387	83.3314	171.387	83.1694	171.387	83.4477	171.387	82.9712	171.387	83.5116	171.387	82.7479	171.387	83.519	171.387	82.5118	171.387	83.4696	171.387	82.2767	171.387	83.368	171.387	82.0565	171.387	83.2237	171.387	81.8643	171.387	83.0508	171.387	81.7115	171.387	82.8667	171.387	81.6058	171.387	82.69	171.387	81.5504	171.387	82.5366	171.387	81.5438	171.387	82.4173	171.387	81.5803	171.387	82.3353	171.387	81.6507	171.387	82.2862	171.387	81.7441	171.387	82.2594	171.387	81.8486	171.387	82.2414	171.387	81.9531	171.387	82.2191	171.387	82.0478	171.387	82.1823	171.387	82.1254
177.246	83.1388	177.246	83.001	177.246	83.2286	177.246	82.8235	177.246	83.2654	177.246	82.6171	177.246	83.2478	177.246	82.3945	177.246	83.179	177.246	82.1691	177.246	83.066	177.246	81.9544	177.246	82.9198	177.246	81.7628	177.246	82.7539	177.246	81.6049	177.246	82.5832	177.246	81.4883	177.246	82.4221	177.246	81.4172	177.246	82.2822	177.246	81.3918	177.246	82.1713	177.246	81.4084	177.246	82.0916	177.246	81.4598	177.246	82.0401	177.246	81.5363	177.246	82.009	177.246	81.6268	177.246	81.9873	177.246	81.7198	177.246	81.9637	177.246	81.8054	177.246	81.9286	177.246	81.8762
183.105	83.7325	183.105	83.605	183.105	83.8194	183.105	83.448	183.105	83.8577	183.105	83.2739	183.105	83.8432	183.105	83.0955	183.105	83.7765	183.105	82.9247	183.105	83.6633	183.105	82.7709	183.105	83.5143	183.105	82.641	183.105	83.3435	183.105	82.5386	183.105	83.167	183.105	82.4649	183.105	83.0002	183.105	82.4193	183.105	82.856	183.105	82.4002	183.105	82.7436	183.105	82.4051	183.105	82.6678	183.105	82.4306	183.105	82.6277	183.105	82.4714	183.105	82.6172	183.105	82.5207	183.105	82.6254	183.105	82.5701	183.105	82.639	183.105	82.6112	183.105	82.6457	183.105	82.6374
188.965	84.4405	188.965	84.2692	188.965	84.5556	188.965	84.0535	188.965	84.6074	188.965	83.8093	188.965	84.5944	188.965	83.5559	188.965	84.5203	188.965	83.314	188.965	84.3945	188.965	83.1039	188.965	84.2314	188.965	82.9418	188.965	84.0493	188.965	82.8373	188.965	83.8679	188.965	82.7917	188.965	83.7055	188.965	82.7989	188.965	83.5755	188.965	82.8479	188.965	83.4845	188.965	82.9254	188.965	83.4317	188.965	83.019	188.965	83.4107	188.965	83.1176	188.965	83.4112	188.965	83.212	188.965	83.4214	188.965	83.2946	188.965	83.4296	188.965	83.3597	188.965	83.426	188.965	83.4037
196.289	85.0009	196.289	84.8331	196.289	85.112	196.289	84.6187	196.289	85.1602	196.289	84.371	196.289	85.1441	196.289	84.106	196.289	85.0669	196.289	83.8411	196.289	84.9367	196.289	83.5938	196.289	84.7664	196.289	83.3798	196.289	84.5721	196.289	83.2116	196.289	84.3713	196.289	83.0965	196.289	84.1807	196.289	83.036	196.289	84.0135	196.289	83.0267	196.289	83.8781	196.289	83.0605	196.289	83.7779	196.289	83.1271	196.289	83.7108	196.289	83.2145	196.289	83.6703	196.289	83.3107	196.289	83.6459	196.289	83.4046	196.289	83.6251	196.289	83.4868	196.289	83.5964	196.289	83.5514
203.613	85.1515	203.613	84.9913	203.613	85.2476	203.613	84.7774	203.613	85.274	203.613	84.5237	203.613	85.23	203.613	84.2473	203.613	85.1208	203.613	83.9673	203.613	84.9573	203.613	83.7035	203.613	84.756	203.613	83.4743	203.613	84.5374	203.613	83.2947	203.613	84.3232	203.613	83.1741	203.613	84.1326	203.613	83.1153	203.613	83.9786	203.613	83.1142	203.613	83.8661	203.613	83.1612	203.613	83.7927	203.613	83.2428	203.613	83.7516	203.613	83.344	203.613	83.7339	203.613	83.45	203.613	83.7292	203.613	83.5476	203.613	83.7261	203.613	83.6268	203.613	83.7136	203.613	83.6822
210.938	85.0899	210.938	84.9364	210.938	85.1853	210.938	84.7331	210.938	85.2181	210.938	84.4919	210.938	85.1879	210.938	84.2283	210.938	85.0978	210.938	83.96	210.938	84.9558	210.938	83.7051	210.938	84.7745	210.938	83.4801	210.938	84.5713	210.938	83.2978	210.938	84.3666	210.938	83.1651	210.938	84.1805	210.938	83.084	210.938	84.0282	210.938	83.052	210.938	83.9165	210.938	83.064	210.938	83.843	210.938	83.1129	210.938	83.7984	210.938	83.1903	210.938	83.7694	210.938	83.2868	210.938	83.7427	210.938	83.3913	210.938	83.707	210.938	83.4931	210.938	83.6549	210.938	83.583
218.262	84.8016	218.262	84.6185	218.262	84.9278	218.262	84.3918	218.262	84.9879	218.262	84.1382	218.262	84.9775	218.262	83.8771	218.262	84.8974	218.262	83.6293	218.262	84.7551	218.262	83.4152	218.262	84.565	218.262	83.2512	218.262	84.3485	218.262	83.1473	218.262	84.1314	218.262	83.1045	218.262	83.9402	218.262	83.1162	218.262	83.7966	218.262	83.1702	218.262	83.7121	218.262	83.2529	218.262	83.6854	218.262	83.352	218.262	83.7034	218.262	83.4574	218.262	83.7457	218.262	83.5614	218.262	83.7904	218.262	83.6569	218.262	83.8196	218.262	83.7367	218.262	83.822	218.262	83.7936
225.586	85.0032	225.586	84.8209	225.586	85.1198	225.586	84.5864	225.586	85.1615	225.586	84.3164	225.586	85.124	225.586	84.0304	225.586	85.0094	225.586	83.7494	225.586	84.8267	225.586	83.4949	225.586	84.593	225.586	83.2859	225.586	84.3321	225.586	83.1376	225.586	84.0725	225.586	83.0581	225.586	83.8431	225.586	83.0479	225.586	83.6679	225.586	83.0997	225.586	83.5615	225.586	83.2001	225.586	83.5268	225.586	83.332	225.586	83.5549	225.586	83.4773	225.586	83.6268	225.586	83.6177	225.586	83.7169	225.586	83.737	225.586	83.7991	225.586	83.8211	225.586	83.8515	225.586	83.8604
232.91	85.0826	232.91	84.898	232.91	85.2002	232.91	84.6605	232.91	85.241	232.91	84.3881	232.91	85.2004	232.91	84.1011	232.91	85.0803	232.91	83.8202	232.91	84.8896	232.91	83.5648	232.91	84.6434	232.91	83.3496	232.91	84.3621	232.91	83.1837	232.91	84.069	232.91	83.0697	232.91	83.7873	232.91	83.0058	232.91	83.5382	232.91	82.9873	232.91	83.34	232.91	83.0078	232.91	83.206	232.91	83.0594	232.91	83.1426	232.91	83.1318	232.91	83.1439	232.91	83.2115	232.91	83.1915	232.91	83.2828	232.91	83.2577	232.91	83.33	232.91	83.3145	232.91	83.3415
241.699	84.5737	241.699	84.3519	241.699	84.73	241.699	84.0838	241.699	84.8102	241.699	83.7956	241.699	84.8121	241.699	83.518	241.699	84.7417	241.699	83.2805	241.699	84.6122	241.699	83.1048	241.699	84.4416	241.699	82.9989	241.699	84.2491	241.699	82.9562	241.699	84.0507	241.699	82.9591	241.699	83.855	241.699	82.9866	241.699	83.6639	241.699	83.0199	241.699	83.4769	241.699	83.0468	241.699	83.2979	241.699	83.0616	241.699	83.1384	241.699	83.0634	241.699	83.0153	241.699	83.0533	241.699	82.9413	241.699	83.0324	241.699	82.9172	241.699	83.0015	241.699	82.9311	241.699	82.9646
250.488	84.3429	250.488	83.9869	250.488	84.5764	250.488	83.5299	250.488	84.6811	250.488	83.0124	250.488	84.6649	250.488	82.498	250.488	84.5508	250.488	82.0703	250.488	84.3775	250.488	81.8131	250.488	84.196	250.488	81.7744	250.488	84.0586	250.488	81.9397	250.488	84.0015	250.488	82.2423	250.488	84.0282	250.488	82.5994	250.488	84.1097	250.488	82.9428	250.488	84.1995	250.488	83.2311	250.488	84.2558	250.488	83.4478	250.488	84.2557	250.488	83.5948	250.488	84.1995	250.488	83.6863	250.488	84.106	250.488	83.743	250.488	84.0014	250.488	83.7868	250.488	83.9082	250.488	83.8375
259.277	85.3592	259.277	85.1138	259.277	85.459	259.277	84.7261	259.277	85.4138	259.277	84.2055	259.277	85.2287	259.277	83.573	259.277	84.9163	259.277	82.8722	259.277	84.5016	259.277	82.1836	259.277	84.0305	259.277	81.6303	259.277	83.5782	259.277	81.35	259.277	83.2455	259.277	81.4209	259.277	83.1256	259.277	81.803	259.277	83.2502	259.277	82.3695	259.277	83.5655	259.277	82.9877	259.277	83.9689	259.277	83.5665	259.277	84.3651	259.277	84.0597	259.277	84.6932	259.277	84.4521	259.277	84.9268	259.277	84.7454	259.277	85.0623	259.277	84.9478	259.277	85.1064	259.277	85.0671
268.066	85.8985	268.066	85.6525	268.066	86.0183	268.066	85.2844	268.066	86.009	268.066	84.8006	268.066	85.8692	268.066	84.2133	268.066	85.6013	268.066	83.5477	268.066	85.2152	268.066	82.8513	268.066	84.7334	268.066	82.2036	268.066	84.1977	268.066	81.7119	268.066	83.6757	268.066	81.4792	268.066	83.2566	268.066	81.5485	268.066	83.0252	268.066	81.8737	268.066	83.0199	268.066	82.3515	268.066	83.2088	268.066	82.8767	268.066	83.5109	268.066	83.373	268.066	83.8388	268.066	83.7952	268.066	84.1266	268.066	84.1205	268.066	84.3351	268.066	84.3388	268.066	84.4446	268.066	84.4468
276.855	86.0761	276.855	85.8475	276.855	86.1916	276.855	85.5082	276.855	86.1931	276.855	85.0625	276.855	86.0815	276.855	84.5191	276.855	85.8604	276.855	83.894	276.855	85.5378	276.855	83.2159	276.855	85.1295	276.855	82.5329	276.855	84.6638	276.855	81.9179	276.855	84.1868	276.855	81.4626	276.855	83.7627	276.855	81.2507	276.855	83.4607	276.855	81.3148	276.855	83.3275	276.855	81.6147	276.855	83.3617	276.855	82.0601	276.855	83.5133	276.855	82.5548	276.855	83.7102	276.855	83.025	276.855	83.8865	276.855	83.4244	276.855	83.9963	276.855	83.7282	276.855	84.0134	276.855	83.9254
287.109	85.7802	287.109	85.5726	287.109	85.8743	287.109	85.255	287.109	85.8547	287.109	84.8344	287.109	85.7252	287.109	84.324	287.109	85.495	287.109	83.748	287.109	85.1807	287.109	83.1474	287.109	84.8077	287.109	82.5845	287.109	84.4125	287.109	82.1399	287.109	84.0443	287.109	81.8919	287.109	83.7609	287.109	81.8833	287.109	83.617	287.109	82.0986	287.109	83.6418	287.109	82.475	287.109	83.8215	287.109	82.935	287.109	84.1	287.109	83.4126	287.109	84.4006	287.109	83.8609	287.109	84.653	287.109	84.2487	287.109	84.8089	287.109	84.5533	287.109	84.8449	287.109	84.7569
297.363	86.9265	297.363	86.7588	297.363	86.9639	297.363	86.4686	297.363	86.8634	297.363	86.0627	297.363	86.6202	297.363	85.548	297.363	86.2357	297.363	84.9347	297.363	85.7215	297.363	84.2432	297.363	85.1066	297.363	83.5158	297.363	84.4449	297.363	82.8286	297.363	83.8216	297.363	82.2948	297.363	83.3458	297.363	82.0348	297.363	83.1176	297.363	82.1099	297.363	83.1781	297.363	82.4765	297.363	83.4846	297.363	83.0173	297.363	83.934	297.363	83.6105	297.363	84.4105	297.363	84.1676	297.363	84.8199	297.363	84.6348	297.363	85.1011	297.363	84.9798	297.363	85.224	297.363	85.1812
307.617	87.0243	307.617	86.7708	307.617	87.159	307.617	86.4129	307.617	87.1621	307.617	85.9658	307.617	87.023	307.617	85.4461	307.617	86.7347	307.617	84.872	307.617	86.2964	307.617	84.2653	307.617	85.7182	307.617	83.6553	307.617	85.0279	307.617	83.0848	307.617	84.2812	307.617	82.6147	307.617	83.5711	307.617	82.3185	307.617	83.0216	307.617	82.2582	307.617	82.751	307.617	82.4496	307.617	82.8096	307.617	82.8456	307.617	83.1445	307.617	83.3556	307.617	83.6299	307.617	83.8806	307.617	84.1279	307.617	84.3366	307.617	84.5298	307.617	84.661	307.617	84.768	307.617	84.8121
319.336	87.2463	319.336	87.0136	319.336	87.3475	319.336	86.6527	319.336	87.3142	319.336	86.1694	319.336	87.1445	319.336	85.5748	319.336	86.8373	319.336	84.8907	319.336	86.3935	319.336	84.1562	319.336	85.8178	319.336	83.4337	319.336	85.1257	319.336	82.809	319.336	84.3595	319.336	82.3756	319.336	83.6109	319.336	82.2017	319.336	83.0298	319.336	82.2962	319.336	82.772	319.336	82.6065	319.336	82.8879	319.336	83.0476	319.336	83.2746	319.336	83.534	319.336	83.7619	319.336	83.9953	319.336	84.2125	319.336	84.378	319.336	84.5492	319.336	84.6441	319.336	84.738	319.336	84.7687
329.59	87.0842	329.59	86.8858	329.59	87.1824	329.59	86.593	329.59	87.1716	329.59	86.2073	329.59	87.0433	329.59	85.7255	329.59	86.7906	329.59	85.1435	329.59	86.408	329.59	84.4633	329.59	85.8909	329.59	83.7056	329.59	85.2375	329.59	82.9262	329.59	84.458	329.59	82.2317	329.59	83.5969	329.59	81.7686	329.59	82.7686	329.59	81.6579	329.59	82.1782	329.59	81.9076	329.59	82.0383	329.59	82.4056	329.59	82.3772	329.59	83.0017	329.59	82.9919	329.59	83.5744	329.59	83.6309	329.59	84.0449	329.59	84.1315	329.59	84.3641	329.59	84.4253	329.59	84.4988
341.309	86.7786	341.309	86.5494	341.309	86.893	341.309	86.2158	341.309	86.8874	341.309	85.7923	341.309	86.7627	341.309	85.2961	341.309	86.5252	341.309	84.7459	341.309	86.185	341.309	84.1619	341.309	85.7517	341.309	83.5675	341.309	85.2329	341.309	82.9951	341.309	84.6367	341.309	82.4938	341.309	83.9813	341.309	82.1312	341.309	83.3134	341.309	81.9775	341.309	82.7317	341.309	82.0712	341.309	82.3834	341.309	82.3892	341.309	82.3887	341.309	82.8502	341.309	82.7273	341.309	83.3482	341.309	83.2355	341.309	83.7834	341.309	83.7221	341.309	84.0777	341.309	84.0562	341.309	84.1775
353.027	86.8963	353.027	86.6507	353.027	87.0211	353.027	86.2933	353.027	87.0203	353.027	85.8358	353.027	86.8952	353.027	85.291	353.027	86.652	353.027	84.6719	353.027	86.2994	353.027	83.9936	353.027	85.8446	353.027	83.2776	353.027	85.2934	353.027	82.5612	353.027	84.6559	353.027	81.9132	353.027	83.9593	353.027	81.4417	353.027	83.2702	353.027	81.2679	353.027	82.7133	353.027	81.452	353.027	82.4443	353.027	81.9338	353.027	82.5456	353.027	82.5671	353.027	82.9375	353.027	83.2006	353.027	83.4358	353.027	83.725	353.027	83.873	353.027	84.0758	353.027	84.1494	353.027	84.2206
366.211	87.0863	366.211	86.8662	366.211	87.1737	366.211	86.5155	366.211	87.1288	366.211	86.0399	366.211	86.9543	366.211	85.4501	366.211	86.6531	366.211	84.7656	366.211	86.2283	366.211	84.0178	366.211	85.6845	366.211	83.2538	366.211	85.0352	366.211	82.5356	366.211	84.3123	366.211	81.9347	366.211	83.5753	366.211	81.5181	366.211	82.914	366.211	81.331	366.211	82.4374	366.211	81.3833	366.211	82.2373	366.211	81.6476	366.211	82.3336	366.211	82.0641	366.211	82.6485	366.211	82.5507	366.211	83.0439	366.211	83.0168	366.211	83.3849	366.211	83.3796	366.211	83.578	366.211	83.5774
379.395	87.0125	379.395	86.7505	379.395	87.1685	379.395	86.3918	379.395	87.2088	379.395	85.9438	379.395	87.1241	379.395	85.4111	379.395	86.9073	379.395	84.7968	379.395	86.5541	379.395	84.1074	379.395	86.0642	379.395	83.3649	379.395	85.4408	379.395	82.6224	379.395	84.6923	379.395	81.977	379.395	83.8407	379.395	81.5555	379.395	82.9483	379.395	81.4534	379.395	82.1666	379.395	81.668	379.395	81.7443	379.395	82.1029	379.395	81.8639	379.395	82.6345	379.395	82.4176	379.395	83.1618	379.395	83.0997	379.395	83.6127	379.395	83.6614	379.395	83.9323	379.395	83.9915	379.395	84.0728
392.578	86.8024	392.578	86.5593	392.578	86.9306	392.578	86.2128	392.578	86.9329	392.578	85.7737	392.578	86.8002	392.578	85.2522	392.578	86.5293	392.578	84.6582	392.578	86.1253	392.578	84.0008	392.578	85.6018	392.578	83.2922	392.578	84.9791	392.578	82.5568	392.578	84.2811	392.578	81.8505	392.578	83.534	392.578	81.2791	392.578	82.7759	392.578	80.9882	392.578	82.086	392.578	81.0875	392.578	81.6202	392.578	81.5543	392.578	81.5718	392.578	82.2363	392.578	81.9933	392.578	82.9494	392.578	82.6901	392.578	83.548	392.578	83.3785	392.578	83.9351	392.578	83.8602	392.578	84.0494
405.762	86.9963	405.762	86.7826	405.762	87.0615	405.762	86.4371	405.762	86.967	405.762	85.9762	405.762	86.7137	405.762	85.4142	405.762	86.3191	405.762	84.7626	405.762	85.8158	405.762	84.0316	405.762	85.2428	405.762	83.2363	405.762	84.6338	405.762	82.4089	405.762	84.0117	405.762	81.6166	405.762	83.3937	405.762	80.9744	405.762	82.8039	405.762	80.6265	405.762	82.2879	405.762	80.6738	405.762	81.9236	405.762	81.0944	405.762	81.8063	405.762	81.7474	405.762	81.9912	405.762	82.4513	405.762	82.4221	405.762	83.0494	405.762	82.9363	405.762	83.4309	405.762	83.3503	405.762	83.534
420.41	87.0465	420.41	86.8513	420.41	87.1083	420.41	86.5365	420.41	87.032	420.41	86.1207	420.41	86.8253	420.41	85.6229	420.41	86.5061	420.41	85.0598	420.41	86.0932	420.41	84.4427	420.41	85.5964	420.41	83.7773	420.41	85.0124	420.41	83.0704	420.41	84.3332	420.41	82.3497	420.41	83.5649	420.41	81.691	420.41	82.7649	420.41	81.2337	420.41	82.086	420.41	81.1339	420.41	81.7573	420.41	81.447	420.41	81.9113	420.41	82.0615	420.41	82.4278	420.41	82.7749	420.41	83.0518	420.41	83.4054	420.41	83.5843	420.41	83.836	420.41	83.9206	420.41	84.0113
435.059	87.0905	435.059	86.8113	435.059	87.2338	435.059	86.4107	435.059	87.2306	435.059	85.9047	435.059	87.0786	435.059	85.3093	435.059	86.7856	435.059	84.6449	435.059	86.3719	435.059	83.9438	435.059	85.8688	435.059	83.2552	435.059	85.3085	435.059	82.6399	435.059	84.7043	435.059	82.155	435.059	84.0345	435.059	81.8414	435.059	83.2668	435.059	81.7258	435.059	82.45	435.059	81.8288	435.059	81.8417	435.059	82.1543	435.059	81.8352	435.059	82.6637	435.059	82.4834	435.059	83.2675	435.059	83.3681	435.059	83.8503	435.059	84.0891	435.059	84.3033	435.059	84.4827	435.059	84.5378
451.172	87.915	451.172	87.5886	451.172	88.0658	451.172	87.0983	451.172	88.0313	451.172	86.459	451.172	87.8045	451.172	85.6897	451.172	87.3863	451.172	84.8102	451.172	86.7929	451.172	83.8395	451.172	86.0617	451.172	82.8008	451.172	85.2543	451.172	81.7418	451.172	84.4473	451.172	80.7663	451.172	83.6987	451.172	80.0542	451.172	83.0042	451.172	79.8079	451.172	82.3033	451.172	80.105	451.172	81.5807	451.172	80.8186	451.172	81.0192	451.172	81.7185	451.172	80.9913	451.172	82.5943	451.172	81.6252	451.172	83.289	451.172	82.5471	451.172	83.6881	451.172	83.3147	451.172	83.7098
465.82	87.8635	465.82	87.6099	465.82	87.9468	465.82	87.1985	465.82	87.847	465.82	86.6382	465.82	87.5599	465.82	85.9363	465.82	87.098	465.82	85.1032	465.82	86.4898	465.82	84.1576	465.82	85.7694	465.82	83.1316	465.82	84.9653	465.82	82.0839	465.82	84.1034	465.82	81.1228	465.82	83.2252	465.82	80.4272	465.82	82.4086	465.82	80.2008	465.82	81.7769	465.82	80.5229	465.82	81.4752	465.82	81.2582	465.82	81.5966	465.82	82.1648	465.82	82.0971	465.82	83.032	465.82	82.8005	465.82	83.7174	465.82	83.4926	465.82	84.1326	465.82	84.0032	465.82	84.2303
483.398	87.6456	483.398	87.4917	483.398	87.6463	483.398	87.1996	483.398	87.484	483.398	86.7795	483.398	87.1649	483.398	86.2342	483.398	86.7161	483.398	85.5582	483.398	86.1733	483.398	84.7365	483.398	85.5635	483.398	83.7447	483.398	84.901	483.398	82.5574	483.398	84.2051	483.398	81.1898	483.398	83.516	483.398	79.8058	483.398	82.8937	483.398	78.8665	483.398	82.4096	483.398	78.9378	483.398	82.1415	483.398	79.9657	483.398	82.1567	483.398	81.3451	483.398	82.4656	483.398	82.6089	483.398	82.9853	483.398	83.5493	483.398	83.562	483.398	84.0932	483.398	84.0266	483.398	84.2363
499.512	87.8038	499.512	87.4441	499.512	87.9993	499.512	86.9572	499.512	88.01	499.512	86.387	499.512	87.8339	499.512	85.7702	499.512	87.4802	499.512	85.123	499.512	86.9561	499.512	84.4354	499.512	86.2544	499.512	83.6743	499.512	85.3525	499.512	82.7931	499.512	84.2231	499.512	81.7499	499.512	82.8568	499.512	80.5475	499.512	81.3405	499.512	79.3288	499.512	80.07	499.512	78.5216	499.512	79.8284	499.512	78.6974	499.512	80.8338	499.512	79.8509	499.512	82.2871	499.512	81.3705	499.512	83.5181	499.512	82.7602	499.512	84.3006	499.512	83.8048	499.512	84.5999	499.512	84.4281
517.09	88.2242	517.09	87.8988	517.09	88.3435	517.09	87.3915	517.09	88.2597	517.09	86.7573	517.09	87.9997	517.09	86.0779	517.09	87.6084	517.09	85.4363	517.09	87.1339	517.09	84.8738	517.09	86.6054	517.09	84.3579	517.09	86.0169	517.09	83.7917	517.09	85.3246	517.09	83.0586	517.09	84.4504	517.09	82.0864	517.09	83.29	517.09	80.9415	517.09	81.7589	517.09	79.9903	517.09	80.0146	517.09	79.892	517.09	79.0275	517.09	80.8618	517.09	79.9499	517.09	82.295	517.09	81.8333	517.09	83.5771	517.09	83.4328	517.09	84.4201	517.09	84.3977	517.09	84.7125
536.133	88.6481	536.133	88.2774	536.133	88.7458	536.133	87.6703	536.133	88.5616	536.133	86.8926	536.133	88.1176	536.133	86.0428	536.133	87.4648	536.133	85.2427	536.133	86.6758	536.133	84.5948	536.133	85.8408	536.133	84.117	536.133	85.0733	536.133	83.714	536.133	84.4843	536.133	83.2305	536.133	84.0839	536.133	82.5442	536.133	83.7002	536.133	81.6517	536.133	83.046	536.133	80.7619	536.133	81.8798	536.133	80.3484	536.133	80.2917	536.133	80.8124	536.133	79.3579	536.133	81.9158	536.133	80.3501	536.133	83.0609	536.133	82.1347	536.133	83.8243	536.133	83.4422	536.133	83.9913
555.176	88.5817	555.176	88.3232	555.176	88.6069	555.176	87.8298	555.176	88.4175	555.176	87.126	555.176	88.0382	555.176	86.2718	555.176	87.4838	555.176	85.3602	555.176	86.7495	555.176	84.4916	555.176	85.826	555.176	83.7233	555.176	84.7345	555.176	83.0308	555.176	83.5599	555.176	82.3254	555.176	82.4688	555.176	81.5294	555.176	81.6928	555.176	80.6616	555.176	81.3883	555.176	79.9132	555.176	81.4329	555.176	79.659	555.176	81.5243	555.176	80.179	555.176	81.539	555.176	81.2473	555.176	81.686	555.176	82.3343	555.176	82.1851	555.176	83.0424	555.176	82.8299	555.176	83.1992
574.219	88.7684	574.219	88.3517	574.219	88.966	574.219	87.7483	574.219	88.933	574.219	87.0146	574.219	88.6705	574.219	86.2246	574.219	88.186	574.219	85.4507	574.219	87.4904	574.219	84.7412	574.219	86.6008	574.219	84.104	574.219	85.5444	574.219	83.506	574.219	84.3601	574.219	82.8855	574.219	83.0965	574.219	82.172	574.219	81.8093	574.219	81.3346	574.219	80.5838	574.219	80.5105	574.219	79.6548	574.219	80.1431	574.219	79.5006	574.219	80.6701	574.219	80.34	574.219	81.8435	574.219	81.6684	574.219	83.0275	574.219	82.8941	574.219	83.8135	574.219	83.7279	574.219	84.052
594.727	88.3297	594.727	88.0454	594.727	88.3643	594.727	87.5274	594.727	88.1526	594.727	86.8092	594.727	87.7123	594.727	85.9415	594.727	87.0742	594.727	84.9948	594.727	86.2895	594.727	84.0491	594.727	85.4418	594.727	83.1627	594.727	84.6461	594.727	82.3517	594.727	84.0094	594.727	81.6171	594.727	83.5349	594.727	80.9885	594.727	83.0471	594.727	80.5152	594.727	82.2399	594.727	80.251	594.727	80.8419	594.727	80.3275	594.727	79.0841	594.727	80.9516	594.727	78.7008	594.727	82.0844	594.727	80.5782	594.727	83.3065	594.727	82.6625	594.727	84.1774	594.727	83.9703	594.727	84.4434
615.234	88.2579	615.234	87.8087	615.234	88.4017	615.234	87.1014	615.234	88.2235	615.234	86.2121	615.234	87.7408	615.234	85.2299	615.234	87.0112	615.234	84.2422	615.234	86.1164	615.234	83.3356	615.234	85.1192	615.234	82.5843	615.234	84.0633	615.234	81.9882	615.234	83.0355	615.234	81.4424	615.234	82.1942	615.234	80.8302	615.234	81.6949	615.234	80.1623	615.234	81.5354	615.234	79.6601	615.234	81.4653	615.234	79.6796	615.234	81.1574	615.234	80.3776	615.234	80.5864	615.234	81.4802	615.234	80.3577	615.234	82.5158	615.234	81.096	615.234	83.104	615.234	82.2602	615.234	83.0298
637.207	88.5402	637.207	88.0068	637.207	88.7251	637.207	87.1416	637.207	88.5982	637.207	86.0332	637.207	88.2297	637.207	84.8441	637.207	87.6733	637.207	83.7443	637.207	86.9091	637.207	82.8082	637.207	85.8804	637.207	82.0271	637.207	84.6225	637.207	81.4215	637.207	83.3284	637.207	80.9935	637.207	82.2336	637.207	80.5462	637.207	81.414	637.207	79.7749	637.207	80.776	637.207	78.6352	637.207	80.232	637.207	77.8576	637.207	79.7922	637.207	78.6367	637.207	79.6697	637.207	80.4791	637.207	80.298	637.207	82.1457	637.207	81.5896	637.207	83.1452	637.207	82.7911	637.207	83.3628
659.18	87.5022	659.18	87.0839	659.18	87.5636	659.18	86.3074	659.18	87.3087	659.18	85.2296	659.18	86.7917	659.18	83.983	659.18	86.056	659.18	82.7692	659.18	85.1493	659.18	81.7804	659.18	84.1627	659.18	81.051	659.18	83.2134	659.18	80.4384	659.18	82.3815	659.18	79.8264	659.18	81.6965	659.18	79.2139	659.18	81.1559	659.18	78.5607	659.18	80.6559	659.18	77.7732	659.18	79.937	659.18	77.1139	659.18	78.8511	659.18	77.4656	659.18	78.0334	659.18	79.024	659.18	78.725	659.18	80.7629	659.18	80.3925	659.18	81.929	659.18	81.7324	659.18	82.2697
682.617	86.8871	682.617	86.3043	682.617	87.0513	682.617	85.2926	682.617	86.8979	682.617	83.9356	682.617	86.5563	682.617	82.3987	682.617	86.0695	682.617	80.9251	682.617	85.3716	682.617	79.8096	682.617	84.4273	682.617	79.2124	682.617	83.3801	682.617	78.9644	682.617	82.5566	682.617	78.7421	682.617	82.1283	682.617	78.3045	682.617	81.7998	682.617	77.5804	682.617	81.25	682.617	76.8037	682.617	80.6176	682.617	76.7393	682.617	80.2263	682.617	78.0689	682.617	79.8978	682.617	80.1208	682.617	79.5587	682.617	81.8428	682.617	80.0714	682.617	82.7175	682.617	81.479	682.617	82.5721
707.52	87.5021	707.52	86.7191	707.52	88.018	707.52	85.5876	707.52	88.3057	707.52	84.1196	707.52	88.3032	707.52	82.4612	707.52	87.9368	707.52	80.773	707.52	87.2163	707.52	79.1573	707.52	86.2136	707.52	77.8452	707.52	84.9892	707.52	77.2073	707.52	83.6163	707.52	77.1092	707.52	82.3046	707.52	76.9058	707.52	81.3944	707.52	76.1705	707.52	80.9204	707.52	74.7557	707.52	80.4735	707.52	72.8324	707.52	79.9085	707.52	72.9229	707.52	79.6989	707.52	76.6689	707.52	80.3855	707.52	80.1573	707.52	81.6742	707.52	82.2417	707.52	82.7462	707.52	83.033
732.422	88.3821	732.422	87.4511	732.422	88.8803	732.422	86.1559	732.422	89.0012	732.422	84.6975	732.422	88.8683	732.422	83.3303	732.422	88.5664	732.422	82.1843	732.422	88.0776	732.422	81.2082	732.422	87.3686	732.422	80.2939	732.422	86.4722	732.422	79.4047	732.422	85.4322	732.422	78.6754	732.422	84.3253	732.422	78.2613	732.422	83.4861	732.422	77.9759	732.422	83.226	732.422	77.3477	732.422	83.0554	732.422	75.9641	732.422	82.4038	732.422	74.1866	732.422	81.6867	732.422	75.5447	732.422	81.8061	732.422	79.5418	732.422	82.6397	732.422	82.3656	732.422	83.4508	732.422	83.5502
757.324	88.3109	757.324	87.3726	757.324	89.0543	757.324	86.2795	757.324	89.5301	757.324	85.1848	757.324	89.6068	757.324	84.2318	757.324	89.2334	757.324	83.2754	757.324	88.4766	757.324	82.0069	757.324	87.4467	757.324	80.3154	757.324	86.3044	757.324	78.385	757.324	85.2778	757.324	76.689	757.324	84.4756	757.324	76.0422	757.324	83.8662	757.324	76.2794	757.324	83.6723	757.324	76.0949	757.324	83.9815	757.324	74.8902	757.324	84.0809	757.324	73.4843	757.324	83.4947	757.324	75.5088	757.324	82.8917	757.324	79.6821	757.324	83.2746	757.324	82.6677	757.324	84.0384	757.324	84.0367
785.156	87.7309	785.156	86.3736	785.156	88.7679	785.156	85.2661	785.156	89.2307	785.156	84.9323	785.156	89.0994	785.156	85.1647	785.156	88.477	785.156	85.2266	785.156	87.5839	785.156	84.6472	785.156	86.6947	785.156	83.4905	785.156	85.8371	785.156	82.1486	785.156	84.6594	785.156	81.0124	785.156	82.8928	785.156	80.3376	785.156	81.0235	785.156	80.149	785.156	79.9177	785.156	80.3191	785.156	80.4026	785.156	80.5235	785.156	82.5832	785.156	79.917	785.156	83.8668	785.156	78.2994	785.156	83.1551	785.156	78.598	785.156	81.8385	785.156	80.9574	785.156	82.0611	785.156	82.2402
811.523	87.2563	811.523	86.6027	811.523	87.8271	811.523	85.7791	811.523	88.3688	811.523	84.6589	811.523	88.8223	811.523	83.1585	811.523	89.0207	811.523	81.5239	811.523	88.8227	811.523	80.3625	811.523	88.1954	811.523	79.8667	811.523	87.2515	811.523	79.5664	811.523	86.2095	811.523	79.2212	811.523	85.3542	811.523	79.061	811.523	85.1177	811.523	78.916	811.523	85.3259	811.523	77.7085	811.523	84.7637	811.523	74.4105	811.523	82.3289	811.523	70.5007	811.523	78.6477	811.523	73.0807	811.523	80.2825	811.523	77.4615	811.523	83.3602	811.523	80.9408	811.523	84.2861	811.523	83.3327
840.82	85.7563	840.82	84.8571	840.82	86.4485	840.82	83.9898	840.82	86.7415	840.82	83.5764	840.82	86.523	840.82	83.8587	840.82	85.9736	840.82	84.2387	840.82	85.4912	840.82	83.9806	840.82	85.182	840.82	83.0099	840.82	84.891	840.82	81.8947	840.82	84.4067	840.82	81.2839	840.82	83.1371	840.82	81.2009	840.82	80.2727	840.82	81.4324	840.82	77.8433	840.82	82.1641	840.82	80.7977	840.82	82.6383	840.82	83.4129	840.82	81.3576	840.82	83.9778	840.82	77.9968	840.82	82.433	840.82	77.6948	840.82	79.6059	840.82	80.3411	840.82	79.4763	840.82	80.869
870.117	86.2404	870.117	87.2431	870.117	84.5524	870.117	87.4593	870.117	82.7259	870.117	86.9731	870.117	81.6285	870.117	85.906	870.117	81.5059	870.117	84.4479	870.117	81.6335	870.117	82.8959	870.117	81.5406	870.117	81.6032	870.117	81.3597	870.117	80.951	870.117	81.1681	870.117	81.094	870.117	80.9434	870.117	81.5321	870.117	80.6388	870.117	81.6867	870.117	79.8667	870.117	81.544	870.117	77.8116	870.117	81.0853	870.117	75.3349	870.117	79.8769	870.117	76.7834	870.117	77.8842	870.117	78.6901	870.117	76.413	870.117	79.4111	870.117	77.1027	870.117	79.4875	870.117	78.6724
900.879	87.4859	900.879	88.2494	900.879	85.893	900.879	88.1327	900.879	84.119	900.879	87.4731	900.879	82.9443	900.879	86.6418	900.879	82.4546	900.879	85.7666	900.879	82.291	900.879	84.9692	900.879	81.8022	900.879	84.4171	900.879	80.5262	900.879	83.8226	900.879	79.0904	900.879	82.8317	900.879	78.4866	900.879	82.0252	900.879	78.0844	900.879	82.3777	900.879	77.9254	900.879	82.9036	900.879	79.207	900.879	82.3994	900.879	79.6127	900.879	80.6687	900.879	77.0228	900.879	78.0909	900.879	72.7071	900.879	76.2316	900.879	76.6881	900.879	77.5181	900.879	79.4214	900.879	79.3727
933.105	87.235	933.105	87.8812	933.105	86.74	933.105	88.5036	933.105	85.897	933.105	88.5962	933.105	84.0756	933.105	87.841	933.105	80.7881	933.105	86.1867	933.105	75.7165	933.105	83.8915	933.105	70.2106	933.105	81.5757	933.105	69.2888	933.105	80.0294	933.105	71.5637	933.105	79.3438	933.105	71.5681	933.105	78.8622	933.105	69.7654	933.105	78.5685	933.105	71.7025	933.105	78.8814	933.105	72.9317	933.105	79.7509	933.105	72.4452	933.105	80.404	933.105	73.7327	933.105	79.8881	933.105	75.071	933.105	78.2028	933.105	75.2425	933.105	76.8662	933.105	75.9182	933.105	76.5406
965.332	88.3076	965.332	88.3251	965.332	87.3849	965.332	87.8821	965.332	85.5368	965.332	87.484	965.332	83.2389	965.332	87.0872	965.332	81.2563	965.332	86.1982	965.332	80.0725	965.332	84.5747	965.332	79.1478	965.332	82.5089	965.332	76.9251	965.332	80.8754	965.332	71.8107	965.332	80.5361	965.332	66.911	965.332	80.4824	965.332	70.204	965.332	79.9568	965.332	72.2184	965.332	79.6621	965.332	75.159	965.332	79.5055	965.332	76.832	965.332	78.9076	965.332	74.8305	965.332	78.3344	965.332	66.5624	965.332	78.144	965.332	69.4156	965.332	77.9314	965.332	75.2019	965.332	77.2223
1,000.49	87.8189	1,000.49	87.9064	1,000.49	86.6472	1,000.49	87.4369	1,000.49	84.5228	1,000.49	86.9854	1,000.49	82.8515	1,000.49	86.4846	1,000.49	82.2066	1,000.49	85.2521	1,000.49	80.9346	1,000.49	83.0298	1,000.49	78.3951	1,000.49	80.6956	1,000.49	75.8508	1,000.49	79.7506	1,000.49	75.035	1,000.49	79.5756	1,000.49	74.2739	1,000.49	78.9483	1,000.49	70.8173	1,000.49	78.742	1,000.49	61.7271	1,000.49	78.6807	1,000.49	61.8531	1,000.49	77.4192	1,000.49	68.3846	1,000.49	75.5562	1,000.49	71.8197	1,000.49	75.4891	1,000.49	70.0157	1,000.49	77.5195	1,000.49	64.33	1,000.49	79.3393	1,000.49	75.6191	1,000.49	79.2444
1,035.64	86.5222	1,035.64	87.6225	1,035.64	84.9993	1,035.64	87.6143	1,035.64	84.4279	1,035.64	86.5843	1,035.64	84.1008	1,035.64	85.0419	1,035.64	82.5747	1,035.64	83.5787	1,035.64	80.2203	1,035.64	82.0211	1,035.64	79.0238	1,035.64	79.6187	1,035.64	78.7155	1,035.64	75.6832	1,035.64	77.1885	1,035.64	70.821	1,035.64	74.6448	1,035.64	70.5772	1,035.64	73.4073	1,035.64	74.7172	1,035.64	72.463	1,035.64	77.0065	1,035.64	69.409	1,035.64	77.052	1,035.64	72.6922	1,035.64	76.651	1,035.64	74.7257	1,035.64	77.3069	1,035.64	72.7987	1,035.64	78.3542	1,035.64	72.0059	1,035.64	78.514	1,035.64	73.8509	1,035.64	76.7691
1,072.27	86.0192	1,072.27	86.4733	1,072.27	85.101	1,072.27	86.2656	1,072.27	84.2726	1,072.27	85.5067	1,072.27	83.6197	1,072.27	84.4147	1,072.27	82.9086	1,072.27	83.4824	1,072.27	81.9116	1,072.27	82.9358	1,072.27	79.7439	1,072.27	81.9997	1,072.27	75.9865	1,072.27	79.9323	1,072.27	73.0255	1,072.27	77.1133	1,072.27	72.5998	1,072.27	74.2835	1,072.27	72.2297	1,072.27	71.4372	1,072.27	73.8315	1,072.27	72.5681	1,072.27	75.4723	1,072.27	75.317	1,072.27	72.0772	1,072.27	76.1214	1,072.27	66.5145	1,072.27	77.3146	1,072.27	73.4698	1,072.27	78.5731	1,072.27	74.652	1,072.27	77.8235	1,072.27	73.4201	1,072.27	75.0284
1,108.89	85.1681	1,108.89	85.8209	1,108.89	85.185	1,108.89	86.2742	1,108.89	85.4529	1,108.89	85.9238	1,108.89	84.5176	1,108.89	84.6003	1,108.89	82.2815	1,108.89	82.5997	1,108.89	80.8747	1,108.89	80.5376	1,108.89	80.7434	1,108.89	78.8619	1,108.89	79.9943	1,108.89	78.2022	1,108.89	78.5658	1,108.89	78.8394	1,108.89	77.3564	1,108.89	78.5143	1,108.89	74.8656	1,108.89	76.2045	1,108.89	69.1964	1,108.89	75.2743	1,108.89	68.9082	1,108.89	76.7123	1,108.89	73.5162	1,108.89	76.5233	1,108.89	75.6785	1,108.89	74.6841	1,108.89	72.5927	1,108.89	73.6219	1,108.89	72.8278	1,108.89	74.601	1,108.89	76.694	1,108.89	76.1595
1,148.44	85.7376	1,148.44	86.6635	1,148.44	84.4637	1,148.44	86.1285	1,148.44	84.4451	1,148.44	84.4997	1,148.44	84.3887	1,148.44	83.3612	1,148.44	83.3218	1,148.44	82.8454	1,148.44	82.1756	1,148.44	82.0935	1,148.44	81.2325	1,148.44	81.1331	1,148.44	79.1372	1,148.44	78.6933	1,148.44	75.4651	1,148.44	73.56	1,148.44	72.5206	1,148.44	71.1384	1,148.44	73.3923	1,148.44	72.3094	1,148.44	74.6747	1,148.44	72.5729	1,148.44	75.9014	1,148.44	73.1239	1,148.44	75.2682	1,148.44	73.0548	1,148.44	72.2068	1,148.44	72.5675	1,148.44	75.1668	1,148.44	74.4296	1,148.44	73.916	1,148.44	76.1032	1,148.44	71.365	1,148.44	75.2885
1,189.45	85.7304	1,189.45	85.7608	1,189.45	86.0181	1,189.45	85.9372	1,189.45	85.477	1,189.45	85.3555	1,189.45	83.8189	1,189.45	83.6699	1,189.45	83.0587	1,189.45	81.2848	1,189.45	83.2497	1,189.45	78.8945	1,189.45	82.4198	1,189.45	76.4946	1,189.45	80.1905	1,189.45	75.1809	1,189.45	77.7915	1,189.45	74.6324	1,189.45	76.5595	1,189.45	74.0085	1,189.45	74.2647	1,189.45	74.5377	1,189.45	71.5251	1,189.45	74.8461	1,189.45	69.7676	1,189.45	74.0219	1,189.45	64.2439	1,189.45	72.8141	1,189.45	73.7883	1,189.45	72.6094	1,189.45	73.2582	1,189.45	73.7914	1,189.45	69.5248	1,189.45	74.8643	1,189.45	73.5912	1,189.45	74.905
1,230.47	86.5148	1,230.47	86.2903	1,230.47	86.8037	1,230.47	86.0222	1,230.47	86.2071	1,230.47	85.0583	1,230.47	84.3364	1,230.47	83.067	1,230.47	82.5482	1,230.47	80.6998	1,230.47	82.0764	1,230.47	79.5696	1,230.47	82.2848	1,230.47	79.5746	1,230.47	81.6837	1,230.47	77.9335	1,230.47	79.2292	1,230.47	72.693	1,230.47	74.5828	1,230.47	68.4883	1,230.47	67.3743	1,230.47	72.2071	1,230.47	63.8706	1,230.47	74.7082	1,230.47	71.6261	1,230.47	76.0146	1,230.47	76.2212	1,230.47	76.6865	1,230.47	75.294	1,230.47	74.6622	1,230.47	69.6977	1,230.47	73.8419	1,230.47	74.3743	1,230.47	74.8864	1,230.47	76.3164	1,230.47	75.2001
1,274.41	86.8922	1,274.41	86.2459	1,274.41	87.6105	1,274.41	85.9772	1,274.41	86.8729	1,274.41	84.5047	1,274.41	85.0507	1,274.41	81.432	1,274.41	84.0982	1,274.41	78.9561	1,274.41	82.9306	1,274.41	78.1763	1,274.41	80.7385	1,274.41	76.503	1,274.41	79.3943	1,274.41	73.509	1,274.41	79.0102	1,274.41	71.0009	1,274.41	76.9453	1,274.41	71.2253	1,274.41	73.7076	1,274.41	70.9291	1,274.41	70.6448	1,274.41	74.2772	1,274.41	70.4123	1,274.41	74.3763	1,274.41	69.0651	1,274.41	71.6045	1,274.41	66.7223	1,274.41	69.0089	1,274.41	74.1145	1,274.41	71.8946	1,274.41	75.3865	1,274.41	75.4794	1,274.41	74.8933	1,274.41	75.6167
1,319.82	87.7444	1,319.82	86.5473	1,319.82	88.2354	1,319.82	85.1215	1,319.82	87.3452	1,319.82	83.0108	1,319.82	86.4397	1,319.82	80.2608	1,319.82	85.8667	1,319.82	78.1212	1,319.82	83.4428	1,319.82	74.919	1,319.82	79.6507	1,319.82	56.7703	1,319.82	77.9614	1,319.82	67.4277	1,319.82	78.6376	1,319.82	57.5138	1,319.82	78.4792	1,319.82	68.8102	1,319.82	77.3278	1,319.82	71.1906	1,319.82	74.7737	1,319.82	74.8972	1,319.82	67.4637	1,319.82	76.8295	1,319.82	67.3718	1,319.82	75.8111	1,319.82	76.761	1,319.82	71.0338	1,319.82	76.9622	1,319.82	70.8877	1,319.82	73.9783	1,319.82	75.6833	1,319.82	77.0568	1,319.82	77.3018
1,366.7	87.5452	1,366.7	86.1104	1,366.7	87.8281	1,366.7	84.4811	1,366.7	87.4093	1,366.7	82.6585	1,366.7	87.4371	1,366.7	80.6484	1,366.7	86.405	1,366.7	79.0793	1,366.7	84.1417	1,366.7	77.3955	1,366.7	82.7524	1,366.7	75.0479	1,366.7	82.0112	1,366.7	73.1608	1,366.7	81.7286	1,366.7	66.8724	1,366.7	80.4012	1,366.7	70.6913	1,366.7	77.6882	1,366.7	69.5231	1,366.7	75.8409	1,366.7	69.8236	1,366.7	73.2988	1,366.7	76.2212	1,366.7	71.9261	1,366.7	76.7766	1,366.7	73.6402	1,366.7	72.5372	1,366.7	75.4882	1,366.7	67.9455	1,366.7	77.5567	1,366.7	75.5362	1,366.7	78.1645	1,366.7	77.124
1,413.57	87.3421	1,413.57	86.1294	1,413.57	86.9831	1,413.57	83.2695	1,413.57	86.9936	1,413.57	81.4165	1,413.57	87.8301	1,413.57	81.9717	1,413.57	86.5299	1,413.57	80.5607	1,413.57	83.3947	1,413.57	76.9142	1,413.57	82.4968	1,413.57	77.5458	1,413.57	82.405	1,413.57	77.8468	1,413.57	81.7674	1,413.57	73.4233	1,413.57	80.1769	1,413.57	70.9998	1,413.57	77.187	1,413.57	67.0868	1,413.57	74.2249	1,413.57	63.4888	1,413.57	74.6816	1,413.57	60.0678	1,413.57	71.2556	1,413.57	73.3742	1,413.57	74.6404	1,413.57	76.3026	1,413.57	74.9953	1,413.57	69.9468	1,413.57	75.5343	1,413.57	70.1478	1,413.57	76.8388	1,413.57	73.1202
1,463.38	86.4805	1,463.38	85.1443	1,463.38	86.96	1,463.38	83.0997	1,463.38	87.2673	1,463.38	82.0022	1,463.38	87.1519	1,463.38	81.3158	1,463.38	85.6371	1,463.38	77.6004	1,463.38	84.3607	1,463.38	74.4826	1,463.38	82.5697	1,463.38	78.9657	1,463.38	78.9576	1,463.38	80.3479	1,463.38	77.1406	1,463.38	77.2761	1,463.38	76.0434	1,463.38	73.9784	1,463.38	74.6852	1,463.38	69.6172	1,463.38	73.6005	1,463.38	62.7389	1,463.38	71.6278	1,463.38	55.3875	1,463.38	71.1743	1,463.38	73.6502	1,463.38	75.6844	1,463.38	76.3941	1,463.38	75.3164	1,463.38	66.8392	1,463.38	75.685	1,463.38	62.4901	1,463.38	75.6626	1,463.38	69.5984
1,516.11	84.4111	1,516.11	83.068	1,516.11	86.075	1,516.11	81.9459	1,516.11	87.3563	1,516.11	80.6963	1,516.11	86.6888	1,516.11	78.5257	1,516.11	84.9055	1,516.11	76.5427	1,516.11	84.2019	1,516.11	77.2615	1,516.11	82.0619	1,516.11	78.48	1,516.11	79.1135	1,516.11	78.1389	1,516.11	75.8379	1,516.11	74.2947	1,516.11	73.7595	1,516.11	73.0772	1,516.11	72.2213	1,516.11	71.3427	1,516.11	69.9167	1,516.11	71.0672	1,516.11	71.6603	1,516.11	70.3686	1,516.11	71.9715	1,516.11	71.8824	1,516.11	75.2802	1,516.11	74.7134	1,516.11	77.176	1,516.11	68.0162	1,516.11	74.3927	1,516.11	63.9853	1,516.11	75.2116	1,516.11	70.9027
1,568.85	83.0746	1,568.85	81.0691	1,568.85	84.6642	1,568.85	78.9126	1,568.85	85.8678	1,568.85	77.8135	1,568.85	85.6726	1,568.85	77.0547	1,568.85	84.2737	1,568.85	76.9766	1,568.85	82.6884	1,568.85	76.8475	1,568.85	80.6161	1,568.85	72.692	1,568.85	78.7493	1,568.85	67.409	1,568.85	76.4001	1,568.85	60.5324	1,568.85	73.4258	1,568.85	38.8241	1,568.85	71.8194	1,568.85	65.5956	1,568.85	71.8593	1,568.85	73.1845	1,568.85	73.5963	1,568.85	73.6202	1,568.85	71.8279	1,568.85	65.7533	1,568.85	66.8896	1,568.85	69.6187	1,568.85	75.4627	1,568.85	66.7373	1,568.85	73.7259	1,568.85	58.8509	1,568.85	68.7178	1,568.85	64.5864
1,624.51	82.367	1,624.51	80.7637	1,624.51	84.3575	1,624.51	79.222	1,624.51	84.6779	1,624.51	75.5042	1,624.51	83.1679	1,624.51	72.3911	1,624.51	82.0005	1,624.51	72.1969	1,624.51	78.7965	1,624.51	73.87	1,624.51	73.8277	1,624.51	75.7132	1,624.51	73.6924	1,624.51	74.872	1,624.51	73.4758	1,624.51	72.9055	1,624.51	72.221	1,624.51	67.2488	1,624.51	67.0242	1,624.51	56.0798	1,624.51	65.018	1,624.51	66.0546	1,624.51	70.5335	1,624.51	72.8958	1,624.51	70.3557	1,624.51	69.4081	1,624.51	59.934	1,624.51	64.7122	1,624.51	73.028	1,624.51	60.8606	1,624.51	71.908	1,624.51	63.6182	1,624.51	66.2174	1,624.51	63.8529
1,681.64	83.8754	1,681.64	82.2243	1,681.64	83.7892	1,681.64	79.2647	1,681.64	82.7073	1,681.64	77.0791	1,681.64	82.2781	1,681.64	73.7994	1,681.64	81.5185	1,681.64	72.4462	1,681.64	77.7305	1,681.64	73.5021	1,681.64	74.0149	1,681.64	68.8361	1,681.64	71.1234	1,681.64	69.1424	1,681.64	67.6826	1,681.64	69.3055	1,681.64	65.6124	1,681.64	68.6298	1,681.64	59.8393	1,681.64	69.8618	1,681.64	59.9179	1,681.64	68.5407	1,681.64	65.8537	1,681.64	69.2149	1,681.64	66.9296	1,681.64	67.8672	1,681.64	66.3683	1,681.64	66.0448	1,681.64	67.9393	1,681.64	61.8529	1,681.64	71.069	1,681.64	54.2477	1,681.64	70.7739	1,681.64	64.5873
1,741.7	85.1383	1,741.7	83.5572	1,741.7	84.585	1,741.7	79.6813	1,741.7	82.3867	1,741.7	73.5823	1,741.7	79.5087	1,741.7	67.0727	1,741.7	76.4658	1,741.7	66.1996	1,741.7	74.1581	1,741.7	68.7591	1,741.7	71.6386	1,741.7	67.344	1,741.7	66.5827	1,741.7	64.7923	1,741.7	67.3348	1,741.7	67.5221	1,741.7	70.1712	1,741.7	68.3599	1,741.7	69.8094	1,741.7	64.3997	1,741.7	67.5006	1,741.7	64.4852	1,741.7	62.2484	1,741.7	68.4758	1,741.7	60.4317	1,741.7	66.7204	1,741.7	52.0929	1,741.7	60.6511	1,741.7	65.8807	1,741.7	57.118	1,741.7	69.9333	1,741.7	62.7865	1,741.7	66.6337	1,741.7	63.4089
1,803.22	84.0972	1,803.22	82.9534	1,803.22	84.1174	1,803.22	79.4015	1,803.22	82.6621	1,803.22	72.781	1,803.22	78.403	1,803.22	65.2176	1,803.22	71.4304	1,803.22	62.3369	1,803.22	68.9337	1,803.22	62.5944	1,803.22	68.8323	1,803.22	60.8239	1,803.22	67.5624	1,803.22	63.9585	1,803.22	63.0275	1,803.22	65.017	1,803.22	64.9053	1,803.22	66.9144	1,803.22	68.2901	1,803.22	63.3922	1,803.22	66.7907	1,803.22	65.2446	1,803.22	63.5832	1,803.22	66.1971	1,803.22	60.9825	1,803.22	58.6837	1,803.22	56.7835	1,803.22	54.884	1,803.22	49.9032	1,803.22	59.4017	1,803.22	64.5845	1,803.22	64.3047	1,803.22	69.7841	1,803.22	68.9715
1,866.21	83.0132	1,866.21	82.3692	1,866.21	82.802	1,866.21	79.8356	1,866.21	81.5802	1,866.21	75.9566	1,866.21	77.7922	1,866.21	70.7427	1,866.21	71.8797	1,866.21	60.3443	1,866.21	70.3319	1,866.21	60.6496	1,866.21	71.6075	1,866.21	58.8124	1,866.21	71.5423	1,866.21	64.0803	1,866.21	68.727	1,866.21	65.8851	1,866.21	65.7572	1,866.21	65.0264	1,866.21	65.9972	1,866.21	66.5812	1,866.21	66.0955	1,866.21	62.7905	1,866.21	62.0555	1,866.21	65.9297	1,866.21	61.8293	1,866.21	60.7523	1,866.21	58.0599	1,866.21	54.1393	1,866.21	52.069	1,866.21	57.0183	1,866.21	65.3136	1,866.21	63.2711	1,866.21	69.286	1,866.21	66.8316
1,932.13	83.0309	1,932.13	82.505	1,932.13	82.028	1,932.13	80.9714	1,932.13	79.7595	1,932.13	79.0183	1,932.13	76.6207	1,932.13	71.7777	1,932.13	74.2154	1,932.13	63.4386	1,932.13	73.1858	1,932.13	60.8869	1,932.13	73.2359	1,932.13	67.4629	1,932.13	73.9291	1,932.13	66.1389	1,932.13	70.6142	1,932.13	62.1708	1,932.13	68.7666	1,932.13	65.5604	1,932.13	67.2964	1,932.13	66.6019	1,932.13	65.5287	1,932.13	64.4902	1,932.13	63.9997	1,932.13	66.6145	1,932.13	60.0786	1,932.13	65.8955	1,932.13	59.6045	1,932.13	51.7766	1,932.13	48.169	1,932.13	53.6569	1,932.13	65.5966	1,932.13	63.0092	1,932.13	70.1325	1,932.13	67.9288
1,999.51	84.2374	1,999.51	83.3693	1,999.51	82.446	1,999.51	81.9301	1,999.51	78.0012	1,999.51	79.4648	1,999.51	74.5569	1,999.51	71.7215	1,999.51	75.6358	1,999.51	69.5662	1,999.51	76.4	1,999.51	67.8353	1,999.51	76.8036	1,999.51	71.0212	1,999.51	75.2684	1,999.51	69.612	1,999.51	73.3966	1,999.51	66.1389	1,999.51	68.9536	1,999.51	66.1847	1,999.51	63.3286	1,999.51	68.8099	1,999.51	65.2045	1,999.51	66.4451	1,999.51	65.8903	1,999.51	65.9265	1,999.51	59.4004	1,999.51	66.637	1,999.51	56.4956	1,999.51	55.5949	1,999.51	54.3074	1,999.51	57.1666	1,999.51	63.727	1,999.51	61.7148	1,999.51	70.0874	1,999.51	67.3424
2,069.82	85.0572	2,069.82	83.9655	2,069.82	83.5844	2,069.82	81.7948	2,069.82	76.9051	2,069.82	76.3309	2,069.82	71.9006	2,069.82	73.1572	2,069.82	77.015	2,069.82	72.5867	2,069.82	79.0031	2,069.82	70.5699	2,069.82	78.5681	2,069.82	68.066	2,069.82	76.5382	2,069.82	69.6295	2,069.82	75.4885	2,069.82	70.8868	2,069.82	73.1584	2,069.82	67.0324	2,069.82	67.4206	2,069.82	63.0915	2,069.82	62.1829	2,069.82	69.7681	2,069.82	64.3384	2,069.82	62.7907	2,069.82	60.0262	2,069.82	67.6839	2,069.82	54.3366	2,069.82	61.0308	2,069.82	53.1479	2,069.82	59.8732	2,069.82	64.6315	2,069.82	59.398	2,069.82	70.8703	2,069.82	67.1327
2,143.07	84.6843	2,143.07	84.5542	2,143.07	83.932	2,143.07	81.6697	2,143.07	78.2378	2,143.07	76.5295	2,143.07	71.8244	2,143.07	74.394	2,143.07	78.398	2,143.07	72.616	2,143.07	79.5372	2,143.07	68.8209	2,143.07	78.8928	2,143.07	72.3843	2,143.07	76.6939	2,143.07	69.4948	2,143.07	76.316	2,143.07	59.7453	2,143.07	74.0977	2,143.07	68.6875	2,143.07	71.2462	2,143.07	64.7635	2,143.07	66.6847	2,143.07	66.5137	2,143.07	63.165	2,143.07	66.3723	2,143.07	63.7477	2,143.07	64.722	2,143.07	56.2535	2,143.07	65.677	2,143.07	54.8882	2,143.07	60.3737	2,143.07	64.5544	2,143.07	65.0367	2,143.07	70.9436	2,143.07	68.1476
2,219.24	83.6629	2,219.24	84.0917	2,219.24	83.1946	2,219.24	82.4294	2,219.24	79.3581	2,219.24	79.886	2,219.24	69.3672	2,219.24	74.472	2,219.24	77.8538	2,219.24	68.7104	2,219.24	79.7768	2,219.24	71.6157	2,219.24	79.7165	2,219.24	71.6583	2,219.24	75.9934	2,219.24	72.2538	2,219.24	71.5156	2,219.24	72.3981	2,219.24	73.4986	2,219.24	70.6786	2,219.24	73.6469	2,219.24	68.6291	2,219.24	71.0847	2,219.24	65.7804	2,219.24	65.9997	2,219.24	66.8369	2,219.24	69.9084	2,219.24	64.1924	2,219.24	65.5323	2,219.24	66.7188	2,219.24	58.022	2,219.24	56.4473	2,219.24	65.8461	2,219.24	64.3742	2,219.24	69.9129	2,219.24	65.5934
2,296.88	82.9641	2,296.88	83.1438	2,296.88	81.7422	2,296.88	82.6243	2,296.88	78.5463	2,296.88	81.1257	2,296.88	73.8375	2,296.88	74.1009	2,296.88	78.5084	2,296.88	72.8344	2,296.88	80.4097	2,296.88	73.4752	2,296.88	79.712	2,296.88	75.6642	2,296.88	76.5727	2,296.88	73.8762	2,296.88	71.8494	2,296.88	71.3741	2,296.88	70.9648	2,296.88	70.0837	2,296.88	71.0049	2,296.88	69.1294	2,296.88	71.2074	2,296.88	64.5429	2,296.88	67.8597	2,296.88	69.4695	2,296.88	70.7716	2,296.88	65.6786	2,296.88	66.9461	2,296.88	67.0273	2,296.88	64.7712	2,296.88	59.717	2,296.88	65.2009	2,296.88	66.8494	2,296.88	67.6273	2,296.88	64.6739
2,378.91	83.9283	2,378.91	83.9519	2,378.91	81.9106	2,378.91	83.1134	2,378.91	77.9083	2,378.91	80.0656	2,378.91	76.0976	2,378.91	77.6807	2,378.91	79.9861	2,378.91	75.9215	2,378.91	81.0928	2,378.91	75.214	2,378.91	80.1851	2,378.91	73.4521	2,378.91	78.5882	2,378.91	73.9408	2,378.91	75.0528	2,378.91	73.7859	2,378.91	74.3138	2,378.91	67.2955	2,378.91	71.7643	2,378.91	70.4398	2,378.91	69.1407	2,378.91	69.7881	2,378.91	66.7186	2,378.91	68.5636	2,378.91	69.8911	2,378.91	67.5272	2,378.91	67.884	2,378.91	67.0146	2,378.91	63.8081	2,378.91	60.0419	2,378.91	61.2984	2,378.91	67.2079	2,378.91	68.5048	2,378.91	66.4275
2,462.4	85.5501	2,462.4	85.9496	2,462.4	83.8275	2,462.4	83.7089	2,462.4	79.8764	2,462.4	79.4983	2,462.4	76.602	2,462.4	78.6531	2,462.4	80.7614	2,462.4	77.8763	2,462.4	81.2959	2,462.4	77.1084	2,462.4	80.3773	2,462.4	76.93	2,462.4	77.6069	2,462.4	75.335	2,462.4	73.0162	2,462.4	67.2207	2,462.4	73.3305	2,462.4	71.0667	2,462.4	71.1604	2,462.4	69.2731	2,462.4	72.1256	2,462.4	69.826	2,462.4	68.1694	2,462.4	67.6518	2,462.4	70.9027	2,462.4	69.4154	2,462.4	68.023	2,462.4	66.1131	2,462.4	63.5985	2,462.4	63.3344	2,462.4	60.6473	2,462.4	67.5381	2,462.4	69.2418	2,462.4	68.0456
2,548.83	85.8658	2,548.83	86.7094	2,548.83	83.9821	2,548.83	83.8728	2,548.83	81.1852	2,548.83	80.2904	2,548.83	79.4778	2,548.83	78.9905	2,548.83	80.7406	2,548.83	80.8451	2,548.83	80.5359	2,548.83	79.3528	2,548.83	78.8158	2,548.83	77.4733	2,548.83	75.2944	2,548.83	75.9597	2,548.83	74.853	2,548.83	73.8597	2,548.83	74.9292	2,548.83	70.8933	2,548.83	69.8005	2,548.83	67.232	2,548.83	69.6162	2,548.83	70.198	2,548.83	70.0886	2,548.83	68.6488	2,548.83	68.6376	2,548.83	69.0079	2,548.83	67.4196	2,548.83	64.4118	2,548.83	63.717	2,548.83	66.2483	2,548.83	63.0849	2,548.83	69.6836	2,548.83	71.3096	2,548.83	67.6178
2,639.65	86.277	2,639.65	85.6519	2,639.65	84.1386	2,639.65	84.0482	2,639.65	81.1947	2,639.65	83.1148	2,639.65	81.0841	2,639.65	82.382	2,639.65	82.485	2,639.65	81.199	2,639.65	82.624	2,639.65	78.3638	2,639.65	80.5923	2,639.65	75.4379	2,639.65	75.1799	2,639.65	71.0021	2,639.65	71.5705	2,639.65	71.6021	2,639.65	72.1504	2,639.65	66.7689	2,639.65	67.5027	2,639.65	69.4494	2,639.65	50.2085	2,639.65	67.284	2,639.65	64.5658	2,639.65	68.5445	2,639.65	65.9898	2,639.65	69.1837	2,639.65	64.7716	2,639.65	66.6587	2,639.65	60.4667	2,639.65	60.3891	2,639.65	67.5649	2,639.65	67.1883	2,639.65	69.8867	2,639.65	68.0792
2,731.93	85.7027	2,731.93	84.7654	2,731.93	84.5119	2,731.93	84.7026	2,731.93	82.7063	2,731.93	83.577	2,731.93	82.1062	2,731.93	82.1692	2,731.93	83.2484	2,731.93	79.2762	2,731.93	83.4904	2,731.93	77.8805	2,731.93	80.844	2,731.93	74.7367	2,731.93	76.6757	2,731.93	74.299	2,731.93	73.834	2,731.93	72.4747	2,731.93	68.682	2,731.93	70.493	2,731.93	53.6133	2,731.93	69.0843	2,731.93	59.4127	2,731.93	69.1236	2,731.93	64.6153	2,731.93	68.957	2,731.93	68.3006	2,731.93	69.3464	2,731.93	67.0052	2,731.93	68.2249	2,731.93	65.2782	2,731.93	63.029	2,731.93	68.4175	2,731.93	65.2138	2,731.93	68.816	2,731.93	66.9461
2,828.61	85.5091	2,828.61	85.7064	2,828.61	85.0242	2,828.61	85.0063	2,828.61	83.1698	2,828.61	83.8445	2,828.61	82.8003	2,828.61	82.3876	2,828.61	83.516	2,828.61	80.213	2,828.61	83.0528	2,828.61	77.4809	2,828.61	81.0202	2,828.61	75.6238	2,828.61	78.2406	2,828.61	74.8043	2,828.61	75.5429	2,828.61	73.7479	2,828.61	62.3865	2,828.61	69.1694	2,828.61	66.1009	2,828.61	69.6592	2,828.61	60.0414	2,828.61	67.0662	2,828.61	66.4736	2,828.61	66.957	2,828.61	66.4459	2,828.61	68.9036	2,828.61	66.3846	2,828.61	69.1335	2,828.61	65.0471	2,828.61	63.9723	2,828.61	67.0612	2,828.61	66.1612	2,828.61	70.3542	2,828.61	70.6417
2,928.22	85.9092	2,928.22	87.1338	2,928.22	85.9078	2,928.22	86.4641	2,928.22	84.1943	2,928.22	84.9864	2,928.22	82.5077	2,928.22	82.8087	2,928.22	83.1934	2,928.22	80.8598	2,928.22	83.3635	2,928.22	78.0784	2,928.22	81.159	2,928.22	78.0339	2,928.22	79.0693	2,928.22	74.4117	2,928.22	74.5972	2,928.22	71.6074	2,928.22	64.7681	2,928.22	68.9176	2,928.22	71.7631	2,928.22	69.4174	2,928.22	68.9656	2,928.22	67.3313	2,928.22	63.3357	2,928.22	67.3648	2,928.22	66.0408	2,928.22	68.7169	2,928.22	66.5409	2,928.22	68.0527	2,928.22	62.8508	2,928.22	66.0702	2,928.22	68.4361	2,928.22	66.8091	2,928.22	71.6051	2,928.22	70.6459
3,030.76	86.1323	3,030.76	87.377	3,030.76	85.6018	3,030.76	86.9796	3,030.76	85.0379	3,030.76	85.4767	3,030.76	82.1166	3,030.76	82.5078	3,030.76	82.6467	3,030.76	80.0793	3,030.76	82.8582	3,030.76	78.7851	3,030.76	80.3546	3,030.76	77.481	3,030.76	78.8141	3,030.76	74.5023	3,030.76	72.8565	3,030.76	74.5866	3,030.76	72.6549	3,030.76	70.703	3,030.76	74.2171	3,030.76	70.539	3,030.76	58.6898	3,030.76	67.9354	3,030.76	57.5851	3,030.76	68.7767	3,030.76	64.9854	3,030.76	68.2384	3,030.76	66.2882	3,030.76	66.6464	3,030.76	60.4957	3,030.76	68.5089	3,030.76	68.7278	3,030.76	65.7727	3,030.76	72.804	3,030.76	71.1736
3,137.7	86.3766	3,137.7	87.4218	3,137.7	85.5509	3,137.7	87.306	3,137.7	85.9459	3,137.7	86.3738	3,137.7	83.8953	3,137.7	83.2491	3,137.7	82.4045	3,137.7	80.6121	3,137.7	82.0854	3,137.7	78.4746	3,137.7	79.853	3,137.7	76.73	3,137.7	79.3941	3,137.7	77.4415	3,137.7	72.9307	3,137.7	73.9721	3,137.7	72.6783	3,137.7	68.627	3,137.7	73.5803	3,137.7	70.0321	3,137.7	65.827	3,137.7	69.5628	3,137.7	55.3627	3,137.7	68.1199	3,137.7	64.6681	3,137.7	69.7704	3,137.7	63.1647	3,137.7	67.3728	3,137.7	59.8706	3,137.7	67.7135	3,137.7	69.2421	3,137.7	62.4905	3,137.7	72.8922	3,137.7	71.0305
3,249.02	86.7061	3,249.02	86.2365	3,249.02	85.1066	3,249.02	87.1287	3,249.02	86.1742	3,249.02	86.3384	3,249.02	85.7514	3,249.02	83.0698	3,249.02	82.3316	3,249.02	80.4938	3,249.02	81.0251	3,249.02	80.3291	3,249.02	81.2199	3,249.02	79.2683	3,249.02	80.2891	3,249.02	75.8424	3,249.02	76.5611	3,249.02	70.9394	3,249.02	73.0573	3,249.02	69.0429	3,249.02	72.0969	3,249.02	69.4065	3,249.02	65.5454	3,249.02	70.3605	3,249.02	64.4592	3,249.02	68.6138	3,249.02	64.3214	3,249.02	69.3299	3,249.02	66.5292	3,249.02	67.3349	3,249.02	63.1189	3,249.02	67.9603	3,249.02	70.6784	3,249.02	60.6391	3,249.02	72.8866	3,249.02	69.668
3,363.28	86.4547	3,363.28	86.5505	3,363.28	85.9504	3,363.28	87.3173	3,363.28	85.6161	3,363.28	84.6535	3,363.28	84.4183	3,363.28	82.9898	3,363.28	83.0061	3,363.28	82.1223	3,363.28	79.6888	3,363.28	79.2589	3,363.28	82.3591	3,363.28	77.3965	3,363.28	79.8731	3,363.28	74.5421	3,363.28	77.7563	3,363.28	74.0214	3,363.28	74.5524	3,363.28	69.5584	3,363.28	71.5448	3,363.28	67.3314	3,363.28	67.6358	3,363.28	68.2988	3,363.28	65.1611	3,363.28	68.5733	3,363.28	59.1261	3,363.28	68.2764	3,363.28	67.0726	3,363.28	68.7076	3,363.28	66.465	3,363.28	62.3136	3,363.28	72.3802	3,363.28	61.4999	3,363.28	72.5337	3,363.28	69.6369
3,481.93	84.904	3,481.93	86.9475	3,481.93	85.7193	3,481.93	87.4963	3,481.93	86.0323	3,481.93	83.3518	3,481.93	84.0227	3,481.93	82.8464	3,481.93	81.5835	3,481.93	82.3194	3,481.93	80.255	3,481.93	78.8935	3,481.93	82.5549	3,481.93	75.6344	3,481.93	78.3539	3,481.93	75.7689	3,481.93	76.1067	3,481.93	69.5905	3,481.93	70.8219	3,481.93	68.3296	3,481.93	71.2065	3,481.93	65.8845	3,481.93	69.8562	3,481.93	65.7216	3,481.93	62.5609	3,481.93	67.9878	3,481.93	49.9022	3,481.93	68.4241	3,481.93	67.0068	3,481.93	70.0358	3,481.93	66.1335	3,481.93	55.4953	3,481.93	71.7311	3,481.93	63.0522	3,481.93	71.8146	3,481.93	69.5597
3,604.98	84.9321	3,604.98	86.9441	3,604.98	84.3243	3,604.98	86.0391	3,604.98	84.9804	3,604.98	84.1503	3,604.98	83.6297	3,604.98	81.4453	3,604.98	78.1852	3,604.98	80.9167	3,604.98	82.6586	3,604.98	78.2922	3,604.98	82.5687	3,604.98	76.8345	3,604.98	78.69	3,604.98	74.0886	3,604.98	72.761	3,604.98	70.1868	3,604.98	64.6435	3,604.98	68.4036	3,604.98	68.9898	3,604.98	65.1799	3,604.98	70.2373	3,604.98	68.4766	3,604.98	59.45	3,604.98	64.3312	3,604.98	56.3917	3,604.98	65.3705	3,604.98	66.9961	3,604.98	68.9767	3,604.98	67.0796	3,604.98	61.2668	3,604.98	71.0198	3,604.98	63.1814	3,604.98	72.9036	3,604.98	70.2677
3,732.42	85.8241	3,732.42	87.2461	3,732.42	85.5561	3,732.42	85.8028	3,732.42	84.2463	3,732.42	84.0511	3,732.42	83.2881	3,732.42	82.5029	3,732.42	79.3382	3,732.42	79.2102	3,732.42	81.1872	3,732.42	78.6911	3,732.42	81.7409	3,732.42	74.5975	3,732.42	77.5829	3,732.42	74.5149	3,732.42	73.776	3,732.42	70.742	3,732.42	64.4899	3,732.42	66.7617	3,732.42	67.4379	3,732.42	64.3728	3,732.42	66.242	3,732.42	66.1198	3,732.42	60.0053	3,732.42	66.5189	3,732.42	59.794	3,732.42	66.9973	3,732.42	61.4788	3,732.42	62.5781	3,732.42	63.7192	3,732.42	61.4217	3,732.42	70.6446	3,732.42	56.816	3,732.42	72.3837	3,732.42	68.1199
3,864.26	84.8723	3,864.26	86.6398	3,864.26	85.7638	3,864.26	85.4702	3,864.26	86.3394	3,864.26	83.9085	3,864.26	83.7799	3,864.26	82.1019	3,864.26	81.0172	3,864.26	80.9539	3,864.26	82.0483	3,864.26	78.3906	3,864.26	80.9816	3,864.26	76.9216	3,864.26	78.3691	3,864.26	74.265	3,864.26	71.3834	3,864.26	68.2499	3,864.26	62.7919	3,864.26	68.0624	3,864.26	67.0901	3,864.26	64.5423	3,864.26	62.6921	3,864.26	68.3565	3,864.26	63.7774	3,864.26	66.1315	3,864.26	58.7187	3,864.26	67.2674	3,864.26	62.0255	3,864.26	66.4561	3,864.26	63.1015	3,864.26	63.0079	3,864.26	69.906	3,864.26	52.4044	3,864.26	70.504	3,864.26	64.8231
4,000.49	85.2023	4,000.49	86.0787	4,000.49	84.5297	4,000.49	85.1873	4,000.49	86.1558	4,000.49	84.4436	4,000.49	84.569	4,000.49	83.019	4,000.49	80.7072	4,000.49	79.7191	4,000.49	81.627	4,000.49	77.3428	4,000.49	80.6767	4,000.49	75.5109	4,000.49	76.8558	4,000.49	71.4289	4,000.49	74.0748	4,000.49	70.5505	4,000.49	70.9885	4,000.49	67.6692	4,000.49	69.2657	4,000.49	61.5255	4,000.49	71.1104	4,000.49	66.2373	4,000.49	58.6535	4,000.49	63.9112	4,000.49	59.5378	4,000.49	66.0636	4,000.49	59.5273	4,000.49	65.6323	4,000.49	59.2787	4,000.49	60.2724	4,000.49	67.309	4,000.49	57.3092	4,000.49	68.3655	4,000.49	63.4878
4,141.11	86.3629	4,141.11	86.3557	4,141.11	85.2396	4,141.11	85.611	4,141.11	85.8681	4,141.11	84.7967	4,141.11	85.3107	4,141.11	81.477	4,141.11	81.1518	4,141.11	79.3876	4,141.11	80.8682	4,141.11	77.9373	4,141.11	79.2378	4,141.11	74.0199	4,141.11	74.9053	4,141.11	75.9224	4,141.11	75.1758	4,141.11	65.8845	4,141.11	72.2474	4,141.11	65.172	4,141.11	72.9012	4,141.11	61.1928	4,141.11	69.6364	4,141.11	64.2784	4,141.11	56.2623	4,141.11	63.7219	4,141.11	63.2412	4,141.11	66.9437	4,141.11	58.4999	4,141.11	65.8837	4,141.11	59.9189	4,141.11	58.61	4,141.11	67.1277	4,141.11	48.8332	4,141.11	66.9262	4,141.11	65.4907
4,287.6	86.3649	4,287.6	86.4448	4,287.6	84.3189	4,287.6	86.7885	4,287.6	85.2856	4,287.6	82.2663	4,287.6	84.4235	4,287.6	80.7575	4,287.6	81.1687	4,287.6	79.6337	4,287.6	79.9693	4,287.6	75.8446	4,287.6	77.104	4,287.6	75.8308	4,287.6	76.466	4,287.6	68.2599	4,287.6	75.2409	4,287.6	71.9758	4,287.6	67.6094	4,287.6	65.7483	4,287.6	70.0372	4,287.6	62.2526	4,287.6	67.5912	4,287.6	62.3111	4,287.6	48.1372	4,287.6	65.0649	4,287.6	66.6845	4,287.6	66.2183	4,287.6	61.5065	4,287.6	64.5651	4,287.6	62.4469	4,287.6	61.8053	4,287.6	66.3815	4,287.6	43.0949	4,287.6	67.7461	4,287.6	65.6225
4,438.48	85.6247	4,438.48	85.64	4,438.48	85.1392	4,438.48	84.9897	4,438.48	84.5335	4,438.48	83.8556	4,438.48	83.8539	4,438.48	81.1577	4,438.48	80.0264	4,438.48	79.5919	4,438.48	78.0743	4,438.48	76.2098	4,438.48	75.4907	4,438.48	72.5458	4,438.48	78.1359	4,438.48	73.243	4,438.48	76.3274	4,438.48	68.6585	4,438.48	65.5196	4,438.48	66.1785	4,438.48	60.8318	4,438.48	63.4235	4,438.48	64.6539	4,438.48	63.8211	4,438.48	50.2535	4,438.48	65.1247	4,438.48	67.1753	4,438.48	64.331	4,438.48	63.8124	4,438.48	65.2888	4,438.48	63.2527	4,438.48	53.7805	4,438.48	63.6617	4,438.48	49.469	4,438.48	68.5152	4,438.48	62.1692
4,595.21	85.9564	4,595.21	85.96	4,595.21	85.5486	4,595.21	85.2899	4,595.21	84.713	4,595.21	82.8176	4,595.21	83.9461	4,595.21	80.7524	4,595.21	79.5067	4,595.21	78.6717	4,595.21	75.5669	4,595.21	75.6726	4,595.21	77.8834	4,595.21	74.1622	4,595.21	77.7763	4,595.21	69.9832	4,595.21	74.1129	4,595.21	68.6064	4,595.21	64.2889	4,595.21	64.0609	4,595.21	53.9683	4,595.21	63.1485	4,595.21	62.6519	4,595.21	60.4899	4,595.21	58.5353	4,595.21	63.3314	4,595.21	64.3897	4,595.21	66.8711	4,595.21	59.5886	4,595.21	64.3494	4,595.21	61.7812	4,595.21	60.0384	4,595.21	62.9123	4,595.21	52.5774	4,595.21	68.3323	4,595.21	62.5392
4,756.35	86.5348	4,756.35	86.3162	4,756.35	85.2035	4,756.35	85.98	4,756.35	84.0697	4,756.35	82.9369	4,756.35	83.7948	4,756.35	81.7083	4,756.35	77.7312	4,756.35	78.0343	4,756.35	74.7407	4,756.35	75.0731	4,756.35	79.1015	4,756.35	72.7336	4,756.35	76.2145	4,756.35	71.6683	4,756.35	68.4016	4,756.35	68.3119	4,756.35	60.4727	4,756.35	64.7094	4,756.35	56.8862	4,756.35	57.1721	4,756.35	58.3909	4,756.35	62.2509	4,756.35	57.9275	4,756.35	64.9283	4,756.35	61.3015	4,756.35	66.218	4,756.35	59.136	4,756.35	64.6737	4,756.35	63.2645	4,756.35	61.3707	4,756.35	62.353	4,756.35	44.4301	4,756.35	65.7866	4,756.35	63.3243
4,924.8	86.1438	4,924.8	86.2554	4,924.8	86.2554	4,924.8	84.7726	4,924.8	83.7433	4,924.8	82.8551	4,924.8	82.6266	4,924.8	79.1279	4,924.8	77.2381	4,924.8	77.7022	4,924.8	75.3646	4,924.8	75.2677	4,924.8	78.8188	4,924.8	73.7683	4,924.8	73.4994	4,924.8	68.2534	4,924.8	65.8293	4,924.8	69.345	4,924.8	65.9837	4,924.8	62.428	4,924.8	54.4306	4,924.8	63.8722	4,924.8	64.4571	4,924.8	62.7066	4,924.8	53.5547	4,924.8	63.1875	4,924.8	55.2361	4,924.8	66.6301	4,924.8	53.7123	4,924.8	66.3599	4,924.8	62.7334	4,924.8	62.9365	4,924.8	63.0092	4,924.8	59.0966	4,924.8	66.329	4,924.8	60.14
5,097.66	85.8399	5,097.66	85.5003	5,097.66	85.6333	5,097.66	85.2508	5,097.66	84.7181	5,097.66	82.3797	5,097.66	81.4391	5,097.66	80.1178	5,097.66	77.7339	5,097.66	77.8352	5,097.66	75.9823	5,097.66	75.3923	5,097.66	77.8135	5,097.66	70.9436	5,097.66	70.5715	5,097.66	70.1757	5,097.66	69.1979	5,097.66	65.9844	5,097.66	63.1831	5,097.66	62.5798	5,097.66	59.8086	5,097.66	60.5939	5,097.66	64.855	5,097.66	59.5099	5,097.66	56.8236	5,097.66	64.485	5,097.66	46.1325	5,097.66	65.9004	5,097.66	59.8817	5,097.66	65.762	5,097.66	60.1612	5,097.66	62.197	5,097.66	62.7312	5,097.66	61.6341	5,097.66	65.058	5,097.66	60.0305
5,277.83	86.2	5,277.83	86.5108	5,277.83	86.0085	5,277.83	85.1348	5,277.83	84.2013	5,277.83	82.7787	5,277.83	82.2338	5,277.83	79.7904	5,277.83	76.5714	5,277.83	78.1719	5,277.83	76.265	5,277.83	72.8989	5,277.83	74.4382	5,277.83	72.3499	5,277.83	71.1453	5,277.83	66.6488	5,277.83	68.0051	5,277.83	68.896	5,277.83	68.0687	5,277.83	62.3078	5,277.83	56.3913	5,277.83	57.8646	5,277.83	63.0656	5,277.83	59.7982	5,277.83	58.5105	5,277.83	62.056	5,277.83	42.4798	5,277.83	65.7646	5,277.83	60.9355	5,277.83	66.7023	5,277.83	61.6001	5,277.83	62.9297	5,277.83	61.8299	5,277.83	56.9071	5,277.83	62.0169	5,277.83	57.7246
5,463.87	86.0524	5,463.87	86.1644	5,463.87	86.0961	5,463.87	84.7287	5,463.87	83.6301	5,463.87	82.0481	5,463.87	83.5309	5,463.87	79.3588	5,463.87	78.5429	5,463.87	76.818	5,463.87	75.4135	5,463.87	72.2567	5,463.87	71.0603	5,463.87	69.9139	5,463.87	70.3511	5,463.87	69.3395	5,463.87	70.5149	5,463.87	64.2927	5,463.87	67.8812	5,463.87	61.5586	5,463.87	51.7757	5,463.87	59.1709	5,463.87	61.7016	5,463.87	59.0109	5,463.87	52.5641	5,463.87	61.7122	5,463.87	55.1688	5,463.87	65.3578	5,463.87	55.8578	5,463.87	65.3211	5,463.87	62.0085	5,463.87	62.5886	5,463.87	57.2107	5,463.87	59.5202	5,463.87	63.624	5,463.87	57.02
5,657.23	86.504	5,657.23	85.7935	5,657.23	86.2364	5,657.23	84.481	5,657.23	84.424	5,657.23	81.4416	5,657.23	83.2547	5,657.23	79.5588	5,657.23	78.0279	5,657.23	74.8193	5,657.23	71.0924	5,657.23	71.8794	5,657.23	71.4847	5,657.23	69.4564	5,657.23	72.2604	5,657.23	64.8968	5,657.23	70.538	5,657.23	65.8758	5,657.23	64.9528	5,657.23	60.3907	5,657.23	53.7785	5,657.23	53.8885	5,657.23	56.9855	5,657.23	57.1648	5,657.23	43.0814	5,657.23	59.288	5,657.23	58.4204	5,657.23	64.0084	5,657.23	53.3775	5,657.23	65.2367	5,657.23	61.1222	5,657.23	62.674	5,657.23	57.086	5,657.23	62.0469	5,657.23	62.8157	5,657.23	56.6799
5,856.45	86.5215	5,856.45	86.33	5,856.45	85.9432	5,856.45	84.9736	5,856.45	84.3299	5,856.45	81.3364	5,856.45	82.4781	5,856.45	78.2381	5,856.45	76.5621	5,856.45	75.1091	5,856.45	65.3713	5,856.45	70.2204	5,856.45	72.2997	5,856.45	69.1335	5,856.45	73.0958	5,856.45	67.2753	5,856.45	71.8916	5,856.45	65.6146	5,856.45	69.2812	5,856.45	61.208	5,856.45	59.8101	5,856.45	58.7451	5,856.45	62.3548	5,856.45	57.492	5,856.45	47.326	5,856.45	61.2823	5,856.45	56.8092	5,856.45	65.5984	5,856.45	45.6749	5,856.45	66.021	5,856.45	60.0994	5,856.45	63.6085	5,856.45	58.9921	5,856.45	63.3062	5,856.45	62.9582	5,856.45	56.3777
6,062.99	86.7556	6,062.99	86.4286	6,062.99	86.2409	6,062.99	84.5304	6,062.99	82.499	6,062.99	82.0348	6,062.99	82.4831	6,062.99	77.5285	6,062.99	75.1315	6,062.99	74.4278	6,062.99	62.0705	6,062.99	71.587	6,062.99	71.1815	6,062.99	69.9647	6,062.99	74.3388	6,062.99	68.9395	6,062.99	71.4035	6,062.99	67.5679	6,062.99	69.8042	6,062.99	61.3922	6,062.99	56.3648	6,062.99	57.8555	6,062.99	57.1478	6,062.99	57.8054	6,062.99	58.192	6,062.99	61.737	6,062.99	48.905	6,062.99	65.0678	6,062.99	52.6708	6,062.99	66.0783	6,062.99	58.4248	6,062.99	65.8795	6,062.99	57.5583	6,062.99	62.7387	6,062.99	59.888	6,062.99	55.5953
6,276.86	86.4464	6,276.86	86.0951	6,276.86	86.2049	6,276.86	84.686	6,276.86	84.0484	6,276.86	81.197	6,276.86	80.6136	6,276.86	77.1241	6,276.86	74.4677	6,276.86	74.2464	6,276.86	64.8111	6,276.86	70.8679	6,276.86	70.2893	6,276.86	70.8968	6,276.86	74.6969	6,276.86	67.8263	6,276.86	71.7993	6,276.86	66.3531	6,276.86	66.7869	6,276.86	60.3506	6,276.86	54.0047	6,276.86	57.2865	6,276.86	52.3848	6,276.86	56.052	6,276.86	59.1529	6,276.86	61.2374	6,276.86	46.4432	6,276.86	64.9156	6,276.86	53.0781	6,276.86	65.9135	6,276.86	57.8823	6,276.86	65.8792	6,276.86	55.172	6,276.86	63.1152	6,276.86	61.9718	6,276.86	57.8181
6,498.05	86.725	6,498.05	86.2765	6,498.05	86.515	6,498.05	84.4046	6,498.05	84.5423	6,498.05	80.3664	6,498.05	79.3558	6,498.05	77.4104	6,498.05	74.8519	6,498.05	73.9479	6,498.05	69.845	6,498.05	73.4154	6,498.05	70.5922	6,498.05	71.0737	6,498.05	75.5459	6,498.05	68.967	6,498.05	67.9698	6,498.05	65.2805	6,498.05	68.1893	6,498.05	61.9522	6,498.05	53.4185	6,498.05	56.8643	6,498.05	49.5255	6,498.05	55.9505	6,498.05	53.5399	6,498.05	61.3018	6,498.05	53.6241	6,498.05	65.2826	6,498.05	51.9609	6,498.05	66.376	6,498.05	57.9977	6,498.05	66.9794	6,498.05	57.0701	6,498.05	64.03	6,498.05	60.9623	6,498.05	58.0003
6,726.56	86.9518	6,726.56	85.8063	6,726.56	86.5072	6,726.56	84.4469	6,726.56	83.9733	6,726.56	80.5109	6,726.56	77.9854	6,726.56	76.6068	6,726.56	78.1463	6,726.56	75.948	6,726.56	72.4159	6,726.56	73.192	6,726.56	72.8498	6,726.56	70.8989	6,726.56	74.2123	6,726.56	69.3642	6,726.56	70.5224	6,726.56	66.7322	6,726.56	68.2643	6,726.56	62.9956	6,726.56	47.1033	6,726.56	56.924	6,726.56	62.24	6,726.56	55.0047	6,726.56	50.2528	6,726.56	59.8363	6,726.56	54.2803	6,726.56	65.4743	6,726.56	52.3432	6,726.56	66.5765	6,726.56	59.1783	6,726.56	67.1569	6,726.56	58.4021	6,726.56	64.9528	6,726.56	59.9265	6,726.56	58.9777
6,963.87	86.7417	6,963.87	85.5382	6,963.87	85.6679	6,963.87	84.1424	6,963.87	84.1729	6,963.87	79.8709	6,963.87	78.0599	6,963.87	77.2218	6,963.87	77.7128	6,963.87	76.9835	6,963.87	75.4042	6,963.87	73.7898	6,963.87	72.3941	6,963.87	72.5119	6,963.87	73.6961	6,963.87	70.0648	6,963.87	75.5503	6,963.87	67.0516	6,963.87	72.0647	6,963.87	61.941	6,963.87	55.2989	6,963.87	50.9114	6,963.87	63.8856	6,963.87	55.4298	6,963.87	52.3798	6,963.87	59.4345	6,963.87	54.549	6,963.87	66.1535	6,963.87	44.4724	6,963.87	66.5539	6,963.87	59.5677	6,963.87	65.5516	6,963.87	56.9735	6,963.87	65.3719	6,963.87	59.7241	6,963.87	59.244
7,209.96	86.8111	7,209.96	85.5665	7,209.96	85.6735	7,209.96	84.1684	7,209.96	82.9751	7,209.96	79.8998	7,209.96	79.2411	7,209.96	77.7699	7,209.96	75.5705	7,209.96	76.8405	7,209.96	76.8748	7,209.96	74.9378	7,209.96	70.0547	7,209.96	71.2853	7,209.96	77.7447	7,209.96	69.0744	7,209.96	74.2546	7,209.96	65.2727	7,209.96	71.114	7,209.96	61.3564	7,209.96	58.9318	7,209.96	56.2285	7,209.96	63.9734	7,209.96	55.5561	7,209.96	44.7714	7,209.96	56.7779	7,209.96	45.8148	7,209.96	65.2271	7,209.96	56.0699	7,209.96	65.7344	7,209.96	58.2543	7,209.96	66.143	7,209.96	43.2854	7,209.96	65.6695	7,209.96	61.0933	7,209.96	58.6942
7,464.84	86.2735	7,464.84	85.8119	7,464.84	86.2197	7,464.84	83.401	7,464.84	83.8116	7,464.84	80.1167	7,464.84	78.5042	7,464.84	78.8879	7,464.84	76.0931	7,464.84	76.4075	7,464.84	78.4249	7,464.84	74.4738	7,464.84	63.2048	7,464.84	70.1333	7,464.84	79.0148	7,464.84	68.6797	7,464.84	68.6352	7,464.84	65.8199	7,464.84	69.6288	7,464.84	60.0512	7,464.84	55.0761	7,464.84	55.1479	7,464.84	59.2638	7,464.84	47.2609	7,464.84	46.1039	7,464.84	57.2955	7,464.84	53.7418	7,464.84	64.4141	7,464.84	56.3494	7,464.84	65.3172	7,464.84	58.1463	7,464.84	64.861	7,464.84	43.7823	7,464.84	66.5215	7,464.84	59.9619	7,464.84	57.7206
7,727.05	86.6369	7,727.05	85.5726	7,727.05	85.5339	7,727.05	83.5357	7,727.05	83.1543	7,727.05	80.8093	7,727.05	77.1333	7,727.05	78.2717	7,727.05	77.4981	7,727.05	75.602	7,727.05	78.3672	7,727.05	73.4881	7,727.05	71.0902	7,727.05	69.7722	7,727.05	76.6848	7,727.05	68.5904	7,727.05	63.8989	7,727.05	64.6307	7,727.05	65.8951	7,727.05	62.7053	7,727.05	42.14	7,727.05	54.7028	7,727.05	51.8476	7,727.05	51.1149	7,727.05	56.683	7,727.05	58.1142	7,727.05	54.8259	7,727.05	63.8413	7,727.05	59.6782	7,727.05	64.9074	7,727.05	57.8637	7,727.05	64.1061	7,727.05	43.6928	7,727.05	64.1098	7,727.05	58.5551	7,727.05	58.4347
7,999.51	86.3502	7,999.51	85.6369	7,999.51	85.7789	7,999.51	83.289	7,999.51	82.2381	7,999.51	80.3592	7,999.51	77.6545	7,999.51	77.7215	7,999.51	79.0419	7,999.51	74.8921	7,999.51	78.6044	7,999.51	72.8845	7,999.51	69.1192	7,999.51	70.3431	7,999.51	70.7355	7,999.51	68.4246	7,999.51	70.5203	7,999.51	66.3146	7,999.51	58.1347	7,999.51	60.0586	7,999.51	62.1967	7,999.51	52.9511	7,999.51	61.1655	7,999.51	32.6995	7,999.51	53.1687	7,999.51	59.8853	7,999.51	57.3459	7,999.51	63.6098	7,999.51	61.1285	7,999.51	63.811	7,999.51	58.1722	7,999.51	64.4208	7,999.51	45.1972	7,999.51	65.5944	7,999.51	59.9906	7,999.51	58.9999
8,282.23	86.2785	8,282.23	85.8846	8,282.23	85.1485	8,282.23	82.802	8,282.23	82.5553	8,282.23	80.4354	8,282.23	80.8388	8,282.23	77.0793	8,282.23	77.8944	8,282.23	72.8083	8,282.23	79.1091	8,282.23	73.9692	8,282.23	64.4259	8,282.23	71.6106	8,282.23	70.2858	8,282.23	69.6937	8,282.23	71.8985	8,282.23	66.917	8,282.23	65.695	8,282.23	61.8713	8,282.23	64.0742	8,282.23	54.845	8,282.23	65.3258	8,282.23	47.4577	8,282.23	60.5501	8,282.23	61.6652	8,282.23	48.2307	8,282.23	63.5636	8,282.23	59.481	8,282.23	62.5487	8,282.23	54.4854	8,282.23	63.0249	8,282.23	49.5815	8,282.23	64.9408	8,282.23	59.0769	8,282.23	60.9006
8,573.73	86.681	8,573.73	85.4965	8,573.73	85.4878	8,573.73	82.6946	8,573.73	80.8916	8,573.73	79.2877	8,573.73	79.5997	8,573.73	75.7416	8,573.73	79.5277	8,573.73	74.9709	8,573.73	79.3612	8,573.73	75.6386	8,573.73	69.0328	8,573.73	73.4317	8,573.73	74.171	8,573.73	70.6471	8,573.73	69.0608	8,573.73	66.6033	8,573.73	64.1831	8,573.73	61.8431	8,573.73	65.8704	8,573.73	50.7848	8,573.73	65.0466	8,573.73	43.6772	8,573.73	59.2722	8,573.73	60.2592	8,573.73	35.3464	8,573.73	65.2826	8,573.73	58.7834	8,573.73	60.5139	8,573.73	51.929	8,573.73	62.321	8,573.73	46.0992	8,573.73	63.5758	8,573.73	52.2393	8,573.73	60.9326
8,876.95	86.7083	8,876.95	84.6292	8,876.95	85.2703	8,876.95	82.6467	8,876.95	82.3419	8,876.95	77.7609	8,876.95	78.978	8,876.95	75.9664	8,876.95	81.4829	8,876.95	77.3886	8,876.95	80.3562	8,876.95	76.6078	8,876.95	71.3182	8,876.95	72.4165	8,876.95	72.8422	8,876.95	70.3447	8,876.95	72.2663	8,876.95	64.4231	8,876.95	65.7731	8,876.95	63.4882	8,876.95	69.0613	8,876.95	48.9957	8,876.95	61.7292	8,876.95	46.0902	8,876.95	46.0954	8,876.95	60.796	8,876.95	53.011	8,876.95	64.2975	8,876.95	58.3667	8,876.95	58.1855	8,876.95	52.5121	8,876.95	61.1851	8,876.95	43.293	8,876.95	63.8871	8,876.95	49.8978	8,876.95	62.1307
9,188.96	86.8707	9,188.96	84.402	9,188.96	85.2849	9,188.96	82.2501	9,188.96	83.4685	9,188.96	77.0718	9,188.96	82.2467	9,188.96	78.6557	9,188.96	81.1919	9,188.96	78.0613	9,188.96	80.9557	9,188.96	77.3517	9,188.96	73.1184	9,188.96	73.5691	9,188.96	66.7481	9,188.96	70.3038	9,188.96	75.848	9,188.96	65.5425	9,188.96	67.2251	9,188.96	62.7882	9,188.96	62.9422	9,188.96	43.2933	9,188.96	51.6788	9,188.96	39.2591	9,188.96	55.647	9,188.96	60.2981	9,188.96	58.6968	9,188.96	63.3781	9,188.96	59.3414	9,188.96	62.044	9,188.96	51.7579	9,188.96	61.8597	9,188.96	44.4419	9,188.96	62.4535	9,188.96	51.3094	9,188.96	58.2451
9,514.16	86.6042	9,514.16	85.0383	9,514.16	85.7853	9,514.16	81.7193	9,514.16	81.9482	9,514.16	78.8216	9,514.16	83.5993	9,514.16	79.5561	9,514.16	80.2182	9,514.16	78.9656	9,514.16	78.6539	9,514.16	77.9413	9,514.16	75.8423	9,514.16	73.3146	9,514.16	60.7519	9,514.16	68.7639	9,514.16	76.4084	9,514.16	63.7604	9,514.16	67.9254	9,514.16	59.9662	9,514.16	65.3029	9,514.16	51.818	9,514.16	63.0011	9,514.16	47.7469	9,514.16	59.6501	9,514.16	60.6566	9,514.16	56.3234	9,514.16	64.0503	9,514.16	60.0573	9,514.16	62.0295	9,514.16	49.2463	9,514.16	60.6724	9,514.16	40.8998	9,514.16	59.5111	9,514.16	49.9904	9,514.16	59.8372
9,849.61	86.7153	9,849.61	85.4618	9,849.61	85.8669	9,849.61	82.2412	9,849.61	82.2868	9,849.61	79.0993	9,849.61	82.3807	9,849.61	80.821	9,849.61	81.1766	9,849.61	79.9055	9,849.61	77.9846	9,849.61	76.9448	9,849.61	75.6375	9,849.61	71.8812	9,849.61	68.9188	9,849.61	67.9963	9,849.61	75.3953	9,849.61	65.0213	9,849.61	67.608	9,849.61	63.3927	9,849.61	65.4956	9,849.61	43.0677	9,849.61	61.1777	9,849.61	49.9897	9,849.61	59.2139	9,849.61	59.6716	9,849.61	53.5053	9,849.61	62.999	9,849.61	60.2133	9,849.61	62.4048	9,849.61	45.5825	9,849.61	58.9576	9,849.61	45.7883	9,849.61	57.8442	9,849.61	47.1498	9,849.61	58.4443
10,196.8	86.9126	10,196.8	85.9906	10,196.8	85.7878	10,196.8	83.0377	10,196.8	82.5567	10,196.8	79.9234	10,196.8	83.4913	10,196.8	82.1803	10,196.8	80.7216	10,196.8	80.1773	10,196.8	80.1871	10,196.8	76.9923	10,196.8	74.7312	10,196.8	71.5719	10,196.8	70.3052	10,196.8	68.6499	10,196.8	75.8674	10,196.8	64.8414	10,196.8	69.0444	10,196.8	61.9942	10,196.8	69.0081	10,196.8	45.9285	10,196.8	65.1328	10,196.8	50.3603	10,196.8	60.6379	10,196.8	61.0423	10,196.8	54.36	10,196.8	62.5989	10,196.8	56.8186	10,196.8	62.5509	10,196.8	37.5475	10,196.8	61.2256	10,196.8	45.6471	10,196.8	59.8723	10,196.8	39.9699	10,196.8	59.6757
10,555.7	87.072	10,555.7	86.7608	10,555.7	84.9475	10,555.7	83.2871	10,555.7	82.5825	10,555.7	81.5449	10,555.7	84.7326	10,555.7	82.4067	10,555.7	82.1407	10,555.7	79.9798	10,555.7	80.5854	10,555.7	75.9877	10,555.7	75.2319	10,555.7	70.1512	10,555.7	69.0854	10,555.7	69.1196	10,555.7	70.7363	10,555.7	65.3611	10,555.7	61.6656	10,555.7	62.8719	10,555.7	68.6872	10,555.7	52.1489	10,555.7	63.4704	10,555.7	45.7818	10,555.7	53.8918	10,555.7	58.9631	10,555.7	56.0913	10,555.7	63.1253	10,555.7	53.829	10,555.7	61.8654	10,555.7	48.6044	10,555.7	61.2022	10,555.7	51.555	10,555.7	58.9199	10,555.7	45.5148	10,555.7	57.7101
10,927.7	87.3859	10,927.7	87.8326	10,927.7	85.0225	10,927.7	83.88	10,927.7	83.6804	10,927.7	82.214	10,927.7	85.7062	10,927.7	83.1777	10,927.7	81.4028	10,927.7	79.8643	10,927.7	79.7718	10,927.7	75.0762	10,927.7	77.3446	10,927.7	71.7429	10,927.7	65.6594	10,927.7	69.0864	10,927.7	72.1735	10,927.7	65.5656	10,927.7	62.6096	10,927.7	63.6992	10,927.7	66.3975	10,927.7	51.5377	10,927.7	56.8081	10,927.7	47.2892	10,927.7	57.3193	10,927.7	58.767	10,927.7	55.4781	10,927.7	62.7296	10,927.7	57.0504	10,927.7	62.4754	10,927.7	48.9618	10,927.7	61.6084	10,927.7	53.3415	10,927.7	60.0507	10,927.7	53.4025	10,927.7	57.5941
11,313	88.034	11,313	88.051	11,313	84.8656	11,313	84.2504	11,313	84.7292	11,313	83.0869	11,313	85.1501	11,313	83.67	11,313	80.8091	11,313	78.561	11,313	79.1649	11,313	75.148	11,313	75.7466	11,313	70.0832	11,313	67.6325	11,313	68.7985	11,313	71.1544	11,313	65.7632	11,313	64.4653	11,313	60.2312	11,313	63.7755	11,313	49.3935	11,313	65.6088	11,313	48.0348	11,313	61.0951	11,313	60.6404	11,313	44.4121	11,313	63.3887	11,313	47.6682	11,313	60.7768	11,313	40.1414	11,313	61.3	11,313	40.6082	11,313	59.4523	11,313	53.2888	11,313	58.2569
11,712.9	87.9396	11,712.9	87.6536	11,712.9	85.1626	11,712.9	84.3789	11,712.9	85.6782	11,712.9	84.584	11,712.9	85.1056	11,712.9	82.7262	11,712.9	79.6636	11,712.9	77.4501	11,712.9	78.5942	11,712.9	73.5375	11,712.9	72.8214	11,712.9	70.1493	11,712.9	66.6388	11,712.9	67.8634	11,712.9	66.3602	11,712.9	64.4254	11,712.9	55.2381	11,712.9	59.3801	11,712.9	63.1466	11,712.9	54.5701	11,712.9	66.5802	11,712.9	40.7325	11,712.9	60.7523	11,712.9	57.8268	11,712.9	36.8442	11,712.9	62.0972	11,712.9	49.2519	11,712.9	60.2321	11,712.9	45.5506	11,712.9	60.7124	11,712.9	46.7728	11,712.9	59.2302	11,712.9	55.0539	11,712.9	55.5297
12,126	87.596	12,126	87.2964	12,126	85.5724	12,126	85.4907	12,126	86.6481	12,126	84.7393	12,126	85.0454	12,126	81.8369	12,126	79.6518	12,126	76.1958	12,126	78.1004	12,126	73.3463	12,126	70.22	12,126	68.922	12,126	64.4556	12,126	67.6949	12,126	61.2363	12,126	64.9853	12,126	56.8056	12,126	59.6021	12,126	61.0721	12,126	55.0244	12,126	65.1395	12,126	38.95	12,126	58.6183	12,126	57.167	12,126	40.6686	12,126	61.6914	12,126	42.5894	12,126	61.5258	12,126	46.0796	12,126	59.9956	12,126	50.5318	12,126	59.1631	12,126	54.5302	12,126	54.6145
12,553.7	87.7059	12,553.7	87.7133	12,553.7	86.4996	12,553.7	87.1119	12,553.7	87.0787	12,553.7	84.9437	12,553.7	84.4786	12,553.7	81.3368	12,553.7	80.7656	12,553.7	74.7862	12,553.7	78.5815	12,553.7	73.2447	12,553.7	68.6066	12,553.7	70.3208	12,553.7	66.3114	12,553.7	67.2037	12,553.7	62.3821	12,553.7	64.8519	12,553.7	59.3838	12,553.7	58.7049	12,553.7	59.0091	12,553.7	52.8875	12,553.7	67.0598	12,553.7	9.20227	12,553.7	61.0448	12,553.7	55.4984	12,553.7	42.1591	12,553.7	60.3487	12,553.7	45.6443	12,553.7	61.153	12,553.7	47.4906	12,553.7	58.7647	12,553.7	49.4984	12,553.7	59.3213	12,553.7	53.7708	12,553.7	53.698
12,996.1	87.6936	12,996.1	88.1378	12,996.1	87.5088	12,996.1	87.737	12,996.1	86.9884	12,996.1	84.697	12,996.1	84.1116	12,996.1	80.4217	12,996.1	81.1032	12,996.1	74.4923	12,996.1	76.9813	12,996.1	73.4995	12,996.1	69.2862	12,996.1	70.149	12,996.1	65.9821	12,996.1	67.3433	12,996.1	63.6349	12,996.1	63.3899	12,996.1	57.3432	12,996.1	58.0905	12,996.1	60.0599	12,996.1	55.2173	12,996.1	67.7401	12,996.1	41.4149	12,996.1	59.9516	12,996.1	52.3742	12,996.1	39.6648	12,996.1	59.0118	12,996.1	46.2076	12,996.1	60.2263	12,996.1	52.8633	12,996.1	58.662	12,996.1	53.2115	12,996.1	60.2439	12,996.1	54.4879	12,996.1	54.795
13,454.6	87.4408	13,454.6	87.5032	13,454.6	87.8272	13,454.6	87.4845	13,454.6	86.6877	13,454.6	83.6611	13,454.6	84.5079	13,454.6	79.6458	13,454.6	80.6304	13,454.6	74.0605	13,454.6	73.1415	13,454.6	72.9573	13,454.6	69.7216	13,454.6	68.9238	13,454.6	68.611	13,454.6	65.3179	13,454.6	61.9378	13,454.6	61.4589	13,454.6	55.3184	13,454.6	52.0366	13,454.6	61.5312	13,454.6	55.8337	13,454.6	67.0886	13,454.6	44.7583	13,454.6	59.2183	13,454.6	51.8504	13,454.6	37.9063	13,454.6	56.7467	13,454.6	47.1201	13,454.6	59.3883	13,454.6	49.4303	13,454.6	57.2312	13,454.6	53.1566	13,454.6	58.0214	13,454.6	50.7211	13,454.6	51.5579
13,929.2	87.192	13,929.2	86.8365	13,929.2	87.6075	13,929.2	86.8513	13,929.2	85.5247	13,929.2	83.2267	13,929.2	83.7488	13,929.2	78.7559	13,929.2	78.0472	13,929.2	73.6085	13,929.2	73.0066	13,929.2	71.8007	13,929.2	70.1056	13,929.2	65.8454	13,929.2	67.3172	13,929.2	62.348	13,929.2	52.8961	13,929.2	56.7186	13,929.2	53.4618	13,929.2	48.1453	13,929.2	59.9642	13,929.2	51.275	13,929.2	65.6848	13,929.2	36.4333	13,929.2	58.1603	13,929.2	47.6572	13,929.2	45.1432	13,929.2	52.9162	13,929.2	40.519	13,929.2	57.0756	13,929.2	39.1784	13,929.2	53.9453	13,929.2	49.4005	13,929.2	54.041	13,929.2	48.3823	13,929.2	47.2255
14,419.9	86.7708	14,419.9	85.7968	14,419.9	87.7558	14,419.9	86.0932	14,419.9	85.2055	14,419.9	82.4165	14,419.9	83.1286	14,419.9	78.0688	14,419.9	78.1081	14,419.9	72.1449	14,419.9	71.7715	14,419.9	69.6554	14,419.9	70.2875	14,419.9	62.149	14,419.9	63.3568	14,419.9	57.6353	14,419.9	54.7517	14,419.9	53.4125	14,419.9	51.6526	14,419.9	39.0822	14,419.9	61.2353	14,419.9	47.6144	14,419.9	65.6294	14,419.9	39.4417	14,419.9	55.4887	14,419.9	46.4244	14,419.9	41.6313	14,419.9	49.7672	14,419.9	49.7214	14,419.9	53.8232	14,419.9	45.0334	14,419.9	51.8546	14,419.9	50.7648	14,419.9	51.7798	14,419.9	50.8134	14,419.9	39.8163
14,928.2	86.3505	14,928.2	84.9339	14,928.2	87.4715	14,928.2	85.6252	14,928.2	84.7363	14,928.2	81.4349	14,928.2	82.7682	14,928.2	77.2939	14,928.2	75.7516	14,928.2	71.3702	14,928.2	72.7475	14,928.2	66.9259	14,928.2	67.9263	14,928.2	56.3474	14,928.2	57.6145	14,928.2	51.7883	14,928.2	51.2329	14,928.2	50.2877	14,928.2	46.1677	14,928.2	41.6334	14,928.2	61.3864	14,928.2	46.5506	14,928.2	64.8898	14,928.2	40.0259	14,928.2	52.0482	14,928.2	41.7684	14,928.2	33.5309	14,928.2	43.2354	14,928.2	50.1838	14,928.2	49.6525	14,928.2	44.2749	14,928.2	45.9287	14,928.2	49.8906	14,928.2	47.3544	14,928.2	46.9001	14,928.2	35.9686
15,455.6	86.2099	15,455.6	84.7057	15,455.6	87.0238	15,455.6	85.1123	15,455.6	84.5928	15,455.6	80.3233	15,455.6	81.1027	15,455.6	76.2377	15,455.6	74.8438	15,455.6	70.0518	15,455.6	72.061	15,455.6	62.8359	15,455.6	64.1184	15,455.6	53.4944	15,455.6	54.9293	15,455.6	48.8154	15,455.6	54.4235	15,455.6	46.4703	15,455.6	48.5151	15,455.6	41.9015	15,455.6	60.9446	15,455.6	43.8008	15,455.6	64.9436	15,455.6	42.0483	15,455.6	52.3179	15,455.6	41.5916	15,455.6	37.5908	15,455.6	37.4782	15,455.6	47.5	15,455.6	47.6243	15,455.6	41.5108	15,455.6	37.1516	15,455.6	47.7965	15,455.6	40.3693	15,455.6	45.7391	15,455.6	41.8804
16,000.5	86.4793	16,000.5	85.1849	16,000.5	86.758	16,000.5	84.861	16,000.5	84.5206	16,000.5	78.9324	16,000.5	80.6392	16,000.5	75.6953	16,000.5	74.9035	16,000.5	67.374	16,000.5	70.1627	16,000.5	57.9358	16,000.5	62.5663	16,000.5	54.3623	16,000.5	57.8236	16,000.5	46.0065	16,000.5	52.6862	16,000.5	40.5694	16,000.5	46.5836	16,000.5	44.3223	16,000.5	61.8414	16,000.5	39.1631	16,000.5	65.6681	16,000.5	39.3622	16,000.5	53.4248	16,000.5	42.867	16,000.5	35.5176	16,000.5	37.3438	16,000.5	47.2343	16,000.5	45.8993	16,000.5	34.6586	16,000.5	32.6995	16,000.5	48.8717	16,000.5	18.0013	16,000.5	46.8316	16,000.5	40.1521
16,564.5	86.7408	16,564.5	85.7525	16,564.5	86.7158	16,564.5	84.5163	16,564.5	84.2736	16,564.5	78.3377	16,564.5	79.7462	16,564.5	75.214	16,564.5	73.8114	16,564.5	63.384	16,564.5	67.3613	16,564.5	57.4071	16,564.5	56.7965	16,564.5	49.4105	16,564.5	57.0479	16,564.5	37.119	16,564.5	50.6207	16,564.5	40.4994	16,564.5	47.8749	16,564.5	44.7976	16,564.5	63.3914	16,564.5	33.6787	16,564.5	67.2534	16,564.5	35.4352	16,564.5	53.5463	16,564.5	40.9703	16,564.5	36.2836	16,564.5	36.7348	16,564.5	44.2622	16,564.5	41.2131	16,564.5	35.5912	16,564.5	32.2641	16,564.5	44.8529	16,564.5	35.5229	16,564.5	46.361	16,564.5	43.0716
17,148.9	86.9969	17,148.9	85.8495	17,148.9	86.8119	17,148.9	84.2089	17,148.9	84.0386	17,148.9	78.033	17,148.9	78.669	17,148.9	73.1864	17,148.9	70.9419	17,148.9	56.2478	17,148.9	61.4452	17,148.9	54.4675	17,148.9	56.4625	17,148.9	42.2877	17,148.9	52.8212	17,148.9	44.4546	17,148.9	49.7767	17,148.9	45.6432	17,148.9	52.2258	17,148.9	43.9436	17,148.9	65.9413	17,148.9	39.3424	17,148.9	68.8803	17,148.9	39.4408	17,148.9	56.3761	17,148.9	31.7929	17,148.9	33.7236	17,148.9	39.5541	17,148.9	39.3013	17,148.9	38.4835	17,148.9	26.8398	17,148.9	37.559	17,148.9	41.7695	17,148.9	41.8417	17,148.9	47.3549	17,148.9	45.1913
17,752.4	86.6941	17,752.4	85.6789	17,752.4	86.6607	17,752.4	83.6554	17,752.4	83.7644	17,752.4	76.7258	17,752.4	77.6034	17,752.4	69.6477	17,752.4	68.2118	17,752.4	54.3179	17,752.4	58.9139	17,752.4	51.7739	17,752.4	59.0277	17,752.4	52.1798	17,752.4	48.9139	17,752.4	46.611	17,752.4	48.9849	17,752.4	47.0431	17,752.4	52.3226	17,752.4	41.939	17,752.4	66.8278	17,752.4	41.5445	17,752.4	68.9422	17,752.4	38.6865	17,752.4	54.4011	17,752.4	35.0051	17,752.4	38.5102	17,752.4	40.955	17,752.4	37.3878	17,752.4	39.1775	17,752.4	33.2199	17,752.4	38.7239	17,752.4	36.4444	17,752.4	43.082	17,752.4	46.2102	17,752.4	46.7636
18,379.4	86.023	18,379.4	85.1549	18,379.4	85.9534	18,379.4	82.6748	18,379.4	83.0183	18,379.4	74.5456	18,379.4	75.8468	18,379.4	64.2486	18,379.4	64.7593	18,379.4	57.5666	18,379.4	58.6308	18,379.4	54.7563	18,379.4	58.5766	18,379.4	53.1086	18,379.4	42.9318	18,379.4	41.2334	18,379.4	51.3901	18,379.4	48.0984	18,379.4	52.575	18,379.4	40.3331	18,379.4	67.1661	18,379.4	41.9936	18,379.4	68.8314	18,379.4	36.8359	18,379.4	54.1032	18,379.4	38.3025	18,379.4	38.6646	18,379.4	41.4752	18,379.4	28.783	18,379.4	39.4728	18,379.4	38.8438	18,379.4	38.442	18,379.4	37.5024	18,379.4	43.4094	18,379.4	42.6881	18,379.4	45.347
19,026.9	85.3977	19,026.9	84.6283	19,026.9	85.3506	19,026.9	81.3212	19,026.9	81.8887	19,026.9	72.1662	19,026.9	73.9413	19,026.9	60.6274	19,026.9	61.7055	19,026.9	58.6551	19,026.9	58.6788	19,026.9	57.5962	19,026.9	54.2821	19,026.9	56.5627	19,026.9	48.4395	19,026.9	47.3907	19,026.9	50.0861	19,026.9	50.2176	19,026.9	51.9419	19,026.9	41.1694	19,026.9	67.2122	19,026.9	43.617	19,026.9	68.3324	19,026.9	39.6434	19,026.9	52.6105	19,026.9	39.0432	19,026.9	39.2251	19,026.9	41.8317	19,026.9	23.3883	19,026.9	36.3896	19,026.9	40.0263	19,026.9	36.227	19,026.9	42.242	19,026.9	43.2723	19,026.9	39.4088	19,026.9	39.1998
19,697.8	84.2652	19,697.8	83.1888	19,697.8	84.2395	19,697.8	79.3736	19,697.8	80.4721	19,697.8	68.7294	19,697.8	71.0411	19,697.8	62.1642	19,697.8	60.3615	19,697.8	60.0302	19,697.8	59.0749	19,697.8	58.0828	19,697.8	53.59	19,697.8	57.8177	19,697.8	50.9345	19,697.8	48.2239	19,697.8	48.0452	19,697.8	50.0794	19,697.8	52.1549	19,697.8	40.0782	19,697.8	65.9303	19,697.8	42.6537	19,697.8	66.9093	19,697.8	38.4811	19,697.8	49.9254	19,697.8	36.2363	19,697.8	37.5439	19,697.8	40.6529	19,697.8	23.0756	19,697.8	29.0355	19,697.8	38.3374	19,697.8	35.559	19,697.8	43.3433	19,697.8	37.3915	19,697.8	37.2962	19,697.8	34.9894
19,999.5	82.768	19,999.5	81.4335	19,999.5	82.6712	19,999.5	77.6162	19,999.5	79.1272	19,999.5	67.5867	19,999.5	69.1728	19,999.5	61.6153	19,999.5	61.6387	19,999.5	59.2856	19,999.5	58.7631	19,999.5	56.0164	19,999.5	55.8005	19,999.5	55.8379	19,999.5	55.1683	19,999.5	45.8343	19,999.5	48.8397	19,999.5	47.1306	19,999.5	50.2744	19,999.5	35.1219	19,999.5	64.4559	19,999.5	43.3969	19,999.5	65.6921	19,999.5	39.6084	19,999.5	51.3385	19,999.5	44.7869	19,999.5	40.6285	19,999.5	40.9261	19,999.5	45.649	19,999.5	52.1656	19,999.5	44.6538	19,999.5	39.8507	19,999.5	44.5159	19,999.5	32.0725	19,999.5	39.789	19,999.5	29.5431
