"SPL Vertical"
"On-Axis"		"10°"		"-10°"		"20°"		"-20°"		"30°"		"-30°"		"40°"		"-40°"		"50°"		"-50°"		"60°"		"-60°"		"70°"		"-70°"		"80°"		"-80°"		"90°"		"-90°"		"100°"		"-100°"		"110°"		"-110°"		"120°"		"-120°"		"130°"		"-130°"		"140°"		"-140°"		"150°"		"-150°"		"160°"		"-160°"		"170°"		"-170°"		"180°"
"Frequency / Hz"	"Sound Pressure Level / dB (re 20 µPa/V)  [2.83  V @ 1. m]"	"Frequency / Hz"	"Sound Pressure Level / dB (re 20 µPa/V)  [2.83  V @ 1. m]"	"Frequency / Hz"	"Sound Pressure Level / dB (re 20 µPa/V)  [2.83  V @ 1. m]"	"Frequency / Hz"	"Sound Pressure Level / dB (re 20 µPa/V)  [2.83  V @ 1. m]"	"Frequency / Hz"	"Sound Pressure Level / dB (re 20 µPa/V)  [2.83  V @ 1. m]"	"Frequency / Hz"	"Sound Pressure Level / dB (re 20 µPa/V)  [2.83  V @ 1. m]"	"Frequency / Hz"	"Sound Pressure Level / dB (re 20 µPa/V)  [2.83  V @ 1. m]"	"Frequency / Hz"	"Sound Pressure Level / dB (re 20 µPa/V)  [2.83  V @ 1. m]"	"Frequency / Hz"	"Sound Pressure Level / dB (re 20 µPa/V)  [2.83  V @ 1. m]"	"Frequency / Hz"	"Sound Pressure Level / dB (re 20 µPa/V)  [2.83  V @ 1. m]"	"Frequency / Hz"	"Sound Pressure Level / dB (re 20 µPa/V)  [2.83  V @ 1. m]"	"Frequency / Hz"	"Sound Pressure Level / dB (re 20 µPa/V)  [2.83  V @ 1. m]"	"Frequency / Hz"	"Sound Pressure Level / dB (re 20 µPa/V)  [2.83  V @ 1. m]"	"Frequency / Hz"	"Sound Pressure Level / dB (re 20 µPa/V)  [2.83  V @ 1. m]"	"Frequency / Hz"	"Sound Pressure Level / dB (re 20 µPa/V)  [2.83  V @ 1. m]"	"Frequency / Hz"	"Sound Pressure Level / dB (re 20 µPa/V)  [2.83  V @ 1. m]"	"Frequency / Hz"	"Sound Pressure Level / dB (re 20 µPa/V)  [2.83  V @ 1. m]"	"Frequency / Hz"	"Sound Pressure Level / dB (re 20 µPa/V)  [2.83  V @ 1. m]"	"Frequency / Hz"	"Sound Pressure Level / dB (re 20 µPa/V)  [2.83  V @ 1. m]"	"Frequency / Hz"	"Sound Pressure Level / dB (re 20 µPa/V)  [2.83  V @ 1. m]"	"Frequency / Hz"	"Sound Pressure Level / dB (re 20 µPa/V)  [2.83  V @ 1. m]"	"Frequency / Hz"	"Sound Pressure Level / dB (re 20 µPa/V)  [2.83  V @ 1. m]"	"Frequency / Hz"	"Sound Pressure Level / dB (re 20 µPa/V)  [2.83  V @ 1. m]"	"Frequency / Hz"	"Sound Pressure Level / dB (re 20 µPa/V)  [2.83  V @ 1. m]"	"Frequency / Hz"	"Sound Pressure Level / dB (re 20 µPa/V)  [2.83  V @ 1. m]"	"Frequency / Hz"	"Sound Pressure Level / dB (re 20 µPa/V)  [2.83  V @ 1. m]"	"Frequency / Hz"	"Sound Pressure Level / dB (re 20 µPa/V)  [2.83  V @ 1. m]"	"Frequency / Hz"	"Sound Pressure Level / dB (re 20 µPa/V)  [2.83  V @ 1. m]"	"Frequency / Hz"	"Sound Pressure Level / dB (re 20 µPa/V)  [2.83  V @ 1. m]"	"Frequency / Hz"	"Sound Pressure Level / dB (re 20 µPa/V)  [2.83  V @ 1. m]"	"Frequency / Hz"	"Sound Pressure Level / dB (re 20 µPa/V)  [2.83  V @ 1. m]"	"Frequency / Hz"	"Sound Pressure Level / dB (re 20 µPa/V)  [2.83  V @ 1. m]"	"Frequency / Hz"	"Sound Pressure Level / dB (re 20 µPa/V)  [2.83  V @ 1. m]"	"Frequency / Hz"	"Sound Pressure Level / dB (re 20 µPa/V)  [2.83  V @ 1. m]"	"Frequency / Hz"	"Sound Pressure Level / dB (re 20 µPa/V)  [2.83  V @ 1. m]"	"Frequency / Hz"	"Sound Pressure Level / dB (re 20 µPa/V)  [2.83  V @ 1. m]"
20.5078	55.8731	20.5078	55.471	20.5078	56.2688	20.5078	55.0692	20.5078	56.6507	20.5078	54.6736	20.5078	57.0099	20.5078	54.2899	20.5078	57.3373	20.5078	53.9246	20.5078	57.6239	20.5078	53.586	20.5078	57.861	20.5078	53.2849	20.5078	58.0415	20.5078	53.0352	20.5078	58.1591	20.5078	52.8536	20.5078	58.2094	20.5078	52.7586	20.5078	58.1889	20.5078	52.7678	20.5078	58.0957	20.5078	52.8934	20.5078	57.9289	20.5078	53.1384	20.5078	57.6888	20.5078	53.4936	20.5078	57.3775	20.5078	53.9393	20.5078	56.9986	20.5078	54.4481	20.5078	56.5585	20.5078	54.9904	20.5078	56.067	20.5078	55.538
21.9727	60.3865	21.9727	60.102	21.9727	60.6722	21.9727	59.8288	21.9727	60.949	21.9727	59.5768	21.9727	61.2077	21.9727	59.3545	21.9727	61.4398	21.9727	59.1693	21.9727	61.6384	21.9727	59.0266	21.9727	61.7978	21.9727	58.93	21.9727	61.914	21.9727	58.8816	21.9727	61.9845	21.9727	58.8816	21.9727	62.0081	21.9727	58.929	21.9727	61.9852	21.9727	59.0215	21.9727	61.9173	21.9727	59.1556	21.9727	61.8072	21.9727	59.3269	21.9727	61.6589	21.9727	59.5298	21.9727	61.4769	21.9727	59.758	21.9727	61.2665	21.9727	60.0047	21.9727	61.0336	21.9727	60.2628	21.9727	60.7843	21.9727	60.5251
23.4375	63.1369	23.4375	62.9377	23.4375	63.3291	23.4375	62.7369	23.4375	63.5084	23.4375	62.5398	23.4375	63.6692	23.4375	62.3512	23.4375	63.8061	23.4375	62.1756	23.4375	63.9139	23.4375	62.0168	23.4375	63.9883	23.4375	61.8784	23.4375	64.0258	23.4375	61.7635	23.4375	64.0239	23.4375	61.6748	23.4375	63.9816	23.4375	61.6149	23.4375	63.8992	23.4375	61.5861	23.4375	63.7787	23.4375	61.5905	23.4375	63.6235	23.4375	61.6297	23.4375	63.4388	23.4375	61.7045	23.4375	63.2311	23.4375	61.8148	23.4375	63.0079	23.4375	61.9587	23.4375	62.7779	23.4375	62.1328	23.4375	62.5497	23.4375	62.3321
24.9023	64.4924	24.9023	64.2885	24.9023	64.6857	24.9023	64.0798	24.9023	64.8625	24.9023	63.8719	24.9023	65.0171	24.9023	63.6702	24.9023	65.1441	24.9023	63.4795	24.9023	65.2388	24.9023	63.3041	24.9023	65.297	24.9023	63.1479	24.9023	65.3155	24.9023	63.0141	24.9023	65.2923	24.9023	62.9056	24.9023	65.2267	24.9023	62.825	24.9023	65.1198	24.9023	62.7749	24.9023	64.974	24.9023	62.7578	24.9023	64.7937	24.9023	62.7757	24.9023	64.585	24.9023	62.8305	24.9023	64.3554	24.9023	62.923	24.9023	64.1138	24.9023	63.0527	24.9023	63.8698	24.9023	63.2175	24.9023	63.6332	24.9023	63.4131
26.3672	66.7662	26.3672	66.5959	26.3672	66.9286	26.3672	66.4225	26.3672	67.0781	26.3672	66.2505	26.3672	67.2097	26.3672	66.0843	26.3672	67.3188	26.3672	65.9276	26.3672	67.4009	26.3672	65.784	26.3672	67.4525	26.3672	65.6565	26.3672	67.4707	26.3672	65.5479	26.3672	67.4537	26.3672	65.4605	26.3672	67.4011	26.3672	65.3967	26.3672	67.3136	26.3672	65.3586	26.3672	67.1938	26.3672	65.3482	26.3672	67.0453	26.3672	65.3671	26.3672	66.8735	26.3672	65.4165	26.3672	66.6846	26.3672	65.4967	26.3672	66.486	26.3672	65.6071	26.3672	66.2853	26.3672	65.7455	26.3672	66.0903	26.3672	65.9082
27.832	68.3215	27.832	68.1705	27.832	68.4646	27.832	68.0163	27.832	68.5952	27.832	67.8631	27.832	68.7086	27.832	67.7152	27.832	68.8005	27.832	67.576	27.832	68.8669	27.832	67.4487	27.832	68.9047	27.832	67.336	27.832	68.9113	27.832	67.24	27.832	68.8856	27.832	67.1625	27.832	68.8276	27.832	67.1051	27.832	68.7385	27.832	67.0691	27.832	68.6214	27.832	67.0555	27.832	68.4803	27.832	67.0656	27.832	68.321	27.832	67.1002	27.832	68.1497	27.832	67.1598	27.832	67.9737	27.832	67.2445	27.832	67.7999	27.832	67.3534	27.832	67.635	27.832	67.4846
29.2969	70.0436	29.2969	69.8917	29.2969	70.1868	29.2969	69.7354	29.2969	70.3167	29.2969	69.5791	29.2969	70.4291	29.2969	69.4266	29.2969	70.5195	29.2969	69.2815	29.2969	70.5843	29.2969	69.147	29.2969	70.6203	29.2969	69.026	29.2969	70.625	29.2969	68.921	29.2969	70.5973	29.2969	68.8343	29.2969	70.537	29.2969	68.7678	29.2969	70.4454	29.2969	68.7237	29.2969	70.3251	29.2969	68.7036	29.2969	70.1803	29.2969	68.7092	29.2969	70.0162	29.2969	68.7419	29.2969	69.8391	29.2969	68.8022	29.2969	69.6561	29.2969	68.8902	29.2969	69.4745	29.2969	69.0046	29.2969	69.3014	29.2969	69.143
30.7617	71.946	30.7617	71.8138	30.7617	72.0707	30.7617	71.6783	30.7617	72.1839	30.7617	71.5431	30.7617	72.2816	30.7617	71.4117	30.7617	72.3599	30.7617	71.2873	30.7617	72.4154	30.7617	71.1725	30.7617	72.4452	30.7617	71.0697	30.7617	72.4473	30.7617	70.9807	30.7617	72.4206	30.7617	70.9073	30.7617	72.3649	30.7617	70.851	30.7617	72.2816	30.7617	70.8129	30.7617	72.1732	30.7617	70.7945	30.7617	72.0436	30.7617	70.797	30.7617	71.898	30.7617	70.8214	30.7617	71.7421	30.7617	70.8686	30.7617	71.5827	30.7617	70.9389	30.7617	71.4263	30.7617	71.032	30.7617	71.2791	30.7617	71.1463
32.2266	73.1411	32.2266	73.0164	32.2266	73.2573	32.2266	72.887	32.2266	73.3609	32.2266	72.7567	32.2266	73.4485	32.2266	72.6293	32.2266	73.5164	32.2266	72.508	32.2266	73.562	32.2266	72.3958	32.2266	73.5828	32.2266	72.2953	32.2266	73.5772	32.2266	72.2086	32.2266	73.5449	32.2266	72.1374	32.2266	73.4862	32.2266	72.0832	32.2266	73.4028	32.2266	72.0471	32.2266	73.2975	32.2266	72.03	32.2266	73.1743	32.2266	72.0327	32.2266	73.0379	32.2266	72.0558	32.2266	72.8939	32.2266	72.0996	32.2266	72.748	32.2266	72.1641	32.2266	72.6058	32.2266	72.2488	32.2266	72.4725	32.2266	72.3524
33.6914	74.4195	33.6914	74.2915	33.6914	74.5383	33.6914	74.158	33.6914	74.644	33.6914	74.023	33.6914	74.733	33.6914	73.8902	33.6914	74.8019	33.6914	73.7631	33.6914	74.8478	33.6914	73.6447	33.6914	74.8685	33.6914	73.5378	33.6914	74.8626	33.6914	73.445	33.6914	74.8293	33.6914	73.3681	33.6914	74.7691	33.6914	73.309	33.6914	74.6836	33.6914	73.269	33.6914	74.5755	33.6914	73.2493	33.6914	74.4485	33.6914	73.251	33.6914	74.3075	33.6914	73.2746	33.6914	74.1578	33.6914	73.3207	33.6914	74.0055	33.6914	73.389	33.6914	73.8564	33.6914	73.479	33.6914	73.7159	33.6914	73.5888
35.1562	75.8151	35.1562	75.694	35.1562	75.926	35.1562	75.5663	35.1562	76.0232	35.1562	75.4357	35.1562	76.1035	35.1562	75.3059	35.1562	76.164	35.1562	75.1805	35.1562	76.2023	35.1562	75.0628	35.1562	76.2168	35.1562	74.9557	35.1562	76.2063	35.1562	74.8622	35.1562	76.1707	35.1562	74.7845	35.1562	76.1108	35.1562	74.7248	35.1562	76.0281	35.1562	74.6845	35.1562	75.9254	35.1562	74.6651	35.1562	75.806	35.1562	74.6673	35.1562	75.6743	35.1562	74.6916	35.1562	75.5348	35.1562	74.7379	35.1562	75.3927	35.1562	74.8057	35.1562	75.253	35.1562	74.8935	35.1562	75.1205	35.1562	74.9994
36.6211	76.6076	36.6211	76.5067	36.6211	76.6982	36.6211	76.3987	36.6211	76.7757	36.6211	76.287	36.6211	76.8379	36.6211	76.1751	36.6211	76.8826	36.6211	76.0666	36.6211	76.9085	36.6211	75.9649	36.6211	76.9146	36.6211	75.8733	36.6211	76.9006	36.6211	75.7943	36.6211	76.8668	36.6211	75.7305	36.6211	76.8143	36.6211	75.6835	36.6211	76.7448	36.6211	75.6544	36.6211	76.6608	36.6211	75.6438	36.6211	76.5652	36.6211	75.6517	36.6211	76.4615	36.6211	75.6777	36.6211	76.353	36.6211	75.7206	36.6211	76.2431	36.6211	75.7794	36.6211	76.1353	36.6211	75.8522	36.6211	76.0325	36.6211	75.9373
38.0859	76.7964	38.0859	76.6846	38.0859	76.897	38.0859	76.5644	38.0859	76.9834	38.0859	76.4391	38.0859	77.0532	38.0859	76.3121	38.0859	77.1041	38.0859	76.1866	38.0859	77.1341	38.0859	76.0663	38.0859	77.1417	38.0859	75.9542	38.0859	77.1259	38.0859	75.8538	38.0859	77.0866	38.0859	75.7677	38.0859	77.0243	38.0859	75.6987	38.0859	76.9404	38.0859	75.6488	38.0859	76.8373	38.0859	75.6201	38.0859	76.7183	38.0859	75.6137	38.0859	76.5873	38.0859	75.6304	38.0859	76.4489	38.0859	75.6704	38.0859	76.3081	38.0859	75.7332	38.0859	76.1699	38.0859	75.8172	38.0859	76.0391	38.0859	75.9202
39.5508	77.8555	39.5508	77.7495	39.5508	77.9528	39.5508	77.6378	39.5508	78.0382	39.5508	77.5236	39.5508	78.1086	39.5508	77.4101	39.5508	78.1614	39.5508	77.3002	39.5508	78.1943	39.5508	77.1966	39.5508	78.2058	39.5508	77.102	39.5508	78.1948	39.5508	77.0188	39.5508	78.1612	39.5508	76.949	39.5508	78.106	39.5508	76.8948	39.5508	78.0308	39.5508	76.8575	39.5508	77.9382	39.5508	76.8385	39.5508	77.8315	39.5508	76.8387	39.5508	77.7146	39.5508	76.8586	39.5508	77.5917	39.5508	76.898	39.5508	77.4672	39.5508	76.9564	39.5508	77.3452	39.5508	77.0326	39.5508	77.2298	39.5508	77.1245
41.0156	78.5663	41.0156	78.4581	41.0156	78.6658	41.0156	78.3448	41.0156	78.7535	41.0156	78.2295	41.0156	78.8261	41.0156	78.1156	41.0156	78.8808	41.0156	78.0059	41.0156	78.9153	41.0156	77.9032	41.0156	78.928	41.0156	77.8101	41.0156	78.918	41.0156	77.7288	41.0156	78.8852	41.0156	77.6613	41.0156	78.8305	41.0156	77.6094	41.0156	78.7556	41.0156	77.5745	41.0156	78.6631	41.0156	77.5577	41.0156	78.5564	41.0156	77.5597	41.0156	78.4393	41.0156	77.5809	41.0156	78.3162	41.0156	77.6211	41.0156	78.1913	41.0156	77.68	41.0156	78.0691	41.0156	77.7563	41.0156	77.9535	41.0156	77.8482
42.4805	79.5775	42.4805	79.4762	42.4805	79.6677	42.4805	79.367	42.4805	79.744	42.4805	79.2532	42.4805	79.804	42.4805	79.1384	42.4805	79.8457	42.4805	79.0261	42.4805	79.8676	42.4805	78.9195	42.4805	79.8691	42.4805	78.8218	42.4805	79.8498	42.4805	78.7359	42.4805	79.8105	42.4805	78.6641	42.4805	79.7522	42.4805	78.6086	42.4805	79.6768	42.4805	78.5709	42.4805	79.5869	42.4805	78.5521	42.4805	79.4854	42.4805	78.5527	42.4805	79.3757	42.4805	78.5728	42.4805	79.2613	42.4805	78.6116	42.4805	79.1459	42.4805	78.6682	42.4805	79.033	42.4805	78.7409	42.4805	78.9258	42.4805	78.8275
43.9453	79.8428	43.9453	79.7441	43.9453	79.9304	43.9453	79.6369	43.9453	80.0041	43.9453	79.5245	43.9453	80.0619	43.9453	79.4102	43.9453	80.1021	43.9453	79.2974	43.9453	80.1236	43.9453	79.1896	43.9453	80.1255	43.9453	79.0901	43.9453	80.1077	43.9453	79.0021	43.9453	80.0708	43.9453	78.9284	43.9453	80.0157	43.9453	78.8713	43.9453	79.9441	43.9453	78.8328	43.9453	79.8583	43.9453	78.8141	43.9453	79.7607	43.9453	78.8158	43.9453	79.6543	43.9453	78.8379	43.9453	79.5424	43.9453	78.8796	43.9453	79.4282	43.9453	78.9395	43.9453	79.3151	43.9453	79.0157	43.9453	79.2065	43.9453	79.1057
45.4102	80.1589	45.4102	80.0572	45.4102	80.2479	45.4102	79.9456	45.4102	80.3217	45.4102	79.8275	45.4102	80.3781	45.4102	79.7063	45.4102	80.4155	45.4102	79.5856	45.4102	80.4327	45.4102	79.4693	45.4102	80.429	45.4102	79.361	45.4102	80.4046	45.4102	79.2642	45.4102	80.36	45.4102	79.1822	45.4102	80.2967	45.4102	79.1177	45.4102	80.2167	45.4102	79.073	45.4102	80.1224	45.4102	79.0494	45.4102	80.0169	45.4102	79.0477	45.4102	79.9034	45.4102	79.0676	45.4102	79.7855	45.4102	79.1083	45.4102	79.6665	45.4102	79.168	45.4102	79.5497	45.4102	79.2447	45.4102	79.4385	45.4102	79.3358
46.875	80.6705	46.875	80.5757	46.875	80.7528	46.875	80.4709	46.875	80.8205	46.875	80.3589	46.875	80.8717	46.875	80.243	46.875	80.905	46.875	80.1265	46.875	80.9194	46.875	80.0129	46.875	80.9145	46.875	79.9057	46.875	80.8902	46.875	79.8086	46.875	80.8472	46.875	79.7248	46.875	80.7863	46.875	79.6572	46.875	80.7094	46.875	79.6084	46.875	80.6185	46.875	79.58	46.875	80.5163	46.875	79.5732	46.875	80.4057	46.875	79.5883	46.875	80.2899	46.875	79.6247	46.875	80.1723	46.875	79.681	46.875	80.0566	46.875	79.7551	46.875	79.9461	46.875	79.8445
48.3398	80.9173	48.3398	80.8394	48.3398	80.9837	48.3398	80.7523	48.3398	81.0369	48.3398	80.6583	48.3398	81.0754	48.3398	80.5601	48.3398	81.0981	48.3398	80.4604	48.3398	81.1043	48.3398	80.3623	48.3398	81.0935	48.3398	80.2689	48.3398	81.0661	48.3398	80.183	48.3398	81.0228	48.3398	80.1075	48.3398	80.9647	48.3398	80.0451	48.3398	80.8937	48.3398	79.9978	48.3398	80.8117	48.3398	79.9675	48.3398	80.7214	48.3398	79.9553	48.3398	80.6252	48.3398	79.9615	48.3398	80.526	48.3398	79.986	48.3398	80.4267	48.3398	80.0278	48.3398	80.3301	48.3398	80.0854	48.3398	80.2391	48.3398	80.1566
51.2695	81.6529	51.2695	81.5791	51.2695	81.7155	51.2695	81.4966	51.2695	81.7649	51.2695	81.4078	51.2695	81.7996	51.2695	81.3156	51.2695	81.8183	51.2695	81.2229	51.2695	81.8206	51.2695	81.1327	51.2695	81.8067	51.2695	81.0479	51.2695	81.7771	51.2695	80.9714	51.2695	81.7333	51.2695	80.9058	51.2695	81.6771	51.2695	80.8533	51.2695	81.6107	51.2695	80.8157	51.2695	81.5365	51.2695	80.794	51.2695	81.4568	51.2695	80.7886	51.2695	81.3739	51.2695	80.7993	51.2695	81.2898	51.2695	80.8252	51.2695	81.2065	51.2695	80.865	51.2695	81.1256	51.2695	80.9168	51.2695	81.0492	51.2695	80.9789
52.7344	81.8087	52.7344	81.7412	52.7344	81.8648	52.7344	81.6648	52.7344	81.9073	52.7344	81.5823	52.7344	81.935	52.7344	81.497	52.7344	81.9472	52.7344	81.4119	52.7344	81.9438	52.7344	81.3302	52.7344	81.9256	52.7344	81.2548	52.7344	81.894	52.7344	81.1883	52.7344	81.8507	52.7344	81.1329	52.7344	81.7981	52.7344	81.0905	52.7344	81.7384	52.7344	81.0621	52.7344	81.6741	52.7344	81.0482	52.7344	81.6072	52.7344	81.0488	52.7344	81.5395	52.7344	81.063	52.7344	81.4723	52.7344	81.0895	52.7344	81.4064	52.7344	81.1264	52.7344	81.3425	52.7344	81.172	52.7344	81.2815	52.7344	81.2242
54.1992	82.076	54.1992	82.0179	54.1992	82.1228	54.1992	81.9506	54.1992	82.1568	54.1992	81.8766	54.1992	82.1769	54.1992	81.7989	54.1992	82.1827	54.1992	81.7206	54.1992	82.1745	54.1992	81.6447	54.1992	82.1531	54.1992	81.5742	54.1992	82.1197	54.1992	81.5117	54.1992	82.0764	54.1992	81.4595	54.1992	82.0251	54.1992	81.4194	54.1992	81.9684	54.1992	81.3924	54.1992	81.9086	54.1992	81.3788	54.1992	81.8478	54.1992	81.3784	54.1992	81.7877	54.1992	81.3899	54.1992	81.7295	54.1992	81.4121	54.1992	81.6737	54.1992	81.4429	54.1992	81.6206	54.1992	81.4806	54.1992	81.5704	54.1992	81.5235
55.6641	82.3783	55.6641	82.3208	55.6641	82.4215	55.6641	82.2507	55.6641	82.4492	55.6641	82.1703	55.6641	82.4606	55.6641	82.0822	55.6641	82.4553	55.6641	81.9893	55.6641	82.4336	55.6641	81.895	55.6641	82.3962	55.6641	81.8027	55.6641	82.3445	55.6641	81.7156	55.6641	82.2804	55.6641	81.637	55.6641	82.2065	55.6641	81.5695	55.6641	82.1255	55.6641	81.5153	55.6641	82.0407	55.6641	81.4758	55.6641	81.9551	55.6641	81.4519	55.6641	81.8714	55.6641	81.4432	55.6641	81.7918	55.6641	81.4491	55.6641	81.7181	55.6641	81.4683	55.6641	81.6511	55.6641	81.4994	55.6641	81.5919	55.6641	81.541
58.5938	82.9241	58.5938	82.8658	58.5938	82.9689	58.5938	82.7958	58.5938	82.9988	58.5938	82.7165	58.5938	83.0126	58.5938	82.6303	58.5938	83.0098	58.5938	82.5401	58.5938	82.9906	58.5938	82.4487	58.5938	82.9554	58.5938	82.3592	58.5938	82.9056	58.5938	82.2744	58.5938	82.8429	58.5938	82.197	58.5938	82.7696	58.5938	82.1295	58.5938	82.6885	58.5938	82.0738	58.5938	82.6024	58.5938	82.0314	58.5938	82.5143	58.5938	82.0033	58.5938	82.427	58.5938	81.99	58.5938	82.3429	58.5938	81.9913	58.5938	82.2641	58.5938	82.0068	58.5938	82.1926	58.5938	82.0358	58.5938	82.1298	58.5938	82.0771
60.0586	83.156	60.0586	83.0976	60.0586	83.2001	60.0586	83.0267	60.0586	83.2285	60.0586	82.9457	60.0586	83.2402	60.0586	82.8572	60.0586	83.2349	60.0586	82.7641	60.0586	83.2127	60.0586	82.6695	60.0586	83.1745	60.0586	82.5766	60.0586	83.1217	60.0586	82.4885	60.0586	83.0562	60.0586	82.408	60.0586	82.9804	60.0586	82.3378	60.0586	82.8973	60.0586	82.2799	60.0586	82.8096	60.0586	82.2358	60.0586	82.7205	60.0586	82.2067	60.0586	82.6325	60.0586	82.1929	60.0586	82.548	60.0586	82.1943	60.0586	82.4692	60.0586	82.2101	60.0586	82.3975	60.0586	82.2395	60.0586	82.3345	60.0586	82.2814
62.9883	83.4968	62.9883	83.4421	62.9883	83.5393	62.9883	83.377	62.9883	83.5682	62.9883	83.3039	62.9883	83.5824	62.9883	83.2252	62.9883	83.5817	62.9883	83.1439	62.9883	83.5661	62.9883	83.0627	62.9883	83.5364	62.9883	82.9844	62.9883	83.4939	62.9883	82.9119	62.9883	83.4406	62.9883	82.8475	62.9883	83.3786	62.9883	82.7933	62.9883	83.3104	62.9883	82.7508	62.9883	83.2388	62.9883	82.721	62.9883	83.166	62.9883	82.7044	62.9883	83.0943	62.9883	82.7009	62.9883	83.0253	62.9883	82.7097	62.9883	82.9604	62.9883	82.7299	62.9883	82.9006	62.9883	82.7603	62.9883	82.8467	62.9883	82.7996
64.4531	83.7169	64.4531	83.6627	64.4531	83.7593	64.4531	83.5986	64.4531	83.7885	64.4531	83.527	64.4531	83.8036	64.4531	83.4503	64.4531	83.804	64.4531	83.3713	64.4531	83.79	64.4531	83.2929	64.4531	83.7622	64.4531	83.2179	64.4531	83.7221	64.4531	83.1491	64.4531	83.6716	64.4531	83.0887	64.4531	83.6128	64.4531	83.0387	64.4531	83.5484	64.4531	83.0006	64.4531	83.4809	64.4531	82.9752	64.4531	83.4125	64.4531	82.9627	64.4531	83.3454	64.4531	82.9628	64.4531	83.2809	64.4531	82.9745	64.4531	83.2201	64.4531	82.9967	64.4531	83.1638	64.4531	83.0279	64.4531	83.1125	64.4531	83.0669
67.3828	84.227	67.3828	84.173	67.3828	84.2688	67.3828	84.1085	67.3828	84.2968	67.3828	84.036	67.3828	84.3101	67.3828	83.958	67.3828	84.3082	67.3828	83.8772	67.3828	84.2912	67.3828	83.7965	67.3828	84.2601	67.3828	83.7188	67.3828	84.2164	67.3828	83.6469	67.3828	84.1623	67.3828	83.5833	67.3828	84.1002	67.3828	83.5302	67.3828	84.0329	67.3828	83.4892	67.3828	83.9631	67.3828	83.4613	67.3828	83.8932	67.3828	83.4467	67.3828	83.8251	67.3828	83.4451	67.3828	83.7601	67.3828	83.4556	67.3828	83.6992	67.3828	83.477	67.3828	83.6429	67.3828	83.5077	67.3828	83.5917	67.3828	83.5464
68.8477	84.4278	68.8477	84.374	68.8477	84.4687	68.8477	84.3094	68.8477	84.4953	68.8477	84.2363	68.8477	84.5067	68.8477	84.1575	68.8477	84.5024	68.8477	84.0759	68.8477	84.4831	68.8477	83.9945	68.8477	84.4499	68.8477	83.9164	68.8477	84.4044	68.8477	83.8446	68.8477	84.3492	68.8477	83.7816	68.8477	84.2869	68.8477	83.7297	68.8477	84.2203	68.8477	83.6902	68.8477	84.1521	68.8477	83.6642	68.8477	84.0847	68.8477	83.6516	68.8477	84.0196	68.8477	83.6519	68.8477	83.9581	68.8477	83.664	68.8477	83.9006	68.8477	83.6863	68.8477	83.8474	68.8477	83.7171	68.8477	83.7987	68.8477	83.755
71.7773	84.7907	71.7773	84.7409	71.7773	84.8264	71.7773	84.6789	71.7773	84.8467	71.7773	84.607	71.7773	84.8508	71.7773	84.5283	71.7773	84.8389	71.7773	84.4459	71.7773	84.8117	71.7773	84.3629	71.7773	84.7709	71.7773	84.2829	71.7773	84.7186	71.7773	84.2088	71.7773	84.6577	71.7773	84.1436	71.7773	84.5911	71.7773	84.0895	71.7773	84.5221	71.7773	84.0481	71.7773	84.4535	71.7773	84.0201	71.7773	84.3876	71.7773	84.0056	71.7773	84.3258	71.7773	84.0036	71.7773	84.2691	71.7773	84.0129	71.7773	84.2174	71.7773	84.0316	71.7773	84.1706	71.7773	84.058	71.7773	84.1283	71.7773	84.0906
74.707	85.1949	74.707	85.1463	74.707	85.2291	74.707	85.0853	74.707	85.2476	74.707	85.0143	74.707	85.2498	74.707	84.9361	74.707	85.2357	74.707	84.854	74.707	85.2062	74.707	84.7713	74.707	85.163	74.707	84.6911	74.707	85.1083	74.707	84.6168	74.707	85.045	74.707	84.5511	74.707	84.9763	74.707	84.4961	74.707	84.9055	74.707	84.4536	74.707	84.8355	74.707	84.4241	74.707	84.7687	74.707	84.4078	74.707	84.7068	74.707	84.4037	74.707	84.6506	74.707	84.4105	74.707	84.6001	74.707	84.4266	74.707	84.5551	74.707	84.4502	74.707	84.5151	74.707	84.48
77.6367	85.5572	77.6367	85.5083	77.6367	85.5915	77.6367	85.4467	77.6367	85.61	77.6367	85.3752	77.6367	85.6119	77.6367	85.2967	77.6367	85.5975	77.6367	85.2144	77.6367	85.5677	77.6367	85.132	77.6367	85.5244	77.6367	85.053	77.6367	85.47	77.6367	84.9807	77.6367	85.4077	77.6367	84.9178	77.6367	85.3408	77.6367	84.8667	77.6367	85.2727	77.6367	84.8288	77.6367	85.2063	77.6367	84.8045	77.6367	85.144	77.6367	84.7933	77.6367	85.087	77.6367	84.7941	77.6367	85.0358	77.6367	84.805	77.6367	84.9902	77.6367	84.824	77.6367	84.9492	77.6367	84.8491	77.6367	84.9123	77.6367	84.8788
79.1016	85.7226	79.1016	85.6733	79.1016	85.7566	79.1016	85.6107	79.1016	85.774	79.1016	85.5373	79.1016	85.7742	79.1016	85.4562	79.1016	85.7574	79.1016	85.3709	79.1016	85.7248	79.1016	85.2849	79.1016	85.6781	79.1016	85.202	79.1016	85.6202	79.1016	85.1259	79.1016	85.5543	79.1016	85.0594	79.1016	85.4839	79.1016	85.0052	79.1016	85.4127	79.1016	84.9648	79.1016	85.3437	79.1016	84.9388	79.1016	85.2795	79.1016	84.9267	79.1016	85.2213	79.1016	84.9271	79.1016	85.1695	79.1016	84.938	79.1016	85.1237	79.1016	84.9573	79.1016	85.0829	79.1016	84.9827	79.1016	85.046	79.1016	85.0126
82.0312	86.0958	82.0312	86.0451	82.0312	86.1302	82.0312	85.9801	82.0312	86.1471	82.0312	85.9031	82.0312	86.1459	82.0312	85.8173	82.0312	86.127	82.0312	85.7261	82.0312	86.0915	82.0312	85.6333	82.0312	86.0414	82.0312	85.5427	82.0312	85.9792	82.0312	85.4581	82.0312	85.9083	82.0312	85.383	82.0312	85.8324	82.0312	85.3203	82.0312	85.755	82.0312	85.272	82.0312	85.6794	82.0312	85.2391	82.0312	85.6081	82.0312	85.2214	82.0312	85.5427	82.0312	85.2179	82.0312	85.4839	82.0312	85.2267	82.0312	85.4313	82.0312	85.2455	82.0312	85.3844	82.0312	85.2721	82.0312	85.3423	82.0312	85.3048
84.9609	86.3965	84.9609	86.3476	84.9609	86.4291	84.9609	86.2844	84.9609	86.4446	84.9609	86.2091	84.9609	86.4424	84.9609	86.1248	84.9609	86.423	84.9609	86.0348	84.9609	86.3878	84.9609	85.9428	84.9609	86.3388	84.9609	85.8528	84.9609	86.2788	84.9609	85.7685	84.9609	86.2109	84.9609	85.6935	84.9609	86.1386	84.9609	85.6308	84.9609	86.0654	84.9609	85.5825	84.9609	85.994	84.9609	85.5497	84.9609	85.9265	84.9609	85.5325	84.9609	85.8641	84.9609	85.5298	84.9609	85.8071	84.9609	85.54	84.9609	85.7552	84.9609	85.5606	84.9609	85.7076	84.9609	85.5895	84.9609	85.6641	84.9609	85.6245
87.8906	86.5908	87.8906	86.5428	87.8906	86.6213	87.8906	86.4792	87.8906	86.6335	87.8906	86.4027	87.8906	86.6272	87.8906	86.3166	87.8906	86.6035	87.8906	86.2248	87.8906	86.5642	87.8906	86.1316	87.8906	86.5121	87.8906	86.0414	87.8906	86.4505	87.8906	85.9585	87.8906	86.3832	87.8906	85.8868	87.8906	86.3142	87.8906	85.8292	87.8906	86.2468	87.8906	85.7878	87.8906	86.1837	87.8906	85.7634	87.8906	86.1267	87.8906	85.7553	87.8906	86.0759	87.8906	85.7619	87.8906	86.0307	87.8906	85.7804	87.8906	85.9895	87.8906	85.8076	87.8906	85.9508	87.8906	85.8404	87.8906	85.9132	87.8906	85.8762
90.8203	86.8931	90.8203	86.8489	90.8203	86.9208	90.8203	86.7898	90.8203	86.9309	90.8203	86.7183	90.8203	86.9233	90.8203	86.6372	90.8203	86.8984	90.8203	86.5499	90.8203	86.8579	90.8203	86.4603	90.8203	86.8042	90.8203	86.3723	90.8203	86.7404	90.8203	86.2899	90.8203	86.6705	90.8203	86.2169	90.8203	86.5985	90.8203	86.1564	90.8203	86.528	90.8203	86.1107	90.8203	86.4621	90.8203	86.0808	90.8203	86.4028	90.8203	86.0667	90.8203	86.3506	90.8203	86.067	90.8203	86.305	90.8203	86.0793	90.8203	86.2645	90.8203	86.1007	90.8203	86.2276	90.8203	86.1282	90.8203	86.1927	90.8203	86.1594
95.2148	87.4386	95.2148	87.3947	95.2148	87.4617	95.2148	87.3319	95.2148	87.4632	95.2148	87.2529	95.2148	87.4432	95.2148	87.161	95.2148	87.4031	95.2148	87.0604	95.2148	87.345	95.2148	86.9556	95.2148	87.2723	95.2148	86.8517	95.2148	87.1894	95.2148	86.7534	95.2148	87.101	95.2148	86.6653	95.2148	87.0122	95.2148	86.5912	95.2148	86.9274	95.2148	86.5337	95.2148	86.8504	95.2148	86.4942	95.2148	86.7832	95.2148	86.4725	95.2148	86.7265	95.2148	86.4667	95.2148	86.6792	95.2148	86.4742	95.2148	86.6393	95.2148	86.4915	95.2148	86.6045	95.2148	86.5153	95.2148	86.5728	95.2148	86.5429
98.1445	87.5546	98.1445	87.5125	98.1445	87.5766	98.1445	87.4524	98.1445	87.5777	98.1445	87.3769	98.1445	87.5578	98.1445	87.2896	98.1445	87.5184	98.1445	87.1948	98.1445	87.462	98.1445	87.097	98.1445	87.392	98.1445	87.0008	98.1445	87.313	98.1445	86.911	98.1445	87.2298	98.1445	86.8318	98.1445	87.1476	98.1445	86.7665	98.1445	87.0707	98.1445	86.7176	98.1445	87.0026	98.1445	86.6858	98.1445	86.9449	98.1445	86.6707	98.1445	86.8979	98.1445	86.6701	98.1445	86.8599	98.1445	86.6812	98.1445	86.8287	98.1445	86.7003	98.1445	86.8012	98.1445	86.724	98.1445	86.7752	98.1445	86.7495
101.074	87.6265	101.074	87.597	101.074	87.6351	101.074	87.5483	101.074	87.6223	101.074	87.4833	101.074	87.5885	101.074	87.4055	101.074	87.5359	101.074	87.319	101.074	87.4676	101.074	87.2287	101.074	87.388	101.074	87.1391	101.074	87.3024	101.074	87.0551	101.074	87.2166	101.074	86.9808	101.074	87.1361	101.074	86.9197	101.074	87.0659	101.074	86.874	101.074	87.0091	101.074	86.8445	101.074	86.9669	101.074	86.8304	101.074	86.9384	101.074	86.8293	101.074	86.9208	101.074	86.8378	101.074	86.91	101.074	86.8518	101.074	86.902	101.074	86.8676	101.074	86.8934	101.074	86.8819
105.469	87.9889	105.469	87.9588	105.469	87.9974	105.469	87.909	105.469	87.9833	105.469	87.8423	105.469	87.9467	105.469	87.7623	105.469	87.8891	105.469	87.6733	105.469	87.8132	105.469	87.5799	105.469	87.723	105.469	87.4869	105.469	87.6236	105.469	87.3987	105.469	87.5211	105.469	87.3195	105.469	87.4221	105.469	87.2524	105.469	87.3327	105.469	87.1994	105.469	87.2578	105.469	87.1609	105.469	87.2001	105.469	87.1359	105.469	87.1601	105.469	87.1224	105.469	87.136	105.469	87.1171	105.469	87.124	105.469	87.1166	105.469	87.1197	105.469	87.1179	105.469	87.119	105.469	87.1188
108.398	88.2681	108.398	88.2253	108.398	88.2877	108.398	88.1614	108.398	88.2826	108.398	88.0799	108.398	88.2528	108.398	87.985	108.398	88.1994	108.398	87.8814	108.398	88.125	108.398	87.7746	108.398	88.0336	108.398	87.6701	108.398	87.9306	108.398	87.573	108.398	87.8223	108.398	87.4881	108.398	87.7156	108.398	87.4187	108.398	87.6171	108.398	87.3667	108.398	87.5323	108.398	87.3322	108.398	87.4646	108.398	87.3135	108.398	87.4149	108.398	87.3075	108.398	87.3817	108.398	87.3104	108.398	87.3615	108.398	87.3179	108.398	87.3497	108.398	87.3268	108.398	87.342	108.398	87.3349
112.793	88.4963	112.793	88.4524	112.793	88.5151	112.793	88.3856	112.793	88.5079	112.793	88.2992	112.793	88.4753	112.793	88.1978	112.793	88.4191	112.793	88.0868	112.793	88.3426	112.793	87.9723	112.793	88.2503	112.793	87.8606	112.793	88.1481	112.793	87.7578	112.793	88.0423	112.793	87.6694	112.793	87.9397	112.793	87.5992	112.793	87.8466	112.793	87.5495	112.793	87.7679	112.793	87.5203	112.793	87.7062	112.793	87.5094	112.793	87.6618	112.793	87.5131	112.793	87.6324	112.793	87.5264	112.793	87.614	112.793	87.5442	112.793	87.6016	112.793	87.5624	112.793	87.5908	112.793	87.5782
117.188	88.7949	117.188	88.7538	117.188	88.8116	117.188	88.6903	117.188	88.8026	117.188	88.6074	117.188	88.768	117.188	88.5091	117.188	88.7089	117.188	88.3999	117.188	88.6281	117.188	88.2853	117.188	88.5296	117.188	88.1708	117.188	88.4192	117.188	88.0624	117.188	88.3037	117.188	87.9658	117.188	88.1906	117.188	87.8854	117.188	88.0872	117.188	87.8245	117.188	87.9993	117.188	87.784	117.188	87.9305	117.188	87.7629	117.188	87.8814	117.188	87.7578	117.188	87.8499	117.188	87.7641	117.188	87.8314	117.188	87.7766	117.188	87.8206	117.188	87.7905	117.188	87.8123	117.188	87.8027
120.117	88.9197	120.117	88.8752	120.117	88.9393	120.117	88.8083	120.117	88.9324	120.117	88.7224	120.117	88.8986	120.117	88.6217	120.117	88.8389	120.117	88.511	120.117	88.7558	120.117	88.3957	120.117	88.6536	120.117	88.2816	120.117	88.538	120.117	88.1743	120.117	88.4162	120.117	88.0792	120.117	88.2961	120.117	88.0004	120.117	88.1854	120.117	87.9404	120.117	88.0907	120.117	87.9	120.117	88.0161	120.117	87.8777	120.117	87.9629	120.117	87.8699	120.117	87.9292	120.117	87.8721	120.117	87.9109	120.117	87.8794	120.117	87.9023	120.117	87.8875	120.117	87.8981	120.117	87.8938
124.512	89.0482	124.512	89.0028	124.512	89.0677	124.512	88.9339	124.512	89.06	124.512	88.8453	124.512	89.0251	124.512	88.7416	124.512	88.9645	124.512	88.6279	124.512	88.8813	124.512	88.5103	124.512	88.7804	124.512	88.3948	124.512	88.6679	124.512	88.2876	124.512	88.551	124.512	88.1938	124.512	88.4373	124.512	88.1178	124.512	88.3338	124.512	88.0619	124.512	88.2462	124.512	88.0265	124.512	88.1778	124.512	88.0097	124.512	88.1291	124.512	88.0077	124.512	88.0979	124.512	88.0157	124.512	88.0798	124.512	88.0286	124.512	88.0695	124.512	88.0421	124.512	88.062	124.512	88.0535
128.906	89.1837	128.906	89.1335	128.906	89.2076	128.906	89.0597	128.906	89.2038	128.906	88.9662	128.906	89.1722	128.906	88.8578	128.906	89.1146	128.906	88.7403	128.906	89.034	128.906	88.6202	128.906	88.9352	128.906	88.5042	128.906	88.8248	128.906	88.399	128.906	88.7102	128.906	88.3102	128.906	88.5994	128.906	88.2421	128.906	88.4998	128.906	88.1967	128.906	88.4174	128.906	88.1736	128.906	88.3554	128.906	88.1699	128.906	88.3139	128.906	88.1809	128.906	88.2898	128.906	88.2006	128.906	88.2781	128.906	88.223	128.906	88.2726	128.906	88.2433	128.906	88.2674	128.906	88.2583
133.301	89.3286	133.301	89.2747	133.301	89.3523	133.301	89.1934	133.301	89.345	133.301	89.0887	133.301	89.3072	133.301	88.9661	133.301	89.2412	133.301	88.832	133.301	89.1509	133.301	88.6941	133.301	89.0421	133.301	88.5605	133.301	88.9221	133.301	88.4391	133.301	88.799	133.301	88.337	133.301	88.6814	133.301	88.2595	133.301	88.577	133.301	88.2094	133.301	88.4915	133.301	88.1862	133.301	88.4279	133.301	88.1865	133.301	88.3857	133.301	88.2045	133.301	88.3612	133.301	88.2331	133.301	88.3484	133.301	88.265	133.301	88.3407	133.301	88.2942	133.301	88.3316	133.301	88.3168
139.16	89.3451	139.16	89.2901	139.16	89.3706	139.16	89.2085	139.16	89.3657	139.16	89.1043	139.16	89.331	139.16	88.9832	139.16	89.2689	139.16	88.8523	139.16	89.1834	139.16	88.7193	139.16	89.0804	139.16	88.5926	139.16	88.9672	139.16	88.4803	139.16	88.8522	139.16	88.3894	139.16	88.744	139.16	88.325	139.16	88.6506	139.16	88.2895	139.16	88.5778	139.16	88.2817	139.16	88.5282	139.16	88.2975	139.16	88.5005	139.16	88.33	139.16	88.4899	139.16	88.3713	139.16	88.4894	139.16	88.4132	139.16	88.4909	139.16	88.449	139.16	88.4875	139.16	88.4742
143.555	89.4785	143.555	89.4169	143.555	89.5113	143.555	89.3295	143.555	89.5138	143.555	89.2205	143.555	89.4858	143.555	89.0955	143.555	89.429	143.555	88.9612	143.555	89.3465	143.555	88.8254	143.555	89.2438	143.555	88.6965	143.555	89.128	143.555	88.583	143.555	89.0079	143.555	88.4922	143.555	88.8931	143.555	88.4295	143.555	88.7925	143.555	88.3972	143.555	88.7131	143.555	88.394	143.555	88.6583	143.555	88.415	143.555	88.6274	143.555	88.4528	143.555	88.6158	143.555	88.4984	143.555	88.616	143.555	88.5434	143.555	88.6193	143.555	88.5806	143.555	88.6178	143.555	88.6057
147.949	89.6045	147.949	89.5377	147.949	89.6362	147.949	89.4387	147.949	89.6315	147.949	89.3117	147.949	89.591	147.949	89.1626	147.949	89.5168	147.949	88.9991	147.949	89.4132	147.949	88.8303	147.949	89.2868	147.949	88.6666	147.949	89.1459	147.949	88.5189	147.949	89.0007	147.949	88.3972	147.949	88.8619	147.949	88.3091	147.949	88.7395	147.949	88.2584	147.949	88.6411	147.949	88.2442	147.949	88.5707	147.949	88.261	147.949	88.5277	147.949	88.2997	147.949	88.5069	147.949	88.3497	147.949	88.5002	147.949	88.4005	147.949	88.498	147.949	88.4438	147.949	88.4917	147.949	88.4746
153.809	89.6146	153.809	89.546	153.809	89.6453	153.809	89.4418	153.809	89.6376	153.809	89.3059	153.809	89.5931	153.809	89.1443	153.809	89.5147	153.809	88.9651	153.809	89.4074	153.809	88.7782	153.809	89.278	153.809	88.5951	153.809	89.135	153.809	88.4282	153.809	88.9882	153.809	88.2892	153.809	88.8479	153.809	88.1875	153.809	88.7236	153.809	88.1284	153.809	88.6227	153.809	88.1117	153.809	88.5489	153.809	88.1317	153.809	88.5013	153.809	88.1785	153.809	88.4747	153.809	88.24	153.809	88.461	153.809	88.3042	153.809	88.4503	153.809	88.3612	153.809	88.4338	153.809	88.405
159.668	89.8535	159.668	89.7858	159.668	89.883	159.668	89.6818	159.668	89.8744	159.668	89.5449	159.668	89.8294	159.668	89.3805	159.668	89.7515	159.668	89.196	159.668	89.6462	159.668	89.0008	159.668	89.521	159.668	88.8065	159.668	89.3849	159.668	88.626	159.668	89.2478	159.668	88.4726	159.668	89.1197	159.668	88.358	159.668	89.0093	159.668	88.2897	159.668	88.9219	159.668	88.27	159.668	88.8592	159.668	88.2943	159.668	88.8184	159.668	88.3526	159.668	88.7927	159.668	88.4318	159.668	88.7732	159.668	88.5179	159.668	88.7505	159.668	88.5988	159.668	88.7165	159.668	88.6663
165.527	89.9504	165.527	89.8946	165.527	89.9662	165.527	89.8009	165.527	89.9418	165.527	89.6733	165.527	89.8787	165.527	89.5173	165.527	89.7809	165.527	89.3408	165.527	89.6547	165.527	89.1534	165.527	89.5087	165.527	88.9666	165.527	89.354	165.527	88.7934	165.527	89.2029	165.527	88.647	165.527	89.0678	165.527	88.5388	165.527	88.9591	165.527	88.4761	165.527	88.8833	165.527	88.4606	165.527	88.8412	165.527	88.4874	165.527	88.8279	165.527	88.5458	165.527	88.834	165.527	88.6218	165.527	88.8472	165.527	88.7007	165.527	88.8554	165.527	88.7699	165.527	88.8486	165.527	88.8205
171.387	89.8735	171.387	89.8156	171.387	89.8888	171.387	89.7174	171.387	89.8612	171.387	89.5825	171.387	89.7925	171.387	89.417	171.387	89.6863	171.387	89.2286	171.387	89.5487	171.387	89.0274	171.387	89.3884	171.387	88.8258	171.387	89.2165	171.387	88.6376	171.387	89.0462	171.387	88.477	171.387	88.8911	171.387	88.3564	171.387	88.7633	171.387	88.2841	171.387	88.6712	171.387	88.2619	171.387	88.6173	171.387	88.2845	171.387	88.5974	171.387	88.3406	171.387	88.6017	171.387	88.415	171.387	88.617	171.387	88.4921	171.387	88.6296	171.387	88.5584	171.387	88.628	171.387	88.605
177.246	89.8368	177.246	89.7688	177.246	89.8608	177.246	89.6585	177.246	89.8408	177.246	89.5098	177.246	89.7786	177.246	89.3285	177.246	89.6782	177.246	89.1229	177.246	89.5457	177.246	88.904	177.246	89.3896	177.246	88.6854	177.246	89.2207	177.246	88.4829	177.246	89.0518	177.246	88.3126	177.246	88.8959	177.246	88.1887	177.246	88.7651	177.246	88.1204	177.246	88.6682	177.246	88.1091	177.246	88.608	177.246	88.1479	177.246	88.5813	177.246	88.2228	177.246	88.5788	177.246	88.3165	177.246	88.5875	177.246	88.4112	177.246	88.5932	177.246	88.4926	177.246	88.5839	177.246	88.5513
183.105	89.8491	183.105	89.7842	183.105	89.8673	183.105	89.6737	183.105	89.8396	183.105	89.5207	183.105	89.7685	183.105	89.3305	183.105	89.6593	183.105	89.1109	183.105	89.5195	183.105	88.8728	183.105	89.3591	183.105	88.6308	183.105	89.1906	183.105	88.4029	183.105	89.0275	183.105	88.2088	183.105	88.8832	183.105	88.0673	183.105	88.7684	183.105	87.9915	183.105	88.6893	183.105	87.985	183.105	88.6462	183.105	88.0404	183.105	88.633	183.105	88.1409	183.105	88.6386	183.105	88.2646	183.105	88.6491	183.105	88.3898	183.105	88.6503	183.105	88.4989	183.105	88.6301	183.105	88.5804
188.965	89.9485	188.965	89.9064	188.965	89.9394	188.965	89.8141	188.965	89.8803	188.965	89.674	188.965	89.7744	188.965	89.4904	188.965	89.6277	188.965	89.27	188.965	89.4491	188.965	89.0222	188.965	89.2507	188.965	88.76	188.965	89.0473	188.965	88.5005	188.965	88.8555	188.965	88.2645	188.965	88.6914	188.965	88.0739	188.965	88.5676	188.965	87.9476	188.965	88.4905	188.965	87.8958	188.965	88.458	188.965	87.9167	188.965	88.4603	188.965	87.9961	188.965	88.4819	188.965	88.1114	188.965	88.5052	188.965	88.2375	188.965	88.5136	188.965	88.3525	188.965	88.4945	188.965	88.4408
196.289	90.0059	196.289	89.9883	196.289	89.9743	196.289	89.9217	196.289	89.8948	196.289	89.807	196.289	89.7702	196.289	89.6468	196.289	89.6061	196.289	89.4448	196.289	89.4111	196.289	89.2076	196.289	89.1973	196.289	88.9451	196.289	88.9802	196.289	88.6716	196.289	88.7774	196.289	88.4063	196.289	88.6058	196.289	88.1719	196.289	88.4778	196.289	87.991	196.289	88.3987	196.289	87.8803	196.289	88.3643	196.289	87.8459	196.289	88.3624	196.289	87.8803	196.289	88.3762	196.289	87.9647	196.289	88.3877	196.289	88.0747	196.289	88.3816	196.289	88.1865	196.289	88.3474	196.289	88.2812
203.613	89.8743	203.613	89.8578	203.613	89.8375	203.613	89.7909	203.613	89.7464	203.613	89.6779	203.613	89.6022	203.613	89.5244	203.613	89.4094	203.613	89.3372	203.613	89.177	203.613	89.1253	203.613	88.9194	203.613	88.8996	203.613	88.6569	203.613	88.6738	203.613	88.4141	203.613	88.4639	203.613	88.2172	203.613	88.287	203.613	88.0869	203.613	88.1585	203.613	88.033	203.613	88.0883	203.613	88.05	203.613	88.0779	203.613	88.1189	203.613	88.1183	203.613	88.2135	203.613	88.1921	203.613	88.3069	203.613	88.2777	203.613	88.3772	203.613	88.3533	203.613	88.4104	203.613	88.4013
210.938	89.9408	210.938	89.9224	210.938	89.9048	210.938	89.853	210.938	89.812	210.938	89.7367	210.938	89.6619	210.938	89.5783	210.938	89.4565	210.938	89.3836	210.938	89.2018	210.938	89.1601	210.938	88.9091	210.938	88.9177	210.938	88.5965	210.938	88.6694	210.938	88.289	210.938	88.4316	210.938	88.0167	210.938	88.2226	210.938	87.8093	210.938	88.0603	210.938	87.6878	210.938	87.9571	210.938	87.6572	210.938	87.9159	210.938	87.7037	210.938	87.9284	210.938	87.7994	210.938	87.9763	210.938	87.9116	210.938	88.0359	210.938	88.0111	210.938	88.0839	210.938	88.0776	210.938	88.1014
218.262	89.7378	218.262	89.6995	218.262	89.7232	218.262	89.6125	218.262	89.6535	218.262	89.4821	218.262	89.5286	218.262	89.3149	218.262	89.3515	218.262	89.1189	218.262	89.1292	218.262	88.9034	218.262	88.8739	218.262	88.6801	218.262	88.6036	218.262	88.4629	218.262	88.3424	218.262	88.268	218.262	88.1174	218.262	88.1119	218.262	87.9543	218.262	88.0085	218.262	87.8695	218.262	87.965	218.262	87.8646	218.262	87.9792	218.262	87.9252	218.262	88.0384	218.262	88.0255	218.262	88.1224	218.262	88.1359	218.262	88.2081	218.262	88.2301	218.262	88.274	218.262	88.2893	218.262	88.3039
225.586	89.8705	225.586	89.8346	225.586	89.8443	225.586	89.7414	225.586	89.7527	225.586	89.597	225.586	89.5945	225.586	89.4084	225.586	89.3715	225.586	89.1839	225.586	89.0904	225.586	88.9341	225.586	88.7644	225.586	88.6719	225.586	88.4159	225.586	88.4138	225.586	88.077	225.586	88.1796	225.586	87.7874	225.586	87.9903	225.586	87.5863	225.586	87.8646	225.586	87.4993	225.586	87.8132	225.586	87.5276	225.586	87.8341	225.586	87.6464	225.586	87.9117	225.586	87.8143	225.586	88.0203	225.586	87.9876	225.586	88.1298	225.586	88.1307	225.586	88.2126	225.586	88.2204	225.586	88.247
232.91	89.8783	232.91	89.8319	232.91	89.8634	232.91	89.7299	232.91	89.7818	232.91	89.5785	232.91	89.6293	232.91	89.3846	232.91	89.4034	232.91	89.1557	232.91	89.1054	232.91	88.9007	232.91	88.7421	232.91	88.6311	232.91	88.3296	232.91	88.3611	232.91	87.8965	232.91	88.1085	232.91	87.4859	232.91	87.8931	232.91	87.1512	232.91	87.7336	232.91	86.9421	232.91	87.6421	232.91	86.8848	232.91	87.6194	232.91	86.9676	232.91	87.6524	232.91	87.1459	232.91	87.7166	232.91	87.3617	232.91	87.7813	232.91	87.5629	232.91	87.8166	232.91	87.7142	232.91	87.7988
241.699	89.7926	241.699	89.689	241.699	89.8314	241.699	89.5284	241.699	89.7991	241.699	89.3202	241.699	89.6905	241.699	89.0754	241.699	89.5022	241.699	88.8071	241.699	89.2335	241.699	88.5306	241.699	88.8882	241.699	88.2625	241.699	88.4777	241.699	88.02	241.699	88.0246	241.699	87.8186	241.699	87.5658	241.699	87.6701	241.699	87.1526	241.699	87.5794	241.699	86.8418	241.699	87.5434	241.699	86.6773	241.699	87.5508	241.699	86.6698	241.699	87.5833	241.699	86.7907	241.699	87.6186	241.699	86.9866	241.699	87.6337	241.699	87.2009	241.699	87.6086	241.699	87.3902	241.699	87.5289
250.488	90.1662	250.488	90.0157	250.488	90.2436	250.488	89.7936	250.488	90.2463	250.488	89.5023	250.488	90.1726	250.488	89.1461	250.488	90.021	250.488	88.7336	250.488	89.7909	250.488	88.2802	250.488	89.4839	250.488	87.8115	250.488	89.106	250.488	87.3647	250.488	88.6708	250.488	86.9856	250.488	88.2027	250.488	86.7192	250.488	87.7398	250.488	86.5931	250.488	87.3319	250.488	86.6047	250.488	87.0301	250.488	86.7208	250.488	86.868	250.488	86.8906	250.488	86.8451	250.488	87.0626	250.488	86.9257	250.488	87.1955	250.488	87.0548	250.488	87.2632	250.488	87.1783	250.488	87.2554
259.277	90.0287	259.277	89.9204	259.277	90.0741	259.277	89.7502	259.277	90.0555	259.277	89.5197	259.277	89.9722	259.277	89.231	259.277	89.8242	259.277	88.8884	259.277	89.6128	259.277	88.5003	259.277	89.3417	259.277	88.0813	259.277	89.0183	259.277	87.6555	259.277	88.6557	259.277	87.2573	259.277	88.275	259.277	86.9286	259.277	87.9058	259.277	86.7092	259.277	87.5842	259.277	86.622	259.277	87.3448	259.277	86.661	259.277	87.2083	259.277	86.792	259.277	87.1712	259.277	86.9655	259.277	87.2055	259.277	87.1328	259.277	87.2685	259.277	87.2571	259.277	87.3173	259.277	87.319
268.066	89.9242	268.066	89.8142	268.066	89.9607	268.066	89.6295	268.066	89.925	268.066	89.3698	268.066	89.8189	268.066	89.0358	268.066	89.645	268.066	88.632	268.066	89.407	268.066	88.1687	268.066	89.111	268.066	87.6659	268.066	88.7663	268.066	87.157	268.066	88.3877	268.066	86.6902	268.066	87.9967	268.066	86.3225	268.066	87.6228	268.066	86.1042	268.066	87.3006	268.066	86.0569	268.066	87.0629	268.066	86.1609	268.066	86.9292	268.066	86.3632	268.066	86.8955	268.066	86.5992	268.066	86.9335	268.066	86.8132	268.066	86.9998	268.066	86.9675	268.066	87.049	268.066	87.0452
276.855	90.1091	276.855	90.0338	276.855	90.1161	276.855	89.8893	276.855	90.0555	276.855	89.6735	276.855	89.928	276.855	89.3833	276.855	89.7365	276.855	89.0157	276.855	89.4865	276.855	88.5701	276.855	89.1879	276.855	88.0522	276.855	88.8555	276.855	87.48	276.855	88.5096	276.855	86.891	276.855	88.174	276.855	86.3469	276.855	87.8733	276.855	85.9272	276.855	87.6277	276.855	85.703	276.855	87.4478	276.855	85.6995	276.855	87.3312	276.855	85.8784	276.855	87.2627	276.855	86.1609	276.855	87.2179	276.855	86.4663	276.855	87.1679	276.855	86.7373	276.855	87.0845	276.855	86.945
287.109	89.9536	287.109	89.9329	287.109	89.9037	287.109	89.8421	287.109	89.783	287.109	89.6818	287.109	89.5922	287.109	89.4525	287.109	89.3339	287.109	89.1545	287.109	89.0137	287.109	88.7901	287.109	88.6427	287.109	88.3652	287.109	88.2407	287.109	87.8944	287.109	87.8395	287.109	87.4061	287.109	87.4826	287.109	86.9465	287.109	87.2181	287.109	86.5774	287.109	87.0814	287.109	86.3597	287.109	87.0776	287.109	86.3262	287.109	87.1761	287.109	86.4612	287.109	87.3227	287.109	86.7071	287.109	87.46	287.109	86.9912	287.109	87.542	287.109	87.2502	287.109	87.5395	287.109	87.4406
297.363	90.2185	297.363	90.1827	297.363	90.1898	297.363	90.0902	297.363	90.087	297.363	89.9464	297.363	89.9	297.363	89.7529	297.363	89.6191	297.363	89.5081	297.363	89.2371	297.363	89.2081	297.363	88.7523	297.363	88.85	297.363	88.1738	297.363	88.4375	297.363	87.5313	297.363	87.987	297.363	86.8861	297.363	87.5337	297.363	86.3363	297.363	87.1318	297.363	85.9948	297.363	86.8432	297.363	85.9315	297.363	86.7128	297.363	86.1207	297.363	86.7426	297.363	86.4557	297.363	86.8879	297.363	86.8137	297.363	87.0771	297.363	87.1033	297.363	87.2387	297.363	87.2757	297.363	87.3166
307.617	89.8107	307.617	89.6973	307.617	89.8629	307.617	89.5297	307.617	89.8472	307.617	89.3142	307.617	89.7572	307.617	89.0561	307.617	89.5866	307.617	88.7584	307.617	89.3298	307.617	88.4227	307.617	88.982	307.617	88.0519	307.617	88.5424	307.617	87.6544	307.617	88.0194	307.617	87.251	307.617	87.4393	307.617	86.8783	307.617	86.8569	307.617	86.5865	307.617	86.359	307.617	86.4229	307.617	86.0438	307.617	86.408	307.617	85.9708	307.617	86.5195	307.617	86.1167	307.617	86.6996	307.617	86.3881	307.617	86.878	307.617	86.6754	307.617	86.9937	307.617	86.8959	307.617	87.0055
319.336	89.6967	319.336	89.5875	319.336	89.7388	319.336	89.4149	319.336	89.7097	319.336	89.1816	319.336	89.6051	319.336	88.8895	319.336	89.4201	319.336	88.5395	319.336	89.1493	319.336	88.1334	319.336	88.7869	319.336	87.6768	319.336	88.3297	319.336	87.1845	319.336	87.7822	319.336	86.6885	319.336	87.1672	319.336	86.2435	319.336	86.5401	319.336	85.9217	319.336	85.9981	319.336	85.7879	319.336	85.6607	319.336	85.8611	319.336	85.6071	319.336	86.0951	319.336	85.8126	319.336	86.3997	319.336	86.161	319.336	86.6802	319.336	86.5175	319.336	86.8626	319.336	86.7822	319.336	86.902
329.59	89.61	329.59	89.4952	329.59	89.6636	329.59	89.3217	329.59	89.6543	329.59	89.0919	329.59	89.5807	329.59	88.8072	329.59	89.4402	329.59	88.4662	329.59	89.2278	329.59	88.0651	329.59	88.935	329.59	87.6005	329.59	88.5511	329.59	87.0752	329.59	88.0671	329.59	86.5091	329.59	87.4843	329.59	85.95	329.59	86.8279	329.59	85.4786	329.59	86.1632	329.59	85.1893	329.59	85.6023	329.59	85.1398	329.59	85.2717	329.59	85.305	329.59	85.2328	329.59	85.5864	329.59	85.4269	329.59	85.8661	329.59	85.7157	329.59	86.0507	329.59	85.9644	329.59	86.0873
341.309	89.1275	341.309	88.9894	341.309	89.1848	341.309	88.7759	341.309	89.1606	341.309	88.4968	341.309	89.0586	341.309	88.1631	341.309	88.8859	341.309	87.7848	341.309	88.6497	341.309	87.3678	341.309	88.3544	341.309	86.9136	341.309	87.9997	341.309	86.4244	341.309	87.5816	341.309	85.9132	341.309	87.099	341.309	85.4186	341.309	86.5657	341.309	85.0135	341.309	86.026	341.309	84.7893	341.309	85.5629	341.309	84.8045	341.309	85.2785	341.309	85.0339	341.309	85.2345	341.309	85.3746	341.309	85.3977	341.309	85.7031	341.309	85.6553	341.309	85.9233	341.309	85.8812	341.309	85.9844
353.027	89.6797	353.027	89.5482	353.027	89.7188	353.027	89.3234	353.027	89.6684	353.027	89.0053	353.027	89.5335	353.027	88.5943	353.027	89.3213	353.027	88.0905	353.027	89.0399	353.027	87.4945	353.027	88.6969	353.027	86.8092	353.027	88.2962	353.027	86.0454	353.027	87.8375	353.027	85.2333	353.027	87.3181	353.027	84.4407	353.027	86.7413	353.027	83.787	353.027	86.1302	353.027	83.4191	353.027	85.5426	353.027	83.4222	353.027	85.0708	353.027	83.7363	353.027	84.8044	353.027	84.1937	353.027	84.7643	353.027	84.6257	353.027	84.8746	353.027	84.924	353.027	85.0069	353.027	85.0461
366.211	90.3445	366.211	90.2987	366.211	90.2919	366.211	90.1565	366.211	90.1382	366.211	89.9193	366.211	89.8817	366.211	89.5872	366.211	89.5215	366.211	89.1584	366.211	89.0603	366.211	88.6288	366.211	88.5059	366.211	87.9921	366.211	87.8748	366.211	87.2415	366.211	87.1962	366.211	86.3763	366.211	86.5136	366.211	85.4169	366.211	85.8835	366.211	84.4318	366.211	85.3661	366.211	83.5668	366.211	85.0073	366.211	83.0269	366.211	84.8197	366.211	82.9472	366.211	84.7725	366.211	83.2585	366.211	84.7999	366.211	83.7475	366.211	84.821	366.211	84.2194	366.211	84.7614	366.211	84.5675
379.395	90.1048	379.395	89.9732	379.395	90.1496	379.395	89.7627	379.395	90.1013	379.395	89.4828	379.395	89.9555	379.395	89.1429	379.395	89.7096	379.395	88.7503	379.395	89.3623	379.395	88.3074	379.395	88.9126	379.395	87.8099	379.395	88.3599	379.395	87.2487	379.395	87.705	379.395	86.6165	379.395	86.9556	379.395	85.921	379.395	86.1388	379.395	85.2041	379.395	85.3219	379.395	84.5559	379.395	84.6252	379.395	84.1027	379.395	84.1922	379.395	83.9398	379.395	84.0935	379.395	84.0516	379.395	84.2532	379.395	84.3129	379.395	84.5014	379.395	84.5703	379.395	84.6828	379.395	84.7107
392.578	90.1315	392.578	89.9739	392.578	90.1669	392.578	89.6918	392.578	90.0845	392.578	89.2853	392.578	89.8913	392.578	88.7583	392.578	89.5978	392.578	88.1206	392.578	89.2193	392.578	87.3883	392.578	88.7735	392.578	86.584	392.578	88.2769	392.578	85.7342	392.578	87.7372	392.578	84.8693	392.578	87.1487	392.578	84.0307	392.578	86.4948	392.578	83.2849	392.578	85.763	392.578	82.7334	392.578	84.9716	392.578	82.4794	392.578	84.2003	392.578	82.5469	392.578	83.5929	392.578	82.8333	392.578	83.2815	392.578	83.1675	392.578	83.2632	392.578	83.4038	392.578	83.3867	392.578	83.4709
405.762	90.8606	405.762	90.846	405.762	90.7546	405.762	90.7053	405.762	90.5286	405.762	90.4277	405.762	90.1807	405.762	89.9989	405.762	89.7097	405.762	89.4031	405.762	89.1204	405.762	88.6269	405.762	88.4304	405.762	87.662	405.762	87.677	405.762	86.5092	405.762	86.9223	405.762	85.1865	405.762	86.2442	405.762	83.7484	405.762	85.7039	405.762	82.3257	405.762	85.3073	405.762	81.1653	405.762	84.9994	405.762	80.5613	405.762	84.7052	405.762	80.6066	405.762	84.3755	405.762	81.0848	405.762	84.0039	405.762	81.7015	405.762	83.6096	405.762	82.2811	405.762	83.2054	405.762	82.7752
420.41	90.6514	420.41	90.6156	420.41	90.643	420.41	90.5346	420.41	90.5834	420.41	90.3993	420.41	90.4578	420.41	90.1947	420.41	90.2463	420.41	89.9023	420.41	89.9265	420.41	89.5021	420.41	89.476	420.41	88.9744	420.41	88.8767	420.41	88.3024	420.41	88.1207	420.41	87.4751	420.41	87.2215	420.41	86.4951	420.41	86.2312	420.41	85.3946	420.41	85.2551	420.41	84.2588	420.41	84.4403	420.41	83.2471	420.41	83.9068	420.41	82.5628	420.41	83.6594	420.41	82.3286	420.41	83.584	420.41	82.4768	420.41	83.5347	420.41	82.8131	420.41	83.4063	420.41	83.1571
435.059	89.5262	435.059	89.5606	435.059	89.4552	435.059	89.5559	435.059	89.3448	435.059	89.5022	435.059	89.1886	435.059	89.3819	435.059	88.9772	435.059	89.1706	435.059	88.699	435.059	88.8401	435.059	88.3399	435.059	88.3638	435.059	87.8879	435.059	87.7231	435.059	87.3412	435.059	86.9178	435.059	86.7224	435.059	85.983	435.059	86.0934	435.059	85.0142	435.059	85.5552	435.059	84.1832	435.059	85.2117	435.059	83.6922	435.059	85.1034	435.059	83.6405	435.059	85.1731	435.059	83.9377	435.059	85.3053	435.059	84.391	435.059	85.3902	435.059	84.8341	435.059	85.3557	435.059	85.1695
451.172	89.8082	451.172	89.7272	451.172	89.8298	451.172	89.5962	451.172	89.7792	451.172	89.4186	451.172	89.641	451.172	89.1898	451.172	89.3986	451.172	88.8957	451.172	89.0328	451.172	88.5123	451.172	88.5218	451.172	88.0079	451.172	87.841	451.172	87.3469	451.172	86.967	451.172	86.4971	451.172	85.8871	451.172	85.4461	451.172	84.6251	451.172	84.2366	451.172	83.2916	451.172	83.0293	451.172	82.1493	451.172	82.1428	451.172	81.5615	451.172	81.8834	451.172	81.6714	451.172	82.2018	451.172	82.2148	451.172	82.7409	451.172	82.815	451.172	83.1812	451.172	83.232	451.172	83.3614
465.82	89.5359	465.82	89.4873	465.82	89.5417	465.82	89.3926	465.82	89.5033	465.82	89.2432	465.82	89.4138	465.82	89.0248	465.82	89.2617	465.82	88.718	465.82	89.0306	465.82	88.2994	465.82	88.7002	465.82	87.7433	465.82	88.247	465.82	87.0237	465.82	87.6464	465.82	86.1178	465.82	86.8805	465.82	85.0166	465.82	85.953	465.82	83.7526	465.82	84.9159	465.82	82.4571	465.82	83.8961	465.82	81.4177	465.82	83.0838	465.82	80.9704	465.82	82.6309	465.82	81.1591	465.82	82.52	465.82	81.671	465.82	82.5799	465.82	82.1743	465.82	82.6174	465.82	82.5008
483.398	89.1579	483.398	89.1729	483.398	89.1393	483.398	89.1875	483.398	89.1137	483.398	89.1986	483.398	89.0796	483.398	89.1896	483.398	89.0326	483.398	89.1277	483.398	88.9568	483.398	88.9671	483.398	88.8172	483.398	88.6538	483.398	88.5588	483.398	88.1286	483.398	88.1154	483.398	87.3274	483.398	87.4275	483.398	86.1825	483.398	86.4661	483.398	84.637	483.398	85.2682	483.398	82.7002	483.398	83.985	483.398	80.6329	483.398	82.9029	483.398	79.2508	483.398	82.3041	483.398	79.3379	483.398	82.1893	483.398	80.3302	483.398	82.2775	483.398	81.3266	483.398	82.2711	483.398	81.9836
499.512	87.9959	499.512	88.0862	499.512	87.9392	499.512	88.2265	499.512	87.912	499.512	88.43	499.512	87.922	499.512	88.6892	499.512	87.9762	499.512	88.9676	499.512	88.0636	499.512	89.2076	499.512	88.1451	499.512	89.3464	499.512	88.1583	499.512	89.3264	499.512	88.0345	499.512	89.1003	499.512	87.7167	499.512	88.6325	499.512	87.1764	499.512	87.9014	499.512	86.4269	499.512	86.9073	499.512	85.5356	499.512	85.6897	499.512	84.6223	499.512	84.3598	499.512	83.8198	499.512	83.1328	499.512	83.1995	499.512	82.2838	499.512	82.7333	499.512	81.9603	499.512	82.3534	499.512	82.0544
517.09	87.544	517.09	87.3789	517.09	87.5971	517.09	87.1499	517.09	87.5335	517.09	86.9449	517.09	87.3877	517.09	86.8607	517.09	87.2248	517.09	86.9425	517.09	87.1207	517.09	87.1453	517.09	87.1231	517.09	87.3638	517.09	87.2158	517.09	87.4939	517.09	87.3236	517.09	87.473	517.09	87.3558	517.09	87.2923	517.09	87.2524	517.09	87.0002	517.09	87.0142	517.09	86.6941	517.09	86.7158	517.09	86.4869	517.09	86.4856	517.09	86.4469	517.09	86.4313	517.09	86.5581	517.09	86.5543	517.09	86.7404	517.09	86.7551	517.09	86.9012	517.09	86.9175	517.09	86.971
536.133	88.4745	536.133	88.2928	536.133	88.507	536.133	88.0072	536.133	88.3618	536.133	87.68	536.133	88.0252	536.133	87.384	536.133	87.4995	536.133	87.1741	536.133	86.8055	536.133	87.048	536.133	85.9909	536.133	86.9291	536.133	85.1502	536.133	86.6962	536.133	84.4425	536.133	86.2309	536.133	84.0419	536.133	85.4569	536.133	84.0046	536.133	84.3898	536.133	84.2234	536.133	83.2494	536.133	84.5579	536.133	82.5713	536.133	84.9408	536.133	82.8367	536.133	85.3538	536.133	83.7915	536.133	85.7607	536.133	84.8367	536.133	86.0823	536.133	85.6341	536.133	86.2209	536.133	86.0909
555.176	88.3712	555.176	88.0359	555.176	88.5631	555.176	87.5863	555.176	88.6194	555.176	87.1106	555.176	88.564	555.176	86.7549	555.176	88.4171	555.176	86.6546	555.176	88.1773	555.176	86.8197	555.176	87.8101	555.176	87.1091	555.176	87.2464	555.176	87.3262	555.176	86.3956	555.176	87.3032	555.176	85.1753	555.176	86.9185	555.176	83.5859	555.176	86.0971	555.176	81.9234	555.176	84.8424	555.176	81.0641	555.176	83.3555	555.176	81.6651	555.176	82.2313	555.176	82.9884	555.176	82.1788	555.176	84.1585	555.176	83.0295	555.176	84.865	555.176	84.0409	555.176	85.0612	555.176	84.7689
574.219	88.6422	574.219	88.279	574.219	88.775	574.219	87.6641	574.219	88.7136	574.219	86.8119	574.219	88.506	574.219	85.8233	574.219	88.2119	574.219	84.9564	574.219	87.895	574.219	84.58	574.219	87.5986	574.219	84.8364	574.219	87.3115	574.219	85.432	574.219	86.9487	574.219	85.9484	574.219	86.3639	574.219	86.1189	574.219	85.386	574.219	85.845	574.219	83.8809	574.219	85.1665	574.219	81.9325	574.219	84.2804	574.219	80.383	574.219	83.5599	574.219	80.6503	574.219	83.3701	574.219	82.1583	574.219	83.697	574.219	83.5106	574.219	84.1753	574.219	84.2674	574.219	84.4428
594.727	88.7718	594.727	88.5683	594.727	88.7753	594.727	88.1415	594.727	88.5949	594.727	87.4616	594.727	88.2482	594.727	86.5069	594.727	87.766	594.727	85.298	594.727	87.1992	594.727	83.9592	594.727	86.6152	594.727	82.7804	594.727	86.0809	594.727	82.1194	594.727	85.6196	594.727	82.0259	594.727	85.159	594.727	82.1322	594.727	84.5299	594.727	82.0494	594.727	83.5421	594.727	81.6524	594.727	82.1071	594.727	81.1495	594.727	80.4991	594.727	81.0104	594.727	79.7229	594.727	81.5033	594.727	80.483	594.727	82.3189	594.727	81.8198	594.727	82.9772	594.727	82.8048	594.727	83.1841
615.234	88.4779	615.234	88.3304	615.234	88.5123	615.234	88.0601	615.234	88.4419	615.234	87.6612	615.234	88.2712	615.234	87.1443	615.234	87.9976	615.234	86.5426	615.234	87.6042	615.234	85.8999	615.234	87.0601	615.234	85.2362	615.234	86.3343	615.234	84.5197	615.234	85.4178	615.234	83.6732	615.234	84.3398	615.234	82.6071	615.234	83.1715	615.234	81.2664	615.234	82.021	615.234	79.7239	615.234	81.0277	615.234	78.3969	615.234	80.364	615.234	78.0762	615.234	80.1934	615.234	78.9223	615.234	80.5084	615.234	80.1262	615.234	81.0423	615.234	81.0513	615.234	81.4508	615.234	81.4924
637.207	88.3649	637.207	88.0904	637.207	88.4721	637.207	87.6193	637.207	88.4585	637.207	86.9582	637.207	88.3765	637.207	86.1789	637.207	88.2732	637.207	85.4341	637.207	88.1707	637.207	84.9122	637.207	88.0443	637.207	84.6989	637.207	87.8187	637.207	84.6649	637.207	87.3823	637.207	84.5463	637.207	86.6075	637.207	84.1147	637.207	85.3552	637.207	83.2638	637.207	83.4638	637.207	82.0389	637.207	80.7785	637.207	80.7286	637.207	77.5903	637.207	79.9377	637.207	76.3189	637.207	80.0923	637.207	78.1726	637.207	80.8114	637.207	80.1622	637.207	81.4658	637.207	81.315	637.207	81.6963
659.18	89.02	659.18	88.9067	659.18	88.9312	659.18	88.564	659.18	88.7023	659.18	88.0074	659.18	88.4176	659.18	87.3102	659.18	88.1592	659.18	86.6137	659.18	87.9775	659.18	86.0986	659.18	87.8792	659.18	85.8843	659.18	87.8331	659.18	85.9106	659.18	87.7732	659.18	85.941	659.18	87.5908	659.18	85.6911	659.18	87.1342	659.18	84.9245	659.18	86.2421	659.18	83.4911	659.18	84.8276	659.18	81.4737	659.18	83.0658	659.18	79.7776	659.18	81.721	659.18	80.0102	659.18	81.7019	659.18	81.5257	659.18	82.5494	659.18	82.8049	659.18	83.2627	659.18	83.3904
682.617	92.055	682.617	91.9541	682.617	91.9502	682.617	91.6291	682.617	91.6662	682.617	91.0788	682.617	91.2369	682.617	90.3381	682.617	90.7072	682.617	89.5	682.617	90.1394	682.617	88.7171	682.617	89.6214	682.617	88.1489	682.617	89.2573	682.617	87.8495	682.617	89.0849	682.617	87.676	682.617	88.9678	682.617	87.332	682.617	88.6402	682.617	86.5079	682.617	87.859	682.617	85.0007	682.617	86.516	682.617	82.9284	682.617	84.8642	682.617	81.518	682.617	83.9702	682.617	82.4992	682.617	84.6915	682.617	84.5401	682.617	85.9808	682.617	86.1027	682.617	86.8023	682.617	86.8604
707.52	92.7986	707.52	92.604	707.52	92.7509	707.52	92.126	707.52	92.5117	707.52	91.3617	707.52	92.1282	707.52	90.3842	707.52	91.641	707.52	89.3572	707.52	91.0829	707.52	88.5006	707.52	90.4837	707.52	88.0264	707.52	89.8924	707.52	88.0105	707.52	89.3848	707.52	88.2398	707.52	88.9814	707.52	88.3445	707.52	88.5343	707.52	88.0173	707.52	87.7543	707.52	87.0039	707.52	86.321	707.52	85.0246	707.52	83.9874	707.52	81.921	707.52	81.2151	707.52	79.2772	707.52	80.8219	707.52	80.7489	707.52	82.8353	707.52	83.1704	707.52	84.2543	707.52	84.3806
732.422	91.9547	732.422	91.8105	732.422	91.881	732.422	91.4561	732.422	91.6124	732.422	90.9128	732.422	91.2236	732.422	90.2055	732.422	90.8303	732.422	89.3498	732.422	90.5173	732.422	88.376	732.422	90.2638	732.422	87.4507	732.422	89.9691	732.422	86.9383	732.422	89.5551	732.422	87.0036	732.422	89.0231	732.422	87.2656	732.422	88.3989	732.422	87.2265	732.422	87.6257	732.422	86.6147	732.422	86.5581	732.422	85.3716	732.422	85.1767	732.422	83.7451	732.422	84.0409	732.422	82.6895	732.422	84.1123	732.422	83.2207	732.422	85.0249	732.422	84.5415	732.422	85.6478	732.422	85.4896
757.324	92.2259	757.324	92.1284	757.324	92.1578	757.324	91.8594	757.324	91.951	757.324	91.4151	757.324	91.6558	757.324	90.7811	757.324	91.3121	757.324	89.9443	757.324	90.9074	757.324	88.9406	757.324	90.4092	757.324	87.904	757.324	89.8528	757.324	87.0647	757.324	89.3467	757.324	86.6077	757.324	88.9255	757.324	86.3292	757.324	88.4117	757.324	85.6721	757.324	87.4812	757.324	84.2043	757.324	85.8492	757.324	81.8285	757.324	83.5612	757.324	79.2767	757.324	81.8774	757.324	79.1816	757.324	82.5652	757.324	81.433	757.324	84.0785	757.324	83.4827	757.324	84.8627	757.324	84.6534
785.156	91.2504	785.156	91.0701	785.156	91.2151	785.156	90.6556	785.156	90.9891	785.156	89.999	785.156	90.5997	785.156	89.1552	785.156	90.059	785.156	88.2945	785.156	89.3667	785.156	87.6043	785.156	88.5491	785.156	87.0989	785.156	87.6939	785.156	86.6721	785.156	86.9517	785.156	86.2935	785.156	86.4894	785.156	85.9798	785.156	86.3201	785.156	85.6041	785.156	86.1162	785.156	84.8978	785.156	85.2865	785.156	83.6332	785.156	83.1967	785.156	81.8537	785.156	79.7147	785.156	80.19	785.156	78.2593	785.156	79.7568	785.156	80.4252	785.156	80.6133	785.156	81.7135	785.156	81.5854
811.523	90.0045	811.523	89.8668	811.523	90.0189	811.523	89.6137	811.523	89.9882	811.523	89.3592	811.523	90.0181	811.523	89.2597	811.523	90.1508	811.523	89.3409	811.523	90.3275	811.523	89.4045	811.523	90.4462	811.523	89.1837	811.523	90.4078	811.523	88.5457	811.523	90.1053	811.523	87.526	811.523	89.4365	811.523	86.2486	811.523	88.3987	811.523	84.8326	811.523	87.1089	811.523	83.2893	811.523	85.5594	811.523	81.4269	811.523	83.4585	811.523	78.9432	811.523	80.7359	811.523	77.0607	811.523	79.3121	811.523	78.9756	811.523	80.8921	811.523	81.6169	811.523	82.5253	811.523	82.8334
840.82	89.4167	840.82	89.6176	840.82	89.1642	840.82	89.6501	840.82	88.8937	840.82	89.3946	840.82	88.5734	840.82	88.8414	840.82	88.2198	840.82	88.221	840.82	88.0132	840.82	88.0276	840.82	88.2349	840.82	88.4723	840.82	88.9123	840.82	89.1087	840.82	89.6554	840.82	89.4962	840.82	90.0514	840.82	89.4754	840.82	89.9594	840.82	88.9339	840.82	89.3704	840.82	87.6921	840.82	88.1385	840.82	85.582	840.82	85.9017	840.82	82.6531	840.82	82.3702	840.82	79.8402	840.82	79.2708	840.82	79.3873	840.82	80.2761	840.82	80.7987	840.82	81.763	840.82	81.8717
870.117	90.7191	870.117	90.6845	870.117	90.5768	870.117	90.4767	870.117	90.2912	870.117	90.1079	870.117	89.9006	870.117	89.5404	870.117	89.3444	870.117	88.633	870.117	88.4076	870.117	87.2419	870.117	86.9058	870.117	85.6852	870.117	85.1415	870.117	85.199	870.117	84.3471	870.117	86.1905	870.117	85.3346	870.117	87.3216	870.117	86.9638	870.117	87.7139	870.117	88.0678	870.117	87.1432	870.117	88.1622	870.117	85.5737	870.117	87.1337	870.117	83.1652	870.117	85.2788	870.117	81.0839	870.117	83.7987	870.117	81.3925	870.117	83.8456	870.117	83.015	870.117	84.3457	870.117	84.1471
900.879	91.4343	900.879	91.5399	900.879	90.999	900.879	91.2673	900.879	90.4274	900.879	90.6661	900.879	89.9478	900.879	89.7948	900.879	89.5756	900.879	88.6312	900.879	89.0882	900.879	87.0747	900.879	88.373	900.879	85.3128	900.879	87.7062	900.879	84.4968	900.879	87.4543	900.879	85.4106	900.879	87.434	900.879	86.7621	900.879	87.1859	900.879	87.464	900.879	86.605	900.879	87.1146	900.879	85.6327	900.879	85.5755	900.879	83.763	900.879	83.0712	900.879	80.7887	900.879	80.9898	900.879	79.7389	900.879	81.1757	900.879	81.7632	900.879	82.3919	900.879	83.0894	900.879	83.1871
933.105	90.0887	933.105	89.6889	933.105	90.4914	933.105	89.5114	933.105	90.7047	933.105	89.6507	933.105	90.5999	933.105	89.9155	933.105	90.1133	933.105	89.8725	933.105	89.224	933.105	89.0107	933.105	87.8771	933.105	86.8244	933.105	85.9428	933.105	82.8892	933.105	83.7013	933.105	79.626	933.105	83.1885	933.105	82.4849	933.105	85.0155	933.105	85.1568	933.105	86.6755	933.105	86.1013	933.105	87.1627	933.105	85.4591	933.105	86.3018	933.105	83.296	933.105	84.1501	933.105	80.5797	933.105	81.887	933.105	80.698	933.105	82.3044	933.105	82.8183	933.105	83.7745	933.105	84.0399
965.332	91.7103	965.332	91.6002	965.332	91.2242	965.332	90.9232	965.332	90.3723	965.332	89.9725	965.332	89.5716	965.332	89.1535	965.332	89.1576	965.332	88.6026	965.332	89.0507	965.332	88.0494	965.332	88.8783	965.332	87.1727	965.332	88.3431	965.332	85.9195	965.332	87.2461	965.332	84.462	965.332	85.4091	965.332	83.1698	965.332	83.1752	965.332	82.9261	965.332	81.9958	965.332	83.361	965.332	81.9109	965.332	82.962	965.332	81.3085	965.332	81.2139	965.332	79.7913	965.332	78.7842	965.332	78.3393	965.332	77.7243	965.332	78.3491	965.332	78.5022	965.332	79.0879	965.332	79.229
1,000.49	90.538	1,000.49	90.6045	1,000.49	90.2518	1,000.49	90.3272	1,000.49	89.9391	1,000.49	89.6671	1,000.49	89.7072	1,000.49	88.6021	1,000.49	89.3965	1,000.49	87.1042	1,000.49	88.7438	1,000.49	85.3624	1,000.49	87.7981	1,000.49	83.9054	1,000.49	87.075	1,000.49	83.2216	1,000.49	86.9462	1,000.49	83.5212	1,000.49	86.8859	1,000.49	84.49	1,000.49	86.3656	1,000.49	85.3282	1,000.49	85.6143	1,000.49	85.4134	1,000.49	84.9387	1,000.49	84.4402	1,000.49	83.8136	1,000.49	82.4508	1,000.49	81.809	1,000.49	80.1127	1,000.49	80.6386	1,000.49	79.1812	1,000.49	81.6134	1,000.49	80.3594	1,000.49	82.3148	1,000.49	81.7987
1,035.64	91.8389	1,035.64	91.8686	1,035.64	91.2543	1,035.64	91.3221	1,035.64	90.2989	1,035.64	90.3751	1,035.64	89.2862	1,035.64	89.2496	1,035.64	88.6178	1,035.64	87.8383	1,035.64	88.3484	1,035.64	85.7827	1,035.64	87.9185	1,035.64	82.9282	1,035.64	86.9109	1,035.64	78.7082	1,035.64	85.7074	1,035.64	70.6527	1,035.64	85.3818	1,035.64	78.5286	1,035.64	85.942	1,035.64	83.8322	1,035.64	86.4143	1,035.64	85.6894	1,035.64	86.0946	1,035.64	85.3214	1,035.64	84.2403	1,035.64	83.1766	1,035.64	80.7712	1,035.64	79.9743	1,035.64	80.2641	1,035.64	78.1245	1,035.64	82.4172	1,035.64	79.6293	1,035.64	82.9286	1,035.64	81.7928
1,072.27	91.1825	1,072.27	90.8342	1,072.27	91.3181	1,072.27	90.432	1,072.27	91.1667	1,072.27	90.1768	1,072.27	90.6294	1,072.27	89.9813	1,072.27	89.7059	1,072.27	89.5038	1,072.27	88.6746	1,072.27	88.6356	1,072.27	87.85	1,072.27	87.4943	1,072.27	87.0715	1,072.27	85.5835	1,072.27	85.8532	1,072.27	81.8229	1,072.27	84.347	1,072.27	77.9524	1,072.27	83.57	1,072.27	80.6241	1,072.27	84.2255	1,072.27	83.3041	1,072.27	85.2069	1,072.27	83.8493	1,072.27	84.7976	1,072.27	82.7648	1,072.27	82.0676	1,072.27	81.4756	1,072.27	78.1844	1,072.27	81.4397	1,072.27	79.9161	1,072.27	82.2948	1,072.27	82.3521	1,072.27	82.9042
1,108.89	91.602	1,108.89	91.1979	1,108.89	91.5895	1,108.89	90.639	1,108.89	91.1477	1,108.89	90.2433	1,108.89	90.3776	1,108.89	89.9271	1,108.89	89.3819	1,108.89	89.298	1,108.89	88.3877	1,108.89	88.3687	1,108.89	87.5944	1,108.89	87.6408	1,108.89	86.6742	1,108.89	86.9666	1,108.89	85.2069	1,108.89	85.0926	1,108.89	83.6774	1,108.89	80.5045	1,108.89	82.6593	1,108.89	78.1077	1,108.89	81.7643	1,108.89	81.8431	1,108.89	81.0928	1,108.89	82.4039	1,108.89	80.1698	1,108.89	80.718	1,108.89	77.8936	1,108.89	79.4203	1,108.89	76.7847	1,108.89	80.5454	1,108.89	80.6516	1,108.89	82.4945	1,108.89	83.2567	1,108.89	83.6685
1,148.44	91.7908	1,148.44	91.8641	1,148.44	91.5626	1,148.44	91.5693	1,148.44	91.317	1,148.44	90.8901	1,148.44	90.846	1,148.44	90.0807	1,148.44	89.9731	1,148.44	89.3341	1,148.44	89.1257	1,148.44	88.5564	1,148.44	88.7888	1,148.44	88.0075	1,148.44	88.3211	1,148.44	87.7199	1,148.44	86.7781	1,148.44	86.5751	1,148.44	84.1758	1,148.44	82.8972	1,148.44	80.8312	1,148.44	76.1709	1,148.44	77.2702	1,148.44	79.8116	1,148.44	79.0794	1,148.44	81.7194	1,148.44	81.8291	1,148.44	80.2472	1,148.44	81.6172	1,148.44	77.4473	1,148.44	79.0548	1,148.44	78.1419	1,148.44	81.6542	1,148.44	82.0255	1,148.44	84.5294	1,148.44	84.4769
1,189.45	91.923	1,189.45	91.6112	1,189.45	91.6186	1,189.45	90.7142	1,189.45	90.8771	1,189.45	89.587	1,189.45	89.8298	1,189.45	88.6155	1,189.45	88.5103	1,189.45	87.7552	1,189.45	87.2616	1,189.45	87.0843	1,189.45	86.7869	1,189.45	87.2944	1,189.45	86.934	1,189.45	88.1606	1,189.45	86.5455	1,189.45	88.269	1,189.45	85.1277	1,189.45	86.6471	1,189.45	83.2691	1,189.45	83.2278	1,189.45	81.4436	1,189.45	79.6597	1,189.45	79.6854	1,189.45	78.4519	1,189.45	78.5589	1,189.45	76.483	1,189.45	76.8151	1,189.45	74.4149	1,189.45	75.154	1,189.45	77.6654	1,189.45	79.6965	1,189.45	81.4784	1,189.45	82.766	1,189.45	83.2181
1,230.47	91.8932	1,230.47	91.5844	1,230.47	91.918	1,230.47	90.9565	1,230.47	91.4924	1,230.47	89.9772	1,230.47	90.2899	1,230.47	88.5734	1,230.47	88.2395	1,230.47	86.9251	1,230.47	86.1597	1,230.47	86.0393	1,230.47	85.7467	1,230.47	86.3837	1,230.47	86.6306	1,230.47	86.8459	1,230.47	86.585	1,230.47	86.4436	1,230.47	85.1993	1,230.47	84.7755	1,230.47	83.1161	1,230.47	81.5451	1,230.47	80.7221	1,230.47	76.8482	1,230.47	77.2437	1,230.47	75.3558	1,230.47	74.7553	1,230.47	76.7096	1,230.47	76.6321	1,230.47	75.7436	1,230.47	78.56	1,230.47	76.1901	1,230.47	81.4623	1,230.47	80.2023	1,230.47	83.1646	1,230.47	82.7447
1,274.41	91.6519	1,274.41	91.3333	1,274.41	91.6452	1,274.41	90.8567	1,274.41	91.1964	1,274.41	90.1606	1,274.41	90.2373	1,274.41	89.0257	1,274.41	88.8028	1,274.41	87.7523	1,274.41	87.1822	1,274.41	87.138	1,274.41	85.6837	1,274.41	86.8523	1,274.41	84.6722	1,274.41	85.5748	1,274.41	84.1076	1,274.41	83.7244	1,274.41	83.1514	1,274.41	83.3943	1,274.41	82.1542	1,274.41	83.7339	1,274.41	82.0339	1,274.41	83.0866	1,274.41	82.6172	1,274.41	82.0064	1,274.41	82.2058	1,274.41	80.921	1,274.41	78.2113	1,274.41	78.3329	1,274.41	68.9931	1,274.41	74.5088	1,274.41	78.2562	1,274.41	77.6109	1,274.41	81.1147	1,274.41	80.6611
1,319.82	90.6598	1,319.82	90.2666	1,319.82	90.7782	1,319.82	89.9901	1,319.82	90.3786	1,319.82	89.7983	1,319.82	89.6405	1,319.82	89.1027	1,319.82	88.8917	1,319.82	87.4571	1,319.82	87.968	1,319.82	85.4286	1,319.82	86.3407	1,319.82	84.556	1,319.82	84.7609	1,319.82	84.6887	1,319.82	84.5856	1,319.82	84.3626	1,319.82	84.256	1,319.82	83.5025	1,319.82	82.1485	1,319.82	81.9889	1,319.82	78.8198	1,319.82	80.0886	1,319.82	77.31	1,319.82	79.4401	1,319.82	76.6666	1,319.82	78.7552	1,319.82	73.2904	1,319.82	75.2899	1,319.82	72.5419	1,319.82	72.9783	1,319.82	77.3867	1,319.82	77.0344	1,319.82	79.5117	1,319.82	79.3191
1,366.7	90.0978	1,366.7	90.0504	1,366.7	90.2139	1,366.7	89.9771	1,366.7	90.1949	1,366.7	89.6601	1,366.7	89.537	1,366.7	88.9565	1,366.7	88.0119	1,366.7	87.9191	1,366.7	86.2064	1,366.7	86.5178	1,366.7	84.6268	1,366.7	83.6062	1,366.7	82.6492	1,366.7	77.0918	1,366.7	80.9037	1,366.7	76.7412	1,366.7	81.867	1,366.7	81.0689	1,366.7	84.006	1,366.7	82.724	1,366.7	84.5918	1,366.7	82.1421	1,366.7	82.0962	1,366.7	81.3467	1,366.7	78.0251	1,366.7	81.6271	1,366.7	75.3404	1,366.7	80.1316	1,366.7	64.99	1,366.7	75.9488	1,366.7	76.6174	1,366.7	75.3743	1,366.7	80.153	1,366.7	79.1189
1,413.57	91.1634	1,413.57	90.8918	1,413.57	91.2131	1,413.57	90.6227	1,413.57	90.6239	1,413.57	90.3268	1,413.57	89.0213	1,413.57	89.8479	1,413.57	86.5975	1,413.57	89.1424	1,413.57	84.334	1,413.57	88.3174	1,413.57	82.759	1,413.57	87.2606	1,413.57	81.4584	1,413.57	85.4073	1,413.57	80.8704	1,413.57	82.4693	1,413.57	81.3321	1,413.57	80.4076	1,413.57	81.9143	1,413.57	81.5742	1,413.57	81.9251	1,413.57	81.8302	1,413.57	81.349	1,413.57	81.1596	1,413.57	80.1423	1,413.57	80.6873	1,413.57	76.2104	1,413.57	79.4052	1,413.57	62.5403	1,413.57	76.9216	1,413.57	73.038	1,413.57	75.4384	1,413.57	76.2071	1,413.57	75.9282
1,463.38	91.6192	1,463.38	91.865	1,463.38	91.1302	1,463.38	91.5679	1,463.38	90.6001	1,463.38	90.6395	1,463.38	89.6362	1,463.38	89.3422	1,463.38	87.8035	1,463.38	88.061	1,463.38	85.7255	1,463.38	86.7696	1,463.38	83.8851	1,463.38	85.2516	1,463.38	81.5244	1,463.38	83.3845	1,463.38	78.7874	1,463.38	81.0789	1,463.38	76.5105	1,463.38	78.7554	1,463.38	76.0827	1,463.38	80.9225	1,463.38	78.9692	1,463.38	82.4285	1,463.38	81.1388	1,463.38	81.4514	1,463.38	81.217	1,463.38	79.0047	1,463.38	78.5898	1,463.38	76.0825	1,463.38	70.2449	1,463.38	74.5483	1,463.38	68.3238	1,463.38	75.2836	1,463.38	75.3341	1,463.38	76.2246
1,516.11	91.1299	1,516.11	91.0509	1,516.11	90.8556	1,516.11	90.5543	1,516.11	90.3041	1,516.11	89.4444	1,516.11	89.3422	1,516.11	87.5199	1,516.11	87.8097	1,516.11	85.3495	1,516.11	86.0788	1,516.11	83.5666	1,516.11	84.5849	1,516.11	82.0819	1,516.11	82.9071	1,516.11	82.171	1,516.11	80.9851	1,516.11	82.4337	1,516.11	79.5555	1,516.11	79.8254	1,516.11	77.5351	1,516.11	74.9202	1,516.11	76.4912	1,516.11	76.001	1,516.11	77.6046	1,516.11	78.1484	1,516.11	77.3308	1,516.11	77.4701	1,516.11	75.0851	1,516.11	73.1089	1,516.11	70.0041	1,516.11	69.1714	1,516.11	71.9737	1,516.11	75.6823	1,516.11	77.2449	1,516.11	78.2351
1,568.85	90.6241	1,568.85	90.1727	1,568.85	90.4856	1,568.85	89.0343	1,568.85	89.8569	1,568.85	87.3168	1,568.85	88.8707	1,568.85	86.0012	1,568.85	87.7924	1,568.85	85.3772	1,568.85	86.8254	1,568.85	83.9724	1,568.85	85.6798	1,568.85	81.8551	1,568.85	84.4491	1,568.85	81.2809	1,568.85	83.9536	1,568.85	81.1021	1,568.85	83.6333	1,568.85	78.581	1,568.85	81.4291	1,568.85	76.1821	1,568.85	76.3622	1,568.85	76.4084	1,568.85	72.6085	1,568.85	76.9834	1,568.85	74.284	1,568.85	78.2516	1,568.85	75.5565	1,568.85	78.1296	1,568.85	71.8707	1,568.85	73.5079	1,568.85	67.4981	1,568.85	71.5561	1,568.85	76.2206	1,568.85	76.7853
1,624.51	89.4185	1,624.51	89.1163	1,624.51	89.4988	1,624.51	88.6656	1,624.51	89.1929	1,624.51	88.3303	1,624.51	88.0877	1,624.51	87.8707	1,624.51	86.3439	1,624.51	86.4352	1,624.51	84.5459	1,624.51	83.8598	1,624.51	83.0367	1,624.51	81.4454	1,624.51	82.4815	1,624.51	80.7642	1,624.51	82.1355	1,624.51	80.9112	1,624.51	81.3038	1,624.51	79.4567	1,624.51	80.7571	1,624.51	76.4783	1,624.51	79.6093	1,624.51	77.5537	1,624.51	77.6207	1,624.51	77.5212	1,624.51	77.3119	1,624.51	77.1999	1,624.51	75.9156	1,624.51	78.5358	1,624.51	67.0654	1,624.51	77.4023	1,624.51	68.8784	1,624.51	73.0131	1,624.51	75.3075	1,624.51	74.6874
1,681.64	90.6699	1,681.64	90.7095	1,681.64	90.1039	1,681.64	90.1315	1,681.64	89.2824	1,681.64	89.4115	1,681.64	88.0072	1,681.64	88.8428	1,681.64	86.1617	1,681.64	87.6734	1,681.64	84.0573	1,681.64	85.5403	1,681.64	81.3246	1,681.64	83.8211	1,681.64	78.5456	1,681.64	83.5219	1,681.64	77.7207	1,681.64	83.6482	1,681.64	78.6534	1,681.64	82.9507	1,681.64	79.0023	1,681.64	79.0256	1,681.64	77.3274	1,681.64	75.6701	1,681.64	76.8074	1,681.64	78.1718	1,681.64	78.7747	1,681.64	77.5359	1,681.64	76.673	1,681.64	75.3406	1,681.64	68.7948	1,681.64	77.8803	1,681.64	49.6948	1,681.64	76.9348	1,681.64	65.9742	1,681.64	71.3972
1,741.7	91.8971	1,741.7	91.6012	1,741.7	91.3192	1,741.7	90.7155	1,741.7	90.2512	1,741.7	89.7572	1,741.7	88.7768	1,741.7	88.3598	1,741.7	87.0016	1,741.7	86.5681	1,741.7	85.6394	1,741.7	85.4663	1,741.7	83.3578	1,741.7	84.1115	1,741.7	79.4539	1,741.7	81.8441	1,741.7	78.4769	1,741.7	81.4162	1,741.7	79.6665	1,741.7	81.9626	1,741.7	77.7038	1,741.7	80.6821	1,741.7	73.2575	1,741.7	78.7106	1,741.7	72.2827	1,741.7	78.6995	1,741.7	76.1835	1,741.7	77.8745	1,741.7	76.7422	1,741.7	75.8571	1,741.7	73.2063	1,741.7	74.9556	1,741.7	58.9467	1,741.7	76.153	1,741.7	71.5243	1,741.7	76.2975
1,803.22	92.1222	1,803.22	91.8525	1,803.22	91.4501	1,803.22	90.8825	1,803.22	90.1491	1,803.22	89.7484	1,803.22	88.738	1,803.22	88.2862	1,803.22	87.5049	1,803.22	86.0171	1,803.22	86.2348	1,803.22	84.0562	1,803.22	83.9761	1,803.22	83.7033	1,803.22	80.276	1,803.22	80.9345	1,803.22	77.7571	1,803.22	74.4679	1,803.22	78.1816	1,803.22	79.0598	1,803.22	78.8664	1,803.22	81.7957	1,803.22	78.097	1,803.22	78.9493	1,803.22	75.2884	1,803.22	76.4393	1,803.22	76.7347	1,803.22	77.5342	1,803.22	75.8325	1,803.22	74.1473	1,803.22	68.123	1,803.22	72.7066	1,803.22	61.1599	1,803.22	76.6374	1,803.22	73.1707	1,803.22	76.8047
1,866.21	90.9483	1,866.21	90.9916	1,866.21	91.159	1,866.21	91.0985	1,866.21	90.8919	1,866.21	90.197	1,866.21	89.581	1,866.21	87.7839	1,866.21	87.3878	1,866.21	85.6076	1,866.21	85.2277	1,866.21	85.1462	1,866.21	83.9553	1,866.21	84.4119	1,866.21	81.8286	1,866.21	82.9206	1,866.21	77.3873	1,866.21	81.1095	1,866.21	77.0019	1,866.21	78.5506	1,866.21	79.4192	1,866.21	76.417	1,866.21	80.2144	1,866.21	75.7967	1,866.21	78.6375	1,866.21	78.334	1,866.21	77.7284	1,866.21	78.1312	1,866.21	74.6542	1,866.21	74.7323	1,866.21	65.0758	1,866.21	73.0095	1,866.21	63.9829	1,866.21	75.6585	1,866.21	71.5019	1,866.21	75.9806
1,932.13	90.1713	1,932.13	90.5378	1,932.13	90.7159	1,932.13	90.6927	1,932.13	90.7534	1,932.13	89.1954	1,932.13	89.2421	1,932.13	86.7708	1,932.13	87.5616	1,932.13	85.892	1,932.13	86.2583	1,932.13	84.9782	1,932.13	84.8774	1,932.13	81.3473	1,932.13	83.3187	1,932.13	79.2746	1,932.13	81.3233	1,932.13	78.6276	1,932.13	79.0962	1,932.13	74.3862	1,932.13	79.8075	1,932.13	76.6098	1,932.13	80.9811	1,932.13	76.8924	1,932.13	79.3437	1,932.13	77.8054	1,932.13	74.8983	1,932.13	80.3701	1,932.13	72.1865	1,932.13	77.8506	1,932.13	69.9416	1,932.13	68.9614	1,932.13	67.1033	1,932.13	74.0221	1,932.13	69.8531	1,932.13	75.5331
1,999.51	91.5624	1,999.51	90.735	1,999.51	90.8475	1,999.51	89.3049	1,999.51	89.5154	1,999.51	89.1839	1,999.51	88.5826	1,999.51	88.4191	1,999.51	87.5671	1,999.51	85.9927	1,999.51	85.9336	1,999.51	85.1363	1,999.51	83.6033	1,999.51	83.8831	1,999.51	80.6376	1,999.51	80.9816	1,999.51	77.3061	1,999.51	80.0896	1,999.51	70.3394	1,999.51	78.45	1,999.51	74.0061	1,999.51	77.9938	1,999.51	79.2841	1,999.51	76.8841	1,999.51	77.6108	1,999.51	75.2841	1,999.51	72.3356	1,999.51	77.9115	1,999.51	74.0469	1,999.51	76.5196	1,999.51	73.2605	1,999.51	73.0923	1,999.51	67.016	1,999.51	75.0158	1,999.51	73.9243	1,999.51	75.7211
2,069.82	91.877	2,069.82	90.9726	2,069.82	91.6787	2,069.82	90.3428	2,069.82	90.4734	2,069.82	90.0417	2,069.82	88.7689	2,069.82	88.0718	2,069.82	87.0292	2,069.82	85.4818	2,069.82	85.7397	2,069.82	84.7327	2,069.82	83.8415	2,069.82	82.8123	2,069.82	80.6887	2,069.82	80.6168	2,069.82	77.6028	2,069.82	80.2252	2,069.82	73.7779	2,069.82	79.0661	2,069.82	66.1695	2,069.82	77.4493	2,069.82	75.7878	2,069.82	76.8038	2,069.82	75.5904	2,069.82	75.21	2,069.82	72.0015	2,069.82	76.9195	2,069.82	72.3142	2,069.82	76.9952	2,069.82	69.2997	2,069.82	73.965	2,069.82	65.3479	2,069.82	74.3021	2,069.82	73.655	2,069.82	75.4328
2,143.07	91.3489	2,143.07	90.7867	2,143.07	91.9235	2,143.07	90.747	2,143.07	91.3241	2,143.07	89.395	2,143.07	89.2671	2,143.07	86.52	2,143.07	87.0284	2,143.07	85.6429	2,143.07	85.6458	2,143.07	84.7088	2,143.07	84.0575	2,143.07	83.2748	2,143.07	81.4394	2,143.07	81.4166	2,143.07	78.4716	2,143.07	78.1937	2,143.07	76.1874	2,143.07	78.4978	2,143.07	69.7284	2,143.07	77.6784	2,143.07	71.1368	2,143.07	75.7724	2,143.07	73.4348	2,143.07	75.4354	2,143.07	69.493	2,143.07	76.0062	2,143.07	68.1487	2,143.07	75.8691	2,143.07	68.2264	2,143.07	74.3992	2,143.07	58.2364	2,143.07	75.2471	2,143.07	72.2612	2,143.07	75.0065
2,219.24	90.518	2,219.24	90.5175	2,219.24	91.0079	2,219.24	90.163	2,219.24	90.9268	2,219.24	88.4284	2,219.24	89.493	2,219.24	87.2248	2,219.24	87.1179	2,219.24	86.9204	2,219.24	85.3958	2,219.24	85.0304	2,219.24	84.407	2,219.24	83.1176	2,219.24	80.9914	2,219.24	82.4704	2,219.24	76.1541	2,219.24	81.06	2,219.24	76.4855	2,219.24	80.0139	2,219.24	71.8003	2,219.24	78.2126	2,219.24	68.8048	2,219.24	76.0621	2,219.24	72.9574	2,219.24	76.6102	2,219.24	71.2042	2,219.24	76.6453	2,219.24	67.7593	2,219.24	75.3035	2,219.24	62.0278	2,219.24	73.0027	2,219.24	63.8395	2,219.24	75.2658	2,219.24	71.9286	2,219.24	75.622
2,296.88	90.6487	2,296.88	90.614	2,296.88	90.5253	2,296.88	90.0164	2,296.88	90.3215	2,296.88	89.07	2,296.88	89.2009	2,296.88	88.0485	2,296.88	87.0244	2,296.88	87.0797	2,296.88	85.2312	2,296.88	85.9438	2,296.88	83.7791	2,296.88	84.5913	2,296.88	81.9766	2,296.88	83.7084	2,296.88	79.2142	2,296.88	81.6966	2,296.88	78.8992	2,296.88	79.7044	2,296.88	76.8557	2,296.88	78.8096	2,296.88	55.3246	2,296.88	75.9519	2,296.88	73.3594	2,296.88	76.1891	2,296.88	73.084	2,296.88	76.3276	2,296.88	68.4851	2,296.88	74.1911	2,296.88	61.8479	2,296.88	71.1856	2,296.88	64.1075	2,296.88	74.7229	2,296.88	70.1924	2,296.88	75.3792
2,378.91	90.4838	2,378.91	90.7315	2,378.91	90.2579	2,378.91	89.9742	2,378.91	90.1848	2,378.91	88.9839	2,378.91	89.0934	2,378.91	88.1415	2,378.91	87.0943	2,378.91	86.5685	2,378.91	84.764	2,378.91	85.8347	2,378.91	82.0888	2,378.91	83.1433	2,378.91	82.1959	2,378.91	80.4456	2,378.91	80.6324	2,378.91	81.3058	2,378.91	76.6389	2,378.91	78.0247	2,378.91	77.3452	2,378.91	78.8698	2,378.91	70.973	2,378.91	76.1812	2,378.91	66.1008	2,378.91	73.4767	2,378.91	70.5131	2,378.91	76.6129	2,378.91	69.8186	2,378.91	73.6985	2,378.91	67.7767	2,378.91	71.1153	2,378.91	58.4801	2,378.91	72.7931	2,378.91	69.026	2,378.91	74.5564
2,462.4	90.1847	2,462.4	90.1156	2,462.4	89.7073	2,462.4	89.8916	2,462.4	89.1795	2,462.4	89.4429	2,462.4	88.3458	2,462.4	88.0546	2,462.4	86.7244	2,462.4	86.4293	2,462.4	85.0089	2,462.4	84.3437	2,462.4	82.5145	2,462.4	83.4274	2,462.4	79.4111	2,462.4	82.4081	2,462.4	76.3686	2,462.4	79.9636	2,462.4	74.6737	2,462.4	78.7037	2,462.4	73.0949	2,462.4	77.707	2,462.4	70.6727	2,462.4	76.8075	2,462.4	68.8946	2,462.4	72.8413	2,462.4	67.8753	2,462.4	76.1892	2,462.4	69.2882	2,462.4	74.3724	2,462.4	66.9167	2,462.4	70.6334	2,462.4	46.0808	2,462.4	72.3324	2,462.4	69.1777	2,462.4	73.6844
2,548.83	90	2,548.83	89.5354	2,548.83	89.7307	2,548.83	89.7253	2,548.83	88.4849	2,548.83	89.0144	2,548.83	87.1302	2,548.83	86.9341	2,548.83	86.2637	2,548.83	86.0353	2,548.83	85.0562	2,548.83	84.9865	2,548.83	81.9349	2,548.83	82.5606	2,548.83	78.8178	2,548.83	80.9033	2,548.83	78.443	2,548.83	80.2158	2,548.83	75.9662	2,548.83	78.9005	2,548.83	73.6091	2,548.83	76.5549	2,548.83	69.2322	2,548.83	76.7306	2,548.83	73.2466	2,548.83	72.9076	2,548.83	70.7605	2,548.83	74.8899	2,548.83	67.763	2,548.83	74.2436	2,548.83	66.4127	2,548.83	65.8469	2,548.83	60.8097	2,548.83	68.2672	2,548.83	71.2936	2,548.83	71.3261
2,639.65	88.0229	2,639.65	88.6479	2,639.65	88.1751	2,639.65	88.9776	2,639.65	87.6266	2,639.65	87.7262	2,639.65	85.9364	2,639.65	86.7352	2,639.65	85.1981	2,639.65	86.3829	2,639.65	84.6472	2,639.65	85.0789	2,639.65	82.9002	2,639.65	83.8628	2,639.65	79.7662	2,639.65	82.2858	2,639.65	77.7547	2,639.65	79.2465	2,639.65	72.5766	2,639.65	77.7828	2,639.65	66.0209	2,639.65	76.78	2,639.65	66.9857	2,639.65	75.654	2,639.65	71.8798	2,639.65	73.3519	2,639.65	73.1501	2,639.65	73.9269	2,639.65	65.4869	2,639.65	73.5109	2,639.65	65.2808	2,639.65	67.1567	2,639.65	68.985	2,639.65	65.2066	2,639.65	74.0556	2,639.65	70.5538
2,731.93	87.9505	2,731.93	88.6599	2,731.93	87.4644	2,731.93	88.5689	2,731.93	86.9049	2,731.93	87.8244	2,731.93	85.5436	2,731.93	87.1012	2,731.93	84.3629	2,731.93	85.3804	2,731.93	83.5042	2,731.93	84.1726	2,731.93	82.1301	2,731.93	81.6898	2,731.93	78.6044	2,731.93	79.3513	2,731.93	76.1355	2,731.93	78.3986	2,731.93	73.4791	2,731.93	76.1015	2,731.93	70.9995	2,731.93	76.1815	2,731.93	70.4271	2,731.93	75.9827	2,731.93	70.9162	2,731.93	72.006	2,731.93	71.1256	2,731.93	72.5351	2,731.93	62.4474	2,731.93	73.1779	2,731.93	60.632	2,731.93	66.401	2,731.93	69.5238	2,731.93	63.799	2,731.93	72.2984	2,731.93	63.1942
2,828.61	87.8625	2,828.61	88.7078	2,828.61	87.2525	2,828.61	88.8042	2,828.61	86.0652	2,828.61	87.8923	2,828.61	84.8641	2,828.61	86.7334	2,828.61	84.1911	2,828.61	84.6033	2,828.61	82.6541	2,828.61	83.1417	2,828.61	80.8486	2,828.61	80.6969	2,828.61	79.5595	2,828.61	77.2612	2,828.61	76.3019	2,828.61	77.2891	2,828.61	63.7252	2,828.61	77.0203	2,828.61	74.0312	2,828.61	75.7033	2,828.61	75.3167	2,828.61	74.0966	2,828.61	70.7497	2,828.61	72.0973	2,828.61	65.9362	2,828.61	70.8646	2,828.61	62.7003	2,828.61	74.5404	2,828.61	64.1593	2,828.61	68.3227	2,828.61	69.7934	2,828.61	67.8786	2,828.61	72.6813	2,828.61	58.55
2,928.22	86.9336	2,928.22	88.0191	2,928.22	86.5532	2,928.22	88.146	2,928.22	85.1705	2,928.22	87.6405	2,928.22	84.0076	2,928.22	85.5018	2,928.22	83.7626	2,928.22	83.6591	2,928.22	82.7703	2,928.22	82.0568	2,928.22	81.0913	2,928.22	78.3142	2,928.22	77.7885	2,928.22	79.7246	2,928.22	72.9018	2,928.22	77.9263	2,928.22	73.982	2,928.22	75.2686	2,928.22	76.3583	2,928.22	73.789	2,928.22	74.7758	2,928.22	73.3121	2,928.22	64.3234	2,928.22	73.258	2,928.22	67.2614	2,928.22	71.2426	2,928.22	63.7644	2,928.22	73.6785	2,928.22	64.3975	2,928.22	69.424	2,928.22	72.4361	2,928.22	66.499	2,928.22	72.3596	2,928.22	63.2606
3,030.76	87.4909	3,030.76	88.0857	3,030.76	86.3905	3,030.76	87.9317	3,030.76	85.0398	3,030.76	87.0685	3,030.76	83.7905	3,030.76	85.0186	3,030.76	83.0131	3,030.76	83.2608	3,030.76	82.8319	3,030.76	80.5863	3,030.76	81.5	3,030.76	80.0696	3,030.76	78.6723	3,030.76	78.5382	3,030.76	73.8578	3,030.76	74.6244	3,030.76	77.3824	3,030.76	74.3392	3,030.76	76.9178	3,030.76	74.7619	3,030.76	74.663	3,030.76	74.7828	3,030.76	66.5911	3,030.76	74.887	3,030.76	66.4966	3,030.76	71.5885	3,030.76	65.7463	3,030.76	73.7265	3,030.76	58.6993	3,030.76	70.9308	3,030.76	71.9388	3,030.76	69.4412	3,030.76	71.0788	3,030.76	68.3355
3,137.7	88.5758	3,137.7	88.8938	3,137.7	87.5375	3,137.7	88.8929	3,137.7	85.8224	3,137.7	86.9812	3,137.7	83.7349	3,137.7	84.0443	3,137.7	82.3224	3,137.7	82.8011	3,137.7	81.7254	3,137.7	81.2184	3,137.7	79.9777	3,137.7	80.1061	3,137.7	78.9804	3,137.7	75.7474	3,137.7	77.5668	3,137.7	77.0901	3,137.7	77.8379	3,137.7	76.3815	3,137.7	73.2911	3,137.7	75.4701	3,137.7	66.5888	3,137.7	75.0881	3,137.7	63.3314	3,137.7	75.1102	3,137.7	68.1922	3,137.7	73.1408	3,137.7	64.8978	3,137.7	74.3008	3,137.7	61.4646	3,137.7	73.6301	3,137.7	71.6181	3,137.7	70.0489	3,137.7	67.8333	3,137.7	69.5814
3,249.02	88.554	3,249.02	89.0413	3,249.02	87.8672	3,249.02	88.9741	3,249.02	86.7982	3,249.02	86.9891	3,249.02	84.8832	3,249.02	85.0612	3,249.02	82.4622	3,249.02	84.1013	3,249.02	80.1148	3,249.02	83.5019	3,249.02	79.4788	3,249.02	81.034	3,249.02	79.8468	3,249.02	81.177	3,249.02	79.5639	3,249.02	80.2472	3,249.02	79.3684	3,249.02	77.9717	3,249.02	68.7362	3,249.02	74.5684	3,249.02	55.9603	3,249.02	74.8424	3,249.02	64.0647	3,249.02	75.2589	3,249.02	65.8811	3,249.02	74.8598	3,249.02	63.6651	3,249.02	75.034	3,249.02	58.7702	3,249.02	74.4522	3,249.02	69.6304	3,249.02	72.8344	3,249.02	64.7946	3,249.02	69.2814
3,363.28	88.4256	3,363.28	89.4677	3,363.28	87.1353	3,363.28	89.0801	3,363.28	86.5338	3,363.28	87.8322	3,363.28	85.8908	3,363.28	86.426	3,363.28	84.0127	3,363.28	85.6317	3,363.28	81.0974	3,363.28	84.7482	3,363.28	82.5164	3,363.28	82.1845	3,363.28	80.7001	3,363.28	83.0461	3,363.28	79.7028	3,363.28	79.6233	3,363.28	80.1905	3,363.28	77.376	3,363.28	72.6508	3,363.28	76.9068	3,363.28	73.7924	3,363.28	74.9863	3,363.28	62.9703	3,363.28	75.9657	3,363.28	63.3397	3,363.28	74.2391	3,363.28	56.0264	3,363.28	74.6563	3,363.28	53.4496	3,363.28	73.0021	3,363.28	67.4553	3,363.28	73.5085	3,363.28	61.3772	3,363.28	71.8868
3,481.93	89.3604	3,481.93	90.1304	3,481.93	87.8995	3,481.93	89.2807	3,481.93	86.7589	3,481.93	88.3584	3,481.93	85.9675	3,481.93	87.3914	3,481.93	84.6508	3,481.93	86.6263	3,481.93	83.276	3,481.93	84.4779	3,481.93	84.2517	3,481.93	84.3174	3,481.93	81.7292	3,481.93	81.865	3,481.93	79.7934	3,481.93	77.2971	3,481.93	76.8826	3,481.93	78.8142	3,481.93	73.0806	3,481.93	75.7197	3,481.93	76.1669	3,481.93	75.5379	3,481.93	70.912	3,481.93	74.7658	3,481.93	62.1481	3,481.93	74.8866	3,481.93	56.1784	3,481.93	74.1412	3,481.93	61.8701	3,481.93	73.4743	3,481.93	65.6025	3,481.93	72.4738	3,481.93	60.9685	3,481.93	72.2894
3,604.98	88.9858	3,604.98	89.6498	3,604.98	88.26	3,604.98	90.0676	3,604.98	86.8986	3,604.98	89.1391	3,604.98	85.8904	3,604.98	87.8981	3,604.98	83.531	3,604.98	86.9937	3,604.98	84.6456	3,604.98	85.6959	3,604.98	84.7296	3,604.98	83.278	3,604.98	81.6989	3,604.98	79.9761	3,604.98	75.3573	3,604.98	80.6274	3,604.98	56.3856	3,604.98	78.0851	3,604.98	67.4597	3,604.98	76.2483	3,604.98	69.4997	3,604.98	74.5895	3,604.98	66.8338	3,604.98	73.9007	3,604.98	52.4626	3,604.98	76.3803	3,604.98	63.2962	3,604.98	75.4163	3,604.98	56.8021	3,604.98	73.8124	3,604.98	67.6529	3,604.98	71.3425	3,604.98	54.1706	3,604.98	72.6311
3,732.42	89.287	3,732.42	89.8173	3,732.42	88.249	3,732.42	89.6902	3,732.42	86.5854	3,732.42	89.2006	3,732.42	86.1757	3,732.42	88.1667	3,732.42	84.1973	3,732.42	87.3426	3,732.42	85.7525	3,732.42	85.7234	3,732.42	85.6714	3,732.42	82.4999	3,732.42	80.5456	3,732.42	82.0198	3,732.42	75.335	3,732.42	80.7556	3,732.42	76.3113	3,732.42	76.4059	3,732.42	76.8067	3,732.42	76.8921	3,732.42	72.5713	3,732.42	74.6661	3,732.42	68.7757	3,732.42	74.1907	3,732.42	67.643	3,732.42	73.2346	3,732.42	54.0614	3,732.42	75.012	3,732.42	63.1963	3,732.42	72.923	3,732.42	59.1199	3,732.42	71.1094	3,732.42	56.994	3,732.42	72.4075
3,864.26	89.4213	3,864.26	89.8403	3,864.26	88.5424	3,864.26	90.4799	3,864.26	86.1574	3,864.26	89.2325	3,864.26	85.5812	3,864.26	88.3604	3,864.26	84.0095	3,864.26	87.4062	3,864.26	86.4191	3,864.26	85.3008	3,864.26	85.205	3,864.26	83.3551	3,864.26	81.7469	3,864.26	82.2858	3,864.26	77.3997	3,864.26	77.9151	3,864.26	77.093	3,864.26	77.4947	3,864.26	78.1962	3,864.26	76.1473	3,864.26	79.5226	3,864.26	74.9263	3,864.26	73.001	3,864.26	72.3688	3,864.26	67.2393	3,864.26	72.1687	3,864.26	62.3969	3,864.26	74.0645	3,864.26	71.227	3,864.26	74.213	3,864.26	47.256	3,864.26	70.5755	3,864.26	62.5653	3,864.26	71.3723
4,000.49	89.9936	4,000.49	90.1647	4,000.49	89.3375	4,000.49	90.3195	4,000.49	87.2252	4,000.49	90.1421	4,000.49	84.6712	4,000.49	88.1479	4,000.49	84.8787	4,000.49	87.4812	4,000.49	87.7931	4,000.49	84.7591	4,000.49	84.7463	4,000.49	83.7123	4,000.49	81.3161	4,000.49	80.2488	4,000.49	77.5381	4,000.49	78.399	4,000.49	78.237	4,000.49	76.4416	4,000.49	78.7618	4,000.49	75.5597	4,000.49	81.1943	4,000.49	74.6623	4,000.49	70.3864	4,000.49	72.7235	4,000.49	55.9917	4,000.49	74.6992	4,000.49	67.5645	4,000.49	73.346	4,000.49	70.5556	4,000.49	74.4426	4,000.49	61.9915	4,000.49	68.2802	4,000.49	63.263	4,000.49	73.6139
4,141.11	90.1664	4,141.11	90.8563	4,141.11	89.5378	4,141.11	91.1806	4,141.11	88.5021	4,141.11	90.0989	4,141.11	86.0993	4,141.11	88.8219	4,141.11	87.3681	4,141.11	87.5638	4,141.11	88.9678	4,141.11	86.5978	4,141.11	85.6106	4,141.11	83.4283	4,141.11	80.8625	4,141.11	81.6094	4,141.11	81.0813	4,141.11	81.5701	4,141.11	81.0585	4,141.11	77.8418	4,141.11	80.701	4,141.11	76.8195	4,141.11	78.3007	4,141.11	74.887	4,141.11	71.6929	4,141.11	72.0764	4,141.11	72.0591	4,141.11	71.4767	4,141.11	69.7994	4,141.11	73.3967	4,141.11	69.1462	4,141.11	74.543	4,141.11	55.9272	4,141.11	68.9036	4,141.11	59.1442	4,141.11	71.6567
4,287.6	90.1283	4,287.6	91.0933	4,287.6	90.1457	4,287.6	91.0436	4,287.6	88.3952	4,287.6	89.3974	4,287.6	86.4707	4,287.6	87.0724	4,287.6	88.0133	4,287.6	86.9855	4,287.6	89.029	4,287.6	84.8746	4,287.6	83.178	4,287.6	82.3239	4,287.6	83.3923	4,287.6	83.4026	4,287.6	84.7474	4,287.6	76.5754	4,287.6	81.8528	4,287.6	76.3788	4,287.6	77.4618	4,287.6	74.7504	4,287.6	65.9383	4,287.6	74.5169	4,287.6	70.0525	4,287.6	71.6804	4,287.6	76.7319	4,287.6	70.8686	4,287.6	69.6829	4,287.6	70.8734	4,287.6	68.3917	4,287.6	74.4669	4,287.6	65.2204	4,287.6	68.4062	4,287.6	66.6736	4,287.6	66.7087
4,438.48	90.0335	4,438.48	90.1958	4,438.48	90.6047	4,438.48	89.7914	4,438.48	89.2888	4,438.48	88.4514	4,438.48	87.4375	4,438.48	88.9877	4,438.48	87.8799	4,438.48	88.2781	4,438.48	87.3694	4,438.48	85.4622	4,438.48	82.6762	4,438.48	85.3766	4,438.48	85.8458	4,438.48	79.3071	4,438.48	84.1458	4,438.48	79.0508	4,438.48	78.7773	4,438.48	77.25	4,438.48	52.8472	4,438.48	76.1274	4,438.48	78.3319	4,438.48	74.9749	4,438.48	73.6584	4,438.48	75.2177	4,438.48	77.6181	4,438.48	70.2253	4,438.48	69.7296	4,438.48	72.2955	4,438.48	71.1004	4,438.48	72.1816	4,438.48	66.1039	4,438.48	62.5577	4,438.48	66.1517	4,438.48	72.1099
4,595.21	90.397	4,595.21	89.7761	4,595.21	91.3068	4,595.21	89.899	4,595.21	90.9401	4,595.21	90.928	4,595.21	87.4425	4,595.21	88.964	4,595.21	88.4432	4,595.21	86.9613	4,595.21	83.3438	4,595.21	86.1967	4,595.21	85.2789	4,595.21	81.2036	4,595.21	86.9401	4,595.21	82.1422	4,595.21	83.5034	4,595.21	79.2266	4,595.21	74.9419	4,595.21	76.0801	4,595.21	74.9565	4,595.21	76.0813	4,595.21	76.0354	4,595.21	74.506	4,595.21	73.0959	4,595.21	74.5009	4,595.21	74.5653	4,595.21	68.7728	4,595.21	71.9418	4,595.21	73.3162	4,595.21	72.034	4,595.21	72.1864	4,595.21	63.9427	4,595.21	63.0234	4,595.21	63.8974	4,595.21	70.8304
4,756.35	90.2078	4,756.35	90.0035	4,756.35	90.0226	4,756.35	91.1742	4,756.35	90.8956	4,756.35	90.5382	4,756.35	88.6434	4,756.35	88.3338	4,756.35	88.4662	4,756.35	88.1036	4,756.35	82.2793	4,756.35	84.9679	4,756.35	87.0644	4,756.35	82.5249	4,756.35	85.8699	4,756.35	81.304	4,756.35	82.8554	4,756.35	73.5191	4,756.35	79.1429	4,756.35	76.4522	4,756.35	78.6463	4,756.35	74.1473	4,756.35	70.4826	4,756.35	73.4546	4,756.35	67.3666	4,756.35	72.9381	4,756.35	69.5876	4,756.35	69.2703	4,756.35	71.0182	4,756.35	71.7532	4,756.35	63.8052	4,756.35	72.756	4,756.35	66.6995	4,756.35	63.787	4,756.35	61.2948	4,756.35	65.6233
4,924.8	89.4805	4,924.8	91.4693	4,924.8	88.6144	4,924.8	92.3261	4,924.8	89.8289	4,924.8	89.9764	4,924.8	88.5935	4,924.8	89.6332	4,924.8	87.8183	4,924.8	87.2295	4,924.8	84.396	4,924.8	84.0475	4,924.8	87.7248	4,924.8	81.8172	4,924.8	82.1137	4,924.8	77.6666	4,924.8	78.8264	4,924.8	78.382	4,924.8	78.524	4,924.8	74.333	4,924.8	78.4514	4,924.8	75.6493	4,924.8	75.6881	4,924.8	73.4281	4,924.8	58.823	4,924.8	73.6812	4,924.8	67.4893	4,924.8	71.2026	4,924.8	65.443	4,924.8	68.8689	4,924.8	64.3884	4,924.8	71.4132	4,924.8	67.8248	4,924.8	65.9162	4,924.8	65.4	4,924.8	66.4616
5,097.66	89.9798	5,097.66	90.9275	5,097.66	88.3196	5,097.66	91.1649	5,097.66	89.1905	5,097.66	91.4004	5,097.66	88.7378	5,097.66	89.4423	5,097.66	85.5783	5,097.66	86.9615	5,097.66	86.8638	5,097.66	84.0063	5,097.66	87.7044	5,097.66	80.9311	5,097.66	79.1648	5,097.66	80.3934	5,097.66	77.8412	5,097.66	77.5566	5,097.66	73.7763	5,097.66	76.5105	5,097.66	74.2424	5,097.66	74.8672	5,097.66	74.2867	5,097.66	73.7796	5,097.66	70.2172	5,097.66	74.3645	5,097.66	66.1873	5,097.66	71.7929	5,097.66	64.6898	5,097.66	72.5409	5,097.66	62.546	5,097.66	72.3022	5,097.66	65.3365	5,097.66	70.4943	5,097.66	66.8438	5,097.66	67.6116
5,277.83	91.0753	5,277.83	90.0686	5,277.83	89.6855	5,277.83	91.5843	5,277.83	88.5953	5,277.83	91.5698	5,277.83	88.3148	5,277.83	88.0429	5,277.83	84.2899	5,277.83	87.1632	5,277.83	88.2071	5,277.83	83.6756	5,277.83	84.8395	5,277.83	83.648	5,277.83	81.7527	5,277.83	79.6935	5,277.83	77.91	5,277.83	76.862	5,277.83	77.26	5,277.83	75.1064	5,277.83	74.8295	5,277.83	75.1478	5,277.83	76.9347	5,277.83	73.4698	5,277.83	75.319	5,277.83	73.41	5,277.83	62.4175	5,277.83	72.6195	5,277.83	68.94	5,277.83	71.5159	5,277.83	61.9351	5,277.83	72.6578	5,277.83	62.309	5,277.83	70.9111	5,277.83	67.2177	5,277.83	62.0527
5,463.87	91.3762	5,463.87	91.5647	5,463.87	91.0828	5,463.87	92.3973	5,463.87	88.8252	5,463.87	90.94	5,463.87	88.0998	5,463.87	88.317	5,463.87	83.7552	5,463.87	87.1927	5,463.87	88.1071	5,463.87	83.4965	5,463.87	82.7614	5,463.87	81.2898	5,463.87	81.7801	5,463.87	79.2248	5,463.87	77.074	5,463.87	78.4992	5,463.87	77.3966	5,463.87	75.4248	5,463.87	73.2126	5,463.87	75.1207	5,463.87	75.427	5,463.87	70.436	5,463.87	71.5797	5,463.87	72.2669	5,463.87	52.9933	5,463.87	72.6448	5,463.87	63.6569	5,463.87	70.7035	5,463.87	66.097	5,463.87	70.8736	5,463.87	65.0348	5,463.87	69.9368	5,463.87	64.9356	5,463.87	50.5253
5,657.23	91.7758	5,657.23	92.2096	5,657.23	92.2988	5,657.23	92.6257	5,657.23	89.7388	5,657.23	90.7274	5,657.23	88.5588	5,657.23	88.564	5,657.23	85.7844	5,657.23	85.952	5,657.23	86.038	5,657.23	82.6261	5,657.23	81.5913	5,657.23	81.8074	5,657.23	81.674	5,657.23	80.4222	5,657.23	78.7083	5,657.23	76.45	5,657.23	77.2523	5,657.23	75.6163	5,657.23	74.057	5,657.23	73.7607	5,657.23	69.096	5,657.23	71.4789	5,657.23	64.5475	5,657.23	70.6563	5,657.23	64.8373	5,657.23	69.4469	5,657.23	59.6115	5,657.23	71.7292	5,657.23	62.9267	5,657.23	71.6685	5,657.23	63.5181	5,657.23	66.7902	5,657.23	63.3929	5,657.23	63.6218
5,856.45	91.4245	5,856.45	92.1562	5,856.45	91.9518	5,856.45	92.4084	5,856.45	91.0524	5,856.45	90.6585	5,856.45	88.6007	5,856.45	87.0361	5,856.45	88.2264	5,856.45	85.4585	5,856.45	85.2502	5,856.45	82.7775	5,856.45	84.633	5,856.45	81.1779	5,856.45	80.8235	5,856.45	78.7893	5,856.45	82.0209	5,856.45	77.2935	5,856.45	76.6149	5,856.45	75.7912	5,856.45	74.9538	5,856.45	73.3536	5,856.45	74.0347	5,856.45	72.5466	5,856.45	67.0301	5,856.45	69.8834	5,856.45	61.8789	5,856.45	69.0257	5,856.45	54.8987	5,856.45	69.3472	5,856.45	52.2201	5,856.45	72.7133	5,856.45	60.8806	5,856.45	69.1205	5,856.45	62.1024	5,856.45	58.7217
6,062.99	91.4199	6,062.99	92.4483	6,062.99	91.6751	6,062.99	92.5349	6,062.99	92.7618	6,062.99	90.0345	6,062.99	87.3728	6,062.99	86.0367	6,062.99	88.4859	6,062.99	85.0261	6,062.99	84.3537	6,062.99	82.913	6,062.99	84.9651	6,062.99	83.0476	6,062.99	83.3429	6,062.99	80.5038	6,062.99	82.4378	6,062.99	78.1803	6,062.99	77.3861	6,062.99	75.451	6,062.99	75.4046	6,062.99	72.8877	6,062.99	76.052	6,062.99	72.5852	6,062.99	69.7408	6,062.99	69.9635	6,062.99	67.0138	6,062.99	71.1878	6,062.99	66.3956	6,062.99	70.908	6,062.99	59.2669	6,062.99	70.7242	6,062.99	61.9491	6,062.99	71.9028	6,062.99	63.5444	6,062.99	57.5778
6,276.86	92.309	6,276.86	92.8282	6,276.86	92.2696	6,276.86	92.0029	6,276.86	92.6122	6,276.86	88.3908	6,276.86	87.3264	6,276.86	85.7119	6,276.86	86.8827	6,276.86	85.373	6,276.86	86.1963	6,276.86	84.7953	6,276.86	84.7549	6,276.86	83.1195	6,276.86	84.0974	6,276.86	80.1677	6,276.86	81.2812	6,276.86	78.7419	6,276.86	76.3115	6,276.86	75.5072	6,276.86	75.9894	6,276.86	74.1606	6,276.86	79.0331	6,276.86	73.0336	6,276.86	73.8317	6,276.86	71.1012	6,276.86	69.2526	6,276.86	71.797	6,276.86	67.3171	6,276.86	70.3721	6,276.86	61.4299	6,276.86	69.3053	6,276.86	57.0576	6,276.86	72.6427	6,276.86	65.561	6,276.86	63.0203
6,498.05	92.844	6,498.05	92.4423	6,498.05	92.2078	6,498.05	90.7935	6,498.05	91.1728	6,498.05	86.3718	6,498.05	88.196	6,498.05	85.8197	6,498.05	88.5444	6,498.05	86.741	6,498.05	86.8529	6,498.05	84.9454	6,498.05	84.5524	6,498.05	83.778	6,498.05	83.6882	6,498.05	80.5817	6,498.05	74.9238	6,498.05	78.7487	6,498.05	71.8385	6,498.05	74.518	6,498.05	75.122	6,498.05	74.7332	6,498.05	78.8699	6,498.05	71.9057	6,498.05	74.5593	6,498.05	72.2899	6,498.05	65.9952	6,498.05	72.0826	6,498.05	59.6111	6,498.05	67.8717	6,498.05	62.5641	6,498.05	70.881	6,498.05	50.7901	6,498.05	72.5477	6,498.05	64.5996	6,498.05	64.9304
6,726.56	92.2259	6,726.56	91.0197	6,726.56	91.929	6,726.56	89.0823	6,726.56	90.1053	6,726.56	86.7402	6,726.56	89.0175	6,726.56	86.2979	6,726.56	88.7457	6,726.56	87.134	6,726.56	86.1163	6,726.56	84.9675	6,726.56	85.6172	6,726.56	83.5564	6,726.56	81.2714	6,726.56	79.2343	6,726.56	74.8857	6,726.56	76.5924	6,726.56	73.1987	6,726.56	75.7872	6,726.56	73.7604	6,726.56	73.2023	6,726.56	76.7562	6,726.56	72.5993	6,726.56	71.5562	6,726.56	72.6722	6,726.56	69.5001	6,726.56	70.8289	6,726.56	58.3593	6,726.56	68.9754	6,726.56	52.9675	6,726.56	70.8736	6,726.56	50.2355	6,726.56	71.085	6,726.56	62.3493	6,726.56	61.7109
6,963.87	91.1912	6,963.87	90.2218	6,963.87	91.0742	6,963.87	88.3519	6,963.87	90.2348	6,963.87	85.2626	6,963.87	88.0478	6,963.87	85.8872	6,963.87	87.611	6,963.87	86.4179	6,963.87	85.0731	6,963.87	83.7908	6,963.87	86.0643	6,963.87	82.1507	6,963.87	76.6477	6,963.87	78.721	6,963.87	82.5182	6,963.87	75.7084	6,963.87	76.7841	6,963.87	73.7807	6,963.87	68.2396	6,963.87	71.2523	6,963.87	70.5134	6,963.87	70.332	6,963.87	70.4896	6,963.87	70.407	6,963.87	60.7814	6,963.87	70.6942	6,963.87	58.4795	6,963.87	69.5791	6,963.87	48.9381	6,963.87	71.4995	6,963.87	57.1932	6,963.87	70.3887	6,963.87	47.5441	6,963.87	59.563
7,209.96	91.3517	7,209.96	90.1901	7,209.96	89.2643	7,209.96	87.0339	7,209.96	91.2401	7,209.96	85.9083	7,209.96	86.584	7,209.96	85.7927	7,209.96	85.1745	7,209.96	85.1628	7,209.96	86.9945	7,209.96	81.7097	7,209.96	85.4697	7,209.96	80.6205	7,209.96	83.8507	7,209.96	75.3411	7,209.96	83.8785	7,209.96	74.4578	7,209.96	74.5301	7,209.96	71.1955	7,209.96	73.8162	7,209.96	69.02	7,209.96	74.1806	7,209.96	69.1255	7,209.96	69.439	7,209.96	63.9593	7,209.96	65.7731	7,209.96	69.8912	7,209.96	57.9446	7,209.96	69.7988	7,209.96	63.958	7,209.96	69.6415	7,209.96	60.1233	7,209.96	68.996	7,209.96	56.2646	7,209.96	60.5037
7,464.84	90.5127	7,464.84	89.1137	7,464.84	88.284	7,464.84	86.5485	7,464.84	90.2818	7,464.84	85.8907	7,464.84	87.6064	7,464.84	85.7637	7,464.84	82.0945	7,464.84	84.9292	7,464.84	87.9866	7,464.84	81.646	7,464.84	82.4303	7,464.84	80.0187	7,464.84	86.567	7,464.84	76.3091	7,464.84	81.1283	7,464.84	74.9884	7,464.84	77.2877	7,464.84	70.1539	7,464.84	73.0075	7,464.84	70.2134	7,464.84	72.7682	7,464.84	67.1474	7,464.84	68.3797	7,464.84	65.856	7,464.84	60.7654	7,464.84	67.5366	7,464.84	60.4538	7,464.84	68.7393	7,464.84	61.7039	7,464.84	66.4909	7,464.84	57.5502	7,464.84	67.1279	7,464.84	59.3647	7,464.84	63.752
7,727.05	88.6795	7,727.05	87.4526	7,727.05	86.8518	7,727.05	86.7288	7,727.05	86.3098	7,727.05	87.6054	7,727.05	86.7116	7,727.05	86.3043	7,727.05	83.7509	7,727.05	84.6696	7,727.05	86.9753	7,727.05	82.2325	7,727.05	83.503	7,727.05	80.3356	7,727.05	85.5468	7,727.05	76.9756	7,727.05	76.4096	7,727.05	75.2502	7,727.05	77.9179	7,727.05	72.7217	7,727.05	70.8953	7,727.05	70.5223	7,727.05	74.489	7,727.05	68.0597	7,727.05	69.4367	7,727.05	70.7161	7,727.05	68.4885	7,727.05	67.1983	7,727.05	59.9254	7,727.05	62.433	7,727.05	53.4651	7,727.05	68.6261	7,727.05	60.5942	7,727.05	69.8285	7,727.05	62.6406	7,727.05	65.8139
7,999.51	89.6967	7,999.51	89.3874	7,999.51	89.4256	7,999.51	88.9124	7,999.51	85.3045	7,999.51	88.2289	7,999.51	86.175	7,999.51	85.34	7,999.51	86.1204	7,999.51	84.6415	7,999.51	83.0274	7,999.51	82.1957	7,999.51	85.0279	7,999.51	80.5401	7,999.51	80.7932	7,999.51	77.085	7,999.51	76.4734	7,999.51	73.1736	7,999.51	71.7107	7,999.51	71.4345	7,999.51	69.7914	7,999.51	67.0682	7,999.51	70.9928	7,999.51	65.681	7,999.51	69.4847	7,999.51	68.6463	7,999.51	64.4864	7,999.51	65.0729	7,999.51	55.1313	7,999.51	54.6974	7,999.51	58.3393	7,999.51	66.6578	7,999.51	59.8953	7,999.51	69.6718	7,999.51	60.1425	7,999.51	61.0932
8,282.23	91.3636	8,282.23	89.9499	8,282.23	91.318	8,282.23	89.8923	8,282.23	89.6152	8,282.23	87.827	8,282.23	87.4692	8,282.23	85.0679	8,282.23	86.8197	8,282.23	83.3213	8,282.23	82.5741	8,282.23	80.5773	8,282.23	83.6913	8,282.23	77.9261	8,282.23	69.0357	8,282.23	73.2422	8,282.23	76.2659	8,282.23	68.8977	8,282.23	66.5882	8,282.23	68.1815	8,282.23	67.663	8,282.23	59.8153	8,282.23	62.7468	8,282.23	59.4996	8,282.23	61.6016	8,282.23	64.842	8,282.23	57.3136	8,282.23	58.8778	8,282.23	52.0935	8,282.23	58.0426	8,282.23	52.9813	8,282.23	64.8977	8,282.23	53.4434	8,282.23	63.6588	8,282.23	56.0027	8,282.23	60.7526
8,573.73	91.0374	8,573.73	90.0733	8,573.73	92.0878	8,573.73	89.7876	8,573.73	91.4812	8,573.73	87.2282	8,573.73	87.9699	8,573.73	84.4447	8,573.73	87.0315	8,573.73	82.7011	8,573.73	84.5447	8,573.73	79.2076	8,573.73	81.4835	8,573.73	75.6094	8,573.73	77.674	8,573.73	69.9844	8,573.73	75.3676	8,573.73	65.4092	8,573.73	67.0849	8,573.73	63.5989	8,573.73	65.0119	8,573.73	59.2477	8,573.73	63.8298	8,573.73	56.6985	8,573.73	58.4539	8,573.73	57.2715	8,573.73	58.2007	8,573.73	51.0521	8,573.73	46.356	8,573.73	60.5512	8,573.73	51.8879	8,573.73	64.5189	8,573.73	49.1583	8,573.73	61.6343	8,573.73	55.8804	8,573.73	55.6193
8,876.95	91.8135	8,876.95	91.3351	8,876.95	91.8082	8,876.95	90.3873	8,876.95	92.0507	8,876.95	87.4051	8,876.95	87.9511	8,876.95	84.6061	8,876.95	86.4638	8,876.95	82.5622	8,876.95	84.6571	8,876.95	78.635	8,876.95	78.1771	8,876.95	74.8061	8,876.95	78.7076	8,876.95	69.8063	8,876.95	69.944	8,876.95	66.7664	8,876.95	66.9589	8,876.95	58.4467	8,876.95	62.3609	8,876.95	61.0599	8,876.95	67.3777	8,876.95	56.3573	8,876.95	63.124	8,876.95	56.8593	8,876.95	50.2334	8,876.95	55.4732	8,876.95	51.5074	8,876.95	58.6232	8,876.95	53.8689	8,876.95	60.9187	8,876.95	44.9675	8,876.95	55.5982	8,876.95	47.0573	8,876.95	38.1049
9,188.96	92.2864	9,188.96	91.841	9,188.96	91.3516	9,188.96	90.876	9,188.96	91.6348	9,188.96	87.5624	9,188.96	88.1151	9,188.96	84.4554	9,188.96	85.2526	9,188.96	82.0903	9,188.96	82.4178	9,188.96	77.078	9,188.96	77.5563	9,188.96	73.0944	9,188.96	75.5005	9,188.96	65.3485	9,188.96	67.4058	9,188.96	63.8351	9,188.96	62.0337	9,188.96	61.3602	9,188.96	63.8175	9,188.96	56.841	9,188.96	65.6812	9,188.96	58.8664	9,188.96	65.9379	9,188.96	58.7378	9,188.96	56.5713	9,188.96	56.2084	9,188.96	55.7842	9,188.96	52.7931	9,188.96	46.0592	9,188.96	53.6615	9,188.96	43.0397	9,188.96	54.0622	9,188.96	45.2461	9,188.96	50.3591
9,514.16	92.5369	9,514.16	92.1219	9,514.16	92.2755	9,514.16	91.0936	9,514.16	90.6844	9,514.16	87.5462	9,514.16	87.7383	9,514.16	84.1169	9,514.16	83.5807	9,514.16	80.9145	9,514.16	79.8462	9,514.16	75.7664	9,514.16	78.1537	9,514.16	69.8667	9,514.16	68.8766	9,514.16	61.74	9,514.16	67.7936	9,514.16	58.0764	9,514.16	58.9353	9,514.16	61.8935	9,514.16	65.3344	9,514.16	54.8356	9,514.16	65.6651	9,514.16	59.7875	9,514.16	67.1323	9,514.16	60.1351	9,514.16	50.1507	9,514.16	56.926	9,514.16	59.0328	9,514.16	55.7092	9,514.16	44.6172	9,514.16	54.4176	9,514.16	40.99	9,514.16	62.2789	9,514.16	52.7602	9,514.16	50.9138
9,849.61	92.5941	9,849.61	91.8888	9,849.61	92.5764	9,849.61	90.7894	9,849.61	90.2471	9,849.61	87.2294	9,849.61	87.7214	9,849.61	83.7423	9,849.61	83.3059	9,849.61	80.0571	9,849.61	79.5962	9,849.61	74.5383	9,849.61	76.5501	9,849.61	67.3842	9,849.61	68.0975	9,849.61	65.1419	9,849.61	65.3876	9,849.61	60.4406	9,849.61	57.1497	9,849.61	61.3665	9,849.61	65.5948	9,849.61	59.1323	9,849.61	66.8831	9,849.61	59.4812	9,849.61	67.9631	9,849.61	60.1986	9,849.61	53.1241	9,849.61	57.3454	9,849.61	55.6569	9,849.61	59.5928	9,849.61	50.7949	9,849.61	57.9897	9,849.61	50.9849	9,849.61	60.9401	9,849.61	54.5037	9,849.61	54.7853
10,196.8	92.0464	10,196.8	91.7026	10,196.8	91.9626	10,196.8	90.1934	10,196.8	90.521	10,196.8	86.4381	10,196.8	87.1474	10,196.8	82.7166	10,196.8	83.3469	10,196.8	78.2764	10,196.8	78.6877	10,196.8	70.7702	10,196.8	73.5633	10,196.8	67.0412	10,196.8	66.7497	10,196.8	65.0969	10,196.8	66.1555	10,196.8	64.0645	10,196.8	59.3842	10,196.8	62.2301	10,196.8	63.2102	10,196.8	59.65	10,196.8	68.1275	10,196.8	61.969	10,196.8	69.6037	10,196.8	58.1955	10,196.8	51.3848	10,196.8	59.8699	10,196.8	47.0386	10,196.8	61.2499	10,196.8	42.5129	10,196.8	60.7834	10,196.8	48.6964	10,196.8	59.916	10,196.8	48.8489	10,196.8	54.1546
10,555.7	92.0709	10,555.7	91.5559	10,555.7	91.6267	10,555.7	89.2727	10,555.7	91.0075	10,555.7	85.6131	10,555.7	86.4799	10,555.7	81.4833	10,555.7	83.3067	10,555.7	76.1733	10,555.7	77.9445	10,555.7	73.7624	10,555.7	72.2117	10,555.7	70.6241	10,555.7	73.5049	10,555.7	69.4356	10,555.7	65.6177	10,555.7	67.0169	10,555.7	63.2934	10,555.7	64.4916	10,555.7	66.2994	10,555.7	59.8818	10,555.7	70.1729	10,555.7	61.5332	10,555.7	71.2312	10,555.7	58.8197	10,555.7	60.4778	10,555.7	60.8182	10,555.7	57.543	10,555.7	63.2644	10,555.7	50.0944	10,555.7	61.0252	10,555.7	50.3707	10,555.7	64.2236	10,555.7	50.6374	10,555.7	52.1856
10,927.7	91.5464	10,927.7	91.1322	10,927.7	91.5763	10,927.7	88.6899	10,927.7	90.6225	10,927.7	84.8893	10,927.7	85.5955	10,927.7	80.1766	10,927.7	83.1593	10,927.7	75.137	10,927.7	76.686	10,927.7	76.6535	10,927.7	74.596	10,927.7	72.1467	10,927.7	73.9924	10,927.7	70.4703	10,927.7	66.9281	10,927.7	67.8317	10,927.7	63.998	10,927.7	62.9921	10,927.7	62.9068	10,927.7	60.6467	10,927.7	71.1211	10,927.7	61.6705	10,927.7	71.2245	10,927.7	58.937	10,927.7	59.6705	10,927.7	60.6624	10,927.7	52.1977	10,927.7	63.0507	10,927.7	52.3442	10,927.7	63.898	10,927.7	51.9007	10,927.7	63.4592	10,927.7	53.6842	10,927.7	56.0011
11,313	90.6817	11,313	90.4563	11,313	90.8097	11,313	87.8824	11,313	89.4409	11,313	84.3145	11,313	85.2679	11,313	78.8575	11,313	81.5653	11,313	76.6945	11,313	77.6757	11,313	77.4624	11,313	78.1379	11,313	72.3833	11,313	74.0664	11,313	69.1411	11,313	74.9394	11,313	66.5882	11,313	69.6596	11,313	61.8143	11,313	61.4417	11,313	61.4184	11,313	70.2086	11,313	61.6364	11,313	72.3516	11,313	61.8044	11,313	62.7059	11,313	61.7937	11,313	58.4442	11,313	63.8816	11,313	54.0575	11,313	61.568	11,313	37.4933	11,313	63.7524	11,313	51.5443	11,313	51.4492
11,712.9	90.8364	11,712.9	90.1991	11,712.9	90.0148	11,712.9	88.089	11,712.9	88.7718	11,712.9	83.6327	11,712.9	84.7203	11,712.9	80.4914	11,712.9	81.224	11,712.9	79.1736	11,712.9	79.4173	11,712.9	77.6655	11,712.9	75.7512	11,712.9	72.7381	11,712.9	74.9222	11,712.9	70.8654	11,712.9	73.7115	11,712.9	68.1973	11,712.9	63.9052	11,712.9	65.972	11,712.9	59.9699	11,712.9	60.8325	11,712.9	67.7568	11,712.9	62.9591	11,712.9	68.3795	11,712.9	62.3601	11,712.9	58.7461	11,712.9	63.5055	11,712.9	58.0698	11,712.9	65.1979	11,712.9	51.4521	11,712.9	63.298	11,712.9	46.8588	11,712.9	60.1978	11,712.9	52.2559	11,712.9	49.4513
12,126	90.9094	12,126	90.5983	12,126	90.6002	12,126	88.8923	12,126	89.3551	12,126	83.1623	12,126	84.253	12,126	81.8681	12,126	80.0532	12,126	78.3392	12,126	77.2112	12,126	77.2445	12,126	74.4862	12,126	74.8355	12,126	76.0087	12,126	73.4125	12,126	70.2129	12,126	69.5305	12,126	65.9626	12,126	66.5425	12,126	63.9966	12,126	61.899	12,126	69.5986	12,126	63.1121	12,126	70.6258	12,126	61.6514	12,126	62.9798	12,126	63.538	12,126	44.8609	12,126	64.7405	12,126	34.8059	12,126	62.3785	12,126	42.151	12,126	62.7305	12,126	42.6221	12,126	51.7235
12,553.7	90.8004	12,553.7	90.8137	12,553.7	90.3428	12,553.7	88.7013	12,553.7	89.1822	12,553.7	81.8708	12,553.7	80.8317	12,553.7	80.6908	12,553.7	78.9598	12,553.7	75.9863	12,553.7	77.3305	12,553.7	78.6018	12,553.7	74.8381	12,553.7	76.0758	12,553.7	74.5932	12,553.7	73.1727	12,553.7	71.5663	12,553.7	68.695	12,553.7	67.6621	12,553.7	65.2276	12,553.7	65.5706	12,553.7	61.8581	12,553.7	70.537	12,553.7	62.9783	12,553.7	71.1413	12,553.7	61.5576	12,553.7	63.0285	12,553.7	61.4809	12,553.7	45.6656	12,553.7	64.0126	12,553.7	47.5639	12,553.7	63.5397	12,553.7	52.5401	12,553.7	61.4397	12,553.7	50.9182	12,553.7	51.6894
12,996.1	90.2219	12,996.1	89.235	12,996.1	89.2389	12,996.1	87.3293	12,996.1	87.4384	12,996.1	81.0789	12,996.1	78.5494	12,996.1	79.4051	12,996.1	79.056	12,996.1	77.6975	12,996.1	77.6742	12,996.1	79.1828	12,996.1	77.3765	12,996.1	75.7296	12,996.1	75.7584	12,996.1	72.4306	12,996.1	71.5063	12,996.1	67.8687	12,996.1	63.9523	12,996.1	65.2972	12,996.1	62.7532	12,996.1	62.0488	12,996.1	70.8732	12,996.1	63.3102	12,996.1	71.7068	12,996.1	58.8833	12,996.1	61.219	12,996.1	62.6809	12,996.1	43.8254	12,996.1	64.5947	12,996.1	47.8741	12,996.1	62.6653	12,996.1	53.3972	12,996.1	62.0664	12,996.1	46.0541	12,996.1	53.9729
13,454.6	89.6091	13,454.6	89.072	13,454.6	88.9466	13,454.6	86.3225	13,454.6	87.34	13,454.6	80.9671	13,454.6	80.545	13,454.6	79.0278	13,454.6	78.4048	13,454.6	79.1813	13,454.6	79.5516	13,454.6	79.3779	13,454.6	76.5658	13,454.6	75.5466	13,454.6	76.4555	13,454.6	71.4725	13,454.6	70.9382	13,454.6	68.266	13,454.6	63.793	13,454.6	63.9056	13,454.6	64.8513	13,454.6	62.6298	13,454.6	71.2074	13,454.6	63.0292	13,454.6	72.2559	13,454.6	58.779	13,454.6	61.3652	13,454.6	62.1555	13,454.6	48.1566	13,454.6	63.1029	13,454.6	47.9314	13,454.6	61.945	13,454.6	53.8295	13,454.6	55.0074	13,454.6	50.2278	13,454.6	43.0286
13,929.2	89.4616	13,929.2	88.0669	13,929.2	88.624	13,929.2	86.7106	13,929.2	86.9741	13,929.2	81.7108	13,929.2	82.7492	13,929.2	79.9983	13,929.2	79.2205	13,929.2	80.3147	13,929.2	79.0621	13,929.2	78.125	13,929.2	77.0168	13,929.2	74.5242	13,929.2	75.436	13,929.2	71.7364	13,929.2	65.0279	13,929.2	66.8855	13,929.2	55.3326	13,929.2	63.968	13,929.2	66.0834	13,929.2	61.7261	13,929.2	72.6311	13,929.2	62.7127	13,929.2	73.6009	13,929.2	59.5158	13,929.2	63.5004	13,929.2	61.5486	13,929.2	56.52	13,929.2	61.4107	13,929.2	39.7748	13,929.2	61.0454	13,929.2	57.8233	13,929.2	55.9635	13,929.2	54.4192	13,929.2	48.0429
14,419.9	89.1593	14,419.9	87.8639	14,419.9	88.0198	14,419.9	87.1649	14,419.9	87.8	14,419.9	83.3268	14,419.9	83.7439	14,419.9	81.4888	14,419.9	79.1082	14,419.9	79.5714	14,419.9	80.6244	14,419.9	77.8068	14,419.9	76.9019	14,419.9	73.5409	14,419.9	73.4314	14,419.9	70.3417	14,419.9	70.1106	14,419.9	65.55	14,419.9	62.9789	14,419.9	62.1005	14,419.9	66.3611	14,419.9	58.8337	14,419.9	72.4409	14,419.9	61.1742	14,419.9	73.4961	14,419.9	56.2973	14,419.9	62.7544	14,419.9	61.0776	14,419.9	49.3853	14,419.9	59.6461	14,419.9	39.725	14,419.9	60.4277	14,419.9	55.657	14,419.9	57.8616	14,419.9	42.8351	14,419.9	44.2006
14,928.2	90.5411	14,928.2	89.267	14,928.2	89.4661	14,928.2	88.4549	14,928.2	88.2912	14,928.2	84.0037	14,928.2	85.0017	14,928.2	81.5973	14,928.2	81.3856	14,928.2	77.0568	14,928.2	79.3743	14,928.2	76.1409	14,928.2	74.6993	14,928.2	70.1118	14,928.2	73.2625	14,928.2	65.8572	14,928.2	66.4182	14,928.2	61.2533	14,928.2	60.7349	14,928.2	57.6082	14,928.2	66.0592	14,928.2	54.736	14,928.2	71.9481	14,928.2	57.4281	14,928.2	72.3922	14,928.2	52.6138	14,928.2	63.4388	14,928.2	55.4233	14,928.2	57.2773	14,928.2	54.9175	14,928.2	49.2409	14,928.2	53.9963	14,928.2	53.428	14,928.2	50.7292	14,928.2	53.7358	14,928.2	42.6447
15,455.6	91.4597	15,455.6	90.1179	15,455.6	89.8972	15,455.6	88.4582	15,455.6	88.3961	15,455.6	82.7384	15,455.6	83.3659	15,455.6	79.2058	15,455.6	78.8476	15,455.6	72.5755	15,455.6	76.6606	15,455.6	71.5125	15,455.6	71.0789	15,455.6	61.7251	15,455.6	71.4003	15,455.6	59.9309	15,455.6	62.5982	15,455.6	55.626	15,455.6	60.0396	15,455.6	50.0199	15,455.6	64.2054	15,455.6	52.0298	15,455.6	70.6484	15,455.6	53.7767	15,455.6	71.3169	15,455.6	45.2386	15,455.6	63.2705	15,455.6	50.0202	15,455.6	53.9798	15,455.6	40.6923	15,455.6	47.5232	15,455.6	52.3444	15,455.6	53.1877	15,455.6	43.7258	15,455.6	46.2786	15,455.6	43.7795
16,000.5	91.2788	16,000.5	89.8556	16,000.5	90.2953	16,000.5	87.4611	16,000.5	88.3459	16,000.5	80.9859	16,000.5	82.1063	16,000.5	76.1996	16,000.5	76.4413	16,000.5	70.1623	16,000.5	74.6993	16,000.5	65.4563	16,000.5	66.8452	16,000.5	53.1541	16,000.5	65.1768	16,000.5	54.7967	16,000.5	58.2757	16,000.5	54.0011	16,000.5	57.1684	16,000.5	38.1149	16,000.5	65.3974	16,000.5	49.4561	16,000.5	71.1927	16,000.5	47.655	16,000.5	72.2891	16,000.5	37.8341	16,000.5	64.6649	16,000.5	47.9528	16,000.5	57.0104	16,000.5	51.254	16,000.5	46.4185	16,000.5	54.2997	16,000.5	44.4195	16,000.5	45.6816	16,000.5	47.0373	16,000.5	42.0774
16,564.5	90.998	16,564.5	89.2862	16,564.5	89.4678	16,564.5	87.1195	16,564.5	87.4054	16,564.5	80.2383	16,564.5	81.1766	16,564.5	74.7467	16,564.5	75.8561	16,564.5	69.0763	16,564.5	74.17	16,564.5	68.8316	16,564.5	67.6852	16,564.5	63.4216	16,564.5	65.7179	16,564.5	62.6715	16,564.5	63.5369	16,564.5	58.6699	16,564.5	60.4351	16,564.5	44.7132	16,564.5	65.9791	16,564.5	55.1292	16,564.5	72.182	16,564.5	50.61	16,564.5	74.1074	16,564.5	48.4708	16,564.5	66.6217	16,564.5	55.3996	16,564.5	56.8452	16,564.5	54.531	16,564.5	47.365	16,564.5	50.8737	16,564.5	48.5767	16,564.5	49.9244	16,564.5	46.7681	16,564.5	36.6128
17,148.9	90.7047	17,148.9	89.1374	17,148.9	89.2505	17,148.9	86.8136	17,148.9	87.2292	17,148.9	80.1112	17,148.9	81.1998	17,148.9	74.7846	17,148.9	75.6762	17,148.9	70.2791	17,148.9	73.4697	17,148.9	73.2512	17,148.9	71.0577	17,148.9	68.3387	17,148.9	68.9507	17,148.9	65.1459	17,148.9	64.7951	17,148.9	60.3738	17,148.9	59.4584	17,148.9	45.4421	17,148.9	66.4184	17,148.9	57.3729	17,148.9	72.7412	17,148.9	51.6818	17,148.9	74.4271	17,148.9	50.9243	17,148.9	67.2616	17,148.9	55.8482	17,148.9	54.0353	17,148.9	53.1759	17,148.9	49.8574	17,148.9	53.3191	17,148.9	47.498	17,148.9	46.9901	17,148.9	47.7071	17,148.9	35.2956
17,752.4	90.6731	17,752.4	89.1962	17,752.4	89.2301	17,752.4	86.3499	17,752.4	87.5271	17,752.4	79.0433	17,752.4	79.8637	17,752.4	74.7229	17,752.4	76.8511	17,752.4	69.065	17,752.4	73.3525	17,752.4	72.6977	17,752.4	71.5875	17,752.4	67.2354	17,752.4	66.9759	17,752.4	62.7424	17,752.4	64.4603	17,752.4	59.1732	17,752.4	59.9342	17,752.4	47.6328	17,752.4	64.4125	17,752.4	56.276	17,752.4	71.5793	17,752.4	50.1469	17,752.4	73.2346	17,752.4	50.2032	17,752.4	65.3033	17,752.4	52.4063	17,752.4	55.3191	17,752.4	50.849	17,752.4	44.8398	17,752.4	51.9277	17,752.4	42.4809	17,752.4	47.8715	17,752.4	48.4755	17,752.4	42.2495
18,379.4	90.6802	18,379.4	89.3723	18,379.4	89.4347	18,379.4	86.5266	18,379.4	86.4074	18,379.4	77.6086	18,379.4	79.2789	18,379.4	72.9342	18,379.4	74.548	18,379.4	67.2626	18,379.4	71.0176	18,379.4	71.0351	18,379.4	69.8337	18,379.4	65.9934	18,379.4	67.1784	18,379.4	61.605	18,379.4	64.6389	18,379.4	58.6735	18,379.4	61.8973	18,379.4	48.6931	18,379.4	63.577	18,379.4	54.2447	18,379.4	71.4152	18,379.4	47.1567	18,379.4	73.1307	18,379.4	46.1663	18,379.4	66.1384	18,379.4	51.1794	18,379.4	50.2156	18,379.4	50.9977	18,379.4	47.7274	18,379.4	48.7873	18,379.4	49.8108	18,379.4	41.4444	18,379.4	44.9533	18,379.4	41.3894
19,026.9	90.0586	19,026.9	88.931	19,026.9	88.703	19,026.9	85.3479	19,026.9	85.4564	19,026.9	76.4138	19,026.9	77.816	19,026.9	72.9917	19,026.9	73.7771	19,026.9	69.7838	19,026.9	70.6342	19,026.9	72.8215	19,026.9	70.0539	19,026.9	66.0794	19,026.9	66.6945	19,026.9	62.101	19,026.9	65.0361	19,026.9	58.0054	19,026.9	60.5699	19,026.9	51.2979	19,026.9	60.7134	19,026.9	52.6143	19,026.9	70.8267	19,026.9	47.8845	19,026.9	72.8655	19,026.9	46.3012	19,026.9	65.0832	19,026.9	50.3327	19,026.9	52.3742	19,026.9	50.6473	19,026.9	42.3498	19,026.9	45.0528	19,026.9	42.3843	19,026.9	41.0589	19,026.9	38.9206	19,026.9	42.8396
19,697.8	88.9775	19,697.8	87.8243	19,697.8	87.3478	19,697.8	84.0126	19,697.8	83.6988	19,697.8	75.6303	19,697.8	75.8696	19,697.8	74.5732	19,697.8	73.4106	19,697.8	70.1276	19,697.8	69.9741	19,697.8	73.2938	19,697.8	67.8623	19,697.8	65.3077	19,697.8	65.4238	19,697.8	60.8434	19,697.8	62.1357	19,697.8	55.3548	19,697.8	57.2829	19,697.8	52.0664	19,697.8	60.4094	19,697.8	50.135	19,697.8	70.5134	19,697.8	44.28	19,697.8	72.3033	19,697.8	50.542	19,697.8	63.4618	19,697.8	48.7159	19,697.8	52.741	19,697.8	45.605	19,697.8	45.7211	19,697.8	42.9813	19,697.8	51.1079	19,697.8	34.3115	19,697.8	43.0228	19,697.8	41.0866
19,999.5	88.3944	19,999.5	87.7858	19,999.5	86.798	19,999.5	83.3679	19,999.5	82.9595	19,999.5	75.4908	19,999.5	75.3648	19,999.5	74.883	19,999.5	71.9829	19,999.5	70.3193	19,999.5	70.8979	19,999.5	72.4419	19,999.5	67.8165	19,999.5	65.5168	19,999.5	64.5336	19,999.5	61.5343	19,999.5	62.6296	19,999.5	56.9025	19,999.5	56.9141	19,999.5	54.9808	19,999.5	59.6141	19,999.5	51.4312	19,999.5	70.4005	19,999.5	46.1829	19,999.5	71.9377	19,999.5	53.9755	19,999.5	62.3973	19,999.5	53.3684	19,999.5	53.7207	19,999.5	54.6391	19,999.5	46.193	19,999.5	42.6568	19,999.5	55.1424	19,999.5	46.6708	19,999.5	50.9014	19,999.5	43.3862
