"SPL Horizontal"
"On-Axis"		"10°"		"-10°"		"20°"		"-20°"		"30°"		"-30°"		"40°"		"-40°"		"50°"		"-50°"		"60°"		"-60°"		"70°"		"-70°"		"80°"		"-80°"		"90°"		"-90°"		"100°"		"-100°"		"110°"		"-110°"		"120°"		"-120°"		"130°"		"-130°"		"140°"		"-140°"		"150°"		"-150°"		"160°"		"-160°"		"170°"		"-170°"		"180°"
"Frequency / Hz"	"Sound Pressure Level / dB (re 20 µPa/V)  [2.83  V @ 1. m]"	"Frequency / Hz"	"Sound Pressure Level / dB (re 20 µPa/V)  [2.83  V @ 1. m]"	"Frequency / Hz"	"Sound Pressure Level / dB (re 20 µPa/V)  [2.83  V @ 1. m]"	"Frequency / Hz"	"Sound Pressure Level / dB (re 20 µPa/V)  [2.83  V @ 1. m]"	"Frequency / Hz"	"Sound Pressure Level / dB (re 20 µPa/V)  [2.83  V @ 1. m]"	"Frequency / Hz"	"Sound Pressure Level / dB (re 20 µPa/V)  [2.83  V @ 1. m]"	"Frequency / Hz"	"Sound Pressure Level / dB (re 20 µPa/V)  [2.83  V @ 1. m]"	"Frequency / Hz"	"Sound Pressure Level / dB (re 20 µPa/V)  [2.83  V @ 1. m]"	"Frequency / Hz"	"Sound Pressure Level / dB (re 20 µPa/V)  [2.83  V @ 1. m]"	"Frequency / Hz"	"Sound Pressure Level / dB (re 20 µPa/V)  [2.83  V @ 1. m]"	"Frequency / Hz"	"Sound Pressure Level / dB (re 20 µPa/V)  [2.83  V @ 1. m]"	"Frequency / Hz"	"Sound Pressure Level / dB (re 20 µPa/V)  [2.83  V @ 1. m]"	"Frequency / Hz"	"Sound Pressure Level / dB (re 20 µPa/V)  [2.83  V @ 1. m]"	"Frequency / Hz"	"Sound Pressure Level / dB (re 20 µPa/V)  [2.83  V @ 1. m]"	"Frequency / Hz"	"Sound Pressure Level / dB (re 20 µPa/V)  [2.83  V @ 1. m]"	"Frequency / Hz"	"Sound Pressure Level / dB (re 20 µPa/V)  [2.83  V @ 1. m]"	"Frequency / Hz"	"Sound Pressure Level / dB (re 20 µPa/V)  [2.83  V @ 1. m]"	"Frequency / Hz"	"Sound Pressure Level / dB (re 20 µPa/V)  [2.83  V @ 1. m]"	"Frequency / Hz"	"Sound Pressure Level / dB (re 20 µPa/V)  [2.83  V @ 1. m]"	"Frequency / Hz"	"Sound Pressure Level / dB (re 20 µPa/V)  [2.83  V @ 1. m]"	"Frequency / Hz"	"Sound Pressure Level / dB (re 20 µPa/V)  [2.83  V @ 1. m]"	"Frequency / Hz"	"Sound Pressure Level / dB (re 20 µPa/V)  [2.83  V @ 1. m]"	"Frequency / Hz"	"Sound Pressure Level / dB (re 20 µPa/V)  [2.83  V @ 1. m]"	"Frequency / Hz"	"Sound Pressure Level / dB (re 20 µPa/V)  [2.83  V @ 1. m]"	"Frequency / Hz"	"Sound Pressure Level / dB (re 20 µPa/V)  [2.83  V @ 1. m]"	"Frequency / Hz"	"Sound Pressure Level / dB (re 20 µPa/V)  [2.83  V @ 1. m]"	"Frequency / Hz"	"Sound Pressure Level / dB (re 20 µPa/V)  [2.83  V @ 1. m]"	"Frequency / Hz"	"Sound Pressure Level / dB (re 20 µPa/V)  [2.83  V @ 1. m]"	"Frequency / Hz"	"Sound Pressure Level / dB (re 20 µPa/V)  [2.83  V @ 1. m]"	"Frequency / Hz"	"Sound Pressure Level / dB (re 20 µPa/V)  [2.83  V @ 1. m]"	"Frequency / Hz"	"Sound Pressure Level / dB (re 20 µPa/V)  [2.83  V @ 1. m]"	"Frequency / Hz"	"Sound Pressure Level / dB (re 20 µPa/V)  [2.83  V @ 1. m]"	"Frequency / Hz"	"Sound Pressure Level / dB (re 20 µPa/V)  [2.83  V @ 1. m]"	"Frequency / Hz"	"Sound Pressure Level / dB (re 20 µPa/V)  [2.83  V @ 1. m]"	"Frequency / Hz"	"Sound Pressure Level / dB (re 20 µPa/V)  [2.83  V @ 1. m]"	"Frequency / Hz"	"Sound Pressure Level / dB (re 20 µPa/V)  [2.83  V @ 1. m]"
20.5078	55.8731	20.5078	55.905	20.5078	55.8208	20.5078	55.9152	20.5078	55.7509	20.5078	55.9041	20.5078	55.6673	20.5078	55.874	20.5078	55.5746	20.5078	55.8293	20.5078	55.4788	20.5078	55.7757	20.5078	55.3867	20.5078	55.7199	20.5078	55.3059	20.5078	55.6677	20.5078	55.2439	20.5078	55.624	20.5078	55.2066	20.5078	55.5911	20.5078	55.1971	20.5078	55.5694	20.5078	55.2144	20.5078	55.5577	20.5078	55.2538	20.5078	55.5534	20.5078	55.3078	20.5078	55.5539	20.5078	55.3678	20.5078	55.5559	20.5078	55.4257	20.5078	55.5562	20.5078	55.4753	20.5078	55.5514	20.5078	55.513	20.5078	55.538
21.9727	60.3865	21.9727	60.3419	21.9727	60.4236	21.9727	60.2911	21.9727	60.4535	21.9727	60.2365	21.9727	60.4778	21.9727	60.1817	21.9727	60.4991	21.9727	60.1304	21.9727	60.5206	21.9727	60.0867	21.9727	60.5448	21.9727	60.054	21.9727	60.5735	21.9727	60.0346	21.9727	60.6062	21.9727	60.03	21.9727	60.641	21.9727	60.0405	21.9727	60.6743	21.9727	60.0659	21.9727	60.7019	21.9727	60.1053	21.9727	60.7199	21.9727	60.1576	21.9727	60.725	21.9727	60.221	21.9727	60.7153	21.9727	60.2932	21.9727	60.6897	21.9727	60.3708	21.9727	60.6483	21.9727	60.4496	21.9727	60.5925	21.9727	60.5251
23.4375	63.1369	23.4375	63.1315	23.4375	63.1266	23.4375	63.1108	23.4375	63.1009	23.4375	63.0761	23.4375	63.0612	23.4375	63.0296	23.4375	63.0095	23.4375	62.9738	23.4375	62.9486	23.4375	62.9114	23.4375	62.8814	23.4375	62.8452	23.4375	62.8112	23.4375	62.7774	23.4375	62.7407	23.4375	62.7099	23.4375	62.6722	23.4375	62.6443	23.4375	62.6074	23.4375	62.5819	23.4375	62.5474	23.4375	62.5239	23.4375	62.4929	23.4375	62.4715	23.4375	62.4449	23.4375	62.4257	23.4375	62.4041	23.4375	62.3879	23.4375	62.3715	23.4375	62.3591	23.4375	62.3481	23.4375	62.3403	23.4375	62.3347	23.4375	62.3321
24.9023	64.4924	24.9023	64.4788	24.9023	64.4872	24.9023	64.4471	24.9023	64.4632	24.9023	64.3989	24.9023	64.4215	24.9023	64.3364	24.9023	64.3637	24.9023	64.2621	24.9023	64.2922	24.9023	64.1792	24.9023	64.2097	24.9023	64.0906	24.9023	64.1193	24.9023	63.9991	24.9023	64.0243	24.9023	63.9076	24.9023	63.9279	24.9023	63.8186	24.9023	63.8332	24.9023	63.7341	24.9023	63.7432	24.9023	63.6562	24.9023	63.6604	24.9023	63.5867	24.9023	63.5872	24.9023	63.5271	24.9023	63.5253	24.9023	63.4789	24.9023	63.4762	24.9023	63.4432	24.9023	63.4407	24.9023	63.421	24.9023	63.4196	24.9023	63.4131
26.3672	66.7662	26.3672	66.7625	26.3672	66.7547	26.3672	66.7435	26.3672	66.7285	26.3672	66.7101	26.3672	66.6889	26.3672	66.6637	26.3672	66.6378	26.3672	66.6065	26.3672	66.5773	26.3672	66.5409	26.3672	66.5099	26.3672	66.4694	26.3672	66.438	26.3672	66.3947	26.3672	66.3639	26.3672	66.3192	26.3672	66.2899	26.3672	66.2453	26.3672	66.2181	26.3672	66.1751	26.3672	66.1503	26.3672	66.1105	26.3672	66.0884	26.3672	66.053	26.3672	66.0339	26.3672	66.0039	26.3672	65.9881	26.3672	65.9643	26.3672	65.952	26.3672	65.9348	26.3672	65.9264	26.3672	65.916	26.3672	65.9117	26.3672	65.9082
27.832	68.3215	27.832	68.3061	27.832	68.323	27.832	68.2774	27.832	68.3106	27.832	68.2365	27.832	68.2847	27.832	68.185	27.832	68.2465	27.832	68.1248	27.832	68.1972	27.832	68.0581	27.832	68.1388	27.832	67.9872	27.832	68.0732	27.832	67.9143	27.832	68.0027	27.832	67.8416	27.832	67.9294	27.832	67.7712	27.832	67.8557	27.832	67.7052	27.832	67.7839	27.832	67.6453	27.832	67.7161	27.832	67.5932	27.832	67.6544	27.832	67.5501	27.832	67.6003	27.832	67.517	27.832	67.5554	27.832	67.4948	27.832	67.5207	27.832	67.4839	27.832	67.4969	27.832	67.4846
29.2969	70.0436	29.2969	70.0414	29.2969	70.0312	29.2969	70.0249	29.2969	70.0049	29.2969	69.9945	29.2969	69.9655	29.2969	69.9515	29.2969	69.9146	29.2969	69.8973	29.2969	69.8537	29.2969	69.8337	29.2969	69.7849	29.2969	69.763	29.2969	69.7104	29.2969	69.6873	29.2969	69.6326	29.2969	69.6091	29.2969	69.5536	29.2969	69.5309	29.2969	69.4761	29.2969	69.4549	29.2969	69.4022	29.2969	69.3834	29.2969	69.3343	29.2969	69.3184	29.2969	69.2745	29.2969	69.2617	29.2969	69.2243	29.2969	69.2147	29.2969	69.1853	29.2969	69.1787	29.2969	69.1584	29.2969	69.1546	29.2969	69.1442	29.2969	69.143
30.7617	71.946	30.7617	71.9462	30.7617	71.9341	30.7617	71.9348	30.7617	71.9109	30.7617	71.912	30.7617	71.877	30.7617	71.8785	30.7617	71.8334	30.7617	71.8354	30.7617	71.7811	30.7617	71.7838	30.7617	71.7216	30.7617	71.7252	30.7617	71.6564	30.7617	71.6613	30.7617	71.5874	30.7617	71.594	30.7617	71.5164	30.7617	71.5251	30.7617	71.4457	30.7617	71.4567	30.7617	71.3777	30.7617	71.3907	30.7617	71.3148	30.7617	71.3291	30.7617	71.2592	30.7617	71.2737	30.7617	71.2129	30.7617	71.2263	30.7617	71.1775	30.7617	71.1884	30.7617	71.1543	30.7617	71.1614	30.7617	71.1438	30.7617	71.1463
32.2266	73.1411	32.2266	73.1433	32.2266	73.1272	32.2266	73.1337	32.2266	73.1021	32.2266	73.1125	32.2266	73.0666	32.2266	73.0805	32.2266	73.0218	32.2266	73.0385	32.2266	72.9692	32.2266	72.9879	32.2266	72.9102	32.2266	72.9301	32.2266	72.8463	32.2266	72.8668	32.2266	72.7793	32.2266	72.7998	32.2266	72.7111	32.2266	72.7311	32.2266	72.6434	32.2266	72.6626	32.2266	72.5783	32.2266	72.5964	32.2266	72.518	32.2266	72.5345	32.2266	72.4643	32.2266	72.4788	32.2266	72.4193	32.2266	72.4313	32.2266	72.3846	32.2266	72.3936	32.2266	72.3613	32.2266	72.3669	32.2266	72.3505	32.2266	72.3524
33.6914	74.4195	33.6914	74.4123	33.6914	74.4149	33.6914	74.3934	33.6914	74.3986	33.6914	74.3635	33.6914	74.3708	33.6914	74.3235	33.6914	74.3325	33.6914	74.2745	33.6914	74.2846	33.6914	74.218	33.6914	74.2284	33.6914	74.1553	33.6914	74.1653	33.6914	74.0882	33.6914	74.097	33.6914	74.0184	33.6914	74.0254	33.6914	73.9477	33.6914	73.9523	33.6914	73.8781	33.6914	73.8801	33.6914	73.8116	33.6914	73.8113	33.6914	73.7504	33.6914	73.7481	33.6914	73.6964	33.6914	73.693	33.6914	73.6516	33.6914	73.648	33.6914	73.6179	33.6914	73.6149	33.6914	73.5966	33.6914	73.5949	33.6914	73.5888
35.1562	75.8151	35.1562	75.8073	35.1562	75.8119	35.1562	75.7889	35.1562	75.7978	35.1562	75.7602	35.1562	75.7728	35.1562	75.7217	35.1562	75.7375	35.1562	75.6743	35.1562	75.6925	35.1562	75.6188	35.1562	75.6387	35.1562	75.5566	35.1562	75.5776	35.1562	75.4891	35.1562	75.5109	35.1562	75.4184	35.1562	75.4404	35.1562	75.3466	35.1562	75.3683	35.1562	75.2761	35.1562	75.2969	35.1562	75.2093	35.1562	75.2287	35.1562	75.1486	35.1562	75.1659	35.1562	75.0961	35.1562	75.1106	35.1562	75.0536	35.1562	75.0648	35.1562	75.0226	35.1562	75.0303	35.1562	75.0043	35.1562	75.0082	35.1562	74.9994
36.6211	76.6076	36.6211	76.5979	36.6211	76.6061	36.6211	76.5772	36.6211	76.5936	36.6211	76.5462	36.6211	76.5707	36.6211	76.5059	36.6211	76.538	36.6211	76.4574	36.6211	76.497	36.6211	76.4024	36.6211	76.4489	36.6211	76.3428	36.6211	76.3956	36.6211	76.2808	36.6211	76.3389	36.6211	76.2185	36.6211	76.2809	36.6211	76.1583	36.6211	76.2234	36.6211	76.1025	36.6211	76.1683	36.6211	76.0528	36.6211	76.117	36.6211	76.0108	36.6211	76.0707	36.6211	75.9776	36.6211	76.0302	36.6211	75.9536	36.6211	75.9961	36.6211	75.9391	36.6211	75.969	36.6211	75.9338	36.6211	75.9492	36.6211	75.9373
38.0859	76.7964	38.0859	76.792	38.0859	76.7885	38.0859	76.7751	38.0859	76.7683	38.0859	76.746	38.0859	76.7366	38.0859	76.7054	38.0859	76.6941	38.0859	76.6542	38.0859	76.6418	38.0859	76.5938	38.0859	76.5809	38.0859	76.526	38.0859	76.5131	38.0859	76.4528	38.0859	76.4401	38.0859	76.3764	38.0859	76.364	38.0859	76.2993	38.0859	76.2872	38.0859	76.2239	38.0859	76.2121	38.0859	76.1525	38.0859	76.1413	38.0859	76.0875	38.0859	76.0773	38.0859	76.0309	38.0859	76.0221	38.0859	75.9845	38.0859	75.9776	38.0859	75.95	38.0859	75.9452	38.0859	75.9283	38.0859	75.9259	38.0859	75.9202
39.5508	77.8555	39.5508	77.849	39.5508	77.8519	39.5508	77.8322	39.5508	77.8381	39.5508	77.8056	39.5508	77.8145	39.5508	77.7698	39.5508	77.7817	39.5508	77.7254	39.5508	77.7406	39.5508	77.6736	39.5508	77.6922	39.5508	77.6156	39.5508	77.6378	39.5508	77.5532	39.5508	77.5789	39.5508	77.4881	39.5508	77.517	39.5508	77.4225	39.5508	77.4541	39.5508	77.3587	39.5508	77.3918	39.5508	77.299	39.5508	77.3323	39.5508	77.2454	39.5508	77.2773	39.5508	77.2	39.5508	77.2285	39.5508	77.1642	39.5508	77.1877	39.5508	77.1394	39.5508	77.156	39.5508	77.126	39.5508	77.1347	39.5508	77.1245
41.0156	78.5663	41.0156	78.5548	41.0156	78.5675	41.0156	78.5334	41.0156	78.5583	41.0156	78.5026	41.0156	78.539	41.0156	78.4633	41.0156	78.5101	41.0156	78.4163	41.0156	78.4722	41.0156	78.363	41.0156	78.4265	41.0156	78.3049	41.0156	78.374	41.0156	78.2435	41.0156	78.3163	41.0156	78.1807	41.0156	78.2549	41.0156	78.1185	41.0156	78.1918	41.0156	78.0587	41.0156	78.1288	41.0156	78.0033	41.0156	78.068	41.0156	77.9539	41.0156	78.0113	41.0156	77.9124	41.0156	77.9607	41.0156	77.8801	41.0156	77.9178	41.0156	77.8582	41.0156	77.884	41.0156	77.8474	41.0156	77.8606	41.0156	77.8482
42.4805	79.5775	42.4805	79.5743	42.4805	79.5692	42.4805	79.5597	42.4805	79.5496	42.4805	79.5342	42.4805	79.5191	42.4805	79.4983	42.4805	79.4787	42.4805	79.4532	42.4805	79.4295	42.4805	79.4001	42.4805	79.373	42.4805	79.3405	42.4805	79.3111	42.4805	79.2762	42.4805	79.2459	42.4805	79.2095	42.4805	79.1796	42.4805	79.1425	42.4805	79.1144	42.4805	79.0776	42.4805	79.0523	42.4805	79.017	42.4805	78.9952	42.4805	78.9626	42.4805	78.9448	42.4805	78.9162	42.4805	78.9024	42.4805	78.8789	42.4805	78.8689	42.4805	78.8515	42.4805	78.845	42.4805	78.8343	42.4805	78.8311	42.4805	78.8275
43.9453	79.8428	43.9453	79.8371	43.9453	79.8373	43.9453	79.8204	43.9453	79.8205	43.9453	79.7933	43.9453	79.7929	43.9453	79.7566	43.9453	79.7552	43.9453	79.7114	43.9453	79.7083	43.9453	79.6591	43.9453	79.6539	43.9453	79.6012	43.9453	79.5935	43.9453	79.5394	43.9453	79.5292	43.9453	79.4756	43.9453	79.4633	43.9453	79.4118	43.9453	79.3979	43.9453	79.3499	43.9453	79.3353	43.9453	79.2919	43.9453	79.2774	43.9453	79.2394	43.9453	79.2261	43.9453	79.1941	43.9453	79.1827	43.9453	79.1573	43.9453	79.1483	43.9453	79.1299	43.9453	79.1237	43.9453	79.1125	43.9453	79.1094	43.9453	79.1057
45.4102	80.1589	45.4102	80.1561	45.4102	80.1498	45.4102	80.1418	45.4102	80.1287	45.4102	80.1164	45.4102	80.0959	45.4102	80.0809	45.4102	80.052	45.4102	80.0363	45.4102	79.9979	45.4102	79.9839	45.4102	79.935	45.4102	79.925	45.4102	79.865	45.4102	79.8613	45.4102	79.7902	45.4102	79.7942	45.4102	79.713	45.4102	79.7255	45.4102	79.6365	45.4102	79.657	45.4102	79.5637	45.4102	79.5906	45.4102	79.4973	45.4102	79.5281	45.4102	79.4399	45.4102	79.4715	45.4102	79.3935	45.4102	79.4225	45.4102	79.3594	45.4102	79.3827	45.4102	79.3384	45.4102	79.3535	45.4102	79.3306	45.4102	79.3358
46.875	80.6705	46.875	80.6644	46.875	80.6652	46.875	80.6471	46.875	80.6483	46.875	80.6195	46.875	80.62	46.875	80.5822	46.875	80.5806	46.875	80.5362	46.875	80.5309	46.875	80.4828	46.875	80.4721	46.875	80.4233	46.875	80.4057	46.875	80.3593	46.875	80.3336	46.875	80.2923	46.875	80.2582	46.875	80.2239	46.875	80.1821	46.875	80.1559	46.875	80.108	46.875	80.09	46.875	80.0389	46.875	80.0281	46.875	79.9772	46.875	79.9721	46.875	79.9253	46.875	79.9239	46.875	79.885	46.875	79.8855	46.875	79.8577	46.875	79.8586	46.875	79.8441	46.875	79.8445
48.3398	80.9173	48.3398	80.9059	48.3398	80.9179	48.3398	80.8839	48.3398	80.9079	48.3398	80.8519	48.3398	80.8874	48.3398	80.8107	48.3398	80.8572	48.3398	80.7613	48.3398	80.8178	48.3398	80.7052	48.3398	80.7704	48.3398	80.644	48.3398	80.7159	48.3398	80.5795	48.3398	80.6558	48.3398	80.5134	48.3398	80.5917	48.3398	80.4478	48.3398	80.5252	48.3398	80.3846	48.3398	80.4584	48.3398	80.3258	48.3398	80.3933	48.3398	80.2732	48.3398	80.3322	48.3398	80.2286	48.3398	80.2774	48.3398	80.1934	48.3398	80.2309	48.3398	80.1691	48.3398	80.1944	48.3398	80.1566	48.3398	80.1693	48.3398	80.1566
51.2695	81.6529	51.2695	81.6474	51.2695	81.6479	51.2695	81.6317	51.2695	81.6322	51.2695	81.6062	51.2695	81.6062	51.2695	81.5717	51.2695	81.5704	51.2695	81.5291	51.2695	81.5255	51.2695	81.4797	51.2695	81.4729	51.2695	81.4251	51.2695	81.4147	51.2695	81.3671	51.2695	81.3529	51.2695	81.3076	51.2695	81.2901	51.2695	81.2488	51.2695	81.229	51.2695	81.1925	51.2695	81.1717	51.2695	81.1406	51.2695	81.1201	51.2695	81.0945	51.2695	81.0757	51.2695	81.0553	51.2695	81.0393	51.2695	81.0237	51.2695	81.0113	51.2695	81.0003	51.2695	80.9919	51.2695	80.9854	51.2695	80.9811	51.2695	80.9789
52.7344	81.8087	52.7344	81.8082	52.7344	81.7985	52.7344	81.7971	52.7344	81.7778	52.7344	81.7761	52.7344	81.7472	52.7344	81.7461	52.7344	81.7077	52.7344	81.7083	52.7344	81.6606	52.7344	81.6644	52.7344	81.6078	52.7344	81.6163	52.7344	81.5515	52.7344	81.5657	52.7344	81.494	52.7344	81.5147	52.7344	81.4377	52.7344	81.4651	52.7344	81.3851	52.7344	81.4181	52.7344	81.338	52.7344	81.3751	52.7344	81.2981	52.7344	81.3367	52.7344	81.2662	52.7344	81.3034	52.7344	81.2426	52.7344	81.2754	52.7344	81.2272	52.7344	81.2528	52.7344	81.2194	52.7344	81.2357	52.7344	81.2186	52.7344	81.2242
54.1992	82.076	54.1992	82.0742	54.1992	82.0666	54.1992	82.0614	54.1992	82.0461	54.1992	82.0383	54.1992	82.0154	54.1992	82.0063	54.1992	81.9759	54.1992	81.9669	54.1992	81.9292	54.1992	81.9221	54.1992	81.8775	54.1992	81.874	54.1992	81.8229	54.1992	81.8246	54.1992	81.768	54.1992	81.7759	54.1992	81.715	54.1992	81.7295	54.1992	81.6662	54.1992	81.6867	54.1992	81.6232	54.1992	81.6484	54.1992	81.5873	54.1992	81.6151	54.1992	81.5591	54.1992	81.5871	54.1992	81.5388	54.1992	81.5642	54.1992	81.5259	54.1992	81.5461	54.1992	81.5195	54.1992	81.5326	54.1992	81.519	54.1992	81.5235
55.6641	82.3783	55.6641	82.3668	55.6641	82.3756	55.6641	82.3412	55.6641	82.3588	55.6641	82.3025	55.6641	82.3285	55.6641	82.252	55.6641	82.2858	55.6641	82.1914	55.6641	82.2323	55.6641	82.1232	55.6641	82.1697	55.6641	82.0497	55.6641	82.1003	55.6641	81.9739	55.6641	82.0266	55.6641	81.8984	55.6641	81.9512	55.6641	81.826	55.6641	81.8767	55.6641	81.759	55.6641	81.8056	55.6641	81.6993	55.6641	81.7403	55.6641	81.6485	55.6641	81.6827	55.6641	81.6071	55.6641	81.6342	55.6641	81.5758	55.6641	81.5955	55.6641	81.5543	55.6641	81.5672	55.6641	81.5428	55.6641	81.549	55.6641	81.541
58.5938	82.9241	58.5938	82.9125	58.5938	82.9219	58.5938	82.8874	58.5938	82.906	58.5938	82.8498	58.5938	82.8769	58.5938	82.8008	58.5938	82.8356	58.5938	82.7422	58.5938	82.7834	58.5938	82.6759	58.5938	82.7222	58.5938	82.6043	58.5938	82.654	58.5938	82.5299	58.5938	82.5811	58.5938	82.455	58.5938	82.5061	58.5938	82.3822	58.5938	82.4313	58.5938	82.3138	58.5938	82.3594	58.5938	82.2516	58.5938	82.2924	58.5938	82.1972	58.5938	82.2323	58.5938	82.152	58.5938	82.1807	58.5938	82.1169	58.5938	82.1386	58.5938	82.0925	58.5938	82.1071	58.5938	82.0792	58.5938	82.0865	58.5938	82.0771
60.0586	83.156	60.0586	83.1367	60.0586	83.1606	60.0586	83.1032	60.0586	83.1504	60.0586	83.0567	60.0586	83.1259	60.0586	82.9987	60.0586	83.088	60.0586	82.9311	60.0586	83.038	60.0586	82.8564	60.0586	82.9777	60.0586	82.7772	60.0586	82.9093	60.0586	82.6963	60.0586	82.8352	60.0586	82.6168	60.0586	82.7579	60.0586	82.5415	60.0586	82.68	60.0586	82.4729	60.0586	82.6042	60.0586	82.413	60.0586	82.5327	60.0586	82.3632	60.0586	82.4677	60.0586	82.3244	60.0586	82.4107	60.0586	82.2969	60.0586	82.363	60.0586	82.2807	60.0586	82.3253	60.0586	82.2756	60.0586	82.298	60.0586	82.2814
62.9883	83.4968	62.9883	83.4875	62.9883	83.4931	62.9883	83.4656	62.9883	83.4764	62.9883	83.4319	62.9883	83.4476	62.9883	83.3881	62.9883	83.4079	62.9883	83.3359	62.9883	83.359	62.9883	83.2776	62.9883	83.3028	62.9883	83.2156	62.9883	83.2418	62.9883	83.1524	62.9883	83.1784	62.9883	83.0904	62.9883	83.115	62.9883	83.0317	62.9883	83.0539	62.9883	82.978	62.9883	82.9969	62.9883	82.9305	62.9883	82.9457	62.9883	82.8901	62.9883	82.9015	62.9883	82.8571	62.9883	82.865	62.9883	82.8316	62.9883	82.8365	62.9883	82.8135	62.9883	82.8162	62.9883	82.8028	62.9883	82.804	62.9883	82.7996
64.4531	83.7169	64.4531	83.7057	64.4531	83.7152	64.4531	83.682	64.4531	83.7008	64.4531	83.6469	64.4531	83.6744	64.4531	83.602	64.4531	83.6373	64.4531	83.5492	64.4531	83.5912	64.4531	83.491	64.4531	83.5382	64.4531	83.43	64.4531	83.4807	64.4531	83.3689	64.4531	83.421	64.4531	83.31	64.4531	83.3616	64.4531	83.2556	64.4531	83.3047	64.4531	83.2071	64.4531	83.252	64.4531	83.1657	64.4531	83.205	64.4531	83.1317	64.4531	83.1646	64.4531	83.1052	64.4531	83.1312	64.4531	83.0858	64.4531	83.1049	64.4531	83.0732	64.4531	83.0857	64.4531	83.0669	64.4531	83.0731	64.4531	83.0669
67.3828	84.227	67.3828	84.2122	67.3828	84.228	67.3828	84.1841	67.3828	84.2153	67.3828	84.1438	67.3828	84.1897	67.3828	84.093	67.3828	84.1525	67.3828	84.034	67.3828	84.1056	67.3828	83.9694	67.3828	84.0512	67.3828	83.9021	67.3828	83.9917	67.3828	83.8352	67.3828	83.9299	67.3828	83.7715	67.3828	83.8683	67.3828	83.7134	67.3828	83.8091	67.3828	83.6628	67.3828	83.7543	67.3828	83.621	67.3828	83.7052	67.3828	83.5883	67.3828	83.6626	67.3828	83.5646	67.3828	83.6267	67.3828	83.5494	67.3828	83.5975	67.3828	83.5418	67.3828	83.5745	67.3828	83.541	67.3828	83.5576	67.3828	83.5464
68.8477	84.4278	68.8477	84.413	68.8477	84.4282	68.8477	84.3842	68.8477	84.4143	68.8477	84.3428	68.8477	84.3871	68.8477	84.2905	68.8477	84.3479	68.8477	84.2298	68.8477	84.2989	68.8477	84.1637	68.8477	84.2425	68.8477	84.0953	68.8477	84.1815	68.8477	84.0279	68.8477	84.1187	68.8477	83.9643	68.8477	84.0569	68.8477	83.9072	68.8477	83.9985	68.8477	83.8583	68.8477	83.9452	68.8477	83.8188	68.8477	83.8986	68.8477	83.7887	68.8477	83.8589	68.8477	83.7678	68.8477	83.8264	68.8477	83.755	68.8477	83.8004	68.8477	83.7493	68.8477	83.7802	68.8477	83.7496	68.8477	83.7652	68.8477	83.755
71.7773	84.7907	71.7773	84.7766	71.7773	84.7887	71.7773	84.7469	71.7773	84.7709	71.7773	84.7028	71.7773	84.7386	71.7773	84.6466	71.7773	84.6936	71.7773	84.5811	71.7773	84.6386	71.7773	84.5096	71.7773	84.5764	71.7773	84.4359	71.7773	84.5103	71.7773	84.3637	71.7773	84.4436	71.7773	84.2962	71.7773	84.3791	71.7773	84.2364	71.7773	84.3194	71.7773	84.1862	71.7773	84.2664	71.7773	84.1466	71.7773	84.2211	71.7773	84.1176	71.7773	84.1838	71.7773	84.0983	71.7773	84.1541	71.7773	84.0874	71.7773	84.131	71.7773	84.0835	71.7773	84.1133	71.7773	84.0849	71.7773	84.1001	71.7773	84.0906
74.707	85.1949	74.707	85.1822	74.707	85.1904	74.707	85.1529	74.707	85.1695	74.707	85.1082	74.707	85.1334	74.707	85.0504	74.707	85.0846	74.707	84.9825	74.707	85.0258	74.707	84.9082	74.707	84.9605	74.707	84.8314	74.707	84.8921	74.707	84.7561	74.707	84.8241	74.707	84.686	74.707	84.7594	74.707	84.6241	74.707	84.7005	74.707	84.5725	74.707	84.6489	74.707	84.5322	74.707	84.6055	74.707	84.503	74.707	84.5701	74.707	84.4842	74.707	84.5419	74.707	84.4741	74.707	84.52	74.707	84.4712	74.707	84.503	74.707	84.4735	74.707	84.4898	74.707	84.48
77.6367	85.5572	77.6367	85.5437	77.6367	85.5527	77.6367	85.5127	77.6367	85.531	77.6367	85.4657	77.6367	85.4935	77.6367	85.4053	77.6367	85.443	77.6367	85.3349	77.6367	85.3827	77.6367	85.2585	77.6367	85.3164	77.6367	85.1804	77.6367	85.2481	77.6367	85.105	77.6367	85.1817	77.6367	85.0363	77.6367	85.1202	77.6367	84.9775	77.6367	85.066	77.6367	84.9305	77.6367	85.0204	77.6367	84.8962	77.6367	84.9835	77.6367	84.874	77.6367	84.9548	77.6367	84.8624	77.6367	84.9326	77.6367	84.8594	77.6367	84.9154	77.6367	84.8625	77.6367	84.9015	77.6367	84.8695	77.6367	84.8895	77.6367	84.8788
79.1016	85.7226	79.1016	85.7096	79.1016	85.7166	79.1016	85.6781	79.1016	85.6923	79.1016	85.6296	79.1016	85.6514	79.1016	85.5668	79.1016	85.5966	79.1016	85.4932	79.1016	85.5315	79.1016	85.413	79.1016	85.4603	79.1016	85.3308	79.1016	85.3872	79.1016	85.2511	79.1016	85.3164	79.1016	85.1784	79.1016	85.2514	79.1016	85.116	79.1016	85.1949	79.1016	85.0662	79.1016	85.1481	79.1016	85.0299	79.1016	85.1111	79.1016	85.0067	79.1016	85.0831	79.1016	84.9949	79.1016	85.0622	79.1016	84.9921	79.1016	85.0465	79.1016	84.9957	79.1016	85.0339	79.1016	85.0032	79.1016	85.0229	79.1016	85.0126
82.0312	86.0958	82.0312	86.0868	82.0312	86.0841	82.0312	86.0576	82.0312	86.0524	82.0312	86.0098	82.0312	86.0026	82.0312	85.9464	82.0312	85.9377	82.0312	85.8709	82.0312	85.8614	82.0312	85.7877	82.0312	85.7784	82.0312	85.7017	82.0312	85.6935	82.0312	85.6177	82.0312	85.6113	82.0312	85.5399	82.0312	85.536	82.0312	85.4719	82.0312	85.4707	82.0312	85.416	82.0312	85.4174	82.0312	85.3729	82.0312	85.3765	82.0312	85.3423	82.0312	85.3474	82.0312	85.3225	82.0312	85.3282	82.0312	85.3113	82.0312	85.3165	82.0312	85.306	82.0312	85.31	82.0312	85.3044	82.0312	85.3066	82.0312	85.3048
84.9609	86.3965	84.9609	86.3849	84.9609	86.387	84.9609	86.3529	84.9609	86.357	84.9609	86.3024	84.9609	86.3083	84.9609	86.2367	84.9609	86.2442	84.9609	86.1596	84.9609	86.1684	84.9609	86.0759	84.9609	86.0857	84.9609	85.9906	84.9609	86.0011	84.9609	85.9086	84.9609	85.9192	84.9609	85.8341	84.9609	85.8444	84.9609	85.7703	84.9609	85.7797	84.9609	85.719	84.9609	85.7272	84.9609	85.6808	84.9609	85.6874	84.9609	85.6545	84.9609	85.6596	84.9609	85.6383	84.9609	85.6419	84.9609	85.6296	84.9609	85.6319	84.9609	85.6257	84.9609	85.6271	84.9609	85.6245	84.9609	85.6251	84.9609	85.6245
87.8906	86.5908	87.8906	86.5784	87.8906	86.581	87.8906	86.5448	87.8906	86.5495	87.8906	86.4922	87.8906	86.4984	87.8906	86.4244	87.8906	86.4309	87.8906	86.3457	87.8906	86.3516	87.8906	86.2614	87.8906	86.2658	87.8906	86.177	87.8906	86.1791	87.8906	86.0976	87.8906	86.097	87.8906	86.0277	87.8906	86.0242	87.8906	85.9704	87.8906	85.964	87.8906	85.9274	87.8906	85.9184	87.8906	85.8986	87.8906	85.8875	87.8906	85.8821	87.8906	85.8699	87.8906	85.8752	87.8906	85.863	87.8906	85.8742	87.8906	85.8635	87.8906	85.8758	87.8906	85.8678	87.8906	85.8771	87.8906	85.8728	87.8906	85.8762
90.8203	86.8931	90.8203	86.8821	90.8203	86.8805	90.8203	86.8481	90.8203	86.8451	90.8203	86.7934	90.8203	86.7894	90.8203	86.7217	90.8203	86.7171	90.8203	86.6379	90.8203	86.6331	90.8203	86.5477	90.8203	86.5433	90.8203	86.4574	90.8203	86.4535	90.8203	86.3727	90.8203	86.3694	90.8203	86.2987	90.8203	86.296	90.8203	86.239	90.8203	86.2365	90.8203	86.1952	90.8203	86.1926	90.8203	86.1671	90.8203	86.1642	90.8203	86.1526	90.8203	86.1493	90.8203	86.1483	90.8203	86.1449	90.8203	86.1503	90.8203	86.1471	90.8203	86.1548	90.8203	86.1522	90.8203	86.1585	90.8203	86.1571	90.8203	86.1594
95.2148	87.4386	95.2148	87.4252	95.2148	87.423	95.2148	87.3837	95.2148	87.3797	95.2148	87.3169	95.2148	87.3114	95.2148	87.229	95.2148	87.2229	95.2148	87.126	95.2148	87.1203	95.2148	87.0145	95.2148	87.0105	95.2148	86.9021	95.2148	86.901	95.2148	86.7958	95.2148	86.7989	95.2148	86.7021	95.2148	86.7101	95.2148	86.6258	95.2148	86.639	95.2148	86.5694	95.2148	86.5873	95.2148	86.5332	95.2148	86.5546	95.2148	86.5152	95.2148	86.5382	95.2148	86.5115	95.2148	86.5339	95.2148	86.5172	95.2148	86.5366	95.2148	86.5271	95.2148	86.5414	95.2148	86.5367	95.2148	86.5443	95.2148	86.5429
98.1445	87.5546	98.1445	87.5409	98.1445	87.5404	98.1445	87.5002	98.1445	87.4993	98.1445	87.4353	98.1445	87.4339	98.1445	87.3509	98.1445	87.3487	98.1445	87.2527	98.1445	87.2498	98.1445	87.1476	98.1445	87.1441	98.1445	87.0428	98.1445	87.0389	98.1445	86.9454	98.1445	86.9413	98.1445	86.8611	98.1445	86.8575	98.1445	86.7944	98.1445	86.7919	98.1445	86.7473	98.1445	86.7465	98.1445	86.7197	98.1445	86.721	98.1445	86.7093	98.1445	86.7123	98.1445	86.7118	98.1445	86.7161	98.1445	86.722	98.1445	86.7266	98.1445	86.7346	98.1445	86.7385	98.1445	86.7449	98.1445	86.7471	98.1445	86.7495
101.074	87.6265	101.074	87.6183	101.074	87.6057	101.074	87.5816	101.074	87.5575	101.074	87.5191	101.074	87.4854	101.074	87.4357	101.074	87.3949	101.074	87.3375	101.074	87.2928	101.074	87.232	101.074	87.1866	101.074	87.1272	101.074	87.0841	101.074	87.0305	101.074	86.9922	101.074	86.9483	101.074	86.9169	101.074	86.8853	101.074	86.8616	101.074	86.8435	101.074	86.8276	101.074	86.8222	101.074	86.8137	101.074	86.8188	101.074	86.8161	101.074	86.8282	101.074	86.8297	101.074	86.8448	101.074	86.8484	101.074	86.8625	101.074	86.8662	101.074	86.8761	101.074	86.8784	101.074	86.8819
105.469	87.9889	105.469	87.9799	105.469	87.9645	105.469	87.9382	105.469	87.9082	105.469	87.8673	105.469	87.8241	105.469	87.7727	105.469	87.7184	105.469	87.6617	105.469	87.599	105.469	87.5429	105.469	87.4749	105.469	87.4253	105.469	87.3552	105.469	87.3173	105.469	87.2482	105.469	87.2258	105.469	87.1605	105.469	87.1555	105.469	87.0962	105.469	87.1082	105.469	87.0564	105.469	87.0829	105.469	87.0394	105.469	87.0759	105.469	87.0409	105.469	87.0818	105.469	87.0552	105.469	87.0945	105.469	87.0756	105.469	87.108	105.469	87.096	105.469	87.1172	105.469	87.1114	105.469	87.1188
108.398	88.2681	108.398	88.2563	108.398	88.2438	108.398	88.2094	108.398	88.1848	108.398	88.1311	108.398	88.0953	108.398	88.0273	108.398	87.9816	108.398	87.9059	108.398	87.8521	108.398	87.7761	108.398	87.7164	108.398	87.6478	108.398	87.5845	108.398	87.5303	108.398	87.466	108.398	87.4314	108.398	87.3683	108.398	87.3565	108.398	87.2965	108.398	87.3075	108.398	87.2522	108.398	87.2832	108.398	87.2338	108.398	87.2793	108.398	87.2368	108.398	87.2895	108.398	87.2546	108.398	87.3065	108.398	87.2798	108.398	87.3233	108.398	87.3052	108.398	87.334	108.398	87.3249	108.398	87.3349
112.793	88.4963	112.793	88.4807	112.793	88.4735	112.793	88.4283	112.793	88.4138	112.793	88.343	112.793	88.3215	112.793	88.2316	112.793	88.2035	112.793	88.1026	112.793	88.0687	112.793	87.966	112.793	87.9276	112.793	87.8325	112.793	87.7911	112.793	87.7118	112.793	87.6695	112.793	87.6124	112.793	87.5711	112.793	87.5397	112.793	87.5012	112.793	87.4958	112.793	87.4613	112.793	87.479	112.793	87.4492	112.793	87.4843	112.793	87.4597	112.793	87.5045	112.793	87.485	112.793	87.5313	112.793	87.5168	112.793	87.5565	112.793	87.5469	112.793	87.5736	112.793	87.5688	112.793	87.5782
117.188	88.7949	117.188	88.7686	117.188	88.7817	117.188	88.7047	117.188	88.7298	117.188	88.6077	117.188	88.6428	117.188	88.4846	117.188	88.5269	117.188	88.3444	117.188	88.3904	117.188	88.1973	117.188	88.2433	117.188	88.0542	117.188	88.0967	117.188	87.9256	117.188	87.9614	117.188	87.8202	117.188	87.8469	117.188	87.744	117.188	87.7604	117.188	87.6991	117.188	87.7055	117.188	87.6839	117.188	87.6815	117.188	87.6927	117.188	87.6841	117.188	87.7176	117.188	87.7056	117.188	87.7492	117.188	87.7369	117.188	87.7783	117.188	87.7684	117.188	87.7977	117.188	87.7922	117.188	87.8027
120.117	88.9197	120.117	88.9015	120.117	88.8973	120.117	88.8438	120.117	88.8357	120.117	88.7508	120.117	88.7392	120.117	88.6292	120.117	88.6148	120.117	88.4878	120.117	88.4714	120.117	88.3371	120.117	88.3195	120.117	88.1884	120.117	88.1702	120.117	88.0527	120.117	88.0345	120.117	87.9394	120.117	87.9214	120.117	87.8552	120.117	87.8376	120.117	87.803	120.117	87.7859	120.117	87.7816	120.117	87.7655	120.117	87.786	120.117	87.7712	120.117	87.8081	120.117	87.7952	120.117	87.8384	120.117	87.8281	120.117	87.8676	120.117	87.8604	120.117	87.8878	120.117	87.8841	120.117	87.8938
124.512	89.0482	124.512	89.0318	124.512	89.0211	124.512	88.9734	124.512	88.9523	124.512	88.8774	124.512	88.8469	124.512	88.7515	124.512	88.7126	124.512	88.6057	124.512	88.5598	124.512	88.4514	124.512	88.4004	124.512	88.3011	124.512	88.2467	124.512	88.1663	124.512	88.1104	124.512	88.0568	124.512	88.0009	124.512	87.9787	124.512	87.9244	124.512	87.9341	124.512	87.8831	124.512	87.9208	124.512	87.8744	124.512	87.9328	124.512	87.8923	124.512	87.9612	124.512	87.9278	124.512	87.996	124.512	87.9706	124.512	88.0279	124.512	88.0108	124.512	88.0487	124.512	88.0402	124.512	88.0535
128.906	89.1837	128.906	89.1627	128.906	89.159	128.906	89.0975	128.906	89.0902	128.906	88.9933	128.906	88.9827	128.906	88.8583	128.906	88.8449	128.906	88.7034	128.906	88.6878	128.906	88.5413	128.906	88.5244	128.906	88.3856	128.906	88.3679	128.906	88.249	128.906	88.2312	128.906	88.1422	128.906	88.1244	128.906	88.072	128.906	88.0541	128.906	88.0403	128.906	88.0221	128.906	88.0438	128.906	88.0253	128.906	88.0747	128.906	88.0564	128.906	88.1222	128.906	88.1051	128.906	88.1743	128.906	88.1597	128.906	88.2198	128.906	88.2091	128.906	88.2496	128.906	88.244	128.906	88.2583
133.301	89.3286	133.301	89.3069	133.301	89.2996	133.301	89.2365	133.301	89.2221	133.301	89.1229	133.301	89.1019	133.301	88.9751	133.301	88.9485	133.301	88.805	133.301	88.7744	133.301	88.6264	133.301	88.5938	133.301	88.454	133.301	88.4219	133.301	88.3021	133.301	88.2727	133.301	88.1823	133.301	88.1574	133.301	88.1027	133.301	88.0832	133.301	88.0657	133.301	88.0517	133.301	88.0682	133.301	88.059	133.301	88.102	133.301	88.0965	133.301	88.1553	133.301	88.1523	133.301	88.2147	133.301	88.2133	133.301	88.2677	133.301	88.2672	133.301	88.304	133.301	88.3038	133.301	88.3168
139.16	89.3451	139.16	89.3161	139.16	89.3207	139.16	89.2361	139.16	89.2449	139.16	89.1115	139.16	89.1238	139.16	88.9528	139.16	88.9677	139.16	88.7733	139.16	88.7899	139.16	88.5888	139.16	88.606	139.16	88.4156	139.16	88.4324	139.16	88.2691	139.16	88.2846	139.16	88.1618	139.16	88.1749	139.16	88.101	139.16	88.1111	139.16	88.0882	139.16	88.0947	139.16	88.118	139.16	88.1211	139.16	88.1799	139.16	88.1801	139.16	88.2597	139.16	88.2579	139.16	88.3417	139.16	88.3391	139.16	88.4118	139.16	88.4094	139.16	88.4583	139.16	88.4569	139.16	88.4742
143.555	89.4785	143.555	89.4438	143.555	89.4579	143.555	89.3563	143.555	89.3839	143.555	89.2227	143.555	89.2628	143.555	89.0535	143.555	89.1049	143.555	88.8629	143.555	88.9238	143.555	88.6672	143.555	88.7356	143.555	88.484	143.555	88.5573	143.555	88.3298	143.555	88.4051	143.555	88.2182	143.555	88.2922	143.555	88.1574	143.555	88.2268	143.555	88.1489	143.555	88.2108	143.555	88.1873	143.555	88.2394	143.555	88.2608	143.555	88.302	143.555	88.3535	143.555	88.3841	143.555	88.4484	143.555	88.4693	143.555	88.5296	143.555	88.5424	143.555	88.5846	143.555	88.5906	143.555	88.6057
147.949	89.6045	147.949	89.5725	147.949	89.5744	147.949	89.4807	147.949	89.4845	147.949	89.3359	147.949	89.3418	147.949	89.149	147.949	89.1575	147.949	88.9348	147.949	88.9467	147.949	88.7108	147.949	88.7272	147.949	88.4961	147.949	88.518	147.949	88.3093	147.949	88.3373	147.949	88.1662	147.949	88.2002	147.949	88.0774	147.949	88.1161	147.949	88.0463	147.949	88.0872	147.949	88.0682	147.949	88.1085	147.949	88.1314	147.949	88.1681	147.949	88.2192	147.949	88.25	147.949	88.313	147.949	88.3364	147.949	88.3952	147.949	88.4109	147.949	88.4521	147.949	88.4598	147.949	88.4746
153.809	89.6146	153.809	89.5824	153.809	89.5789	153.809	89.4853	153.809	89.4779	153.809	89.331	153.809	89.3189	153.809	89.1319	153.809	89.1143	153.809	88.9043	153.809	88.8805	153.809	88.6671	153.809	88.637	153.809	88.4407	153.809	88.4048	153.809	88.2446	153.809	88.2041	153.809	88.0951	153.809	88.052	153.809	88.003	153.809	87.9595	153.809	87.9713	153.809	87.9298	153.809	87.9948	153.809	87.9574	153.809	88.0611	153.809	88.0291	153.809	88.1524	153.809	88.1266	153.809	88.2491	153.809	88.2297	153.809	88.3325	153.809	88.3196	153.809	88.3877	153.809	88.3812	153.809	88.405
159.668	89.8535	159.668	89.8192	159.668	89.8156	159.668	89.7159	159.668	89.7081	159.668	89.552	159.668	89.5387	159.668	89.3405	159.668	89.3206	159.668	89.099	159.668	89.0716	159.668	88.8479	159.668	88.8131	159.668	88.6093	159.668	88.5681	159.668	88.4047	159.668	88.3587	159.668	88.252	159.668	88.2035	159.668	88.1628	159.668	88.1145	159.668	88.14	159.668	88.0947	159.668	88.1775	159.668	88.1375	159.668	88.2609	159.668	88.2277	159.668	88.3702	159.668	88.3447	159.668	88.4837	159.668	88.4657	159.668	88.5808	159.668	88.5697	159.668	88.6453	159.668	88.64	159.668	88.6663
165.527	89.9504	165.527	89.9104	165.527	89.915	165.527	89.7985	165.527	89.8065	165.527	89.6236	165.527	89.6326	165.527	89.3996	165.527	89.4068	165.527	89.1448	165.527	89.1475	165.527	88.8811	165.527	88.8771	165.527	88.6322	165.527	88.6206	165.527	88.4212	165.527	88.4024	165.527	88.2676	165.527	88.2436	165.527	88.184	165.527	88.1577	165.527	88.1735	165.527	88.1482	165.527	88.2288	165.527	88.2076	165.527	88.3336	165.527	88.3183	165.527	88.4656	165.527	88.4566	165.527	88.6005	165.527	88.5966	165.527	88.7158	165.527	88.715	165.527	88.7931	165.527	88.7934	165.527	88.8205
171.387	89.8735	171.387	89.8286	171.387	89.8364	171.387	89.7052	171.387	89.7203	171.387	89.5124	171.387	89.5338	171.387	89.265	171.387	89.2918	171.387	88.9827	171.387	89.014	171.387	88.6893	171.387	88.7246	171.387	88.4108	171.387	88.4498	171.387	88.1731	171.387	88.2153	171.387	87.9983	171.387	88.0431	171.387	87.9011	171.387	87.9475	171.387	87.8853	171.387	87.9326	171.387	87.9435	171.387	87.9904	171.387	88.0574	171.387	88.1025	171.387	88.2024	171.387	88.2437	171.387	88.3517	171.387	88.3865	171.387	88.4806	171.387	88.506	171.387	88.5693	171.387	88.5827	171.387	88.605
177.246	89.8368	177.246	89.7908	177.246	89.7965	177.246	89.662	177.246	89.6726	177.246	89.46	177.246	89.4743	177.246	89.1999	177.246	89.2168	177.246	88.9021	177.246	88.9213	177.246	88.5913	177.246	88.6135	177.246	88.2949	177.246	88.322	177.246	88.0406	177.246	88.0747	177.246	87.8531	177.246	87.8957	177.246	87.7495	177.246	87.8003	177.246	87.7356	177.246	87.7922	177.246	87.8038	177.246	87.8622	177.246	87.9342	177.246	87.99	177.246	88.099	177.246	88.1481	177.246	88.2679	177.246	88.3072	177.246	88.4129	177.246	88.4402	177.246	88.5119	177.246	88.5259	177.246	88.5513
183.105	89.8491	183.105	89.7967	183.105	89.8102	183.105	89.6571	183.105	89.6823	183.105	89.4409	183.105	89.4742	183.105	89.1647	183.105	89.2018	183.105	88.8501	183.105	88.8867	183.105	88.5234	183.105	88.5567	183.105	88.2131	183.105	88.2429	183.105	87.9483	183.105	87.9772	183.105	87.7543	183.105	87.7877	183.105	87.6492	183.105	87.693	183.105	87.6395	183.105	87.6977	183.105	87.7181	183.105	87.7904	183.105	87.8651	183.105	87.9465	183.105	88.0512	183.105	88.1332	183.105	88.2436	183.105	88.3163	183.105	88.4113	183.105	88.4656	183.105	88.5291	183.105	88.5581	183.105	88.5804
188.965	89.9485	188.965	89.8891	188.965	89.9102	188.965	89.7363	188.965	89.7768	188.965	89.5007	188.965	89.5573	188.965	89.1994	188.965	89.2673	188.965	88.8553	188.965	88.9287	188.965	88.496	188.965	88.5691	188.965	88.1528	188.965	88.2204	188.965	87.8572	188.965	87.9167	188.965	87.6377	188.965	87.6892	188.965	87.514	188.965	87.5613	188.965	87.4934	188.965	87.5415	188.965	87.5676	188.965	87.621	188.965	87.7148	188.965	87.7744	188.965	87.9038	188.965	87.9659	188.965	88.0999	188.965	88.1576	188.965	88.2708	188.965	88.3155	188.965	88.3903	188.965	88.4147	188.965	88.4408
196.289	90.0059	196.289	89.9525	196.289	89.9625	196.289	89.8047	196.289	89.8257	196.289	89.5715	196.289	89.6051	196.289	89.2682	196.289	89.3157	196.289	88.9166	196.289	88.9777	196.289	88.544	196.289	88.6163	196.289	88.1819	196.289	88.2607	196.289	87.8632	196.289	87.9422	196.289	87.6184	196.289	87.6909	196.289	87.47	196.289	87.5308	196.289	87.4274	196.289	87.4739	196.289	87.4838	196.289	87.5161	196.289	87.617	196.289	87.6374	196.289	87.7943	196.289	87.8058	196.289	87.9791	196.289	87.9847	196.289	88.1377	196.289	88.14	196.289	88.2439	196.289	88.2445	196.289	88.2812
203.613	89.8743	203.613	89.8162	203.613	89.8254	203.613	89.654	203.613	89.6739	203.613	89.3982	203.613	89.4316	203.613	89.0667	203.613	89.1172	203.613	88.6848	203.613	88.756	203.613	88.2843	203.613	88.3787	203.613	87.9019	203.613	88.0196	203.613	87.5757	203.613	87.7135	203.613	87.3405	203.613	87.4911	203.613	87.2203	203.613	87.3742	203.613	87.2231	203.613	87.3699	203.613	87.3369	203.613	87.4682	203.613	87.5327	203.613	87.643	203.613	87.7708	203.613	87.8579	203.613	88.0092	203.613	88.0731	203.613	88.2107	203.613	88.2523	203.613	88.3471	203.613	88.3676	203.613	88.4013
210.938	89.9408	210.938	89.8925	210.938	89.8761	210.938	89.7337	210.938	89.703	210.938	89.4745	210.938	89.4334	210.938	89.1328	210.938	89.0857	210.938	88.7334	210.938	88.6846	210.938	88.3073	210.938	88.2608	210.938	87.8905	210.938	87.8497	210.938	87.521	210.938	87.4895	210.938	87.2349	210.938	87.2168	210.938	87.0602	210.938	87.0597	210.938	87.0105	210.938	87.0304	210.938	87.0803	210.938	87.12	210.938	87.245	210.938	87.2992	210.938	87.4659	210.938	87.5261	210.938	87.699	210.938	87.755	210.938	87.9026	210.938	87.9454	210.938	88.0439	210.938	88.0669	210.938	88.1014
218.262	89.7378	218.262	89.6899	218.262	89.6663	218.262	89.5257	218.262	89.4809	218.262	89.2564	218.262	89.1954	218.262	88.9019	218.262	88.8312	218.262	88.4899	218.262	88.4172	218.262	88.0559	218.262	87.9882	218.262	87.641	218.262	87.5839	218.262	87.2887	218.262	87.2454	218.262	87.0389	218.262	87.0102	218.262	86.9199	218.262	86.9046	218.262	86.9398	218.262	86.9364	218.262	87.0839	218.262	87.0908	218.262	87.3173	218.262	87.3323	218.262	87.5942	218.262	87.6142	218.262	87.8674	218.262	87.8881	218.262	88.0957	218.262	88.1126	218.262	88.2477	218.262	88.2572	218.262	88.3039
225.586	89.8705	225.586	89.8289	225.586	89.7787	225.586	89.6581	225.586	89.5584	225.586	89.3703	225.586	89.223	225.586	88.9861	225.586	88.7948	225.586	88.5348	225.586	88.3048	225.586	88.0534	225.586	87.7925	225.586	87.586	225.586	87.3045	225.586	87.1812	225.586	86.8911	225.586	86.8858	225.586	86.601	225.586	86.7359	225.586	86.4707	225.586	86.746	225.586	86.5127	225.586	86.9021	225.586	86.7088	225.586	87.1641	225.586	87.0132	225.586	87.4771	225.586	87.3661	225.586	87.7841	225.586	87.7078	225.586	88.0364	225.586	87.9892	225.586	88.198	225.586	88.1755	225.586	88.247
232.91	89.8783	232.91	89.8304	232.91	89.7881	232.91	89.6479	232.91	89.5642	232.91	89.3429	232.91	89.2187	232.91	88.9356	232.91	88.7715	232.91	88.4541	232.91	88.2495	232.91	87.934	232.91	87.6869	232.91	87.4182	232.91	87.1258	232.91	86.955	232.91	86.6162	232.91	86.5946	232.91	86.2132	232.91	86.3807	232.91	85.9692	232.91	86.3382	232.91	85.9177	232.91	86.4615	232.91	86.0583	232.91	86.7122	232.91	86.3512	232.91	87.03	232.91	86.7296	232.91	87.3486	232.91	87.1194	232.91	87.6094	232.91	87.4558	232.91	87.7683	232.91	87.6916	232.91	87.7988
241.699	89.7926	241.699	89.7263	241.699	89.7088	241.699	89.5145	241.699	89.4798	241.699	89.1712	241.699	89.1203	241.699	88.7197	241.699	88.6538	241.699	88.1921	241.699	88.1125	241.699	87.6292	241.699	87.535	241.699	87.0794	241.699	86.9661	241.699	86.5956	241.699	86.4545	241.699	86.2304	241.699	86.0508	241.699	86.0255	241.699	85.8014	241.699	86.0004	241.699	85.7366	241.699	86.1428	241.699	85.8577	241.699	86.4097	241.699	86.1302	241.699	86.739	241.699	86.4917	241.699	87.065	241.699	86.8694	241.699	87.3308	241.699	87.1974	241.699	87.494	241.699	87.4269	241.699	87.5289
250.488	90.1662	250.488	90.1035	250.488	90.0633	250.488	89.8793	250.488	89.7999	250.488	89.5067	250.488	89.3912	250.488	89.0076	250.488	88.8622	250.488	88.4125	250.488	88.2475	250.488	87.761	250.488	87.5901	250.488	87.1021	250.488	86.94	250.488	86.4937	250.488	86.3518	250.488	86	250.488	85.8816	250.488	85.6818	250.488	85.5805	250.488	85.5789	250.488	85.4825	250.488	85.6902	250.488	85.5896	250.488	85.9674	250.488	85.863	250.488	86.332	250.488	86.2322	250.488	86.7007	250.488	86.6164	250.488	87.0052	250.488	86.945	250.488	87.1987	250.488	87.1676	250.488	87.2554
259.277	90.0287	259.277	89.9504	259.277	89.9449	259.277	89.7169	259.277	89.702	259.277	89.3444	259.277	89.314	259.277	88.8577	259.277	88.8061	259.277	88.2896	259.277	88.2146	259.277	87.6798	259.277	87.5846	259.277	87.0733	259.277	86.9672	259.277	86.5188	259.277	86.4154	259.277	86.0666	259.277	85.98	259.277	85.7653	259.277	85.7042	259.277	85.6522	259.277	85.6155	259.277	85.7376	259.277	85.7148	259.277	85.9922	259.277	85.9698	259.277	86.3495	259.277	86.3196	259.277	86.7262	259.277	86.6906	259.277	87.046	259.277	87.0134	259.277	87.2538	259.277	87.2343	259.277	87.319
268.066	89.9242	268.066	89.8176	268.066	89.8573	268.066	89.5449	268.066	89.619	268.066	89.1232	268.066	89.2217	268.066	88.579	268.066	88.6882	268.066	87.9481	268.066	88.053	268.066	87.2751	268.066	87.3623	268.066	86.611	268.066	86.6738	268.066	86.0109	268.066	86.0541	268.066	85.5289	268.066	85.5715	268.066	85.2141	268.066	85.2833	268.066	85.1022	268.066	85.2175	268.066	85.2028	268.066	85.3601	268.066	85.4879	268.066	85.6592	268.066	85.8905	268.066	86.0414	268.066	86.3217	268.066	86.4308	268.066	86.6959	268.066	86.7602	268.066	86.9488	268.066	86.977	268.066	87.0452
276.855	90.1091	276.855	90.0166	276.855	90.0307	276.855	89.7554	276.855	89.788	276.855	89.3368	276.855	89.3951	276.855	88.7827	276.855	88.8739	276.855	88.1276	276.855	88.2533	276.855	87.4193	276.855	87.568	276.855	86.7177	276.855	86.8581	276.855	86.0904	276.855	86.1715	276.855	85.6036	276.855	85.5687	276.855	85.308	276.855	85.1247	276.855	85.2249	276.855	84.9135	276.855	85.3404	276.855	84.9711	276.855	85.6097	276.855	85.2642	276.855	85.9685	276.855	85.6993	276.855	86.3451	276.855	86.1645	276.855	86.6696	276.855	86.5651	276.855	86.8832	276.855	86.8367	276.855	86.945
287.109	89.9536	287.109	89.8328	287.109	89.8914	287.109	89.536	287.109	89.6491	287.109	89.0799	287.109	89.2403	287.109	88.4913	287.109	88.6902	287.109	87.8083	287.109	88.0364	287.109	87.0815	287.109	87.3282	287.109	86.374	287.109	86.6255	287.109	85.7591	287.109	85.9948	287.109	85.3118	287.109	85.5045	287.109	85.0904	287.109	85.2165	287.109	85.1149	287.109	85.1721	287.109	85.3561	287.109	85.3731	287.109	85.7476	287.109	85.7676	287.109	86.2093	287.109	86.2613	287.109	86.6663	287.109	86.748	287.109	87.0552	287.109	87.1395	287.109	87.3257	287.109	87.3788	287.109	87.4406
297.363	90.2185	297.363	90.1765	297.363	90.0653	297.363	89.9402	297.363	89.7269	297.363	89.521	297.363	89.2247	297.363	88.9398	297.363	88.591	297.363	88.2269	297.363	87.8668	297.363	87.4217	297.363	87.0986	297.363	86.5754	297.363	86.3359	297.363	85.7576	297.363	85.6312	297.363	85.0645	297.363	85.0437	297.363	84.6165	297.363	84.6435	297.363	84.518	297.363	84.5021	297.363	84.7863	297.363	84.6588	297.363	85.3204	297.363	85.08	297.363	85.9575	297.363	85.6599	297.363	86.5512	297.363	86.2664	297.363	87.005	297.363	86.7881	297.363	87.2672	297.363	87.1515	297.363	87.3166
307.617	89.8107	307.617	89.7048	307.617	89.7053	307.617	89.3971	307.617	89.3925	307.617	88.9092	307.617	88.8909	307.617	88.2736	307.617	88.2345	307.617	87.5326	307.617	87.472	307.617	86.7368	307.617	86.6641	307.617	85.9432	307.617	85.8776	307.617	85.2155	307.617	85.1783	307.617	84.6253	307.617	84.6264	307.617	84.2514	307.617	84.2759	307.617	84.1639	307.617	84.1715	307.617	84.3893	307.617	84.3339	307.617	84.8761	307.617	84.7367	307.617	85.5033	307.617	85.299	307.617	86.1285	307.617	85.9068	307.617	86.6325	307.617	86.4477	307.617	86.9374	307.617	86.8332	307.617	87.0055
319.336	89.6967	319.336	89.5822	319.336	89.5813	319.336	89.2481	319.336	89.2358	319.336	88.714	319.336	88.6717	319.336	88.0093	319.336	87.9142	319.336	87.1737	319.336	87.0031	319.336	86.2574	319.336	85.995	319.336	85.322	319.336	84.9655	319.336	84.4415	319.336	84.0122	319.336	83.7078	319.336	83.2578	319.336	83.2338	319.336	82.8355	319.336	83.1314	319.336	82.8426	319.336	83.4464	319.336	83.2745	319.336	84.0988	319.336	84.0091	319.336	84.914	319.336	84.8671	319.336	85.7098	319.336	85.6829	319.336	86.3529	319.336	86.337	319.336	86.7636	319.336	86.7561	319.336	86.902
329.59	89.61	329.59	89.4715	329.59	89.5247	329.59	89.1183	329.59	89.2193	329.59	88.5714	329.59	88.7108	329.59	87.8618	329.59	88.0289	329.59	87.0286	329.59	87.214	329.59	86.1161	329.59	86.3134	329.59	85.1726	329.59	85.3766	329.59	84.2529	329.59	84.4542	329.59	83.4288	329.59	83.6064	329.59	82.8045	329.59	82.9243	329.59	82.5131	329.59	82.545	329.59	82.6558	329.59	82.6044	329.59	83.2052	329.59	83.114	329.59	83.9942	329.59	83.9087	329.59	84.8133	329.59	84.7538	329.59	85.4959	329.59	85.4624	329.59	85.9385	329.59	85.9242	329.59	86.0873
341.309	89.1275	341.309	88.9688	341.309	89.0235	341.309	88.5628	341.309	88.6587	341.309	87.9424	341.309	88.0541	341.309	87.1563	341.309	87.2513	341.309	86.2657	341.309	86.3125	341.309	85.3367	341.309	85.3169	341.309	84.4321	341.309	84.3499	341.309	83.6042	341.309	83.4902	341.309	82.9004	341.309	82.8031	341.309	82.3814	341.309	82.3492	341.309	82.1407	341.309	82.196	341.309	82.2816	341.309	82.4016	341.309	82.8282	341.309	82.9573	341.309	83.6561	341.309	83.7493	341.309	84.5498	341.309	84.5973	341.309	85.3115	341.309	85.3275	341.309	85.8116	341.309	85.8141	341.309	85.9844
353.027	89.6797	353.027	89.5384	353.027	89.5733	353.027	89.143	353.027	89.2339	353.027	88.4998	353.027	88.6812	353.027	87.6326	353.027	87.9398	353.027	86.5871	353.027	87.04	353.027	85.4309	353.027	86.0194	353.027	84.2478	353.027	84.9228	353.027	83.127	353.027	83.8004	353.027	82.1564	353.027	82.7122	353.027	81.4327	353.027	81.7497	353.027	81.0775	353.027	81.0748	353.027	81.2036	353.027	80.9076	353.027	81.8058	353.027	81.3591	353.027	82.7054	353.027	82.2639	353.027	83.6491	353.027	83.2981	353.027	84.4286	353.027	84.1939	353.027	84.9158	353.027	84.7995	353.027	85.0461
366.211	90.3445	366.211	90.2302	366.211	90.1822	366.211	89.8424	366.211	89.7513	366.211	89.1942	366.211	89.0732	366.211	88.3086	366.211	88.1858	366.211	87.2196	366.211	87.1434	366.211	85.974	366.211	86.0154	366.211	84.6347	366.211	84.8796	366.211	83.2839	366.211	83.8132	366.211	82.0274	366.211	82.8866	366.211	81.0074	366.211	82.1637	366.211	80.4098	366.211	81.71	366.211	80.4047	366.211	81.5942	366.211	80.9918	366.211	81.8573	366.211	81.9448	366.211	82.4474	366.211	82.9628	366.211	83.2	366.211	83.8159	366.211	83.9073	366.211	84.371	366.211	84.3981	366.211	84.5675
379.395	90.1048	379.395	90.0369	379.395	89.8949	379.395	89.6989	379.395	89.416	379.395	89.1113	379.395	88.6952	379.395	88.3055	379.395	87.7778	379.395	87.3215	379.395	86.7234	379.395	86.2074	379.395	85.6008	379.395	85.0153	379.395	84.4817	379.395	83.794	379.395	83.4334	379.395	82.5856	379.395	82.5146	379.395	81.4448	379.395	81.7886	379.395	80.4993	379.395	81.3539	379.395	80.0174	379.395	81.3429	379.395	80.2853	379.395	81.8125	379.395	81.2415	379.395	82.6244	379.395	82.4665	379.395	83.5133	379.395	83.5683	379.395	84.2433	379.395	84.3413	379.395	84.6677	379.395	84.7107
392.578	90.1315	392.578	90.0004	392.578	89.967	392.578	89.5859	392.578	89.5106	392.578	88.9158	392.578	88.7831	392.578	88.0326	392.578	87.8231	392.578	86.9917	392.578	86.6884	392.578	85.8566	392.578	85.4554	392.578	84.6904	392.578	84.2122	392.578	83.545	392.578	83.0419	392.578	82.4512	392.578	82.0021	392.578	81.42	392.578	81.1245	392.578	80.4718	392.578	80.4558	392.578	79.7137	392.578	80.1187	392.578	79.4204	392.578	80.2843	392.578	79.8734	392.578	80.9751	392.578	80.9389	392.578	81.9412	392.578	82.1274	392.578	82.8325	392.578	83.0348	392.578	83.3886	392.578	83.4709
405.762	90.8606	405.762	90.7438	405.762	90.6989	405.762	90.3548	405.762	90.2631	405.762	89.7106	405.762	89.5688	405.762	88.8413	405.762	88.6452	405.762	87.7913	405.762	87.5375	405.762	86.6208	405.762	86.3071	405.762	85.4052	405.762	85.0268	405.762	84.2287	405.762	83.7697	405.762	83.1712	405.762	82.5972	405.762	82.2904	405.762	81.5598	405.762	81.6162	405.762	80.7226	405.762	81.1657	405.762	80.2083	405.762	80.9705	405.762	80.178	405.762	81.0741	405.762	80.6652	405.762	81.4673	405.762	81.447	405.762	82.0206	405.762	82.1948	405.762	82.5211	405.762	82.671	405.762	82.7752
420.41	90.6514	420.41	90.5314	420.41	90.4966	420.41	90.1504	420.41	90.0718	420.41	89.5408	420.41	89.3994	420.41	88.7499	420.41	88.5196	420.41	87.8334	420.41	87.4921	420.41	86.8483	420.41	86.3952	420.41	85.8501	420.41	85.3174	420.41	84.8908	420.41	84.3385	420.41	84.0147	420.41	83.5046	420.41	83.2524	420.41	82.8165	420.41	82.6277	420.41	82.2513	420.41	82.1783	420.41	81.8067	420.41	81.9712	420.41	81.5398	420.41	82.0633	420.41	81.5496	420.41	82.4094	420.41	81.8731	420.41	82.8353	420.41	82.3905	420.41	83.1315	420.41	82.8815	420.41	83.1571
435.059	89.5262	435.059	89.3854	435.059	89.3539	435.059	88.9477	435.059	88.8758	435.059	88.2491	435.059	88.1266	435.059	87.3408	435.059	87.1689	435.059	86.2876	435.059	86.0851	435.059	85.1675	435.059	84.9621	435.059	84.0709	435.059	83.873	435.059	83.0956	435.059	82.8727	435.059	82.3313	435.059	82.0128	435.059	81.8411	435.059	81.367	435.059	81.6639	435.059	81.0434	435.059	81.8213	435.059	81.1528	435.059	82.293	435.059	81.721	435.059	82.9878	435.059	82.6176	435.059	83.7637	435.059	83.6045	435.059	84.4703	435.059	84.4498	435.059	84.9739	435.059	84.9956	435.059	85.1695
451.172	89.8082	451.172	89.6229	451.172	89.6343	451.172	89.0852	451.172	89.1099	451.172	88.2186	451.172	88.2615	451.172	87.07	451.172	87.1379	451.172	85.7177	451.172	85.8148	451.172	84.2744	451.172	84.3982	451.172	82.8721	451.172	83.016	451.172	81.6223	451.172	81.7889	451.172	80.5821	451.172	80.7854	451.172	79.7723	451.172	80.0028	451.172	79.247	451.172	79.4246	451.172	79.1365	451.172	79.1326	451.172	79.5588	451.172	79.3308	451.172	80.4437	451.172	80.1147	451.172	81.5222	451.172	81.2445	451.172	82.4965	451.172	82.3273	451.172	83.1511	451.172	83.0777	451.172	83.3614
465.82	89.5359	465.82	89.3494	465.82	89.4044	465.82	88.861	465.82	88.9531	465.82	88.1022	465.82	88.1953	465.82	87.1214	465.82	87.166	465.82	85.9835	465.82	85.9308	465.82	84.7624	465.82	84.5945	465.82	83.5315	465.82	83.2944	465.82	82.3537	465.82	82.1635	465.82	81.2795	465.82	81.2691	465.82	80.3595	465.82	80.5814	465.82	79.6716	465.82	80.0214	465.82	79.3467	465.82	79.5723	465.82	79.5214	465.82	79.3743	465.82	80.1795	465.82	79.6527	465.82	81.0788	465.82	80.4183	465.82	81.903	465.82	81.3608	465.82	82.4177	465.82	82.1248	465.82	82.5008
483.398	89.1579	483.398	88.9843	483.398	88.9471	483.398	88.4436	483.398	88.3811	483.398	87.6011	483.398	87.5289	483.398	86.5637	483.398	86.4876	483.398	85.4557	483.398	85.362	483.398	84.3845	483.398	84.2432	483.398	83.418	483.398	83.2017	483.398	82.591	483.398	82.3004	483.398	81.9098	483.398	81.5971	483.398	81.3277	483.398	81.1069	483.398	80.7327	483.398	80.7599	483.398	80.0343	483.398	80.4364	483.398	79.3532	483.398	80.0975	483.398	79.1486	483.398	79.9277	483.398	79.7681	483.398	80.2347	483.398	80.8213	483.398	80.9772	483.398	81.6723	483.398	81.6968	483.398	81.9836
499.512	87.9959	499.512	87.7984	499.512	87.6693	499.512	87.103	499.512	86.8474	499.512	85.9965	499.512	85.6247	499.512	84.6459	499.512	84.1831	499.512	83.3015	499.512	82.7897	499.512	82.2304	499.512	81.7162	499.512	81.5913	499.512	81.1102	499.512	81.3987	499.512	80.9755	499.512	81.5915	499.512	81.2497	499.512	82.0553	499.512	81.8248	499.512	82.6201	499.512	82.5284	499.512	83.1024	499.512	83.1565	499.512	83.3572	499.512	83.5347	499.512	83.3105	499.512	83.5644	499.512	82.9864	499.512	83.2571	499.512	82.5269	499.512	82.753	499.512	82.1543	499.512	82.2831	499.512	82.0544
517.09	87.544	517.09	87.25	517.09	87.2444	517.09	86.358	517.09	86.3429	517.09	84.8499	517.09	84.827	517.09	82.7037	517.09	82.6894	517.09	79.9195	517.09	79.9446	517.09	76.5771	517.09	76.7044	517.09	73.0719	517.09	73.5044	517.09	70.9453	517.09	71.9235	517.09	72.119	517.09	73.0746	517.09	75.0961	517.09	75.6443	517.09	78.1557	517.09	78.4254	517.09	80.8209	517.09	80.9376	517.09	82.9847	517.09	82.9974	517.09	84.6312	517.09	84.5635	517.09	85.7882	517.09	85.6718	517.09	86.5143	517.09	86.3952	517.09	86.8852	517.09	86.8106	517.09	86.971
536.133	88.4745	536.133	88.2051	536.133	88.2226	536.133	87.4335	536.133	87.4421	536.133	86.1856	536.133	86.1362	536.133	84.4845	536.133	84.3211	536.133	82.3458	536.133	82.0373	536.133	79.7975	536.133	79.3669	536.133	76.9286	536.133	76.4413	536.133	73.9391	536.133	73.4164	536.133	71.2167	536.133	70.4795	536.133	69.8815	536.133	68.6134	536.133	71.6436	536.133	70.5216	536.133	75.2023	536.133	74.7146	536.133	78.6131	536.133	78.5047	536.133	81.377	536.133	81.4241	536.133	83.4705	536.133	83.5461	536.133	84.9337	536.133	84.9852	536.133	85.7996	536.133	85.821	536.133	86.0909
555.176	88.3712	555.176	88.1291	555.176	88.0433	555.176	87.3361	555.176	87.1556	555.176	86.0296	555.176	85.7531	555.176	84.2552	555.176	83.9088	555.176	82.0686	555.176	81.7113	555.176	79.5595	555.176	79.2627	555.176	76.8954	555.176	76.7154	555.176	74.3266	555.176	74.3055	555.176	72.0766	555.176	72.2281	555.176	70.2568	555.176	70.5452	555.176	69.4903	555.176	69.9325	555.176	71.5628	555.176	71.8266	555.176	75.5123	555.176	75.2972	555.176	79.0976	555.176	78.6426	555.176	81.7521	555.176	81.312	555.176	83.5143	555.176	83.2101	555.176	84.4958	555.176	84.3494	555.176	84.7689
574.219	88.6422	574.219	88.3182	574.219	88.3021	574.219	87.3433	574.219	87.299	574.219	85.7556	574.219	85.6468	574.219	83.6333	574.219	83.3842	574.219	81.1023	574.219	80.6004	574.219	78.3268	574.219	77.4745	574.219	75.4932	574.219	74.2933	574.219	72.8098	574.219	71.36	574.219	70.4427	574.219	68.7837	574.219	68.2651	574.219	66.5335	574.219	66.3856	574.219	65.8915	574.219	68.2741	574.219	69.3923	574.219	73.3942	574.219	74.1721	574.219	77.7279	574.219	78.0993	574.219	80.8229	574.219	80.9904	574.219	82.8758	574.219	82.9524	574.219	84.051	574.219	84.083	574.219	84.4428
594.727	88.7718	594.727	88.4557	594.727	88.4545	594.727	87.5034	594.727	87.5111	594.727	85.9329	594.727	85.9507	594.727	83.7987	594.727	83.8007	594.727	81.1967	594.727	81.1301	594.727	78.2468	594.727	78.0643	594.727	75.0909	594.727	74.8189	594.727	72.0197	594.727	71.8199	594.727	69.4218	594.727	69.6117	594.727	66.9619	594.727	67.8523	594.727	64.7396	594.727	64.8647	594.727	67.4231	594.727	62.5193	594.727	72.3971	594.727	69.6073	594.727	76.3939	594.727	75.1609	594.727	79.4192	594.727	78.7829	594.727	81.572	594.727	81.182	594.727	82.8347	594.727	82.6289	594.727	83.1841
615.234	88.4779	615.234	88.2608	615.234	88.0745	615.234	87.4163	615.234	87.0672	615.234	85.9493	615.234	85.4794	615.234	83.8884	615.234	83.3283	615.234	81.307	615.234	80.6128	615.234	78.3568	615.234	77.3525	615.234	75.3313	615.234	73.7905	615.234	72.665	615.234	70.8032	615.234	70.593	615.234	69.2067	615.234	68.7509	615.234	68.1658	615.234	66.2575	615.234	66.69	615.234	63.3014	615.234	65.0473	615.234	67.3722	615.234	66.8918	615.234	73.1189	615.234	71.9959	615.234	77.0505	615.234	76.277	615.234	79.6122	615.234	79.1864	615.234	81.0674	615.234	80.8837	615.234	81.4924
637.207	88.3649	637.207	88.0989	637.207	87.8804	637.207	87.1496	637.207	86.5605	637.207	85.5463	637.207	84.3663	637.207	83.3288	637.207	81.3807	637.207	80.6272	637.207	77.8504	637.207	77.6723	637.207	74.0958	637.207	74.7028	637.207	70.3185	637.207	72.0486	637.207	66.7658	637.207	70.354	637.207	64.436	637.207	69.5933	637.207	64.1021	637.207	68.339	637.207	64.869	637.207	64.7336	637.207	66.5823	637.207	63.1582	637.207	70.09	637.207	71.2594	637.207	74.4543	637.207	76.4313	637.207	77.9949	637.207	79.4709	637.207	80.2695	637.207	81.1012	637.207	81.4329	637.207	81.6963
659.18	89.02	659.18	88.5765	659.18	88.6919	659.18	87.3793	659.18	87.586	659.18	85.4305	659.18	85.6977	659.18	82.7108	659.18	82.9809	659.18	79.2945	659.18	79.3347	659.18	75.6523	659.18	74.7358	659.18	72.5633	659.18	69.9408	659.18	69.9598	659.18	68.0893	659.18	68.0193	659.18	69.3308	659.18	68.351	659.18	69.7081	659.18	69.5195	659.18	66.8638	659.18	70.0055	659.18	57.1915	659.18	71.0916	659.18	69.446	659.18	74.6583	659.18	75.6744	659.18	78.6127	659.18	79.2055	659.18	81.4261	659.18	81.4754	659.18	82.9674	659.18	82.859	659.18	83.3904
682.617	92.055	682.617	91.6037	682.617	91.7002	682.617	90.295	682.617	90.5441	682.617	88.0812	682.617	88.5051	682.617	84.8843	682.617	85.4538	682.617	80.421	682.617	81.303	682.617	73.7791	682.617	76.1379	682.617	61.2103	682.617	70.8147	682.617	55.7612	682.617	68.7764	682.617	60.8486	682.617	70.131	682.617	63.0718	682.617	70.8409	682.617	62.2346	682.617	69.5274	682.617	56.5481	682.617	63.9094	682.617	69.5484	682.617	61.0518	682.617	76.5345	682.617	74.3941	682.617	81.099	682.617	80.5085	682.617	84.2888	682.617	84.1546	682.617	86.2228	682.617	86.1867	682.617	86.8604
707.52	92.7986	707.52	92.419	707.52	92.2631	707.52	91.1287	707.52	90.8109	707.52	88.8861	707.52	88.4629	707.52	85.5622	707.52	85.2048	707.52	80.8397	707.52	80.9128	707.52	73.6435	707.52	75.3715	707.52	54.49	707.52	67.8964	707.52	66.3097	707.52	58.1398	707.52	70.1754	707.52	66.3058	707.52	70.708	707.52	70.252	707.52	69.6889	707.52	71.9069	707.52	65.8353	707.52	71.6663	707.52	56.5718	707.52	66.7	707.52	71.3741	707.52	68.6995	707.52	77.5404	707.52	77.7484	707.52	81.2588	707.52	81.9313	707.52	83.5032	707.52	83.904	707.52	84.3806
732.422	91.9547	732.422	91.61	732.422	91.3962	732.422	90.3581	732.422	89.928	732.422	88.1661	732.422	87.4669	732.422	84.8543	732.422	83.742	732.422	79.9017	732.422	77.9949	732.422	71.7986	732.422	67.0666	732.422	63.4953	732.422	64.1739	732.422	70.0156	732.422	70.4235	732.422	72.545	732.422	71.7724	732.422	73.5406	732.422	71.654	732.422	73.2779	732.422	70.3611	732.422	70.8014	732.422	66.3797	732.422	64.5373	732.422	60.1471	732.422	73.2502	732.422	72.9179	732.422	79.5732	732.422	79.2728	732.422	82.9823	732.422	82.9403	732.422	84.8352	732.422	84.9088	732.422	85.4896
757.324	92.2259	757.324	91.874	757.324	91.6031	757.324	90.5366	757.324	89.9784	757.324	88.177	757.324	87.3031	757.324	84.7347	757.324	83.4583	757.324	79.9883	757.324	77.9308	757.324	73.0767	757.324	68.3476	757.324	60.3976	757.324	58.7007	757.324	65.265	757.324	69.4721	757.324	70.304	757.324	72.6567	757.324	72.271	757.324	73.8674	757.324	72.8698	757.324	74.291	757.324	72.6875	757.324	73.9824	757.324	70.9773	757.324	71.0959	757.324	67.1443	757.324	65.1901	757.324	74.319	757.324	73.7196	757.324	80.7504	757.324	79.7679	757.324	83.9338	757.324	83.2277	757.324	84.6534
785.156	91.2504	785.156	90.7986	785.156	90.6414	785.156	89.2261	785.156	88.9526	785.156	86.3612	785.156	86.1021	785.156	81.9566	785.156	81.7648	785.156	75.7007	785.156	74.6834	785.156	68.6152	785.156	61.6175	785.156	69.5051	785.156	68.6825	785.156	71.8964	785.156	70.8351	785.156	72.5374	785.156	71.6711	785.156	72.2228	785.156	72.8115	785.156	72.1482	785.156	73.1767	785.156	72.0691	785.156	72.6135	785.156	69.6787	785.156	70.6469	785.156	60.1385	785.156	63.2478	785.156	70.7716	785.156	69.9384	785.156	77.7554	785.156	77.291	785.156	80.8386	785.156	80.5007	785.156	81.5854
811.523	90.0045	811.523	89.3918	811.523	89.4788	811.523	87.6555	811.523	87.7246	811.523	84.9237	811.523	84.4768	811.523	81.3006	811.523	79.2358	811.523	76.4236	811.523	71.5435	811.523	72.8776	811.523	71.376	811.523	74.4482	811.523	75.1806	811.523	75.2781	811.523	76.5298	811.523	75.4411	811.523	76.5945	811.523	75.6917	811.523	76.6925	811.523	75.5983	811.523	76.857	811.523	74.4169	811.523	76.1644	811.523	71.0782	811.523	74.0568	811.523	65.4001	811.523	68.6761	811.523	72.958	811.523	70.6677	811.523	78.8494	811.523	78.3365	811.523	81.8672	811.523	81.827	811.523	82.8334
840.82	89.4167	840.82	88.676	840.82	88.8326	840.82	86.4763	840.82	86.6454	840.82	81.9244	840.82	82.0559	840.82	71.6005	840.82	72.068	840.82	73.6605	840.82	68.1258	840.82	78.3582	840.82	76.2833	840.82	78.8772	840.82	78.9147	840.82	77.5223	840.82	79.1557	840.82	75.9999	840.82	77.9973	840.82	75.3395	840.82	77.5054	840.82	74.7385	840.82	77.1231	840.82	73.919	840.82	75.3789	840.82	71.7841	840.82	72.6013	840.82	65.5733	840.82	66.1758	840.82	67.2145	840.82	65.4521	840.82	77.1846	840.82	76.2467	840.82	81.112	840.82	80.3612	840.82	81.8717
870.117	90.7191	870.117	90.0068	870.117	90.0405	870.117	87.8206	870.117	87.8546	870.117	83.7322	870.117	83.7318	870.117	75.798	870.117	75.8981	870.117	68.1759	870.117	63.0234	870.117	77.974	870.117	75.3872	870.117	80.853	870.117	78.1018	870.117	81.1507	870.117	78.5988	870.117	79.8485	870.117	78.0715	870.117	78.8666	870.117	77.1288	870.117	78.976	870.117	77.0158	870.117	77.8822	870.117	77.0594	870.117	74.7881	870.117	75.0737	870.117	68.1662	870.117	67.8845	870.117	67.577	870.117	67.8525	870.117	78.3505	870.117	79.0185	870.117	82.6292	870.117	83.209	870.117	84.1471
900.879	91.4343	900.879	90.8139	900.879	90.7466	900.879	88.692	900.879	88.6693	900.879	84.501	900.879	84.7625	900.879	76.6203	900.879	77.0742	900.879	64.373	900.879	64.7334	900.879	75.4406	900.879	77.7937	900.879	78.2315	900.879	80.1373	900.879	78.2978	900.879	79.8196	900.879	77.2563	900.879	79.0185	900.879	75.8061	900.879	78.3879	900.879	74.5214	900.879	77.5035	900.879	74.7135	900.879	77.1385	900.879	73.2346	900.879	76.5694	900.879	66.6139	900.879	72.7567	900.879	65.2246	900.879	57.8336	900.879	76.3258	900.879	75.859	900.879	81.6801	900.879	81.4425	900.879	83.1871
933.105	90.0887	933.105	89.4509	933.105	89.1924	933.105	87.228	933.105	86.5289	933.105	82.8861	933.105	81.3863	933.105	73.73	933.105	70.7483	933.105	70.5589	933.105	73.7073	933.105	78.588	933.105	78.859	933.105	81.1378	933.105	80.562	933.105	81.6758	933.105	80.9891	933.105	80.9051	933.105	80.0361	933.105	79.3168	933.105	77.529	933.105	77.9705	933.105	76.0174	933.105	77.8199	933.105	75.8437	933.105	76.5959	933.105	74.6527	933.105	71.0461	933.105	70.5763	933.105	71.4107	933.105	68.8033	933.105	79.2644	933.105	78.4997	933.105	82.9894	933.105	82.7316	933.105	84.0399
965.332	91.7103	965.332	90.9444	965.332	90.9663	965.332	88.6073	965.332	88.3606	965.332	84.1103	965.332	82.9962	965.332	75.4739	965.332	70.2982	965.332	73.4465	965.332	72.962	965.332	78.6599	965.332	79.7487	965.332	79.9888	965.332	82.064	965.332	80.4953	965.332	82.2063	965.332	80.3716	965.332	81.4791	965.332	79.4898	965.332	80.6275	965.332	78.8355	965.332	78.3774	965.332	77.9907	965.332	74.4992	965.332	77.3486	965.332	74.3214	965.332	76.5355	965.332	73.6952	965.332	72.7861	965.332	62.7452	965.332	69.1506	965.332	71.7673	965.332	76.9768	965.332	77.7284	965.332	79.229
1,000.49	90.538	1,000.49	89.9714	1,000.49	89.4454	1,000.49	87.2848	1,000.49	86.569	1,000.49	81.0291	1,000.49	80.4099	1,000.49	72.4613	1,000.49	70.9722	1,000.49	79.2892	1,000.49	79.1968	1,000.49	82.5313	1,000.49	81.617	1,000.49	83.537	1,000.49	82.3374	1,000.49	82.5862	1,000.49	82.4067	1,000.49	81.2861	1,000.49	81.5646	1,000.49	80.2647	1,000.49	80.1288	1,000.49	77.8618	1,000.49	78.4703	1,000.49	76.8073	1,000.49	77.5268	1,000.49	76.8991	1,000.49	77.0462	1,000.49	73.877	1,000.49	75.0325	1,000.49	61.2568	1,000.49	67.8526	1,000.49	73.0007	1,000.49	72.1129	1,000.49	80.1474	1,000.49	79.5997	1,000.49	81.7987
1,035.64	91.8389	1,035.64	90.6847	1,035.64	90.9758	1,035.64	87.552	1,035.64	87.7154	1,035.64	80.9733	1,035.64	80.8933	1,035.64	72.3874	1,035.64	70.8829	1,035.64	81.4606	1,035.64	80.342	1,035.64	84.3119	1,035.64	83.0028	1,035.64	85.1107	1,035.64	83.7598	1,035.64	84.9896	1,035.64	84.1451	1,035.64	84.3483	1,035.64	83.6604	1,035.64	83.5131	1,035.64	82.8486	1,035.64	82.2384	1,035.64	81.5326	1,035.64	80.8587	1,035.64	78.9772	1,035.64	79.7616	1,035.64	78.7899	1,035.64	78.6232	1,035.64	78.7859	1,035.64	76.2768	1,035.64	74.3853	1,035.64	63.4249	1,035.64	67.7685	1,035.64	77.6441	1,035.64	80.2494	1,035.64	81.7928
1,072.27	91.1825	1,072.27	90.1428	1,072.27	90.0913	1,072.27	86.5907	1,072.27	86.4079	1,072.27	78.8002	1,072.27	77.1615	1,072.27	75.5305	1,072.27	74.8131	1,072.27	82.3679	1,072.27	82.8057	1,072.27	84.617	1,072.27	85.2302	1,072.27	85.3492	1,072.27	85.2416	1,072.27	85.0194	1,072.27	84.2496	1,072.27	83.7792	1,072.27	83.3752	1,072.27	82.6405	1,072.27	82.383	1,072.27	80.8223	1,072.27	80.7945	1,072.27	78.504	1,072.27	78.1365	1,072.27	78.6284	1,072.27	76.5981	1,072.27	76.7495	1,072.27	76.7196	1,072.27	68.9401	1,072.27	70.729	1,072.27	73.0931	1,072.27	71.7129	1,072.27	81.3733	1,072.27	80.5249	1,072.27	82.9042
1,108.89	91.602	1,108.89	90.4247	1,108.89	90.3314	1,108.89	86.7562	1,108.89	86.0967	1,108.89	78.1012	1,108.89	75.782	1,108.89	75.451	1,108.89	77.4745	1,108.89	83.3217	1,108.89	84.0491	1,108.89	85.4153	1,108.89	85.4936	1,108.89	85.7544	1,108.89	85.1078	1,108.89	85.0871	1,108.89	84.4901	1,108.89	83.7916	1,108.89	83.3616	1,108.89	83.3391	1,108.89	82.8523	1,108.89	82.5339	1,108.89	82.4395	1,108.89	80.1672	1,108.89	79.0868	1,108.89	78.4837	1,108.89	77.2804	1,108.89	77.155	1,108.89	77.0412	1,108.89	73.9621	1,108.89	71.8367	1,108.89	67.5235	1,108.89	68.2917	1,108.89	81.2639	1,108.89	80.8919	1,108.89	83.6685
1,148.44	91.7908	1,148.44	90.4217	1,148.44	90.4311	1,148.44	85.3841	1,148.44	86.2673	1,148.44	74.3168	1,148.44	74.1045	1,148.44	80.646	1,148.44	78.1383	1,148.44	85.526	1,148.44	83.571	1,148.44	86.6525	1,148.44	85.5837	1,148.44	85.7618	1,148.44	85.7882	1,148.44	84.9977	1,148.44	84.4601	1,148.44	84.5873	1,148.44	83.7681	1,148.44	84.0657	1,148.44	83.8126	1,148.44	83.738	1,148.44	83.1778	1,148.44	81.3831	1,148.44	80.9912	1,148.44	78.0526	1,148.44	77.1261	1,148.44	78.2565	1,148.44	74.1208	1,148.44	74.2866	1,148.44	69.7671	1,148.44	72.5744	1,148.44	73.5821	1,148.44	82.4574	1,148.44	81.2173	1,148.44	84.4769
1,189.45	91.923	1,189.45	90.6299	1,189.45	90.6447	1,189.45	86.0969	1,189.45	85.6761	1,189.45	72.3524	1,189.45	68.9967	1,189.45	78.9326	1,189.45	81.6399	1,189.45	85.2278	1,189.45	85.6847	1,189.45	87.4975	1,189.45	86.8844	1,189.45	86.8402	1,189.45	86.723	1,189.45	85.1659	1,189.45	85.4568	1,189.45	83.5299	1,189.45	83.5479	1,189.45	81.5001	1,189.45	82.4196	1,189.45	81.2329	1,189.45	83.2538	1,189.45	81.1151	1,189.45	82.6164	1,189.45	79.5366	1,189.45	80.5598	1,189.45	79.0205	1,189.45	77.7698	1,189.45	77.5802	1,189.45	73.6173	1,189.45	68.3744	1,189.45	54.805	1,189.45	80.5097	1,189.45	79.0866	1,189.45	83.2181
1,230.47	91.8932	1,230.47	90.4558	1,230.47	90.1227	1,230.47	85.3507	1,230.47	84.8906	1,230.47	72.1307	1,230.47	71.1837	1,230.47	80.8833	1,230.47	82.1896	1,230.47	84.2761	1,230.47	86.6514	1,230.47	86.2648	1,230.47	87.9649	1,230.47	86.939	1,230.47	87.806	1,230.47	85.5118	1,230.47	86.0822	1,230.47	84.1004	1,230.47	83.6211	1,230.47	83.4772	1,230.47	82.7357	1,230.47	83.6329	1,230.47	83.9341	1,230.47	83.925	1,230.47	84.1916	1,230.47	81.8041	1,230.47	81.5738	1,230.47	79.3879	1,230.47	79.5467	1,230.47	79.4294	1,230.47	76.731	1,230.47	72.056	1,230.47	70.0695	1,230.47	79.048	1,230.47	79.3882	1,230.47	82.7447
1,274.41	91.6519	1,274.41	90.1924	1,274.41	89.5142	1,274.41	84.3316	1,274.41	81.924	1,274.41	71.6997	1,274.41	73.8355	1,274.41	83.2941	1,274.41	83.7602	1,274.41	85.1616	1,274.41	85.6551	1,274.41	85.4447	1,274.41	85.7437	1,274.41	85.9807	1,274.41	86.2957	1,274.41	85.8422	1,274.41	85.2621	1,274.41	84.516	1,274.41	83.1129	1,274.41	82.7343	1,274.41	80.7834	1,274.41	81.9608	1,274.41	81.0081	1,274.41	81.8789	1,274.41	83.1218	1,274.41	80.9725	1,274.41	81.8683	1,274.41	77.9221	1,274.41	79.5956	1,274.41	78.0226	1,274.41	76.4879	1,274.41	72.2038	1,274.41	68.2124	1,274.41	74.2255	1,274.41	75.8755	1,274.41	80.6611
1,319.82	90.6598	1,319.82	89.5351	1,319.82	88.2567	1,319.82	83.1378	1,319.82	80.584	1,319.82	76.4485	1,319.82	75.0638	1,319.82	84.7409	1,319.82	84.7436	1,319.82	86.3536	1,319.82	86.2556	1,319.82	85.6201	1,319.82	85.2842	1,319.82	84.6341	1,319.82	84.9506	1,319.82	84.6517	1,319.82	84.6742	1,319.82	83.9327	1,319.82	83.473	1,319.82	82.7305	1,319.82	82.0357	1,319.82	81.9403	1,319.82	81.1535	1,319.82	82.2158	1,319.82	82.0046	1,319.82	81.5558	1,319.82	81.683	1,319.82	80.1573	1,319.82	78.5	1,319.82	78.8644	1,319.82	74.6048	1,319.82	72.7924	1,319.82	66.5434	1,319.82	72.3931	1,319.82	74.1605	1,319.82	79.3191
1,366.7	90.0978	1,366.7	88.0573	1,366.7	88.06	1,366.7	78.9076	1,366.7	79.6556	1,366.7	78.8381	1,366.7	78.7654	1,366.7	86.5321	1,366.7	85.0858	1,366.7	87.1705	1,366.7	86.2503	1,366.7	85.5098	1,366.7	85.4428	1,366.7	83.6284	1,366.7	83.8744	1,366.7	81.7261	1,366.7	82.2069	1,366.7	81.9213	1,366.7	80.4337	1,366.7	80.3633	1,366.7	78.9157	1,366.7	79.7975	1,366.7	78.1378	1,366.7	80.793	1,366.7	80.411	1,366.7	80.204	1,366.7	80.9357	1,366.7	80.0194	1,366.7	79.7137	1,366.7	78.2191	1,366.7	78.0103	1,366.7	74.0617	1,366.7	71.1962	1,366.7	71.5337	1,366.7	73.4844	1,366.7	79.1189
1,413.57	91.1634	1,413.57	89.3477	1,413.57	89.2981	1,413.57	81.9003	1,413.57	81.9385	1,413.57	77.9503	1,413.57	76.6629	1,413.57	85.3816	1,413.57	84.2737	1,413.57	85.9632	1,413.57	85.858	1,413.57	84.5132	1,413.57	84.3356	1,413.57	82.436	1,413.57	81.0859	1,413.57	79.8392	1,413.57	79.5651	1,413.57	79.0689	1,413.57	78.7624	1,413.57	78.1822	1,413.57	78.2931	1,413.57	77.7978	1,413.57	74.8039	1,413.57	77.0763	1,413.57	76.8153	1,413.57	76.5097	1,413.57	77.6159	1,413.57	77.2037	1,413.57	77.5013	1,413.57	76.3434	1,413.57	76.8204	1,413.57	73.5687	1,413.57	70.6588	1,413.57	70.1807	1,413.57	68.681	1,413.57	75.9282
1,463.38	91.6192	1,463.38	89.6636	1,463.38	89.9101	1,463.38	82.5387	1,463.38	82.6186	1,463.38	73.1368	1,463.38	75.749	1,463.38	83.9087	1,463.38	84.1151	1,463.38	85.5985	1,463.38	85.7956	1,463.38	83.837	1,463.38	84.6188	1,463.38	81.1762	1,463.38	81.6501	1,463.38	78.7595	1,463.38	79.6766	1,463.38	76.3324	1,463.38	77.6451	1,463.38	75.1803	1,463.38	77.2763	1,463.38	75.096	1,463.38	75.4637	1,463.38	75.5556	1,463.38	75.3873	1,463.38	75.7903	1,463.38	77.358	1,463.38	75.3887	1,463.38	76.0172	1,463.38	74.1003	1,463.38	75.2319	1,463.38	65.8733	1,463.38	66.1828	1,463.38	70.2087	1,463.38	71.4776	1,463.38	76.2246
1,516.11	91.1299	1,516.11	89.5696	1,516.11	88.9601	1,516.11	82.94	1,516.11	80.8432	1,516.11	73.9962	1,516.11	73.5091	1,516.11	84.4902	1,516.11	83.4823	1,516.11	85.6905	1,516.11	85.1611	1,516.11	84.1855	1,516.11	83.6166	1,516.11	81.1744	1,516.11	80.3406	1,516.11	78.6153	1,516.11	76.6854	1,516.11	76.6268	1,516.11	75.324	1,516.11	75.029	1,516.11	74.1319	1,516.11	71.4643	1,516.11	74.406	1,516.11	74.889	1,516.11	74.2163	1,516.11	76.617	1,516.11	75.7439	1,516.11	74.8546	1,516.11	72.3876	1,516.11	70.5451	1,516.11	74.1316	1,516.11	61.8566	1,516.11	66.5631	1,516.11	72.4776	1,516.11	72.688	1,516.11	78.2351
1,568.85	90.6241	1,568.85	88.6856	1,568.85	88.4964	1,568.85	80.7547	1,568.85	79.3713	1,568.85	78.0071	1,568.85	78.6358	1,568.85	85.4381	1,568.85	84.008	1,568.85	86.4933	1,568.85	84.0729	1,568.85	84.6086	1,568.85	81.8852	1,568.85	80.9573	1,568.85	79.3222	1,568.85	77.1602	1,568.85	76.9454	1,568.85	73.2453	1,568.85	71.8738	1,568.85	73.9544	1,568.85	70.6824	1,568.85	72.9918	1,568.85	73.4074	1,568.85	73.1263	1,568.85	74.8197	1,568.85	76.4963	1,568.85	76.7503	1,568.85	75.937	1,568.85	75.076	1,568.85	71.3296	1,568.85	71.5611	1,568.85	60.688	1,568.85	66.9545	1,568.85	69.8174	1,568.85	69.2441	1,568.85	76.7853
1,624.51	89.4185	1,624.51	87.1565	1,624.51	87.2319	1,624.51	75.4984	1,624.51	75.1444	1,624.51	81.779	1,624.51	79.9084	1,624.51	86.005	1,624.51	84.9441	1,624.51	85.9036	1,624.51	84.5021	1,624.51	83.5031	1,624.51	81.7659	1,624.51	78.8795	1,624.51	79.27	1,624.51	76.33	1,624.51	75.31	1,624.51	72.9547	1,624.51	73.2629	1,624.51	72.0401	1,624.51	71.1691	1,624.51	73.4685	1,624.51	67.569	1,624.51	74.8575	1,624.51	70.8115	1,624.51	74.961	1,624.51	75.5098	1,624.51	74.8756	1,624.51	74.7558	1,624.51	72.6402	1,624.51	73.8064	1,624.51	70.6763	1,624.51	71.7546	1,624.51	66.5912	1,624.51	69.087	1,624.51	74.6874
1,681.64	90.6699	1,681.64	87.8552	1,681.64	88.2376	1,681.64	73.3307	1,681.64	79.6489	1,681.64	80.0997	1,681.64	77.8406	1,681.64	84.461	1,681.64	84.8025	1,681.64	83.7784	1,681.64	83.7801	1,681.64	80.5216	1,681.64	81.0697	1,681.64	74.9122	1,681.64	74.9171	1,681.64	72.2327	1,681.64	71.6771	1,681.64	71.2094	1,681.64	67.5937	1,681.64	70.1182	1,681.64	72.0976	1,681.64	70.4707	1,681.64	73.044	1,681.64	72.7143	1,681.64	68.9356	1,681.64	76.3463	1,681.64	72.864	1,681.64	76.7037	1,681.64	72.0382	1,681.64	74.7513	1,681.64	70.5196	1,681.64	71.0297	1,681.64	68.1526	1,681.64	65.229	1,681.64	70.12	1,681.64	71.3972
1,741.7	91.8971	1,741.7	89.7084	1,741.7	89.4643	1,741.7	78.3849	1,741.7	78.4629	1,741.7	78.9354	1,741.7	81.5696	1,741.7	84.0065	1,741.7	85.1666	1,741.7	83.4785	1,741.7	84.1981	1,741.7	79.9274	1,741.7	80.6091	1,741.7	76.212	1,741.7	72.6629	1,741.7	72.1128	1,741.7	67.5293	1,741.7	69.292	1,741.7	65.6228	1,741.7	67.6133	1,741.7	64.5537	1,741.7	70.7549	1,741.7	68.6382	1,741.7	70.529	1,741.7	72.9797	1,741.7	68.0648	1,741.7	73.4556	1,741.7	75.7065	1,741.7	73.6043	1,741.7	72.3783	1,741.7	71.74	1,741.7	66.14	1,741.7	67.82	1,741.7	71.1851	1,741.7	72.6606	1,741.7	76.2975
1,803.22	92.1222	1,803.22	89.5239	1,803.22	89.4858	1,803.22	78.6537	1,803.22	78.3011	1,803.22	81.076	1,803.22	81.5749	1,803.22	86.028	1,803.22	83.9398	1,803.22	84.0235	1,803.22	82.2377	1,803.22	80.6634	1,803.22	79.1267	1,803.22	77.0086	1,803.22	72.4526	1,803.22	73.918	1,803.22	70.508	1,803.22	69.1289	1,803.22	71.2387	1,803.22	63.534	1,803.22	69.0989	1,803.22	62.3004	1,803.22	67.165	1,803.22	67.0043	1,803.22	69.5446	1,803.22	71.3882	1,803.22	71.3002	1,803.22	74.9745	1,803.22	75.1989	1,803.22	73.9226	1,803.22	71.054	1,803.22	68.9722	1,803.22	66.6968	1,803.22	63.3064	1,803.22	71.8544	1,803.22	76.8047
1,866.21	90.9483	1,866.21	88.3254	1,866.21	88.0642	1,866.21	77.7929	1,866.21	71.2242	1,866.21	82.6255	1,866.21	82.6203	1,866.21	84.5902	1,866.21	84.477	1,866.21	81.8498	1,866.21	82.3276	1,866.21	78.7113	1,866.21	77.0434	1,866.21	71.6309	1,866.21	73.708	1,866.21	72.0425	1,866.21	74.6723	1,866.21	73.4204	1,866.21	74.1993	1,866.21	74.8608	1,866.21	73.3458	1,866.21	72.5834	1,866.21	54.2699	1,866.21	68.4688	1,866.21	69.6014	1,866.21	71.586	1,866.21	58.6932	1,866.21	72.184	1,866.21	72.8214	1,866.21	73.832	1,866.21	72.329	1,866.21	70.6065	1,866.21	65.2386	1,866.21	69.2074	1,866.21	71.3556	1,866.21	75.9806
1,932.13	90.1713	1,932.13	86.4486	1,932.13	87.4836	1,932.13	70.7935	1,932.13	72.0762	1,932.13	83.4365	1,932.13	82.7175	1,932.13	83.8388	1,932.13	84.3912	1,932.13	79.5299	1,932.13	81.9771	1,932.13	73.3534	1,932.13	76.7285	1,932.13	71.515	1,932.13	76.2855	1,932.13	73.9363	1,932.13	74.7372	1,932.13	75.5018	1,932.13	75.5617	1,932.13	72.6672	1,932.13	72.5433	1,932.13	71.6081	1,932.13	72.6037	1,932.13	65.1904	1,932.13	67.6651	1,932.13	74.4635	1,932.13	70.9677	1,932.13	72.8093	1,932.13	68.1345	1,932.13	70.5759	1,932.13	67.642	1,932.13	66.7863	1,932.13	67.2212	1,932.13	69.9488	1,932.13	66.9803	1,932.13	75.5331
1,999.51	91.5624	1,999.51	88.4874	1,999.51	88.4212	1,999.51	69.5513	1,999.51	75.0627	1,999.51	82.6794	1,999.51	83.1389	1,999.51	83.6397	1,999.51	84.3147	1,999.51	80.1967	1,999.51	80.2304	1,999.51	74.9513	1,999.51	75.7655	1,999.51	74.5654	1,999.51	73.4347	1,999.51	75.4519	1,999.51	76.2108	1,999.51	75.3748	1,999.51	75.8274	1,999.51	73.8563	1,999.51	75.8924	1,999.51	68.9545	1,999.51	73.1811	1,999.51	67.7906	1,999.51	69.2064	1,999.51	69.0565	1,999.51	70.7327	1,999.51	71.0186	1,999.51	73.2397	1,999.51	72.4333	1,999.51	71.8958	1,999.51	70.4766	1,999.51	66.5524	1,999.51	66.0555	1,999.51	67.5124	1,999.51	75.7211
2,069.82	91.877	2,069.82	89.3027	2,069.82	88.2227	2,069.82	76.5283	2,069.82	74.1593	2,069.82	83.5345	2,069.82	84.2724	2,069.82	84.2639	2,069.82	84.4435	2,069.82	80.1523	2,069.82	79.5851	2,069.82	75.6136	2,069.82	76.7457	2,069.82	76.6797	2,069.82	77.2212	2,069.82	77.5437	2,069.82	77.3595	2,069.82	77.318	2,069.82	77.0398	2,069.82	76.9179	2,069.82	76.8344	2,069.82	74.7463	2,069.82	74.7709	2,069.82	70.2192	2,069.82	72.7711	2,069.82	67.7508	2,069.82	72.0664	2,069.82	70.9751	2,069.82	71.2634	2,069.82	72.2348	2,069.82	72.342	2,069.82	71.6496	2,069.82	72.1054	2,069.82	60.885	2,069.82	68.8949	2,069.82	75.4328
2,143.07	91.3489	2,143.07	88.147	2,143.07	87.4395	2,143.07	78.4037	2,143.07	73.4019	2,143.07	84.5586	2,143.07	83.9564	2,143.07	83.9824	2,143.07	83.6355	2,143.07	78.5989	2,143.07	79.3458	2,143.07	77.0013	2,143.07	77.5435	2,143.07	78.9825	2,143.07	79.3979	2,143.07	78.4452	2,143.07	77.8709	2,143.07	78.3438	2,143.07	76.925	2,143.07	78.1646	2,143.07	76.484	2,143.07	76.342	2,143.07	75.2237	2,143.07	74.3672	2,143.07	72.1197	2,143.07	71.3592	2,143.07	71.9521	2,143.07	69.626	2,143.07	70.9578	2,143.07	71.2155	2,143.07	72.9548	2,143.07	73.0261	2,143.07	71.1866	2,143.07	64.4634	2,143.07	67.9325	2,143.07	75.0065
2,219.24	90.518	2,219.24	86.1521	2,219.24	86.9339	2,219.24	76.5114	2,219.24	75.8672	2,219.24	84.5215	2,219.24	84.2012	2,219.24	82.6803	2,219.24	83.5317	2,219.24	78.8918	2,219.24	79.6351	2,219.24	79.558	2,219.24	79.2483	2,219.24	80.5382	2,219.24	81.1172	2,219.24	79.6901	2,219.24	80.0763	2,219.24	77.9737	2,219.24	78.1135	2,219.24	77.5906	2,219.24	76.8758	2,219.24	77.1708	2,219.24	77.0615	2,219.24	74.4001	2,219.24	73.1023	2,219.24	74.1467	2,219.24	72.9281	2,219.24	72.211	2,219.24	71.2122	2,219.24	73.1945	2,219.24	72.8887	2,219.24	71.4678	2,219.24	69.7284	2,219.24	65.3174	2,219.24	61.4884	2,219.24	75.622
2,296.88	90.6487	2,296.88	87.0855	2,296.88	86.143	2,296.88	71.8256	2,296.88	76.3392	2,296.88	83.9544	2,296.88	84.6333	2,296.88	82.8442	2,296.88	82.3754	2,296.88	80.5591	2,296.88	80.111	2,296.88	82.1534	2,296.88	82.0195	2,296.88	82.2891	2,296.88	82.5718	2,296.88	81.7171	2,296.88	81.6044	2,296.88	78.5729	2,296.88	79.79	2,296.88	77.2328	2,296.88	78.0754	2,296.88	77.4413	2,296.88	77.5968	2,296.88	72.8341	2,296.88	75.1463	2,296.88	73.6916	2,296.88	75.7867	2,296.88	70.1965	2,296.88	71.5155	2,296.88	73.4856	2,296.88	73.7567	2,296.88	70.125	2,296.88	71.3418	2,296.88	60.5877	2,296.88	65.1155	2,296.88	75.3792
2,378.91	90.4838	2,378.91	87.0665	2,378.91	85.7066	2,378.91	72.7169	2,378.91	71.2591	2,378.91	83.0875	2,378.91	82.895	2,378.91	82.0316	2,378.91	81.1984	2,378.91	79.4012	2,378.91	81.214	2,378.91	82.9193	2,378.91	83.3641	2,378.91	83.1273	2,378.91	83.1159	2,378.91	81.902	2,378.91	81.3096	2,378.91	79.8853	2,378.91	78.7637	2,378.91	78.2758	2,378.91	77.3818	2,378.91	77.56	2,378.91	76.7437	2,378.91	75.9906	2,378.91	74.4406	2,378.91	73.291	2,378.91	75.2906	2,378.91	71.1416	2,378.91	72.689	2,378.91	73.532	2,378.91	72.555	2,378.91	70.2598	2,378.91	68.3031	2,378.91	67.4449	2,378.91	64.072	2,378.91	74.5564
2,462.4	90.1847	2,462.4	85.8693	2,462.4	86.5798	2,462.4	69.8074	2,462.4	64.5051	2,462.4	80.6863	2,462.4	80.7513	2,462.4	79.7902	2,462.4	80.2364	2,462.4	81.4158	2,462.4	82.2841	2,462.4	83.9577	2,462.4	84.4823	2,462.4	83.8598	2,462.4	84.195	2,462.4	81.368	2,462.4	82.5651	2,462.4	79.3963	2,462.4	79.8634	2,462.4	78.0455	2,462.4	77.8771	2,462.4	77.4015	2,462.4	76.5792	2,462.4	76.9341	2,462.4	76.2731	2,462.4	75.5773	2,462.4	74.6572	2,462.4	73.8088	2,462.4	73.4797	2,462.4	73.7773	2,462.4	73.2172	2,462.4	68.5127	2,462.4	67.1126	2,462.4	65.6851	2,462.4	68.6865	2,462.4	73.6844
2,548.83	90	2,548.83	86.5702	2,548.83	86.0715	2,548.83	71.4074	2,548.83	71.8268	2,548.83	78.6374	2,548.83	79.9313	2,548.83	80.3389	2,548.83	81.2374	2,548.83	84.0976	2,548.83	84.7082	2,548.83	85.2371	2,548.83	86.4045	2,548.83	84.6206	2,548.83	85.179	2,548.83	80.9127	2,548.83	83.4113	2,548.83	78.9697	2,548.83	80.2264	2,548.83	76.5415	2,548.83	79.0731	2,548.83	76.0943	2,548.83	77.8427	2,548.83	75.5577	2,548.83	77.0941	2,548.83	73.7216	2,548.83	76.8009	2,548.83	73.6258	2,548.83	75.7751	2,548.83	74.0817	2,548.83	74.0871	2,548.83	66.3322	2,548.83	64.0675	2,548.83	69.2924	2,548.83	69.8126	2,548.83	71.3261
2,639.65	88.0229	2,639.65	85.5159	2,639.65	84.7968	2,639.65	76.0004	2,639.65	70.5958	2,639.65	79.3204	2,639.65	77.7709	2,639.65	80.8735	2,639.65	81.264	2,639.65	85.1384	2,639.65	85.0509	2,639.65	85.3001	2,639.65	86.0638	2,639.65	84.4962	2,639.65	84.5007	2,639.65	81.6849	2,639.65	81.5901	2,639.65	79.4268	2,639.65	78.3433	2,639.65	75.441	2,639.65	76.8342	2,639.65	76.283	2,639.65	76.0138	2,639.65	75.5203	2,639.65	76.0726	2,639.65	74.0876	2,639.65	74.9753	2,639.65	74.1176	2,639.65	74.8238	2,639.65	71.5006	2,639.65	71.9199	2,639.65	65.5944	2,639.65	65.791	2,639.65	66.0998	2,639.65	65.1656	2,639.65	70.5538
2,731.93	87.9505	2,731.93	84.9316	2,731.93	85.6142	2,731.93	76.4478	2,731.93	77.5175	2,731.93	78.3722	2,731.93	77.9699	2,731.93	82.0157	2,731.93	82.4288	2,731.93	85.7469	2,731.93	85.5742	2,731.93	86.185	2,731.93	86.2729	2,731.93	84.3219	2,731.93	84.5579	2,731.93	81.8426	2,731.93	81.3034	2,731.93	78.5976	2,731.93	79.4331	2,731.93	76.3187	2,731.93	76.4092	2,731.93	76.8736	2,731.93	75.5098	2,731.93	74.8572	2,731.93	74.4937	2,731.93	75.2737	2,731.93	74.6368	2,731.93	73.1689	2,731.93	73.7451	2,731.93	69.5043	2,731.93	68.5161	2,731.93	65.8785	2,731.93	65.6145	2,731.93	66.8485	2,731.93	66.8197	2,731.93	63.1942
2,828.61	87.8625	2,828.61	86.4052	2,828.61	86.9483	2,828.61	81.1045	2,828.61	81.3053	2,828.61	80.324	2,828.61	81.0586	2,828.61	83.696	2,828.61	84.2142	2,828.61	87.0617	2,828.61	87.2749	2,828.61	86.919	2,828.61	86.9259	2,828.61	84.4401	2,828.61	85.0478	2,828.61	81.8554	2,828.61	81.8206	2,828.61	78.8406	2,828.61	79.4761	2,828.61	75.9755	2,828.61	76.8167	2,828.61	75.8692	2,828.61	76.5454	2,828.61	75.1407	2,828.61	75.2175	2,828.61	74.6101	2,828.61	75.0023	2,828.61	72.6835	2,828.61	73.8953	2,828.61	67.591	2,828.61	68.6463	2,828.61	60.2469	2,828.61	64.3724	2,828.61	69.3776	2,828.61	68.6494	2,828.61	58.55
2,928.22	86.9336	2,928.22	85.7966	2,928.22	85.6286	2,928.22	82.4482	2,928.22	82.3887	2,928.22	81.5337	2,928.22	81.8352	2,928.22	84.4572	2,928.22	84.8871	2,928.22	87.0253	2,928.22	86.7354	2,928.22	86.8267	2,928.22	86.2313	2,928.22	84.0294	2,928.22	83.2745	2,928.22	82.3411	2,928.22	80.1918	2,928.22	77.6072	2,928.22	76.9937	2,928.22	76.2729	2,928.22	75.8069	2,928.22	76.6086	2,928.22	75.6505	2,928.22	74.8033	2,928.22	75.8312	2,928.22	74.3994	2,928.22	73.2094	2,928.22	73.4912	2,928.22	71.962	2,928.22	60.9374	2,928.22	65.4168	2,928.22	58.5548	2,928.22	64.4867	2,928.22	66.8496	2,928.22	70.4955	2,928.22	63.2606
3,030.76	87.4909	3,030.76	85.7083	3,030.76	86.3721	3,030.76	83.2324	3,030.76	83.5438	3,030.76	82.3407	3,030.76	83.0788	3,030.76	85.2875	3,030.76	85.5349	3,030.76	87.3965	3,030.76	87.4027	3,030.76	87.0719	3,030.76	86.4052	3,030.76	84.1188	3,030.76	84.1295	3,030.76	82.15	3,030.76	81.2587	3,030.76	77.0949	3,030.76	77.465	3,030.76	75.454	3,030.76	75.6184	3,030.76	76.0822	3,030.76	75.3146	3,030.76	74.6832	3,030.76	76.41	3,030.76	74.9557	3,030.76	73.9717	3,030.76	72.5249	3,030.76	72.7072	3,030.76	65.1325	3,030.76	66.1552	3,030.76	62.4719	3,030.76	62.3006	3,030.76	69.6568	3,030.76	67.9322	3,030.76	68.3355
3,137.7	88.5758	3,137.7	86.3173	3,137.7	87.0078	3,137.7	84.7755	3,137.7	85.8472	3,137.7	84.0766	3,137.7	85.0738	3,137.7	85.5322	3,137.7	86.3827	3,137.7	87.8976	3,137.7	87.8224	3,137.7	87.579	3,137.7	87.2469	3,137.7	85.7356	3,137.7	84.9148	3,137.7	82.5333	3,137.7	82.3887	3,137.7	78.8748	3,137.7	79.2101	3,137.7	76.9696	3,137.7	76.7291	3,137.7	75.1892	3,137.7	76.7513	3,137.7	76.0521	3,137.7	76.764	3,137.7	74.5504	3,137.7	75.5431	3,137.7	69.2321	3,137.7	71.9678	3,137.7	61.2126	3,137.7	65.5016	3,137.7	66.6425	3,137.7	64.0162	3,137.7	70.9564	3,137.7	68.8368	3,137.7	69.5814
3,249.02	88.554	3,249.02	86.0918	3,249.02	85.7803	3,249.02	85.7037	3,249.02	86.5094	3,249.02	84.8734	3,249.02	85.7178	3,249.02	85.8807	3,249.02	86.1902	3,249.02	87.3001	3,249.02	86.8393	3,249.02	87.3277	3,249.02	87.1997	3,249.02	85.8076	3,249.02	85.0054	3,249.02	81.7837	3,249.02	81.9567	3,249.02	79.5594	3,249.02	79.0297	3,249.02	76.2227	3,249.02	76.6706	3,249.02	74.8346	3,249.02	76.6999	3,249.02	76.7328	3,249.02	76.4031	3,249.02	74.851	3,249.02	74.2562	3,249.02	69.69	3,249.02	69.1423	3,249.02	61.4803	3,249.02	62.187	3,249.02	68.4334	3,249.02	67.5265	3,249.02	68.9264	3,249.02	66.5203	3,249.02	69.2814
3,363.28	88.4256	3,363.28	85.5259	3,363.28	85.1032	3,363.28	85.6942	3,363.28	86.325	3,363.28	85.6738	3,363.28	85.8255	3,363.28	85.3313	3,363.28	86.1089	3,363.28	86.4562	3,363.28	86.9119	3,363.28	86.9935	3,363.28	87.2347	3,363.28	85.2408	3,363.28	84.9886	3,363.28	81.6778	3,363.28	82.5972	3,363.28	78.7334	3,363.28	79.122	3,363.28	75.5451	3,363.28	77.4523	3,363.28	74.9761	3,363.28	76.9544	3,363.28	76.3765	3,363.28	76.7025	3,363.28	75.0408	3,363.28	74.1924	3,363.28	68.6392	3,363.28	66.6808	3,363.28	62.4058	3,363.28	65.1583	3,363.28	69.8093	3,363.28	69.9288	3,363.28	64.36	3,363.28	65.4611	3,363.28	71.8868
3,481.93	89.3604	3,481.93	86.1479	3,481.93	85.3546	3,481.93	86.1522	3,481.93	87.4732	3,481.93	86.7532	3,481.93	86.7221	3,481.93	86.939	3,481.93	86.3214	3,481.93	85.9818	3,481.93	86.6848	3,481.93	86.867	3,481.93	87.476	3,481.93	85.6137	3,481.93	85.1023	3,481.93	81.7937	3,481.93	82.3492	3,481.93	78.856	3,481.93	78.4176	3,481.93	76.455	3,481.93	77.8769	3,481.93	75.0252	3,481.93	76.7718	3,481.93	75.9154	3,481.93	76.9	3,481.93	73.6142	3,481.93	76.4217	3,481.93	64.5452	3,481.93	68.0328	3,481.93	63.93	3,481.93	61.9319	3,481.93	68.4427	3,481.93	69.1187	3,481.93	57.888	3,481.93	42.4482	3,481.93	72.2894
3,604.98	88.9858	3,604.98	85.655	3,604.98	86.0908	3,604.98	86.1975	3,604.98	86.2536	3,604.98	86.2812	3,604.98	86.5094	3,604.98	86.2289	3,604.98	86.1462	3,604.98	85.371	3,604.98	86.0632	3,604.98	85.6079	3,604.98	86.5385	3,604.98	84.0722	3,604.98	84.5853	3,604.98	80.2598	3,604.98	81.0561	3,604.98	77.8917	3,604.98	76.8963	3,604.98	75.6713	3,604.98	76.3586	3,604.98	74.7881	3,604.98	74.7325	3,604.98	77.0755	3,604.98	75.2971	3,604.98	72.8034	3,604.98	75.7796	3,604.98	65.6322	3,604.98	68.937	3,604.98	62.0093	3,604.98	63.3752	3,604.98	68.6102	3,604.98	67.1961	3,604.98	50.848	3,604.98	48.8092	3,604.98	72.6311
3,732.42	89.287	3,732.42	86.4262	3,732.42	85.9991	3,732.42	86.7693	3,732.42	86.6379	3,732.42	87.1159	3,732.42	87.4364	3,732.42	86.5489	3,732.42	86.8688	3,732.42	85.118	3,732.42	86.1447	3,732.42	85.2563	3,732.42	86.2756	3,732.42	82.0807	3,732.42	84.5413	3,732.42	79.7084	3,732.42	82.5494	3,732.42	76.8255	3,732.42	78.6052	3,732.42	75.2355	3,732.42	76.8172	3,732.42	75.1658	3,732.42	73.8667	3,732.42	75.0942	3,732.42	75.624	3,732.42	73.1333	3,732.42	74.8784	3,732.42	67.6948	3,732.42	67.671	3,732.42	64.3814	3,732.42	65.328	3,732.42	70.2625	3,732.42	67.8147	3,732.42	49.6967	3,732.42	60.8772	3,732.42	72.4075
3,864.26	89.4213	3,864.26	86.4799	3,864.26	87.44	3,864.26	87.139	3,864.26	86.5186	3,864.26	87.9986	3,864.26	88.3858	3,864.26	86.4401	3,864.26	87.0886	3,864.26	84.4443	3,864.26	85.7516	3,864.26	84.5401	3,864.26	85.662	3,864.26	81.791	3,864.26	84.7498	3,864.26	81.7979	3,864.26	80.5505	3,864.26	77.5329	3,864.26	79.1591	3,864.26	76.7039	3,864.26	76.5876	3,864.26	74.8257	3,864.26	74.7246	3,864.26	72.6957	3,864.26	75.2388	3,864.26	75.9782	3,864.26	73.8602	3,864.26	67.0651	3,864.26	63.0596	3,864.26	67.4482	3,864.26	69.0224	3,864.26	69.549	3,864.26	70.5775	3,864.26	64.774	3,864.26	56.1003	3,864.26	71.3723
4,000.49	89.9936	4,000.49	87.0175	4,000.49	87.7522	4,000.49	87.2486	4,000.49	87.438	4,000.49	89.2421	4,000.49	89.868	4,000.49	86.839	4,000.49	87.7424	4,000.49	84.4121	4,000.49	85.9615	4,000.49	84.7593	4,000.49	85.8587	4,000.49	83.9468	4,000.49	84.7767	4,000.49	82.7305	4,000.49	83.5333	4,000.49	79.6672	4,000.49	80.3732	4,000.49	76.7373	4,000.49	77.4455	4,000.49	73.9664	4,000.49	77.5426	4,000.49	73.1497	4,000.49	76.2611	4,000.49	74.3765	4,000.49	73.0172	4,000.49	68.7246	4,000.49	67.5622	4,000.49	69.6731	4,000.49	70.1415	4,000.49	70.3206	4,000.49	70.0695	4,000.49	65.9442	4,000.49	66.8644	4,000.49	73.6139
4,141.11	90.1664	4,141.11	86.8036	4,141.11	87.4076	4,141.11	87.2563	4,141.11	88.1895	4,141.11	89.7479	4,141.11	90.3313	4,141.11	86.1438	4,141.11	88.0728	4,141.11	83.6521	4,141.11	85.2787	4,141.11	85.9479	4,141.11	86.989	4,141.11	86.7833	4,141.11	86.9272	4,141.11	82.8999	4,141.11	83.2829	4,141.11	80.507	4,141.11	80.4337	4,141.11	77.1435	4,141.11	77.4521	4,141.11	74.2582	4,141.11	76.849	4,141.11	76.2707	4,141.11	75.5529	4,141.11	69.6816	4,141.11	73.5266	4,141.11	69.609	4,141.11	67.0355	4,141.11	70.0528	4,141.11	70.744	4,141.11	71.4276	4,141.11	71.2954	4,141.11	65.5518	4,141.11	69.2514	4,141.11	71.6567
4,287.6	90.1283	4,287.6	87.4436	4,287.6	86.3227	4,287.6	87.7055	4,287.6	88.1113	4,287.6	89.8556	4,287.6	90.5432	4,287.6	87.6971	4,287.6	87.9772	4,287.6	84.9922	4,287.6	85.3665	4,287.6	86.6102	4,287.6	87.0405	4,287.6	87.1224	4,287.6	86.8655	4,287.6	83.3437	4,287.6	84.1338	4,287.6	80.346	4,287.6	80.9261	4,287.6	76.2073	4,287.6	76.9302	4,287.6	75.069	4,287.6	76.0935	4,287.6	75.7794	4,287.6	75.4379	4,287.6	72.8899	4,287.6	76.2629	4,287.6	65.5057	4,287.6	68.7956	4,287.6	70.3987	4,287.6	72.9359	4,287.6	69.1237	4,287.6	70.3551	4,287.6	70.1615	4,287.6	67.9852	4,287.6	66.7087
4,438.48	90.0335	4,438.48	88.3988	4,438.48	85.2655	4,438.48	86.7757	4,438.48	88.2423	4,438.48	90.1884	4,438.48	90.4843	4,438.48	88.9637	4,438.48	88.2196	4,438.48	85.4681	4,438.48	85.9062	4,438.48	86.4567	4,438.48	87.992	4,438.48	84.8743	4,438.48	86.3975	4,438.48	82.6581	4,438.48	84.1662	4,438.48	79.0119	4,438.48	80.5705	4,438.48	73.5146	4,438.48	76.7793	4,438.48	75.9839	4,438.48	76.0772	4,438.48	73.5356	4,438.48	77.297	4,438.48	77.2659	4,438.48	75.3368	4,438.48	67.5124	4,438.48	71.529	4,438.48	72.692	4,438.48	71.678	4,438.48	69.249	4,438.48	67.454	4,438.48	71.0052	4,438.48	68.5657	4,438.48	72.1099
4,595.21	90.397	4,595.21	87.427	4,595.21	87.2495	4,595.21	87.1876	4,595.21	86.5897	4,595.21	89.8997	4,595.21	89.9046	4,595.21	89.9353	4,595.21	87.5149	4,595.21	86.717	4,595.21	85.2516	4,595.21	88.4691	4,595.21	88.3229	4,595.21	87.0188	4,595.21	86.659	4,595.21	83.8623	4,595.21	83.28	4,595.21	79.7193	4,595.21	78.8064	4,595.21	78.3542	4,595.21	76.5993	4,595.21	71.7805	4,595.21	74.7701	4,595.21	74.6225	4,595.21	73.3492	4,595.21	76.5891	4,595.21	73.9389	4,595.21	66.1301	4,595.21	70.3044	4,595.21	70.9702	4,595.21	72.5887	4,595.21	67.2277	4,595.21	69.2189	4,595.21	69.9983	4,595.21	68.223	4,595.21	70.8304
4,756.35	90.2078	4,756.35	85.9248	4,756.35	88.9694	4,756.35	87.986	4,756.35	86.4062	4,756.35	89.5302	4,756.35	88.3695	4,756.35	88.1841	4,756.35	89.0153	4,756.35	85.2632	4,756.35	87.5868	4,756.35	86.0037	4,756.35	88.3428	4,756.35	85.1572	4,756.35	87.3158	4,756.35	84.0179	4,756.35	84.5352	4,756.35	78.3165	4,756.35	80.1117	4,756.35	79.5421	4,756.35	76.2991	4,756.35	74.7968	4,756.35	75.2181	4,756.35	74.744	4,756.35	75.0676	4,756.35	72.429	4,756.35	74.6427	4,756.35	67.2614	4,756.35	63.1518	4,756.35	73.4658	4,756.35	74.1645	4,756.35	62.6758	4,756.35	66.7722	4,756.35	69.2217	4,756.35	69.4393	4,756.35	65.6233
4,924.8	89.4805	4,924.8	87.1398	4,924.8	86.8165	4,924.8	87.1672	4,924.8	86.9417	4,924.8	87.8344	4,924.8	86.3729	4,924.8	87.6041	4,924.8	89.6981	4,924.8	84.6279	4,924.8	87.6122	4,924.8	87.3362	4,924.8	87.5385	4,924.8	87.8058	4,924.8	86.2434	4,924.8	85.3274	4,924.8	83.1943	4,924.8	81.1099	4,924.8	80.5105	4,924.8	74.5675	4,924.8	77.5357	4,924.8	75.3489	4,924.8	75.1006	4,924.8	75.2418	4,924.8	76.1373	4,924.8	71.4628	4,924.8	72.6664	4,924.8	65.5512	4,924.8	66.8983	4,924.8	73.8667	4,924.8	74.433	4,924.8	60.7477	4,924.8	61.9401	4,924.8	66.1114	4,924.8	65.0359	4,924.8	66.4616
5,097.66	89.9798	5,097.66	88.4956	5,097.66	87.8413	5,097.66	85.1705	5,097.66	88.373	5,097.66	87.0043	5,097.66	88.8796	5,097.66	88.3797	5,097.66	89.2713	5,097.66	85.0732	5,097.66	86.7568	5,097.66	87.22	5,097.66	87.1579	5,097.66	86.5574	5,097.66	86.2863	5,097.66	81.4076	5,097.66	83.959	5,097.66	77.1882	5,097.66	79.4531	5,097.66	69.3614	5,097.66	76.2369	5,097.66	72.244	5,097.66	75.0439	5,097.66	74.8937	5,097.66	75.8842	5,097.66	73.0848	5,097.66	71.9428	5,097.66	66.193	5,097.66	69.7579	5,097.66	71.8225	5,097.66	73.4109	5,097.66	59.6313	5,097.66	62.5087	5,097.66	71.1077	5,097.66	69.3865	5,097.66	67.6116
5,277.83	91.0753	5,277.83	87.9035	5,277.83	89.3527	5,277.83	86.7348	5,277.83	87.7593	5,277.83	87.5669	5,277.83	89.7357	5,277.83	88.9582	5,277.83	88.357	5,277.83	86.9561	5,277.83	84.7162	5,277.83	85.8728	5,277.83	86.6113	5,277.83	85.1508	5,277.83	86.3706	5,277.83	82.0535	5,277.83	82.0365	5,277.83	79.8407	5,277.83	79.268	5,277.83	78.9576	5,277.83	73.8827	5,277.83	76.6958	5,277.83	75.2779	5,277.83	76.1384	5,277.83	76.5612	5,277.83	69.8024	5,277.83	69.8395	5,277.83	67.8706	5,277.83	70.6498	5,277.83	71.4659	5,277.83	69.2796	5,277.83	61.7843	5,277.83	63.102	5,277.83	73.2873	5,277.83	69.8668	5,277.83	62.0527
5,463.87	91.3762	5,463.87	87.9075	5,463.87	89.5106	5,463.87	89.7378	5,463.87	88.0835	5,463.87	88.8753	5,463.87	88.573	5,463.87	90.0274	5,463.87	87.8908	5,463.87	87.9846	5,463.87	85.8027	5,463.87	86.6143	5,463.87	85.6332	5,463.87	83.9456	5,463.87	85.0617	5,463.87	83.2258	5,463.87	83.8568	5,463.87	77.9636	5,463.87	78.0466	5,463.87	78.946	5,463.87	76.1328	5,463.87	72.6338	5,463.87	70.9843	5,463.87	73.495	5,463.87	72.2585	5,463.87	70.0293	5,463.87	62.5423	5,463.87	68.5871	5,463.87	69.0081	5,463.87	67.8167	5,463.87	70.2734	5,463.87	63.0827	5,463.87	62.6815	5,463.87	70.2241	5,463.87	66.2464	5,463.87	50.5253
5,657.23	91.7758	5,657.23	87.2486	5,657.23	86.6242	5,657.23	89.8912	5,657.23	89.3854	5,657.23	88.2429	5,657.23	86.5309	5,657.23	89.0133	5,657.23	88.6985	5,657.23	86.5936	5,657.23	87.1858	5,657.23	84.6482	5,657.23	85.6388	5,657.23	84.4344	5,657.23	85.4989	5,657.23	83.3376	5,657.23	83.5981	5,657.23	78.1236	5,657.23	78.0387	5,657.23	77.9017	5,657.23	77.1928	5,657.23	74.8317	5,657.23	75.2316	5,657.23	73.0092	5,657.23	74.6699	5,657.23	64.4137	5,657.23	67.551	5,657.23	62.8013	5,657.23	63.4698	5,657.23	62.6011	5,657.23	67.9522	5,657.23	65.7743	5,657.23	64.6091	5,657.23	69.3795	5,657.23	65.1213	5,657.23	63.6218
5,856.45	91.4245	5,856.45	86.4421	5,856.45	83.897	5,856.45	88.2733	5,856.45	90.0017	5,856.45	86.0181	5,856.45	86.2046	5,856.45	87.4539	5,856.45	89.539	5,856.45	85.143	5,856.45	86.7845	5,856.45	84.7459	5,856.45	86.6868	5,856.45	86.8388	5,856.45	87.3683	5,856.45	83.4305	5,856.45	82.4412	5,856.45	80.1738	5,856.45	79.7792	5,856.45	74.6278	5,856.45	76.5669	5,856.45	75.5531	5,856.45	74.1644	5,856.45	72.6654	5,856.45	69.4909	5,856.45	67.0129	5,856.45	60.7288	5,856.45	63.8122	5,856.45	64.4983	5,856.45	66.7057	5,856.45	71.1803	5,856.45	52.4855	5,856.45	64.2531	5,856.45	69.1198	5,856.45	67.6586	5,856.45	58.7217
6,062.99	91.4199	6,062.99	83.0402	6,062.99	84.6822	6,062.99	88.2851	6,062.99	89.1824	6,062.99	82.9424	6,062.99	86.3168	6,062.99	86.7537	6,062.99	87.9347	6,062.99	84.6736	6,062.99	84.0346	6,062.99	84.2495	6,062.99	84.8888	6,062.99	86.4496	6,062.99	85.9986	6,062.99	80.8521	6,062.99	80.5923	6,062.99	79.8087	6,062.99	79.5692	6,062.99	68.0231	6,062.99	74.7228	6,062.99	73.563	6,062.99	73.8124	6,062.99	71.12	6,062.99	72.2354	6,062.99	60.7752	6,062.99	59.6826	6,062.99	67.9664	6,062.99	65.362	6,062.99	71.4393	6,062.99	68.5241	6,062.99	63.3854	6,062.99	68.4186	6,062.99	70.9099	6,062.99	68.4347	6,062.99	57.5778
6,276.86	92.309	6,276.86	83.5999	6,276.86	85.5424	6,276.86	90.026	6,276.86	89.885	6,276.86	85.749	6,276.86	84.4167	6,276.86	88.5888	6,276.86	87.9844	6,276.86	85.2288	6,276.86	85.0109	6,276.86	83.7493	6,276.86	83.006	6,276.86	85.2616	6,276.86	83.5537	6,276.86	82.4472	6,276.86	83.0925	6,276.86	78.4198	6,276.86	80.5662	6,276.86	76.6902	6,276.86	74.3403	6,276.86	72.1439	6,276.86	73.3729	6,276.86	72.2954	6,276.86	72.8807	6,276.86	68.2593	6,276.86	59.4854	6,276.86	65.3137	6,276.86	70.5087	6,276.86	64.8892	6,276.86	65.4165	6,276.86	63.7008	6,276.86	71.5369	6,276.86	69.7057	6,276.86	69.6087	6,276.86	63.0203
6,498.05	92.844	6,498.05	85.9289	6,498.05	85.4389	6,498.05	90.8344	6,498.05	90.7342	6,498.05	87.4547	6,498.05	85.6655	6,498.05	88.529	6,498.05	87.8624	6,498.05	85.473	6,498.05	86.819	6,498.05	83.6632	6,498.05	82.2552	6,498.05	83.5519	6,498.05	86.738	6,498.05	83.518	6,498.05	84.481	6,498.05	77.5971	6,498.05	80.7058	6,498.05	77.9613	6,498.05	74.8288	6,498.05	74.1973	6,498.05	76.0108	6,498.05	73.1728	6,498.05	74.8681	6,498.05	67.1057	6,498.05	66.0742	6,498.05	58.6865	6,498.05	68.9183	6,498.05	52.4342	6,498.05	65.2738	6,498.05	66.1388	6,498.05	69.1917	6,498.05	65.5199	6,498.05	67.9849	6,498.05	64.9304
6,726.56	92.2259	6,726.56	86.7865	6,726.56	86.7221	6,726.56	89.472	6,726.56	89.8027	6,726.56	86.8587	6,726.56	88.5262	6,726.56	85.6129	6,726.56	83.929	6,726.56	85.2161	6,726.56	85.1447	6,726.56	84.608	6,726.56	83.2704	6,726.56	86.5111	6,726.56	87.9319	6,726.56	83.4439	6,726.56	83.4404	6,726.56	79.6972	6,726.56	79.9959	6,726.56	75.3131	6,726.56	77.0521	6,726.56	74.5083	6,726.56	76.193	6,726.56	73.368	6,726.56	69.0883	6,726.56	64.1793	6,726.56	57.0469	6,726.56	65.7294	6,726.56	67.0257	6,726.56	64.982	6,726.56	62.7977	6,726.56	63.3128	6,726.56	66.6987	6,726.56	65.8675	6,726.56	65.6636	6,726.56	61.7109
6,963.87	91.1912	6,963.87	87.9255	6,963.87	88.0645	6,963.87	88.9106	6,963.87	88.2512	6,963.87	87.1474	6,963.87	87.8669	6,963.87	82.7581	6,963.87	83.8651	6,963.87	86.9142	6,963.87	85.2143	6,963.87	85.2895	6,963.87	84.1872	6,963.87	87.4206	6,963.87	85.1486	6,963.87	82.4315	6,963.87	82.7767	6,963.87	78.1459	6,963.87	77.2005	6,963.87	73.2546	6,963.87	75.9405	6,963.87	74.081	6,963.87	74.0771	6,963.87	73.2812	6,963.87	66.2546	6,963.87	52.4962	6,963.87	66.8308	6,963.87	66.0196	6,963.87	63.3149	6,963.87	67.1145	6,963.87	61.1335	6,963.87	65.4174	6,963.87	61.0223	6,963.87	63.8433	6,963.87	63.7387	6,963.87	59.563
7,209.96	91.3517	7,209.96	89.1721	7,209.96	88.0094	7,209.96	89.2381	7,209.96	88.8779	7,209.96	86.6708	7,209.96	85.1391	7,209.96	85.7638	7,209.96	87.0531	7,209.96	87.2004	7,209.96	87.2697	7,209.96	82.9422	7,209.96	83.4621	7,209.96	85.3086	7,209.96	82.9091	7,209.96	81.1862	7,209.96	81.2209	7,209.96	77.2207	7,209.96	75.7413	7,209.96	73.6716	7,209.96	73.8547	7,209.96	68.8557	7,209.96	67.7815	7,209.96	71.3465	7,209.96	67.7978	7,209.96	47.9773	7,209.96	67.1121	7,209.96	48.239	7,209.96	58.5924	7,209.96	66.8609	7,209.96	57.009	7,209.96	66.708	7,209.96	64.6776	7,209.96	64.3239	7,209.96	63.184	7,209.96	60.5037
7,464.84	90.5127	7,464.84	89.046	7,464.84	87.9468	7,464.84	89.5609	7,464.84	89.7684	7,464.84	85.9159	7,464.84	85.5568	7,464.84	87.0768	7,464.84	86.9095	7,464.84	85.6971	7,464.84	87.311	7,464.84	84.6638	7,464.84	83.2916	7,464.84	83.6507	7,464.84	84.8841	7,464.84	81.9887	7,464.84	81.2413	7,464.84	77.3278	7,464.84	77.1227	7,464.84	71.6035	7,464.84	70.3474	7,464.84	69.2569	7,464.84	71.0893	7,464.84	68.7637	7,464.84	69.2225	7,464.84	66.3215	7,464.84	68.6077	7,464.84	65.4378	7,464.84	66.1357	7,464.84	67.0403	7,464.84	65.3766	7,464.84	68.9827	7,464.84	69.3029	7,464.84	58.8931	7,464.84	63.6989	7,464.84	63.752
7,727.05	88.6795	7,727.05	87.278	7,727.05	88.9006	7,727.05	89.2115	7,727.05	88.454	7,727.05	87.5993	7,727.05	88.5926	7,727.05	86.1472	7,727.05	85.0005	7,727.05	86.0373	7,727.05	85.3299	7,727.05	84.8472	7,727.05	83.9168	7,727.05	83.3375	7,727.05	85.1721	7,727.05	82.4243	7,727.05	81.48	7,727.05	77.9129	7,727.05	77.8699	7,727.05	71.4092	7,727.05	67.916	7,727.05	70.4756	7,727.05	70.7277	7,727.05	67.8751	7,727.05	68.1229	7,727.05	64.4082	7,727.05	70.8715	7,727.05	62.8726	7,727.05	64.3662	7,727.05	68.4871	7,727.05	59.0951	7,727.05	68.6227	7,727.05	69.8291	7,727.05	62.3491	7,727.05	60.67	7,727.05	65.8139
7,999.51	89.6967	7,999.51	88.5959	7,999.51	88.7316	7,999.51	90.5099	7,999.51	89.5353	7,999.51	88.9572	7,999.51	89.5218	7,999.51	86.606	7,999.51	86.724	7,999.51	85.4402	7,999.51	84.8015	7,999.51	82.8638	7,999.51	82.3927	7,999.51	81.3767	7,999.51	80.3316	7,999.51	81.1047	7,999.51	80.9213	7,999.51	77.2027	7,999.51	76.0355	7,999.51	70.5396	7,999.51	65.7885	7,999.51	69.7194	7,999.51	68.0385	7,999.51	68.5539	7,999.51	64.8606	7,999.51	48.5959	7,999.51	68.8583	7,999.51	53.947	7,999.51	59.0205	7,999.51	62.8942	7,999.51	63.065	7,999.51	63.8237	7,999.51	68.9599	7,999.51	59.8384	7,999.51	61.3533	7,999.51	61.0932
8,282.23	91.3636	8,282.23	90.7343	8,282.23	90.5317	8,282.23	90.7181	8,282.23	90.4081	8,282.23	89.2974	8,282.23	88.9645	8,282.23	87.0068	8,282.23	87.1238	8,282.23	83.9529	8,282.23	85.0609	8,282.23	81.19	8,282.23	80.3112	8,282.23	79.1619	8,282.23	75.5425	8,282.23	77.9639	8,282.23	76.1551	8,282.23	71.3378	8,282.23	68.0017	8,282.23	67.6612	8,282.23	65.767	8,282.23	66.5582	8,282.23	66.9604	8,282.23	64.7268	8,282.23	64.0871	8,282.23	60.9124	8,282.23	62.7871	8,282.23	51.0729	8,282.23	52.4943	8,282.23	54.6832	8,282.23	57.7767	8,282.23	59.9799	8,282.23	65.5884	8,282.23	57.0119	8,282.23	53.0395	8,282.23	60.7526
8,573.73	91.0374	8,573.73	91.0648	8,573.73	91.6514	8,573.73	90.5467	8,573.73	90.4359	8,573.73	90.0896	8,573.73	89.2904	8,573.73	86.9607	8,573.73	85.7048	8,573.73	82.8748	8,573.73	83.3811	8,573.73	81.4034	8,573.73	78.2115	8,573.73	78.2951	8,573.73	77.4132	8,573.73	76.0861	8,573.73	74.3248	8,573.73	67.0232	8,573.73	66.3063	8,573.73	64.1764	8,573.73	62.1201	8,573.73	66.7812	8,573.73	65.2255	8,573.73	64.2764	8,573.73	58.9459	8,573.73	60.3466	8,573.73	56.1752	8,573.73	55.3754	8,573.73	48.2501	8,573.73	55.3067	8,573.73	57.8798	8,573.73	56.4048	8,573.73	57.4381	8,573.73	55.3749	8,573.73	44.5653	8,573.73	55.6193
8,876.95	91.8135	8,876.95	91.4604	8,876.95	91.6587	8,876.95	91.6668	8,876.95	91.2025	8,876.95	89.7067	8,876.95	89.5019	8,876.95	86.804	8,876.95	85.771	8,876.95	84.4761	8,876.95	83.0104	8,876.95	81.8274	8,876.95	80.318	8,876.95	78.9788	8,876.95	78.4461	8,876.95	75.7975	8,876.95	74.6217	8,876.95	69.9072	8,876.95	70.3574	8,876.95	60.1694	8,876.95	64.2278	8,876.95	67.4325	8,876.95	63.9098	8,876.95	61.8835	8,876.95	61.6774	8,876.95	56.4488	8,876.95	55.0361	8,876.95	57.9339	8,876.95	55.3255	8,876.95	53.0995	8,876.95	40.2023	8,876.95	59.1336	8,876.95	59.008	8,876.95	53.5996	8,876.95	55.0718	8,876.95	38.1049
9,188.96	92.2864	9,188.96	91.8351	9,188.96	91.8548	9,188.96	91.468	9,188.96	91.1482	9,188.96	89.7614	9,188.96	89.1249	9,188.96	87.1299	9,188.96	86.5818	9,188.96	84.7743	9,188.96	84.0849	9,188.96	80.9928	9,188.96	81.3565	9,188.96	79.3497	9,188.96	79.3026	9,188.96	76.3192	9,188.96	76.9585	9,188.96	72.1798	9,188.96	71.7182	9,188.96	64.2761	9,188.96	67.6502	9,188.96	65.6128	9,188.96	66.4101	9,188.96	62.0714	9,188.96	62.9599	9,188.96	55.5541	9,188.96	59.8241	9,188.96	52.5971	9,188.96	51.2113	9,188.96	52.809	9,188.96	54.6017	9,188.96	60.3697	9,188.96	55.5423	9,188.96	56.2844	9,188.96	53.8899	9,188.96	50.3591
9,514.16	92.5369	9,514.16	91.6072	9,514.16	91.6416	9,514.16	91.6213	9,514.16	91.633	9,514.16	89.7047	9,514.16	89.1419	9,514.16	87.2457	9,514.16	86.6414	9,514.16	82.9514	9,514.16	83.5662	9,514.16	81.5358	9,514.16	81.4632	9,514.16	77.8094	9,514.16	79.8631	9,514.16	76.2316	9,514.16	78.0366	9,514.16	73.0129	9,514.16	72.7189	9,514.16	61.7084	9,514.16	66.54	9,514.16	60.522	9,514.16	67.6755	9,514.16	55.7886	9,514.16	65.8892	9,514.16	47.268	9,514.16	61.3317	9,514.16	49.6186	9,514.16	36.8831	9,514.16	50.3122	9,514.16	53.5926	9,514.16	46.2136	9,514.16	57.6304	9,514.16	55.7505	9,514.16	55.3599	9,514.16	50.9138
9,849.61	92.5941	9,849.61	91.3874	9,849.61	91.7887	9,849.61	91.3779	9,849.61	91.1904	9,849.61	89.108	9,849.61	89.4137	9,849.61	86.6295	9,849.61	86.7693	9,849.61	83.0927	9,849.61	84.2939	9,849.61	81.8994	9,849.61	82.1659	9,849.61	77.9515	9,849.61	79.3073	9,849.61	74.9401	9,849.61	78.4103	9,849.61	70.7766	9,849.61	70.8279	9,849.61	64.2523	9,849.61	69.9302	9,849.61	62.775	9,849.61	68.4309	9,849.61	58.2965	9,849.61	65.1165	9,849.61	53.1275	9,849.61	61.0107	9,849.61	52.3072	9,849.61	47.2042	9,849.61	52.1383	9,849.61	53.4917	9,849.61	57.2346	9,849.61	62.4176	9,849.61	50.0861	9,849.61	53.4244	9,849.61	54.7853
10,196.8	92.0464	10,196.8	91.414	10,196.8	91.8367	10,196.8	90.7281	10,196.8	90.7356	10,196.8	88.8316	10,196.8	89.1966	10,196.8	85.9494	10,196.8	86.5896	10,196.8	83.4044	10,196.8	84.7764	10,196.8	80.2886	10,196.8	82.3017	10,196.8	75.5975	10,196.8	78.6356	10,196.8	75.6039	10,196.8	78.4937	10,196.8	64.9112	10,196.8	71.3147	10,196.8	69.1671	10,196.8	70.6101	10,196.8	61.7971	10,196.8	68.8616	10,196.8	56.7426	10,196.8	63.7324	10,196.8	54.6059	10,196.8	59.3943	10,196.8	57.7546	10,196.8	55.1783	10,196.8	58.2629	10,196.8	57.056	10,196.8	58.0427	10,196.8	61.4711	10,196.8	46.6523	10,196.8	52.9882	10,196.8	54.1546
10,555.7	92.0709	10,555.7	91.1606	10,555.7	91.5375	10,555.7	90.4769	10,555.7	90.8796	10,555.7	88.0376	10,555.7	88.8866	10,555.7	85.4059	10,555.7	86.1939	10,555.7	82.1501	10,555.7	84.2654	10,555.7	79.8894	10,555.7	80.8058	10,555.7	74.4915	10,555.7	77.6266	10,555.7	75.6745	10,555.7	76.8116	10,555.7	68.3755	10,555.7	70.0124	10,555.7	68.6316	10,555.7	66.9178	10,555.7	63.8955	10,555.7	66.4569	10,555.7	59.1872	10,555.7	64.5616	10,555.7	56.5266	10,555.7	56.5394	10,555.7	53.4809	10,555.7	58.602	10,555.7	58.8356	10,555.7	53.6805	10,555.7	60.4591	10,555.7	56.3951	10,555.7	54.0701	10,555.7	57.892	10,555.7	52.1856
10,927.7	91.5464	10,927.7	90.764	10,927.7	91.3681	10,927.7	89.9135	10,927.7	89.8966	10,927.7	87.7621	10,927.7	88.8314	10,927.7	84.7227	10,927.7	85.5758	10,927.7	82.2442	10,927.7	82.9799	10,927.7	79.0626	10,927.7	79.8075	10,927.7	74.3987	10,927.7	77.133	10,927.7	76.7743	10,927.7	75.5225	10,927.7	68.6731	10,927.7	69.3471	10,927.7	66.8346	10,927.7	68.4188	10,927.7	61.0881	10,927.7	66.3626	10,927.7	58.049	10,927.7	63.7294	10,927.7	56.4523	10,927.7	60.4474	10,927.7	58.4149	10,927.7	54.6351	10,927.7	60.0666	10,927.7	49.6878	10,927.7	64.8522	10,927.7	62.2767	10,927.7	54.768	10,927.7	59.6162	10,927.7	56.0011
11,313	90.6817	11,313	90.3281	11,313	91.0501	11,313	88.8567	11,313	88.7772	11,313	87.6191	11,313	88.2547	11,313	83.53	11,313	83.8983	11,313	81.2035	11,313	81.3428	11,313	79.0416	11,313	77.4271	11,313	76.8892	11,313	75.3873	11,313	76.361	11,313	74.9732	11,313	70.7507	11,313	69.2941	11,313	70.3965	11,313	67.4183	11,313	63.0254	11,313	64.5809	11,313	60.6099	11,313	59.2887	11,313	59.4851	11,313	58.8969	11,313	58.6652	11,313	57.1456	11,313	62.3088	11,313	46.4509	11,313	61.4126	11,313	61.0242	11,313	51.1836	11,313	50.5504	11,313	51.4492
11,712.9	90.8364	11,712.9	90.7058	11,712.9	90.4362	11,712.9	88.9584	11,712.9	88.3623	11,712.9	87.5596	11,712.9	87.427	11,712.9	84.3436	11,712.9	83.1175	11,712.9	81.6574	11,712.9	79.6545	11,712.9	79.7021	11,712.9	76.8035	11,712.9	76.8267	11,712.9	74.2734	11,712.9	75.2927	11,712.9	73.1059	11,712.9	68.7017	11,712.9	64.3768	11,712.9	63.6757	11,712.9	62.5827	11,712.9	60.629	11,712.9	62.697	11,712.9	60.4753	11,712.9	59.8837	11,712.9	41.7883	11,712.9	52.0185	11,712.9	51.5288	11,712.9	53.5116	11,712.9	55.8499	11,712.9	55.7892	11,712.9	58.4327	11,712.9	57.9052	11,712.9	58.84	11,712.9	60.0522	11,712.9	49.4513
12,126	90.9094	12,126	90.685	12,126	90.7601	12,126	88.7392	12,126	87.8321	12,126	87.3414	12,126	86.6811	12,126	82.9362	12,126	81.0913	12,126	81.1646	12,126	78.4404	12,126	78.3212	12,126	75.9198	12,126	74.9545	12,126	73.22	12,126	72.8983	12,126	72.0222	12,126	67.4383	12,126	68.2869	12,126	63.2585	12,126	63.1273	12,126	59.0005	12,126	58.526	12,126	61.3078	12,126	49.8295	12,126	56.2752	12,126	62.1975	12,126	52.3014	12,126	54.5076	12,126	57.3199	12,126	51.9767	12,126	55.8744	12,126	56.5404	12,126	48.1943	12,126	50.8148	12,126	51.7235
12,553.7	90.8004	12,553.7	90.4438	12,553.7	90.1421	12,553.7	88.6177	12,553.7	87.7955	12,553.7	86.1708	12,553.7	85.0625	12,553.7	81.9795	12,553.7	79.908	12,553.7	79.6465	12,553.7	77.4421	12,553.7	77.5455	12,553.7	76.0843	12,553.7	75.2055	12,553.7	73.2502	12,553.7	72.9736	12,553.7	72.3311	12,553.7	68.7657	12,553.7	67.3949	12,553.7	64.7587	12,553.7	59.3485	12,553.7	60.6915	12,553.7	59.1632	12,553.7	57.5505	12,553.7	59.8372	12,553.7	43.1382	12,553.7	59.5045	12,553.7	54.4817	12,553.7	52.9406	12,553.7	58.3441	12,553.7	57.0108	12,553.7	52.5835	12,553.7	52.6318	12,553.7	60.3253	12,553.7	56.4824	12,553.7	51.6894
12,996.1	90.2219	12,996.1	90.0142	12,996.1	89.4035	12,996.1	86.8633	12,996.1	86.3465	12,996.1	84.9297	12,996.1	83.9553	12,996.1	80.099	12,996.1	79.5069	12,996.1	79.6762	12,996.1	77.6212	12,996.1	77.9442	12,996.1	76.0803	12,996.1	76.4735	12,996.1	72.6206	12,996.1	74.5165	12,996.1	73.0733	12,996.1	69.7167	12,996.1	67.745	12,996.1	66.2072	12,996.1	62.2993	12,996.1	53.5731	12,996.1	59.0786	12,996.1	60.0306	12,996.1	60.0241	12,996.1	55.7273	12,996.1	47.0358	12,996.1	55.3258	12,996.1	44.3221	12,996.1	55.983	12,996.1	57.7167	12,996.1	54.4913	12,996.1	53.3212	12,996.1	57.2049	12,996.1	54.4636	12,996.1	53.9729
13,454.6	89.6091	13,454.6	88.6393	13,454.6	88.7474	13,454.6	86.8509	13,454.6	86.0467	13,454.6	82.8886	13,454.6	82.2937	13,454.6	81.5305	13,454.6	80.7399	13,454.6	79.0962	13,454.6	77.4323	13,454.6	78.6238	13,454.6	76.5504	13,454.6	76.597	13,454.6	72.7419	13,454.6	73.129	13,454.6	70.5385	13,454.6	70.3688	13,454.6	64.2947	13,454.6	63.4232	13,454.6	61.9125	13,454.6	60.6368	13,454.6	59.3871	13,454.6	60.1043	13,454.6	59.1473	13,454.6	59.7181	13,454.6	55.3717	13,454.6	54.8506	13,454.6	39.3539	13,454.6	52.148	13,454.6	56.1586	13,454.6	57.4493	13,454.6	49.3319	13,454.6	56.0051	13,454.6	51.4594	13,454.6	43.0286
13,929.2	89.4616	13,929.2	88.4496	13,929.2	87.7894	13,929.2	86.5023	13,929.2	86.0326	13,929.2	83.2618	13,929.2	83.964	13,929.2	82.2771	13,929.2	81.2437	13,929.2	79.5841	13,929.2	78.5173	13,929.2	79.3428	13,929.2	76.726	13,929.2	75.6272	13,929.2	72.4641	13,929.2	73.8267	13,929.2	72.399	13,929.2	68.619	13,929.2	61.594	13,929.2	60.3883	13,929.2	65.3789	13,929.2	55.7092	13,929.2	56.0006	13,929.2	58.4189	13,929.2	60.2036	13,929.2	60.8723	13,929.2	46.0969	13,929.2	56.805	13,929.2	42.3707	13,929.2	51.346	13,929.2	50.0667	13,929.2	54.1181	13,929.2	49.4302	13,929.2	50.5623	13,929.2	33.5007	13,929.2	48.0429
14,419.9	89.1593	14,419.9	88.5136	14,419.9	88.8104	14,419.9	86.715	14,419.9	86.5518	14,419.9	85.0975	14,419.9	84.9084	14,419.9	83.1695	14,419.9	81.3249	14,419.9	79.4485	14,419.9	79.5877	14,419.9	78.9431	14,419.9	76.0698	14,419.9	73.4127	14,419.9	72.8897	14,419.9	71.1159	14,419.9	69.6032	14,419.9	65.9882	14,419.9	62.3179	14,419.9	63.9133	14,419.9	62.0275	14,419.9	55.6103	14,419.9	56.2331	14,419.9	55.6663	14,419.9	57.1457	14,419.9	60.7971	14,419.9	52.8885	14,419.9	56.0305	14,419.9	28.4095	14,419.9	42.0736	14,419.9	50.6044	14,419.9	48.1996	14,419.9	57.1446	14,419.9	56.3999	14,419.9	50.645	14,419.9	44.2006
14,928.2	90.5411	14,928.2	89.7433	14,928.2	89.7081	14,928.2	87.9548	14,928.2	87.389	14,928.2	85.6038	14,928.2	84.6882	14,928.2	82.7525	14,928.2	79.9162	14,928.2	78.8281	14,928.2	76.069	14,928.2	76.3479	14,928.2	70.9905	14,928.2	70.9468	14,928.2	66.9608	14,928.2	68.7481	14,928.2	65.2639	14,928.2	64.9385	14,928.2	50.9352	14,928.2	59.1368	14,928.2	57.9818	14,928.2	53.6358	14,928.2	47.3228	14,928.2	53.348	14,928.2	55.0827	14,928.2	59.9106	14,928.2	51.0876	14,928.2	53.4088	14,928.2	32.1149	14,928.2	50.4635	14,928.2	28.4676	14,928.2	49.3125	14,928.2	48.6207	14,928.2	45.8971	14,928.2	42.3496	14,928.2	42.6447
15,455.6	91.4597	15,455.6	90.765	15,455.6	90.3182	15,455.6	88.2704	15,455.6	87.4142	15,455.6	84.7926	15,455.6	83.6517	15,455.6	79.8971	15,455.6	76.6213	15,455.6	75.8419	15,455.6	72.1368	15,455.6	71.6556	15,455.6	70.4794	15,455.6	66.6706	15,455.6	67.0782	15,455.6	63.0014	15,455.6	64.4105	15,455.6	61.0671	15,455.6	59.1261	15,455.6	57.4846	15,455.6	59.8825	15,455.6	45.7991	15,455.6	49.1626	15,455.6	55.0213	15,455.6	53.0008	15,455.6	58.7181	15,455.6	58.0003	15,455.6	52.2633	15,455.6	39.6495	15,455.6	47.0506	15,455.6	42.2695	15,455.6	42.897	15,455.6	49.692	15,455.6	22.3829	15,455.6	43.9051	15,455.6	43.7795
16,000.5	91.2788	16,000.5	90.4667	16,000.5	90.3336	16,000.5	87.4943	16,000.5	87.006	16,000.5	84.2396	16,000.5	82.6017	16,000.5	78.2562	16,000.5	74.3769	16,000.5	74.067	16,000.5	69.3733	16,000.5	70.7452	16,000.5	71.6744	16,000.5	62.4109	16,000.5	69.4482	16,000.5	59.7918	16,000.5	64.922	16,000.5	54.5409	16,000.5	64.5688	16,000.5	54.4141	16,000.5	57.6226	16,000.5	46.6464	16,000.5	49.1153	16,000.5	51.9314	16,000.5	53.4714	16,000.5	58.5262	16,000.5	57.4487	16,000.5	54.9239	16,000.5	43.3146	16,000.5	38.7955	16,000.5	42.0889	16,000.5	54.2086	16,000.5	46.7154	16,000.5	48.5095	16,000.5	43.6978	16,000.5	42.0774
16,564.5	90.998	16,564.5	89.9933	16,564.5	90.0559	16,564.5	87.0606	16,564.5	86.4415	16,564.5	83.2267	16,564.5	82.517	16,564.5	76.994	16,564.5	75.9183	16,564.5	72.8661	16,564.5	70.3763	16,564.5	72.2444	16,564.5	75.1249	16,564.5	66.8903	16,564.5	70.9651	16,564.5	66.7055	16,564.5	70.4736	16,564.5	65.535	16,564.5	68.386	16,564.5	57.3216	16,564.5	58.8281	16,564.5	49.1972	16,564.5	42.2995	16,564.5	54.2635	16,564.5	43.3377	16,564.5	57.7305	16,564.5	57.1593	16,564.5	51.0557	16,564.5	39.9826	16,564.5	42.3514	16,564.5	46.0732	16,564.5	53.1801	16,564.5	44.8342	16,564.5	48.4252	16,564.5	42.7566	16,564.5	36.6128
17,148.9	90.7047	17,148.9	89.5058	17,148.9	89.4365	17,148.9	86.9109	17,148.9	86.2432	17,148.9	82.3558	17,148.9	82.0212	17,148.9	77.7241	17,148.9	78.4198	17,148.9	73.5513	17,148.9	74.5083	17,148.9	73.1032	17,148.9	74.5195	17,148.9	69.8523	17,148.9	74.0526	17,148.9	70.6373	17,148.9	72.5106	17,148.9	66.476	17,148.9	69.3831	17,148.9	57.7202	17,148.9	62.8672	17,148.9	48.869	17,148.9	48.184	17,148.9	43.4174	17,148.9	51.456	17,148.9	48.4037	17,148.9	59.9922	17,148.9	41.0739	17,148.9	49.7362	17,148.9	45.092	17,148.9	36.0666	17,148.9	48.3538	17,148.9	45.8799	17,148.9	50.4367	17,148.9	48.9324	17,148.9	35.2956
17,752.4	90.6731	17,752.4	89.7608	17,752.4	89.537	17,752.4	86.9701	17,752.4	86.1076	17,752.4	82.3711	17,752.4	81.8902	17,752.4	78.1236	17,752.4	77.3827	17,752.4	72.6392	17,752.4	72.8033	17,752.4	70.1623	17,752.4	73.5114	17,752.4	71.2881	17,752.4	74.121	17,752.4	68.9934	17,752.4	69.8826	17,752.4	63.5018	17,752.4	67.3251	17,752.4	57.3638	17,752.4	62.1346	17,752.4	49.7015	17,752.4	48.0364	17,752.4	43.995	17,752.4	54.1531	17,752.4	56.622	17,752.4	60.2027	17,752.4	44.9722	17,752.4	46.9316	17,752.4	42.3648	17,752.4	37.337	17,752.4	41.5635	17,752.4	51.4361	17,752.4	50.0597	17,752.4	45.7482	17,752.4	42.2495
18,379.4	90.6802	18,379.4	89.9293	18,379.4	89.5	18,379.4	86.604	18,379.4	85.4706	18,379.4	81.7363	18,379.4	79.7005	18,379.4	75.5365	18,379.4	74.6592	18,379.4	68.0986	18,379.4	72.0359	18,379.4	69.6917	18,379.4	74.2279	18,379.4	69.9207	18,379.4	73.5391	18,379.4	65.9685	18,379.4	67.232	18,379.4	60.92	18,379.4	67.179	18,379.4	56.0601	18,379.4	60.8176	18,379.4	50.0122	18,379.4	50.2173	18,379.4	45.5246	18,379.4	51.366	18,379.4	53.941	18,379.4	58.3036	18,379.4	41.5532	18,379.4	43.5462	18,379.4	39.5397	18,379.4	37.6408	18,379.4	40.6788	18,379.4	48.8147	18,379.4	44.9674	18,379.4	36.6597	18,379.4	41.3894
19,026.9	90.0586	19,026.9	89.234	19,026.9	88.9733	19,026.9	85.4593	19,026.9	84.1414	19,026.9	80.1087	19,026.9	76.6787	19,026.9	72.3134	19,026.9	74.0702	19,026.9	70.7718	19,026.9	75.4765	19,026.9	72.5182	19,026.9	75.3729	19,026.9	71.0332	19,026.9	73.7383	19,026.9	67.7146	19,026.9	69.9204	19,026.9	65.4839	19,026.9	68.5078	19,026.9	56.0723	19,026.9	56.1321	19,026.9	51.8089	19,026.9	46.7239	19,026.9	40.0966	19,026.9	47.7048	19,026.9	52.6197	19,026.9	55.065	19,026.9	46.4927	19,026.9	40.2442	19,026.9	45.373	19,026.9	30.2697	19,026.9	42.4151	19,026.9	47.4022	19,026.9	43.7813	19,026.9	42.5525	19,026.9	42.8396
19,697.8	88.9775	19,697.8	88.0734	19,697.8	87.7089	19,697.8	83.5958	19,697.8	82.1719	19,697.8	77.2095	19,697.8	75.5497	19,697.8	73.6168	19,697.8	75.3637	19,697.8	73.2648	19,697.8	76.0226	19,697.8	71.0301	19,697.8	74.6486	19,697.8	72.9599	19,697.8	74.4528	19,697.8	69.1653	19,697.8	71.3977	19,697.8	64.3144	19,697.8	66.8185	19,697.8	53.887	19,697.8	55.4645	19,697.8	44.4841	19,697.8	46.0746	19,697.8	48.8052	19,697.8	49.7551	19,697.8	48.902	19,697.8	45.0845	19,697.8	44.5935	19,697.8	40.415	19,697.8	48.5359	19,697.8	38.8432	19,697.8	40.0874	19,697.8	42.3636	19,697.8	47.222	19,697.8	43.2433	19,697.8	41.0866
19,999.5	88.3944	19,999.5	87.5302	19,999.5	87.0041	19,999.5	82.7015	19,999.5	81.648	19,999.5	76.81	19,999.5	75.9851	19,999.5	74.3424	19,999.5	75.8733	19,999.5	73.301	19,999.5	75.6157	19,999.5	70.6132	19,999.5	74.6702	19,999.5	72.5308	19,999.5	74.1835	19,999.5	68.932	19,999.5	70.0204	19,999.5	62.9053	19,999.5	67.2495	19,999.5	57.7319	19,999.5	58.0077	19,999.5	43.6306	19,999.5	56.1416	19,999.5	54.7835	19,999.5	57.7052	19,999.5	55.717	19,999.5	51.5248	19,999.5	35.4634	19,999.5	40.746	19,999.5	49.2465	19,999.5	48.6649	19,999.5	50.9269	19,999.5	42.6065	19,999.5	43.9055	19,999.5	43.1166	19,999.5	43.3862
