"SPL Vertical"
"On-Axis"		"10°"		"-10°"		"20°"		"-20°"		"30°"		"-30°"		"40°"		"-40°"		"50°"		"-50°"		"60°"		"-60°"		"70°"		"-70°"		"80°"		"-80°"		"90°"		"-90°"		"100°"		"-100°"		"110°"		"-110°"		"120°"		"-120°"		"130°"		"-130°"		"140°"		"-140°"		"150°"		"-150°"		"160°"		"-160°"		"170°"		"-170°"		"180°"
"Frequency / Hz"	"Sound Pressure Level / dB (re 20 µPa/V)  [2.83  V @ 1. m]"	"Frequency / Hz"	"Sound Pressure Level / dB (re 20 µPa/V)  [2.83  V @ 1. m]"	"Frequency / Hz"	"Sound Pressure Level / dB (re 20 µPa/V)  [2.83  V @ 1. m]"	"Frequency / Hz"	"Sound Pressure Level / dB (re 20 µPa/V)  [2.83  V @ 1. m]"	"Frequency / Hz"	"Sound Pressure Level / dB (re 20 µPa/V)  [2.83  V @ 1. m]"	"Frequency / Hz"	"Sound Pressure Level / dB (re 20 µPa/V)  [2.83  V @ 1. m]"	"Frequency / Hz"	"Sound Pressure Level / dB (re 20 µPa/V)  [2.83  V @ 1. m]"	"Frequency / Hz"	"Sound Pressure Level / dB (re 20 µPa/V)  [2.83  V @ 1. m]"	"Frequency / Hz"	"Sound Pressure Level / dB (re 20 µPa/V)  [2.83  V @ 1. m]"	"Frequency / Hz"	"Sound Pressure Level / dB (re 20 µPa/V)  [2.83  V @ 1. m]"	"Frequency / Hz"	"Sound Pressure Level / dB (re 20 µPa/V)  [2.83  V @ 1. m]"	"Frequency / Hz"	"Sound Pressure Level / dB (re 20 µPa/V)  [2.83  V @ 1. m]"	"Frequency / Hz"	"Sound Pressure Level / dB (re 20 µPa/V)  [2.83  V @ 1. m]"	"Frequency / Hz"	"Sound Pressure Level / dB (re 20 µPa/V)  [2.83  V @ 1. m]"	"Frequency / Hz"	"Sound Pressure Level / dB (re 20 µPa/V)  [2.83  V @ 1. m]"	"Frequency / Hz"	"Sound Pressure Level / dB (re 20 µPa/V)  [2.83  V @ 1. m]"	"Frequency / Hz"	"Sound Pressure Level / dB (re 20 µPa/V)  [2.83  V @ 1. m]"	"Frequency / Hz"	"Sound Pressure Level / dB (re 20 µPa/V)  [2.83  V @ 1. m]"	"Frequency / Hz"	"Sound Pressure Level / dB (re 20 µPa/V)  [2.83  V @ 1. m]"	"Frequency / Hz"	"Sound Pressure Level / dB (re 20 µPa/V)  [2.83  V @ 1. m]"	"Frequency / Hz"	"Sound Pressure Level / dB (re 20 µPa/V)  [2.83  V @ 1. m]"	"Frequency / Hz"	"Sound Pressure Level / dB (re 20 µPa/V)  [2.83  V @ 1. m]"	"Frequency / Hz"	"Sound Pressure Level / dB (re 20 µPa/V)  [2.83  V @ 1. m]"	"Frequency / Hz"	"Sound Pressure Level / dB (re 20 µPa/V)  [2.83  V @ 1. m]"	"Frequency / Hz"	"Sound Pressure Level / dB (re 20 µPa/V)  [2.83  V @ 1. m]"	"Frequency / Hz"	"Sound Pressure Level / dB (re 20 µPa/V)  [2.83  V @ 1. m]"	"Frequency / Hz"	"Sound Pressure Level / dB (re 20 µPa/V)  [2.83  V @ 1. m]"	"Frequency / Hz"	"Sound Pressure Level / dB (re 20 µPa/V)  [2.83  V @ 1. m]"	"Frequency / Hz"	"Sound Pressure Level / dB (re 20 µPa/V)  [2.83  V @ 1. m]"	"Frequency / Hz"	"Sound Pressure Level / dB (re 20 µPa/V)  [2.83  V @ 1. m]"	"Frequency / Hz"	"Sound Pressure Level / dB (re 20 µPa/V)  [2.83  V @ 1. m]"	"Frequency / Hz"	"Sound Pressure Level / dB (re 20 µPa/V)  [2.83  V @ 1. m]"	"Frequency / Hz"	"Sound Pressure Level / dB (re 20 µPa/V)  [2.83  V @ 1. m]"	"Frequency / Hz"	"Sound Pressure Level / dB (re 20 µPa/V)  [2.83  V @ 1. m]"	"Frequency / Hz"	"Sound Pressure Level / dB (re 20 µPa/V)  [2.83  V @ 1. m]"	"Frequency / Hz"	"Sound Pressure Level / dB (re 20 µPa/V)  [2.83  V @ 1. m]"
20.5078	51.7749	20.5078	52.1454	20.5078	51.4152	20.5078	52.5407	20.5078	51.052	20.5078	52.9716	20.5078	50.6729	20.5078	53.4435	20.5078	50.2713	20.5078	53.956	20.5078	49.8534	20.5078	54.503	20.5078	49.4471	20.5078	55.0742	20.5078	49.1126	20.5078	55.6559	20.5078	48.942	20.5078	56.2314	20.5078	49.0368	20.5078	56.7809	20.5078	49.4618	20.5078	57.2818	20.5078	50.2094	20.5078	57.709	20.5078	51.2067	20.5078	58.0364	20.5078	52.3517	20.5078	58.2374	20.5078	53.5433	20.5078	58.2871	20.5078	54.6953	20.5078	58.1638	20.5078	55.7407	20.5078	57.8511	20.5078	56.6321	20.5078	57.3402
21.9727	36.9113	21.9727	39.9883	21.9727	31.9306	21.9727	41.9304	21.9727	31.7481	21.9727	43.2332	21.9727	38.2156	21.9727	44.1453	21.9727	42.7898	21.9727	44.8096	21.9727	46.0692	21.9727	45.3192	21.9727	48.5722	21.9727	45.7391	21.9727	50.535	21.9727	46.113	21.9727	52.0694	21.9727	46.4636	21.9727	53.2281	21.9727	46.7924	21.9727	54.0322	21.9727	47.0825	21.9727	54.486	21.9727	47.3062	21.9727	54.5845	21.9727	47.436	21.9727	54.3206	21.9727	47.4637	21.9727	53.6922	21.9727	47.433	21.9727	52.7152	21.9727	47.4858	21.9727	51.4488	21.9727	47.8627	21.9727	50.0379	21.9727	48.7445
23.4375	54.5292	23.4375	54.673	23.4375	54.4439	23.4375	54.8361	23.4375	54.4694	23.4375	54.993	23.4375	54.6616	23.4375	55.1288	23.4375	55.0598	23.4375	55.2362	23.4375	55.6642	23.4375	55.312	23.4375	56.428	23.4375	55.3559	23.4375	57.2715	23.4375	55.3687	23.4375	58.1059	23.4375	55.3514	23.4375	58.8512	23.4375	55.3042	23.4375	59.4434	23.4375	55.2277	23.4375	59.8342	23.4375	55.1257	23.4375	59.9901	23.4375	55.012	23.4375	59.8906	23.4375	54.9219	23.4375	59.5304	23.4375	54.9229	23.4375	58.9246	23.4375	55.1112	23.4375	58.1182	23.4375	55.5691	23.4375	57.1985	23.4375	56.2986
24.9023	55.6742	24.9023	55.5245	24.9023	55.9478	24.9023	55.4578	24.9023	56.3818	24.9023	55.4388	24.9023	56.9941	24.9023	55.4411	24.9023	57.7734	24.9023	55.4467	24.9023	58.6779	24.9023	55.4449	24.9023	59.6458	24.9023	55.4299	24.9023	60.6085	24.9023	55.3995	24.9023	61.5007	24.9023	55.3541	24.9023	62.2651	24.9023	55.2969	24.9023	62.8536	24.9023	55.2359	24.9023	63.2268	24.9023	55.1893	24.9023	63.3534	24.9023	55.1961	24.9023	63.2101	24.9023	55.3285	24.9023	62.7835	24.9023	55.6905	24.9023	62.0735	24.9023	56.3768	24.9023	61.1013	24.9023	57.3953	24.9023	59.9209	24.9023	58.6342
26.3672	59.8857	26.3672	59.6135	26.3672	60.2765	26.3672	59.4421	26.3672	60.7969	26.3672	59.3523	26.3672	61.4456	26.3672	59.3267	26.3672	62.2053	26.3672	59.3514	26.3672	63.0441	26.3672	59.4161	26.3672	63.9193	26.3672	59.5142	26.3672	64.7826	26.3672	59.6422	26.3672	65.5851	26.3672	59.7994	26.3672	66.2808	26.3672	59.9874	26.3672	66.8285	26.3672	60.21	26.3672	67.1938	26.3672	60.4751	26.3672	67.3502	26.3672	60.7968	26.3672	67.2806	26.3672	61.1974	26.3672	66.98	26.3672	61.706	26.3672	66.4592	26.3672	62.3477	26.3672	65.7491	26.3672	63.1248	26.3672	64.9041	26.3672	64.0008
27.832	66.2271	27.832	65.9977	27.832	66.4952	27.832	65.797	27.832	66.8128	27.832	65.6165	27.832	67.1889	27.832	65.4504	27.832	67.6283	27.832	65.2951	27.832	68.1277	27.832	65.1497	27.832	68.6737	27.832	65.0152	27.832	69.2409	27.832	64.895	27.832	69.7941	27.832	64.7947	27.832	70.2914	27.832	64.7226	27.832	70.6893	27.832	64.6908	27.832	70.9472	27.832	64.7172	27.832	71.0312	27.832	64.8275	27.832	70.917	27.832	65.0562	27.832	70.5928	27.832	65.4415	27.832	70.063	27.832	66.0089	27.832	69.3523	27.832	66.7503	27.832	68.5105	27.832	67.6127
29.2969	68.2285	29.2969	67.9855	29.2969	68.5412	29.2969	67.8006	29.2969	68.9331	29.2969	67.6631	29.2969	69.4088	29.2969	67.5641	29.2969	69.9652	29.2969	67.4981	29.2969	70.5896	29.2969	67.4629	29.2969	71.2593	29.2969	67.4597	29.2969	71.9425	29.2969	67.4924	29.2969	72.601	29.2969	67.5677	29.2969	73.1941	29.2969	67.6938	29.2969	73.6819	29.2969	67.8806	29.2969	74.0294	29.2969	68.1392	29.2969	74.2086	29.2969	68.4816	29.2969	74.2007	29.2969	68.92	29.2969	73.9984	29.2969	69.4627	29.2969	73.6081	29.2969	70.1084	29.2969	73.0515	29.2969	70.8374	29.2969	72.3675	29.2969	71.6092
30.7617	71.0144	30.7617	70.7537	30.7617	71.3397	30.7617	70.5511	30.7617	71.7339	30.7617	70.3998	30.7617	72.1975	30.7617	70.2934	30.7617	72.7258	30.7617	70.227	30.7617	73.3071	30.7617	70.1976	30.7617	73.9222	30.7617	70.2046	30.7617	74.5438	30.7617	70.2492	30.7617	75.1385	30.7617	70.3345	30.7617	75.6691	30.7617	70.465	30.7617	76.0986	30.7617	70.6464	30.7617	76.3932	30.7617	70.8852	30.7617	76.5261	30.7617	71.1894	30.7617	76.4799	30.7617	71.5687	30.7617	76.2494	30.7617	72.0334	30.7617	75.8442	30.7617	72.5893	30.7617	75.2909	30.7617	73.2294	30.7617	74.633	30.7617	73.9264
32.2266	73.1595	32.2266	72.8898	32.2266	73.4914	32.2266	72.6737	32.2266	73.8906	32.2266	72.5021	32.2266	74.3568	32.2266	72.367	32.2266	74.8828	32.2266	72.263	32.2266	75.4536	32.2266	72.1877	32.2266	76.0465	32.2266	72.1419	32.2266	76.6327	32.2266	72.1291	32.2266	77.1786	32.2266	72.1543	32.2266	77.6479	32.2266	72.2239	32.2266	78.0048	32.2266	72.3441	32.2266	78.2167	32.2266	72.5214	32.2266	78.2579	32.2266	72.7625	32.2266	78.1135	32.2266	73.076	32.2266	77.7826	32.2266	73.4725	32.2266	77.2827	32.2266	73.9629	32.2266	76.6512	32.2266	74.5513	32.2266	75.9436	32.2266	75.2242
33.6914	76.0908	33.6914	75.8377	33.6914	76.4022	33.6914	75.6355	33.6914	76.7762	33.6914	75.4761	33.6914	77.2117	33.6914	75.352	33.6914	77.7015	33.6914	75.258	33.6914	78.2315	33.6914	75.1919	33.6914	78.7808	33.6914	75.1545	33.6914	79.323	33.6914	75.1488	33.6914	79.8271	33.6914	75.1796	33.6914	80.2599	33.6914	75.2525	33.6914	80.5877	33.6914	75.3729	33.6914	80.78	33.6914	75.5462	33.6914	80.813	33.6914	75.7773	33.6914	80.6732	33.6914	76.0721	33.6914	80.3615	33.6914	76.4385	33.6914	79.8965	33.6914	76.8849	33.6914	79.3152	33.6914	77.4154	33.6914	78.6706	33.6914	78.0207
35.1562	78.5514	35.1562	78.2852	35.1562	78.8741	35.1562	78.0704	35.1562	79.2549	35.1562	77.9007	35.1562	79.6908	35.1562	77.77	35.1562	80.1729	35.1562	77.674	35.1562	80.687	35.1562	77.6107	35.1562	81.213	35.1562	77.5804	35.1562	81.7265	35.1562	77.5855	35.1562	82.1992	35.1562	77.6296	35.1562	82.6003	35.1562	77.7164	35.1562	82.8987	35.1562	77.8493	35.1562	83.0662	35.1562	78.0311	35.1562	83.0804	35.1562	78.2641	35.1562	82.9294	35.1562	78.5518	35.1562	82.6154	35.1562	78.8999	35.1562	82.1585	35.1562	79.3168	35.1562	81.5968	35.1562	79.8089	35.1562	80.9829	35.1562	80.3721
36.6211	81.0961	36.6211	80.8011	36.6211	81.4408	36.6211	80.5551	36.6211	81.8331	36.6211	80.3558	36.6211	82.2677	36.6211	80.2001	36.6211	82.7352	36.6211	80.0859	36.6211	83.2221	36.6211	80.0117	36.6211	83.7114	36.6211	79.9776	36.6211	84.1819	36.6211	79.9845	36.6211	84.6094	36.6211	80.034	36.6211	84.9668	36.6211	80.1278	36.6211	85.2262	36.6211	80.2671	36.6211	85.3617	36.6211	80.4529	36.6211	85.3526	36.6211	80.6862	36.6211	85.1882	36.6211	80.969	36.6211	84.8715	36.6211	81.3063	36.6211	84.4225	36.6211	81.7057	36.6211	83.8786	36.6211	82.1738	36.6211	83.2901	36.6211	82.7086
38.0859	83.4238	38.0859	83.1517	38.0859	83.7398	38.0859	82.9236	38.0859	84.0977	38.0859	82.7382	38.0859	84.4925	38.0859	82.5935	38.0859	84.9161	38.0859	82.4879	38.0859	85.357	38.0859	82.4204	38.0859	85.7999	38.0859	82.3908	38.0859	86.226	38.0859	82.3994	38.0859	86.6125	38.0859	82.447	38.0859	86.9341	38.0859	82.534	38.0859	87.1643	38.0859	82.661	38.0859	87.2784	38.0859	82.8278	38.0859	87.2571	38.0859	83.0345	38.0859	87.0913	38.0859	83.2825	38.0859	86.7854	38.0859	83.576	38.0859	86.3613	38.0859	83.9225	38.0859	85.8569	38.0859	84.3301	38.0859	85.321	38.0859	84.8009
39.5508	85.3733	39.5508	85.1079	39.5508	85.6788	39.5508	84.883	39.5508	86.0219	39.5508	84.698	39.5508	86.3976	39.5508	84.5514	39.5508	86.7978	39.5508	84.4421	39.5508	87.2113	39.5508	84.3695	39.5508	87.6234	39.5508	84.3337	39.5508	88.0164	39.5508	84.3352	39.5508	88.3692	39.5508	84.3747	39.5508	88.6581	39.5508	84.4526	39.5508	88.8587	39.5508	84.5689	39.5508	88.9482	39.5508	84.7232	39.5508	88.9092	39.5508	84.9149	39.5508	88.734	39.5508	85.1446	39.5508	88.4288	39.5508	85.4154	39.5508	88.0159	39.5508	85.734	39.5508	87.5334	39.5508	86.1088	39.5508	87.028	39.5508	86.5435
41.0156	86.9125	41.0156	86.6467	41.0156	87.2139	41.0156	86.4183	41.0156	87.5474	41.0156	86.2279	41.0156	87.9074	41.0156	86.0754	41.0156	88.2857	41.0156	85.9606	41.0156	88.6716	41.0156	85.8836	41.0156	89.0517	41.0156	85.8446	41.0156	89.4095	41.0156	85.844	41.0156	89.7261	41.0156	85.882	41.0156	89.98	41.0156	85.9582	41.0156	90.1488	41.0156	86.0716	41.0156	90.212	41.0156	86.2206	41.0156	90.1542	41.0156	86.4032	41.0156	89.9695	41.0156	86.6187	41.0156	89.6656	41.0156	86.8689	41.0156	89.2661	41.0156	87.1594	41.0156	88.8089	41.0156	87.4991	41.0156	88.3383	41.0156	87.8939
42.4805	87.9716	42.4805	87.7039	42.4805	88.2704	42.4805	87.4699	42.4805	88.5962	42.4805	87.271	42.4805	88.943	42.4805	87.1082	42.4805	89.3029	42.4805	86.982	42.4805	89.6658	42.4805	86.8932	42.4805	90.019	42.4805	86.8425	42.4805	90.3476	42.4805	86.8304	42.4805	90.6341	42.4805	86.8571	42.4805	90.8588	42.4805	86.9221	42.4805	91.0011	42.4805	87.0243	42.4805	91.0419	42.4805	87.1616	42.4805	90.9673	42.4805	87.3322	42.4805	90.7723	42.4805	87.5348	42.4805	90.4654	42.4805	87.7708	42.4805	90.0702	42.4805	88.0456	42.4805	89.6239	42.4805	88.3677	42.4805	89.1695	42.4805	88.7437
43.9453	88.6463	43.9453	88.3851	43.9453	88.9358	43.9453	88.1556	43.9453	89.2489	43.9453	87.9599	43.9453	89.5794	43.9453	87.7998	43.9453	89.9196	43.9453	87.6764	43.9453	90.2595	43.9453	87.5907	43.9453	90.5876	43.9453	87.5436	43.9453	90.89	43.9453	87.5354	43.9453	91.1506	43.9453	87.566	43.9453	91.3516	43.9453	87.6345	43.9453	91.4744	43.9453	87.7389	43.9453	91.502	43.9453	87.8767	43.9453	91.4223	43.9453	88.045	43.9453	91.2321	43.9453	88.2414	43.9453	90.9408	43.9453	88.466	43.9453	90.572	43.9453	88.7225	43.9453	90.1609	43.9453	89.0182	43.9453	89.7464	43.9453	89.36
45.4102	88.9411	45.4102	88.6858	45.4102	89.2223	45.4102	88.4601	45.4102	89.5243	45.4102	88.2672	45.4102	89.8406	45.4102	88.1091	45.4102	90.1632	45.4102	87.9877	45.4102	90.4827	45.4102	87.9042	45.4102	90.7878	45.4102	87.8598	45.4102	91.0657	45.4102	87.8546	45.4102	91.3013	45.4102	87.8884	45.4102	91.4785	45.4102	87.9595	45.4102	91.5802	45.4102	88.0656	45.4102	91.5916	45.4102	88.203	45.4102	91.5024	45.4102	88.3678	45.4102	91.3115	45.4102	88.5564	45.4102	91.0299	45.4102	88.7673	45.4102	90.6818	45.4102	89.0029	45.4102	90.3013	45.4102	89.2699	45.4102	89.9239	45.4102	89.5763
46.875	89.1408	46.875	88.8876	46.875	89.4161	46.875	88.6608	46.875	89.7079	46.875	88.4636	46.875	90.0099	46.875	88.2992	46.875	90.3142	46.875	88.1697	46.875	90.6116	46.875	88.0773	46.875	90.8914	46.875	88.0233	46.875	91.1415	46.875	88.0084	46.875	91.3482	46.875	88.0324	46.875	91.4965	46.875	88.0935	46.875	91.5712	46.875	88.1892	46.875	91.559	46.875	88.3154	46.875	91.4515	46.875	88.4676	46.875	91.249	46.875	88.6415	46.875	90.9638	46.875	88.8349	46.875	90.6209	46.875	89.0499	46.875	90.2541	46.875	89.2934	46.875	89.8974	46.875	89.5744
48.3398	89.2337	48.3398	88.9846	48.3398	89.5011	48.3398	88.7586	48.3398	89.7811	48.3398	88.5597	48.3398	90.0674	48.3398	88.3917	48.3398	90.3524	48.3398	88.2576	48.3398	90.6275	48.3398	88.1601	48.3398	90.883	48.3398	88.1011	48.3398	91.1076	48.3398	88.0815	48.3398	91.2891	48.3398	88.101	48.3398	91.4139	48.3398	88.1578	48.3398	91.4683	48.3398	88.2487	48.3398	91.4407	48.3398	88.3693	48.3398	91.3241	48.3398	88.5145	48.3398	91.12	48.3398	88.6792	48.3398	90.8417	48.3398	88.8606	48.3398	90.5138	48.3398	89.0599	48.3398	90.1688	48.3398	89.2835	48.3398	89.8376	48.3398	89.5408
51.2695	88.9164	51.2695	88.6817	51.2695	89.1612	51.2695	88.4621	51.2695	89.4106	51.2695	88.2628	51.2695	89.6593	51.2695	88.0887	51.2695	89.901	51.2695	87.9443	51.2695	90.1287	51.2695	87.8336	51.2695	90.3343	51.2695	87.7595	51.2695	90.5083	51.2695	87.7236	51.2695	90.6403	51.2695	87.7263	51.2695	90.7191	51.2695	87.7665	51.2695	90.7338	51.2695	87.8417	51.2695	90.6762	51.2695	87.9481	51.2695	90.5436	51.2695	88.0808	51.2695	90.3415	51.2695	88.2344	51.2695	90.0859	51.2695	88.4042	51.2695	89.8009	51.2695	88.5871	51.2695	89.5132	51.2695	88.7843	51.2695	89.2434	51.2695	89.001
52.7344	88.8613	52.7344	88.6266	52.7344	89.1044	52.7344	88.4054	52.7344	89.3504	52.7344	88.2031	52.7344	89.5934	52.7344	88.0247	52.7344	89.8274	52.7344	87.8748	52.7344	90.0452	52.7344	87.7576	52.7344	90.2389	52.7344	87.6762	52.7344	90.3996	52.7344	87.6324	52.7344	90.5173	52.7344	87.6267	52.7344	90.5817	52.7344	87.6584	52.7344	90.5832	52.7344	87.7252	52.7344	90.5147	52.7344	87.8235	52.7344	90.3744	52.7344	87.9489	52.7344	90.1687	52.7344	88.0963	52.7344	89.9134	52.7344	88.2609	52.7344	89.632	52.7344	88.4398	52.7344	89.3494	52.7344	88.6337	52.7344	89.0849	52.7344	88.8468
54.1992	88.8467	54.1992	88.6107	54.1992	89.0894	54.1992	88.3876	54.1992	89.3329	54.1992	88.1831	54.1992	89.5709	54.1992	88.0029	54.1992	89.7968	54.1992	87.852	54.1992	90.0035	54.1992	87.7344	54.1992	90.1833	54.1992	87.6532	54.1992	90.3276	54.1992	87.61	54.1992	90.4273	54.1992	87.6051	54.1992	90.4733	54.1992	87.6371	54.1992	90.4576	54.1992	87.7037	54.1992	90.375	54.1992	87.8011	54.1992	90.2259	54.1992	87.9247	54.1992	90.0186	54.1992	88.069	54.1992	89.77	54.1992	88.2287	54.1992	89.5029	54.1992	88.4	54.1992	89.2402	54.1992	88.5823	54.1992	88.9974	54.1992	88.7793
55.6641	88.8795	55.6641	88.6497	55.6641	89.1168	55.6641	88.4335	55.6641	89.3551	55.6641	88.237	55.6641	89.588	55.6641	88.0659	55.6641	89.8086	55.6641	87.9251	55.6641	90.0096	55.6641	87.8185	55.6641	90.1832	55.6641	87.7485	55.6641	90.3211	55.6641	87.7161	55.6641	90.4147	55.6641	87.721	55.6641	90.4556	55.6641	87.7613	55.6641	90.4371	55.6641	87.8342	55.6641	90.3553	55.6641	87.9355	55.6641	90.212	55.6641	88.0604	55.6641	90.0161	55.6641	88.2033	55.6641	89.7842	55.6641	88.3587	55.6641	89.5378	55.6641	88.5225	55.6641	89.2975	55.6641	88.694	55.6641	89.076	55.6641	88.8764
58.5938	88.8147	58.5938	88.5845	58.5938	89.0484	58.5938	88.3645	58.5938	89.2786	58.5938	88.1617	58.5938	89.4984	58.5938	87.9825	58.5938	89.7007	58.5938	87.8327	58.5938	89.8781	58.5938	87.7174	58.5938	90.023	58.5938	87.6399	58.5938	90.1277	58.5938	87.6019	58.5938	90.1847	58.5938	87.6032	58.5938	90.1878	58.5938	87.6419	58.5938	90.1326	58.5938	87.714	58.5938	90.0188	58.5938	87.8141	58.5938	89.8516	58.5938	87.9355	58.5938	89.6437	58.5938	88.0705	58.5938	89.4146	58.5938	88.2115	58.5938	89.1864	58.5938	88.3529	58.5938	88.9774	58.5938	88.4934	58.5938	88.7957	58.5938	88.6377
60.0586	88.7687	60.0586	88.5359	60.0586	89.0039	60.0586	88.3129	60.0586	89.2344	60.0586	88.1068	60.0586	89.4528	60.0586	87.9245	60.0586	89.6519	60.0586	87.7722	60.0586	89.8242	60.0586	87.6549	60.0586	89.9621	60.0586	87.5763	60.0586	90.0582	60.0586	87.5381	60.0586	90.1057	60.0586	87.5402	60.0586	90.099	60.0586	87.5801	60.0586	90.0348	60.0586	87.6539	60.0586	89.9137	60.0586	87.7556	60.0586	89.7424	60.0586	87.8781	60.0586	89.5341	60.0586	88.0132	60.0586	89.3086	60.0586	88.1532	60.0586	89.0875	60.0586	88.292	60.0586	88.8877	60.0586	88.428	60.0586	88.7154	60.0586	88.5658
62.9883	88.801	62.9883	88.5688	62.9883	89.0334	62.9883	88.3442	62.9883	89.2585	62.9883	88.1347	62.9883	89.4691	62.9883	87.9475	62.9883	89.6578	62.9883	87.7891	62.9883	89.8172	62.9883	87.665	62.9883	89.94	62.9883	87.5789	62.9883	90.0193	62.9883	87.5329	62.9883	90.0487	62.9883	87.5265	62.9883	90.0238	62.9883	87.5575	62.9883	89.9425	62.9883	87.6218	62.9883	89.8072	62.9883	87.7135	62.9883	89.6256	62.9883	87.8255	62.9883	89.4123	62.9883	87.9502	62.9883	89.1867	62.9883	88.0802	62.9883	88.9696	62.9883	88.2098	62.9883	88.7759	62.9883	88.3377	62.9883	88.6106	62.9883	88.4681
64.4531	88.771	64.4531	88.5353	64.4531	89.0064	64.4531	88.3073	64.4531	89.2336	64.4531	88.0951	64.4531	89.4448	64.4531	87.9066	64.4531	89.6326	64.4531	87.7487	64.4531	89.7894	64.4531	87.6274	64.4531	89.908	64.4531	87.5467	64.4531	89.9816	64.4531	87.5083	64.4531	90.0046	64.4531	87.5117	64.4531	89.9733	64.4531	87.554	64.4531	89.8869	64.4531	87.6301	64.4531	89.749	64.4531	87.7332	64.4531	89.5691	64.4531	87.8552	64.4531	89.3627	64.4531	87.9876	64.4531	89.1494	64.4531	88.122	64.4531	88.9487	64.4531	88.2522	64.4531	88.7735	64.4531	88.3759	64.4531	88.6256	64.4531	88.4971
67.3828	88.7788	67.3828	88.5342	67.3828	89.0198	67.3828	88.2949	67.3828	89.249	67.3828	88.0697	67.3828	89.4584	67.3828	87.8674	67.3828	89.6403	67.3828	87.6961	67.3828	89.7872	67.3828	87.5629	67.3828	89.8921	67.3828	87.4728	67.3828	89.9487	67.3828	87.4285	67.3828	89.9522	67.3828	87.4298	67.3828	89.9001	67.3828	87.4736	67.3828	89.7935	67.3828	87.5541	67.3828	89.6383	67.3828	87.6634	67.3828	89.4461	67.3828	87.7922	67.3828	89.2346	67.3828	87.9302	67.3828	89.0243	67.3828	88.0677	67.3828	88.8339	67.3828	88.1973	67.3828	88.6736	67.3828	88.3159	67.3828	88.5418	67.3828	88.4272
68.8477	88.8294	68.8477	88.5822	68.8477	89.0711	68.8477	88.3381	68.8477	89.2987	68.8477	88.1063	68.8477	89.5044	68.8477	87.896	68.8477	89.6805	68.8477	87.7159	68.8477	89.8197	68.8477	87.5735	68.8477	89.9152	68.8477	87.4746	68.8477	89.9609	68.8477	87.4223	68.8477	89.9527	68.8477	87.4171	68.8477	89.8884	68.8477	87.456	68.8477	89.7701	68.8477	87.5334	68.8477	89.6047	68.8477	87.6411	68.8477	89.4048	68.8477	87.7692	68.8477	89.189	68.8477	87.9071	68.8477	88.978	68.8477	88.0443	68.8477	88.7901	68.8477	88.1729	68.8477	88.6343	68.8477	88.2895	68.8477	88.5075	68.8477	88.3975
71.7773	88.9369	71.7773	88.6954	71.7773	89.1698	71.7773	88.4541	71.7773	89.3858	71.7773	88.222	71.7773	89.5773	71.7773	88.0084	71.7773	89.7366	71.7773	87.8222	71.7773	89.8568	71.7773	87.6714	71.7773	89.9313	71.7773	87.5623	71.7773	89.9547	71.7773	87.4988	71.7773	89.9233	71.7773	87.4819	71.7773	89.8364	71.7773	87.5095	71.7773	89.6974	71.7773	87.5761	71.7773	89.5152	71.7773	87.6738	71.7773	89.3045	71.7773	87.7924	71.7773	89.0854	71.7773	87.9206	71.7773	88.8793	71.7773	88.0478	71.7773	88.7032	71.7773	88.1651	71.7773	88.5636	71.7773	88.2687	71.7773	88.4545	71.7773	88.3615
74.707	88.9818	74.707	88.746	74.707	89.2081	74.707	88.5094	74.707	89.4162	74.707	88.2815	74.707	89.5982	74.707	88.0718	74.707	89.7466	74.707	87.8894	74.707	89.8545	74.707	87.7424	74.707	89.9153	74.707	87.6373	74.707	89.9241	74.707	87.5778	74.707	89.8778	74.707	87.5647	74.707	89.7767	74.707	87.5954	74.707	89.6257	74.707	87.6639	74.707	89.4356	74.707	87.7616	74.707	89.223	74.707	87.8777	74.707	89.0094	74.707	88.0007	74.707	88.8165	74.707	88.1194	74.707	88.6599	74.707	88.2248	74.707	88.5434	74.707	88.313	74.707	88.4581	74.707	88.387
77.6367	88.9158	77.6367	88.6995	77.6367	89.1233	77.6367	88.4832	77.6367	89.3134	77.6367	88.2755	77.6367	89.4781	77.6367	88.0845	77.6367	89.6094	77.6367	87.918	77.6367	89.7005	77.6367	87.7823	77.6367	89.7455	77.6367	87.6822	77.6367	89.7403	77.6367	87.6206	77.6367	89.6831	77.6367	87.598	77.6367	89.5761	77.6367	87.6126	77.6367	89.4263	77.6367	87.6604	77.6367	89.2461	77.6367	87.7352	77.6367	89.0531	77.6367	87.8298	77.6367	88.8671	77.6367	87.9358	77.6367	88.7052	77.6367	88.0448	77.6367	88.5762	77.6367	88.149	77.6367	88.4779	77.6367	88.2424	77.6367	88.3986	77.6367	88.324
79.1016	88.9161	79.1016	88.6982	79.1016	89.1241	79.1016	88.4793	79.1016	89.3135	79.1016	88.2682	79.1016	89.476	79.1016	88.0733	79.1016	89.6038	79.1016	87.9027	79.1016	89.6901	79.1016	87.763	79.1016	89.7289	79.1016	87.6594	79.1016	89.7163	79.1016	87.595	79.1016	89.6509	79.1016	87.5706	79.1016	89.5353	79.1016	87.5841	79.1016	89.3771	79.1016	87.6314	79.1016	89.1898	79.1016	87.7061	79.1016	88.9917	79.1016	87.8003	79.1016	88.8034	79.1016	87.9055	79.1016	88.6423	79.1016	88.0129	79.1016	88.5167	79.1016	88.1143	79.1016	88.4234	79.1016	88.204	79.1016	88.3499	79.1016	88.2808
82.0312	88.8662	82.0312	88.6419	82.0312	89.0785	82.0312	88.4151	82.0312	89.2698	82.0312	88.195	82.0312	89.4314	82.0312	87.9907	82.0312	89.5553	82.0312	87.8106	82.0312	89.6345	82.0312	87.662	82.0312	89.6631	82.0312	87.5503	82.0312	89.6372	82.0312	87.4791	82.0312	89.556	82.0312	87.449	82.0312	89.4226	82.0312	87.4583	82.0312	89.2461	82.0312	87.5024	82.0312	89.0414	82.0312	87.5747	82.0312	88.8289	82.0312	87.6669	82.0312	88.631	82.0312	87.7698	82.0312	88.466	82.0312	87.8741	82.0312	88.3418	82.0312	87.9714	82.0312	88.2537	82.0312	88.0557	82.0312	88.1874	82.0312	88.1258
84.9609	88.7575	84.9609	88.5252	84.9609	88.9766	84.9609	88.2897	84.9609	89.1729	84.9609	88.0611	84.9609	89.3378	84.9609	87.8498	84.9609	89.4631	84.9609	87.665	84.9609	89.542	84.9609	87.5151	84.9609	89.5688	84.9609	87.4062	84.9609	89.5403	84.9609	87.3417	84.9609	89.4559	84.9609	87.322	84.9609	89.3199	84.9609	87.344	84.9609	89.142	84.9609	87.4017	84.9609	88.9378	84.9609	87.4867	84.9609	88.7284	84.9609	87.5894	84.9609	88.5357	84.9609	87.6996	84.9609	88.3771	84.9609	87.8078	84.9609	88.2593	84.9609	87.906	84.9609	88.1767	84.9609	87.989	84.9609	88.1148	84.9609	88.0565
87.8906	88.6713	87.8906	88.4353	87.8906	88.8902	87.8906	88.1924	87.8906	89.0826	87.8906	87.9531	87.8906	89.2397	87.8906	87.7279	87.8906	89.3537	87.8906	87.5272	87.8906	89.4178	87.8906	87.3607	87.8906	89.4267	87.8906	87.236	87.8906	89.3778	87.8906	87.1584	87.8906	89.2716	87.8906	87.1297	87.8906	89.1137	87.8906	87.1476	87.8906	88.916	87.8906	87.2063	87.8906	88.6969	87.8906	87.2966	87.8906	88.4799	87.8906	87.4074	87.8906	88.289	87.8906	87.5267	87.8906	88.1413	87.8906	87.6428	87.8906	88.0411	87.8906	87.7457	87.8906	87.9785	87.8906	87.8283	87.8906	87.9345	87.8906	87.8893
90.8203	88.6031	90.8203	88.3617	90.8203	88.8245	90.8203	88.1107	90.8203	89.0164	90.8203	87.8613	90.8203	89.17	90.8203	87.6246	90.8203	89.2776	90.8203	87.412	90.8203	89.3329	90.8203	87.2338	90.8203	89.3309	90.8203	87.0989	90.8203	89.2694	90.8203	87.0131	90.8203	89.1496	90.8203	86.9787	90.8203	88.9777	90.8203	86.9939	90.8203	88.7667	90.8203	87.0524	90.8203	88.5363	90.8203	87.1446	90.8203	88.3114	90.8203	87.2582	90.8203	88.1167	90.8203	87.3804	90.8203	87.9696	90.8203	87.4984	90.8203	87.8733	90.8203	87.6014	90.8203	87.8166	90.8203	87.6822	90.8203	87.7789	90.8203	87.7392
95.2148	88.5141	95.2148	88.2726	95.2148	88.7294	95.2148	88.0149	95.2148	88.9093	95.2148	87.7522	95.2148	89.0457	95.2148	87.4963	95.2148	89.1313	95.2148	87.2596	95.2148	89.1601	95.2148	87.0543	95.2148	89.1277	95.2148	86.8917	95.2148	89.0326	95.2148	86.7802	95.2148	88.8768	95.2148	86.7246	95.2148	88.6684	95.2148	86.7244	95.2148	88.4229	95.2148	86.7739	95.2148	88.1636	95.2148	86.8624	95.2148	87.919	95.2148	86.9759	95.2148	87.7168	95.2148	87.0988	95.2148	87.5749	95.2148	87.2157	95.2148	87.4943	95.2148	87.3137	95.2148	87.4593	95.2148	87.3841	95.2148	87.4446	95.2148	87.4254
98.1445	88.4466	98.1445	88.2126	98.1445	88.6534	98.1445	87.9615	98.1445	88.8239	98.1445	87.704	98.1445	88.9502	98.1445	87.4518	98.1445	89.0249	98.1445	87.217	98.1445	89.0421	98.1445	87.0116	98.1445	88.9975	98.1445	86.8465	98.1445	88.8896	98.1445	86.7301	98.1445	88.7207	98.1445	86.6672	98.1445	88.4993	98.1445	86.6575	98.1445	88.2416	98.1445	86.6956	98.1445	87.9716	98.1445	86.7713	98.1445	87.7191	98.1445	86.871	98.1445	87.5126	98.1445	86.9794	98.1445	87.3703	98.1445	87.0815	98.1445	87.2929	98.1445	87.1649	98.1445	87.2642	98.1445	87.2215	98.1445	87.2583	98.1445	87.25
101.074	88.2528	101.074	88.0176	101.074	88.4584	101.074	87.7629	101.074	88.6252	101.074	87.4995	101.074	88.7453	101.074	87.2397	101.074	88.8113	101.074	86.9961	101.074	88.8175	101.074	86.7816	101.074	88.7595	101.074	86.6078	101.074	88.636	101.074	86.4842	101.074	88.4497	101.074	86.416	101.074	88.2101	101.074	86.4033	101.074	87.9347	101.074	86.4405	101.074	87.6497	101.074	86.5166	101.074	87.3872	101.074	86.6169	101.074	87.1777	101.074	86.7251	101.074	87.0398	101.074	86.8252	101.074	86.9727	101.074	86.9039	101.074	86.9577	101.074	86.9529	101.074	86.9662	101.074	86.9709
105.469	88.059	105.469	87.8058	105.469	88.2764	105.469	87.5275	105.469	88.4482	105.469	87.2367	105.469	88.5659	105.469	86.9468	105.469	88.6222	105.469	86.6727	105.469	88.6111	105.469	86.4294	105.469	88.5285	105.469	86.2306	105.469	88.3731	105.469	86.0875	105.469	88.1486	105.469	86.0062	105.469	87.8654	105.469	85.9863	105.469	87.5434	105.469	86.021	105.469	87.2128	105.469	86.0971	105.469	86.9105	105.469	86.1974	105.469	86.6722	105.469	86.3034	105.469	86.5199	105.469	86.3974	105.469	86.4527	105.469	86.4655	105.469	86.4487	105.469	86.4994	105.469	86.4747	105.469	86.499
108.398	88.2046	108.398	87.9463	108.398	88.424	108.398	87.66	108.398	88.5953	108.398	87.3577	108.398	88.7103	108.398	87.0535	108.398	88.762	108.398	86.7623	108.398	88.7448	108.398	86.5	108.398	88.6546	108.398	86.2816	108.398	88.4902	108.398	86.1193	108.398	88.2548	108.398	86.0204	108.398	87.9583	108.398	85.9852	108.398	87.6199	108.398	86.0069	108.398	87.2687	108.398	86.0716	108.398	86.9418	108.398	86.1615	108.398	86.676	108.398	86.2571	108.398	86.4959	108.398	86.3408	108.398	86.4044	108.398	86.3991	108.398	86.3825	108.398	86.4251	108.398	86.3987	108.398	86.4208
112.793	88.2661	112.793	88.0172	112.793	88.4768	112.793	87.7398	112.793	88.6408	112.793	87.4451	112.793	88.7506	112.793	87.1461	112.793	88.7998	112.793	86.8574	112.793	88.783	112.793	86.5947	112.793	88.6967	112.793	86.3735	112.793	88.5398	112.793	86.2074	112.793	88.3159	112.793	86.1052	112.793	88.0352	112.793	86.0689	112.793	87.717	112.793	86.0927	112.793	87.3897	112.793	86.1631	112.793	87.0883	112.793	86.262	112.793	86.8459	112.793	86.3692	112.793	86.6831	112.793	86.4663	112.793	86.5997	112.793	86.5395	112.793	86.5765	112.793	86.5811	112.793	86.5836	112.793	86.5922
117.188	88.0622	117.188	87.8029	117.188	88.279	117.188	87.5116	117.188	88.4441	117.188	87.2009	117.188	88.5494	117.188	86.8852	117.188	88.5882	117.188	86.5807	117.188	88.555	117.188	86.3053	117.188	88.4466	117.188	86.0763	117.188	88.263	117.188	85.9087	117.188	88.0096	117.188	85.8122	117.188	87.7	117.188	85.7885	117.188	87.3584	117.188	85.8301	117.188	87.0192	117.188	85.9217	117.188	86.7225	117.188	86.0422	117.188	86.503	117.188	86.1692	117.188	86.377	117.188	86.2822	117.188	86.3358	117.188	86.3654	117.188	86.3513	117.188	86.4096	117.188	86.3877	117.188	86.414
120.117	88.0802	120.117	87.8184	120.117	88.2971	120.117	87.5225	120.117	88.4599	120.117	87.2045	120.117	88.5602	120.117	86.8788	120.117	88.5909	120.117	86.5615	120.117	88.5461	120.117	86.2704	120.117	88.4219	120.117	86.0239	120.117	88.2179	120.117	85.8382	120.117	87.9393	120.117	85.7249	120.117	87.5999	120.117	85.6871	120.117	87.2252	120.117	85.7183	120.117	86.8526	120.117	85.8028	120.117	86.5264	120.117	85.9184	120.117	86.2861	120.117	86.0405	120.117	86.1513	120.117	86.1469	120.117	86.1134	120.117	86.2204	120.117	86.1411	120.117	86.2513	120.117	86.1946	120.117	86.2391
124.512	88.0954	124.512	87.8268	124.512	88.3184	124.512	87.5239	124.512	88.486	124.512	87.1994	124.512	88.5894	124.512	86.8682	124.512	88.621	124.512	86.5469	124.512	88.5742	124.512	86.254	124.512	88.4448	124.512	86.0083	124.512	88.2317	124.512	85.8266	124.512	87.9397	124.512	85.7204	124.512	87.5826	124.512	85.6925	124.512	87.1867	124.512	85.7356	124.512	86.792	124.512	85.832	124.512	86.4475	124.512	85.9578	124.512	86.1983	124.512	86.0865	124.512	86.0675	124.512	86.194	124.512	86.046	124.512	86.262	124.512	86.0983	124.512	86.2802	124.512	86.179	124.512	86.2484
128.906	88.0524	128.906	87.785	128.906	88.2717	128.906	87.48	128.906	88.4335	128.906	87.15	128.906	88.5302	128.906	86.8095	128.906	88.5549	128.906	86.4753	128.906	88.5019	128.906	86.166	128.906	88.3673	128.906	85.9011	128.906	88.1498	128.906	85.6985	128.906	87.8529	128.906	85.5718	128.906	87.4886	128.906	85.5259	128.906	87.0803	128.906	85.5546	128.906	86.6657	128.906	85.6409	128.906	86.2935	128.906	85.7596	128.906	86.0117	128.906	85.8822	128.906	85.8495	128.906	85.9826	128.906	85.8049	128.906	86.0412	128.906	85.8459	128.906	86.0478	128.906	85.9268	128.906	86.0044
133.301	87.8673	133.301	87.5947	133.301	88.0907	133.301	87.2833	133.301	88.2557	133.301	86.9462	133.301	88.3549	133.301	86.5987	133.301	88.3823	133.301	86.2584	133.301	88.3326	133.301	85.9449	133.301	88.2026	133.301	85.6784	133.301	87.9917	133.301	85.4771	133.301	87.7039	133.301	85.3541	133.301	87.3516	133.301	85.3137	133.301	86.958	133.301	85.3489	133.301	86.5596	133.301	85.4417	133.301	86.2018	133.301	85.5666	133.301	85.9283	133.301	85.6951	133.301	85.7651	133.301	85.8017	133.301	85.7096	133.301	85.8675	133.301	85.733	133.301	85.884	133.301	85.7943	133.301	85.8543
139.16	87.5741	139.16	87.2924	139.16	87.8016	139.16	86.9676	139.16	87.966	139.16	86.6143	139.16	88.0605	139.16	86.2507	139.16	88.0796	139.16	85.8983	139.16	88.0192	139.16	85.5812	139.16	87.877	139.16	85.3232	139.16	87.6538	139.16	85.1445	139.16	87.3562	139.16	85.0565	139.16	87.0001	139.16	85.0588	139.16	86.6135	139.16	85.1379	139.16	86.2372	139.16	85.2701	139.16	85.9183	139.16	85.4261	139.16	85.6961	139.16	85.5768	139.16	85.5865	139.16	85.698	139.16	85.5757	139.16	85.7733	139.16	85.6288	139.16	85.7958	139.16	85.7048	139.16	85.7686
143.555	87.5211	143.555	87.2138	143.555	87.7684	143.555	86.8576	143.555	87.9466	143.555	86.4667	143.555	88.0484	143.555	86.0597	143.555	88.0673	143.555	85.6602	143.555	87.9979	143.555	85.2972	143.555	87.8371	143.555	85.0022	143.555	87.5849	143.555	84.8044	143.555	87.2483	143.555	84.7226	143.555	86.8453	143.555	84.7583	143.555	86.4094	143.555	84.8929	143.555	85.991	143.555	85.0923	143.555	85.6497	143.555	85.3157	143.555	85.4348	143.555	85.5241	143.555	85.3629	143.555	85.687	143.555	85.4101	143.555	85.7846	143.555	85.5265	143.555	85.8085	143.555	85.6579	143.555	85.7614
147.949	87.6687	147.949	87.3654	147.949	87.9063	147.949	87.0057	147.949	88.0707	147.949	86.601	147.949	88.1551	147.949	86.1663	147.949	88.1535	147.949	85.7213	147.949	88.0603	147.949	85.2916	147.949	87.8714	147.949	84.9086	147.949	87.5852	147.949	84.6067	147.949	87.2061	147.949	84.4163	147.949	86.7487	147.949	84.3538	147.949	86.2438	147.949	84.4131	147.949	85.7421	147.949	84.5654	147.949	85.3096	147.949	84.7668	147.949	85.0085	147.949	84.9707	147.949	84.8701	147.949	85.1374	147.949	84.8776	147.949	85.2399	147.949	84.9782	147.949	85.2655	147.949	85.1085	147.949	85.2159
153.809	87.4958	153.809	87.1896	153.809	87.7321	153.809	86.8228	153.809	87.8912	153.809	86.4083	153.809	87.9678	153.809	85.9627	153.809	87.9579	153.809	85.5074	153.809	87.8582	153.809	85.0686	153.809	87.6666	153.809	84.6762	153.809	87.3834	153.809	84.361	153.809	87.013	153.809	84.1489	153.809	86.5683	153.809	84.0532	153.809	86.0752	153.809	84.0687	153.809	85.5758	153.809	84.1711	153.809	85.1256	153.809	84.3229	153.809	84.7802	153.809	84.4832	153.809	84.5734	153.809	84.6161	153.809	84.5022	153.809	84.6974	153.809	84.5299	153.809	84.7168	153.809	84.6051	153.809	84.6793
159.668	87.6605	159.668	87.3391	159.668	87.9041	159.668	86.9469	159.668	88.0649	159.668	86.4942	159.668	88.1395	159.668	85.996	159.668	88.1248	159.668	85.4734	159.668	88.0185	159.668	84.9553	159.668	87.8193	159.668	84.4787	159.668	87.5278	159.668	84.0863	159.668	87.1501	159.668	83.8182	159.668	86.7012	159.668	83.6994	159.668	86.2105	159.668	83.729	159.668	85.7235	159.668	83.8774	159.668	85.297	159.668	84.0965	159.668	84.9821	159.668	84.334	159.668	84.8022	159.668	84.5464	159.668	84.7421	159.668	84.7046	159.668	84.7584	159.668	84.7959	159.668	84.7997	159.668	84.8222
165.527	87.8621	165.527	87.5835	165.527	88.0672	165.527	87.2388	165.527	88.1934	165.527	86.8376	165.527	88.2361	165.527	86.3933	165.527	88.1916	165.527	85.924	165.527	88.057	165.527	85.454	165.527	87.8306	165.527	85.0141	165.527	87.514	165.527	84.6405	165.527	87.1145	165.527	84.3688	165.527	86.6502	165.527	84.2245	165.527	86.1548	165.527	84.2129	165.527	85.6796	165.527	84.3145	165.527	85.2856	165.527	84.4906	165.527	85.023	165.527	84.6947	165.527	84.9074	165.527	84.8841	165.527	84.9119	165.527	85.0269	165.527	84.9831	165.527	85.105	165.527	85.065	165.527	85.1143
171.387	87.7925	171.387	87.5136	171.387	87.9973	171.387	87.1681	171.387	88.1225	171.387	86.7658	171.387	88.1632	171.387	86.3204	171.387	88.1149	171.387	85.8507	171.387	87.9736	171.387	85.382	171.387	87.736	171.387	84.9475	171.387	87.4011	171.387	84.5856	171.387	86.9742	171.387	84.3345	171.387	86.4719	171.387	84.2205	171.387	85.93	171.387	84.2461	171.387	85.4074	171.387	84.386	171.387	84.9795	171.387	84.5941	171.387	84.7126	171.387	84.8172	171.387	84.6295	171.387	85.0083	171.387	84.6971	171.387	85.1335	171.387	84.8469	171.387	85.1744	171.387	85.0083	171.387	85.1282
177.246	87.5527	177.246	87.2557	177.246	87.7773	177.246	86.8948	177.246	87.9224	177.246	86.4808	177.246	87.9822	177.246	86.0282	177.246	87.9517	177.246	85.5561	177.246	87.8265	177.246	85.0908	177.246	87.6034	177.246	84.6659	177.246	87.2814	177.246	84.3208	177.246	86.8654	177.246	84.0935	177.246	86.3705	177.246	84.0086	177.246	85.83	177.246	84.0646	177.246	85.2997	177.246	84.231	177.246	84.8533	177.246	84.4571	177.246	84.5596	177.246	84.6874	177.246	84.4489	177.246	84.8745	177.246	84.4967	177.246	84.9866	177.246	84.6396	177.246	85.0087	177.246	84.8073	177.246	84.9427
183.105	87.404	183.105	87.0936	183.105	87.6302	183.105	86.7072	183.105	87.7668	183.105	86.256	183.105	87.8101	183.105	85.7552	183.105	87.7579	183.105	85.2259	183.105	87.6091	183.105	84.6977	183.105	87.3629	183.105	84.2111	183.105	87.0204	183.105	83.8174	183.105	86.5871	183.105	83.5698	183.105	86.0789	183.105	83.5049	183.105	85.5304	183.105	83.6226	183.105	85.0012	183.105	83.8801	183.105	84.5709	183.105	84.2076	183.105	84.3134	183.105	84.5321	183.105	84.2577	183.105	84.7953	183.105	84.3693	183.105	84.9596	183.105	84.5719	183.105	85.0082	183.105	84.7842	183.105	84.9431
188.965	87.4447	188.965	87.1472	188.965	87.654	188.965	86.768	188.965	87.7702	188.965	86.3166	188.965	87.7907	188.965	85.8052	188.965	87.714	188.965	85.25	188.965	87.5393	188.965	84.6731	188.965	87.267	188.965	84.1067	188.965	86.8988	188.965	83.5963	188.965	86.4409	188.965	83.2011	188.965	85.9087	188.965	82.9806	188.965	85.3345	188.965	82.9692	188.965	84.7738	188.965	83.1506	188.965	84.3023	188.965	83.4598	188.965	83.9934	188.965	83.8092	188.965	83.8823	188.965	84.1196	188.965	83.9433	188.965	84.3364	188.965	84.1044	188.965	84.4325	188.965	84.2821	188.965	84.4069
196.289	87.9503	196.289	87.6682	196.289	88.14	196.289	87.3003	196.289	88.2333	196.289	86.8569	196.289	88.2282	196.289	86.3518	196.289	88.1233	196.289	85.8036	196.289	87.917	196.289	85.2366	196.289	87.6068	196.289	84.6827	196.289	87.1905	196.289	84.1829	196.289	86.6693	196.289	83.785	196.289	86.0555	196.289	83.5331	196.289	85.3824	196.289	83.4514	196.289	84.7154	196.289	83.5289	196.289	84.1518	196.289	83.7197	196.289	83.7909	196.289	83.9585	196.289	83.6782	196.289	84.181	196.289	83.7727	196.289	84.3366	196.289	83.9767	196.289	84.3939	196.289	84.1898	196.289	84.3414
203.613	87.7132	203.613	87.4133	203.613	87.9193	203.613	87.0289	203.613	88.0252	203.613	86.5734	203.613	88.0272	203.613	86.0644	203.613	87.9238	203.613	85.5242	203.613	87.7152	203.613	84.9794	203.613	87.403	203.613	84.4612	203.613	86.9911	203.613	84.0041	203.613	86.4872	203.613	83.6432	203.613	85.9065	203.613	83.4077	203.613	85.278	203.613	83.3115	203.613	84.6496	203.613	83.3448	203.613	84.0893	203.613	83.4727	203.613	83.6712	203.613	83.6439	203.613	83.4467	203.613	83.8035	203.613	83.4159	203.613	83.905	203.613	83.5249	203.613	83.9194	203.613	83.6921	203.613	83.8411
210.938	87.9332	210.938	87.6176	210.938	88.1341	210.938	87.1913	210.938	88.219	210.938	86.6629	210.938	88.1887	210.938	86.0469	210.938	88.0447	210.938	85.366	210.938	87.7881	210.938	84.655	210.938	87.4199	210.938	83.964	210.938	86.9422	210.938	83.3599	210.938	86.3623	210.938	82.9169	210.938	85.6987	210.938	82.6917	210.938	84.9903	210.938	82.6937	210.938	84.3024	210.938	82.875	210.938	83.7205	210.938	83.1509	210.938	83.3238	210.938	83.4338	210.938	83.1471	210.938	83.6558	210.938	83.165	210.938	83.7759	210.938	83.3102	210.938	83.7802	210.938	83.5047	210.938	83.6789
218.262	87.9639	218.262	87.681	218.262	88.1428	218.262	87.2982	218.262	88.216	218.262	86.822	218.262	88.1834	218.262	86.2624	218.262	88.0456	218.262	85.6339	218.262	87.8036	218.262	84.9581	218.262	87.4583	218.262	84.2677	218.262	87.0116	218.262	83.612	218.262	86.4692	218.262	83.0568	218.262	85.8461	218.262	82.673	218.262	85.1749	218.262	82.5082	218.262	84.5125	218.262	82.5577	218.262	83.9366	218.262	82.7618	218.262	83.5229	218.262	83.0332	218.262	83.3088	218.262	83.2905	218.262	83.2731	218.262	83.4768	218.262	83.3511	218.262	83.5644	218.262	83.4664	218.262	83.5529
225.586	88.0467	225.586	87.7583	225.586	88.2184	225.586	87.3584	225.586	88.2715	225.586	86.8563	225.586	88.2059	225.586	86.2665	225.586	88.0227	225.586	85.6108	225.586	87.7236	225.586	84.9208	225.586	87.3117	225.586	84.2419	225.586	86.7936	225.586	83.6357	225.586	86.1859	225.586	83.1751	225.586	85.5236	225.586	82.9245	225.586	84.8708	225.586	82.9098	225.586	84.3199	225.586	83.101	225.586	83.9644	225.586	83.424	225.586	83.8469	225.586	83.7918	225.586	83.9299	225.586	84.1304	225.586	84.1232	225.586	84.3891	225.586	84.3349	225.586	84.5399	225.586	84.4987	225.586	84.5742
232.91	88.4561	232.91	88.1724	232.91	88.6205	232.91	87.7716	232.91	88.664	232.91	87.2574	232.91	88.5848	232.91	86.6367	232.91	88.3798	232.91	85.9213	232.91	88.0438	232.91	85.1327	232.91	87.5696	232.91	84.3092	232.91	86.9487	232.91	83.5161	232.91	86.1764	232.91	82.8516	232.91	85.2632	232.91	82.4314	232.91	84.2604	232.91	82.3365	232.91	83.2967	232.91	82.5555	232.91	82.5922	232.91	82.985	232.91	82.358	232.91	83.4877	232.91	82.6053	232.91	83.9455	232.91	83.128	232.91	84.277	232.91	83.6872	232.91	84.4325	232.91	84.1299	232.91	84.3854
241.699	88.4019	241.699	88.1189	241.699	88.5812	241.699	87.7376	241.699	88.6526	241.699	87.2639	241.699	88.613	241.699	86.7036	241.699	88.4595	241.699	86.0636	241.699	88.1881	241.699	85.3544	241.699	87.7929	241.699	84.596	241.699	87.2647	241.699	83.8264	241.699	86.5929	241.699	83.109	241.699	85.7699	241.699	82.5295	241.699	84.8022	241.699	82.171	241.699	83.7309	241.699	82.0697	241.699	82.6638	241.699	82.1863	241.699	81.7969	241.699	82.4234	241.699	81.3517	241.699	82.6682	241.699	81.4007	241.699	82.8237	241.699	81.7839	241.699	82.8214	241.699	82.2532	241.699	82.6271
250.488	88.4056	250.488	88.049	250.488	88.6397	250.488	87.5779	250.488	88.7482	250.488	87.0051	250.488	88.7307	250.488	86.3478	250.488	88.5886	250.488	85.6275	250.488	88.3227	250.488	84.8699	250.488	87.9322	250.488	84.1093	250.488	87.4153	250.488	83.3939	250.488	86.7715	250.488	82.7897	250.488	86.0067	250.488	82.3707	250.488	85.1421	250.488	82.1881	250.488	84.2242	250.488	82.2353	250.488	83.3328	250.488	82.4406	250.488	82.5785	250.488	82.6982	250.488	82.0788	250.488	82.9063	250.488	81.9069	250.488	82.9904	250.488	82.0369	250.488	82.9122	250.488	82.3453	250.488	82.6771
259.277	88.9843	259.277	88.754	259.277	89.1059	259.277	88.4119	259.277	89.1232	259.277	87.9574	259.277	89.041	259.277	87.3922	259.277	88.8623	259.277	86.7213	259.277	88.5866	259.277	85.955	259.277	88.2082	259.277	85.1157	259.277	87.7166	259.277	84.2488	259.277	87.0997	259.277	83.4346	259.277	86.3521	259.277	82.7876	259.277	85.4923	259.277	82.42	259.277	84.5858	259.277	82.3739	259.277	83.7609	259.277	82.584	259.277	83.1767	259.277	82.9194	259.277	82.9281	259.277	83.2523	259.277	82.9727	259.277	83.4947	259.277	83.1761	259.277	83.6016	259.277	83.4044	259.277	83.5642
268.066	88.1254	268.066	87.8925	268.066	88.2622	268.066	87.5687	268.066	88.3015	268.066	87.1616	268.066	88.2456	268.066	86.6787	268.066	88.0997	268.066	86.1269	268.066	87.8694	268.066	85.5127	268.066	87.5573	268.066	84.8473	268.066	87.1599	268.066	84.1556	268.066	86.6666	268.066	83.4876	268.066	86.0627	268.066	82.9234	268.066	85.3386	268.066	82.5575	268.066	84.5061	268.066	82.4513	268.066	83.6224	268.066	82.5852	268.066	82.816	268.066	82.8601	268.066	82.2754	268.066	83.1466	268.066	82.1436	268.066	83.3314	268.066	82.38	268.066	83.3396	268.066	82.7831	268.066	83.1443
276.855	88.0897	276.855	87.8269	276.855	88.2456	276.855	87.4639	276.855	88.2934	276.855	87.0112	276.855	88.2359	276.855	86.4807	276.855	88.0778	276.855	85.8825	276.855	87.8223	276.855	85.2237	276.855	87.469	276.855	84.5132	276.855	87.0142	276.855	83.7751	276.855	86.4564	276.855	83.0677	276.855	85.8055	276.855	82.4962	276.855	85.0961	276.855	82.1855	276.855	84.393	276.855	82.1993	276.855	83.7793	276.855	82.4753	276.855	83.3228	276.855	82.8625	276.855	83.0517	276.855	83.2121	276.855	82.9614	276.855	83.4283	276.855	83.027	276.855	83.4762	276.855	83.1944	276.855	83.3758
287.109	88.113	287.109	87.8696	287.109	88.2208	287.109	87.4984	287.109	88.196	287.109	87.0168	287.109	88.0507	287.109	86.449	287.109	87.8025	287.109	85.8219	287.109	87.4698	287.109	85.1607	287.109	87.066	287.109	84.4863	287.109	86.596	287.109	83.8153	287.109	86.0555	287.109	83.1662	287.109	85.4393	287.109	82.5704	287.109	84.7574	287.109	82.0836	287.109	84.0573	287.109	81.7823	287.109	83.4342	287.109	81.7276	287.109	82.9982	287.109	81.9112	287.109	82.802	287.109	82.2407	287.109	82.8007	287.109	82.5875	287.109	82.8919	287.109	82.8487	287.109	82.9754	287.109	82.9762
297.363	88.4894	297.363	88.1709	297.363	88.6615	297.363	87.722	297.363	88.6796	297.363	87.1647	297.363	88.5441	297.363	86.5241	297.363	88.2628	297.363	85.8251	297.363	87.8488	297.363	85.0935	297.363	87.32	297.363	84.3624	297.363	86.6969	297.363	83.6804	297.363	86.0036	297.363	83.1144	297.363	85.2731	297.363	82.7393	297.363	84.5593	297.363	82.6111	297.363	83.9497	297.363	82.7408	297.363	83.5582	297.363	83.0858	297.363	83.4715	297.363	83.5624	297.363	83.6792	297.363	84.0693	297.363	84.0649	297.363	84.5079	297.363	84.4732	297.363	84.7992	297.363	84.7751	297.363	84.8931
307.617	89.4046	307.617	89.0844	307.617	89.5684	307.617	88.6127	307.617	89.577	307.617	88.0001	307.617	89.4364	307.617	87.2605	307.617	89.1538	307.617	86.4085	307.617	88.7329	307.617	85.4594	307.617	88.1697	307.617	84.4348	307.617	87.4487	307.617	83.377	307.617	86.5435	307.617	82.3711	307.617	85.4258	307.617	81.5638	307.617	84.0942	307.617	81.1376	307.617	82.6475	307.617	81.2038	307.617	81.4084	307.617	81.696	307.617	80.897	307.617	82.4099	307.617	81.2996	307.617	83.1299	307.617	82.1876	307.617	83.6983	307.617	83.0728	307.617	84.0172	307.617	83.7131	307.617	84.0307
319.336	88.8546	319.336	88.6033	319.336	88.9654	319.336	88.2197	319.336	88.9385	319.336	87.7219	319.336	88.7852	319.336	87.1321	319.336	88.5204	319.336	86.4688	319.336	88.1568	319.336	85.7432	319.336	87.7002	319.336	84.9642	319.336	87.1458	319.336	84.1511	319.336	86.4778	319.336	83.3476	319.336	85.673	319.336	82.6284	319.336	84.7099	319.336	82.0886	319.336	83.5871	319.336	81.814	319.336	82.3686	319.336	81.8403	319.336	81.2727	319.336	82.1211	319.336	80.7076	319.336	82.5295	319.336	80.9387	319.336	82.8992	319.336	81.6856	319.336	83.0734	319.336	82.4502	319.336	82.9386
329.59	88.9571	329.59	88.7426	329.59	89.0325	329.59	88.3942	329.59	88.974	329.59	87.9252	329.59	88.7955	329.59	87.3503	329.59	88.5136	329.59	86.6764	329.59	88.1409	329.59	85.9005	329.59	87.6782	329.59	85.0187	329.59	87.1094	329.59	84.049	329.59	86.4038	329.59	83.0654	329.59	85.5275	329.59	82.2244	329.59	84.4694	329.59	81.7308	329.59	83.2854	329.59	81.704	329.59	82.1593	329.59	82.0682	329.59	81.4146	329.59	82.6232	329.59	81.3225	329.59	83.176	329.59	81.8154	329.59	83.5881	329.59	82.5547	329.59	83.765	329.59	83.2245	329.59	83.6482
341.309	88.5504	341.309	88.3638	341.309	88.5759	341.309	88.0349	341.309	88.4423	341.309	87.5983	341.309	88.1716	341.309	87.0919	341.309	87.8006	341.309	86.5402	341.309	87.3704	341.309	85.9429	341.309	86.9121	341.309	85.2809	341.309	86.431	341.309	84.5382	341.309	85.8995	341.309	83.734	341.309	85.2628	341.309	82.9536	341.309	84.46	341.309	82.3613	341.309	83.4589	341.309	82.1449	341.309	82.3222	341.309	82.3766	341.309	81.3211	341.309	82.9293	341.309	80.9543	341.309	83.565	341.309	81.481	341.309	84.0633	341.309	82.5026	341.309	84.267	341.309	83.4655	341.309	84.0788
353.027	88.3026	353.027	88.0292	353.027	88.3599	353.027	87.5658	353.027	88.1996	353.027	86.9656	353.027	87.8397	353.027	86.3028	353.027	87.3157	353.027	85.6464	353.027	86.6767	353.027	85.0244	353.027	85.9793	353.027	84.4074	353.027	85.2734	353.027	83.734	353.027	84.5826	353.027	82.9624	353.027	83.8874	353.027	82.1315	353.027	83.1253	353.027	81.4336	353.027	82.2158	353.027	81.2141	353.027	81.1297	353.027	81.6923	353.027	80.0623	353.027	82.6468	353.027	79.6549	353.027	83.6381	353.027	80.4713	353.027	84.3412	353.027	81.9912	353.027	84.5827	353.027	83.3839	353.027	84.2739
366.211	88.5578	366.211	88.3377	366.211	88.5756	366.211	87.9356	366.211	88.3874	366.211	87.3879	366.211	88.0071	366.211	86.7439	366.211	87.4689	366.211	86.0577	366.211	86.8292	366.211	85.3727	366.211	86.1601	366.211	84.7019	366.211	85.5293	366.211	84.0173	366.211	84.9658	366.211	83.2582	366.211	84.4308	366.211	82.3685	366.211	83.8162	366.211	81.3816	366.211	82.9701	366.211	80.5658	366.211	81.739	366.211	80.4308	366.211	80.082	366.211	81.1574	366.211	78.5013	366.211	82.2403	366.211	78.4692	366.211	83.0997	366.211	80.1489	366.211	83.4217	366.211	81.933	366.211	83.0567
379.395	88.737	379.395	88.4892	379.395	88.7553	379.395	88.0267	379.395	88.5505	379.395	87.3833	379.395	88.1491	379.395	86.608	379.395	87.593	379.395	85.7591	379.395	86.9293	379.395	84.8983	379.395	86.1957	379.395	84.0843	379.395	85.4094	379.395	83.3608	379.395	84.5634	379.395	82.7341	379.395	83.6323	379.395	82.1598	379.395	82.5878	379.395	81.5749	379.395	81.4275	379.395	80.9947	379.395	80.2258	379.395	80.6145	379.395	79.204	379.395	80.7168	379.395	78.7486	379.395	81.287	379.395	79.1489	379.395	81.9293	379.395	80.1811	379.395	82.2449	379.395	81.2855	379.395	82.0342
392.578	87.627	392.578	87.4201	392.578	87.6104	392.578	87.0294	392.578	87.3686	392.578	86.5257	392.578	86.9361	392.578	85.9863	392.578	86.3777	392.578	85.4528	392.578	85.7758	392.578	84.9011	392.578	85.2064	392.578	84.2535	392.578	84.7067	392.578	83.4212	392.578	84.2481	392.578	82.3454	392.578	83.7325	392.578	81.041	392.578	83.0076	392.578	79.684	392.578	81.8829	392.578	78.7384	392.578	80.1477	392.578	78.7806	392.578	77.738	392.578	79.769	392.578	75.81	392.578	81.0572	392.578	77.0194	392.578	82.1105	392.578	79.635	392.578	82.6505	392.578	81.5478	392.578	82.5116
405.762	87.9776	405.762	87.5857	405.762	87.9716	405.762	86.8144	405.762	87.586	405.762	85.7479	405.762	86.8635	405.762	84.5849	405.762	85.8651	405.762	83.6456	405.762	84.6681	405.762	83.1853	405.762	83.3911	405.762	83.1308	405.762	82.2586	405.762	83.165	405.762	81.6106	405.762	82.9924	405.762	81.6155	405.762	82.4158	405.762	81.963	405.762	81.2986	405.762	82.108	405.762	79.5966	405.762	81.5686	405.762	77.7287	405.762	79.8613	405.762	77.2628	405.762	76.1707	405.762	78.767	405.762	69.7565	405.762	80.4204	405.762	73.4321	405.762	81.1614	405.762	78.3899	405.762	80.6284
420.41	88.9204	420.41	88.6645	420.41	88.8519	420.41	88.0483	420.41	88.5105	420.41	87.0618	420.41	87.9515	420.41	85.7422	420.41	87.2157	420.41	84.2219	420.41	86.3118	420.41	82.7877	420.41	85.21	420.41	81.8205	420.41	83.8609	420.41	81.4716	420.41	82.2588	420.41	81.4783	420.41	80.6053	420.41	81.4478	420.41	79.5201	420.41	81.1	420.41	79.5332	420.41	80.2964	420.41	80.0804	420.41	79.094	420.41	80.2196	420.41	77.9432	420.41	79.4069	420.41	77.5616	420.41	77.4652	420.41	77.8254	420.41	75.158	420.41	77.7783	420.41	75.1144	420.41	76.777
435.059	88.3179	435.059	88.315	435.059	88.0377	435.059	87.9868	435.059	87.5379	435.059	87.3109	435.059	86.8962	435.059	86.2847	435.059	86.1858	435.059	84.9394	435.059	85.453	435.059	83.3888	435.059	84.7035	435.059	81.9151	435.059	83.9026	435.059	80.9534	435.059	82.9899	435.059	80.7022	435.059	81.9172	435.059	80.8172	435.059	80.7273	435.059	80.7974	435.059	79.66	435.059	80.3444	435.059	79.057	435.059	79.4126	435.059	78.8659	435.059	78.2663	435.059	78.5602	435.059	77.4657	435.059	77.7491	435.059	77.2461	435.059	76.6586	435.059	77.1012	435.059	76.1874	435.059	76.616
451.172	88.2647	451.172	88.0333	451.172	88.1906	451.172	87.4964	451.172	87.8228	451.172	86.6705	451.172	87.1832	451.172	85.5943	451.172	86.3025	451.172	84.3298	451.172	85.2133	451.172	82.9627	451.172	83.9458	451.172	81.6201	451.172	82.5486	451.172	80.5071	451.172	81.1612	451.172	79.8666	451.172	80.0736	451.172	79.7576	451.172	79.5297	451.172	79.9304	451.172	79.3515	451.172	80.0822	451.172	79.0802	451.172	80.1516	451.172	78.4878	451.172	80.3589	451.172	77.9592	451.172	80.9025	451.172	78.3768	451.172	81.5935	451.172	79.735	451.172	82.0228	451.172	81.0941	451.172	81.8936
465.82	88.8642	465.82	88.7441	465.82	88.6552	465.82	88.2855	465.82	88.1668	465.82	87.5103	465.82	87.4846	465.82	86.4623	465.82	86.6971	465.82	85.1983	465.82	85.8404	465.82	83.7829	465.82	84.8639	465.82	82.299	465.82	83.6506	465.82	80.8918	465.82	82.081	465.82	79.803	465.82	80.1501	465.82	79.2269	465.82	78.2352	465.82	79.0237	465.82	77.2034	465.82	78.8103	465.82	77.1461	465.82	78.3872	465.82	76.8813	465.82	77.9944	465.82	75.4222	465.82	78.0813	465.82	72.6765	465.82	78.5285	465.82	72.207	465.82	78.6255	465.82	75.3894	465.82	77.7229
483.398	88.1715	483.398	88.0916	483.398	87.897	483.398	87.6246	483.398	87.3535	483.398	86.8031	483.398	86.6541	483.398	85.7332	483.398	85.8959	483.398	84.5936	483.398	85.1255	483.398	83.5813	483.398	84.33	483.398	82.7966	483.398	83.4474	483.398	82.1735	483.398	82.3891	483.398	81.54	483.398	81.1004	483.398	80.7149	483.398	79.6844	483.398	79.5664	483.398	78.4905	483.398	78.1166	483.398	77.7361	483.398	76.8469	483.398	76.886	483.398	76.7313	483.398	74.9246	483.398	77.7202	483.398	70.901	483.398	78.6257	483.398	69.1842	483.398	78.6506	483.398	74.168	483.398	77.3491
499.512	87.6973	499.512	87.6955	499.512	87.3729	499.512	87.2833	499.512	86.8375	499.512	86.4268	499.512	86.2085	499.512	85.1649	499.512	85.5725	499.512	83.6518	499.512	84.9583	499.512	82.2122	499.512	84.3182	499.512	81.2819	499.512	83.5315	499.512	81.0664	499.512	82.4453	499.512	81.3052	499.512	80.9613	499.512	81.5426	499.512	79.2497	499.512	81.4108	499.512	78.1618	499.512	80.6815	499.512	78.5659	499.512	79.2849	499.512	79.5601	499.512	77.4763	499.512	79.8896	499.512	76.084	499.512	79.0223	499.512	75.6435	499.512	76.914	499.512	75.2728	499.512	74.6113	499.512	74.4011
517.09	88.4576	517.09	88.5938	517.09	87.9815	517.09	88.3226	517.09	87.2713	517.09	87.6045	517.09	86.4768	517.09	86.4335	517.09	85.7581	517.09	84.8725	517.09	85.2092	517.09	83.123	517.09	84.7978	517.09	81.5612	517.09	84.369	517.09	80.523	517.09	83.6969	517.09	79.9734	517.09	82.5395	517.09	79.6937	517.09	80.6867	517.09	79.6741	517.09	78.1496	517.09	80.0514	517.09	75.9804	517.09	80.7822	517.09	75.9786	517.09	81.6141	517.09	76.8932	517.09	82.2838	517.09	77.3947	517.09	82.5726	517.09	78.101	517.09	82.2795	517.09	79.6366	517.09	81.2634
536.133	88.2431	536.133	88.4601	536.133	87.6519	536.133	88.2503	536.133	86.7515	536.133	87.5727	536.133	85.6081	536.133	86.3868	536.133	84.2953	536.133	84.653	536.133	82.9406	536.133	82.4008	536.133	81.7969	536.133	80.0285	536.133	81.2161	536.133	78.7684	536.133	81.2933	536.133	79.2522	536.133	81.5632	536.133	80.1179	536.133	81.3774	536.133	80.2778	536.133	80.3147	536.133	79.3708	536.133	78.46	536.133	77.4658	536.133	77.1075	536.133	75.8675	536.133	77.2986	536.133	76.6525	536.133	77.2576	536.133	78.0554	536.133	75.9121	536.133	78.1677	536.133	75.014	536.133	76.6901
555.176	88.082	555.176	88.3738	555.176	87.4973	555.176	88.3254	555.176	86.6818	555.176	87.9125	555.176	85.728	555.176	87.1374	555.176	84.7605	555.176	86.0166	555.176	83.8326	555.176	84.5617	555.176	82.8032	555.176	82.7812	555.176	81.4472	555.176	80.7527	555.176	79.8137	555.176	78.8332	555.176	78.6403	555.176	77.7063	555.176	78.614	555.176	77.4434	555.176	78.8652	555.176	77.1898	555.176	78.3019	555.176	76.4661	555.176	76.6938	555.176	76.0107	555.176	74.9281	555.176	76.9882	555.176	74.4071	555.176	78.4104	555.176	74.9806	555.176	78.9001	555.176	76.4267	555.176	78.1037
574.219	87.8719	574.219	88.1256	574.219	87.3232	574.219	88.006	574.219	86.6113	574.219	87.4597	574.219	85.9103	574.219	86.4536	574.219	85.3183	574.219	85.0079	574.219	84.7499	574.219	83.2725	574.219	84.0134	574.219	81.6085	574.219	82.9578	574.219	80.4456	574.219	81.5477	574.219	79.8427	574.219	79.9114	574.219	79.4813	574.219	78.3287	574.219	79.1022	574.219	77.0498	574.219	78.6097	574.219	76.3997	574.219	78.0245	574.219	76.797	574.219	77.642	574.219	77.5317	574.219	77.857	574.219	77.4603	574.219	78.3375	574.219	76.5039	574.219	78.2675	574.219	76.1633	574.219	77.2847
594.727	87.275	594.727	87.6503	594.727	86.6226	594.727	87.7052	594.727	85.813	594.727	87.419	594.727	85.0321	594.727	86.7555	594.727	84.4032	594.727	85.6625	594.727	83.8762	594.727	84.1052	594.727	83.299	594.727	82.1658	594.727	82.5517	594.727	80.3284	594.727	81.6054	594.727	79.593	594.727	80.4747	594.727	80.0173	594.727	79.026	594.727	80.3624	594.727	76.8629	594.727	79.8007	594.727	74.1387	594.727	78.212	594.727	73.8699	594.727	76.5819	594.727	75.58	594.727	76.9916	594.727	75.6244	594.727	78.4206	594.727	73.9059	594.727	78.7881	594.727	74.5026	594.727	77.3825
615.234	87.7896	615.234	88.0397	615.234	87.1658	615.234	87.88	615.234	86.3311	615.234	87.358	615.234	85.5009	615.234	86.5205	615.234	84.7537	615.234	85.3499	615.234	83.9618	615.234	83.7746	615.234	82.9309	615.234	81.7592	615.234	81.575	615.234	79.5217	615.234	80.1733	615.234	77.9069	615.234	79.4786	615.234	77.6722	615.234	79.5577	615.234	77.9348	615.234	79.3514	615.234	77.546	615.234	77.9882	615.234	76.0936	615.234	74.9289	615.234	74.3684	615.234	70.2494	615.234	75.0628	615.234	69.6309	615.234	77.1013	615.234	72.8537	615.234	77.9456	615.234	75.3576	615.234	77.2168
637.207	87.8288	637.207	88.1526	637.207	87.2488	637.207	88.0652	637.207	86.6551	637.207	87.5457	637.207	86.2236	637.207	86.6753	637.207	85.9476	637.207	85.5749	637.207	85.6653	637.207	84.3385	637.207	85.1132	637.207	83.0081	637.207	83.9866	637.207	81.6282	637.207	82.0856	637.207	80.3956	637.207	79.7426	637.207	79.708	637.207	78.4114	637.207	79.5208	637.207	78.5556	637.207	78.9655	637.207	78.6554	637.207	77.1169	637.207	78.3097	637.207	73.4391	637.207	77.9155	637.207	71.0391	637.207	77.1828	637.207	73.8661	637.207	75.5608	637.207	75.3483	637.207	74.0825	637.207	74.7268
659.18	87.8922	659.18	88.3839	659.18	87.159	659.18	88.4736	659.18	86.4451	659.18	88.1207	659.18	85.9751	659.18	87.3461	659.18	85.7796	659.18	86.1875	659.18	85.661	659.18	84.7203	659.18	85.316	659.18	83.0977	659.18	84.4722	659.18	81.5147	659.18	82.9446	659.18	80.1536	659.18	80.6659	659.18	79.3953	659.18	77.813	659.18	79.5574	659.18	75.3247	659.18	79.9234	659.18	75.2154	659.18	79.4572	659.18	76.7031	659.18	77.6699	659.18	77.0426	659.18	75.6503	659.18	75.0766	659.18	76.4816	659.18	72.7536	659.18	78.0318	659.18	75.4944	659.18	77.8678
682.617	88.1895	682.617	88.537	682.617	87.3587	682.617	88.2883	682.617	86.4778	682.617	87.5194	682.617	86.108	682.617	86.3907	682.617	86.2421	682.617	85.0637	682.617	86.3586	682.617	83.648	682.617	86.0689	682.617	82.2421	682.617	85.2213	682.617	80.9911	682.617	83.7833	682.617	80.0099	682.617	81.9266	682.617	79.4886	682.617	80.2596	682.617	79.8192	682.617	79.1589	682.617	80.5721	682.617	77.643	682.617	80.6038	682.617	74.5069	682.617	79.1401	682.617	71.6809	682.617	76.124	682.617	72.653	682.617	74.6405	682.617	72.4522	682.617	75.9726	682.617	73.0518	682.617	75.5541
707.52	87.7169	707.52	88.3453	707.52	87.2333	707.52	88.6527	707.52	87.0222	707.52	88.3028	707.52	86.889	707.52	87.2625	707.52	86.7194	707.52	85.7433	707.52	86.489	707.52	84.0764	707.52	86.0916	707.52	82.4425	707.52	85.3028	707.52	80.6931	707.52	83.8741	707.52	78.7544	707.52	81.731	707.52	77.3373	707.52	79.4574	707.52	77.4899	707.52	78.2674	707.52	78.7859	707.52	77.9772	707.52	79.8915	707.52	78.2514	707.52	79.8644	707.52	79.0611	707.52	78.7682	707.52	78.9364	707.52	77.753	707.52	76.5633	707.52	76.4669	707.52	71.7405	707.52	72.9673
732.422	87.9282	732.422	88.7123	732.422	87.0601	732.422	89.0528	732.422	86.6396	732.422	88.8768	732.422	86.6826	732.422	88.238	732.422	86.7726	732.422	87.205	732.422	86.7114	732.422	85.7528	732.422	86.418	732.422	83.7946	732.422	85.6698	732.422	81.6444	732.422	84.1485	732.422	80.3547	732.422	81.7316	732.422	79.8007	732.422	78.8512	732.422	78.8722	732.422	75.894	732.422	77.9654	732.422	72.5503	732.422	77.342	732.422	73.1024	732.422	76.1473	732.422	76.0361	732.422	74.8764	732.422	76.3654	732.422	75.8341	732.422	73.6966	732.422	77.4227	732.422	73.0122	732.422	76.6055
757.324	87.8091	757.324	88.5988	757.324	87.1006	757.324	88.7397	757.324	86.9836	757.324	88.0377	757.324	86.9602	757.324	86.6927	757.324	86.6131	757.324	85.1314	757.324	86.1479	757.324	83.7449	757.324	85.8578	757.324	82.3498	757.324	85.5703	757.324	80.3726	757.324	84.7528	757.324	78.4868	757.324	83.1173	757.324	78.7264	757.324	81.0303	757.324	79.3163	757.324	78.9899	757.324	78.922	757.324	76.6115	757.324	78.3625	757.324	73.451	757.324	77.9236	757.324	71.136	757.324	76.958	757.324	72.9004	757.324	76.7541	757.324	72.9181	757.324	77.623	757.324	72.4254	757.324	76.2641
785.156	87.6013	785.156	89.2258	785.156	87.5063	785.156	90.0855	785.156	88.4926	785.156	89.5043	785.156	88.341	785.156	87.5881	785.156	87.0254	785.156	84.9883	785.156	85.8369	785.156	83.4968	785.156	85.8629	785.156	83.3252	785.156	86.4145	785.156	82.4731	785.156	86.1594	785.156	79.9443	785.156	84.541	785.156	75.2309	785.156	81.9989	785.156	68.8518	785.156	79.4634	785.156	68.7419	785.156	75.9888	785.156	74.5241	785.156	69.4299	785.156	77.769	785.156	75.255	785.156	78.6779	785.156	79.6863	785.156	79.1519	785.156	79.8078	785.156	77.6266	785.156	74.5735	785.156	68.5314
811.523	89.1293	811.523	87.2234	811.523	90.0274	811.523	88.0689	811.523	88.9889	811.523	89.8077	811.523	87.7817	811.523	89.8853	811.523	87.973	811.523	87.9604	811.523	87.94	811.523	83.9833	811.523	87.2881	811.523	79.1602	811.523	86.5661	811.523	77.0651	811.523	85.4819	811.523	77.8372	811.523	83.4831	811.523	80.8189	811.523	80.9913	811.523	82.5993	811.523	79.6423	811.523	81.6451	811.523	77.401	811.523	79.2463	811.523	72.7565	811.523	75.1502	811.523	77.5524	811.523	63.9239	811.523	76.9742	811.523	61.2666	811.523	64.1302	811.523	73.6661	811.523	74.7604	811.523	77.6439
840.82	89.2731	840.82	89.7909	840.82	87.8286	840.82	88.4723	840.82	88.3277	840.82	86.763	840.82	89.2161	840.82	86.817	840.82	88.3991	840.82	87.1243	840.82	86.3424	840.82	86.1833	840.82	84.7842	840.82	83.8435	840.82	84.6071	840.82	80.0635	840.82	84.6474	840.82	74.2977	840.82	83.5553	840.82	67.1947	840.82	81.1644	840.82	69.9247	840.82	81.1783	840.82	75.1303	840.82	83.3937	840.82	79.0297	840.82	82.6989	840.82	81.7039	840.82	75.5064	840.82	82.9223	840.82	70.8527	840.82	82.258	840.82	78.0059	840.82	79.8559	840.82	73.4484	840.82	70.2162
870.117	88.0711	870.117	87.8431	870.117	89.4758	870.117	88.4362	870.117	90.2023	870.117	88.1242	870.117	89.6081	870.117	86.7589	870.117	88.0165	870.117	84.8217	870.117	86.2721	870.117	82.4119	870.117	84.8143	870.117	80.8399	870.117	83.9861	870.117	82.0303	870.117	84.885	870.117	82.3025	870.117	86.0208	870.117	80.9286	870.117	85.56	870.117	82.1543	870.117	82.4221	870.117	82.6985	870.117	73.5198	870.117	79.919	870.117	69.817	870.117	74.8955	870.117	78.335	870.117	69.9214	870.117	79.1865	870.117	69.0734	870.117	73.378	870.117	73.9217	870.117	70.7441	870.117	75.9332
900.879	88.114	900.879	88.8011	900.879	88.4196	900.879	88.0416	900.879	90.1435	900.879	86.1878	900.879	90.584	900.879	85.549	900.879	89.2358	900.879	86.1982	900.879	86.8924	900.879	86.2494	900.879	84.5994	900.879	84.8411	900.879	82.2544	900.879	81.1879	900.879	79.0549	900.879	74.286	900.879	76.633	900.879	66.9097	900.879	78.3042	900.879	64.6901	900.879	81.0153	900.879	67.5686	900.879	82.8279	900.879	75.2227	900.879	81.9532	900.879	78.8437	900.879	74.6628	900.879	78.7857	900.879	70.9642	900.879	79.4221	900.879	78.1198	900.879	77.7583	900.879	75.4667	900.879	66.2939
933.105	88.2655	933.105	87.5242	933.105	89.3367	933.105	87.3256	933.105	90.0212	933.105	86.94	933.105	89.7709	933.105	85.7015	933.105	88.4452	933.105	83.7735	933.105	86.496	933.105	82.6079	933.105	84.8123	933.105	82.9873	933.105	83.8681	933.105	83.3218	933.105	83.0572	933.105	82.4776	933.105	81.3998	933.105	80.5248	933.105	78.3944	933.105	78.4246	933.105	72.6896	933.105	78.2526	933.105	70.2565	933.105	80.6959	933.105	78.5021	933.105	80.2897	933.105	79.743	933.105	74.4447	933.105	77.1127	933.105	73.023	933.105	76.3105	933.105	74.6061	933.105	74.5709	933.105	72.5511
965.332	88.7841	965.332	87.6166	965.332	89.5237	965.332	86.965	965.332	89.4818	965.332	86.9419	965.332	89.044	965.332	86.7986	965.332	88.3767	965.332	85.8619	965.332	87.0806	965.332	83.424	965.332	84.9588	965.332	79.2213	965.332	82.0001	965.332	75.8885	965.332	78.6153	965.332	75.1556	965.332	76.5477	965.332	76.1936	965.332	75.9447	965.332	76.5331	965.332	75.276	965.332	74.6767	965.332	75.778	965.332	73.5415	965.332	73.2609	965.332	75.6229	965.332	68.135	965.332	74.3229	965.332	74.334	965.332	71.4513	965.332	75.1159	965.332	71.613	965.332	73.5856	965.332	68.3675
1,000.49	88.1823	1,000.49	87.3925	1,000.49	89.6174	1,000.49	86.7313	1,000.49	90.5365	1,000.49	85.7831	1,000.49	89.6332	1,000.49	84.633	1,000.49	87.0894	1,000.49	84.0811	1,000.49	84.8856	1,000.49	84.5711	1,000.49	83.5191	1,000.49	84.2757	1,000.49	82.1571	1,000.49	82.2796	1,000.49	80.8856	1,000.49	78.1394	1,000.49	79.1825	1,000.49	70.0596	1,000.49	75.42	1,000.49	71.2231	1,000.49	64.9024	1,000.49	73.1504	1,000.49	72.2802	1,000.49	74.798	1,000.49	76.9929	1,000.49	77.5071	1,000.49	74.4932	1,000.49	76.5921	1,000.49	71.008	1,000.49	70.5966	1,000.49	77.0357	1,000.49	68.4761	1,000.49	73.8988	1,000.49	62.747
1,035.64	87.7438	1,035.64	86.8969	1,035.64	89.0143	1,035.64	86.2026	1,035.64	89.6663	1,035.64	85.4581	1,035.64	88.7194	1,035.64	85.1581	1,035.64	86.2624	1,035.64	85.0679	1,035.64	83.2943	1,035.64	84.2252	1,035.64	81.1289	1,035.64	82.6587	1,035.64	80.5392	1,035.64	80.5851	1,035.64	80.3873	1,035.64	77.6986	1,035.64	78.7839	1,035.64	74.4649	1,035.64	77.0302	1,035.64	72.1127	1,035.64	75.5256	1,035.64	70.2336	1,035.64	65.5285	1,035.64	68.7923	1,035.64	68.2663	1,035.64	74.8285	1,035.64	69.2159	1,035.64	77.1428	1,035.64	66.7117	1,035.64	76.2994	1,035.64	73.9594	1,035.64	73.388	1,035.64	75.6713	1,035.64	60.8713
1,072.27	86.9196	1,072.27	86.0046	1,072.27	89.2772	1,072.27	86.1368	1,072.27	89.6467	1,072.27	84.8442	1,072.27	87.9443	1,072.27	82.8811	1,072.27	86.4064	1,072.27	81.3007	1,072.27	84.7958	1,072.27	81.6266	1,072.27	81.7362	1,072.27	83.4607	1,072.27	78.2587	1,072.27	83.2165	1,072.27	76.3133	1,072.27	80.2316	1,072.27	75.6519	1,072.27	76.8895	1,072.27	74.6081	1,072.27	75.1385	1,072.27	73.44	1,072.27	74.2393	1,072.27	67.498	1,072.27	76.4304	1,072.27	68.4086	1,072.27	77.9609	1,072.27	74.3779	1,072.27	74.7275	1,072.27	70.9782	1,072.27	56.9278	1,072.27	67.6124	1,072.27	65.0434	1,072.27	70.4554	1,072.27	71.9141
1,108.89	87.5081	1,108.89	85.2917	1,108.89	88.6715	1,108.89	83.7184	1,108.89	88.5182	1,108.89	83.5908	1,108.89	86.9483	1,108.89	82.9108	1,108.89	83.8559	1,108.89	82.254	1,108.89	79.4166	1,108.89	81.9806	1,108.89	75.122	1,108.89	81.4021	1,108.89	74.276	1,108.89	81.0407	1,108.89	75.3301	1,108.89	79.5287	1,108.89	74.4879	1,108.89	77.5281	1,108.89	69.4014	1,108.89	79.3199	1,108.89	69.5901	1,108.89	79.0297	1,108.89	72.7371	1,108.89	75.4406	1,108.89	69.8043	1,108.89	74.8887	1,108.89	56.6419	1,108.89	71.3707	1,108.89	69.7834	1,108.89	67.9967	1,108.89	73.1858	1,108.89	68.277	1,108.89	70.4124	1,108.89	66.6063
1,148.44	87.4886	1,148.44	84.1801	1,148.44	89.118	1,148.44	83.4347	1,148.44	88.1391	1,148.44	83.3203	1,148.44	85.9855	1,148.44	81.6031	1,148.44	83.7215	1,148.44	80.1908	1,148.44	78.3567	1,148.44	80.2953	1,148.44	71.6071	1,148.44	80.6814	1,148.44	72.831	1,148.44	79.706	1,148.44	75.4193	1,148.44	77.8579	1,148.44	75.5271	1,148.44	77.0668	1,148.44	74.3866	1,148.44	76.7258	1,148.44	73.9227	1,148.44	75.5336	1,148.44	70.1859	1,148.44	72.448	1,148.44	57.164	1,148.44	72.9994	1,148.44	67.0027	1,148.44	73.6163	1,148.44	44.3299	1,148.44	68.4818	1,148.44	70.9642	1,148.44	61.4294	1,148.44	71.5708	1,148.44	62.9653
1,189.45	87.6906	1,189.45	85.2059	1,189.45	88.6014	1,189.45	82.143	1,189.45	87.5646	1,189.45	80.4965	1,189.45	84.2146	1,189.45	81.841	1,189.45	79.5337	1,189.45	82.7772	1,189.45	78.7837	1,189.45	81.2223	1,189.45	76.1798	1,189.45	77.3186	1,189.45	72.2158	1,189.45	72.2687	1,189.45	74.0915	1,189.45	66.2635	1,189.45	75.4689	1,189.45	64.3156	1,189.45	73.4213	1,189.45	72.5087	1,189.45	69.7237	1,189.45	74.3378	1,189.45	70.9917	1,189.45	72.0892	1,189.45	67.6505	1,189.45	71.6131	1,189.45	59.4251	1,189.45	69.2403	1,189.45	44.8101	1,189.45	65.5245	1,189.45	67.365	1,189.45	62.592	1,189.45	68.7717	1,189.45	60.349
1,230.47	87.3382	1,230.47	85.2999	1,230.47	88.056	1,230.47	82.2228	1,230.47	86.5718	1,230.47	78.6439	1,230.47	82.9482	1,230.47	80.4886	1,230.47	79.798	1,230.47	81.7538	1,230.47	77.1189	1,230.47	80.2935	1,230.47	76.3689	1,230.47	79.5245	1,230.47	74.1199	1,230.47	79.2925	1,230.47	74.1531	1,230.47	76.6965	1,230.47	77.0153	1,230.47	70.1673	1,230.47	77.4172	1,230.47	72.9442	1,230.47	73.7047	1,230.47	78.6833	1,230.47	64.83	1,230.47	76.1044	1,230.47	67.3688	1,230.47	73.2158	1,230.47	56.1569	1,230.47	73.1285	1,230.47	62.0252	1,230.47	67.1236	1,230.47	70.3078	1,230.47	58.3465	1,230.47	68.7348	1,230.47	58.458
1,274.41	87.2609	1,274.41	84.5792	1,274.41	87.2478	1,274.41	79.6151	1,274.41	84.6096	1,274.41	75.5532	1,274.41	80.6714	1,274.41	75.5993	1,274.41	77.7569	1,274.41	79.2313	1,274.41	78.6389	1,274.41	81.2775	1,274.41	80.9693	1,274.41	80.1369	1,274.41	79.6699	1,274.41	78.1946	1,274.41	73.7119	1,274.41	79	1,274.41	76.8575	1,274.41	78.8836	1,274.41	78.8387	1,274.41	73.3154	1,274.41	76.7934	1,274.41	75.3858	1,274.41	69.041	1,274.41	74.6887	1,274.41	65.0318	1,274.41	66.3449	1,274.41	65.9029	1,274.41	70.7395	1,274.41	66.1336	1,274.41	70.0693	1,274.41	62.032	1,274.41	64.998	1,274.41	68.4421	1,274.41	68.7146
1,319.82	86.8985	1,319.82	84.3509	1,319.82	86.4774	1,319.82	77.8229	1,319.82	83.5655	1,319.82	68.2107	1,319.82	75.7206	1,319.82	75.0159	1,319.82	74.9548	1,319.82	78.0357	1,319.82	80.3201	1,319.82	78.2526	1,319.82	80.649	1,319.82	77.1375	1,319.82	78.4231	1,319.82	75.1471	1,319.82	74.2828	1,319.82	74.0616	1,319.82	75.8753	1,319.82	74.3681	1,319.82	78.0307	1,319.82	73.169	1,319.82	76.7796	1,319.82	72.9859	1,319.82	71.1888	1,319.82	74.1868	1,319.82	70.629	1,319.82	71.9689	1,319.82	64.9203	1,319.82	67.8942	1,319.82	66.7882	1,319.82	67.4427	1,319.82	62.3358	1,319.82	60.3829	1,319.82	67.2434	1,319.82	65.913
1,366.7	86.3247	1,366.7	84.0481	1,366.7	85.5271	1,366.7	79.6155	1,366.7	79.8916	1,366.7	69.5987	1,366.7	67.2139	1,366.7	72.6949	1,366.7	74.331	1,366.7	79.3627	1,366.7	80.1211	1,366.7	79.6868	1,366.7	82.6668	1,366.7	78.2288	1,366.7	80.2976	1,366.7	77.1474	1,366.7	72.0306	1,366.7	78.4114	1,366.7	69.248	1,366.7	76.865	1,366.7	71.8079	1,366.7	71.3862	1,366.7	71.5899	1,366.7	72.3547	1,366.7	73.8239	1,366.7	69.5329	1,366.7	73.6134	1,366.7	69.3061	1,366.7	66.9003	1,366.7	64.3402	1,366.7	69.5496	1,366.7	65.1665	1,366.7	66.7257	1,366.7	64.6951	1,366.7	69.2897	1,366.7	65.7444
1,413.57	86.4931	1,413.57	84.4356	1,413.57	85.0145	1,413.57	79.4686	1,413.57	78.266	1,413.57	69.7968	1,413.57	66.7247	1,413.57	74.1611	1,413.57	79.0528	1,413.57	77.7607	1,413.57	80.7565	1,413.57	75.5611	1,413.57	80.9426	1,413.57	73.7714	1,413.57	80.3299	1,413.57	75.4294	1,413.57	75.8066	1,413.57	78.4923	1,413.57	65.4146	1,413.57	78.5579	1,413.57	67.8863	1,413.57	75.295	1,413.57	69.3379	1,413.57	72.8763	1,413.57	74.3104	1,413.57	72.4873	1,413.57	73.553	1,413.57	73.553	1,413.57	63.1525	1,413.57	70.7112	1,413.57	71.09	1,413.57	63.9925	1,413.57	61.2981	1,413.57	60.6548	1,413.57	69.9393	1,413.57	68.1411
1,463.38	86.8392	1,463.38	86.4256	1,463.38	84.0804	1,463.38	81.9727	1,463.38	77.6206	1,463.38	72.8762	1,463.38	73.2283	1,463.38	70.6698	1,463.38	81.9742	1,463.38	75.1123	1,463.38	83.454	1,463.38	77.3231	1,463.38	81.9452	1,463.38	78.3471	1,463.38	78.3831	1,463.38	78.3636	1,463.38	74.5253	1,463.38	74.0638	1,463.38	68.3109	1,463.38	74.2205	1,463.38	70.4305	1,463.38	74.4317	1,463.38	74.2283	1,463.38	71.3966	1,463.38	69.3492	1,463.38	66.75	1,463.38	71.9276	1,463.38	68.3637	1,463.38	66.7598	1,463.38	70.2467	1,463.38	63.9963	1,463.38	67.5218	1,463.38	59.4337	1,463.38	63.3416	1,463.38	64.8161	1,463.38	67.1496
1,516.11	87.4571	1,516.11	87.1266	1,516.11	84.8064	1,516.11	84.0915	1,516.11	76.8939	1,516.11	78.0783	1,516.11	76.257	1,516.11	75.6982	1,516.11	81.4865	1,516.11	77.4798	1,516.11	82.9083	1,516.11	78.1529	1,516.11	82.3413	1,516.11	76.4608	1,516.11	80.1729	1,516.11	68.9042	1,516.11	77.8539	1,516.11	63.4802	1,516.11	75.5151	1,516.11	56.8632	1,516.11	75.6609	1,516.11	64.3717	1,516.11	74.7501	1,516.11	71.3517	1,516.11	70.1008	1,516.11	65.836	1,516.11	64.4243	1,516.11	68.3671	1,516.11	70.397	1,516.11	71.3589	1,516.11	63.8056	1,516.11	56.7548	1,516.11	63.7004	1,516.11	66.4153	1,516.11	70.2898	1,516.11	69.1243
1,568.85	87.4644	1,568.85	86.9555	1,568.85	84.7809	1,568.85	84.493	1,568.85	79.0756	1,568.85	81.1679	1,568.85	80.1286	1,568.85	80.257	1,568.85	82.7044	1,568.85	78.7666	1,568.85	83.0856	1,568.85	77.5424	1,568.85	82.4276	1,568.85	77.7917	1,568.85	79.516	1,568.85	75.458	1,568.85	75.2735	1,568.85	74.4096	1,568.85	72.3169	1,568.85	74.9866	1,568.85	65.4614	1,568.85	69.1765	1,568.85	68.2507	1,568.85	70.758	1,568.85	67.6993	1,568.85	72.6857	1,568.85	69.4616	1,568.85	69.9588	1,568.85	71.126	1,568.85	71.7676	1,568.85	67.184	1,568.85	55.3908	1,568.85	64.2149	1,568.85	65.7346	1,568.85	70.022	1,568.85	68.4966
1,624.51	85.6011	1,624.51	86.982	1,624.51	83.6759	1,624.51	86.0235	1,624.51	81.7881	1,624.51	82.4138	1,624.51	81.3932	1,624.51	78.1227	1,624.51	81.1637	1,624.51	77.9985	1,624.51	81.9314	1,624.51	79.4344	1,624.51	82.5983	1,624.51	78.6588	1,624.51	80.5493	1,624.51	76.4467	1,624.51	76.5479	1,624.51	75.8014	1,624.51	72.885	1,624.51	73.8205	1,624.51	72.9063	1,624.51	72.3261	1,624.51	70.3604	1,624.51	62.6054	1,624.51	65.6722	1,624.51	73.0175	1,624.51	67.391	1,624.51	72.3515	1,624.51	67.7704	1,624.51	69.7143	1,624.51	62.2696	1,624.51	64.9277	1,624.51	53.198	1,624.51	65.5784	1,624.51	66.4903	1,624.51	65.657
1,681.64	85.8047	1,681.64	86.8873	1,681.64	82.9159	1,681.64	84.8359	1,681.64	82.0927	1,681.64	82.2518	1,681.64	83.9685	1,681.64	82.1041	1,681.64	83.7755	1,681.64	81.8171	1,681.64	83.5193	1,681.64	79.3083	1,681.64	81.9799	1,681.64	70.3844	1,681.64	77.1096	1,681.64	72.0943	1,681.64	68.9351	1,681.64	75.6078	1,681.64	70.1903	1,681.64	75.3729	1,681.64	72.9932	1,681.64	70.4655	1,681.64	75.5642	1,681.64	69.7649	1,681.64	72.294	1,681.64	71.0855	1,681.64	70.2931	1,681.64	74.5103	1,681.64	65.051	1,681.64	73.2376	1,681.64	66.3731	1,681.64	64.7191	1,681.64	65.878	1,681.64	66.5939	1,681.64	68.7614	1,681.64	65.9408
1,741.7	86.9824	1,741.7	87.2373	1,741.7	84.3915	1,741.7	85.6151	1,741.7	82.4769	1,741.7	84.3512	1,741.7	82.9222	1,741.7	83.1859	1,741.7	83.8808	1,741.7	81.6508	1,741.7	82.7909	1,741.7	76.5647	1,741.7	80.0753	1,741.7	74.2043	1,741.7	78.3156	1,741.7	77.9684	1,741.7	75.2159	1,741.7	77.1201	1,741.7	71.2787	1,741.7	74.2497	1,741.7	72.6111	1,741.7	76.456	1,741.7	61.879	1,741.7	71.7526	1,741.7	63.1144	1,741.7	72.1838	1,741.7	67.8645	1,741.7	67.958	1,741.7	72.9461	1,741.7	62.4587	1,741.7	60.844	1,741.7	51.4295	1,741.7	66.7021	1,741.7	64.5513	1,741.7	64.7913	1,741.7	55.6573
1,803.22	87.2276	1,803.22	88.0593	1,803.22	85.1377	1,803.22	86.4736	1,803.22	84.3953	1,803.22	83.9619	1,803.22	83.0332	1,803.22	82.3227	1,803.22	82.4977	1,803.22	82.4279	1,803.22	80.9485	1,803.22	81.0585	1,803.22	80.7407	1,803.22	79.0875	1,803.22	80.4376	1,803.22	77.7132	1,803.22	75.3291	1,803.22	75.3989	1,803.22	70.844	1,803.22	75.4637	1,803.22	68.1166	1,803.22	73.7464	1,803.22	64.492	1,803.22	69.9085	1,803.22	65.5276	1,803.22	71.3287	1,803.22	70.2496	1,803.22	72.0007	1,803.22	69.4474	1,803.22	68.9516	1,803.22	61.1991	1,803.22	64.3159	1,803.22	60.6387	1,803.22	64.9031	1,803.22	70.3117	1,803.22	65.9681
1,866.21	86.8242	1,866.21	87.9225	1,866.21	85.8517	1,866.21	87.407	1,866.21	85.4124	1,866.21	84.9549	1,866.21	83.2776	1,866.21	82.5056	1,866.21	81.3935	1,866.21	81.411	1,866.21	81.7236	1,866.21	80.5038	1,866.21	80.6167	1,866.21	77.8374	1,866.21	79.9142	1,866.21	76.6072	1,866.21	77.7972	1,866.21	75.13	1,866.21	73.3633	1,866.21	72.5708	1,866.21	71.181	1,866.21	70.2615	1,866.21	65.4217	1,866.21	68.3351	1,866.21	66.2853	1,866.21	68.5551	1,866.21	68.945	1,866.21	71.7555	1,866.21	72.455	1,866.21	67.0459	1,866.21	61.5348	1,866.21	62.9511	1,866.21	64.7323	1,866.21	54.5528	1,866.21	68.6614	1,866.21	63.2167
1,932.13	85.8781	1,932.13	87.2446	1,932.13	85.2262	1,932.13	87.0941	1,932.13	86.4839	1,932.13	85.1218	1,932.13	84.4162	1,932.13	83.388	1,932.13	80.9686	1,932.13	81.8437	1,932.13	81.1101	1,932.13	80.0702	1,932.13	81.587	1,932.13	78.8708	1,932.13	78.4276	1,932.13	76.3958	1,932.13	76.0048	1,932.13	74.8179	1,932.13	75.7695	1,932.13	74.4028	1,932.13	69.5037	1,932.13	72.701	1,932.13	65.293	1,932.13	71.0317	1,932.13	65.6805	1,932.13	68.193	1,932.13	70.4061	1,932.13	68.541	1,932.13	71.3035	1,932.13	69.1596	1,932.13	61.2728	1,932.13	64.9421	1,932.13	58.1011	1,932.13	61.014	1,932.13	69.1739	1,932.13	64.1577
1,999.51	85.7823	1,999.51	86.9703	1,999.51	84.4531	1,999.51	86.4207	1,999.51	85.7022	1,999.51	85.0397	1,999.51	84.5634	1,999.51	83.474	1,999.51	80.6956	1,999.51	81.5582	1,999.51	80.8598	1,999.51	80.211	1,999.51	81.1785	1,999.51	78.0375	1,999.51	80.0359	1,999.51	76.2443	1,999.51	75.3645	1,999.51	73.7742	1,999.51	73.1364	1,999.51	72.4024	1,999.51	73.17	1,999.51	71.0373	1,999.51	69.1405	1,999.51	70.051	1,999.51	64.0318	1,999.51	69.7629	1,999.51	68.1735	1,999.51	70.4073	1,999.51	71.9943	1,999.51	63.6274	1,999.51	60.3657	1,999.51	60.6006	1,999.51	61.452	1,999.51	48.4164	1,999.51	69.13	1,999.51	62.9379
2,069.82	86.8787	2,069.82	87.7792	2,069.82	85.6541	2,069.82	86.5249	2,069.82	85.1246	2,069.82	84.6266	2,069.82	84.1189	2,069.82	83.0366	2,069.82	80.9418	2,069.82	82.1341	2,069.82	80.5949	2,069.82	79.8408	2,069.82	81.2698	2,069.82	78.228	2,069.82	78.6546	2,069.82	74.1078	2,069.82	76.599	2,069.82	73.7131	2,069.82	73.4769	2,069.82	68.99	2,069.82	71.8182	2,069.82	69.3401	2,069.82	70.6038	2,069.82	68.4013	2,069.82	67.0382	2,069.82	67.7215	2,069.82	68.4859	2,069.82	68.4879	2,069.82	68.9329	2,069.82	68.5029	2,069.82	62.0035	2,069.82	62.3985	2,069.82	47.4543	2,069.82	46.7728	2,069.82	67.0488	2,069.82	59.9177
2,143.07	86.9178	2,143.07	87.966	2,143.07	86.2761	2,143.07	87.2469	2,143.07	86.3827	2,143.07	84.3264	2,143.07	83.7822	2,143.07	82.9048	2,143.07	80.7812	2,143.07	81.7663	2,143.07	79.6454	2,143.07	79.6764	2,143.07	81.4367	2,143.07	75.1532	2,143.07	79.1006	2,143.07	76.2304	2,143.07	75.7184	2,143.07	75.3727	2,143.07	74.5921	2,143.07	72.9899	2,143.07	66.0856	2,143.07	70.0721	2,143.07	64.4457	2,143.07	67.2955	2,143.07	69.0453	2,143.07	67.6609	2,143.07	67.2645	2,143.07	69.0013	2,143.07	68.6248	2,143.07	66.4327	2,143.07	56.0292	2,143.07	60.6729	2,143.07	60.2806	2,143.07	52.1479	2,143.07	68.9765	2,143.07	62.7068
2,219.24	86.3802	2,219.24	87.3913	2,219.24	85.4588	2,219.24	87.0414	2,219.24	86.6889	2,219.24	85.4827	2,219.24	84.4198	2,219.24	83.7446	2,219.24	79.7327	2,219.24	80.8541	2,219.24	80.5043	2,219.24	77.993	2,219.24	80.9594	2,219.24	77.0482	2,219.24	80.1831	2,219.24	71.652	2,219.24	73.8367	2,219.24	70.4985	2,219.24	71.5034	2,219.24	71.2743	2,219.24	68.7652	2,219.24	70.5077	2,219.24	65.4366	2,219.24	67.1644	2,219.24	66.0985	2,219.24	67.0013	2,219.24	63.7973	2,219.24	66.8528	2,219.24	68.6662	2,219.24	69.5774	2,219.24	45.4669	2,219.24	63.9081	2,219.24	61.9999	2,219.24	55.5767	2,219.24	68.107	2,219.24	60.3956
2,296.88	86.8015	2,296.88	87.246	2,296.88	85.4513	2,296.88	86.0976	2,296.88	85.5064	2,296.88	85.2774	2,296.88	84.7896	2,296.88	83.6799	2,296.88	80.5858	2,296.88	81.253	2,296.88	80.6775	2,296.88	78.0824	2,296.88	80.5598	2,296.88	77.1832	2,296.88	79.15	2,296.88	75.2916	2,296.88	74.7571	2,296.88	74.7167	2,296.88	72.2638	2,296.88	71.4749	2,296.88	70.1364	2,296.88	69.4512	2,296.88	64.4113	2,296.88	69.6627	2,296.88	63.3555	2,296.88	66.4403	2,296.88	63.32	2,296.88	69.3272	2,296.88	67.4672	2,296.88	68.1877	2,296.88	53.7673	2,296.88	60.0125	2,296.88	64.1676	2,296.88	55.1641	2,296.88	67.4394	2,296.88	59.088
2,378.91	87.8075	2,378.91	88.0184	2,378.91	86.0864	2,378.91	87.0186	2,378.91	85.2786	2,378.91	84.9442	2,378.91	84.5521	2,378.91	83.4968	2,378.91	80.3918	2,378.91	80.6589	2,378.91	78.9474	2,378.91	79.1437	2,378.91	80.7485	2,378.91	76.291	2,378.91	79.9268	2,378.91	75.2013	2,378.91	76.9885	2,378.91	73.9364	2,378.91	71.848	2,378.91	69.9114	2,378.91	70.8813	2,378.91	70.7541	2,378.91	60.2338	2,378.91	69.1027	2,378.91	66.1898	2,378.91	68.2634	2,378.91	67.5896	2,378.91	67.1202	2,378.91	62.8504	2,378.91	69.7738	2,378.91	55.5224	2,378.91	64.8415	2,378.91	60.4598	2,378.91	55.4324	2,378.91	67.0811	2,378.91	62.1106
2,462.4	87.175	2,462.4	87.8454	2,462.4	86.4709	2,462.4	87.2047	2,462.4	85.6194	2,462.4	85.3994	2,462.4	84.5717	2,462.4	82.6654	2,462.4	80.511	2,462.4	81.3023	2,462.4	78.1137	2,462.4	78.813	2,462.4	80.5994	2,462.4	77.1252	2,462.4	79.9708	2,462.4	75.6169	2,462.4	75.7069	2,462.4	66.4687	2,462.4	70.6091	2,462.4	70.8249	2,462.4	71.6441	2,462.4	67.7556	2,462.4	63.372	2,462.4	68.0725	2,462.4	67.5554	2,462.4	64.5647	2,462.4	67.5334	2,462.4	68.7411	2,462.4	67.8536	2,462.4	68.2695	2,462.4	60.1127	2,462.4	63.6395	2,462.4	62.4853	2,462.4	56.6555	2,462.4	65.452	2,462.4	57.9365
2,548.83	87.3082	2,548.83	87.4406	2,548.83	86.1014	2,548.83	86.7671	2,548.83	85.1605	2,548.83	85.4675	2,548.83	84.6004	2,548.83	82.3709	2,548.83	80.8475	2,548.83	81.4199	2,548.83	78.2628	2,548.83	79.2705	2,548.83	79.9115	2,548.83	77.0743	2,548.83	79.6851	2,548.83	73.7465	2,548.83	73.3881	2,548.83	74.4817	2,548.83	70.2624	2,548.83	71.4044	2,548.83	70.1033	2,548.83	67.012	2,548.83	68.9142	2,548.83	67.4733	2,548.83	63.2413	2,548.83	63.7884	2,548.83	68.8605	2,548.83	67.2001	2,548.83	67.1679	2,548.83	66.9923	2,548.83	51.5061	2,548.83	64.971	2,548.83	61.8246	2,548.83	55.0515	2,548.83	66.0115	2,548.83	61.6317
2,639.65	87.7454	2,639.65	87.695	2,639.65	86.7502	2,639.65	86.651	2,639.65	85.0306	2,639.65	84.9013	2,639.65	85.0323	2,639.65	83.2153	2,639.65	81.0596	2,639.65	80.4531	2,639.65	78.0416	2,639.65	79.0329	2,639.65	79.6205	2,639.65	74.8636	2,639.65	78.7956	2,639.65	73.8714	2,639.65	75.2395	2,639.65	73.0407	2,639.65	69.4963	2,639.65	70.3681	2,639.65	70.0976	2,639.65	67.3588	2,639.65	69.5471	2,639.65	68.252	2,639.65	64.275	2,639.65	64.2183	2,639.65	68.7229	2,639.65	66.4852	2,639.65	67.9603	2,639.65	69.2955	2,639.65	56.965	2,639.65	64.0365	2,639.65	62.431	2,639.65	58.8945	2,639.65	64.9018	2,639.65	55.8435
2,731.93	87.2365	2,731.93	87.41	2,731.93	86.8439	2,731.93	86.7684	2,731.93	84.9973	2,731.93	84.4537	2,731.93	84.4433	2,731.93	83.0947	2,731.93	81.8295	2,731.93	81.4458	2,731.93	76.9899	2,731.93	78.1431	2,731.93	79.5278	2,731.93	76.1767	2,731.93	77.0412	2,731.93	74.4053	2,731.93	74.2004	2,731.93	70.221	2,731.93	68.1288	2,731.93	69.4957	2,731.93	70.1699	2,731.93	68.9984	2,731.93	65.1786	2,731.93	68.9788	2,731.93	64.0617	2,731.93	64.6832	2,731.93	65.9725	2,731.93	67.5097	2,731.93	67.758	2,731.93	66.7501	2,731.93	52.2458	2,731.93	64.4697	2,731.93	65.3601	2,731.93	58.3457	2,731.93	63.5718	2,731.93	56.5102
2,828.61	87.5506	2,828.61	87.5606	2,828.61	86.3897	2,828.61	86.4754	2,828.61	84.5274	2,828.61	84.4504	2,828.61	84.0747	2,828.61	82.9031	2,828.61	82.0453	2,828.61	81.3893	2,828.61	76.5894	2,828.61	78.3192	2,828.61	78.5307	2,828.61	76.5492	2,828.61	77.5547	2,828.61	72.8288	2,828.61	76.3115	2,828.61	71.4884	2,828.61	73.2931	2,828.61	67.6932	2,828.61	64.5095	2,828.61	68.9362	2,828.61	63.2495	2,828.61	66.3951	2,828.61	60.8564	2,828.61	65.5397	2,828.61	66.7298	2,828.61	66.4329	2,828.61	64.7179	2,828.61	68.1487	2,828.61	56.9699	2,828.61	66.4163	2,828.61	61.6079	2,828.61	61.925	2,828.61	62.2631	2,828.61	57.4333
2,928.22	87.637	2,928.22	87.8089	2,928.22	87.0965	2,928.22	86.7274	2,928.22	84.7539	2,928.22	85.0461	2,928.22	83.8124	2,928.22	83.2927	2,928.22	81.6968	2,928.22	79.7916	2,928.22	76.8588	2,928.22	78.6215	2,928.22	77.438	2,928.22	74.6365	2,928.22	76.5306	2,928.22	75.0166	2,928.22	76.1446	2,928.22	70.4703	2,928.22	71.8196	2,928.22	70.9063	2,928.22	61.7014	2,928.22	68.5045	2,928.22	60.2068	2,928.22	67.5057	2,928.22	62.1145	2,928.22	65.8691	2,928.22	63.4923	2,928.22	67.3995	2,928.22	64.7317	2,928.22	68.6283	2,928.22	46.8724	2,928.22	65.0773	2,928.22	59.5125	2,928.22	61.6307	2,928.22	64.2328	2,928.22	53.7045
3,030.76	86.9617	3,030.76	87.4111	3,030.76	86.9598	3,030.76	86.0044	3,030.76	85.0255	3,030.76	84.7547	3,030.76	83.8637	3,030.76	83.1997	3,030.76	81.6014	3,030.76	81.0038	3,030.76	76.7634	3,030.76	78.4747	3,030.76	76.6742	3,030.76	76.7774	3,030.76	76.9178	3,030.76	73.9475	3,030.76	75.2906	3,030.76	72.6843	3,030.76	67.0765	3,030.76	69.5075	3,030.76	67.8501	3,030.76	68.4379	3,030.76	64.946	3,030.76	66.5583	3,030.76	59.4422	3,030.76	66.0002	3,030.76	65.7824	3,030.76	66.9838	3,030.76	63.085	3,030.76	66.5553	3,030.76	56.0427	3,030.76	66.8145	3,030.76	61.2106	3,030.76	61.7326	3,030.76	61.0432	3,030.76	57.7309
3,137.7	87.5973	3,137.7	87.9563	3,137.7	86.9261	3,137.7	86.326	3,137.7	84.829	3,137.7	85.2544	3,137.7	84.071	3,137.7	82.8093	3,137.7	82.206	3,137.7	81.1648	3,137.7	75.7173	3,137.7	78.8386	3,137.7	76.1647	3,137.7	76.2115	3,137.7	77.9502	3,137.7	72.7378	3,137.7	73.9256	3,137.7	72.1443	3,137.7	68.3667	3,137.7	69.4527	3,137.7	69.4974	3,137.7	68.2809	3,137.7	61.8702	3,137.7	66.2481	3,137.7	52.8776	3,137.7	67.4942	3,137.7	65.5128	3,137.7	65.9788	3,137.7	61.5688	3,137.7	67.0856	3,137.7	55.5019	3,137.7	66.7895	3,137.7	59.3154	3,137.7	62.8047	3,137.7	60.2892	3,137.7	57.5772
3,249.02	87.4293	3,249.02	87.5243	3,249.02	87.069	3,249.02	86.497	3,249.02	85.1467	3,249.02	85.0335	3,249.02	83.5376	3,249.02	82.9276	3,249.02	82.3657	3,249.02	80.5139	3,249.02	76.2371	3,249.02	78.8056	3,249.02	76.2411	3,249.02	75.8874	3,249.02	77.9721	3,249.02	73.9648	3,249.02	74.9598	3,249.02	71.1436	3,249.02	70.7976	3,249.02	68.2671	3,249.02	68.9486	3,249.02	67.8495	3,249.02	64.6769	3,249.02	65.0295	3,249.02	43.1491	3,249.02	65.6678	3,249.02	63.3438	3,249.02	65.6382	3,249.02	59.5797	3,249.02	67.4664	3,249.02	55.1082	3,249.02	66.4435	3,249.02	60.7635	3,249.02	64.259	3,249.02	59.2464	3,249.02	54.8729
3,363.28	87.4222	3,363.28	87.3901	3,363.28	86.5964	3,363.28	86.4877	3,363.28	85.5648	3,363.28	84.6677	3,363.28	83.9505	3,363.28	83.0413	3,363.28	82.295	3,363.28	80.9255	3,363.28	76.2663	3,363.28	78.329	3,363.28	74.3402	3,363.28	76.065	3,363.28	78.489	3,363.28	72.0574	3,363.28	74.9905	3,363.28	70.7816	3,363.28	72.1896	3,363.28	68.1025	3,363.28	71.3193	3,363.28	67.4231	3,363.28	61.3475	3,363.28	65.6374	3,363.28	50.4049	3,363.28	65.414	3,363.28	59.9907	3,363.28	64.0467	3,363.28	61.2932	3,363.28	66.9512	3,363.28	52.5098	3,363.28	66.0022	3,363.28	55.8003	3,363.28	62.6104	3,363.28	58.7474	3,363.28	54.3273
3,481.93	87.7571	3,481.93	87.5722	3,481.93	86.9151	3,481.93	86.6151	3,481.93	84.9287	3,481.93	84.789	3,481.93	84.0256	3,481.93	82.7581	3,481.93	82.8545	3,481.93	81.0006	3,481.93	76.9021	3,481.93	78.0044	3,481.93	77.0675	3,481.93	75.4273	3,481.93	78.6629	3,481.93	73.1566	3,481.93	74.8959	3,481.93	71.7755	3,481.93	72.8737	3,481.93	68.1403	3,481.93	71.7691	3,481.93	67.4692	3,481.93	64.6487	3,481.93	62.4645	3,481.93	58.5326	3,481.93	65.9163	3,481.93	58.8136	3,481.93	65.1076	3,481.93	60.2978	3,481.93	66.3197	3,481.93	57.2551	3,481.93	67.0357	3,481.93	57.8253	3,481.93	64.5413	3,481.93	58.5069	3,481.93	54.0411
3,604.98	87.5497	3,604.98	87.2586	3,604.98	86.993	3,604.98	86.6696	3,604.98	85.4819	3,604.98	84.6171	3,604.98	83.2425	3,604.98	83.016	3,604.98	82.9591	3,604.98	80.6899	3,604.98	78.6451	3,604.98	77.7118	3,604.98	77.6526	3,604.98	75.7397	3,604.98	78.4773	3,604.98	71.8504	3,604.98	74.1765	3,604.98	69.7475	3,604.98	71.7976	3,604.98	68.89	3,604.98	68.036	3,604.98	66.7326	3,604.98	60.2724	3,604.98	65.3698	3,604.98	59.1827	3,604.98	64.3244	3,604.98	46.4182	3,604.98	62.3886	3,604.98	57.8844	3,604.98	66.5638	3,604.98	55.8896	3,604.98	66.0703	3,604.98	56.3609	3,604.98	65.3088	3,604.98	58.1499	3,604.98	54.7436
3,732.42	87.2405	3,732.42	87.2616	3,732.42	86.7701	3,732.42	86.4824	3,732.42	85.6983	3,732.42	84.6795	3,732.42	83.2346	3,732.42	82.8441	3,732.42	82.1019	3,732.42	80.5061	3,732.42	80.3046	3,732.42	77.86	3,732.42	76.8854	3,732.42	74.7071	3,732.42	78.4415	3,732.42	72.8423	3,732.42	74.7585	3,732.42	70.0425	3,732.42	71.2214	3,732.42	68.032	3,732.42	56.7452	3,732.42	66.1573	3,732.42	60.0182	3,732.42	64.9465	3,732.42	60.057	3,732.42	64.5178	3,732.42	55.3214	3,732.42	64.3153	3,732.42	62.1925	3,732.42	65.9309	3,732.42	57.2863	3,732.42	65.4382	3,732.42	55.8092	3,732.42	64.2126	3,732.42	55.7484	3,732.42	51.8289
3,864.26	87.6322	3,864.26	87.5598	3,864.26	86.7762	3,864.26	86.4824	3,864.26	85.5291	3,864.26	84.2919	3,864.26	83.642	3,864.26	82.7381	3,864.26	83.0372	3,864.26	80.4774	3,864.26	80.4305	3,864.26	77.3006	3,864.26	75.6476	3,864.26	74.6665	3,864.26	77.5126	3,864.26	71.5724	3,864.26	72.5143	3,864.26	67.8189	3,864.26	69.7606	3,864.26	68.3692	3,864.26	62.103	3,864.26	64.7976	3,864.26	62.2076	3,864.26	65.0911	3,864.26	58.0646	3,864.26	62.3478	3,864.26	53.5189	3,864.26	60.9042	3,864.26	60.5402	3,864.26	65.0396	3,864.26	54.1574	3,864.26	65.5671	3,864.26	52.6205	3,864.26	63.7624	3,864.26	55.7618	3,864.26	52.9323
4,000.49	87.3035	4,000.49	86.9889	4,000.49	86.6422	4,000.49	86.4835	4,000.49	85.7055	4,000.49	85.172	4,000.49	83.1235	4,000.49	82.6322	4,000.49	82.792	4,000.49	80.5055	4,000.49	79.5108	4,000.49	77.0672	4,000.49	73.7445	4,000.49	73.6303	4,000.49	76.0714	4,000.49	73.239	4,000.49	70.8442	4,000.49	68.183	4,000.49	68.0449	4,000.49	68.2184	4,000.49	60.12	4,000.49	64.4426	4,000.49	56.5441	4,000.49	65.5385	4,000.49	53.0017	4,000.49	64.1646	4,000.49	51.5908	4,000.49	62.3063	4,000.49	62.0093	4,000.49	64.3558	4,000.49	51.8255	4,000.49	65.5921	4,000.49	54.154	4,000.49	64.0663	4,000.49	57.3925	4,000.49	55.4244
4,141.11	87.0956	4,141.11	87.4325	4,141.11	86.7372	4,141.11	86.0527	4,141.11	85.4437	4,141.11	84.408	4,141.11	83.3732	4,141.11	82.9233	4,141.11	82.841	4,141.11	79.9686	4,141.11	79.2554	4,141.11	76.8291	4,141.11	70.6495	4,141.11	73.7758	4,141.11	73.3029	4,141.11	70.5725	4,141.11	69.6005	4,141.11	68.3176	4,141.11	67.5772	4,141.11	67.8031	4,141.11	66.2245	4,141.11	65.1865	4,141.11	60.306	4,141.11	63.962	4,141.11	54.1836	4,141.11	60.8045	4,141.11	48.2371	4,141.11	61.4052	4,141.11	61.0389	4,141.11	63.354	4,141.11	55.2559	4,141.11	64.8241	4,141.11	52.5989	4,141.11	63.5045	4,141.11	55.5675	4,141.11	51.7424
4,287.6	87.1821	4,287.6	86.9817	4,287.6	86.4581	4,287.6	86.3529	4,287.6	85.4882	4,287.6	85.259	4,287.6	82.8076	4,287.6	82.4163	4,287.6	81.8298	4,287.6	79.9218	4,287.6	78.3239	4,287.6	77.169	4,287.6	69.9262	4,287.6	73.9235	4,287.6	69.5754	4,287.6	72.3012	4,287.6	73.8574	4,287.6	65.9877	4,287.6	69.4945	4,287.6	67.0181	4,287.6	71.8594	4,287.6	62.7005	4,287.6	67.779	4,287.6	64.5872	4,287.6	54.1286	4,287.6	62.425	4,287.6	56.204	4,287.6	57.2318	4,287.6	56.542	4,287.6	62.5838	4,287.6	49.2716	4,287.6	63.6774	4,287.6	51.1209	4,287.6	62.2914	4,287.6	53.0447	4,287.6	53.6887
4,438.48	86.8855	4,438.48	86.9755	4,438.48	86.6963	4,438.48	86.2027	4,438.48	85.738	4,438.48	84.4672	4,438.48	82.4239	4,438.48	82.9226	4,438.48	81.8372	4,438.48	79.7833	4,438.48	78.5522	4,438.48	77.0588	4,438.48	71.4862	4,438.48	73.5432	4,438.48	72.6271	4,438.48	70.2967	4,438.48	76.2723	4,438.48	70.2226	4,438.48	71.1859	4,438.48	65.1792	4,438.48	71.1895	4,438.48	66.0011	4,438.48	67.5935	4,438.48	63.1995	4,438.48	57.3828	4,438.48	60.8853	4,438.48	57.1887	4,438.48	61.5939	4,438.48	53.1939	4,438.48	62.6585	4,438.48	53.4803	4,438.48	62.7946	4,438.48	55.4896	4,438.48	62.1227	4,438.48	48.7869	4,438.48	55.1803
4,595.21	87.4453	4,595.21	86.9988	4,595.21	86.277	4,595.21	86.6046	4,595.21	85.6344	4,595.21	85.173	4,595.21	83.0628	4,595.21	82.2628	4,595.21	80.221	4,595.21	80.2113	4,595.21	77.7498	4,595.21	76.0362	4,595.21	74.5312	4,595.21	73.5785	4,595.21	73.5872	4,595.21	69.2895	4,595.21	75.8737	4,595.21	67.4982	4,595.21	72.2716	4,595.21	67.4859	4,595.21	59.8199	4,595.21	61.9469	4,595.21	52.5389	4,595.21	63.8172	4,595.21	53.9898	4,595.21	63.0695	4,595.21	57.9099	4,595.21	58.9722	4,595.21	58.3701	4,595.21	60.6161	4,595.21	50.7501	4,595.21	62.1412	4,595.21	41.8895	4,595.21	61.2862	4,595.21	53.8784	4,595.21	54.6381
4,756.35	86.6362	4,756.35	86.4763	4,756.35	86.3313	4,756.35	86.4115	4,756.35	85.8663	4,756.35	84.3507	4,756.35	83.0424	4,756.35	82.7551	4,756.35	79.3889	4,756.35	79.8266	4,756.35	78.4028	4,756.35	76.6274	4,756.35	74.6754	4,756.35	72.3848	4,756.35	76.4025	4,756.35	71.5295	4,756.35	75.3918	4,756.35	67.4496	4,756.35	70.3313	4,756.35	64.5832	4,756.35	63.7215	4,756.35	64.6904	4,756.35	61.3145	4,756.35	63.4421	4,756.35	52.904	4,756.35	61.0205	4,756.35	52.2126	4,756.35	61.5306	4,756.35	55.2924	4,756.35	61.4816	4,756.35	51.2982	4,756.35	60.8415	4,756.35	51.5218	4,756.35	59.6504	4,756.35	49.8479	4,756.35	55.272
4,924.8	87.5377	4,924.8	86.9052	4,924.8	86.4755	4,924.8	86.3518	4,924.8	85.0454	4,924.8	84.7133	4,924.8	83.3566	4,924.8	82.392	4,924.8	79.9981	4,924.8	79.6353	4,924.8	78.9262	4,924.8	76.1073	4,924.8	75.3577	4,924.8	73.736	4,924.8	72.8992	4,924.8	70.419	4,924.8	73.4156	4,924.8	68.4596	4,924.8	64.3578	4,924.8	66.5841	4,924.8	65.9052	4,924.8	62.0993	4,924.8	64.0643	4,924.8	62.6415	4,924.8	45.5961	4,924.8	61.6346	4,924.8	42.0616	4,924.8	60.1258	4,924.8	57.6319	4,924.8	58.3913	4,924.8	56.543	4,924.8	60.5979	4,924.8	43.4396	4,924.8	59.5877	4,924.8	54.6798	4,924.8	57.8872
5,097.66	86.7161	5,097.66	86.7853	5,097.66	86.6937	5,097.66	86.5911	5,097.66	85.5974	5,097.66	84.716	5,097.66	82.8785	5,097.66	82.5694	5,097.66	80.6032	5,097.66	79.6274	5,097.66	79.5345	5,097.66	76.7516	5,097.66	74.1622	5,097.66	73.4291	5,097.66	72.4006	5,097.66	70.0999	5,097.66	73.2789	5,097.66	68.1088	5,097.66	63.322	5,097.66	64.8372	5,097.66	66.6814	5,097.66	64.6125	5,097.66	65.7758	5,097.66	62.9492	5,097.66	51.1719	5,097.66	61.5699	5,097.66	44.3522	5,097.66	61.4069	5,097.66	54.3412	5,097.66	59.7077	5,097.66	50.9778	5,097.66	58.061	5,097.66	21.9501	5,097.66	59.6568	5,097.66	50.8088	5,097.66	54.3215
5,277.83	87.9319	5,277.83	87.5193	5,277.83	87.1755	5,277.83	86.5547	5,277.83	85.2897	5,277.83	84.8815	5,277.83	82.9086	5,277.83	82.332	5,277.83	80.8991	5,277.83	79.8298	5,277.83	80.1254	5,277.83	76.7128	5,277.83	74.3242	5,277.83	72.7196	5,277.83	64.8321	5,277.83	70.8698	5,277.83	73.1824	5,277.83	67.835	5,277.83	64.4827	5,277.83	64.3762	5,277.83	64.9499	5,277.83	63.1977	5,277.83	66.5887	5,277.83	61.5775	5,277.83	52.95	5,277.83	61.3893	5,277.83	53.1962	5,277.83	60.4255	5,277.83	56.1159	5,277.83	60.3547	5,277.83	52.213	5,277.83	57.1796	5,277.83	45.2827	5,277.83	57.8619	5,277.83	53.3918	5,277.83	57.0224
5,463.87	87.4036	5,463.87	87.0085	5,463.87	86.8068	5,463.87	86.361	5,463.87	85.8172	5,463.87	84.8463	5,463.87	82.4819	5,463.87	82.3412	5,463.87	79.7758	5,463.87	79.6302	5,463.87	79.2551	5,463.87	76.3147	5,463.87	73.6081	5,463.87	73.5742	5,463.87	68.1448	5,463.87	69.3875	5,463.87	74.2005	5,463.87	68.1965	5,463.87	66.9174	5,463.87	64.3914	5,463.87	65.8842	5,463.87	64.5048	5,463.87	64.9165	5,463.87	61.4609	5,463.87	55.5294	5,463.87	58.7616	5,463.87	45.7225	5,463.87	61.0668	5,463.87	55.7755	5,463.87	58.8515	5,463.87	51.5706	5,463.87	56.498	5,463.87	50.26	5,463.87	55.8821	5,463.87	55.0021	5,463.87	52.8533
5,657.23	87.4268	5,657.23	87.1346	5,657.23	87.1324	5,657.23	86.6714	5,657.23	85.3876	5,657.23	84.5235	5,657.23	82.6841	5,657.23	82.3343	5,657.23	80.3475	5,657.23	79.4416	5,657.23	77.8073	5,657.23	76.2758	5,657.23	74.1284	5,657.23	72.7362	5,657.23	71.1111	5,657.23	70.2985	5,657.23	72.1875	5,657.23	67.0683	5,657.23	65.5757	5,657.23	63.0753	5,657.23	62.2373	5,657.23	62.1289	5,657.23	59.0854	5,657.23	57.8643	5,657.23	54.9815	5,657.23	60.126	5,657.23	55.9081	5,657.23	61.2086	5,657.23	52.001	5,657.23	58.3747	5,657.23	53.6647	5,657.23	55.3202	5,657.23	49.8463	5,657.23	54.5555	5,657.23	40.4061	5,657.23	56.6473
5,856.45	87.5555	5,856.45	87.3331	5,856.45	86.7806	5,856.45	86.142	5,856.45	85.5679	5,856.45	84.4317	5,856.45	83.0749	5,856.45	82.0521	5,856.45	80.1006	5,856.45	79.3384	5,856.45	77.9128	5,856.45	75.963	5,856.45	72.8766	5,856.45	72.8821	5,856.45	71.4259	5,856.45	67.2076	5,856.45	73.5552	5,856.45	67.0409	5,856.45	68.5398	5,856.45	61.839	5,856.45	63.1535	5,856.45	63.2061	5,856.45	58.9093	5,856.45	59.2587	5,856.45	55.2148	5,856.45	57.4942	5,856.45	50.6477	5,856.45	58.2661	5,856.45	58.9836	5,856.45	59.8748	5,856.45	52.6491	5,856.45	51.6748	5,856.45	44.9584	5,856.45	54.7503	5,856.45	49.6462	5,856.45	55.2631
6,062.99	87.697	6,062.99	87.0032	6,062.99	86.888	6,062.99	86.2988	6,062.99	85.1416	6,062.99	84.4468	6,062.99	83.1142	6,062.99	82.2781	6,062.99	80.7152	6,062.99	79.1944	6,062.99	77.8076	6,062.99	76.0583	6,062.99	73.7994	6,062.99	71.8215	6,062.99	73.8479	6,062.99	67.4062	6,062.99	72.3063	6,062.99	66.0759	6,062.99	67.7918	6,062.99	60.6968	6,062.99	65.0091	6,062.99	61.2782	6,062.99	58.9296	6,062.99	58.8683	6,062.99	49.319	6,062.99	58.977	6,062.99	47.9911	6,062.99	59.3225	6,062.99	56.9585	6,062.99	57.7314	6,062.99	36.4659	6,062.99	56.3071	6,062.99	41.6201	6,062.99	56.4604	6,062.99	52.0921	6,062.99	55.6655
6,276.86	87.7335	6,276.86	87.4436	6,276.86	86.718	6,276.86	86.6205	6,276.86	85.3419	6,276.86	84.4594	6,276.86	83.3909	6,276.86	82.2697	6,276.86	79.7028	6,276.86	79.7398	6,276.86	77.6024	6,276.86	75.4683	6,276.86	72.427	6,276.86	71.8069	6,276.86	73.7716	6,276.86	68.9274	6,276.86	71.0397	6,276.86	65.4407	6,276.86	67.3468	6,276.86	62.8953	6,276.86	65.8656	6,276.86	62.4013	6,276.86	63.0653	6,276.86	60.9289	6,276.86	54.6795	6,276.86	60.7232	6,276.86	52.0357	6,276.86	58.6476	6,276.86	54.4824	6,276.86	59.1381	6,276.86	48.9577	6,276.86	54.6683	6,276.86	46.6145	6,276.86	53.9	6,276.86	46.0444	6,276.86	54.5274
6,498.05	87.7962	6,498.05	87.6864	6,498.05	87.2787	6,498.05	86.558	6,498.05	85.9321	6,498.05	84.9054	6,498.05	83.6702	6,498.05	82.4187	6,498.05	79.4396	6,498.05	80.2485	6,498.05	77.6918	6,498.05	75.3769	6,498.05	74.9699	6,498.05	71.9093	6,498.05	74.0154	6,498.05	68.3653	6,498.05	71.2246	6,498.05	67.3623	6,498.05	64.0648	6,498.05	63.7757	6,498.05	64.5963	6,498.05	62.6187	6,498.05	63.275	6,498.05	58.125	6,498.05	54.6396	6,498.05	59.9035	6,498.05	53.6094	6,498.05	59.8725	6,498.05	51.0132	6,498.05	58.435	6,498.05	51.3586	6,498.05	56.5997	6,498.05	48.7393	6,498.05	57.0883	6,498.05	49.3008	6,498.05	54.4657
6,726.56	88.3636	6,726.56	87.7578	6,726.56	87.2397	6,726.56	86.8132	6,726.56	85.781	6,726.56	84.8489	6,726.56	83.3241	6,726.56	82.6905	6,726.56	80.0505	6,726.56	79.7652	6,726.56	77.3338	6,726.56	75.3018	6,726.56	76.2855	6,726.56	72.6525	6,726.56	72.7085	6,726.56	68.0646	6,726.56	67.0347	6,726.56	66.7488	6,726.56	60.8851	6,726.56	60.0401	6,726.56	62.8724	6,726.56	61.9051	6,726.56	60.1854	6,726.56	60.538	6,726.56	53.2682	6,726.56	59.0631	6,726.56	48.2142	6,726.56	58.6454	6,726.56	47.0958	6,726.56	59.2511	6,726.56	51.3871	6,726.56	55.8565	6,726.56	46.962	6,726.56	54.6161	6,726.56	45.5548	6,726.56	55.4232
6,963.87	88.4071	6,963.87	87.8536	6,963.87	86.9693	6,963.87	86.8494	6,963.87	85.6629	6,963.87	84.5247	6,963.87	83.3737	6,963.87	82.7207	6,963.87	80.0288	6,963.87	79.3899	6,963.87	76.3214	6,963.87	75.1521	6,963.87	76.4259	6,963.87	72.4501	6,963.87	69.7795	6,963.87	68.8771	6,963.87	60.6901	6,963.87	65.7319	6,963.87	64.2281	6,963.87	62.79	6,963.87	59.3803	6,963.87	60.3002	6,963.87	62.3445	6,963.87	57.8074	6,963.87	56.0779	6,963.87	58.6227	6,963.87	43.567	6,963.87	58.5555	6,963.87	32.8548	6,963.87	58.1527	6,963.87	55.2381	6,963.87	55.8084	6,963.87	52.6105	6,963.87	54.7709	6,963.87	47.9892	6,963.87	52.7644
7,209.96	87.9157	7,209.96	87.5078	7,209.96	86.6557	7,209.96	86.5887	7,209.96	85.5689	7,209.96	84.3056	7,209.96	82.7808	7,209.96	82.5198	7,209.96	79.5811	7,209.96	78.45	7,209.96	77.9295	7,209.96	75.2022	7,209.96	76.2831	7,209.96	71.5538	7,209.96	68.1594	7,209.96	67.1471	7,209.96	67.0096	7,209.96	64.5261	7,209.96	66.9134	7,209.96	62.115	7,209.96	57.1903	7,209.96	60.1073	7,209.96	60.1726	7,209.96	56.5219	7,209.96	50.503	7,209.96	57.748	7,209.96	46.4599	7,209.96	57.9996	7,209.96	36.4187	7,209.96	56.8458	7,209.96	53.8396	7,209.96	54.5922	7,209.96	51.7554	7,209.96	52.4757	7,209.96	49.9669	7,209.96	53.2293
7,464.84	87.3712	7,464.84	87.0415	7,464.84	86.4979	7,464.84	86.2976	7,464.84	85.1783	7,464.84	84.082	7,464.84	82.4858	7,464.84	81.8978	7,464.84	78.9216	7,464.84	78.3647	7,464.84	77.7825	7,464.84	74.6327	7,464.84	71.9021	7,464.84	70.7945	7,464.84	70.928	7,464.84	66.7307	7,464.84	68.0607	7,464.84	62.624	7,464.84	67.237	7,464.84	60.314	7,464.84	58.3045	7,464.84	59.095	7,464.84	56.0876	7,464.84	56.7179	7,464.84	47.2234	7,464.84	57.7743	7,464.84	48.9305	7,464.84	57.455	7,464.84	35.8448	7,464.84	55.9414	7,464.84	50.1239	7,464.84	53.3248	7,464.84	50.5497	7,464.84	52.8518	7,464.84	49.1184	7,464.84	52.662
7,727.05	87.1121	7,727.05	86.6474	7,727.05	86.0663	7,727.05	85.8111	7,727.05	84.8494	7,727.05	83.7755	7,727.05	82.1212	7,727.05	81.5376	7,727.05	78.8764	7,727.05	77.9193	7,727.05	76.0622	7,727.05	74.4508	7,727.05	70.1717	7,727.05	69.8696	7,727.05	71.7516	7,727.05	65.9244	7,727.05	64.8827	7,727.05	62.8479	7,727.05	63.057	7,727.05	60.0313	7,727.05	57.6077	7,727.05	58.312	7,727.05	55.1206	7,727.05	55.6622	7,727.05	45.2339	7,727.05	56.8955	7,727.05	40.3167	7,727.05	56.6587	7,727.05	50.2011	7,727.05	56.0915	7,727.05	47.898	7,727.05	51.8664	7,727.05	51.2544	7,727.05	52.2569	7,727.05	46.1128	7,727.05	51.1293
7,999.51	86.5623	7,999.51	86.3268	7,999.51	85.6439	7,999.51	85.2351	7,999.51	84.4634	7,999.51	83.4474	7,999.51	82.1447	7,999.51	80.781	7,999.51	78.5854	7,999.51	77.8573	7,999.51	73.0581	7,999.51	73.2955	7,999.51	73.5168	7,999.51	69.2284	7,999.51	68.7223	7,999.51	65.9773	7,999.51	50.1498	7,999.51	63.0825	7,999.51	57.3554	7,999.51	59.5491	7,999.51	55.0324	7,999.51	57.6142	7,999.51	61.0699	7,999.51	54.2267	7,999.51	48.1317	7,999.51	53.8027	7,999.51	43.5218	7,999.51	53.7857	7,999.51	51.5942	7,999.51	55.0767	7,999.51	50.8999	7,999.51	50.9845	7,999.51	48.8047	7,999.51	51.1946	7,999.51	47.2569	7,999.51	48.404
8,282.23	86.2819	8,282.23	85.9117	8,282.23	85.4136	8,282.23	84.6365	8,282.23	84.2715	8,282.23	82.8086	8,282.23	81.6599	8,282.23	79.8904	8,282.23	78.8428	8,282.23	77.1551	8,282.23	74.7354	8,282.23	72.1471	8,282.23	75.3086	8,282.23	69.0984	8,282.23	60.727	8,282.23	65.3127	8,282.23	59.9067	8,282.23	62.104	8,282.23	57.8127	8,282.23	57.7391	8,282.23	47.9227	8,282.23	56.759	8,282.23	63.0365	8,282.23	54.776	8,282.23	41.7902	8,282.23	54.0808	8,282.23	46.4554	8,282.23	53.8912	8,282.23	46.6564	8,282.23	54.425	8,282.23	52.9041	8,282.23	48.8304	8,282.23	44.4211	8,282.23	49.1701	8,282.23	46.6596	8,282.23	46.7689
8,573.73	86.3072	8,573.73	85.7126	8,573.73	85.565	8,573.73	84.1982	8,573.73	84.3957	8,573.73	82.4335	8,573.73	82.4196	8,573.73	79.3865	8,573.73	79.5972	8,573.73	76.3638	8,573.73	75.5642	8,573.73	72.0204	8,573.73	74.669	8,573.73	68.1879	8,573.73	62.3951	8,573.73	63.7005	8,573.73	64.8201	8,573.73	59.8809	8,573.73	63.7983	8,573.73	57.7213	8,573.73	51.1038	8,573.73	56.1217	8,573.73	61.0477	8,573.73	54.1077	8,573.73	44.2911	8,573.73	54.6336	8,573.73	34.7749	8,573.73	51.67	8,573.73	46.1236	8,573.73	54.7609	8,573.73	51.4134	8,573.73	47.6088	8,573.73	41.9072	8,573.73	49.7555	8,573.73	43.4142	8,573.73	47.9452
8,876.95	86.3793	8,876.95	86.0117	8,876.95	85.7809	8,876.95	84.8164	8,876.95	84.2712	8,876.95	82.7451	8,876.95	81.5017	8,876.95	80.7053	8,876.95	78.7162	8,876.95	76.8699	8,876.95	74.8633	8,876.95	73.0754	8,876.95	70.847	8,876.95	69.1604	8,876.95	64.2644	8,876.95	64.1828	8,876.95	60.7526	8,876.95	60.372	8,876.95	61.2187	8,876.95	58.2443	8,876.95	48.8401	8,876.95	56.2663	8,876.95	57.5707	8,876.95	53.1193	8,876.95	42.8756	8,876.95	53.7205	8,876.95	39.9051	8,876.95	52.958	8,876.95	42.3236	8,876.95	56.4906	8,876.95	46.09	8,876.95	49.8747	8,876.95	44.8353	8,876.95	50.0693	8,876.95	45.5617	8,876.95	43.3314
9,188.96	86.4301	9,188.96	86.5689	9,188.96	85.4576	9,188.96	85.8353	9,188.96	83.7241	9,188.96	83.8466	9,188.96	80.7046	9,188.96	82.0467	9,188.96	76.3155	9,188.96	78.2236	9,188.96	73.8802	9,188.96	74.0596	9,188.96	65.8783	9,188.96	69.695	9,188.96	63.3943	9,188.96	66.2697	9,188.96	53.4154	9,188.96	61.7946	9,188.96	55.1067	9,188.96	59.1331	9,188.96	44.0985	9,188.96	57.5299	9,188.96	61.3929	9,188.96	53.9499	9,188.96	43.5836	9,188.96	53.3882	9,188.96	43.1782	9,188.96	53.9557	9,188.96	41.5964	9,188.96	58.3808	9,188.96	41.0999	9,188.96	52.79	9,188.96	25.3388	9,188.96	51.9928	9,188.96	42.3868	9,188.96	45.9725
9,514.16	86.5885	9,514.16	86.9262	9,514.16	85.2891	9,514.16	86.5568	9,514.16	83.4011	9,514.16	84.4831	9,514.16	80.1817	9,514.16	82.6872	9,514.16	76.2636	9,514.16	78.971	9,514.16	73.474	9,514.16	74.1562	9,514.16	67.8086	9,514.16	70.0481	9,514.16	61.8594	9,514.16	66.9235	9,514.16	59.9728	9,514.16	61.9117	9,514.16	51.0735	9,514.16	59.7649	9,514.16	48.8622	9,514.16	58.2197	9,514.16	61.5533	9,514.16	54.9567	9,514.16	31.7508	9,514.16	52.5068	9,514.16	40.0917	9,514.16	55.6385	9,514.16	45.6578	9,514.16	58.9521	9,514.16	48.0976	9,514.16	51.036	9,514.16	44.4549	9,514.16	52.1433	9,514.16	43.794	9,514.16	40.3577
9,849.61	86.8665	9,849.61	87.1362	9,849.61	85.3492	9,849.61	86.9093	9,849.61	83.6222	9,849.61	84.7575	9,849.61	80.536	9,849.61	82.7578	9,849.61	77.2094	9,849.61	79.1711	9,849.61	73.549	9,849.61	74.2079	9,849.61	68.6019	9,849.61	70.1473	9,849.61	66.0604	9,849.61	66.3316	9,849.61	60.2597	9,849.61	60.9244	9,849.61	54.1413	9,849.61	59.0671	9,849.61	54.3735	9,849.61	57.6709	9,849.61	63.6053	9,849.61	54.5911	9,849.61	46.2903	9,849.61	52.678	9,849.61	41.5214	9,849.61	55.5349	9,849.61	48.4881	9,849.61	58.2264	9,849.61	49.8951	9,849.61	52.2853	9,849.61	48.4277	9,849.61	52.6447	9,849.61	44.3812	9,849.61	38.2098
10,196.8	87.025	10,196.8	87.2984	10,196.8	85.5796	10,196.8	87.1154	10,196.8	83.7295	10,196.8	84.9117	10,196.8	80.7543	10,196.8	82.7298	10,196.8	77.4491	10,196.8	79.3476	10,196.8	72.9961	10,196.8	74.4461	10,196.8	69.3831	10,196.8	69.8056	10,196.8	65.5704	10,196.8	65.918	10,196.8	58.8398	10,196.8	60.5788	10,196.8	51.5977	10,196.8	58.2744	10,196.8	58.0089	10,196.8	56.6045	10,196.8	64.8109	10,196.8	54.5648	10,196.8	45.0812	10,196.8	54.2	10,196.8	50.6572	10,196.8	55.8391	10,196.8	47.2634	10,196.8	57.8592	10,196.8	49.5563	10,196.8	53.2668	10,196.8	48.182	10,196.8	53.382	10,196.8	45.832	10,196.8	44.651
10,555.7	87.0037	10,555.7	87.4399	10,555.7	85.5057	10,555.7	87.2159	10,555.7	83.5609	10,555.7	85.0263	10,555.7	80.9778	10,555.7	82.7296	10,555.7	76.4659	10,555.7	79.1585	10,555.7	73.5224	10,555.7	74.5412	10,555.7	67.6289	10,555.7	69.1915	10,555.7	65.8684	10,555.7	65.4954	10,555.7	61.1978	10,555.7	60.7182	10,555.7	47.8812	10,555.7	58.7473	10,555.7	59.2951	10,555.7	54.8572	10,555.7	65.9058	10,555.7	53.103	10,555.7	49.026	10,555.7	53.5709	10,555.7	49.293	10,555.7	55.713	10,555.7	47.1201	10,555.7	57.1068	10,555.7	44.1589	10,555.7	53.4373	10,555.7	47.2922	10,555.7	53.7625	10,555.7	44.9527	10,555.7	44.9595
10,927.7	86.688	10,927.7	87.205	10,927.7	85.239	10,927.7	87.1332	10,927.7	83.3823	10,927.7	84.8016	10,927.7	80.8596	10,927.7	82.3583	10,927.7	76.6772	10,927.7	78.6244	10,927.7	74.8568	10,927.7	73.9621	10,927.7	68.0418	10,927.7	68.9145	10,927.7	67.4522	10,927.7	64.6193	10,927.7	60.2016	10,927.7	59.2871	10,927.7	46.9816	10,927.7	57.9614	10,927.7	61.1209	10,927.7	54.5981	10,927.7	65.7997	10,927.7	52.5476	10,927.7	49.7976	10,927.7	52.6557	10,927.7	51.7147	10,927.7	55.7233	10,927.7	36.3317	10,927.7	56.1568	10,927.7	44.0992	10,927.7	53.7143	10,927.7	41.529	10,927.7	53.5476	10,927.7	40.7976	10,927.7	46.9445
11,313	86.3912	11,313	86.6726	11,313	85.3231	11,313	86.529	11,313	83.4993	11,313	84.0732	11,313	81.1355	11,313	81.6025	11,313	77.3519	11,313	77.6437	11,313	73.9753	11,313	72.481	11,313	71.3393	11,313	67.5895	11,313	66.7973	11,313	63.4763	11,313	61.9683	11,313	57.4385	11,313	46.204	11,313	56.3244	11,313	62.0305	11,313	53.0124	11,313	67.228	11,313	51.2467	11,313	53.4277	11,313	52.333	11,313	49.4256	11,313	52.7067	11,313	45.1117	11,313	53.3942	11,313	43.7202	11,313	52.7224	11,313	41.4938	11,313	52.1863	11,313	40.2085	11,313	45.3646
11,712.9	86.2516	11,712.9	86.1956	11,712.9	85.4329	11,712.9	85.8098	11,712.9	83.8176	11,712.9	83.4833	11,712.9	81.4917	11,712.9	80.7839	11,712.9	78.1587	11,712.9	76.7363	11,712.9	71.0898	11,712.9	71.5925	11,712.9	73.2645	11,712.9	66.1123	11,712.9	65.8499	11,712.9	62.0701	11,712.9	64.3207	11,712.9	56.2361	11,712.9	49.4273	11,712.9	56.5078	11,712.9	63.5374	11,712.9	50.5794	11,712.9	68.8029	11,712.9	50.3736	11,712.9	50.2559	11,712.9	51.9023	11,712.9	51.6955	11,712.9	52.3644	11,712.9	44.291	11,712.9	51.7088	11,712.9	44.7302	11,712.9	51.59	11,712.9	40.5207	11,712.9	52.1865	11,712.9	41.4206	11,712.9	45.9609
12,126	86.291	12,126	86.0415	12,126	85.6805	12,126	85.2242	12,126	84.2059	12,126	82.8461	12,126	81.848	12,126	80.0595	12,126	78.3273	12,126	75.8272	12,126	73.0794	12,126	70.8937	12,126	71.1267	12,126	64.8847	12,126	65.6179	12,126	60.9828	12,126	62.6719	12,126	56.4876	12,126	42.2981	12,126	55.7852	12,126	64.4618	12,126	50.3752	12,126	70.1596	12,126	48.625	12,126	53.7364	12,126	49.7715	12,126	51.9635	12,126	51.9191	12,126	45.9238	12,126	50.149	12,126	43.6796	12,126	51.0319	12,126	47.9495	12,126	50.0301	12,126	46.0745	12,126	46.4984
12,553.7	86.6552	12,553.7	86.1235	12,553.7	86.0047	12,553.7	85.2495	12,553.7	84.6258	12,553.7	82.5514	12,553.7	82.275	12,553.7	79.6333	12,553.7	77.8568	12,553.7	75.0865	12,553.7	75.118	12,553.7	70.4665	12,553.7	69.2373	12,553.7	65.2854	12,553.7	67.1835	12,553.7	60.3006	12,553.7	64.9585	12,553.7	55.3921	12,553.7	49.8556	12,553.7	55.1727	12,553.7	66.182	12,553.7	47.3612	12,553.7	71.3548	12,553.7	47.4736	12,553.7	55.6848	12,553.7	48.0376	12,553.7	52.4705	12,553.7	50.0322	12,553.7	44.7701	12,553.7	49.6789	12,553.7	46.6222	12,553.7	48.9085	12,553.7	46.8045	12,553.7	44.3124	12,553.7	47.8479	12,553.7	46.0767
12,996.1	87.0274	12,996.1	86.5753	12,996.1	86.5366	12,996.1	85.5652	12,996.1	85.0396	12,996.1	82.8212	12,996.1	82.2881	12,996.1	79.8816	12,996.1	77.4719	12,996.1	75.3601	12,996.1	74.9265	12,996.1	70.6486	12,996.1	68.9838	12,996.1	65.3042	12,996.1	60.3837	12,996.1	60.1535	12,996.1	64.3559	12,996.1	53.4756	12,996.1	57.3008	12,996.1	54.6688	12,996.1	66.355	12,996.1	42.9762	12,996.1	71.106	12,996.1	50.3218	12,996.1	53.9879	12,996.1	49.8558	12,996.1	50.814	12,996.1	50.818	12,996.1	47.9159	12,996.1	49.5412	12,996.1	47.0186	12,996.1	49.8711	12,996.1	50.9346	12,996.1	41.7156	12,996.1	49.8347	12,996.1	40.3345
13,454.6	87.3672	13,454.6	87.094	13,454.6	86.9742	13,454.6	85.7817	13,454.6	85.2998	13,454.6	82.7934	13,454.6	82.3311	13,454.6	79.8135	13,454.6	77.8835	13,454.6	75.1662	13,454.6	74.6906	13,454.6	71.0705	13,454.6	70.538	13,454.6	65.0537	13,454.6	63.0475	13,454.6	58.869	13,454.6	62.834	13,454.6	52.4155	13,454.6	57.2105	13,454.6	55.5466	13,454.6	66.821	13,454.6	39.0205	13,454.6	71.8358	13,454.6	49.8413	13,454.6	57.0484	13,454.6	49.2641	13,454.6	52.5673	13,454.6	50.599	13,454.6	48.2758	13,454.6	48.9669	13,454.6	49.0831	13,454.6	48.8059	13,454.6	53.7228	13,454.6	43.5081	13,454.6	51.9986	13,454.6	44.7605
13,929.2	87.4278	13,929.2	87.1227	13,929.2	87.3693	13,929.2	85.7542	13,929.2	85.7127	13,929.2	82.8738	13,929.2	82.6941	13,929.2	79.8752	13,929.2	78.666	13,929.2	75.3689	13,929.2	74.5721	13,929.2	71.3428	13,929.2	72.2299	13,929.2	64.5794	13,929.2	60.7862	13,929.2	59.1448	13,929.2	63.6841	13,929.2	52.6555	13,929.2	57.988	13,929.2	56.2886	13,929.2	66.6296	13,929.2	34.2174	13,929.2	72.2466	13,929.2	50.5409	13,929.2	58.0154	13,929.2	49.4966	13,929.2	54.3564	13,929.2	49.9962	13,929.2	48.0299	13,929.2	48.4346	13,929.2	50.2845	13,929.2	48.1624	13,929.2	54.4432	13,929.2	41.9206	13,929.2	52.3582	13,929.2	50.0725
14,419.9	86.6084	14,419.9	86.8781	14,419.9	86.9073	14,419.9	85.7054	14,419.9	85.1161	14,419.9	83.3301	14,419.9	81.9405	14,419.9	80.3929	14,419.9	77.7333	14,419.9	75.7559	14,419.9	72.8451	14,419.9	71.6752	14,419.9	70.7686	14,419.9	65.0991	14,419.9	61.4777	14,419.9	58.2517	14,419.9	54.7519	14,419.9	52.973	14,419.9	59.3983	14,419.9	56.5462	14,419.9	65.2112	14,419.9	37.7849	14,419.9	71.3504	14,419.9	49.823	14,419.9	57.6923	14,419.9	48.2062	14,419.9	54.3098	14,419.9	48.8523	14,419.9	44.7062	14,419.9	48.8857	14,419.9	52.3464	14,419.9	47.7235	14,419.9	55.0285	14,419.9	43.352	14,419.9	54.2332	14,419.9	52.2761
14,928.2	85.4357	14,928.2	85.9009	14,928.2	85.7698	14,928.2	84.6266	14,928.2	83.9214	14,928.2	82.4219	14,928.2	80.4764	14,928.2	79.4772	14,928.2	76.1027	14,928.2	74.4633	14,928.2	70.7112	14,928.2	69.6622	14,928.2	68.8982	14,928.2	63.5913	14,928.2	57.0321	14,928.2	55.7168	14,928.2	54.4137	14,928.2	51.5634	14,928.2	57.6352	14,928.2	54.9703	14,928.2	62.7396	14,928.2	42.6809	14,928.2	69.4792	14,928.2	49.1164	14,928.2	57.2033	14,928.2	46.0353	14,928.2	53.3271	14,928.2	49.2443	14,928.2	47.6945	14,928.2	49.4909	14,928.2	53.6739	14,928.2	47.6951	14,928.2	57.0929	14,928.2	48.956	14,928.2	56.623	14,928.2	52.4274
15,455.6	85.0295	15,455.6	85.4809	15,455.6	85.4266	15,455.6	83.795	15,455.6	83.2735	15,455.6	81.4901	15,455.6	79.4939	15,455.6	78.4429	15,455.6	74.6993	15,455.6	73.2934	15,455.6	70.3963	15,455.6	68.4324	15,455.6	68.7964	15,455.6	61.6199	15,455.6	58.9986	15,455.6	55.617	15,455.6	48.7649	15,455.6	50.1812	15,455.6	56.8121	15,455.6	53.3863	15,455.6	61.2513	15,455.6	46.048	15,455.6	68.4503	15,455.6	48.9629	15,455.6	56.1991	15,455.6	46.4128	15,455.6	52.3707	15,455.6	48.251	15,455.6	49.0474	15,455.6	49.2288	15,455.6	54.2337	15,455.6	47.4145	15,455.6	57.6595	15,455.6	51.0341	15,455.6	57.6304	15,455.6	54.1457
16,000.5	85.4503	16,000.5	85.6151	16,000.5	85.2491	16,000.5	83.5205	16,000.5	82.3711	16,000.5	80.707	16,000.5	77.9947	16,000.5	77.0186	16,000.5	72.1921	16,000.5	71.2035	16,000.5	68.9792	16,000.5	66.0994	16,000.5	65.0283	16,000.5	59.6779	16,000.5	57.5889	16,000.5	51.9406	16,000.5	47.356	16,000.5	48.8227	16,000.5	53.5567	16,000.5	51.469	16,000.5	58.8672	16,000.5	44.6307	16,000.5	66.9298	16,000.5	47.3914	16,000.5	55.4559	16,000.5	44.8159	16,000.5	51.4189	16,000.5	44.9705	16,000.5	47.3898	16,000.5	48.7505	16,000.5	54.501	16,000.5	48.8967	16,000.5	57.9744	16,000.5	50.9881	16,000.5	58.4089	16,000.5	54.3231
16,564.5	86.5474	16,564.5	86.3715	16,564.5	85.8844	16,564.5	84.2021	16,564.5	82.4284	16,564.5	80.848	16,564.5	77.6685	16,564.5	76.6513	16,564.5	72.2635	16,564.5	70.4211	16,564.5	67.3115	16,564.5	64.9297	16,564.5	66.0406	16,564.5	59.0988	16,564.5	60.4962	16,564.5	52.142	16,564.5	45.8615	16,564.5	48.8987	16,564.5	53.1361	16,564.5	50.5619	16,564.5	56.4869	16,564.5	48.799	16,564.5	66.4616	16,564.5	47.1015	16,564.5	56.4957	16,564.5	44.0041	16,564.5	52.9345	16,564.5	45.1221	16,564.5	49.1064	16,564.5	48.8344	16,564.5	56.0144	16,564.5	51.2937	16,564.5	59.1837	16,564.5	51.447	16,564.5	57.7709	16,564.5	51.4196
17,148.9	86.5081	17,148.9	85.9617	17,148.9	85.0402	17,148.9	83.8711	17,148.9	80.476	17,148.9	79.5901	17,148.9	74.8891	17,148.9	74.2886	17,148.9	68.3898	17,148.9	67.2397	17,148.9	62.7564	17,148.9	61.7428	17,148.9	62.3859	17,148.9	56.3531	17,148.9	58.0744	17,148.9	48.1152	17,148.9	51.2046	17,148.9	45.9471	17,148.9	47.6445	17,148.9	48.6463	17,148.9	52.5256	17,148.9	47.8509	17,148.9	64.6449	17,148.9	45.0933	17,148.9	53.8106	17,148.9	42.3438	17,148.9	50.1919	17,148.9	42.7369	17,148.9	47.4692	17,148.9	46.3014	17,148.9	54.1613	17,148.9	49.8355	17,148.9	56.9273	17,148.9	50.6815	17,148.9	55.8	17,148.9	53.6055
17,752.4	85.2117	17,752.4	84.377	17,752.4	82.2351	17,752.4	83.2159	17,752.4	76.3033	17,752.4	78.2726	17,752.4	70.1571	17,752.4	72.3884	17,752.4	64.4167	17,752.4	64.5464	17,752.4	61.9798	17,752.4	60.5232	17,752.4	62.7191	17,752.4	55.3474	17,752.4	60.6016	17,752.4	48.6108	17,752.4	52.3361	17,752.4	45.6879	17,752.4	42.8291	17,752.4	47.1801	17,752.4	47.1946	17,752.4	47.4949	17,752.4	61.9785	17,752.4	46.7574	17,752.4	51.6854	17,752.4	43.4161	17,752.4	47.4878	17,752.4	42.5264	17,752.4	47.6442	17,752.4	45.2475	17,752.4	54.5339	17,752.4	49.7381	17,752.4	58.0654	17,752.4	52.9083	17,752.4	59.6386	17,752.4	55.6266
18,379.4	84.1332	18,379.4	82.1596	18,379.4	80.943	18,379.4	82.4454	18,379.4	76.6515	18,379.4	76.9715	18,379.4	73.6651	18,379.4	70.2493	18,379.4	68.9418	18,379.4	61.7197	18,379.4	67.513	18,379.4	57.008	18,379.4	68.1008	18,379.4	51.6022	18,379.4	64.9399	18,379.4	47.0548	18,379.4	60.0221	18,379.4	42.64	18,379.4	49.9676	18,379.4	50.2357	18,379.4	45.487	18,379.4	50.1416	18,379.4	65.3255	18,379.4	48.3908	18,379.4	51.016	18,379.4	48.0513	18,379.4	53.3568	18,379.4	46.1752	18,379.4	54.2489	18,379.4	47.4132	18,379.4	59.933	18,379.4	52.69	18,379.4	63.0191	18,379.4	55.3158	18,379.4	62.9262	18,379.4	56.0304
19,026.9	81.8357	19,026.9	76.2809	19,026.9	80.953	19,026.9	78.0327	19,026.9	78.4263	19,026.9	70.8974	19,026.9	76.2486	19,026.9	64.607	19,026.9	71.2041	19,026.9	58.5673	19,026.9	68.2035	19,026.9	57.421	19,026.9	69.9543	19,026.9	52.4237	19,026.9	67.0117	19,026.9	50.1488	19,026.9	62.1848	19,026.9	44.5846	19,026.9	50.4947	19,026.9	51.3445	19,026.9	42.2577	19,026.9	53.5795	19,026.9	66.3027	19,026.9	50.8734	19,026.9	54.7636	19,026.9	51.1363	19,026.9	56.5989	19,026.9	49.4564	19,026.9	56.3591	19,026.9	49.6504	19,026.9	62.186	19,026.9	54.385	19,026.9	65.0302	19,026.9	57.5238	19,026.9	63.6731	19,026.9	58.3953
19,697.8	73.0348	19,697.8	63.341	19,697.8	74.2536	19,697.8	68.0549	19,697.8	72.3027	19,697.8	63.8437	19,697.8	70.5609	19,697.8	62.7104	19,697.8	66.1192	19,697.8	57.7737	19,697.8	60.9051	19,697.8	55.4562	19,697.8	63.2143	19,697.8	48.6992	19,697.8	59.799	19,697.8	47.3048	19,697.8	57.2649	19,697.8	42.9692	19,697.8	45.5991	19,697.8	45.2136	19,697.8	38.5299	19,697.8	48.5733	19,697.8	59.6744	19,697.8	45.3642	19,697.8	50.7948	19,697.8	45.5329	19,697.8	50.9902	19,697.8	44.2399	19,697.8	50.7027	19,697.8	44.9212	19,697.8	56.8773	19,697.8	48.4675	19,697.8	59.5661	19,697.8	52.0394	19,697.8	58.5278	19,697.8	54.131
19,999.5	63.9473	19,999.5	56.4526	19,999.5	68.8853	19,999.5	62.2655	19,999.5	67.3759	19,999.5	62.2576	19,999.5	66.247	19,999.5	61.2929	19,999.5	60.9868	19,999.5	56.2363	19,999.5	55.245	19,999.5	53.6276	19,999.5	57.4158	19,999.5	44.7785	19,999.5	56.729	19,999.5	42.7418	19,999.5	53.434	19,999.5	39.2643	19,999.5	41.4564	19,999.5	41.1239	19,999.5	42.5379	19,999.5	43.6272	19,999.5	53.0504	19,999.5	43.1729	19,999.5	47.6551	19,999.5	42.8744	19,999.5	47.7048	19,999.5	38.9844	19,999.5	46.9019	19,999.5	39.0016	19,999.5	51.8867	19,999.5	42.6054	19,999.5	55.3305	19,999.5	47.9948	19,999.5	54.6691	19,999.5	49.5929
