"SPL Horizontal"
"On-Axis"		"10°"		"-10°"		"20°"		"-20°"		"30°"		"-30°"		"40°"		"-40°"		"50°"		"-50°"		"60°"		"-60°"		"70°"		"-70°"		"80°"		"-80°"		"90°"		"-90°"		"100°"		"-100°"		"110°"		"-110°"		"120°"		"-120°"		"130°"		"-130°"		"140°"		"-140°"		"150°"		"-150°"		"160°"		"-160°"		"170°"		"-170°"		"180°"
"Frequency / Hz"	"Sound Pressure Level / dB (re 20 µPa/V)  [2.83  V @ 1. m]"	"Frequency / Hz"	"Sound Pressure Level / dB (re 20 µPa/V)  [2.83  V @ 1. m]"	"Frequency / Hz"	"Sound Pressure Level / dB (re 20 µPa/V)  [2.83  V @ 1. m]"	"Frequency / Hz"	"Sound Pressure Level / dB (re 20 µPa/V)  [2.83  V @ 1. m]"	"Frequency / Hz"	"Sound Pressure Level / dB (re 20 µPa/V)  [2.83  V @ 1. m]"	"Frequency / Hz"	"Sound Pressure Level / dB (re 20 µPa/V)  [2.83  V @ 1. m]"	"Frequency / Hz"	"Sound Pressure Level / dB (re 20 µPa/V)  [2.83  V @ 1. m]"	"Frequency / Hz"	"Sound Pressure Level / dB (re 20 µPa/V)  [2.83  V @ 1. m]"	"Frequency / Hz"	"Sound Pressure Level / dB (re 20 µPa/V)  [2.83  V @ 1. m]"	"Frequency / Hz"	"Sound Pressure Level / dB (re 20 µPa/V)  [2.83  V @ 1. m]"	"Frequency / Hz"	"Sound Pressure Level / dB (re 20 µPa/V)  [2.83  V @ 1. m]"	"Frequency / Hz"	"Sound Pressure Level / dB (re 20 µPa/V)  [2.83  V @ 1. m]"	"Frequency / Hz"	"Sound Pressure Level / dB (re 20 µPa/V)  [2.83  V @ 1. m]"	"Frequency / Hz"	"Sound Pressure Level / dB (re 20 µPa/V)  [2.83  V @ 1. m]"	"Frequency / Hz"	"Sound Pressure Level / dB (re 20 µPa/V)  [2.83  V @ 1. m]"	"Frequency / Hz"	"Sound Pressure Level / dB (re 20 µPa/V)  [2.83  V @ 1. m]"	"Frequency / Hz"	"Sound Pressure Level / dB (re 20 µPa/V)  [2.83  V @ 1. m]"	"Frequency / Hz"	"Sound Pressure Level / dB (re 20 µPa/V)  [2.83  V @ 1. m]"	"Frequency / Hz"	"Sound Pressure Level / dB (re 20 µPa/V)  [2.83  V @ 1. m]"	"Frequency / Hz"	"Sound Pressure Level / dB (re 20 µPa/V)  [2.83  V @ 1. m]"	"Frequency / Hz"	"Sound Pressure Level / dB (re 20 µPa/V)  [2.83  V @ 1. m]"	"Frequency / Hz"	"Sound Pressure Level / dB (re 20 µPa/V)  [2.83  V @ 1. m]"	"Frequency / Hz"	"Sound Pressure Level / dB (re 20 µPa/V)  [2.83  V @ 1. m]"	"Frequency / Hz"	"Sound Pressure Level / dB (re 20 µPa/V)  [2.83  V @ 1. m]"	"Frequency / Hz"	"Sound Pressure Level / dB (re 20 µPa/V)  [2.83  V @ 1. m]"	"Frequency / Hz"	"Sound Pressure Level / dB (re 20 µPa/V)  [2.83  V @ 1. m]"	"Frequency / Hz"	"Sound Pressure Level / dB (re 20 µPa/V)  [2.83  V @ 1. m]"	"Frequency / Hz"	"Sound Pressure Level / dB (re 20 µPa/V)  [2.83  V @ 1. m]"	"Frequency / Hz"	"Sound Pressure Level / dB (re 20 µPa/V)  [2.83  V @ 1. m]"	"Frequency / Hz"	"Sound Pressure Level / dB (re 20 µPa/V)  [2.83  V @ 1. m]"	"Frequency / Hz"	"Sound Pressure Level / dB (re 20 µPa/V)  [2.83  V @ 1. m]"	"Frequency / Hz"	"Sound Pressure Level / dB (re 20 µPa/V)  [2.83  V @ 1. m]"	"Frequency / Hz"	"Sound Pressure Level / dB (re 20 µPa/V)  [2.83  V @ 1. m]"	"Frequency / Hz"	"Sound Pressure Level / dB (re 20 µPa/V)  [2.83  V @ 1. m]"	"Frequency / Hz"	"Sound Pressure Level / dB (re 20 µPa/V)  [2.83  V @ 1. m]"	"Frequency / Hz"	"Sound Pressure Level / dB (re 20 µPa/V)  [2.83  V @ 1. m]"
20.5078	51.7749	20.5078	52.0576	20.5078	51.5149	20.5078	52.3568	20.5078	51.2899	20.5078	52.671	20.5078	51.1182	20.5078	53.0025	20.5078	51.0245	20.5078	53.356	20.5078	51.0369	20.5078	53.7368	20.5078	51.1827	20.5078	54.1477	20.5078	51.4817	20.5078	54.5857	20.5078	51.9403	20.5078	55.0396	20.5078	52.5464	20.5078	55.4907	20.5078	53.2685	20.5078	55.9166	20.5078	54.0561	20.5078	56.2973	20.5078	54.8474	20.5078	56.6209	20.5078	55.5807	20.5078	56.8847	20.5078	56.2074	20.5078	57.0911	20.5078	56.6983	20.5078	57.2415	20.5078	57.0443	20.5078	57.3295	20.5078	57.2524	20.5078	57.3402
21.9727	36.9113	21.9727	35.6057	21.9727	37.7266	21.9727	33.5844	21.9727	38.173	21.9727	30.3328	21.9727	38.3264	21.9727	24.2062	21.9727	38.2372	21.9727	16.4417	21.9727	37.9374	21.9727	27.6047	21.9727	37.4487	21.9727	32.879	21.9727	36.83	21.9727	36.1759	21.9727	36.3346	21.9727	38.5465	21.9727	36.6122	21.9727	40.3955	21.9727	38.1942	21.9727	41.9392	21.9727	40.5766	21.9727	43.3125	21.9727	42.9656	21.9727	44.5895	21.9727	44.9936	21.9727	45.783	21.9727	46.5725	21.9727	46.8558	21.9727	47.7087	21.9727	47.7461	21.9727	48.4304	21.9727	48.3921	21.9727	48.7667	21.9727	48.7445
23.4375	54.5292	23.4375	54.4735	23.4375	54.5954	23.4375	54.4316	23.4375	54.6759	23.4375	54.4131	23.4375	54.7796	23.4375	54.4333	23.4375	54.9181	23.4375	54.5094	23.4375	55.1006	23.4375	54.6555	23.4375	55.3287	23.4375	54.8764	23.4375	55.5924	23.4375	55.1628	23.4375	55.8697	23.4375	55.4907	23.4375	56.1308	23.4375	55.8253	23.4375	56.3453	23.4375	56.1289	23.4375	56.4899	23.4375	56.368	23.4375	56.5538	23.4375	56.5203	23.4375	56.5418	23.4375	56.5789	23.4375	56.474	23.4375	56.5544	23.4375	56.3827	23.4375	56.4739	23.4375	56.305	23.4375	56.3755	23.4375	56.2722	23.4375	56.2986
24.9023	55.6742	24.9023	55.6159	24.9023	55.7645	24.9023	55.5958	24.9023	55.8868	24.9023	55.6249	24.9023	56.0454	24.9023	55.7178	24.9023	56.2466	24.9023	55.8873	24.9023	56.4944	24.9023	56.1401	24.9023	56.7867	24.9023	56.4713	24.9023	57.1126	24.9023	56.8629	24.9023	57.4524	24.9023	57.2855	24.9023	57.7811	24.9023	57.7036	24.9023	58.0733	24.9023	58.0811	24.9023	58.3083	24.9023	58.3879	24.9023	58.4745	24.9023	58.6046	24.9023	58.5712	24.9023	58.7263	24.9023	58.6097	24.9023	58.7631	24.9023	58.6111	24.9023	58.7389	24.9023	58.6015	24.9023	58.6857	24.9023	58.6049	24.9023	58.6342
26.3672	59.8857	26.3672	59.8306	26.3672	59.9918	26.3672	59.8331	26.3672	60.1463	26.3672	59.903	26.3672	60.3497	26.3672	60.0507	26.3672	60.6034	26.3672	60.2838	26.3672	60.9078	26.3672	60.6031	26.3672	61.2589	26.3672	60.9991	26.3672	61.6469	26.3672	61.4518	26.3672	62.0558	26.3672	61.9327	26.3672	62.4645	26.3672	62.409	26.3672	62.8504	26.3672	62.849	26.3672	63.1923	26.3672	63.2264	26.3672	63.4742	26.3672	63.5248	26.3672	63.6881	26.3672	63.7394	26.3672	63.8354	26.3672	63.8774	26.3672	63.9257	26.3672	63.9545	26.3672	63.974	26.3672	63.9901	26.3672	63.9957	26.3672	64.0008
27.832	66.2271	27.832	66.2694	27.832	66.1892	27.832	66.3174	27.832	66.1572	27.832	66.3747	27.832	66.1347	27.832	66.4464	27.832	66.128	27.832	66.5387	27.832	66.1447	27.832	66.6568	27.832	66.1926	27.832	66.8035	27.832	66.2774	27.832	66.9768	27.832	66.4004	27.832	67.1686	27.832	66.5563	27.832	67.3645	27.832	66.7329	27.832	67.5455	27.832	66.9137	27.832	67.6922	27.832	67.0811	27.832	67.789	27.832	67.222	27.832	67.8291	27.832	67.3313	27.832	67.8162	27.832	67.4132	27.832	67.7635	27.832	67.4791	27.832	67.6898	27.832	67.5425	27.832	67.6127
29.2969	68.2285	29.2969	68.2533	29.2969	68.2314	29.2969	68.3066	29.2969	68.2636	29.2969	68.3916	29.2969	68.3294	29.2969	68.5135	29.2969	68.4345	29.2969	68.6787	29.2969	68.5853	29.2969	68.8923	29.2969	68.7872	29.2969	69.156	29.2969	69.0417	29.2969	69.4656	29.2969	69.3442	29.2969	69.8094	29.2969	69.6827	29.2969	70.1687	29.2969	70.0386	29.2969	70.5207	29.2969	70.3895	29.2969	70.8421	29.2969	70.7134	29.2969	71.1142	29.2969	70.9926	29.2969	71.3259	29.2969	71.2173	29.2969	71.4747	29.2969	71.3855	29.2969	71.5656	29.2969	71.5021	29.2969	71.6076	29.2969	71.5745	29.2969	71.6092
30.7617	71.0144	30.7617	71.0392	30.7617	71.0135	30.7617	71.0884	30.7617	71.0378	30.7617	71.165	30.7617	71.0907	30.7617	71.2733	30.7617	71.1772	30.7617	71.4182	30.7617	71.3028	30.7617	71.6035	30.7617	71.4722	30.7617	71.8302	30.7617	71.6872	30.7617	72.0945	30.7617	71.9447	30.7617	72.3866	30.7617	72.2355	30.7617	72.6912	30.7617	72.5443	30.7617	72.9892	30.7617	72.8519	30.7617	73.2613	30.7617	73.1383	30.7617	73.4921	30.7617	73.3867	30.7617	73.6723	30.7617	73.587	30.7617	73.8004	30.7617	73.7364	30.7617	73.8809	30.7617	73.8384	30.7617	73.9209	30.7617	73.8997	30.7617	73.9264
32.2266	73.1595	32.2266	73.1814	32.2266	73.1558	32.2266	73.2216	32.2266	73.1718	32.2266	73.2818	32.2266	73.2107	32.2266	73.3649	32.2266	73.2767	32.2266	73.474	32.2266	73.3742	32.2266	73.6116	32.2266	73.5066	32.2266	73.7782	32.2266	73.6747	32.2266	73.971	32.2266	73.8757	32.2266	74.1833	32.2266	74.1019	32.2266	74.4037	32.2266	74.3406	32.2266	74.6178	32.2266	74.5753	32.2266	74.8098	32.2266	74.7883	32.2266	74.9663	32.2266	74.9639	32.2266	75.0803	32.2266	75.0922	32.2266	75.1532	32.2266	75.1726	32.2266	75.1937	32.2266	75.2129	32.2266	75.2142	32.2266	75.2259	32.2266	75.2242
33.6914	76.0908	33.6914	76.1057	33.6914	76.093	33.6914	76.1377	33.6914	76.1132	33.6914	76.1885	33.6914	76.1536	33.6914	76.2601	33.6914	76.2171	33.6914	76.3551	33.6914	76.3069	33.6914	76.4756	33.6914	76.4254	33.6914	76.6219	33.6914	76.5734	33.6914	76.792	33.6914	76.7487	33.6914	76.9807	33.6914	76.9459	33.6914	77.1791	33.6914	77.1553	33.6914	77.3754	33.6914	77.3643	33.6914	77.5567	33.6914	77.5586	33.6914	77.7114	33.6914	77.7247	33.6914	77.8323	33.6914	77.8536	33.6914	77.9184	33.6914	77.9424	33.6914	77.974	33.6914	77.9948	33.6914	78.0063	33.6914	78.0183	33.6914	78.0207
35.1562	78.5514	35.1562	78.5563	35.1562	78.5632	35.1562	78.5783	35.1562	78.5922	35.1562	78.6188	35.1562	78.6398	35.1562	78.6798	35.1562	78.708	35.1562	78.7634	35.1562	78.7988	35.1562	78.8712	35.1562	78.9139	35.1562	79.0036	35.1562	79.0535	35.1562	79.1587	35.1562	79.2157	35.1562	79.3321	35.1562	79.3958	35.1562	79.5161	35.1562	79.5858	35.1562	79.7007	35.1562	79.7751	35.1562	79.8744	35.1562	79.9514	35.1562	80.0267	35.1562	80.1031	35.1562	80.1505	35.1562	80.2218	35.1562	80.2439	35.1562	80.3046	35.1562	80.3091	35.1562	80.3536	35.1562	80.3506	35.1562	80.3742	35.1562	80.3721
36.6211	81.0961	36.6211	81.0897	36.6211	81.1191	36.6211	81.1007	36.6211	81.1584	36.6211	81.1305	36.6211	81.2143	36.6211	81.1807	36.6211	81.2875	36.6211	81.253	36.6211	81.3786	36.6211	81.3484	36.6211	81.488	36.6211	81.4667	36.6211	81.6153	36.6211	81.6059	36.6211	81.7584	36.6211	81.7616	36.6211	81.9134	36.6211	81.9268	36.6211	82.0741	36.6211	82.0924	36.6211	82.2321	36.6211	82.2484	36.6211	82.3778	36.6211	82.3857	36.6211	82.502	36.6211	82.4981	36.6211	82.5981	36.6211	82.5839	36.6211	82.6639	36.6211	82.6451	36.6211	82.7013	36.6211	82.6856	36.6211	82.7146	36.6211	82.7086
38.0859	83.4238	38.0859	83.4311	38.0859	83.4314	38.0859	83.4535	38.0859	83.454	38.0859	83.4918	38.0859	83.492	38.0859	83.5467	38.0859	83.5458	38.0859	83.6187	38.0859	83.6162	38.0859	83.7082	38.0859	83.7033	38.0859	83.8142	38.0859	83.8066	38.0859	83.9346	38.0859	83.9246	38.0859	84.0658	38.0859	84.0541	38.0859	84.202	38.0859	84.1902	38.0859	84.3364	38.0859	84.3261	38.0859	84.4611	38.0859	84.4542	38.0859	84.5693	38.0859	84.5669	38.0859	84.6565	38.0859	84.6583	38.0859	84.7214	38.0859	84.726	38.0859	84.7654	38.0859	84.7706	38.0859	84.7913	38.0859	84.7946	38.0859	84.8009
39.5508	85.3733	39.5508	85.3819	39.5508	85.3775	39.5508	85.4034	39.5508	85.3946	39.5508	85.4383	39.5508	85.4249	39.5508	85.4868	39.5508	85.4687	39.5508	85.5494	39.5508	85.5264	39.5508	85.6259	39.5508	85.5983	39.5508	85.7153	39.5508	85.6837	39.5508	85.8161	39.5508	85.7815	39.5508	85.925	39.5508	85.8892	39.5508	86.0378	39.5508	86.0028	39.5508	86.1492	39.5508	86.1173	39.5508	86.253	39.5508	86.2264	39.5508	86.344	39.5508	86.324	39.5508	86.4184	39.5508	86.4053	39.5508	86.4747	39.5508	86.4675	39.5508	86.5136	39.5508	86.5104	39.5508	86.5362	39.5508	86.5352	39.5508	86.5435
41.0156	86.9125	41.0156	86.9186	41.0156	86.9171	41.0156	86.9357	41.0156	86.9325	41.0156	86.9638	41.0156	86.9589	41.0156	87.0033	41.0156	86.9964	41.0156	87.0542	41.0156	87.0452	41.0156	87.1164	41.0156	87.1051	41.0156	87.1893	41.0156	87.1757	41.0156	87.2715	41.0156	87.2557	41.0156	87.361	41.0156	87.3433	41.0156	87.4545	41.0156	87.4356	41.0156	87.5477	41.0156	87.5288	41.0156	87.6359	41.0156	87.6183	41.0156	87.7145	41.0156	87.6994	41.0156	87.7801	41.0156	87.7684	41.0156	87.831	41.0156	87.8228	41.0156	87.8667	41.0156	87.8618	41.0156	87.8876	41.0156	87.8854	41.0156	87.8939
42.4805	87.9716	42.4805	87.9794	42.4805	87.9721	42.4805	87.9956	42.4805	87.9809	42.4805	88.0203	42.4805	87.9981	42.4805	88.0536	42.4805	88.0238	42.4805	88.0957	42.4805	88.0582	42.4805	88.1462	42.4805	88.1012	42.4805	88.2048	42.4805	88.1525	42.4805	88.2704	42.4805	88.2115	42.4805	88.3413	42.4805	88.2771	42.4805	88.4151	42.4805	88.3473	42.4805	88.4883	42.4805	88.4196	42.4805	88.5573	42.4805	88.4908	42.4805	88.6184	42.4805	88.5574	42.4805	88.6687	42.4805	88.6165	42.4805	88.7068	42.4805	88.6657	42.4805	88.732	42.4805	88.7039	42.4805	88.7443	42.4805	88.7301	42.4805	88.7437
43.9453	88.6463	43.9453	88.6541	43.9453	88.6462	43.9453	88.6696	43.9453	88.6539	43.9453	88.693	43.9453	88.6693	43.9453	88.7243	43.9453	88.6924	43.9453	88.7633	43.9453	88.7233	43.9453	88.8098	43.9453	88.7619	43.9453	88.8632	43.9453	88.8078	43.9453	88.9226	43.9453	88.8605	43.9453	88.9864	43.9453	88.919	43.9453	89.0525	43.9453	88.9819	43.9453	89.1183	43.9453	89.0471	43.9453	89.1809	43.9453	89.1122	43.9453	89.2372	43.9453	89.1744	43.9453	89.2848	43.9453	89.2309	43.9453	89.322	43.9453	89.2797	43.9453	89.3476	43.9453	89.3185	43.9453	89.3605	43.9453	89.3457	43.9453	89.36
45.4102	88.9411	45.4102	88.955	45.4102	88.9342	45.4102	88.9757	45.4102	88.9342	45.4102	89.0031	45.4102	88.9411	45.4102	89.0369	45.4102	88.9549	45.4102	89.0769	45.4102	88.9754	45.4102	89.1222	45.4102	89.0025	45.4102	89.1722	45.4102	89.036	45.4102	89.2257	45.4102	89.0757	45.4102	89.2816	45.4102	89.1213	45.4102	89.3383	45.4102	89.1721	45.4102	89.394	45.4102	89.2273	45.4102	89.4466	45.4102	89.2858	45.4102	89.4939	45.4102	89.3458	45.4102	89.5337	45.4102	89.4052	45.4102	89.5639	45.4102	89.4613	45.4102	89.5824	45.4102	89.5109	45.4102	89.587	45.4102	89.5503	45.4102	89.5763
46.875	89.1408	46.875	89.1544	46.875	89.132	46.875	89.1724	46.875	89.1277	46.875	89.1947	46.875	89.1282	46.875	89.2207	46.875	89.1331	46.875	89.2501	46.875	89.1424	46.875	89.2822	46.875	89.156	46.875	89.3163	46.875	89.1737	46.875	89.3518	46.875	89.1957	46.875	89.3881	46.875	89.222	46.875	89.4246	46.875	89.2528	46.875	89.4606	46.875	89.2883	46.875	89.4951	46.875	89.3283	46.875	89.5268	46.875	89.3722	46.875	89.5542	46.875	89.4189	46.875	89.5751	46.875	89.4662	46.875	89.5871	46.875	89.5106	46.875	89.5875	46.875	89.548	46.875	89.5744
48.3398	89.2337	48.3398	89.2426	48.3398	89.2274	48.3398	89.2538	48.3398	89.2237	48.3398	89.2674	48.3398	89.2226	48.3398	89.2829	48.3398	89.2239	48.3398	89.3001	48.3398	89.2276	48.3398	89.3186	48.3398	89.2336	48.3398	89.3383	48.3398	89.242	48.3398	89.359	48.3398	89.2532	48.3398	89.3808	48.3398	89.2677	48.3398	89.4036	48.3398	89.2861	48.3398	89.4278	48.3398	89.3092	48.3398	89.4532	48.3398	89.3377	48.3398	89.4792	48.3398	89.3716	48.3398	89.5045	48.3398	89.4098	48.3398	89.5267	48.3398	89.45	48.3398	89.5424	48.3398	89.4884	48.3398	89.5481	48.3398	89.5201	48.3398	89.5408
51.2695	88.9164	51.2695	88.9223	51.2695	88.9102	51.2695	88.9277	51.2695	88.9036	51.2695	88.9325	51.2695	88.8966	51.2695	88.9364	51.2695	88.8892	51.2695	88.9393	51.2695	88.8813	51.2695	88.9411	51.2695	88.8731	51.2695	88.9418	51.2695	88.8648	51.2695	88.9418	51.2695	88.8571	51.2695	88.9419	51.2695	88.8509	51.2695	88.9429	51.2695	88.8476	51.2695	88.9461	51.2695	88.849	51.2695	88.9526	51.2695	88.8567	51.2695	88.963	51.2695	88.8722	51.2695	88.9766	51.2695	88.8954	51.2695	88.9913	51.2695	88.9245	51.2695	89.0032	51.2695	88.9554	51.2695	89.0076	51.2695	88.9827	51.2695	89.001
52.7344	88.8613	52.7344	88.8666	52.7344	88.8546	52.7344	88.8702	52.7344	88.8465	52.7344	88.8721	52.7344	88.837	52.7344	88.872	52.7344	88.8259	52.7344	88.8698	52.7344	88.8133	52.7344	88.8653	52.7344	88.7992	52.7344	88.8588	52.7344	88.784	52.7344	88.8507	52.7344	88.7684	52.7344	88.842	52.7344	88.7536	52.7344	88.8339	52.7344	88.7412	52.7344	88.8278	52.7344	88.7332	52.7344	88.8252	52.7344	88.7317	52.7344	88.8274	52.7344	88.7387	52.7344	88.8341	52.7344	88.7546	52.7344	88.8434	52.7344	88.778	52.7344	88.8515	52.7344	88.8048	52.7344	88.8539	52.7344	88.8295	52.7344	88.8468
54.1992	88.8467	54.1992	88.8434	54.1992	88.8477	54.1992	88.8378	54.1992	88.8466	54.1992	88.8298	54.1992	88.8432	54.1992	88.8191	54.1992	88.8374	54.1992	88.8057	54.1992	88.8292	54.1992	88.7898	54.1992	88.8184	54.1992	88.7716	54.1992	88.8054	54.1992	88.7522	54.1992	88.7907	54.1992	88.7327	54.1992	88.7754	54.1992	88.7151	54.1992	88.7607	54.1992	88.7018	54.1992	88.7487	54.1992	88.6953	54.1992	88.7413	54.1992	88.6975	54.1992	88.7403	54.1992	88.709	54.1992	88.7462	54.1992	88.728	54.1992	88.7576	54.1992	88.75	54.1992	88.7704	54.1992	88.7688	54.1992	88.7792	54.1992	88.7793
55.6641	88.8795	55.6641	88.877	55.6641	88.8809	55.6641	88.8731	55.6641	88.8811	55.6641	88.8676	55.6641	88.8799	55.6641	88.8603	55.6641	88.8772	55.6641	88.8508	55.6641	88.8727	55.6641	88.8389	55.6641	88.8663	55.6641	88.8249	55.6641	88.858	55.6641	88.8094	55.6641	88.8484	55.6641	88.7938	55.6641	88.8383	55.6641	88.7798	55.6641	88.8289	55.6641	88.7702	55.6641	88.8222	55.6641	88.7677	55.6641	88.82	55.6641	88.7745	55.6641	88.824	55.6641	88.7911	55.6641	88.8346	55.6641	88.8151	55.6641	88.8501	55.6641	88.8417	55.6641	88.8659	55.6641	88.864	55.6641	88.8764	55.6641	88.8764
58.5938	88.8147	58.5938	88.81	58.5938	88.815	58.5938	88.801	58.5938	88.8108	58.5938	88.7875	58.5938	88.8019	58.5938	88.7696	58.5938	88.7882	58.5938	88.7471	58.5938	88.7696	58.5938	88.7203	58.5938	88.7462	58.5938	88.6899	58.5938	88.7187	58.5938	88.6572	58.5938	88.6881	58.5938	88.6243	58.5938	88.6564	58.5938	88.5939	58.5938	88.6263	58.5938	88.5697	58.5938	88.6009	58.5938	88.5554	58.5938	88.5837	58.5938	88.5535	58.5938	88.5775	58.5938	88.5645	58.5938	88.5831	58.5938	88.5854	58.5938	88.5983	58.5938	88.6096	58.5938	88.6173	58.5938	88.6293	58.5938	88.6327	58.5938	88.6377
60.0586	88.7687	60.0586	88.7678	60.0586	88.7644	60.0586	88.7618	60.0586	88.755	60.0586	88.7507	60.0586	88.7402	60.0586	88.7346	60.0586	88.7199	60.0586	88.7133	60.0586	88.6942	60.0586	88.6873	60.0586	88.6633	60.0586	88.6571	60.0586	88.6283	60.0586	88.6242	60.0586	88.5906	60.0586	88.5905	60.0586	88.5527	60.0586	88.5589	60.0586	88.5178	60.0586	88.5328	60.0586	88.4896	60.0586	88.5158	60.0586	88.4722	60.0586	88.5107	60.0586	88.4684	60.0586	88.5177	60.0586	88.4789	60.0586	88.5336	60.0586	88.5011	60.0586	88.5521	60.0586	88.5284	60.0586	88.565	60.0586	88.5524	60.0586	88.5658
62.9883	88.801	62.9883	88.7906	62.9883	88.8049	62.9883	88.7736	62.9883	88.802	62.9883	88.7501	62.9883	88.7923	62.9883	88.7201	62.9883	88.7756	62.9883	88.6839	62.9883	88.7518	62.9883	88.642	62.9883	88.7211	62.9883	88.5954	62.9883	88.6841	62.9883	88.5459	62.9883	88.6423	62.9883	88.4961	62.9883	88.5976	62.9883	88.4498	62.9883	88.5532	62.9883	88.4113	62.9883	88.5127	62.9883	88.3851	62.9883	88.4804	62.9883	88.3749	62.9883	88.4598	62.9883	88.3813	62.9883	88.4522	62.9883	88.4014	62.9883	88.4557	62.9883	88.4282	62.9883	88.4646	62.9883	88.4529	62.9883	88.4711	62.9883	88.4681
64.4531	88.771	64.4531	88.7647	64.4531	88.7708	64.4531	88.7519	64.4531	88.7639	64.4531	88.7325	64.4531	88.7505	64.4531	88.7066	64.4531	88.7303	64.4531	88.6744	64.4531	88.7037	64.4531	88.6363	64.4531	88.671	64.4531	88.5936	64.4531	88.6332	64.4531	88.548	64.4531	88.5919	64.4531	88.5022	64.4531	88.5496	64.4531	88.4601	64.4531	88.5094	64.4531	88.4262	64.4531	88.4754	64.4531	88.4048	64.4531	88.4516	64.4531	88.3993	64.4531	88.4411	64.4531	88.41	64.4531	88.4446	64.4531	88.4334	64.4531	88.4594	64.4531	88.4616	64.4531	88.4787	64.4531	88.4854	64.4531	88.4938	64.4531	88.4971
67.3828	88.7788	67.3828	88.7673	67.3828	88.7816	67.3828	88.7473	67.3828	88.7757	67.3828	88.719	67.3828	88.7609	67.3828	88.6827	67.3828	88.7374	67.3828	88.639	67.3828	88.7055	67.3828	88.5888	67.3828	88.6657	67.3828	88.5338	67.3828	88.6196	67.3828	88.4765	67.3828	88.5691	67.3828	88.4203	67.3828	88.5173	67.3828	88.3697	67.3828	88.4682	67.3828	88.33	67.3828	88.4264	67.3828	88.3061	67.3828	88.3964	67.3828	88.3014	67.3828	88.3817	67.3828	88.3159	67.3828	88.3827	67.3828	88.3452	67.3828	88.3961	67.3828	88.3803	67.3828	88.4142	67.3828	88.4105	67.3828	88.4273	67.3828	88.4272
68.8477	88.8294	68.8477	88.8134	68.8477	88.8354	68.8477	88.7875	68.8477	88.8312	68.8477	88.752	68.8477	88.8167	68.8477	88.7074	68.8477	88.792	68.8477	88.6545	68.8477	88.7576	68.8477	88.5946	68.8477	88.7141	68.8477	88.5296	68.8477	88.6631	68.8477	88.4625	68.8477	88.6069	68.8477	88.3971	68.8477	88.5485	68.8477	88.3384	68.8477	88.4923	68.8477	88.2921	68.8477	88.4431	68.8477	88.2636	68.8477	88.4056	68.8477	88.2565	68.8477	88.3836	68.8477	88.2709	68.8477	88.3777	68.8477	88.302	68.8477	88.3845	68.8477	88.3405	68.8477	88.3963	68.8477	88.3754	68.8477	88.4034	68.8477	88.3975
71.7773	88.9369	71.7773	88.9177	71.7773	88.9439	71.7773	88.8864	71.7773	88.9386	71.7773	88.8432	71.7773	88.9212	71.7773	88.7886	71.7773	88.892	71.7773	88.7234	71.7773	88.8515	71.7773	88.6491	71.7773	88.8007	71.7773	88.568	71.7773	88.7413	71.7773	88.4836	71.7773	88.6756	71.7773	88.4006	71.7773	88.6072	71.7773	88.325	71.7773	88.5404	71.7773	88.2637	71.7773	88.4803	71.7773	88.223	71.7773	88.4318	71.7773	88.2076	71.7773	88.3987	71.7773	88.2178	71.7773	88.3818	71.7773	88.2487	71.7773	88.3779	71.7773	88.2906	71.7773	88.3793	71.7773	88.3315	71.7773	88.3765	71.7773	88.3615
74.707	88.9818	74.707	88.9659	74.707	88.9846	74.707	88.9365	74.707	88.9743	74.707	88.8938	74.707	88.9516	74.707	88.8381	74.707	88.917	74.707	88.7703	74.707	88.8714	74.707	88.692	74.707	88.8162	74.707	88.6056	74.707	88.7533	74.707	88.515	74.707	88.6856	74.707	88.4255	74.707	88.6167	74.707	88.3437	74.707	88.551	74.707	88.277	74.707	88.4934	74.707	88.2328	74.707	88.4487	74.707	88.2159	74.707	88.42	74.707	88.227	74.707	88.4073	74.707	88.2609	74.707	88.4062	74.707	88.307	74.707	88.4088	74.707	88.3527	74.707	88.4049	74.707	88.387
77.6367	88.9158	77.6367	88.9051	77.6367	88.9126	77.6367	88.8805	77.6367	88.8961	77.6367	88.8422	77.6367	88.8673	77.6367	88.7908	77.6367	88.8273	77.6367	88.7276	77.6367	88.7779	77.6367	88.6546	77.6367	88.721	77.6367	88.5746	77.6367	88.6592	77.6367	88.4913	77.6367	88.5953	77.6367	88.4096	77.6367	88.5329	77.6367	88.335	77.6367	88.4755	77.6367	88.2737	77.6367	88.4267	77.6367	88.2312	77.6367	88.3893	77.6367	88.2109	77.6367	88.3648	77.6367	88.213	77.6367	88.3521	77.6367	88.2337	77.6367	88.3477	77.6367	88.2651	77.6367	88.3458	77.6367	88.2979	77.6367	88.3396	77.6367	88.324
79.1016	88.9161	79.1016	88.9102	79.1016	88.907	79.1016	88.8893	79.1016	88.8836	79.1016	88.8534	79.1016	88.847	79.1016	88.8034	79.1016	88.7985	79.1016	88.7406	79.1016	88.7401	79.1016	88.6669	79.1016	88.6742	79.1016	88.5851	79.1016	88.6036	79.1016	88.4993	79.1016	88.5319	79.1016	88.4144	79.1016	88.4628	79.1016	88.3361	79.1016	88.4007	79.1016	88.2708	79.1016	88.3493	79.1016	88.2239	79.1016	88.3117	79.1016	88.199	79.1016	88.2893	79.1016	88.1961	79.1016	88.2808	79.1016	88.2111	79.1016	88.2823	79.1016	88.2362	79.1016	88.2874	79.1016	88.262	79.1016	88.2887	79.1016	88.2808
82.0312	88.8662	82.0312	88.863	82.0312	88.8525	82.0312	88.843	82.0312	88.8225	82.0312	88.8064	82.0312	88.777	82.0312	88.7543	82.0312	88.7177	82.0312	88.688	82.0312	88.6465	82.0312	88.6098	82.0312	88.5661	82.0312	88.5226	82.0312	88.4799	82.0312	88.4307	82.0312	88.392	82.0312	88.339	82.0312	88.3074	82.0312	88.2536	82.0312	88.231	82.0312	88.1809	82.0312	88.1681	82.0312	88.1265	82.0312	88.1227	82.0312	88.0936	82.0312	88.0968	82.0312	88.0824	82.0312	88.0895	82.0312	88.0884	82.0312	88.0963	82.0312	88.1036	82.0312	88.11	82.0312	88.1186	82.0312	88.1221	82.0312	88.1258
84.9609	88.7575	84.9609	88.7547	84.9609	88.743	84.9609	88.7345	84.9609	88.7118	84.9609	88.6974	84.9609	88.6653	84.9609	88.6444	84.9609	88.6052	84.9609	88.5774	84.9609	88.5337	84.9609	88.4988	84.9609	88.454	84.9609	88.4121	84.9609	88.3695	84.9609	88.3216	84.9609	88.2843	84.9609	88.2328	84.9609	88.2033	84.9609	88.1517	84.9609	88.1314	84.9609	88.0843	84.9609	88.0733	84.9609	88.0359	84.9609	88.0328	84.9609	88.0093	84.9609	88.0117	84.9609	88.0036	84.9609	88.009	84.9609	88.0141	84.9609	88.0201	84.9609	88.0324	84.9609	88.0372	84.9609	88.0491	84.9609	88.0517	84.9609	88.0565
87.8906	88.6713	87.8906	88.67	87.8906	88.6513	87.8906	88.6479	87.8906	88.6106	87.8906	88.606	87.8906	88.5502	87.8906	88.5461	87.8906	88.4721	87.8906	88.4706	87.8906	88.3795	87.8906	88.3829	87.8906	88.2763	87.8906	88.287	87.8906	88.1677	87.8906	88.1881	87.8906	88.0599	87.8906	88.0922	87.8906	87.9597	87.8906	88.0061	87.8906	87.8741	87.8906	87.9363	87.8906	87.8094	87.8906	87.8877	87.8906	87.7701	87.8906	87.8626	87.8906	87.7575	87.8906	87.8588	87.8906	87.7692	87.8906	87.8695	87.8906	87.7984	87.8906	87.8847	87.8906	87.8351	87.8906	87.8939	87.8906	87.8684	87.8906	87.8893
90.8203	88.6031	90.8203	88.591	90.8203	88.5915	90.8203	88.5562	90.8203	88.5562	90.8203	88.5003	90.8203	88.4981	90.8203	88.4259	90.8203	88.4188	90.8203	88.3363	90.8203	88.3211	90.8203	88.2354	90.8203	88.2092	90.8203	88.1283	90.8203	88.0884	90.8203	88.0209	90.8203	87.9655	90.8203	87.9196	90.8203	87.8485	90.8203	87.8316	90.8203	87.746	90.8203	87.7631	90.8203	87.6662	90.8203	87.7187	90.8203	87.6152	90.8203	87.6993	90.8203	87.5957	90.8203	87.7016	90.8203	87.6051	90.8203	87.7174	90.8203	87.6359	90.8203	87.7359	90.8203	87.6766	90.8203	87.7457	90.8203	87.7145	90.8203	87.7392
95.2148	88.5141	95.2148	88.4953	95.2148	88.5027	95.2148	88.4467	95.2148	88.4618	95.2148	88.37	95.2148	88.3928	95.2148	88.2679	95.2148	88.2985	95.2148	88.1445	95.2148	88.1827	95.2148	88.0055	95.2148	88.0505	95.2148	87.8582	95.2148	87.9083	95.2148	87.7114	95.2148	87.764	95.2148	87.5752	95.2148	87.6268	95.2148	87.4598	95.2148	87.5063	95.2148	87.3738	95.2148	87.4116	95.2148	87.3228	95.2148	87.3493	95.2148	87.3068	95.2148	87.3216	95.2148	87.3203	95.2148	87.325	95.2148	87.3524	95.2148	87.3504	95.2148	87.3889	95.2148	87.3844	95.2148	87.4164	95.2148	87.4131	95.2148	87.4254
98.1445	88.4466	98.1445	88.4241	98.1445	88.4388	98.1445	88.3713	98.1445	88.4014	98.1445	88.2892	98.1445	88.3362	98.1445	88.18	98.1445	88.2456	98.1445	88.047	98.1445	88.1332	98.1445	87.8954	98.1445	88.0039	98.1445	87.7323	98.1445	87.8635	98.1445	87.5672	98.1445	87.7196	98.1445	87.4113	98.1445	87.5808	98.1445	87.2767	98.1445	87.4562	98.1445	87.1743	98.1445	87.3546	98.1445	87.1115	98.1445	87.282	98.1445	87.0896	98.1445	87.2405	98.1445	87.1029	98.1445	87.2271	98.1445	87.1399	98.1445	87.2333	98.1445	87.1854	98.1445	87.2471	98.1445	87.2255	98.1445	87.2559	98.1445	87.25
101.074	88.2528	101.074	88.2443	101.074	88.229	101.074	88.2036	101.074	88.1735	101.074	88.1317	101.074	88.0881	101.074	88.0307	101.074	87.9755	101.074	87.9038	101.074	87.8397	101.074	87.7558	101.074	87.6863	101.074	87.5934	101.074	87.5225	101.074	87.4254	101.074	87.3572	101.074	87.263	101.074	87.201	101.074	87.1182	101.074	87.065	101.074	87.0028	101.074	86.9592	101.074	86.9252	101.074	86.8907	101.074	86.8878	101.074	86.8611	101.074	86.8859	101.074	86.8653	101.074	86.908	101.074	86.8925	101.074	86.9387	101.074	86.9282	101.074	86.9633	101.074	86.9579	101.074	86.9709
105.469	88.059	105.469	88.0432	105.469	88.0388	105.469	87.9918	105.469	87.9831	105.469	87.906	105.469	87.8933	105.469	87.788	105.469	87.7719	105.469	87.6413	105.469	87.6225	105.469	87.4709	105.469	87.4504	105.469	87.2835	105.469	87.2629	105.469	87.0885	105.469	87.0694	105.469	86.8972	105.469	86.8816	105.469	86.7232	105.469	86.7128	105.469	86.5799	105.469	86.5759	105.469	86.4778	105.469	86.4805	105.469	86.4217	105.469	86.4301	105.469	86.4081	105.469	86.42	105.469	86.4253	105.469	86.4381	105.469	86.4568	105.469	86.4675	105.469	86.4856	105.469	86.4917	105.469	86.499
108.398	88.2046	108.398	88.1808	108.398	88.1893	108.398	88.1188	108.398	88.1354	108.398	88.0201	108.398	88.0442	108.398	87.8875	108.398	87.9185	108.398	87.7252	108.398	87.7623	108.398	87.5385	108.398	87.5812	108.398	87.3348	108.398	87.3828	108.398	87.1238	108.398	87.1768	108.398	86.9172	108.398	86.975	108.398	86.7281	108.398	86.7903	108.398	86.5698	108.398	86.6353	108.398	86.4526	108.398	86.5192	108.398	86.3814	108.398	86.4459	108.398	86.3531	108.398	86.4116	108.398	86.3577	108.398	86.406	108.398	86.3801	108.398	86.4146	108.398	86.4049	108.398	86.4229	108.398	86.4208
112.793	88.2661	112.793	88.2467	112.793	88.2453	112.793	88.1873	112.793	88.1851	112.793	88.0895	112.793	88.0875	112.793	87.9563	112.793	87.9558	112.793	87.7918	112.793	87.7946	112.793	87.6025	112.793	87.6103	112.793	87.3967	112.793	87.411	112.793	87.1854	112.793	87.207	112.793	86.982	112.793	87.0106	112.793	86.801	112.793	86.8352	112.793	86.6562	112.793	86.6935	112.793	86.557	112.793	86.5945	112.793	86.5059	112.793	86.5408	112.793	86.4971	112.793	86.5269	112.793	86.5175	112.793	86.5406	112.793	86.55	112.793	86.5656	112.793	86.5787	112.793	86.5865	112.793	86.5922
117.188	88.0622	117.188	88.0399	117.188	88.0399	117.188	87.9737	117.188	87.9732	117.188	87.8658	117.188	87.8639	117.188	87.7199	117.188	87.7154	117.188	87.5412	117.188	87.5329	117.188	87.3375	117.188	87.3239	117.188	87.1189	117.188	87.0988	117.188	86.8985	117.188	86.8708	117.188	86.6922	117.188	86.6559	117.188	86.5165	117.188	86.4709	117.188	86.3857	117.188	86.3309	117.188	86.3084	117.188	86.2458	117.188	86.2835	117.188	86.2163	117.188	86.3003	117.188	86.2336	117.188	86.3405	117.188	86.2811	117.188	86.3836	117.188	86.3388	117.188	86.4118	117.188	86.3876	117.188	86.414
120.117	88.0802	120.117	88.0475	120.117	88.0655	120.117	87.9684	120.117	88.0035	120.117	87.8452	120.117	87.8957	120.117	87.6815	120.117	87.7449	120.117	87.4828	120.117	87.5559	120.117	87.2569	120.117	87.3359	120.117	87.0145	120.117	87.0949	120.117	86.7697	120.117	86.8465	120.117	86.5396	120.117	86.6075	120.117	86.3429	120.117	86.3966	120.117	86.1957	120.117	86.2314	120.117	86.108	120.117	86.1243	120.117	86.079	120.117	86.0779	120.117	86.0972	120.117	86.0836	120.117	86.1428	120.117	86.1235	120.117	86.1933	120.117	86.1756	120.117	86.2294	120.117	86.219	120.117	86.2391
124.512	88.0954	124.512	88.0634	124.512	88.0798	124.512	87.9844	124.512	88.0169	124.512	87.86	124.512	87.9081	124.512	87.6932	124.512	87.7562	124.512	87.4885	124.512	87.5657	124.512	87.2532	124.512	87.3437	124.512	86.9976	124.512	87.1003	124.512	86.7366	124.512	86.8498	124.512	86.4889	124.512	86.6096	124.512	86.276	124.512	86.3997	124.512	86.1175	124.512	86.2384	124.512	86.0262	124.512	86.1377	124.512	86.0024	124.512	86.0989	124.512	86.0334	124.512	86.111	124.512	86.0967	124.512	86.154	124.512	86.1671	124.512	86.2043	124.512	86.2224	124.512	86.2406	124.512	86.2484
128.906	88.0524	128.906	88.0169	128.906	88.0396	128.906	87.9334	128.906	87.979	128.906	87.8029	128.906	87.8719	128.906	87.6275	128.906	87.7206	128.906	87.411	128.906	87.529	128.906	87.1597	128.906	87.303	128.906	86.8834	128.906	87.0516	128.906	86.5968	128.906	86.788	128.906	86.3196	128.906	86.5296	128.906	86.0755	128.906	86.2971	128.906	85.8877	128.906	86.1109	128.906	85.7725	128.906	85.9857	128.906	85.7332	128.906	85.9253	128.906	85.7577	128.906	85.9196	128.906	85.8226	128.906	85.948	128.906	85.9002	128.906	85.9853	128.906	85.9661	128.906	86.0091	128.906	86.0044
133.301	87.8673	133.301	87.8454	133.301	87.8405	133.301	87.7748	133.301	87.7655	133.301	87.6566	133.301	87.6442	133.301	87.493	133.301	87.4796	133.301	87.2877	133.301	87.2763	133.301	87.0468	133.301	87.0414	133.301	86.7795	133.301	86.7849	133.301	86.4998	133.301	86.5206	133.301	86.2266	133.301	86.2668	133.301	85.9826	133.301	86.0442	133.301	85.7911	133.301	85.8727	133.301	85.6689	133.301	85.7656	133.301	85.6205	133.301	85.724	133.301	85.6353	133.301	85.7355	133.301	85.691	133.301	85.7774	133.301	85.7608	133.301	85.8243	133.301	85.8208	133.301	85.8544	133.301	85.8543
139.16	87.5741	139.16	87.5507	139.16	87.545	139.16	87.4753	139.16	87.4637	139.16	87.3504	139.16	87.3322	139.16	87.1794	139.16	87.1542	139.16	86.9681	139.16	86.9354	139.16	86.7249	139.16	86.6841	139.16	86.4616	139.16	86.4126	139.16	86.1946	139.16	86.1374	139.16	85.9448	139.16	85.8799	139.16	85.7353	139.16	85.6638	139.16	85.5868	139.16	85.5113	139.16	85.5108	139.16	85.4354	139.16	85.505	139.16	85.4349	139.16	85.5525	139.16	85.493	139.16	85.6275	139.16	85.582	139.16	85.7024	139.16	85.6724	139.16	85.7544	139.16	85.7397	139.16	85.7686
143.555	87.5211	143.555	87.484	143.555	87.4992	143.555	87.3888	143.555	87.4186	143.555	87.2381	143.555	87.2812	143.555	87.0358	143.555	87.0908	143.555	86.7884	143.555	86.8535	143.555	86.5053	143.555	86.5791	143.555	86.2007	143.555	86.282	143.555	85.8948	143.555	85.9822	143.555	85.6142	143.555	85.7057	143.555	85.3893	143.555	85.4817	143.555	85.2469	143.555	85.3364	143.555	85.2012	143.555	85.284	143.555	85.2461	143.555	85.3195	143.555	85.3562	143.555	85.4185	143.555	85.4951	143.555	85.545	143.555	85.6265	143.555	85.6618	143.555	85.7213	143.555	85.7398	143.555	85.7614
147.949	87.6687	147.949	87.631	147.949	87.641	147.949	87.5285	147.949	87.5483	147.949	87.3628	147.949	87.3922	147.949	87.1369	147.949	87.1756	147.949	86.8557	147.949	86.9036	147.949	86.5273	147.949	86.5844	147.949	86.1646	147.949	86.2312	147.949	85.7878	147.949	85.8641	147.949	85.4257	147.949	85.5109	147.949	85.1137	147.949	85.2059	147.949	84.8874	147.949	84.9828	147.949	84.7702	147.949	84.8637	147.949	84.7623	147.949	84.8489	147.949	84.8387	147.949	84.9142	147.949	84.9595	147.949	85.0203	147.949	85.0827	147.949	85.1257	147.949	85.1751	147.949	85.1975	147.949	85.2159
153.809	87.4958	153.809	87.4646	153.809	87.459	153.809	87.366	153.809	87.3544	153.809	87.202	153.809	87.1839	153.809	86.976	153.809	86.9504	153.809	86.6934	153.809	86.6591	153.809	86.3624	153.809	86.3179	153.809	85.9956	153.809	85.9394	153.809	85.6118	153.809	85.5431	153.809	85.2374	153.809	85.1567	153.809	84.9048	153.809	84.8154	153.809	84.6469	153.809	84.555	153.809	84.4865	153.809	84.4008	153.809	84.4269	153.809	84.3555	153.809	84.449	153.809	84.3965	153.809	84.5187	153.809	84.4853	153.809	84.599	153.809	84.5809	153.809	84.6591	153.809	84.6516	153.809	84.6793
159.668	87.6605	159.668	87.623	159.668	87.6289	159.668	87.5174	159.668	87.5282	159.668	87.3452	159.668	87.3592	159.668	87.1093	159.668	87.1235	159.668	86.8144	159.668	86.8239	159.668	86.4685	159.668	86.466	159.668	86.0844	159.668	86.0597	159.668	85.6833	159.668	85.6229	159.668	85.2951	159.668	85.1846	159.668	84.9578	159.668	84.7863	159.668	84.7086	159.668	84.4767	159.668	84.5708	159.668	84.2957	159.668	84.5422	159.668	84.2558	159.668	84.595	159.668	84.3327	159.668	84.6865	159.668	84.4761	159.668	84.7747	159.668	84.631	159.668	84.8266	159.668	84.7546	159.668	84.8222
165.527	87.8621	165.527	87.8168	165.527	87.8389	165.527	87.7029	165.527	87.7482	165.527	87.5211	165.527	87.5917	165.527	87.2734	165.527	87.3725	165.527	86.9641	165.527	87.0948	165.527	86.6013	165.527	86.7654	165.527	86.1997	165.527	86.3952	165.527	85.7828	165.527	86.0008	165.527	85.3855	165.527	85.6074	165.527	85.0501	165.527	85.2491	165.527	84.8167	165.527	84.9642	165.527	84.7072	165.527	84.785	165.527	84.7136	165.527	84.7228	165.527	84.8006	165.527	84.7609	165.527	84.9209	165.527	84.8607	165.527	85.031	165.527	84.9763	165.527	85.1008	165.527	85.0692	165.527	85.1143
171.387	87.7925	171.387	87.742	171.387	87.7715	171.387	87.621	171.387	87.6786	171.387	87.4305	171.387	87.5143	171.387	87.1718	171.387	87.28	171.387	86.8474	171.387	86.9795	171.387	86.4629	171.387	86.6197	171.387	86.0299	171.387	86.2129	171.387	85.5714	171.387	85.7801	171.387	85.1257	171.387	85.3534	171.387	84.746	171.387	84.9767	171.387	84.4887	171.387	84.6984	171.387	84.3889	171.387	84.5547	171.387	84.4404	171.387	84.5513	171.387	84.5959	171.387	84.6571	171.387	84.7908	171.387	84.8174	171.387	84.9674	171.387	84.9756	171.387	85.0865	171.387	85.0879	171.387	85.1282
177.246	87.5527	177.246	87.507	177.246	87.5286	177.246	87.3911	177.246	87.4356	177.246	87.2049	177.246	87.2753	177.246	86.9489	177.246	87.0499	177.246	86.6252	177.246	86.7628	177.246	86.2384	177.246	86.4201	177.246	85.7993	177.246	86.0326	177.246	85.3291	177.246	85.6191	177.246	84.8647	177.246	85.21	177.246	84.4594	177.246	84.8474	177.246	84.1737	177.246	84.5791	177.246	84.0517	177.246	84.4413	177.246	84.0963	177.246	84.4399	177.246	84.2644	177.246	84.5438	177.246	84.4885	177.246	84.6971	177.246	84.7038	177.246	84.8417	177.246	84.8639	177.246	84.9324	177.246	84.9427
183.105	87.404	183.105	87.3831	183.105	87.3485	183.105	87.286	183.105	87.2172	183.105	87.1132	183.105	87.0113	183.105	86.8653	183.105	86.7332	183.105	86.5435	183.105	86.3875	183.105	86.1511	183.105	85.9818	183.105	85.6976	183.105	85.5306	183.105	85.2042	183.105	85.0597	183.105	84.7105	183.105	84.6107	183.105	84.2775	183.105	84.2411	183.105	83.9766	183.105	84.0111	183.105	83.8615	183.105	83.9581	183.105	83.9362	183.105	84.072	183.105	84.1493	183.105	84.2961	183.105	84.421	183.105	84.5534	183.105	84.6758	183.105	84.7747	183.105	84.8601	183.105	84.9128	183.105	84.9431
188.965	87.4447	188.965	87.4148	188.965	87.3935	188.965	87.3054	188.965	87.26	188.965	87.119	188.965	87.044	188.965	86.8576	188.965	86.7458	188.965	86.5232	188.965	86.3668	188.965	86.1186	188.965	85.91	188.965	85.6511	188.965	85.3838	188.965	85.1379	188.965	84.8082	188.965	84.6143	188.965	84.2236	188.965	84.1381	188.965	83.6984	188.965	83.7825	188.965	83.3214	188.965	83.6086	188.965	83.1664	188.965	83.6287	188.965	83.2456	188.965	83.7951	188.965	83.4951	188.965	84.0253	188.965	83.813	188.965	84.2389	188.965	84.1065	188.965	84.3773	188.965	84.3145	188.965	84.4069
196.289	87.9503	196.289	87.8967	196.289	87.917	196.289	87.7572	196.289	87.7964	196.289	87.533	196.289	87.5883	196.289	87.2261	196.289	87.293	196.289	86.8384	196.289	86.9108	196.289	86.3732	196.289	86.4429	196.289	85.8378	196.289	85.8944	196.289	85.2495	196.289	85.2795	196.289	84.6447	196.289	84.6309	196.289	84.0875	196.289	84.0103	196.289	83.6644	196.289	83.51	196.289	83.4519	196.289	83.2264	196.289	83.4688	196.289	83.2047	196.289	83.6576	196.289	83.4012	196.289	83.9187	196.289	83.7082	196.289	84.158	196.289	84.0138	196.289	84.3107	196.289	84.2386	196.289	84.3414
203.613	87.7132	203.613	87.6355	203.613	87.7055	203.613	87.4746	203.613	87.6108	203.613	87.2331	203.613	87.428	203.613	86.9139	203.613	87.1564	203.613	86.5205	203.613	86.7955	203.613	86.0577	203.613	86.3455	203.613	85.5343	203.613	85.8103	203.613	84.9673	203.613	85.2016	203.613	84.3897	203.613	84.5477	203.613	83.8566	203.613	83.903	203.613	83.4421	203.613	83.3504	203.613	83.2143	203.613	82.9825	203.613	83.1956	203.613	82.8557	203.613	83.3401	203.613	82.9522	203.613	83.5565	203.613	83.1896	203.613	83.751	203.613	83.4674	203.613	83.8567	203.613	83.7026	203.613	83.8411
210.938	87.9332	210.938	87.8407	210.938	87.9335	210.938	87.6552	210.938	87.8427	210.938	87.3766	210.938	87.6624	210.938	87.005	210.938	87.3938	210.938	86.541	210.938	87.037	210.938	85.9873	210.938	86.5918	210.938	85.3522	210.938	86.0588	210.938	84.6575	210.938	85.4459	210.938	83.9494	210.938	84.7774	210.938	83.308	210.938	84.1061	210.938	82.8387	210.938	83.518	210.938	82.6273	210.938	83.1127	210.938	82.6806	210.938	82.9511	210.938	82.9158	210.938	83.0117	210.938	83.2134	210.938	83.2051	210.938	83.4735	210.938	83.428	210.938	83.6367	210.938	83.6018	210.938	83.6789
218.262	87.9639	218.262	87.9145	218.262	87.9253	218.262	87.7742	218.262	87.8017	218.262	87.5398	218.262	87.5961	218.262	87.2072	218.262	87.3111	218.262	86.7713	218.262	86.9486	218.262	86.2283	218.262	86.5094	218.262	85.5792	218.262	85.9955	218.262	84.8377	218.262	85.4147	218.262	84.0432	218.262	84.7898	218.262	83.2755	218.262	84.1699	218.262	82.6561	218.262	83.6338	218.262	82.3089	218.262	83.2696	218.262	82.2814	218.262	83.1264	218.262	82.5032	218.262	83.1756	218.262	82.8393	218.262	83.327	218.262	83.1685	218.262	83.482	218.262	83.4172	218.262	83.5699	218.262	83.5529
225.586	88.0467	225.586	88.0368	225.586	87.9616	225.586	87.9305	225.586	87.7832	225.586	87.726	225.586	87.514	225.586	87.4204	225.586	87.1568	225.586	87.0089	225.586	86.7145	225.586	86.4863	225.586	86.1915	225.586	85.8519	225.586	85.5979	225.586	85.1189	225.586	84.9582	225.586	84.3307	225.586	84.3246	225.586	83.5802	225.586	83.7857	225.586	83.0094	225.586	83.4504	225.586	82.7544	225.586	83.3907	225.586	82.8487	225.586	83.582	225.586	83.1938	225.586	83.9122	225.586	83.6379	225.586	84.2508	225.586	84.0583	225.586	84.5018	225.586	84.3827	225.586	84.6151	225.586	84.5742
232.91	88.4561	232.91	88.4174	232.91	88.3975	232.91	88.2833	232.91	88.2392	232.91	88.0547	232.91	87.9777	232.91	87.7294	232.91	87.6076	232.91	87.3011	232.91	87.1194	232.91	86.7586	232.91	86.4996	232.91	86.0886	232.91	85.7332	232.91	85.2849	232.91	84.8135	232.91	84.367	232.91	83.7673	232.91	83.4146	232.91	82.7044	232.91	82.6026	232.91	81.8712	232.91	82.1706	232.91	81.5802	232.91	82.2489	232.91	81.9187	232.91	82.7173	232.91	82.6266	232.91	83.323	232.91	83.371	232.91	83.8643	232.91	83.9524	232.91	84.2342	232.91	84.295	232.91	84.3854
241.699	88.4019	241.699	88.3439	241.699	88.3793	241.699	88.2076	241.699	88.2756	241.699	87.9949	241.699	88.0904	241.699	87.7056	241.699	87.8223	241.699	87.3337	241.699	87.4658	241.699	86.8661	241.699	87.0077	241.699	86.2838	241.699	86.4273	241.699	85.5675	241.699	85.698	241.699	84.7106	241.699	84.7972	241.699	83.742	241.699	83.7272	241.699	82.7595	241.699	82.5584	241.699	81.9519	241.699	81.4912	241.699	81.5358	241.699	80.8501	241.699	81.5805	241.699	80.8447	241.699	81.9263	241.699	81.317	241.699	82.3261	241.699	81.9188	241.699	82.593	241.699	82.3939	241.699	82.6271
250.488	88.4056	250.488	88.3374	250.488	88.3745	250.488	88.1716	250.488	88.2451	250.488	87.9116	250.488	88.0204	250.488	87.5612	250.488	87.705	250.488	87.1227	250.488	87.3032	250.488	86.5956	250.488	86.8166	250.488	85.9772	250.488	86.2433	250.488	85.2667	250.488	85.5789	250.488	84.4756	250.488	84.8236	250.488	83.6428	250.488	83.9971	250.488	82.8526	250.488	83.161	250.488	82.2328	250.488	82.4363	250.488	81.9038	250.488	81.9767	250.488	81.8933	250.488	81.8689	250.488	82.1052	250.488	82.0463	250.488	82.3861	250.488	82.3369	250.488	82.6037	250.488	82.5788	250.488	82.6771
259.277	88.9843	259.277	88.9266	259.277	88.9572	259.277	88.7865	259.277	88.8424	259.277	88.5647	259.277	88.6372	259.277	88.2581	259.277	88.3382	259.277	87.858	259.277	87.941	259.277	87.3488	259.277	87.4387	259.277	86.7113	259.277	86.8232	259.277	85.931	259.277	86.0884	259.277	85.0154	259.277	85.2404	259.277	84.024	259.277	84.3193	259.277	83.1	259.277	83.4282	259.277	82.4552	259.277	82.7437	259.277	82.2436	259.277	82.44	259.277	82.4202	259.277	82.5387	259.277	82.7919	259.277	82.8762	259.277	83.1731	259.277	83.2416	259.277	83.4498	259.277	83.4918	259.277	83.5642
268.066	88.1254	268.066	88.0359	268.066	88.1387	268.066	87.8756	268.066	88.0739	268.066	87.6532	268.066	87.9307	268.066	87.3774	268.066	87.7067	268.066	87.0506	268.066	87.3957	268.066	86.6629	268.066	86.9865	268.066	86.1886	268.066	86.4642	268.066	85.5927	268.066	85.8145	268.066	84.8468	268.066	85.0302	268.066	83.9601	268.066	84.1259	268.066	83.0228	268.066	83.1656	268.066	82.2394	268.066	82.3	268.066	81.8574	268.066	81.7595	268.066	81.9541	268.066	81.7086	268.066	82.3487	268.066	82.063	268.066	82.7826	268.066	82.5583	268.066	83.0769	268.066	82.9599	268.066	83.1443
276.855	88.0897	276.855	88.0335	276.855	88.0675	276.855	87.8915	276.855	87.9737	276.855	87.6566	276.855	87.8129	276.855	87.3231	276.855	87.5843	276.855	86.8882	276.855	87.2774	276.855	86.3539	276.855	86.8702	276.855	85.7272	276.855	86.334	276.855	85.0198	276.855	85.647	276.855	84.2496	276.855	84.817	276.855	83.4534	276.855	83.9095	276.855	82.7115	276.855	83.0649	276.855	82.1654	276.855	82.4643	276.855	81.9671	276.855	82.2254	276.855	82.1475	276.855	82.32	276.855	82.5607	276.855	82.6166	276.855	82.9939	276.855	82.9683	276.855	83.2895	276.855	83.2517	276.855	83.3758
287.109	88.113	287.109	88.0635	287.109	88.0543	287.109	87.9116	287.109	87.8914	287.109	87.6681	287.109	87.6394	287.109	87.3429	287.109	87.3219	287.109	86.9386	287.109	86.9628	287.109	86.4469	287.109	86.5733	287.109	85.8493	287.109	86.1395	287.109	85.1262	287.109	85.6217	287.109	84.2732	287.109	84.9727	287.109	83.3266	287.109	84.1765	287.109	82.3966	287.109	83.3024	287.109	81.6832	287.109	82.5424	287.109	81.3955	287.109	82.136	287.109	81.5692	287.109	82.1544	287.109	82.0145	287.109	82.4278	287.109	82.4859	287.109	82.7339	287.109	82.8258	287.109	82.9367	287.109	82.9762
297.363	88.4894	297.363	88.4189	297.363	88.4276	297.363	88.2349	297.363	88.2208	297.363	87.9573	297.363	87.8639	297.363	87.5987	297.363	87.3608	297.363	87.1547	297.363	86.7252	297.363	86.6008	297.363	85.9813	297.363	85.9007	297.363	85.1614	297.363	85.0304	297.363	84.3016	297.363	84.02	297.363	83.4474	297.363	83.0139	297.363	82.6842	297.363	82.2984	297.363	82.1753	297.363	82.1456	297.363	82.1173	297.363	82.5324	297.363	82.5505	297.363	83.18	297.363	83.2675	297.363	83.8345	297.363	83.9893	297.363	84.3674	297.363	84.5347	297.363	84.7286	297.363	84.8362	297.363	84.8931
307.617	89.4046	307.617	89.2951	307.617	89.4034	307.617	89.0698	307.617	89.3004	307.617	88.7315	307.617	89.1028	307.617	88.291	307.617	88.8091	307.617	87.7612	307.617	88.4036	307.617	87.1457	307.617	87.8546	307.617	86.4236	307.617	87.1154	307.617	85.5415	307.617	86.1294	307.617	84.4248	307.617	84.8384	307.617	83.0235	307.617	83.2101	307.617	81.4354	307.617	81.3388	307.617	80.1525	307.617	79.7317	307.617	79.9838	307.617	79.3869	307.617	80.9407	307.617	80.4431	307.617	82.2001	307.617	81.888	307.617	83.221	307.617	83.0576	307.617	83.8415	307.617	83.7754	307.617	84.0307
319.336	88.8546	319.336	88.7809	319.336	88.819	319.336	88.6056	319.336	88.6741	319.336	88.339	319.336	88.4299	319.336	87.9865	319.336	88.1047	319.336	87.5427	319.336	87.716	319.336	86.9874	319.336	87.267	319.336	86.2861	319.336	86.7329	319.336	85.3962	319.336	86.0575	319.336	84.277	319.336	85.1645	319.336	82.9132	319.336	83.9857	319.336	81.3824	319.336	82.5232	319.336	80.0165	319.336	80.9923	319.336	79.4717	319.336	79.9894	319.336	80.0509	319.336	80.0846	319.336	81.169	319.336	80.9688	319.336	82.1735	319.336	81.9473	319.336	82.7846	319.336	82.6454	319.336	82.9386
329.59	88.9571	329.59	88.8978	329.59	88.9275	329.59	88.759	329.59	88.805	329.59	88.5517	329.59	88.5916	329.59	88.2808	329.59	88.2925	329.59	87.936	329.59	87.9104	329.59	87.4859	329.59	87.4372	329.59	86.8776	329.59	86.8467	329.59	86.044	329.59	86.0919	329.59	84.9176	329.59	85.1131	329.59	83.4604	329.59	83.8661	329.59	81.7517	329.59	82.3989	329.59	80.2024	329.59	81.0236	329.59	79.6318	329.59	80.407	329.59	80.3258	329.59	80.8994	329.59	81.5452	329.59	81.9474	329.59	82.6349	329.59	82.9059	329.59	83.356	329.59	83.4964	329.59	83.6482
341.309	88.5504	341.309	88.5093	341.309	88.4752	341.309	88.3559	341.309	88.2988	341.309	88.1138	341.309	88.0495	341.309	87.8204	341.309	87.7578	341.309	87.5086	341.309	87.4425	341.309	87.1809	341.309	87.0985	341.309	86.7882	341.309	86.6926	341.309	86.2326	341.309	86.1666	341.309	85.3934	341.309	85.4472	341.309	84.1644	341.309	84.4624	341.309	82.5245	341.309	83.1895	341.309	80.7481	341.309	81.79	341.309	79.7429	341.309	80.8327	341.309	80.2951	341.309	81.0005	341.309	81.6744	341.309	82.04	341.309	82.9433	341.309	83.144	341.309	83.7675	341.309	83.8656	341.309	84.0788
353.027	88.3026	353.027	88.1846	353.027	88.2636	353.027	87.9243	353.027	88.0675	353.027	87.5485	353.027	87.7313	353.027	87.0943	353.027	87.2903	353.027	86.6031	353.027	86.788	353.027	86.1027	353.027	86.2496	353.027	85.5807	353.027	85.6512	353.027	84.9645	353.027	84.9083	353.027	84.1257	353.027	83.8964	353.027	82.9109	353.027	82.495	353.027	81.2083	353.027	80.6946	353.027	79.1976	353.027	78.9581	353.027	78.0504	353.027	78.6145	353.027	79.1093	353.027	80.0464	353.027	81.1433	353.027	81.8693	353.027	82.8302	353.027	83.2653	353.027	83.8717	353.027	84.0692	353.027	84.2739
366.211	88.5578	366.211	88.3847	366.211	88.5584	366.211	88.0633	366.211	88.3875	366.211	87.6432	366.211	88.0657	366.211	87.1869	366.211	87.6301	366.211	86.7428	366.211	87.1271	366.211	86.319	366.211	86.5953	366.211	85.879	366.211	86.0365	366.211	85.3552	366.211	85.3918	366.211	84.6583	366.211	84.5437	366.211	83.678	366.211	83.3339	366.211	82.3022	366.211	81.5838	366.211	80.5349	366.211	79.1932	366.211	78.9058	366.211	76.8175	366.211	78.7278	366.211	76.9547	366.211	80.1039	366.211	79.3245	366.211	81.6648	366.211	81.428	366.211	82.7036	366.211	82.6596	366.211	83.0567
379.395	88.737	379.395	88.6525	379.395	88.6935	379.395	88.446	379.395	88.5228	379.395	88.1257	379.395	88.2364	379.395	87.7012	379.395	87.8572	379.395	87.1831	379.395	87.4123	379.395	86.5773	379.395	86.9186	379.395	85.8708	379.395	86.3621	379.395	85.0126	379.395	85.6812	379.395	83.8992	379.395	84.7619	379.395	82.368	379.395	83.4469	379.395	80.2068	379.395	81.5574	379.395	77.3259	379.395	79.0022	379.395	74.9974	379.395	76.4262	379.395	76.2303	379.395	76.2282	379.395	78.8885	379.395	78.3012	379.395	80.8078	379.395	80.2762	379.395	81.818	379.395	81.5227	379.395	82.0342
392.578	87.627	392.578	87.5765	392.578	87.5386	392.578	87.4025	392.578	87.3314	392.578	87.1537	392.578	87.0588	392.578	86.8988	392.578	86.7921	392.578	86.6922	392.578	86.5861	392.578	86.5277	392.578	86.4365	392.578	86.3176	392.578	86.2628	392.578	85.9181	392.578	85.9267	392.578	85.1634	392.578	85.2604	392.578	83.8713	392.578	84.0715	392.578	81.8036	392.578	82.108	392.578	78.5769	392.578	78.9778	392.578	73.8487	392.578	74.3973	392.578	72.4446	392.578	73.1888	392.578	76.9005	392.578	77.4551	392.578	80.1258	392.578	80.502	392.578	81.8892	392.578	82.0826	392.578	82.5116
405.762	87.9776	405.762	87.7706	405.762	87.89	405.762	87.2899	405.762	87.5208	405.762	86.603	405.762	86.9214	405.762	85.851	405.762	86.2024	405.762	85.2565	405.762	85.5489	405.762	85.0271	405.762	85.1711	405.762	85.165	405.762	85.1521	405.762	85.43	405.762	85.3408	405.762	85.5115	405.762	85.4466	405.762	85.1451	405.762	85.1775	405.762	84.0901	405.762	84.2599	405.762	82.0182	405.762	82.352	405.762	78.2412	405.762	78.7937	405.762	70.8057	405.762	71.6389	405.762	70.2926	405.762	68.963	405.762	77.0111	405.762	76.5607	405.762	79.8561	405.762	79.6907	405.762	80.6284
420.41	88.9204	420.41	88.7594	420.41	88.8101	420.41	88.3172	420.41	88.4349	420.41	87.5901	420.41	87.7989	420.41	86.6	420.41	86.9181	420.41	85.4274	420.41	85.8488	420.41	84.2502	420.41	84.7206	420.41	83.3328	420.41	83.7401	420.41	82.8627	420.41	83.0956	420.41	82.7519	420.41	82.7901	420.41	82.705	420.41	82.6004	420.41	82.4205	420.41	82.2092	420.41	81.6612	420.41	81.3144	420.41	80.2419	420.41	79.6663	420.41	78.1026	420.41	77.2231	420.41	75.8023	420.41	74.9973	420.41	75.118	420.41	75.1193	420.41	76.1002	420.41	76.3557	420.41	76.777
435.059	88.3179	435.059	88.2249	435.059	88.198	435.059	87.9305	435.059	87.8614	435.059	87.4413	435.059	87.3214	435.059	86.7538	435.059	86.6111	435.059	85.8722	435.059	85.7865	435.059	84.8509	435.059	84.9331	435.059	83.838	435.059	84.16	435.059	83.0376	435.059	83.553	435.059	82.5287	435.059	83.1005	435.059	82.1309	435.059	82.6711	435.059	81.5288	435.059	82.0714	435.059	80.4618	435.059	81.1132	435.059	78.8372	435.059	79.6603	435.059	76.952	435.059	77.7394	435.059	75.8031	435.059	75.9	435.059	76.0074	435.059	75.3206	435.059	76.58	435.059	75.9851	435.059	76.616
451.172	88.2647	451.172	88.111	451.172	88.2059	451.172	87.7481	451.172	87.9283	451.172	87.1926	451.172	87.4243	451.172	86.4952	451.172	86.7065	451.172	85.7457	451.172	85.84	451.172	85.0338	451.172	84.9517	451.172	84.3743	451.172	84.1646	451.172	83.6624	451.172	83.4724	451.172	82.7089	451.172	82.6965	451.172	81.3096	451.172	81.5723	451.172	79.2974	451.172	79.8249	451.172	76.6838	451.172	77.2134	451.172	74.4728	451.172	74.129	451.172	75.1409	451.172	74.0411	451.172	77.7071	451.172	77.221	451.172	79.9654	451.172	79.8988	451.172	81.3878	451.172	81.427	451.172	81.8936
465.82	88.8642	465.82	88.7223	465.82	88.758	465.82	88.3325	465.82	88.4056	465.82	87.7008	465.82	87.8126	465.82	86.8499	465.82	86.9966	465.82	85.8435	465.82	86.0105	465.82	84.827	465.82	84.9824	465.82	84.0364	465.82	84.1352	465.82	83.6498	465.82	83.6684	465.82	83.5486	465.82	83.5174	465.82	83.3565	465.82	83.3368	465.82	82.6613	465.82	82.7274	465.82	81.0669	465.82	81.3431	465.82	78.0838	465.82	78.8268	465.82	73.2696	465.82	74.8096	465.82	71.3429	465.82	71.2069	465.82	75.1048	465.82	73.6885	465.82	77.3157	465.82	76.5415	465.82	77.7229
483.398	88.1715	483.398	88.0235	483.398	88.0353	483.398	87.6048	483.398	87.6199	483.398	86.9419	483.398	86.9521	483.398	86.0737	483.398	86.0814	483.398	85.062	483.398	85.0793	483.398	84.0098	483.398	84.0426	483.398	83.0645	483.398	83.0982	483.398	82.3687	483.398	82.3851	483.398	81.9459	483.398	81.9668	483.398	81.6205	483.398	81.7069	483.398	81.0644	483.398	81.2653	483.398	79.8822	483.398	80.2137	483.398	77.6201	483.398	78.0789	483.398	73.9236	483.398	74.3516	483.398	71.3998	483.398	70.6462	483.398	74.2132	483.398	73.2823	483.398	76.6716	483.398	76.2714	483.398	77.3491
499.512	87.6973	499.512	87.5304	499.512	87.648	499.512	87.1512	499.512	87.3696	499.512	86.5593	499.512	86.8407	499.512	85.7571	499.512	86.0448	499.512	84.7606	499.512	85.0001	499.512	83.6261	499.512	83.805	499.512	82.4895	499.512	82.6663	499.512	81.5646	499.512	81.8171	499.512	81.0048	499.512	81.3151	499.512	80.7129	499.512	80.9906	499.512	80.3788	499.512	80.6148	499.512	79.6824	499.512	79.9988	499.512	78.4149	499.512	78.9704	499.512	76.5494	499.512	77.411	499.512	74.4863	499.512	75.5532	499.512	73.4034	499.512	74.3876	499.512	73.8129	499.512	74.3853	499.512	74.4011
517.09	88.4576	517.09	88.3367	517.09	88.3286	517.09	87.9633	517.09	87.9842	517.09	87.3722	517.09	87.4647	517.09	86.6178	517.09	86.7914	517.09	85.7486	517.09	85.9686	517.09	84.7973	517.09	85.0126	517.09	83.7938	517.09	83.9698	517.09	82.7799	517.09	82.8935	517.09	81.7763	517.09	81.795	517.09	80.7006	517.09	80.6252	517.09	79.3501	517.09	79.2966	517.09	77.5912	517.09	77.7407	517.09	75.991	517.09	76.171	517.09	76.243	517.09	75.716	517.09	78.1393	517.09	77.2297	517.09	79.9219	517.09	79.2819	517.09	80.9875	517.09	80.7063	517.09	81.2634
536.133	88.2431	536.133	88.0557	536.133	88.1561	536.133	87.5942	536.133	87.7718	536.133	86.8427	536.133	87.0656	536.133	85.8	536.133	86.0504	536.133	84.5272	536.133	84.8061	536.133	83.2135	536.133	83.4898	536.133	82.1859	536.133	82.3375	536.133	81.678	536.133	81.6251	536.133	81.5332	536.133	81.4473	536.133	81.3623	536.133	81.4896	536.133	80.8244	536.133	81.2274	536.133	79.6073	536.133	80.2103	536.133	77.2859	536.133	78.0459	536.133	73.3298	536.133	74.2446	536.133	70.0314	536.133	69.6941	536.133	73.2849	536.133	71.9491	536.133	76.0388	536.133	75.3711	536.133	76.6901
555.176	88.082	555.176	87.9459	555.176	88.0064	555.176	87.5835	555.176	87.7161	555.176	86.9607	555.176	87.1922	555.176	86.0417	555.176	86.3869	555.176	84.8112	555.176	85.2234	555.176	83.2873	555.176	83.6541	555.176	81.5749	555.176	81.8166	555.176	80.0352	555.176	80.2426	555.176	79.2726	555.176	79.5597	555.176	79.2969	555.176	79.5585	555.176	79.291	555.176	79.4934	555.176	78.5295	555.176	78.8259	555.176	76.5852	555.176	77.1596	555.176	73.4483	555.176	74.2701	555.176	72.1443	555.176	72.3025	555.176	74.987	555.176	74.7563	555.176	77.346	555.176	77.2434	555.176	78.1037
574.219	87.8719	574.219	87.6384	574.219	87.8196	574.219	87.1728	574.219	87.4725	574.219	86.5478	574.219	86.8539	574.219	85.7932	574.219	86.0067	574.219	84.8752	574.219	84.9831	574.219	83.7661	574.219	83.8131	574.219	82.5287	574.219	82.4899	574.219	81.2848	574.219	81.0718	574.219	80.0918	574.219	79.8393	574.219	78.9588	574.219	79.0625	574.219	77.9624	574.219	78.4349	574.219	77.0588	574.219	77.4183	574.219	75.9184	574.219	75.9971	574.219	74.6394	574.219	74.6772	574.219	74.6127	574.219	74.0253	574.219	76.0646	574.219	74.6794	574.219	77.2332	574.219	76.2142	574.219	77.2847
594.727	87.275	594.727	87.1661	594.727	87.1462	594.727	86.8079	594.727	86.7915	594.727	86.1872	594.727	86.2258	594.727	85.2961	594.727	85.4591	594.727	84.1367	594.727	84.4975	594.727	82.7275	594.727	83.3964	594.727	81.192	594.727	82.326	594.727	79.9378	594.727	81.4687	594.727	79.4405	594.727	80.7882	594.727	79.4469	594.727	80.115	594.727	79.1923	594.727	79.3514	594.727	78.0859	594.727	78.2134	594.727	75.4893	594.727	75.9156	594.727	69.6318	594.727	71.2634	594.727	63.7248	594.727	68.4714	594.727	72.8537	594.727	73.6538	594.727	76.399	594.727	76.5599	594.727	77.3825
615.234	87.7896	615.234	87.6141	615.234	87.6623	615.234	87.1523	615.234	87.2203	615.234	86.4238	615.234	86.4701	615.234	85.4554	615.234	85.4407	615.234	84.2732	615.234	84.1711	615.234	82.8997	615.234	82.6952	615.234	81.4097	615.234	81.0493	615.234	80.0292	615.234	79.4143	615.234	79.1065	615.234	78.4333	615.234	78.833	615.234	78.629	615.234	78.8822	615.234	79.1722	615.234	78.3677	615.234	78.9941	615.234	76.1833	615.234	77.433	615.234	70.5359	615.234	73.381	615.234	62.7111	615.234	62.5562	615.234	72.3309	615.234	70.5957	615.234	76.154	615.234	75.851	615.234	77.2168
637.207	87.8288	637.207	87.6354	637.207	87.7596	637.207	87.1908	637.207	87.4385	637.207	86.515	637.207	86.8841	637.207	85.6038	637.207	86.1045	637.207	84.4316	637.207	85.0809	637.207	83.0045	637.207	83.7791	637.207	81.3975	637.207	82.2179	637.207	79.7918	637.207	80.5777	637.207	78.6068	637.207	79.2581	637.207	78.2556	637.207	78.6683	637.207	78.3969	637.207	78.6703	637.207	78.3352	637.207	78.504	637.207	77.5807	637.207	77.4114	637.207	75.5595	637.207	74.7907	637.207	71.637	637.207	70.0329	637.207	69.8302	637.207	68.6164	637.207	73.3596	637.207	73.0563	637.207	74.7268
659.18	87.8922	659.18	87.7575	659.18	87.8592	659.18	87.4528	659.18	87.6153	659.18	86.9467	659.18	87.1167	659.18	86.243	659.18	86.3468	659.18	85.3474	659.18	85.3157	659.18	84.1577	659.18	84.0633	659.18	82.4814	659.18	82.6306	659.18	80.1908	659.18	80.9929	659.18	77.5512	659.18	79.1931	659.18	76.1517	659.18	77.7195	659.18	76.9863	659.18	77.1979	659.18	77.655	659.18	77.1714	659.18	76.498	659.18	76.4471	659.18	72.5076	659.18	73.9243	659.18	67.9067	659.18	70.8184	659.18	73.3577	659.18	73.9503	659.18	76.8316	659.18	76.989	659.18	77.8678
682.617	88.1895	682.617	87.9987	682.617	88.0319	682.617	87.4973	682.617	87.5895	682.617	86.79	682.617	86.9768	682.617	85.9612	682.617	86.2502	682.617	85.004	682.617	85.3476	682.617	83.8388	682.617	84.1873	682.617	82.434	682.617	82.8068	682.617	80.9486	682.617	81.3071	682.617	79.707	682.617	79.8063	682.617	78.8488	682.617	78.7377	682.617	78.1446	682.617	78.3041	682.617	77.3462	682.617	77.6202	682.617	76.0812	682.617	75.9845	682.617	73.2335	682.617	73.1384	682.617	65.6254	682.617	68.1455	682.617	65.9278	682.617	69.5935	682.617	73.4174	682.617	74.3901	682.617	75.5541
707.52	87.7169	707.52	87.5629	707.52	87.5734	707.52	87.1082	707.52	87.107	707.52	86.38	707.52	86.2703	707.52	85.4138	707.52	85.1151	707.52	84.2111	707.52	83.8713	707.52	82.8066	707.52	82.7807	707.52	81.2996	707.52	81.7766	707.52	79.7701	707.52	80.536	707.52	78.2894	707.52	78.8552	707.52	77.077	707.52	77.0832	707.52	76.6487	707.52	76.6739	707.52	76.9033	707.52	77.663	707.52	76.5106	707.52	77.7786	707.52	74.3732	707.52	75.7701	707.52	70.3122	707.52	70.7977	707.52	69.0615	707.52	65.2056	707.52	72.0593	707.52	70.5673	707.52	72.9673
732.422	87.9282	732.422	87.8094	732.422	87.6855	732.422	87.2965	732.422	87.1534	732.422	86.4495	732.422	86.4091	732.422	85.474	732.422	85.4607	732.422	84.569	732.422	84.2457	732.422	83.6817	732.422	82.7654	732.422	82.5834	732.422	81.1915	732.422	81.106	732.422	79.7843	732.422	79.3132	732.422	78.6376	732.422	77.7186	732.422	77.5764	732.422	76.7816	732.422	76.6026	732.422	76.0737	732.422	76.0043	732.422	74.9548	732.422	75.1447	732.422	72.1518	732.422	72.3687	732.422	64.8906	732.422	66.1494	732.422	69.9849	732.422	70.2396	732.422	75.2547	732.422	75.1671	732.422	76.6055
757.324	87.8091	757.324	87.6424	757.324	87.5829	757.324	87.1115	757.324	87.0553	757.324	86.2635	757.324	86.3462	757.324	85.079	757.324	85.4455	757.324	83.6265	757.324	84.2503	757.324	82.2061	757.324	82.7649	757.324	81.0134	757.324	81.1864	757.324	79.897	757.324	79.6381	757.324	78.8763	757.324	77.9741	757.324	77.8964	757.324	76.6756	757.324	76.9261	757.324	76.6756	757.324	77.1173	757.324	77.1958	757.324	77.3212	757.324	77.1112	757.324	74.7044	757.324	74.9974	757.324	65.1342	757.324	66.1908	757.324	66.4822	757.324	67.6372	757.324	74.0362	757.324	75.0616	757.324	76.2641
785.156	87.6013	785.156	87.1508	785.156	87.5706	785.156	86.3876	785.156	87.0039	785.156	85.4116	785.156	85.9406	785.156	84.1041	785.156	84.4618	785.156	82.4148	785.156	82.814	785.156	80.8867	785.156	81.6414	785.156	80.4113	785.156	81.2806	785.156	80.3975	785.156	80.9707	785.156	79.3394	785.156	80.1707	785.156	76.8416	785.156	79.0334	785.156	75.1743	785.156	77.3506	785.156	75.1679	785.156	74.9997	785.156	74.2392	785.156	73.2496	785.156	72.7882	785.156	72.2632	785.156	70.5793	785.156	69.1541	785.156	64.0345	785.156	59.049	785.156	61.959	785.156	67.0481	785.156	68.5314
811.523	89.1293	811.523	89.2376	811.523	88.8445	811.523	89.2541	811.523	88.2102	811.523	89.0299	811.523	87.138	811.523	88.3731	811.523	85.614	811.523	87.2748	811.523	83.5982	811.523	85.8918	811.523	81.0648	811.523	84.5154	811.523	78.4852	811.523	83.4747	811.523	76.7049	811.523	82.526	811.523	75.991	811.523	81.0703	811.523	75.7119	811.523	79.4888	811.523	75.2376	811.523	78.5345	811.523	75.6313	811.523	77.1507	811.523	75.5183	811.523	73.5692	811.523	73.8766	811.523	63.4562	811.523	70.0179	811.523	71.3027	811.523	73.1641	811.523	76.074	811.523	77.4287	811.523	77.6439
840.82	89.2731	840.82	89.1298	840.82	88.8532	840.82	88.3633	840.82	88.0023	840.82	87.1564	840.82	86.8671	840.82	85.7016	840.82	85.5445	840.82	83.7045	840.82	83.9683	840.82	80.9062	840.82	82.1336	840.82	78.709	840.82	80.3009	840.82	78.2169	840.82	78.8765	840.82	77.6994	840.82	78.5055	840.82	77.5117	840.82	79.1927	840.82	77.9957	840.82	79.4837	840.82	78.4293	840.82	78.8174	840.82	78.4896	840.82	78.0491	840.82	77.8867	840.82	77.4638	840.82	76.1002	840.82	76.5654	840.82	72.3716	840.82	73.9914	840.82	69.9778	840.82	69.361	840.82	70.2162
870.117	88.0711	870.117	88.2396	870.117	87.6827	870.117	88.0022	870.117	87.1685	870.117	87.2449	870.117	86.4531	870.117	86.2175	870.117	85.4656	870.117	85.3983	870.117	84.4638	870.117	84.5369	870.117	83.509	870.117	82.8796	870.117	81.9233	870.117	80.2072	870.117	79.4038	870.117	76.7796	870.117	75.9456	870.117	73.3366	870.117	68.8893	870.117	73.6999	870.117	67.437	870.117	75.5182	870.117	72.3143	870.117	76.1207	870.117	74.0368	870.117	75.3754	870.117	74.2535	870.117	73.6058	870.117	72.1032	870.117	70.4883	870.117	64.8574	870.117	73.5976	870.117	72.4639	870.117	75.9332
900.879	88.114	900.879	87.7579	900.879	87.8791	900.879	86.8812	900.879	87.2258	900.879	85.7763	900.879	86.3677	900.879	84.4903	900.879	85.4201	900.879	82.8167	900.879	84.2997	900.879	80.7494	900.879	83.0563	900.879	78.2683	900.879	81.8892	900.879	74.9701	900.879	80.3922	900.879	72.2669	900.879	79.2463	900.879	71.8206	900.879	79.4893	900.879	72.3377	900.879	79.1322	900.879	73.52	900.879	78.1388	900.879	75.619	900.879	77.5239	900.879	76.0873	900.879	76.4518	900.879	71.995	900.879	73.2625	900.879	58.3973	900.879	66.052	900.879	66.0824	900.879	48.0492	900.879	66.2939
933.105	88.2655	933.105	88.2997	933.105	88.1309	933.105	88.0992	933.105	87.6592	933.105	87.2813	933.105	86.7952	933.105	85.9975	933.105	85.7167	933.105	84.9189	933.105	84.3902	933.105	84.0519	933.105	82.7977	933.105	82.8043	933.105	81.3653	933.105	80.8382	933.105	79.8733	933.105	77.9088	933.105	77.0249	933.105	73.2615	933.105	71.2203	933.105	70.4219	933.105	65.7362	933.105	74.0293	933.105	71.3995	933.105	75.3431	933.105	74.6479	933.105	74.9222	933.105	76.3612	933.105	72.1412	933.105	74.1309	933.105	61.235	933.105	57.0776	933.105	68.5255	933.105	70.0306	933.105	72.5511
965.332	88.7841	965.332	88.2511	965.332	88.5345	965.332	87.1309	965.332	87.8887	965.332	86.1622	965.332	87.109	965.332	85.3925	965.332	86.3316	965.332	84.3113	965.332	85.6996	965.332	83.2644	965.332	84.8544	965.332	82.4892	965.332	83.4253	965.332	81.2763	965.332	81.7377	965.332	79.7693	965.332	80.0948	965.332	78.3891	965.332	78.7516	965.332	76.1279	965.332	76.6078	965.332	71.0136	965.332	75.0488	965.332	72.3503	965.332	75.9473	965.332	76.6434	965.332	74.303	965.332	75.6623	965.332	72.2642	965.332	66.4734	965.332	66.2627	965.332	63.669	965.332	61.7248	965.332	68.3675
1,000.49	88.1823	1,000.49	88.012	1,000.49	88.0719	1,000.49	87.4491	1,000.49	87.4925	1,000.49	86.3354	1,000.49	86.2152	1,000.49	84.9998	1,000.49	84.4436	1,000.49	83.9348	1,000.49	82.8857	1,000.49	82.7353	1,000.49	81.4496	1,000.49	81.1573	1,000.49	79.9294	1,000.49	79.6731	1,000.49	79.2645	1,000.49	78.0871	1,000.49	77.4596	1,000.49	76.3345	1,000.49	72.2859	1,000.49	74.5683	1,000.49	69.3264	1,000.49	72.9606	1,000.49	70.4191	1,000.49	67.1127	1,000.49	73.8369	1,000.49	69.9634	1,000.49	75.3191	1,000.49	71.3229	1,000.49	72.5136	1,000.49	60.5092	1,000.49	65.51	1,000.49	65.6732	1,000.49	52.0185	1,000.49	62.747
1,035.64	87.7438	1,035.64	87.4218	1,035.64	87.5228	1,035.64	86.5728	1,035.64	87.0351	1,035.64	85.5965	1,035.64	86.2855	1,035.64	84.524	1,035.64	84.932	1,035.64	82.78	1,035.64	83.3184	1,035.64	80.7505	1,035.64	82.5004	1,035.64	80.0445	1,035.64	81.5689	1,035.64	79.272	1,035.64	79.5001	1,035.64	76.0643	1,035.64	77.7273	1,035.64	71.9417	1,035.64	76.6361	1,035.64	70.0559	1,035.64	75.0531	1,035.64	70.2855	1,035.64	72.0292	1,035.64	69.8251	1,035.64	71.5652	1,035.64	72.5779	1,035.64	73.504	1,035.64	76.2825	1,035.64	74.2339	1,035.64	73.1519	1,035.64	72.0392	1,035.64	59.6798	1,035.64	63.92	1,035.64	60.8713
1,072.27	86.9196	1,072.27	87.1737	1,072.27	86.8783	1,072.27	87.1363	1,072.27	86.8099	1,072.27	86.108	1,072.27	86.453	1,072.27	84.302	1,072.27	85.5705	1,072.27	82.8849	1,072.27	84.1622	1,072.27	82.1974	1,072.27	83.1911	1,072.27	81.5481	1,072.27	82.237	1,072.27	80.9763	1,072.27	80.3508	1,072.27	80.3145	1,072.27	77.7723	1,072.27	79.8102	1,072.27	74.7085	1,072.27	78.1661	1,072.27	75.4463	1,072.27	76.2741	1,072.27	73.3684	1,072.27	75.3479	1,072.27	72.0349	1,072.27	73.6395	1,072.27	73.4226	1,072.27	74.2062	1,072.27	72.8667	1,072.27	67.0605	1,072.27	70.6018	1,072.27	69.3604	1,072.27	68.5716	1,072.27	71.9141
1,108.89	87.5081	1,108.89	87.0959	1,108.89	87.3818	1,108.89	86.617	1,108.89	86.6559	1,108.89	85.94	1,108.89	85.6828	1,108.89	84.5457	1,108.89	84.3515	1,108.89	82.4492	1,108.89	82.211	1,108.89	80.0635	1,108.89	79.5077	1,108.89	78.5121	1,108.89	78.4851	1,108.89	78.264	1,108.89	79.3458	1,108.89	77.4219	1,108.89	79.4283	1,108.89	76.4665	1,108.89	77.2968	1,108.89	76.3198	1,108.89	72.198	1,108.89	75.1407	1,108.89	68.7469	1,108.89	73.1597	1,108.89	65.585	1,108.89	68.9965	1,108.89	64.9742	1,108.89	69.045	1,108.89	66.4067	1,108.89	68.5163	1,108.89	64.2261	1,108.89	54.4228	1,108.89	65.084	1,108.89	66.6063
1,148.44	87.4886	1,148.44	87.5002	1,148.44	87.3474	1,148.44	87.151	1,148.44	87.0184	1,148.44	86.3477	1,148.44	86.2532	1,148.44	85.2258	1,148.44	85.1734	1,148.44	83.7705	1,148.44	83.6027	1,148.44	81.9843	1,148.44	81.2488	1,148.44	79.9032	1,148.44	79.0208	1,148.44	77.6196	1,148.44	77.6204	1,148.44	76.5367	1,148.44	76.521	1,148.44	74.2992	1,148.44	76.0465	1,148.44	72.0372	1,148.44	74.5347	1,148.44	71.6011	1,148.44	73.0706	1,148.44	72.272	1,148.44	73.0179	1,148.44	72.9765	1,148.44	72.1019	1,148.44	71.5652	1,148.44	70.332	1,148.44	67.9776	1,148.44	64.2217	1,148.44	56.3036	1,148.44	54.6717	1,148.44	62.9653
1,189.45	87.6906	1,189.45	87.4715	1,189.45	87.4213	1,189.45	86.9179	1,189.45	86.8148	1,189.45	86.2624	1,189.45	86.0196	1,189.45	85.2076	1,189.45	85.0584	1,189.45	83.4366	1,189.45	83.5876	1,189.45	80.9307	1,189.45	81.6052	1,189.45	78.4755	1,189.45	79.3789	1,189.45	77.0768	1,189.45	76.6578	1,189.45	75.5492	1,189.45	75.3111	1,189.45	74.0912	1,189.45	74.6169	1,189.45	73.1733	1,189.45	74.0455	1,189.45	70.2488	1,189.45	72.3109	1,189.45	68.9021	1,189.45	70.4344	1,189.45	71.7242	1,189.45	72.0164	1,189.45	70.865	1,189.45	72.6716	1,189.45	66.7914	1,189.45	70.3139	1,189.45	59.936	1,189.45	63.2315	1,189.45	60.349
1,230.47	87.3382	1,230.47	87.2346	1,230.47	87.3899	1,230.47	87.1247	1,230.47	86.8567	1,230.47	86.366	1,230.47	85.782	1,230.47	85.0015	1,230.47	84.6835	1,230.47	83.5178	1,230.47	83.7533	1,230.47	81.7934	1,230.47	82.289	1,230.47	79.5491	1,230.47	80.0654	1,230.47	76.9266	1,230.47	78.0503	1,230.47	75.3117	1,230.47	77.084	1,230.47	75.4172	1,230.47	77.1423	1,230.47	74.9314	1,230.47	76.8931	1,230.47	72.8495	1,230.47	75.6545	1,230.47	70.6354	1,230.47	72.6495	1,230.47	69.0113	1,230.47	68.3269	1,230.47	71.1112	1,230.47	71.1039	1,230.47	65.3671	1,230.47	68.7649	1,230.47	55.398	1,230.47	49.3201	1,230.47	58.458
1,274.41	87.2609	1,274.41	87.252	1,274.41	87.1741	1,274.41	86.8558	1,274.41	86.8668	1,274.41	85.794	1,274.41	86.0772	1,274.41	84.2327	1,274.41	84.9212	1,274.41	82.738	1,274.41	83.1436	1,274.41	80.6119	1,274.41	81.1081	1,274.41	78.6397	1,274.41	79.6117	1,274.41	77.783	1,274.41	77.1297	1,274.41	75.5826	1,274.41	74.3502	1,274.41	71.7735	1,274.41	72.6742	1,274.41	73.8581	1,274.41	74.0067	1,274.41	74.6385	1,274.41	74.5652	1,274.41	69.3211	1,274.41	72.8959	1,274.41	68.1479	1,274.41	70.0837	1,274.41	71.632	1,274.41	69.0333	1,274.41	69.66	1,274.41	70.4286	1,274.41	64.9586	1,274.41	68.1485	1,274.41	68.7146
1,319.82	86.8985	1,319.82	86.6385	1,319.82	86.5093	1,319.82	85.6518	1,319.82	85.9654	1,319.82	84.6117	1,319.82	84.9751	1,319.82	83.2356	1,319.82	83.6499	1,319.82	81.6203	1,319.82	82.3239	1,319.82	80.1111	1,319.82	80.5886	1,319.82	77.422	1,319.82	78.9379	1,319.82	75.1744	1,319.82	77.2027	1,319.82	73.9669	1,319.82	74.5391	1,319.82	72.0233	1,319.82	72.0263	1,319.82	69.7199	1,319.82	69.8981	1,319.82	71.6903	1,319.82	71.3501	1,319.82	69.9421	1,319.82	72.3192	1,319.82	65.4733	1,319.82	69.6366	1,319.82	68.5953	1,319.82	72.0046	1,319.82	67.385	1,319.82	70.1011	1,319.82	62.0183	1,319.82	63.12	1,319.82	65.913
1,366.7	86.3247	1,366.7	85.8046	1,366.7	86.2631	1,366.7	85.1269	1,366.7	85.3327	1,366.7	83.9659	1,366.7	84.3493	1,366.7	82.8346	1,366.7	83.0741	1,366.7	81.5142	1,366.7	81.3962	1,366.7	79.3568	1,366.7	79.4078	1,366.7	76.3641	1,366.7	76.5827	1,366.7	73.5352	1,366.7	73.1067	1,366.7	72.363	1,366.7	71.1434	1,366.7	71.5108	1,366.7	70.235	1,366.7	69.2067	1,366.7	67.0331	1,366.7	69.2648	1,366.7	65.2518	1,366.7	66.6084	1,366.7	65.1061	1,366.7	66.8064	1,366.7	60.5814	1,366.7	66.8582	1,366.7	67.9975	1,366.7	66.919	1,366.7	66.4901	1,366.7	66.8445	1,366.7	67.1821	1,366.7	65.7444
1,413.57	86.4931	1,413.57	86.2135	1,413.57	86.6375	1,413.57	85.3563	1,413.57	86.3555	1,413.57	84.1829	1,413.57	85.348	1,413.57	82.824	1,413.57	84.1235	1,413.57	81.1002	1,413.57	82.0852	1,413.57	79.0534	1,413.57	79.707	1,413.57	76.8861	1,413.57	77.7502	1,413.57	74.6393	1,413.57	74.4541	1,413.57	73.7468	1,413.57	72.3044	1,413.57	71.3777	1,413.57	72.4159	1,413.57	66.8123	1,413.57	71.2789	1,413.57	69.4773	1,413.57	68.801	1,413.57	69.1454	1,413.57	68.4793	1,413.57	69.5082	1,413.57	66.2936	1,413.57	70.3607	1,413.57	70.1857	1,413.57	65.8576	1,413.57	69.928	1,413.57	66.5509	1,413.57	64.4505	1,413.57	68.1411
1,463.38	86.8392	1,463.38	86.3568	1,463.38	86.7219	1,463.38	85.7137	1,463.38	85.6877	1,463.38	84.6652	1,463.38	84.8798	1,463.38	83.1625	1,463.38	83.3954	1,463.38	81.6226	1,463.38	81.7433	1,463.38	80.3199	1,463.38	80.4905	1,463.38	77.9919	1,463.38	77.9097	1,463.38	75.6977	1,463.38	75.4772	1,463.38	73.2946	1,463.38	74.8779	1,463.38	72.3	1,463.38	72.4246	1,463.38	67.772	1,463.38	65.6715	1,463.38	61.8987	1,463.38	67.4682	1,463.38	61.6171	1,463.38	67.7197	1,463.38	63.0851	1,463.38	66.15	1,463.38	67.5038	1,463.38	67.4025	1,463.38	67.2406	1,463.38	68.7993	1,463.38	65.7588	1,463.38	61.53	1,463.38	67.1496
1,516.11	87.4571	1,516.11	87.3445	1,516.11	87.3596	1,516.11	86.4434	1,516.11	87.1668	1,516.11	85.1948	1,516.11	85.9721	1,516.11	84.0265	1,516.11	84.3605	1,516.11	82.1379	1,516.11	82.6509	1,516.11	80.1545	1,516.11	80.2144	1,516.11	79.4358	1,516.11	78.9581	1,516.11	77.0809	1,516.11	77.0186	1,516.11	74.4871	1,516.11	74.9135	1,516.11	71.3551	1,516.11	74.6681	1,516.11	71.6384	1,516.11	74.9598	1,516.11	71.4491	1,516.11	72.5925	1,516.11	71.223	1,516.11	72.0045	1,516.11	66.3923	1,516.11	68.7249	1,516.11	69.527	1,516.11	68.181	1,516.11	63.3671	1,516.11	64.2436	1,516.11	68.2549	1,516.11	66.2137	1,516.11	69.1243
1,568.85	87.4644	1,568.85	86.6852	1,568.85	87.2588	1,568.85	86.123	1,568.85	86.6705	1,568.85	85.5929	1,568.85	85.7034	1,568.85	84.1992	1,568.85	84.18	1,568.85	82.5292	1,568.85	82.0723	1,568.85	80.7746	1,568.85	80.5415	1,568.85	77.6418	1,568.85	78.7918	1,568.85	75.636	1,568.85	75.9933	1,568.85	74.6789	1,568.85	74.2984	1,568.85	73.3087	1,568.85	71.5827	1,568.85	71.6215	1,568.85	68.6169	1,568.85	69.754	1,568.85	68.4486	1,568.85	69.5017	1,568.85	68.8944	1,568.85	66.1149	1,568.85	70.5429	1,568.85	67.8375	1,568.85	71.907	1,568.85	70.9373	1,568.85	71.3802	1,568.85	68.3808	1,568.85	66.4822	1,568.85	68.4966
1,624.51	85.6011	1,624.51	86.0248	1,624.51	85.8801	1,624.51	85.9506	1,624.51	85.6791	1,624.51	85.2778	1,624.51	85.2218	1,624.51	83.933	1,624.51	83.2274	1,624.51	82.1327	1,624.51	81.321	1,624.51	80.0472	1,624.51	80.6653	1,624.51	79.1927	1,624.51	76.9265	1,624.51	77.3686	1,624.51	73.7092	1,624.51	73.0604	1,624.51	70.2974	1,624.51	72.8981	1,624.51	70.5863	1,624.51	71.2487	1,624.51	69.4584	1,624.51	69.8606	1,624.51	70.2806	1,624.51	71.5969	1,624.51	69.5927	1,624.51	70.4154	1,624.51	62.0655	1,624.51	65.4658	1,624.51	63.381	1,624.51	65.1304	1,624.51	60.9254	1,624.51	56.2406	1,624.51	60.2325	1,624.51	65.657
1,681.64	85.8047	1,681.64	85.6282	1,681.64	85.7579	1,681.64	84.839	1,681.64	85.2516	1,681.64	84.0669	1,681.64	84.8073	1,681.64	83.1095	1,681.64	83.0632	1,681.64	82.3935	1,681.64	82.4662	1,681.64	81.5605	1,681.64	80.925	1,681.64	78.6242	1,681.64	79.7509	1,681.64	76.267	1,681.64	76.7284	1,681.64	73.3688	1,681.64	76.3924	1,681.64	71.7652	1,681.64	74.5966	1,681.64	72.294	1,681.64	72.4491	1,681.64	68.2782	1,681.64	69.4483	1,681.64	68.1935	1,681.64	69.7794	1,681.64	72.2961	1,681.64	68.5368	1,681.64	72.56	1,681.64	68.8358	1,681.64	69.2987	1,681.64	71.5219	1,681.64	63.3448	1,681.64	49.8902	1,681.64	65.9408
1,741.7	86.9824	1,741.7	86.711	1,741.7	86.8917	1,741.7	86.2466	1,741.7	86.7851	1,741.7	85.1018	1,741.7	85.0569	1,741.7	83.5372	1,741.7	84.5089	1,741.7	82.1686	1,741.7	83.0781	1,741.7	78.7821	1,741.7	80.6357	1,741.7	76.7227	1,741.7	78.3642	1,741.7	75.0292	1,741.7	77.4137	1,741.7	71.8457	1,741.7	73.5339	1,741.7	67.9654	1,741.7	70.5256	1,741.7	68.3648	1,741.7	69.3241	1,741.7	69.5447	1,741.7	68.3877	1,741.7	71.1624	1,741.7	69.9484	1,741.7	62.6077	1,741.7	69.9845	1,741.7	64.7653	1,741.7	69.4129	1,741.7	65.4557	1,741.7	68.4907	1,741.7	68.323	1,741.7	64.722	1,741.7	55.6573
1,803.22	87.2276	1,803.22	87.1947	1,803.22	87.2154	1,803.22	86.8781	1,803.22	86.7165	1,803.22	85.96	1,803.22	86.0951	1,803.22	84.7076	1,803.22	85.0325	1,803.22	83.1023	1,803.22	83.3239	1,803.22	80.6395	1,803.22	81.4995	1,803.22	78.5833	1,803.22	78.7309	1,803.22	75.8932	1,803.22	77.2498	1,803.22	73.9363	1,803.22	74.4275	1,803.22	71.5784	1,803.22	71.6138	1,803.22	69.9749	1,803.22	70.3614	1,803.22	66.6043	1,803.22	69.9895	1,803.22	69.0951	1,803.22	70.526	1,803.22	69.721	1,803.22	70.5372	1,803.22	70.227	1,803.22	68.024	1,803.22	70.2279	1,803.22	69.6504	1,803.22	61.7779	1,803.22	65.3021	1,803.22	65.9681
1,866.21	86.8242	1,866.21	86.851	1,866.21	86.717	1,866.21	86.5314	1,866.21	86.5822	1,866.21	86.0444	1,866.21	85.7105	1,866.21	84.8088	1,866.21	84.5135	1,866.21	83.132	1,866.21	82.8832	1,866.21	81.2792	1,866.21	80.6296	1,866.21	78.6348	1,866.21	78.346	1,866.21	76.5238	1,866.21	75.3636	1,866.21	74.2553	1,866.21	73.7953	1,866.21	71.9189	1,866.21	72.2043	1,866.21	69.289	1,866.21	69.6984	1,866.21	70.1913	1,866.21	67.3251	1,866.21	69.4965	1,866.21	69.0161	1,866.21	69.9772	1,866.21	69.3451	1,866.21	65.3258	1,866.21	67.6838	1,866.21	68.7848	1,866.21	70.3577	1,866.21	63.5494	1,866.21	66.3257	1,866.21	63.2167
1,932.13	85.8781	1,932.13	85.6806	1,932.13	85.6393	1,932.13	85.7466	1,932.13	85.5402	1,932.13	84.937	1,932.13	85.1938	1,932.13	83.8493	1,932.13	83.9234	1,932.13	82.262	1,932.13	82.312	1,932.13	79.842	1,932.13	80.0935	1,932.13	77.7834	1,932.13	77.8748	1,932.13	75.263	1,932.13	75.2209	1,932.13	73.5397	1,932.13	72.3347	1,932.13	72.3254	1,932.13	70.2568	1,932.13	70.0975	1,932.13	70.0563	1,932.13	67.4157	1,932.13	66.8976	1,932.13	69.523	1,932.13	66.2603	1,932.13	70.5599	1,932.13	70.6513	1,932.13	71.0269	1,932.13	66.7296	1,932.13	68.6461	1,932.13	68.5557	1,932.13	65.7254	1,932.13	60.7714	1,932.13	64.1577
1,999.51	85.7823	1,999.51	85.8933	1,999.51	86.1274	1,999.51	85.5908	1,999.51	85.917	1,999.51	85.0708	1,999.51	85.5166	1,999.51	83.5709	1,999.51	84.3799	1,999.51	81.4909	1,999.51	82.6122	1,999.51	79.6415	1,999.51	80.1124	1,999.51	76.9901	1,999.51	77.9055	1,999.51	74.7797	1,999.51	75.7694	1,999.51	72.2228	1,999.51	73.3299	1,999.51	69.9434	1,999.51	71.6192	1,999.51	69.1405	1,999.51	69.8082	1,999.51	67.8461	1,999.51	68.9755	1,999.51	66.162	1,999.51	67.4369	1,999.51	69.4161	1,999.51	69.0328	1,999.51	64.5919	1,999.51	68.2282	1,999.51	70.4111	1,999.51	68.8604	1,999.51	63.1729	1,999.51	65.6125	1,999.51	62.9379
2,069.82	86.8787	2,069.82	86.741	2,069.82	86.7718	2,069.82	86.6024	2,069.82	86.7356	2,069.82	85.845	2,069.82	86.1921	2,069.82	84.5859	2,069.82	84.9541	2,069.82	82.7885	2,069.82	83.2155	2,069.82	80.1535	2,069.82	81.0735	2,069.82	77.848	2,069.82	78.5614	2,069.82	75.589	2,069.82	76.3215	2,069.82	72.8972	2,069.82	74.002	2,069.82	71.3278	2,069.82	70.9368	2,069.82	68.7274	2,069.82	70.8445	2,069.82	67.4232	2,069.82	69.389	2,069.82	66.6138	2,069.82	68.5621	2,069.82	68.4311	2,069.82	70.5077	2,069.82	68.57	2,069.82	68.2683	2,069.82	68.386	2,069.82	69.5766	2,069.82	57.1667	2,069.82	63.3249	2,069.82	59.9177
2,143.07	86.9178	2,143.07	87.0629	2,143.07	86.857	2,143.07	86.965	2,143.07	86.9236	2,143.07	86.357	2,143.07	86.2124	2,143.07	84.9663	2,143.07	84.8913	2,143.07	83.256	2,143.07	83.01	2,143.07	81.4035	2,143.07	80.9481	2,143.07	78.5315	2,143.07	78.2268	2,143.07	76.0564	2,143.07	75.5888	2,143.07	74.0039	2,143.07	73.1638	2,143.07	70.6424	2,143.07	70.9954	2,143.07	69.0089	2,143.07	66.9345	2,143.07	66.9398	2,143.07	67.7224	2,143.07	67.5682	2,143.07	66.5124	2,143.07	70.7543	2,143.07	69.2089	2,143.07	67.4141	2,143.07	69.5539	2,143.07	70.2937	2,143.07	70.024	2,143.07	67.5925	2,143.07	66.7539	2,143.07	62.7068
2,219.24	86.3802	2,219.24	86.4243	2,219.24	86.3472	2,219.24	86.0317	2,219.24	86.1407	2,219.24	85.646	2,219.24	85.62	2,219.24	84.3088	2,219.24	84.3996	2,219.24	82.3321	2,219.24	82.3319	2,219.24	80.6018	2,219.24	80.3528	2,219.24	78.21	2,219.24	77.6217	2,219.24	75.5219	2,219.24	75.4654	2,219.24	74.021	2,219.24	73.8045	2,219.24	71.1321	2,219.24	70.1958	2,219.24	71.0465	2,219.24	69.5992	2,219.24	69.1465	2,219.24	65.4981	2,219.24	68.2887	2,219.24	66.7645	2,219.24	69.0124	2,219.24	67.0697	2,219.24	69.5067	2,219.24	64.6792	2,219.24	69.4589	2,219.24	68.2812	2,219.24	62.1266	2,219.24	63.918	2,219.24	60.3956
2,296.88	86.8015	2,296.88	86.4942	2,296.88	86.8364	2,296.88	86.412	2,296.88	86.7609	2,296.88	85.6166	2,296.88	86.0634	2,296.88	83.9826	2,296.88	84.6443	2,296.88	82.1036	2,296.88	82.9817	2,296.88	79.6576	2,296.88	80.6746	2,296.88	77.3294	2,296.88	78.5538	2,296.88	74.3843	2,296.88	75.9514	2,296.88	71.3627	2,296.88	73.2793	2,296.88	70.2405	2,296.88	70.7403	2,296.88	66.7043	2,296.88	69.726	2,296.88	65.5658	2,296.88	66.9691	2,296.88	67.3953	2,296.88	66.8737	2,296.88	69.6966	2,296.88	69.8761	2,296.88	68.1462	2,296.88	70.2217	2,296.88	67.3305	2,296.88	68.7816	2,296.88	65.9761	2,296.88	65.099	2,296.88	59.088
2,378.91	87.8075	2,378.91	87.5544	2,378.91	87.6533	2,378.91	87.2519	2,378.91	87.2962	2,378.91	86.4096	2,378.91	86.4755	2,378.91	85.138	2,378.91	84.9234	2,378.91	82.9725	2,378.91	82.9805	2,378.91	80.2999	2,378.91	80.6436	2,378.91	78.2023	2,378.91	78.3576	2,378.91	75.7197	2,378.91	75.4453	2,378.91	73.003	2,378.91	73.2076	2,378.91	69.6525	2,378.91	71.7262	2,378.91	68.0478	2,378.91	68.4028	2,378.91	65.8128	2,378.91	66.4776	2,378.91	64.4844	2,378.91	66.548	2,378.91	67.0238	2,378.91	66.8538	2,378.91	68.0034	2,378.91	68.0106	2,378.91	68.5201	2,378.91	69.7542	2,378.91	62.8627	2,378.91	65.1039	2,378.91	62.1106
2,462.4	87.175	2,462.4	87.1988	2,462.4	87.0912	2,462.4	86.9938	2,462.4	86.7556	2,462.4	85.9286	2,462.4	85.7047	2,462.4	84.3839	2,462.4	84.1512	2,462.4	82.8105	2,462.4	82.2137	2,462.4	80.7087	2,462.4	79.9058	2,462.4	78.3422	2,462.4	77.308	2,462.4	76.7696	2,462.4	75.8188	2,462.4	73.3789	2,462.4	72.8342	2,462.4	71.8482	2,462.4	69.0758	2,462.4	70.06	2,462.4	68.5834	2,462.4	67.9547	2,462.4	65.8406	2,462.4	65.4501	2,462.4	65.0765	2,462.4	67.3405	2,462.4	66.5576	2,462.4	69.2882	2,462.4	68.3164	2,462.4	68.2576	2,462.4	66.431	2,462.4	65.3402	2,462.4	63.6796	2,462.4	57.9365
2,548.83	87.3082	2,548.83	87.1449	2,548.83	87.1264	2,548.83	86.6001	2,548.83	86.9163	2,548.83	85.4239	2,548.83	85.982	2,548.83	83.5984	2,548.83	84.5441	2,548.83	81.8996	2,548.83	82.7744	2,548.83	79.9457	2,548.83	80.7104	2,548.83	77.1966	2,548.83	78.2594	2,548.83	74.258	2,548.83	75.8615	2,548.83	71.5052	2,548.83	72.7704	2,548.83	70.7378	2,548.83	70.9053	2,548.83	66.9298	2,548.83	66.6306	2,548.83	67.8983	2,548.83	68.0904	2,548.83	65.8481	2,548.83	64.6519	2,548.83	66.6743	2,548.83	67.2785	2,548.83	68.0525	2,548.83	69.657	2,548.83	68.6996	2,548.83	64.9933	2,548.83	61.0649	2,548.83	65.5872	2,548.83	61.6317
2,639.65	87.7454	2,639.65	87.5659	2,639.65	87.4509	2,639.65	87.074	2,639.65	87.135	2,639.65	85.9173	2,639.65	85.9406	2,639.65	83.9824	2,639.65	84.4428	2,639.65	81.9332	2,639.65	82.4854	2,639.65	80.2759	2,639.65	80.5499	2,639.65	77.0936	2,639.65	78.3328	2,639.65	73.6865	2,639.65	74.5893	2,639.65	72.7987	2,639.65	71.3154	2,639.65	69.789	2,639.65	70.6858	2,639.65	64.5323	2,639.65	66.7709	2,639.65	65.8192	2,639.65	67.2824	2,639.65	60.1059	2,639.65	65.5415	2,639.65	63.1119	2,639.65	65.3008	2,639.65	66.75	2,639.65	69.0235	2,639.65	65.5324	2,639.65	66.7108	2,639.65	63.8631	2,639.65	64.9694	2,639.65	55.8435
2,731.93	87.2365	2,731.93	86.9111	2,731.93	87.119	2,731.93	86.3231	2,731.93	86.1796	2,731.93	84.8512	2,731.93	85.3548	2,731.93	83.8033	2,731.93	83.5596	2,731.93	81.9152	2,731.93	81.9546	2,731.93	79.0592	2,731.93	79.4686	2,731.93	77.0472	2,731.93	76.558	2,731.93	75.5206	2,731.93	73.9001	2,731.93	72.979	2,731.93	72.4978	2,731.93	70.1994	2,731.93	69.7732	2,731.93	68.1242	2,731.93	65.7539	2,731.93	66.8343	2,731.93	65.2003	2,731.93	64.3987	2,731.93	63.4716	2,731.93	65.74	2,731.93	60.1067	2,731.93	69.0284	2,731.93	66.7756	2,731.93	66.0327	2,731.93	66.5626	2,731.93	64.4543	2,731.93	63.2331	2,731.93	56.5102
2,828.61	87.5506	2,828.61	87.1066	2,828.61	87.2929	2,828.61	86.1493	2,828.61	86.5533	2,828.61	85.0146	2,828.61	85.5776	2,828.61	83.6026	2,828.61	84.1435	2,828.61	82.096	2,828.61	82.3512	2,828.61	79.559	2,828.61	80.1619	2,828.61	77.857	2,828.61	77.615	2,828.61	74.956	2,828.61	75.0399	2,828.61	70.2961	2,828.61	72.9237	2,828.61	69.0205	2,828.61	69.6137	2,828.61	66.7579	2,828.61	69.2343	2,828.61	66.1171	2,828.61	65.902	2,828.61	64.1569	2,828.61	61.4881	2,828.61	64.8826	2,828.61	64.9653	2,828.61	68.4421	2,828.61	67.0633	2,828.61	66.5998	2,828.61	64.5921	2,828.61	61.6748	2,828.61	65.7672	2,828.61	57.4333
2,928.22	87.637	2,928.22	87.3008	2,928.22	86.9655	2,928.22	86.3494	2,928.22	86.5185	2,928.22	85.5232	2,928.22	85.1733	2,928.22	83.7894	2,928.22	83.9822	2,928.22	81.8207	2,928.22	82.4096	2,928.22	80.3371	2,928.22	80.2493	2,928.22	77.3484	2,928.22	77.6007	2,928.22	73.6252	2,928.22	75.284	2,928.22	71.1382	2,928.22	72.1056	2,928.22	68.2101	2,928.22	69.1208	2,928.22	66.8868	2,928.22	68.0887	2,928.22	63.9365	2,928.22	65.4847	2,928.22	61.9073	2,928.22	61.408	2,928.22	63.8635	2,928.22	64.2779	2,928.22	67.1726	2,928.22	67.784	2,928.22	65.238	2,928.22	64.1144	2,928.22	64.384	2,928.22	65.9361	2,928.22	53.7045
3,030.76	86.9617	3,030.76	86.3463	3,030.76	86.7064	3,030.76	85.917	3,030.76	85.8057	3,030.76	84.5876	3,030.76	84.749	3,030.76	83.2348	3,030.76	83.4436	3,030.76	81.4574	3,030.76	81.9024	3,030.76	79.0356	3,030.76	79.3011	3,030.76	75.5628	3,030.76	77.2616	3,030.76	73.5979	3,030.76	74.1535	3,030.76	71.8591	3,030.76	70.6329	3,030.76	69.0671	3,030.76	69.4488	3,030.76	66.2034	3,030.76	66.1102	3,030.76	61.8611	3,030.76	63.7707	3,030.76	63.0165	3,030.76	62.7804	3,030.76	62.2235	3,030.76	64.3854	3,030.76	66.1698	3,030.76	65.4704	3,030.76	63.8004	3,030.76	63.1087	3,030.76	63.9692	3,030.76	63.0692	3,030.76	57.7309
3,137.7	87.5973	3,137.7	87.2763	3,137.7	87.313	3,137.7	86.3476	3,137.7	86.5899	3,137.7	85.2393	3,137.7	85.4515	3,137.7	84.0139	3,137.7	84.3545	3,137.7	82.3167	3,137.7	82.4213	3,137.7	79.6056	3,137.7	80.4438	3,137.7	76.9096	3,137.7	77.5476	3,137.7	74.5781	3,137.7	74.6038	3,137.7	71.0859	3,137.7	72.0213	3,137.7	68.8314	3,137.7	69.85	3,137.7	65.955	3,137.7	66.7365	3,137.7	64.1631	3,137.7	63.2563	3,137.7	62.4769	3,137.7	64.4575	3,137.7	63.214	3,137.7	61.6116	3,137.7	65.8609	3,137.7	65.0527	3,137.7	64.1432	3,137.7	66.0813	3,137.7	63.1144	3,137.7	63.4512	3,137.7	57.5772
3,249.02	87.4293	3,249.02	87.1252	3,249.02	87.2918	3,249.02	86.237	3,249.02	86.5164	3,249.02	85.3215	3,249.02	85.4952	3,249.02	83.9926	3,249.02	84.4633	3,249.02	82.3731	3,249.02	82.5182	3,249.02	79.8943	3,249.02	80.3614	3,249.02	77.2089	3,249.02	77.8575	3,249.02	74.3672	3,249.02	74.9043	3,249.02	71.7927	3,249.02	72.6391	3,249.02	68.5434	3,249.02	69.0641	3,249.02	67.6776	3,249.02	66.3388	3,249.02	64.05	3,249.02	64.2464	3,249.02	63.9215	3,249.02	64.2879	3,249.02	63.9604	3,249.02	64.1203	3,249.02	65.3502	3,249.02	65.7111	3,249.02	64.3312	3,249.02	66.3343	3,249.02	62.2086	3,249.02	65.0245	3,249.02	54.8729
3,363.28	87.4222	3,363.28	87.0532	3,363.28	86.9907	3,363.28	86.2356	3,363.28	86.3618	3,363.28	85.2542	3,363.28	85.3956	3,363.28	83.9592	3,363.28	84.0754	3,363.28	81.6086	3,363.28	82.2945	3,363.28	79.5112	3,363.28	80.0426	3,363.28	76.8016	3,363.28	76.7913	3,363.28	73.92	3,363.28	73.6695	3,363.28	71.4243	3,363.28	71.4543	3,363.28	69.5968	3,363.28	68.747	3,363.28	66.6577	3,363.28	66.6559	3,363.28	62.3304	3,363.28	63.244	3,363.28	63.7948	3,363.28	62.1445	3,363.28	63.5883	3,363.28	61.7316	3,363.28	65.0359	3,363.28	64.8879	3,363.28	64.1964	3,363.28	63.9797	3,363.28	63.1041	3,363.28	64.2697	3,363.28	54.3273
3,481.93	87.7571	3,481.93	87.1063	3,481.93	87.4794	3,481.93	86.3443	3,481.93	86.534	3,481.93	85.4868	3,481.93	85.8154	3,481.93	83.9404	3,481.93	84.4696	3,481.93	82.0191	3,481.93	82.6347	3,481.93	78.9819	3,481.93	79.8717	3,481.93	76.6875	3,481.93	77.4422	3,481.93	73.4688	3,481.93	74.7989	3,481.93	70.7719	3,481.93	71.0627	3,481.93	67.9669	3,481.93	69.8608	3,481.93	65.1383	3,481.93	67.3616	3,481.93	64.0832	3,481.93	63.5404	3,481.93	61.7058	3,481.93	61.601	3,481.93	61.234	3,481.93	60.303	3,481.93	63.1756	3,481.93	64.1041	3,481.93	64.6195	3,481.93	65.1186	3,481.93	61.8425	3,481.93	64.8086	3,481.93	54.0411
3,604.98	87.5497	3,604.98	87.1654	3,604.98	87.4269	3,604.98	86.3596	3,604.98	86.5314	3,604.98	85.4061	3,604.98	85.5464	3,604.98	83.7842	3,604.98	84.2009	3,604.98	82.032	3,604.98	81.9616	3,604.98	79.3311	3,604.98	79.4154	3,604.98	76.956	3,604.98	76.9788	3,604.98	73.5265	3,604.98	73.7698	3,604.98	71.5653	3,604.98	71.3308	3,604.98	68.5993	3,604.98	68.1293	3,604.98	66.8887	3,604.98	65.7003	3,604.98	62.5062	3,604.98	63.7468	3,604.98	61.2112	3,604.98	59.2475	3,604.98	60.4515	3,604.98	60.0393	3,604.98	63.7928	3,604.98	62.1373	3,604.98	64.7364	3,604.98	64.3481	3,604.98	62.3693	3,604.98	63.9117	3,604.98	54.7436
3,732.42	87.2405	3,732.42	87.0467	3,732.42	86.8986	3,732.42	86.0834	3,732.42	86.3192	3,732.42	84.8969	3,732.42	85.2218	3,732.42	83.5149	3,732.42	83.6069	3,732.42	81.1145	3,732.42	81.0831	3,732.42	78.2029	3,732.42	78.9769	3,732.42	75.6037	3,732.42	76.2803	3,732.42	72.7445	3,732.42	73.3906	3,732.42	69.7871	3,732.42	70.8612	3,732.42	67.4382	3,732.42	68.5367	3,732.42	63.5082	3,732.42	64.9175	3,732.42	62.511	3,732.42	61.7507	3,732.42	61.0363	3,732.42	60.5228	3,732.42	60.8394	3,732.42	61.3023	3,732.42	63.1227	3,732.42	64.2213	3,732.42	63.0435	3,732.42	64.031	3,732.42	61.1808	3,732.42	61.9326	3,732.42	51.8289
3,864.26	87.6322	3,864.26	87.2253	3,864.26	87.242	3,864.26	86.2809	3,864.26	86.3958	3,864.26	85.1752	3,864.26	85.173	3,864.26	83.2716	3,864.26	83.4744	3,864.26	81.0105	3,864.26	81.4399	3,864.26	78.5253	3,864.26	79.3281	3,864.26	76.1161	3,864.26	76.0831	3,864.26	73.1502	3,864.26	73.4328	3,864.26	70.1543	3,864.26	70.7291	3,864.26	67.6983	3,864.26	67.5006	3,864.26	63.6245	3,864.26	64.161	3,864.26	60.2035	3,864.26	62.421	3,864.26	59.7155	3,864.26	61.3684	3,864.26	56.6471	3,864.26	57.7735	3,864.26	61.2117	3,864.26	62.3601	3,864.26	62.4027	3,864.26	62.8147	3,864.26	60.6617	3,864.26	60.8551	3,864.26	52.9323
4,000.49	87.3035	4,000.49	86.7114	4,000.49	87.0799	4,000.49	85.788	4,000.49	85.9283	4,000.49	84.526	4,000.49	84.7957	4,000.49	82.2282	4,000.49	83.3166	4,000.49	80.3878	4,000.49	81.5823	4,000.49	77.7576	4,000.49	78.4389	4,000.49	75.446	4,000.49	75.7328	4,000.49	72.0538	4,000.49	73.2609	4,000.49	69.2693	4,000.49	70.0718	4,000.49	65.7743	4,000.49	67.5064	4,000.49	64.8172	4,000.49	63.6704	4,000.49	62.4653	4,000.49	62.279	4,000.49	59.7512	4,000.49	58.6801	4,000.49	59.2342	4,000.49	53.4669	4,000.49	60.9748	4,000.49	62.5237	4,000.49	64.775	4,000.49	64.428	4,000.49	59.1957	4,000.49	61.9577	4,000.49	55.4244
4,141.11	87.0956	4,141.11	87.0419	4,141.11	86.7273	4,141.11	85.972	4,141.11	86.2446	4,141.11	84.8554	4,141.11	84.9519	4,141.11	83.4987	4,141.11	83.2214	4,141.11	81.3346	4,141.11	80.8277	4,141.11	78.5297	4,141.11	78.8127	4,141.11	75.2734	4,141.11	76.2464	4,141.11	71.8879	4,141.11	72.1963	4,141.11	69.728	4,141.11	69.9323	4,141.11	67.7059	4,141.11	66.1731	4,141.11	62.3803	4,141.11	65.0345	4,141.11	62.1018	4,141.11	63.6229	4,141.11	54.7219	4,141.11	57.6346	4,141.11	54.9522	4,141.11	58.8229	4,141.11	62.0911	4,141.11	59.5549	4,141.11	63.0056	4,141.11	62.4341	4,141.11	58.8867	4,141.11	58.5056	4,141.11	51.7424
4,287.6	87.1821	4,287.6	86.8307	4,287.6	87.2102	4,287.6	86.2435	4,287.6	86.1204	4,287.6	84.775	4,287.6	84.9949	4,287.6	82.5308	4,287.6	83.1755	4,287.6	80.5837	4,287.6	81.5811	4,287.6	77.9182	4,287.6	78.8189	4,287.6	74.9309	4,287.6	76.0288	4,287.6	72.9147	4,287.6	72.8031	4,287.6	68.6512	4,287.6	69.9219	4,287.6	67.3687	4,287.6	67.8327	4,287.6	64.8796	4,287.6	64.6458	4,287.6	61.5275	4,287.6	61.9042	4,287.6	58.1007	4,287.6	57.729	4,287.6	54.8443	4,287.6	55.8837	4,287.6	60.737	4,287.6	61.1261	4,287.6	63.6473	4,287.6	62.9767	4,287.6	60.3187	4,287.6	57.5382	4,287.6	53.6887
4,438.48	86.8855	4,438.48	86.7472	4,438.48	86.6523	4,438.48	85.6779	4,438.48	86.1334	4,438.48	84.4671	4,438.48	84.8431	4,438.48	83.0851	4,438.48	83.2738	4,438.48	81.0598	4,438.48	80.9189	4,438.48	78.2068	4,438.48	78.3318	4,438.48	76.0394	4,438.48	74.7716	4,438.48	71.9608	4,438.48	72.5188	4,438.48	70.6825	4,438.48	69.0937	4,438.48	65.4254	4,438.48	66.8221	4,438.48	62.9379	4,438.48	62.6679	4,438.48	61.1818	4,438.48	61.5953	4,438.48	55.883	4,438.48	58.9626	4,438.48	58.9798	4,438.48	53.0994	4,438.48	61.6694	4,438.48	61.1366	4,438.48	62.987	4,438.48	63.3966	4,438.48	56.5633	4,438.48	54.0501	4,438.48	55.1803
4,595.21	87.4453	4,595.21	87.4652	4,595.21	87.4565	4,595.21	86.7843	4,595.21	86.807	4,595.21	85.1743	4,595.21	85.4609	4,595.21	83.3292	4,595.21	83.6152	4,595.21	80.8958	4,595.21	81.2223	4,595.21	77.9502	4,595.21	78.6174	4,595.21	74.6702	4,595.21	76.0543	4,595.21	71.6671	4,595.21	73.2772	4,595.21	68.6677	4,595.21	70.4653	4,595.21	67.0113	4,595.21	66.8967	4,595.21	63.3455	4,595.21	64.1866	4,595.21	60.2803	4,595.21	62.3818	4,595.21	59.2945	4,595.21	53.7389	4,595.21	48.1066	4,595.21	58.2261	4,595.21	59.5152	4,595.21	56.0568	4,595.21	62.1476	4,595.21	63.836	4,595.21	57.3491	4,595.21	54.7924	4,595.21	54.6381
4,756.35	86.6362	4,756.35	86.5073	4,756.35	86.6572	4,756.35	85.6142	4,756.35	85.8606	4,756.35	84.3075	4,756.35	84.2555	4,756.35	82.4567	4,756.35	82.7987	4,756.35	80.339	4,756.35	80.6655	4,756.35	78.5069	4,756.35	78.026	4,756.35	76.1025	4,756.35	74.8447	4,756.35	72.6969	4,756.35	72.0885	4,756.35	68.892	4,756.35	68.8676	4,756.35	63.8638	4,756.35	66.2557	4,756.35	63.7444	4,756.35	63.5032	4,756.35	61.8314	4,756.35	59.3453	4,756.35	52.1439	4,756.35	57.2108	4,756.35	53.962	4,756.35	50.9046	4,756.35	59.926	4,756.35	60.1118	4,756.35	62.5664	4,756.35	63.3787	4,756.35	56.5882	4,756.35	54.0238	4,756.35	55.272
4,924.8	87.5377	4,924.8	87.5528	4,924.8	87.5496	4,924.8	86.692	4,924.8	86.8056	4,924.8	85.3307	4,924.8	85.5882	4,924.8	83.7949	4,924.8	83.7683	4,924.8	81.0233	4,924.8	81.3204	4,924.8	77.7397	4,924.8	78.7223	4,924.8	73.5281	4,924.8	75.8813	4,924.8	70.7171	4,924.8	72.3853	4,924.8	67.8253	4,924.8	69.0621	4,924.8	67.0956	4,924.8	65.8808	4,924.8	65.6031	4,924.8	63.9039	4,924.8	61.0859	4,924.8	61.034	4,924.8	58.0203	4,924.8	55.6704	4,924.8	52.1312	4,924.8	53.3568	4,924.8	57.9999	4,924.8	59.1444	4,924.8	60.7247	4,924.8	62.9672	4,924.8	49.5988	4,924.8	54.3134	4,924.8	57.8872
5,097.66	86.7161	5,097.66	86.8339	5,097.66	86.6903	5,097.66	85.7558	5,097.66	86.2427	5,097.66	84.5871	5,097.66	84.7533	5,097.66	82.6688	5,097.66	83.2984	5,097.66	80.161	5,097.66	81.0878	5,097.66	78.1875	5,097.66	78.7965	5,097.66	75.7595	5,097.66	75.9501	5,097.66	73.3574	5,097.66	72.0132	5,097.66	69.942	5,097.66	69.4052	5,097.66	66.8316	5,097.66	66.2205	5,097.66	65.094	5,097.66	63.0196	5,097.66	62.5716	5,097.66	60.1491	5,097.66	57.656	5,097.66	58.6817	5,097.66	53.1688	5,097.66	57.6459	5,097.66	58.9216	5,097.66	59.4547	5,097.66	61.4713	5,097.66	61.9802	5,097.66	51.0352	5,097.66	49.376	5,097.66	54.3215
5,277.83	87.9319	5,277.83	87.8735	5,277.83	87.7679	5,277.83	87.0149	5,277.83	87.0063	5,277.83	85.8534	5,277.83	85.7777	5,277.83	84.2297	5,277.83	83.7756	5,277.83	81.6865	5,277.83	81.2122	5,277.83	78.7046	5,277.83	78.7624	5,277.83	75.2704	5,277.83	75.0635	5,277.83	71.2244	5,277.83	71.8376	5,277.83	68.6809	5,277.83	69.223	5,277.83	64.5918	5,277.83	66.1474	5,277.83	61.984	5,277.83	63.5564	5,277.83	59.5267	5,277.83	61.3453	5,277.83	60.4507	5,277.83	58.7435	5,277.83	56.546	5,277.83	52.6122	5,277.83	57.702	5,277.83	57.151	5,277.83	60.7823	5,277.83	62.7986	5,277.83	48.3162	5,277.83	49.7452	5,277.83	57.0224
5,463.87	87.4036	5,463.87	87.2993	5,463.87	87.3951	5,463.87	86.3167	5,463.87	86.6148	5,463.87	85.0462	5,463.87	85.4009	5,463.87	82.7684	5,463.87	83.712	5,463.87	80.2004	5,463.87	81.3473	5,463.87	77.4162	5,463.87	78.7214	5,463.87	74.5472	5,463.87	75.4206	5,463.87	72.05	5,463.87	71.5539	5,463.87	68.1739	5,463.87	68.9203	5,463.87	67.2721	5,463.87	66.5562	5,463.87	63.7152	5,463.87	63.673	5,463.87	61.1634	5,463.87	59.309	5,463.87	56.7576	5,463.87	60.3652	5,463.87	55.9074	5,463.87	55.81	5,463.87	55.2489	5,463.87	57.6143	5,463.87	61.4495	5,463.87	60.6042	5,463.87	51.1585	5,463.87	51.8684	5,463.87	52.8533
5,657.23	87.4268	5,657.23	87.3094	5,657.23	87.5235	5,657.23	86.5571	5,657.23	86.759	5,657.23	85.3331	5,657.23	85.7714	5,657.23	83.9865	5,657.23	83.9049	5,657.23	81.1448	5,657.23	81.5488	5,657.23	78.7256	5,657.23	78.7393	5,657.23	75.7423	5,657.23	75.0239	5,657.23	71.5597	5,657.23	71.7607	5,657.23	69.3365	5,657.23	69.3516	5,657.23	65.6009	5,657.23	66.5733	5,657.23	60.9788	5,657.23	62.813	5,657.23	57.1155	5,657.23	62.2867	5,657.23	56.6651	5,657.23	59.9425	5,657.23	53.5168	5,657.23	55.4287	5,657.23	57.3316	5,657.23	57.8018	5,657.23	60.4461	5,657.23	61.971	5,657.23	39.9721	5,657.23	45.0783	5,657.23	56.6473
5,856.45	87.5555	5,856.45	87.3553	5,856.45	87.2543	5,856.45	86.6355	5,856.45	86.7118	5,856.45	85.6082	5,856.45	85.5031	5,856.45	83.78	5,856.45	83.7834	5,856.45	81.0846	5,856.45	81.2534	5,856.45	77.8919	5,856.45	78.0014	5,856.45	74.1569	5,856.45	75.0995	5,856.45	70.0296	5,856.45	70.6755	5,856.45	67.1037	5,856.45	68.6201	5,856.45	64.8549	5,856.45	66.0787	5,856.45	62.8056	5,856.45	63.0704	5,856.45	60.525	5,856.45	60.9344	5,856.45	57.6588	5,856.45	60.2489	5,856.45	55.4998	5,856.45	54.7823	5,856.45	53.0651	5,856.45	54.0158	5,856.45	58.7429	5,856.45	59.7711	5,856.45	43.9003	5,856.45	45.4143	5,856.45	55.2631
6,062.99	87.697	6,062.99	87.6001	6,062.99	87.4879	6,062.99	86.7244	6,062.99	86.8823	6,062.99	85.4549	6,062.99	85.7014	6,062.99	83.8085	6,062.99	83.8691	6,062.99	80.7287	6,062.99	81.4187	6,062.99	77.6392	6,062.99	78.2654	6,062.99	72.7815	6,062.99	74.4455	6,062.99	71.0812	6,062.99	71.1577	6,062.99	68.9979	6,062.99	68.0201	6,062.99	66.984	6,062.99	65.4416	6,062.99	64.3014	6,062.99	62.2075	6,062.99	60.2416	6,062.99	60.5991	6,062.99	59.7879	6,062.99	59.5651	6,062.99	51.7898	6,062.99	54.5206	6,062.99	57.1612	6,062.99	53.5565	6,062.99	59.1257	6,062.99	61.8266	6,062.99	47.3103	6,062.99	44.1436	6,062.99	55.6655
6,276.86	87.7335	6,276.86	87.44	6,276.86	87.6282	6,276.86	86.7076	6,276.86	86.9713	6,276.86	85.4943	6,276.86	85.9349	6,276.86	83.8999	6,276.86	84.1862	6,276.86	81.0192	6,276.86	81.5243	6,276.86	78.0547	6,276.86	79.0496	6,276.86	74.1851	6,276.86	75.8786	6,276.86	71.4043	6,276.86	71.6202	6,276.86	68.6994	6,276.86	68.4935	6,276.86	64.0559	6,276.86	64.7788	6,276.86	63.3053	6,276.86	62.8048	6,276.86	61.1393	6,276.86	61.7334	6,276.86	60.5029	6,276.86	60.6264	6,276.86	55.8789	6,276.86	54.6368	6,276.86	53.9058	6,276.86	54.0982	6,276.86	56.0747	6,276.86	60.6458	6,276.86	48.6248	6,276.86	24.7168	6,276.86	54.5274
6,498.05	87.7962	6,498.05	87.5532	6,498.05	87.5475	6,498.05	86.9631	6,498.05	87.0766	6,498.05	85.7702	6,498.05	85.8557	6,498.05	84.1488	6,498.05	84.3326	6,498.05	81.2136	6,498.05	81.5742	6,498.05	78.7293	6,498.05	78.2127	6,498.05	74.9638	6,498.05	74.6191	6,498.05	71.577	6,498.05	71.4786	6,498.05	67.9305	6,498.05	68.2389	6,498.05	64.4247	6,498.05	64.8242	6,498.05	63.6291	6,498.05	62.4409	6,498.05	62.0695	6,498.05	61.081	6,498.05	61.8332	6,498.05	60.8065	6,498.05	54.0352	6,498.05	50.6955	6,498.05	53.0338	6,498.05	52.0983	6,498.05	58.079	6,498.05	60.3161	6,498.05	52.3135	6,498.05	42.6991	6,498.05	54.4657
6,726.56	88.3636	6,726.56	88.1223	6,726.56	88.1248	6,726.56	87.398	6,726.56	87.3846	6,726.56	86.3978	6,726.56	86.3984	6,726.56	84.808	6,726.56	84.6562	6,726.56	81.6929	6,726.56	81.9512	6,726.56	78.5679	6,726.56	78.835	6,726.56	74.8753	6,726.56	75.3324	6,726.56	71.5674	6,726.56	71.0454	6,726.56	67.9485	6,726.56	68.8323	6,726.56	65.2605	6,726.56	65.8066	6,726.56	62.9075	6,726.56	63.4109	6,726.56	60.2341	6,726.56	62.3232	6,726.56	60.0814	6,726.56	59.2687	6,726.56	55.0748	6,726.56	54.2457	6,726.56	51.6345	6,726.56	54.4963	6,726.56	55.8337	6,726.56	61.5073	6,726.56	45.6091	6,726.56	44.8157	6,726.56	55.4232
6,963.87	88.4071	6,963.87	88.2125	6,963.87	88.1691	6,963.87	87.3918	6,963.87	87.7195	6,963.87	86.3091	6,963.87	86.5761	6,963.87	84.5545	6,963.87	84.8214	6,963.87	81.7306	6,963.87	82.4638	6,963.87	78.6366	6,963.87	79.3007	6,963.87	74.0281	6,963.87	75.5614	6,963.87	70.994	6,963.87	71.5229	6,963.87	68.3499	6,963.87	68.0894	6,963.87	63.8659	6,963.87	65.4699	6,963.87	62.3246	6,963.87	62.2121	6,963.87	60.6033	6,963.87	61.4024	6,963.87	57.7054	6,963.87	58.8247	6,963.87	53.128	6,963.87	53.2761	6,963.87	53.0665	6,963.87	53.879	6,963.87	54.3488	6,963.87	58.2682	6,963.87	51.2417	6,963.87	47.4336	6,963.87	52.7644
7,209.96	87.9157	7,209.96	87.6371	7,209.96	87.646	7,209.96	86.8446	7,209.96	87.0897	7,209.96	85.6951	7,209.96	86.1125	7,209.96	84.2975	7,209.96	84.4071	7,209.96	81.2004	7,209.96	81.9819	7,209.96	78.1856	7,209.96	78.5999	7,209.96	73.7218	7,209.96	74.6833	7,209.96	71.0184	7,209.96	70.8282	7,209.96	67.439	7,209.96	67.4044	7,209.96	64.1996	7,209.96	64.7998	7,209.96	61.7717	7,209.96	62.9898	7,209.96	61.8188	7,209.96	60.8768	7,209.96	56.9064	7,209.96	56.5868	7,209.96	52.3428	7,209.96	52.1941	7,209.96	50.7052	7,209.96	54.3521	7,209.96	53.3949	7,209.96	58.9735	7,209.96	51.0853	7,209.96	44.2978	7,209.96	53.2293
7,464.84	87.3712	7,464.84	87.183	7,464.84	87.2328	7,464.84	86.4236	7,464.84	86.484	7,464.84	85.5606	7,464.84	85.6884	7,464.84	84.0455	7,464.84	84.0456	7,464.84	81.1308	7,464.84	81.5457	7,464.84	78.1372	7,464.84	78.2419	7,464.84	73.8898	7,464.84	74.4063	7,464.84	70.3861	7,464.84	70.2612	7,464.84	66.2475	7,464.84	67.018	7,464.84	63.7272	7,464.84	64.0514	7,464.84	62.0545	7,464.84	62.5402	7,464.84	60.0043	7,464.84	60.2941	7,464.84	54.4082	7,464.84	56.2862	7,464.84	50.6401	7,464.84	53.6817	7,464.84	48.7525	7,464.84	53.4867	7,464.84	51.5689	7,464.84	58.1131	7,464.84	50.8784	7,464.84	47.049	7,464.84	52.662
7,727.05	87.1121	7,727.05	86.9575	7,727.05	86.9332	7,727.05	86.0749	7,727.05	86.2061	7,727.05	85.2119	7,727.05	85.5154	7,727.05	83.7468	7,727.05	83.7506	7,727.05	80.8911	7,727.05	81.396	7,727.05	77.9255	7,727.05	77.9527	7,727.05	72.896	7,727.05	74.2086	7,727.05	69.2893	7,727.05	70.6291	7,727.05	66.3124	7,727.05	66.1605	7,727.05	62.7873	7,727.05	63.6328	7,727.05	62.3058	7,727.05	61.6723	7,727.05	58.8322	7,727.05	59.1899	7,727.05	53.9067	7,727.05	53.8277	7,727.05	47.7633	7,727.05	53.7241	7,727.05	48.4432	7,727.05	52.3391	7,727.05	48.5639	7,727.05	56.9431	7,727.05	51.3905	7,727.05	42.5877	7,727.05	51.1293
7,999.51	86.5623	7,999.51	86.497	7,999.51	86.501	7,999.51	85.6765	7,999.51	85.9291	7,999.51	84.816	7,999.51	85.1005	7,999.51	83.3046	7,999.51	83.4596	7,999.51	80.1062	7,999.51	80.9218	7,999.51	77.3379	7,999.51	77.6953	7,999.51	73.0516	7,999.51	74.3037	7,999.51	68.9401	7,999.51	69.7949	7,999.51	65.6758	7,999.51	66.8598	7,999.51	62.0803	7,999.51	63.2274	7,999.51	62.5294	7,999.51	60.9246	7,999.51	58.2927	7,999.51	58.428	7,999.51	53.3343	7,999.51	50.0591	7,999.51	49.6456	7,999.51	52.1528	7,999.51	49.0383	7,999.51	48.5166	7,999.51	51.9487	7,999.51	56.8583	7,999.51	50.9435	7,999.51	37.69	7,999.51	48.404
8,282.23	86.2819	8,282.23	86.1543	8,282.23	86.3112	8,282.23	85.1735	8,282.23	85.7706	8,282.23	84.2903	8,282.23	84.9431	8,282.23	82.7938	8,282.23	83.4212	8,282.23	79.4718	8,282.23	81.0021	8,282.23	76.7456	8,282.23	77.5222	8,282.23	72.5169	8,282.23	73.4789	8,282.23	68.8438	8,282.23	70.0205	8,282.23	64.6913	8,282.23	66.3699	8,282.23	61.816	8,282.23	62.5175	8,282.23	61.2903	8,282.23	61.2375	8,282.23	56.4597	8,282.23	57.3284	8,282.23	51.406	8,282.23	50.6776	8,282.23	47.2251	8,282.23	52.6331	8,282.23	45.5869	8,282.23	49.8413	8,282.23	49.0905	8,282.23	52.3752	8,282.23	44.6855	8,282.23	46.2864	8,282.23	46.7689
8,573.73	86.3072	8,573.73	86.0092	8,573.73	86.4671	8,573.73	84.987	8,573.73	85.9662	8,573.73	83.8885	8,573.73	85.241	8,573.73	82.3998	8,573.73	83.7846	8,573.73	79.1756	8,573.73	81.3397	8,573.73	75.9347	8,573.73	77.7644	8,573.73	71.4381	8,573.73	73.5813	8,573.73	67.6859	8,573.73	69.7058	8,573.73	63.9542	8,573.73	66.3675	8,573.73	60.8078	8,573.73	62.3342	8,573.73	58.4994	8,573.73	60.4221	8,573.73	54.6893	8,573.73	57.2099	8,573.73	52.7061	8,573.73	47.599	8,573.73	41.121	8,573.73	51.6113	8,573.73	42.3902	8,573.73	49.0905	8,573.73	45.7495	8,573.73	54.6752	8,573.73	47.8501	8,573.73	41.5707	8,573.73	47.9452
8,876.95	86.3793	8,876.95	85.9086	8,876.95	86.6659	8,876.95	84.8707	8,876.95	86.3914	8,876.95	83.6113	8,876.95	85.7736	8,876.95	82.1055	8,876.95	84.2479	8,876.95	78.5944	8,876.95	81.9094	8,876.95	75.6656	8,876.95	78.3153	8,876.95	70.7485	8,876.95	73.8125	8,876.95	66.7584	8,876.95	69.9696	8,876.95	63.4041	8,876.95	66.1996	8,876.95	61.0781	8,876.95	63.7996	8,876.95	57.8933	8,876.95	60.8841	8,876.95	53.4318	8,876.95	56.5098	8,876.95	49.3763	8,876.95	50.9145	8,876.95	45.161	8,876.95	54.0167	8,876.95	42.4107	8,876.95	50.7845	8,876.95	42.6676	8,876.95	53.7909	8,876.95	38.6307	8,876.95	48.1065	8,876.95	43.3314
9,188.96	86.4301	9,188.96	86.019	9,188.96	86.7858	9,188.96	85.0039	9,188.96	86.5262	9,188.96	83.9934	9,188.96	85.9587	9,188.96	82.189	9,188.96	84.306	9,188.96	78.8458	9,188.96	82.0102	9,188.96	75.9513	9,188.96	78.3835	9,188.96	70.647	9,188.96	73.6848	9,188.96	67.6154	9,188.96	70.271	9,188.96	63.8214	9,188.96	66.6728	9,188.96	61.1977	9,188.96	62.8614	9,188.96	58.2332	9,188.96	60.7651	9,188.96	52.3772	9,188.96	55.609	9,188.96	50.0275	9,188.96	49.7634	9,188.96	46.2554	9,188.96	54.3156	9,188.96	45.1002	9,188.96	50.4464	9,188.96	48.0056	9,188.96	53.9988	9,188.96	25.3108	9,188.96	50.0332	9,188.96	45.9725
9,514.16	86.5885	9,514.16	86.3919	9,514.16	86.7699	9,514.16	85.541	9,514.16	86.5144	9,514.16	84.4667	9,514.16	85.7469	9,514.16	83.0478	9,514.16	84.0602	9,514.16	79.5591	9,514.16	81.6968	9,514.16	76.575	9,514.16	77.911	9,514.16	71.5325	9,514.16	73.6039	9,514.16	68.9374	9,514.16	69.6639	9,514.16	64.5319	9,514.16	66.2352	9,514.16	61.4174	9,514.16	62.6917	9,514.16	57.8393	9,514.16	60.0259	9,514.16	53.8101	9,514.16	54.5187	9,514.16	50.9786	9,514.16	53.3647	9,514.16	50.4274	9,514.16	53.393	9,514.16	41.0881	9,514.16	44.6054	9,514.16	46.3971	9,514.16	50.6535	9,514.16	43.3968	9,514.16	52.151	9,514.16	40.3577
9,849.61	86.8665	9,849.61	86.847	9,849.61	86.8707	9,849.61	85.9891	9,849.61	86.4798	9,849.61	85.1317	9,849.61	85.8094	9,849.61	83.7647	9,849.61	83.9889	9,849.61	80.1134	9,849.61	81.4178	9,849.61	77.2338	9,849.61	77.5985	9,849.61	72.3258	9,849.61	73.153	9,849.61	69.2536	9,849.61	69.9799	9,849.61	65.1678	9,849.61	65.9016	9,849.61	62.0296	9,849.61	62.516	9,849.61	59.0913	9,849.61	59.4882	9,849.61	55.0315	9,849.61	51.9752	9,849.61	52.6268	9,849.61	53.5998	9,849.61	52.3168	9,849.61	52.4497	9,849.61	44.5568	9,849.61	45.0188	9,849.61	49.5244	9,849.61	47.3072	9,849.61	49.1275	9,849.61	50.9212	9,849.61	38.2098
10,196.8	87.025	10,196.8	87.0904	10,196.8	86.9859	10,196.8	86.5717	10,196.8	86.5711	10,196.8	85.7355	10,196.8	85.8673	10,196.8	84.159	10,196.8	83.9532	10,196.8	80.5618	10,196.8	81.331	10,196.8	77.6399	10,196.8	77.5091	10,196.8	72.6639	10,196.8	74.0639	10,196.8	69.202	10,196.8	68.692	10,196.8	65.3873	10,196.8	65.8215	10,196.8	62.0044	10,196.8	62.1307	10,196.8	60.1429	10,196.8	58.6987	10,196.8	56.0362	10,196.8	52.1564	10,196.8	51.4559	10,196.8	53.8493	10,196.8	51.236	10,196.8	51.3664	10,196.8	47.5736	10,196.8	41.951	10,196.8	48.5774	10,196.8	42.5198	10,196.8	49.3368	10,196.8	51.3362	10,196.8	44.651
10,555.7	87.0037	10,555.7	87.1909	10,555.7	86.8297	10,555.7	86.761	10,555.7	86.3424	10,555.7	86.0891	10,555.7	85.769	10,555.7	84.4628	10,555.7	83.7206	10,555.7	80.7946	10,555.7	81.0817	10,555.7	77.8007	10,555.7	77.4813	10,555.7	73.2822	10,555.7	73.4175	10,555.7	69.0522	10,555.7	68.7249	10,555.7	66.4921	10,555.7	65.5377	10,555.7	61.9477	10,555.7	61.1804	10,555.7	58.236	10,555.7	58.2375	10,555.7	54.4572	10,555.7	51.3399	10,555.7	51.6179	10,555.7	54.0079	10,555.7	51.5456	10,555.7	50.3678	10,555.7	48.4576	10,555.7	37.7649	10,555.7	45.5546	10,555.7	37.5106	10,555.7	47.38	10,555.7	50.5665	10,555.7	44.9595
10,927.7	86.688	10,927.7	86.9237	10,927.7	86.6329	10,927.7	86.4284	10,927.7	86.0764	10,927.7	85.8117	10,927.7	85.5455	10,927.7	84.2178	10,927.7	83.5338	10,927.7	80.5516	10,927.7	80.8616	10,927.7	77.3026	10,927.7	77.0811	10,927.7	72.848	10,927.7	73.0352	10,927.7	68.4122	10,927.7	67.4826	10,927.7	65.1009	10,927.7	65.0499	10,927.7	61.3651	10,927.7	60.5359	10,927.7	57.9641	10,927.7	58.5056	10,927.7	53.6531	10,927.7	52.7929	10,927.7	47.8181	10,927.7	53.778	10,927.7	51.5027	10,927.7	48.4012	10,927.7	47.5958	10,927.7	31.4485	10,927.7	42.4287	10,927.7	33.8767	10,927.7	49.0449	10,927.7	48.0703	10,927.7	46.9445
11,313	86.3912	11,313	86.5031	11,313	86.2672	11,313	86.0582	11,313	85.8888	11,313	85.4899	11,313	85.4504	11,313	83.788	11,313	83.3884	11,313	80.0134	11,313	80.5957	11,313	76.6454	11,313	76.3884	11,313	72.0282	11,313	72.4567	11,313	67.8576	11,313	66.2122	11,313	64.8565	11,313	64.4081	11,313	60.1682	11,313	60.0622	11,313	55.7113	11,313	57.0325	11,313	53.2642	11,313	51.4282	11,313	46.2845	11,313	54.0697	11,313	50.0252	11,313	45.5506	11,313	46.1748	11,313	26.7701	11,313	40.7092	11,313	45.1784	11,313	48.0855	11,313	43.6625	11,313	45.3646
11,712.9	86.2516	11,712.9	86.4752	11,712.9	86.1252	11,712.9	86.0811	11,712.9	85.6814	11,712.9	85.4027	11,712.9	85.1426	11,712.9	83.7669	11,712.9	83.0328	11,712.9	79.8209	11,712.9	80.2666	11,712.9	76.4004	11,712.9	75.9771	11,712.9	71.5403	11,712.9	72.5184	11,712.9	67.3634	11,712.9	64.6776	11,712.9	63.9581	11,712.9	63.9931	11,712.9	59.8053	11,712.9	59.0819	11,712.9	56.795	11,712.9	54.2887	11,712.9	53.9449	11,712.9	50.938	11,712.9	41.3599	11,712.9	52.5222	11,712.9	51.0417	11,712.9	45.9889	11,712.9	46.1766	11,712.9	36.1478	11,712.9	41.7621	11,712.9	46.2469	11,712.9	45.8998	11,712.9	36.5864	11,712.9	45.9609
12,126	86.291	12,126	86.5052	12,126	86.1116	12,126	86.0952	12,126	85.7068	12,126	85.3987	12,126	85.1771	12,126	83.7213	12,126	82.9493	12,126	79.8001	12,126	80.0469	12,126	76.0123	12,126	75.6757	12,126	70.8892	12,126	72.131	12,126	66.8669	12,126	64.9292	12,126	63.7202	12,126	63.4065	12,126	58.458	12,126	58.3805	12,126	55.3822	12,126	54.6843	12,126	53.369	12,126	51.0292	12,126	41.7773	12,126	52.8548	12,126	49.3277	12,126	40.7679	12,126	45.8618	12,126	40.2332	12,126	44.4631	12,126	40.8963	12,126	44.6878	12,126	38.073	12,126	46.4984
12,553.7	86.6552	12,553.7	86.7009	12,553.7	86.4362	12,553.7	86.1567	12,553.7	85.9473	12,553.7	85.3585	12,553.7	85.329	12,553.7	83.6818	12,553.7	82.9108	12,553.7	79.5567	12,553.7	79.9409	12,553.7	75.8414	12,553.7	75.6212	12,553.7	70.3566	12,553.7	72.2281	12,553.7	65.4791	12,553.7	64.6348	12,553.7	63.6458	12,553.7	63.0763	12,553.7	58.0327	12,553.7	57.7442	12,553.7	55.0054	12,553.7	54.2921	12,553.7	48.7944	12,553.7	52.1505	12,553.7	32.9983	12,553.7	53.5126	12,553.7	48.4849	12,553.7	37.6283	12,553.7	47.8363	12,553.7	44.2473	12,553.7	45.4408	12,553.7	42.2607	12,553.7	46.2326	12,553.7	42.6606	12,553.7	46.0767
12,996.1	87.0274	12,996.1	87.0948	12,996.1	86.7092	12,996.1	86.5091	12,996.1	86.2236	12,996.1	85.6872	12,996.1	85.5476	12,996.1	83.8397	12,996.1	82.9214	12,996.1	79.5743	12,996.1	79.7927	12,996.1	75.7386	12,996.1	75.5924	12,996.1	70.1462	12,996.1	72.1005	12,996.1	65.0452	12,996.1	64.8245	12,996.1	63.245	12,996.1	62.8142	12,996.1	57.3715	12,996.1	55.6758	12,996.1	54.5194	12,996.1	54.4789	12,996.1	48.6256	12,996.1	52.8037	12,996.1	25.6605	12,996.1	54.3023	12,996.1	49.6976	12,996.1	35.5228	12,996.1	48.4815	12,996.1	43.8752	12,996.1	47.505	12,996.1	40.946	12,996.1	47.7778	12,996.1	44.824	12,996.1	40.3345
13,454.6	87.3672	13,454.6	87.3457	13,454.6	86.8536	13,454.6	86.7084	13,454.6	86.0208	13,454.6	85.678	13,454.6	84.9277	13,454.6	83.5076	13,454.6	81.9127	13,454.6	79.0458	13,454.6	78.5257	13,454.6	75.1864	13,454.6	74.146	13,454.6	69.6012	13,454.6	70.6961	13,454.6	64.1727	13,454.6	62.5274	13,454.6	63.3342	13,454.6	60.9629	13,454.6	54.761	13,454.6	52.4981	13,454.6	54.5025	13,454.6	53.8594	13,454.6	46.3936	13,454.6	52.6581	13,454.6	38.1262	13,454.6	53.9297	13,454.6	43.5345	13,454.6	28.0826	13,454.6	49.8544	13,454.6	40.6418	13,454.6	49.3203	13,454.6	36.9261	13,454.6	49.9662	13,454.6	43.5304	13,454.6	44.7605
13,929.2	87.4278	13,929.2	87.3487	13,929.2	86.8461	13,929.2	86.5465	13,929.2	85.5797	13,929.2	85.2327	13,929.2	83.8518	13,929.2	82.7594	13,929.2	79.923	13,929.2	77.9534	13,929.2	75.722	13,929.2	73.9644	13,929.2	71.0385	13,929.2	68.854	13,929.2	66.9402	13,929.2	62.5956	13,929.2	58.8402	13,929.2	62.0392	13,929.2	57.1422	13,929.2	53.2909	13,929.2	49.8171	13,929.2	51.5006	13,929.2	53.5427	13,929.2	43.3834	13,929.2	51.0285	13,929.2	37.653	13,929.2	53.127	13,929.2	45.9657	13,929.2	29.6878	13,929.2	47.6494	13,929.2	49.1667	13,929.2	48.3844	13,929.2	42.8601	13,929.2	51.8466	13,929.2	45.3436	13,929.2	50.0725
14,419.9	86.6084	14,419.9	86.2487	14,419.9	86.4417	14,419.9	85.6319	14,419.9	85.8724	14,419.9	84.2554	14,419.9	84.5058	14,419.9	81.6503	14,419.9	81.001	14,419.9	76.9078	14,419.9	77.1271	14,419.9	73.0765	14,419.9	72.8057	14,419.9	68.0667	14,419.9	69.4739	14,419.9	61.0398	14,419.9	62.3444	14,419.9	61.7576	14,419.9	59.4229	14,419.9	51.2576	14,419.9	52.2946	14,419.9	46.376	14,419.9	55.1106	14,419.9	47.5206	14,419.9	51.5356	14,419.9	43.1499	14,419.9	52.1383	14,419.9	43.695	14,419.9	35.4496	14,419.9	46.7255	14,419.9	50.4604	14,419.9	49.0591	14,419.9	50.0318	14,419.9	55.8695	14,419.9	50.5245	14,419.9	52.2761
14,928.2	85.4357	14,928.2	85.1397	14,928.2	85.2358	14,928.2	84.7663	14,928.2	84.8928	14,928.2	83.4525	14,928.2	83.739	14,928.2	80.9719	14,928.2	80.3463	14,928.2	76.3127	14,928.2	76.4732	14,928.2	72.9923	14,928.2	72.2954	14,928.2	67.7832	14,928.2	69.287	14,928.2	60.1548	14,928.2	62.9278	14,928.2	61.2364	14,928.2	58.5207	14,928.2	49.4563	14,928.2	52.5896	14,928.2	48.0989	14,928.2	53.9606	14,928.2	49.0013	14,928.2	52.225	14,928.2	40.8578	14,928.2	52.2747	14,928.2	41.9106	14,928.2	40.8517	14,928.2	46.0234	14,928.2	50.7481	14,928.2	50.41	14,928.2	53.9551	14,928.2	57.2189	14,928.2	52.619	14,928.2	52.4274
15,455.6	85.0295	15,455.6	84.7371	15,455.6	84.7566	15,455.6	84.414	15,455.6	84.4152	15,455.6	83.0664	15,455.6	83.0518	15,455.6	80.6265	15,455.6	79.4282	15,455.6	75.9664	15,455.6	75.3876	15,455.6	72.8059	15,455.6	71.2989	15,455.6	67.6037	15,455.6	68.1107	15,455.6	59.6786	15,455.6	62.8063	15,455.6	60.4055	15,455.6	56.9566	15,455.6	48.1516	15,455.6	54.9583	15,455.6	49.8913	15,455.6	55.1075	15,455.6	49.429	15,455.6	50.8825	15,455.6	45.3322	15,455.6	51.6646	15,455.6	44.2399	15,455.6	44.1549	15,455.6	41.9513	15,455.6	52.0455	15,455.6	50.9506	15,455.6	54.9678	15,455.6	57.987	15,455.6	54.1857	15,455.6	54.1457
16,000.5	85.4503	16,000.5	84.8492	16,000.5	85.1014	16,000.5	84.1643	16,000.5	84.4578	16,000.5	82.9096	16,000.5	82.8453	16,000.5	80.4597	16,000.5	79.1465	16,000.5	75.8652	16,000.5	75.001	16,000.5	72.583	16,000.5	70.8436	16,000.5	67.7422	16,000.5	67.2874	16,000.5	60.7797	16,000.5	62.9296	16,000.5	59.6002	16,000.5	55.116	16,000.5	48.6183	16,000.5	57.5869	16,000.5	51.2714	16,000.5	55.7979	16,000.5	50.9196	16,000.5	51.726	16,000.5	46.203	16,000.5	51.3734	16,000.5	46.1417	16,000.5	46.6325	16,000.5	36.5826	16,000.5	53.7661	16,000.5	51.5144	16,000.5	56.8643	16,000.5	58.5386	16,000.5	54.9931	16,000.5	54.3231
16,564.5	86.5474	16,564.5	85.5788	16,564.5	85.9459	16,564.5	83.3735	16,564.5	84.3407	16,564.5	80.9255	16,564.5	81.7436	16,564.5	78.0198	16,564.5	77.1594	16,564.5	72.8161	16,564.5	72.2505	16,564.5	69.1829	16,564.5	67.454	16,564.5	64.3013	16,564.5	63.538	16,564.5	57.764	16,564.5	59.8196	16,564.5	55.0836	16,564.5	48.8765	16,564.5	45.0255	16,564.5	54.79	16,564.5	47.3893	16,564.5	52.8929	16,564.5	49.0385	16,564.5	49.0521	16,564.5	44.9375	16,564.5	52.0318	16,564.5	44.6894	16,564.5	46.4067	16,564.5	37.275	16,564.5	50.4781	16,564.5	49.4387	16,564.5	53.5542	16,564.5	57.0436	16,564.5	53.2895	16,564.5	51.4196
17,148.9	86.5081	17,148.9	85.5354	17,148.9	85.7558	17,148.9	82.758	17,148.9	83.4034	17,148.9	78.5045	17,148.9	79.5734	17,148.9	74.0641	17,148.9	73.3166	17,148.9	66.9481	17,148.9	66.6654	17,148.9	62.6235	17,148.9	61.1862	17,148.9	57.7974	17,148.9	57.6512	17,148.9	48.2466	17,148.9	56.1738	17,148.9	46.6076	17,148.9	42.1037	17,148.9	35.4379	17,148.9	49.5993	17,148.9	42.7062	17,148.9	39.2481	17,148.9	48.6603	17,148.9	31.585	17,148.9	50.4055	17,148.9	52.8589	17,148.9	45.0292	17,148.9	49.9571	17,148.9	43.0276	17,148.9	52.7188	17,148.9	27.8896	17,148.9	51.8695	17,148.9	50.0293	17,148.9	53.0527	17,148.9	53.6055
17,752.4	85.2117	17,752.4	84.1975	17,752.4	84.6495	17,752.4	81.2986	17,752.4	82.6639	17,752.4	77.0515	17,752.4	79.6542	17,752.4	72.5518	17,752.4	74.7395	17,752.4	65.5914	17,752.4	69.974	17,752.4	61.355	17,752.4	66.9732	17,752.4	55.2766	17,752.4	64.6787	17,752.4	46.1248	17,752.4	64.2284	17,752.4	51.1915	17,752.4	41.6095	17,752.4	48.1614	17,752.4	58.7473	17,752.4	48.7599	17,752.4	54.5136	17,752.4	50.7522	17,752.4	43.7553	17,752.4	52.6731	17,752.4	53.5408	17,752.4	46.4867	17,752.4	52.1138	17,752.4	48.1631	17,752.4	56.112	17,752.4	47.4119	17,752.4	56.9866	17,752.4	56.3887	17,752.4	54.5223	17,752.4	55.6266
18,379.4	84.1332	18,379.4	82.7974	18,379.4	83.6809	18,379.4	78.942	18,379.4	82.1599	18,379.4	74.6589	18,379.4	79.9518	18,379.4	69.9823	18,379.4	75.9224	18,379.4	63.5601	18,379.4	71.5049	18,379.4	58.9608	18,379.4	68.4268	18,379.4	52.0662	18,379.4	66.1552	18,379.4	46.7441	18,379.4	66.0955	18,379.4	49.3776	18,379.4	48.6967	18,379.4	50.1645	18,379.4	60.6866	18,379.4	49.4669	18,379.4	57.1376	18,379.4	50.9806	18,379.4	47.542	18,379.4	52.4703	18,379.4	51.5356	18,379.4	47.379	18,379.4	52.1274	18,379.4	48.5383	18,379.4	55.2216	18,379.4	48.8761	18,379.4	57.5262	18,379.4	58.4841	18,379.4	53.1177	18,379.4	56.0304
19,026.9	81.8357	19,026.9	80.1806	19,026.9	80.8941	19,026.9	75.118	19,026.9	79.1361	19,026.9	70.2046	19,026.9	77.2938	19,026.9	65.156	19,026.9	73.4274	19,026.9	59.7738	19,026.9	69.3952	19,026.9	56.0986	19,026.9	66.2059	19,026.9	49.3912	19,026.9	64.1912	19,026.9	43.0885	19,026.9	64.5553	19,026.9	43.0207	19,026.9	51.4747	19,026.9	48.4185	19,026.9	58.8156	19,026.9	48.2395	19,026.9	55.2725	19,026.9	49.392	19,026.9	47.0965	19,026.9	50.852	19,026.9	47.9763	19,026.9	47.61	19,026.9	49.7477	19,026.9	46.4685	19,026.9	51.6878	19,026.9	43.9336	19,026.9	55.2884	19,026.9	55.2694	19,026.9	49.3907	19,026.9	58.3953
19,697.8	73.0348	19,697.8	71.4414	19,697.8	71.3879	19,697.8	65.3694	19,697.8	69.3554	19,697.8	59.6602	19,697.8	68.6019	19,697.8	53.1252	19,697.8	64.8694	19,697.8	52.9372	19,697.8	61.6946	19,697.8	52.2632	19,697.8	58.8928	19,697.8	43.0375	19,697.8	57.346	19,697.8	42.9826	19,697.8	58.9079	19,697.8	33.0764	19,697.8	48.5891	19,697.8	43.9834	19,697.8	51.3276	19,697.8	44.5683	19,697.8	47.5954	19,697.8	45.747	19,697.8	37.8022	19,697.8	50.2132	19,697.8	49.1045	19,697.8	45.8082	19,697.8	47.4227	19,697.8	46.2048	19,697.8	48.9719	19,697.8	42.0857	19,697.8	50.591	19,697.8	39.6127	19,697.8	44.6557	19,697.8	54.131
19,999.5	63.9473	19,999.5	61.4294	19,999.5	61.2734	19,999.5	58.6796	19,999.5	59.1581	19,999.5	54.0191	19,999.5	62.3263	19,999.5	43.9551	19,999.5	59.2169	19,999.5	45.3374	19,999.5	56.6211	19,999.5	47.116	19,999.5	55.8193	19,999.5	28.7325	19,999.5	52.6673	19,999.5	34.7399	19,999.5	56.0926	19,999.5	36.5706	19,999.5	45.3968	19,999.5	38.3011	19,999.5	50.5671	19,999.5	44.3468	19,999.5	48.5342	19,999.5	42.1293	19,999.5	41.4046	19,999.5	46.8568	19,999.5	49.5223	19,999.5	44.2671	19,999.5	45.5814	19,999.5	44.8225	19,999.5	47.4822	19,999.5	40.479	19,999.5	49.5352	19,999.5	35.4105	19,999.5	42.0115	19,999.5	49.5929
