"SPL Vertical"
"On-Axis"		"10°"		"-10°"		"20°"		"-20°"		"30°"		"-30°"		"40°"		"-40°"		"50°"		"-50°"		"60°"		"-60°"		"70°"		"-70°"		"80°"		"-80°"		"90°"		"-90°"		"100°"		"-100°"		"110°"		"-110°"		"120°"		"-120°"		"130°"		"-130°"		"140°"		"-140°"		"150°"		"-150°"		"160°"		"-160°"		"170°"		"-170°"		"180°"
"Frequency / Hz"	"Sound Pressure Level / dB (re 20 µPa/V)  [2.83  V @ 1. m]"	"Frequency / Hz"	"Sound Pressure Level / dB (re 20 µPa/V)  [2.83  V @ 1. m]"	"Frequency / Hz"	"Sound Pressure Level / dB (re 20 µPa/V)  [2.83  V @ 1. m]"	"Frequency / Hz"	"Sound Pressure Level / dB (re 20 µPa/V)  [2.83  V @ 1. m]"	"Frequency / Hz"	"Sound Pressure Level / dB (re 20 µPa/V)  [2.83  V @ 1. m]"	"Frequency / Hz"	"Sound Pressure Level / dB (re 20 µPa/V)  [2.83  V @ 1. m]"	"Frequency / Hz"	"Sound Pressure Level / dB (re 20 µPa/V)  [2.83  V @ 1. m]"	"Frequency / Hz"	"Sound Pressure Level / dB (re 20 µPa/V)  [2.83  V @ 1. m]"	"Frequency / Hz"	"Sound Pressure Level / dB (re 20 µPa/V)  [2.83  V @ 1. m]"	"Frequency / Hz"	"Sound Pressure Level / dB (re 20 µPa/V)  [2.83  V @ 1. m]"	"Frequency / Hz"	"Sound Pressure Level / dB (re 20 µPa/V)  [2.83  V @ 1. m]"	"Frequency / Hz"	"Sound Pressure Level / dB (re 20 µPa/V)  [2.83  V @ 1. m]"	"Frequency / Hz"	"Sound Pressure Level / dB (re 20 µPa/V)  [2.83  V @ 1. m]"	"Frequency / Hz"	"Sound Pressure Level / dB (re 20 µPa/V)  [2.83  V @ 1. m]"	"Frequency / Hz"	"Sound Pressure Level / dB (re 20 µPa/V)  [2.83  V @ 1. m]"	"Frequency / Hz"	"Sound Pressure Level / dB (re 20 µPa/V)  [2.83  V @ 1. m]"	"Frequency / Hz"	"Sound Pressure Level / dB (re 20 µPa/V)  [2.83  V @ 1. m]"	"Frequency / Hz"	"Sound Pressure Level / dB (re 20 µPa/V)  [2.83  V @ 1. m]"	"Frequency / Hz"	"Sound Pressure Level / dB (re 20 µPa/V)  [2.83  V @ 1. m]"	"Frequency / Hz"	"Sound Pressure Level / dB (re 20 µPa/V)  [2.83  V @ 1. m]"	"Frequency / Hz"	"Sound Pressure Level / dB (re 20 µPa/V)  [2.83  V @ 1. m]"	"Frequency / Hz"	"Sound Pressure Level / dB (re 20 µPa/V)  [2.83  V @ 1. m]"	"Frequency / Hz"	"Sound Pressure Level / dB (re 20 µPa/V)  [2.83  V @ 1. m]"	"Frequency / Hz"	"Sound Pressure Level / dB (re 20 µPa/V)  [2.83  V @ 1. m]"	"Frequency / Hz"	"Sound Pressure Level / dB (re 20 µPa/V)  [2.83  V @ 1. m]"	"Frequency / Hz"	"Sound Pressure Level / dB (re 20 µPa/V)  [2.83  V @ 1. m]"	"Frequency / Hz"	"Sound Pressure Level / dB (re 20 µPa/V)  [2.83  V @ 1. m]"	"Frequency / Hz"	"Sound Pressure Level / dB (re 20 µPa/V)  [2.83  V @ 1. m]"	"Frequency / Hz"	"Sound Pressure Level / dB (re 20 µPa/V)  [2.83  V @ 1. m]"	"Frequency / Hz"	"Sound Pressure Level / dB (re 20 µPa/V)  [2.83  V @ 1. m]"	"Frequency / Hz"	"Sound Pressure Level / dB (re 20 µPa/V)  [2.83  V @ 1. m]"	"Frequency / Hz"	"Sound Pressure Level / dB (re 20 µPa/V)  [2.83  V @ 1. m]"	"Frequency / Hz"	"Sound Pressure Level / dB (re 20 µPa/V)  [2.83  V @ 1. m]"	"Frequency / Hz"	"Sound Pressure Level / dB (re 20 µPa/V)  [2.83  V @ 1. m]"	"Frequency / Hz"	"Sound Pressure Level / dB (re 20 µPa/V)  [2.83  V @ 1. m]"	"Frequency / Hz"	"Sound Pressure Level / dB (re 20 µPa/V)  [2.83  V @ 1. m]"
20.5078	52.2187	20.5078	52.1523	20.5078	52.2878	20.5078	52.0907	20.5078	52.3565	20.5078	52.0351	20.5078	52.4207	20.5078	51.9859	20.5078	52.4763	20.5078	51.9431	20.5078	52.519	20.5078	51.9066	20.5078	52.5454	20.5078	51.8763	20.5078	52.5532	20.5078	51.8522	20.5078	52.5412	20.5078	51.8343	20.5078	52.5101	20.5078	51.8226	20.5078	52.4619	20.5078	51.8171	20.5078	52.3999	20.5078	51.8176	20.5078	52.3285	20.5078	51.8236	20.5078	52.2524	20.5078	51.8351	20.5078	52.1766	20.5078	51.852	20.5078	52.1052	20.5078	51.8746	20.5078	52.0412	20.5078	51.9037	20.5078	51.9862	20.5078	51.9406
21.9727	55.1334	21.9727	55.0573	21.9727	55.2022	21.9727	54.9768	21.9727	55.2614	21.9727	54.8944	21.9727	55.3088	21.9727	54.8129	21.9727	55.3427	21.9727	54.7348	21.9727	55.3622	21.9727	54.6627	21.9727	55.3666	21.9727	54.5988	21.9727	55.3563	21.9727	54.545	21.9727	55.3318	21.9727	54.5031	21.9727	55.2945	21.9727	54.4744	21.9727	55.2461	21.9727	54.4596	21.9727	55.1886	21.9727	54.459	21.9727	55.1243	21.9727	54.4722	21.9727	55.0554	21.9727	54.4984	21.9727	54.9838	21.9727	54.5363	21.9727	54.9112	21.9727	54.5841	21.9727	54.8392	21.9727	54.64	21.9727	54.7691	21.9727	54.7022
23.4375	54.1293	23.4375	54.0406	23.4375	54.2159	23.4375	53.9524	23.4375	54.2971	23.4375	53.8672	23.4375	54.3696	23.4375	53.7872	23.4375	54.4302	23.4375	53.7142	23.4375	54.4758	23.4375	53.65	23.4375	54.504	23.4375	53.5961	23.4375	54.5133	23.4375	53.5537	23.4375	54.5031	23.4375	53.524	23.4375	54.474	23.4375	53.5075	23.4375	54.4276	23.4375	53.5047	23.4375	54.3667	23.4375	53.5152	23.4375	54.2944	23.4375	53.5386	23.4375	54.2144	23.4375	53.5737	23.4375	54.1303	23.4375	53.6194	23.4375	54.0452	23.4375	53.6742	23.4375	53.9618	23.4375	53.7369	23.4375	53.8817	23.4375	53.8064
24.9023	55.8068	24.9023	55.7203	24.9023	55.8875	24.9023	55.6306	24.9023	55.9598	24.9023	55.5402	24.9023	56.0212	24.9023	55.4513	24.9023	56.0691	24.9023	55.3662	24.9023	56.1014	24.9023	55.2873	24.9023	56.1163	24.9023	55.2166	24.9023	56.1129	24.9023	55.156	24.9023	56.0911	24.9023	55.1073	24.9023	56.0514	24.9023	55.0718	24.9023	55.9955	24.9023	55.0505	24.9023	55.9255	24.9023	55.044	24.9023	55.8444	24.9023	55.0526	24.9023	55.7551	24.9023	55.0758	24.9023	55.6612	24.9023	55.1132	24.9023	55.5658	24.9023	55.164	24.9023	55.472	24.9023	55.2268	24.9023	55.3827	24.9023	55.3003
26.3672	55.7428	26.3672	55.6441	26.3672	55.8404	26.3672	55.5475	26.3672	55.9332	26.3672	55.4555	26.3672	56.0174	26.3672	55.3706	26.3672	56.0892	26.3672	55.2944	26.3672	56.1453	26.3672	55.2286	26.3672	56.1829	26.3672	55.1744	26.3672	56.2004	26.3672	55.1329	26.3672	56.197	26.3672	55.1051	26.3672	56.1732	26.3672	55.0915	26.3672	56.1304	26.3672	55.0925	26.3672	56.071	26.3672	55.1077	26.3672	55.9979	26.3672	55.1369	26.3672	55.9145	26.3672	55.1792	26.3672	55.8243	26.3672	55.2334	26.3672	55.7304	26.3672	55.2984	26.3672	55.6358	26.3672	55.3728	26.3672	55.5433	26.3672	55.455
27.832	56.666	27.832	56.5649	27.832	56.7622	27.832	56.4623	27.832	56.8498	27.832	56.361	27.832	56.9252	27.832	56.2638	27.832	56.9848	27.832	56.173	27.832	57.0258	27.832	56.0904	27.832	57.0457	27.832	56.0178	27.832	57.0435	27.832	55.9566	27.832	57.0188	27.832	55.9081	27.832	56.9726	27.832	55.8732	27.832	56.9069	27.832	55.8527	27.832	56.8249	27.832	55.847	27.832	56.7301	27.832	55.8563	27.832	56.6267	27.832	55.8806	27.832	56.5189	27.832	55.9196	27.832	56.4108	27.832	55.9727	27.832	56.3059	27.832	56.0392	27.832	56.2075	27.832	56.1179
29.2969	57.0329	29.2969	56.9333	29.2969	57.1266	29.2969	56.8309	29.2969	57.211	29.2969	56.7285	29.2969	57.2827	29.2969	56.6289	29.2969	57.3385	29.2969	56.5344	29.2969	57.3757	29.2969	56.4471	29.2969	57.3921	29.2969	56.3689	29.2969	57.3867	29.2969	56.3015	29.2969	57.3592	29.2969	56.2465	29.2969	57.3106	29.2969	56.2052	29.2969	57.2429	29.2969	56.1785	29.2969	57.1588	29.2969	56.1674	29.2969	57.0619	29.2969	56.1722	29.2969	56.956	29.2969	56.1931	29.2969	56.8454	29.2969	56.2302	29.2969	56.734	29.2969	56.2828	29.2969	56.6257	29.2969	56.3503	29.2969	56.5238	29.2969	56.4312
30.7617	58.4321	30.7617	58.3297	30.7617	58.5309	30.7617	58.2272	30.7617	58.6223	30.7617	58.1277	30.7617	58.7026	30.7617	58.034	30.7617	58.7681	30.7617	57.9483	30.7617	58.8159	30.7617	57.8725	30.7617	58.8437	30.7617	57.8081	30.7617	58.8503	30.7617	57.7563	30.7617	58.8353	30.7617	57.7182	30.7617	58.7996	30.7617	57.6943	30.7617	58.745	30.7617	57.6852	30.7617	58.6742	30.7617	57.6909	30.7617	58.5904	30.7617	57.7113	30.7617	58.4973	30.7617	57.7461	30.7617	58.3983	30.7617	57.7944	30.7617	58.2971	30.7617	57.8553	30.7617	58.1969	30.7617	57.9276	30.7617	58.1003	30.7617	58.0099
32.2266	59.1049	32.2266	59.0118	32.2266	59.1876	32.2266	58.9112	32.2266	59.2568	32.2266	58.8063	32.2266	59.3102	32.2266	58.7001	32.2266	59.3454	32.2266	58.5959	32.2266	59.3609	32.2266	58.4962	32.2266	59.3555	32.2266	58.4039	32.2266	59.3289	32.2266	58.3212	32.2266	59.2816	32.2266	58.2501	32.2266	59.2152	32.2266	58.1923	32.2266	59.132	32.2266	58.1492	32.2266	59.0351	32.2266	58.1217	32.2266	58.9284	32.2266	58.1107	32.2266	58.8159	32.2266	58.1165	32.2266	58.7019	32.2266	58.1392	32.2266	58.5905	32.2266	58.1786	32.2266	58.4851	32.2266	58.2341	32.2266	58.3891	32.2266	58.3047
33.6914	59.5636	33.6914	59.4678	33.6914	59.6539	33.6914	59.3699	33.6914	59.7358	33.6914	59.2725	33.6914	59.8059	33.6914	59.1782	33.6914	59.8613	33.6914	59.0894	33.6914	59.8992	33.6914	59.0081	33.6914	59.9176	33.6914	58.9361	33.6914	59.9151	33.6914	58.8749	33.6914	59.8916	33.6914	58.8257	33.6914	59.8478	33.6914	58.7897	33.6914	59.7853	33.6914	58.7675	33.6914	59.7068	33.6914	58.7597	33.6914	59.6158	33.6914	58.7666	33.6914	59.5159	33.6914	58.7884	33.6914	59.4112	33.6914	58.8249	33.6914	59.3056	33.6914	58.8758	33.6914	59.2027	33.6914	58.9405	33.6914	59.1058	33.6914	59.0176
35.1562	60.5827	35.1562	60.4867	35.1562	60.6688	35.1562	60.3838	35.1562	60.7423	35.1562	60.277	35.1562	60.8004	35.1562	60.1694	35.1562	60.841	35.1562	60.0641	35.1562	60.8623	35.1562	59.9637	35.1562	60.8629	35.1562	59.8708	35.1562	60.8421	35.1562	59.7877	35.1562	60.8001	35.1562	59.7162	35.1562	60.7379	35.1562	59.6581	35.1562	60.6576	35.1562	59.6147	35.1562	60.5618	35.1562	59.5873	35.1562	60.454	35.1562	59.5768	35.1562	60.3384	35.1562	59.584	35.1562	60.2193	35.1562	59.6092	35.1562	60.1009	35.1562	59.6526	35.1562	59.9877	35.1562	59.7136	35.1562	59.8833	35.1562	59.7911
36.6211	61.0138	36.6211	60.922	36.6211	61.0945	36.6211	60.822	36.6211	61.1613	36.6211	60.717	36.6211	61.2116	36.6211	60.6097	36.6211	61.2434	36.6211	60.5033	36.6211	61.2548	36.6211	60.4003	36.6211	61.2449	36.6211	60.3034	36.6211	61.2133	36.6211	60.2148	36.6211	61.1605	36.6211	60.1367	36.6211	61.0882	36.6211	60.0708	36.6211	60.9986	36.6211	60.0188	36.6211	60.8951	36.6211	59.9821	36.6211	60.7814	36.6211	59.962	36.6211	60.6621	36.6211	59.9592	36.6211	60.5415	36.6211	59.9746	36.6211	60.4241	36.6211	60.0083	36.6211	60.314	36.6211	60.0602	36.6211	60.2148	36.6211	60.1295
38.0859	61.5727	38.0859	61.4773	38.0859	61.656	38.0859	61.3726	38.0859	61.7246	38.0859	61.2617	38.0859	61.7764	38.0859	61.1476	38.0859	61.8094	38.0859	61.0335	38.0859	61.8218	38.0859	60.9226	38.0859	61.8126	38.0859	60.8177	38.0859	61.781	38.0859	60.7214	38.0859	61.7271	38.0859	60.6359	38.0859	61.652	38.0859	60.5632	38.0859	61.5577	38.0859	60.5051	38.0859	61.4473	38.0859	60.4631	38.0859	61.3248	38.0859	60.4385	38.0859	61.1948	38.0859	60.4326	38.0859	61.0624	38.0859	60.4462	38.0859	60.933	38.0859	60.4802	38.0859	60.8115	38.0859	60.5348	38.0859	60.7024	38.0859	60.6093
39.5508	61.9471	39.5508	61.857	39.5508	62.0261	39.5508	61.7584	39.5508	62.0914	39.5508	61.6541	39.5508	62.1408	39.5508	61.5469	39.5508	62.1722	39.5508	61.4397	39.5508	62.1837	39.5508	61.3352	39.5508	62.1741	39.5508	61.2359	39.5508	62.1426	39.5508	61.1442	39.5508	62.0894	39.5508	61.0621	39.5508	62.0157	39.5508	60.9916	39.5508	61.9235	39.5508	60.9344	39.5508	61.816	39.5508	60.8919	39.5508	61.6972	39.5508	60.8658	39.5508	61.5718	39.5508	60.8572	39.5508	61.4447	39.5508	60.8673	39.5508	61.3211	39.5508	60.897	39.5508	61.2058	39.5508	60.9466	39.5508	61.1028	39.5508	61.0156
41.0156	62.5861	41.0156	62.4315	41.0156	62.7396	41.0156	62.2811	41.0156	62.8861	41.0156	62.1391	41.0156	63.0197	41.0156	62.0089	41.0156	63.1347	41.0156	61.8927	41.0156	63.2262	41.0156	61.7924	41.0156	63.2905	41.0156	61.7095	41.0156	63.3254	41.0156	61.6453	41.0156	63.3299	41.0156	61.601	41.0156	63.3042	41.0156	61.5781	41.0156	63.2498	41.0156	61.5775	41.0156	63.1691	41.0156	61.6001	41.0156	63.0652	41.0156	61.6464	41.0156	62.9419	41.0156	61.716	41.0156	62.8035	41.0156	61.808	41.0156	62.6545	41.0156	61.9201	41.0156	62.4996	41.0156	62.0494	41.0156	62.3439	41.0156	62.1922
42.4805	63.384	42.4805	63.2723	42.4805	63.4921	42.4805	63.1608	42.4805	63.5924	42.4805	63.0532	42.4805	63.6812	42.4805	62.953	42.4805	63.7548	42.4805	62.8629	42.4805	63.8106	42.4805	62.7854	42.4805	63.8463	42.4805	62.7227	42.4805	63.8611	42.4805	62.6762	42.4805	63.855	42.4805	62.647	42.4805	63.8289	42.4805	62.6357	42.4805	63.7847	42.4805	62.6422	42.4805	63.7248	42.4805	62.6661	42.4805	63.6518	42.4805	62.7062	42.4805	63.5687	42.4805	62.7612	42.4805	63.4781	42.4805	62.8291	42.4805	63.3825	42.4805	62.9078	42.4805	63.2843	42.4805	62.995	42.4805	63.1855	42.4805	63.0884
43.9453	63.8433	43.9453	63.7369	43.9453	63.9446	43.9453	63.6292	43.9453	64.0371	43.9453	63.5238	43.9453	64.1173	43.9453	63.4236	43.9453	64.1817	43.9453	63.3317	43.9453	64.228	43.9453	63.2503	43.9453	64.2542	43.9453	63.1815	43.9453	64.2596	43.9453	63.1269	43.9453	64.2443	43.9453	63.0877	43.9453	64.2094	43.9453	63.0649	43.9453	64.1568	43.9453	63.0587	43.9453	64.0891	43.9453	63.0691	43.9453	64.009	43.9453	63.0959	43.9453	63.9196	43.9453	63.138	43.9453	63.8238	43.9453	63.1943	43.9453	63.7245	43.9453	63.2633	43.9453	63.6243	43.9453	63.3429	43.9453	63.5257	43.9453	63.4311
45.4102	64.4821	45.4102	64.3758	45.4102	64.5829	45.4102	64.2679	45.4102	64.6746	45.4102	64.1616	45.4102	64.7535	45.4102	64.0601	45.4102	64.8163	45.4102	63.966	45.4102	64.8605	45.4102	63.8817	45.4102	64.8839	45.4102	63.8091	45.4102	64.8858	45.4102	63.7499	45.4102	64.8663	45.4102	63.7052	45.4102	64.8263	45.4102	63.676	45.4102	64.7677	45.4102	63.6629	45.4102	64.6934	45.4102	63.6661	45.4102	64.6062	45.4102	63.6856	45.4102	64.5096	45.4102	63.7209	45.4102	64.407	45.4102	63.7713	45.4102	64.3017	45.4102	63.8356	45.4102	64.1968	45.4102	63.9122	45.4102	64.0952	45.4102	63.9995
46.875	65.0262	46.875	64.9231	46.875	65.1238	46.875	64.818	46.875	65.2126	46.875	64.714	46.875	65.2892	46.875	64.6141	46.875	65.3505	46.875	64.521	46.875	65.3941	46.875	64.4371	46.875	65.418	46.875	64.3644	46.875	65.4212	46.875	64.3048	46.875	65.4034	46.875	64.2596	46.875	65.3656	46.875	64.2297	46.875	65.3094	46.875	64.2158	46.875	65.2373	46.875	64.2183	46.875	65.152	46.875	64.2371	46.875	65.057	46.875	64.2719	46.875	64.9555	46.875	64.3217	46.875	64.8508	46.875	64.3857	46.875	64.7462	46.875	64.4621	46.875	64.6448	46.875	64.5492
48.3398	65.6326	48.3398	65.5242	48.3398	65.7348	48.3398	65.4136	48.3398	65.8271	48.3398	65.3041	48.3398	65.9057	48.3398	65.1991	48.3398	65.9674	48.3398	65.1014	48.3398	66.0097	48.3398	65.0135	48.3398	66.0306	48.3398	64.9373	48.3398	66.0294	48.3398	64.8745	48.3398	66.0063	48.3398	64.8264	48.3398	65.9625	48.3398	64.794	48.3398	65.8999	48.3398	64.7779	48.3398	65.8213	48.3398	64.7782	48.3398	65.7299	48.3398	64.7951	48.3398	65.6291	48.3398	64.8282	48.3398	65.5225	48.3398	64.8768	48.3398	65.4134	48.3398	64.94	48.3398	65.3053	48.3398	65.0163	48.3398	65.2013	48.3398	65.1041
51.2695	66.7191	51.2695	66.6093	51.2695	66.8189	51.2695	66.4933	51.2695	66.9049	51.2695	66.3752	51.2695	66.9741	51.2695	66.2588	51.2695	67.0241	51.2695	66.148	51.2695	67.0533	51.2695	66.0459	51.2695	67.0606	51.2695	65.9553	51.2695	67.0461	51.2695	65.8785	51.2695	67.0104	51.2695	65.8173	51.2695	66.955	51.2695	65.7727	51.2695	66.882	51.2695	65.7455	51.2695	66.7941	51.2695	65.7363	51.2695	66.6942	51.2695	65.7449	51.2695	66.5858	51.2695	65.7713	51.2695	66.4723	51.2695	65.8148	51.2695	66.3573	51.2695	65.8746	51.2695	66.2443	51.2695	65.9494	51.2695	66.1367	51.2695	66.0375
52.7344	66.945	52.7344	66.838	52.7344	67.0415	52.7344	66.724	52.7344	67.1241	52.7344	66.6068	52.7344	67.19	52.7344	66.4903	52.7344	67.237	52.7344	66.3784	52.7344	67.2635	52.7344	66.2743	52.7344	67.2686	52.7344	66.1811	52.7344	67.2523	52.7344	66.1014	52.7344	67.2153	52.7344	66.0371	52.7344	67.1589	52.7344	65.9897	52.7344	67.0853	52.7344	65.9602	52.7344	66.9972	52.7344	65.9489	52.7344	66.8976	52.7344	65.956	52.7344	66.7897	52.7344	65.9813	52.7344	66.677	52.7344	66.0241	52.7344	66.5628	52.7344	66.0833	52.7344	66.4507	52.7344	66.1577	52.7344	66.3439	52.7344	66.2453
54.1992	67.3697	54.1992	67.2668	54.1992	67.4636	54.1992	67.1585	54.1992	67.5452	54.1992	67.0484	54.1992	67.6114	54.1992	66.94	54.1992	67.6598	54.1992	66.8368	54.1992	67.6886	54.1992	66.7419	54.1992	67.6966	54.1992	66.6578	54.1992	67.6837	54.1992	66.5868	54.1992	67.6503	54.1992	66.5306	54.1992	67.598	54.1992	66.4904	54.1992	67.5291	54.1992	66.4667	54.1992	67.4462	54.1992	66.4599	54.1992	67.3525	54.1992	66.4699	54.1992	67.2514	54.1992	66.4962	54.1992	67.1462	54.1992	66.5381	54.1992	67.0401	54.1992	66.5946	54.1992	66.9362	54.1992	66.6644	54.1992	66.8373	54.1992	66.7459
55.6641	68.0719	55.6641	67.9699	55.6641	68.1629	55.6641	67.8605	55.6641	68.2399	55.6641	67.7468	55.6641	68.2998	55.6641	67.6322	55.6641	68.3401	55.6641	67.5197	55.6641	68.3587	55.6641	67.4125	55.6641	68.3545	55.6641	67.3134	55.6641	68.3272	55.6641	67.2247	55.6641	68.2776	55.6641	67.149	55.6641	68.2073	55.6641	67.0879	55.6641	68.1191	55.6641	67.0431	55.6641	68.0164	55.6641	67.0156	55.6641	67.903	55.6641	67.0061	55.6641	67.7833	55.6641	67.0151	55.6641	67.6615	55.6641	67.0425	55.6641	67.5415	55.6641	67.0879	55.6641	67.4274	55.6641	67.1506	55.6641	67.3224	55.6641	67.2293
58.5938	68.6592	58.5938	68.5574	58.5938	68.7524	58.5938	68.45	58.5938	68.8336	58.5938	68.3405	58.5938	68.9001	58.5938	68.2323	58.5938	68.9494	58.5938	68.1285	58.5938	68.9798	58.5938	68.032	58.5938	68.9899	58.5938	67.9454	58.5938	68.9793	58.5938	67.8708	58.5938	68.9484	58.5938	67.81	58.5938	68.8981	58.5938	67.7645	58.5938	68.8302	58.5938	67.7354	58.5938	68.7471	58.5938	67.7234	58.5938	68.6515	58.5938	67.7288	58.5938	68.5466	58.5938	67.7519	58.5938	68.436	58.5938	67.7923	58.5938	68.3232	58.5938	67.8494	58.5938	68.2119	58.5938	67.9219	58.5938	68.1058	58.5938	68.0082
60.0586	68.9906	60.0586	68.8875	60.0586	69.0844	60.0586	68.7787	60.0586	69.166	60.0586	68.6675	60.0586	69.2324	60.0586	68.5574	60.0586	69.2814	60.0586	68.452	60.0586	69.3113	60.0586	68.3543	60.0586	69.3212	60.0586	68.2672	60.0586	69.3107	60.0586	68.1933	60.0586	69.2805	60.0586	68.1344	60.0586	69.2319	60.0586	68.0923	60.0586	69.1668	60.0586	68.068	60.0586	69.0878	60.0586	68.062	60.0586	68.9975	60.0586	68.0743	60.0586	68.8986	60.0586	68.1046	60.0586	68.7943	60.0586	68.152	60.0586	68.6872	60.0586	68.2149	60.0586	68.5805	60.0586	68.2916	60.0586	68.4771	60.0586	68.3799
62.9883	70.192	62.9883	70.0823	62.9883	70.2891	62.9883	69.9636	62.9883	70.3702	62.9883	69.8398	62.9883	70.4321	62.9883	69.7142	62.9883	70.472	62.9883	69.5905	62.9883	70.4879	62.9883	69.4719	62.9883	70.4788	62.9883	69.3615	62.9883	70.4447	62.9883	69.262	62.9883	70.3864	62.9883	69.176	62.9883	70.3062	62.9883	69.1056	62.9883	70.2069	62.9883	69.0527	62.9883	70.0924	62.9883	69.0185	62.9883	69.9669	62.9883	69.004	62.9883	69.8349	62.9883	69.0098	62.9883	69.7011	62.9883	69.0361	62.9883	69.57	62.9883	69.0824	62.9883	69.4457	62.9883	69.1481	62.9883	69.3319	62.9883	69.2319
64.4531	70.8655	64.4531	70.7577	64.4531	70.9582	64.4531	70.6383	64.4531	71.0324	64.4531	70.5111	64.4531	71.0853	64.4531	70.3795	64.4531	71.1146	64.4531	70.2474	64.4531	71.1186	64.4531	70.118	64.4531	71.0966	64.4531	69.9947	64.4531	71.0488	64.4531	69.8802	64.4531	70.9763	64.4531	69.7773	64.4531	70.8813	64.4531	69.6884	64.4531	70.7666	64.4531	69.6156	64.4531	70.636	64.4531	69.5611	64.4531	70.494	64.4531	69.5265	64.4531	70.3456	64.4531	69.5133	64.4531	70.1962	64.4531	69.523	64.4531	70.0512	64.4531	69.5563	64.4531	69.9161	64.4531	69.6135	64.4531	69.7957	64.4531	69.6939
67.3828	71.39	67.3828	71.2852	67.3828	71.4781	67.3828	71.1669	67.3828	71.5463	67.3828	71.0392	67.3828	71.5927	67.3828	70.9062	67.3828	71.6156	67.3828	70.772	67.3828	71.6144	67.3828	70.6406	67.3828	71.5892	67.3828	70.5159	67.3828	71.5407	67.3828	70.4012	67.3828	71.4705	67.3828	70.2994	67.3828	71.3806	67.3828	70.2131	67.3828	71.2736	67.3828	70.1444	67.3828	71.1527	67.3828	70.095	67.3828	71.0214	67.3828	70.0663	67.3828	70.8838	67.3828	70.0596	67.3828	70.7442	67.3828	70.0755	67.3828	70.6073	67.3828	70.1143	67.3828	70.4777	67.3828	70.1757	67.3828	70.3601	67.3828	70.2583
68.8477	71.4495	68.8477	71.3458	68.8477	71.5379	68.8477	71.2301	68.8477	71.6082	68.8477	71.1063	68.8477	71.6585	68.8477	70.9786	68.8477	71.6874	68.8477	70.8511	68.8477	71.6943	68.8477	70.7278	68.8477	71.6792	68.8477	70.6125	68.8477	71.6429	68.8477	70.5086	68.8477	71.5864	68.8477	70.4187	68.8477	71.5114	68.8477	70.3454	68.8477	71.4201	68.8477	70.2903	68.8477	71.3149	68.8477	70.2548	68.8477	71.1987	68.8477	70.24	68.8477	71.075	68.8477	70.2464	68.8477	70.9472	68.8477	70.2742	68.8477	70.8196	68.8477	70.323	68.8477	70.6962	68.8477	70.3917	68.8477	70.5813	68.8477	70.4787
71.7773	71.6545	71.7773	71.5541	71.7773	71.7524	71.7773	71.4549	71.7773	71.8443	71.7773	71.3608	71.7773	71.927	71.7773	71.2753	71.7773	71.998	71.7773	71.2017	71.7773	72.055	71.7773	71.1425	71.7773	72.0967	71.7773	71.0996	71.7773	72.1223	71.7773	71.0739	71.7773	72.1315	71.7773	71.0658	71.7773	72.1249	71.7773	71.0747	71.7773	72.1033	71.7773	71.0996	71.7773	72.0681	71.7773	71.1391	71.7773	72.0208	71.7773	71.1913	71.7773	71.9629	71.7773	71.2543	71.7773	71.896	71.7773	71.3261	71.7773	71.8217	71.7773	71.4045	71.7773	71.7418	71.7773	71.4874	71.7773	71.6581	71.7773	71.5726
74.707	72.5948	74.707	72.4863	74.707	72.6994	74.707	72.3782	74.707	72.7956	74.707	72.2744	74.707	72.8794	74.707	72.1787	74.707	72.9473	74.707	72.0941	74.707	72.9962	74.707	72.0233	74.707	73.0245	74.707	71.9679	74.707	73.0315	74.707	71.9293	74.707	73.0178	74.707	71.9078	74.707	72.9851	74.707	71.9033	74.707	72.9361	74.707	71.915	74.707	72.8739	74.707	71.9417	74.707	72.8019	74.707	71.9816	74.707	72.7235	74.707	72.0328	74.707	72.6413	74.707	72.0933	74.707	72.5576	74.707	72.161	74.707	72.4741	74.707	72.2342	74.707	72.3917	74.707	72.3114
77.6367	73.7763	77.6367	73.6666	77.6367	73.8784	77.6367	73.5529	77.6367	73.9686	77.6367	73.439	77.6367	74.0432	77.6367	73.3282	77.6367	74.0985	77.6367	73.2232	77.6367	74.1316	77.6367	73.1267	77.6367	74.1409	77.6367	73.0409	77.6367	74.1255	77.6367	72.9674	77.6367	74.086	77.6367	72.9076	77.6367	74.024	77.6367	72.8626	77.6367	73.9423	77.6367	72.8331	77.6367	73.8443	77.6367	72.8193	77.6367	73.7342	77.6367	72.8215	77.6367	73.6166	77.6367	72.8395	77.6367	73.4959	77.6367	72.8734	77.6367	73.3769	77.6367	72.9228	77.6367	73.2635	77.6367	72.9874	77.6367	73.1592	77.6367	73.0666
79.1016	74.2914	79.1016	74.1882	79.1016	74.3841	79.1016	74.078	79.1016	74.4626	79.1016	73.9641	79.1016	74.5239	79.1016	73.8499	79.1016	74.5651	79.1016	73.7384	79.1016	74.5845	79.1016	73.6324	79.1016	74.5808	79.1016	73.5345	79.1016	74.5542	79.1016	73.447	79.1016	74.5054	79.1016	73.3718	79.1016	74.4362	79.1016	73.3106	79.1016	74.349	79.1016	73.2647	79.1016	74.2468	79.1016	73.2353	79.1016	74.133	79.1016	73.2233	79.1016	74.0115	79.1016	73.2294	79.1016	73.8865	79.1016	73.2541	79.1016	73.7625	79.1016	73.2976	79.1016	73.644	79.1016	73.3597	79.1016	73.5351	79.1016	73.4395
82.0312	74.2631	82.0312	74.1629	82.0312	74.3559	82.0312	74.0598	82.0312	74.4375	82.0312	73.958	82.0312	74.5049	82.0312	73.8617	82.0312	74.5558	82.0312	73.7745	82.0312	74.5892	82.0312	73.6994	82.0312	74.6055	82.0312	73.6388	82.0312	74.6054	82.0312	73.5941	82.0312	74.5906	82.0312	73.5663	82.0312	74.563	82.0312	73.5553	82.0312	74.5242	82.0312	73.5608	82.0312	74.4757	82.0312	73.5819	82.0312	74.4184	82.0312	73.6173	82.0312	74.3534	82.0312	73.6657	82.0312	74.2814	82.0312	73.7255	82.0312	74.2036	82.0312	73.7947	82.0312	74.1216	82.0312	73.8713	82.0312	74.0373	82.0312	73.953
84.9609	74.4057	84.9609	74.2946	84.9609	74.5086	84.9609	74.1802	84.9609	74.5993	84.9609	74.0681	84.9609	74.6751	84.9609	73.9642	84.9609	74.7344	84.9609	73.8747	84.9609	74.7765	84.9609	73.805	84.9609	74.802	84.9609	73.7593	84.9609	74.8123	84.9609	73.7406	84.9609	74.8099	84.9609	73.75	84.9609	74.7977	84.9609	73.7864	84.9609	74.779	84.9609	73.8471	84.9609	74.7567	84.9609	73.9275	84.9609	74.7326	84.9609	74.0219	84.9609	74.7072	84.9609	74.1239	84.9609	74.6794	84.9609	74.2271	84.9609	74.6469	84.9609	74.3256	84.9609	74.6067	84.9609	74.415	84.9609	74.5558	84.9609	74.4921
87.8906	76.4555	87.8906	76.337	87.8906	76.5507	87.8906	76.1987	87.8906	76.6191	87.8906	76.0448	87.8906	76.6576	87.8906	75.8795	87.8906	76.6641	87.8906	75.7072	87.8906	76.6371	87.8906	75.5329	87.8906	76.5767	87.8906	75.3615	87.8906	76.4842	87.8906	75.1985	87.8906	76.3629	87.8906	75.0491	87.8906	76.2171	87.8906	74.9184	87.8906	76.0527	87.8906	74.8106	87.8906	75.8763	87.8906	74.7291	87.8906	75.6951	87.8906	74.676	87.8906	75.516	87.8906	74.6519	87.8906	75.3451	87.8906	74.6562	87.8906	75.1873	87.8906	74.6874	87.8906	75.0463	87.8906	74.7436	87.8906	74.9244	87.8906	74.8231
90.8203	76.6844	90.8203	76.5989	90.8203	76.7472	90.8203	76.4931	90.8203	76.7859	90.8203	76.37	90.8203	76.7997	90.8203	76.2334	90.8203	76.7885	90.8203	76.0874	90.8203	76.7531	90.8203	75.9364	90.8203	76.6944	90.8203	75.7848	90.8203	76.614	90.8203	75.6368	90.8203	76.5135	90.8203	75.4965	90.8203	76.395	90.8203	75.3678	90.8203	76.2607	90.8203	75.2541	90.8203	76.1137	90.8203	75.1589	90.8203	75.9575	90.8203	75.0853	90.8203	75.7968	90.8203	75.0364	90.8203	75.6369	90.8203	75.0148	90.8203	75.4839	90.8203	75.0224	90.8203	75.3443	90.8203	75.0603	90.8203	75.224	90.8203	75.1282
95.2148	76.7049	95.2148	76.5762	95.2148	76.8288	95.2148	76.4481	95.2148	76.9427	95.2148	76.326	95.2148	77.0421	95.2148	76.2147	95.2148	77.1233	95.2148	76.1186	95.2148	77.1837	95.2148	76.0411	95.2148	77.2219	95.2148	75.9844	95.2148	77.2377	95.2148	75.9494	95.2148	77.2317	95.2148	75.9361	95.2148	77.2056	95.2148	75.9431	95.2148	77.1615	95.2148	75.9685	95.2148	77.1017	95.2148	76.0096	95.2148	77.0286	95.2148	76.064	95.2148	76.9451	95.2148	76.1292	95.2148	76.8537	95.2148	76.2032	95.2148	76.7574	95.2148	76.2845	95.2148	76.6588	95.2148	76.3718	95.2148	76.5604	95.2148	76.4642
98.1445	77.4025	98.1445	77.2948	98.1445	77.4999	98.1445	77.181	98.1445	77.5831	98.1445	77.0656	98.1445	77.6491	98.1445	76.9529	98.1445	77.6958	98.1445	76.8472	98.1445	77.7222	98.1445	76.7522	98.1445	77.7286	98.1445	76.6713	98.1445	77.7163	98.1445	76.6071	98.1445	77.6873	98.1445	76.5615	98.1445	77.6439	98.1445	76.5356	98.1445	77.5885	98.1445	76.5295	98.1445	77.523	98.1445	76.5425	98.1445	77.4494	98.1445	76.5733	98.1445	77.3689	98.1445	76.62	98.1445	77.2831	98.1445	76.6803	98.1445	77.1934	98.1445	76.7518	98.1445	77.1014	98.1445	76.832	98.1445	77.0091	98.1445	76.9186
101.074	77.985	101.074	77.8854	101.074	78.0745	101.074	77.7797	101.074	78.1504	101.074	77.6722	101.074	78.2095	101.074	77.5667	101.074	78.2496	101.074	77.4669	101.074	78.2698	101.074	77.3761	101.074	78.2701	101.074	77.2971	101.074	78.2516	101.074	77.2322	101.074	78.2166	101.074	77.1832	101.074	78.1677	101.074	77.1514	101.074	78.1078	101.074	77.1374	101.074	78.0397	101.074	77.1413	101.074	77.9655	101.074	77.1626	101.074	77.887	101.074	77.2	101.074	77.8053	101.074	77.2517	101.074	77.7214	101.074	77.3152	101.074	77.6362	101.074	77.3881	101.074	77.551	101.074	77.4676
105.469	78.7911	105.469	78.698	105.469	78.8701	105.469	78.5953	105.469	78.9311	105.469	78.487	105.469	78.971	105.469	78.3773	105.469	78.9876	105.469	78.2699	105.469	78.9802	105.469	78.1683	105.469	78.9493	105.469	78.0753	105.469	78.8972	105.469	77.9931	105.469	78.8271	105.469	77.9238	105.469	78.7431	105.469	77.8685	105.469	78.6495	105.469	77.8281	105.469	78.5507	105.469	77.8028	105.469	78.4502	105.469	77.7928	105.469	78.3514	105.469	77.7975	105.469	78.2565	105.469	77.8163	105.469	78.1675	105.469	77.8482	105.469	78.0856	105.469	77.8921	105.469	78.0118	105.469	77.947
108.398	79.1953	108.398	79.0988	108.398	79.2753	108.398	78.9902	108.398	79.3354	108.398	78.8741	108.398	79.373	108.398	78.7553	108.398	79.3867	108.398	78.6384	108.398	79.3764	108.398	78.5276	108.398	79.3434	108.398	78.4267	108.398	79.2897	108.398	78.3386	108.398	79.2186	108.398	78.2652	108.398	79.1336	108.398	78.2079	108.398	79.0385	108.398	78.1671	108.398	78.937	108.398	78.1428	108.398	78.8327	108.398	78.1343	108.398	78.7287	108.398	78.1407	108.398	78.6278	108.398	78.1613	108.398	78.5326	108.398	78.1949	108.398	78.445	108.398	78.2407	108.398	78.3665	108.398	78.2982
112.793	79.7033	112.793	79.6035	112.793	79.788	112.793	79.493	112.793	79.8539	112.793	79.3765	112.793	79.8985	112.793	79.2591	112.793	79.9203	112.793	79.1455	112.793	79.9192	112.793	79.04	112.793	79.8962	112.793	78.9463	112.793	79.8535	112.793	78.867	112.793	79.7939	112.793	78.8039	112.793	79.7209	112.793	78.7581	112.793	79.6377	112.793	78.7295	112.793	79.5478	112.793	78.7178	112.793	79.454	112.793	78.7218	112.793	79.3589	112.793	78.7404	112.793	79.2648	112.793	78.7722	112.793	79.1737	112.793	78.8159	112.793	79.0874	112.793	78.8704	112.793	79.0072	112.793	78.9346
117.188	80.2087	117.188	80.1117	117.188	80.2897	117.188	80.0028	117.188	80.3514	117.188	79.8866	117.188	80.3913	117.188	79.7679	117.188	80.4084	117.188	79.6513	117.188	80.4027	117.188	79.5413	117.188	80.3753	117.188	79.4415	117.188	80.3286	117.188	79.355	117.188	80.2654	117.188	79.2841	117.188	80.1889	117.188	79.2301	117.188	80.1024	117.188	79.1935	117.188	80.0089	117.188	79.1743	117.188	79.9112	117.188	79.1718	117.188	79.812	117.188	79.185	117.188	79.7137	117.188	79.2127	117.188	79.6185	117.188	79.2538	117.188	79.5285	117.188	79.3071	117.188	79.4456	117.188	79.3714
120.117	80.5147	120.117	80.4185	120.117	80.5953	120.117	80.3107	120.117	80.6572	120.117	80.1959	120.117	80.6983	120.117	80.0789	120.117	80.7177	120.117	79.9644	120.117	80.7157	120.117	79.8568	120.117	80.6936	120.117	79.7599	120.117	80.6537	120.117	79.6766	120.117	80.5985	120.117	79.6092	120.117	80.5311	120.117	79.559	120.117	80.454	120.117	79.5267	120.117	80.3697	120.117	79.5121	120.117	80.2803	120.117	79.5148	120.117	80.1878	120.117	79.5338	120.117	80.094	120.117	79.5679	120.117	80.0009	120.117	79.6157	120.117	79.9105	120.117	79.6756	120.117	79.8248	120.117	79.7459
124.512	80.9102	124.512	80.8115	124.512	80.9954	124.512	80.704	124.512	81.063	124.512	80.5928	124.512	81.1103	124.512	80.4832	124.512	81.1358	124.512	80.38	124.512	81.1396	124.512	80.2872	124.512	81.1231	124.512	80.2082	124.512	81.0889	124.512	80.1451	124.512	81.0406	124.512	80.0992	124.512	80.9818	124.512	80.0705	124.512	80.916	124.512	80.0589	124.512	80.8459	124.512	80.0632	124.512	80.7735	124.512	80.0822	124.512	80.7	124.512	80.1142	124.512	80.626	124.512	80.1576	124.512	80.5521	124.512	80.2104	124.512	80.4786	124.512	80.2707	124.512	80.4064	124.512	80.3366
128.906	81.4127	128.906	81.3226	128.906	81.4888	128.906	81.2232	128.906	81.5471	128.906	81.119	128.906	81.585	128.906	81.015	128.906	81.6007	128.906	80.9155	128.906	81.5942	128.906	80.8243	128.906	81.5668	128.906	80.7443	128.906	81.5208	128.906	80.6773	128.906	81.4596	128.906	80.6245	128.906	81.3869	128.906	80.5862	128.906	81.3067	128.906	80.562	128.906	81.2223	128.906	80.5513	128.906	81.137	128.906	80.5531	128.906	81.0534	128.906	80.5663	128.906	80.9734	128.906	80.5899	128.906	80.8986	128.906	80.6226	128.906	80.8298	128.906	80.6636	128.906	80.7675	128.906	80.7121
133.301	81.7724	133.301	81.666	133.301	81.8635	133.301	81.5497	133.301	81.9353	133.301	81.429	133.301	81.9845	133.301	81.3096	133.301	82.0098	133.301	81.1969	133.301	82.0111	133.301	81.0956	133.301	81.9899	133.301	81.0091	133.301	81.949	133.301	80.9398	133.301	81.8919	133.301	80.8888	133.301	81.8225	133.301	80.8561	133.301	81.7443	133.301	80.8408	133.301	81.6606	133.301	80.8417	133.301	81.574	133.301	80.8569	133.301	81.4867	133.301	80.8847	133.301	81.4004	133.301	80.9235	133.301	81.3166	133.301	80.9718	133.301	81.2366	133.301	81.0282	133.301	81.1614	133.301	81.0916
139.16	82.256	139.16	82.1522	139.16	82.3434	139.16	82.0375	139.16	82.4104	139.16	81.9177	139.16	82.4541	139.16	81.7992	139.16	82.4735	139.16	81.6876	139.16	82.469	139.16	81.5876	139.16	82.4427	139.16	81.5029	139.16	82.3976	139.16	81.4355	139.16	82.3376	139.16	81.3862	139.16	82.2665	139.16	81.3544	139.16	82.1877	139.16	81.3389	139.16	82.1044	139.16	81.3382	139.16	82.0188	139.16	81.3503	139.16	81.933	139.16	81.3737	139.16	81.8489	139.16	81.407	139.16	81.768	139.16	81.4491	139.16	81.6917	139.16	81.4992	139.16	81.621	139.16	81.5567
143.555	82.5281	143.555	82.4198	143.555	82.6204	143.555	82.3008	143.555	82.6925	143.555	82.1772	143.555	82.7417	143.555	82.0554	143.555	82.767	143.555	81.9417	143.555	82.7689	143.555	81.8412	143.555	82.7493	143.555	81.758	143.555	82.7112	143.555	81.6944	143.555	82.6582	143.555	81.6508	143.555	82.5939	143.555	81.6267	143.555	82.5215	143.555	81.6202	143.555	82.4436	143.555	81.6291	143.555	82.3623	143.555	81.6509	143.555	82.2794	143.555	81.6836	143.555	82.1965	143.555	81.7254	143.555	82.1153	143.555	81.7751	143.555	82.0371	143.555	81.8316	143.555	81.9633	143.555	81.8946
147.949	82.8215	147.949	82.7094	147.949	82.9165	147.949	82.5857	147.949	82.99	147.949	82.4569	147.949	83.0389	147.949	82.3296	147.949	83.0622	147.949	82.2101	147.949	83.0604	147.949	82.1039	147.949	83.0361	147.949	82.0151	147.949	82.9929	147.949	81.9463	147.949	82.9352	147.949	81.8985	147.949	82.8674	147.949	81.871	147.949	82.7931	147.949	81.8625	147.949	82.715	147.949	81.8709	147.949	82.6346	147.949	81.8937	147.949	82.553	147.949	81.9289	147.949	82.4711	147.949	81.9745	147.949	82.3895	147.949	82.029	147.949	82.3096	147.949	82.0909	147.949	82.2324	147.949	82.1591
153.809	83.1144	153.809	83.0059	153.809	83.2033	153.809	82.8837	153.809	83.2685	153.809	82.7544	153.809	83.3075	153.809	82.6253	153.809	83.32	153.809	82.503	153.809	83.3074	153.809	82.3938	153.809	83.2731	153.809	82.3022	153.809	83.2217	153.809	82.2311	153.809	83.158	153.809	82.1816	153.809	83.0869	153.809	82.1533	153.809	83.0122	153.809	82.1445	153.809	82.9366	153.809	82.1531	153.809	82.8614	153.809	82.1766	153.809	82.7874	153.809	82.2126	153.809	82.7146	153.809	82.2586	153.809	82.643	153.809	82.3125	153.809	82.5726	153.809	82.3724	153.809	82.5036	153.809	82.4365
159.668	83.3491	159.668	83.2365	159.668	83.4433	159.668	83.1112	159.668	83.5146	159.668	82.9801	159.668	83.5604	159.668	82.8504	159.668	83.5799	159.668	82.7289	159.668	83.5744	159.668	82.6217	159.668	83.5468	159.668	82.5334	159.668	83.5014	159.668	82.4668	159.668	83.4431	159.668	82.4232	159.668	83.3768	159.668	82.4022	159.668	83.3065	159.668	82.4022	159.668	83.2352	159.668	82.421	159.668	83.1646	159.668	82.4555	159.668	83.0956	159.668	82.5028	159.668	83.028	159.668	82.5597	159.668	82.9611	159.668	82.623	159.668	82.8942	159.668	82.69	159.668	82.8266	159.668	82.7583
165.527	83.6188	165.527	83.5055	165.527	83.7129	165.527	83.3798	165.527	83.7832	165.527	83.2491	165.527	83.8269	165.527	83.1217	165.527	83.8433	165.527	83.0051	165.527	83.8341	165.527	82.9057	165.527	83.8028	165.527	82.8279	165.527	83.7544	165.527	82.7736	165.527	83.6943	165.527	82.7426	165.527	83.6276	165.527	82.7329	165.527	83.5584	165.527	82.7416	165.527	83.4895	165.527	82.7653	165.527	83.4225	165.527	82.8008	165.527	83.358	165.527	82.8452	165.527	83.2962	165.527	82.8957	165.527	83.2365	165.527	82.9501	165.527	83.1784	165.527	83.0066	165.527	83.121	165.527	83.0638
171.387	83.92	171.387	83.8044	171.387	84.0124	171.387	83.6723	171.387	84.0764	171.387	83.5317	171.387	84.1094	171.387	83.3912	171.387	84.1108	171.387	83.2591	171.387	84.0827	171.387	83.1429	171.387	84.0296	171.387	83.0477	171.387	83.9576	171.387	82.9767	171.387	83.8734	171.387	82.9304	171.387	83.7838	171.387	82.9075	171.387	83.6942	171.387	82.9053	171.387	83.6085	171.387	82.9203	171.387	83.5294	171.387	82.9489	171.387	83.4579	171.387	82.9874	171.387	83.3938	171.387	83.0326	171.387	83.3361	171.387	83.0816	171.387	83.283	171.387	83.1319	171.387	83.2323	171.387	83.1822
177.246	84.0908	177.246	83.9679	177.246	84.1889	177.246	83.8269	177.246	84.2577	177.246	83.676	177.246	84.2951	177.246	83.5249	177.246	84.3015	177.246	83.3832	177.246	84.2796	177.246	83.2595	177.246	84.2338	177.246	83.1603	177.246	84.1701	177.246	83.0892	177.246	84.0944	177.246	83.0467	177.246	84.0126	177.246	83.0305	177.246	83.9289	177.246	83.0369	177.246	83.8464	177.246	83.0611	177.246	83.767	177.246	83.0987	177.246	83.6917	177.246	83.1456	177.246	83.6208	177.246	83.1985	177.246	83.5543	177.246	83.2549	177.246	83.4913	177.246	83.3129	177.246	83.4308	177.246	83.3715
183.105	84.2635	183.105	84.1459	183.105	84.356	183.105	84.0094	183.105	84.4187	183.105	83.8621	183.105	84.4497	183.105	83.7132	183.105	84.4491	183.105	83.5718	183.105	84.4196	183.105	83.4464	183.105	84.3659	183.105	83.3435	183.105	84.2941	183.105	83.2669	183.105	84.2104	183.105	83.2177	183.105	84.1208	183.105	83.1942	183.105	84.0294	183.105	83.1929	183.105	83.9396	183.105	83.2094	183.105	83.8535	183.105	83.2391	183.105	83.7727	183.105	83.2779	183.105	83.6987	183.105	83.3222	183.105	83.632	183.105	83.3693	183.105	83.5722	183.105	83.4178	183.105	83.5179	183.105	83.467
188.965	84.2737	188.965	84.1618	188.965	84.359	188.965	84.0297	188.965	84.4133	188.965	83.8855	188.965	84.4347	188.965	83.738	188.965	84.4241	188.965	83.5963	188.965	84.3853	188.965	83.4686	188.965	84.3244	188.965	83.3617	188.965	84.2496	188.965	83.2796	188.965	84.1689	188.965	83.2241	188.965	84.0892	188.965	83.1942	188.965	84.0146	188.965	83.1876	188.965	83.9461	188.965	83.2009	188.965	83.8828	188.965	83.2305	188.965	83.8222	188.965	83.2727	188.965	83.7622	188.965	83.3246	188.965	83.7013	188.965	83.383	188.965	83.6388	188.965	83.4456	188.965	83.5748	188.965	83.5101
196.289	84.419	196.289	84.2972	196.289	84.5139	196.289	84.1559	196.289	84.5765	196.289	84.0041	196.289	84.6038	196.289	83.8512	196.289	84.5959	196.289	83.7067	196.289	84.5558	196.289	83.5783	196.289	84.4891	196.289	83.4718	196.289	84.4037	196.289	83.3904	196.289	84.3077	196.289	83.3344	196.289	84.2087	196.289	83.3023	196.289	84.1122	196.289	83.2916	196.289	84.0215	196.289	83.299	196.289	83.9381	196.289	83.3215	196.289	83.8622	196.289	83.356	196.289	83.7931	196.289	83.3996	196.289	83.7298	196.289	83.4494	196.289	83.6705	196.289	83.5027	196.289	83.6135	196.289	83.5577
203.613	84.5531	203.613	84.4127	203.613	84.6585	203.613	84.2457	203.613	84.7237	203.613	84.063	203.613	84.7469	203.613	83.8775	203.613	84.7299	203.613	83.7023	203.613	84.6777	203.613	83.5491	203.613	84.5983	203.613	83.427	203.613	84.5014	203.613	83.3411	203.613	84.3969	203.613	83.2921	203.613	84.2932	203.613	83.2771	203.613	84.1964	203.613	83.2906	203.613	84.1097	203.613	83.3262	203.613	84.0339	203.613	83.3776	203.613	83.968	203.613	83.4389	203.613	83.91	203.613	83.5054	203.613	83.8571	203.613	83.5727	203.613	83.8063	203.613	83.6378	203.613	83.7542	203.613	83.6984
210.938	84.6211	210.938	84.4968	210.938	84.7124	210.938	84.3458	210.938	84.7671	210.938	84.1772	210.938	84.7844	210.938	84.0017	210.938	84.7665	210.938	83.8312	210.938	84.7186	210.938	83.6769	210.938	84.6483	210.938	83.5479	210.938	84.565	210.938	83.4502	210.938	84.4779	210.938	83.3858	210.938	84.3941	210.938	83.3538	210.938	84.3178	210.938	83.3508	210.938	84.2493	210.938	83.3727	210.938	84.1864	210.938	83.415	210.938	84.1261	210.938	83.4733	210.938	84.065	210.938	83.5433	210.938	84.001	210.938	83.6207	210.938	83.9327	210.938	83.7015	210.938	83.8596	210.938	83.782
218.262	84.5416	218.262	84.4187	218.262	84.6339	218.262	84.2729	218.262	84.6902	218.262	84.1138	218.262	84.7084	218.262	83.9526	218.262	84.6894	218.262	83.8007	218.262	84.6376	218.262	83.6684	218.262	84.5613	218.262	83.5637	218.262	84.4714	218.262	83.4917	218.262	84.3796	218.262	83.4539	218.262	84.2966	218.262	83.449	218.262	84.2297	218.262	83.4734	218.262	84.1818	218.262	83.5227	218.262	84.1518	218.262	83.5915	218.262	84.1349	218.262	83.674	218.262	84.1241	218.262	83.7633	218.262	84.1119	218.262	83.8525	218.262	84.091	218.262	83.9345	218.262	84.0557	218.262	84.0034
225.586	84.6671	225.586	84.5274	225.586	84.7725	225.586	84.3631	225.586	84.8362	225.586	84.1864	225.586	84.8541	225.586	84.0102	225.586	84.826	225.586	83.8479	225.586	84.7565	225.586	83.7112	225.586	84.6547	225.586	83.6085	225.586	84.5338	225.586	83.5437	225.586	84.4087	225.586	83.5164	225.586	84.2936	225.586	83.5227	225.586	84.1989	225.586	83.5567	225.586	84.13	225.586	83.6117	225.586	84.0871	225.586	83.6812	225.586	84.0662	225.586	83.7585	225.586	84.0603	225.586	83.837	225.586	84.0607	225.586	83.9101	225.586	84.0584	225.586	83.9717	225.586	84.0458	225.586	84.0175
232.91	84.7648	232.91	84.6192	232.91	84.8701	232.91	84.4442	232.91	84.9276	232.91	84.2532	232.91	84.9335	232.91	84.0611	232.91	84.8886	232.91	83.8826	232.91	84.7986	232.91	83.7304	232.91	84.6736	232.91	83.6134	232.91	84.5272	232.91	83.5354	232.91	84.3744	232.91	83.4954	232.91	84.2293	232.91	83.4887	232.91	84.1031	232.91	83.5089	232.91	84.0026	232.91	83.5491	232.91	83.9309	232.91	83.6023	232.91	83.8867	232.91	83.6622	232.91	83.8657	232.91	83.7222	232.91	83.8605	232.91	83.7762	232.91	83.8615	232.91	83.8186	232.91	83.8592	232.91	83.8463
241.699	84.6867	241.699	84.5455	241.699	84.7818	241.699	84.3681	241.699	84.8251	241.699	84.1687	241.699	84.8155	241.699	83.9647	241.699	84.7566	241.699	83.7742	241.699	84.6562	241.699	83.6138	241.699	84.526	241.699	83.495	241.699	84.3799	241.699	83.4223	241.699	84.2318	241.699	83.3932	241.699	84.0933	241.699	83.3997	241.699	83.9728	241.699	83.4321	241.699	83.875	241.699	83.4806	241.699	83.802	241.699	83.5372	241.699	83.7542	241.699	83.5951	241.699	83.7299	241.699	83.6485	241.699	83.7244	241.699	83.6922	241.699	83.7299	241.699	83.7219	241.699	83.7368	241.699	83.7362
250.488	84.7829	250.488	84.6047	250.488	84.9072	250.488	84.382	250.488	84.9725	250.488	84.1286	250.488	84.9779	250.488	83.8632	250.488	84.9263	250.488	83.6069	250.488	84.8252	250.488	83.3811	250.488	84.6865	250.488	83.2034	250.488	84.5254	250.488	83.0841	250.488	84.3582	250.488	83.0246	250.488	84.1989	250.488	83.0188	250.488	84.0568	250.488	83.0558	250.488	83.9365	250.488	83.123	250.488	83.8388	250.488	83.2082	250.488	83.763	250.488	83.3004	250.488	83.7074	250.488	83.3903	250.488	83.6685	250.488	83.4698	250.488	83.6402	250.488	83.5339	250.488	83.6141	250.488	83.581
259.277	84.8654	259.277	84.6895	259.277	84.9844	259.277	84.4657	259.277	85.0416	259.277	84.2078	259.277	85.0362	259.277	83.9349	259.277	84.9714	259.277	83.6704	259.277	84.8557	259.277	83.4396	259.277	84.7024	259.277	83.2638	259.277	84.5291	259.277	83.1557	259.277	84.3547	259.277	83.1151	259.277	84.1953	259.277	83.1309	259.277	84.0614	259.277	83.1859	259.277	83.9564	259.277	83.2626	259.277	83.878	259.277	83.347	259.277	83.8209	259.277	83.4296	259.277	83.7794	259.277	83.5048	259.277	83.7478	259.277	83.5693	259.277	83.7213	259.277	83.6218	259.277	83.6946	259.277	83.6628
268.066	84.8105	268.066	84.6179	268.066	84.9457	268.066	84.3768	268.066	85.0182	268.066	84.0995	268.066	85.0263	268.066	83.803	268.066	84.972	268.066	83.509	268.066	84.8627	268.066	83.2422	268.066	84.7111	268.066	83.0272	268.066	84.5348	268.066	82.8828	268.066	84.3536	268.066	82.8163	268.066	84.1857	268.066	82.822	268.066	84.0445	268.066	82.8836	268.066	83.9359	268.066	82.9808	268.066	83.8588	268.066	83.095	268.066	83.8067	268.066	83.2124	268.066	83.7698	268.066	83.3244	268.066	83.7376	268.066	83.4266	268.066	83.701	268.066	83.5164	268.066	83.6537	268.066	83.5924
276.855	84.8131	276.855	84.6309	276.855	84.9334	276.855	84.3964	276.855	84.987	276.855	84.1237	276.855	84.9743	276.855	83.8298	276.855	84.9021	276.855	83.5341	276.855	84.7828	276.855	83.2567	276.855	84.6341	276.855	83.0165	276.855	84.4761	276.855	82.83	276.855	84.3268	276.855	82.7089	276.855	84.198	276.855	82.6587	276.855	84.0937	276.855	82.678	276.855	84.0113	276.855	82.7579	276.855	83.9456	276.855	82.8846	276.855	83.892	276.855	83.0404	276.855	83.8468	276.855	83.207	276.855	83.8055	276.855	83.3671	276.855	83.7606	276.855	83.5071	276.855	83.7017	276.855	83.619
287.109	84.6565	287.109	84.5147	287.109	84.7344	287.109	84.3144	287.109	84.7479	287.109	84.0663	287.109	84.7002	287.109	83.788	287.109	84.5981	287.109	83.5023	287.109	84.4523	287.109	83.2351	287.109	84.2784	287.109	83.0108	287.109	84.0969	287.109	82.8464	287.109	83.931	287.109	82.7488	287.109	83.8012	287.109	82.7148	287.109	83.7199	287.109	82.7353	287.109	83.6873	287.109	82.8001	287.109	83.6921	287.109	82.8998	287.109	83.7161	287.109	83.0259	287.109	83.7393	287.109	83.1686	287.109	83.7449	287.109	83.3161	287.109	83.722	287.109	83.4555	287.109	83.6653	287.109	83.5748
297.363	85.0461	297.363	84.8927	297.363	85.1316	297.363	84.6801	297.363	85.142	297.363	84.4185	297.363	85.072	297.363	84.1208	297.363	84.9215	297.363	83.8039	297.363	84.6987	297.363	83.4893	297.363	84.4222	297.363	83.202	297.363	84.1209	297.363	82.9677	297.363	83.8301	297.363	82.8074	297.363	83.5839	297.363	82.733	297.363	83.4085	297.363	82.7438	297.363	83.317	297.363	82.8283	297.363	83.3077	297.363	82.9673	297.363	83.3653	297.363	83.1376	297.363	83.4637	297.363	83.3153	297.363	83.5711	297.363	83.4777	297.363	83.6568	297.363	83.6046	297.363	83.6976	297.363	83.6807
307.617	84.7609	307.617	84.5681	307.617	84.8924	307.617	84.3279	307.617	84.953	307.617	84.0574	307.617	84.9376	307.617	83.777	307.617	84.8464	307.617	83.5077	307.617	84.6866	307.617	83.2683	307.617	84.4732	307.617	83.0721	307.617	84.2282	307.617	82.9251	307.617	83.9776	307.617	82.8263	307.617	83.7464	307.617	82.7715	307.617	83.5526	307.617	82.7564	307.617	83.4052	307.617	82.7786	307.617	83.3055	307.617	82.8352	307.617	83.2497	307.617	82.9199	307.617	83.2308	307.617	83.0203	307.617	83.2377	307.617	83.1192	307.617	83.2548	307.617	83.1991	307.617	83.2636	307.617	83.2479
319.336	84.7268	319.336	84.5265	319.336	84.8488	319.336	84.2571	319.336	84.8887	319.336	83.9352	319.336	84.8475	319.336	83.5864	319.336	84.7305	319.336	83.2449	319.336	84.5489	319.336	82.9489	319.336	84.321	319.336	82.7313	319.336	84.0726	319.336	82.6096	319.336	83.834	319.336	82.5802	319.336	83.6351	319.336	82.6223	319.336	83.498	319.336	82.7093	319.336	83.431	319.336	82.8193	319.336	83.426	319.336	82.9389	319.336	83.462	319.336	83.0625	319.336	83.5124	319.336	83.1863	319.336	83.5533	319.336	83.3053	319.336	83.5683	319.336	83.4115	319.336	83.5492	319.336	83.4955
329.59	84.5899	329.59	84.4012	329.59	84.7089	329.59	84.1541	329.59	84.7478	329.59	83.8606	329.59	84.6989	329.59	83.5345	329.59	84.5607	329.59	83.1936	329.59	84.3405	329.59	82.8614	329.59	84.0557	329.59	82.5662	329.59	83.732	329.59	82.3368	329.59	83.3996	329.59	82.1947	329.59	83.089	329.59	82.1466	329.59	82.8289	329.59	82.1842	329.59	82.6454	329.59	82.2886	329.59	82.5581	329.59	82.437	329.59	82.5712	329.59	82.6066	329.59	82.6661	329.59	82.7749	329.59	82.8038	329.59	82.9197	329.59	82.9381	329.59	83.0202	329.59	83.0309	329.59	83.06
341.309	84.7532	341.309	84.5707	341.309	84.8514	341.309	84.3164	341.309	84.8606	341.309	84.0097	341.309	84.7838	341.309	83.6759	341.309	84.6329	341.309	83.3449	341.309	84.4283	341.309	83.047	341.309	84.1969	341.309	82.8072	341.309	83.9663	341.309	82.6396	341.309	83.7578	341.309	82.5458	341.309	83.5803	341.309	82.5167	341.309	83.4307	341.309	82.5379	341.309	83.3008	341.309	82.5952	341.309	83.187	341.309	82.6767	341.309	83.0944	341.309	82.7717	341.309	83.0335	341.309	82.8682	341.309	83.0096	341.309	82.9521	341.309	83.0155	341.309	83.0102	341.309	83.0318	341.309	83.0354
353.027	84.3681	353.027	84.1823	353.027	84.4779	353.027	83.9356	353.027	84.501	353.027	83.6468	353.027	84.4339	353.027	83.3371	353.027	84.2828	353.027	83.0294	353.027	84.0659	353.027	82.746	353.027	83.8127	353.027	82.5058	353.027	83.5597	353.027	82.322	353.027	83.3407	353.027	82.2014	353.027	83.1768	353.027	82.1451	353.027	83.071	353.027	82.1496	353.027	83.0118	353.027	82.2073	353.027	82.9823	353.027	82.3066	353.027	82.968	353.027	82.4315	353.027	82.9595	353.027	82.5641	353.027	82.9508	353.027	82.6872	353.027	82.9362	353.027	82.7883	353.027	82.909	353.027	82.8618
366.211	83.138	366.211	82.9144	366.211	83.2635	366.211	82.6137	366.211	83.2835	366.211	82.2725	366.211	83.2028	366.211	81.9433	366.211	83.0378	366.211	81.6902	366.211	82.818	366.211	81.5718	366.211	82.5865	366.211	81.6166	366.211	82.3975	366.211	81.8052	366.211	82.3035	366.211	82.0803	366.211	82.338	366.211	82.3758	366.211	82.5018	366.211	82.6431	366.211	82.7625	366.211	82.8613	366.211	83.0677	366.211	83.0342	366.211	83.3618	366.211	83.1794	366.211	83.5995	366.211	83.3158	366.211	83.7534	366.211	83.4539	366.211	83.8158	366.211	83.5911	366.211	83.7955	366.211	83.7124
379.395	85.0265	379.395	84.7302	379.395	85.1791	379.395	84.2992	379.395	85.182	379.395	83.7477	379.395	85.0303	379.395	83.1001	379.395	84.722	379.395	82.4009	379.395	84.2653	379.395	81.7262	379.395	83.6893	379.395	81.189	379.395	83.0558	379.395	80.9104	379.395	82.4611	379.395	80.9551	379.395	82.0198	379.395	81.2861	379.395	81.8275	379.395	81.796	379.395	81.9216	379.395	82.3745	379.395	82.2665	379.395	82.9447	379.395	82.7719	379.395	83.4622	379.395	83.3276	379.395	83.9006	379.395	83.8356	379.395	84.2398	379.395	84.2272	379.395	84.46	379.395	84.4658	379.395	84.5409
392.578	85.3016	392.578	85.0243	392.578	85.4523	392.578	84.6255	392.578	85.4714	392.578	84.1157	392.578	85.3521	392.578	83.5163	392.578	85.0891	392.578	82.865	392.578	84.6866	392.578	82.218	392.578	84.1663	392.578	81.6465	392.578	83.5728	392.578	81.2238	392.578	82.9719	392.578	81.0038	392.578	82.4409	392.578	81.0006	392.578	82.0534	392.578	81.1879	392.578	81.8614	392.578	81.5145	392.578	81.8806	392.578	81.9227	392.578	82.084	392.578	82.3564	392.578	82.4077	392.578	82.7633	392.578	82.7693	392.578	83.0951	392.578	83.0895	392.578	83.3116	392.578	83.3072	392.578	83.3854
405.762	85.3057	405.762	85.0673	405.762	85.4216	405.762	84.7204	405.762	85.4029	405.762	84.2787	405.762	85.2433	405.762	83.7576	405.762	84.9475	405.762	83.1811	405.762	84.5353	405.762	82.5897	405.762	84.0422	405.762	82.046	405.762	83.5167	405.762	81.6275	405.762	83.0147	405.762	81.3977	405.762	82.5917	405.762	81.3754	405.762	82.295	405.762	81.5281	405.762	82.1554	405.762	81.7984	405.762	82.1791	405.762	82.1302	405.762	82.3414	405.762	82.4786	405.762	82.5914	405.762	82.8049	405.762	82.8658	405.762	83.0729	405.762	83.1056	405.762	83.2511	405.762	83.2656	405.762	83.3176
420.41	85.2445	420.41	85.0425	420.41	85.3197	420.41	84.7284	420.41	85.2622	420.41	84.3233	420.41	85.0754	420.41	83.8522	420.41	84.7699	420.41	83.3423	420.41	84.3619	420.41	82.8245	420.41	83.8739	420.41	82.3374	420.41	83.3374	420.41	81.9296	420.41	82.7958	420.41	81.6526	420.41	82.3033	420.41	81.5443	420.41	81.9214	420.41	81.6123	420.41	81.7119	420.41	81.8311	420.41	81.7184	420.41	82.1533	420.41	81.9365	420.41	82.5223	420.41	82.3002	420.41	82.8808	420.41	82.7085	420.41	83.1756	420.41	83.0669	420.41	83.3629	420.41	83.3121	420.41	83.4129
435.059	85.1306	435.059	84.903	435.059	85.2488	435.059	84.5701	435.059	85.2534	435.059	84.1403	435.059	85.1367	435.059	83.632	435.059	84.8904	435.059	83.0788	435.059	84.5121	435.059	82.5311	435.059	84.0158	435.059	82.0499	435.059	83.4372	435.059	81.6908	435.059	82.8309	435.059	81.4869	435.059	82.2615	435.059	81.4426	435.059	81.7972	435.059	81.5414	435.059	81.51	435.059	81.7573	435.059	81.4643	435.059	82.0591	435.059	81.6769	435.059	82.4086	435.059	82.0807	435.059	82.7595	435.059	82.5487	435.059	83.0611	435.059	82.9573	435.059	83.2643	435.059	83.2276	435.059	83.3286
451.172	85.7433	451.172	85.4691	451.172	85.8569	451.172	85.0379	451.172	85.8065	451.172	84.4563	451.172	85.589	451.172	83.7407	451.172	85.205	451.172	82.9266	451.172	84.6659	451.172	82.0811	451.172	84.003	451.172	81.3065	451.172	83.2744	451.172	80.7182	451.172	82.5618	451.172	80.3945	451.172	81.9514	451.172	80.3381	451.172	81.5037	451.172	80.4898	451.172	81.2344	451.172	80.776	451.172	81.1234	451.172	81.1364	451.172	81.1436	451.172	81.5198	451.172	81.2784	451.172	81.8732	451.172	81.5102	451.172	82.1398	451.172	81.7966	451.172	82.2706	451.172	82.0661	451.172	82.2416
465.82	85.4624	465.82	85.1994	465.82	85.58	465.82	84.8016	465.82	85.5411	465.82	84.2779	465.82	85.3373	465.82	83.6371	465.82	84.9696	465.82	82.8967	465.82	84.4534	465.82	82.0992	465.82	83.823	465.82	81.3323	465.82	83.1303	465.82	80.7295	465.82	82.4398	465.82	80.4186	465.82	81.8254	465.82	80.4396	465.82	81.3734	465.82	80.7252	465.82	81.1772	465.82	81.1652	465.82	81.2924	465.82	81.6678	465.82	81.6737	465.82	82.1692	465.82	82.1826	465.82	82.6213	465.82	82.6714	465.82	82.9836	465.82	83.0448	465.82	83.2241	465.82	83.2638	465.82	83.3216
483.398	85.66	483.398	85.5149	483.398	85.6598	483.398	85.2194	483.398	85.5201	483.398	84.7668	483.398	85.2515	483.398	84.15	483.398	84.8715	483.398	83.368	483.398	84.4022	483.398	82.4411	483.398	83.8674	483.398	81.4376	483.398	83.2934	483.398	80.502	483.398	82.7131	483.398	79.8446	483.398	82.1712	483.398	79.6351	483.398	81.7244	483.398	79.8713	483.398	81.4394	483.398	80.4019	483.398	81.377	483.398	81.0578	483.398	81.5569	483.398	81.7202	483.398	81.9258	483.398	82.3119	483.398	82.3733	483.398	82.7759	483.398	82.7819	483.398	83.0693	483.398	83.0635	483.398	83.1664
499.512	85.5541	499.512	85.3671	499.512	85.6274	499.512	85.0743	499.512	85.5732	499.512	84.6748	499.512	85.3774	499.512	84.1603	499.512	85.0304	499.512	83.5227	499.512	84.5341	499.512	82.7667	499.512	83.909	499.512	81.9266	499.512	83.1967	499.512	81.0806	499.512	82.4538	499.512	80.3547	499.512	81.7457	499.512	79.8943	499.512	81.1546	499.512	79.8009	499.512	80.795	499.512	80.0736	499.512	80.7835	499.512	80.615	499.512	81.1365	499.512	81.2884	499.512	81.7182	499.512	81.9656	499.512	82.3304	499.512	82.5452	499.512	82.8192	499.512	82.9545	499.512	83.1022	499.512	83.1476
517.09	85.8662	517.09	85.6079	517.09	85.9604	517.09	85.2014	517.09	85.8769	517.09	84.6668	517.09	85.6095	517.09	84.0329	517.09	85.1677	517.09	83.3376	517.09	84.5809	517.09	82.6227	517.09	83.8959	517.09	81.9255	517.09	83.1667	517.09	81.2791	517.09	82.4415	517.09	80.7238	517.09	81.7522	517.09	80.3227	517.09	81.1203	517.09	80.1608	517.09	80.5872	517.09	80.3001	517.09	80.2507	517.09	80.7179	517.09	80.2419	517.09	81.2994	517.09	80.6052	517.09	81.8942	517.09	81.2157	517.09	82.3705	517.09	81.8619	517.09	82.636	517.09	82.3693	517.09	82.6392
536.133	85.9703	536.133	85.7562	536.133	85.9711	536.133	85.3414	536.133	85.7508	536.133	84.743	536.133	85.3167	536.133	83.9927	536.133	84.7038	536.133	83.1508	536.133	83.976	536.133	82.3072	536.133	83.2145	536.133	81.56	536.133	82.5069	536.133	80.9766	536.133	81.938	536.133	80.5738	536.133	81.5606	536.133	80.3413	536.133	81.3621	536.133	80.2792	536.133	81.2811	536.133	80.4021	536.133	81.2638	536.133	80.7031	536.133	81.2953	536.133	81.1245	536.133	81.3905	536.133	81.5687	536.133	81.5635	536.133	81.9329	536.133	81.7955	536.133	82.1408	536.133	82.0241	536.133	82.1628
555.176	85.8663	555.176	85.5891	555.176	85.9559	555.176	85.1407	555.176	85.8482	555.176	84.5413	555.176	85.5472	555.176	83.8198	555.176	85.0734	555.176	83.0187	555.176	84.4552	555.176	82.1918	555.176	83.7133	555.176	81.3943	555.176	82.855	555.176	80.6767	555.176	81.8902	555.176	80.0943	555.176	80.8735	555.176	79.7267	555.176	79.9788	555.176	79.6662	555.176	79.5386	555.176	79.9526	555.176	79.8033	555.176	80.5157	555.176	80.588	555.176	81.2069	555.176	81.4734	555.176	81.8764	555.176	82.189	555.176	82.4181	555.176	82.6593	555.176	82.7771	555.176	82.9002	555.176	82.9373
574.219	86.1169	574.219	85.7745	574.219	86.2692	574.219	85.2513	574.219	86.2234	574.219	84.5691	574.219	85.9728	574.219	83.7766	574.219	85.5252	574.219	82.951	574.219	84.9165	574.219	82.1749	574.219	84.2043	574.219	81.4942	574.219	83.4371	574.219	80.8969	574.219	82.6219	574.219	80.3479	574.219	81.7237	574.219	79.8589	574.219	80.7146	574.219	79.5366	574.219	79.682	574.219	79.5473	574.219	78.9565	574.219	79.9799	574.219	78.9792	574.219	80.7313	574.219	79.7566	574.219	81.5698	574.219	80.8264	574.219	82.2746	574.219	81.7888	574.219	82.6993	574.219	82.4591	574.219	82.7685
594.727	86.1606	594.727	85.9842	594.727	86.1107	594.727	85.5674	594.727	85.8552	594.727	84.9042	594.727	85.4267	594.727	84.0123	594.727	84.8678	594.727	82.9546	594.727	84.2202	594.727	81.8466	594.727	83.519	594.727	80.8327	594.727	82.811	594.727	80.0375	594.727	82.1797	594.727	79.5324	594.727	81.7149	594.727	79.3393	594.727	81.4122	594.727	79.4465	594.727	81.1344	594.727	79.8037	594.727	80.7267	594.727	80.326	594.727	80.1924	594.727	80.9183	594.727	79.811	594.727	81.4819	594.727	79.9658	594.727	81.9069	594.727	80.6338	594.727	82.0806	594.727	81.3961	594.727	81.9169
615.234	85.5128	615.234	85.2302	615.234	85.6347	615.234	84.7752	615.234	85.6008	615.234	84.1388	615.234	85.3949	615.234	83.3271	615.234	84.9759	615.234	82.3858	615.234	84.3037	615.234	81.4197	615.234	83.3786	615.234	80.5706	615.234	82.2693	615.234	79.9342	615.234	81.1235	615.234	79.502	615.234	80.1654	615.234	79.2368	615.234	79.6337	615.234	79.1869	615.234	79.6392	615.234	79.4474	615.234	80.0727	615.234	79.995	615.234	80.6745	615.234	80.6613	615.234	81.1968	615.234	81.2656	615.234	81.5286	615.234	81.6947	615.234	81.7104	615.234	81.9064	615.234	81.8365	615.234	81.9265
637.207	85.5708	637.207	85.2422	637.207	85.7033	637.207	84.705	637.207	85.6541	637.207	83.9544	637.207	85.4349	637.207	83.0035	637.207	85.0558	637.207	81.907	637.207	84.5278	637.207	80.7954	637.207	83.8555	637.207	79.8688	637.207	83.0276	637.207	79.271	637.207	82.0341	637.207	78.9267	637.207	80.9192	637.207	78.6078	637.207	79.8381	637.207	78.2215	637.207	79.0403	637.207	78.0301	637.207	78.7186	637.207	78.462	637.207	78.8964	637.207	79.4969	637.207	79.5003	637.207	80.6712	637.207	80.381	637.207	81.6121	637.207	81.2871	637.207	82.1631	637.207	81.9698	637.207	82.2807
659.18	85.6529	659.18	85.4202	659.18	85.6748	659.18	84.9786	659.18	85.4813	659.18	84.3231	659.18	85.0902	659.18	83.4577	659.18	84.5555	659.18	82.418	659.18	83.9339	659.18	81.2899	659.18	83.2422	659.18	80.2147	659.18	82.4796	659.18	79.3528	659.18	81.6816	659.18	78.7737	659.18	80.9262	659.18	78.3851	659.18	80.3256	659.18	78.0703	659.18	79.9931	659.18	77.8879	659.18	79.9037	659.18	78.0848	659.18	79.8881	659.18	78.8232	659.18	79.9202	659.18	79.9106	659.18	80.222	659.18	80.9585	659.18	80.8672	659.18	81.6582	659.18	81.5339	659.18	81.8536
682.617	85.7408	682.617	85.6016	682.617	85.5997	682.617	85.1498	682.617	85.2587	682.617	84.3831	682.617	84.8724	682.617	83.352	682.617	84.6009	682.617	82.1881	682.617	84.4208	682.617	81.0778	682.617	84.0996	682.617	80.163	682.617	83.456	682.617	79.4678	682.617	82.5697	682.617	78.931	682.617	81.6997	682.617	78.4737	682.617	80.9705	682.617	78.0512	682.617	80.309	682.617	77.761	682.617	79.8642	682.617	77.8867	682.617	80.1301	682.617	78.6003	682.617	80.9881	682.617	79.6597	682.617	81.7206	682.617	80.6652	682.617	82.0239	682.617	81.3883	682.617	82.0102	682.617	81.8082
707.52	85.3663	707.52	84.8893	707.52	85.5941	707.52	84.1646	707.52	85.6094	707.52	83.2481	707.52	85.4456	707.52	82.2764	707.52	85.0686	707.52	81.4413	707.52	84.4002	707.52	80.8465	707.52	83.4408	707.52	80.4069	707.52	82.3174	707.52	79.9801	707.52	81.1557	707.52	79.5352	707.52	79.9915	707.52	79.1143	707.52	79.0446	707.52	78.7191	707.52	78.702	707.52	78.3734	707.52	78.7672	707.52	78.2457	707.52	78.7531	707.52	78.5228	707.52	78.7462	707.52	79.1641	707.52	79.1813	707.52	79.9234	707.52	79.9664	707.52	80.5333	707.52	80.5995	707.52	80.7958
732.422	85.6636	732.422	85.444	732.422	85.7098	732.422	85.0397	732.422	85.5779	732.422	84.4405	732.422	85.2367	732.422	83.6573	732.422	84.6596	732.422	82.7288	732.422	83.9066	732.422	81.7005	732.422	83.1459	732.422	80.6222	732.422	82.5119	732.422	79.646	732.422	81.9596	732.422	79.0829	732.422	81.3393	732.422	79.0214	732.422	80.6235	732.422	79.0964	732.422	80.0578	732.422	79.0476	732.422	79.8885	732.422	79.0615	732.422	79.9031	732.422	79.5071	732.422	79.8306	732.422	80.3864	732.422	79.9631	732.422	81.3054	732.422	80.6553	732.422	81.9027	732.422	81.5125	732.422	81.9889
757.324	86.9449	757.324	86.7407	757.324	86.6175	757.324	85.9145	757.324	86.0759	757.324	84.5352	757.324	85.7509	757.324	82.8179	757.324	85.7118	757.324	81.1549	757.324	85.589	757.324	80.0351	757.324	85.0597	757.324	79.6423	757.324	84.0529	757.324	79.5453	757.324	82.7257	757.324	79.2665	757.324	81.4169	757.324	78.7684	757.324	80.3784	757.324	78.2082	757.324	79.5037	757.324	77.7608	757.324	78.864	757.324	77.7722	757.324	79.0806	757.324	78.7297	757.324	79.9361	757.324	80.3106	757.324	80.5375	757.324	81.5179	757.324	80.7424	757.324	81.8863	757.324	81.0179	757.324	81.5514
785.156	85.1893	785.156	84.6709	785.156	86.3954	785.156	85.0182	785.156	87.364	785.156	85.453	785.156	87.5678	785.156	85.4778	785.156	86.9084	785.156	84.9543	785.156	85.5189	785.156	83.8051	785.156	83.6617	785.156	82.1007	785.156	81.6323	785.156	80.1597	785.156	79.6919	785.156	78.2341	785.156	78.1434	785.156	76.7583	785.156	77.7719	785.156	76.9249	785.156	79.1707	785.156	78.3401	785.156	80.6809	785.156	79.5044	785.156	80.8949	785.156	80.1709	785.156	80.0158	785.156	80.8275	785.156	79.5876	785.156	81.5321	785.156	80.2208	785.156	81.8148	785.156	80.9534	785.156	81.5309
811.523	86.1265	811.523	84.8848	811.523	87.4517	811.523	84.7369	811.523	88.1251	811.523	85.4898	811.523	87.961	811.523	86.2398	811.523	86.9775	811.523	86.4871	811.523	85.2575	811.523	85.9953	811.523	83.2319	811.523	84.7207	811.523	81.9128	811.523	82.9567	811.523	81.5806	811.523	81.2171	811.523	81.3641	811.523	79.8328	811.523	80.311	811.523	79.0645	811.523	78.701	811.523	78.786	811.523	78.923	811.523	78.3325	811.523	79.9782	811.523	77.9049	811.523	80.0935	811.523	78.5607	811.523	80.7595	811.523	80.2075	811.523	82.5636	811.523	81.9949	811.523	83.6121	811.523	83.3112
840.82	86.423	840.82	85.7371	840.82	87.2261	840.82	85.4589	840.82	87.688	840.82	85.4712	840.82	87.4653	840.82	85.4851	840.82	86.4467	840.82	85.234	840.82	84.9609	840.82	84.4137	840.82	83.7903	840.82	82.9762	840.82	83.1266	840.82	81.6528	840.82	82.4535	840.82	81.1562	840.82	81.8663	840.82	81.19	840.82	81.7447	840.82	81.4077	840.82	81.7577	840.82	81.0901	840.82	81.1558	840.82	79.4094	840.82	79.301	840.82	76.9041	840.82	76.6754	840.82	76.5101	840.82	78.4853	840.82	79.3219	840.82	82.2201	840.82	82.3629	840.82	84.0873	840.82	84.0664
870.117	86.9052	870.117	85.4866	870.117	87.8149	870.117	84.5385	870.117	87.7694	870.117	84.7941	870.117	86.7367	870.117	85.6562	870.117	85.2929	870.117	86.2208	870.117	84.5307	870.117	85.9339	870.117	84.2373	870.117	84.6256	870.117	83.3512	870.117	82.7653	870.117	81.8235	870.117	81.1846	870.117	80.6673	870.117	79.9686	870.117	80.5871	870.117	79.0214	870.117	80.994	870.117	78.3055	870.117	81.7369	870.117	77.747	870.117	82.1375	870.117	78.0024	870.117	81.0366	870.117	79.3974	870.117	79.2504	870.117	81.3826	870.117	80.6586	870.117	82.9872	870.117	82.871	870.117	83.6062
900.879	87.6133	900.879	86.3473	900.879	87.9931	900.879	84.8969	900.879	87.4017	900.879	84.5449	900.879	86.0865	900.879	85.2747	900.879	84.6788	900.879	85.9126	900.879	83.8055	900.879	85.6145	900.879	83.4306	900.879	84.0605	900.879	83.0818	900.879	81.5827	900.879	82.1023	900.879	78.871	900.879	80.1473	900.879	76.3827	900.879	78.2883	900.879	75.3857	900.879	78.2866	900.879	75.8944	900.879	79.2814	900.879	76.2479	900.879	80.3687	900.879	77.0523	900.879	80.7951	900.879	79.1823	900.879	79.9886	900.879	81.7729	900.879	79.9013	900.879	83.4392	900.879	82.0243	900.879	83.5548
933.105	86.3325	933.105	85.9977	933.105	86.5708	933.105	85.584	933.105	86.5711	933.105	85.1023	933.105	86.1948	933.105	84.7503	933.105	85.4458	933.105	84.6325	933.105	84.551	933.105	84.1552	933.105	83.6292	933.105	82.3991	933.105	82.2623	933.105	79.2838	933.105	80.2632	933.105	76.9286	933.105	78.2846	933.105	76.7918	933.105	76.9592	933.105	76.8254	933.105	77.3061	933.105	76.8999	933.105	80.446	933.105	77.61	933.105	83.1257	933.105	78.1309	933.105	83.6982	933.105	79.0429	933.105	82.2366	933.105	81.2559	933.105	80.2206	933.105	82.7825	933.105	80.8868	933.105	82.5632
965.332	87.2475	965.332	86.7164	965.332	87.2807	965.332	85.8815	965.332	86.8072	965.332	85.1668	965.332	85.973	965.332	84.8859	965.332	84.9634	965.332	84.6241	965.332	83.7973	965.332	83.5724	965.332	82.443	965.332	81.6059	965.332	80.9996	965.332	79.8769	965.332	79.3052	965.332	79.1522	965.332	76.5187	965.332	78.1777	965.332	72.7483	965.332	76.8769	965.332	72.7463	965.332	76.6147	965.332	74.7515	965.332	77.0462	965.332	76.689	965.332	78.4556	965.332	78.6962	965.332	80.6023	965.332	79.3764	965.332	82.5946	965.332	78.8232	965.332	83.375	965.332	80.0117	965.332	82.3972
1,000.49	85.9613	1,000.49	85.3152	1,000.49	86.8377	1,000.49	85.5285	1,000.49	86.974	1,000.49	86.081	1,000.49	86.0313	1,000.49	86.3392	1,000.49	84.4638	1,000.49	85.9602	1,000.49	83.498	1,000.49	84.7792	1,000.49	83.4148	1,000.49	82.758	1,000.49	83.2961	1,000.49	80.2133	1,000.49	82.9421	1,000.49	78.5536	1,000.49	82.3692	1,000.49	78.6574	1,000.49	80.9305	1,000.49	79.1801	1,000.49	78.191	1,000.49	79.6824	1,000.49	77.7616	1,000.49	79.6948	1,000.49	79.9346	1,000.49	79.2064	1,000.49	80.1805	1,000.49	79.4926	1,000.49	79.5202	1,000.49	80.8369	1,000.49	80.3114	1,000.49	81.7602	1,000.49	81.2501	1,000.49	81.7419
1,035.64	86.5062	1,035.64	85.3477	1,035.64	86.8636	1,035.64	84.6711	1,035.64	85.9753	1,035.64	85.2517	1,035.64	84.2339	1,035.64	86.0035	1,035.64	83.2401	1,035.64	85.8974	1,035.64	83.8111	1,035.64	84.7069	1,035.64	84.3163	1,035.64	82.4224	1,035.64	83.7011	1,035.64	78.9997	1,035.64	81.9301	1,035.64	76.7226	1,035.64	79.4669	1,035.64	77.7611	1,035.64	77.1711	1,035.64	78.659	1,035.64	76.1427	1,035.64	78.6502	1,035.64	75.3206	1,035.64	78.2549	1,035.64	77.8485	1,035.64	78.5806	1,035.64	80.3443	1,035.64	79.7606	1,035.64	79.6426	1,035.64	81.0709	1,035.64	77.7907	1,035.64	81.8274	1,035.64	79.5306	1,035.64	81.4381
1,072.27	85.9367	1,072.27	85.7552	1,072.27	85.8128	1,072.27	85.7724	1,072.27	85.0898	1,072.27	85.8428	1,072.27	84.2303	1,072.27	85.3826	1,072.27	83.9876	1,072.27	84.1469	1,072.27	84.0856	1,072.27	82.3815	1,072.27	83.873	1,072.27	80.1835	1,072.27	83.5826	1,072.27	77.553	1,072.27	83.5248	1,072.27	76.1811	1,072.27	83.1683	1,072.27	76.5389	1,072.27	81.2805	1,072.27	77.1513	1,072.27	76.8413	1,072.27	77.2546	1,072.27	73.2009	1,072.27	76.9283	1,072.27	77.8736	1,072.27	77.6918	1,072.27	79.7828	1,072.27	79.7971	1,072.27	78.8557	1,072.27	81.4085	1,072.27	77.9196	1,072.27	81.4522	1,072.27	78.6343	1,072.27	80.1483
1,108.89	87.2848	1,108.89	86.7588	1,108.89	86.1338	1,108.89	85.2982	1,108.89	83.678	1,108.89	84.5886	1,108.89	82.5772	1,108.89	85.2377	1,108.89	83.7672	1,108.89	85.6703	1,108.89	84.795	1,108.89	84.7869	1,108.89	84.862	1,108.89	82.5616	1,108.89	83.8801	1,108.89	79.8212	1,108.89	82.1224	1,108.89	76.9634	1,108.89	80.3135	1,108.89	71.9536	1,108.89	79.4843	1,108.89	67.7242	1,108.89	79.2275	1,108.89	71.2193	1,108.89	76.6282	1,108.89	73.9013	1,108.89	72.6139	1,108.89	77.0078	1,108.89	77.9652	1,108.89	80.0704	1,108.89	79.9074	1,108.89	81.7711	1,108.89	78.8007	1,108.89	81.1038	1,108.89	77.0784	1,108.89	78.5606
1,148.44	85.8741	1,148.44	85.3333	1,148.44	85.6957	1,148.44	84.7504	1,148.44	84.8256	1,148.44	84.5088	1,148.44	84.0978	1,148.44	84.2054	1,148.44	83.7804	1,148.44	83.482	1,148.44	83.1439	1,148.44	82.3648	1,148.44	81.7472	1,148.44	80.446	1,148.44	80.2288	1,148.44	77.3034	1,148.44	79.8514	1,148.44	75.8709	1,148.44	79.8941	1,148.44	75.8481	1,148.44	78.6086	1,148.44	72.444	1,148.44	76.2845	1,148.44	70.4465	1,148.44	72.7206	1,148.44	73.7762	1,148.44	69.101	1,148.44	77.3404	1,148.44	75.5869	1,148.44	79.69	1,148.44	77.9396	1,148.44	81.2689	1,148.44	78.7072	1,148.44	80.6225	1,148.44	79.029	1,148.44	79.0786
1,189.45	86.0785	1,189.45	85.8558	1,189.45	85.4054	1,189.45	84.7398	1,189.45	84.8402	1,189.45	83.6959	1,189.45	84.6724	1,189.45	83.6528	1,189.45	83.8264	1,189.45	83.7119	1,189.45	82.0469	1,189.45	83.0924	1,189.45	79.6609	1,189.45	82.6861	1,189.45	77.0115	1,189.45	82.4303	1,189.45	74.933	1,189.45	81.2251	1,189.45	73.0789	1,189.45	79.3852	1,189.45	72.3045	1,189.45	77.8307	1,189.45	74.8042	1,189.45	77.0178	1,189.45	77.2452	1,189.45	76.4371	1,189.45	77.3082	1,189.45	75.1711	1,189.45	76.6275	1,189.45	76.0342	1,189.45	76.5684	1,189.45	77.9814	1,189.45	77.1823	1,189.45	79.1167	1,189.45	78.927	1,189.45	79.6413
1,230.47	85.5821	1,230.47	85.2981	1,230.47	85.1839	1,230.47	84.4133	1,230.47	84.9622	1,230.47	83.6283	1,230.47	84.5387	1,230.47	83.2895	1,230.47	83.056	1,230.47	82.799	1,230.47	81.6683	1,230.47	81.8043	1,230.47	80.8894	1,230.47	80.0642	1,230.47	80.0737	1,230.47	76.8941	1,230.47	79.892	1,230.47	76.1708	1,230.47	79.7029	1,230.47	76.8664	1,230.47	78.1584	1,230.47	74.9911	1,230.47	77.1593	1,230.47	72.989	1,230.47	77.4504	1,230.47	74.6821	1,230.47	73.526	1,230.47	76.1545	1,230.47	72.0257	1,230.47	76.0542	1,230.47	78.2385	1,230.47	78.45	1,230.47	78.3283	1,230.47	80.2575	1,230.47	78.7125	1,230.47	80.2499
1,274.41	85.7337	1,274.41	85.4769	1,274.41	85.4697	1,274.41	84.7146	1,274.41	84.7146	1,274.41	83.8195	1,274.41	83.4513	1,274.41	83.0308	1,274.41	82.1271	1,274.41	81.7686	1,274.41	81.5578	1,274.41	79.8914	1,274.41	81.8477	1,274.41	79.1433	1,274.41	81.5444	1,274.41	79.1145	1,274.41	79.6621	1,274.41	77.683	1,274.41	77.6972	1,274.41	76.6219	1,274.41	77.4815	1,274.41	76.673	1,274.41	77.4272	1,274.41	76.4255	1,274.41	76.9343	1,274.41	75.5819	1,274.41	77.173	1,274.41	74.8765	1,274.41	76.5983	1,274.41	75.2246	1,274.41	74.8288	1,274.41	76.9197	1,274.41	76.7949	1,274.41	77.8665	1,274.41	78.5707	1,274.41	78.356
1,319.82	85.0653	1,319.82	85.2638	1,319.82	85.5323	1,319.82	85.6316	1,319.82	85.2909	1,319.82	84.9532	1,319.82	83.0323	1,319.82	82.3868	1,319.82	80.8267	1,319.82	80.3703	1,319.82	81.7892	1,319.82	81.3269	1,319.82	81.6192	1,319.82	81.5667	1,319.82	80.0951	1,319.82	78.8027	1,319.82	78.2183	1,319.82	74.1199	1,319.82	75.655	1,319.82	73.0498	1,319.82	73.4742	1,319.82	75.9178	1,319.82	72.142	1,319.82	77.8095	1,319.82	74.9886	1,319.82	78.7256	1,319.82	77.8473	1,319.82	78.6233	1,319.82	76.8205	1,319.82	77.3918	1,319.82	75.315	1,319.82	76.9878	1,319.82	77.6986	1,319.82	77.3039	1,319.82	78.6325	1,319.82	77.9313
1,366.7	85.5169	1,366.7	84.0479	1,366.7	85.8893	1,366.7	83.6523	1,366.7	84.9263	1,366.7	84.6845	1,366.7	84.3973	1,366.7	84.12	1,366.7	84.9934	1,366.7	80.9489	1,366.7	84.9715	1,366.7	79.0241	1,366.7	82.862	1,366.7	81.4434	1,366.7	79.0987	1,366.7	81.8224	1,366.7	76.6733	1,366.7	80.6619	1,366.7	76.1274	1,366.7	80.4998	1,366.7	76.0633	1,366.7	81.6135	1,366.7	76.913	1,366.7	82.0524	1,366.7	76.1008	1,366.7	80.1802	1,366.7	69.0412	1,366.7	76.1352	1,366.7	75.764	1,366.7	72.3424	1,366.7	79.0019	1,366.7	74.6587	1,366.7	76.5335	1,366.7	78.0871	1,366.7	77.1364	1,366.7	79.1171
1,413.57	85.9448	1,413.57	86.0605	1,413.57	85.8677	1,413.57	86.0231	1,413.57	85.8945	1,413.57	85.3821	1,413.57	85.6323	1,413.57	83.5391	1,413.57	85.5921	1,413.57	80.5221	1,413.57	85.615	1,413.57	79.1678	1,413.57	83.7681	1,413.57	81.5029	1,413.57	80.4121	1,413.57	81.6748	1,413.57	78.2751	1,413.57	79.7979	1,413.57	77.8488	1,413.57	78.0973	1,413.57	77.5906	1,413.57	78.0296	1,413.57	76.0784	1,413.57	79.2115	1,413.57	74.8143	1,413.57	80.2429	1,413.57	75.3788	1,413.57	79.5547	1,413.57	76.5127	1,413.57	76.806	1,413.57	78.0367	1,413.57	76.3599	1,413.57	78.2786	1,413.57	79.1527	1,413.57	79.4111	1,413.57	80.4099
1,463.38	86.6898	1,463.38	87.4267	1,463.38	85.9305	1,463.38	87.0048	1,463.38	86.407	1,463.38	84.978	1,463.38	86.6749	1,463.38	82.5946	1,463.38	86.188	1,463.38	81.6411	1,463.38	86.1257	1,463.38	79.533	1,463.38	84.7143	1,463.38	76.3113	1,463.38	82.5372	1,463.38	76.477	1,463.38	81.3722	1,463.38	75.754	1,463.38	79.2217	1,463.38	73.843	1,463.38	76.6607	1,463.38	76.7545	1,463.38	78.009	1,463.38	79.7854	1,463.38	79.5432	1,463.38	79.8279	1,463.38	80.3567	1,463.38	79.6546	1,463.38	76.8268	1,463.38	78.2509	1,463.38	77.0957	1,463.38	75.8575	1,463.38	78.7348	1,463.38	76.7378	1,463.38	77.6323	1,463.38	77.8087
1,516.11	86.6812	1,516.11	86.8236	1,516.11	86.3197	1,516.11	86.8588	1,516.11	85.9644	1,516.11	86.2493	1,516.11	85.7897	1,516.11	84.2729	1,516.11	86.4342	1,516.11	80.9697	1,516.11	86.4857	1,516.11	77.7641	1,516.11	84.4879	1,516.11	76.2645	1,516.11	82.5817	1,516.11	77.1937	1,516.11	80.4519	1,516.11	79.8539	1,516.11	77.7386	1,516.11	78.9606	1,516.11	78.0237	1,516.11	72.2637	1,516.11	79.9626	1,516.11	70.8523	1,516.11	79.3817	1,516.11	78.1736	1,516.11	77.8766	1,516.11	81.1604	1,516.11	77.5714	1,516.11	78.7296	1,516.11	79.496	1,516.11	73.6943	1,516.11	77.1941	1,516.11	74.9009	1,516.11	77.9621	1,516.11	78.2431
1,568.85	85.8449	1,568.85	86.1704	1,568.85	85.3487	1,568.85	85.924	1,568.85	85.7932	1,568.85	85.3794	1,568.85	85.8291	1,568.85	84.4495	1,568.85	85.3658	1,568.85	82.7648	1,568.85	85.6578	1,568.85	80.2368	1,568.85	85.0125	1,568.85	77.9169	1,568.85	83.3322	1,568.85	78.7408	1,568.85	81.9322	1,568.85	80.621	1,568.85	81.4167	1,568.85	80.0771	1,568.85	79.1364	1,568.85	76.7008	1,568.85	74.6228	1,568.85	71.9748	1,568.85	76.7205	1,568.85	76.0849	1,568.85	75.0281	1,568.85	79.0646	1,568.85	75.6129	1,568.85	77.9207	1,568.85	79.3324	1,568.85	75.8964	1,568.85	74.9895	1,568.85	76.6118	1,568.85	75.3074	1,568.85	77.7937
1,624.51	85.7016	1,624.51	86.0233	1,624.51	85.4341	1,624.51	85.8365	1,624.51	85.2683	1,624.51	84.2595	1,624.51	85.2928	1,624.51	82.7091	1,624.51	85.9951	1,624.51	82.2673	1,624.51	85.5828	1,624.51	80.1485	1,624.51	83.514	1,624.51	77.7848	1,624.51	82.3594	1,624.51	79.0953	1,624.51	82.2392	1,624.51	80.3364	1,624.51	81.4411	1,624.51	80.5534	1,624.51	79.8967	1,624.51	81.7544	1,624.51	78.7759	1,624.51	79.663	1,624.51	78.2884	1,624.51	76.5737	1,624.51	76.2146	1,624.51	78.4613	1,624.51	71.7592	1,624.51	76.924	1,624.51	75.2847	1,624.51	73.4298	1,624.51	72.3014	1,624.51	73.6575	1,624.51	76.2712	1,624.51	76.8426
1,681.64	87.0699	1,681.64	86.2728	1,681.64	86.8484	1,681.64	84.5369	1,681.64	86.5798	1,681.64	84.1997	1,681.64	86.1624	1,681.64	84.9102	1,681.64	86.3758	1,681.64	84.0367	1,681.64	85.9629	1,681.64	81.4573	1,681.64	84.5167	1,681.64	81.4514	1,681.64	83.9049	1,681.64	81.8549	1,681.64	82.6207	1,681.64	80.1923	1,681.64	81.8268	1,681.64	81.6218	1,681.64	81.1781	1,681.64	81.9541	1,681.64	77.5778	1,681.64	78.5002	1,681.64	75.5661	1,681.64	78.098	1,681.64	77.647	1,681.64	79.7467	1,681.64	75.0728	1,681.64	77.1446	1,681.64	78.1782	1,681.64	72.15	1,681.64	77.8655	1,681.64	73.0023	1,681.64	74.9695	1,681.64	76.4061
1,741.7	87.2346	1,741.7	85.7007	1,741.7	87.8738	1,741.7	84.8934	1,741.7	86.4578	1,741.7	84.0484	1,741.7	86.3961	1,741.7	83.657	1,741.7	86.81	1,741.7	84.0434	1,741.7	86.3817	1,741.7	82.7602	1,741.7	85.5231	1,741.7	80.5771	1,741.7	83.5398	1,741.7	79.7128	1,741.7	82.0674	1,741.7	78.8182	1,741.7	81.5119	1,741.7	78.8224	1,741.7	80.5812	1,741.7	79.4859	1,741.7	77.1579	1,741.7	79.7657	1,741.7	76.392	1,741.7	78.4772	1,741.7	76.926	1,741.7	78.9261	1,741.7	76.6614	1,741.7	76.8102	1,741.7	79.6631	1,741.7	68.6256	1,741.7	79.4243	1,741.7	73.3624	1,741.7	73.0642	1,741.7	75.9389
1,803.22	87.2613	1,803.22	85.6125	1,803.22	87.2605	1,803.22	84.806	1,803.22	88.0575	1,803.22	85.5909	1,803.22	88.1768	1,803.22	83.8959	1,803.22	85.8829	1,803.22	81.2043	1,803.22	84.353	1,803.22	81.4492	1,803.22	85.4973	1,803.22	81.1549	1,803.22	83.9856	1,803.22	78.3942	1,803.22	78.8342	1,803.22	74.1965	1,803.22	77.1522	1,803.22	76.1972	1,803.22	79.3395	1,803.22	79.6987	1,803.22	76.66	1,803.22	79.3445	1,803.22	57.5932	1,803.22	76.4403	1,803.22	76.3299	1,803.22	78.2482	1,803.22	77.4238	1,803.22	76.8237	1,803.22	75.239	1,803.22	70.4528	1,803.22	78.4579	1,803.22	69.0344	1,803.22	77.7286	1,803.22	73.8698
1,866.21	85.0053	1,866.21	84.5814	1,866.21	87.1995	1,866.21	85.4003	1,866.21	88.7349	1,866.21	86.2898	1,866.21	88.1691	1,866.21	84.517	1,866.21	86.5592	1,866.21	82.9983	1,866.21	84.9687	1,866.21	83.173	1,866.21	84.3666	1,866.21	81.4436	1,866.21	82.2429	1,866.21	79.8966	1,866.21	75.5116	1,866.21	74.4919	1,866.21	66.9796	1,866.21	70.7819	1,866.21	69.507	1,866.21	75.3366	1,866.21	73.1971	1,866.21	77.2187	1,866.21	67.4773	1,866.21	77.7731	1,866.21	73.8728	1,866.21	76.0921	1,866.21	77.702	1,866.21	77.7132	1,866.21	76.65	1,866.21	76.3523	1,866.21	77.7556	1,866.21	72.2015	1,866.21	74.7487	1,866.21	69.8847
1,932.13	84.616	1,932.13	84.6233	1,932.13	86.5421	1,932.13	85.9587	1,932.13	88.0997	1,932.13	86.5298	1,932.13	86.5223	1,932.13	84.5198	1,932.13	85.8663	1,932.13	80.1977	1,932.13	85.7694	1,932.13	79.2282	1,932.13	83.3948	1,932.13	78.6649	1,932.13	80.9572	1,932.13	76.387	1,932.13	74.0984	1,932.13	76.3981	1,932.13	68.541	1,932.13	75.0096	1,932.13	58.7956	1,932.13	76.456	1,932.13	64.1014	1,932.13	76.5642	1,932.13	68.3221	1,932.13	75.9019	1,932.13	66.3237	1,932.13	73.0042	1,932.13	77.5536	1,932.13	72.6184	1,932.13	78.2527	1,932.13	73.3028	1,932.13	77.4336	1,932.13	72.4517	1,932.13	78.1368	1,932.13	68.8476
1,999.51	85.9012	1,999.51	84.7325	1,999.51	86.8014	1,999.51	84.2542	1,999.51	87.5685	1,999.51	83.5475	1,999.51	87.6321	1,999.51	82.5589	1,999.51	86.2512	1,999.51	81.3495	1,999.51	84.8508	1,999.51	78.4148	1,999.51	82.6479	1,999.51	78.8806	1,999.51	80.219	1,999.51	78.8751	1,999.51	73.6656	1,999.51	77.1094	1,999.51	70.5995	1,999.51	76.2131	1,999.51	70.5477	1,999.51	72.8823	1,999.51	70.6833	1,999.51	70.9967	1,999.51	72.6412	1,999.51	75.5952	1,999.51	72.5183	1,999.51	75.4423	1,999.51	73.3266	1,999.51	73.4505	1,999.51	75.4548	1,999.51	71.1116	1,999.51	76.4682	1,999.51	69.3632	1,999.51	75.6672	1,999.51	70.7932
2,069.82	86.3716	2,069.82	84.4929	2,069.82	87.2558	2,069.82	81.8561	2,069.82	87.7299	2,069.82	81.2601	2,069.82	86.8643	2,069.82	81.7921	2,069.82	85.3339	2,069.82	81.3866	2,069.82	84.1981	2,069.82	80.0586	2,069.82	82.1472	2,069.82	78.3895	2,069.82	78.1509	2,069.82	74.6004	2,069.82	72.2887	2,069.82	71.2444	2,069.82	72.6996	2,069.82	71.974	2,069.82	68.7559	2,069.82	74.3492	2,069.82	68.0372	2,069.82	71.0075	2,069.82	69.9533	2,069.82	73.5676	2,069.82	70.0553	2,069.82	75.2068	2,069.82	70.2964	2,069.82	70.325	2,069.82	74.1647	2,069.82	67.67	2,069.82	76.2448	2,069.82	67.5415	2,069.82	74.9523	2,069.82	70.6377
2,143.07	86.1056	2,143.07	84.3701	2,143.07	87.4044	2,143.07	81.6346	2,143.07	87.7191	2,143.07	79.7141	2,143.07	86.418	2,143.07	81.2161	2,143.07	84.4876	2,143.07	81.2209	2,143.07	83.043	2,143.07	79.2027	2,143.07	80.9097	2,143.07	78.123	2,143.07	76.9431	2,143.07	75.1587	2,143.07	71.8747	2,143.07	72.5289	2,143.07	68.9722	2,143.07	73.9293	2,143.07	60.7436	2,143.07	73.2487	2,143.07	62.4616	2,143.07	72.3654	2,143.07	65.0487	2,143.07	70.7663	2,143.07	67.8228	2,143.07	74.4606	2,143.07	68.6978	2,143.07	70.3572	2,143.07	72.9527	2,143.07	62.6482	2,143.07	75.6802	2,143.07	66.1845	2,143.07	73.8449	2,143.07	69.3211
2,219.24	84.9792	2,219.24	83.5926	2,219.24	86.2875	2,219.24	81.7429	2,219.24	86.8927	2,219.24	79.7488	2,219.24	85.4123	2,219.24	80.0769	2,219.24	83.5252	2,219.24	79.9953	2,219.24	80.9643	2,219.24	79.0664	2,219.24	78.5774	2,219.24	78.4999	2,219.24	76.4777	2,219.24	75.2029	2,219.24	74.3615	2,219.24	68.8532	2,219.24	70.1197	2,219.24	73.4187	2,219.24	60.2852	2,219.24	73.6035	2,219.24	61.9711	2,219.24	72.8483	2,219.24	57.229	2,219.24	70.5916	2,219.24	67.4637	2,219.24	72.6054	2,219.24	67.5895	2,219.24	70.7663	2,219.24	70.8	2,219.24	57.1699	2,219.24	73.9719	2,219.24	61.7611	2,219.24	73.7715	2,219.24	67.9893
2,296.88	84.4484	2,296.88	82.4098	2,296.88	85.6615	2,296.88	81.6999	2,296.88	85.6791	2,296.88	81.4326	2,296.88	84.9359	2,296.88	80.1003	2,296.88	83.2891	2,296.88	78.3116	2,296.88	79.9076	2,296.88	78.0989	2,296.88	77.7775	2,296.88	75.4134	2,296.88	76.584	2,296.88	71.6473	2,296.88	78.2578	2,296.88	72.0543	2,296.88	74.7375	2,296.88	67.9363	2,296.88	60.7446	2,296.88	72.9978	2,296.88	59.0081	2,296.88	73.9973	2,296.88	62.9215	2,296.88	70.2602	2,296.88	64.8866	2,296.88	71.9704	2,296.88	63.2646	2,296.88	71.2369	2,296.88	68.5126	2,296.88	59.5158	2,296.88	72.0818	2,296.88	60.8256	2,296.88	73.0281	2,296.88	68.6222
2,378.91	85.7758	2,378.91	83.2689	2,378.91	86.6039	2,378.91	81.7113	2,378.91	85.1304	2,378.91	81.1257	2,378.91	82.7799	2,378.91	78.6729	2,378.91	80.6472	2,378.91	76.8729	2,378.91	79.2536	2,378.91	76.6006	2,378.91	76.287	2,378.91	75.2396	2,378.91	76.4127	2,378.91	75.5354	2,378.91	78.8961	2,378.91	72.8505	2,378.91	75.2241	2,378.91	69.0415	2,378.91	65.9052	2,378.91	66.512	2,378.91	62.689	2,378.91	72.4829	2,378.91	60.8172	2,378.91	71.9009	2,378.91	65.3295	2,378.91	69.4738	2,378.91	64.3946	2,378.91	71.7066	2,378.91	66.8737	2,378.91	62.9995	2,378.91	72.4012	2,378.91	56.3528	2,378.91	72.2373	2,378.91	65.3405
2,462.4	87.3722	2,462.4	85.0678	2,462.4	87.9824	2,462.4	81.1729	2,462.4	86.631	2,462.4	79.1418	2,462.4	82.9516	2,462.4	77.2805	2,462.4	80.1405	2,462.4	77.1665	2,462.4	77.5451	2,462.4	77.706	2,462.4	74.4993	2,462.4	74.9788	2,462.4	75.5258	2,462.4	70.267	2,462.4	73.5554	2,462.4	70.3523	2,462.4	65.3461	2,462.4	63.6125	2,462.4	44.2857	2,462.4	68.7222	2,462.4	68.5086	2,462.4	67.7425	2,462.4	65.3513	2,462.4	72.8457	2,462.4	67.4042	2,462.4	69.2517	2,462.4	68.4613	2,462.4	70.4525	2,462.4	67.032	2,462.4	63.5323	2,462.4	72.0689	2,462.4	49.1437	2,462.4	72.6406	2,462.4	63.9475
2,548.83	87.7094	2,548.83	85.5448	2,548.83	88.7116	2,548.83	81.3183	2,548.83	87.9434	2,548.83	77.1218	2,548.83	84.2576	2,548.83	78.1911	2,548.83	79.7253	2,548.83	79.3127	2,548.83	72.8963	2,548.83	78.1124	2,548.83	76.4307	2,548.83	77.3947	2,548.83	75.4664	2,548.83	74.9301	2,548.83	78.1489	2,548.83	70.048	2,548.83	70.5593	2,548.83	70.5253	2,548.83	67.9418	2,548.83	67.459	2,548.83	67.3	2,548.83	67.559	2,548.83	68.2296	2,548.83	72.3032	2,548.83	67.9646	2,548.83	70.1312	2,548.83	69.8414	2,548.83	69.9119	2,548.83	69.891	2,548.83	64.346	2,548.83	73.1839	2,548.83	55.6328	2,548.83	74.9864	2,548.83	69.1772
2,639.65	86.7867	2,639.65	84.7012	2,639.65	88.0922	2,639.65	81.8606	2,639.65	87.826	2,639.65	78.8341	2,639.65	84.3692	2,639.65	79.4238	2,639.65	78.8171	2,639.65	79.7166	2,639.65	73.389	2,639.65	78.2871	2,639.65	74.1462	2,639.65	75.978	2,639.65	78.3244	2,639.65	73.3399	2,639.65	79.0085	2,639.65	71.3145	2,639.65	76.3212	2,639.65	70.4786	2,639.65	73.6691	2,639.65	71.5778	2,639.65	64.0864	2,639.65	70.1616	2,639.65	62.2547	2,639.65	72.1565	2,639.65	68.2487	2,639.65	71.4851	2,639.65	67.5989	2,639.65	67.242	2,639.65	69.1743	2,639.65	57.5542	2,639.65	73.349	2,639.65	57.434	2,639.65	73.8037	2,639.65	63.6876
2,731.93	86.2697	2,731.93	83.7084	2,731.93	86.9303	2,731.93	81.1794	2,731.93	85.5484	2,731.93	78.6126	2,731.93	82.0961	2,731.93	77.817	2,731.93	76.6996	2,731.93	79.5358	2,731.93	73.2461	2,731.93	78.233	2,731.93	73.1146	2,731.93	76.1286	2,731.93	78.0568	2,731.93	76.0033	2,731.93	77.3941	2,731.93	73.1903	2,731.93	77.2433	2,731.93	72.8711	2,731.93	74.4707	2,731.93	68.811	2,731.93	58.7671	2,731.93	70.3556	2,731.93	63.232	2,731.93	71.6363	2,731.93	66.0611	2,731.93	71.9348	2,731.93	65.8701	2,731.93	68.2914	2,731.93	65.4602	2,731.93	55.889	2,731.93	70.1938	2,731.93	60.7808	2,731.93	72.4881	2,731.93	65.706
2,828.61	87.0355	2,828.61	84.3306	2,828.61	87.3568	2,828.61	80.089	2,828.61	84.6534	2,828.61	78.8966	2,828.61	80.0548	2,828.61	78.6244	2,828.61	72.741	2,828.61	79.6694	2,828.61	71.7957	2,828.61	78.657	2,828.61	73.9994	2,828.61	77.1448	2,828.61	77.6037	2,828.61	74.7877	2,828.61	77.1088	2,828.61	72.3035	2,828.61	77.1266	2,828.61	68.2372	2,828.61	73.3019	2,828.61	71.6182	2,828.61	65.2721	2,828.61	70.1888	2,828.61	65.0898	2,828.61	71.7074	2,828.61	59.7141	2,828.61	71.0666	2,828.61	64.6541	2,828.61	69.4471	2,828.61	64.1712	2,828.61	58.404	2,828.61	68.9584	2,828.61	59.6082	2,828.61	72.1513	2,828.61	65.9148
2,928.22	87.7485	2,928.22	85.6075	2,928.22	87.5455	2,928.22	80.213	2,928.22	84.7374	2,928.22	77.8269	2,928.22	78.8845	2,928.22	79.6095	2,928.22	69.4716	2,928.22	79.8611	2,928.22	71.8963	2,928.22	79.0418	2,928.22	74.4704	2,928.22	78.6862	2,928.22	77.3615	2,928.22	75.369	2,928.22	75.8655	2,928.22	66.7531	2,928.22	78.5724	2,928.22	69.4292	2,928.22	72.4732	2,928.22	67.9818	2,928.22	62.8937	2,928.22	70.5619	2,928.22	63.2029	2,928.22	71.1905	2,928.22	59.1453	2,928.22	71.0819	2,928.22	67.6203	2,928.22	68.3344	2,928.22	60.1488	2,928.22	52.2033	2,928.22	67.6053	2,928.22	63.7553	2,928.22	71.6544	2,928.22	67.7437
3,030.76	87.5656	3,030.76	85.0725	3,030.76	87.2399	3,030.76	80.4523	3,030.76	84.0986	3,030.76	77.3178	3,030.76	77.1725	3,030.76	79.8623	3,030.76	68.4656	3,030.76	79.2477	3,030.76	73.8521	3,030.76	78.8719	3,030.76	72.6133	3,030.76	77.6133	3,030.76	75.7706	3,030.76	73.0751	3,030.76	76.7536	3,030.76	70.6672	3,030.76	78.6586	3,030.76	68.617	3,030.76	70.3819	3,030.76	68.3967	3,030.76	64.6712	3,030.76	69.5401	3,030.76	64.4352	3,030.76	71.2482	3,030.76	59.625	3,030.76	69.9317	3,030.76	64.4597	3,030.76	68.486	3,030.76	65.3394	3,030.76	51.853	3,030.76	65.5478	3,030.76	63.6653	3,030.76	70.9755	3,030.76	67.8393
3,137.7	86.6221	3,137.7	84.1352	3,137.7	86.6968	3,137.7	80.3527	3,137.7	83.1443	3,137.7	77.2137	3,137.7	74.8167	3,137.7	79.4837	3,137.7	71.1214	3,137.7	80.6687	3,137.7	75.2939	3,137.7	79.0038	3,137.7	74.0841	3,137.7	74.9968	3,137.7	75.2714	3,137.7	73.2064	3,137.7	78.1466	3,137.7	70.6983	3,137.7	78.0019	3,137.7	69.907	3,137.7	72.6084	3,137.7	69.316	3,137.7	66.3992	3,137.7	67.471	3,137.7	63.2986	3,137.7	71.778	3,137.7	63.3631	3,137.7	69.4635	3,137.7	60.0704	3,137.7	67.7353	3,137.7	63.314	3,137.7	57.392	3,137.7	64.4653	3,137.7	64.2287	3,137.7	69.8492	3,137.7	67.1822
3,249.02	86.0142	3,249.02	84.2726	3,249.02	85.6566	3,249.02	79.0264	3,249.02	81.5251	3,249.02	77.0018	3,249.02	68.7395	3,249.02	79.9177	3,249.02	74.7788	3,249.02	81.2823	3,249.02	76.3418	3,249.02	77.4171	3,249.02	77.4593	3,249.02	74.2669	3,249.02	77.9688	3,249.02	74.9962	3,249.02	79.9038	3,249.02	70.2625	3,249.02	78.4556	3,249.02	64.3913	3,249.02	75.5514	3,249.02	67.2451	3,249.02	59.8546	3,249.02	69.4378	3,249.02	55.899	3,249.02	69.9334	3,249.02	63.675	3,249.02	69.765	3,249.02	61.3376	3,249.02	67.7049	3,249.02	65.4859	3,249.02	56.6911	3,249.02	63.1498	3,249.02	62.8622	3,249.02	68.6271	3,249.02	65.5553
3,363.28	86.4714	3,363.28	84.4235	3,363.28	85.4399	3,363.28	76.641	3,363.28	80.6509	3,363.28	76.1692	3,363.28	69.7472	3,363.28	79.9989	3,363.28	77.1786	3,363.28	80.2727	3,363.28	76.6393	3,363.28	75.5109	3,363.28	78.5535	3,363.28	73.639	3,363.28	78.9071	3,363.28	71.0317	3,363.28	80.6114	3,363.28	56.9067	3,363.28	77.1512	3,363.28	61.3998	3,363.28	75.1551	3,363.28	62.9188	3,363.28	62.0991	3,363.28	67.9362	3,363.28	59.1305	3,363.28	67.4353	3,363.28	64.0894	3,363.28	66.6321	3,363.28	62.8831	3,363.28	65.9667	3,363.28	65.3489	3,363.28	49.3466	3,363.28	61.5561	3,363.28	64.4672	3,363.28	69.4822	3,363.28	64.4793
3,481.93	86.6967	3,481.93	85.5311	3,481.93	85.1231	3,481.93	77.0189	3,481.93	80.2286	3,481.93	76.118	3,481.93	70.9113	3,481.93	79.5701	3,481.93	79.8646	3,481.93	77.9711	3,481.93	78.935	3,481.93	74.9054	3,481.93	78.7343	3,481.93	71.8835	3,481.93	77.269	3,481.93	59.6123	3,481.93	79.5254	3,481.93	67.0387	3,481.93	75.9305	3,481.93	56.8469	3,481.93	73.7326	3,481.93	60.9516	3,481.93	60.5976	3,481.93	64.6067	3,481.93	51.8121	3,481.93	68.0288	3,481.93	63.2157	3,481.93	66.5343	3,481.93	62.7941	3,481.93	64.7646	3,481.93	64.4494	3,481.93	39.4865	3,481.93	63.546	3,481.93	68.5481	3,481.93	69.9478	3,481.93	65.1063
3,604.98	87.6953	3,604.98	85.1783	3,604.98	85.297	3,604.98	73.9592	3,604.98	77.7908	3,604.98	74.2628	3,604.98	71.6935	3,604.98	77.8298	3,604.98	79.924	3,604.98	75.347	3,604.98	81.5982	3,604.98	74.3226	3,604.98	80.207	3,604.98	67.7547	3,604.98	76.3929	3,604.98	73.9854	3,604.98	73.5468	3,604.98	69.673	3,604.98	74.9043	3,604.98	63.5176	3,604.98	74.0912	3,604.98	60.8644	3,604.98	69.9243	3,604.98	64.9859	3,604.98	64.5054	3,604.98	67.318	3,604.98	66.9749	3,604.98	68.5291	3,604.98	64.7946	3,604.98	64.0439	3,604.98	65.7607	3,604.98	56.2677	3,604.98	61.7249	3,604.98	68.345	3,604.98	69.4902	3,604.98	67.9614
3,732.42	89.227	3,732.42	86.099	3,732.42	87.156	3,732.42	71.6146	3,732.42	78.5939	3,732.42	74.7712	3,732.42	76.8544	3,732.42	77.89	3,732.42	79.2931	3,732.42	75.8957	3,732.42	82.4329	3,732.42	74.6121	3,732.42	79.3994	3,732.42	74.9147	3,732.42	75.4232	3,732.42	73.479	3,732.42	74.4707	3,732.42	67.4002	3,732.42	77.293	3,732.42	67.3605	3,732.42	77.0096	3,732.42	64.1476	3,732.42	67.2017	3,732.42	65.9779	3,732.42	69.1156	3,732.42	68.5864	3,732.42	70.9764	3,732.42	69.0043	3,732.42	64.2719	3,732.42	67.5546	3,732.42	61.6687	3,732.42	56.4362	3,732.42	61.0671	3,732.42	68.5569	3,732.42	69.3971	3,732.42	70.0037
3,864.26	88.4377	3,864.26	85.6647	3,864.26	86.4487	3,864.26	75.7101	3,864.26	76.8762	3,864.26	76.3885	3,864.26	77.0475	3,864.26	76.3897	3,864.26	81.3095	3,864.26	77.936	3,864.26	82.8901	3,864.26	77.9433	3,864.26	76.3533	3,864.26	78.2316	3,864.26	76.5179	3,864.26	72.8961	3,864.26	77.7294	3,864.26	71.348	3,864.26	78.456	3,864.26	64.171	3,864.26	78.71	3,864.26	68.4521	3,864.26	58.5971	3,864.26	67.9285	3,864.26	70.5686	3,864.26	69.7545	3,864.26	69.751	3,864.26	69.3002	3,864.26	67.9343	3,864.26	67.9957	3,864.26	59.7847	3,864.26	55.5924	3,864.26	55.9239	3,864.26	67.1915	3,864.26	69.0403	3,864.26	70.2977
4,000.49	88.408	4,000.49	85.1855	4,000.49	84.8247	4,000.49	79.0017	4,000.49	67.5882	4,000.49	75.5202	4,000.49	77.4918	4,000.49	77.7144	4,000.49	81.5349	4,000.49	78.7611	4,000.49	82.8156	4,000.49	79.5014	4,000.49	77.5823	4,000.49	76.1822	4,000.49	76.6686	4,000.49	75.0127	4,000.49	76.4479	4,000.49	73.7393	4,000.49	78.4827	4,000.49	67.8612	4,000.49	74.7688	4,000.49	64.4028	4,000.49	63.3183	4,000.49	67.1171	4,000.49	65.4689	4,000.49	70.6881	4,000.49	65.9966	4,000.49	70.6845	4,000.49	67.7156	4,000.49	67.3473	4,000.49	59.552	4,000.49	61.0596	4,000.49	52.9777	4,000.49	67.6592	4,000.49	68.395	4,000.49	68.1564
4,141.11	88.5634	4,141.11	86.6952	4,141.11	85.2015	4,141.11	81.6053	4,141.11	63.2248	4,141.11	72.6741	4,141.11	79.669	4,141.11	76.9917	4,141.11	83.4097	4,141.11	80.5952	4,141.11	82.6511	4,141.11	80.0424	4,141.11	78.3945	4,141.11	77.555	4,141.11	76.0604	4,141.11	76.8462	4,141.11	76.8438	4,141.11	68.1575	4,141.11	76.9757	4,141.11	67.1308	4,141.11	68.8545	4,141.11	66.3569	4,141.11	67.8555	4,141.11	66.974	4,141.11	60.1385	4,141.11	70.1551	4,141.11	67.0075	4,141.11	70.9695	4,141.11	66.2356	4,141.11	66.3246	4,141.11	56.3561	4,141.11	60.3453	4,141.11	57.4495	4,141.11	68.2203	4,141.11	66.7124	4,141.11	68.7913
4,287.6	87.2597	4,287.6	87.195	4,287.6	83.2989	4,287.6	83.0206	4,287.6	67.0492	4,287.6	69.6431	4,287.6	79.5819	4,287.6	79.3312	4,287.6	84.0978	4,287.6	81.2401	4,287.6	82.1017	4,287.6	78.6166	4,287.6	77.8088	4,287.6	77.2774	4,287.6	75.9087	4,287.6	71.0184	4,287.6	76.4981	4,287.6	70.9524	4,287.6	71.3071	4,287.6	66.2994	4,287.6	71.0436	4,287.6	62.1678	4,287.6	64.3081	4,287.6	64.5471	4,287.6	55.4909	4,287.6	68.7137	4,287.6	67.7377	4,287.6	70.3736	4,287.6	63.3479	4,287.6	66.9394	4,287.6	57.0462	4,287.6	60.4635	4,287.6	56.9224	4,287.6	68.5074	4,287.6	66.151	4,287.6	69.3125
4,438.48	86.2035	4,438.48	86.6557	4,438.48	81.7351	4,438.48	81.4737	4,438.48	72.6214	4,438.48	73.5327	4,438.48	81.3868	4,438.48	79.9345	4,438.48	83.8136	4,438.48	80.2216	4,438.48	79.3087	4,438.48	79.5064	4,438.48	76.4482	4,438.48	74.833	4,438.48	75.2816	4,438.48	74.1488	4,438.48	73.5826	4,438.48	68.8235	4,438.48	64.2918	4,438.48	63.6423	4,438.48	66.3854	4,438.48	64.1357	4,438.48	54.2927	4,438.48	63.7465	4,438.48	53.5516	4,438.48	68.8701	4,438.48	64.7455	4,438.48	69.8247	4,438.48	64.4878	4,438.48	65.7824	4,438.48	59.0037	4,438.48	58.4593	4,438.48	61.0801	4,438.48	67.1409	4,438.48	65.9056	4,438.48	68.8578
4,595.21	86.0645	4,595.21	86.9716	4,595.21	78.7826	4,595.21	80.4792	4,595.21	77.1641	4,595.21	72.7819	4,595.21	82.3919	4,595.21	79.3434	4,595.21	83.2348	4,595.21	80.6182	4,595.21	77.2628	4,595.21	78.1808	4,595.21	77.148	4,595.21	75.7739	4,595.21	74.4001	4,595.21	72.8593	4,595.21	68.5813	4,595.21	67.6821	4,595.21	61.4189	4,595.21	65.5368	4,595.21	55.9185	4,595.21	60.5447	4,595.21	54.4983	4,595.21	62.1648	4,595.21	57.2286	4,595.21	66.2454	4,595.21	57.7535	4,595.21	69.637	4,595.21	63.5757	4,595.21	65.3204	4,595.21	59.9691	4,595.21	59.2708	4,595.21	61.4551	4,595.21	66.1749	4,595.21	62.0918	4,595.21	68.2642
4,756.35	86.5412	4,756.35	87.1846	4,756.35	75.0218	4,756.35	81.3077	4,756.35	79.9355	4,756.35	74.1537	4,756.35	83.0091	4,756.35	80.19	4,756.35	82.551	4,756.35	80.0792	4,756.35	77.6729	4,756.35	78.4294	4,756.35	76.8287	4,756.35	74.5564	4,756.35	71.2927	4,756.35	71.265	4,756.35	65.1192	4,756.35	68.4564	4,756.35	41.6947	4,756.35	61.965	4,756.35	58.4471	4,756.35	61.734	4,756.35	49.1958	4,756.35	61.2993	4,756.35	61.1349	4,756.35	63.663	4,756.35	47.0999	4,756.35	68.1158	4,756.35	61.6388	4,756.35	64.8812	4,756.35	60.4497	4,756.35	58.8629	4,756.35	63.0826	4,756.35	65.1532	4,756.35	59.1847	4,756.35	68.5215
4,924.8	86.4424	4,924.8	87.3568	4,924.8	71.9466	4,924.8	80.4497	4,924.8	81.1553	4,924.8	73.9814	4,924.8	83.4829	4,924.8	80.057	4,924.8	81.238	4,924.8	80.0553	4,924.8	77.4574	4,924.8	77.3358	4,924.8	75.5794	4,924.8	74.0856	4,924.8	67.273	4,924.8	70.9984	4,924.8	63.2522	4,924.8	64.4722	4,924.8	60.0389	4,924.8	61.3923	4,924.8	67.7274	4,924.8	57.7841	4,924.8	57.0889	4,924.8	60.6654	4,924.8	60.7145	4,924.8	61.887	4,924.8	44.4206	4,924.8	67.0545	4,924.8	63.5805	4,924.8	64.2504	4,924.8	62.3275	4,924.8	58.8706	4,924.8	63.4619	4,924.8	64.8869	4,924.8	59.4495	4,924.8	68.4406
5,097.66	86.0375	5,097.66	85.6565	5,097.66	63.9119	5,097.66	80.2053	5,097.66	83.8664	5,097.66	75.3305	5,097.66	84.1117	5,097.66	79.9856	5,097.66	79.3492	5,097.66	80.0512	5,097.66	77.5074	5,097.66	76.2281	5,097.66	73.6821	5,097.66	72.6714	5,097.66	68.2681	5,097.66	66.5386	5,097.66	65.565	5,097.66	65.5592	5,097.66	63.8574	5,097.66	58.1584	5,097.66	70.9249	5,097.66	52.3834	5,097.66	62.9647	5,097.66	61.1195	5,097.66	58.8719	5,097.66	60.0083	5,097.66	45.7	5,097.66	64.925	5,097.66	63.9739	5,097.66	62.7811	5,097.66	62.973	5,097.66	57.7511	5,097.66	61.3086	5,097.66	63.7838	5,097.66	60.5837	5,097.66	66.9765
5,277.83	85.7848	5,277.83	86.4141	5,277.83	67.6441	5,277.83	80.915	5,277.83	84.687	5,277.83	74.4884	5,277.83	85.0806	5,277.83	80.2482	5,277.83	78.321	5,277.83	79.3864	5,277.83	75.3738	5,277.83	74.2282	5,277.83	69.5276	5,277.83	70.5166	5,277.83	72.0007	5,277.83	68.5889	5,277.83	66.6933	5,277.83	64.0171	5,277.83	67.5564	5,277.83	61.7695	5,277.83	70.5115	5,277.83	59.942	5,277.83	57.2738	5,277.83	56.4759	5,277.83	63.3862	5,277.83	61.7773	5,277.83	44.1977	5,277.83	63.7052	5,277.83	64.7752	5,277.83	62.3027	5,277.83	65.2347	5,277.83	55.2639	5,277.83	59.3169	5,277.83	63.0161	5,277.83	61.2059	5,277.83	66.3521
5,463.87	85.453	5,463.87	85.9525	5,463.87	58.1904	5,463.87	81.0213	5,463.87	84.7778	5,463.87	75.5883	5,463.87	85.4519	5,463.87	79.7146	5,463.87	80.3117	5,463.87	78.5104	5,463.87	69.606	5,463.87	72.3577	5,463.87	70.95	5,463.87	71.5178	5,463.87	74.14	5,463.87	66.3828	5,463.87	68.7296	5,463.87	66.5898	5,463.87	65.2793	5,463.87	58.4354	5,463.87	70.3116	5,463.87	58.8097	5,463.87	65.6112	5,463.87	55.2943	5,463.87	66.0635	5,463.87	63.4688	5,463.87	59.6075	5,463.87	62.5873	5,463.87	60.4481	5,463.87	62.2096	5,463.87	64.0321	5,463.87	54.8711	5,463.87	62.3833	5,463.87	60.8693	5,463.87	57.9794	5,463.87	65.3098
5,657.23	85.1781	5,657.23	86.2676	5,657.23	64.4479	5,657.23	80.4439	5,657.23	85.2662	5,657.23	76.7363	5,657.23	85.6508	5,657.23	80.4982	5,657.23	79.3162	5,657.23	78.1646	5,657.23	68.8579	5,657.23	73.4036	5,657.23	74.407	5,657.23	72.4745	5,657.23	75.6215	5,657.23	70.9708	5,657.23	69.7436	5,657.23	66.8794	5,657.23	64.428	5,657.23	62.7067	5,657.23	71.9195	5,657.23	60.2081	5,657.23	64.2229	5,657.23	58.1816	5,657.23	63.6315	5,657.23	62.2701	5,657.23	57.0433	5,657.23	63.6431	5,657.23	58.6612	5,657.23	62.857	5,657.23	60.2274	5,657.23	53.7161	5,657.23	61.1209	5,657.23	63.4665	5,657.23	58.3127	5,657.23	65.8653
5,856.45	85.4262	5,856.45	86.8302	5,856.45	68.8585	5,856.45	80.4917	5,856.45	85.3471	5,856.45	78.2074	5,856.45	85.9729	5,856.45	80.105	5,856.45	77.4405	5,856.45	78.2593	5,856.45	69.797	5,856.45	74.574	5,856.45	74.8986	5,856.45	73.7491	5,856.45	75.0115	5,856.45	68.0834	5,856.45	69.7694	5,856.45	65.7238	5,856.45	70.9982	5,856.45	60.6419	5,856.45	71.8713	5,856.45	56.029	5,856.45	57.5861	5,856.45	59.1166	5,856.45	64.4157	5,856.45	60.4086	5,856.45	59.4044	5,856.45	66.6661	5,856.45	57.1993	5,856.45	61.1927	5,856.45	61.8318	5,856.45	51.7564	5,856.45	60.1521	5,856.45	65.4584	5,856.45	59.3712	5,856.45	66.1628
6,062.99	85.3686	6,062.99	86.7786	6,062.99	62.5259	6,062.99	78.274	6,062.99	85.4942	6,062.99	79.5043	6,062.99	85.7582	6,062.99	79.513	6,062.99	76.3167	6,062.99	77.9064	6,062.99	71.5199	6,062.99	75.7519	6,062.99	73.7719	6,062.99	73.6524	6,062.99	72.7065	6,062.99	71.0246	6,062.99	68.1094	6,062.99	65.3424	6,062.99	65.5436	6,062.99	62.1747	6,062.99	62.7965	6,062.99	53.5621	6,062.99	58.1156	6,062.99	58.8214	6,062.99	57.4023	6,062.99	59.2793	6,062.99	54.9079	6,062.99	66.8846	6,062.99	48.1342	6,062.99	58.8517	6,062.99	62.9561	6,062.99	55.4942	6,062.99	37.0094	6,062.99	66.4741	6,062.99	63.9498	6,062.99	63.4747
6,276.86	85.5484	6,276.86	86.6331	6,276.86	54.2664	6,276.86	78.9154	6,276.86	85.4515	6,276.86	78.4919	6,276.86	84.8739	6,276.86	79.9121	6,276.86	73.8619	6,276.86	79.9394	6,276.86	75.1801	6,276.86	77.488	6,276.86	74.5136	6,276.86	74.9944	6,276.86	72.3689	6,276.86	68.3443	6,276.86	61.9659	6,276.86	63.0406	6,276.86	62.9603	6,276.86	57.5025	6,276.86	64.1701	6,276.86	52.4305	6,276.86	49.7121	6,276.86	53.685	6,276.86	59.1719	6,276.86	59.8934	6,276.86	60.0346	6,276.86	66.9786	6,276.86	55.6435	6,276.86	60.5693	6,276.86	62.7563	6,276.86	54.2479	6,276.86	58.224	6,276.86	65.9384	6,276.86	65.7686	6,276.86	62.6026
6,498.05	85.9635	6,498.05	87.3538	6,498.05	61.3076	6,498.05	78.6385	6,498.05	84.4369	6,498.05	78.313	6,498.05	84.8129	6,498.05	81.3946	6,498.05	74.7887	6,498.05	81.1242	6,498.05	76.9742	6,498.05	77.1111	6,498.05	76.2669	6,498.05	71.861	6,498.05	70.3084	6,498.05	65.1949	6,498.05	65.584	6,498.05	55.563	6,498.05	65.386	6,498.05	55.8095	6,498.05	62.2469	6,498.05	51.1205	6,498.05	53.2138	6,498.05	46.9015	6,498.05	53.7288	6,498.05	51.8649	6,498.05	58.9787	6,498.05	62.8963	6,498.05	52.2325	6,498.05	60.5157	6,498.05	61.3626	6,498.05	54.3268	6,498.05	62.5251	6,498.05	64.5495	6,498.05	63.8328	6,498.05	62.8243
6,726.56	86.868	6,726.56	88.0469	6,726.56	67.1524	6,726.56	76.2381	6,726.56	84.3776	6,726.56	80.5875	6,726.56	83.5119	6,726.56	83.2172	6,726.56	77.24	6,726.56	80.8165	6,726.56	76.9263	6,726.56	74.0498	6,726.56	76.3316	6,726.56	67.0456	6,726.56	70.3146	6,726.56	47.0717	6,726.56	68.6695	6,726.56	56.7227	6,726.56	64.2459	6,726.56	51.8951	6,726.56	60.5284	6,726.56	55.3665	6,726.56	58.1969	6,726.56	55.6505	6,726.56	56.1838	6,726.56	53.4411	6,726.56	57.7736	6,726.56	54.9601	6,726.56	58.1052	6,726.56	57.2572	6,726.56	62.128	6,726.56	54.164	6,726.56	63.019	6,726.56	63.3161	6,726.56	62.4313	6,726.56	62.4941
6,963.87	87.5334	6,963.87	88.3189	6,963.87	75.3282	6,963.87	67.2151	6,963.87	86.8562	6,963.87	84.4329	6,963.87	82.3546	6,963.87	84.3347	6,963.87	77.9705	6,963.87	77.6024	6,963.87	78.2585	6,963.87	65.6754	6,963.87	73.9225	6,963.87	65.4401	6,963.87	73.3151	6,963.87	64.9317	6,963.87	66.7496	6,963.87	65.574	6,963.87	65.1086	6,963.87	57.641	6,963.87	69.6926	6,963.87	54.9941	6,963.87	64.1318	6,963.87	61.513	6,963.87	57.3306	6,963.87	63.0398	6,963.87	56.8322	6,963.87	61.8299	6,963.87	54.7472	6,963.87	48.5184	6,963.87	61.9418	6,963.87	58.6897	6,963.87	62.4354	6,963.87	58.8111	6,963.87	60.025	6,963.87	62.7697
7,209.96	87.3059	7,209.96	88.1249	7,209.96	79.7264	7,209.96	74.3522	7,209.96	88.3175	7,209.96	86.3477	7,209.96	81.3733	7,209.96	83.3626	7,209.96	78.6544	7,209.96	70.3884	7,209.96	79.8145	7,209.96	70.8256	7,209.96	73.0041	7,209.96	73.085	7,209.96	76.6047	7,209.96	72.2894	7,209.96	66.7128	7,209.96	67.9355	7,209.96	71.5207	7,209.96	62.4825	7,209.96	70.9515	7,209.96	57.835	7,209.96	66.0997	7,209.96	61.142	7,209.96	56.8382	7,209.96	64.6294	7,209.96	57.0585	7,209.96	65.8617	7,209.96	54.6244	7,209.96	59.7263	7,209.96	64.1468	7,209.96	59.9246	7,209.96	61.1551	7,209.96	53.9693	7,209.96	63.9965	7,209.96	65.0873
7,464.84	87.192	7,464.84	88.1171	7,464.84	79.8457	7,464.84	79.6019	7,464.84	88.0252	7,464.84	86.494	7,464.84	82.4242	7,464.84	82.8839	7,464.84	77.171	7,464.84	71.8082	7,464.84	79.5966	7,464.84	76.3477	7,464.84	75.6271	7,464.84	75.8047	7,464.84	75.5076	7,464.84	72.65	7,464.84	65.2899	7,464.84	68.9869	7,464.84	71.8923	7,464.84	61.5222	7,464.84	69.3071	7,464.84	58.4414	7,464.84	66.4536	7,464.84	59.2456	7,464.84	54.7858	7,464.84	64.7844	7,464.84	56.8573	7,464.84	66.2636	7,464.84	53.7671	7,464.84	60.4879	7,464.84	61.5236	7,464.84	61.8693	7,464.84	58.4164	7,464.84	57.4702	7,464.84	64.3086	7,464.84	65.1357
7,727.05	88.0012	7,727.05	88.0691	7,727.05	79.3362	7,727.05	81.4276	7,727.05	88.3275	7,727.05	86.5894	7,727.05	83.2901	7,727.05	81.2939	7,727.05	76.5483	7,727.05	76.3879	7,727.05	77.7277	7,727.05	77.2352	7,727.05	77.5924	7,727.05	76.2375	7,727.05	73.7065	7,727.05	71.1133	7,727.05	66.7457	7,727.05	64.3439	7,727.05	69.632	7,727.05	60.3304	7,727.05	61.3775	7,727.05	57.6178	7,727.05	64.0249	7,727.05	48.3615	7,727.05	47.7723	7,727.05	63.8174	7,727.05	62.0121	7,727.05	65.3578	7,727.05	49.1607	7,727.05	57.7713	7,727.05	62.562	7,727.05	59.5844	7,727.05	59.6532	7,727.05	55.2632	7,727.05	62.8722	7,727.05	65.0421
7,999.51	88.0525	7,999.51	87.8966	7,999.51	83.5499	7,999.51	83.1506	7,999.51	89.4332	7,999.51	85.6999	7,999.51	82.1624	7,999.51	81.0216	7,999.51	80.7946	7,999.51	78.0704	7,999.51	76.9441	7,999.51	76.7811	7,999.51	77.1108	7,999.51	73.9267	7,999.51	76.9156	7,999.51	69.6269	7,999.51	71.8835	7,999.51	64.8807	7,999.51	70.7464	7,999.51	61.7461	7,999.51	61.2581	7,999.51	52.4717	7,999.51	64.0786	7,999.51	42.8175	7,999.51	51.3475	7,999.51	62.492	7,999.51	61.7006	7,999.51	62.8259	7,999.51	46.8485	7,999.51	61.1504	7,999.51	64.325	7,999.51	60.4119	7,999.51	61.603	7,999.51	55.062	7,999.51	62.8813	7,999.51	64.1417
8,282.23	87.8807	8,282.23	88.3929	8,282.23	84.8032	8,282.23	83.5628	8,282.23	90.2311	8,282.23	86.5069	8,282.23	80.6835	8,282.23	80.235	8,282.23	83.0104	8,282.23	78.2036	8,282.23	79.9192	8,282.23	76.1129	8,282.23	74.2878	8,282.23	74.7576	8,282.23	80.6514	8,282.23	68.2848	8,282.23	73.1013	8,282.23	67.3546	8,282.23	72.6993	8,282.23	59.7438	8,282.23	58.7959	8,282.23	49.3996	8,282.23	63.6126	8,282.23	42.3627	8,282.23	57.883	8,282.23	65.0522	8,282.23	53.4453	8,282.23	62.8659	8,282.23	63.1714	8,282.23	59.4903	8,282.23	62.1407	8,282.23	61.7909	8,282.23	55.4103	8,282.23	61.4981	8,282.23	60.5644	8,282.23	62.8772
8,573.73	88.2266	8,573.73	87.8794	8,573.73	84.2363	8,573.73	85.6924	8,573.73	89.919	8,573.73	85.8375	8,573.73	80.4198	8,573.73	79.107	8,573.73	83.7076	8,573.73	79.9033	8,573.73	79.5453	8,573.73	76.8006	8,573.73	72.1942	8,573.73	72.1963	8,573.73	80.1409	8,573.73	64.0748	8,573.73	65.0824	8,573.73	62.0455	8,573.73	71.5276	8,573.73	60.5211	8,573.73	59.7343	8,573.73	57.9601	8,573.73	65.2032	8,573.73	50.4806	8,573.73	53.6334	8,573.73	63.7086	8,573.73	54.4145	8,573.73	59.4199	8,573.73	63.3162	8,573.73	54.9813	8,573.73	62.7606	8,573.73	64.3693	8,573.73	50.7346	8,573.73	61.6842	8,573.73	57.241	8,573.73	63.2919
8,876.95	88.4203	8,876.95	86.9901	8,876.95	85.0162	8,876.95	86.8625	8,876.95	88.7977	8,876.95	84.1288	8,876.95	82.5853	8,876.95	81.7619	8,876.95	83.2061	8,876.95	79.8618	8,876.95	78.232	8,876.95	73.1657	8,876.95	73.0843	8,876.95	70.9908	8,876.95	75.637	8,876.95	68.9051	8,876.95	64.2912	8,876.95	64.3876	8,876.95	73.5775	8,876.95	63.0002	8,876.95	57.3347	8,876.95	53.0152	8,876.95	67.1603	8,876.95	46.5583	8,876.95	59.4123	8,876.95	65.701	8,876.95	58.0468	8,876.95	63.3054	8,876.95	65.0464	8,876.95	38.9847	8,876.95	63.2594	8,876.95	65.9766	8,876.95	57.0011	8,876.95	59.6364	8,876.95	57.4791	8,876.95	61.0561
9,188.96	87.2234	9,188.96	87.1564	9,188.96	85.4225	9,188.96	86.106	9,188.96	87.4738	9,188.96	83.8957	9,188.96	84.3185	9,188.96	82.8936	9,188.96	81.7374	9,188.96	78.2624	9,188.96	76.4916	9,188.96	73.476	9,188.96	74.3429	9,188.96	71.6575	9,188.96	74.6202	9,188.96	69.6475	9,188.96	69.7006	9,188.96	63.8843	9,188.96	73.7058	9,188.96	62.8622	9,188.96	56.6999	9,188.96	53.7498	9,188.96	67.7389	9,188.96	42.8398	9,188.96	58.4599	9,188.96	64.0503	9,188.96	58.2701	9,188.96	64.2425	9,188.96	58.8125	9,188.96	55.5972	9,188.96	58.7787	9,188.96	60.754	9,188.96	52.2109	9,188.96	56.316	9,188.96	56.309	9,188.96	61.6756
9,514.16	87.3991	9,514.16	87.1576	9,514.16	85.5131	9,514.16	85.3096	9,514.16	87.7677	9,514.16	84.0528	9,514.16	84.5832	9,514.16	82.3566	9,514.16	80.0233	9,514.16	75.9997	9,514.16	76.7885	9,514.16	74.6398	9,514.16	73.6063	9,514.16	72.6736	9,514.16	73.1756	9,514.16	67.0499	9,514.16	67.3617	9,514.16	65.2174	9,514.16	72.5022	9,514.16	60.3519	9,514.16	66.126	9,514.16	48.29	9,514.16	68.3012	9,514.16	51.6706	9,514.16	53.8186	9,514.16	61.3091	9,514.16	54.4664	9,514.16	62.4505	9,514.16	59.9283	9,514.16	54.953	9,514.16	59.0529	9,514.16	53.2795	9,514.16	55.1388	9,514.16	39.4425	9,514.16	49.7687	9,514.16	60.2587
9,849.61	86.9502	9,849.61	86.9596	9,849.61	85.7863	9,849.61	85.3614	9,849.61	86.9161	9,849.61	84.018	9,849.61	83.5685	9,849.61	81.5691	9,849.61	80.9243	9,849.61	75.5041	9,849.61	76.5639	9,849.61	75.343	9,849.61	70.4445	9,849.61	70.5974	9,849.61	70.4596	9,849.61	62.6732	9,849.61	67.4336	9,849.61	59.8898	9,849.61	70.1051	9,849.61	56.7174	9,849.61	66.1074	9,849.61	39.3173	9,849.61	67.1289	9,849.61	50.294	9,849.61	48.9717	9,849.61	56.6736	9,849.61	49.957	9,849.61	59.9547	9,849.61	59.5196	9,849.61	54.379	9,849.61	55.0478	9,849.61	48.5132	9,849.61	58.457	9,849.61	54.5333	9,849.61	51.9037	9,849.61	60.7949
10,196.8	86.8754	10,196.8	86.9553	10,196.8	85.3389	10,196.8	85.5312	10,196.8	84.8521	10,196.8	83.8292	10,196.8	82.3336	10,196.8	80.8076	10,196.8	81.3636	10,196.8	75.6201	10,196.8	74.7135	10,196.8	73.5985	10,196.8	69.2754	10,196.8	66.5018	10,196.8	64.5175	10,196.8	62.0925	10,196.8	67.1836	10,196.8	61.296	10,196.8	67.3947	10,196.8	60.6295	10,196.8	66.7985	10,196.8	53.25	10,196.8	68.6554	10,196.8	49.1018	10,196.8	56.1852	10,196.8	55.9839	10,196.8	44.8884	10,196.8	59.2496	10,196.8	57.177	10,196.8	57.1944	10,196.8	52.7573	10,196.8	56.3419	10,196.8	60.5722	10,196.8	57.095	10,196.8	56.2667	10,196.8	58.5497
10,555.7	86.9693	10,555.7	86.4998	10,555.7	85.3405	10,555.7	85.7235	10,555.7	84.7196	10,555.7	83.4555	10,555.7	82.7471	10,555.7	80.4755	10,555.7	80.7675	10,555.7	75.1896	10,555.7	72.3075	10,555.7	71.7465	10,555.7	71.6414	10,555.7	66.7617	10,555.7	58.2723	10,555.7	63.3337	10,555.7	67.3338	10,555.7	62.3198	10,555.7	67.4497	10,555.7	60.1397	10,555.7	67.6961	10,555.7	41.7636	10,555.7	67.8743	10,555.7	49.8911	10,555.7	57.2311	10,555.7	56.842	10,555.7	47.7034	10,555.7	58.0858	10,555.7	52.9305	10,555.7	57.7411	10,555.7	51.377	10,555.7	56.9922	10,555.7	59.8654	10,555.7	55.5458	10,555.7	57.2693	10,555.7	55.3642
10,927.7	86.9253	10,927.7	86.4088	10,927.7	86.1916	10,927.7	85.7784	10,927.7	85.1759	10,927.7	83.0878	10,927.7	83.1831	10,927.7	80.6176	10,927.7	80.0988	10,927.7	74.5904	10,927.7	72.0721	10,927.7	71.2352	10,927.7	71.3233	10,927.7	65.305	10,927.7	53.1414	10,927.7	63.2126	10,927.7	69.9212	10,927.7	61.9188	10,927.7	67.1744	10,927.7	58.6835	10,927.7	67.1034	10,927.7	51.4479	10,927.7	67.7413	10,927.7	49.0661	10,927.7	56.7469	10,927.7	55.867	10,927.7	47.0701	10,927.7	60.7688	10,927.7	44.8379	10,927.7	56.8767	10,927.7	45.9991	10,927.7	56.8207	10,927.7	59.5874	10,927.7	57.7086	10,927.7	58.0063	10,927.7	52.4373
11,313	87.0644	11,313	86.7375	11,313	85.9881	11,313	86.2351	11,313	85.097	11,313	82.8831	11,313	84.207	11,313	81.0398	11,313	79.5744	11,313	74.5359	11,313	72.9054	11,313	70.0844	11,313	69.6256	11,313	66.9295	11,313	58.0928	11,313	65.7054	11,313	69.3171	11,313	63.1054	11,313	67.0506	11,313	59.4144	11,313	67.8817	11,313	56.7296	11,313	68.5511	11,313	50.1227	11,313	58.2523	11,313	57.475	11,313	46.4253	11,313	61.197	11,313	44.9412	11,313	58.8428	11,313	51.7445	11,313	58.4014	11,313	61.8997	11,313	56.0539	11,313	58.7329	11,313	54.0089
11,712.9	87.3008	11,712.9	87.3387	11,712.9	87.2096	11,712.9	86.381	11,712.9	85.9626	11,712.9	83.5223	11,712.9	84.6965	11,712.9	80.9429	11,712.9	79.8336	11,712.9	74.7542	11,712.9	74.7551	11,712.9	71.3148	11,712.9	67.2331	11,712.9	69.5407	11,712.9	58.9515	11,712.9	65.7638	11,712.9	67.8768	11,712.9	63.8315	11,712.9	67.8673	11,712.9	57.1244	11,712.9	68.938	11,712.9	50.8981	11,712.9	68.228	11,712.9	41.0937	11,712.9	58.1176	11,712.9	60.7424	11,712.9	40.2984	11,712.9	58.4557	11,712.9	51.3107	11,712.9	61.2753	11,712.9	51.7293	11,712.9	58.6898	11,712.9	60.1046	11,712.9	54.6188	11,712.9	59.4342	11,712.9	53.6298
12,126	87.9672	12,126	87.7453	12,126	87.8195	12,126	86.7251	12,126	86.6989	12,126	84.1678	12,126	84.9338	12,126	81.0257	12,126	80.0388	12,126	75.292	12,126	75.2788	12,126	72.7555	12,126	69.0054	12,126	69.1414	12,126	63.8945	12,126	65.9689	12,126	69.8813	12,126	62.4198	12,126	67.4317	12,126	58.9658	12,126	69.0826	12,126	54.3819	12,126	68.6067	12,126	33.8737	12,126	57.657	12,126	58.6723	12,126	48.8696	12,126	58.3875	12,126	37.4758	12,126	61.1206	12,126	56.1908	12,126	59.1001	12,126	59.6704	12,126	54.3259	12,126	57.3149	12,126	52.7661
12,553.7	88.7553	12,553.7	88.3647	12,553.7	88.3249	12,553.7	87.1313	12,553.7	86.8462	12,553.7	85.0383	12,553.7	85.2356	12,553.7	80.9456	12,553.7	80.8255	12,553.7	76.1199	12,553.7	75.0025	12,553.7	73.9608	12,553.7	68.7144	12,553.7	69.2413	12,553.7	68.4674	12,553.7	66.2506	12,553.7	67.5906	12,553.7	63.154	12,553.7	68.4636	12,553.7	58.2728	12,553.7	67.943	12,553.7	59.2752	12,553.7	69.2282	12,553.7	46.3858	12,553.7	58.1974	12,553.7	56.0227	12,553.7	44.8786	12,553.7	59.6607	12,553.7	48.3484	12,553.7	60.583	12,553.7	56.3777	12,553.7	58.784	12,553.7	60.1068	12,553.7	57.4338	12,553.7	59.476	12,553.7	52.4612
12,996.1	89.153	12,996.1	88.8838	12,996.1	89.0679	12,996.1	87.5236	12,996.1	87.7581	12,996.1	85.7072	12,996.1	85.3536	12,996.1	80.8394	12,996.1	80.584	12,996.1	77.7947	12,996.1	77.0428	12,996.1	74.9533	12,996.1	68.8085	12,996.1	69.6786	12,996.1	67.8636	12,996.1	65.7129	12,996.1	66.6183	12,996.1	63.521	12,996.1	68.0605	12,996.1	57.4587	12,996.1	69.2304	12,996.1	57.2427	12,996.1	70.3031	12,996.1	46.8718	12,996.1	58.7586	12,996.1	60.0338	12,996.1	48.7759	12,996.1	58.6365	12,996.1	52.3598	12,996.1	63.1136	12,996.1	56.4638	12,996.1	59.9943	12,996.1	59.9808	12,996.1	58.8834	12,996.1	60.2973	12,996.1	49.2857
13,454.6	88.7558	13,454.6	88.7285	13,454.6	88.56	13,454.6	87.6696	13,454.6	87.5183	13,454.6	85.8714	13,454.6	85.21	13,454.6	81.5413	13,454.6	79.7544	13,454.6	79.001	13,454.6	77.0213	13,454.6	75.3989	13,454.6	71.4959	13,454.6	69.1203	13,454.6	67.8404	13,454.6	66.1213	13,454.6	64.0255	13,454.6	63.5679	13,454.6	67.4161	13,454.6	59.2745	13,454.6	68.9022	13,454.6	57.6565	13,454.6	70.587	13,454.6	49.2771	13,454.6	59.8535	13,454.6	58.6135	13,454.6	50.0102	13,454.6	60.4369	13,454.6	49.3104	13,454.6	63.9912	13,454.6	56.2856	13,454.6	60.6748	13,454.6	58.5674	13,454.6	59.2234	13,454.6	59.4241	13,454.6	49.2451
13,929.2	88.0798	13,929.2	87.9588	13,929.2	87.9042	13,929.2	87.4524	13,929.2	86.4988	13,929.2	85.9179	13,929.2	83.7299	13,929.2	82.4621	13,929.2	77.9703	13,929.2	79.543	13,929.2	74.9966	13,929.2	75.7301	13,929.2	70.0094	13,929.2	68.4249	13,929.2	66.8644	13,929.2	65.944	13,929.2	57.8548	13,929.2	64.6308	13,929.2	65.1057	13,929.2	59.1308	13,929.2	68.0214	13,929.2	57.9448	13,929.2	69.5301	13,929.2	50.4435	13,929.2	59.2614	13,929.2	60.3561	13,929.2	50.9732	13,929.2	62.1842	13,929.2	49.9422	13,929.2	62.6167	13,929.2	52.0003	13,929.2	59.683	13,929.2	57.4294	13,929.2	59.0846	13,929.2	59.3797	13,929.2	43.8655
14,419.9	87.3045	14,419.9	87.1324	14,419.9	86.5016	14,419.9	86.7707	14,419.9	84.7596	14,419.9	85.6679	14,419.9	81.6268	14,419.9	82.3672	14,419.9	77.8198	14,419.9	79.2248	14,419.9	74.386	14,419.9	74.857	14,419.9	67.4779	14,419.9	67.7297	14,419.9	64.7496	14,419.9	66.244	14,419.9	56.4662	14,419.9	64.4208	14,419.9	64.4648	14,419.9	57.2532	14,419.9	68.1359	14,419.9	58.4836	14,419.9	67.9868	14,419.9	49.6663	14,419.9	58.8756	14,419.9	59.0721	14,419.9	48.4136	14,419.9	62.0189	14,419.9	50.6236	14,419.9	61.7713	14,419.9	49.751	14,419.9	58.9172	14,419.9	55.902	14,419.9	56.6478	14,419.9	59.2116	14,419.9	48.154
14,928.2	87.2594	14,928.2	87.0132	14,928.2	86.9286	14,928.2	86.0861	14,928.2	84.6658	14,928.2	84.671	14,928.2	79.9095	14,928.2	81.0181	14,928.2	77.6883	14,928.2	77.6397	14,928.2	72.9865	14,928.2	73.0544	14,928.2	67.2672	14,928.2	66.6141	14,928.2	62.9379	14,928.2	64.4011	14,928.2	52.7015	14,928.2	62.5863	14,928.2	62.5243	14,928.2	55.199	14,928.2	66.289	14,928.2	58.2608	14,928.2	66.2531	14,928.2	47.4241	14,928.2	58.8795	14,928.2	55.9909	14,928.2	39.6734	14,928.2	61.4857	14,928.2	47.1527	14,928.2	61.4771	14,928.2	44.785	14,928.2	55.83	14,928.2	53.6482	14,928.2	52.9326	14,928.2	58.312	14,928.2	49.7391
15,455.6	87.1862	15,455.6	86.8481	15,455.6	86.8442	15,455.6	84.7875	15,455.6	84.3925	15,455.6	82.4027	15,455.6	80.0068	15,455.6	78.8496	15,455.6	77.2303	15,455.6	74.6371	15,455.6	72.3033	15,455.6	71.0879	15,455.6	66.6021	15,455.6	65.2231	15,455.6	63.5532	15,455.6	62.8965	15,455.6	46.7019	15,455.6	59.9945	15,455.6	57.7686	15,455.6	52.9229	15,455.6	61.8189	15,455.6	54.9594	15,455.6	63.6168	15,455.6	40.5351	15,455.6	55.3315	15,455.6	54.3513	15,455.6	41.1905	15,455.6	58.8286	15,455.6	48.1546	15,455.6	57.5963	15,455.6	36.4083	15,455.6	52.0482	15,455.6	49.2662	15,455.6	51.2032	15,455.6	56.4777	15,455.6	52.2222
16,000.5	86.7908	16,000.5	86.5894	16,000.5	86.334	16,000.5	84.638	16,000.5	82.9963	16,000.5	82.9604	16,000.5	78.2999	16,000.5	78.748	16,000.5	73.0606	16,000.5	75.247	16,000.5	68.9803	16,000.5	71.1305	16,000.5	63.2825	16,000.5	65.5217	16,000.5	57.5529	16,000.5	61.1591	16,000.5	46.5621	16,000.5	58.6257	16,000.5	54.6342	16,000.5	50.6809	16,000.5	60.8158	16,000.5	54.7026	16,000.5	62.9598	16,000.5	47.1865	16,000.5	56.5163	16,000.5	51.7469	16,000.5	44.6187	16,000.5	56.915	16,000.5	42.0921	16,000.5	55.9514	16,000.5	40.7679	16,000.5	49.5947	16,000.5	40.7939	16,000.5	44.8654	16,000.5	51.0243	16,000.5	52.5789
16,564.5	85.7415	16,564.5	85.7538	16,564.5	84.1237	16,564.5	83.9579	16,564.5	80.6405	16,564.5	81.9448	16,564.5	75.4374	16,564.5	78.0052	16,564.5	71.6833	16,564.5	74.7101	16,564.5	66.4981	16,564.5	70.7511	16,564.5	61.9499	16,564.5	63.7507	16,564.5	53.9645	16,564.5	60.4939	16,564.5	49.4592	16,564.5	58.0768	16,564.5	55.6443	16,564.5	45.7228	16,564.5	60.5914	16,564.5	55.0734	16,564.5	62.5371	16,564.5	46.1819	16,564.5	55.6228	16,564.5	52.0888	16,564.5	41.369	16,564.5	55.8534	16,564.5	28.0906	16,564.5	56.948	16,564.5	45.3191	16,564.5	51.621	16,564.5	36.9189	16,564.5	46.6076	16,564.5	50.9252	16,564.5	55.2133
17,148.9	82.3999	17,148.9	82.2606	17,148.9	80.523	17,148.9	80.4353	17,148.9	76.0491	17,148.9	79.3988	17,148.9	71.3737	17,148.9	75.2937	17,148.9	67.8274	17,148.9	71.3501	17,148.9	65.4321	17,148.9	68.0139	17,148.9	60.2537	17,148.9	60.8605	17,148.9	47.2549	17,148.9	56.4027	17,148.9	50.0221	17,148.9	54.1752	17,148.9	51.2086	17,148.9	43.3605	17,148.9	55.2904	17,148.9	51.1523	17,148.9	60.0909	17,148.9	44.8017	17,148.9	54.2565	17,148.9	51.5297	17,148.9	33.5997	17,148.9	53.0151	17,148.9	15.5159	17,148.9	53.8238	17,148.9	38.3479	17,148.9	51.7818	17,148.9	36.5769	17,148.9	32.8557	17,148.9	45.9443	17,148.9	52.5616
17,752.4	77.0978	17,752.4	77.7996	17,752.4	73.3905	17,752.4	76.4579	17,752.4	68.278	17,752.4	76.3529	17,752.4	66.0824	17,752.4	72.497	17,752.4	65.0049	17,752.4	68.6295	17,752.4	63.4291	17,752.4	65.2369	17,752.4	57.8295	17,752.4	57.612	17,752.4	45.2358	17,752.4	54.1934	17,752.4	53.0129	17,752.4	50.4207	17,752.4	48.4446	17,752.4	41.9029	17,752.4	50.6582	17,752.4	46.362	17,752.4	57.3379	17,752.4	43.0978	17,752.4	51.6855	17,752.4	48.5979	17,752.4	33.2872	17,752.4	49.4603	17,752.4	28.6181	17,752.4	49.6752	17,752.4	37.8533	17,752.4	48.7972	17,752.4	24.1635	17,752.4	42.1181	17,752.4	41.3991	17,752.4	49.2176
18,379.4	69.7153	18,379.4	72.3833	18,379.4	62.7295	18,379.4	72.0729	18,379.4	63.8603	18,379.4	72.794	18,379.4	64.8231	18,379.4	69.1374	18,379.4	64.8028	18,379.4	65.5476	18,379.4	63.9136	18,379.4	61.4762	18,379.4	59.6461	18,379.4	54.3162	18,379.4	44.6427	18,379.4	50.0671	18,379.4	53.713	18,379.4	46.0976	18,379.4	39.6135	18,379.4	32.7906	18,379.4	47.7603	18,379.4	40.9924	18,379.4	53.5281	18,379.4	38.3526	18,379.4	47.8298	18,379.4	44.7557	18,379.4	28.9217	18,379.4	43.4668	18,379.4	32.6019	18,379.4	46.0266	18,379.4	32.169	18,379.4	46.4156	18,379.4	34.3789	18,379.4	43.3374	18,379.4	34.2223	18,379.4	44.9022
19,026.9	61.2789	19,026.9	65.6059	19,026.9	68.9589	19,026.9	67.7431	19,026.9	70.1885	19,026.9	69.4521	19,026.9	68.861	19,026.9	66.1272	19,026.9	67.3622	19,026.9	62.608	19,026.9	62.7471	19,026.9	57.5317	19,026.9	58.1854	19,026.9	51.3656	19,026.9	42.4493	19,026.9	44.6134	19,026.9	52.0582	19,026.9	41.7541	19,026.9	46.8598	19,026.9	30.9045	19,026.9	48.1543	19,026.9	39.6139	19,026.9	48.0113	19,026.9	26.9236	19,026.9	40.8632	19,026.9	36.3988	19,026.9	2.99204	19,026.9	35.5215	19,026.9	18.4493	19,026.9	41.4963	19,026.9	32.4933	19,026.9	41.8822	19,026.9	38.0439	19,026.9	43.3838	19,026.9	35.1722	19,026.9	40.0685
19,697.8	66.8734	19,697.8	59.8408	19,697.8	71.4479	19,697.8	65.4998	19,697.8	70.7705	19,697.8	67.7617	19,697.8	69.3368	19,697.8	65.4082	19,697.8	66.0696	19,697.8	61.9539	19,697.8	61.0762	19,697.8	54.9833	19,697.8	55.0308	19,697.8	50.3279	19,697.8	32.9606	19,697.8	42.1786	19,697.8	48.1944	19,697.8	39.9154	19,697.8	47.8406	19,697.8	31.9017	19,697.8	38.4653	19,697.8	40.6578	19,697.8	43.2442	19,697.8	31.8002	19,697.8	40.9549	19,697.8	35.9891	19,697.8	30.085	19,697.8	35.4363	19,697.8	30.0902	19,697.8	35.3042	19,697.8	33.2838	19,697.8	34.4773	19,697.8	34.0684	19,697.8	39.6589	19,697.8	34.9233	19,697.8	35.9948
19,999.5	70.1212	19,999.5	66.2459	19,999.5	72.431	19,999.5	67.6541	19,999.5	71.6253	19,999.5	68.5033	19,999.5	69.1469	19,999.5	65.7746	19,999.5	66.1506	19,999.5	62.2548	19,999.5	59.1045	19,999.5	55.187	19,999.5	55.3061	19,999.5	51.4488	19,999.5	44.7737	19,999.5	44.4675	19,999.5	45.4765	19,999.5	41.6981	19,999.5	46.6124	19,999.5	30.805	19,999.5	34.2842	19,999.5	42.8738	19,999.5	47.9873	19,999.5	22.1186	19,999.5	46.1927	19,999.5	41.7634	19,999.5	38.2267	19,999.5	26.8137	19,999.5	38.5681	19,999.5	23.255	19,999.5	42.756	19,999.5	40.8996	19,999.5	41.36	19,999.5	43.6011	19,999.5	42.3322	19,999.5	37.5314
