"SPL Horizontal"
"On-Axis"		"10°"		"-10°"		"20°"		"-20°"		"30°"		"-30°"		"40°"		"-40°"		"50°"		"-50°"		"60°"		"-60°"		"70°"		"-70°"		"80°"		"-80°"		"90°"		"-90°"		"100°"		"-100°"		"110°"		"-110°"		"120°"		"-120°"		"130°"		"-130°"		"140°"		"-140°"		"150°"		"-150°"		"160°"		"-160°"		"170°"		"-170°"		"180°"
"Frequency / Hz"	"Sound Pressure Level / dB (re 20 µPa/V)  [2.83  V @ 1. m]"	"Frequency / Hz"	"Sound Pressure Level / dB (re 20 µPa/V)  [2.83  V @ 1. m]"	"Frequency / Hz"	"Sound Pressure Level / dB (re 20 µPa/V)  [2.83  V @ 1. m]"	"Frequency / Hz"	"Sound Pressure Level / dB (re 20 µPa/V)  [2.83  V @ 1. m]"	"Frequency / Hz"	"Sound Pressure Level / dB (re 20 µPa/V)  [2.83  V @ 1. m]"	"Frequency / Hz"	"Sound Pressure Level / dB (re 20 µPa/V)  [2.83  V @ 1. m]"	"Frequency / Hz"	"Sound Pressure Level / dB (re 20 µPa/V)  [2.83  V @ 1. m]"	"Frequency / Hz"	"Sound Pressure Level / dB (re 20 µPa/V)  [2.83  V @ 1. m]"	"Frequency / Hz"	"Sound Pressure Level / dB (re 20 µPa/V)  [2.83  V @ 1. m]"	"Frequency / Hz"	"Sound Pressure Level / dB (re 20 µPa/V)  [2.83  V @ 1. m]"	"Frequency / Hz"	"Sound Pressure Level / dB (re 20 µPa/V)  [2.83  V @ 1. m]"	"Frequency / Hz"	"Sound Pressure Level / dB (re 20 µPa/V)  [2.83  V @ 1. m]"	"Frequency / Hz"	"Sound Pressure Level / dB (re 20 µPa/V)  [2.83  V @ 1. m]"	"Frequency / Hz"	"Sound Pressure Level / dB (re 20 µPa/V)  [2.83  V @ 1. m]"	"Frequency / Hz"	"Sound Pressure Level / dB (re 20 µPa/V)  [2.83  V @ 1. m]"	"Frequency / Hz"	"Sound Pressure Level / dB (re 20 µPa/V)  [2.83  V @ 1. m]"	"Frequency / Hz"	"Sound Pressure Level / dB (re 20 µPa/V)  [2.83  V @ 1. m]"	"Frequency / Hz"	"Sound Pressure Level / dB (re 20 µPa/V)  [2.83  V @ 1. m]"	"Frequency / Hz"	"Sound Pressure Level / dB (re 20 µPa/V)  [2.83  V @ 1. m]"	"Frequency / Hz"	"Sound Pressure Level / dB (re 20 µPa/V)  [2.83  V @ 1. m]"	"Frequency / Hz"	"Sound Pressure Level / dB (re 20 µPa/V)  [2.83  V @ 1. m]"	"Frequency / Hz"	"Sound Pressure Level / dB (re 20 µPa/V)  [2.83  V @ 1. m]"	"Frequency / Hz"	"Sound Pressure Level / dB (re 20 µPa/V)  [2.83  V @ 1. m]"	"Frequency / Hz"	"Sound Pressure Level / dB (re 20 µPa/V)  [2.83  V @ 1. m]"	"Frequency / Hz"	"Sound Pressure Level / dB (re 20 µPa/V)  [2.83  V @ 1. m]"	"Frequency / Hz"	"Sound Pressure Level / dB (re 20 µPa/V)  [2.83  V @ 1. m]"	"Frequency / Hz"	"Sound Pressure Level / dB (re 20 µPa/V)  [2.83  V @ 1. m]"	"Frequency / Hz"	"Sound Pressure Level / dB (re 20 µPa/V)  [2.83  V @ 1. m]"	"Frequency / Hz"	"Sound Pressure Level / dB (re 20 µPa/V)  [2.83  V @ 1. m]"	"Frequency / Hz"	"Sound Pressure Level / dB (re 20 µPa/V)  [2.83  V @ 1. m]"	"Frequency / Hz"	"Sound Pressure Level / dB (re 20 µPa/V)  [2.83  V @ 1. m]"	"Frequency / Hz"	"Sound Pressure Level / dB (re 20 µPa/V)  [2.83  V @ 1. m]"	"Frequency / Hz"	"Sound Pressure Level / dB (re 20 µPa/V)  [2.83  V @ 1. m]"	"Frequency / Hz"	"Sound Pressure Level / dB (re 20 µPa/V)  [2.83  V @ 1. m]"	"Frequency / Hz"	"Sound Pressure Level / dB (re 20 µPa/V)  [2.83  V @ 1. m]"	"Frequency / Hz"	"Sound Pressure Level / dB (re 20 µPa/V)  [2.83  V @ 1. m]"
20.5078	52.2187	20.5078	52.1977	20.5078	52.2465	20.5078	52.1822	20.5078	52.2809	20.5078	52.1696	20.5078	52.3208	20.5078	52.1565	20.5078	52.3639	20.5078	52.1395	20.5078	52.4071	20.5078	52.1156	20.5078	52.4466	20.5078	52.0836	20.5078	52.4783	20.5078	52.0439	20.5078	52.4979	20.5078	51.9991	20.5078	52.5016	20.5078	51.9529	20.5078	52.4866	20.5078	51.9097	20.5078	52.4521	20.5078	51.8736	20.5078	52.399	20.5078	51.848	20.5078	52.3304	20.5078	51.8353	20.5078	52.251	20.5078	51.8373	20.5078	52.1665	20.5078	51.8552	20.5078	52.0829	20.5078	51.8897	20.5078	52.006	20.5078	51.9406
21.9727	55.1334	21.9727	55.1323	21.9727	55.1271	21.9727	55.1223	21.9727	55.115	21.9727	55.102	21.9727	55.0983	21.9727	55.0704	21.9727	55.0787	21.9727	55.0275	21.9727	55.0576	21.9727	54.9747	21.9727	55.0363	21.9727	54.9146	21.9727	55.016	21.9727	54.8511	21.9727	54.9972	21.9727	54.7888	21.9727	54.9794	21.9727	54.7321	21.9727	54.9617	21.9727	54.6847	21.9727	54.9424	21.9727	54.6494	21.9727	54.92	21.9727	54.6274	21.9727	54.893	21.9727	54.6191	21.9727	54.8608	21.9727	54.6239	21.9727	54.8238	21.9727	54.6406	21.9727	54.7834	21.9727	54.6675	21.9727	54.7419	21.9727	54.7022
23.4375	54.1293	23.4375	54.134	23.4375	54.1207	23.4375	54.133	23.4375	54.1097	23.4375	54.1248	23.4375	54.0976	23.4375	54.1078	23.4375	54.0855	23.4375	54.0809	23.4375	54.0747	23.4375	54.0439	23.4375	54.0658	23.4375	53.998	23.4375	54.0587	23.4375	53.9457	23.4375	54.0527	23.4375	53.8907	23.4375	54.0462	23.4375	53.8377	23.4375	54.0373	23.4375	53.7914	23.4375	54.0244	23.4375	53.7557	23.4375	54.0062	23.4375	53.7332	23.4375	53.9824	23.4375	53.7247	23.4375	53.9531	23.4375	53.7297	23.4375	53.9192	23.4375	53.7466	23.4375	53.8821	23.4375	53.7731	23.4375	53.8437	23.4375	53.8064
24.9023	55.8068	24.9023	55.7742	24.9023	55.8359	24.9023	55.7381	24.9023	55.8612	24.9023	55.6981	24.9023	55.882	24.9023	55.6543	24.9023	55.8966	24.9023	55.6068	24.9023	55.9035	24.9023	55.5564	24.9023	55.9008	24.9023	55.5041	24.9023	55.8873	24.9023	55.4516	24.9023	55.8624	24.9023	55.4006	24.9023	55.8263	24.9023	55.3533	24.9023	55.7802	24.9023	55.3117	24.9023	55.7254	24.9023	55.2774	24.9023	55.664	24.9023	55.2523	24.9023	55.5983	24.9023	55.2375	24.9023	55.5308	24.9023	55.2344	24.9023	55.4643	24.9023	55.2436	24.9023	55.4018	24.9023	55.2657	24.9023	55.3463	24.9023	55.3003
26.3672	55.7428	26.3672	55.7372	26.3672	55.7481	26.3672	55.7308	26.3672	55.7531	26.3672	55.7229	26.3672	55.7572	26.3672	55.7122	26.3672	55.7594	26.3672	55.6979	26.3672	55.7589	26.3672	55.6792	26.3672	55.7545	26.3672	55.656	26.3672	55.7456	26.3672	55.6288	26.3672	55.7316	26.3672	55.5986	26.3672	55.7123	26.3672	55.567	26.3672	55.688	26.3672	55.5358	26.3672	55.6595	26.3672	55.5068	26.3672	55.6276	26.3672	55.4817	26.3672	55.5939	26.3672	55.4618	26.3672	55.5598	26.3672	55.4484	26.3672	55.5271	26.3672	55.4425	26.3672	55.4975	26.3672	55.4446	26.3672	55.473	26.3672	55.455
27.832	56.666	27.832	56.659	27.832	56.6682	27.832	56.6465	27.832	56.6657	27.832	56.6281	27.832	56.6587	27.832	56.6032	27.832	56.6469	27.832	56.5717	27.832	56.6296	27.832	56.5338	27.832	56.6062	27.832	56.4903	27.832	56.5761	27.832	56.4424	27.832	56.5391	27.832	56.3917	27.832	56.4957	27.832	56.3402	27.832	56.4471	27.832	56.2899	27.832	56.3952	27.832	56.2426	27.832	56.3419	27.832	56.2003	27.832	56.2897	27.832	56.1647	27.832	56.2406	27.832	56.1374	27.832	56.197	27.832	56.1199	27.832	56.1609	27.832	56.1132	27.832	56.1341	27.832	56.1179
29.2969	57.0329	29.2969	57.0408	29.2969	57.0171	29.2969	57.0398	29.2969	56.9946	29.2969	57.0291	29.2969	56.9663	29.2969	57.008	29.2969	56.9332	29.2969	56.9769	29.2969	56.8962	29.2969	56.9364	29.2969	56.8561	29.2969	56.8882	29.2969	56.8134	29.2969	56.8342	29.2969	56.7689	29.2969	56.7769	29.2969	56.7229	29.2969	56.7188	29.2969	56.6761	29.2969	56.662	29.2969	56.6294	29.2969	56.6087	29.2969	56.5839	29.2969	56.5603	29.2969	56.5412	29.2969	56.5181	29.2969	56.5031	29.2969	56.483	29.2969	56.4715	29.2969	56.4562	29.2969	56.4481	29.2969	56.4386	29.2969	56.4344	29.2969	56.4312
30.7617	58.4321	30.7617	58.43	30.7617	58.4298	30.7617	58.4228	30.7617	58.424	30.7617	58.4096	30.7617	58.4151	30.7617	58.3898	30.7617	58.4036	30.7617	58.3631	30.7617	58.3894	30.7617	58.3297	30.7617	58.3722	30.7617	58.2903	30.7617	58.3517	30.7617	58.2462	30.7617	58.3273	30.7617	58.1997	30.7617	58.2989	30.7617	58.1531	30.7617	58.2669	30.7617	58.1091	30.7617	58.232	30.7617	58.0701	30.7617	58.1951	30.7617	58.0381	30.7617	58.1576	30.7617	58.0143	30.7617	58.1209	30.7617	57.9996	30.7617	58.0863	30.7617	57.9941	30.7617	58.0554	30.7617	57.9978	30.7617	58.0295	30.7617	58.0099
32.2266	59.1049	32.2266	59.1014	32.2266	59.0969	32.2266	59.0858	32.2266	59.078	32.2266	59.0582	32.2266	59.0492	32.2266	59.019	32.2266	59.0112	32.2266	58.9691	32.2266	58.9651	32.2266	58.9101	32.2266	58.9118	32.2266	58.8438	32.2266	58.8525	32.2266	58.7724	32.2266	58.7885	32.2266	58.6986	32.2266	58.7215	32.2266	58.625	32.2266	58.6534	32.2266	58.5544	32.2266	58.5864	32.2266	58.4892	32.2266	58.5225	32.2266	58.4317	32.2266	58.4639	32.2266	58.3835	32.2266	58.4126	32.2266	58.346	32.2266	58.3699	32.2266	58.3201	32.2266	58.3371	32.2266	58.3063	32.2266	58.3152	32.2266	58.3047
33.6914	59.5636	33.6914	59.5702	33.6914	59.5493	33.6914	59.5689	33.6914	59.5279	33.6914	59.5597	33.6914	59.5001	33.6914	59.5429	33.6914	59.4663	33.6914	59.5193	33.6914	59.4271	33.6914	59.4896	33.6914	59.3832	33.6914	59.4548	33.6914	59.3355	33.6914	59.4161	33.6914	59.2852	33.6914	59.3742	33.6914	59.2337	33.6914	59.3302	33.6914	59.1829	33.6914	59.2848	33.6914	59.1349	33.6914	59.2387	33.6914	59.0917	33.6914	59.193	33.6914	59.0552	33.6914	59.1488	33.6914	59.0272	33.6914	59.1075	33.6914	59.009	33.6914	59.0707	33.6914	59.0013	33.6914	59.0402	33.6914	59.0044	33.6914	59.0176
35.1562	60.5827	35.1562	60.5719	35.1562	60.5823	35.1562	60.5506	35.1562	60.5703	35.1562	60.5202	35.1562	60.547	35.1562	60.482	35.1562	60.513	35.1562	60.4374	35.1562	60.4692	35.1562	60.3875	35.1562	60.4166	35.1562	60.3332	35.1562	60.3562	35.1562	60.2752	35.1562	60.2895	35.1562	60.2145	35.1562	60.2181	35.1562	60.152	35.1562	60.1442	35.1562	60.0889	35.1562	60.0705	35.1562	60.0268	35.1562	60	35.1562	59.9677	35.1562	59.936	35.1562	59.9136	35.1562	59.8812	35.1562	59.8669	35.1562	59.838	35.1562	59.8296	35.1562	59.8081	35.1562	59.8039	35.1562	59.7924	35.1562	59.7911
36.6211	61.0138	36.6211	61.0313	36.6211	60.9835	36.6211	61.0356	36.6211	60.9412	36.6211	61.027	36.6211	60.8879	36.6211	61.0057	36.6211	60.8251	36.6211	60.9724	36.6211	60.7545	36.6211	60.9277	36.6211	60.678	36.6211	60.8726	36.6211	60.5976	36.6211	60.8081	36.6211	60.5157	36.6211	60.7359	36.6211	60.4349	36.6211	60.658	36.6211	60.3577	36.6211	60.5768	36.6211	60.2869	36.6211	60.4949	36.6211	60.2249	36.6211	60.4149	36.6211	60.1739	36.6211	60.3396	36.6211	60.1357	36.6211	60.2713	36.6211	60.1117	36.6211	60.2123	36.6211	60.1026	36.6211	60.1645	36.6211	60.1086	36.6211	60.1295
38.0859	61.5727	38.0859	61.5589	38.0859	61.5718	38.0859	61.5309	38.0859	61.5565	38.0859	61.4898	38.0859	61.5276	38.0859	61.4375	38.0859	61.4861	38.0859	61.3761	38.0859	61.433	38.0859	61.3079	38.0859	61.3694	38.0859	61.2354	38.0859	61.2961	38.0859	61.1606	38.0859	61.2146	38.0859	61.0853	38.0859	61.1267	38.0859	61.011	38.0859	61.0353	38.0859	60.9391	38.0859	60.9438	38.0859	60.8704	38.0859	60.8566	38.0859	60.8063	38.0859	60.7778	38.0859	60.7479	38.0859	60.7113	38.0859	60.697	38.0859	60.66	38.0859	60.6554	38.0859	60.6257	38.0859	60.6254	38.0859	60.609	38.0859	60.6093
39.5508	61.9471	39.5508	61.9476	39.5508	61.9331	39.5508	61.9352	39.5508	61.9056	39.5508	61.9111	39.5508	61.865	39.5508	61.8769	39.5508	61.8121	39.5508	61.8344	39.5508	61.7478	39.5508	61.7852	39.5508	61.6735	39.5508	61.7303	39.5508	61.5907	39.5508	61.6707	39.5508	61.5014	39.5508	61.6068	39.5508	61.4085	39.5508	61.5389	39.5508	61.3155	39.5508	61.4678	39.5508	61.2266	39.5508	61.3941	39.5508	61.1462	39.5508	61.3194	39.5508	61.0787	39.5508	61.2456	39.5508	61.0276	39.5508	61.1753	39.5508	60.9953	39.5508	61.1113	39.5508	60.9829	39.5508	61.057	39.5508	60.9902	39.5508	61.0156
41.0156	62.5861	41.0156	62.5469	41.0156	62.6223	41.0156	62.5033	41.0156	62.6562	41.0156	62.4539	41.0156	62.6876	41.0156	62.3972	41.0156	62.7152	41.0156	62.3324	41.0156	62.737	41.0156	62.2604	41.0156	62.7507	41.0156	62.1833	41.0156	62.7542	41.0156	62.1054	41.0156	62.7462	41.0156	62.0325	41.0156	62.7266	41.0156	61.971	41.0156	62.6961	41.0156	61.9267	41.0156	62.6563	41.0156	61.904	41.0156	62.6083	41.0156	61.9053	41.0156	62.5533	41.0156	61.9302	41.0156	62.4919	41.0156	61.9761	41.0156	62.4243	41.0156	62.0387	41.0156	62.3509	41.0156	62.1126	41.0156	62.2728	41.0156	62.1922
42.4805	63.384	42.4805	63.368	42.4805	63.3962	42.4805	63.348	42.4805	63.4044	42.4805	63.3241	42.4805	63.4084	42.4805	63.2962	42.4805	63.408	42.4805	63.2645	42.4805	63.4032	42.4805	63.2298	42.4805	63.3939	42.4805	63.193	42.4805	63.3803	42.4805	63.156	42.4805	63.3628	42.4805	63.1205	42.4805	63.3419	42.4805	63.0888	42.4805	63.3183	42.4805	63.0625	42.4805	63.2925	42.4805	63.0431	42.4805	63.2649	42.4805	63.0317	42.4805	63.2359	42.4805	63.0285	42.4805	63.2059	42.4805	63.0335	42.4805	63.1754	42.4805	63.0459	42.4805	63.145	42.4805	63.0646	42.4805	63.1156	42.4805	63.0884
43.9453	63.8433	43.9453	63.8304	43.9453	63.8499	43.9453	63.8118	43.9453	63.8501	43.9453	63.7877	43.9453	63.8437	43.9453	63.7587	43.9453	63.8307	43.9453	63.7253	43.9453	63.8115	43.9453	63.6884	43.9453	63.7868	43.9453	63.6491	43.9453	63.7575	43.9453	63.6089	43.9453	63.7247	43.9453	63.5692	43.9453	63.6899	43.9453	63.5316	43.9453	63.6541	43.9453	63.4976	43.9453	63.6185	43.9453	63.4684	43.9453	63.5838	43.9453	63.4452	43.9453	63.5508	43.9453	63.4285	43.9453	63.52	43.9453	63.4189	43.9453	63.4921	43.9453	63.4165	43.9453	63.4675	43.9453	63.4207	43.9453	63.447	43.9453	63.4311
45.4102	64.4821	45.4102	64.4717	45.4102	64.4851	45.4102	64.4546	45.4102	64.4806	45.4102	64.4313	45.4102	64.4682	45.4102	64.4026	45.4102	64.4481	45.4102	64.3692	45.4102	64.421	45.4102	64.3319	45.4102	64.3876	45.4102	64.2917	45.4102	64.3493	45.4102	64.2496	45.4102	64.3076	45.4102	64.2068	45.4102	64.2642	45.4102	64.1647	45.4102	64.2206	45.4102	64.1248	45.4102	64.1784	45.4102	64.0885	45.4102	64.1388	45.4102	64.0571	45.4102	64.1029	45.4102	64.0317	45.4102	64.0714	45.4102	64.0131	45.4102	64.0448	45.4102	64.0015	45.4102	64.0238	45.4102	63.997	45.4102	64.0085	45.4102	63.9995
46.875	65.0262	46.875	65.0154	46.875	65.0298	46.875	64.9978	46.875	65.0261	46.875	64.9738	46.875	65.0152	46.875	64.944	46.875	64.9973	46.875	64.9092	46.875	64.9727	46.875	64.8703	46.875	64.9423	46.875	64.8285	46.875	64.9068	46.875	64.785	46.875	64.8675	46.875	64.7413	46.875	64.8257	46.875	64.699	46.875	64.7829	46.875	64.6595	46.875	64.7406	46.875	64.6244	46.875	64.7003	46.875	64.5948	46.875	64.663	46.875	64.5716	46.875	64.6297	46.875	64.5554	46.875	64.6012	46.875	64.5463	46.875	64.578	46.875	64.5443	46.875	64.5605	46.875	64.5492
48.3398	65.6326	48.3398	65.6307	48.3398	65.6262	48.3398	65.6206	48.3398	65.6119	48.3398	65.6026	48.3398	65.59	48.3398	65.5775	48.3398	65.5614	48.3398	65.5459	48.3398	65.5269	48.3398	65.5088	48.3398	65.4877	48.3398	65.4673	48.3398	65.4449	48.3398	65.4227	48.3398	65.3998	48.3398	65.3764	48.3398	65.3538	48.3398	65.3297	48.3398	65.3082	48.3398	65.2842	48.3398	65.2646	48.3398	65.2414	48.3398	65.2244	48.3398	65.2027	48.3398	65.1886	48.3398	65.1692	48.3398	65.1582	48.3398	65.142	48.3398	65.1341	48.3398	65.1219	48.3398	65.1168	48.3398	65.1092	48.3398	65.1067	48.3398	65.1041
51.2695	66.7191	51.2695	66.7173	51.2695	66.7093	51.2695	66.7038	51.2695	66.6884	51.2695	66.6791	51.2695	66.6573	51.2695	66.6441	51.2695	66.6174	51.2695	66.6003	51.2695	66.5703	51.2695	66.5494	51.2695	66.5178	51.2695	66.4933	51.2695	66.4617	51.2695	66.434	51.2695	66.4039	51.2695	66.3734	51.2695	66.346	51.2695	66.3135	51.2695	66.2897	51.2695	66.256	51.2695	66.2364	51.2695	66.2027	51.2695	66.1872	51.2695	66.1551	51.2695	66.1435	51.2695	66.1143	51.2695	66.1062	51.2695	66.0816	51.2695	66.0763	51.2695	66.0576	51.2695	66.0545	51.2695	66.0429	51.2695	66.0414	51.2695	66.0375
52.7344	66.945	52.7344	66.9284	52.7344	66.9499	52.7344	66.9005	52.7344	66.9432	52.7344	66.862	52.7344	66.9252	52.7344	66.8142	52.7344	66.8967	52.7344	66.7589	52.7344	66.8589	52.7344	66.6981	52.7344	66.813	52.7344	66.6342	52.7344	66.7607	52.7344	66.5694	52.7344	66.7037	52.7344	66.5061	52.7344	66.6439	52.7344	66.4463	52.7344	66.5831	52.7344	66.3918	52.7344	66.523	52.7344	66.3441	52.7344	66.4655	52.7344	66.3044	52.7344	66.4119	52.7344	66.2735	52.7344	66.3636	52.7344	66.252	52.7344	66.3219	52.7344	66.2401	52.7344	66.2878	52.7344	66.2379	52.7344	66.2621	52.7344	66.2453
54.1992	67.3697	54.1992	67.3705	54.1992	67.3588	54.1992	67.3608	54.1992	67.3382	54.1992	67.3408	54.1992	67.309	54.1992	67.3112	54.1992	67.2721	54.1992	67.2729	54.1992	67.2289	54.1992	67.2274	54.1992	67.1808	54.1992	67.1764	54.1992	67.1291	54.1992	67.1217	54.1992	67.0755	54.1992	67.0653	54.1992	67.0216	54.1992	67.009	54.1992	66.969	54.1992	66.955	54.1992	66.9193	54.1992	66.9048	54.1992	66.8739	54.1992	66.8601	54.1992	66.8341	54.1992	66.8219	54.1992	66.8009	54.1992	66.791	54.1992	66.775	54.1992	66.7679	54.1992	66.7571	54.1992	66.7528	54.1992	66.7474	54.1992	66.7459
55.6641	68.0719	55.6641	68.0775	55.6641	68.053	55.6641	68.0695	55.6641	68.0217	55.6641	68.0479	55.6641	67.9792	55.6641	68.0133	55.6641	67.9266	55.6641	67.967	55.6641	67.8656	55.6641	67.9104	55.6641	67.7979	55.6641	67.8456	55.6641	67.7255	55.6641	67.7749	55.6641	67.6507	55.6641	67.7005	55.6641	67.5759	55.6641	67.6251	55.6641	67.5037	55.6641	67.5509	55.6641	67.4363	55.6641	67.4804	55.6641	67.376	55.6641	67.4156	55.6641	67.3243	55.6641	67.3585	55.6641	67.2826	55.6641	67.3104	55.6641	67.2519	55.6641	67.2724	55.6641	67.2326	55.6641	67.2452	55.6641	67.2251	55.6641	67.2293
58.5938	68.6592	58.5938	68.6762	58.5938	68.6338	58.5938	68.6843	58.5938	68.6004	58.5938	68.6835	58.5938	68.5597	58.5938	68.6737	58.5938	68.5124	58.5938	68.6549	58.5938	68.4596	58.5938	68.6275	58.5938	68.4026	58.5938	68.5916	58.5938	68.3429	58.5938	68.5477	58.5938	68.2822	58.5938	68.4965	58.5938	68.2224	58.5938	68.4391	58.5938	68.1654	58.5938	68.3772	58.5938	68.1133	58.5938	68.3127	58.5938	68.0678	58.5938	68.2481	58.5938	68.0306	58.5938	68.186	58.5938	68.0033	58.5938	68.129	58.5938	67.9868	58.5938	68.0792	58.5938	67.982	58.5938	68.0385	58.5938	67.9892	58.5938	68.0082
60.0586	68.9906	60.0586	68.9996	60.0586	68.9708	60.0586	68.9981	60.0586	68.9406	60.0586	68.9866	60.0586	68.9006	60.0586	68.966	60.0586	68.8522	60.0586	68.9376	60.0586	68.797	60.0586	68.9026	60.0586	68.7371	60.0586	68.8621	60.0586	68.6749	60.0586	68.8174	60.0586	68.613	60.0586	68.7694	60.0586	68.5539	60.0586	68.7194	60.0586	68.5	60.0586	68.6682	60.0586	68.453	60.0586	68.6171	60.0586	68.4145	60.0586	68.5671	60.0586	68.3853	60.0586	68.5196	60.0586	68.3655	60.0586	68.4759	60.0586	68.3554	60.0586	68.4373	60.0586	68.3546	60.0586	68.4049	60.0586	68.3629	60.0586	68.3799
62.9883	70.192	62.9883	70.183	62.9883	70.1862	62.9883	70.1598	62.9883	70.1657	62.9883	70.1234	62.9883	70.1306	62.9883	70.0752	62.9883	70.082	62.9883	70.0169	62.9883	70.0212	62.9883	69.9502	62.9883	69.95	62.9883	69.8771	62.9883	69.8707	62.9883	69.7995	62.9883	69.7862	62.9883	69.7195	62.9883	69.6993	62.9883	69.639	62.9883	69.6131	62.9883	69.5603	62.9883	69.5306	62.9883	69.4855	62.9883	69.4545	62.9883	69.4168	62.9883	69.387	62.9883	69.3564	62.9883	69.3301	62.9883	69.3062	62.9883	69.2851	62.9883	69.2679	62.9883	69.2533	62.9883	69.2429	62.9883	69.2354	62.9883	69.2319
64.4531	70.8655	64.4531	70.8658	64.4531	70.8485	64.4531	70.8495	64.4531	70.8148	64.4531	70.8174	64.4531	70.7652	64.4531	70.7705	64.4531	70.7008	64.4531	70.7102	64.4531	70.6235	64.4531	70.6381	64.4531	70.5353	64.4531	70.556	64.4531	70.4389	64.4531	70.4657	64.4531	70.3372	64.4531	70.3696	64.4531	70.2334	64.4531	70.2699	64.4531	70.1306	64.4531	70.1694	64.4531	70.0322	64.4531	70.0709	64.4531	69.9411	64.4531	69.9775	64.4531	69.8604	64.4531	69.8924	64.4531	69.7927	64.4531	69.8188	64.4531	69.7405	64.4531	69.7597	64.4531	69.7057	64.4531	69.7174	64.4531	69.6899	64.4531	69.6939
67.3828	71.39	67.3828	71.3958	67.3828	71.3666	67.3828	71.3839	67.3828	71.3259	67.3828	71.3552	67.3828	71.2691	67.3828	71.3107	67.3828	71.198	67.3828	71.2523	67.3828	71.1147	67.3828	71.1819	67.3828	71.022	67.3828	71.1018	67.3828	70.9228	67.3828	71.0144	67.3828	70.8204	67.3828	70.9222	67.3828	70.7181	67.3828	70.8276	67.3828	70.619	67.3828	70.7329	67.3828	70.5262	67.3828	70.6403	67.3828	70.4427	67.3828	70.552	67.3828	70.3711	67.3828	70.4703	67.3828	70.3138	67.3828	70.3977	67.3828	70.2728	67.3828	70.3367	67.3828	70.2495	67.3828	70.2895	67.3828	70.2447	67.3828	70.2583
68.8477	71.4495	68.8477	71.4325	68.8477	71.4506	68.8477	71.4	68.8477	71.4359	68.8477	71.3532	68.8477	71.406	68.8477	71.2935	68.8477	71.3621	68.8477	71.2233	68.8477	71.3055	68.8477	71.1451	68.8477	71.2381	68.8477	71.0619	68.8477	71.1623	68.8477	70.9767	68.8477	71.0803	68.8477	70.8924	68.8477	70.9949	68.8477	70.8116	68.8477	70.9088	68.8477	70.7365	68.8477	70.8247	68.8477	70.6688	68.8477	70.745	68.8477	70.6098	68.8477	70.6723	68.8477	70.5605	68.8477	70.6089	68.8477	70.5219	68.8477	70.5566	68.8477	70.4948	68.8477	70.517	68.8477	70.4802	68.8477	70.4909	68.8477	70.4787
71.7773	71.6545	71.7773	71.6249	71.7773	71.6807	71.7773	71.5925	71.7773	71.7032	71.7773	71.558	71.7773	71.7216	71.7773	71.5224	71.7773	71.7358	71.7773	71.4872	71.7773	71.7456	71.7773	71.454	71.7773	71.7511	71.7773	71.4245	71.7773	71.7526	71.7773	71.4005	71.7773	71.7507	71.7773	71.3835	71.7773	71.7458	71.7773	71.3748	71.7773	71.7385	71.7773	71.375	71.7773	71.729	71.7773	71.3845	71.7773	71.7173	71.7773	71.4027	71.7773	71.7029	71.7773	71.4289	71.7773	71.6853	71.7773	71.4612	71.7773	71.6637	71.7773	71.4975	71.7773	71.6377	71.7773	71.5355	71.7773	71.6071	71.7773	71.5726
74.707	72.5948	74.707	72.5969	74.707	72.587	74.707	72.593	74.707	72.5739	74.707	72.5833	74.707	72.5564	74.707	72.5686	74.707	72.5355	74.707	72.5495	74.707	72.5121	74.707	72.5269	74.707	72.4873	74.707	72.5017	74.707	72.4619	74.707	72.4746	74.707	72.4368	74.707	72.4466	74.707	72.4131	74.707	72.4185	74.707	72.3916	74.707	72.3915	74.707	72.3729	74.707	72.3669	74.707	72.3575	74.707	72.346	74.707	72.3451	74.707	72.3295	74.707	72.3353	74.707	72.3182	74.707	72.3274	74.707	72.3119	74.707	72.3208	74.707	72.3099	74.707	72.3153	74.707	72.3114
77.6367	73.7763	77.6367	73.7745	77.6367	73.7684	77.6367	73.7637	77.6367	73.7501	77.6367	73.7448	77.6367	73.7215	77.6367	73.7186	77.6367	73.6829	77.6367	73.6857	77.6367	73.6353	77.6367	73.6465	77.6367	73.5799	77.6367	73.6015	77.6367	73.5186	77.6367	73.5509	77.6367	73.4535	77.6367	73.4957	77.6367	73.3867	77.6367	73.4367	77.6367	73.3208	77.6367	73.3758	77.6367	73.2582	77.6367	73.3149	77.6367	73.2012	77.6367	73.2562	77.6367	73.1519	77.6367	73.2019	77.6367	73.112	77.6367	73.1541	77.6367	73.0828	77.6367	73.1146	77.6367	73.0653	77.6367	73.0851	77.6367	73.0598	77.6367	73.0666
79.1016	74.2914	79.1016	74.2709	79.1016	74.3	79.1016	74.2395	79.1016	74.296	79.1016	74.1983	79.1016	74.279	79.1016	74.1489	79.1016	74.2492	79.1016	74.0925	79.1016	74.2073	79.1016	74.0307	79.1016	74.1542	79.1016	73.9649	79.1016	74.0913	79.1016	73.8967	79.1016	74.0203	79.1016	73.8276	79.1016	73.9435	79.1016	73.7593	79.1016	73.8634	79.1016	73.6934	79.1016	73.7828	79.1016	73.6316	79.1016	73.7048	79.1016	73.5756	79.1016	73.6325	79.1016	73.5271	79.1016	73.5688	79.1016	73.4878	79.1016	73.5161	79.1016	73.4591	79.1016	73.4763	79.1016	73.4426	79.1016	73.4506	79.1016	73.4395
82.0312	74.2631	82.0312	74.2114	82.0312	74.3077	82.0312	74.1541	82.0312	74.3443	82.0312	74.0931	82.0312	74.3721	82.0312	74.0307	82.0312	74.3909	82.0312	73.9696	82.0312	74.4005	82.0312	73.9126	82.0312	74.4009	82.0312	73.8624	82.0312	74.3923	82.0312	73.8214	82.0312	74.3749	82.0312	73.7912	82.0312	74.3494	82.0312	73.773	82.0312	74.3165	82.0312	73.7667	82.0312	74.2773	82.0312	73.7719	82.0312	74.2333	82.0312	73.787	82.0312	74.1861	82.0312	73.8103	82.0312	74.1375	82.0312	73.84	82.0312	74.089	82.0312	73.8744	82.0312	74.0416	82.0312	73.9123	82.0312	73.9962	82.0312	73.953
84.9609	74.4057	84.9609	74.4167	84.9609	74.3864	84.9609	74.4176	84.9609	74.3613	84.9609	74.4084	84.9609	74.3343	84.9609	74.3902	84.9609	74.3097	84.9609	74.365	84.9609	74.2915	84.9609	74.3358	84.9609	74.2831	84.9609	74.3059	84.9609	74.2865	84.9609	74.2787	84.9609	74.3024	84.9609	74.2575	84.9609	74.3299	84.9609	74.2454	84.9609	74.3664	84.9609	74.2444	84.9609	74.4082	84.9609	74.2559	84.9609	74.4508	84.9609	74.2799	84.9609	74.4891	84.9609	74.3151	84.9609	74.5184	84.9609	74.3585	84.9609	74.5348	84.9609	74.4058	84.9609	74.5359	84.9609	74.4521	84.9609	74.5211	84.9609	74.4921
87.8906	76.4555	87.8906	76.4879	87.8906	76.3928	87.8906	76.4892	87.8906	76.302	87.8906	76.4598	87.8906	76.1866	87.8906	76.4014	87.8906	76.0512	87.8906	76.317	87.8906	75.9018	87.8906	76.2104	87.8906	75.7449	87.8906	76.0863	87.8906	75.587	87.8906	75.9496	87.8906	75.4344	87.8906	75.8055	87.8906	75.2924	87.8906	75.6588	87.8906	75.165	87.8906	75.5139	87.8906	75.0546	87.8906	75.3746	87.8906	74.9628	87.8906	75.2443	87.8906	74.8902	87.8906	75.1261	87.8906	74.8372	87.8906	75.0229	87.8906	74.8038	87.8906	74.937	87.8906	74.7901	87.8906	74.8701	87.8906	74.7965	87.8906	74.8231
90.8203	76.6844	90.8203	76.6921	90.8203	76.6572	90.8203	76.6808	90.8203	76.6098	90.8203	76.6509	90.8203	76.5417	90.8203	76.6026	90.8203	76.453	90.8203	76.5361	90.8203	76.3447	90.8203	76.4521	90.8203	76.2194	90.8203	76.3518	90.8203	76.0806	90.8203	76.237	90.8203	75.9333	90.8203	76.1107	90.8203	75.7832	90.8203	75.9763	90.8203	75.6364	90.8203	75.838	90.8203	75.499	90.8203	75.7004	90.8203	75.3763	90.8203	75.5681	90.8203	75.273	90.8203	75.4457	90.8203	75.1924	90.8203	75.3372	90.8203	75.1369	90.8203	75.2463	90.8203	75.1078	90.8203	75.1758	90.8203	75.105	90.8203	75.1282
95.2148	76.7049	95.2148	76.6934	95.2148	76.7083	95.2148	76.6746	95.2148	76.7035	95.2148	76.6499	95.2148	76.6912	95.2148	76.6215	95.2148	76.6727	95.2148	76.5915	95.2148	76.6497	95.2148	76.5621	95.2148	76.6242	95.2148	76.5354	95.2148	76.598	95.2148	76.5126	95.2148	76.5726	95.2148	76.4945	95.2148	76.5493	95.2148	76.4812	95.2148	76.5289	95.2148	76.4722	95.2148	76.512	95.2148	76.4666	95.2148	76.4983	95.2148	76.4635	95.2148	76.4877	95.2148	76.4621	95.2148	76.4797	95.2148	76.4617	95.2148	76.4737	95.2148	76.462	95.2148	76.4694	95.2148	76.4628	95.2148	76.4663	95.2148	76.4642
98.1445	77.4025	98.1445	77.3839	98.1445	77.4083	98.1445	77.3533	98.1445	77.401	98.1445	77.3128	98.1445	77.3814	98.1445	77.2647	98.1445	77.351	98.1445	77.2124	98.1445	77.3118	98.1445	77.159	98.1445	77.2662	98.1445	77.1078	98.1445	77.2169	98.1445	77.0614	98.1445	77.1666	98.1445	77.0218	98.1445	77.1178	98.1445	76.9897	98.1445	77.0725	98.1445	76.9652	98.1445	77.0326	98.1445	76.9474	98.1445	76.999	98.1445	76.9351	98.1445	76.9721	98.1445	76.9269	98.1445	76.9518	98.1445	76.9217	98.1445	76.9373	98.1445	76.9188	98.1445	76.9276	98.1445	76.9177	98.1445	76.9216	98.1445	76.9186
101.074	77.985	101.074	77.9797	101.074	77.9788	101.074	77.9625	101.074	77.962	101.074	77.9339	101.074	77.9359	101.074	77.8946	101.074	77.9021	101.074	77.8463	101.074	77.8625	101.074	77.7912	101.074	77.8192	101.074	77.732	101.074	77.7743	101.074	77.6718	101.074	77.7298	101.074	77.6136	101.074	77.6874	101.074	77.5607	101.074	77.6484	101.074	77.5158	101.074	77.6137	101.074	77.4808	101.074	77.5836	101.074	77.4567	101.074	77.5579	101.074	77.4435	101.074	77.5359	101.074	77.44	101.074	77.5166	101.074	77.4444	101.074	77.4991	101.074	77.4543	101.074	77.4828	101.074	77.4676
105.469	78.7911	105.469	78.7896	105.469	78.7772	105.469	78.7732	105.469	78.7482	105.469	78.743	105.469	78.7049	105.469	78.7006	105.469	78.6489	105.469	78.6482	105.469	78.5821	105.469	78.5882	105.469	78.5074	105.469	78.5231	105.469	78.4277	105.469	78.4552	105.469	78.3465	105.469	78.3862	105.469	78.2672	105.469	78.3179	105.469	78.193	105.469	78.2515	105.469	78.1261	105.469	78.1882	105.469	78.0684	105.469	78.1293	105.469	78.021	105.469	78.0762	105.469	77.9842	105.469	78.0302	105.469	77.9585	105.469	77.9927	105.469	77.9437	105.469	77.9647	105.469	77.9399	105.469	77.947
108.398	79.1953	108.398	79.1839	108.398	79.1883	108.398	79.1548	108.398	79.1633	108.398	79.1097	108.398	79.1214	108.398	79.0512	108.398	79.0646	108.398	78.9825	108.398	78.9955	108.398	78.9073	108.398	78.9172	108.398	78.8292	108.398	78.8331	108.398	78.7516	108.398	78.7467	108.398	78.6771	108.398	78.6618	108.398	78.6076	108.398	78.5816	108.398	78.5442	108.398	78.509	108.398	78.4876	108.398	78.446	108.398	78.4377	108.398	78.3937	108.398	78.3947	108.398	78.3527	108.398	78.3587	108.398	78.3229	108.398	78.3302	108.398	78.3042	108.398	78.3098	108.398	78.2961	108.398	78.2982
112.793	79.7033	112.793	79.704	112.793	79.686	112.793	79.6881	112.793	79.6531	112.793	79.6565	112.793	79.6065	112.793	79.6113	112.793	79.5486	112.793	79.5551	112.793	79.4825	112.793	79.4911	112.793	79.4111	112.793	79.4228	112.793	79.3376	112.793	79.3536	112.793	79.2649	112.793	79.2861	112.793	79.1954	112.793	79.2228	112.793	79.1315	112.793	79.165	112.793	79.0747	112.793	79.1134	112.793	79.0265	112.793	79.0683	112.793	78.9875	112.793	79.0295	112.793	78.9583	112.793	78.9967	112.793	78.9388	112.793	78.9697	112.793	78.9287	112.793	78.9489	112.793	78.9276	112.793	78.9346
117.188	80.2087	117.188	80.2112	117.188	80.1898	117.188	80.1975	117.188	80.1551	117.188	80.1689	117.188	80.1057	117.188	80.1268	117.188	80.044	117.188	80.0737	117.188	79.9725	117.188	80.012	117.188	79.8945	117.188	79.9445	117.188	79.8133	117.188	79.8739	117.188	79.7324	117.188	79.8027	117.188	79.6549	117.188	79.7329	117.188	79.5833	117.188	79.6664	117.188	79.5201	117.188	79.6043	117.188	79.4665	117.188	79.5477	117.188	79.4237	117.188	79.4974	117.188	79.3919	117.188	79.4541	117.188	79.3712	117.188	79.4183	117.188	79.3612	117.188	79.3905	117.188	79.3614	117.188	79.3714
120.117	80.5147	120.117	80.5088	120.117	80.5048	120.117	80.4879	120.117	80.4791	120.117	80.4534	120.117	80.4382	120.117	80.4074	120.117	80.3838	120.117	80.352	120.117	80.3181	120.117	80.2902	120.117	80.2446	120.117	80.2245	120.117	80.1667	120.117	80.1577	120.117	80.0883	120.117	80.0922	120.117	80.0133	120.117	80.0299	120.117	79.9447	120.117	79.9722	120.117	79.8848	120.117	79.9202	120.117	79.8351	120.117	79.8746	120.117	79.7963	120.117	79.8356	120.117	79.7682	120.117	79.8034	120.117	79.75	120.117	79.7778	120.117	79.7409	120.117	79.7586	120.117	79.7399	120.117	79.7459
124.512	80.9102	124.512	80.9055	124.512	80.8999	124.512	80.8862	124.512	80.8752	124.512	80.8535	124.512	80.8374	124.512	80.8096	124.512	80.7886	124.512	80.7573	124.512	80.7316	124.512	80.6999	124.512	80.6695	124.512	80.6409	124.512	80.606	124.512	80.5837	124.512	80.5445	124.512	80.5308	124.512	80.4882	124.512	80.4841	124.512	80.4398	124.512	80.4447	124.512	80.4007	124.512	80.4128	124.512	80.3715	124.512	80.388	124.512	80.3516	124.512	80.3696	124.512	80.3397	124.512	80.3565	124.512	80.334	124.512	80.3473	124.512	80.3325	124.512	80.341	124.512	80.3337	124.512	80.3366
128.906	81.4127	128.906	81.4117	128.906	81.3986	128.906	81.3956	128.906	81.3701	128.906	81.365	128.906	81.3286	128.906	81.3215	128.906	81.2761	128.906	81.2673	128.906	81.2149	128.906	81.2053	128.906	81.148	128.906	81.1388	128.906	81.0783	128.906	81.0712	128.906	81.0093	128.906	81.0056	128.906	80.9438	128.906	80.9446	128.906	80.8847	128.906	80.8901	128.906	80.8337	128.906	80.8431	128.906	80.7919	128.906	80.804	128.906	80.7596	128.906	80.7727	128.906	80.7364	128.906	80.7486	128.906	80.7211	128.906	80.7309	128.906	80.7126	128.906	80.719	128.906	80.7099	128.906	80.7121
133.301	81.7724	133.301	81.7759	133.301	81.7526	133.301	81.7633	133.301	81.7172	133.301	81.7356	133.301	81.668	133.301	81.6947	133.301	81.6074	133.301	81.6434	133.301	81.5384	133.301	81.5847	133.301	81.4647	133.301	81.5219	133.301	81.3902	133.301	81.4581	133.301	81.3187	133.301	81.3961	133.301	81.2538	133.301	81.3382	133.301	81.1982	133.301	81.2857	133.301	81.1536	133.301	81.2395	133.301	81.1204	133.301	81.2	133.301	81.0979	133.301	81.1671	133.301	81.0848	133.301	81.1404	133.301	81.0792	133.301	81.1194	133.301	81.0792	133.301	81.1034	133.301	81.0836	133.301	81.0916
139.16	82.256	139.16	82.2495	139.16	82.2446	139.16	82.2261	139.16	82.2158	139.16	82.1874	139.16	82.1708	139.16	82.1365	139.16	82.112	139.16	82.0766	139.16	82.0425	139.16	82.0118	139.16	81.9662	139.16	81.9459	139.16	81.8874	139.16	81.8823	139.16	81.8102	139.16	81.8238	139.16	81.7386	139.16	81.7719	139.16	81.676	139.16	81.7272	139.16	81.6247	139.16	81.6893	139.16	81.5857	139.16	81.6575	139.16	81.559	139.16	81.6306	139.16	81.5435	139.16	81.6076	139.16	81.5375	139.16	81.5878	139.16	81.5388	139.16	81.5709	139.16	81.5457	139.16	81.5567
143.555	82.5281	143.555	82.5199	143.555	82.5188	143.555	82.4946	143.555	82.4926	143.555	82.4541	143.555	82.4512	143.555	82.4012	143.555	82.3973	143.555	82.3397	143.555	82.3342	143.555	82.2739	143.555	82.2659	143.555	82.2078	143.555	82.1963	143.555	82.1452	143.555	82.1293	143.555	82.089	143.555	82.0683	143.555	82.0408	143.555	82.0156	143.555	82.0013	143.555	81.9729	143.555	81.9702	143.555	81.9403	143.555	81.9464	143.555	81.9174	143.555	81.9286	143.555	81.9028	143.555	81.9156	143.555	81.8948	143.555	81.9061	143.555	81.8916	143.555	81.8993	143.555	81.8919	143.555	81.8946
147.949	82.8215	147.949	82.8146	147.949	82.8108	147.949	82.7906	147.949	82.7832	147.949	82.7511	147.949	82.7404	147.949	82.6989	147.949	82.685	147.949	82.6376	147.949	82.6203	147.949	82.5713	147.949	82.5501	147.949	82.5042	147.949	82.4785	147.949	82.4401	147.949	82.4091	147.949	82.3817	147.949	82.3457	147.949	82.331	147.949	82.2906	147.949	82.2885	147.949	82.2453	147.949	82.2541	147.949	82.2104	147.949	82.2267	147.949	82.1852	147.949	82.2052	147.949	82.1685	147.949	82.1884	147.949	82.159	147.949	82.1755	147.949	82.155	147.949	82.1658	147.949	82.1553	147.949	82.1591
153.809	83.1144	153.809	83.1054	153.809	83.1033	153.809	83.0777	153.809	83.0722	153.809	83.0337	153.809	83.0229	153.809	82.9772	153.809	82.9584	153.809	82.9122	153.809	82.8828	153.809	82.8431	153.809	82.8008	153.809	82.7741	153.809	82.7176	153.809	82.7091	153.809	82.638	153.809	82.651	153.809	82.5664	153.809	82.6017	153.809	82.5061	153.809	82.5619	153.809	82.4593	153.809	82.5311	153.809	82.4267	153.809	82.508	153.809	82.4077	153.809	82.4903	153.809	82.4005	153.809	82.476	153.809	82.4026	153.809	82.463	153.809	82.4111	153.809	82.45	153.809	82.4231	153.809	82.4365
159.668	83.3491	159.668	83.3352	159.668	83.3438	159.668	83.3035	159.668	83.3191	159.668	83.2566	159.668	83.2763	159.668	83.1983	159.668	83.218	159.668	83.1331	159.668	83.1478	159.668	83.066	159.668	83.0705	159.668	83.0015	159.668	82.9917	159.668	82.9434	159.668	82.9169	159.668	82.8944	159.668	82.851	159.668	82.8558	159.668	82.7976	159.668	82.8273	159.668	82.7587	159.668	82.8077	159.668	82.7342	159.668	82.795	159.668	82.7227	159.668	82.7866	159.668	82.7214	159.668	82.7804	159.668	82.7272	159.668	82.7744	159.668	82.7369	159.668	82.7672	159.668	82.7479	159.668	82.7583
165.527	83.6188	165.527	83.6023	165.527	83.615	165.527	83.5666	165.527	83.592	165.527	83.5141	165.527	83.5519	165.527	83.4489	165.527	83.4979	165.527	83.3764	165.527	83.4339	165.527	83.3026	165.527	83.3642	165.527	83.2335	165.527	83.2929	165.527	83.1741	165.527	83.2244	165.527	83.1277	165.527	83.1623	165.527	83.0956	165.527	83.1098	165.527	83.0769	165.527	83.0693	165.527	83.0691	165.527	83.0419	165.527	83.0687	165.527	83.0273	165.527	83.0717	165.527	83.0241	165.527	83.0748	165.527	83.0295	165.527	83.0752	165.527	83.0401	165.527	83.0717	165.527	83.0525	165.527	83.0638
171.387	83.92	171.387	83.8984	171.387	83.9164	171.387	83.8524	171.387	83.8883	171.387	83.785	171.387	83.8387	171.387	83.7009	171.387	83.7715	171.387	83.6063	171.387	83.6922	171.387	83.5081	171.387	83.6064	171.387	83.4137	171.387	83.52	171.387	83.3295	171.387	83.4382	171.387	83.2604	171.387	83.3655	171.387	83.2089	171.387	83.3048	171.387	83.175	171.387	83.2578	171.387	83.1569	171.387	83.2245	171.387	83.151	171.387	83.2035	171.387	83.1534	171.387	83.1924	171.387	83.1605	171.387	83.1878	171.387	83.169	171.387	83.1864	171.387	83.1767	171.387	83.1852	171.387	83.1822
177.246	84.0908	177.246	84.0808	177.246	84.0759	177.246	84.046	177.246	84.0373	177.246	83.9885	177.246	83.9781	177.246	83.912	177.246	83.9026	177.246	83.8222	177.246	83.8161	177.246	83.726	177.246	83.7246	177.246	83.6311	177.246	83.6341	177.246	83.5449	177.246	83.5503	177.246	83.4734	177.246	83.4777	177.246	83.4202	177.246	83.4193	177.246	83.3859	177.246	83.3766	177.246	83.3684	177.246	83.3495	177.246	83.3633	177.246	83.3366	177.246	83.3658	177.246	83.3352	177.246	83.371	177.246	83.3417	177.246	83.3752	177.246	83.3522	177.246	83.3757	177.246	83.3631	177.246	83.3715
183.105	84.2635	183.105	84.2736	183.105	84.2295	183.105	84.2591	183.105	84.1734	183.105	84.2212	183.105	84.0986	183.105	84.1623	183.105	84.0098	183.105	84.0865	183.105	83.9123	183.105	83.999	183.105	83.8123	183.105	83.9061	183.105	83.7156	183.105	83.8145	183.105	83.6275	183.105	83.7303	183.105	83.5519	183.105	83.6584	183.105	83.4918	183.105	83.6015	183.105	83.4483	183.105	83.5597	183.105	83.4215	183.105	83.5312	183.105	83.4098	183.105	83.5126	183.105	83.4107	183.105	83.5002	183.105	83.4205	183.105	83.4902	183.105	83.4355	183.105	83.4797	183.105	83.4519	183.105	83.467
188.965	84.2737	188.965	84.2661	188.965	84.2579	188.965	84.2368	188.965	84.2189	188.965	84.1882	188.965	84.1584	188.965	84.124	188.965	84.0797	188.965	84.0487	188.965	83.9878	188.965	83.9673	188.965	83.8886	188.965	83.8853	188.965	83.7889	188.965	83.8082	188.965	83.6947	188.965	83.7405	188.965	83.6115	188.965	83.6855	188.965	83.5429	188.965	83.644	188.965	83.4911	188.965	83.6149	188.965	83.4566	188.965	83.5952	188.965	83.4389	188.965	83.5806	188.965	83.436	188.965	83.5671	188.965	83.4452	188.965	83.5516	188.965	83.4631	188.965	83.5325	188.965	83.486	188.965	83.5101
196.289	84.419	196.289	84.3992	196.289	84.4115	196.289	84.3548	196.289	84.3762	196.289	84.29	196.289	84.3149	196.289	84.2098	196.289	84.2319	196.289	84.1199	196.289	84.1329	196.289	84.0258	196.289	84.025	196.289	83.9331	196.289	83.9155	196.289	83.8471	196.289	83.8115	196.289	83.7726	196.289	83.7191	196.289	83.7123	196.289	83.6424	196.289	83.6674	196.289	83.5839	196.289	83.6364	196.289	83.5438	196.289	83.6164	196.289	83.5211	196.289	83.6034	196.289	83.5132	196.289	83.5935	196.289	83.5166	196.289	83.5835	196.289	83.5275	196.289	83.5718	196.289	83.5423	196.289	83.5577
203.613	84.5531	203.613	84.5084	203.613	84.5625	203.613	84.4327	203.613	84.5355	203.613	84.333	203.613	84.4744	203.613	84.2176	203.613	84.385	203.613	84.0953	203.613	84.2758	203.613	83.9742	203.613	84.1568	203.613	83.8612	203.613	84.0386	203.613	83.7621	203.613	83.9306	203.613	83.6813	203.613	83.8399	203.613	83.6217	203.613	83.7705	203.613	83.5847	203.613	83.7234	203.613	83.5696	203.613	83.6969	203.613	83.5739	203.613	83.6874	203.613	83.5931	203.613	83.6897	203.613	83.6215	203.613	83.6978	203.613	83.6524	203.613	83.7052	203.613	83.6796	203.613	83.7067	203.613	83.6984
210.938	84.6211	210.938	84.5869	210.938	84.625	210.938	84.5229	210.938	84.6004	210.938	84.4326	210.938	84.551	210.938	84.3221	210.938	84.4818	210.938	84.1991	210.938	84.3988	210.938	84.0723	210.938	84.3082	210.938	83.9503	210.938	84.2166	210.938	83.8408	210.938	84.1298	210.938	83.7504	210.938	84.0524	210.938	83.6842	210.938	83.9874	210.938	83.6443	210.938	83.9359	210.938	83.6299	210.938	83.8972	210.938	83.637	210.938	83.8694	210.938	83.6594	210.938	83.8496	210.938	83.6904	210.938	83.8343	210.938	83.7238	210.938	83.82	210.938	83.7552	210.938	83.8033	210.938	83.782
218.262	84.5416	218.262	84.5319	218.262	84.5209	218.262	84.4912	218.262	84.4728	218.262	84.4214	218.262	84.4016	218.262	84.3277	218.262	84.3131	218.262	84.2179	218.262	84.2141	218.262	84.1019	218.262	84.1124	218.262	83.9907	218.262	84.0158	218.262	83.8952	218.262	83.9321	218.262	83.8242	218.262	83.8677	218.262	83.7837	218.262	83.8267	218.262	83.7746	218.262	83.8106	218.262	83.7936	218.262	83.8178	218.262	83.8327	218.262	83.8439	218.262	83.8821	218.262	83.8821	218.262	83.9314	218.262	83.9246	218.262	83.9717	218.262	83.9633	218.262	83.9968	218.262	83.9913	218.262	84.0034
225.586	84.6671	225.586	84.6755	225.586	84.6261	225.586	84.6525	225.586	84.5531	225.586	84.6014	225.586	84.4513	225.586	84.5267	225.586	84.3267	225.586	84.4344	225.586	84.1886	225.586	84.3318	225.586	84.0486	225.586	84.2268	225.586	83.9189	225.586	84.1286	225.586	83.8107	225.586	84.0465	225.586	83.7316	225.586	83.9887	225.586	83.685	225.586	83.9598	225.586	83.6707	225.586	83.9588	225.586	83.6853	225.586	83.9787	225.586	83.7237	225.586	84.0084	225.586	83.7793	225.586	84.0355	225.586	83.8445	225.586	84.0497	225.586	83.9113	225.586	84.0443	225.586	83.9713	225.586	84.0175
232.91	84.7648	232.91	84.7321	232.91	84.7576	232.91	84.6652	232.91	84.7082	232.91	84.5717	232.91	84.6175	232.91	84.4606	232.91	84.4899	232.91	84.341	232.91	84.3337	232.91	84.2208	232.91	84.1613	232.91	84.1064	232.91	83.9875	232.91	84.0035	232.91	83.8285	232.91	83.917	232.91	83.6984	232.91	83.8516	232.91	83.6069	232.91	83.8104	232.91	83.5582	232.91	83.7936	232.91	83.5508	232.91	83.7979	232.91	83.5782	232.91	83.816	232.91	83.6302	232.91	83.8387	232.91	83.6944	232.91	83.8564	232.91	83.7583	232.91	83.8608	232.91	83.8113	232.91	83.8463
241.699	84.6867	241.699	84.6336	241.699	84.6969	241.699	84.5402	241.699	84.6649	241.699	84.4137	241.699	84.5947	241.699	84.2654	241.699	84.4924	241.699	84.1091	241.699	84.3659	241.699	83.9588	241.699	84.2248	241.699	83.8261	241.699	84.0801	241.699	83.7189	241.699	83.9432	241.699	83.641	241.699	83.8247	241.699	83.5929	241.699	83.7324	241.699	83.5723	241.699	83.6705	241.699	83.5749	241.699	83.6395	241.699	83.5949	241.699	83.6362	241.699	83.6263	241.699	83.6539	241.699	83.6625	241.699	83.6829	241.699	83.6971	241.699	83.7122	241.699	83.7235	241.699	83.732	241.699	83.7362
250.488	84.7829	250.488	84.7725	250.488	84.7437	250.488	84.7095	250.488	84.6613	250.488	84.5962	250.488	84.544	250.488	84.4408	250.488	84.4012	250.488	84.2584	250.488	84.2427	250.488	84.0684	250.488	84.0791	250.488	83.8909	250.488	83.9209	250.488	83.7426	250.488	83.7786	250.488	83.6326	250.488	83.6616	250.488	83.5619	250.488	83.5768	250.488	83.5243	250.488	83.5267	250.488	83.5105	250.488	83.5086	250.488	83.5111	250.488	83.5152	250.488	83.5198	250.488	83.5359	250.488	83.5333	250.488	83.5601	250.488	83.5501	250.488	83.5784	250.488	83.5675	250.488	83.5857	250.488	83.581
259.277	84.8654	259.277	84.8128	259.277	84.868	259.277	84.7158	259.277	84.8172	259.277	84.5805	259.277	84.7136	259.277	84.4136	259.277	84.5639	259.277	84.2241	259.277	84.381	259.277	84.0252	259.277	84.1821	259.277	83.8352	259.277	83.9862	259.277	83.6743	259.277	83.81	259.277	83.5602	259.277	83.6652	259.277	83.5021	259.277	83.5574	259.277	83.4968	259.277	83.4877	259.277	83.5301	259.277	83.454	259.277	83.5818	259.277	83.453	259.277	83.6327	259.277	83.4791	259.277	83.6697	259.277	83.5237	259.277	83.6872	259.277	83.5759	259.277	83.6844	259.277	83.625	259.277	83.6628
268.066	84.8105	268.066	84.7345	268.066	84.8403	268.066	84.6167	268.066	84.8203	268.066	84.4628	268.066	84.7466	268.066	84.2811	268.066	84.6177	268.066	84.0828	268.066	84.4377	268.066	83.8809	268.066	84.2197	268.066	83.6903	268.066	83.986	268.066	83.528	268.066	83.764	268.066	83.4111	268.066	83.5798	268.066	83.3533	268.066	83.4503	268.066	83.3583	268.066	83.3792	268.066	83.4151	268.066	83.3577	268.066	83.4993	268.066	83.3705	268.066	83.581	268.066	83.4026	268.066	83.6357	268.066	83.4442	268.066	83.6524	268.066	83.491	268.066	83.6339	268.066	83.5416	268.066	83.5924
276.855	84.8131	276.855	84.7883	276.855	84.7973	276.855	84.7256	276.855	84.744	276.855	84.6308	276.855	84.6604	276.855	84.5102	276.855	84.5531	276.855	84.3684	276.855	84.4248	276.855	84.2089	276.855	84.2742	276.855	84.0352	276.855	84.101	276.855	83.8526	276.855	83.9102	276.855	83.6689	276.855	83.715	276.855	83.4972	276.855	83.5343	276.855	83.3571	276.855	83.3888	276.855	83.2725	276.855	83.2955	276.855	83.261	276.855	83.2639	276.855	83.3215	276.855	83.2933	276.855	83.4279	276.855	83.3712	276.855	83.5376	276.855	83.4732	276.855	83.6093	276.855	83.5667	276.855	83.619
287.109	84.6565	287.109	84.6414	287.109	84.6375	287.109	84.5864	287.109	84.5912	287.109	84.4904	287.109	84.5219	287.109	84.3597	287.109	84.4318	287.109	84.2073	287.109	84.3228	287.109	84.05	287.109	84.198	287.109	83.9045	287.109	84.0639	287.109	83.7847	287.109	83.9306	287.109	83.6989	287.109	83.8105	287.109	83.6472	287.109	83.7152	287.109	83.622	287.109	83.6512	287.109	83.6112	287.109	83.6168	287.109	83.6037	287.109	83.6033	287.109	83.594	287.109	83.5996	287.109	83.5829	287.109	83.5966	287.109	83.5742	287.109	83.5907	287.109	83.5714	287.109	83.5824	287.109	83.5748
297.363	85.0461	297.363	85.0873	297.363	84.9384	297.363	85.0606	297.363	84.7706	297.363	84.9691	297.363	84.5542	297.363	84.8201	297.363	84.3061	297.363	84.6231	297.363	84.0483	297.363	84.3892	297.363	83.8042	297.363	84.1303	297.363	83.5941	297.363	83.8615	297.363	83.4306	297.363	83.6044	297.363	83.3188	297.363	83.387	297.363	83.259	297.363	83.2387	297.363	83.2495	297.363	83.1789	297.363	83.2856	297.363	83.2071	297.363	83.3577	297.363	83.3015	297.363	83.4503	297.363	83.4272	297.363	83.5454	297.363	83.5485	297.363	83.6252	297.363	83.6379	297.363	83.6743	297.363	83.6807
307.617	84.7609	307.617	84.6881	307.617	84.7815	307.617	84.5664	307.617	84.7471	307.617	84.4022	307.617	84.6552	307.617	84.2077	307.617	84.506	307.617	84.0009	307.617	84.3062	307.617	83.8012	307.617	84.0714	307.617	83.6243	307.617	83.8258	307.617	83.4771	307.617	83.5966	307.617	83.3582	307.617	83.4071	307.617	83.2617	307.617	83.2709	307.617	83.1827	307.617	83.191	307.617	83.121	307.617	83.1623	307.617	83.0808	307.617	83.1743	307.617	83.068	307.617	83.2117	307.617	83.0862	307.617	83.2546	307.617	83.1316	307.617	83.2827	307.617	83.1919	307.617	83.2814	307.617	83.2479
319.336	84.7268	319.336	84.5957	319.336	84.7891	319.336	84.4099	319.336	84.7719	319.336	84.1842	319.336	84.6719	319.336	83.932	319.336	84.4943	319.336	83.6664	319.336	84.2543	319.336	83.4032	319.336	83.9754	319.336	83.1629	319.336	83.6885	319.336	82.9713	319.336	83.427	319.336	82.8531	319.336	83.2199	319.336	82.8225	319.336	83.0834	319.336	82.8754	319.336	83.0193	319.336	82.9895	319.336	83.0183	319.336	83.133	319.336	83.0675	319.336	83.2751	319.336	83.1523	319.336	83.3925	319.336	83.2558	319.336	83.4715	319.336	83.359	319.336	83.5061	319.336	83.4436	319.336	83.4955
329.59	84.5899	329.59	84.4973	329.59	84.6427	329.59	84.3726	329.59	84.6431	329.59	84.2177	329.59	84.5799	329.59	84.0311	329.59	84.4496	329.59	83.8126	329.59	84.2589	329.59	83.5661	329.59	84.0216	329.59	83.3008	329.59	83.7552	329.59	83.0337	329.59	83.4788	329.59	82.7916	329.59	83.2144	329.59	82.6105	329.59	82.9868	329.59	82.5238	329.59	82.818	329.59	82.5442	329.59	82.72	329.59	82.653	329.59	82.6912	329.59	82.8059	329.59	82.7202	329.59	82.9523	329.59	82.7913	329.59	83.053	329.59	82.8866	329.59	83.0884	329.59	82.9845	329.59	83.06
341.309	84.7532	341.309	84.736	341.309	84.6957	341.309	84.6507	341.309	84.5624	341.309	84.5104	341.309	84.354	341.309	84.3324	341.309	84.0743	341.309	84.1337	341.309	83.7361	341.309	83.9251	341.309	83.3694	341.309	83.7095	341.309	83.0211	341.309	83.4865	341.309	82.7426	341.309	83.2597	341.309	82.5687	341.309	83.0441	341.309	82.5041	341.309	82.8655	341.309	82.5271	341.309	82.7512	341.309	82.6047	341.309	82.7156	341.309	82.7069	341.309	82.7519	341.309	82.8121	341.309	82.8341	341.309	82.9065	341.309	82.9273	341.309	82.981	341.309	83.0007	341.309	83.027	341.309	83.0354
353.027	84.3681	353.027	84.3087	353.027	84.3716	353.027	84.1971	353.027	84.3237	353.027	84.0444	353.027	84.2346	353.027	83.8665	353.027	84.1145	353.027	83.6837	353.027	83.9656	353.027	83.5171	353.027	83.782	353.027	83.3812	353.027	83.5561	353.027	83.2766	353.027	83.2897	353.027	83.1894	353.027	83.0023	353.027	83.1033	353.027	82.7293	353.027	83.0139	353.027	82.5119	353.027	82.9345	353.027	82.3808	353.027	82.8854	353.027	82.3468	353.027	82.8752	353.027	82.399	353.027	82.8924	353.027	82.5105	353.027	82.9116	353.027	82.646	353.027	82.9071	353.027	82.7713	353.027	82.8618
366.211	83.138	366.211	83.0392	366.211	83.1607	366.211	82.8673	366.211	83.1215	366.211	82.6424	366.211	83.0469	366.211	82.3984	366.211	82.9693	366.211	82.178	366.211	82.9205	366.211	82.028	366.211	82.9232	366.211	81.9917	366.211	82.9837	366.211	82.0929	366.211	83.0901	366.211	82.3185	366.211	83.2196	366.211	82.6177	366.211	83.349	366.211	82.924	366.211	83.462	366.211	83.1827	366.211	83.5518	366.211	83.3689	366.211	83.62	366.211	83.4882	366.211	83.6716	366.211	83.5646	366.211	83.7099	366.211	83.6221	366.211	83.7325	366.211	83.6723	366.211	83.7341	366.211	83.7124
379.395	85.0265	379.395	84.9416	379.395	84.9933	379.395	84.7379	379.395	84.8424	379.395	84.4189	379.395	84.5726	379.395	83.9975	379.395	84.1877	379.395	83.5003	379.395	83.7073	379.395	82.9698	379.395	83.1805	379.395	82.4658	379.395	82.6892	379.395	82.0635	379.395	82.333	379.395	81.843	379.395	82.1897	379.395	81.86	379.395	82.2751	379.395	82.1143	379.395	82.5402	379.395	82.5449	379.395	82.9056	379.395	83.0585	379.395	83.3002	379.395	83.5649	379.395	83.6772	379.395	83.9968	379.395	84.0095	379.395	84.3131	379.395	84.2779	379.395	84.4949	379.395	84.4622	379.395	84.5409
392.578	85.3016	392.578	85.2619	392.578	85.2662	392.578	85.1307	392.578	85.1594	392.578	84.8934	392.578	84.9683	392.578	84.5515	392.578	84.6736	392.578	84.1287	392.578	84.267	392.578	83.6681	392.578	83.7657	392.578	83.2221	392.578	83.2187	392.578	82.8386	392.578	82.7016	392.578	82.55	392.578	82.2998	392.578	82.3698	392.578	82.0819	392.578	82.297	392.578	82.0717	392.578	82.3247	392.578	82.2368	392.578	82.4439	392.578	82.5062	392.578	82.6388	392.578	82.8023	392.578	82.8775	392.578	83.0665	392.578	83.1124	392.578	83.2638	392.578	83.2935	392.578	83.3743	392.578	83.3854
405.762	85.3057	405.762	85.1586	405.762	85.3618	405.762	84.9237	405.762	85.3228	405.762	84.6074	405.762	85.1818	405.762	84.2227	405.762	84.9294	405.762	83.7909	405.762	84.559	405.762	83.3415	405.762	84.0751	405.762	82.9089	405.762	83.5059	405.762	82.5329	405.762	82.9152	405.762	82.2612	405.762	82.4044	405.762	82.1406	405.762	82.0815	405.762	82.1924	405.762	82.0008	405.762	82.3889	405.762	82.1294	405.762	82.6604	405.762	82.3785	405.762	82.9294	405.762	82.6596	405.762	83.1413	405.762	82.9133	405.762	83.2739	405.762	83.111	405.762	83.3293	405.762	83.2451	405.762	83.3176
420.41	85.2445	420.41	85.1792	420.41	85.2204	420.41	85.0192	420.41	85.1134	420.41	84.7616	420.41	84.9288	420.41	84.4063	420.41	84.6706	420.41	83.9596	420.41	84.3436	420.41	83.4396	420.41	83.9569	420.41	82.882	420.41	83.5238	420.41	82.3423	420.41	83.06	420.41	81.8905	420.41	82.59	420.41	81.6039	420.41	82.1604	420.41	81.5506	420.41	81.8433	420.41	81.755	420.41	81.7078	420.41	82.1634	420.41	81.7778	420.41	82.6566	420.41	82.0217	420.41	83.1035	420.41	82.3783	420.41	83.4052	420.41	82.7784	420.41	83.5101	420.41	83.1481	420.41	83.4129
435.059	85.1306	435.059	85.0714	435.059	85.1246	435.059	84.9393	435.059	85.0491	435.059	84.7156	435.059	84.8938	435.059	84.379	435.059	84.6505	435.059	83.9205	435.059	84.3201	435.059	83.3581	435.059	83.9155	435.059	82.7453	435.059	83.4596	435.059	82.1627	435.059	82.9833	435.059	81.6928	435.059	82.5289	435.059	81.3915	435.059	82.1571	435.059	81.2825	435.059	81.9432	435.059	81.3712	435.059	81.9447	435.059	81.6456	435.059	82.1546	435.059	82.0562	435.059	82.4929	435.059	82.5134	435.059	82.8507	435.059	82.9179	435.059	83.1383	435.059	83.1992	435.059	83.305	435.059	83.3286
451.172	85.7433	451.172	85.5806	451.172	85.7458	451.172	85.2693	451.172	85.5927	451.172	84.843	451.172	85.2978	451.172	84.3521	451.172	84.8791	451.172	83.8458	451.172	84.362	451.172	83.3516	451.172	83.7868	451.172	82.871	451.172	83.2133	451.172	82.4009	451.172	82.7135	451.172	81.9637	451.172	82.3498	451.172	81.6131	451.172	82.1462	451.172	81.4031	451.172	82.077	451.172	81.3493	451.172	82.0882	451.172	81.4226	451.172	82.1327	451.172	81.5742	451.172	82.1887	451.172	81.7602	451.172	82.248	451.172	81.9498	451.172	82.2943	451.172	82.1187	451.172	82.2997	451.172	82.2416
465.82	85.4624	465.82	85.4672	465.82	85.3912	465.82	85.3701	465.82	85.2745	465.82	85.138	465.82	85.1065	465.82	84.7526	465.82	84.86	465.82	84.2157	465.82	84.5049	465.82	83.555	465.82	84.0276	465.82	82.8316	465.82	83.4457	465.82	82.1443	465.82	82.8177	465.82	81.616	465.82	82.2436	465.82	81.3512	465.82	81.8384	465.82	81.3814	465.82	81.6725	465.82	81.6493	465.82	81.7306	465.82	82.0537	465.82	81.939	465.82	82.498	465.82	82.2255	465.82	82.9032	465.82	82.5455	465.82	83.2032	465.82	82.8662	465.82	83.3486	465.82	83.1438	465.82	83.3216
483.398	85.66	483.398	85.5799	483.398	85.6734	483.398	85.4161	483.398	85.6183	483.398	85.1467	483.398	85.4715	483.398	84.7622	483.398	85.201	483.398	84.2748	483.398	84.7846	483.398	83.7155	483.398	84.2269	483.398	83.1217	483.398	83.5658	483.398	82.5217	483.398	82.8671	483.398	81.9362	483.398	82.2138	483.398	81.4049	483.398	81.6995	483.398	81.0212	483.398	81.419	483.398	80.9204	483.398	81.4241	483.398	81.1755	483.398	81.6703	483.398	81.7003	483.398	82.0401	483.398	82.3028	483.398	82.4265	483.398	82.8045	483.398	82.7713	483.398	83.101	483.398	83.0358	483.398	83.1664
499.512	85.5541	499.512	85.5155	499.512	85.5217	499.512	85.3936	499.512	85.4148	499.512	85.1538	499.512	85.2274	499.512	84.7537	499.512	84.9522	499.512	84.1762	499.512	84.5735	499.512	83.459	499.512	84.0708	499.512	82.7048	499.512	83.4426	499.512	82.0549	499.512	82.736	499.512	81.6217	499.512	82.0605	499.512	81.4254	499.512	81.5604	499.512	81.4092	499.512	81.3436	499.512	81.5136	499.512	81.42	499.512	81.7172	499.512	81.7147	499.512	82.0166	499.512	82.122	499.512	82.3831	499.512	82.5405	499.512	82.7464	499.512	82.8864	499.512	83.0218	499.512	83.0999	499.512	83.1476
517.09	85.8662	517.09	85.6929	517.09	85.9308	517.09	85.4451	517.09	85.8516	517.09	85.1341	517.09	85.621	517.09	84.745	517.09	85.2653	517.09	84.2456	517.09	84.8223	517.09	83.5998	517.09	84.3126	517.09	82.7899	517.09	83.7382	517.09	81.8558	517.09	83.11	517.09	80.9335	517.09	82.4751	517.09	80.2452	517.09	81.9174	517.09	79.9852	517.09	81.5264	517.09	80.1789	517.09	81.3543	517.09	80.6811	517.09	81.3955	517.09	81.297	517.09	81.6041	517.09	81.8723	517.09	81.9151	517.09	82.314	517.09	82.2487	517.09	82.5753	517.09	82.5156	517.09	82.6392
536.133	85.9703	536.133	85.9027	536.133	85.9216	536.133	85.7193	536.133	85.7646	536.133	85.4336	536.133	85.504	536.133	85.061	536.133	85.1409	536.133	84.6077	536.133	84.6851	536.133	84.0782	536.133	84.1487	536.133	83.4861	536.133	83.5207	536.133	82.8468	536.133	82.7744	536.133	82.1617	536.133	81.9399	536.133	81.4378	536.133	81.1761	536.133	80.7623	536.133	80.7122	536.133	80.353	536.133	80.6482	536.133	80.4069	536.133	80.8777	536.133	80.8428	536.133	81.2415	536.133	81.3812	536.133	81.6234	536.133	81.814	536.133	81.9324	536.133	82.0713	536.133	82.1147	536.133	82.1628
555.176	85.8663	555.176	85.8052	555.176	85.873	555.176	85.6574	555.176	85.8443	555.176	85.4046	555.176	85.7522	555.176	85.0367	555.176	85.5291	555.176	84.5237	555.176	85.1239	555.176	83.8091	555.176	84.5562	555.176	82.8589	555.176	83.904	555.176	81.7604	555.176	83.2265	555.176	80.8029	555.176	82.5202	555.176	80.3441	555.176	81.8032	555.176	80.4241	555.176	81.2429	555.176	80.7546	555.176	81.0647	555.176	81.1306	555.176	81.2565	555.176	81.5607	555.176	81.6048	555.176	82.0749	555.176	81.9792	555.176	82.5744	555.176	82.3642	555.176	82.8955	555.176	82.7217	555.176	82.9373
574.219	86.1169	574.219	85.9028	574.219	86.1491	574.219	85.5503	574.219	85.9808	574.219	85.1166	574.219	85.6229	574.219	84.6631	574.219	85.1036	574.219	84.2374	574.219	84.46	574.219	83.8364	574.219	83.7511	574.219	83.3775	574.219	83.052	574.219	82.7263	574.219	82.4059	574.219	81.7957	574.219	81.797	574.219	80.6899	574.219	81.2289	574.219	79.8076	574.219	80.8435	574.219	79.5983	574.219	80.8378	574.219	80.0338	574.219	81.2048	574.219	80.7367	574.219	81.7321	574.219	81.439	574.219	82.2271	574.219	82.0406	574.219	82.5988	574.219	82.5013	574.219	82.7966	574.219	82.7685
594.727	86.1606	594.727	86.1884	594.727	86.0343	594.727	86.0731	594.727	85.8428	594.727	85.7833	594.727	85.621	594.727	85.3258	594.727	85.3929	594.727	84.7162	594.727	85.1039	594.727	83.9429	594.727	84.614	594.727	83	594.727	83.821	594.727	81.9661	594.727	82.8074	594.727	81.0335	594.727	81.828	594.727	80.3966	594.727	81.0819	594.727	80.0743	594.727	80.5652	594.727	79.9919	594.727	80.2414	594.727	80.2081	594.727	80.1747	594.727	80.7424	594.727	80.426	594.727	81.3263	594.727	80.924	594.727	81.7028	594.727	81.4556	594.727	81.8723	594.727	81.8049	594.727	81.9169
615.234	85.5128	615.234	85.5463	615.234	85.5243	615.234	85.5443	615.234	85.5546	615.234	85.3782	615.234	85.5104	615.234	84.9703	615.234	85.3283	615.234	84.3566	615.234	85.0049	615.234	83.6644	615.234	84.5193	615.234	82.9998	615.234	83.7959	615.234	82.3462	615.234	82.7847	615.234	81.6025	615.234	81.552	615.234	80.7468	615.234	80.3099	615.234	80.0104	615.234	79.3806	615.234	79.7844	615.234	79.09	615.234	80.1254	615.234	79.5219	615.234	80.7151	615.234	80.3322	615.234	81.2937	615.234	81.0614	615.234	81.7276	615.234	81.5208	615.234	81.9365	615.234	81.7784	615.234	81.9265
637.207	85.5708	637.207	85.3765	637.207	85.7036	637.207	85.2377	637.207	85.646	637.207	85.1466	637.207	85.3652	637.207	84.9755	637.207	84.933	637.207	84.5883	637.207	84.4389	637.207	83.9283	637.207	83.9148	637.207	83.0431	637.207	83.3527	637.207	82.0497	637.207	82.7388	637.207	81.0401	637.207	82.0559	637.207	80.0734	637.207	81.3124	637.207	79.3446	637.207	80.6144	637.207	79.1266	637.207	80.1885	637.207	79.3656	637.207	80.2382	637.207	79.7972	637.207	80.737	637.207	80.3474	637.207	81.4519	637.207	81.0388	637.207	82.0932	637.207	81.7592	637.207	82.41	637.207	82.2807
659.18	85.6529	659.18	85.4152	659.18	85.7674	659.18	85.056	659.18	85.7477	659.18	84.6255	659.18	85.5375	659.18	84.1824	659.18	85.1242	659.18	83.7414	659.18	84.5789	659.18	83.2563	659.18	83.9771	659.18	82.5974	659.18	83.3293	659.18	81.604	659.18	82.5898	659.18	80.3069	659.18	81.7152	659.18	79.1332	659.18	80.7519	659.18	78.5852	659.18	79.9378	659.18	78.6769	659.18	79.5956	659.18	79.2627	659.18	79.7714	659.18	80.2216	659.18	80.246	659.18	81.1878	659.18	80.7917	659.18	81.7955	659.18	81.2561	659.18	81.9686	659.18	81.6026	659.18	81.8536
682.617	85.7408	682.617	85.7343	682.617	85.554	682.617	85.5162	682.617	85.3103	682.617	85.1545	682.617	85.1799	682.617	84.7649	682.617	85.1314	682.617	84.3828	682.617	84.9186	682.617	83.8942	682.617	84.3457	682.617	83.1607	682.617	83.3975	682.617	82.1856	682.617	82.1666	682.617	81.0728	682.617	80.7818	682.617	79.8338	682.617	79.3934	682.617	78.6265	682.617	78.3143	682.617	78.0487	682.617	78.0983	682.617	78.3303	682.617	78.8293	682.617	79.0349	682.617	79.8709	682.617	79.9574	682.617	80.6691	682.617	80.9786	682.617	81.1399	682.617	81.6921	682.617	81.5113	682.617	81.8082
707.52	85.3663	707.52	85.3944	707.52	85.3841	707.52	85.305	707.52	85.4767	707.52	85.0004	707.52	85.5348	707.52	84.5718	707.52	85.4492	707.52	84.1902	707.52	85.1799	707.52	83.8255	707.52	84.7325	707.52	83.1597	707.52	84.0648	707.52	81.9992	707.52	83.0352	707.52	80.6262	707.52	81.6059	707.52	79.5652	707.52	80.1348	707.52	78.8551	707.52	78.9773	707.52	78.3646	707.52	77.8828	707.52	78.475	707.52	77.142	707.52	79.1818	707.52	77.9716	707.52	79.9091	707.52	79.5793	707.52	80.3752	707.52	80.5868	707.52	80.6296	707.52	80.8689	707.52	80.7958
732.422	85.6636	732.422	85.4869	732.422	85.8884	732.422	85.4553	732.422	85.9131	732.422	85.4056	732.422	85.644	732.422	85.1853	732.422	85.2143	732.422	84.7976	732.422	84.7978	732.422	84.2156	732.422	84.4493	732.422	83.3531	732.422	84.1147	732.422	82.297	732.422	83.6933	732.422	81.1891	732.422	83.0522	732.422	79.7862	732.422	82.055	732.422	77.7292	732.422	80.7791	732.422	75.9248	732.422	79.7977	732.422	76.5119	732.422	79.6275	732.422	78.1075	732.422	79.9551	732.422	79.4838	732.422	80.438	732.422	80.757	732.422	81.0452	732.422	81.7043	732.422	81.6609	732.422	81.9889
757.324	86.9449	757.324	86.7653	757.324	86.927	757.324	86.4449	757.324	86.7512	757.324	86.0006	757.324	86.5019	757.324	85.4338	757.324	86.2239	757.324	84.9353	757.324	86.0184	757.324	84.6143	757.324	85.8476	757.324	84.132	757.324	85.2958	757.324	83.1837	757.324	84.0444	757.324	81.8351	757.324	82.3747	757.324	80.2269	757.324	80.8225	757.324	78.3822	757.324	79.1944	757.324	76.7389	757.324	77.217	757.324	76.5253	757.324	76.6991	757.324	78.108	757.324	78.1533	757.324	80.0757	757.324	79.4357	757.324	81.3306	757.324	80.281	757.324	81.7326	757.324	81.0089	757.324	81.5514
785.156	85.1893	785.156	85.5836	785.156	84.6201	785.156	85.4803	785.156	84.4561	785.156	85.1659	785.156	84.7778	785.156	85.0008	785.156	85.133	785.156	84.7204	785.156	85.0733	785.156	83.9599	785.156	84.5417	785.156	82.8265	785.156	83.9555	785.156	81.5437	785.156	83.5395	785.156	80.0972	785.156	82.8332	785.156	78.5644	785.156	81.7297	785.156	77.4389	785.156	81.219	785.156	77.3119	785.156	81.1859	785.156	78.5168	785.156	80.4782	785.156	80.4269	785.156	79.69	785.156	81.4866	785.156	80.3446	785.156	81.4542	785.156	81.3061	785.156	81.2997	785.156	81.6683	785.156	81.5309
811.523	86.1265	811.523	86.3586	811.523	86.0121	811.523	86.6092	811.523	85.8588	811.523	86.6744	811.523	85.6253	811.523	86.6262	811.523	85.436	811.523	86.4136	811.523	85.3645	811.523	85.621	811.523	85.3784	811.523	84.3517	811.523	85.3132	811.523	83.3022	811.523	84.9909	811.523	82.3156	811.523	84.2767	811.523	80.5281	811.523	82.9806	811.523	78.4306	811.523	81.4022	811.523	78.6387	811.523	80.5369	811.523	80.1012	811.523	80.2784	811.523	80.9993	811.523	80.5503	811.523	81.883	811.523	81.755	811.523	82.8965	811.523	82.7293	811.523	83.4443	811.523	83.0382	811.523	83.3112
840.82	86.423	840.82	86.5007	840.82	86.3549	840.82	86.6594	840.82	86.1826	840.82	86.6086	840.82	85.8529	840.82	86.078	840.82	85.4108	840.82	85.4081	840.82	85.181	840.82	84.7742	840.82	85.3713	840.82	83.6957	840.82	85.4786	840.82	82.3835	840.82	85.2629	840.82	81.7393	840.82	84.8562	840.82	81.2583	840.82	83.9818	840.82	79.8666	840.82	82.7421	840.82	77.9657	840.82	82.1488	840.82	77.9987	840.82	82.2167	840.82	80.4	840.82	82.319	840.82	82.6097	840.82	82.8524	840.82	83.7776	840.82	83.5792	840.82	84.1014	840.82	83.9428	840.82	84.0664
870.117	86.9052	870.117	87.0956	870.117	86.6833	870.117	87.2328	870.117	86.6329	870.117	87.3154	870.117	86.7862	870.117	87.2472	870.117	86.6077	870.117	87.0059	870.117	85.7549	870.117	86.636	870.117	84.9284	870.117	85.9243	870.117	84.7525	870.117	84.7664	870.117	84.5972	870.117	83.3348	870.117	84.1349	870.117	81.3382	870.117	83.2457	870.117	78.9004	870.117	81.5955	870.117	77.9206	870.117	80.4686	870.117	78.2051	870.117	80.9511	870.117	78.855	870.117	81.4666	870.117	81.0388	870.117	82.3601	870.117	83.1083	870.117	83.5201	870.117	83.6761	870.117	83.808	870.117	83.6062
900.879	87.6133	900.879	87.5781	900.879	87.2804	900.879	87.4606	900.879	86.7857	900.879	87.4302	900.879	86.5805	900.879	87.2466	900.879	86.762	900.879	86.7149	900.879	86.7986	900.879	85.8445	900.879	86.2447	900.879	84.8453	900.879	85.6045	900.879	83.8461	900.879	85.1702	900.879	82.7093	900.879	84.3181	900.879	81.1187	900.879	83.2204	900.879	78.6355	900.879	82.5407	900.879	75.6184	900.879	81.8922	900.879	75.3398	900.879	81.278	900.879	77.6303	900.879	82.0032	900.879	79.6107	900.879	83.1556	900.879	81.4792	900.879	83.6364	900.879	82.8746	900.879	83.7369	900.879	83.5548
933.105	86.3325	933.105	86.7814	933.105	86.3046	933.105	87.1757	933.105	86.3268	933.105	87.0193	933.105	86.254	933.105	86.6557	933.105	86.1739	933.105	86.51	933.105	85.7242	933.105	86.4331	933.105	84.9068	933.105	86.0304	933.105	84.2785	933.105	85.235	933.105	83.9627	933.105	84.1776	933.105	83.7675	933.105	82.3787	933.105	82.8575	933.105	79.5338	933.105	80.3389	933.105	76.8935	933.105	77.9044	933.105	75.5167	933.105	77.7577	933.105	75.9215	933.105	78.5209	933.105	78.9692	933.105	80.9139	933.105	82.0223	933.105	82.4616	933.105	83.006	933.105	82.4795	933.105	82.5632
965.332	87.2475	965.332	87.0925	965.332	86.8941	965.332	87.0203	965.332	86.1102	965.332	87.0901	965.332	85.6058	965.332	86.6384	965.332	85.6862	965.332	85.7543	965.332	85.8307	965.332	85.18	965.332	85.5931	965.332	84.8928	965.332	84.9796	965.332	84.3769	965.332	84.326	965.332	83.6485	965.332	83.4642	965.332	82.7159	965.332	82.1749	965.332	81.1044	965.332	80.8173	965.332	78.63	965.332	78.5492	965.332	76.9566	965.332	77.9746	965.332	76.9637	965.332	79.8696	965.332	77.9675	965.332	80.938	965.332	80.156	965.332	81.9297	965.332	81.639	965.332	82.6377	965.332	82.3972
1,000.49	85.9613	1,000.49	85.7178	1,000.49	86.0035	1,000.49	85.6453	1,000.49	86.0109	1,000.49	85.6759	1,000.49	86.1297	1,000.49	85.2811	1,000.49	86.1922	1,000.49	84.8251	1,000.49	85.6439	1,000.49	84.7337	1,000.49	84.6557	1,000.49	84.5635	1,000.49	84.0383	1,000.49	84.3325	1,000.49	83.8185	1,000.49	84.2635	1,000.49	83.7322	1,000.49	83.1613	1,000.49	82.9752	1,000.49	80.2203	1,000.49	80.7887	1,000.49	76.6095	1,000.49	78.7865	1,000.49	75.8255	1,000.49	77.9342	1,000.49	78.5867	1,000.49	77.7477	1,000.49	80.1999	1,000.49	79.9531	1,000.49	81.5558	1,000.49	81.4014	1,000.49	82.1817	1,000.49	81.5877	1,000.49	81.7419
1,035.64	86.5062	1,035.64	86.3375	1,035.64	86.5689	1,035.64	86.1921	1,035.64	86.4448	1,035.64	86.269	1,035.64	86.1482	1,035.64	86.1977	1,035.64	86.0461	1,035.64	85.7976	1,035.64	85.7708	1,035.64	85.4031	1,035.64	84.6562	1,035.64	85.1179	1,035.64	83.4035	1,035.64	84.5256	1,035.64	82.736	1,035.64	83.0634	1,035.64	82.2033	1,035.64	81.1492	1,035.64	81.2717	1,035.64	79.6074	1,035.64	79.6672	1,035.64	76.7709	1,035.64	78.8554	1,035.64	72.1677	1,035.64	78.1159	1,035.64	75.1623	1,035.64	76.9698	1,035.64	78.2951	1,035.64	79.2117	1,035.64	79.916	1,035.64	80.8861	1,035.64	80.6149	1,035.64	81.6377	1,035.64	81.4381
1,072.27	85.9367	1,072.27	84.971	1,072.27	86.9876	1,072.27	84.7166	1,072.27	87.2613	1,072.27	84.7404	1,072.27	86.9032	1,072.27	84.7143	1,072.27	86.4624	1,072.27	84.628	1,072.27	85.818	1,072.27	84.321	1,072.27	84.9319	1,072.27	83.4758	1,072.27	83.6398	1,072.27	82.3947	1,072.27	82.3646	1,072.27	82.5027	1,072.27	81.717	1,072.27	81.635	1,072.27	80.6808	1,072.27	78.4119	1,072.27	79.1687	1,072.27	74.403	1,072.27	76.1676	1,072.27	66.4708	1,072.27	74.0729	1,072.27	76.0044	1,072.27	75.8406	1,072.27	78.6997	1,072.27	78.2047	1,072.27	79.3973	1,072.27	80.1936	1,072.27	80.2341	1,072.27	80.3392	1,072.27	80.1483
1,108.89	87.2848	1,108.89	87.0758	1,108.89	87.0105	1,108.89	86.2207	1,108.89	87.1073	1,108.89	85.6305	1,108.89	87.0193	1,108.89	85.2319	1,108.89	86.4741	1,108.89	85.0736	1,108.89	86.1397	1,108.89	85.0436	1,108.89	85.5864	1,108.89	84.5991	1,108.89	84.7653	1,108.89	84.3158	1,108.89	83.8464	1,108.89	83.7665	1,108.89	82.4878	1,108.89	82.7085	1,108.89	81.6371	1,108.89	81.6663	1,108.89	80.8471	1,108.89	78.7691	1,108.89	78.5733	1,108.89	72.3619	1,108.89	76.0145	1,108.89	68.893	1,108.89	71.8347	1,108.89	73.1227	1,108.89	76.1058	1,108.89	76.1881	1,108.89	79.6558	1,108.89	77.1958	1,108.89	80.0672	1,108.89	78.5606
1,148.44	85.8741	1,148.44	86.1803	1,148.44	85.7114	1,148.44	85.6638	1,148.44	85.6689	1,148.44	84.7831	1,148.44	85.1921	1,148.44	84.532	1,148.44	84.745	1,148.44	84.0447	1,148.44	84.4837	1,148.44	83.0011	1,148.44	84.5196	1,148.44	82.6436	1,148.44	84.5148	1,148.44	82.0214	1,148.44	83.67	1,148.44	80.745	1,148.44	82.9174	1,148.44	80.0235	1,148.44	80.44	1,148.44	78.1927	1,148.44	78.0891	1,148.44	76.5897	1,148.44	78.05	1,148.44	72.445	1,148.44	75.1746	1,148.44	61.5232	1,148.44	73.6149	1,148.44	74.7235	1,148.44	74.6225	1,148.44	77.4225	1,148.44	77.0674	1,148.44	78.4395	1,148.44	78.705	1,148.44	79.0786
1,189.45	86.0785	1,189.45	85.8197	1,189.45	85.6882	1,189.45	85.5339	1,189.45	85.1414	1,189.45	84.9952	1,189.45	84.8374	1,189.45	83.9859	1,189.45	84.2485	1,189.45	83.6082	1,189.45	83.9295	1,189.45	83.3499	1,189.45	83.8852	1,189.45	82.3782	1,189.45	83.6332	1,189.45	81.4491	1,189.45	82.963	1,189.45	80.8189	1,189.45	82.2048	1,189.45	79.8413	1,189.45	81.5128	1,189.45	79.6231	1,189.45	79.8179	1,189.45	78.4305	1,189.45	76.8478	1,189.45	73.8722	1,189.45	73.4306	1,189.45	67.7936	1,189.45	70.1158	1,189.45	73.1302	1,189.45	75.6785	1,189.45	76.1318	1,189.45	79.3292	1,189.45	78.829	1,189.45	79.8534	1,189.45	79.6413
1,230.47	85.5821	1,230.47	85.5629	1,230.47	85.4455	1,230.47	84.5922	1,230.47	85.4365	1,230.47	84.042	1,230.47	85.0398	1,230.47	83.2929	1,230.47	84.3798	1,230.47	82.1269	1,230.47	83.5032	1,230.47	82.1849	1,230.47	82.5369	1,230.47	81.8812	1,230.47	82.3595	1,230.47	81.9737	1,230.47	82.3236	1,230.47	82.1645	1,230.47	81.3547	1,230.47	81.7972	1,230.47	79.4802	1,230.47	79.2753	1,230.47	77.1875	1,230.47	76.3965	1,230.47	75.5449	1,230.47	74.3682	1,230.47	73.519	1,230.47	69.8923	1,230.47	72.1347	1,230.47	74.1636	1,230.47	73.0075	1,230.47	77.6818	1,230.47	76.113	1,230.47	79.0036	1,230.47	79.6014	1,230.47	80.2499
1,274.41	85.7337	1,274.41	85.3555	1,274.41	85.4241	1,274.41	85.0109	1,274.41	84.7273	1,274.41	84.2007	1,274.41	84.9905	1,274.41	83.3418	1,274.41	84.5304	1,274.41	82.6734	1,274.41	83.2431	1,274.41	82.2024	1,274.41	82.957	1,274.41	81.8588	1,274.41	82.6884	1,274.41	81.5132	1,274.41	82.2061	1,274.41	81.2492	1,274.41	81.3884	1,274.41	80.6519	1,274.41	81.417	1,274.41	79.0167	1,274.41	79.7315	1,274.41	77.2664	1,274.41	75.0197	1,274.41	73.144	1,274.41	70.0223	1,274.41	66.6361	1,274.41	68.0261	1,274.41	71.9085	1,274.41	73.5403	1,274.41	75.6881	1,274.41	76.856	1,274.41	77.693	1,274.41	77.9827	1,274.41	78.356
1,319.82	85.0653	1,319.82	84.549	1,319.82	85.2163	1,319.82	83.978	1,319.82	84.5713	1,319.82	83.2608	1,319.82	84.2502	1,319.82	82.2443	1,319.82	83.5963	1,319.82	81.2766	1,319.82	82.5267	1,319.82	80.3612	1,319.82	81.825	1,319.82	79.7249	1,319.82	81.8286	1,319.82	80.7861	1,319.82	82.2247	1,319.82	81.0768	1,319.82	81.9671	1,319.82	80.8729	1,319.82	80.8579	1,319.82	80.1198	1,319.82	79.8606	1,319.82	77.9857	1,319.82	78.0531	1,319.82	76.7799	1,319.82	75.8114	1,319.82	71.4765	1,319.82	71.3688	1,319.82	71.5387	1,319.82	73.1399	1,319.82	76.4577	1,319.82	75.8984	1,319.82	77.694	1,319.82	77.9026	1,319.82	77.9313
1,366.7	85.5169	1,366.7	85.0241	1,366.7	85.432	1,366.7	84.3215	1,366.7	84.3698	1,366.7	83.8272	1,366.7	84.3003	1,366.7	83.6672	1,366.7	84.037	1,366.7	82.124	1,366.7	82.79	1,366.7	81.9774	1,366.7	81.0018	1,366.7	80.3697	1,366.7	80.1019	1,366.7	78.4915	1,366.7	79.8106	1,366.7	78.3572	1,366.7	79.3309	1,366.7	79.2652	1,366.7	78.8843	1,366.7	77.6967	1,366.7	77.705	1,366.7	74.7558	1,366.7	73.6437	1,366.7	71.2478	1,366.7	67.7945	1,366.7	69.9893	1,366.7	57.7558	1,366.7	72.4219	1,366.7	72.7082	1,366.7	76.8677	1,366.7	76.8772	1,366.7	77.9526	1,366.7	78.2259	1,366.7	79.1171
1,413.57	85.9448	1,413.57	85.7826	1,413.57	86.4304	1,413.57	85.1128	1,413.57	86.1949	1,413.57	84.7168	1,413.57	85.193	1,413.57	84.095	1,413.57	84.0982	1,413.57	81.5899	1,413.57	82.745	1,413.57	81.3718	1,413.57	81.5374	1,413.57	80.6109	1,413.57	80.5624	1,413.57	79.0902	1,413.57	79.1139	1,413.57	80.1639	1,413.57	78.7464	1,413.57	80.6283	1,413.57	79.6334	1,413.57	79.9632	1,413.57	77.2901	1,413.57	78.5822	1,413.57	76.5021	1,413.57	75.6668	1,413.57	74.3693	1,413.57	69.0538	1,413.57	66.4826	1,413.57	69.5001	1,413.57	69.609	1,413.57	76.7359	1,413.57	76.2457	1,413.57	78.5966	1,413.57	79.0038	1,413.57	80.4099
1,463.38	86.6898	1,463.38	86.4435	1,463.38	86.4366	1,463.38	86.1141	1,463.38	85.7191	1,463.38	85.2245	1,463.38	84.7901	1,463.38	84.0044	1,463.38	83.271	1,463.38	81.7743	1,463.38	81.8013	1,463.38	81.1278	1,463.38	81.0647	1,463.38	81.4356	1,463.38	80.8603	1,463.38	80.8306	1,463.38	80.0956	1,463.38	79.6991	1,463.38	79.9176	1,463.38	79.6903	1,463.38	79.5252	1,463.38	80.7256	1,463.38	79.8508	1,463.38	80.2714	1,463.38	79.6219	1,463.38	76.3396	1,463.38	75.2955	1,463.38	68.4023	1,463.38	67.7916	1,463.38	68.0759	1,463.38	51.8873	1,463.38	74.8751	1,463.38	75.8692	1,463.38	77.5568	1,463.38	77.2245	1,463.38	77.8087
1,516.11	86.6812	1,516.11	86.7409	1,516.11	86.1579	1,516.11	86.5963	1,516.11	86.1367	1,516.11	84.9167	1,516.11	85.3917	1,516.11	83.7661	1,516.11	83.183	1,516.11	82.024	1,516.11	81.7345	1,516.11	81.1729	1,516.11	81.0075	1,516.11	80.5616	1,516.11	79.1009	1,516.11	79.6919	1,516.11	79.0926	1,516.11	80.3476	1,516.11	79.3041	1,516.11	80.6465	1,516.11	79.6864	1,516.11	79.4087	1,516.11	80.236	1,516.11	79.2878	1,516.11	79.8138	1,516.11	76.9583	1,516.11	77.0773	1,516.11	68.471	1,516.11	72.2986	1,516.11	66.9997	1,516.11	63.5518	1,516.11	71.7347	1,516.11	73.6681	1,516.11	76.5662	1,516.11	77.6122	1,516.11	78.2431
1,568.85	85.8449	1,568.85	85.5362	1,568.85	85.4368	1,568.85	85.016	1,568.85	84.7967	1,568.85	84.1634	1,568.85	84.6821	1,568.85	83.052	1,568.85	82.9182	1,568.85	81.2923	1,568.85	82.684	1,568.85	78.7988	1,568.85	82.1816	1,568.85	78.0681	1,568.85	81.3941	1,568.85	76.7703	1,568.85	80.6054	1,568.85	77.8005	1,568.85	80.3019	1,568.85	79.536	1,568.85	79.5976	1,568.85	79.4546	1,568.85	78.9277	1,568.85	77.5774	1,568.85	79.2253	1,568.85	76.3009	1,568.85	76.7861	1,568.85	69.387	1,568.85	71.722	1,568.85	62.1002	1,568.85	58.8365	1,568.85	72.3311	1,568.85	74.1881	1,568.85	77.06	1,568.85	75.9845	1,568.85	77.7937
1,624.51	85.7016	1,624.51	85.4257	1,624.51	85.8368	1,624.51	84.8711	1,624.51	85.0507	1,624.51	83.7934	1,624.51	84.8064	1,624.51	83.8837	1,624.51	84.1783	1,624.51	82.9921	1,624.51	83.1906	1,624.51	80.1304	1,624.51	82.2497	1,624.51	79.8393	1,624.51	80.8228	1,624.51	76.4298	1,624.51	80.2714	1,624.51	76.6531	1,624.51	80.7564	1,624.51	77.5667	1,624.51	78.3773	1,624.51	79.2586	1,624.51	78.7774	1,624.51	78.0842	1,624.51	78.1758	1,624.51	75.7865	1,624.51	75.1348	1,624.51	68.9712	1,624.51	68.7161	1,624.51	52.1617	1,624.51	59.9936	1,624.51	68.7313	1,624.51	69.8154	1,624.51	76.5155	1,624.51	70.6831	1,624.51	76.8426
1,681.64	87.0699	1,681.64	86.8711	1,681.64	86.8214	1,681.64	85.9517	1,681.64	85.9306	1,681.64	85.692	1,681.64	85.3056	1,681.64	84.6401	1,681.64	85.5351	1,681.64	83.2907	1,681.64	84.4259	1,681.64	81.083	1,681.64	83.0803	1,681.64	78.8296	1,681.64	80.8596	1,681.64	72.218	1,681.64	79.2339	1,681.64	73.688	1,681.64	77.7266	1,681.64	75.5014	1,681.64	77.8399	1,681.64	76.2902	1,681.64	80.1114	1,681.64	77.2214	1,681.64	79.817	1,681.64	75.9166	1,681.64	77.5689	1,681.64	73.0538	1,681.64	76.4636	1,681.64	64.1334	1,681.64	58.0489	1,681.64	65.6028	1,681.64	69.3984	1,681.64	72.2284	1,681.64	74.9165	1,681.64	76.4061
1,741.7	87.2346	1,741.7	86.7714	1,741.7	86.5521	1,741.7	86.3199	1,741.7	86.1965	1,741.7	85.3524	1,741.7	85.8867	1,741.7	85.6074	1,741.7	85.063	1,741.7	83.495	1,741.7	83.9037	1,741.7	82.8486	1,741.7	82.1513	1,741.7	82.0623	1,741.7	79.3849	1,741.7	77.4003	1,741.7	78.1126	1,741.7	75.1367	1,741.7	77.8725	1,741.7	77.3042	1,741.7	79.8426	1,741.7	77.1903	1,741.7	78.8545	1,741.7	80.3882	1,741.7	78.042	1,741.7	78.9917	1,741.7	76.8891	1,741.7	75.0568	1,741.7	71.0241	1,741.7	66.4007	1,741.7	57.4599	1,741.7	70.2699	1,741.7	72.327	1,741.7	73.0629	1,741.7	75.6483	1,741.7	75.9389
1,803.22	87.2613	1,803.22	86.9949	1,803.22	85.6374	1,803.22	86.7739	1,803.22	85.7395	1,803.22	86.177	1,803.22	85.4854	1,803.22	84.8771	1,803.22	83.4805	1,803.22	84.2052	1,803.22	82.8588	1,803.22	81.0914	1,803.22	82.2497	1,803.22	80.4322	1,803.22	79.5103	1,803.22	78.9036	1,803.22	75.878	1,803.22	76.3145	1,803.22	73.4927	1,803.22	76.6731	1,803.22	76.3329	1,803.22	79.2975	1,803.22	77.5356	1,803.22	80.9917	1,803.22	77.0576	1,803.22	78.2591	1,803.22	77.2204	1,803.22	77.4444	1,803.22	72.9297	1,803.22	73.3698	1,803.22	69.8682	1,803.22	64.1535	1,803.22	61.536	1,803.22	72.3919	1,803.22	71.9368	1,803.22	73.8698
1,866.21	85.0053	1,866.21	85.6572	1,866.21	85.5266	1,866.21	85.4128	1,866.21	84.5779	1,866.21	84.9145	1,866.21	83.7465	1,866.21	84.532	1,866.21	83.5622	1,866.21	84.769	1,866.21	83.8553	1,866.21	82.7179	1,866.21	82.6228	1,866.21	80.969	1,866.21	81.7728	1,866.21	79.8417	1,866.21	80.9892	1,866.21	77.6049	1,866.21	78.2223	1,866.21	75.0956	1,866.21	76.2102	1,866.21	75.1829	1,866.21	75.7199	1,866.21	78.3457	1,866.21	78.3567	1,866.21	76.8344	1,866.21	76.893	1,866.21	68.2583	1,866.21	74.8658	1,866.21	62.7743	1,866.21	71.2478	1,866.21	70.0585	1,866.21	57.3698	1,866.21	72.6333	1,866.21	69.5145	1,866.21	69.8847
1,932.13	84.616	1,932.13	84.9305	1,932.13	84.4884	1,932.13	83.8019	1,932.13	84.1587	1,932.13	84.1047	1,932.13	83.7999	1,932.13	83.2818	1,932.13	82.3978	1,932.13	80.97	1,932.13	81.0799	1,932.13	81.0754	1,932.13	81.5309	1,932.13	80.8178	1,932.13	80.1232	1,932.13	79.9769	1,932.13	77.3485	1,932.13	78.0434	1,932.13	75.4512	1,932.13	77.1966	1,932.13	73.0587	1,932.13	78.2128	1,932.13	76.6054	1,932.13	78.5156	1,932.13	77.6941	1,932.13	77.9653	1,932.13	77.3267	1,932.13	73.579	1,932.13	75.8421	1,932.13	68.4785	1,932.13	64.7961	1,932.13	67.1327	1,932.13	57.4887	1,932.13	67.0078	1,932.13	60.7988	1,932.13	68.8476
1,999.51	85.9012	1,999.51	85.6055	1,999.51	85.8201	1,999.51	85.202	1,999.51	85.4057	1,999.51	84.0249	1,999.51	84.4211	1,999.51	83.0966	1,999.51	83.4452	1,999.51	80.8622	1,999.51	82.2487	1,999.51	80.6364	1,999.51	81.6901	1,999.51	78.3682	1,999.51	80.6346	1,999.51	77.6543	1,999.51	78.8837	1,999.51	76.0152	1,999.51	76.608	1,999.51	75.2756	1,999.51	76.2329	1,999.51	74.4287	1,999.51	76.0445	1,999.51	74.1268	1,999.51	76.552	1,999.51	74.4791	1,999.51	76.4858	1,999.51	71.7508	1,999.51	75.0848	1,999.51	63.6643	1,999.51	69.691	1,999.51	60.1572	1,999.51	63.1415	1,999.51	69.2245	1,999.51	68.5334	1,999.51	70.7932
2,069.82	86.3716	2,069.82	86.5417	2,069.82	86.3759	2,069.82	85.5883	2,069.82	85.7997	2,069.82	85.1414	2,069.82	84.837	2,069.82	83.6798	2,069.82	83.7011	2,069.82	81.762	2,069.82	82.4379	2,069.82	80.8559	2,069.82	81.5006	2,069.82	78.7091	2,069.82	80.3766	2,069.82	77.3761	2,069.82	78.9385	2,069.82	75.1912	2,069.82	76.0025	2,069.82	74.377	2,069.82	75.5019	2,069.82	74.2823	2,069.82	74.9391	2,069.82	74.7953	2,069.82	76.1336	2,069.82	74.3613	2,069.82	76.9094	2,069.82	72.5733	2,069.82	74.6388	2,069.82	68.1524	2,069.82	69.7039	2,069.82	56.9334	2,069.82	62.3522	2,069.82	66.3109	2,069.82	68.3803	2,069.82	70.6377
2,143.07	86.1056	2,143.07	86.0219	2,143.07	85.9461	2,143.07	85.7138	2,143.07	85.3285	2,143.07	84.8187	2,143.07	84.3455	2,143.07	83.9751	2,143.07	83.0465	2,143.07	81.9067	2,143.07	81.8138	2,143.07	81.2255	2,143.07	80.5848	2,143.07	79.451	2,143.07	79.3649	2,143.07	77.2245	2,143.07	77.6225	2,143.07	75.6119	2,143.07	76.0977	2,143.07	74.0129	2,143.07	74.3219	2,143.07	73.6687	2,143.07	73.6099	2,143.07	74.9918	2,143.07	74.8872	2,143.07	75.3172	2,143.07	75.1228	2,143.07	73.9569	2,143.07	74.0352	2,143.07	68.9815	2,143.07	68.499	2,143.07	62.3139	2,143.07	57.6586	2,143.07	66.1116	2,143.07	66.897	2,143.07	69.3211
2,219.24	84.9792	2,219.24	84.9962	2,219.24	84.9088	2,219.24	84.6472	2,219.24	84.0812	2,219.24	83.9904	2,219.24	82.92	2,219.24	82.7986	2,219.24	81.9215	2,219.24	81.4401	2,219.24	80.4123	2,219.24	79.8751	2,219.24	79.1558	2,219.24	78.1789	2,219.24	77.3388	2,219.24	76.793	2,219.24	75.8762	2,219.24	75.1268	2,219.24	74.9542	2,219.24	73.6674	2,219.24	72.1473	2,219.24	74.1937	2,219.24	71.5374	2,219.24	74.1442	2,219.24	72.998	2,219.24	74.1789	2,219.24	72.9881	2,219.24	73.1242	2,219.24	73.224	2,219.24	68.6293	2,219.24	69.4316	2,219.24	62.3138	2,219.24	50.5333	2,219.24	64.7115	2,219.24	66.883	2,219.24	67.9893
2,296.88	84.4484	2,296.88	84.1239	2,296.88	84.6695	2,296.88	83.9285	2,296.88	84.107	2,296.88	83.0403	2,296.88	83.0911	2,296.88	81.8613	2,296.88	81.9164	2,296.88	80.4619	2,296.88	80.4669	2,296.88	79.2188	2,296.88	78.9577	2,296.88	77.5941	2,296.88	77.7276	2,296.88	76.6932	2,296.88	75.8372	2,296.88	73.6216	2,296.88	75.5117	2,296.88	72.5352	2,296.88	72.747	2,296.88	72.9458	2,296.88	71.5515	2,296.88	72.6882	2,296.88	71.486	2,296.88	72.4221	2,296.88	73.4458	2,296.88	71.718	2,296.88	73.2347	2,296.88	69.2608	2,296.88	70.4154	2,296.88	61.4066	2,296.88	59.2468	2,296.88	65.7537	2,296.88	62.5029	2,296.88	68.6222
2,378.91	85.7758	2,378.91	85.2683	2,378.91	85.7749	2,378.91	84.6523	2,378.91	85.3911	2,378.91	83.1225	2,378.91	84.5103	2,378.91	81.4369	2,378.91	83.3566	2,378.91	80.5256	2,378.91	82.2628	2,378.91	78.4582	2,378.91	79.7071	2,378.91	76.5297	2,378.91	78.2344	2,378.91	74.5283	2,378.91	76.9397	2,378.91	72.2319	2,378.91	75.8181	2,378.91	70.9028	2,378.91	73.5077	2,378.91	70.8038	2,378.91	73.2369	2,378.91	71.4306	2,378.91	73.7927	2,378.91	71.8356	2,378.91	73.5139	2,378.91	71.3122	2,378.91	73.9607	2,378.91	66.4918	2,378.91	70.3489	2,378.91	57.878	2,378.91	64.4604	2,378.91	61.7884	2,378.91	64.6826	2,378.91	65.3405
2,462.4	87.3722	2,462.4	86.9858	2,462.4	87.2149	2,462.4	86.2164	2,462.4	86.6178	2,462.4	85.255	2,462.4	85.6626	2,462.4	83.513	2,462.4	84.3768	2,462.4	82.2865	2,462.4	82.9422	2,462.4	80.2604	2,462.4	80.881	2,462.4	79.2982	2,462.4	79.428	2,462.4	76.6796	2,462.4	77.4834	2,462.4	75.1754	2,462.4	76.6643	2,462.4	73.43	2,462.4	73.8084	2,462.4	71.7571	2,462.4	73.3965	2,462.4	72.2138	2,462.4	74.0268	2,462.4	72.8763	2,462.4	74.7163	2,462.4	72.7939	2,462.4	74.8286	2,462.4	68.524	2,462.4	70.2452	2,462.4	58.4082	2,462.4	64.3907	2,462.4	60.5236	2,462.4	66.8267	2,462.4	63.9475
2,548.83	87.7094	2,548.83	87.4874	2,548.83	87.3363	2,548.83	86.8449	2,548.83	86.5845	2,548.83	85.7087	2,548.83	85.4149	2,548.83	84.0394	2,548.83	84.0261	2,548.83	83.0621	2,548.83	82.6688	2,548.83	80.3039	2,548.83	80.6572	2,548.83	79.7595	2,548.83	79.0354	2,548.83	78.2425	2,548.83	78.0801	2,548.83	76.4908	2,548.83	76.1314	2,548.83	73.8586	2,548.83	72.6543	2,548.83	73.1903	2,548.83	71.3941	2,548.83	73.2434	2,548.83	71.3711	2,548.83	74.0676	2,548.83	74.0557	2,548.83	73.6913	2,548.83	74.6053	2,548.83	71.7673	2,548.83	69.8329	2,548.83	66.0984	2,548.83	60.7618	2,548.83	68.8494	2,548.83	65.5981	2,548.83	69.1772
2,639.65	86.7867	2,639.65	86.243	2,639.65	86.586	2,639.65	85.8179	2,639.65	85.6717	2,639.65	84.6908	2,639.65	84.5436	2,639.65	83.2378	2,639.65	83.0418	2,639.65	81.4892	2,639.65	81.2722	2,639.65	79.5733	2,639.65	79.4765	2,639.65	77.3001	2,639.65	77.9257	2,639.65	74.7283	2,639.65	77.2128	2,639.65	75.1403	2,639.65	75.7738	2,639.65	72.8691	2,639.65	73.8444	2,639.65	72.0418	2,639.65	70.5572	2,639.65	71.9185	2,639.65	68.2647	2,639.65	73.2921	2,639.65	70.2619	2,639.65	72.4296	2,639.65	72.1682	2,639.65	69.1778	2,639.65	69.2094	2,639.65	67.1365	2,639.65	62.504	2,639.65	60.6785	2,639.65	63.6353	2,639.65	63.6876
2,731.93	86.2697	2,731.93	85.9109	2,731.93	86.357	2,731.93	85.2747	2,731.93	85.4762	2,731.93	83.6614	2,731.93	84.6023	2,731.93	82.5354	2,731.93	82.9842	2,731.93	80.1962	2,731.93	80.953	2,731.93	78.0592	2,731.93	79.1244	2,731.93	76.2732	2,731.93	77.9752	2,731.93	74.7886	2,731.93	76.5115	2,731.93	71.922	2,731.93	74.7524	2,731.93	71.0734	2,731.93	73.7167	2,731.93	72.0202	2,731.93	71.3816	2,731.93	70.9005	2,731.93	68.1246	2,731.93	69.8838	2,731.93	70.5365	2,731.93	69.7005	2,731.93	70.9046	2,731.93	67.8232	2,731.93	69.4829	2,731.93	64.5011	2,731.93	63.3604	2,731.93	65.2963	2,731.93	59.7375	2,731.93	65.706
2,828.61	87.0355	2,828.61	86.5989	2,828.61	87.1518	2,828.61	85.7596	2,828.61	86.3257	2,828.61	84.1233	2,828.61	85.3222	2,828.61	82.7314	2,828.61	83.8427	2,828.61	81.0529	2,828.61	81.7283	2,828.61	79.2275	2,828.61	79.2674	2,828.61	76.6103	2,828.61	77.5487	2,828.61	75.6865	2,828.61	75.8624	2,828.61	72.3673	2,828.61	75.1059	2,828.61	72.0538	2,828.61	73.5886	2,828.61	71.5455	2,828.61	71.2013	2,828.61	68.6217	2,828.61	69.5395	2,828.61	69.4402	2,828.61	69.5588	2,828.61	69.6451	2,828.61	70.4816	2,828.61	69.1202	2,828.61	69.9101	2,828.61	65.7981	2,828.61	65.8232	2,828.61	61.8143	2,828.61	64.0212	2,828.61	65.9148
2,928.22	87.7485	2,928.22	87.4715	2,928.22	87.5081	2,928.22	86.4577	2,928.22	86.8812	2,928.22	85.1669	2,928.22	85.7013	2,928.22	83.3396	2,928.22	84.0628	2,928.22	81.6554	2,928.22	82.4202	2,928.22	79.3635	2,928.22	79.4136	2,928.22	77.5639	2,928.22	77.1135	2,928.22	75.7578	2,928.22	76.1343	2,928.22	73.6756	2,928.22	73.798	2,928.22	72.5285	2,928.22	73.2069	2,928.22	71.1435	2,928.22	70.1925	2,928.22	69.1234	2,928.22	68.4751	2,928.22	66.554	2,928.22	68.8147	2,928.22	70.3107	2,928.22	71.8493	2,928.22	69.1862	2,928.22	70.4247	2,928.22	65.0706	2,928.22	66.1654	2,928.22	68.4471	2,928.22	66.4864	2,928.22	67.7437
3,030.76	87.5656	3,030.76	87.3353	3,030.76	87.3452	3,030.76	86.5308	3,030.76	86.5482	3,030.76	85.3031	3,030.76	85.2141	3,030.76	83.5254	3,030.76	83.606	3,030.76	80.9403	3,030.76	81.8104	3,030.76	79.0597	3,030.76	79.3259	3,030.76	77.2386	3,030.76	77.0507	3,030.76	75.6861	3,030.76	75.7329	3,030.76	73.1211	3,030.76	72.3576	3,030.76	71.8743	3,030.76	72.5063	3,030.76	71.3053	3,030.76	72.4234	3,030.76	69.7322	3,030.76	69.1313	3,030.76	68.9834	3,030.76	69.1398	3,030.76	71.1693	3,030.76	70.3227	3,030.76	69.5565	3,030.76	70.0615	3,030.76	65.4658	3,030.76	62.9301	3,030.76	68.3083	3,030.76	65.4035	3,030.76	67.8393
3,137.7	86.6221	3,137.7	86.4621	3,137.7	86.6802	3,137.7	85.565	3,137.7	85.6663	3,137.7	84.4961	3,137.7	84.4204	3,137.7	82.6067	3,137.7	82.795	3,137.7	81.1024	3,137.7	81.2082	3,137.7	78.8725	3,137.7	78.8602	3,137.7	76.5276	3,137.7	76.3865	3,137.7	74.4147	3,137.7	75.5565	3,137.7	72.9013	3,137.7	73.0218	3,137.7	71.2042	3,137.7	71.5734	3,137.7	71.3539	3,137.7	71.1069	3,137.7	70.2506	3,137.7	67.6881	3,137.7	67.3874	3,137.7	67.5594	3,137.7	69.6548	3,137.7	68.1011	3,137.7	68.7624	3,137.7	69.6004	3,137.7	66.0443	3,137.7	62.1271	3,137.7	66.7528	3,137.7	64.2058	3,137.7	67.1822
3,249.02	86.0142	3,249.02	85.7937	3,249.02	85.8482	3,249.02	84.7178	3,249.02	85.1455	3,249.02	83.0849	3,249.02	83.6431	3,249.02	81.3571	3,249.02	81.8827	3,249.02	79.4428	3,249.02	80.319	3,249.02	77.8348	3,249.02	78.7041	3,249.02	76.0892	3,249.02	76.1665	3,249.02	73.7232	3,249.02	74.2915	3,249.02	71.8734	3,249.02	71.5861	3,249.02	68.8779	3,249.02	70.7915	3,249.02	69.3709	3,249.02	70.3587	3,249.02	70.0156	3,249.02	68.6994	3,249.02	68.0616	3,249.02	63.3962	3,249.02	67.8116	3,249.02	68.6236	3,249.02	66.2658	3,249.02	68.8705	3,249.02	65.4529	3,249.02	62.4419	3,249.02	66.0905	3,249.02	64.3902	3,249.02	65.5553
3,363.28	86.4714	3,363.28	85.9692	3,363.28	86.2933	3,363.28	84.8376	3,363.28	85.3974	3,363.28	83.1178	3,363.28	83.5957	3,363.28	80.709	3,363.28	81.5203	3,363.28	78.7291	3,363.28	79.4306	3,363.28	76.6233	3,363.28	77.7928	3,363.28	75.9261	3,363.28	76.5912	3,363.28	73.6237	3,363.28	74.0402	3,363.28	71.1457	3,363.28	71.8624	3,363.28	68.5737	3,363.28	69.6852	3,363.28	67.2804	3,363.28	71.3013	3,363.28	68.6525	3,363.28	67.6976	3,363.28	67.1439	3,363.28	65.2504	3,363.28	67.3597	3,363.28	69.6648	3,363.28	64.5535	3,363.28	68.7504	3,363.28	65.1469	3,363.28	63.5444	3,363.28	64.9191	3,363.28	64.0216	3,363.28	64.4793
3,481.93	86.6967	3,481.93	86.5979	3,481.93	85.9246	3,481.93	85.4698	3,481.93	85.837	3,481.93	83.6797	3,481.93	83.9076	3,481.93	82.611	3,481.93	81.9373	3,481.93	79.3294	3,481.93	79.3784	3,481.93	77.6121	3,481.93	77.1951	3,481.93	76.7346	3,481.93	75.2178	3,481.93	73.8739	3,481.93	73.5578	3,481.93	72.767	3,481.93	71.693	3,481.93	69.9924	3,481.93	68.9432	3,481.93	69.4733	3,481.93	70.2279	3,481.93	69.3768	3,481.93	69.0775	3,481.93	69.7224	3,481.93	66.3633	3,481.93	69.5369	3,481.93	65.2542	3,481.93	64.495	3,481.93	68.353	3,481.93	63.9693	3,481.93	61.0536	3,481.93	64.4075	3,481.93	55.107	3,481.93	65.1063
3,604.98	87.6953	3,604.98	87.3572	3,604.98	87.0747	3,604.98	86.3523	3,604.98	86.0147	3,604.98	84.5204	3,604.98	84.4655	3,604.98	82.3902	3,604.98	82.4543	3,604.98	78.5486	3,604.98	80.3233	3,604.98	76.7733	3,604.98	79.247	3,604.98	75.652	3,604.98	77.3105	3,604.98	74.8837	3,604.98	76.0603	3,604.98	72.8638	3,604.98	73.5708	3,604.98	70.2009	3,604.98	71.5539	3,604.98	70.0457	3,604.98	70.4996	3,604.98	69.2163	3,604.98	71.5457	3,604.98	70.0636	3,604.98	68.0688	3,604.98	69.0947	3,604.98	65.1337	3,604.98	67.2259	3,604.98	68.9512	3,604.98	63.8108	3,604.98	62.6619	3,604.98	65.8437	3,604.98	57.712	3,604.98	67.9614
3,732.42	89.227	3,732.42	88.6909	3,732.42	88.933	3,732.42	87.4374	3,732.42	87.4699	3,732.42	85.8124	3,732.42	85.6656	3,732.42	83.733	3,732.42	83.7608	3,732.42	81.1695	3,732.42	81.5844	3,732.42	78.5877	3,732.42	79.8495	3,732.42	75.6693	3,732.42	78.6796	3,732.42	75.9305	3,732.42	76.6913	3,732.42	73.7931	3,732.42	75.2286	3,732.42	72.6553	3,732.42	71.9073	3,732.42	70.2595	3,732.42	70.9272	3,732.42	70.4588	3,732.42	71.6251	3,732.42	70.2786	3,732.42	70.2821	3,732.42	69.7086	3,732.42	68.6974	3,732.42	68.471	3,732.42	70.7584	3,732.42	62.1658	3,732.42	66.0855	3,732.42	67.7529	3,732.42	65.2163	3,732.42	70.0037
3,864.26	88.4377	3,864.26	87.9687	3,864.26	88.6237	3,864.26	86.8934	3,864.26	86.6225	3,864.26	85.2512	3,864.26	85.0158	3,864.26	82.6732	3,864.26	83.2083	3,864.26	81.185	3,864.26	81.6306	3,864.26	78.7907	3,864.26	79.4221	3,864.26	76.3315	3,864.26	76.4894	3,864.26	75.9421	3,864.26	74.5523	3,864.26	73.4123	3,864.26	74.7065	3,864.26	73.3629	3,864.26	72.7366	3,864.26	70.6318	3,864.26	68.9639	3,864.26	71.5007	3,864.26	70.5461	3,864.26	70.4804	3,864.26	68.7957	3,864.26	70.8877	3,864.26	67.7479	3,864.26	70.0649	3,864.26	69.3454	3,864.26	65.4512	3,864.26	66.6901	3,864.26	70.1921	3,864.26	65.4389	3,864.26	70.2977
4,000.49	88.408	4,000.49	87.6383	4,000.49	88.5508	4,000.49	86.2546	4,000.49	87.2078	4,000.49	84.6851	4,000.49	85.5276	4,000.49	82.2915	4,000.49	83.8451	4,000.49	81.7736	4,000.49	82.5698	4,000.49	79.2807	4,000.49	80.0401	4,000.49	76.6889	4,000.49	78.1008	4,000.49	74.9005	4,000.49	75.6914	4,000.49	73.6751	4,000.49	73.9887	4,000.49	71.5221	4,000.49	72.7322	4,000.49	69.8314	4,000.49	70.7296	4,000.49	70.2065	4,000.49	70.5631	4,000.49	68.9105	4,000.49	71.1065	4,000.49	70.7769	4,000.49	67.7718	4,000.49	69.401	4,000.49	67.7792	4,000.49	63.6495	4,000.49	67.0708	4,000.49	69.0072	4,000.49	65.0727	4,000.49	68.1564
4,141.11	88.5634	4,141.11	87.7219	4,141.11	88.5427	4,141.11	86.8476	4,141.11	87.5323	4,141.11	84.9708	4,141.11	86.1489	4,141.11	83.3785	4,141.11	84.5146	4,141.11	82.4537	4,141.11	82.4045	4,141.11	80.473	4,141.11	80.1991	4,141.11	77.6976	4,141.11	78.0611	4,141.11	74.5626	4,141.11	76.3367	4,141.11	74.2054	4,141.11	74.8793	4,141.11	71.6035	4,141.11	72.4303	4,141.11	69.9117	4,141.11	68.8103	4,141.11	70.1611	4,141.11	68.7894	4,141.11	70.1338	4,141.11	72.0664	4,141.11	69.1304	4,141.11	67.6793	4,141.11	67.8641	4,141.11	68.7089	4,141.11	64.8007	4,141.11	67.5468	4,141.11	67.8321	4,141.11	63.5995	4,141.11	68.7913
4,287.6	87.2597	4,287.6	86.9557	4,287.6	86.9729	4,287.6	85.6856	4,287.6	86.8243	4,287.6	84.158	4,287.6	85.2845	4,287.6	83.5513	4,287.6	83.9093	4,287.6	81.7985	4,287.6	81.9965	4,287.6	80.1304	4,287.6	79.78	4,287.6	77.7061	4,287.6	77.8423	4,287.6	73.6483	4,287.6	75.0197	4,287.6	74.0787	4,287.6	73.7794	4,287.6	71.804	4,287.6	72.9953	4,287.6	67.8123	4,287.6	69.5976	4,287.6	68.899	4,287.6	68.4981	4,287.6	68.2788	4,287.6	70.3254	4,287.6	68.0206	4,287.6	66.5769	4,287.6	69.2465	4,287.6	69.0904	4,287.6	64.1187	4,287.6	66.351	4,287.6	67.4855	4,287.6	64.2243	4,287.6	69.3125
4,438.48	86.2035	4,438.48	86.5084	4,438.48	86.121	4,438.48	85.3242	4,438.48	86.144	4,438.48	84.499	4,438.48	85.2418	4,438.48	83.7799	4,438.48	83.5357	4,438.48	81.7808	4,438.48	81.9117	4,438.48	79.2828	4,438.48	79.483	4,438.48	77.1136	4,438.48	77.3433	4,438.48	74.6162	4,438.48	75.5668	4,438.48	72.991	4,438.48	73.389	4,438.48	71.365	4,438.48	72.1454	4,438.48	66.2487	4,438.48	69.7823	4,438.48	67.7321	4,438.48	68.157	4,438.48	63.6717	4,438.48	69.4703	4,438.48	66.4739	4,438.48	67.9127	4,438.48	68.5436	4,438.48	67.8567	4,438.48	59.5459	4,438.48	65.9359	4,438.48	66.8756	4,438.48	64.1707	4,438.48	68.8578
4,595.21	86.0645	4,595.21	85.6706	4,595.21	86.3582	4,595.21	85.831	4,595.21	85.4448	4,595.21	84.5233	4,595.21	84.8425	4,595.21	82.9687	4,595.21	82.961	4,595.21	80.3648	4,595.21	80.661	4,595.21	78.4476	4,595.21	79.282	4,595.21	77.0425	4,595.21	77.3055	4,595.21	74.3304	4,595.21	74.5534	4,595.21	72.2196	4,595.21	72.4238	4,595.21	69.8301	4,595.21	70.6122	4,595.21	67.3888	4,595.21	68.1602	4,595.21	68.0329	4,595.21	65.6948	4,595.21	66.8993	4,595.21	68.5417	4,595.21	66.4979	4,595.21	67.4443	4,595.21	68.7183	4,595.21	66.6948	4,595.21	62.7183	4,595.21	64.9371	4,595.21	66.8116	4,595.21	62.4825	4,595.21	68.2642
4,756.35	86.5412	4,756.35	86.2429	4,756.35	86.4011	4,756.35	85.9149	4,756.35	85.614	4,756.35	84.3835	4,756.35	84.3237	4,756.35	82.3624	4,756.35	83.1396	4,756.35	79.7601	4,756.35	81.3168	4,756.35	77.9215	4,756.35	79.1371	4,756.35	76.2321	4,756.35	77.0185	4,756.35	72.5535	4,756.35	74.72	4,756.35	71.0944	4,756.35	71.5136	4,756.35	67.4033	4,756.35	70.1923	4,756.35	67.6289	4,756.35	68.3096	4,756.35	65.8432	4,756.35	63.8992	4,756.35	64.5834	4,756.35	67.848	4,756.35	65.1275	4,756.35	66.4865	4,756.35	66.5401	4,756.35	66.2362	4,756.35	62.5207	4,756.35	66.033	4,756.35	65.6708	4,756.35	62.5093	4,756.35	68.5215
4,924.8	86.4424	4,924.8	86.4699	4,924.8	86.2176	4,924.8	85.2473	4,924.8	85.7764	4,924.8	84.5417	4,924.8	84.2695	4,924.8	82.7425	4,924.8	83.1422	4,924.8	80.736	4,924.8	81.6859	4,924.8	78.4962	4,924.8	78.8051	4,924.8	76.518	4,924.8	75.9046	4,924.8	73.8003	4,924.8	74.1793	4,924.8	71.4586	4,924.8	71.2178	4,924.8	70.9606	4,924.8	68.5979	4,924.8	69.5526	4,924.8	68.8852	4,924.8	63.6691	4,924.8	64.0646	4,924.8	66.3635	4,924.8	66.1793	4,924.8	64.4646	4,924.8	65.8813	4,924.8	65.498	4,924.8	66.8109	4,924.8	63.7339	4,924.8	65.7544	4,924.8	64.5924	4,924.8	62.0408	4,924.8	68.4406
5,097.66	86.0375	5,097.66	85.8813	5,097.66	86.1944	5,097.66	85.2005	5,097.66	85.2245	5,097.66	83.7931	5,097.66	84.0214	5,097.66	82.4586	5,097.66	82.5483	5,097.66	80.1066	5,097.66	80.3324	5,097.66	77.4167	5,097.66	78.206	5,097.66	73.9529	5,097.66	75.4271	5,097.66	72.7364	5,097.66	72.2868	5,097.66	69.6247	5,097.66	70.3148	5,097.66	70.5097	5,097.66	67.0454	5,097.66	69.1073	5,097.66	67.2423	5,097.66	62.1169	5,097.66	63.0461	5,097.66	66.665	5,097.66	65.3267	5,097.66	62.8802	5,097.66	66.2853	5,097.66	65.9649	5,097.66	65.7927	5,097.66	62.7372	5,097.66	64.6943	5,097.66	63.9444	5,097.66	60.3824	5,097.66	66.9765
5,277.83	85.7848	5,277.83	85.8224	5,277.83	85.9459	5,277.83	85.7871	5,277.83	85.0668	5,277.83	84.6285	5,277.83	84.0996	5,277.83	83.337	5,277.83	82.1866	5,277.83	80.9375	5,277.83	79.6371	5,277.83	78.3488	5,277.83	77.3215	5,277.83	75.2094	5,277.83	75.2464	5,277.83	74.0928	5,277.83	71.4402	5,277.83	69.5719	5,277.83	68.798	5,277.83	67.9695	5,277.83	66.3176	5,277.83	66.6443	5,277.83	64.4424	5,277.83	61.3689	5,277.83	62.8123	5,277.83	64.5944	5,277.83	62.7915	5,277.83	59.8215	5,277.83	63.1955	5,277.83	63.3304	5,277.83	62.5029	5,277.83	62.3348	5,277.83	64.33	5,277.83	62.066	5,277.83	61.2366	5,277.83	66.3521
5,463.87	85.453	5,463.87	85.3111	5,463.87	85.0932	5,463.87	84.8257	5,463.87	84.9748	5,463.87	84.1067	5,463.87	83.4235	5,463.87	81.9437	5,463.87	81.9833	5,463.87	79.5408	5,463.87	80.1958	5,463.87	76.4812	5,463.87	76.7659	5,463.87	75.0838	5,463.87	73.3972	5,463.87	72.2865	5,463.87	72.922	5,463.87	70.2127	5,463.87	69.4824	5,463.87	66.6909	5,463.87	64.5883	5,463.87	65.7078	5,463.87	65.3158	5,463.87	62.8362	5,463.87	58.95	5,463.87	63.9057	5,463.87	56.316	5,463.87	60.2252	5,463.87	63.2185	5,463.87	62.2767	5,463.87	61.5429	5,463.87	61.8509	5,463.87	64.526	5,463.87	62.5285	5,463.87	61.2336	5,463.87	65.3098
5,657.23	85.1781	5,657.23	85.3761	5,657.23	85.5175	5,657.23	84.8925	5,657.23	84.7044	5,657.23	84.018	5,657.23	83.6683	5,657.23	81.917	5,657.23	81.6834	5,657.23	79.8831	5,657.23	79.4921	5,657.23	76.7685	5,657.23	76.9878	5,657.23	74.8177	5,657.23	75.1524	5,657.23	68.1933	5,657.23	70.0404	5,657.23	67.945	5,657.23	68.2129	5,657.23	66.2116	5,657.23	65.7267	5,657.23	61.9826	5,657.23	64.1891	5,657.23	57.6395	5,657.23	59.3629	5,657.23	59.1966	5,657.23	60.8883	5,657.23	61.8874	5,657.23	63.1343	5,657.23	63.6628	5,657.23	59.5633	5,657.23	62.0625	5,657.23	64.435	5,657.23	61.8299	5,657.23	60.3013	5,657.23	65.8653
5,856.45	85.4262	5,856.45	85.649	5,856.45	85.8683	5,856.45	85.1352	5,856.45	84.811	5,856.45	83.9341	5,856.45	84.2981	5,856.45	82.0857	5,856.45	82.039	5,856.45	78.5092	5,856.45	78.7626	5,856.45	75.1557	5,856.45	76.5449	5,856.45	69.9801	5,856.45	74.3554	5,856.45	66.4229	5,856.45	69.7368	5,856.45	60.8313	5,856.45	68.1905	5,856.45	67.9048	5,856.45	66.4907	5,856.45	65.4602	5,856.45	60.3492	5,856.45	60.8188	5,856.45	62.5165	5,856.45	55.9679	5,856.45	58.8737	5,856.45	59.0679	5,856.45	59.504	5,856.45	61.3048	5,856.45	60.5643	5,856.45	60.9241	5,856.45	61.7191	5,856.45	59.7716	5,856.45	59.9537	5,856.45	66.1628
6,062.99	85.3686	6,062.99	85.5162	6,062.99	85.2997	6,062.99	84.7283	6,062.99	84.8938	6,062.99	83.3397	6,062.99	83.0358	6,062.99	81.4744	6,062.99	81.6807	6,062.99	78.3466	6,062.99	78.6875	6,062.99	75.8022	6,062.99	75.4737	6,062.99	69.3972	6,062.99	69.8362	6,062.99	70.7322	6,062.99	71.8409	6,062.99	67.1303	6,062.99	67.5707	6,062.99	60.4179	6,062.99	66.3278	6,062.99	64.5264	6,062.99	63.3954	6,062.99	61.1925	6,062.99	60.1721	6,062.99	62.0024	6,062.99	57.9163	6,062.99	51.3824	6,062.99	52.4792	6,062.99	59.8522	6,062.99	57.1423	6,062.99	60.6027	6,062.99	61.6173	6,062.99	53.7043	6,062.99	55.754	6,062.99	63.4747
6,276.86	85.5484	6,276.86	85.3581	6,276.86	85.2839	6,276.86	84.2303	6,276.86	84.8201	6,276.86	82.3955	6,276.86	82.5965	6,276.86	79.6937	6,276.86	80.0219	6,276.86	76.9028	6,276.86	77.3907	6,276.86	74.4463	6,276.86	74.3403	6,276.86	73.0809	6,276.86	72.6876	6,276.86	68.6158	6,276.86	69.4435	6,276.86	66.6009	6,276.86	65.9898	6,276.86	60.8994	6,276.86	60.409	6,276.86	55.6416	6,276.86	60.998	6,276.86	60.4157	6,276.86	62.7627	6,276.86	59.2498	6,276.86	47.8626	6,276.86	62.0856	6,276.86	57.1927	6,276.86	58.7358	6,276.86	55.5342	6,276.86	54.6158	6,276.86	56.2046	6,276.86	59.2319	6,276.86	53.4158	6,276.86	62.6026
6,498.05	85.9635	6,498.05	85.7719	6,498.05	86.3769	6,498.05	85.2116	6,498.05	84.8514	6,498.05	83.6782	6,498.05	84.243	6,498.05	80.8512	6,498.05	81.1004	6,498.05	78.3923	6,498.05	77.8694	6,498.05	74.0335	6,498.05	74.7735	6,498.05	73.47	6,498.05	73.7491	6,498.05	68.952	6,498.05	66.9754	6,498.05	67.8171	6,498.05	66.8427	6,498.05	68.1747	6,498.05	63.5746	6,498.05	65.7349	6,498.05	62.7772	6,498.05	59.9094	6,498.05	59.0268	6,498.05	54.0097	6,498.05	59.8602	6,498.05	57.958	6,498.05	61.3553	6,498.05	43.2448	6,498.05	57.2934	6,498.05	62.0613	6,498.05	60.1276	6,498.05	55.7564	6,498.05	54.0895	6,498.05	62.8243
6,726.56	86.868	6,726.56	87.0029	6,726.56	86.3991	6,726.56	86.6444	6,726.56	85.6188	6,726.56	84.8763	6,726.56	84.404	6,726.56	83.3837	6,726.56	82.1821	6,726.56	79.6051	6,726.56	80.1669	6,726.56	78.4927	6,726.56	76.2799	6,726.56	73.9502	6,726.56	73.4439	6,726.56	72.2484	6,726.56	70.6189	6,726.56	70.3355	6,726.56	68.7403	6,726.56	66.6703	6,726.56	64.3103	6,726.56	69.3534	6,726.56	64.5464	6,726.56	62.922	6,726.56	64.1283	6,726.56	62.6815	6,726.56	56.548	6,726.56	62.2464	6,726.56	61.3043	6,726.56	59.6515	6,726.56	57.5271	6,726.56	65.2523	6,726.56	62.1472	6,726.56	52.4761	6,726.56	58.3067	6,726.56	62.4941
6,963.87	87.5334	6,963.87	88.1653	6,963.87	86.5357	6,963.87	87.8417	6,963.87	86.3567	6,963.87	86.7427	6,963.87	84.1249	6,963.87	84.8212	6,963.87	82.2558	6,963.87	82.8096	6,963.87	80.5059	6,963.87	80.6755	6,963.87	77.7515	6,963.87	76.1319	6,963.87	74.9587	6,963.87	75.0238	6,963.87	71.9456	6,963.87	72.4756	6,963.87	68.8854	6,963.87	67.9286	6,963.87	66.5868	6,963.87	68.7832	6,963.87	66.7263	6,963.87	62.005	6,963.87	56.5573	6,963.87	60.8207	6,963.87	62.883	6,963.87	66.721	6,963.87	62.3311	6,963.87	63.2029	6,963.87	59.9252	6,963.87	64.5828	6,963.87	63.9643	6,963.87	58.1718	6,963.87	61.9153	6,963.87	62.7697
7,209.96	87.3059	7,209.96	88.4922	7,209.96	87.4794	7,209.96	88.1985	7,209.96	86.2413	7,209.96	87.8728	7,209.96	85.0402	7,209.96	85.8413	7,209.96	82.644	7,209.96	84.8837	7,209.96	79.9334	7,209.96	81.0902	7,209.96	78.2884	7,209.96	78.4762	7,209.96	76.1325	7,209.96	76.575	7,209.96	73.6525	7,209.96	73.4506	7,209.96	70.2121	7,209.96	71.8974	7,209.96	68.7784	7,209.96	67.6796	7,209.96	63.977	7,209.96	65.4415	7,209.96	63.2687	7,209.96	63.5306	7,209.96	65.1061	7,209.96	67.7043	7,209.96	60.0261	7,209.96	63.1542	7,209.96	63.9336	7,209.96	65.8403	7,209.96	60.0159	7,209.96	63.9083	7,209.96	58.455	7,209.96	65.0873
7,464.84	87.192	7,464.84	87.9269	7,464.84	87.2348	7,464.84	88.5623	7,464.84	86.82	7,464.84	87.7844	7,464.84	86.4724	7,464.84	87.1009	7,464.84	85.1546	7,464.84	84.5674	7,464.84	83.3052	7,464.84	81.9787	7,464.84	80.8389	7,464.84	79.9296	7,464.84	77.1749	7,464.84	77.2412	7,464.84	76.0129	7,464.84	74.2248	7,464.84	71.607	7,464.84	71.7986	7,464.84	70.5562	7,464.84	68.0643	7,464.84	65.1291	7,464.84	68.5657	7,464.84	68.7534	7,464.84	67.5595	7,464.84	65.0385	7,464.84	66.6909	7,464.84	58.6577	7,464.84	62.6031	7,464.84	65.7752	7,464.84	67.8235	7,464.84	58.9311	7,464.84	65.4946	7,464.84	60.6293	7,464.84	65.1357
7,727.05	88.0012	7,727.05	88.0608	7,727.05	87.8706	7,727.05	87.8945	7,727.05	88.1011	7,727.05	87.6573	7,727.05	87.561	7,727.05	86.4472	7,727.05	87.5585	7,727.05	83.7928	7,727.05	85.997	7,727.05	82.8129	7,727.05	83.8213	7,727.05	79.5302	7,727.05	81.3669	7,727.05	76.8795	7,727.05	77.9934	7,727.05	73.2653	7,727.05	73.9519	7,727.05	71.5559	7,727.05	72.9907	7,727.05	69.3503	7,727.05	70.3271	7,727.05	68.9159	7,727.05	70.9978	7,727.05	66.724	7,727.05	63.438	7,727.05	65.6095	7,727.05	62.8085	7,727.05	61.2126	7,727.05	67.1112	7,727.05	68.6628	7,727.05	64.4867	7,727.05	63.1915	7,727.05	63.4343	7,727.05	65.0421
7,999.51	88.0525	7,999.51	87.9418	7,999.51	88.2078	7,999.51	88.115	7,999.51	87.663	7,999.51	87.606	7,999.51	87.6421	7,999.51	86.8168	7,999.51	87.0248	7,999.51	85.4324	7,999.51	85.5481	7,999.51	82.5403	7,999.51	83.4205	7,999.51	79.5445	7,999.51	81.659	7,999.51	76.3436	7,999.51	77.6349	7,999.51	73.0557	7,999.51	74.2672	7,999.51	71.0014	7,999.51	72.1963	7,999.51	66.794	7,999.51	69.7605	7,999.51	68.1532	7,999.51	68.158	7,999.51	65.6552	7,999.51	66.4877	7,999.51	66.0572	7,999.51	65.5728	7,999.51	62.3124	7,999.51	66.5574	7,999.51	67.8745	7,999.51	64.5197	7,999.51	60.5462	7,999.51	64.8796	7,999.51	64.1417
8,282.23	87.8807	8,282.23	88.0842	8,282.23	87.3332	8,282.23	87.5343	8,282.23	87.3634	8,282.23	87.312	8,282.23	87.2834	8,282.23	86.5426	8,282.23	86.5542	8,282.23	84.1264	8,282.23	84.8484	8,282.23	80.3994	8,282.23	82.561	8,282.23	76.7654	8,282.23	79.9278	8,282.23	72.7612	8,282.23	76.1213	8,282.23	69.9683	8,282.23	73.4249	8,282.23	69.0767	8,282.23	69.3622	8,282.23	66.4248	8,282.23	66.5095	8,282.23	64.6676	8,282.23	68.4491	8,282.23	64.3409	8,282.23	64.5172	8,282.23	62.8823	8,282.23	63.124	8,282.23	61.6316	8,282.23	64.1991	8,282.23	67.2299	8,282.23	67.362	8,282.23	55.8026	8,282.23	65.2445	8,282.23	62.8772
8,573.73	88.2266	8,573.73	88.5217	8,573.73	87.9612	8,573.73	87.8225	8,573.73	87.5876	8,573.73	87.3284	8,573.73	87.1357	8,573.73	85.6386	8,573.73	86.1009	8,573.73	82.9756	8,573.73	84.3137	8,573.73	79.9941	8,573.73	81.0784	8,573.73	74.6255	8,573.73	77.8345	8,573.73	69.5879	8,573.73	73.2873	8,573.73	65.7391	8,573.73	70.4054	8,573.73	62.4842	8,573.73	67.185	8,573.73	63.7128	8,573.73	65.2258	8,573.73	59.9045	8,573.73	63.5902	8,573.73	61.3852	8,573.73	61.3346	8,573.73	55.2887	8,573.73	58.9412	8,573.73	62.0067	8,573.73	63.3831	8,573.73	65.2112	8,573.73	63.5787	8,573.73	46.3058	8,573.73	63.2314	8,573.73	63.2919
8,876.95	88.4203	8,876.95	87.91	8,876.95	87.9554	8,876.95	87.4244	8,876.95	87.7432	8,876.95	85.8087	8,876.95	86.6828	8,876.95	84.2263	8,876.95	85.0151	8,876.95	80.1943	8,876.95	81.893	8,876.95	73.7685	8,876.95	77.8362	8,876.95	67.3378	8,876.95	73.7099	8,876.95	66.3439	8,876.95	70.5496	8,876.95	65.8768	8,876.95	66.2831	8,876.95	63.4418	8,876.95	63.9436	8,876.95	62.4199	8,876.95	62.7668	8,876.95	53.9989	8,876.95	62.3787	8,876.95	55.8374	8,876.95	58.6328	8,876.95	58.0128	8,876.95	57.1269	8,876.95	63.6354	8,876.95	57.7469	8,876.95	65.994	8,876.95	57.4874	8,876.95	30.4507	8,876.95	62.6095	8,876.95	61.0561
9,188.96	87.2234	9,188.96	87.0955	9,188.96	87.4046	9,188.96	86.6411	9,188.96	86.4538	9,188.96	85.8551	9,188.96	85.9246	9,188.96	82.9841	9,188.96	84.8472	9,188.96	78.377	9,188.96	80.5784	9,188.96	72.9456	9,188.96	76.8236	9,188.96	70.2768	9,188.96	74.3974	9,188.96	67.8217	9,188.96	68.2562	9,188.96	66.5842	9,188.96	66.832	9,188.96	64.0314	9,188.96	63.6398	9,188.96	62.0362	9,188.96	65.2863	9,188.96	61.3766	9,188.96	62.8369	9,188.96	53.3543	9,188.96	53.7752	9,188.96	59.1004	9,188.96	56.4327	9,188.96	61.6139	9,188.96	57.2475	9,188.96	63.3613	9,188.96	56.5309	9,188.96	41.4107	9,188.96	60.8932	9,188.96	61.6756
9,514.16	87.3991	9,514.16	86.8211	9,514.16	86.6851	9,514.16	86.1839	9,514.16	86.6305	9,514.16	84.7201	9,514.16	85.5318	9,514.16	82.5626	9,514.16	83.451	9,514.16	78.2267	9,514.16	79.895	9,514.16	72.8126	9,514.16	75.4798	9,514.16	71.3359	9,514.16	74.1538	9,514.16	68.6217	9,514.16	68.7491	9,514.16	66.7289	9,514.16	68.277	9,514.16	63.6066	9,514.16	64.6335	9,514.16	64.2251	9,514.16	65.0863	9,514.16	59.9371	9,514.16	61.3768	9,514.16	53.3276	9,514.16	58.5615	9,514.16	56.6831	9,514.16	58.3873	9,514.16	57.5318	9,514.16	54.6431	9,514.16	59.4416	9,514.16	53.8881	9,514.16	56.2271	9,514.16	61.3998	9,514.16	60.2587
9,849.61	86.9502	9,849.61	86.5756	9,849.61	86.6386	9,849.61	85.8296	9,849.61	85.6864	9,849.61	84.9631	9,849.61	85.2965	9,849.61	82.3653	9,849.61	83.8143	9,849.61	77.2497	9,849.61	79.1992	9,849.61	73.259	9,849.61	75.8612	9,849.61	72.1908	9,849.61	73.6844	9,849.61	67.6606	9,849.61	71.4158	9,849.61	69.1389	9,849.61	68.5694	9,849.61	64.8158	9,849.61	65.9968	9,849.61	62.5168	9,849.61	64.8278	9,849.61	59.7761	9,849.61	61.7451	9,849.61	50.587	9,849.61	62.7811	9,849.61	55.1728	9,849.61	56.966	9,849.61	57.9976	9,849.61	57.7169	9,849.61	51.4083	9,849.61	55.2055	9,849.61	58.4647	9,849.61	61.378	9,849.61	60.7949
10,196.8	86.8754	10,196.8	86.747	10,196.8	86.1102	10,196.8	85.5274	10,196.8	86.0431	10,196.8	84.5605	10,196.8	84.9144	10,196.8	81.4557	10,196.8	82.7094	10,196.8	77.4506	10,196.8	79.449	10,196.8	74.5278	10,196.8	75.5329	10,196.8	70.801	10,196.8	73.7593	10,196.8	69.6295	10,196.8	70.9621	10,196.8	66.7747	10,196.8	68.7972	10,196.8	64.595	10,196.8	65.9494	10,196.8	60.4505	10,196.8	65.0015	10,196.8	58.2145	10,196.8	61.3788	10,196.8	58.9013	10,196.8	62.5619	10,196.8	54.0525	10,196.8	53.9398	10,196.8	56.7319	10,196.8	56.1855	10,196.8	50.7141	10,196.8	60.9103	10,196.8	58.5326	10,196.8	63.6092	10,196.8	58.5497
10,555.7	86.9693	10,555.7	86.7041	10,555.7	86.5239	10,555.7	85.6254	10,555.7	85.8025	10,555.7	84.0229	10,555.7	84.8369	10,555.7	80.6028	10,555.7	82.7702	10,555.7	77.0729	10,555.7	78.5589	10,555.7	74.5251	10,555.7	75.8888	10,555.7	71.1952	10,555.7	73.0596	10,555.7	69.5991	10,555.7	71.8135	10,555.7	67.0203	10,555.7	67.9479	10,555.7	66.3071	10,555.7	67.3927	10,555.7	61.3253	10,555.7	62.7834	10,555.7	57.4233	10,555.7	61.6328	10,555.7	57.58	10,555.7	63.0823	10,555.7	52.0427	10,555.7	55.7971	10,555.7	57.005	10,555.7	54.7368	10,555.7	51.709	10,555.7	61.1002	10,555.7	58.8595	10,555.7	61.3886	10,555.7	55.3642
10,927.7	86.9253	10,927.7	86.3288	10,927.7	86.5309	10,927.7	85.763	10,927.7	86.0849	10,927.7	83.9225	10,927.7	84.5319	10,927.7	80.4111	10,927.7	81.3891	10,927.7	76.376	10,927.7	78.6705	10,927.7	75.0276	10,927.7	75.1075	10,927.7	70.9205	10,927.7	72.5159	10,927.7	68.6739	10,927.7	69.6472	10,927.7	66.2255	10,927.7	65.8045	10,927.7	63.6276	10,927.7	65.6572	10,927.7	59.6807	10,927.7	61.9681	10,927.7	59.6678	10,927.7	61.6377	10,927.7	59.2175	10,927.7	58.8479	10,927.7	49.1247	10,927.7	52.2033	10,927.7	57.37	10,927.7	52.4553	10,927.7	54.8459	10,927.7	59.9072	10,927.7	58.7129	10,927.7	61.522	10,927.7	52.4373
11,313	87.0644	11,313	86.9861	11,313	86.8917	11,313	85.7887	11,313	86.196	11,313	83.4062	11,313	84.4393	11,313	79.9128	11,313	81.6776	11,313	76.9409	11,313	77.3883	11,313	74.4728	11,313	74.7967	11,313	69.7151	11,313	71.712	11,313	68.0233	11,313	69.6028	11,313	66.8434	11,313	65.1059	11,313	64.5764	11,313	66.0437	11,313	61.4783	11,313	60.2706	11,313	60.8519	11,313	60.7395	11,313	58.102	11,313	55.333	11,313	43.1872	11,313	52.0035	11,313	53.1913	11,313	43.937	11,313	52.6573	11,313	57.7076	11,313	58.7705	11,313	60.708	11,313	54.0089
11,712.9	87.3008	11,712.9	87.1389	11,712.9	87.3579	11,712.9	86.2868	11,712.9	86.7362	11,712.9	83.8596	11,712.9	84.525	11,712.9	80.8288	11,712.9	81.2111	11,712.9	77.5396	11,712.9	77.6903	11,712.9	74.0663	11,712.9	74.1191	11,712.9	70.5202	11,712.9	70.9734	11,712.9	67.772	11,712.9	68.7444	11,712.9	65.2698	11,712.9	65.5192	11,712.9	64.4048	11,712.9	64.0896	11,712.9	63.4737	11,712.9	62.4858	11,712.9	59.3772	11,712.9	61.1738	11,712.9	57.1686	11,712.9	57.1826	11,712.9	50.0071	11,712.9	49.3924	11,712.9	49.2861	11,712.9	49.6124	11,712.9	57.1522	11,712.9	55.2606	11,712.9	60.6615	11,712.9	59.0288	11,712.9	53.6298
12,126	87.9672	12,126	88.1226	12,126	88.104	12,126	86.7888	12,126	87.4982	12,126	84.7091	12,126	85.1604	12,126	81.1085	12,126	81.8135	12,126	78.5441	12,126	78.7627	12,126	74.8935	12,126	74.8502	12,126	71.2717	12,126	70.5951	12,126	68.2332	12,126	69.2924	12,126	67.9403	12,126	65.406	12,126	66.027	12,126	65.5308	12,126	61.452	12,126	61.6667	12,126	61.6218	12,126	61.0412	12,126	59.8749	12,126	60.1419	12,126	51.7264	12,126	54.3468	12,126	51.2276	12,126	47.2841	12,126	57.2213	12,126	53.9786	12,126	61.2614	12,126	59.9042	12,126	52.7661
12,553.7	88.7553	12,553.7	88.7457	12,553.7	88.8981	12,553.7	87.8418	12,553.7	88.1664	12,553.7	84.8485	12,553.7	85.5978	12,553.7	82.6668	12,553.7	82.3391	12,553.7	79.5623	12,553.7	78.9828	12,553.7	76.7523	12,553.7	76.3824	12,553.7	73.9421	12,553.7	73.9596	12,553.7	70.501	12,553.7	71.1992	12,553.7	69.6106	12,553.7	67.7211	12,553.7	66.1154	12,553.7	66.6014	12,553.7	65.2664	12,553.7	63.7402	12,553.7	62.5293	12,553.7	63.7344	12,553.7	60.2445	12,553.7	58.7646	12,553.7	54.1686	12,553.7	54.7318	12,553.7	49.7079	12,553.7	42.202	12,553.7	56.4396	12,553.7	56.6348	12,553.7	61.6054	12,553.7	59.4709	12,553.7	52.4612
12,996.1	89.153	12,996.1	89.6263	12,996.1	89.446	12,996.1	88.4245	12,996.1	88.7327	12,996.1	85.5605	12,996.1	85.6179	12,996.1	83.748	12,996.1	82.6825	12,996.1	81.3689	12,996.1	79.7973	12,996.1	78.0866	12,996.1	76.8315	12,996.1	75.3218	12,996.1	75.6451	12,996.1	71.5013	12,996.1	71.5627	12,996.1	71.0447	12,996.1	69.0734	12,996.1	66.6696	12,996.1	64.8254	12,996.1	64.5218	12,996.1	63.987	12,996.1	62.8613	12,996.1	64.9116	12,996.1	59.9835	12,996.1	60.8831	12,996.1	53.8328	12,996.1	55.7565	12,996.1	54.556	12,996.1	51.4768	12,996.1	61.6685	12,996.1	53.7156	12,996.1	61.765	12,996.1	59.9951	12,996.1	49.2857
13,454.6	88.7558	13,454.6	89.4339	13,454.6	89.3719	13,454.6	88.5573	13,454.6	88.5329	13,454.6	86.1289	13,454.6	85.3802	13,454.6	84.2582	13,454.6	82.9625	13,454.6	81.4196	13,454.6	79.7278	13,454.6	78.3069	13,454.6	77.2078	13,454.6	75.7944	13,454.6	75.6936	13,454.6	73.0555	13,454.6	71.7034	13,454.6	70.8008	13,454.6	69.549	13,454.6	67.481	13,454.6	64.2963	13,454.6	64.3061	13,454.6	65.469	13,454.6	64.8032	13,454.6	64.3138	13,454.6	60.3816	13,454.6	58.5577	13,454.6	56.0573	13,454.6	56.9191	13,454.6	54.1117	13,454.6	56.897	13,454.6	61.9879	13,454.6	53.7149	13,454.6	61.8188	13,454.6	60.8587	13,454.6	49.2451
13,929.2	88.0798	13,929.2	88.78	13,929.2	88.5325	13,929.2	87.8633	13,929.2	87.5331	13,929.2	85.7046	13,929.2	84.4795	13,929.2	84.2341	13,929.2	82.381	13,929.2	81.1745	13,929.2	79.5146	13,929.2	78.2935	13,929.2	76.943	13,929.2	74.812	13,929.2	74.6382	13,929.2	71.8403	13,929.2	71.2223	13,929.2	70.1261	13,929.2	68.1597	13,929.2	67.3546	13,929.2	64.9011	13,929.2	63.3961	13,929.2	64.6713	13,929.2	64.0427	13,929.2	62.2651	13,929.2	61.7497	13,929.2	60.1926	13,929.2	56.707	13,929.2	59.0854	13,929.2	56.7793	13,929.2	56.9338	13,929.2	61.5501	13,929.2	56.3064	13,929.2	62.0219	13,929.2	59.3226	13,929.2	43.8655
14,419.9	87.3045	14,419.9	88.1376	14,419.9	87.963	14,419.9	87.0578	14,419.9	86.3515	14,419.9	85.1103	14,419.9	83.3286	14,419.9	83.7277	14,419.9	81.8617	14,419.9	80.4712	14,419.9	78.9234	14,419.9	77.8177	14,419.9	76.1575	14,419.9	74.6141	14,419.9	73.8327	14,419.9	70.8146	14,419.9	70.3437	14,419.9	69.8709	14,419.9	67.3361	14,419.9	64.5482	14,419.9	62.8471	14,419.9	63.4998	14,419.9	63.4625	14,419.9	62.5228	14,419.9	61.735	14,419.9	61.208	14,419.9	57.8317	14,419.9	57.1947	14,419.9	58.8925	14,419.9	55.3714	14,419.9	55.7531	14,419.9	60.2796	14,419.9	53.4686	14,419.9	62.3951	14,419.9	58.2417	14,419.9	48.154
14,928.2	87.2594	14,928.2	87.429	14,928.2	87.5786	14,928.2	86.0481	14,928.2	85.75	14,928.2	84.1559	14,928.2	83.6228	14,928.2	82.3221	14,928.2	81.6176	14,928.2	78.4715	14,928.2	78.663	14,928.2	75.9656	14,928.2	75.7189	14,928.2	72.8098	14,928.2	73.8939	14,928.2	69.7138	14,928.2	70.1013	14,928.2	66.4893	14,928.2	66.4405	14,928.2	63.8043	14,928.2	61.9316	14,928.2	61.8992	14,928.2	62.7511	14,928.2	61.3533	14,928.2	59.3593	14,928.2	57.8097	14,928.2	56.4462	14,928.2	59.2309	14,928.2	58.6263	14,928.2	56.2336	14,928.2	57.3111	14,928.2	57.5815	14,928.2	53.6568	14,928.2	60.9541	14,928.2	57.2389	14,928.2	49.7391
15,455.6	87.1862	15,455.6	86.9332	15,455.6	87.3296	15,455.6	85.0949	15,455.6	85.4928	15,455.6	83.1074	15,455.6	83.3313	15,455.6	80.7974	15,455.6	80.8605	15,455.6	76.9424	15,455.6	77.8507	15,455.6	73.9508	15,455.6	74.5924	15,455.6	69.7163	15,455.6	72.3482	15,455.6	67.0289	15,455.6	68.6167	15,455.6	63.1212	15,455.6	64.463	15,455.6	61.5563	15,455.6	59.6495	15,455.6	60.8055	15,455.6	61.1162	15,455.6	59.3824	15,455.6	60.0504	15,455.6	58.0028	15,455.6	58.5374	15,455.6	56.4448	15,455.6	57.3202	15,455.6	52.281	15,455.6	55.4558	15,455.6	56.4931	15,455.6	52.9196	15,455.6	59.8902	15,455.6	55.3016	15,455.6	52.2222
16,000.5	86.7908	16,000.5	86.6148	16,000.5	86.5961	16,000.5	84.733	16,000.5	84.3757	16,000.5	82.4393	16,000.5	81.9799	16,000.5	79.3333	16,000.5	79.1012	16,000.5	75.147	16,000.5	74.9525	16,000.5	72.9639	16,000.5	71.4571	16,000.5	69.7504	16,000.5	69.3413	16,000.5	65.5121	16,000.5	65.0224	16,000.5	62.446	16,000.5	61.7594	16,000.5	60.1355	16,000.5	55.2341	16,000.5	60.8339	16,000.5	56.0809	16,000.5	60.2636	16,000.5	59.7493	16,000.5	55.6423	16,000.5	55.1581	16,000.5	54.4767	16,000.5	56.8145	16,000.5	48.1239	16,000.5	55.9667	16,000.5	56.2843	16,000.5	51.2557	16,000.5	57.1627	16,000.5	50.0184	16,000.5	52.5789
16,564.5	85.7415	16,564.5	85.5896	16,564.5	85.3173	16,564.5	83.6588	16,564.5	82.1425	16,564.5	80.8988	16,564.5	78.5252	16,564.5	77.7487	16,564.5	75.0221	16,564.5	75.756	16,564.5	72.5116	16,564.5	73.02	16,564.5	69.4536	16,564.5	69.172	16,564.5	67.2388	16,564.5	65.0446	16,564.5	61.8954	16,564.5	62.5545	16,564.5	56.8908	16,564.5	60.7704	16,564.5	53.6446	16,564.5	56.9783	16,564.5	56.3658	16,564.5	59.4342	16,564.5	55.6966	16,564.5	57.1263	16,564.5	54.1647	16,564.5	55.3293	16,564.5	57.6525	16,564.5	53.4778	16,564.5	55.1155	16,564.5	54.9646	16,564.5	54.0673	16,564.5	56.9018	16,564.5	49.996	16,564.5	55.2133
17,148.9	82.3999	17,148.9	81.9702	17,148.9	82.1464	17,148.9	80.1327	17,148.9	78.7152	17,148.9	77.5609	17,148.9	76.0074	17,148.9	75.5762	17,148.9	73.5084	17,148.9	73.3217	17,148.9	71.6943	17,148.9	70.3792	17,148.9	68.5483	17,148.9	65.745	17,148.9	65.9578	17,148.9	62.1742	17,148.9	60.78	17,148.9	59.3964	17,148.9	56.9205	17,148.9	58.1322	17,148.9	56.1188	17,148.9	57.1888	17,148.9	54.8104	17,148.9	53.3226	17,148.9	38.3469	17,148.9	51.6225	17,148.9	51.2152	17,148.9	50.816	17,148.9	52.4313	17,148.9	46.6704	17,148.9	50.2166	17,148.9	47.4645	17,148.9	49.3439	17,148.9	54.7424	17,148.9	50.2271	17,148.9	52.5616
17,752.4	77.0978	17,752.4	76.0654	17,752.4	76.5855	17,752.4	74.6823	17,752.4	73.0814	17,752.4	72.8622	17,752.4	71.7661	17,752.4	71.8921	17,752.4	69.3613	17,752.4	69.2833	17,752.4	67.2935	17,752.4	66.4329	17,752.4	63.8321	17,752.4	61.8955	17,752.4	61.7532	17,752.4	57.5455	17,752.4	58.183	17,752.4	56.1303	17,752.4	52.3571	17,752.4	55.024	17,752.4	52.4715	17,752.4	53.8854	17,752.4	49.2028	17,752.4	49.9525	17,752.4	38.6228	17,752.4	46.0861	17,752.4	48.1777	17,752.4	46.4685	17,752.4	48.267	17,752.4	40.7918	17,752.4	43.5058	17,752.4	40.8995	17,752.4	47.1607	17,752.4	50.7031	17,752.4	47.5715	17,752.4	49.2176
18,379.4	69.7153	18,379.4	68.6241	18,379.4	68.1385	18,379.4	68.8592	18,379.4	65.393	18,379.4	67.8397	18,379.4	65.2064	18,379.4	67.4014	18,379.4	63.0794	18,379.4	65.1716	18,379.4	60.6273	18,379.4	62.0677	18,379.4	58.2599	18,379.4	58.0823	18,379.4	57.7569	18,379.4	53.788	18,379.4	55.5886	18,379.4	53.3016	18,379.4	48.5894	18,379.4	50.277	18,379.4	46.6	18,379.4	49.9353	18,379.4	43.6999	18,379.4	46.4208	18,379.4	39.4964	18,379.4	40.3638	18,379.4	38.854	18,379.4	43.4904	18,379.4	38.5918	18,379.4	32.0762	18,379.4	37.0412	18,379.4	34.0559	18,379.4	41.6518	18,379.4	43.3946	18,379.4	42.5808	18,379.4	44.9022
19,026.9	61.2789	19,026.9	60.4295	19,026.9	57.4592	19,026.9	61.1304	19,026.9	59.6588	19,026.9	62.5101	19,026.9	60.1033	19,026.9	62.0265	19,026.9	58.905	19,026.9	61.3686	19,026.9	49.2486	19,026.9	57.4248	19,026.9	50.3911	19,026.9	54.5753	19,026.9	49.7223	19,026.9	50.3627	19,026.9	47.9869	19,026.9	49.9951	19,026.9	36.0166	19,026.9	45.4111	19,026.9	37.1445	19,026.9	44.3964	19,026.9	37.1969	19,026.9	37.4316	19,026.9	25.4869	19,026.9	25.2042	19,026.9	36.914	19,026.9	39.1072	19,026.9	31.6277	19,026.9	22.8526	19,026.9	32.9474	19,026.9	35.8013	19,026.9	37.7008	19,026.9	36.4429	19,026.9	32.1466	19,026.9	40.0685
19,697.8	66.8734	19,697.8	63.3719	19,697.8	67.0528	19,697.8	56.0953	19,697.8	65.6042	19,697.8	57.2084	19,697.8	64.9515	19,697.8	50.9583	19,697.8	63.2001	19,697.8	51.6562	19,697.8	59.7739	19,697.8	43.1745	19,697.8	54.979	19,697.8	40.9034	19,697.8	52.2553	19,697.8	40.0198	19,697.8	47.6555	19,697.8	35.9904	19,697.8	46.8722	19,697.8	35.943	19,697.8	39.7101	19,697.8	21.1421	19,697.8	39.1955	19,697.8	27.6973	19,697.8	38.3416	19,697.8	35.6115	19,697.8	37.967	19,697.8	16.6703	19,697.8	35.6719	19,697.8	24.3556	19,697.8	17.2287	19,697.8	34.7084	19,697.8	36.9382	19,697.8	8.65312	19,697.8	41.1251	19,697.8	35.9948
19,999.5	70.1212	19,999.5	66.8067	19,999.5	70.6036	19,999.5	59.2213	19,999.5	69.0681	19,999.5	56.0189	19,999.5	68.0298	19,999.5	47.8298	19,999.5	65.504	19,999.5	38.6614	19,999.5	62.5476	19,999.5	43.8968	19,999.5	58.1927	19,999.5	39.3307	19,999.5	57.3062	19,999.5	19.5655	19,999.5	53.1005	19,999.5	43.9623	19,999.5	50.6573	19,999.5	38.1794	19,999.5	42.4414	19,999.5	37.9986	19,999.5	41.4289	19,999.5	30.4057	19,999.5	45.4816	19,999.5	48.5604	19,999.5	43.662	19,999.5	37.6381	19,999.5	42.938	19,999.5	37.2364	19,999.5	35.7914	19,999.5	37.1179	19,999.5	38.1184	19,999.5	31.3887	19,999.5	44.0253	19,999.5	37.5314
