Freq[Hz]     dBSPL  Phase[Deg]
5.00000    -12.294    45.523
5.07273    -12.735    51.122
5.14651    -12.938    57.308
5.22137    -12.476    65.139
5.29732    -12.014    72.970
5.37437    -11.552    80.800
5.45254    -11.090    88.631
5.53185    -10.507    93.818
5.61231     -9.796    96.209
5.69394     -9.085    98.600
5.77676     -8.374   100.990
5.86079     -7.671   103.339
5.94604     -7.461   103.246
6.03252     -7.251   103.153
6.12027     -7.041   103.060
6.20929     -6.831   102.966
6.29961     -7.199   103.398
6.39124     -7.694   103.946
6.48420     -8.190   104.494
6.57851     -8.686   105.042
6.67420     -9.753   113.010
6.77128    -10.913   122.182
6.86977    -12.074   131.354
6.96969    -12.958   141.121
7.07107    -11.740   155.415
7.17392    -10.522   169.709
7.27827     -9.304  -175.997
7.38413     -8.052  -169.010
7.49154     -6.773  -167.667
7.60050     -5.494  -166.324
7.71105     -4.396  -165.540
7.82321     -4.094  -167.209
7.93701     -3.793  -168.877
8.05245     -3.491  -170.547
8.16958     -4.329  -170.867
8.28841     -5.210  -171.137
8.40896     -6.091  -171.408
8.53128     -7.917  -154.403
8.65537     -9.865  -135.169
8.78126    -11.812  -115.935
8.90899     -9.063   -99.055
9.03857     -6.006   -82.330
9.17004     -3.095   -67.512
9.30342     -1.347   -67.868
9.43874      0.401   -68.224
9.57603      1.686   -68.762
9.71532      2.265   -69.576
9.85663      2.844   -70.391
10.0000      2.843   -66.925
10.1455      2.680   -62.266
10.2930      2.777   -55.649
10.4427      3.602   -43.561
10.5946      4.426   -31.474
10.7487      6.294   -25.632
10.9051      8.371   -21.036
11.0637     10.259   -20.002
11.2246     11.948   -22.734
11.3879     13.504   -26.132
11.5535     14.576   -31.955
11.7216     15.639   -37.803
11.8921     16.111   -45.128
12.0650     16.583   -52.453
12.2405     16.469   -60.527
12.4186     16.279   -68.699
12.5992     15.315   -77.175
12.7825     14.180   -85.719
12.9684     11.320   -93.377
13.1570      8.057  -100.830
13.3484      4.367   -40.595
13.5426      0.607    30.631
13.7395      7.197    30.614
13.9394     13.676    27.051
14.1421     16.278    17.371
14.3478     18.478     7.454
14.5565     19.813    -2.970
14.7683     20.708   -13.471
14.9831     21.262   -24.032
15.2010     21.251   -34.335
15.4221     21.014   -44.400
15.6464     20.204   -53.612
15.8740     18.902   -61.176
16.1049     17.209   -67.423
16.3392     14.484   -64.266
16.5768     12.374   -51.777
16.8179     11.215   -26.245
17.0626     13.420   -11.161
17.3107     15.819    -3.248
17.5625     17.848    -4.200
17.8180     18.990    -8.196
18.0771     19.747   -12.118
18.3401     20.149   -15.524
18.6068     20.239   -16.921
18.8775     20.309   -16.278
19.1521     20.469   -14.269
19.4306     20.792   -11.274
19.7133     21.343    -8.393
20.0000     21.952    -6.107
20.2909     22.566    -4.127
20.5860     23.172    -2.222
20.8855     23.788    -0.156
21.1893     24.489     1.913
21.4975     25.261     3.404
21.8102     26.035     4.065
22.1274     26.736     3.935
22.4492     27.305     3.334
22.7758     27.716     2.794
23.1071     28.002     2.880
23.4432     28.253     3.930
23.7841     28.585     5.767
24.1301     29.042     7.588
24.4811     29.564     8.781
24.8372     30.046     9.279
25.1984     30.418     9.549
25.5649     30.684    10.314
25.9368     30.942    12.118
26.3141     31.334    14.858
26.6968     31.957    17.650
27.0851     32.764    19.417
27.4791     33.611    19.642
27.8788     34.348    18.687
28.2843     34.917    17.380
28.6957     35.346    16.473
29.1131     35.713    16.435
29.5365     36.121    17.288
29.9661     36.643    18.615
30.4020     37.289    19.808
30.8442     38.004    20.372
31.2929     38.709    20.372
31.7480     39.363    20.041
32.2098     39.963    19.636
32.6783     40.521    19.331
33.1536     41.055    19.145
33.6359     41.574    19.067
34.1251     42.086    19.153
34.6215     42.608    19.445
35.1250     43.165    19.848
35.6359     43.774    20.102
36.1543     44.404    20.018
36.6802     45.016    19.631
37.2137     45.590    19.181
37.7550     46.157    18.851
38.3041     46.743    18.578
38.8613     47.346    18.185
39.4265     47.941    17.637
40.0000     48.520    17.076
40.5818     49.095    16.555
41.1721     49.675    15.989
41.7710     50.244    15.353
42.3785     50.800    14.735
42.9949     51.361    14.149
43.6203     51.931    13.466
44.2548     52.491    12.611
44.8985     53.030    11.747
45.5515     53.573    10.926
46.2141     54.133     9.964
46.8863     54.676     8.751
47.5683     55.176     7.518
48.2602     55.672     6.456
48.9621     56.187     5.366
49.6743     56.698     4.058
50.3968     57.177     2.659
51.1299     57.636     1.327
51.8736     58.096    -0.015
52.6281     58.546    -1.465
53.3936     58.978    -2.985
54.1702     59.396    -4.540
54.9581     59.800    -6.145
55.7575     60.189    -7.784
56.5685     60.560    -9.453
57.3914     60.910   -11.146
58.2261     61.231   -12.799
59.0730     61.534   -14.372
59.9323     61.821   -15.941
60.8040     62.078   -17.504
61.6884     62.314   -18.980
62.5857     62.544   -20.484
63.4960     62.741   -22.099
64.4196     62.893   -23.612
65.3566     63.026   -24.874
66.3073     63.160   -25.991
67.2717     63.269   -26.995
68.2502     63.365   -27.614
69.2429     63.502   -28.070
70.2501     63.605   -28.739
71.2719     63.682   -28.818
72.3086     63.867   -29.073
73.3603     63.962   -30.129
74.4274     63.961   -30.491
75.5099     64.028   -30.618
76.6083     64.071   -30.752
77.7226     64.140   -30.622
78.8531     64.209   -30.549
80.0000     64.273   -30.305
81.1636     64.334   -30.049
82.3442     64.387   -29.710
83.5419     64.422   -29.353
84.7570     64.454   -28.763
85.9899     64.501   -28.217
87.2406     64.521   -27.597
88.5096     64.538   -26.806
89.7970     64.543   -25.925
91.1031     64.532   -24.880
92.4282     64.519   -23.586
93.7726     64.522   -22.185
95.1366     64.532   -20.643
96.5204     64.559   -18.978
97.9243     64.607   -17.197
99.3486     64.671   -15.469
100.794     64.729   -13.695
102.260     64.794   -11.933
103.747     64.855   -10.075
105.256     64.930    -8.407
106.787     64.966    -6.674
108.340     64.987    -4.828
109.916     65.012    -2.687
111.515     65.060    -0.462
113.137     65.113     1.670
114.783     65.152     3.894
116.452     65.185     6.182
118.146     65.212     8.545
119.865     65.236    11.128
121.608     65.279    13.799
123.377     65.333    16.496
125.171     65.394    19.187
126.992     65.441    21.861
128.839     65.491    24.683
130.713     65.540    27.545
132.615     65.593    30.479
134.543     65.647    33.512
136.500     65.707    36.645
138.486     65.761    39.418
140.500     65.824    42.496
142.544     65.876    45.624
144.617     65.849    48.586
146.721     65.854    51.967
148.855     65.920    55.638
151.020     65.985    58.917
153.217     65.989    62.015
155.445     65.886    65.293
157.706     65.817    69.734
160.000     65.888    74.364
162.327     65.984    78.562
164.688     66.059    82.156
167.084     66.180    85.921
169.514     66.212    88.566
171.980     65.936    92.715
174.481     65.890    97.552
177.019     65.868   101.590
179.594     65.754   106.287
182.206     65.720   112.019
184.856     65.728   117.229
187.545     65.713   121.852
190.273     65.627   127.234
193.041     65.608   132.974
195.849     65.646   138.686
198.697     65.726   144.095
201.587     65.674   149.547
204.520     65.691   155.486
207.494     65.711   160.918
210.512     65.675   166.567
213.574     65.514   172.655
216.681     65.443   179.570
219.833     65.538  -173.704
223.030     65.595  -167.223
226.274     65.575  -160.952
229.565     65.461  -154.221
232.905     65.436  -146.821
236.292     65.437  -139.582
239.729     65.511  -132.175
243.216     65.525  -125.315
246.754     65.465  -117.964
250.343     65.472  -110.214
253.984     65.410  -102.641
257.678     65.347   -94.797
261.426     65.177   -86.532
265.229     65.093   -76.783
269.087     65.140   -67.871
273.001     65.184   -59.205
276.972     65.104   -50.942
281.000     65.046   -41.029
285.088     65.077   -30.960
289.234     65.226   -21.019
293.441     65.311   -12.881
297.709     65.046    -3.639
302.040     65.107     5.910
306.433     64.758    15.314
310.890     64.635    27.374
315.412     64.445    38.731
320.000     64.434    50.811
324.655     64.334    62.094
329.377     64.400    74.049
334.168     64.511    84.916
339.028     64.252    95.733
343.959     64.120   108.616
348.962     64.064   119.649
354.038     63.780   131.981
359.188     63.640   145.264
364.412     63.600   158.753
369.713     63.490   172.570
375.090     63.373  -174.715
380.546     63.187  -160.075
386.081     63.124  -145.576
391.697     62.868  -131.167
397.394     62.694  -113.686
403.175     62.726   -98.237
409.039     62.585   -82.370
414.989     62.467   -65.064
421.025     62.316   -48.191
427.149     62.123   -30.417
433.362     62.068   -11.982
439.665     62.012     7.144
446.060     61.872    26.236
452.548     61.808    46.470
459.131     61.778    66.686
465.809     61.791    87.899
472.584     61.734   108.347
479.458     61.604   130.007
486.432     61.646   152.038
493.507     61.595   174.147
500.686     61.473  -162.634
507.968     61.418  -139.310
515.357     61.297  -116.034
522.853     61.187   -91.930
530.458     61.058   -67.336
538.174     60.879   -42.604
546.002     60.687   -17.619
553.943     60.481     8.151
562.001     60.240    34.610
570.175     60.001    61.885
578.469     59.743    89.817
586.883     59.450   118.095
595.419     59.169   146.687
604.080     58.903   175.968
612.866     58.638  -153.893
621.780     58.397  -122.957
630.824     58.189   -91.292
640.000     58.025   -59.584
649.309     57.907   -27.826
658.753     57.837     4.563
668.335     57.811    38.139
678.056     57.827    71.567
687.919     57.876   105.420
697.925     57.950   139.666
708.077     58.037   173.668
718.376     58.130  -151.946
728.825     58.220  -117.159
739.426     58.302   -81.944
750.181     58.370   -46.265
761.093     58.423   -10.082
772.163     58.458    26.042
783.394     58.479    62.747
794.789     58.487   100.666
806.349     58.487   138.617
818.078     58.482   177.218
829.977     58.478  -143.533
842.050     58.482  -103.645
854.298     58.496   -63.143
866.724     58.523   -22.665
879.330     58.567    18.952
892.120     58.625    61.059
905.097     58.694   103.608
918.262     58.769   146.560
931.618     58.842  -170.116
945.169     58.904  -126.436
958.917     58.946   -82.408
972.864     58.957   -38.018
987.015     58.925     6.757
1001.37     58.836    52.540
1015.94     58.683    98.811
1030.71     58.458   145.078
1045.71     58.144  -167.386
1060.92     57.732  -118.419
1076.35     57.228   -68.975
1092.00     56.632   -18.199
1107.89     55.961    34.864
1124.00     55.278    89.989
1140.35     54.687   147.425
1156.94     54.328  -152.342
1173.77     54.339   -90.829
1190.84     54.740   -29.382
1208.16     55.423    30.899
1225.73     56.235    90.199
1243.56     57.043   148.630
1261.65     57.749  -154.035
1280.00     58.308   -97.356
1298.62     58.700   -40.961
1317.51     58.917    16.018
1336.67     58.953    73.846
1356.11     58.809   132.226
1375.84     58.486  -168.036
1395.85     57.996  -106.670
1416.15     57.363   -43.958
1436.75     56.629    20.346
1457.65     55.844    86.998
1478.85     55.084   155.995
1500.36     54.425  -133.544
1522.19     53.896   -61.558
1544.33     53.475    11.392
1566.79     53.091    84.991
1589.58     52.663   159.305
1612.70     52.140  -125.862
1636.16     51.516   -49.330
1659.95     50.851    29.455
1684.10     50.273   110.699
1708.60     49.919  -166.119
1733.45     49.839   -82.773
1758.66     49.936     0.882
1784.24     50.036    83.881
1810.19     49.987   166.034
1836.52     49.695  -110.671
1863.24     49.141   -25.796
1890.34     48.390    61.740
1917.83     47.619   152.736
1945.73     47.092  -112.987
1974.03     46.993   -16.451
2002.74     47.239    79.687
2031.87     47.566   174.667
2061.43     47.747   -90.876
2091.41     47.689     4.884
2121.83     47.431   103.238
2152.69     47.136  -156.120
2184.01     47.037   -52.124
2215.77     47.285    53.836
2248.00     47.809   159.461
2280.70     48.381   -95.908
2313.87     48.804     8.743
2347.53     48.973   114.352
2381.68     48.866  -138.641
2416.32     48.533   -28.756
2451.46     48.084    84.652
2487.12     47.664  -158.276
2523.30     47.398   -38.000
2560.00     47.324    84.756
2597.24     47.425  -151.106
2635.01     47.694   -25.228
2673.34     48.137   101.915
2712.23     48.696  -130.428
2751.68     49.209    -2.045
2791.70     49.486   127.018
2832.31     49.434  -101.780
2873.50     49.167    33.327
2915.30     49.043   172.967
2957.70     49.383   -44.407
3000.72     50.009    97.479
3044.37     50.434  -121.727
3088.65     50.366    20.893
3133.58     49.909   167.761
3179.16     49.570   -39.316
3225.40     49.768   116.665
3272.31     50.177   -88.487
3319.91     50.232    66.756
3368.20     49.860  -133.968
3417.19     49.600    30.509
3466.89     49.885  -162.671
3517.32     50.245     3.400
3568.48     50.006   169.521
3620.39     49.179   -18.564
3673.05     48.621   161.940
3726.47     48.884   -15.411
3780.67     49.141   165.697
3835.67     48.894    -9.766
3891.46     48.962  -177.802
3948.06     49.895    14.424
4005.49     50.648  -156.798
4063.75     50.599    35.839
4122.86     50.587  -123.930
4182.82     51.437    77.780
4243.66     52.139   -83.041
4305.39     51.882   118.613
4368.01     51.533   -30.386
4431.55     52.111  -176.397
4496.01     52.511    34.910
4561.40     52.070  -108.836
4627.75     52.071   115.916
4695.06     52.766   -19.901
4763.35     52.692  -155.916
4832.64     52.363    77.048
4902.93     53.092   -46.936
4974.24     53.451  -174.569
5046.60     52.759    63.853
5120.00     52.665   -48.780
5194.47     52.898  -163.352
5270.03     52.110    85.727
5346.68     51.767   -15.428
5424.45     51.806  -118.073
5503.35     50.529   145.116
5583.40     50.249    61.631
5664.61     50.702   -26.405
5747.01     50.079  -106.912
5830.60     51.217   178.237
5915.41     51.690    94.925
6001.45     50.645    24.462
6088.74     51.468   -39.635
6177.30     51.445  -108.742
6267.15     50.968  -164.276
6358.31     51.485   139.363
6450.80     50.597    89.026
6544.62     51.232    49.075
6639.82     51.543     3.437
6736.40     51.512   -29.853
6834.38     52.407   -66.471
6933.79     51.760   -99.011
7034.64     51.602  -123.403
7136.96     50.235  -145.910
7240.77     49.594  -150.245
7346.09     49.371  -159.471
7452.94     48.636  -154.559
7561.35     48.848  -152.861
7671.33     48.011  -136.466
7782.91     48.808  -123.059
7896.12     48.055   -98.872
8010.97     48.798   -74.344
8127.49     48.102   -37.355
8245.71     49.253    -1.684
8365.65     48.766    42.811
8487.33     49.473    87.427
8610.78     48.753   143.270
8736.03     49.000  -160.749
8863.09     48.347   -91.595
8992.01     48.039   -23.110
9122.80     47.902    60.613
9255.50     47.289   141.196
9390.12     47.627  -121.902
9526.70     47.342   -25.461
9665.27     47.934    74.691
9805.86     47.384  -175.408
9948.49     46.860   -65.144
10093.2     46.141    60.674
10240.0     44.591  -165.926
10388.9     44.460   -25.695
10540.1     43.860   128.851
10693.4     43.339   -72.875
10848.9     44.446    89.886
11006.7     45.010  -100.627
11166.8     44.101    67.729
11329.2     42.800  -111.626
11494.0     41.657    92.479
11661.2     41.087   -55.133
11830.8     41.936   159.523
12002.9     43.291    18.063
12177.5     44.116  -116.926
12354.6     44.275   111.940
12534.3     44.123   -12.098
12716.6     43.749  -124.086
12901.6     43.036   133.722
13089.2     41.429    43.976
13279.6     40.525   -31.311
13472.8     40.835   -97.027
13668.8     41.832  -160.958
13867.6     41.969   139.860
14069.3     41.192    88.771
14273.9     39.741    46.698
14481.5     34.197    13.571
14692.2     33.790    56.438
14905.9     36.576    47.407
15122.7     37.124    55.765
15342.7     37.708    72.014
15565.8     37.741    95.894
15792.2     36.832   129.220
16021.9     35.596   178.859
16255.0     34.760  -117.284
16491.4     34.184   -44.539
16731.3     33.319    39.471
16974.7     32.229   136.168
17221.6     30.965  -115.063
17472.1     29.710     6.877
17726.2     27.973   140.505
17984.0     26.490   -69.711
18245.6     23.862    92.343
18511.0     22.064   -81.059
18780.2     22.089   123.020
19053.4     21.982   -39.104
19330.5     21.963   173.328
19611.7     20.298    42.151
19897.0     20.875   -67.692
20186.4     20.609  -176.274
20480.0     19.333    84.941
20777.9     18.260    15.525
21080.1     15.078   -44.096
21386.7     14.980   -56.565
21697.8     14.982   -83.188
22013.4     16.271   -88.656
22333.6     18.389  -100.483
22658.4     17.829   -85.697
22988.0     17.885   -56.481
23322.4     18.009   -15.368
23661.6     16.523    36.676
24005.8     16.368   119.849
24355.0     16.807  -139.806
24709.2     17.287   -29.022
25068.6     16.151    93.351
25433.2     15.881  -112.586
25803.2     15.660    62.514
26178.5     16.323  -128.323
26559.3     15.270    62.523
26945.6     13.880   -77.558
27337.5     13.979   157.311
27735.2     12.830    -9.776
28138.6      5.713  -166.495
28547.9     13.143    74.130
28963.1     14.180   -15.756
29384.4     15.497   -43.501
29811.8     17.992   -61.701
30245.4     17.513   -77.861
30685.3     15.826   -49.421
31131.7     13.373     7.320
31584.5     13.965    64.771
32043.9     11.113   149.086
32510.0     -0.210    -3.487
32982.8      5.859   123.985
33462.6      0.622   -66.250
33949.3      3.939   118.282
34443.1      5.307   -25.254
34944.1     -0.440    96.919
35452.4      6.858    94.537
35968.0     15.465    -3.101
36491.2     18.366  -102.562
37022.0     19.155  -174.187
37560.5     18.349   150.004
38106.8     14.471   159.858
38661.1      8.610   124.567
39223.4     14.019    33.553
39793.9     21.332    77.377
