Freq[Hz]     dBSPL  Phase[Deg]
5.00000    -13.443    38.119
5.07273    -13.883    43.612
5.14651    -14.086    49.691
5.22137    -13.624    57.408
5.29732    -13.162    65.125
5.37437    -12.700    72.843
5.45254    -12.238    80.559
5.53185    -11.655    85.629
5.61231    -10.944    87.899
5.69394    -10.233    90.169
5.77676     -9.521    92.438
5.86079     -8.818    94.666
5.94604     -8.608    94.444
6.03252     -8.398    94.222
6.12027     -8.188    93.999
6.20929     -7.977    93.777
6.29961     -8.345    94.073
6.39124     -8.840    94.485
6.48420     -9.335    94.896
6.57851     -9.831    95.306
6.67420    -10.898   103.131
6.77128    -12.058   112.158
6.86977    -13.218   121.186
6.96969    -14.101   130.807
7.07107    -12.883   144.949
7.17392    -11.665   159.091
7.27827    -10.447   173.232
7.38413     -9.194  -179.938
7.49154     -7.915  -178.755
7.60050     -6.636  -177.572
7.71105     -5.538  -176.950
7.82321     -5.236  -178.787
7.93701     -4.934   179.376
8.05245     -4.632   177.539
8.16958     -5.470   177.043
8.28841     -6.350   176.597
8.40896     -7.230   176.150
8.53128     -9.056  -167.027
8.65537    -11.004  -147.977
8.78126    -12.951  -128.927
8.90899    -10.201  -112.238
9.03857     -7.143   -95.704
9.17004     -4.232   -81.078
9.30342     -2.484   -81.633
9.43874     -0.736   -82.189
9.57603      0.550   -82.929
9.71532      1.130   -83.950
9.85663      1.710   -84.972
10.0000      1.709   -81.719
10.1455      1.547   -77.275
10.2930      1.644   -70.875
10.4427      2.469   -59.009
10.5946      3.294   -47.145
10.7487      5.162   -41.532
10.9051      7.239   -37.167
11.0637      9.128   -36.366
11.2246     10.818   -39.337
11.3879     12.375   -42.974
11.5535     13.448   -49.043
11.7216     14.511   -55.138
11.8921     14.984   -62.716
12.0650     15.457   -70.294
12.2405     15.343   -78.629
12.4186     15.153   -87.062
12.5992     14.191   -95.806
12.7825     13.057  -104.619
12.9684     10.197  -112.553
13.1570      6.935  -120.283
13.3484      3.246   -60.331
13.5426     -0.512    10.610
13.7395      6.080    10.301
13.9394     12.559     6.445
14.1421     15.162    -3.536
14.3478     17.362   -13.755
14.5565     18.699   -24.487
14.7683     19.594   -35.301
14.9831     20.150   -46.177
15.2010     20.140   -56.802
15.4221     19.904   -67.192
15.6464     19.095   -76.736
15.8740     17.795   -84.635
16.1049     16.103   -91.221
16.3392     13.379   -88.410
16.5768     11.271   -76.271
16.8179     10.112   -51.093
17.0626     12.320   -36.370
17.3107     14.720   -28.822
17.5625     16.751   -30.144
17.8180     17.894   -34.517
18.0771     18.652   -38.820
18.3401     19.056   -42.612
18.6068     19.147   -44.401
18.8775     19.220   -44.157
19.1521     19.381   -42.551
19.4306     19.706   -39.966
19.7133     20.259   -37.500
20.0000     20.870   -35.636
20.2909     21.485   -34.083
20.5860     22.093   -32.612
20.8855     22.711   -30.986
21.1893     23.415   -29.363
21.4975     24.188   -28.325
21.8102     24.964   -28.123
22.1274     25.669   -28.718
22.4492     26.239   -29.792
22.7758     26.652   -30.811
23.1071     26.941   -31.211
23.4432     27.195   -30.653
23.7841     27.529   -29.316
24.1301     27.989   -28.003
24.4811     28.512   -27.325
24.8372     28.997   -27.349
25.1984     29.372   -27.608
25.5649     29.642   -27.380
25.9368     29.902   -26.121
26.3141     30.298   -23.933
26.6968     30.924   -21.701
27.0851     31.734   -20.503
27.4791     32.583   -20.855
27.8788     33.323   -22.395
28.2843     33.896   -24.295
28.6957     34.328   -25.804
29.1131     34.698   -26.453
29.5365     35.110   -26.218
29.9661     35.635   -25.520
30.4020     36.285   -24.963
30.8442     37.004   -25.045
31.2929     37.713   -25.702
31.7480     38.371   -26.697
32.2098     38.975   -27.776
32.6783     39.536   -28.765
33.1536     40.074   -29.645
33.6359     40.599   -30.427
34.1251     41.114   -31.055
34.6215     41.640   -31.487
35.1250     42.202   -31.818
35.6359     42.815   -32.309
36.1543     43.451   -33.149
36.6802     44.067   -34.303
37.2137     44.646   -35.530
37.7550     45.218   -36.649
38.3041     45.809   -37.723
38.8613     46.416   -38.926
39.4265     47.016   -40.298
40.0000     47.600   -41.695
40.5818     48.181   -43.063
41.1721     48.766   -44.488
41.7710     49.341   -45.995
42.3785     49.903   -47.498
42.9949     50.470   -48.980
43.6203     51.045   -50.574
44.2548     51.611   -52.351
44.8985     52.156   -54.152
45.5515     52.705   -55.924
46.2141     53.271   -57.849
46.8863     53.820   -60.039
47.5683     54.327   -62.264
48.2602     54.829   -64.333
48.9621     55.351   -66.443
49.6743     55.869   -68.787
50.3968     56.354   -71.237
51.1299     56.819   -73.634
51.8736     57.287   -76.057
52.6281     57.744   -78.605
53.3936     58.183   -81.238
54.1702     58.608   -83.922
54.9581     59.019   -86.672
55.7575     59.416   -89.474
56.5685     59.794   -92.322
57.3914     60.151   -95.212
58.2261     60.481   -98.079
59.0730     60.791  -100.884
59.9323     61.086  -103.703
60.8040     61.351  -106.534
61.6884     61.595  -109.297
62.5857     61.833  -112.107
63.4960     62.038  -115.047
64.4196     62.198  -117.905
65.3566     62.339  -120.530
66.3073     62.481  -123.032
67.2717     62.600  -125.441
68.2502     62.704  -127.485
69.2429     62.849  -129.388
70.2501     62.962  -131.524
71.2719     63.047  -133.093
72.3086     63.242  -134.861
73.3603     63.346  -137.450
74.4274     63.354  -139.369
75.5099     63.429  -141.075
76.6083     63.483  -142.813
77.7226     63.561  -144.310
78.8531     63.638  -145.889
80.0000     63.712  -147.320
81.1636     63.782  -148.765
82.3442     63.844  -150.151
83.5419     63.889  -151.546
84.7570     63.931  -152.734
85.9899     63.988  -153.992
87.2406     64.018  -155.204
88.5096     64.045  -156.271
89.7970     64.059  -157.276
91.1031     64.058  -158.145
92.4282     64.056  -158.794
93.7726     64.069  -159.364
95.1366     64.090  -159.824
96.5204     64.125  -160.190
97.9243     64.184  -160.471
99.3486     64.259  -160.835
100.794     64.327  -161.184
102.260     64.403  -161.578
103.747     64.474  -161.907
105.256     64.559  -162.459
106.787     64.606  -162.980
108.340     64.637  -163.420
109.916     64.674  -163.600
111.515     64.732  -163.731
113.137     64.795  -163.990
114.783     64.844  -164.193
116.452     64.888  -164.368
118.146     64.927  -164.504
119.865     64.960  -164.458
121.608     65.013  -164.361
123.377     65.079  -164.277
125.171     65.150  -164.239
126.992     65.208  -164.256
128.839     65.269  -164.166
130.713     65.328  -164.076
132.615     65.393  -163.955
134.543     65.456  -163.835
136.500     65.527  -163.686
138.486     65.591  -163.625
140.500     65.664  -163.531
142.544     65.728  -163.660
144.617     65.711  -163.684
146.721     65.727  -163.289
148.855     65.804  -162.877
151.020     65.879  -162.859
153.217     65.894  -163.022
155.445     65.801  -163.005
157.706     65.742  -161.827
160.000     65.824  -160.732
162.327     65.930  -160.071
164.688     66.015  -159.742
167.084     66.147  -159.515
169.514     66.190  -160.680
171.980     65.924  -160.343
174.481     65.888  -159.045
177.019     65.875  -158.548
179.594     65.771  -157.665
182.206     65.748  -156.019
184.856     65.767  -154.896
187.545     65.762  -154.087
190.273     65.686  -152.794
193.041     65.677  -151.143
195.849     65.725  -149.520
198.697     65.815  -148.473
201.587     65.773  -147.384
204.520     65.800  -145.808
207.494     65.831  -144.740
210.512     65.805  -143.728
213.574     65.655  -142.276
216.681     65.593  -139.726
219.833     65.698  -137.639
223.030     65.765  -136.068
226.274     65.756  -134.709
229.565     65.653  -132.888
232.905     65.638  -130.400
236.292     65.650  -128.073
239.729     65.734  -125.850
243.216     65.759  -124.176
246.754     65.709  -122.010
250.343     65.728  -119.718
253.984     65.677  -117.603
257.678     65.625  -115.218
261.426     65.466  -112.684
265.229     65.395  -108.667
269.087     65.454  -105.487
273.001     65.510  -102.552
276.972     65.442  -100.021
281.000     65.397   -96.113
285.088     65.441   -92.321
289.234     65.604   -88.659
293.441     65.703   -86.800
297.709     65.453   -83.837
302.040     65.529   -80.568
306.433     65.196   -77.717
310.890     65.089   -72.486
315.412     64.916   -67.957
320.000     64.923   -62.709
324.655     64.842   -58.258
329.377     64.926   -53.137
334.168     65.057   -49.655
339.028     64.820   -46.226
343.959     64.710   -40.734
348.962     64.676   -37.098
354.038     64.415   -32.167
359.188     64.300   -26.565
364.412     64.286   -21.039
369.713     64.201   -15.191
375.090     64.111   -10.452
380.546     63.952    -4.072
386.081     63.916     2.160
391.697     63.688     8.019
397.394     63.543    16.668
403.175     63.602    23.553
409.039     63.489    30.577
414.989     63.398    38.761
421.025     63.275    46.509
427.149     63.108    55.158
433.362     63.079    64.471
439.665     63.050    73.925
446.060     62.939    83.349
452.548     62.903    93.921
459.131     62.904   104.204
465.809     62.949   115.214
472.584     62.926   125.463
479.458     62.833   136.930
486.432     62.916   148.496
493.507     62.909   159.866
500.686     62.838   172.069
507.968     62.837  -175.627
515.357     62.776  -163.379
522.853     62.733  -150.593
530.458     62.680  -137.613
538.174     62.582  -124.522
546.002     62.479  -111.214
553.943     62.372   -97.448
562.001     62.239   -83.336
570.175     62.118   -68.768
578.469     61.985   -53.926
586.883     61.823   -38.856
595.419     61.672   -23.604
604.080     61.536    -8.103
612.866     61.396     7.805
621.780     61.267    24.052
630.824     61.151    40.580
640.000     61.052    57.032
649.309     60.969    73.459
658.753     60.897    90.184
668.335     60.835   107.508
678.056     60.780   124.760
687.919     60.727   142.253
697.925     60.671   159.987
708.077     60.608   177.648
718.376     60.534  -164.421
728.825     60.443  -146.195
739.426     60.333  -127.638
750.181     60.205  -108.707
761.093     60.058   -89.357
772.163     59.899   -69.867
783.394     59.731   -49.876
794.789     59.560   -29.022
806.349     59.401    -7.957
818.078     59.264    13.636
829.977     59.159    35.707
842.050     59.094    58.182
854.298     59.073    80.963
866.724     59.093   103.604
879.330     59.145   126.684
892.120     59.216   149.790
905.097     59.287   172.885
918.262     59.339  -164.028
931.618     59.353  -140.908
945.169     59.312  -117.675
958.917     59.200   -94.218
972.864     59.006   -70.390
987.015     58.723   -46.004
1001.37     58.339   -20.504
1015.94     57.876     6.084
1030.71     57.369    33.733
1045.71     56.867    63.445
1060.92     56.471    95.389
1076.35     56.314   128.542
1092.00     56.482   162.477
1107.89     56.987  -163.500
1124.00     57.736  -130.654
1140.35     58.599   -99.320
1156.94     59.476   -69.065
1173.77     60.285   -39.938
1190.84     60.985   -11.602
1208.16     61.557    16.248
1225.73     61.996    44.147
1243.56     62.295    72.299
1261.65     62.448   100.599
1280.00     62.457   129.220
1298.62     62.323   158.334
1317.51     62.049  -171.584
1336.67     61.637  -140.313
1356.11     61.108  -107.908
1375.84     60.484   -73.791
1395.85     59.816   -37.707
1416.15     59.186     0.148
1436.75     58.687    39.608
1457.65     58.392    80.513
1478.85     58.328   122.096
1500.36     58.446   163.293
1522.19     58.656  -155.906
1544.33     58.869  -115.500
1566.79     59.018   -75.249
1589.58     59.071   -34.822
1612.70     59.019     5.789
1636.16     58.876    47.170
1659.95     58.663    89.485
1684.10     58.409   132.790
1708.60     58.131   177.037
1733.45     57.838  -138.196
1758.66     57.515   -92.301
1784.24     57.148   -45.558
1810.19     56.729     1.869
1836.52     56.266    50.901
1863.24     55.806   101.388
1890.34     55.412   153.300
1917.83     55.137  -153.710
1945.73     54.987  -100.169
1974.03     54.910   -46.124
2002.74     54.836     8.028
2031.87     54.719    62.567
2061.43     54.564   117.857
2091.41     54.422   174.395
2121.83     54.347  -128.064
2152.69     54.344   -70.747
2184.01     54.343   -13.422
2215.77     54.236    43.881
2248.00     53.935   101.278
2280.70     53.409   159.526
2313.87     52.705  -140.271
2347.53     51.953   -77.736
2381.68     51.306   -13.704
2416.32     50.784    50.920
2451.46     50.234   115.135
2487.12     49.412   179.069
2523.30     48.130  -115.973
2560.00     46.359   -47.789
2597.24     44.393    25.536
2635.01     42.819   103.907
2673.34     41.807  -177.304
2712.23     40.658  -100.585
2751.68     38.686   -21.422
2791.70     36.374    67.984
2832.31     35.733   164.935
2873.50     36.163  -107.211
2915.30     35.012   -25.359
2957.70     31.564    74.166
3000.72     32.585  -158.002
3044.37     37.299   -61.704
3088.65     39.645    19.332
3133.58     40.238   103.644
3179.16     40.698  -163.583
3225.40     42.042   -70.149
3272.31     43.209    17.517
3319.91     43.234   105.281
3368.20     42.541  -158.449
3417.19     42.737   -54.333
3466.89     43.853    47.186
3517.32     44.606   147.546
3568.48     45.466  -107.869
3620.39     47.235    -4.501
3673.05     48.822    92.699
3726.47     49.291  -170.663
3780.67     49.168   -67.091
3835.67     49.743    41.474
3891.46     50.698   146.956
3948.06     50.885  -108.414
4005.49     50.697     2.734
4063.75     51.325   117.960
4122.86     52.124  -130.916
4182.82     52.138   -19.225
4243.66     52.098    99.181
4305.39     52.683  -141.978
4368.01     52.948   -25.293
4431.55     52.664    95.425
4496.01     52.730  -139.780
4561.40     52.829   -16.233
4627.75     52.296   110.332
4695.06     52.055  -116.449
4763.35     52.289    15.853
4832.64     51.936   148.821
4902.93     51.571   -71.067
4974.24     51.884    71.371
5046.60     52.305  -145.965
5120.00     53.033    -1.632
5194.47     53.886   141.194
5270.03     54.389   -76.001
5346.68     54.763    68.642
5424.45     54.907  -146.003
5503.35     54.451     1.936
5583.40     53.820   156.216
5664.61     53.622   -46.013
5747.01     53.285   112.980
5830.60     53.157   -83.337
5915.41     53.346    79.197
6001.45     52.700  -115.999
6088.74     52.430    54.640
6177.30     51.825  -134.661
6267.15     51.275    46.446
6358.31     51.664  -134.219
6450.80     51.732    50.437
6544.62     53.087  -128.058
6639.82     53.081    51.451
6736.40     53.443  -122.928
6834.38     52.937    60.100
6933.79     52.397  -106.121
7034.64     51.767    85.937
7136.96     51.200   -70.785
7240.77     51.094   128.016
7346.09     50.691   -23.417
7452.94     50.588   179.570
7561.35     49.961    32.703
7671.33     49.341  -117.721
7782.91     48.539   105.341
7896.12     48.013   -36.130
8010.97     47.728  -166.923
8127.49     46.920    58.933
8245.71     46.874   -64.616
8365.65     46.445   168.764
8487.33     46.278    45.621
8610.78     45.191   -73.782
8736.03     44.461   169.877
8863.09     42.611    59.416
8992.01     40.547   -44.509
9122.80     38.854  -124.136
9255.50     40.011   152.442
9390.12     42.861    61.739
9526.70     43.989   -33.160
9665.27     44.340  -130.974
9805.86     44.349   143.158
9948.49     43.910    67.618
10093.2     44.755    -8.600
10240.0     46.346   -83.386
10388.9     46.703  -157.623
10540.1     46.360   129.344
10693.4     45.966    64.112
10848.9     45.433    10.373
11006.7     45.002   -39.833
11166.8     44.990   -90.579
11329.2     44.625  -133.875
11494.0     44.312  -168.332
11661.2     44.192   161.219
11830.8     44.567   131.775
12002.9     44.474   105.132
12177.5     44.165    85.727
12354.6     43.943    73.412
12534.3     43.982    64.550
12716.6     43.749    58.192
12901.6     43.231    58.583
13089.2     42.715    66.503
13279.6     42.507    80.657
13472.8     42.260    99.146
13668.8     42.057   123.763
13867.6     42.053   153.787
14069.3     42.228  -173.546
14273.9     41.913  -136.118
14481.5     41.608   -91.624
14692.2     40.974   -40.892
14905.9     40.664    17.645
15122.7     40.515    81.115
15342.7     40.228   148.703
15565.8     39.412  -137.630
15792.2     38.491   -53.805
16021.9     38.310    35.764
16255.0     37.698   128.131
16491.4     36.632  -133.194
16731.3     35.225   -24.557
16974.7     33.716    91.640
17221.6     31.777  -141.977
17472.1     29.595    -2.113
17726.2     29.027   154.173
17984.0     30.147   -50.575
18245.6     30.992   102.948
18511.0     31.320   -97.527
18780.2     31.479    68.850
19053.4     31.053  -119.074
19330.5     30.529    63.943
19611.7     30.410  -105.526
19897.0     29.871    90.384
20186.4     29.018   -64.314
20480.0     27.884   147.552
20777.9     25.677    11.746
21080.1     24.459  -105.537
21386.7     24.971   140.059
21697.8     24.432    32.488
22013.4     23.413   -62.819
22333.6     23.682  -151.387
22658.4     23.476   130.648
22988.0     24.270    55.765
23322.4     24.624   -10.755
23661.6     23.594   -73.391
24005.8     22.735  -122.272
24355.0     21.937  -164.747
24709.2     19.974   168.575
25068.6     19.143   151.909
25433.2     16.379   151.904
25803.2     15.381   161.541
26178.5     14.126  -176.691
26559.3     12.657  -144.116
26945.6     13.525  -103.380
27337.5     13.337   -66.893
27735.2      5.327    -8.216
28138.6      4.019   140.910
28547.9     12.242  -120.515
28963.1     13.192   -54.722
29384.4     14.367    41.065
29811.8     13.348   154.435
30245.4     14.138   -86.124
30685.3     12.434    43.399
31131.7     10.414  -166.756
31584.5      7.056     5.504
32043.9      1.728   -27.912
32510.0      1.278    13.296
32982.8     -2.555   -33.862
33462.6      3.050   162.408
33949.3      4.679    44.415
34443.1      6.533   103.033
34944.1     12.872   142.749
35452.4     13.444    14.249
35968.0     14.063   -94.116
36491.2     16.994   160.634
37022.0     15.913    64.057
37560.5     16.015     4.261
38106.8     11.395   -46.250
38661.1      2.043   -62.982
39223.4     12.005    59.021
39793.9     21.651    32.902
