Freq[Hz]     dBSPL  Phase[Deg]
5.00000    -12.589    29.357
5.07273    -13.029    34.725
5.14651    -13.232    40.676
5.22137    -12.770    48.260
5.29732    -12.308    55.843
5.37437    -11.846    63.425
5.45254    -11.384    71.008
5.53185    -10.800    75.939
5.61231    -10.089    78.065
5.69394     -9.378    80.191
5.77676     -8.666    82.317
5.86079     -7.963    84.401
5.94604     -7.753    84.026
6.03252     -7.543    83.651
6.12027     -7.333    83.276
6.20929     -7.122    82.901
6.29961     -7.490    83.037
6.39124     -7.985    83.286
6.48420     -8.480    83.535
6.57851     -8.976    83.784
6.67420    -10.043    91.438
6.77128    -11.203   100.294
6.86977    -12.363   109.150
6.96969    -13.246   118.599
7.07107    -12.028   132.560
7.17392    -10.810   146.521
7.27827     -9.592   160.481
7.38413     -8.339   167.126
7.49154     -7.060   168.119
7.60050     -5.781   169.111
7.71105     -4.683   169.542
7.82321     -4.381   167.506
7.93701     -4.078   165.470
8.05245     -3.776   163.433
8.16958     -4.614   162.729
8.28841     -5.494   162.074
8.40896     -6.374   161.419
8.53128     -8.200   178.025
8.65537    -10.147  -163.142
8.78126    -12.094  -144.310
8.90899     -9.344  -127.848
9.03857     -6.286  -111.542
9.17004     -3.375   -97.144
9.30342     -1.627   -97.935
9.43874      0.121   -98.727
9.57603      1.407   -99.707
9.71532      1.987  -100.974
9.85663      2.567  -102.242
10.0000      2.566   -99.242
10.1455      2.404   -95.053
10.2930      2.502   -88.910
10.4427      3.327   -77.309
10.5946      4.152   -65.709
10.7487      6.020   -60.368
10.9051      8.097   -56.277
11.0637      9.986   -55.755
11.2246     11.677   -59.008
11.3879     13.234   -62.931
11.5535     14.307   -69.292
11.7216     15.370   -75.679
11.8921     15.843   -83.558
12.0650     16.317   -91.439
12.2405     16.203  -100.083
12.4186     16.013  -108.827
12.5992     15.051  -117.890
12.7825     13.917  -127.023
12.9684     11.057  -135.285
13.1570      7.796  -143.345
13.3484      4.107   -83.731
13.5426      0.349   -13.128
13.7395      6.941   -13.785
13.9394     13.420   -17.991
14.1421     16.023   -28.329
14.3478     18.224   -38.909
14.5565     19.561   -50.008
14.7683     20.457   -61.194
14.9831     21.013   -72.447
15.2010     21.003   -83.456
15.4221     20.767   -94.233
15.6464     19.959  -104.172
15.8740     18.659  -112.471
16.1049     16.967  -119.462
16.3392     14.244  -117.064
16.5768     12.136  -105.343
16.8179     10.977   -80.588
17.0626     13.186   -66.297
17.3107     15.586   -59.185
17.5625     17.618   -60.948
17.8180     18.761   -65.772
18.0771     19.519   -70.531
18.3401     19.924   -74.786
18.6068     20.015   -77.045
18.8775     20.089   -77.277
19.1521     20.250   -76.155
19.4306     20.576   -74.059
19.7133     21.129   -72.091
20.0000     21.741   -70.733
20.2909     22.357   -69.693
20.5860     22.965   -68.742
20.8855     23.584   -67.642
21.1893     24.288   -66.556
21.4975     25.062   -66.061
21.8102     25.839   -66.411
22.1274     26.544   -67.566
22.4492     27.114   -69.207
22.7758     27.528   -70.801
23.1071     27.818   -71.786
23.4432     28.073   -71.821
23.7841     28.408   -71.086
24.1301     28.869   -70.384
24.4811     29.392   -70.326
24.8372     29.878   -70.979
25.1984     30.254   -71.877
25.5649     30.525   -72.297
25.9368     30.786   -71.694
26.3141     31.182   -70.174
26.6968     31.809   -68.619
27.0851     32.620   -68.107
27.4791     33.471   -69.155
27.8788     34.212   -71.404
28.2843     34.786   -74.022
28.6957     35.219   -76.260
29.1131     35.590   -77.647
29.5365     36.003   -78.163
29.9661     36.530   -78.225
30.4020     37.181   -78.441
30.8442     37.901   -79.308
31.2929     38.612   -80.760
31.7480     39.271   -82.563
32.2098     39.877   -84.460
32.6783     40.439   -86.282
33.1536     40.979   -88.006
33.6359     41.504   -89.644
34.1251     42.022   -91.141
34.6215     42.549   -92.456
35.1250     43.113   -93.682
35.6359     43.729   -95.082
36.1543     44.365   -96.844
36.6802     44.983   -98.933
37.2137     45.565  -101.111
37.7550     46.138  -103.193
38.3041     46.731  -105.246
38.8613     47.340  -107.442
39.4265     47.942  -109.822
40.0000     48.529  -112.241
40.5818     49.113  -114.647
41.1721     49.699  -117.125
41.7710     50.277  -119.702
42.3785     50.841  -122.290
42.9949     51.410  -124.874
43.6203     51.989  -127.585
44.2548     52.557  -130.497
44.8985     53.105  -133.449
45.5515     53.657  -136.390
46.2141     54.226  -139.501
46.8863     54.778  -142.895
47.5683     55.288  -146.342
48.2602     55.793  -149.651
48.9621     56.318  -153.020
49.6743     56.840  -156.641
50.3968     57.328  -160.388
51.1299     57.797  -164.102
51.8736     58.267  -167.860
52.6281     58.729  -171.764
53.3936     59.172  -175.773
54.1702     59.600  -179.853
54.9581     60.016   175.979
55.7575     60.415   171.737
56.5685     60.799   167.429
57.3914     61.160   163.057
58.2261     61.493   158.686
59.0730     61.808   154.353
59.9323     62.107   149.984
60.8040     62.376   145.580
61.6884     62.626   141.219
62.5857     62.867   136.789
63.4960     63.078   132.204
64.4196     63.243   127.676
65.3566     63.389   123.356
66.3073     63.536   119.134
67.2717     63.661   114.979
68.2502     63.770   111.163
69.2429     63.921   107.462
70.2501     64.039   103.499
71.2719     64.129   100.077
72.3086     64.329    96.429
73.3603     64.439    91.931
74.4274     64.453    88.075
75.5099     64.535    84.402
76.6083     64.593    80.668
77.7226     64.679    77.145
78.8531     64.762    73.510
80.0000     64.841    69.992
81.1636     64.918    66.429
82.3442     64.987    62.893
83.5419     65.038    59.316
84.7570     65.086    55.914
85.9899     65.150    52.409
87.2406     65.187    48.916
88.5096     65.220    45.534
89.7970     65.242    42.179
91.1031     65.248    38.926
92.4282     65.253    35.857
93.7726     65.271    32.830
95.1366     65.299    29.878
96.5204     65.342    26.982
97.9243     65.408    24.134
99.3486     65.490    21.164
100.794     65.566    18.172
102.260     65.648    15.095
103.747     65.727    12.043
105.256     65.819     8.726
106.787     65.874     5.402
108.340     65.912     2.116
109.916     65.956    -0.952
111.515     66.021    -4.014
113.137     66.092    -7.246
114.783     66.148   -10.467
116.452     66.200   -13.704
118.146     66.245   -16.948
119.865     66.287   -20.055
121.608     66.347   -23.157
123.377     66.419   -26.320
125.171     66.499   -29.576
126.992     66.563   -32.935
128.839     66.631   -36.237
130.713     66.698   -39.588
132.615     66.769   -42.959
134.543     66.841   -46.453
136.500     66.919   -50.003
138.486     66.989   -53.305
140.500     67.069   -56.911
142.544     67.140   -61.076
144.617     67.130   -64.800
146.721     67.152   -68.105
148.855     67.236   -71.730
151.020     67.317   -75.748
153.217     67.338   -79.947
155.445     67.252   -83.966
157.706     67.199   -86.823
160.000     67.288   -90.100
162.327     67.401   -93.810
164.688     67.491   -97.515
167.084     67.628  -101.658
169.514     67.677  -107.529
171.980     67.418  -111.897
174.481     67.387  -114.968
177.019     67.379  -118.838
179.594     67.281  -122.657
182.206     67.263  -126.049
184.856     67.288  -129.962
187.545     67.287  -133.853
190.273     67.216  -137.594
193.041     67.212  -140.975
195.849     67.264  -144.383
198.697     67.359  -148.701
201.587     67.322  -152.976
204.520     67.353  -156.762
207.494     67.388  -161.053
210.512     67.366  -165.733
213.574     67.220  -169.972
216.681     67.162  -172.774
219.833     67.271  -176.372
223.030     67.342   179.181
226.274     67.337   174.527
229.565     67.237   170.336
232.905     67.225   166.817
236.292     67.240   163.140
239.729     67.328   159.028
243.216     67.357   154.372
246.754     67.310   150.212
250.343     67.333   145.849
253.984     67.285   141.314
257.678     67.237   137.054
261.426     67.082   132.616
265.229     67.015   129.667
269.087     67.078   125.887
273.001     67.139   121.868
276.972     67.075   117.451
281.000     67.035   114.086
285.088     67.086   110.282
289.234     67.256   106.358
293.441     67.362   100.637
297.709     67.120    96.028
302.040     67.205    91.733
306.433     66.883    86.699
310.890     66.788    83.727
315.412     66.630    80.060
320.000     66.652    77.121
324.655     66.589    73.391
329.377     66.693    70.338
334.168     66.848    64.999
339.028     66.638    59.610
343.959     66.557    56.287
348.962     66.557    51.109
354.038     66.332    47.224
359.188     66.258    43.678
364.412     66.290    39.721
369.713     66.255    36.073
375.090     66.218    31.300
380.546     66.116    27.821
386.081     66.141    24.171
391.697     65.977    19.793
397.394     65.900    17.845
403.175     66.026    14.436
409.039     65.981    10.804
414.989     65.961     7.972
421.025     65.906     4.679
427.149     65.806     2.265
433.362     65.842     0.496
439.665     65.879    -1.818
446.060     65.831    -4.172
452.548     65.856    -5.384
459.131     65.918    -7.226
465.809     66.022    -8.677
472.584     66.059   -10.887
479.458     66.022   -11.877
486.432     66.164   -13.102
493.507     66.217   -14.856
500.686     66.207   -16.111
507.968     66.268   -17.266
515.357     66.270   -18.482
522.853     66.292   -19.502
530.458     66.307   -20.675
538.174     66.279   -21.753
546.002     66.246   -22.633
553.943     66.210   -23.415
562.001     66.151   -24.216
570.175     66.103   -24.931
578.469     66.043   -25.743
586.883     65.949   -26.357
595.419     65.862   -26.816
604.080     65.785   -27.386
612.866     65.696   -27.901
621.780     65.612   -28.417
630.824     65.534   -28.976
640.000     65.465   -29.576
649.309     65.405   -30.153
658.753     65.355   -30.712
668.335     65.314   -31.279
678.056     65.284   -31.849
687.919     65.263   -32.451
697.925     65.251   -33.098
708.077     65.245   -33.791
718.376     65.243   -34.548
728.825     65.242   -35.377
739.426     65.241   -36.277
750.181     65.237   -37.246
761.093     65.228   -38.276
772.163     65.212   -39.338
783.394     65.187   -40.435
794.789     65.152   -41.567
806.349     65.108   -42.679
818.078     65.056   -43.770
829.977     64.997   -44.819
842.050     64.935   -45.811
854.298     64.873   -46.735
866.724     64.818   -47.576
879.330     64.773   -48.370
892.120     64.745   -49.129
905.097     64.740   -49.894
918.262     64.759   -50.722
931.618     64.803   -51.678
945.169     64.868   -52.833
958.917     64.947   -54.250
972.864     65.029   -55.980
987.015     65.100   -58.054
1001.37     65.142   -60.511
1015.94     65.141   -63.303
1030.71     65.083   -66.343
1045.71     64.948   -69.628
1060.92     64.719   -73.051
1076.35     64.387   -76.377
1092.00     63.940   -79.444
1107.89     63.365   -82.007
1124.00     62.674   -83.660
1140.35     61.903   -83.943
1156.94     61.125   -82.357
1173.77     60.498   -78.667
1190.84     60.217   -73.362
1208.16     60.398   -67.866
1225.73     60.997   -63.809
1243.56     61.829   -62.179
1261.65     62.696   -63.049
1280.00     63.472   -65.940
1298.62     64.093   -70.310
1317.51     64.536   -75.735
1336.67     64.787   -81.839
1356.11     64.842   -88.234
1375.84     64.704   -94.676
1395.85     64.381  -100.863
1416.15     63.892  -106.430
1436.75     63.272  -111.079
1457.65     62.569  -114.579
1478.85     61.857  -116.789
1500.36     61.233  -117.830
1522.19     60.758  -118.203
1544.33     60.447  -118.596
1566.79     60.244  -119.580
1589.58     60.055  -121.347
1612.70     59.801  -123.664
1636.16     59.431  -126.056
1659.95     58.950  -127.912
1684.10     58.422  -128.670
1708.60     57.971  -128.106
1733.45     57.736  -126.645
1758.66     57.780  -125.295
1784.24     58.042  -125.131
1810.19     58.380  -126.620
1836.52     58.662  -129.610
1863.24     58.806  -133.562
1890.34     58.784  -137.861
1917.83     58.612  -141.947
1945.73     58.341  -145.407
1974.03     58.037  -148.069
2002.74     57.771  -149.981
2031.87     57.588  -151.422
2061.43     57.496  -152.712
2091.41     57.481  -154.053
2121.83     57.528  -155.495
2152.69     57.637  -157.020
2184.01     57.820  -158.728
2215.77     58.080  -160.810
2248.00     58.394  -163.474
2280.70     58.724  -166.838
2313.87     59.026  -170.890
2347.53     59.265  -175.476
2381.68     59.417   179.647
2416.32     59.475   174.689
2451.46     59.437   169.892
2487.12     59.317   165.515
2523.30     59.142   161.825
2560.00     58.972   158.989
2597.24     58.880   156.908
2635.01     58.914   155.096
2673.34     59.055   152.964
2712.23     59.217   150.254
2751.68     59.325   147.256
2791.70     59.375   144.600
2832.31     59.464   142.608
2873.50     59.693   140.778
2915.30     60.043   138.089
2957.70     60.350   134.050
3000.72     60.445   129.335
3044.37     60.297   125.337
3088.65     60.076   123.160
3133.58     60.043   122.427
3179.16     60.266   121.329
3225.40     60.530   118.799
3272.31     60.630   115.652
3319.91     60.602   113.256
3368.20     60.644   111.750
3417.19     60.810   109.912
3466.89     60.917   107.183
3517.32     60.835   104.740
3568.48     60.724   103.899
3620.39     60.847   103.879
3673.05     61.146   102.779
3726.47     61.351   100.657
3780.67     61.454    99.067
3835.67     61.686    97.972
3891.46     62.021    95.578
3948.06     62.124    91.942
4005.49     61.918    89.682
4063.75     61.842    90.100
4122.86     62.189    90.281
4182.82     62.557    88.108
4243.66     62.654    85.802
4305.39     62.785    84.998
4368.01     63.138    83.562
4431.55     63.357    80.691
4496.01     63.384    78.912
4561.40     63.636    78.150
4627.75     64.010    75.503
4695.06     64.073    72.316
4763.35     64.143    71.360
4832.64     64.613    69.674
4902.93     64.952    65.033
4974.24     64.912    60.941
5046.60     64.989    58.155
5120.00     65.118    53.527
5194.47     64.856    48.336
5270.03     64.405    44.791
5346.68     63.828    41.985
5424.45     63.061    42.364
5503.35     62.926    45.513
5583.40     63.094    44.842
5664.61     62.788    44.572
5747.01     62.882    46.830
5830.60     63.188    45.764
5915.41     63.141    44.775
6001.45     63.233    44.344
6088.74     63.129    43.614
6177.30     63.240    45.369
6267.15     63.664    44.502
6358.31     63.781    43.668
6450.80     64.247    42.904
6544.62     64.465    39.439
6639.82     64.579    37.829
6736.40     64.798    34.247
6834.38     64.664    31.481
6933.79     64.757    28.175
7034.64     64.259    24.058
7136.96     63.904    23.826
7240.77     63.518    21.462
7346.09     62.944    22.910
7452.94     62.660    24.072
7561.35     62.488    28.863
7671.33     63.062    30.725
7782.91     63.478    31.800
7896.12     64.129    29.396
8010.97     64.232    27.210
8127.49     64.536    23.813
8245.71     64.307    20.590
8365.65     64.135    17.203
8487.33     63.513    15.470
8610.78     62.993    14.281
8736.03     62.396    16.191
8863.09     61.996    16.800
8992.01     61.770    20.846
9122.80     61.900    22.385
9255.50     62.331    22.464
9390.12     62.380    20.630
9526.70     62.573    17.980
9665.27     62.550    16.252
9805.86     62.635    12.385
9948.49     62.652     8.463
10093.2     62.091     3.815
10240.0     61.478     1.681
10388.9     60.893     3.516
10540.1     60.540     5.948
10693.4     60.864     8.658
10848.9     61.364     9.699
11006.7     61.804     6.604
11166.8     61.885     1.118
11329.2     61.355    -1.494
11494.0     60.836    -0.582
11661.2     60.858     0.849
11830.8     61.265     1.160
12002.9     61.653    -0.259
12177.5     61.989    -4.622
12354.6     61.982   -11.188
12534.3     61.476   -16.939
12716.6     60.688   -19.858
12901.6     59.995   -21.724
13089.2     59.241   -23.343
13279.6     58.196   -23.520
13472.8     57.327   -17.359
13668.8     57.615   -11.085
13867.6     58.213   -10.455
14069.3     58.464   -13.470
14273.9     58.363   -16.710
14481.5     57.984   -21.397
14692.2     56.683   -21.370
14905.9     56.435   -16.705
15122.7     56.419   -14.484
15342.7     56.524   -12.745
15565.8     56.859   -12.715
15792.2     57.074   -14.919
16021.9     57.124   -18.133
16255.0     56.906   -22.149
16491.4     56.405   -25.001
16731.3     55.993   -26.218
16974.7     55.730   -28.233
17221.6     55.281   -30.995
17472.1     54.748   -33.569
17726.2     54.035   -36.189
17984.0     53.136   -37.600
18245.6     52.222   -36.960
18511.0     51.597   -34.578
18780.2     51.373   -33.352
19053.4     51.128   -34.763
19330.5     50.628   -37.237
19611.7     49.743   -38.785
19897.0     48.909   -37.809
20186.4     48.477   -37.242
20480.0     48.113   -41.261
20777.9     46.245   -43.848
21080.1     45.120   -40.081
21386.7     43.930   -36.036
21697.8     43.107   -28.301
22013.4     43.242   -24.862
22333.6     42.455   -26.760
22658.4     41.095   -19.832
22988.0     41.262   -10.384
23322.4     41.719    -8.287
23661.6     42.020    -9.309
24005.8     41.768   -12.197
24355.0     40.991   -11.493
24709.2     40.843   -10.170
25068.6     40.634   -13.670
25433.2     39.907   -15.081
25803.2     39.344   -15.330
26178.5     38.636   -15.956
26559.3     38.463   -12.438
26945.6     39.127   -16.087
27337.5     39.139   -25.724
27735.2     38.263   -35.035
28138.6     37.328   -41.468
28547.9     36.461   -53.361
28963.1     34.928   -62.492
29384.4     34.955   -84.834
29811.8     33.549  -122.210
30245.4     32.233  -167.533
30685.3     33.245   145.688
31131.7     33.711   108.191
31584.5     33.870    81.978
32043.9     34.368    61.898
32510.0     34.314    41.194
32982.8     32.858    19.999
33462.6     31.153     4.459
33949.3     30.573   -18.727
34443.1     31.967   -31.535
34944.1     34.441   -89.680
35452.4     35.357  -143.489
35968.0     36.218  -176.854
36491.2     39.217   139.316
37022.0     37.606    82.617
37560.5     31.180    45.116
38106.8     23.973    84.122
38661.1     32.284    78.340
39223.4     30.263    28.327
39793.9     28.928    22.420
