Freq[Hz]     dBSPL  Phase[Deg]
5.00000    -13.152    29.686
5.07273    -13.593    35.058
5.14651    -13.795    41.015
5.22137    -13.333    48.603
5.29732    -12.870    56.191
5.37437    -12.408    63.779
5.45254    -11.946    71.366
5.53185    -11.362    76.303
5.61231    -10.651    78.434
5.69394     -9.939    80.566
5.77676     -9.228    82.697
5.86079     -8.524    84.787
5.94604     -8.314    84.418
6.03252     -8.103    84.048
6.12027     -7.892    83.679
6.20929     -7.681    83.309
6.29961     -8.048    83.451
6.39124     -8.543    83.707
6.48420     -9.039    83.962
6.57851     -9.534    84.217
6.67420    -10.600    91.877
6.77128    -11.760   100.740
6.86977    -12.919   109.603
6.96969    -13.802   119.058
7.07107    -12.584   133.026
7.17392    -11.365   146.994
7.27827    -10.146   160.961
7.38413     -8.893   167.613
7.49154     -7.614   168.613
7.60050     -6.334   169.613
7.71105     -5.236   170.051
7.82321     -4.933   168.023
7.93701     -4.630   165.994
8.05245     -4.327   163.965
8.16958     -5.164   163.269
8.28841     -6.044   162.622
8.40896     -6.924   161.975
8.53128     -8.749   178.589
8.65537    -10.695  -162.570
8.78126    -12.641  -143.730
8.90899     -9.891  -127.259
9.03857     -6.833  -110.943
9.17004     -3.921   -96.537
9.30342     -2.172   -97.319
9.43874     -0.423   -98.102
9.57603      0.864   -99.073
9.71532      1.445  -100.330
9.85663      2.025  -101.588
10.0000      2.026   -98.578
10.1455      1.864   -94.380
10.2930      1.963   -88.227
10.4427      2.789   -76.616
10.5946      3.615   -65.005
10.7487      5.484   -59.654
10.9051      7.563   -55.552
11.0637      9.453   -55.019
11.2246     11.144   -58.261
11.3879     12.702   -62.173
11.5535     13.777   -68.522
11.7216     14.841   -74.898
11.8921     15.315   -82.766
12.0650     15.790   -90.634
12.2405     15.677   -99.267
12.4186     15.489  -107.999
12.5992     14.528  -117.049
12.7825     13.396  -126.169
12.9684     10.538  -134.418
13.1570      7.277  -142.465
13.3484      3.590   -82.838
13.5426     -0.167   -12.222
13.7395      6.426   -12.864
13.9394     12.908   -17.056
14.1421     15.512   -27.380
14.3478     17.715   -37.946
14.5565     19.054   -49.030
14.7683     19.952   -60.201
14.9831     20.510   -71.439
15.2010     20.502   -82.433
15.4221     20.267   -93.195
15.6464     19.461  -103.118
15.8740     18.164  -111.401
16.1049     16.474  -118.375
16.3392     13.752  -115.961
16.5768     11.646  -104.222
16.8179     10.491   -79.451
17.0626     12.701   -65.142
17.3107     15.104   -58.012
17.5625     17.138   -59.758
17.8180     18.284   -64.563
18.0771     19.044   -69.304
18.3401     19.452   -73.539
18.6068     19.547   -75.779
18.8775     19.622   -75.992
19.1521     19.787   -74.850
19.4306     20.116   -72.734
19.7133     20.671   -70.745
20.0000     21.286   -69.366
20.2909     21.905   -68.305
20.5860     22.516   -67.332
20.8855     23.139   -66.210
21.1893     23.846   -65.102
21.4975     24.624   -64.584
21.8102     25.404   -64.911
22.1274     26.113   -66.043
22.4492     26.688   -67.660
22.7758     27.105   -69.230
23.1071     27.399   -70.190
23.4432     27.657   -70.200
23.7841     27.996   -69.440
24.1301     28.461   -68.712
24.4811     28.990   -68.628
24.8372     29.480   -69.254
25.1984     29.860   -70.125
25.5649     30.136   -70.517
25.9368     30.402   -69.887
26.3141     30.802   -68.338
26.6968     31.434   -66.754
27.0851     32.251   -66.213
27.4791     33.107   -67.231
27.8788     33.853   -69.449
28.2843     34.432   -72.037
28.6957     34.871   -74.243
29.1131     35.247   -75.599
29.5365     35.665   -76.082
29.9661     36.199   -76.112
30.4020     36.856   -76.294
30.8442     37.582   -77.127
31.2929     38.299   -78.545
31.7480     38.965   -80.313
32.2098     39.576   -82.176
32.6783     40.146   -83.961
33.1536     40.693   -85.649
33.6359     41.225   -87.250
34.1251     41.749   -88.710
34.6215     42.283   -89.987
35.1250     42.854   -91.174
35.6359     43.477   -92.535
36.1543     44.123   -94.257
36.6802     44.748   -96.307
37.2137     45.337   -98.443
37.7550     45.918  -100.485
38.3041     46.520  -102.495
38.8613     47.138  -104.649
39.4265     47.748  -106.986
40.0000     48.343  -109.362
40.5818     48.935  -111.724
41.1721     49.531  -114.158
41.7710     50.118  -116.689
42.3785     50.691  -119.232
42.9949     51.269  -121.770
43.6203     51.857  -124.434
44.2548     52.435  -127.299
44.8985     52.993  -130.205
45.5515     53.554  -133.097
46.2141     54.134  -136.160
46.8863     54.696  -139.505
47.5683     55.216  -142.902
48.2602     55.732  -146.161
48.9621     56.267  -149.480
49.6743     56.800  -153.051
50.3968     57.299  -156.746
51.1299     57.779  -160.408
51.8736     58.260  -164.115
52.6281     58.733  -167.966
53.3936     59.188  -171.922
54.1702     59.628  -175.950
54.9581     60.055   179.936
55.7575     60.466   175.748
56.5685     60.861   171.493
57.3914     61.234   167.176
58.2261     61.581   162.860
59.0730     61.907   158.582
59.9323     62.219   154.268
60.8040     62.501   149.919
61.6884     62.763   145.614
62.5857     63.018   141.239
63.4960     63.241   136.710
64.4196     63.419   132.239
65.3566     63.579   127.974
66.3073     63.740   123.809
67.2717     63.877   119.710
68.2502     63.999   115.951
69.2429     64.164   112.306
70.2501     64.295   108.400
71.2719     64.400   105.035
72.3086     64.614   101.443
73.3603     64.738    97.001
74.4274     64.765    93.201
75.5099     64.861    89.585
76.6083     64.934    85.908
77.7226     65.033    82.441
78.8531     65.131    78.862
80.0000     65.225    75.400
81.1636     65.316    71.893
82.3442     65.399    68.413
83.5419     65.465    64.891
84.7570     65.527    61.544
85.9899     65.605    58.094
87.2406     65.657    54.656
88.5096     65.706    51.329
89.7970     65.742    48.029
91.1031     65.762    44.830
92.4282     65.782    41.814
93.7726     65.816    38.842
95.1366     65.858    35.943
96.5204     65.916    33.100
97.9243     65.996    30.306
99.3486     66.093    27.388
100.794     66.183    24.448
102.260     66.280    21.424
103.747     66.374    18.423
105.256     66.481    15.159
106.787     66.550    11.886
108.340     66.603     8.651
109.916     66.661     5.634
111.515     66.741     2.623
113.137     66.827    -0.559
114.783     66.898    -3.730
116.452     66.963    -6.916
118.146     67.024   -10.110
119.865     67.079   -13.167
121.608     67.154   -16.220
123.377     67.241   -19.333
125.171     67.334   -22.539
126.992     67.414   -25.850
128.839     67.496   -29.102
130.713     67.577   -32.404
132.615     67.662   -35.726
134.543     67.748   -39.170
136.500     67.841   -42.669
138.486     67.924   -45.926
140.500     68.017   -49.483
142.544     68.103   -53.594
144.617     68.107   -57.271
146.721     68.142   -60.528
148.855     68.240   -64.101
151.020     68.336   -68.069
153.217     68.371   -72.217
155.445     68.298   -76.187
157.706     68.259   -78.995
160.000     68.361   -82.218
162.327     68.488   -85.875
164.688     68.591   -89.533
167.084     68.742   -93.624
169.514     68.805   -99.439
171.980     68.560  -103.752
174.481     68.542  -106.771
177.019     68.547  -110.591
179.594     68.462  -114.355
182.206     68.459  -117.689
184.856     68.498  -121.544
187.545     68.510  -125.381
190.273     68.453  -129.063
193.041     68.463  -132.387
195.849     68.529  -135.737
198.697     68.638  -139.994
201.587     68.615  -144.207
204.520     68.660  -147.932
207.494     68.709  -152.162
210.512     68.702  -156.777
213.574     68.571  -160.951
216.681     68.527  -163.693
219.833     68.651  -167.226
223.030     68.737  -171.605
226.274     68.747  -176.191
229.565     68.663   179.686
232.905     68.667   176.235
236.292     68.698   172.624
239.729     68.802   168.584
243.216     68.847   163.998
246.754     68.817   159.908
250.343     68.858   155.619
253.984     68.828   151.156
257.678     68.798   146.968
261.426     68.663   142.603
265.229     68.615   139.727
269.087     68.698   136.019
273.001     68.778   132.070
276.972     68.735   127.721
281.000     68.717   124.426
285.088     68.790   120.692
289.234     68.984   116.835
293.441     69.114   111.177
297.709     68.896   106.627
302.040     69.005   102.388
306.433     68.708    97.407
310.890     68.642    94.484
315.412     68.510    90.859
320.000     68.561    87.954
324.655     68.525    84.251
329.377     68.658    81.217
334.168     68.844    75.887
339.028     68.664    70.498
343.959     68.613    67.163
348.962     68.642    61.961
354.038     68.445    58.040
359.188     68.399    54.446
364.412     68.459    50.427
369.713     68.450    46.708
375.090     68.437    41.853
380.546     68.358    38.282
386.081     68.403    34.533
391.697     68.257    30.051
397.394     68.196    27.994
403.175     68.334    24.482
409.039     68.299    20.750
414.989     68.287    17.821
421.025     68.238    14.440
427.149     68.142    11.951
433.362     68.179    10.119
439.665     68.218     7.751
446.060     68.170     5.358
452.548     68.194     4.119
459.131     68.254     2.263
465.809     68.358     0.810
472.584     68.392    -1.391
479.458     68.354    -2.361
486.432     68.494    -3.556
493.507     68.545    -5.271
500.686     68.533    -6.477
507.968     68.593    -7.574
515.357     68.593    -8.723
522.853     68.614    -9.665
530.458     68.626   -10.749
538.174     68.595   -11.725
546.002     68.558   -12.488
553.943     68.518   -13.136
562.001     68.454   -13.779
570.175     68.402   -14.309
578.469     68.337   -14.904
586.883     68.240   -15.269
595.419     68.151   -15.447
604.080     68.075   -15.694
612.866     67.992   -15.843
621.780     67.919   -15.948
630.824     67.860   -16.056
640.000     67.818   -16.178
649.309     67.796   -16.262
658.753     67.794   -16.315
668.335     67.815   -16.365
678.056     67.858   -16.444
687.919     67.922   -16.584
697.925     68.006   -16.812
708.077     68.103   -17.146
718.376     68.213   -17.607
728.825     68.331   -18.204
739.426     68.452   -18.942
750.181     68.574   -19.817
761.093     68.692   -20.820
772.163     68.801   -21.918
783.394     68.902   -23.110
794.789     68.994   -24.399
806.349     69.074   -25.722
818.078     69.145   -27.082
829.977     69.207   -28.462
842.050     69.262   -29.849
854.298     69.314   -31.239
866.724     69.365   -32.611
879.330     69.418   -34.017
892.120     69.476   -35.456
905.097     69.541   -36.956
918.262     69.611   -38.549
931.618     69.685   -40.270
945.169     69.758   -42.153
958.917     69.824   -44.223
972.864     69.875   -46.495
987.015     69.900   -48.969
1001.37     69.886   -51.662
1015.94     69.825   -54.502
1030.71     69.709   -57.392
1045.71     69.523   -60.314
1060.92     69.258   -63.146
1076.35     68.916   -65.662
1092.00     68.495   -67.697
1107.89     68.003   -69.024
1124.00     67.475   -69.348
1140.35     66.969   -68.435
1156.94     66.569   -66.198
1173.77     66.384   -62.942
1190.84     66.485   -59.390
1208.16     66.868   -56.463
1225.73     67.461   -54.868
1243.56     68.153   -54.922
1261.65     68.839   -56.562
1280.00     69.452   -59.498
1298.62     69.952   -63.402
1317.51     70.323   -68.009
1336.67     70.555   -73.047
1356.11     70.646   -78.215
1375.84     70.603   -83.321
1395.85     70.439   -88.141
1416.15     70.177   -92.427
1436.75     69.852   -96.031
1457.65     69.501   -98.900
1478.85     69.172  -101.071
1500.36     68.905  -102.702
1522.19     68.719  -104.096
1544.33     68.608  -105.551
1566.79     68.543  -107.269
1589.58     68.488  -109.296
1612.70     68.412  -111.513
1636.16     68.304  -113.746
1659.95     68.169  -115.801
1684.10     68.036  -117.552
1708.60     67.938  -119.017
1733.45     67.903  -120.357
1758.66     67.935  -121.853
1784.24     68.013  -123.728
1810.19     68.099  -126.069
1836.52     68.153  -128.850
1863.24     68.149  -131.870
1890.34     68.078  -134.886
1917.83     67.952  -137.680
1945.73     67.798  -140.115
1974.03     67.645  -142.192
2002.74     67.518  -143.989
2031.87     67.421  -145.646
2061.43     67.349  -147.257
2091.41     67.288  -148.831
2121.83     67.238  -150.294
2152.69     67.212  -151.570
2184.01     67.234  -152.717
2215.77     67.320  -153.912
2248.00     67.464  -155.404
2280.70     67.635  -157.390
2313.87     67.785  -159.924
2347.53     67.869  -162.856
2381.68     67.859  -165.873
2416.32     67.758  -168.622
2451.46     67.597  -170.771
2487.12     67.438  -172.154
2523.30     67.351  -172.896
2560.00     67.376  -173.409
2597.24     67.502  -174.179
2635.01     67.672  -175.493
2673.34     67.824  -177.296
2712.23     67.922  -179.296
2751.68     67.975   178.827
2791.70     68.022   177.232
2832.31     68.102   175.790
2873.50     68.218   174.211
2915.30     68.333   172.320
2957.70     68.399   170.233
3000.72     68.404   168.302
3044.37     68.383   166.827
3088.65     68.395   165.798
3133.58     68.474   164.919
3179.16     68.605   163.883
3225.40     68.757   162.624
3272.31     68.918   161.212
3319.91     69.092   159.613
3368.20     69.264   157.717
3417.19     69.399   155.584
3466.89     69.490   153.460
3517.32     69.570   151.504
3568.48     69.677   149.548
3620.39     69.799   147.220
3673.05     69.876   144.355
3726.47     69.839   141.142
3780.67     69.641   138.062
3835.67     69.283   135.933
3891.46     68.896   135.605
3948.06     68.733   136.760
4005.49     68.880   137.430
4063.75     69.087   136.330
4122.86     69.115   134.445
4182.82     69.026   133.251
4243.66     69.010   132.586
4305.39     69.046   131.353
4368.01     68.971   129.621
4431.55     68.759   128.377
4496.01     68.510   128.056
4561.40     68.284   128.552
4627.75     68.124   129.881
4695.06     68.110   131.842
4763.35     68.276   133.758
4832.64     68.552   135.129
4902.93     68.879   136.367
4974.24     69.410   137.810
5046.60     70.278   137.542
5120.00     71.159   133.711
5194.47     71.702   127.648
5270.03     71.966   120.922
5346.68     71.977   112.948
5424.45     71.449   104.104
5503.35     70.303    97.252
5583.40     68.848    94.108
5664.61     67.256    95.186
5747.01     66.095   102.213
5830.60     66.088   108.590
5915.41     66.039   108.891
6001.45     65.252   110.492
6088.74     64.774   117.421
6177.30     65.134   122.846
6267.15     65.464   124.292
6358.31     65.594   124.901
6450.80     65.538   124.406
6544.62     65.169   125.038
6639.82     64.906   126.478
6736.40     64.396   127.432
6834.38     63.712   130.438
6933.79     62.797   135.389
7034.64     61.972   146.720
7136.96     62.291   162.508
7240.77     64.143   173.706
7346.09     65.963   175.107
7452.94     67.163   173.131
7561.35     67.790   170.319
7671.33     68.118   168.545
7782.91     68.127   168.201
7896.12     68.320   170.471
8010.97     68.673   172.372
8127.49     69.167   173.472
8245.71     69.462   173.809
8365.65     69.740   174.154
8487.33     69.825   174.932
8610.78     69.964   176.614
8736.03     70.208   178.524
8863.09     70.496  -179.374
8992.01     71.164  -177.788
9122.80     71.892  -179.453
9255.50     72.303   176.403
9390.12     72.373   172.440
9526.70     72.186   169.119
9665.27     71.978   167.495
9805.86     71.880   166.713
9948.49     71.857   165.759
10093.2     71.893   165.117
10240.0     72.006   164.320
10388.9     72.123   162.857
10540.1     72.154   160.858
10693.4     72.081   159.324
10848.9     72.000   157.561
11006.7     71.793   155.275
11166.8     71.386   153.346
11329.2     70.792   152.923
11494.0     70.236   154.289
11661.2     69.891   157.177
11830.8     69.892   159.246
12002.9     69.859   159.549
12177.5     69.641   159.019
12354.6     69.145   158.564
12534.3     68.382   159.834
12716.6     67.570   164.720
12901.6     67.378   172.933
13089.2     67.916   178.038
13279.6     68.223  -179.707
13472.8     68.555  -178.575
13668.8     68.671  -178.129
13867.6     68.629  -177.769
14069.3     68.537  -176.623
14273.9     68.462  -175.376
14481.5     68.419  -174.292
14692.2     68.378  -173.514
14905.9     68.277  -174.427
15122.7     67.693  -174.798
15342.7     67.009  -172.773
15565.8     66.455  -168.531
15792.2     66.216  -163.884
16021.9     66.163  -160.250
16255.0     66.057  -158.227
16491.4     65.696  -156.339
16731.3     65.195  -152.722
16974.7     64.844  -147.299
17221.6     64.817  -141.652
17472.1     64.976  -137.434
17726.2     65.085  -134.578
17984.0     65.113  -132.363
18245.6     65.052  -130.392
18511.0     64.857  -128.908
18780.2     64.505  -126.544
19053.4     64.200  -123.168
19330.5     63.949  -119.964
19611.7     63.664  -116.781
19897.0     63.285  -113.370
20186.4     62.942  -108.872
20480.0     62.780  -105.018
20777.9     61.871  -100.964
21080.1     61.862   -91.160
21386.7     62.062   -84.949
21697.8     62.450   -79.949
22013.4     62.734   -77.182
22333.6     62.829   -74.488
22658.4     62.964   -71.928
22988.0     62.994   -70.637
23322.4     62.804   -69.188
23661.6     62.570   -67.459
24005.8     62.163   -66.016
24355.0     61.591   -63.255
24709.2     61.104   -58.927
25068.6     60.731   -54.707
25433.2     60.341   -50.464
25803.2     60.083   -45.817
26178.5     59.851   -41.853
26559.3     59.561   -37.296
26945.6     59.458   -31.909
27337.5     59.530   -26.862
27735.2     59.691   -22.850
28138.6     59.942   -21.234
28547.9     59.471   -21.426
28963.1     58.469   -17.622
29384.4     57.618    -8.962
29811.8     57.391     2.614
30245.4     57.821    11.917
30685.3     58.234    17.789
31131.7     58.441    23.066
31584.5     58.670    28.029
32043.9     58.789    32.070
32510.0     58.832    36.300
32982.8     58.787    40.721
33462.6     58.874    46.982
33949.3     59.610    54.842
34443.1     60.672    55.171
34944.1     61.469    57.185
35452.4     63.042    55.756
35968.0     64.532    46.672
36491.2     65.455    29.589
37022.0     64.520     6.151
37560.5     60.985   -10.130
38106.8     58.028    -3.100
38661.1     57.206    -4.954
39223.4     54.866   -10.376
39793.9     51.868    12.415
