Freq[Hz]     dBSPL  Phase[Deg]
5.00000    -13.198    29.551
5.07273    -13.638    34.922
5.14651    -13.841    40.876
5.22137    -13.379    48.462
5.29732    -12.916    56.048
5.37437    -12.454    63.634
5.45254    -11.992    71.220
5.53185    -11.408    76.154
5.61231    -10.697    78.283
5.69394     -9.985    80.413
5.77676     -9.274    82.542
5.86079     -8.570    84.629
5.94604     -8.360    84.258
6.03252     -8.149    83.886
6.12027     -7.938    83.514
6.20929     -7.727    83.142
6.29961     -8.094    83.282
6.39124     -8.589    83.535
6.48420     -9.085    83.788
6.57851     -9.580    84.040
6.67420    -10.646    91.698
6.77128    -11.806   100.558
6.86977    -12.965   109.418
6.96969    -13.848   118.871
7.07107    -12.630   132.836
7.17392    -11.412   146.801
7.27827    -10.193   160.765
7.38413     -8.940   167.414
7.49154     -7.661   168.411
7.60050     -6.381   169.408
7.71105     -5.283   169.843
7.82321     -4.980   167.812
7.93701     -4.678   165.780
8.05245     -4.375   163.748
8.16958     -5.212   163.049
8.28841     -6.092   162.399
8.40896     -6.972   161.748
8.53128     -8.797   178.359
8.65537    -10.744  -162.803
8.78126    -12.690  -143.966
8.90899     -9.940  -127.499
9.03857     -6.882  -111.187
9.17004     -3.970   -96.784
9.30342     -2.221   -97.570
9.43874     -0.472   -98.356
9.57603      0.815   -99.331
9.71532      1.395  -100.592
9.85663      1.976  -101.854
10.0000      1.976   -98.848
10.1455      1.814   -94.654
10.2930      1.913   -88.505
10.4427      2.739   -76.898
10.5946      3.565   -65.291
10.7487      5.434   -59.944
10.9051      7.512   -55.846
11.0637      9.402   -55.318
11.2246     11.093   -58.564
11.3879     12.651   -62.480
11.5535     13.725   -68.835
11.7216     14.789   -75.215
11.8921     15.263   -83.087
12.0650     15.738   -90.960
12.2405     15.625   -99.598
12.4186     15.436  -108.335
12.5992     14.475  -117.389
12.7825     13.343  -126.515
12.9684     10.484  -134.769
13.1570      7.224  -142.821
13.3484      3.536   -83.199
13.5426     -0.221   -12.588
13.7395      6.372   -13.236
13.9394     12.853   -17.434
14.1421     15.457   -27.763
14.3478     17.660   -38.335
14.5565     18.998   -49.425
14.7683     19.895   -60.602
14.9831     20.453   -71.845
15.2010     20.444   -82.846
15.4221     20.209   -93.613
15.6464     19.403  -103.542
15.8740     18.105  -111.832
16.1049     16.415  -118.812
16.3392     13.693  -116.404
16.5768     11.586  -104.673
16.8179     10.430   -79.908
17.0626     12.641   -65.606
17.3107     15.043   -58.483
17.5625     17.076   -60.235
17.8180     18.222   -65.048
18.0771     18.982   -69.796
18.3401     19.389   -74.038
18.6068     19.483   -76.286
18.8775     19.558   -76.506
19.1521     19.722   -75.371
19.4306     20.050   -73.263
19.7133     20.605   -71.283
20.0000     21.220   -69.912
20.2909     21.839   -68.859
20.5860     22.449   -67.894
20.8855     23.070   -66.781
21.1893     23.777   -65.680
21.4975     24.554   -65.172
21.8102     25.334   -65.507
22.1274     26.041   -66.648
22.4492     26.616   -68.274
22.7758     27.033   -69.853
23.1071     27.325   -70.823
23.4432     27.583   -70.842
23.7841     27.922   -70.092
24.1301     28.386   -69.373
24.4811     28.914   -69.299
24.8372     29.403   -69.936
25.1984     29.782   -70.816
25.5649     30.057   -71.219
25.9368     30.322   -70.599
26.3141     30.721   -69.061
26.6968     31.352   -67.487
27.0851     32.168   -66.957
27.4791     33.023   -67.987
27.8788     33.768   -70.216
28.2843     34.346   -72.815
28.6957     34.784   -75.033
29.1131     35.160   -76.401
29.5365     35.577   -76.896
29.9661     36.108   -76.938
30.4020     36.764   -77.133
30.8442     37.490   -77.978
31.2929     38.205   -79.409
31.7480     38.870   -81.190
32.2098     39.479   -83.065
32.6783     40.048   -84.864
33.1536     40.594   -86.565
33.6359     41.125   -88.180
34.1251     41.648   -89.654
34.6215     42.180   -90.944
35.1250     42.750   -92.146
35.6359     43.372   -93.521
36.1543     44.015   -95.258
36.6802     44.639   -97.322
37.2137     45.226   -99.474
37.7550     45.806  -101.530
38.3041     46.407  -103.556
38.8613     47.023  -105.726
39.4265     47.631  -108.078
40.0000     48.225  -110.470
40.5818     48.815  -112.848
41.1721     49.408  -115.299
41.7710     49.994  -117.847
42.3785     50.565  -120.407
42.9949     51.142  -122.962
43.6203     51.728  -125.643
44.2548     52.305  -128.526
44.8985     52.860  -131.448
45.5515     53.419  -134.359
46.2141     53.996  -137.439
46.8863     54.557  -140.803
47.5683     55.075  -144.219
48.2602     55.589  -147.496
48.9621     56.122  -150.834
49.6743     56.652  -154.424
50.3968     57.149  -158.139
51.1299     57.627  -161.821
51.8736     58.107  -165.547
52.6281     58.576  -169.418
53.3936     59.029  -173.395
54.1702     59.467  -177.443
54.9581     59.892   178.423
55.7575     60.301   174.214
56.5685     60.693   169.938
57.3914     61.064   165.600
58.2261     61.408   161.262
59.0730     61.732   156.962
59.9323     62.042   152.627
60.8040     62.320   148.255
61.6884     62.579   143.928
62.5857     62.832   139.531
63.4960     63.053   134.979
64.4196     63.228   130.485
65.3566     63.385   126.197
66.3073     63.543   122.009
67.2717     63.678   117.886
68.2502     63.797   114.103
69.2429     63.959   110.434
70.2501     64.088   106.504
71.2719     64.189   103.114
72.3086     64.400    99.498
73.3603     64.521    95.031
74.4274     64.545    91.207
75.5099     64.638    87.565
76.6083     64.708    83.863
77.7226     64.804    80.370
78.8531     64.899    76.766
80.0000     64.990    73.277
81.1636     65.078    69.744
82.3442     65.158    66.238
83.5419     65.220    62.690
84.7570     65.280    59.316
85.9899     65.354    55.839
87.2406     65.403    52.374
88.5096     65.447    49.019
89.7970     65.480    45.691
91.1031     65.497    42.464
92.4282     65.513    39.421
93.7726     65.544    36.420
95.1366     65.582    33.493
96.5204     65.637    30.621
97.9243     65.714    27.797
99.3486     65.807    24.851
100.794     65.894    21.881
102.260     65.987    18.827
103.747     66.077    15.796
105.256     66.180    12.502
106.787     66.246     9.198
108.340     66.295     5.933
109.916     66.349     2.885
111.515     66.425    -0.158
113.137     66.507    -3.371
114.783     66.574    -6.574
116.452     66.636    -9.792
118.146     66.692   -13.018
119.865     66.743   -16.109
121.608     66.814   -19.194
123.377     66.896   -22.340
125.171     66.986   -25.581
126.992     67.061   -28.925
128.839     67.139   -32.211
130.713     67.216   -35.548
132.615     67.296   -38.904
134.543     67.377   -42.384
136.500     67.465   -45.920
138.486     67.544   -49.210
140.500     67.633   -52.803
142.544     67.714   -56.954
144.617     67.713   -60.666
146.721     67.743   -63.959
148.855     67.836   -67.571
151.020     67.927   -71.577
153.217     67.957   -75.764
155.445     67.879   -79.771
157.706     67.834   -82.617
160.000     67.930   -85.881
162.327     68.052   -89.579
164.688     68.149   -93.273
167.084     68.294   -97.404
169.514     68.352  -103.263
171.980     68.099  -107.618
174.481     68.076  -110.676
177.019     68.075  -114.535
179.594     67.984  -118.341
182.206     67.974  -121.718
184.856     68.005  -125.617
187.545     68.011  -129.495
190.273     67.946  -133.220
193.041     67.949  -136.587
195.849     68.008  -139.979
198.697     68.109  -144.280
201.587     68.078  -148.537
204.520     68.115  -152.305
207.494     68.155  -156.578
210.512     68.140  -161.238
213.574     67.999  -165.455
216.681     67.947  -168.238
219.833     68.062  -171.813
223.030     68.138  -176.235
226.274     68.138   179.136
229.565     68.044   174.972
232.905     68.037   171.480
236.292     68.058   167.831
239.729     68.150   163.751
243.216     68.184   159.127
246.754     68.143   155.001
250.343     68.171   150.675
253.984     68.129   146.178
257.678     68.086   141.958
261.426     67.937   137.562
265.229     67.875   134.658
269.087     67.944   130.925
273.001     68.011   126.953
276.972     67.953   122.586
281.000     67.920   119.275
285.088     67.977   115.529
289.234     68.155   111.664
293.441     68.269   106.003
297.709     68.035   101.457
302.040     68.129    97.225
306.433     67.815    92.259
310.890     67.731    89.357
315.412     67.584    85.760
320.000     67.618    82.892
324.655     67.567    79.231
329.377     67.685    76.246
334.168     67.856    70.977
339.028     67.662    65.655
343.959     67.599    62.394
348.962     67.616    57.271
354.038     67.410    53.434
359.188     67.357    49.930
364.412     67.410    46.006
369.713     67.397    42.380
375.090     67.382    37.616
380.546     67.303    34.135
386.081     67.350    30.469
391.697     67.209    26.062
397.394     67.153    24.071
403.175     67.298    20.610
409.039     67.271    16.916
414.989     67.267    14.012
421.025     67.227    10.641
427.149     67.139     8.148
433.362     67.185     6.299
439.665     67.231     3.902
446.060     67.189     1.469
452.548     67.219     0.182
459.131     67.283    -1.729
465.809     67.389    -3.244
472.584     67.424    -5.509
479.458     67.387    -6.544
486.432     67.525    -7.806
493.507     67.574    -9.587
500.686     67.559   -10.860
507.968     67.615   -12.021
515.357     67.610   -13.231
522.853     67.626   -14.232
530.458     67.634   -15.375
538.174     67.598   -16.407
546.002     67.556   -17.227
553.943     67.511   -17.933
562.001     67.443   -18.638
570.175     67.386   -19.235
578.469     67.317   -19.906
586.883     67.215   -20.355
595.419     67.121   -20.625
604.080     67.039   -20.976
612.866     66.948   -21.241
621.780     66.865   -21.475
630.824     66.793   -21.719
640.000     66.734   -21.982
649.309     66.692   -22.204
658.753     66.666   -22.388
668.335     66.658   -22.560
678.056     66.669   -22.738
687.919     66.699   -22.951
697.925     66.746   -23.223
708.077     66.807   -23.570
718.376     66.881   -24.011
728.825     66.964   -24.561
739.426     67.053   -25.227
750.181     67.145   -26.011
761.093     67.236   -26.910
772.163     67.324   -27.900
783.394     67.406   -28.985
794.789     67.482   -30.169
806.349     67.548   -31.399
818.078     67.606   -32.676
829.977     67.655   -33.983
842.050     67.698   -35.305
854.298     67.737   -36.632
866.724     67.774   -37.940
879.330     67.813   -39.270
892.120     67.857   -40.617
905.097     67.909   -42.003
918.262     67.970   -43.462
931.618     68.041   -45.034
945.169     68.118   -46.761
958.917     68.196   -48.685
972.864     68.269   -50.837
987.015     68.326   -53.239
1001.37     68.351   -55.929
1015.94     68.338   -58.856
1030.71     68.272   -61.941
1045.71     68.140   -65.193
1060.92     67.927   -68.516
1076.35     67.627   -71.699
1092.00     67.232   -74.604
1107.89     66.735   -77.028
1124.00     66.151   -78.646
1140.35     65.514   -79.114
1156.94     64.885   -78.106
1173.77     64.380   -75.501
1190.84     64.132   -71.662
1208.16     64.228   -67.535
1225.73     64.658   -64.264
1243.56     65.310   -62.703
1261.65     66.036   -63.113
1280.00     66.725   -65.258
1298.62     67.308   -68.749
1317.51     67.755   -73.234
1336.67     68.048   -78.371
1356.11     68.182   -83.803
1375.84     68.161   -89.298
1395.85     67.997   -94.597
1416.15     67.713   -99.413
1436.75     67.342  -103.555
1457.65     66.925  -106.935
1478.85     66.511  -109.547
1500.36     66.151  -111.527
1522.19     65.871  -113.198
1544.33     65.669  -114.904
1566.79     65.513  -116.898
1589.58     65.359  -119.251
1612.70     65.170  -121.819
1636.16     64.925  -124.371
1659.95     64.632  -126.617
1684.10     64.326  -128.334
1708.60     64.062  -129.485
1733.45     63.894  -130.277
1758.66     63.840  -131.133
1784.24     63.878  -132.463
1810.19     63.952  -134.479
1836.52     64.000  -137.168
1863.24     63.977  -140.266
1890.34     63.867  -143.427
1917.83     63.684  -146.313
1945.73     63.467  -148.693
1974.03     63.264  -150.531
2002.74     63.121  -151.961
2031.87     63.056  -153.258
2061.43     63.060  -154.673
2091.41     63.108  -156.341
2121.83     63.175  -158.254
2152.69     63.250  -160.302
2184.01     63.335  -162.437
2215.77     63.438  -164.650
2248.00     63.565  -166.976
2280.70     63.715  -169.493
2313.87     63.879  -172.294
2347.53     64.040  -175.432
2381.68     64.174  -178.905
2416.32     64.254   177.332
2451.46     64.250   173.466
2487.12     64.145   169.846
2523.30     63.960   166.938
2560.00     63.772   165.126
2597.24     63.704   164.343
2635.01     63.846   163.823
2673.34     64.171   162.514
2712.23     64.533   159.888
2751.68     64.789   156.275
2791.70     64.883   152.595
2832.31     64.884   149.676
2873.50     64.937   147.607
2915.30     65.129   145.566
2957.70     65.385   142.621
3000.72     65.539   138.785
3044.37     65.500   135.026
3088.65     65.344   132.437
3133.58     65.266   131.216
3179.16     65.389   130.286
3225.40     65.622   128.546
3272.31     65.806   126.116
3319.91     65.914   123.815
3368.20     66.038   121.948
3417.19     66.228   120.033
3466.89     66.416   117.787
3517.32     66.569   115.697
3568.48     66.793   114.047
3620.39     67.170   111.912
3673.05     67.565   108.239
3726.47     67.754   103.495
3780.67     67.695    99.249
3835.67     67.580    96.382
3891.46     67.578    94.075
3948.06     67.606    91.344
4005.49     67.543    88.715
4063.75     67.492    86.946
4122.86     67.584    85.222
4182.82     67.684    82.557
4243.66     67.635    79.855
4305.39     67.585    78.151
4368.01     67.678    76.303
4431.55     67.706    73.476
4496.01     67.557    71.317
4561.40     67.527    70.442
4627.75     67.669    68.670
4695.06     67.636    66.090
4763.35     67.538    65.058
4832.64     67.737    64.020
4902.93     67.870    60.671
4974.24     67.610    58.010
5046.60     67.469    58.047
5120.00     67.687    57.375
5194.47     67.852    55.100
5270.03     67.935    52.566
5346.68     67.884    49.423
5424.45     67.610    47.574
5503.35     67.577    47.269
5583.40     67.642    45.139
5664.61     67.405    43.729
5747.01     67.457    44.198
5830.60     67.695    42.473
5915.41     67.744    40.529
6001.45     67.916    38.071
6088.74     67.763    34.226
6177.30     67.454    33.159
6267.15     67.465    31.734
6358.31     67.224    29.885
6450.80     67.184    29.624
6544.62     67.167    27.318
6639.82     66.986    26.113
6736.40     66.928    23.992
6834.38     66.580    22.571
6933.79     66.504    21.302
7034.64     65.943    18.833
7136.96     65.457    20.750
7240.77     65.126    21.616
7346.09     64.972    26.284
7452.94     65.472    27.505
7561.35     65.718    27.758
7671.33     66.061    25.873
7782.91     65.992    25.006
7896.12     66.213    23.516
8010.97     66.042    22.368
8127.49     66.226    21.211
8245.71     66.099    18.630
8365.65     65.868    15.097
8487.33     65.076    13.309
8610.78     64.332    12.433
8736.03     63.334    15.526
8863.09     62.695    18.841
8992.01     62.294    25.895
9122.80     62.332    31.564
9255.50     63.195    36.102
9390.12     63.734    35.063
9526.70     64.136    32.598
9665.27     64.151    31.377
9805.86     64.190    29.689
9948.49     64.389    29.412
10093.2     64.393    28.164
10240.0     64.535    27.167
10388.9     64.633    27.372
10540.1     64.665    27.409
10693.4     64.982    27.918
10848.9     65.369    28.813
11006.7     65.789    28.437
11166.8     66.458    26.920
11329.2     67.067    24.136
11494.0     67.439    19.692
11661.2     67.653    14.779
11830.8     67.721     9.764
12002.9     67.489     5.572
12177.5     67.144     2.272
12354.6     66.837     0.386
12534.3     66.734    -0.496
12716.6     66.805    -2.145
12901.6     66.744    -5.988
13089.2     66.366    -9.081
13279.6     65.964   -10.783
13472.8     65.693   -11.052
13668.8     65.614   -12.108
13867.6     65.417   -13.841
14069.3     65.172   -14.964
14273.9     65.036   -16.100
14481.5     64.784   -17.465
14692.2     64.712   -17.937
14905.9     64.769   -19.415
15122.7     64.832   -23.445
15342.7     64.378   -28.703
15565.8     63.540   -31.684
15792.2     62.693   -31.792
16021.9     62.195   -30.350
16255.0     61.911   -30.302
16491.4     61.474   -30.946
16731.3     60.928   -30.790
16974.7     60.451   -29.003
17221.6     60.293   -26.794
17472.1     60.342   -26.464
17726.2     60.229   -27.670
17984.0     59.973   -28.765
18245.6     59.715   -29.892
18511.0     59.343   -31.460
18780.2     58.781   -32.473
19053.4     58.191   -31.967
19330.5     57.747   -30.389
19611.7     57.586   -28.847
19897.0     57.491   -28.814
20186.4     57.364   -29.855
20480.0     57.085   -33.160
20777.9     55.754   -31.874
21080.1     55.849   -27.100
21386.7     56.016   -26.619
21697.8     56.148   -28.607
22013.4     55.939   -32.168
22333.6     55.387   -35.199
22658.4     54.747   -36.706
22988.0     54.106   -37.446
23322.4     53.584   -37.828
23661.6     53.116   -38.953
24005.8     52.475   -40.929
24355.0     51.446   -42.642
24709.2     50.278   -41.146
25068.6     49.478   -37.238
25433.2     49.066   -33.936
25803.2     48.844   -32.298
26178.5     48.605   -33.562
26559.3     47.543   -34.014
26945.6     46.777   -28.667
27337.5     46.538   -22.870
27735.2     46.668   -18.410
28138.6     46.837   -13.777
28547.9     47.743   -10.912
28963.1     48.142   -13.057
29384.4     48.486   -13.778
29811.8     48.708   -15.806
30245.4     48.832   -17.771
30685.3     48.986   -20.991
31131.7     48.853   -24.671
31584.5     48.791   -28.644
32043.9     48.460   -33.666
32510.0     48.118   -38.677
32982.8     47.680   -44.615
33462.6     47.231   -51.522
33949.3     46.765   -59.223
34443.1     45.702   -70.561
34944.1     45.450   -74.474
35452.4     46.576   -93.575
35968.0     46.845  -129.306
36491.2     46.811  -177.618
37022.0     46.564   122.183
37560.5     45.597    72.363
38106.8     45.234    39.801
38661.1     45.019    20.776
39223.4     47.321     5.983
39793.9     49.964   -36.601
