Freq[Hz]     dBSPL  Phase[Deg]
5.00000    -12.631    28.214
5.07273    -13.071    33.566
5.14651    -13.274    39.501
5.22137    -12.812    47.067
5.29732    -12.350    54.632
5.37437    -11.888    62.198
5.45254    -11.426    69.763
5.53185    -10.842    74.676
5.61231    -10.131    76.784
5.69394     -9.420    78.891
5.77676     -8.708    80.999
5.86079     -8.005    83.064
5.94604     -7.795    82.670
6.03252     -7.584    82.275
6.12027     -7.374    81.880
6.20929     -7.163    81.485
6.29961     -7.531    81.600
6.39124     -8.026    81.828
6.48420     -8.521    82.057
6.57851     -9.017    82.284
6.67420    -10.084    89.916
6.77128    -11.244    98.751
6.86977    -12.404   107.585
6.96969    -13.287   117.012
7.07107    -12.069   130.949
7.17392    -10.851   144.887
7.27827     -9.633   158.824
7.38413     -8.380   165.445
7.49154     -7.101   166.414
7.60050     -5.821   167.382
7.71105     -4.723   167.788
7.82321     -4.421   165.726
7.93701     -4.119   163.665
8.05245     -3.817   161.603
8.16958     -4.655   160.872
8.28841     -5.535   160.191
8.40896     -6.415   159.509
8.53128     -8.240   176.087
8.65537    -10.187  -165.108
8.78126    -12.134  -146.304
8.90899     -9.384  -129.870
9.03857     -6.326  -113.593
9.17004     -3.415   -99.224
9.30342     -1.667  -100.045
9.43874      0.081  -100.867
9.57603      1.367  -101.878
9.71532      1.947  -103.176
9.85663      2.527  -104.474
10.0000      2.526  -101.506
10.1455      2.364   -97.350
10.2930      2.463   -91.239
10.4427      3.288   -79.672
10.5946      4.113   -68.105
10.7487      5.981   -62.798
10.9051      8.058   -58.741
11.0637      9.947   -58.254
11.2246     11.638   -61.542
11.3879     13.195   -65.501
11.5535     14.268   -71.898
11.7216     15.331   -78.321
11.8921     15.804   -86.239
12.0650     16.278   -94.156
12.2405     16.164  -102.840
12.4186     15.975  -111.622
12.5992     15.013  -120.724
12.7825     13.879  -129.897
12.9684     11.019  -138.199
13.1570      7.758  -146.299
13.3484      4.069   -86.727
13.5426      0.311   -16.166
13.7395      6.903   -16.865
13.9394     13.383   -21.114
14.1421     15.986   -31.496
14.3478     18.187   -42.119
14.5565     19.524   -53.263
14.7683     20.421   -64.494
14.9831     20.977   -75.793
15.2010     20.967   -86.848
15.4221     20.731   -97.672
15.6464     19.923  -107.658
15.8740     18.623  -116.006
16.1049     16.931  -123.044
16.3392     14.208  -120.696
16.5768     12.100  -109.025
16.8179     10.942   -84.320
17.0626     13.150   -70.080
17.3107     15.550   -63.019
17.5625     17.582   -64.835
17.8180     18.726   -69.712
18.0771     19.484   -74.524
18.3401     19.889   -78.832
18.6068     19.981   -81.146
18.8775     20.054   -81.434
19.1521     20.215   -80.368
19.4306     20.541   -78.328
19.7133     21.094   -76.418
20.0000     21.706   -75.117
20.2909     22.322   -74.136
20.5860     22.930   -73.243
20.8855     23.550   -72.203
21.1893     24.254   -71.177
21.4975     25.028   -70.744
21.8102     25.805   -71.155
22.1274     26.510   -72.372
22.4492     27.081   -74.076
22.7758     27.495   -75.734
23.1071     27.785   -76.783
23.4432     28.039   -76.883
23.7841     28.374   -76.214
24.1301     28.835   -75.578
24.4811     29.359   -75.587
24.8372     29.845   -76.307
25.1984     30.221   -77.273
25.5649     30.492   -77.762
25.9368     30.753   -77.229
26.3141     31.149   -75.778
26.6968     31.775   -74.293
27.0851     32.586   -73.853
27.4791     33.437   -74.974
27.8788     34.177   -77.294
28.2843     34.751   -79.986
28.6957     35.184   -82.298
29.1131     35.555   -83.759
29.5365     35.967   -84.350
29.9661     36.494   -84.488
30.4020     37.145   -84.780
30.8442     37.865   -85.724
31.2929     38.574   -87.253
31.7480     39.234   -89.134
32.2098     39.839   -91.110
32.6783     40.401   -93.011
33.1536     40.940   -94.815
33.6359     41.465   -96.533
34.1251     41.982   -98.111
34.6215     42.508   -99.507
35.1250     43.071  -100.815
35.6359     43.686  -102.297
36.1543     44.322  -104.142
36.6802     44.939  -106.315
37.2137     45.519  -108.576
37.7550     46.092  -110.743
38.3041     46.684  -112.881
38.8613     47.292  -115.162
39.4265     47.893  -117.628
40.0000     48.478  -120.133
40.5818     49.060  -122.626
41.1721     49.645  -125.191
41.7710     50.221  -127.855
42.3785     50.784  -130.531
42.9949     51.352  -133.203
43.6203     51.928  -136.003
44.2548     52.494  -139.004
44.8985     53.040  -142.046
45.5515     53.590  -145.075
46.2141     54.157  -148.276
46.8863     54.707  -151.761
47.5683     55.214  -155.298
48.2602     55.717  -158.698
48.9621     56.240  -162.158
49.6743     56.758  -165.870
50.3968     57.243  -169.708
51.1299     57.710  -173.514
51.8736     58.177  -177.364
52.6281     58.635   178.641
53.3936     59.074   174.539
54.1702     59.499   170.366
54.9581     59.911   166.106
55.7575     60.308   161.772
56.5685     60.687   157.371
57.3914     61.044   152.907
58.2261     61.374   148.443
59.0730     61.684   144.017
59.9323     61.979   139.556
60.8040     62.244   135.058
61.6884     62.488   130.605
62.5857     62.726   126.082
63.4960     62.931   121.404
64.4196     63.091   116.784
65.3566     63.232   112.371
66.3073     63.374   108.057
67.2717     63.492   103.809
68.2502     63.596    99.901
69.2429     63.741    96.107
70.2501     63.853    92.053
71.2719     63.937    88.539
72.3086     64.132    84.799
73.3603     64.235    80.209
74.4274     64.243    76.262
75.5099     64.317    72.498
76.6083     64.370    68.673
77.7226     64.448    65.060
78.8531     64.524    61.334
80.0000     64.597    57.726
81.1636     64.667    54.073
82.3442     64.728    50.448
83.5419     64.772    46.781
84.7570     64.813    43.290
85.9899     64.869    39.696
87.2406     64.898    36.115
88.5096     64.924    32.644
89.7970     64.937    29.201
91.1031     64.935    25.860
92.4282     64.932    22.704
93.7726     64.943    19.591
95.1366     64.964    16.551
96.5204     64.998    13.569
97.9243     65.056    10.634
99.3486     65.130     7.579
100.794     65.197     4.500
102.260     65.271     1.338
103.747     65.342    -1.800
105.256     65.426    -5.201
106.787     65.473    -8.611
108.340     65.502   -11.982
109.916     65.538   -15.135
111.515     65.596   -18.281
113.137     65.659   -21.598
114.783     65.707   -24.903
116.452     65.750   -28.224
118.146     65.788   -31.553
119.865     65.821   -34.744
121.608     65.875   -37.931
123.377     65.940   -41.179
125.171     66.012   -44.520
126.992     66.070   -47.964
128.839     66.131   -51.351
130.713     66.191   -54.789
132.615     66.256   -58.245
134.543     66.320   -61.828
136.500     66.392   -65.467
138.486     66.457   -68.851
140.500     66.532   -72.545
142.544     66.596   -76.806
144.617     66.582   -80.618
146.721     66.599   -84.009
148.855     66.679   -87.729
151.020     66.756   -91.841
153.217     66.774   -96.134
155.445     66.684  -100.247
157.706     66.628  -103.199
160.000     66.714  -106.578
162.327     66.825  -110.389
164.688     66.913  -114.189
167.084     67.049  -118.435
169.514     67.097  -124.418
171.980     66.837  -128.897
174.481     66.807  -132.072
177.019     66.800  -136.048
179.594     66.703  -139.981
182.206     66.687  -143.496
184.856     66.714  -147.534
187.545     66.716  -151.543
190.273     66.648  -155.411
193.041     66.649  -158.921
195.849     66.706  -162.460
198.697     66.807  -166.920
201.587     66.776  -171.338
204.520     66.814  -175.271
207.494     66.856  -179.711
210.512     66.843   175.449
213.574     66.706   171.046
216.681     66.658   168.086
219.833     66.778   164.317
223.030     66.861   159.686
226.274     66.868   154.843
229.565     66.782   150.459
232.905     66.785   146.741
236.292     66.815   142.861
239.729     66.919   138.530
243.216     66.965   133.648
246.754     66.936   129.256
250.343     66.979   124.642
253.984     66.951   119.847
257.678     66.924   115.321
261.426     66.792   110.593
265.229     66.749   107.346
269.087     66.836   103.257
273.001     66.921    98.919
276.972     66.883    94.171
281.000     66.870    90.449
285.088     66.949    86.257
289.234     67.147    81.929
293.441     67.282    75.789
297.709     67.069    70.746
302.040     67.183    66.000
306.433     66.889    60.479
310.890     66.824    56.978
315.412     66.694    52.763
320.000     66.745    49.254
324.655     66.706    44.936
329.377     66.835    41.273
334.168     67.012    35.255
339.028     66.822    29.167
343.959     66.757    25.127
348.962     66.768    19.215
354.038     66.550    14.583
359.188     66.478    10.254
364.412     66.506     5.480
369.713     66.460     1.017
375.090     66.407    -4.564
380.546     66.282    -8.865
386.081     66.278   -13.316
391.697     66.079   -18.492
397.394     65.959   -21.227
403.175     66.041   -25.357
409.039     65.946   -29.686
414.989     65.874   -33.189
421.025     65.767   -37.102
427.149     65.616   -40.087
433.362     65.603   -42.383
439.665     65.593   -45.213
446.060     65.502   -48.048
452.548     65.490   -49.712
459.131     65.519   -51.996
465.809     65.597   -53.889
472.584     65.613   -56.534
479.458     65.562   -57.960
486.432     65.695   -59.642
493.507     65.744   -61.880
500.686     65.736   -63.652
507.968     65.803   -65.349
515.357     65.814   -67.135
522.853     65.850   -68.771
530.458     65.879   -70.611
538.174     65.866   -72.391
546.002     65.848   -74.008
553.943     65.826   -75.582
562.001     65.779   -77.227
570.175     65.740   -78.839
578.469     65.685   -80.598
586.883     65.591   -82.185
595.419     65.496   -83.636
604.080     65.405   -85.230
612.866     65.293   -86.794
621.780     65.177   -88.371
630.824     65.057   -89.991
640.000     64.937   -91.618
649.309     64.818   -93.176
658.753     64.700   -94.676
668.335     64.582   -96.145
678.056     64.470   -97.531
687.919     64.363   -98.864
697.925     64.262  -100.149
708.077     64.170  -101.367
718.376     64.087  -102.544
728.825     64.012  -103.682
739.426     63.948  -104.781
750.181     63.897  -105.845
761.093     63.860  -106.876
772.163     63.841  -107.868
783.394     63.842  -108.850
794.789     63.865  -109.860
806.349     63.912  -110.895
818.078     63.985  -112.008
829.977     64.083  -113.242
842.050     64.204  -114.642
854.298     64.342  -116.249
866.724     64.489  -118.071
879.330     64.640  -120.186
892.120     64.783  -122.576
905.097     64.908  -125.233
918.262     65.004  -128.131
931.618     65.060  -131.224
945.169     65.067  -134.447
958.917     65.016  -137.714
972.864     64.902  -140.917
987.015     64.721  -143.918
1001.37     64.469  -146.586
1015.94     64.165  -148.686
1030.71     63.836  -150.001
1045.71     63.518  -150.385
1060.92     63.276  -149.750
1076.35     63.189  -148.268
1092.00     63.319  -146.387
1107.89     63.688  -144.744
1124.00     64.259  -144.000
1140.35     64.957  -144.553
1156.94     65.708  -146.528
1173.77     66.436  -149.811
1190.84     67.093  -154.194
1208.16     67.650  -159.438
1225.73     68.094  -165.389
1243.56     68.411  -171.852
1261.65     68.590  -178.575
1280.00     68.630   174.625
1298.62     68.531   167.935
1317.51     68.292   161.486
1336.67     67.919   155.511
1356.11     67.431   150.316
1375.84     66.854   146.126
1395.85     66.238   143.184
1416.15     65.666   141.627
1436.75     65.224   141.268
1457.65     64.981   141.604
1478.85     64.957   141.921
1500.36     65.106   141.583
1522.19     65.346   140.270
1544.33     65.600   137.988
1566.79     65.810   134.946
1589.58     65.949   131.426
1612.70     66.011   127.721
1636.16     66.006   124.000
1659.95     65.949   120.380
1684.10     65.855   116.904
1708.60     65.735   113.568
1733.45     65.590   110.389
1758.66     65.418   107.343
1784.24     65.220   104.523
1810.19     65.004   102.044
1836.52     64.788    99.945
1863.24     64.601    98.234
1890.34     64.466    96.797
1917.83     64.394    95.442
1945.73     64.377    93.992
1974.03     64.397    92.351
2002.74     64.441    90.537
2031.87     64.510    88.576
2061.43     64.612    86.417
2091.41     64.752    83.878
2121.83     64.911    80.740
2152.69     65.044    76.920
2184.01     65.102    72.440
2215.77     65.045    67.550
2248.00     64.861    62.630
2280.70     64.576    57.985
2313.87     64.233    53.702
2347.53     63.871    49.611
2381.68     63.489    45.396
2416.32     63.028    40.810
2451.46     62.403    36.009
2487.12     61.552    31.617
2523.30     60.484    28.610
2560.00     59.333    27.897
2597.24     58.349    29.481
2635.01     57.701    31.905
2673.34     57.304    33.327
2712.23     56.898    33.246
2751.68     56.292    32.622
2791.70     55.484    32.872
2832.31     54.636    34.816
2873.50     53.921    38.000
2915.30     53.335    41.312
2957.70     52.703    44.676
3000.72     51.969    49.640
3044.37     51.451    57.614
3088.65     51.605    66.570
3133.58     52.268    72.315
3179.16     52.824    74.365
3225.40     52.991    75.683
3272.31     53.025    78.849
3319.91     53.362    82.985
3368.20     53.934    85.041
3417.19     54.258    84.869
3466.89     54.150    85.590
3517.32     54.012    89.818
3568.48     54.401    95.712
3620.39     55.197    99.455
3673.05     55.939   100.989
3726.47     56.552   102.293
3780.67     57.227   103.811
3835.67     58.016   104.604
3891.46     58.807   104.278
3948.06     59.518   103.294
4005.49     60.175   102.259
4063.75     60.894   101.255
4122.86     61.740    99.313
4182.82     62.559    95.366
4243.66     63.105    89.926
4305.39     63.331    84.708
4368.01     63.411    80.545
4431.55     63.450    76.902
4496.01     63.387    73.680
4561.40     63.270    71.618
4627.75     63.261    70.451
4695.06     63.359    69.190
4763.35     63.490    67.739
4832.64     63.668    66.061
4902.93     63.862    63.654
4974.24     63.946    60.294
5046.60     63.723    56.724
5120.00     63.183    55.710
5194.47     62.960    58.655
5270.03     63.400    60.690
5346.68     63.881    59.903
5424.45     64.336    58.553
5503.35     64.850    55.148
5583.40     64.971    49.746
5664.61     64.604    45.486
5747.01     64.006    44.549
5830.60     63.808    47.768
5915.41     64.425    49.063
6001.45     64.845    45.775
6088.74     64.876    43.221
6177.30     64.970    41.128
6267.15     64.971    38.806
6358.31     64.947    36.771
6450.80     64.821    35.039
6544.62     64.768    34.420
6639.82     64.835    33.655
6736.40     65.043    32.388
6834.38     65.161    29.325
6933.79     65.106    26.654
7034.64     64.981    23.190
7136.96     64.590    20.663
7240.77     64.187    18.301
7346.09     63.364    17.327
7452.94     62.559    21.124
7561.35     62.583    28.530
7671.33     63.369    31.541
7782.91     64.080    31.441
7896.12     64.590    28.444
8010.97     64.733    25.167
8127.49     64.447    22.557
8245.71     64.296    23.651
8365.65     64.426    23.981
8487.33     64.766    23.202
8610.78     64.956    20.018
8736.03     64.896    15.790
8863.09     64.541    11.364
8992.01     63.751     8.044
9122.80     63.113     7.538
9255.50     62.480     6.778
9390.12     61.835     7.378
9526.70     61.488     8.611
9665.27     61.005     9.731
9805.86     60.871    11.897
9948.49     60.750    12.896
10093.2     60.477    14.942
10240.0     60.356    20.501
10388.9     61.368    26.699
10540.1     62.698    25.948
10693.4     63.533    20.878
10848.9     63.752    15.781
11006.7     63.785    13.714
11166.8     64.134    11.990
11329.2     64.526     8.847
11494.0     64.898     4.336
11661.2     65.123    -1.153
11830.8     65.013    -7.958
12002.9     64.539   -13.489
12177.5     63.936   -17.191
12354.6     63.454   -19.497
12534.3     62.959   -22.630
12716.6     62.145   -24.099
12901.6     61.503   -22.355
13089.2     61.549   -20.067
13279.6     61.739   -21.872
13472.8     61.616   -26.714
13668.8     60.789   -29.786
13867.6     59.996   -29.881
14069.3     59.252   -27.958
14273.9     58.941   -24.274
14481.5     59.019   -21.631
14692.2     58.942   -21.842
14905.9     58.899   -18.063
15122.7     59.483   -18.005
15342.7     59.757   -20.614
15565.8     59.711   -23.159
15792.2     59.783   -23.577
16021.9     60.263   -27.021
16255.0     60.286   -34.098
16491.4     59.628   -40.168
16731.3     58.860   -42.878
16974.7     58.391   -44.820
17221.6     57.918   -48.694
17472.1     56.898   -52.632
17726.2     55.769   -51.102
17984.0     55.601   -49.492
18245.6     55.213   -53.374
18511.0     53.998   -55.782
18780.2     53.072   -53.038
19053.4     52.571   -51.607
19330.5     52.092   -50.334
19611.7     51.721   -49.719
19897.0     51.333   -50.449
20186.4     50.853   -52.146
20480.0     50.175   -54.357
20777.9     48.812   -56.054
21080.1     48.026   -52.730
21386.7     47.451   -51.865
21697.8     46.509   -55.217
22013.4     44.075   -52.613
22333.6     43.188   -37.819
22658.4     43.079   -29.636
22988.0     43.653   -22.020
23322.4     43.992   -22.645
23661.6     43.683   -18.937
24005.8     44.254   -16.040
24355.0     44.430   -19.131
24709.2     44.032   -19.153
25068.6     43.968   -20.007
25433.2     43.469   -18.940
25803.2     43.882   -18.912
26178.5     43.906   -25.141
26559.3     43.297   -25.250
26945.6     43.708   -25.940
27337.5     44.271   -33.299
27735.2     43.771   -45.689
28138.6     41.789   -54.202
28547.9     40.067   -51.156
28963.1     39.975   -50.244
29384.4     39.196   -62.583
29811.8     35.749   -68.295
30245.4     32.937   -57.601
30685.3     31.212   -39.575
31131.7     32.178   -26.735
31584.5     33.217   -17.135
32043.9     34.983   -24.874
32510.0     35.341   -36.635
32982.8     35.320   -51.392
33462.6     35.005   -66.941
33949.3     33.684   -80.980
34443.1     36.092   -99.479
34944.1     37.517  -133.425
35452.4     38.276  -163.818
35968.0     40.714   169.348
36491.2     43.470   135.412
37022.0     44.912    90.405
37560.5     42.654    48.246
38106.8     40.159    33.640
38661.1     40.115    18.985
39223.4     41.657    -8.178
39793.9     42.962   -77.261
