Freq[Hz]     dBSPL  Phase[Deg]
5.00000    -13.204    44.342
5.07273    -13.645    49.924
5.14651    -13.848    56.093
5.22137    -13.386    63.906
5.29732    -12.924    71.718
5.37437    -12.462    79.531
5.45254    -12.000    87.343
5.53185    -11.416    92.511
5.61231    -10.705    94.883
5.69394     -9.994    97.254
5.77676     -9.282    99.625
5.86079     -8.579   101.955
5.94604     -8.369   101.841
6.03252     -8.159   101.727
6.12027     -7.949   101.613
6.20929     -7.738   101.499
6.29961     -8.106   101.909
6.39124     -8.601   102.435
6.48420     -9.096   102.961
6.57851     -9.592   103.486
6.67420    -10.659   111.431
6.77128    -11.819   120.580
6.86977    -12.979   129.729
6.96969    -13.863   139.472
7.07107    -12.645   153.742
7.17392    -11.427   168.011
7.27827    -10.209  -177.720
7.38413     -8.956  -170.758
7.49154     -7.677  -169.441
7.60050     -6.398  -168.124
7.71105     -5.300  -167.367
7.82321     -4.998  -169.062
7.93701     -4.696  -170.758
8.05245     -4.394  -172.455
8.16958     -5.232  -172.804
8.28841     -6.112  -173.103
8.40896     -6.992  -173.402
8.53128     -8.818  -156.426
8.65537    -10.765  -137.222
8.78126    -12.712  -118.019
8.90899     -9.963  -101.170
9.03857     -6.905   -84.476
9.17004     -3.994   -69.689
9.30342     -2.246   -70.078
9.43874     -0.498   -70.466
9.57603      0.788   -71.037
9.71532      1.368   -71.885
9.85663      1.948   -72.734
10.0000      1.947   -69.303
10.1455      1.785   -64.680
10.2930      1.883   -58.098
10.4427      2.708   -46.047
10.5946      3.533   -33.996
10.7487      5.401   -28.192
10.9051      7.478   -23.635
11.0637      9.367   -22.639
11.2246     11.057   -25.410
11.3879     12.614   -28.848
11.5535     13.687   -34.712
11.7216     14.750   -40.601
11.8921     15.223   -47.967
12.0650     15.696   -55.334
12.2405     15.582   -63.452
12.4186     15.392   -71.667
12.5992     14.430   -80.188
12.7825     13.296   -88.777
12.9684     10.436   -96.482
13.1570      7.174  -103.981
13.3484      3.485   -43.794
13.5426     -0.273    27.385
13.7395      6.319    27.319
13.9394     12.798    23.707
14.1421     15.401    13.976
14.3478     17.601     4.008
14.5565     18.938    -6.469
14.7683     19.834   -17.023
14.9831     20.390   -27.638
15.2010     20.380   -37.995
15.4221     20.143   -48.116
15.6464     19.335   -57.384
15.8740     18.035   -65.006
16.1049     16.342   -71.311
16.3392     13.618   -68.213
16.5768     11.510   -55.785
16.8179     10.352   -30.314
17.0626     12.560   -15.292
17.3107     14.960    -7.442
17.5625     16.991    -8.459
17.8180     18.135   -12.520
18.0771     18.893   -16.509
18.3401     19.297   -19.983
18.6068     19.388   -21.448
18.8775     19.461   -20.875
19.1521     19.622   -18.937
19.4306     19.947   -16.015
19.7133     20.500   -13.207
20.0000     21.112   -10.996
20.2909     21.727    -9.092
20.5860     22.335    -7.265
20.8855     22.954    -5.278
21.1893     23.658    -3.289
21.4975     24.431    -1.879
21.8102     25.207    -1.301
22.1274     25.912    -1.516
22.4492     26.483    -2.202
22.7758     26.896    -2.830
23.1071     27.186    -2.834
23.4432     27.440    -1.874
23.7841     27.775    -0.129
24.1301     28.235     1.598
24.4811     28.759     2.695
24.8372     29.244     3.096
25.1984     29.620     3.267
25.5649     29.891     3.931
25.9368     30.151     5.632
26.3141     30.547     8.268
26.6968     31.173    10.953
27.0851     31.985    12.611
27.4791     32.835    12.726
27.8788     33.575    11.658
28.2843     34.149    10.236
28.6957     34.582     9.212
29.1131     34.953     9.056
29.5365     35.365     9.788
29.9661     35.892    10.990
30.4020     36.543    12.058
30.8442     37.263    12.494
31.2929     37.973    12.362
31.7480     38.632    11.898
32.2098     39.237    11.357
32.6783     39.800    10.914
33.1536     40.340    10.587
33.6359     40.865    10.365
34.1251     41.382    10.303
34.6215     41.909    10.446
35.1250     42.473    10.696
35.6359     43.089    10.795
36.1543     43.725    10.552
36.6802     44.343    10.003
37.2137     44.925     9.388
37.7550     45.498     8.889
38.3041     46.092     8.444
38.8613     46.701     7.877
39.4265     47.303     7.150
40.0000     47.890     6.406
40.5818     48.474     5.699
41.1721     49.061     4.944
41.7710     49.638     4.114
42.3785     50.203     3.298
42.9949     50.772     2.511
43.6203     51.352     1.622
44.2548     51.920     0.557
44.8985     52.469    -0.521
45.5515     53.021    -1.561
46.2141     53.591    -2.746
46.8863     54.143    -4.187
47.5683     54.654    -5.653
48.2602     55.160    -6.952
48.9621     55.686    -8.284
49.6743     56.208    -9.839
50.3968     56.698   -11.491
51.1299     57.167   -13.080
51.8736     57.639   -14.685
52.6281     58.101   -16.404
53.3936     58.546   -18.198
54.1702     58.975   -20.033
54.9581     59.393   -21.922
55.7575     59.793   -23.854
56.5685     60.178   -25.820
57.3914     60.541   -27.816
58.2261     60.876   -29.779
59.0730     61.192   -31.669
59.9323     61.493   -33.561
60.8040     61.764   -35.454
61.6884     62.015   -37.267
62.5857     62.259   -39.114
63.4960     62.472   -41.080
64.4196     62.639   -42.951
65.3566     62.788   -44.577
66.3073     62.937   -46.068
67.2717     63.064   -47.453
68.2502     63.175   -48.459
69.2429     63.329   -49.312
70.2501     63.449   -50.385
71.2719     63.542   -50.877
72.3086     63.744   -51.553
73.3603     63.857   -53.039
74.4274     63.874   -53.839
75.5099     63.959   -54.412
76.6083     64.020   -55.003
77.7226     64.108   -55.338
78.8531     64.195   -55.740
80.0000     64.278   -55.980
81.1636     64.358   -56.218
82.3442     64.430   -56.381
83.5419     64.485   -56.538
84.7570     64.536   -56.472
85.9899     64.603   -56.459
87.2406     64.643   -56.384
88.5096     64.680   -56.147
89.7970     64.705   -55.832
91.1031     64.714   -55.362
92.4282     64.722   -54.656
93.7726     64.745   -53.853
95.1366     64.777   -52.921
96.5204     64.823   -51.877
97.9243     64.893   -50.729
99.3486     64.978   -49.646
100.794     65.057   -48.528
102.260     65.143   -47.435
103.747     65.226   -46.258
105.256     65.321   -45.284
106.787     65.379   -44.258
108.340     65.421   -43.130
109.916     65.468   -41.721
111.515     65.537   -40.241
113.137     65.612   -38.867
114.783     65.671   -37.415
116.452     65.725   -35.912
118.146     65.774   -34.347
119.865     65.818   -32.577
121.608     65.882   -30.732
123.377     65.957   -28.876
125.171     66.040   -27.041
126.992     66.107   -25.236
128.839     66.177   -23.299
130.713     66.247   -21.336
132.615     66.320   -19.315
134.543     66.394   -17.230
136.500     66.475   -15.069
138.486     66.547   -13.181
140.500     66.628   -11.078
142.544     66.701    -9.016
144.617     66.692    -7.032
146.721     66.715    -4.629
148.855     66.800    -2.028
151.020     66.883     0.180
153.217     66.905     2.206
155.445     66.819     4.412
157.706     66.767     7.778
160.000     66.855    11.245
162.327     66.968    14.277
164.688     67.058    16.795
167.084     67.194    19.394
169.514     67.242    20.783
171.980     66.981    23.674
174.481     66.948    27.345
177.019     66.939    30.215
179.594     66.839    33.654
182.206     66.818    38.039
184.856     66.840    41.903
187.545     66.836    45.270
190.273     66.760    49.306
193.041     66.752    53.700
195.849     66.800    58.067
198.697     66.890    62.043
201.587     66.846    66.062
204.520     66.872    70.569
207.494     66.900    74.571
210.512     66.870    78.702
213.574     66.716    83.275
216.681     66.650    88.764
219.833     66.750    93.977
223.030     66.811    98.860
226.274     66.794   103.534
229.565     66.683   108.672
232.905     66.659   114.482
236.292     66.662   120.133
239.729     66.735   125.869
243.216     66.749   131.060
246.754     66.686   136.748
250.343     66.691   142.752
253.984     66.624   148.585
257.678     66.557   154.693
261.426     66.380   161.143
265.229     66.290   169.084
269.087     66.329   176.196
273.001     66.365  -176.929
276.972     66.274  -170.449
281.000     66.206  -162.395
285.088     66.224  -154.256
289.234     66.360  -146.233
293.441     66.432  -140.001
297.709     66.153  -132.650
302.040     66.200  -124.976
306.433     65.835  -117.511
310.890     65.696  -107.453
315.412     65.490   -98.076
320.000     65.464   -87.955
324.655     65.350   -78.609
329.377     65.403   -68.568
334.168     65.501   -59.743
339.028     65.234   -50.942
343.959     65.095   -40.050
348.962     65.038   -30.986
354.038     64.756   -20.602
359.188     64.625    -9.322
364.412     64.601     2.105
369.713     64.512    13.867
375.090     64.425    24.526
380.546     64.278    37.028
386.081     64.262    49.370
391.697     64.061    61.520
397.394     63.952    76.629
403.175     64.052    89.731
409.039     63.986   103.122
414.989     63.948   117.816
421.025     63.878   132.015
427.149     63.765   147.056
433.362     63.787   162.706
439.665     63.810   178.825
446.060     63.746  -165.133
452.548     63.750  -147.985
459.131     63.786  -130.971
465.809     63.859  -113.068
472.584     63.858   -95.944
479.458     63.777   -77.611
486.432     63.864   -58.996
493.507     63.854   -40.385
500.686     63.771   -20.742
507.968     63.750    -0.978
515.357     63.661    18.755
522.853     63.582    39.247
530.458     63.485    60.162
538.174     63.337    81.236
546.002     63.177   102.581
553.943     63.006   124.640
562.001     62.804   147.313
570.175     62.609   170.720
578.469     62.400  -165.307
586.883     62.162  -141.004
595.419     61.941  -116.417
604.080     61.740   -91.273
612.866     61.545   -65.419
621.780     61.375   -38.929
630.824     61.236   -11.881
640.000     61.133    15.134
649.309     61.068    42.136
658.753     61.036    69.632
668.335     61.035    98.104
678.056     61.059   126.438
687.919     61.103   155.137
697.925     61.159  -175.810
708.077     61.219  -146.932
718.376     61.278  -117.689
728.825     61.330   -88.062
739.426     61.373   -58.026
750.181     61.402   -27.555
761.093     61.418     3.381
772.163     61.420    34.292
783.394     61.409    65.717
794.789     61.387    98.189
806.349     61.355   130.688
818.078     61.316   163.737
829.977     61.270  -162.662
842.050     61.218  -128.509
854.298     61.161   -93.803
866.724     61.100   -59.059
879.330     61.030   -23.231
892.120     60.954    13.179
905.097     60.870    50.198
918.262     60.781    87.856
931.618     60.691   126.190
945.169     60.606   165.229
958.917     60.538  -155.007
972.864     60.499  -114.526
987.015     60.501   -73.369
1001.37     60.555   -31.083
1015.94     60.672    11.676
1030.71     60.852    54.233
1045.71     61.089    97.512
1060.92     61.368   141.387
1076.35     61.664  -175.261
1092.00     61.957  -131.932
1107.89     62.230   -88.109
1124.00     62.458   -44.252
1140.35     62.627    -0.288
1156.94     62.722    44.362
1173.77     62.732    89.309
1190.84     62.647   134.671
1208.16     62.460  -179.418
1225.73     62.165  -132.313
1243.56     61.760   -83.821
1261.65     61.253   -34.205
1280.00     60.666    16.782
1298.62     60.037    69.396
1317.51     59.425   124.350
1336.67     58.921  -178.361
1356.11     58.621  -119.680
1375.84     58.571   -59.810
1395.85     58.743     0.418
1416.15     59.043    59.920
1436.75     59.361   118.623
1457.65     59.613   177.280
1478.85     59.746  -123.711
1500.36     59.735   -64.394
1522.19     59.589    -3.785
1544.33     59.344    58.554
1566.79     59.076   122.920
1589.58     58.882  -170.696
1612.70     58.851  -103.282
1636.16     59.010   -35.076
1659.95     59.306    33.206
1684.10     59.635   101.228
1708.60     59.896   169.099
1733.45     60.017  -123.300
1758.66     59.968   -54.457
1784.24     59.753    15.646
1810.19     59.414    86.953
1836.52     59.020   160.736
1863.24     58.656  -123.568
1890.34     58.386   -46.361
1917.83     58.211    31.795
1945.73     58.078   110.514
1974.03     57.910  -169.700
2002.74     57.658   -89.039
2031.87     57.319    -7.034
2061.43     56.942    76.684
2091.41     56.605   162.693
2121.83     56.378  -109.350
2152.69     56.274   -21.072
2184.01     56.246    68.119
2215.77     56.223   158.086
2248.00     56.146  -111.566
2280.70     55.981   -20.590
2313.87     55.710    71.780
2347.53     55.324   165.824
2381.68     54.835   -98.637
2416.32     54.279    -0.756
2451.46     53.731    99.628
2487.12     53.277  -157.729
2523.30     52.952   -53.442
2560.00     52.710    51.923
2597.24     52.471   157.724
2635.01     52.180   -95.257
2673.34     51.836    13.267
2712.23     51.453   123.388
2751.68     51.028  -124.371
2791.70     50.555   -10.380
2832.31     50.064   105.569
2873.50     49.618  -136.661
2915.30     49.227   -17.646
2957.70     48.797   102.756
3000.72     48.234  -135.611
3044.37     47.546   -12.116
3088.65     46.789   113.669
3133.58     45.867  -119.320
3179.16     44.493    10.580
3225.40     42.706   147.878
3272.31     41.727   -65.462
3319.91     42.378    80.033
3368.20     42.976  -142.772
3417.19     42.185    -7.133
3466.89     40.179   139.183
3517.32     39.380   -58.488
3568.48     40.692    99.431
3620.39     41.588  -109.114
3673.05     42.090    47.842
3726.47     43.574  -152.678
3780.67     45.411     0.937
3835.67     46.486   152.005
3891.46     46.954   -53.004
3948.06     47.495   105.760
4005.49     48.143   -95.135
4063.75     48.444    65.755
4122.86     48.510  -129.528
4182.82     48.826    38.104
4243.66     49.211  -153.466
4305.39     49.211    16.257
4368.01     49.091  -169.280
4431.55     49.275     7.887
4496.01     49.382  -174.525
4561.40     49.167     6.743
4627.75     49.289  -167.160
4695.06     49.850    18.967
4763.35     50.009  -155.617
4832.64     49.759    34.593
4902.93     49.968  -130.011
4974.24     50.563    64.828
5046.60     50.791  -100.889
5120.00     50.649    96.862
5194.47     50.399   -61.642
5270.03     50.011   143.095
5346.68     49.661    -7.771
5424.45     49.384  -155.773
5503.35     48.728    59.562
5583.40     48.051   -78.165
5664.61     47.744   147.952
5747.01     47.208    18.533
5830.60     47.474  -104.047
5915.41     48.319   130.288
6001.45     48.230     5.653
6088.74     48.197  -112.898
6177.30     47.962   130.029
6267.15     47.316    21.655
6358.31     47.610   -83.580
6450.80     47.293   171.515
6544.62     47.246    74.199
6639.82     47.155   -23.769
6736.40     46.785  -112.610
6834.38     47.193   156.492
6933.79     46.043    69.350
7034.64     45.639    -7.236
7136.96     44.811   -84.463
7240.77     44.569  -152.078
7346.09     43.640   136.756
7452.94     42.851    82.262
7561.35     43.002    19.986
7671.33     42.132   -31.093
7782.91     42.118   -85.422
7896.12     41.335  -130.950
8010.97     41.128   177.015
8127.49     39.029   135.036
8245.71     37.653    91.364
8365.65     34.588    64.445
8487.33     34.578    31.623
8610.78     32.764    10.442
8736.03     34.196   -14.299
8863.09     34.840   -30.756
8992.01     36.061   -53.744
9122.80     35.624   -56.731
9255.50     35.917   -60.506
9390.12     35.587   -43.720
9526.70     35.541   -29.783
9665.27     35.972    -4.789
9805.86     34.934    24.412
9948.49     35.266    58.864
10093.2     34.540   103.669
10240.0     32.834   150.469
10388.9     32.184  -147.014
10540.1     31.049   -66.155
10693.4     31.179     8.468
10848.9     31.995    87.300
11006.7     32.194   173.677
11166.8     30.550   -94.592
11329.2     29.829     6.000
11494.0     30.154   119.823
11661.2     30.663  -121.902
11830.8     30.337    -6.957
12002.9     29.522   114.560
12177.5     29.176  -107.332
12354.6     30.173    36.836
12534.3     30.017  -173.680
12716.6     30.907   -19.253
12901.6     30.979   133.687
13089.2     29.144   -62.567
13279.6     27.936   120.716
13472.8     27.283   -45.564
13668.8     27.593   147.507
13867.6     26.677    -9.654
14069.3     25.597  -157.839
14273.9     24.806    74.034
14481.5     26.171   -44.476
14692.2     27.412  -176.369
14905.9     25.588    81.566
15122.7     27.924   -13.608
15342.7     29.810  -110.432
15565.8     31.399   153.636
15792.2     32.146    62.309
16021.9     32.433   -14.860
16255.0     32.267   -86.343
16491.4     31.916  -148.362
16731.3     31.108   160.785
16974.7     30.307   124.096
17221.6     29.370    98.333
17472.1     28.269    82.432
17726.2     27.876    73.700
17984.0     26.716    72.541
18245.6     24.857    83.944
18511.0     22.411   111.856
18780.2     19.047   149.189
19053.4     12.759  -152.081
19330.5      3.894   -21.830
19611.7     11.809    88.122
19897.0     15.723   177.875
20186.4     19.653   -82.990
20480.0     20.130    15.873
20777.9     18.551   131.488
21080.1     17.782  -101.112
21386.7     18.207    52.531
21697.8     18.547  -143.218
22013.4     18.400    23.170
22333.6     18.189  -160.726
22658.4     17.149    34.599
22988.0     17.019  -117.376
23322.4     17.004   100.082
23661.6     14.910   -18.738
24005.8     14.905  -118.359
24355.0     12.003   138.843
24709.2     10.608    56.056
25068.6     11.032   -11.994
25433.2      8.123   -42.376
25803.2     -1.216   -55.189
26178.5      2.186  -167.040
26559.3     -0.136  -122.425
26945.6     -5.490   -33.395
27337.5      4.930   -62.982
27735.2      6.628    10.728
28138.6      4.547   117.196
28547.9      2.735  -137.552
28963.1      2.176    49.182
29384.4      0.795   -22.641
29811.8      3.309   120.129
30245.4      5.836  -161.524
30685.3      1.909    14.191
31131.7      1.292   163.151
31584.5      0.440   -90.805
32043.9      4.179  -113.877
32510.0     -5.780   -26.841
32982.8     -0.607   103.871
33462.6     -1.534    20.628
33949.3     -2.604    71.300
34443.1      0.216   -11.650
34944.1      0.867  -164.461
35452.4     -2.567    70.848
35968.0      2.980    32.763
36491.2      3.831   -54.874
37022.0      0.521   -40.451
37560.5      3.798   -28.469
38106.8      4.795   -15.032
38661.1      0.656    89.788
39223.4      3.007  -158.131
39793.9     -2.446   107.138
