Freq[Hz]     dBSPL  Phase[Deg]
5.00000    -12.875    38.255
5.07273    -13.316    43.749
5.14651    -13.519    49.831
5.22137    -13.057    57.550
5.29732    -12.595    65.269
5.37437    -12.133    72.989
5.45254    -11.671    80.707
5.53185    -11.087    85.779
5.61231    -10.376    88.051
5.69394     -9.665    90.323
5.77676     -8.954    92.595
5.86079     -8.251    94.825
5.94604     -8.041    94.605
6.03252     -7.831    94.385
6.12027     -7.621    94.165
6.20929     -7.410    93.945
6.29961     -7.778    94.244
6.39124     -8.273    94.658
6.48420     -8.769    95.071
6.57851     -9.265    95.485
6.67420    -10.332   103.311
6.77128    -11.492   112.342
6.86977    -12.652   121.372
6.96969    -13.536   130.996
7.07107    -12.318   145.140
7.17392    -11.100   159.285
7.27827     -9.882   173.428
7.38413     -8.630  -179.738
7.49154     -7.351  -178.553
7.60050     -6.072  -177.367
7.71105     -4.974  -176.742
7.82321     -4.672  -178.576
7.93701     -4.370   179.590
8.05245     -4.068   177.756
8.16958     -4.906   177.263
8.28841     -5.787   176.820
8.40896     -6.667   176.377
8.53128     -8.493  -166.798
8.65537    -10.441  -147.744
8.78126    -12.388  -128.691
8.90899     -9.639  -111.999
9.03857     -6.581   -95.462
9.17004     -3.670   -80.832
9.30342     -1.922   -81.384
9.43874     -0.174   -81.936
9.57603      1.111   -82.672
9.71532      1.690   -83.690
9.85663      2.270   -84.708
10.0000      2.269   -81.451
10.1455      2.106   -77.004
10.2930      2.203   -70.600
10.4427      3.028   -58.731
10.5946      3.853   -46.862
10.7487      5.721   -41.245
10.9051      7.798   -36.876
11.0637      9.686   -36.072
11.2246     11.375   -39.038
11.3879     12.932   -42.672
11.5535     14.004   -48.736
11.7216     15.067   -54.826
11.8921     15.540   -62.400
12.0650     16.013   -69.974
12.2405     15.898   -78.305
12.4186     15.708   -86.734
12.5992     14.745   -95.473
12.7825     13.610  -104.282
12.9684     10.750  -112.211
13.1570      7.488  -119.936
13.3484      3.798   -59.980
13.5426      0.039    10.966
13.7395      6.630    10.662
13.9394     13.109     6.811
14.1421     15.712    -3.165
14.3478     17.912   -13.380
14.5565     19.247   -24.107
14.7683     20.142   -34.915
14.9831     20.698   -45.787
15.2010     20.687   -56.406
15.4221     20.450   -66.791
15.6464     19.640   -76.329
15.8740     18.340   -84.223
16.1049     16.647   -90.804
16.3392     13.922   -87.987
16.5768     11.812   -75.843
16.8179     10.653   -50.659
17.0626     12.861   -35.931
17.3107     15.260   -28.377
17.5625     17.290   -29.693
17.8180     18.432   -34.060
18.0771     19.189   -38.357
18.3401     19.593   -42.144
18.6068     19.683   -43.927
18.8775     19.754   -43.677
19.1521     19.915   -42.065
19.4306     20.238   -39.473
19.7133     20.790   -37.001
20.0000     21.400   -35.131
20.2909     22.015   -33.572
20.5860     22.621   -32.095
20.8855     23.238   -30.462
21.1893     23.941   -28.833
21.4975     24.713   -27.788
21.8102     25.488   -27.580
22.1274     26.191   -28.169
22.4492     26.760   -29.235
22.7758     27.172   -30.248
23.1071     27.459   -30.641
23.4432     27.711   -30.077
23.7841     28.044   -28.733
24.1301     28.503   -27.413
24.4811     29.025   -26.728
24.8372     29.509   -26.745
25.1984     29.882   -26.997
25.5649     30.150   -26.762
25.9368     30.408   -25.496
26.3141     30.802   -23.301
26.6968     31.426   -21.062
27.0851     32.234   -19.856
27.4791     33.083   -20.200
27.8788     33.820   -21.733
28.2843     34.392   -23.626
28.6957     34.821   -25.128
29.1131     35.190   -25.769
29.5365     35.599   -25.527
29.9661     36.123   -24.821
30.4020     36.770   -24.257
30.8442     37.488   -24.331
31.2929     38.194   -24.980
31.7480     38.850   -25.968
32.2098     39.452   -27.039
32.6783     40.010   -28.020
33.1536     40.546   -28.892
33.6359     41.068   -29.666
34.1251     41.582   -30.287
34.6215     42.104   -30.711
35.1250     42.664   -31.034
35.6359     43.275   -31.517
36.1543     43.908   -32.348
36.6802     44.520   -33.494
37.2137     45.097   -34.713
37.7550     45.667   -35.824
38.3041     46.255   -36.889
38.8613     46.859   -38.085
39.4265     47.456   -39.448
40.0000     48.038   -40.836
40.5818     48.615   -42.195
41.1721     49.196   -43.612
41.7710     49.768   -45.111
42.3785     50.327   -46.605
42.9949     50.891   -48.078
43.6203     51.463   -49.663
44.2548     52.026   -51.431
44.8985     52.567   -53.223
45.5515     53.113   -54.985
46.2141     53.675   -56.901
46.8863     54.221   -59.082
47.5683     54.724   -61.298
48.2602     55.223   -63.356
48.9621     55.740   -65.457
49.6743     56.255   -67.791
50.3968     56.736   -70.231
51.1299     57.197   -72.618
51.8736     57.660   -75.031
52.6281     58.113   -77.568
53.3936     58.549   -80.190
54.1702     58.970   -82.863
54.9581     59.377   -85.602
55.7575     59.768   -88.393
56.5685     60.143   -91.230
57.3914     60.496   -94.107
58.2261     60.821   -96.962
59.0730     61.127   -99.755
59.9323     61.417  -102.561
60.8040     61.677  -105.380
61.6884     61.917  -108.130
62.5857     62.150  -110.926
63.4960     62.351  -113.852
64.4196     62.506  -116.696
65.3566     62.642  -119.307
66.3073     62.780  -121.794
67.2717     62.894  -124.188
68.2502     62.992  -126.216
69.2429     63.133  -128.103
70.2501     63.241  -130.223
71.2719     63.320  -131.775
72.3086     63.509  -133.525
73.3603     63.609  -136.096
74.4274     63.611  -137.996
75.5099     63.682  -139.684
76.6083     63.729  -141.402
77.7226     63.803  -142.879
78.8531     63.875  -144.437
80.0000     63.942  -145.847
81.1636     64.008  -147.270
82.3442     64.064  -148.634
83.5419     64.103  -150.006
84.7570     64.139  -151.170
85.9899     64.191  -152.403
87.2406     64.214  -153.589
88.5096     64.236  -154.630
89.7970     64.245  -155.609
91.1031     64.238  -156.450
92.4282     64.229  -157.070
93.7726     64.236  -157.612
95.1366     64.251  -158.041
96.5204     64.281  -158.376
97.9243     64.334  -158.625
99.3486     64.403  -158.957
100.794     64.465  -159.272
102.260     64.533  -159.631
103.747     64.600  -159.924
105.256     64.679  -160.440
106.787     64.719  -160.923
108.340     64.744  -161.325
109.916     64.774  -161.465
111.515     64.826  -161.555
113.137     64.884  -161.772
114.783     64.926  -161.932
116.452     64.964  -162.063
118.146     64.996  -162.154
119.865     65.024  -162.062
121.608     65.070  -161.918
123.377     65.129  -161.785
125.171     65.195  -161.697
126.992     65.246  -161.663
128.839     65.301  -161.521
130.713     65.354  -161.378
132.615     65.411  -161.202
134.543     65.469  -161.025
136.500     65.534  -160.817
138.486     65.592  -160.702
140.500     65.658  -160.549
142.544     65.715  -160.612
144.617     65.692  -160.575
146.721     65.701  -160.120
148.855     65.772  -159.641
151.020     65.840  -159.556
153.217     65.848  -159.651
155.445     65.750  -159.567
157.706     65.684  -158.320
160.000     65.759  -157.151
162.327     65.860  -156.415
164.688     65.938  -156.017
167.084     66.063  -155.714
169.514     66.099  -156.798
171.980     65.827  -156.380
174.481     65.784  -155.006
177.019     65.765  -154.433
179.594     65.655  -153.467
182.206     65.625  -151.733
184.856     65.637  -150.521
187.545     65.626  -149.630
190.273     65.543  -148.247
193.041     65.527  -146.507
195.849     65.569  -144.795
198.697     65.652  -143.653
201.587     65.603  -142.469
204.520     65.623  -140.798
207.494     65.646  -139.634
210.512     65.613  -138.520
213.574     65.456  -136.967
216.681     65.387  -134.321
219.833     65.485  -132.132
223.030     65.545  -130.454
226.274     65.527  -128.987
229.565     65.416  -127.059
232.905     65.394  -124.463
236.292     65.397  -122.028
239.729     65.473  -119.691
243.216     65.490  -117.903
246.754     65.431  -115.622
250.343     65.441  -113.210
253.984     65.381  -110.975
257.678     65.320  -108.468
261.426     65.151  -105.807
265.229     65.070  -101.662
269.087     65.119   -98.353
273.001     65.164   -95.289
276.972     65.085   -92.628
281.000     65.029   -88.583
285.088     65.061   -84.646
289.234     65.212   -80.837
293.441     65.298   -78.831
297.709     65.035   -75.717
302.040     65.098   -72.296
306.433     64.750   -69.282
310.890     64.629   -63.878
315.412     64.440   -59.173
320.000     64.432   -53.743
324.655     64.335   -49.106
329.377     64.405   -43.794
334.168     64.519   -40.098
339.028     64.266   -36.449
343.959     64.139   -30.729
348.962     64.090   -26.858
354.038     63.814   -21.684
359.188     63.685   -15.822
364.412     63.657   -10.019
369.713     63.560    -3.887
375.090     63.460     1.140
380.546     63.293     7.822
386.081     63.252    14.356
391.697     63.021    20.526
397.394     62.876    29.489
403.175     62.939    36.670
409.039     62.831    43.985
414.989     62.749    52.452
421.025     62.637    60.462
427.149     62.482    69.350
433.362     62.467    78.875
439.665     62.454    88.525
446.060     62.358    98.116
452.548     62.337   108.823
459.131     62.353   119.216
465.809     62.411   130.306
472.584     62.399   140.607
479.458     62.314   152.094
486.432     62.403   163.652
493.507     62.399   174.984
500.686     62.326  -172.880
507.968     62.319  -160.673
515.357     62.246  -148.550
522.853     62.186  -135.918
530.458     62.108  -123.121
538.174     61.978  -110.238
546.002     61.835   -97.159
553.943     61.677   -83.643
562.001     61.482   -69.797
570.175     61.285   -55.504
578.469     61.062   -40.934
586.883     60.795   -26.112
595.419     60.526   -11.069
604.080     60.257     4.277
612.866     59.967    20.108
621.780     59.676    36.379
630.824     59.388    53.054
640.000     59.113    69.787
649.309     58.857    86.627
658.753     58.618   103.900
668.335     58.395   121.906
678.056     58.197   139.918
687.919     58.021   158.228
697.925     57.861   176.792
708.077     57.716  -164.764
718.376     57.576  -146.126
728.825     57.435  -127.309
739.426     57.284  -108.311
750.181     57.117   -89.120
761.093     56.928   -69.711
772.163     56.715   -50.372
783.394     56.470   -30.738
794.789     56.189   -10.442
806.349     55.878     9.921
818.078     55.536    30.725
829.977     55.166    52.016
842.050     54.774    73.837
854.298     54.368    96.216
866.724     53.963   118.830
879.330     53.559   142.344
892.120     53.171   166.387
905.097     52.810  -169.102
918.262     52.478  -144.206
931.618     52.178  -119.023
945.169     51.905   -93.650
958.917     51.649   -68.177
972.864     51.397   -42.671
987.015     51.131   -17.183
1001.37     50.826     8.586
1015.94     50.469    34.297
1030.71     50.041    59.645
1045.71     49.504    85.291
1060.92     48.822   111.277
1076.35     47.964   137.069
1092.00     46.864   163.126
1107.89     45.407  -169.958
1124.00     43.450  -141.867
1140.35     40.707  -110.949
1156.94     36.658   -70.916
1173.77     32.627    -2.393
1190.84     35.230    76.557
1208.16     39.845   122.826
1225.73     43.101   156.079
1243.56     45.378  -174.354
1261.65     46.985  -146.304
1280.00     48.103  -118.832
1298.62     48.828   -91.474
1317.51     49.214   -63.646
1336.67     49.282   -35.052
1356.11     49.041    -5.625
1375.84     48.498    25.384
1395.85     47.672    58.655
1416.15     46.645    94.816
1436.75     45.613   134.777
1457.65     44.929   178.943
1478.85     44.936  -134.881
1500.36     45.585   -90.519
1522.19     46.493   -49.301
1544.33     47.320   -10.869
1566.79     47.887    25.848
1589.58     48.126    61.864
1612.70     48.012    97.739
1636.16     47.542   134.537
1659.95     46.726   173.112
1684.10     45.615  -145.442
1708.60     44.366   -99.870
1733.45     43.339   -49.832
1758.66     42.961     3.901
1784.24     43.342    57.258
1810.19     44.113   107.386
1836.52     44.885   155.150
1863.24     45.456  -158.550
1890.34     45.778  -112.512
1917.83     45.877   -65.840
1945.73     45.816   -17.930
1974.03     45.672    31.866
2002.74     45.528    83.277
2031.87     45.446   136.098
2061.43     45.452  -169.991
2091.41     45.539  -114.898
2121.83     45.691   -58.689
2152.69     45.906    -1.970
2184.01     46.213    55.948
2215.77     46.654   114.825
2248.00     47.233   173.800
2280.70     47.894  -127.671
2313.87     48.529   -69.508
2347.53     49.020   -11.489
2381.68     49.274    46.718
2416.32     49.268   106.358
2451.46     49.067   168.442
2487.12     48.849  -126.433
2523.30     48.840   -58.827
2560.00     49.112     9.533
2597.24     49.477    76.916
2635.01     49.668   143.810
2673.34     49.526  -148.378
2712.23     49.093   -77.798
2751.68     48.644    -2.910
2791.70     48.540    75.016
2832.31     48.827   153.339
2873.50     49.203  -129.200
2915.30     49.429   -51.557
2957.70     49.558    28.065
3000.72     49.794   109.319
3044.37     50.181  -169.215
3088.65     50.507   -87.978
3133.58     50.562    -6.305
3179.16     50.380    77.904
3225.40     50.230   165.292
3272.31     50.305  -106.004
3319.91     50.429   -17.297
3368.20     50.300    72.135
3417.19     49.925   164.323
3466.89     49.713   -99.478
3517.32     49.956    -1.653
3568.48     50.301    94.435
3620.39     50.286  -169.412
3673.05     49.976   -69.596
3726.47     49.889    33.896
3780.67     50.133   137.428
3835.67     50.116  -119.917
3891.46     49.596   -13.371
3948.06     49.391    99.537
4005.49     50.092  -147.761
4063.75     50.641   -38.837
4122.86     50.304    72.038
4182.82     50.027  -168.915
4243.66     50.918   -48.211
4305.39     51.779    66.701
4368.01     51.748  -176.745
4431.55     51.813   -53.275
4496.01     52.655    69.877
4561.40     53.084  -170.314
4627.75     52.777   -45.957
4695.06     53.021    84.791
4763.35     53.815  -147.487
4832.64     53.890   -21.348
4902.93     53.562   110.627
4974.24     53.688  -114.853
5046.60     53.461    18.215
5120.00     52.653   157.520
5194.47     52.614   -58.267
5270.03     52.465    81.954
5346.68     51.247  -130.362
5424.45     51.608    27.208
5503.35     52.646   173.992
5583.40     51.885   -38.238
5664.61     51.489   121.902
5747.01     51.914   -82.234
5830.60     51.111    76.644
5915.41     51.337  -115.066
6001.45     51.752    45.984
6088.74     51.090  -145.792
6177.30     51.835    26.584
6267.15     51.820  -166.585
6358.31     51.528    10.879
6450.80     52.213  -175.056
6544.62     51.448     0.954
6639.82     51.620  -173.678
6736.40     51.518     5.861
6834.38     50.903  -163.431
6933.79     51.482    23.412
7034.64     50.105  -146.674
7136.96     50.005    54.736
7240.77     49.465  -107.608
7346.09     49.705   101.287
7452.94     49.790   -59.709
7561.35     49.177   153.841
7671.33     49.721     2.340
7782.91     49.157  -140.796
7896.12     49.703    72.850
8010.97     48.575   -65.027
8127.49     49.024   158.691
8245.71     47.948    29.467
8365.65     48.784   -99.506
8487.33     48.006   136.837
8610.78     48.882    12.569
8736.03     48.245  -106.779
8863.09     48.524   132.637
8992.01     47.548    22.162
9122.80     47.399   -90.676
9255.50     46.782   168.454
9390.12     46.161    64.672
9526.70     46.590   -27.643
9665.27     45.993  -124.746
9805.86     46.420   142.755
9948.49     45.472    59.320
10093.2     45.321   -26.596
10240.0     45.527   -98.896
10388.9     45.162  -173.051
10540.1     45.716   113.513
10693.4     45.704    50.227
10848.9     45.096   -15.651
11006.7     45.220   -76.176
11166.8     44.355  -126.623
11329.2     43.213  -174.685
11494.0     43.198   144.262
11661.2     43.544   112.230
11830.8     43.659    78.259
12002.9     43.819    43.526
12177.5     43.931    16.000
12354.6     43.278    -5.219
12534.3     42.298   -21.220
12716.6     41.829   -31.608
12901.6     41.490   -33.939
13089.2     41.321   -29.623
13279.6     41.103   -23.231
13472.8     40.931   -13.776
13668.8     40.818     0.313
13867.6     40.404    20.599
14069.3     39.692    48.369
14273.9     39.052    84.114
14481.5     38.640   120.545
14692.2     36.104   176.315
14905.9     39.111  -126.250
15122.7     39.373   -80.239
15342.7     38.825   -22.701
15565.8     38.437    42.610
15792.2     37.707   113.481
16021.9     36.743  -167.958
16255.0     35.737   -80.557
16491.4     34.882    12.733
16731.3     34.101   112.960
16974.7     33.110  -140.754
17221.6     31.825   -26.155
17472.1     30.514    98.939
17726.2     30.141  -128.592
17984.0     29.774     6.914
18245.6     28.565   148.390
18511.0     27.814   -61.464
18780.2     26.701    93.585
19053.4     25.975  -101.848
19330.5     24.606    68.564
19611.7     23.775  -105.693
19897.0     23.046    80.824
20186.4     22.153   -82.503
20480.0     22.038   119.189
20777.9     19.581   -27.391
21080.1     17.669  -161.624
21386.7     18.808    64.895
21697.8     17.950   -63.120
22013.4     16.108   177.895
22333.6     15.427    66.552
22658.4     14.544   -43.179
22988.0     10.217  -116.652
23322.4      9.412   149.615
23661.6      3.898    35.660
24005.8      0.609   -34.407
24355.0      6.750   -20.837
24709.2      9.102   -86.120
25068.6      3.695  -116.553
25433.2      2.237  -117.529
25803.2      5.835  -109.612
26178.5      7.545  -129.089
26559.3      5.976  -135.311
26945.6      3.322  -134.071
27337.5      8.067   -83.163
27735.2      9.801   -20.337
28138.6      5.232   -71.911
28547.9     -0.082   -12.752
28963.1     -0.163  -132.746
29384.4     -3.110   174.207
29811.8      1.054    81.430
30245.4     -1.695    61.017
30685.3      1.181  -127.512
31131.7      3.364   -11.563
31584.5      6.602  -105.707
32043.9      7.347    80.915
32510.0      2.559  -163.128
32982.8      2.419    41.082
33462.6     -1.862  -144.816
33949.3      2.614    59.010
34443.1      5.898   -49.634
34944.1      3.548   -86.122
35452.4      2.762   -93.854
35968.0      4.696   -60.611
36491.2      6.602   142.864
37022.0     10.242    87.503
37560.5      8.999   -10.302
38106.8      4.717   -67.088
38661.1      0.904     5.993
39223.4      5.559   -15.686
39793.9     14.877   -91.034
