Freq[Hz]     dBSPL  Phase[Deg]
5.00000     25.240   -88.081
5.07273     25.142   -91.253
5.14651     25.044   -94.471
5.22137     25.720   -99.136
5.29732     26.405  -103.873
5.37437     27.012  -108.431
5.45254     27.390  -113.252
5.53185     27.544  -118.640
5.61231     27.554  -124.072
5.69394     27.443  -128.956
5.77676     27.167  -132.868
5.86079     26.751  -136.324
5.94604     26.265  -139.262
6.03252     25.785  -141.400
6.12027     25.372  -142.053
6.20929     25.017  -141.101
6.29961     24.771  -139.202
6.39124     24.772  -137.460
6.48420     25.078  -136.237
6.57851     25.595  -135.530
6.67420     26.142  -135.637
6.77128     26.598  -136.881
6.86977     26.955  -139.180
6.96969     27.203  -141.894
7.07107     27.295  -144.378
7.17392     27.196  -146.542
7.27827     26.960  -148.332
7.38413     26.702  -149.252
7.49154     26.481  -148.775
7.60050     26.329  -146.966
7.71105     26.362  -144.718
7.82321     26.640  -142.490
7.93701     27.111  -140.503
8.05245     27.652  -139.025
8.16958     28.161  -138.211
8.28841     28.642  -137.823
8.40896     29.120  -137.453
8.53128     29.609  -136.833
8.65537     30.154  -136.305
8.78126     30.830  -136.295
8.90899     31.673  -137.108
9.03857     32.556  -138.776
9.17004     33.388  -141.901
9.30342     34.113  -146.025
9.43874     34.650  -150.684
9.57603     34.939  -155.773
9.71532     34.985  -160.725
9.85663     34.792  -164.852
10.0000     34.415  -168.054
10.1455     33.999  -169.721
10.2930     33.640  -169.685
10.4427     33.443  -168.781
10.5946     33.488  -167.589
10.7487     33.614  -166.372
10.9051     33.667  -165.393
11.0637     33.675  -164.136
11.2246     33.713  -161.771
11.3879     33.834  -158.617
11.5535     34.318  -155.619
11.7216     35.044  -153.290
11.8921     35.825  -153.651
12.0650     36.561  -154.866
12.2405     36.937  -157.255
12.4186     37.061  -159.692
12.5992     36.888  -160.650
12.7825     36.650  -159.673
12.9684     36.786  -155.386
13.1570     36.983  -150.801
13.3484     38.014  -147.191
13.5426     39.254  -146.778
13.7395     40.428  -149.591
13.9394     41.230  -154.684
14.1421     41.369  -160.019
14.3478     41.148  -164.411
14.5565     40.502  -164.678
14.7683     40.045  -160.674
14.9831     40.795  -154.793
15.2010     42.243  -153.698
15.4221     43.544  -157.317
15.6464     44.290  -163.854
15.8740     44.383  -171.167
16.1049     43.919  -177.419
16.3392     43.086   178.959
16.5768     42.145   179.383
16.8179     41.485  -175.661
17.0626     41.541  -168.199
17.3107     42.396  -162.663
17.5625     43.545  -161.580
17.8180     44.336  -163.628
18.0771     44.639  -165.932
18.3401     44.779  -166.615
18.6068     45.185  -166.144
18.8775     45.962  -166.953
19.1521     46.652  -170.176
19.4306     46.863  -174.542
19.7133     46.611  -177.773
20.0000     46.293  -178.500
20.2909     46.322  -177.418
20.5860     46.588  -176.733
20.8855     46.789  -176.749
21.1893     46.920  -176.590
21.4975     47.168  -176.032
21.8102     47.511  -175.527
22.1274     47.890  -175.746
22.4492     48.254  -176.378
22.7758     48.583  -177.554
23.1071     48.817  -178.969
23.4432     48.928   179.892
23.7841     49.014   179.415
24.1301     49.145   179.297
24.4811     49.312   179.320
24.8372     49.468   179.536
25.1984     49.689  -179.902
25.5649     50.008  -179.511
25.9368     50.355  -179.560
26.3141     50.656  -179.812
26.6968     51.001   179.840
27.0851     51.371   179.038
27.4791     51.611   177.855
27.8788     51.760   177.163
28.2843     51.954   177.252
28.6957     52.243   177.611
29.1131     52.642   177.706
29.5365     53.119   176.884
29.9661     53.443   174.980
30.4020     53.556   173.354
30.8442     53.602   173.198
31.2929     53.787   173.946
31.7480     54.164   174.341
32.2098     54.545   173.917
32.6783     54.839   173.114
33.1536     55.094   172.502
33.6359     55.365   171.993
34.1251     55.645   171.201
34.6215     55.841   170.203
35.1250     55.946   169.779
35.6359     56.129   170.038
36.1543     56.417   170.095
36.6802     56.695   169.612
37.2137     56.908   169.035
37.7550     57.108   168.899
38.3041     57.364   169.013
38.8613     57.704   168.650
39.4265     58.001   167.791
40.0000     58.246   167.022
40.5818     58.482   166.393
41.1721     58.705   165.948
41.7710     58.960   165.771
42.3785     59.277   165.575
42.9949     59.621   165.059
43.6203     59.926   164.245
44.2548     60.198   163.863
44.8985     60.586   163.484
45.5515     60.991   162.089
46.2141     61.222   160.107
46.8863     61.322   158.573
47.5683     61.330   158.022
48.2602     61.472   158.624
48.9621     61.725   158.521
49.6743     61.916   158.271
50.3968     62.128   158.283
51.1299     62.366   158.322
51.8736     62.641   158.305
52.6281     62.934   157.919
53.3936     63.183   157.375
54.1702     63.411   157.011
54.9581     63.660   156.744
55.7575     63.921   156.478
56.5685     64.215   156.238
57.3914     64.538   155.637
58.2261     64.838   154.608
59.0730     65.033   153.567
59.9323     65.237   152.948
60.8040     65.471   152.529
61.6884     65.763   151.908
62.5857     66.039   150.941
63.4960     66.282   150.028
64.4196     66.536   149.275
65.3566     66.825   148.484
66.3073     67.125   147.392
67.2717     67.382   145.998
68.2502     67.550   144.609
69.2429     67.670   143.891
70.2501     67.843   143.594
71.2719     68.058   143.343
72.3086     68.312   143.041
73.3603     68.588   142.496
74.4274     68.855   141.767
75.5099     69.122   141.020
76.6083     69.407   140.169
77.7226     69.699   139.060
78.8531     69.954   137.644
80.0000     70.164   136.345
81.1636     70.357   134.983
82.3442     70.489   133.831
83.5419     70.635   133.035
84.7570     70.788   132.288
85.9899     70.948   131.811
87.2406     71.159   131.463
88.5096     71.411   131.044
89.7970     71.696   130.281
91.1031     71.952   129.325
92.4282     72.192   128.385
93.7726     72.431   127.432
95.1366     72.660   126.460
96.5204     72.902   125.538
97.9243     73.159   124.442
99.3486     73.401   123.218
100.794     73.647   122.014
102.260     73.894   120.666
103.747     74.117   119.243
105.256     74.322   117.960
106.787     74.534   116.758
108.340     74.750   115.518
109.916     74.964   114.279
111.515     75.190   113.013
113.137     75.419   111.509
114.783     75.620   109.800
116.452     75.754   108.136
118.146     75.872   106.681
119.865     76.007   105.602
121.608     76.163   104.482
123.377     76.332   103.257
125.171     76.492   102.062
126.992     76.660   101.075
128.839     76.872   100.135
130.713     77.112    99.131
132.615     77.363    97.885
134.543     77.612    96.325
136.500     77.844    94.540
138.486     78.041    92.540
140.500     78.192    90.571
142.544     78.324    88.847
144.617     78.480    87.152
146.721     78.617    85.258
148.855     78.715    83.470
151.020     78.803    81.956
153.217     78.916    80.662
155.445     79.069    79.353
157.706     79.251    77.889
160.000     79.448    76.132
162.327     79.616    73.951
164.688     79.713    71.685
167.084     79.760    69.726
169.514     79.812    68.169
171.980     79.896    66.774
174.481     80.007    65.344
177.019     80.133    63.815
179.594     80.265    62.177
182.206     80.405    60.396
184.856     80.540    58.405
187.545     80.642    56.258
190.273     80.697    54.155
193.041     80.727    52.379
195.849     80.794    50.913
198.697     80.919    49.337
201.587     81.069    47.348
204.520     81.192    44.956
207.494     81.253    42.345
210.512     81.246    39.822
213.574     81.201    37.595
216.681     81.155    35.700
219.833     81.104    33.913
223.030     81.073    32.601
226.274     81.098    31.340
229.565     81.175    29.890
232.905     81.286    28.222
236.292     81.407    26.006
239.729     81.469    23.371
243.216     81.491    20.735
246.754     81.458    17.706
250.343     81.275    14.935
253.984     81.062    13.430
257.678     80.986    12.050
261.426     80.888    10.220
265.229     80.769     8.880
269.087     80.757     7.815
273.001     80.753     5.666
276.972     80.627     3.367
281.000     80.428     1.806
285.088     80.245     0.877
289.234     80.168     0.363
293.441     80.179    -0.362
297.709     80.223    -1.650
302.040     80.240    -3.384
306.433     80.194    -5.173
310.890     80.130    -6.731
315.412     80.045    -8.253
320.000     79.973    -9.278
324.655     80.011   -10.401
329.377     80.055   -12.288
334.168     80.036   -14.549
339.028     79.933   -16.894
343.959     79.739   -18.785
348.962     79.515   -20.044
354.038     79.293   -20.775
359.188     79.106   -21.052
364.412     78.954   -21.308
369.713     78.810   -21.395
375.090     78.710   -21.459
380.546     78.601   -21.946
386.081     78.437   -22.506
391.697     78.173   -22.591
397.394     77.906   -22.122
403.175     77.688   -21.055
409.039     77.537   -20.089
414.989     77.411   -19.419
421.025     77.273   -18.890
427.149     77.122   -18.340
433.362     76.964   -17.703
439.665     76.814   -17.021
446.060     76.678   -16.372
452.548     76.559   -15.794
459.131     76.466   -15.356
465.809     76.392   -15.162
472.584     76.331   -15.175
479.458     76.282   -15.367
486.432     76.241   -15.563
493.507     76.212   -15.741
500.686     76.193   -15.912
507.968     76.185   -16.086
515.357     76.189   -16.276
522.853     76.203   -16.491
530.458     76.227   -16.740
538.174     76.261   -17.035
546.002     76.304   -17.389
553.943     76.354   -17.807
562.001     76.410   -18.296
570.175     76.471   -18.850
578.469     76.535   -19.500
586.883     76.601   -20.232
595.419     76.666   -21.045
604.080     76.731   -21.937
612.866     76.792   -22.913
621.780     76.848   -23.969
630.824     76.897   -25.108
640.000     76.940   -26.312
649.309     76.973   -27.586
658.753     76.996   -28.917
668.335     77.009   -30.298
678.056     77.010   -31.720
687.919     77.000   -33.174
697.925     76.976   -34.652
708.077     76.939   -36.145
718.376     76.890   -37.641
728.825     76.828   -39.131
739.426     76.753   -40.606
750.181     76.666   -42.056
761.093     76.567   -43.469
772.163     76.458   -44.835
783.394     76.340   -46.152
794.789     76.214   -47.414
806.349     76.082   -48.614
818.078     75.945   -49.748
829.977     75.806   -50.819
842.050     75.665   -51.829
854.298     75.524   -52.778
866.724     75.385   -53.674
879.330     75.249   -54.528
892.120     75.116   -55.343
905.097     74.987   -56.137
918.262     74.861   -56.913
931.618     74.738   -57.680
945.169     74.618   -58.445
958.917     74.498   -59.209
972.864     74.379   -59.973
987.015     74.259   -60.732
1001.37     74.137   -61.480
1015.94     74.014   -62.209
1030.71     73.891   -62.908
1045.71     73.767   -63.567
1060.92     73.647   -64.184
1076.35     73.533   -64.752
1092.00     73.427   -65.280
1107.89     73.333   -65.781
1124.00     73.256   -66.280
1140.35     73.194   -66.804
1156.94     73.153   -67.415
1173.77     73.124   -68.099
1190.84     73.113   -69.007
1208.16     73.107   -70.011
1225.73     73.101   -71.304
1243.56     73.089   -72.782
1261.65     73.059   -74.535
1280.00     73.003   -76.493
1298.62     72.889   -78.737
1317.51     72.768   -81.001
1336.67     72.568   -83.441
1356.11     72.308   -85.904
1375.84     71.976   -88.306
1395.85     71.570   -90.533
1416.15     71.070   -92.348
1436.75     70.520   -93.829
1457.65     69.891   -94.468
1478.85     69.227   -94.254
1500.36     68.557   -92.896
1522.19     67.975   -90.020
1544.33     67.578   -85.987
1566.79     67.440   -81.373
1589.58     67.584   -76.966
1612.70     67.972   -73.519
1636.16     68.520   -71.515
1659.95     69.133   -71.089
1684.10     69.735   -72.121
1708.60     70.276   -74.375
1733.45     70.723   -77.605
1758.66     71.062   -81.587
1784.24     71.286   -86.138
1810.19     71.392   -91.107
1836.52     71.380   -96.367
1863.24     71.251  -101.815
1890.34     71.007  -107.368
1917.83     70.652  -112.959
1945.73     70.192  -118.537
1974.03     69.631  -124.085
2002.74     68.969  -129.632
2031.87     68.222  -135.260
2061.43     67.389  -141.157
2091.41     66.469  -147.643
2121.83     65.452  -155.209
2152.69     64.313  -165.180
2184.01     63.113  -177.259
2215.77     62.011   164.085
2248.00     61.262   140.537
2280.70     61.559   111.137
2313.87     62.942    82.827
2347.53     64.891    59.808
2381.68     66.878    41.864
2416.32     68.709    26.524
2451.46     70.253    13.229
2487.12     71.574     0.831
2523.30     72.613   -10.802
2560.00     73.435   -21.985
2597.24     74.039   -32.738
2635.01     74.445   -43.086
2673.34     74.634   -52.885
2712.23     74.662   -62.178
2751.68     74.499   -70.702
2791.70     74.188   -78.388
2832.31     73.735   -84.920
2873.50     73.200   -90.297
2915.30     72.622   -94.340
2957.70     72.061   -96.956
3000.72     71.592   -98.173
3044.37     71.336   -98.287
3088.65     71.336   -98.161
3133.58     71.545   -98.523
3179.16     71.919  -100.017
3225.40     72.357  -102.767
3272.31     72.783  -106.811
3319.91     73.133  -111.959
3368.20     73.361  -117.911
3417.19     73.448  -124.324
3466.89     73.394  -130.867
3517.32     73.223  -137.289
3568.48     72.964  -143.501
3620.39     72.641  -149.585
3673.05     72.245  -155.706
3726.47     71.729  -161.894
3780.67     71.004  -167.693
3835.67     70.107  -172.629
3891.46     69.047  -174.678
3948.06     68.001  -174.346
4005.49     67.515  -170.854
4063.75     67.678  -167.997
4122.86     68.237  -168.569
4182.82     68.788  -172.621
4243.66     69.127  -178.996
4305.39     69.229   173.411
4368.01     69.079   164.942
4431.55     68.624   155.848
4496.01     67.842   146.636
4561.40     66.597   138.380
4627.75     64.950   132.339
4695.06     63.035   131.218
4763.35     61.326   135.193
4832.64     60.309   142.000
4902.93     59.965   146.664
4974.24     59.712   149.260
5046.60     59.385   152.166
5120.00     59.261   156.861
5194.47     59.702   161.785
5270.03     60.565   162.998
5346.68     61.336   160.318
5424.45     61.786   155.841
5503.35     61.993   151.677
5583.40     62.202   148.029
5664.61     62.427   143.887
5747.01     62.619   139.711
5830.60     62.854   135.718
5915.41     63.233   131.607
6001.45     63.735   126.162
6088.74     64.175   119.357
6177.30     64.579   111.951
6267.15     64.958   103.697
6358.31     65.228    94.741
6450.80     65.433    85.735
6544.62     65.654    76.538
6639.82     65.880    66.528
6736.40     65.992    55.663
6834.38     65.953    44.585
6933.79     65.802    33.579
7034.64     65.530    22.691
7136.96     65.122    12.502
7240.77     64.706     3.608
7346.09     64.483    -4.579
7452.94     64.469   -13.735
7561.35     64.397   -24.718
7671.33     64.093   -36.148
7782.91     63.639   -47.000
7896.12     63.205   -57.321
8010.97     62.739   -68.325
8127.49     62.044   -79.225
8245.71     61.147   -88.865
8365.65     60.136   -95.861
8487.33     59.411   -99.521
8610.78     59.405  -102.796
8736.03     59.841  -110.184
8863.09     59.951  -121.419
8992.01     59.382  -132.584
9122.80     58.766  -139.201
9255.50     58.777  -145.628
9390.12     58.978  -155.345
9526.70     59.030  -167.572
9665.27     58.783   178.597
9805.86     58.209   164.200
9948.49     57.343   149.716
10093.2     56.154   135.131
10240.0     54.479   121.436
10388.9     52.301   111.342
10540.1     50.156   110.699
10693.4     49.941   119.302
10848.9     51.647   115.109
11006.7     52.283    93.181
11166.8     51.013    71.522
11329.2     50.037    58.330
11494.0     50.646    39.343
11661.2     50.857     0.633
11830.8     49.495   -39.868
12002.9     46.786   -70.833
12177.5     46.707   -99.665
12354.6     48.084  -132.992
12534.3     48.974  -164.435
12716.6     49.107   168.854
12901.6     48.268   151.925
13089.2     46.980   141.226
13279.6     47.027   141.903
13472.8     48.879   144.103
13668.8     51.638   136.909
13867.6     54.292   120.332
14069.3     55.652    95.424
14273.9     55.571    67.752
14481.5     54.050    46.583
14692.2     52.578    30.726
14905.9     51.403    13.339
15122.7     50.366    -6.464
15342.7     49.776   -29.797
15565.8     49.974   -58.508
15792.2     50.589   -93.021
16021.9     50.802  -128.367
16255.0     50.348  -158.014
16491.4     50.508  -178.236
16731.3     51.742   157.667
16974.7     52.301   128.570
17221.6     52.405   100.491
17472.1     52.588    73.991
17726.2     52.844    49.159
17984.0     53.356    26.552
18245.6     54.082     2.856
18511.0     54.141   -22.230
18780.2     53.557   -45.192
19053.4     52.687   -66.883
19330.5     51.736   -89.629
19611.7     50.871  -117.721
19897.0     49.811  -152.371
20186.4     48.241   172.838
20480.0     46.414   148.007
20777.9     45.069   137.035
21080.1     44.837   141.173
21386.7     46.485   163.633
21697.8     48.726   157.835
22013.4     48.992   146.662
22333.6     49.185   156.694
22658.4     51.879   151.507
22988.0     54.150   119.192
23322.4     53.811    73.473
23661.6     51.756    32.009
24005.8     49.985    -0.700
24355.0     49.341   -29.145
24709.2     48.015   -53.810
25068.6     46.757   -67.257
25433.2     45.974   -87.346
25803.2     44.732  -113.166
26178.5     43.577  -151.506
26559.3     41.384  -149.344
26945.6     40.306  -118.117
27337.5     39.731  -153.535
27735.2     37.367  -169.944
28138.6     35.016  -142.218
28547.9     34.861   -87.717
28963.1     36.817   -71.847
29384.4     37.919   -61.606
29811.8     39.170   -48.848
30245.4     40.358   -43.938
30685.3     39.978   -50.632
31131.7     37.974   -62.443
31584.5     37.303  -127.052
32043.9     39.145   143.031
32510.0     41.104   101.576
32982.8     39.756    77.918
33462.6     38.254    98.854
33949.3     38.703   100.051
34443.1     37.453   100.117
34944.1     36.137    84.675
35452.4     33.383    47.254
35968.0     31.203     6.320
36491.2     31.752    67.120
37022.0     34.900    63.595
37560.5     37.936    54.365
38106.8     39.638    40.093
38661.1     39.551    20.121
39223.4     36.392     1.665
39793.9     33.325    30.292
