SPL Horizontal
On-Axis		10°		-10°		20°		-20°		30°		-30°		40°		-40°		50°		-50°		60°		-60°		70°		-70°		80°		-80°		90°		-90°		100°		-100°		110°		-110°		120°		-120°		130°		-130°		140°		-140°		150°		-150°		160°		-160°		170°		-170°		180°
Frequency / Hz	Sound Pressure Level / dB (re 20 µPa/V)  [2.83V at 1m]	Frequency / Hz	Sound Pressure Level / dB (re 20 µPa/V)  [2.83V at 1m]	Frequency / Hz	Sound Pressure Level / dB (re 20 µPa/V)  [2.83V at 1m]	Frequency / Hz	Sound Pressure Level / dB (re 20 µPa/V)  [2.83V at 1m]	Frequency / Hz	Sound Pressure Level / dB (re 20 µPa/V)  [2.83V at 1m]	Frequency / Hz	Sound Pressure Level / dB (re 20 µPa/V)  [2.83V at 1m]	Frequency / Hz	Sound Pressure Level / dB (re 20 µPa/V)  [2.83V at 1m]	Frequency / Hz	Sound Pressure Level / dB (re 20 µPa/V)  [2.83V at 1m]	Frequency / Hz	Sound Pressure Level / dB (re 20 µPa/V)  [2.83V at 1m]	Frequency / Hz	Sound Pressure Level / dB (re 20 µPa/V)  [2.83V at 1m]	Frequency / Hz	Sound Pressure Level / dB (re 20 µPa/V)  [2.83V at 1m]	Frequency / Hz	Sound Pressure Level / dB (re 20 µPa/V)  [2.83V at 1m]	Frequency / Hz	Sound Pressure Level / dB (re 20 µPa/V)  [2.83V at 1m]	Frequency / Hz	Sound Pressure Level / dB (re 20 µPa/V)  [2.83V at 1m]	Frequency / Hz	Sound Pressure Level / dB (re 20 µPa/V)  [2.83V at 1m]	Frequency / Hz	Sound Pressure Level / dB (re 20 µPa/V)  [2.83V at 1m]	Frequency / Hz	Sound Pressure Level / dB (re 20 µPa/V)  [2.83V at 1m]	Frequency / Hz	Sound Pressure Level / dB (re 20 µPa/V)  [2.83V at 1m]	Frequency / Hz	Sound Pressure Level / dB (re 20 µPa/V)  [2.83V at 1m]	Frequency / Hz	Sound Pressure Level / dB (re 20 µPa/V)  [2.83V at 1m]	Frequency / Hz	Sound Pressure Level / dB (re 20 µPa/V)  [2.83V at 1m]	Frequency / Hz	Sound Pressure Level / dB (re 20 µPa/V)  [2.83V at 1m]	Frequency / Hz	Sound Pressure Level / dB (re 20 µPa/V)  [2.83V at 1m]	Frequency / Hz	Sound Pressure Level / dB (re 20 µPa/V)  [2.83V at 1m]	Frequency / Hz	Sound Pressure Level / dB (re 20 µPa/V)  [2.83V at 1m]	Frequency / Hz	Sound Pressure Level / dB (re 20 µPa/V)  [2.83V at 1m]	Frequency / Hz	Sound Pressure Level / dB (re 20 µPa/V)  [2.83V at 1m]	Frequency / Hz	Sound Pressure Level / dB (re 20 µPa/V)  [2.83V at 1m]	Frequency / Hz	Sound Pressure Level / dB (re 20 µPa/V)  [2.83V at 1m]	Frequency / Hz	Sound Pressure Level / dB (re 20 µPa/V)  [2.83V at 1m]	Frequency / Hz	Sound Pressure Level / dB (re 20 µPa/V)  [2.83V at 1m]	Frequency / Hz	Sound Pressure Level / dB (re 20 µPa/V)  [2.83V at 1m]	Frequency / Hz	Sound Pressure Level / dB (re 20 µPa/V)  [2.83V at 1m]	Frequency / Hz	Sound Pressure Level / dB (re 20 µPa/V)  [2.83V at 1m]	Frequency / Hz	Sound Pressure Level / dB (re 20 µPa/V)  [2.83V at 1m]	Frequency / Hz	Sound Pressure Level / dB (re 20 µPa/V)  [2.83V at 1m]
20.5078	72.5585	20.5078	72.5551	20.5078	72.5475	20.5078	72.5373	20.5078	72.5221	20.5078	72.5057	20.5078	72.4827	20.5078	72.461	20.5078	72.4299	20.5078	72.4042	20.5078	72.3647	20.5078	72.3365	20.5078	72.2886	20.5078	72.2597	20.5078	72.2034	20.5078	72.1756	20.5078	72.1116	20.5078	72.0867	20.5078	72.0161	20.5078	71.9956	20.5078	71.9202	20.5078	71.9052	20.5078	71.8274	20.5078	71.8184	20.5078	71.7412	20.5078	71.7381	20.5078	71.6649	20.5078	71.6666	20.5078	71.6014	20.5078	71.6062	20.5078	71.5529	20.5078	71.5585	20.5078	71.5206	20.5078	71.5251	20.5078	71.5054	20.5078	71.507
21.9727	73.3505	21.9727	73.3507	21.9727	73.3336	21.9727	73.3343	21.9727	73.3004	21.9727	73.3016	21.9727	73.2513	21.9727	73.2532	21.9727	73.1873	21.9727	73.1901	21.9727	73.1094	21.9727	73.1134	21.9727	73.0194	21.9727	73.025	21.9727	72.9194	21.9727	72.9269	21.9727	72.8119	21.9727	72.8216	21.9727	72.7003	21.9727	72.7124	21.9727	72.5881	21.9727	72.6027	21.9727	72.4793	21.9727	72.496	21.9727	72.3781	21.9727	72.3962	21.9727	72.2882	21.9727	72.3065	21.9727	72.2133	21.9727	72.2302	21.9727	72.1559	21.9727	72.1697	21.9727	72.1179	21.9727	72.127	21.9727	72.1004	21.9727	72.1036
23.4375	74.2016	23.4375	74.2034	23.4375	74.1834	23.4375	74.1889	23.4375	74.1491	23.4375	74.1583	23.4375	74.0994	23.4375	74.1123	23.4375	74.0352	23.4375	74.0519	23.4375	73.9576	23.4375	73.9784	23.4375	73.8685	23.4375	73.8935	23.4375	73.7699	23.4375	73.7996	23.4375	73.6645	23.4375	73.6991	23.4375	73.5554	23.4375	73.5951	23.4375	73.4464	23.4375	73.4908	23.4375	73.3414	23.4375	73.3893	23.4375	73.2445	23.4375	73.294	23.4375	73.1596	23.4375	73.2077	23.4375	73.0899	23.4375	73.1331	23.4375	73.0381	23.4375	73.0726	23.4375	73.0057	23.4375	73.028	23.4375	72.9935	23.4375	73.0012
24.9023	75.3262	24.9023	75.3217	24.9023	75.3144	24.9023	75.3009	24.9023	75.2865	24.9023	75.2643	24.9023	75.243	24.9023	75.2127	24.9023	75.1848	24.9023	75.1472	24.9023	75.1133	24.9023	75.0693	24.9023	75.03	24.9023	74.9811	24.9023	74.9371	24.9023	74.8849	24.9023	74.8373	24.9023	74.7835	24.9023	74.7335	24.9023	74.68	24.9023	74.629	24.9023	74.5779	24.9023	74.5275	24.9023	74.4805	24.9023	74.4324	24.9023	74.391	24.9023	74.3471	24.9023	74.3125	24.9023	74.2746	24.9023	74.2474	24.9023	74.2172	24.9023	74.1978	24.9023	74.1768	24.9023	74.1652	24.9023	74.1544	24.9023	74.1505
26.3672	76.0589	26.3672	76.049	26.3672	76.0499	26.3672	76.0206	26.3672	76.022	26.3672	75.9745	26.3672	75.9753	26.3672	75.9117	26.3672	75.9107	26.3672	75.8335	26.3672	75.8293	26.3672	75.7417	26.3672	75.7329	26.3672	75.6384	26.3672	75.6239	26.3672	75.5263	26.3672	75.5055	26.3672	75.4082	26.3672	75.3812	26.3672	75.2876	26.3672	75.2552	26.3672	75.1682	26.3672	75.1319	26.3672	75.0537	26.3672	75.0155	26.3672	74.9478	26.3672	74.9103	26.3672	74.8541	26.3672	74.82	26.3672	74.776	26.3672	74.7478	26.3672	74.7162	26.3672	74.6961	26.3672	74.6772	26.3672	74.6667	26.3672	74.6604
27.832	76.7512	27.832	76.7476	27.832	76.7357	27.832	76.725	27.832	76.7014	27.832	76.684	27.832	76.6489	27.832	76.6253	27.832	76.5792	27.832	76.55	27.832	76.4936	27.832	76.46	27.832	76.3941	27.832	76.357	27.832	76.2829	27.832	76.2438	27.832	76.1629	27.832	76.1231	27.832	76.0376	27.832	75.9983	27.832	75.9107	27.832	75.8731	27.832	75.7864	27.832	75.7516	27.832	75.6689	27.832	75.6378	27.832	75.5625	27.832	75.5358	27.832	75.4712	27.832	75.4495	27.832	75.3984	27.832	75.3823	27.832	75.347	27.832	75.3371	27.832	75.319	27.832	75.3157
29.2969	77.5294	29.2969	77.5261	29.2969	77.5137	29.2969	77.5041	29.2969	77.4795	29.2969	77.4635	29.2969	77.4273	29.2969	77.4051	29.2969	77.358	29.2969	77.3299	29.2969	77.2731	29.2969	77.2395	29.2969	77.1743	29.2969	77.1357	29.2969	77.0639	29.2969	77.0211	29.2969	76.9447	29.2969	76.8987	29.2969	76.82	29.2969	76.7719	29.2969	76.6936	29.2969	76.6447	29.2969	76.5694	29.2969	76.5212	29.2969	76.4516	29.2969	76.4058	29.2969	76.3444	29.2969	76.3029	29.2969	76.2515	29.2969	76.2164	29.2969	76.1767	29.2969	76.1498	29.2969	76.1228	29.2969	76.1059	29.2969	76.0923	29.2969	76.0865
30.7617	78.0998	30.7617	78.0972	30.7617	78.0837	30.7617	78.076	30.7617	78.0494	30.7617	78.0366	30.7617	77.9974	30.7617	77.9798	30.7617	77.9288	30.7617	77.9067	30.7617	77.8453	30.7617	77.8192	30.7617	77.7486	30.7617	77.7194	30.7617	77.6414	30.7617	77.6099	30.7617	77.5266	30.7617	77.4938	30.7617	77.4076	30.7617	77.3747	30.7617	77.2882	30.7617	77.2561	30.7617	77.1722	30.7617	77.142	30.7617	77.0635	30.7617	77.036	30.7617	76.9659	30.7617	76.9418	30.7617	76.8825	30.7617	76.8627	30.7617	76.8164	30.7617	76.8016	30.7617	76.7698	30.7617	76.7606	30.7617	76.7444	30.7617	76.7413
32.2266	78.5538	32.2266	78.5491	32.2266	78.5388	32.2266	78.525	32.2266	78.5045	32.2266	78.4822	32.2266	78.4514	32.2266	78.4215	32.2266	78.3807	32.2266	78.3447	32.2266	78.2941	32.2266	78.2535	32.2266	78.1935	32.2266	78.1505	32.2266	78.0819	32.2266	78.0384	32.2266	77.9623	32.2266	77.9205	32.2266	77.8386	32.2266	77.8003	32.2266	77.7147	32.2266	77.6816	32.2266	77.5947	32.2266	77.5679	32.2266	77.4831	32.2266	77.4628	32.2266	77.3835	32.2266	77.3694	32.2266	77.2996	32.2266	77.2907	32.2266	77.2342	32.2266	77.2293	32.2266	77.1893	32.2266	77.187	32.2266	77.1664	32.2266	77.1657
33.6914	79.173	33.6914	79.1702	33.6914	79.1568	33.6914	79.1482	33.6914	79.1217	33.6914	79.1077	33.6914	79.0687	33.6914	79.0494	33.6914	78.9987	33.6914	78.9747	33.6914	78.9134	33.6914	78.8855	33.6914	78.8148	33.6914	78.7839	33.6914	78.7054	33.6914	78.6727	33.6914	78.5882	33.6914	78.5551	33.6914	78.4665	33.6914	78.4345	33.6914	78.3441	33.6914	78.3147	33.6914	78.2249	33.6914	78.1992	33.6914	78.113	33.6914	78.0917	33.6914	78.0123	33.6914	77.9956	33.6914	77.9264	33.6914	77.9143	33.6914	77.8586	33.6914	77.8505	33.6914	77.8114	33.6914	77.8069	33.6914	77.7867	33.6914	77.7853
35.1562	79.6796	35.1562	79.6749	35.1562	79.6669	35.1562	79.6528	35.1562	79.6369	35.1562	79.6137	35.1562	79.5905	35.1562	79.5584	35.1562	79.5286	35.1562	79.4883	35.1562	79.4528	35.1562	79.4052	35.1562	79.3648	35.1562	79.3112	35.1562	79.2671	35.1562	79.2091	35.1562	79.1625	35.1562	79.1022	35.1562	79.0541	35.1562	78.9937	35.1562	78.9455	35.1562	78.8872	35.1562	78.8401	35.1562	78.7862	35.1562	78.7416	35.1562	78.6938	35.1562	78.6532	35.1562	78.6129	35.1562	78.5777	35.1562	78.5459	35.1562	78.5178	35.1562	78.4949	35.1562	78.4752	35.1562	78.4615	35.1562	78.4513	35.1562	78.4467
36.6211	80.5188	36.6211	80.5133	36.6211	80.5042	36.6211	80.4875	36.6211	80.4698	36.6211	80.442	36.6211	80.4169	36.6211	80.378	36.6211	80.3469	36.6211	80.2971	36.6211	80.2618	36.6211	80.2016	36.6211	80.1641	36.6211	80.0943	36.6211	80.0564	36.6211	79.9785	36.6211	79.9419	36.6211	79.858	36.6211	79.8243	36.6211	79.737	36.6211	79.7072	36.6211	79.6194	36.6211	79.5942	36.6211	79.5093	36.6211	79.489	36.6211	79.4102	36.6211	79.3947	36.6211	79.3253	36.6211	79.3141	36.6211	79.2569	36.6211	79.2493	36.6211	79.2067	36.6211	79.2021	36.6211	79.1758	36.6211	79.1737	36.6211	79.1648
38.0859	80.9768	38.0859	80.9624	38.0859	80.9698	38.0859	80.9274	38.0859	80.9415	38.0859	80.8728	38.0859	80.8924	38.0859	80.7999	38.0859	80.8237	38.0859	80.7109	38.0859	80.7373	38.0859	80.6081	38.0859	80.6357	38.0859	80.4945	38.0859	80.5221	38.0859	80.3735	38.0859	80.4002	38.0859	80.2487	38.0859	80.2742	38.0859	80.1243	38.0859	80.1482	38.0859	80.0042	38.0859	80.0265	38.0859	79.8923	38.0859	79.9128	38.0859	79.7922	38.0859	79.8105	38.0859	79.7068	38.0859	79.7226	38.0859	79.6386	38.0859	79.6512	38.0859	79.5894	38.0859	79.5982	38.0859	79.5604	38.0859	79.5649	38.0859	79.5522
39.5508	81.3989	39.5508	81.3868	39.5508	81.3901	39.5508	81.3543	39.5508	81.3606	39.5508	81.3023	39.5508	81.3108	39.5508	81.2319	39.5508	81.2419	39.5508	81.1451	39.5508	81.1558	39.5508	81.0441	39.5508	81.0546	39.5508	80.9316	39.5508	80.9415	39.5508	80.8111	39.5508	80.8199	39.5508	80.6862	39.5508	80.6936	39.5508	80.5608	39.5508	80.5669	39.5508	80.4391	39.5508	80.4437	39.5508	80.3249	39.5508	80.3282	39.5508	80.2218	39.5508	80.2239	39.5508	80.1329	39.5508	80.1341	39.5508	80.0609	39.5508	80.0615	39.5508	80.0079	39.5508	80.008	39.5508	79.9754	39.5508	79.9754	39.5508	79.9644
41.0156	81.7986	41.0156	81.7931	41.0156	81.7827	41.0156	81.7663	41.0156	81.746	41.0156	81.7188	41.0156	81.6893	41.0156	81.6516	41.0156	81.6141	41.0156	81.5665	41.0156	81.5224	41.0156	81.4659	41.0156	81.4168	41.0156	81.3527	41.0156	81.3004	41.0156	81.2305	41.0156	81.1767	41.0156	81.1033	41.0156	81.0496	41.0156	80.9753	41.0156	80.9235	41.0156	80.8508	41.0156	80.8023	41.0156	80.734	41.0156	80.6899	41.0156	80.6285	41.0156	80.5899	41.0156	80.5373	41.0156	80.5051	41.0156	80.4629	41.0156	80.4379	41.0156	80.4071	41.0156	80.39	41.0156	80.3713	41.0156	80.3626	41.0156	80.3563
42.4805	82.3935	42.4805	82.3884	42.4805	82.3759	42.4805	82.3605	42.4805	82.3361	42.4805	82.3106	42.4805	82.2751	42.4805	82.2399	42.4805	82.1947	42.4805	82.1504	42.4805	82.097	42.4805	82.0445	42.4805	81.9848	42.4805	81.9254	42.4805	81.8617	42.4805	81.797	42.4805	81.7315	42.4805	81.6634	42.4805	81.5983	42.4805	81.5293	42.4805	81.4667	42.4805	81.3993	42.4805	81.341	42.4805	81.2776	42.4805	81.2252	42.4805	81.1681	42.4805	81.1227	42.4805	81.0738	42.4805	81.0365	42.4805	80.9973	42.4805	80.9686	42.4805	80.9401	42.4805	80.9206	42.4805	80.9033	42.4805	80.8935	42.4805	80.8877
43.9453	82.8457	43.9453	82.841	43.9453	82.8266	43.9453	82.8126	43.9453	82.7841	43.9453	82.7609	43.9453	82.7192	43.9453	82.687	43.9453	82.6333	43.9453	82.5928	43.9453	82.5287	43.9453	82.4805	43.9453	82.4078	43.9453	82.3531	43.9453	82.2741	43.9453	82.2143	43.9453	82.1314	43.9453	82.0684	43.9453	81.984	43.9453	81.9199	43.9453	81.8369	43.9453	81.7739	43.9453	81.6947	43.9453	81.6352	43.9453	81.5623	43.9453	81.5084	43.9453	81.4439	43.9453	81.3976	43.9453	81.3434	43.9453	81.3062	43.9453	81.2639	43.9453	81.2367	43.9453	81.2077	43.9453	81.1912	43.9453	81.1764	43.9453	81.1709
45.4102	83.2683	45.4102	83.2621	45.4102	83.2511	45.4102	83.2327	45.4102	83.2109	45.4102	83.1806	45.4102	83.1485	45.4102	83.1068	45.4102	83.0651	45.4102	83.0127	45.4102	82.9625	45.4102	82.9006	45.4102	82.8429	45.4102	82.7729	45.4102	82.7094	45.4102	82.633	45.4102	82.5655	45.4102	82.4847	45.4102	82.4152	45.4102	82.3323	45.4102	82.2631	45.4102	82.1806	45.4102	82.1139	45.4102	82.0346	45.4102	81.9726	45.4102	81.8992	45.4102	81.8441	45.4102	81.7793	45.4102	81.7328	45.4102	81.6793	45.4102	81.643	45.4102	81.603	45.4102	81.5781	45.4102	81.5534	45.4102	81.5406	45.4102	81.5323
46.875	83.5566	46.875	83.5548	46.875	83.5372	46.875	83.5318	46.875	83.4969	46.875	83.4882	46.875	83.4367	46.875	83.4253	46.875	83.3579	46.875	83.3445	46.875	83.2625	46.875	83.2481	46.875	83.1532	46.875	83.1386	46.875	83.033	46.875	83.0191	46.875	82.9056	46.875	82.8932	46.875	82.7748	46.875	82.7644	46.875	82.645	46.875	82.6368	46.875	82.5204	46.875	82.5144	46.875	82.4049	46.875	82.4009	46.875	82.3025	46.875	82.2999	46.875	82.2163	46.875	82.2148	46.875	82.1491	46.875	82.1483	46.875	82.1031	46.875	82.1027	46.875	82.0796	46.875	82.0795
48.3398	83.8685	48.3398	83.8628	48.3398	83.8543	48.3398	83.8374	48.3398	83.82	48.3398	83.7934	48.3398	83.7666	48.3398	83.7324	48.3398	83.6952	48.3398	83.6563	48.3398	83.608	48.3398	83.5676	48.3398	83.5077	48.3398	83.4692	48.3398	83.3976	48.3398	83.3643	48.3398	83.2815	48.3398	83.2562	48.3398	83.1637	48.3398	83.1482	48.3398	83.0484	48.3398	83.0435	48.3398	82.94	48.3398	82.9451	48.3398	82.8421	48.3398	82.8552	48.3398	82.7579	48.3398	82.7761	48.3398	82.6897	48.3398	82.7094	48.3398	82.6391	48.3398	82.6565	48.3398	82.6068	48.3398	82.6188	48.3398	82.593	48.3398	82.5973
51.2695	84.7108	51.2695	84.7031	51.2695	84.6952	51.2695	84.6725	51.2695	84.6566	51.2695	84.6201	51.2695	84.5961	51.2695	84.5481	51.2695	84.5159	51.2695	84.4591	51.2695	84.4186	51.2695	84.3567	51.2695	84.3076	51.2695	84.245	51.2695	84.1872	51.2695	84.1286	51.2695	84.0619	51.2695	84.012	51.2695	83.9369	51.2695	83.8996	51.2695	83.8171	51.2695	83.7952	51.2695	83.7073	51.2695	83.7016	51.2695	83.6114	51.2695	83.6204	51.2695	83.5324	51.2695	83.5524	51.2695	83.4718	51.2695	83.4971	51.2695	83.4298	51.2695	83.4542	51.2695	83.4057	51.2695	83.4231	51.2695	83.3976	51.2695	83.404
52.7344	85.0997	52.7344	85.0897	52.7344	85.0856	52.7344	85.0562	52.7344	85.0481	52.7344	85.0002	52.7344	84.9881	52.7344	84.9235	52.7344	84.9075	52.7344	84.8288	52.7344	84.8089	52.7344	84.7195	52.7344	84.6957	52.7344	84.5996	52.7344	84.5717	52.7344	84.4736	52.7344	84.4415	52.7344	84.3463	52.7344	84.3097	52.7344	84.2225	52.7344	84.1815	52.7344	84.1062	52.7344	84.0614	52.7344	84.001	52.7344	83.9536	52.7344	83.9092	52.7344	83.8614	52.7344	83.8321	52.7344	83.787	52.7344	83.7702	52.7344	83.7316	52.7344	83.7235	52.7344	83.6952	52.7344	83.6922	52.7344	83.6772	52.7344	83.6765
54.1992	85.4453	54.1992	85.4339	54.1992	85.4328	54.1992	85.399	54.1992	85.3969	54.1992	85.3417	54.1992	85.3388	54.1992	85.264	54.1992	85.2603	54.1992	85.1684	54.1992	85.1641	54.1992	85.0584	54.1992	85.0534	54.1992	84.9381	54.1992	84.9324	54.1992	84.812	54.1992	84.8053	54.1992	84.685	54.1992	84.6768	54.1992	84.5618	54.1992	84.5518	54.1992	84.4468	54.1992	84.4346	54.1992	84.3434	54.1992	84.329	54.1992	84.254	54.1992	84.2381	54.1992	84.1799	54.1992	84.1639	54.1992	84.1217	54.1992	84.1072	54.1992	84.0794	54.1992	84.0683	54.1992	84.0527	54.1992	84.0467	54.1992	84.0417
55.6641	85.7464	55.6641	85.7347	55.6641	85.7338	55.6641	85.6989	55.6641	85.6975	55.6641	85.6403	55.6641	85.6387	55.6641	85.5607	55.6641	85.5597	55.6641	85.4631	55.6641	85.4632	55.6641	85.3511	55.6641	85.353	55.6641	85.2291	55.6641	85.233	55.6641	85.1021	55.6641	85.108	55.6641	84.9754	55.6641	84.9828	55.6641	84.8539	55.6641	84.8622	55.6641	84.7422	55.6641	84.7504	55.6641	84.6437	55.6641	84.6509	55.6641	84.5608	55.6641	84.5663	55.6641	84.4943	55.6641	84.4979	55.6641	84.444	55.6641	84.446	55.6641	84.4092	55.6641	84.41	55.6641	84.3888	55.6641	84.389	55.6641	84.382
58.5938	86.4019	58.5938	86.3902	58.5938	86.388	58.5938	86.3532	58.5938	86.3492	58.5938	86.2919	58.5938	86.2871	58.5938	86.2083	58.5938	86.204	58.5938	86.1055	58.5938	86.103	58.5938	85.9873	58.5938	85.9881	58.5938	85.8585	58.5938	85.8638	58.5938	85.7245	58.5938	85.7352	58.5938	85.5912	58.5938	85.6074	58.5938	85.4643	58.5938	85.4855	58.5938	85.3487	58.5938	85.3738	58.5938	85.2485	58.5938	85.2756	58.5938	85.1661	58.5938	85.1931	58.5938	85.1023	58.5938	85.1269	58.5938	85.0563	58.5938	85.0767	58.5938	85.0267	58.5938	85.0412	58.5938	85.0115	58.5938	85.019	58.5938	85.0092
60.0586	86.71	60.0586	86.7014	60.0586	86.6923	60.0586	86.6667	60.0586	86.6491	60.0586	86.6071	60.0586	86.5819	60.0586	86.5247	60.0586	86.4932	60.0586	86.4225	60.0586	86.3864	60.0586	86.3044	60.0586	86.2656	60.0586	86.1754	60.0586	86.1359	60.0586	86.0409	60.0586	86.0027	60.0586	85.9067	60.0586	85.8715	60.0586	85.7786	60.0586	85.7476	60.0586	85.6618	60.0586	85.6358	60.0586	85.5602	60.0586	85.5394	60.0586	85.4761	60.0586	85.4603	60.0586	85.4103	60.0586	85.399	60.0586	85.362	60.0586	85.3544	60.0586	85.3295	60.0586	85.3248	60.0586	85.3106	60.0586	85.3084	60.0586	85.3038
62.9883	87.3183	62.9883	87.3118	62.9883	87.2953	62.9883	87.2765	62.9883	87.2431	62.9883	87.214	62.9883	87.1631	62.9883	87.1269	62.9883	87.0576	62.9883	87.0186	62.9883	86.93	62.9883	86.8935	62.9883	86.785	62.9883	86.7568	62.9883	86.6279	62.9883	86.6142	62.9883	86.4655	62.9883	86.4716	62.9883	86.3048	62.9883	86.3345	62.9883	86.1533	62.9883	86.2078	62.9883	86.0175	62.9883	86.0949	62.9883	85.9033	62.9883	85.9976	62.9883	85.814	62.9883	85.9159	62.9883	85.7512	62.9883	85.8488	62.9883	85.7136	62.9883	85.7947	62.9883	85.6985	62.9883	85.7521	62.9883	85.7021	62.9883	85.7209
64.4531	87.6461	64.4531	87.6274	64.4531	87.6353	64.4531	87.58	64.4531	87.5951	64.4531	87.5056	64.4531	87.5264	64.4531	87.4066	64.4531	87.431	64.4531	87.2865	64.4531	87.3118	64.4531	87.1498	64.4531	87.1726	64.4531	87.0015	64.4531	87.0182	64.4531	86.8477	64.4531	86.8544	64.4531	86.6945	64.4531	86.6879	64.4531	86.5478	64.4531	86.5255	64.4531	86.4129	64.4531	86.3743	64.4531	86.2935	64.4531	86.2405	64.4531	86.1918	64.4531	86.1289	64.4531	86.1082	64.4531	86.0424	64.4531	86.0417	64.4531	85.9816	64.4531	85.9912	64.4531	85.9452	64.4531	85.9556	64.4531	85.9306	64.4531	85.9349
67.3828	88.2511	67.3828	88.2309	67.3828	88.2434	67.3828	88.183	67.3828	88.2082	67.3828	88.1087	67.3828	88.1469	67.3828	88.0101	67.3828	88.0615	67.3828	87.8901	67.3828	87.955	67.3828	87.753	67.3828	87.8309	67.3828	87.6035	67.3828	87.6934	67.3828	87.4473	67.3828	87.5473	67.3828	87.2905	67.3828	87.3978	67.3828	87.1394	67.3828	87.25	67.3828	86.9998	67.3828	87.1092	67.3828	86.8765	67.3828	86.9797	67.3828	86.7729	67.3828	86.8653	67.3828	86.6908	67.3828	86.7686	67.3828	86.6308	67.3828	86.691	67.3828	86.5921	67.3828	86.6329	67.3828	86.5736	67.3828	86.5942	67.3828	86.5745
68.8477	88.4793	68.8477	88.4627	68.8477	88.4688	68.8477	88.4193	68.8477	88.4315	68.8477	88.3503	68.8477	88.369	68.8477	88.2583	68.8477	88.2837	68.8477	88.1465	68.8477	88.1788	68.8477	88.019	68.8477	88.0582	68.8477	87.881	68.8477	87.9264	68.8477	87.738	68.8477	87.7886	68.8477	87.5959	68.8477	87.6501	68.8477	87.4603	68.8477	87.5158	68.8477	87.3365	68.8477	87.3906	68.8477	87.2282	68.8477	87.2784	68.8477	87.1379	68.8477	87.1819	68.8477	87.0667	68.8477	87.1027	68.8477	87.0142	68.8477	87.0414	68.8477	86.9793	68.8477	86.9973	68.8477	86.9608	68.8477	86.9697	68.8477	86.9577
71.7773	88.8981	71.7773	88.8785	71.7773	88.8895	71.7773	88.8313	71.7773	88.8535	71.7773	88.7579	71.7773	88.7916	71.7773	88.6612	71.7773	88.7067	71.7773	88.545	71.7773	88.6024	71.7773	88.4144	71.7773	88.4834	71.7773	88.2752	71.7773	88.355	71.7773	88.134	71.7773	88.2228	71.7773	87.9975	71.7773	88.0927	71.7773	87.872	71.7773	87.9701	71.7773	87.7625	71.7773	87.8594	71.7773	87.6725	71.7773	87.7639	71.7773	87.6033	71.7773	87.6851	71.7773	87.5543	71.7773	87.6231	71.7773	87.523	71.7773	87.5763	71.7773	87.5066	71.7773	87.5428	71.7773	87.5018	71.7773	87.5201	71.7773	87.5066
74.707	89.2983	74.707	89.2807	74.707	89.2867	74.707	89.2343	74.707	89.2468	74.707	89.1609	74.707	89.1806	74.707	89.0632	74.707	89.0912	74.707	88.9456	74.707	88.9829	74.707	88.8135	74.707	88.8608	74.707	88.6733	74.707	88.7309	74.707	88.5323	74.707	88.5996	74.707	88.3977	74.707	88.4731	74.707	88.2762	74.707	88.3572	74.707	88.1732	74.707	88.2562	74.707	88.0918	74.707	88.1727	74.707	88.0328	74.707	88.1074	74.707	87.9945	74.707	88.059	74.707	87.9736	74.707	88.0247	74.707	87.9656	74.707	88.001	74.707	87.9665	74.707	87.9846	74.707	87.9733
77.6367	89.7028	77.6367	89.6889	77.6367	89.6857	77.6367	89.6442	77.6367	89.6389	77.6367	89.5704	77.6367	89.5647	77.6367	89.4703	77.6367	89.4668	77.6367	89.3487	77.6367	89.3502	77.6367	89.2114	77.6367	89.2206	77.6367	89.0656	77.6367	89.0849	77.6367	88.9194	77.6367	88.9502	77.6367	88.781	77.6367	88.8236	77.6367	88.658	77.6367	88.7111	77.6367	88.5563	77.6367	88.6171	77.6367	88.4793	77.6367	88.5439	77.6367	88.4274	77.6367	88.491	77.6367	88.3979	77.6367	88.4558	77.6367	88.3862	77.6367	88.4338	77.6367	88.3863	77.6367	88.4202	77.6367	88.3927	77.6367	88.4103	77.6367	88.4014
79.1016	89.9044	79.1016	89.8923	79.1016	89.8842	79.1016	89.8481	79.1016	89.833	79.1016	89.7733	79.1016	89.7535	79.1016	89.671	79.1016	89.6495	79.1016	89.546	79.1016	89.5262	79.1016	89.4045	79.1016	89.3901	79.1016	89.254	79.1016	89.2484	79.1016	89.103	79.1016	89.1089	79.1016	88.9604	79.1016	88.9791	79.1016	88.8343	79.1016	88.8657	79.1016	88.7309	79.1016	88.7732	79.1016	88.654	79.1016	88.7037	79.1016	88.6038	79.1016	88.6563	79.1016	88.5772	79.1016	88.6275	79.1016	88.569	79.1016	88.6119	79.1016	88.5724	79.1016	88.6036	79.1016	88.581	79.1016	88.5975	79.1016	88.5901
82.0312	90.358	82.0312	90.3492	82.0312	90.3308	82.0312	90.3047	82.0312	90.2687	82.0312	90.2266	82.0312	90.1742	82.0312	90.118	82.0312	90.0514	82.0312	89.9839	82.0312	89.9059	82.0312	89.8309	82.0312	89.7446	82.0312	89.6667	82.0312	89.576	82.0312	89.5002	82.0312	89.4092	82.0312	89.3406	82.0312	89.2535	82.0312	89.1966	82.0312	89.1173	82.0312	89.0752	82.0312	89.0066	82.0312	88.9806	82.0312	88.9247	82.0312	88.9137	82.0312	88.871	82.0312	88.8718	82.0312	88.8416	82.0312	88.8497	82.0312	88.83	82.0312	88.8405	82.0312	88.8291	82.0312	88.8374	82.0312	88.8323	82.0312	88.8355
84.9609	90.7083	84.9609	90.6943	84.9609	90.6836	84.9609	90.6427	84.9609	90.621	84.9609	90.5559	84.9609	90.5227	84.9609	90.4381	84.9609	90.3925	84.9609	90.2949	84.9609	90.236	84.9609	90.1334	84.9609	90.0604	84.9609	89.962	84.9609	89.8744	84.9609	89.79	84.9609	89.6879	84.9609	89.6267	84.9609	89.5111	84.9609	89.4803	84.9609	89.3536	84.9609	89.3569	84.9609	89.2234	84.9609	89.2596	84.9609	89.1252	84.9609	89.1882	84.9609	89.0601	84.9609	89.1391	84.9609	89.0249	84.9609	89.1067	84.9609	89.0137	84.9609	89.0844	84.9609	89.0188	84.9609	89.0665	84.9609	89.0326	84.9609	89.0494
87.8906	91.2323	87.8906	91.2053	87.8906	91.2205	87.8906	91.1402	87.8906	91.1708	87.8906	91.0395	87.8906	91.086	87.8906	90.9079	87.8906	90.9703	87.8906	90.7517	87.8906	90.8299	87.8906	90.5794	87.8906	90.6723	87.8906	90.4009	87.8906	90.5061	87.8906	90.2273	87.8906	90.3407	87.8906	90.0694	87.8906	90.1854	87.8906	89.9365	87.8906	90.0484	87.8906	89.8349	87.8906	89.9358	87.8906	89.7663	87.8906	89.8509	87.8906	89.7282	87.8906	89.7935	87.8906	89.7141	87.8906	89.76	87.8906	89.7156	87.8906	89.7447	87.8906	89.7242	87.8906	89.7403	87.8906	89.7332	87.8906	89.7401	87.8906	89.7387
90.8203	91.7372	90.8203	91.7187	90.8203	91.7148	90.8203	91.6593	90.8203	91.6531	90.8203	91.5611	90.8203	91.5554	90.8203	91.4282	90.8203	91.4268	90.8203	91.2669	90.8203	91.2745	90.8203	91.086	90.8203	91.1072	90.8203	90.8966	90.8203	90.9352	90.8203	90.7116	90.8203	90.77	90.8203	90.5447	90.8203	90.6227	90.8203	90.4081	90.8203	90.5031	90.8203	90.3111	90.8203	90.4172	90.8203	90.2571	90.8203	90.3668	90.8203	90.2432	90.8203	90.3482	90.8203	90.2608	90.8203	90.3535	90.8203	90.2974	90.8203	90.3716	90.8203	90.3395	90.8203	90.391	90.8203	90.3755	90.8203	90.4017	90.8203	90.3972
95.2148	92.1607	95.2148	92.1457	95.2148	92.1318	95.2148	92.0872	95.2148	92.0602	95.2148	91.987	95.2148	91.9488	95.2148	91.8492	95.2148	91.8024	95.2148	91.6797	95.2148	91.6276	95.2148	91.4868	95.2148	91.4332	95.2148	91.2809	95.2148	91.2299	95.2148	91.0748	95.2148	91.0303	95.2148	90.8822	95.2148	90.8475	95.2148	90.7163	95.2148	90.6934	95.2148	90.5877	95.2148	90.5771	95.2148	90.5021	95.2148	90.5027	95.2148	90.4589	95.2148	90.4678	95.2148	90.4511	95.2148	90.4646	95.2148	90.4667	95.2148	90.481	95.2148	90.4921	95.2148	90.5038	95.2148	90.5148	95.2148	90.5213	95.2148	90.5257
98.1445	92.3225	98.1445	92.3086	98.1445	92.2898	98.1445	92.2489	98.1445	92.2118	98.1445	92.1455	98.1445	92.0911	98.1445	92.003	98.1445	91.9328	98.1445	91.8278	98.1445	91.7438	98.1445	91.6287	98.1445	91.5333	98.1445	91.4169	98.1445	91.3132	98.1445	91.2059	98.1445	91.0972	98.1445	91.0097	98.1445	90.9	98.1445	90.8421	98.1445	90.7354	98.1445	90.7136	98.1445	90.6139	98.1445	90.6293	98.1445	90.5401	98.1445	90.5878	98.1445	90.5119	98.1445	90.581	98.1445	90.5199	98.1445	90.596	98.1445	90.5505	98.1445	90.6184	98.1445	90.5883	98.1445	90.635	98.1445	90.62	98.1445	90.6366
101.074	92.5004	101.074	92.4785	101.074	92.4725	101.074	92.4079	101.074	92.3958	101.074	92.2912	101.074	92.2725	101.074	92.1334	101.074	92.1074	101.074	91.9416	101.074	91.9072	101.074	91.7255	101.074	91.681	101.074	91.4976	101.074	91.4411	101.074	91.2725	101.074	91.2021	101.074	91.066	101.074	90.9802	101.074	90.8928	101.074	90.7917	101.074	90.7636	101.074	90.6497	101.074	90.6832	101.074	90.5616	101.074	90.648	101.074	90.5266	101.074	90.6476	101.074	90.5355	101.074	90.6669	101.074	90.5734	101.074	90.6898	101.074	90.6227	101.074	90.7022	101.074	90.6672	101.074	90.6953
105.469	92.8584	105.469	92.818	105.469	92.8469	105.469	92.7257	105.469	92.7847	105.469	92.5832	105.469	92.6744	105.469	92.3941	105.469	92.5202	105.469	92.164	105.469	92.3278	105.469	91.9018	105.469	92.1048	105.469	91.6197	105.469	91.8612	105.469	91.3337	105.469	91.609	105.469	91.0624	105.469	91.362	105.469	90.8255	105.469	91.135	105.469	90.6401	105.469	90.9416	105.469	90.5162	105.469	90.7916	105.469	90.4543	105.469	90.6889	105.469	90.4444	105.469	90.6298	105.469	90.4697	105.469	90.6038	105.469	90.5105	105.469	90.596	105.469	90.55	105.469	90.5913	105.469	90.5778
108.398	92.9369	108.398	92.9101	108.398	92.9142	108.398	92.8336	108.398	92.8444	108.398	92.7084	108.398	92.7308	108.398	92.5376	108.398	92.5789	108.398	92.3267	108.398	92.3954	108.398	92.0837	108.398	92.189	108.398	91.8197	108.398	91.9701	108.398	91.5493	108.398	91.75	108.398	91.2897	108.398	91.5409	108.398	91.0591	108.398	91.3541	108.398	90.8741	108.398	91.1985	108.398	90.7459	108.398	91.0792	108.398	90.6772	108.398	90.9959	108.398	90.6617	108.398	90.943	108.398	90.6853	108.398	90.9107	108.398	90.7309	108.398	90.8875	108.398	90.7822	108.398	90.8622	108.398	90.8277
112.793	92.822	112.793	92.8131	112.793	92.7766	112.793	92.7493	112.793	92.6796	112.793	92.6321	112.793	92.536	112.793	92.4654	112.793	92.353	112.793	92.256	112.793	92.1405	112.793	92.0136	112.793	91.9109	112.793	91.7518	112.793	91.6792	112.793	91.4876	112.793	91.4618	112.793	91.2407	112.793	91.2745	112.793	91.0316	112.793	91.1304	112.793	90.8772	112.793	91.0366	112.793	90.7877	112.793	90.9924	112.793	90.7628	112.793	90.9895	112.793	90.7915	112.793	91.0134	112.793	90.8554	112.793	91.0466	112.793	90.933	112.793	91.0725	112.793	91.0044	112.793	91.0778	112.793	91.0552
117.188	92.7834	117.188	92.7953	117.188	92.7077	117.188	92.7431	117.188	92.5702	117.188	92.6287	117.188	92.3753	117.188	92.4557	117.188	92.1302	117.188	92.2305	117.188	91.8458	117.188	91.9628	117.188	91.5375	117.188	91.6659	117.188	91.2253	117.188	91.3577	117.188	90.9338	117.188	91.0602	117.188	90.6883	117.188	90.7976	117.188	90.5108	117.188	90.5928	117.188	90.413	117.188	90.4616	117.188	90.393	117.188	90.4082	117.188	90.4345	117.188	90.423	117.188	90.512	117.188	90.4848	117.188	90.5973	117.188	90.5667	117.188	90.6654	117.188	90.6423	117.188	90.6991	117.188	90.6905
120.117	93.2063	120.117	93.218	120.117	93.1266	120.117	93.1633	120.117	92.9786	120.117	93.0449	120.117	92.7636	120.117	92.8674	120.117	92.4853	120.117	92.6372	120.117	92.1504	120.117	92.3631	120.117	91.7704	120.117	92.0574	120.117	91.3632	120.117	91.7355	120.117	90.9537	120.117	91.4161	120.117	90.5738	120.117	91.1196	120.117	90.2577	120.117	90.8653	120.117	90.035	120.117	90.6675	120.117	89.9199	120.117	90.5319	120.117	89.9062	120.117	90.4532	120.117	89.9691	120.117	90.4167	120.117	90.0737	120.117	90.4012	120.117	90.1865	120.117	90.3846	120.117	90.2824	120.117	90.3485
124.512	93.8278	124.512	93.8	124.512	93.7925	124.512	93.7105	124.512	93.6942	124.512	93.5624	124.512	93.5348	124.512	93.3613	124.512	93.3183	124.512	93.1152	124.512	93.051	124.512	92.8357	124.512	92.743	124.512	92.5384	124.512	92.4084	124.512	92.2423	124.512	92.0667	124.512	91.9693	124.512	91.7418	124.512	91.7402	124.512	91.4602	124.512	91.5707	124.512	91.2464	124.512	91.4668	124.512	91.1161	124.512	91.4226	124.512	91.0711	124.512	91.4216	124.512	91.0985	124.512	91.4416	124.512	91.1738	124.512	91.4597	124.512	91.269	124.512	91.4575	124.512	91.3586	124.512	91.4243
128.906	93.7402	128.906	93.7163	128.906	93.6947	128.906	93.6232	128.906	93.5808	128.906	93.4631	128.906	93.4013	128.906	93.2404	128.906	93.1608	128.906	92.9632	128.906	92.867	128.906	92.6438	128.906	92.5315	128.906	92.3009	128.906	92.1717	128.906	91.9596	128.906	91.8118	128.906	91.6504	128.906	91.4824	128.906	91.4048	128.906	91.2168	128.906	91.2475	128.906	91.0434	128.906	91.1877	128.906	90.9766	128.906	91.2152	128.906	91.0099	128.906	91.3025	128.906	91.1175	128.906	91.4134	128.906	91.2622	128.906	91.5125	128.906	91.4058	128.906	91.572	128.906	91.5169	128.906	91.575
133.301	93.8015	133.301	93.7801	133.301	93.7505	133.301	93.6858	133.301	93.6277	133.301	93.519	133.301	93.4346	133.301	93.2813	133.301	93.1734	133.301	92.9767	133.301	92.8481	133.301	92.6128	133.301	92.4661	133.301	92.2031	133.301	92.0398	133.301	91.7694	133.301	91.5896	133.301	91.343	133.301	91.1457	133.301	90.963	133.301	90.7475	133.301	90.6696	133.301	90.4378	133.301	90.4912	133.301	90.2504	133.301	90.4322	133.301	90.1957	133.301	90.469	133.301	90.2537	133.301	90.5588	133.301	90.3815	133.301	90.6538	133.301	90.5281	133.301	90.7142	133.301	90.6491	133.301	90.7149
139.16	93.5101	139.16	93.4867	139.16	93.4677	139.16	93.397	139.16	93.3606	139.16	93.2416	139.16	93.1907	139.16	93.0218	139.16	92.9611	139.16	92.7408	139.16	92.6762	139.16	92.4043	139.16	92.3432	139.16	92.0222	139.16	91.9725	139.16	91.6101	139.16	91.5795	139.16	91.1911	139.16	91.1854	139.16	90.7958	139.16	90.8167	139.16	90.4583	139.16	90.5027	139.16	90.2087	139.16	90.2684	139.16	90.0623	139.16	90.1264	139.16	90.0124	139.16	90.0708	139.16	90.0324	139.16	90.0783	139.16	90.0854	139.16	90.1159	139.16	90.1361	139.16	90.1511	139.16	90.1607
143.555	93.3166	143.555	93.3033	143.555	93.2581	143.555	93.2185	143.555	93.1284	143.555	93.0636	143.555	92.9295	143.555	92.8412	143.555	92.6648	143.555	92.5558	143.555	92.3402	143.555	92.2146	143.555	91.965	143.555	91.8286	143.555	91.5535	143.555	91.414	143.555	91.1262	143.555	90.9938	143.555	90.7107	143.555	90.5969	143.555	90.3392	143.555	90.2554	143.555	90.0436	143.555	89.9976	143.555	89.846	143.555	89.8388	143.555	89.7503	143.555	89.7748	143.555	89.7397	143.555	89.7824	143.555	89.7821	143.555	89.8271	143.555	89.8411	143.555	89.8745	143.555	89.886	143.555	89.8982
147.949	93.6207	147.949	93.6037	147.949	93.5628	147.949	93.513	147.949	93.4301	147.949	93.3507	147.949	93.2235	147.949	93.1205	147.949	92.9458	147.949	92.8288	147.949	92.6022	147.949	92.4852	147.949	92.2021	147.949	92.1044	147.949	91.7609	147.949	91.7065	147.949	91.3023	147.949	91.3173	147.949	90.8588	147.949	90.966	147.949	90.4699	147.949	90.68	147.949	90.1739	147.949	90.4778	147.949	89.9961	147.949	90.3629	147.949	89.9383	147.949	90.322	147.949	89.9775	147.949	90.3289	147.949	90.0744	147.949	90.3527	147.949	90.1877	147.949	90.3649	147.949	90.2844	147.949	90.3451
153.809	94.0206	153.809	93.9918	153.809	93.9697	153.809	93.8835	153.809	93.8388	153.809	93.6961	153.809	93.6277	153.809	93.4311	153.809	93.3364	153.809	93.0924	153.809	92.9668	153.809	92.6881	153.809	92.524	153.809	92.2338	153.809	92.0205	153.809	91.7558	153.809	91.4803	153.809	91.2933	153.809	90.9434	153.809	90.8963	153.809	90.4676	153.809	90.6144	153.809	90.1186	153.809	90.4784	153.809	89.9473	153.809	90.4842	153.809	89.9637	153.809	90.5918	153.809	90.1281	153.809	90.7418	153.809	90.3706	153.809	90.8752	153.809	90.6186	153.809	90.9468	153.809	90.8162	153.809	90.9297
159.668	93.6953	159.668	93.6664	159.668	93.6587	159.668	93.572	159.668	93.5554	159.668	93.4111	159.668	93.3829	159.668	93.1819	159.668	93.138	159.668	92.8823	159.668	92.8169	159.668	92.5114	159.668	92.4167	159.668	92.0712	159.668	91.9369	159.668	91.5701	159.668	91.3833	159.668	91.0268	159.668	90.7729	159.668	90.4739	159.668	90.1404	159.668	89.9589	159.668	89.5422	159.668	89.5361	159.668	89.0507	159.668	89.2478	159.668	88.7318	159.668	89.1025	159.668	88.6109	159.668	89.0678	159.668	88.655	159.668	89.0843	159.668	88.7907	159.668	89.0914	159.668	88.9398	159.668	89.0473
165.527	93.1744	165.527	93.1453	165.527	93.1326	165.527	93.0459	165.527	93.0193	165.527	92.8777	165.527	92.8345	165.527	92.6431	165.527	92.5787	165.527	92.3462	165.527	92.2531	165.527	91.9934	165.527	91.8613	165.527	91.5953	165.527	91.411	165.527	91.168	165.527	90.9176	165.527	90.7353	165.527	90.4076	165.527	90.3286	165.527	89.9209	165.527	89.9831	165.527	89.5076	165.527	89.7292	165.527	89.2159	165.527	89.5805	165.527	89.0732	165.527	89.5265	165.527	89.0709	165.527	89.5347	165.527	89.1679	165.527	89.5626	165.527	89.3083	165.527	89.5708	165.527	89.4413	165.527	89.533
171.387	93.7962	171.387	93.7079	171.387	93.8148	171.387	93.5517	171.387	93.7617	171.387	93.3289	171.387	93.6334	171.387	93.041	171.387	93.426	171.387	92.6915	171.387	93.1349	171.387	92.2869	171.387	92.756	171.387	91.8393	171.387	92.2877	171.387	91.3685	171.387	91.7335	171.387	90.9029	171.387	91.1077	171.387	90.4769	171.387	90.4414	171.387	90.1237	171.387	89.7883	171.387	89.8641	171.387	89.2232	171.387	89.697	171.387	88.8234	171.387	89.5989	171.387	88.6345	171.387	89.5324	171.387	88.6437	171.387	89.4589	171.387	88.7886	171.387	89.3491	171.387	88.9916	171.387	89.1903
177.246	93.3873	177.246	93.3027	177.246	93.4062	177.246	93.148	177.246	93.3631	177.246	92.9187	177.246	93.2605	177.246	92.6106	177.246	93.1	177.246	92.2215	177.246	92.8818	177.246	91.7535	177.246	92.606	177.246	91.2174	177.246	92.2741	177.246	90.6392	177.246	91.8922	177.246	90.0672	177.246	91.4739	177.246	89.573	177.246	91.0445	177.246	89.2371	177.246	90.6411	177.246	89.1132	177.246	90.308	177.246	89.1931	177.246	90.0828	177.246	89.4089	177.246	89.9794	177.246	89.6699	177.246	89.9795	177.246	89.8998	177.246	90.0379	177.246	90.0533	177.246	90.0997	177.246	90.116
183.105	93.1323	183.105	93.0961	183.105	93.1065	183.105	92.9962	183.105	93.0199	183.105	92.8305	183.105	92.8729	183.105	92.596	183.105	92.6655	183.105	92.2897	183.105	92.3971	183.105	91.9095	183.105	92.0677	183.105	91.4564	183.105	91.679	183.105	90.939	183.105	91.2386	183.105	90.3798	183.105	90.7638	183.105	89.8215	183.105	90.2863	183.105	89.3288	183.105	89.8523	183.105	88.9754	183.105	89.5147	183.105	88.8122	183.105	89.3125	183.105	88.8355	183.105	89.2499	183.105	88.9857	183.105	89.2906	183.105	89.1787	183.105	89.3729	183.105	89.3415	183.105	89.4346	183.105	89.4305
188.965	93.2594	188.965	93.2141	188.965	93.2316	188.965	93.0923	188.965	93.1346	188.965	92.8906	188.965	92.9716	188.965	92.6066	188.965	92.7454	188.965	92.2398	188.965	92.4583	188.965	91.7934	188.965	92.1124	188.965	91.2778	188.965	91.7124	188.965	90.7166	188.965	91.2686	188.965	90.152	188.965	90.8018	188.965	89.6485	188.965	90.3481	188.965	89.282	188.965	89.9578	188.965	89.1112	188.965	89.6844	188.965	89.1431	188.965	89.5616	188.965	89.325	188.965	89.5837	188.965	89.5716	188.965	89.7042	188.965	89.8021	188.965	89.8562	188.965	89.9603	188.965	89.9763	188.965	90.0187
196.289	93.0929	196.289	93.0727	196.289	93.0467	196.289	92.984	196.289	92.9358	196.289	92.8243	196.289	92.7617	196.289	92.5904	196.289	92.5257	196.289	92.2781	196.289	92.2282	196.289	91.8835	196.289	91.8695	196.289	91.4049	196.289	91.4514	196.289	90.8487	196.289	90.9809	196.289	90.2367	196.289	90.4761	196.289	89.6177	196.289	89.9731	196.289	89.0719	196.289	89.5283	196.289	88.6977	196.289	89.2079	196.289	88.5649	196.289	89.0597	196.289	88.6651	196.289	89.0821	196.289	88.9118	196.289	89.2191	196.289	89.1913	196.289	89.3862	196.289	89.4116	196.289	89.5045	196.289	89.5203
203.613	92.826	203.613	92.7815	203.613	92.7881	203.613	92.652	203.613	92.6699	203.613	92.4354	203.613	92.4732	203.613	92.1299	203.613	92.1988	203.613	91.7346	203.613	91.8462	203.613	91.2506	203.613	91.4146	203.613	90.6847	203.613	90.9058	203.613	90.0553	203.613	90.3298	203.613	89.4028	203.613	89.7143	203.613	88.8002	203.613	89.1162	203.613	88.3504	203.613	88.6243	203.613	88.1514	203.613	88.3386	203.613	88.2328	203.613	88.3158	203.613	88.5266	203.613	88.5243	203.613	88.9065	203.613	88.8586	203.613	89.2516	203.613	89.197	203.613	89.479	203.613	89.4451	203.613	89.5464
210.938	93.3107	210.938	93.2617	210.938	93.2807	210.938	93.127	210.938	93.1764	210.938	92.8988	210.938	93.0005	210.938	92.5679	210.938	92.7523	210.938	92.1244	210.938	92.4278	210.938	91.5587	210.938	92.0193	210.938	90.8652	210.938	91.5177	210.938	90.0509	210.938	90.9167	210.938	89.1511	210.938	90.2223	210.938	88.2561	210.938	89.4677	210.938	87.5304	210.938	88.7318	210.938	87.1687	210.938	88.1457	210.938	87.2569	210.938	87.8497	210.938	87.6792	210.938	87.8963	210.938	88.2151	210.938	88.1954	210.938	88.6795	210.938	88.578	210.938	88.9669	210.938	88.8908	210.938	89.0359
218.262	93.1637	218.262	93.168	218.262	93.1045	218.262	93.1104	218.262	92.9968	218.262	92.9821	218.262	92.8453	218.262	92.7725	218.262	92.6521	218.262	92.4677	218.262	92.415	218.262	92.0507	218.262	92.1264	218.262	91.502	218.262	91.7732	218.262	90.802	218.262	91.3395	218.262	89.9379	218.262	90.8108	218.262	88.9183	218.262	90.1832	218.262	87.8024	218.262	89.4744	218.262	86.7415	218.262	88.7371	218.262	85.9846	218.262	88.0637	218.262	85.7388	218.262	87.5602	218.262	85.9586	218.262	87.2832	218.262	86.3884	218.262	87.1878	218.262	86.7888	218.262	87.1511	218.262	87.0442
225.586	92.6466	225.586	92.6908	225.586	92.5418	225.586	92.6683	225.586	92.3851	225.586	92.5737	225.586	92.1877	225.586	92.4015	225.586	91.9625	225.586	92.1445	225.586	91.7215	225.586	91.7937	225.586	91.4733	225.586	91.3402	225.586	91.2215	225.586	90.7796	225.586	90.9661	225.586	90.1213	225.586	90.7073	225.586	89.4035	225.586	90.4509	225.586	88.7105	225.586	90.2116	225.586	88.175	225.586	90.0118	225.586	87.9314	225.586	89.8714	225.586	88.0223	225.586	89.7949	225.586	88.3582	225.586	89.7619	225.586	88.7862	225.586	89.73	225.586	89.1799	225.586	89.648	225.586	89.472
232.91	92.4497	232.91	92.5536	232.91	92.2421	232.91	92.5538	232.91	91.9328	232.91	92.4515	232.91	91.5272	232.91	92.2466	232.91	91.0345	232.91	91.9367	232.91	90.4695	232.91	91.5151	232.91	89.8547	232.91	90.9717	232.91	89.2254	232.91	90.2967	232.91	88.6373	232.91	89.4936	232.91	88.1713	232.91	88.6061	232.91	87.9232	232.91	87.7626	232.91	87.9629	232.91	87.2001	232.91	88.2827	232.91	87.1574	232.91	88.7881	232.91	87.6427	232.91	89.3452	232.91	88.409	232.91	89.833	232.91	89.1806	232.91	90.1646	232.91	89.7895	232.91	90.2852	232.91	90.1637
241.699	94.0258	241.699	94.0714	241.699	93.8927	241.699	94.0246	241.699	93.6748	241.699	93.8769	241.699	93.3714	241.699	93.6158	241.699	92.9782	241.699	93.2237	241.699	92.4858	241.699	92.6767	241.699	91.8786	241.699	91.9443	241.699	91.1347	241.699	90.9903	241.699	90.2293	241.699	89.7797	241.699	89.146	241.699	88.303	241.699	87.9081	241.699	86.6521	241.699	86.6474	241.699	85.1913	241.699	85.6895	241.699	84.6012	241.699	85.4446	241.699	85.1506	241.699	85.9558	241.699	86.2422	241.699	86.8107	241.699	87.2589	241.699	87.5954	241.699	87.9404	241.699	88.0938	241.699	88.2191
250.488	93.0717	250.488	93.1039	250.488	92.936	250.488	93.0436	250.488	92.6875	250.488	92.903	250.488	92.3198	250.488	92.6937	250.488	91.8286	250.488	92.4231	250.488	91.2115	250.488	92.0909	250.488	90.4671	250.488	91.685	250.488	89.5936	250.488	91.1783	250.488	88.5897	250.488	90.5292	250.488	87.4612	250.488	89.6851	250.488	86.2415	250.488	88.5921	250.488	85.0356	250.488	87.219	250.488	84.0681	250.488	85.6208	250.488	83.6172	250.488	84.0765	250.488	83.7479	250.488	83.1623	250.488	84.1907	250.488	83.2313	250.488	84.5893	250.488	83.86	250.488	84.7072	250.488	84.4482
259.277	94.1727	259.277	94.1462	259.277	94.1164	259.277	94.0342	259.277	93.975	259.277	93.8292	259.277	93.741	259.277	93.5195	259.277	93.402	259.277	93.0906	259.277	92.9406	259.277	92.5264	259.277	92.3354	259.277	91.8137	259.277	91.5629	259.277	90.9475	259.277	90.6021	259.277	89.9427	259.277	89.445	259.277	88.8541	259.277	88.1224	259.277	87.8005	259.277	86.7549	259.277	86.9663	259.277	85.615	259.277	86.5224	259.277	85.0598	259.277	86.4901	259.277	85.2046	259.277	86.716	259.277	85.7734	259.277	86.9945	259.277	86.4074	259.277	87.1692	259.277	86.8928	259.277	87.1489
268.066	94.529	268.066	94.511	268.066	94.5177	268.066	94.4686	268.066	94.4688	268.066	94.4009	268.066	94.3711	268.066	94.2984	268.066	94.2105	268.066	94.1422	268.066	93.968	268.066	93.9043	268.066	93.6181	268.066	93.5495	268.066	93.1286	268.066	93.0388	268.066	92.4607	268.066	92.3322	268.066	91.571	268.066	91.3934	268.066	90.4169	268.066	90.2002	268.066	88.9708	268.066	88.7688	268.066	87.26	268.066	87.206	268.066	85.4645	268.066	85.7767	268.066	84.0407	268.066	84.8439	268.066	83.5006	268.066	84.5279	268.066	83.7451	268.066	84.5348	268.066	84.2027	268.066	84.4883
276.855	93.159	276.855	93.131	276.855	93.1439	276.855	93.0629	276.855	93.0847	276.855	92.9585	276.855	92.9818	276.855	92.8187	276.855	92.8338	276.855	92.6382	276.855	92.6328	276.855	92.4041	276.855	92.3619	276.855	92.0967	276.855	91.995	276.855	91.6936	276.855	91.5009	276.855	91.1759	276.855	90.853	276.855	90.539	276.855	90.0444	276.855	89.8087	276.855	89.1145	276.855	89.0605	276.855	88.185	276.855	88.4243	276.855	87.4691	276.855	88.0369	276.855	87.1696	276.855	87.9405	276.855	87.2931	276.855	88.0342	276.855	87.6352	276.855	88.1484	276.855	87.9646	276.855	88.1456
287.109	92.1412	287.109	92.0257	287.109	92.2017	287.109	91.8797	287.109	92.1906	287.109	91.7305	287.109	92.0982	287.109	91.5977	287.109	91.9188	287.109	91.4809	287.109	91.6454	287.109	91.3526	287.109	91.2647	287.109	91.1628	287.109	90.7532	287.109	90.8516	287.109	90.0752	287.109	90.3651	287.109	89.1868	287.109	89.6706	287.109	88.05	287.109	88.78	287.109	86.6778	287.109	87.7881	287.109	85.248	287.109	86.9119	287.109	84.2551	287.109	86.4304	287.109	84.2493	287.109	86.4479	287.109	85.0601	287.109	86.7585	287.109	86.0321	287.109	87.0454	287.109	86.7483	287.109	87.0802
297.363	93.2158	297.363	93.128	297.363	93.2483	297.363	92.9698	297.363	93.2414	297.363	92.73	297.363	93.2051	297.363	92.4023	297.363	93.1373	297.363	91.9834	297.363	93.0186	297.363	91.4688	297.363	92.8123	297.363	90.8474	297.363	92.4692	297.363	90.0965	297.363	91.9327	297.363	89.1841	297.363	91.144	297.363	88.0857	297.363	90.0446	297.363	86.8317	297.363	88.5819	297.363	85.5996	297.363	86.7356	297.363	84.7699	297.363	84.625	297.363	84.6551	297.363	82.8048	297.363	85.0582	297.363	82.2956	297.363	85.4869	297.363	83.1581	297.363	85.5906	297.363	84.3488	297.363	85.2173
307.617	91.5843	307.617	91.6287	307.617	91.5137	307.617	91.639	307.617	91.4375	307.617	91.6152	307.617	91.3859	307.617	91.558	307.617	91.3857	307.617	91.4601	307.617	91.4411	307.617	91.3004	307.617	91.5194	307.617	91.0416	307.617	91.5539	307.617	90.6314	307.617	91.4591	307.617	90.0066	307.617	91.1489	307.617	89.0992	307.617	90.5465	307.617	87.8507	307.617	89.5924	307.617	86.2487	307.617	88.2605	307.617	84.4308	307.617	86.6074	307.617	82.8738	307.617	84.887	307.617	82.2595	307.617	83.6236	307.617	82.5707	307.617	83.2004	307.617	83.0994	307.617	83.3038	307.617	83.3655
319.336	89.9729	319.336	90.0138	319.336	89.8651	319.336	90.0066	319.336	89.6969	319.336	89.9858	319.336	89.5041	319.336	89.9854	319.336	89.3452	319.336	90.0186	319.336	89.2783	319.336	90.0642	319.336	89.3256	319.336	90.0669	319.336	89.4488	319.336	89.9518	319.336	89.5592	319.336	89.6408	319.336	89.5512	319.336	89.0666	319.336	89.3322	319.336	88.1857	319.336	88.8387	319.336	87.006	319.336	88.0507	319.336	85.6474	319.336	87.0189	319.336	84.4205	319.336	85.9063	319.336	83.736	319.336	84.9846	319.336	83.6897	319.336	84.4653	319.336	83.9436	319.336	84.2787	319.336	84.1633
329.59	91.5814	329.59	91.5654	329.59	91.4802	329.59	91.4409	329.59	91.269	329.59	91.2313	329.59	90.9707	329.59	90.9704	329.59	90.6223	329.59	90.6935	329.59	90.2666	329.59	90.4225	329.59	89.936	329.59	90.151	329.59	89.6337	329.59	89.8389	329.59	89.3238	329.59	89.4197	329.59	88.9412	329.59	88.819	329.59	88.4153	329.59	87.9811	329.59	87.6987	329.59	86.9119	329.59	86.8048	329.59	85.7517	329.59	85.8587	329.59	84.8335	329.59	85.1195	329.59	84.506	329.59	84.8343	329.59	84.7229	329.59	84.9641	329.59	85.0901	329.59	85.2071	329.59	85.2844
341.309	91.2231	341.309	91.2466	341.309	91.0736	341.309	91.1579	341.309	90.8123	341.309	90.9972	341.309	90.4843	341.309	90.8253	341.309	90.164	341.309	90.7062	341.309	89.9387	341.309	90.6754	341.309	89.869	341.309	90.7135	341.309	89.9472	341.309	90.7463	341.309	90.0943	341.309	90.6725	341.309	90.199	341.309	90.3956	341.309	90.1603	341.309	89.8488	341.309	89.9121	341.309	89.0219	341.309	89.4366	341.309	88.0054	341.309	88.7806	341.309	87.0395	341.309	88.0694	341.309	86.4487	341.309	87.4775	341.309	86.3581	341.309	87.1174	341.309	86.5582	341.309	86.9369	341.309	86.7812
353.027	93.3318	353.027	93.3744	353.027	93.1	353.027	93.2357	353.027	92.6782	353.027	92.9323	353.027	92.077	353.027	92.4929	353.027	91.3255	353.027	91.9622	353.027	90.4816	353.027	91.3991	353.027	89.6372	353.027	90.8613	353.027	88.9024	353.027	90.3772	353.027	88.3602	353.027	89.9256	353.027	88.0218	353.027	89.4508	353.027	87.8361	353.027	88.9181	353.027	87.7558	353.027	88.3895	353.027	87.7947	353.027	88.0645	353.027	88.0205	353.027	88.1659	353.027	88.4697	353.027	88.6838	353.027	89.0653	353.027	89.3502	353.027	89.6409	353.027	89.8829	353.027	90.0302	353.027	90.124
366.211	93.5521	366.211	93.4553	366.211	93.4922	366.211	93.2151	366.211	93.269	366.211	92.8543	366.211	92.8844	366.211	92.4092	366.211	92.3526	366.211	91.9314	366.211	91.7034	366.211	91.4784	366.211	90.9807	366.211	91.0896	366.211	90.228	366.211	90.7527	366.211	89.4629	366.211	90.39	366.211	88.6546	366.211	89.8758	366.211	87.7272	366.211	89.0755	366.211	86.6004	366.211	87.8908	366.211	85.279	366.211	86.3447	366.211	84.0195	366.211	84.781	366.211	83.417	366.211	83.9836	366.211	83.8036	366.211	84.3078	366.211	84.6556	366.211	85.0314	366.211	85.3079	366.211	85.4466
379.395	92.6993	379.395	92.6532	379.395	92.6346	379.395	92.5035	379.395	92.4612	379.395	92.2653	379.395	92.1912	379.395	91.9575	379.395	91.8452	379.395	91.5961	379.395	91.4466	379.395	91.1851	379.395	91.0086	379.395	90.7092	379.395	90.5178	379.395	90.1326	379.395	89.9245	379.395	89.405	379.395	89.1482	379.395	88.4818	379.395	88.1007	379.395	87.3689	379.395	86.7413	379.395	86.2145	379.395	85.2171	379.395	85.4049	379.395	84.1089	379.395	85.3577	379.395	84.1761	379.395	85.981	379.395	85.2052	379.395	86.7681	379.395	86.3514	379.395	87.3246	379.395	87.1487	379.395	87.4728
392.578	93.3958	392.578	93.3389	392.578	93.2938	392.578	93.1313	392.578	93.0341	392.578	92.7922	392.578	92.6305	392.578	92.3562	392.578	92.116	392.578	91.875	392.578	91.5481	392.578	91.4066	392.578	90.9983	392.578	90.9855	392.578	90.5168	392.578	90.5813	392.578	90.0832	392.578	90.0817	392.578	89.5861	392.578	89.3109	392.578	88.8454	392.578	88.0597	392.578	87.644	392.578	86.1064	392.578	85.7392	392.578	83.3172	392.578	82.928	392.578	80.485	392.578	79.8352	392.578	80.586	392.578	79.8235	392.578	82.764	392.578	82.3082	392.578	84.3322	392.578	84.1322	392.578	84.7961
405.762	92.0353	405.762	91.9638	405.762	92.0092	405.762	91.7985	405.762	91.8951	405.762	91.5552	405.762	91.7155	405.762	91.2598	405.762	91.5018	405.762	90.9479	405.762	91.2849	405.762	90.6599	405.762	91.0801	405.762	90.4273	405.762	90.8744	405.762	90.2485	405.762	90.6223	405.762	90.067	405.762	90.2501	405.762	89.774	405.762	89.6639	405.762	89.2359	405.762	88.7558	405.762	88.3274	405.762	87.4097	405.762	86.9674	405.762	85.524	405.762	85.1959	405.762	83.127	405.762	83.3424	405.762	80.8047	405.762	82.0639	405.762	79.9481	405.762	81.5832	405.762	80.5653	405.762	81.2542
420.41	91.0382	420.41	90.947	420.41	90.9243	420.41	90.6661	420.41	90.597	420.41	90.2198	420.41	90.0628	420.41	89.6491	420.41	89.3618	420.41	89.0225	420.41	88.5917	420.41	88.435	420.41	87.9151	420.41	87.9755	420.41	87.4945	420.41	87.6608	420.41	87.3614	420.41	87.3936	420.41	87.3656	420.41	87.0014	420.41	87.281	420.41	86.323	420.41	86.9221	420.41	85.2975	420.41	86.195	420.41	84.0874	420.41	85.1401	420.41	83.2043	420.41	84.0277	420.41	83.1601	420.41	83.376	420.41	83.7098	420.41	83.4798	420.41	84.2093	420.41	83.969	420.41	84.3026
435.059	90.3104	435.059	90.2497	435.059	90.2108	435.059	90.0476	435.059	89.9507	435.059	89.7366	435.059	89.5541	435.059	89.3568	435.059	89.0734	435.059	88.9491	435.059	88.5847	435.059	88.5489	435.059	88.1636	435.059	88.1794	435.059	87.8461	435.059	87.8405	435.059	87.6015	435.059	87.4953	435.059	87.3402	435.059	87.0638	435.059	86.9477	435.059	86.4409	435.059	86.3171	435.059	85.5401	435.059	85.3795	435.059	84.3672	435.059	84.1545	435.059	83.1296	435.059	82.8533	435.059	82.2666	435.059	81.9405	435.059	82.0613	435.059	81.7651	435.059	82.2212	435.059	82.0499	435.059	82.2756
451.172	90.3548	451.172	90.2923	451.172	90.1744	451.172	90.0448	451.172	89.7272	451.172	89.7019	451.172	89.0418	451.172	89.3824	451.172	88.2434	451.172	89.2005	451.172	87.5941	451.172	89.1989	451.172	87.3972	451.172	89.3056	451.172	87.7094	451.172	89.3668	451.172	88.2525	451.172	89.2143	451.172	88.6798	451.172	88.7049	451.172	88.762	451.172	87.7354	451.172	88.3886	451.172	86.2798	451.172	87.5433	451.172	84.536	451.172	86.3316	451.172	83.2097	451.172	85.0756	451.172	83.1219	451.172	84.3077	451.172	83.8849	451.172	84.2894	451.172	84.5856	451.172	84.6398	451.172	84.8328
465.82	91.6393	465.82	91.5062	465.82	91.489	465.82	91.092	465.82	91.0312	465.82	90.3798	465.82	90.2227	465.82	89.3501	465.82	89.0127	465.82	88.0321	465.82	87.3812	465.82	86.638	465.82	85.4742	465.82	85.7249	465.82	83.9339	465.82	85.8072	465.82	83.7496	465.82	86.5203	465.82	84.6834	465.82	87.0799	465.82	85.6098	465.82	86.9952	465.82	85.9171	465.82	86.0276	465.82	85.4305	465.82	84.0883	465.82	84.2301	465.82	81.6298	465.82	82.8917	465.82	80.8119	465.82	82.6111	465.82	82.413	465.82	83.5398	465.82	84.0276	465.82	84.4883	465.82	84.7271
483.398	89.8221	483.398	89.6839	483.398	89.8481	483.398	89.4627	483.398	89.7249	483.398	89.1697	483.398	89.4167	483.398	88.7892	483.398	88.8965	483.398	88.2808	483.398	88.1536	483.398	87.599	483.398	87.2045	483.398	86.7264	483.398	86.1102	483.398	85.7092	483.398	84.9896	483.398	84.6608	483.398	83.9765	483.398	83.6722	483.398	83.079	483.398	82.6656	483.398	82.0802	483.398	81.4125	483.398	80.6676	483.398	79.8402	483.398	78.807	483.398	78.6552	483.398	77.6078	483.398	79.1777	483.398	78.7024	483.398	80.819	483.398	80.7308	483.398	82.1441	483.398	82.1504	483.398	82.6237
499.512	88.2498	499.512	87.965	499.512	88.216	499.512	87.3897	499.512	87.8528	499.512	86.5928	499.512	87.1713	499.512	85.7268	499.512	86.2357	499.512	85.0514	499.512	85.2287	499.512	84.8317	499.512	84.4996	499.512	85.1161	499.512	84.3962	499.512	85.6904	499.512	84.8823	499.512	86.2671	499.512	85.5612	499.512	86.6148	499.512	86.0539	499.512	86.5639	499.512	86.1365	499.512	85.985	499.512	85.6876	499.512	84.786	499.512	84.6425	499.512	82.9653	499.512	83.0209	499.512	80.8245	499.512	81.0945	499.512	79.263	499.512	79.602	499.512	78.9159	499.512	79.1037	499.512	79.0455
517.09	90.5712	517.09	90.4309	517.09	90.4686	517.09	90.0469	517.09	90.0937	517.09	89.3853	517.09	89.3937	517.09	88.3845	517.09	88.2978	517.09	86.9701	517.09	86.7167	517.09	85.1029	517.09	84.5576	517.09	82.9684	517.09	81.8919	517.09	81.4423	517.09	79.7518	517.09	81.601	517.09	80.0746	517.09	82.7049	517.09	81.7357	517.09	83.5346	517.09	82.9464	517.09	83.6974	517.09	83.3456	517.09	83.2887	517.09	83.0687	517.09	82.7392	517.09	82.4869	517.09	82.6395	517.09	82.1974	517.09	83.0873	517.09	82.5634	517.09	83.5715	517.09	83.232	517.09	83.6515
536.133	91.1122	536.133	91.0261	536.133	91.0624	536.133	90.8079	536.133	90.8762	536.133	90.4627	536.133	90.5444	536.133	89.9813	536.133	90.0335	536.133	89.3189	536.133	89.2742	536.133	88.3901	536.133	88.1668	536.133	87.0983	536.133	86.6105	536.133	85.4224	536.133	84.5963	536.133	83.5884	536.133	82.454	536.133	82.1373	536.133	81.0051	536.133	81.2886	536.133	80.4818	536.133	80.4499	536.133	79.9074	536.133	79.159	536.133	78.6618	536.133	78.2978	536.133	77.7874	536.133	79.5715	536.133	79.2959	536.133	81.7797	536.133	81.6943	536.133	83.3263	536.133	83.3066	536.133	83.8479
555.176	92.5419	555.176	92.3482	555.176	92.5585	555.176	91.9921	555.176	92.3817	555.176	91.4824	555.176	91.9895	555.176	90.8112	555.176	91.3461	555.176	89.9469	555.176	90.3921	555.176	88.8419	555.176	89.0471	555.176	87.4773	555.176	87.2505	555.176	85.9737	555.176	85.1307	555.176	84.7276	555.176	83.3316	555.176	84.1425	555.176	82.5862	555.176	83.9205	555.176	82.2993	555.176	83.2831	555.176	81.368	555.176	81.6214	555.176	79.3352	555.176	78.7951	555.176	77.1243	555.176	77.0375	555.176	77.8733	555.176	79.1906	555.176	80.3438	555.176	81.4671	555.176	81.9896	555.176	82.3899
574.219	93.5024	574.219	93.3815	574.219	93.3781	574.219	93.0283	574.219	93.0299	574.219	92.4852	574.219	92.5056	574.219	91.8079	574.219	91.862	574.219	91.0351	574.219	91.1398	574.219	90.1674	574.219	90.3434	574.219	89.1822	574.219	89.4396	574.219	88.0859	574.219	88.3784	574.219	86.9524	574.219	87.1209	574.219	85.8615	574.219	85.6581	574.219	84.7365	574.219	84.0007	574.219	83.3085	574.219	82.1464	574.219	81.4127	574.219	80.197	574.219	79.8378	574.219	79.0068	574.219	80.4548	574.219	79.9219	574.219	82.3815	574.219	81.9428	574.219	83.7754	574.219	83.5173	574.219	84.1605
594.727	94.4728	594.727	94.3499	594.727	94.3437	594.727	93.9881	594.727	93.9742	594.727	93.4197	594.727	93.4011	594.727	92.683	594.727	92.6748	594.727	91.7976	594.727	91.8329	594.727	90.737	594.727	90.8698	594.727	89.4252	594.727	89.7294	594.727	87.794	594.727	88.3568	594.727	85.9618	594.727	86.8306	594.727	84.492	594.727	85.4853	594.727	83.9254	594.727	84.6138	594.727	83.7212	594.727	83.9012	594.727	83.0142	594.727	82.7434	594.727	81.6319	594.727	81.0117	594.727	80.6084	594.727	79.8715	594.727	81.3108	594.727	80.8017	594.727	82.5863	594.727	82.3467	594.727	83.0414
615.234	95.057	615.234	94.9251	615.234	94.8863	615.234	94.5102	615.234	94.4277	615.234	93.8685	615.234	93.7296	615.234	93.0856	615.234	92.8697	615.234	92.2368	615.234	91.9324	615.234	91.3284	615.234	90.9764	615.234	90.2834	615.234	90.0284	615.234	89.0216	615.234	89.1278	615.234	87.6059	615.234	88.3438	615.234	86.3005	615.234	87.6396	615.234	85.2287	615.234	86.7065	615.234	83.9496	615.234	85.0195	615.234	81.7342	615.234	81.9252	615.234	78.3317	615.234	76.884	615.234	77.3043	615.234	75.8449	615.234	80.4569	615.234	80.2188	615.234	82.7671	615.234	82.7244	615.234	83.4952
637.207	95.3675	637.207	95.3116	637.207	95.127	637.207	94.9889	637.207	94.5959	637.207	94.4578	637.207	93.8218	637.207	93.795	637.207	92.8905	637.207	93.0679	637.207	91.9106	637.207	92.2992	637.207	91.0032	637.207	91.4611	637.207	90.2911	637.207	90.5127	637.207	89.8395	637.207	89.439	637.207	89.5627	637.207	88.2148	637.207	89.2015	637.207	86.6685	637.207	88.3829	637.207	84.3074	637.207	86.6327	637.207	79.956	637.207	83.1443	637.207	71.1389	637.207	75.5634	637.207	77.9786	637.207	74.5359	637.207	83.4617	637.207	82.1527	637.207	85.8228	637.207	85.2954	637.207	86.3561
659.18	95.0655	659.18	94.9456	659.18	94.8788	659.18	94.5006	659.18	94.4107	659.18	93.7383	659.18	93.6851	659.18	92.7149	659.18	92.7195	659.18	91.5468	659.18	91.5113	659.18	90.3821	659.18	90.0119	659.18	89.3276	659.18	88.1121	659.18	88.401	659.18	85.7844	659.18	87.5983	659.18	83.8906	659.18	86.9762	659.18	84.3625	659.18	86.5254	659.18	86.0339	659.18	85.9865	659.18	86.8626	659.18	84.9455	659.18	86.2854	659.18	83.0485	659.18	84.2418	659.18	80.3891	659.18	81.3427	659.18	78.7936	659.18	80.0378	659.18	79.764	659.18	80.694	659.18	80.8126
682.617	95.2649	682.617	95.087	682.617	95.0669	682.617	94.5381	682.617	94.549	682.617	93.7051	682.617	93.8159	682.617	92.7808	682.617	92.9865	682.617	92.0121	682.617	92.1267	682.617	91.5089	682.617	91.1972	682.617	91.1098	682.617	90.0749	682.617	90.5409	682.617	88.6536	682.617	89.665	682.617	87.0243	682.617	88.576	682.617	85.6834	682.617	87.4306	682.617	85.0891	682.617	86.0613	682.617	84.6232	682.617	83.8079	682.617	83.072	682.617	79.4398	682.617	79.0632	682.617	72.2138	682.617	72.2479	682.617	77.8773	682.617	78.2071	682.617	82.1864	682.617	82.3424	682.617	83.4523
707.52	94.4427	707.52	94.3138	707.52	94.2482	707.52	93.8505	707.52	93.7582	707.52	93.0533	707.52	93.0217	707.52	91.9288	707.52	92.095	707.52	90.4735	707.52	91.0098	707.52	88.6817	707.52	89.7708	707.52	86.6972	707.52	88.4059	707.52	85.2237	707.52	87.0085	707.52	85.2069	707.52	85.7178	707.52	86.0817	707.52	84.7446	707.52	86.634	707.52	84.271	707.52	86.2429	707.52	83.8173	707.52	84.493	707.52	82.291	707.52	80.7678	707.52	78.922	707.52	76.1627	707.52	77.4989	707.52	79.4306	707.52	81.2848	707.52	82.9334	707.52	83.7316	707.52	84.2422
732.422	93.4794	732.422	93.4031	732.422	93.1795	732.422	92.9738	732.422	92.54	732.422	92.2642	732.422	91.6734	732.422	91.3866	732.422	90.7658	732.422	90.4419	732.422	90.0205	732.422	89.4192	732.422	89.5132	732.422	88.1391	732.422	89.0935	732.422	86.3584	732.422	88.5224	732.422	84.216	732.422	87.6908	732.422	83.1535	732.422	86.6981	732.422	83.9504	732.422	85.7365	732.422	84.5227	732.422	84.7995	732.422	83.4231	732.422	83.4091	732.422	79.673	732.422	80.4861	732.422	72.8578	732.422	73.2412	732.422	77.2685	732.422	70.9393	732.422	81.1026	732.422	79.1999	732.422	81.6645
757.324	92.8099	757.324	92.6291	757.324	92.7238	757.324	92.175	757.324	92.3578	757.324	91.4488	757.324	91.7014	757.324	90.5142	757.324	90.7718	757.324	89.5043	757.324	89.594	757.324	88.5052	757.324	88.171	757.324	87.4004	757.324	86.5775	757.324	85.9073	757.324	85.2445	757.324	83.8951	757.324	84.8138	757.324	81.9115	757.324	85.0056	757.324	81.0506	757.324	84.9337	757.324	81.1078	757.324	84.1744	757.324	80.9178	757.324	82.6521	757.324	79.7965	757.324	80.3109	757.324	77.8347	757.324	77.3217	757.324	76.9076	757.324	75.818	757.324	77.9222	757.324	77.2708	757.324	78.3752
785.156	91.2361	785.156	90.8971	785.156	91.1676	785.156	90.1787	785.156	90.7289	785.156	89.1939	785.156	90.0112	785.156	88.1829	785.156	89.0972	785.156	87.4696	785.156	87.9691	785.156	87.187	785.156	86.5012	785.156	87.0242	785.156	84.5603	785.156	86.4132	785.156	82.1541	785.156	84.8593	785.156	79.9731	785.156	82.1938	785.156	80.0052	785.156	79.4264	785.156	81.7122	785.156	78.6889	785.156	82.6177	785.156	78.1602	785.156	81.7069	785.156	74.8128	785.156	78.4443	785.156	66.9318	785.156	72.6196	785.156	74.1091	785.156	73.2964	785.156	78.3563	785.156	77.5519	785.156	79.1981
811.523	91.6125	811.523	91.2176	811.523	91.5346	811.523	90.3948	811.523	90.9926	811.523	89.221	811.523	90.0482	811.523	87.8304	811.523	88.7933	811.523	86.5513	811.523	87.3495	811.523	85.9255	811.523	85.8185	811.523	86.0521	811.523	84.0929	811.523	86.266	811.523	81.8061	811.523	85.9178	811.523	78.7957	811.523	84.7174	811.523	77.6117	811.523	82.7672	811.523	80.205	811.523	80.9123	811.523	81.9825	811.523	79.8588	811.523	81.4524	811.523	78.0875	811.523	78.139	811.523	72.9351	811.523	71.5978	811.523	64.2634	811.523	72.51	811.523	73.848	811.523	76.2336	811.523	76.7596
840.82	92.108	840.82	91.9551	840.82	91.8183	840.82	91.393	840.82	91.0992	840.82	90.4724	840.82	90.0175	840.82	89.1949	840.82	88.6889	840.82	87.453	840.82	87.2535	840.82	85.1602	840.82	85.8153	840.82	82.9693	840.82	84.3959	840.82	82.5725	840.82	83.0114	840.82	83.4428	840.82	81.6084	840.82	83.976	840.82	79.7101	840.82	83.9068	840.82	77.6499	840.82	83.2925	840.82	78.291	840.82	81.7331	840.82	79.4875	840.82	78.3665	840.82	78.1408	840.82	71.9205	840.82	73.1463	840.82	69.0154	840.82	68.2737	840.82	73.2942	840.82	72.5311	840.82	74.31
870.117	92.3927	870.117	92.0928	870.117	92.0704	870.117	91.1672	870.117	91.2244	870.117	89.7457	870.117	90.0187	870.117	88.1056	870.117	88.6363	870.117	86.5318	870.117	87.2787	870.117	85.0216	870.117	86.1633	870.117	83.2455	870.117	85.197	870.117	81.0573	870.117	83.8168	870.117	79.4891	870.117	81.5605	870.117	80.0758	870.117	79.0042	870.117	81.4617	870.117	78.3998	870.117	81.8972	870.117	79.6543	870.117	80.4551	870.117	80.1334	870.117	75.842	870.117	78.0795	870.117	67.1162	870.117	71.5961	870.117	75.0161	870.117	73.5015	870.117	78.9753	870.117	78.6104	870.117	79.9963
900.879	92.0465	900.879	91.8167	900.879	91.7825	900.879	91.1311	900.879	91.0794	900.879	90.0769	900.879	90.1015	900.879	88.7322	900.879	89.0767	900.879	87.1826	900.879	88.1385	900.879	85.627	900.879	87.1507	900.879	84.1865	900.879	85.7592	900.879	82.4885	900.879	83.6831	900.879	80.0826	900.879	81.1004	900.879	77.4061	900.879	78.8985	900.879	76.5095	900.879	78.2691	900.879	78.3147	900.879	79.572	900.879	79.7808	900.879	80.7614	900.879	79.0069	900.879	79.9653	900.879	74.6331	900.879	76.1852	900.879	57.6151	900.879	70.3554	900.879	70.9905	900.879	73.035	900.879	74.4971
933.105	92.0349	933.105	91.8685	933.105	91.7174	933.105	91.1495	933.105	91.0202	933.105	89.8754	933.105	90.0263	933.105	88.1381	933.105	88.737	933.105	86.1536	933.105	87.1533	933.105	84.3948	933.105	85.5012	933.105	83.3974	933.105	84.1424	933.105	82.791	933.105	82.8096	933.105	81.7834	933.105	80.4854	933.105	80.0828	933.105	76.7113	933.105	77.9097	933.105	75.3714	933.105	77.0316	933.105	78.1689	933.105	77.9777	933.105	79.9341	933.105	77.5932	933.105	79.1255	933.105	73.9668	933.105	74.7776	933.105	66.4603	933.105	72.2773	933.105	72.6894	933.105	76.0917	933.105	76.3919
965.332	91.675	965.332	91.6513	965.332	91.2837	965.332	91.1922	965.332	90.5362	965.332	90.3181	965.332	89.487	965.332	89.0163	965.332	88.1347	965.332	87.1958	965.332	86.4731	965.332	84.9316	965.332	84.8079	965.332	82.8285	965.332	83.9996	965.332	81.4332	965.332	84.0067	965.332	80.2148	965.332	83.3557	965.332	78.6975	965.332	81.1562	965.332	77.467	965.332	77.3446	965.332	77.5838	965.332	72.4609	965.332	78.1645	965.332	73.1472	965.332	77.0601	965.332	75.6382	965.332	72.2428	965.332	73.5065	965.332	66.3161	965.332	68.6291	965.332	74.4463	965.332	74.5596	965.332	76.704
1000.49	91.8466	1000.49	91.5182	1000.49	91.7339	1000.49	90.7934	1000.49	91.1878	1000.49	89.7021	1000.49	90.2736	1000.49	88.2521	1000.49	88.9824	1000.49	86.5603	1000.49	87.1778	1000.49	85.1059	1000.49	84.7448	1000.49	84.1742	1000.49	81.9082	1000.49	82.9937	1000.49	80.0235	1000.49	80.642	1000.49	79.8866	1000.49	76.9474	1000.49	79.5511	1000.49	73.8853	1000.49	78.9736	1000.49	75.1875	1000.49	79.2865	1000.49	77.4594	1000.49	78.8996	1000.49	78.0961	1000.49	76.9588	1000.49	76.6115	1000.49	73.9933	1000.49	73.3417	1000.49	70.8587	1000.49	72.8075	1000.49	72.5484	1000.49	74.0565
1035.64	92.2717	1035.64	91.9231	1035.64	92.1886	1035.64	91.1975	1035.64	91.6901	1035.64	90.2322	1035.64	90.7066	1035.64	89.0324	1035.64	89.1835	1035.64	87.3545	1035.64	87.4925	1035.64	85.117	1035.64	86.1859	1035.64	83.3266	1035.64	84.8801	1035.64	83.239	1035.64	82.3138	1035.64	83.335	1035.64	78.2626	1035.64	81.9825	1035.64	76.2645	1035.64	78.662	1035.64	76.1309	1035.64	75.0721	1035.64	77.5818	1035.64	75.9242	1035.64	79.1445	1035.64	75.535	1035.64	78.3181	1035.64	69.4128	1035.64	74.4041	1035.64	65.5578	1035.64	69.262	1035.64	73.9421	1035.64	73.0163	1035.64	75.3363
1072.27	93.3163	1072.27	93.0517	1072.27	92.9801	1072.27	92.2253	1072.27	92.1829	1072.27	91.0815	1072.27	91.0391	1072.27	89.8372	1072.27	89.4686	1072.27	88.3281	1072.27	87.5215	1072.27	86.1092	1072.27	85.9164	1072.27	83.1546	1072.27	85.2355	1072.27	81.019	1072.27	84.6882	1072.27	80.94	1072.27	83.341	1072.27	81.3572	1072.27	80.8699	1072.27	80.8256	1072.27	75.8541	1072.27	78.0375	1072.27	67.6742	1072.27	76.1486	1072.27	75.6948	1072.27	77.9258	1072.27	77.3235	1072.27	76.3058	1072.27	73.1304	1072.27	68.3116	1072.27	66.7205	1072.27	72.2429	1072.27	74.9037	1072.27	76.3179
1108.89	93.5954	1108.89	93.1774	1108.89	93.3695	1108.89	92.229	1108.89	92.5732	1108.89	91.0443	1108.89	91.256	1108.89	89.7382	1108.89	89.5422	1108.89	88.1721	1108.89	87.8874	1108.89	86.2963	1108.89	86.4106	1108.89	83.9846	1108.89	85.2006	1108.89	80.5795	1108.89	84.3635	1108.89	76.0962	1108.89	82.6908	1108.89	76.7472	1108.89	80.8688	1108.89	79.3089	1108.89	79.9297	1108.89	79.2896	1108.89	76.9551	1108.89	78.6267	1108.89	72.407	1108.89	79.0242	1108.89	76.4174	1108.89	77.3717	1108.89	76.343	1108.89	71.9652	1108.89	72.5303	1108.89	72.3508	1108.89	72.0664	1108.89	74.2225
1148.44	94.2994	1148.44	93.7795	1148.44	94.0037	1148.44	92.7511	1148.44	92.8896	1148.44	91.6095	1148.44	91.2386	1148.44	90.3062	1148.44	89.5692	1148.44	88.418	1148.44	88.1285	1148.44	86.1099	1148.44	86.2239	1148.44	84.7059	1148.44	82.8074	1148.44	84.1481	1148.44	78.9395	1148.44	82.4847	1148.44	79.2805	1148.44	78.6144	1148.44	81.0567	1148.44	72.0889	1148.44	81.4333	1148.44	72.6756	1148.44	79.333	1148.44	75.2259	1148.44	75.6942	1148.44	76.2369	1148.44	76.5648	1148.44	75.6365	1148.44	74.9565	1148.44	72.3484	1148.44	66.8657	1148.44	75.0212	1148.44	75.3125	1148.44	77.6529
1189.45	93.5203	1189.45	93.1307	1189.45	93.2099	1189.45	92.0838	1189.45	92.3033	1189.45	90.6326	1189.45	90.8911	1189.45	88.9987	1189.45	89.0766	1189.45	87.2453	1189.45	87.0213	1189.45	85.3031	1189.45	84.9058	1189.45	83.0155	1189.45	82.7229	1189.45	81.4359	1189.45	79.8698	1189.45	81.1353	1189.45	74.4697	1189.45	80.1807	1189.45	70.1306	1189.45	77.5786	1189.45	77.5434	1189.45	71.4455	1189.45	78.5607	1189.45	72.4443	1189.45	74.6248	1189.45	76.9607	1189.45	73.0162	1189.45	75.4694	1189.45	73.334	1189.45	66.7568	1189.45	67.1125	1189.45	71.7349	1189.45	71.814	1189.45	74.7669
1230.47	92.8225	1230.47	92.4375	1230.47	92.4831	1230.47	91.2151	1230.47	91.5519	1230.47	89.3271	1230.47	89.9954	1230.47	87.2468	1230.47	87.8731	1230.47	85.4752	1230.47	85.4446	1230.47	83.7291	1230.47	82.7659	1230.47	81.2176	1230.47	80.6174	1230.47	78.0333	1230.47	79.4559	1230.47	76.4189	1230.47	77.5137	1230.47	76.9261	1230.47	72.0311	1230.47	76.7309	1230.47	59.4951	1230.47	73.2167	1230.47	72.5155	1230.47	66.8397	1230.47	73.117	1230.47	70.1062	1230.47	71.8893	1230.47	69.1225	1230.47	72.3256	1230.47	64.4736	1230.47	64.9986	1230.47	74.1992	1230.47	70.9228	1230.47	75.8727
1274.41	91.2618	1274.41	90.7106	1274.41	90.9774	1274.41	89.6068	1274.41	89.7122	1274.41	88.1539	1274.41	87.7786	1274.41	86.2589	1274.41	85.9229	1274.41	83.8735	1274.41	83.9543	1274.41	81.555	1274.41	80.9706	1274.41	79.8451	1274.41	77.5613	1274.41	78.6421	1274.41	76.3295	1274.41	77.6635	1274.41	78.0022	1274.41	76.0371	1274.41	78.3635	1274.41	73.1998	1274.41	74.4718	1274.41	71.598	1274.41	63.4155	1274.41	67.2643	1274.41	68.8611	1274.41	67.2941	1274.41	69.2456	1274.41	72.2522	1274.41	70.4007	1274.41	68.9939	1274.41	67.5027	1274.41	68.5398	1274.41	68.7809	1274.41	71.935
1319.82	90.8856	1319.82	90.1484	1319.82	90.4758	1319.82	88.7798	1319.82	88.84	1319.82	87.2072	1319.82	86.5412	1319.82	85.1291	1319.82	84.3031	1319.82	82.4911	1319.82	82.2764	1319.82	80.0134	1319.82	80.7455	1319.82	77.2587	1319.82	78.8859	1319.82	74.2497	1319.82	75.5552	1319.82	74.1455	1319.82	72.0795	1319.82	75.0609	1319.82	68.9894	1319.82	74.0137	1319.82	74.4825	1319.82	71.5093	1319.82	74.8146	1319.82	69.0888	1319.82	69.8983	1319.82	71.8243	1319.82	70.0821	1319.82	70.7058	1319.82	67.1448	1319.82	50.901	1319.82	55.1354	1319.82	69.9038	1319.82	65.8363	1319.82	71.8135
1366.7	90.6675	1366.7	90.0508	1366.7	89.8657	1366.7	88.2904	1366.7	87.9597	1366.7	85.9197	1366.7	85.806	1366.7	83.3331	1366.7	83.8494	1366.7	80.8606	1366.7	81.5408	1366.7	79.0562	1366.7	78.7119	1366.7	77.8101	1366.7	77.3847	1366.7	75.9296	1366.7	78.3949	1366.7	73.9527	1366.7	78.9911	1366.7	73.386	1366.7	77.073	1366.7	72.7477	1366.7	68.0409	1366.7	72.1794	1366.7	67.599	1366.7	68.6876	1366.7	72.426	1366.7	68.7268	1366.7	71.6479	1366.7	68.9841	1366.7	70.6203	1366.7	61.534	1366.7	63.0533	1366.7	68.1144	1366.7	63.6786	1366.7	69.2481
1413.57	90.4038	1413.57	89.977	1413.57	89.4327	1413.57	88.1657	1413.57	87.4745	1413.57	85.3695	1413.57	85.2449	1413.57	82.0182	1413.57	82.7227	1413.57	79.2194	1413.57	79.897	1413.57	77.8914	1413.57	78.9339	1413.57	76.1326	1413.57	77.5947	1413.57	74.1788	1413.57	75.7428	1413.57	75.6107	1413.57	77.3114	1413.57	76.5926	1413.57	78.259	1413.57	74.0552	1413.57	77.7631	1413.57	71.1939	1413.57	72.4461	1413.57	69.04	1413.57	66.7017	1413.57	65.3146	1413.57	67.7442	1413.57	69.854	1413.57	69.8303	1413.57	64.6869	1413.57	65.8226	1413.57	60.4385	1413.57	61.5275	1413.57	65.6946
1463.38	90.4477	1463.38	90.0038	1463.38	89.6508	1463.38	88.4008	1463.38	87.9632	1463.38	85.8789	1463.38	85.6762	1463.38	82.5065	1463.38	82.1836	1463.38	78.8968	1463.38	78.9537	1463.38	75.7528	1463.38	78.1744	1463.38	74.739	1463.38	77.3401	1463.38	73.8675	1463.38	73.0325	1463.38	69.1784	1463.38	67.6826	1463.38	73.2395	1463.38	71.5876	1463.38	76.1517	1463.38	74.7381	1463.38	74.7226	1463.38	76.0285	1463.38	68.8892	1463.38	72.3057	1463.38	64.606	1463.38	66.8864	1463.38	66.4281	1463.38	67.9025	1463.38	52.7256	1463.38	67.3603	1463.38	66.9017	1463.38	57.2373	1463.38	69.2297
1516.11	90.4054	1516.11	89.6507	1516.11	89.8408	1516.11	88.0126	1516.11	88.0368	1516.11	85.6979	1516.11	85.2716	1516.11	82.5736	1516.11	82.0402	1516.11	79.9753	1516.11	79.7803	1516.11	77.0926	1516.11	78.0701	1516.11	73.8075	1516.11	75.9136	1516.11	75.3299	1516.11	75.064	1516.11	75.7987	1516.11	74.3088	1516.11	70.1339	1516.11	74.1656	1516.11	65.908	1516.11	69.3211	1516.11	73.7597	1516.11	69.9061	1516.11	72.4323	1516.11	72.0359	1516.11	62.6787	1516.11	68.9138	1516.11	68.2521	1516.11	70.4459	1516.11	66.2667	1516.11	70.1465	1516.11	61.7033	1516.11	60.011	1516.11	64.4936
1568.85	90.0765	1568.85	89.3037	1568.85	89.4075	1568.85	87.5798	1568.85	87.5183	1568.85	85.1632	1568.85	84.9077	1568.85	82.1238	1568.85	81.2532	1568.85	79.6128	1568.85	77.7605	1568.85	77.2361	1568.85	77.5899	1568.85	74.838	1568.85	76.982	1568.85	73.0668	1568.85	74.7312	1568.85	72.2587	1568.85	70.3143	1568.85	72.9627	1568.85	72.9295	1568.85	74.3309	1568.85	75.0892	1568.85	71.3863	1568.85	70.9651	1568.85	71.2114	1568.85	72.4232	1568.85	68.9917	1568.85	68.1466	1568.85	69.6588	1568.85	71.3334	1568.85	68.8902	1568.85	71.0097	1568.85	53.3877	1568.85	62.6429	1568.85	57.2278
1624.51	90.5156	1624.51	89.6356	1624.51	89.4961	1624.51	87.3651	1624.51	87.0709	1624.51	84.473	1624.51	83.9958	1624.51	81.5957	1624.51	79.7726	1624.51	79.82	1624.51	80.0946	1624.51	77.3568	1624.51	79.6617	1624.51	74.8026	1624.51	76.294	1624.51	75.6092	1624.51	76.4358	1624.51	76.3422	1624.51	76.9207	1624.51	72.216	1624.51	71.6214	1624.51	69.021	1624.51	70.4262	1624.51	74.0419	1624.51	69.5182	1624.51	73.2751	1624.51	76.0882	1624.51	67.3678	1624.51	72.9312	1624.51	70.8416	1624.51	70.5048	1624.51	66.9036	1624.51	68.4671	1624.51	59.7686	1624.51	59.5173	1624.51	62.9875
1681.64	91.7341	1681.64	90.8863	1681.64	90.696	1681.64	88.631	1681.64	88.3131	1681.64	85.5597	1681.64	84.549	1681.64	82.7187	1681.64	81.2467	1681.64	81.2142	1681.64	81.1485	1681.64	79.722	1681.64	78.2553	1681.64	75.9085	1681.64	76.0938	1681.64	72.4638	1681.64	74.9903	1681.64	71.8649	1681.64	73.2954	1681.64	74.6627	1681.64	75.1305	1681.64	76.002	1681.64	74.9138	1681.64	70.7013	1681.64	70.8765	1681.64	72.3543	1681.64	70.8871	1681.64	67.2237	1681.64	74.7405	1681.64	70.4442	1681.64	71.9443	1681.64	69.4163	1681.64	72.2997	1681.64	67.3888	1681.64	62.3429	1681.64	69.5809
1741.7	92.414	1741.7	91.562	1741.7	91.4825	1741.7	89.5001	1741.7	89.1673	1741.7	86.4037	1741.7	85.3532	1741.7	82.9405	1741.7	82.5349	1741.7	81.5537	1741.7	81.3688	1741.7	80.6822	1741.7	78.9514	1741.7	78.7611	1741.7	79.6307	1741.7	76.3316	1741.7	80.2585	1741.7	75.9347	1741.7	78.9387	1741.7	72.4641	1741.7	75.4714	1741.7	67.5492	1741.7	69.5224	1741.7	73.7557	1741.7	71.4211	1741.7	72.8344	1741.7	69.7549	1741.7	70.0631	1741.7	73.0065	1741.7	66.9168	1741.7	71.4106	1741.7	67.0678	1741.7	70.2861	1741.7	50.9473	1741.7	61.5661	1741.7	64.2548
1803.22	92.5577	1803.22	91.511	1803.22	91.9166	1803.22	89.4008	1803.22	89.8666	1803.22	86.4221	1803.22	86.3499	1803.22	83.892	1803.22	83.2722	1803.22	81.5917	1803.22	80.6748	1803.22	79.4858	1803.22	79.1035	1803.22	78.2559	1803.22	80.8157	1803.22	76.6077	1803.22	78.5213	1803.22	75.5565	1803.22	76.7757	1803.22	78.812	1803.22	79.1726	1803.22	78.3919	1803.22	78.0195	1803.22	64.2804	1803.22	69.7867	1803.22	72.94	1803.22	67.4832	1803.22	73.1085	1803.22	72.8402	1803.22	70.1165	1803.22	72.0673	1803.22	69.8525	1803.22	72.4858	1803.22	57.0432	1803.22	58.7271	1803.22	65.5077
1866.21	93.2485	1866.21	92.2754	1866.21	92.4147	1866.21	89.7539	1866.21	90.1524	1866.21	86.2435	1866.21	86.5256	1866.21	84.4084	1866.21	84.4489	1866.21	82.6007	1866.21	81.3121	1866.21	80.375	1866.21	81.7795	1866.21	77.6485	1866.21	80.4436	1866.21	76.7693	1866.21	76.0973	1866.21	75.8209	1866.21	70.3941	1866.21	72.379	1866.21	68.7953	1866.21	73.0755	1866.21	77.1945	1866.21	74.7659	1866.21	77.3625	1866.21	69.7042	1866.21	72.9378	1866.21	70.7588	1866.21	72.0501	1866.21	69.1906	1866.21	65.8898	1866.21	72.2262	1866.21	72.6595	1866.21	57.6839	1866.21	66.6831	1866.21	68.3375
1932.13	93.9958	1932.13	93.2933	1932.13	92.7074	1932.13	90.6837	1932.13	90.4013	1932.13	87.2884	1932.13	86.7431	1932.13	84.9237	1932.13	84.3902	1932.13	82.7236	1932.13	81.9254	1932.13	80.6984	1932.13	83.0165	1932.13	77.727	1932.13	78.9237	1932.13	75.7364	1932.13	74.1818	1932.13	74.1481	1932.13	76.6225	1932.13	75.6357	1932.13	74.2064	1932.13	77.1356	1932.13	69.4981	1932.13	69.9616	1932.13	66.422	1932.13	69.455	1932.13	72.8933	1932.13	68.0722	1932.13	72.6391	1932.13	65.7331	1932.13	67.4464	1932.13	71.5299	1932.13	72.1398	1932.13	67.1806	1932.13	62.8479	1932.13	67.8067
1999.51	93.9593	1999.51	93.091	1999.51	93.2481	1999.51	90.8989	1999.51	90.6896	1999.51	87.8263	1999.51	86.6612	1999.51	85.0588	1999.51	83.7135	1999.51	82.8638	1999.51	82.6291	1999.51	81.2969	1999.51	81.8087	1999.51	78.1942	1999.51	76.5199	1999.51	75.7384	1999.51	77.4954	1999.51	75.5691	1999.51	74.6484	1999.51	75.1064	1999.51	66.6133	1999.51	66.408	1999.51	72.1572	1999.51	71.3978	1999.51	71.5131	1999.51	66.0953	1999.51	71.8988	1999.51	67.0271	1999.51	70.3978	1999.51	63.2298	1999.51	67.7609	1999.51	71.4596	1999.51	70.1797	1999.51	64.6249	1999.51	68.9159	1999.51	71.1653
2069.82	93.72	2069.82	92.543	2069.82	93.1517	2069.82	90.0629	2069.82	90.5955	2069.82	87.2401	2069.82	87.2092	2069.82	85.2407	2069.82	84.074	2069.82	82.8208	2069.82	82.8748	2069.82	81.2271	2069.82	80.9113	2069.82	78.4525	2069.82	77.7467	2069.82	73.4512	2069.82	76.9118	2069.82	68.247	2069.82	77.5667	2069.82	68.3269	2069.82	78.125	2069.82	74.0083	2069.82	74.1646	2069.82	72.5555	2069.82	72.1826	2069.82	54.9481	2069.82	66.9074	2069.82	67.8619	2069.82	72.888	2069.82	66.1829	2069.82	68.7344	2069.82	71.9311	2069.82	68.3213	2069.82	66.184	2069.82	66.9447	2069.82	73.0551
2143.07	94.1369	2143.07	93.1685	2143.07	93.1244	2143.07	89.9903	2143.07	90.1679	2143.07	86.4558	2143.07	87.0971	2143.07	84.2975	2143.07	83.7452	2143.07	83.4223	2143.07	83.599	2143.07	80.6984	2143.07	78.1076	2143.07	77.9234	2143.07	79.1274	2143.07	76.7825	2143.07	76.6718	2143.07	74.0302	2143.07	73.503	2143.07	74.9954	2143.07	70.1639	2143.07	63.3163	2143.07	73.2575	2143.07	68.9434	2143.07	73.1153	2143.07	67.4452	2143.07	62.8027	2143.07	58.5305	2143.07	69.4727	2143.07	65.4278	2143.07	70.5123	2143.07	64.7618	2143.07	67.5284	2143.07	66.1939	2143.07	62.337	2143.07	69.227
2219.24	94.3674	2219.24	93.5132	2219.24	93.0936	2219.24	90.8912	2219.24	89.7972	2219.24	86.8318	2219.24	86.8777	2219.24	83.642	2219.24	83.6497	2219.24	82.8144	2219.24	82.321	2219.24	80.9575	2219.24	79.2003	2219.24	76.8977	2219.24	77.2986	2219.24	69.6279	2219.24	70.2512	2219.24	72.0806	2219.24	69.2197	2219.24	74.4205	2219.24	69.3068	2219.24	69.1487	2219.24	71.677	2219.24	64.2764	2219.24	67.92	2219.24	70.8289	2219.24	65.7717	2219.24	67.0225	2219.24	69.2476	2219.24	62.1371	2219.24	67.5075	2219.24	67.6519	2219.24	63.1122	2219.24	61.4637	2219.24	61.9074	2219.24	67.5637
2296.88	93.4019	2296.88	92.1297	2296.88	92.57	2296.88	89.7095	2296.88	89.9113	2296.88	86.9066	2296.88	86.0154	2296.88	83.4488	2296.88	84.5965	2296.88	81.4075	2296.88	81.1505	2296.88	80.4263	2296.88	79.7594	2296.88	76.544	2296.88	72.8221	2296.88	74.5681	2296.88	74.7887	2296.88	70.7331	2296.88	73.4154	2296.88	75.9103	2296.88	73.7772	2296.88	72.4797	2296.88	69.9874	2296.88	69.3799	2296.88	69.6322	2296.88	71.5813	2296.88	69.6228	2296.88	66.3983	2296.88	67.9081	2296.88	63.1236	2296.88	66.983	2296.88	66.0522	2296.88	66.9594	2296.88	59.0278	2296.88	60.02	2296.88	67.7413
2378.91	93.6915	2378.91	92.3768	2378.91	92.4018	2378.91	88.6993	2378.91	89.8146	2378.91	86.0211	2378.91	85.3788	2378.91	83.7875	2378.91	83.2651	2378.91	80.4876	2378.91	81.5471	2378.91	78.264	2378.91	77.1458	2378.91	78.3645	2378.91	74.1105	2378.91	76.1046	2378.91	73.7498	2378.91	74.4985	2378.91	68.369	2378.91	75.9771	2378.91	64.8401	2378.91	73.1931	2378.91	71.79	2378.91	69.6078	2378.91	68.7458	2378.91	73.8881	2378.91	70.2484	2378.91	68.5165	2378.91	67.1305	2378.91	65.728	2378.91	68.6638	2378.91	65.8681	2378.91	67.3858	2378.91	52.8002	2378.91	59.9584	2378.91	63.9587
2462.4	94.0607	2462.4	93.2449	2462.4	92.7788	2462.4	89.6018	2462.4	89.1369	2462.4	85.6243	2462.4	86.3699	2462.4	84.0667	2462.4	84.1939	2462.4	81.8216	2462.4	81.5648	2462.4	79.4967	2462.4	76.8169	2462.4	78.7682	2462.4	75.3458	2462.4	77.3821	2462.4	74.7251	2462.4	73.7983	2462.4	71.3329	2462.4	71.1397	2462.4	75.4179	2462.4	72.3681	2462.4	68.3748	2462.4	62.6858	2462.4	70.9199	2462.4	71.2772	2462.4	69.8621	2462.4	69.5646	2462.4	66.4734	2462.4	67.3195	2462.4	70.35	2462.4	65.737	2462.4	67.4646	2462.4	52.9023	2462.4	61.2102	2462.4	63.4664
2548.83	93.5048	2548.83	92.2102	2548.83	92.304	2548.83	89.6711	2548.83	88.9746	2548.83	86.3704	2548.83	86.2488	2548.83	83.4497	2548.83	83.7576	2548.83	81.4976	2548.83	80.7491	2548.83	80.9016	2548.83	79.0302	2548.83	79.6588	2548.83	76.3461	2548.83	77.3556	2548.83	73.5558	2548.83	74.0408	2548.83	73.7061	2548.83	75.2962	2548.83	65.2111	2548.83	69.8165	2548.83	70.1005	2548.83	69.7434	2548.83	70.9408	2548.83	70.4214	2548.83	69.6034	2548.83	67.8032	2548.83	68.5146	2548.83	68.2159	2548.83	70.0343	2548.83	67.2782	2548.83	69.0831	2548.83	55.8985	2548.83	63.2383	2548.83	61.9748
2639.65	93.2789	2639.65	91.9042	2639.65	91.9497	2639.65	88.5825	2639.65	89.4279	2639.65	86.3041	2639.65	86.6113	2639.65	84.3418	2639.65	84.4653	2639.65	81.9106	2639.65	81.7418	2639.65	80.3871	2639.65	78.4326	2639.65	80.8931	2639.65	76.8301	2639.65	78.6368	2639.65	74.6627	2639.65	73.7912	2639.65	71.9236	2639.65	75.8811	2639.65	75.1418	2639.65	70.9958	2639.65	71.6255	2639.65	71.7457	2639.65	72.1275	2639.65	71.5334	2639.65	69.4159	2639.65	70.2814	2639.65	69.0545	2639.65	70.3743	2639.65	70.8965	2639.65	66.8916	2639.65	66.5541	2639.65	58.4942	2639.65	64.146	2639.65	61.665
2731.93	93.7886	2731.93	92.8026	2731.93	92.1978	2731.93	89.5976	2731.93	89.0752	2731.93	86.5028	2731.93	87.3586	2731.93	84.4566	2731.93	84.4514	2731.93	81.5606	2731.93	82.0767	2731.93	80.4043	2731.93	79.6329	2731.93	80.6454	2731.93	75.5622	2731.93	79.6138	2731.93	76.1212	2731.93	73.0433	2731.93	74.612	2731.93	72.4435	2731.93	70.862	2731.93	72.5409	2731.93	70.1236	2731.93	68.2967	2731.93	69.1584	2731.93	68.8234	2731.93	69.2603	2731.93	70.1313	2731.93	70.3701	2731.93	69.2151	2731.93	70.2036	2731.93	65.9244	2731.93	68.7157	2731.93	58.621	2731.93	67.7204	2731.93	62.6302
2828.61	93.6191	2828.61	92.2832	2828.61	92.6104	2828.61	89.7563	2828.61	89.6844	2828.61	87.0927	2828.61	87.5033	2828.61	84.6874	2828.61	85.8009	2828.61	82.257	2828.61	81.0425	2828.61	79.6587	2828.61	79.2906	2828.61	79.0835	2828.61	77.9588	2828.61	77.3141	2828.61	74.1762	2828.61	68.9783	2828.61	73.1767	2828.61	65.0292	2828.61	69.7505	2828.61	69.0089	2828.61	70.813	2828.61	68.6629	2828.61	69.7552	2828.61	72.41	2828.61	69.2433	2828.61	70.9119	2828.61	69.2085	2828.61	70.0225	2828.61	70.5776	2828.61	67.9712	2828.61	64.7999	2828.61	61.6684	2828.61	67.2819	2828.61	65.4184
2928.22	93.5656	2928.22	92.7675	2928.22	92.337	2928.22	90.4764	2928.22	90.2159	2928.22	87.9254	2928.22	88.2325	2928.22	85.2439	2928.22	85.1701	2928.22	82.452	2928.22	82.6748	2928.22	79.0313	2928.22	77.9834	2928.22	75.6736	2928.22	77.9099	2928.22	78.6013	2928.22	75.8306	2928.22	72.4077	2928.22	71.0983	2928.22	45.4799	2928.22	73.6242	2928.22	66.6347	2928.22	70.1738	2928.22	69.8736	2928.22	68.348	2928.22	68.1311	2928.22	69.58	2928.22	69.2379	2928.22	68.4231	2928.22	67.1843	2928.22	67.1844	2928.22	62.248	2928.22	67.4035	2928.22	57.2139	2928.22	68.164	2928.22	64.6928
3030.76	94.1386	3030.76	93.0138	3030.76	92.3622	3030.76	90.6967	3030.76	90.3128	3030.76	88.2752	3030.76	88.5182	3030.76	85.3355	3030.76	85.5177	3030.76	82.3395	3030.76	83.1272	3030.76	79.544	3030.76	80.5438	3030.76	77.5779	3030.76	77.1969	3030.76	77.9953	3030.76	75.6665	3030.76	65.79	3030.76	73.9508	3030.76	65.1785	3030.76	69.0615	3030.76	71.6466	3030.76	70.5925	3030.76	65.1093	3030.76	67.7259	3030.76	69.3493	3030.76	69.5817	3030.76	68.9028	3030.76	66.6415	3030.76	67.2276	3030.76	69.5454	3030.76	60.9961	3030.76	65.2156	3030.76	60.8067	3030.76	66.8787	3030.76	66.8536
3137.7	94.4589	3137.7	93.4615	3137.7	93.5163	3137.7	91.3974	3137.7	91.3054	3137.7	88.6322	3137.7	88.4899	3137.7	85.9779	3137.7	85.5361	3137.7	82.4768	3137.7	82.2847	3137.7	78.2017	3137.7	80.8577	3137.7	78.3822	3137.7	78.1113	3137.7	77.51	3137.7	75.2469	3137.7	73.9769	3137.7	71.9953	3137.7	71.2315	3137.7	71.6739	3137.7	72.5672	3137.7	69.3573	3137.7	70.5894	3137.7	69.3693	3137.7	67.6495	3137.7	68.3904	3137.7	65.4656	3137.7	67.0402	3137.7	64.6752	3137.7	67.6619	3137.7	59.6901	3137.7	68.7835	3137.7	58.462	3137.7	66.3497	3137.7	67.7953
3249.02	94.0015	3249.02	93.6196	3249.02	92.9518	3249.02	91.9013	3249.02	91.3349	3249.02	89.6269	3249.02	89.0531	3249.02	85.6924	3249.02	85.0922	3249.02	83.0629	3249.02	83.4136	3249.02	79.0826	3249.02	80.5726	3249.02	79.3953	3249.02	78.1726	3249.02	78.4336	3249.02	76.4673	3249.02	75.0555	3249.02	73.5111	3249.02	74.3161	3249.02	74.2089	3249.02	69.0547	3249.02	69.3599	3249.02	69.4017	3249.02	66.9434	3249.02	67.9887	3249.02	68.4822	3249.02	67.3477	3249.02	67.0611	3249.02	66.2038	3249.02	68.1774	3249.02	61.0487	3249.02	67.1439	3249.02	61.9245	3249.02	65.1025	3249.02	65.7974
3363.28	94.7443	3363.28	93.7067	3363.28	93.8831	3363.28	91.3688	3363.28	91.2935	3363.28	88.7379	3363.28	88.751	3363.28	86.4466	3363.28	86.4806	3363.28	83.5995	3363.28	83.2008	3363.28	80.4597	3363.28	80.2619	3363.28	80.9225	3363.28	79.1558	3363.28	76.5737	3363.28	74.5219	3363.28	73.906	3363.28	73.7437	3363.28	74.4956	3363.28	70.5606	3363.28	70.9426	3363.28	71.1457	3363.28	71.1987	3363.28	67.9125	3363.28	66.4289	3363.28	67.1957	3363.28	66.6231	3363.28	64.8796	3363.28	63.5216	3363.28	66.4279	3363.28	59.8347	3363.28	66.8003	3363.28	57.335	3363.28	62.9708	3363.28	65.9953
3481.93	94.7137	3481.93	94.0754	3481.93	93.6215	3481.93	91.7462	3481.93	91.8067	3481.93	89.1817	3481.93	88.8201	3481.93	86.4901	3481.93	85.5667	3481.93	83.5723	3481.93	84.4888	3481.93	81.0282	3481.93	80.9543	3481.93	81.0813	3481.93	77.3105	3481.93	74.6688	3481.93	72.8987	3481.93	74.6394	3481.93	71.3129	3481.93	75.3367	3481.93	68.1179	3481.93	69.5338	3481.93	69.2482	3481.93	69.6703	3481.93	70.1298	3481.93	65.2469	3481.93	67.0594	3481.93	65.0813	3481.93	63.5536	3481.93	63.429	3481.93	65.189	3481.93	60.0764	3481.93	65.6601	3481.93	62.482	3481.93	63.9839	3481.93	63.6045
3604.98	95.1241	3604.98	93.7842	3604.98	93.9095	3604.98	91.5828	3604.98	90.9749	3604.98	88.7853	3604.98	89.1465	3604.98	86.844	3604.98	85.7159	3604.98	83.4235	3604.98	83.5415	3604.98	81.2896	3604.98	80.7517	3604.98	79.4195	3604.98	76.9717	3604.98	67.392	3604.98	73.0279	3604.98	74.0782	3604.98	71.0227	3604.98	68.9766	3604.98	70.8415	3604.98	67.5429	3604.98	67.5429	3604.98	71.6852	3604.98	67.091	3604.98	62.8894	3604.98	65.3588	3604.98	65.8378	3604.98	62.7252	3604.98	64.3745	3604.98	65.9371	3604.98	61.605	3604.98	65.7592	3604.98	62.3547	3604.98	62.8357	3604.98	58.1359
3732.42	94.8354	3732.42	93.8421	3732.42	93.6357	3732.42	91.3697	3732.42	92.0575	3732.42	89.7287	3732.42	88.7869	3732.42	86.7359	3732.42	86.5752	3732.42	83.3761	3732.42	83.6208	3732.42	81.7188	3732.42	79.1448	3732.42	74.9835	3732.42	75.3172	3732.42	66.0085	3732.42	72.6045	3732.42	73.5169	3732.42	71.7366	3732.42	70.688	3732.42	69.0184	3732.42	67.2831	3732.42	67.2831	3732.42	68.8886	3732.42	65.7282	3732.42	62.5595	3732.42	67.1056	3732.42	66.1933	3732.42	64.8678	3732.42	64.6451	3732.42	66.1335	3732.42	61.0937	3732.42	63.9057	3732.42	63.1818	3732.42	64.3459	3732.42	58.188
3864.26	95.1847	3864.26	94.0748	3864.26	93.6497	3864.26	91.83	3864.26	91.7518	3864.26	88.8028	3864.26	89.6279	3864.26	87.1606	3864.26	86.1582	3864.26	83.6448	3864.26	83.5076	3864.26	81.8648	3864.26	77.3921	3864.26	70.9244	3864.26	74.6886	3864.26	69.7065	3864.26	72.2214	3864.26	71.1119	3864.26	70.6251	3864.26	61.6115	3864.26	69.9459	3864.26	68.4272	3864.26	68.4272	3864.26	68.2808	3864.26	66.5126	3864.26	66.3958	3864.26	67.905	3864.26	66.3902	3864.26	65.2876	3864.26	65.869	3864.26	66.5814	3864.26	64.5985	3864.26	66.8751	3864.26	61.5683	3864.26	63.7109	3864.26	59.0493
4000.49	94.3251	4000.49	93.8395	4000.49	93.4895	4000.49	92.0562	4000.49	92.6957	4000.49	89.4434	4000.49	89.0814	4000.49	85.4441	4000.49	86.4653	4000.49	83.5169	4000.49	83.0154	4000.49	80.4817	4000.49	77.2229	4000.49	66.8299	4000.49	75.8399	4000.49	72.2122	4000.49	75.0885	4000.49	68.0151	4000.49	72.6004	4000.49	72.4628	4000.49	67.6133	4000.49	69.0065	4000.49	69.0065	4000.49	56.6884	4000.49	67.7972	4000.49	65.7483	4000.49	66.908	4000.49	66.6301	4000.49	65.7685	4000.49	66.2456	4000.49	67.2166	4000.49	63.1785	4000.49	69.1224	4000.49	61.8682	4000.49	66.9636	4000.49	63.0181
4141.11	94.4958	4141.11	94.2565	4141.11	93.6557	4141.11	92.3941	4141.11	92.2421	4141.11	89.0314	4141.11	89.2926	4141.11	85.3729	4141.11	85.5776	4141.11	83.3599	4141.11	82.015	4141.11	77.4035	4141.11	78.3216	4141.11	74.7842	4141.11	76.3729	4141.11	73.4025	4141.11	74.1462	4141.11	71.648	4141.11	72.0992	4141.11	70.9638	4141.11	69.973	4141.11	68.3816	4141.11	68.3816	4141.11	67.4837	4141.11	69.8119	4141.11	66.1893	4141.11	68.0904	4141.11	63.8692	4141.11	65.2967	4141.11	65.5869	4141.11	66.7519	4141.11	65.7612	4141.11	67.3893	4141.11	62.2317	4141.11	66.3237	4141.11	63.3073
4287.6	94.2157	4287.6	94.3422	4287.6	93.6971	4287.6	92.5659	4287.6	92.3602	4287.6	88.7053	4287.6	88.1469	4287.6	85.1311	4287.6	85.4569	4287.6	84.2664	4287.6	81.4852	4287.6	78.1585	4287.6	78.7379	4287.6	75.276	4287.6	77.4875	4287.6	75.8405	4287.6	73.8439	4287.6	74.9061	4287.6	71.7704	4287.6	55.6292	4287.6	67.4172	4287.6	65.7938	4287.6	65.7938	4287.6	72.849	4287.6	67.3813	4287.6	66.7157	4287.6	63.0922	4287.6	62.4336	4287.6	64.9058	4287.6	66.3138	4287.6	65.2192	4287.6	64.5719	4287.6	64.7115	4287.6	62.8832	4287.6	62.6133	4287.6	61.9421
4438.48	94.5768	4438.48	93.9522	4438.48	94.0697	4438.48	92.3936	4438.48	91.0254	4438.48	88.8663	4438.48	88.4991	4438.48	85.7955	4438.48	85.8896	4438.48	84.24	4438.48	82.8291	4438.48	77.9762	4438.48	79.396	4438.48	77.8923	4438.48	75.7781	4438.48	79.8432	4438.48	73.9946	4438.48	74.1586	4438.48	71.9947	4438.48	72.7144	4438.48	70.3818	4438.48	68.3453	4438.48	68.3453	4438.48	74.1298	4438.48	67.8572	4438.48	61.0228	4438.48	66.2575	4438.48	65.8678	4438.48	63.6349	4438.48	64.8059	4438.48	64.7856	4438.48	62.5909	4438.48	65.7657	4438.48	60.3152	4438.48	63.1816	4438.48	62.9943
4595.21	94.3481	4595.21	94.2567	4595.21	93.7718	4595.21	92.6222	4595.21	92.2117	4595.21	89.081	4595.21	89.5796	4595.21	87.2076	4595.21	86.2479	4595.21	84.3223	4595.21	82.5531	4595.21	77.4626	4595.21	79.0595	4595.21	78.0384	4595.21	77.0253	4595.21	79.9228	4595.21	72.4523	4595.21	70.8012	4595.21	72.238	4595.21	76.3561	4595.21	69.0664	4595.21	67.0662	4595.21	67.0662	4595.21	71.5145	4595.21	66.5986	4595.21	62.6315	4595.21	66.1424	4595.21	64.121	4595.21	64.6319	4595.21	62.4394	4595.21	64.2895	4595.21	61.2605	4595.21	65.8709	4595.21	56.07	4595.21	63.3998	4595.21	64.2341
4756.35	94.5212	4756.35	93.0799	4756.35	94.0332	4756.35	92.1388	4756.35	91.8053	4756.35	90.1906	4756.35	89.0816	4756.35	86.8471	4756.35	85.4182	4756.35	83.4681	4756.35	81.353	4756.35	78.0817	4756.35	77.5894	4756.35	78.4158	4756.35	73.7489	4756.35	75.9119	4756.35	71.909	4756.35	66.7933	4756.35	69.6587	4756.35	76.848	4756.35	69.9283	4756.35	66.6402	4756.35	66.6402	4756.35	64.8288	4756.35	65.1447	4756.35	66.8858	4756.35	65.2543	4756.35	62.1344	4756.35	63.6927	4756.35	62.5846	4756.35	62.3059	4756.35	59.1634	4756.35	63.6093	4756.35	57.1276	4756.35	61.1625	4756.35	62.6336
4924.8	93.8077	4924.8	92.9909	4924.8	93.065	4924.8	92.6905	4924.8	91.8679	4924.8	89.4101	4924.8	89.3225	4924.8	86.5348	4924.8	84.3491	4924.8	82.9364	4924.8	81.6234	4924.8	76.7154	4924.8	79.1263	4924.8	78.6747	4924.8	74.8251	4924.8	69.308	4924.8	71.7411	4924.8	69.9069	4924.8	69.3891	4924.8	75.05	4924.8	66.5261	4924.8	65.8129	4924.8	65.8129	4924.8	69.7059	4924.8	64.0928	4924.8	67.8459	4924.8	63.0424	4924.8	59.7489	4924.8	63.2932	4924.8	58.5303	4924.8	62.5978	4924.8	57.9377	4924.8	62.5865	4924.8	57.8515	4924.8	58.8994	4924.8	60.6178
5097.66	93.5434	5097.66	93.5617	5097.66	93.2886	5097.66	92.0521	5097.66	92.245	5097.66	90.3286	5097.66	88.7533	5097.66	86.076	5097.66	84.9217	5097.66	83.6656	5097.66	82.2343	5097.66	80.0057	5097.66	77.4255	5097.66	76.0354	5097.66	71.5424	5097.66	68.862	5097.66	68.9579	5097.66	70.5657	5097.66	69.1903	5097.66	66.2878	5097.66	68.7097	5097.66	65.4486	5097.66	65.4486	5097.66	70.3319	5097.66	64.684	5097.66	68.0329	5097.66	63.4255	5097.66	61.8956	5097.66	65.7854	5097.66	61.7118	5097.66	63.5942	5097.66	57.7387	5097.66	61.179	5097.66	55.0959	5097.66	62.0091	5097.66	60.4887
5277.83	93.6526	5277.83	93.7653	5277.83	93.9256	5277.83	92.4511	5277.83	92.0519	5277.83	89.866	5277.83	89.2854	5277.83	87.022	5277.83	85.1348	5277.83	83.0341	5277.83	83.2165	5277.83	79.51	5277.83	78.3864	5277.83	74.4727	5277.83	74.6257	5277.83	68.1963	5277.83	73.2232	5277.83	70.4117	5277.83	69.4699	5277.83	68.0973	5277.83	65.6057	5277.83	68.7663	5277.83	68.7663	5277.83	65.8812	5277.83	67.3181	5277.83	58.3387	5277.83	64.1033	5277.83	64.2169	5277.83	62.5753	5277.83	63.6794	5277.83	61.8397	5277.83	60.8277	5277.83	61.652	5277.83	60.3101	5277.83	61.7064	5277.83	59.7733
5463.87	94.0548	5463.87	94.2851	5463.87	93.9757	5463.87	92.3974	5463.87	92.419	5463.87	90.1895	5463.87	89.743	5463.87	86.7243	5463.87	86.2251	5463.87	82.8612	5463.87	82.6822	5463.87	79.4656	5463.87	76.8965	5463.87	74.5086	5463.87	74.7663	5463.87	71.8252	5463.87	71.9272	5463.87	68.1451	5463.87	70.4057	5463.87	69.8692	5463.87	69.1455	5463.87	66.5851	5463.87	66.5851	5463.87	59.3567	5463.87	64.6436	5463.87	65.1401	5463.87	62.6533	5463.87	65.3956	5463.87	64.8151	5463.87	62.9706	5463.87	66.5972	5463.87	60.4624	5463.87	62.1474	5463.87	57.7478	5463.87	55.8635	5463.87	58.9498
5657.23	94.4271	5657.23	95.0277	5657.23	94.5105	5657.23	93.2152	5657.23	93.3464	5657.23	89.9628	5657.23	90.0628	5657.23	87.272	5657.23	86.4114	5657.23	82.0908	5657.23	82.9314	5657.23	81.1673	5657.23	79.6097	5657.23	77.339	5657.23	77.3235	5657.23	76.3596	5657.23	75.1739	5657.23	70.2997	5657.23	71.267	5657.23	72.5658	5657.23	65.8063	5657.23	67.4725	5657.23	67.4725	5657.23	68.9583	5657.23	68.5933	5657.23	69.4516	5657.23	66.6122	5657.23	65.0116	5657.23	65.4191	5657.23	61.9866	5657.23	63.8774	5657.23	60.668	5657.23	63.9005	5657.23	59.8228	5657.23	56.4847	5657.23	59.5901
5856.45	95.1389	5856.45	94.9538	5856.45	94.8115	5856.45	93.2788	5856.45	93.5286	5856.45	90.534	5856.45	90.1046	5856.45	86.9198	5856.45	86.8053	5856.45	82.9137	5856.45	83.3593	5856.45	79.5046	5856.45	80.6809	5856.45	77.8878	5856.45	77.4684	5856.45	74.8045	5856.45	73.8588	5856.45	72.1296	5856.45	72.4294	5856.45	69.5257	5856.45	69.1448	5856.45	68.1488	5856.45	68.1488	5856.45	72.4025	5856.45	65.8708	5856.45	60.8358	5856.45	62.2121	5856.45	64.8518	5856.45	64.1218	5856.45	64.1521	5856.45	65.8453	5856.45	63.0257	5856.45	62.0025	5856.45	58.3833	5856.45	57.8527	5856.45	51.7463
6062.99	95.0021	6062.99	94.2798	6062.99	94.7004	6062.99	94.2371	6062.99	93.5284	6062.99	89.5973	6062.99	89.8683	6062.99	87.6938	6062.99	86.9892	6062.99	82.6744	6062.99	82.6617	6062.99	79.5675	6062.99	79.5257	6062.99	77.5701	6062.99	76.4924	6062.99	72.4295	6062.99	73.3813	6062.99	73.2204	6062.99	70.6804	6062.99	63.8181	6062.99	63.7308	6062.99	64.9061	6062.99	64.9061	6062.99	70.3267	6062.99	65.1783	6062.99	55.5388	6062.99	63.4364	6062.99	60.4543	6062.99	64.318	6062.99	62.0982	6062.99	62.8867	6062.99	62.453	6062.99	63.4141	6062.99	53.0717	6062.99	56.6072	6062.99	60.3422
6276.86	94.3457	6276.86	94.3566	6276.86	94.3864	6276.86	94.2759	6276.86	93.4905	6276.86	90.0931	6276.86	89.2168	6276.86	86.8687	6276.86	86.3332	6276.86	81.6961	6276.86	82.255	6276.86	78.8955	6276.86	79.9171	6276.86	75.4114	6276.86	74.7266	6276.86	71.5503	6276.86	71.8387	6276.86	71.9796	6276.86	68.9839	6276.86	67.4195	6276.86	67.1337	6276.86	65.9055	6276.86	65.9055	6276.86	67.7718	6276.86	66.7294	6276.86	66.1255	6276.86	63.3998	6276.86	56.1913	6276.86	61.2089	6276.86	56.6169	6276.86	61.8528	6276.86	58.4378	6276.86	61.2218	6276.86	49.9896	6276.86	45.2278	6276.86	59.6297
6498.05	93.6273	6498.05	93.9898	6498.05	93.9178	6498.05	93.3029	6498.05	92.8402	6498.05	89.9595	6498.05	89.0253	6498.05	85.7736	6498.05	85.6764	6498.05	80.1953	6498.05	82.1075	6498.05	79.4657	6498.05	78.9328	6498.05	73.1147	6498.05	75.1133	6498.05	73.9474	6498.05	71.1422	6498.05	73.3114	6498.05	69.8708	6498.05	69.8774	6498.05	64.8635	6498.05	61.628	6498.05	61.628	6498.05	68.2693	6498.05	65.1345	6498.05	63.4116	6498.05	62.127	6498.05	56.617	6498.05	60.2793	6498.05	60.6035	6498.05	61.9328	6498.05	58.1033	6498.05	62.2291	6498.05	56.6466	6498.05	57.6483	6498.05	58.4728
6726.56	93.7934	6726.56	94.0683	6726.56	93.889	6726.56	93.2485	6726.56	93.1161	6726.56	89.1859	6726.56	88.6302	6726.56	85.3764	6726.56	85.6026	6726.56	80.6823	6726.56	81.6149	6726.56	79.5194	6726.56	78.3287	6726.56	73.6398	6726.56	74.3224	6726.56	75.2265	6726.56	71.1385	6726.56	71.8086	6726.56	67.0542	6726.56	67.0298	6726.56	65.828	6726.56	64.209	6726.56	64.209	6726.56	70.7438	6726.56	62.786	6726.56	57.1776	6726.56	60.3697	6726.56	48.7505	6726.56	61.797	6726.56	62.3391	6726.56	63.1441	6726.56	58.0612	6726.56	63.422	6726.56	58.5628	6726.56	59.3733	6726.56	56.4545
6963.87	93.8064	6963.87	94.5355	6963.87	94.2449	6963.87	93.393	6963.87	93.116	6963.87	89.5507	6963.87	89.0538	6963.87	86.0286	6963.87	85.4834	6963.87	82.7559	6963.87	81.5312	6963.87	77.8747	6963.87	76.0577	6963.87	75.2839	6963.87	73.8693	6963.87	74.2028	6963.87	70.5263	6963.87	69.0693	6963.87	69.3072	6963.87	64.4717	6963.87	66.0748	6963.87	61.2137	6963.87	61.2137	6963.87	68.5131	6963.87	62.285	6963.87	55.1435	6963.87	59.4116	6963.87	55.5194	6963.87	58.8112	6963.87	58.2505	6963.87	62.2035	6963.87	59.4954	6963.87	60.554	6963.87	55.0848	6963.87	54.9047	6963.87	53.1501
7209.96	93.949	7209.96	95.1514	7209.96	94.8956	7209.96	93.7274	7209.96	93.2065	7209.96	89.9699	7209.96	89.6883	7209.96	86.4506	7209.96	86.1013	7209.96	82.5959	7209.96	81.6968	7209.96	78.1976	7209.96	77.764	7209.96	76.5374	7209.96	74.3732	7209.96	70.439	7209.96	70.4249	7209.96	71.7448	7209.96	64.5927	7209.96	73.4718	7209.96	63.5322	7209.96	62.3198	7209.96	62.3198	7209.96	65.9283	7209.96	64.0872	7209.96	55.2487	7209.96	63.9053	7209.96	59.8409	7209.96	59.5904	7209.96	59.7727	7209.96	63.2569	7209.96	57.6802	7209.96	63.9405	7209.96	27.7259	7209.96	58.0267	7209.96	52.6316
7464.84	94.1991	7464.84	94.9146	7464.84	94.9843	7464.84	94.5719	7464.84	93.5984	7464.84	90.539	7464.84	89.9296	7464.84	87.476	7464.84	86.2004	7464.84	83.8983	7464.84	80.6703	7464.84	80.3018	7464.84	76.1174	7464.84	74.7625	7464.84	72.9393	7464.84	67.8889	7464.84	68.2636	7464.84	69.5034	7464.84	67.361	7464.84	75.6824	7464.84	62.2677	7464.84	64.526	7464.84	64.526	7464.84	70.7902	7464.84	60.6948	7464.84	57.7764	7464.84	61.8432	7464.84	64.3648	7464.84	59.707	7464.84	60.2205	7464.84	64.4745	7464.84	63.1784	7464.84	63.7623	7464.84	54.0126	7464.84	59.6779	7464.84	54.4397
7727.05	93.9497	7727.05	94.9534	7727.05	94.9617	7727.05	94.9986	7727.05	93.939	7727.05	90.6823	7727.05	90.0488	7727.05	88.0895	7727.05	86.7584	7727.05	83.1504	7727.05	79.7731	7727.05	80.9152	7727.05	77.7098	7727.05	74.9907	7727.05	72.4849	7727.05	71.6385	7727.05	71.6494	7727.05	63.0562	7727.05	67.0684	7727.05	76.1839	7727.05	64.8917	7727.05	61.1274	7727.05	61.1274	7727.05	72.8484	7727.05	60.1918	7727.05	55.8933	7727.05	60.451	7727.05	62.4166	7727.05	57.0903	7727.05	64.1996	7727.05	63.1795	7727.05	62.2661	7727.05	62.0248	7727.05	54.3762	7727.05	51.4728	7727.05	49.2599
7999.51	93.7765	7999.51	95.402	7999.51	95.5886	7999.51	94.2922	7999.51	94.0216	7999.51	91.6072	7999.51	90.1635	7999.51	88.2028	7999.51	86.7342	7999.51	83.4573	7999.51	80.9172	7999.51	79.8633	7999.51	78.1961	7999.51	73.0772	7999.51	74.2431	7999.51	73.9851	7999.51	72.2205	7999.51	63.9761	7999.51	67.708	7999.51	73.762	7999.51	62.5907	7999.51	60.3563	7999.51	60.3563	7999.51	73.7799	7999.51	60.8793	7999.51	65.2175	7999.51	62.4366	7999.51	47.5762	7999.51	54.3591	7999.51	65.0789	7999.51	64.276	7999.51	58.8922	7999.51	63.4526	7999.51	54.0067	7999.51	57.0174	7999.51	56.5693
8282.23	93.5489	8282.23	95.5358	8282.23	95.8011	8282.23	94.2852	8282.23	94.63	8282.23	92.2092	8282.23	90.4323	8282.23	88.0761	8282.23	87.0854	8282.23	84.5871	8282.23	81.2254	8282.23	76.3206	8282.23	78.4178	8282.23	74.1598	8282.23	74.5228	8282.23	73.6426	8282.23	71.4249	8282.23	67.4959	8282.23	68.5906	8282.23	72.5663	8282.23	60.1724	8282.23	63.7592	8282.23	63.7592	8282.23	71.3162	8282.23	62.0025	8282.23	68.8107	8282.23	60.4525	8282.23	58.2066	8282.23	61.1616	8282.23	58.9218	8282.23	61.5882	8282.23	60.5751	8282.23	61.392	8282.23	46.0312	8282.23	56.6964	8282.23	46.839
8573.73	93.2633	8573.73	94.7908	8573.73	94.9955	8573.73	94.3506	8573.73	94.4491	8573.73	91.5283	8573.73	90.4783	8573.73	87.0751	8573.73	86.8171	8573.73	85.0158	8573.73	81.3325	8573.73	69.1519	8573.73	78.8357	8573.73	71.6796	8573.73	74.5305	8573.73	72.7485	8573.73	70.7781	8573.73	67.2744	8573.73	69.4098	8573.73	73.7446	8573.73	58.7692	8573.73	63.5903	8573.73	63.5903	8573.73	66.028	8573.73	63.6629	8573.73	66.8475	8573.73	57.5008	8573.73	60.1053	8573.73	62.6718	8573.73	56.604	8573.73	62.5231	8573.73	60.1954	8573.73	62.3219	8573.73	43.0307	8573.73	55.7241	8573.73	47.4086
8876.95	92.2528	8876.95	94.0717	8876.95	94.4747	8876.95	94.0729	8876.95	93.9445	8876.95	89.9482	8876.95	89.6114	8876.95	86.0947	8876.95	86.0139	8876.95	83.0185	8876.95	80.7656	8876.95	74.0694	8876.95	77.8892	8876.95	70.3429	8876.95	73.5039	8876.95	71.1827	8876.95	69.5224	8876.95	62.4662	8876.95	67.4455	8876.95	73.2118	8876.95	57.9918	8876.95	60.9153	8876.95	60.9153	8876.95	58.436	8876.95	62.6112	8876.95	64.4058	8876.95	59.2603	8876.95	62.0221	8876.95	60.4427	8876.95	51.4875	8876.95	62.3148	8876.95	58.9484	8876.95	58.654	8876.95	30.8033	8876.95	50.8181	8876.95	47.9947
9188.96	91.3944	9188.96	93.3297	9188.96	93.496	9188.96	93.2481	9188.96	93.2813	9188.96	89.1243	9188.96	89.0966	9188.96	85.6276	9188.96	85.3046	9188.96	76.5805	9188.96	79.8139	9188.96	76.7678	9188.96	77.24	9188.96	72.3623	9188.96	71.6982	9188.96	67.6794	9188.96	67.3239	9188.96	62.3454	9188.96	63.2676	9188.96	69.1606	9188.96	60.1134	9188.96	52.2744	9188.96	52.2744	9188.96	48.9289	9188.96	58.7145	9188.96	65.3287	9188.96	59.757	9188.96	62.0634	9188.96	56.7062	9188.96	44.3102	9188.96	60.7648	9188.96	59.0085	9188.96	60.1497	9188.96	43.2506	9188.96	45.8157	9188.96	45.1848
9514.16	91.8127	9514.16	93.4518	9514.16	93.2789	9514.16	93.6353	9514.16	93.5351	9514.16	89.1095	9514.16	88.9886	9514.16	87.055	9514.16	84.9124	9514.16	67.638	9514.16	80.2144	9514.16	75.6181	9514.16	75.9816	9514.16	72.887	9514.16	69.641	9514.16	63.6686	9514.16	66.9532	9514.16	62.7101	9514.16	63.5433	9514.16	68.03	9514.16	62.5373	9514.16	58.8795	9514.16	58.8795	9514.16	64.5644	9514.16	53.0434	9514.16	65.5847	9514.16	57.7608	9514.16	58.4705	9514.16	54.1903	9514.16	56.4344	9514.16	58.1717	9514.16	54.5329	9514.16	58.9584	9514.16	35.1071	9514.16	31.7319	9514.16	48.6267
9849.61	93.0211	9849.61	94.62	9849.61	94.035	9849.61	94.4228	9849.61	94.3164	9849.61	90.5195	9849.61	89.5675	9849.61	88.9171	9849.61	86.1852	9849.61	78.0898	9849.61	80.3217	9849.61	77.1238	9849.61	75.4796	9849.61	71.057	9849.61	70.6542	9849.61	65.4399	9849.61	67.4081	9849.61	65.8324	9849.61	64.4808	9849.61	64.9614	9849.61	63.4632	9849.61	58.8899	9849.61	58.8899	9849.61	66.0702	9849.61	52.0394	9849.61	70.481	9849.61	60.0316	9849.61	53.3962	9849.61	55.2749	9849.61	57.2263	9849.61	59.4865	9849.61	52.3861	9849.61	60.3669	9849.61	43.7368	9849.61	51.7474	9849.61	50.9992
10196.8	94.1474	10196.8	95.5293	10196.8	94.8059	10196.8	95.5582	10196.8	95.3626	10196.8	91.8275	10196.8	90.6119	10196.8	88.8283	10196.8	86.8751	10196.8	81.3727	10196.8	80.9362	10196.8	76.9259	10196.8	75.8395	10196.8	71.3958	10196.8	72.901	10196.8	67.8856	10196.8	69.2734	10196.8	69.9445	10196.8	65.5039	10196.8	57.8712	10196.8	62.925	10196.8	58.3223	10196.8	58.3223	10196.8	65.7035	10196.8	53.18	10196.8	69.0949	10196.8	61.0437	10196.8	58.5718	10196.8	58.8654	10196.8	59.9467	10196.8	60.1407	10196.8	54.7348	10196.8	58.1453	10196.8	51.4728	10196.8	51.4768	10196.8	49.2349
10555.7	94.6151	10555.7	95.3732	10555.7	94.7144	10555.7	95.732	10555.7	95.751	10555.7	92.4202	10555.7	90.7539	10555.7	87.1838	10555.7	87.1876	10555.7	83.0275	10555.7	80.2185	10555.7	77.2198	10555.7	76.538	10555.7	73.8136	10555.7	72.8202	10555.7	67.64	10555.7	67.1485	10555.7	68.3995	10555.7	64.3983	10555.7	59.9344	10555.7	60.6098	10555.7	57.8734	10555.7	57.8734	10555.7	67.8772	10555.7	50.9969	10555.7	66.4305	10555.7	57.4618	10555.7	61.1835	10555.7	59.8952	10555.7	55.7644	10555.7	62.7511	10555.7	51.5366	10555.7	59.6623	10555.7	47.348	10555.7	54.3636	10555.7	51.7891
10927.7	94.3625	10927.7	95.0889	10927.7	94.4727	10927.7	95.2219	10927.7	95.6479	10927.7	91.9859	10927.7	90.8746	10927.7	84.5974	10927.7	86.6398	10927.7	83.5072	10927.7	80.1711	10927.7	77.0153	10927.7	75.8079	10927.7	65.8873	10927.7	71.1205	10927.7	70.3089	10927.7	66.7973	10927.7	65.8296	10927.7	64.4332	10927.7	60.3238	10927.7	57.9418	10927.7	54.8972	10927.7	54.8972	10927.7	66.7849	10927.7	43.6568	10927.7	60.9216	10927.7	57.1846	10927.7	59.4206	10927.7	55.8721	10927.7	53.8438	10927.7	62.5877	10927.7	43.747	10927.7	56.0021	10927.7	46.6121	10927.7	52.4913	10927.7	52.506
11313	93.7954	11313	94.1937	11313	94.0144	11313	94.5444	11313	95.0441	11313	90.5986	11313	89.9999	11313	84.386	11313	86.0963	11313	82.8192	11313	79.5319	11313	76.0849	11313	75.1057	11313	71.4178	11313	70.5906	11313	70.4577	11313	65.4447	11313	57.0366	11313	62.9142	11313	57.3798	11313	58.3759	11313	50.4322	11313	50.4322	11313	60.1674	11313	52.9941	11313	54.2209	11313	55.001	11313	57.831	11313	54.5878	11313	53.5054	11313	61.96	11313	41.904	11313	56.3538	11313	48.8187	11313	53.5259	11313	53.5787
11712.9	93.7064	11712.9	93.5344	11712.9	93.5904	11712.9	94.0289	11712.9	94.5989	11712.9	89.4583	11712.9	89.376	11712.9	84.6664	11712.9	85.2443	11712.9	78.701	11712.9	78.7405	11712.9	72.0758	11712.9	74.035	11712.9	74.2832	11712.9	68.6332	11712.9	62.8567	11712.9	65.3551	11712.9	62.8482	11712.9	63.8151	11712.9	58.7561	11712.9	59.194	11712.9	45.8142	11712.9	45.8142	11712.9	54.5689	11712.9	49.7129	11712.9	55.0727	11712.9	56.4407	11712.9	58.6723	11712.9	56.5112	11712.9	49.2185	11712.9	61.2295	11712.9	52.8236	11712.9	49.2592	11712.9	53.4346	11712.9	48.7764	11712.9	51.8069
12126	93.945	12126	93.7887	12126	93.7569	12126	94.1876	12126	94.135	12126	89.0282	12126	88.5277	12126	84.5954	12126	84.7505	12126	75.1263	12126	78.7631	12126	71.9794	12126	72.3021	12126	66.3792	12126	68.9033	12126	68.6605	12126	66.492	12126	64.8987	12126	62.452	12126	63.3137	12126	55.9822	12126	47.4516	12126	47.4516	12126	63.8836	12126	52.5883	12126	57.3291	12126	51.7721	12126	57.1689	12126	57.0384	12126	49.3707	12126	58.8803	12126	51.5711	12126	43.9296	12126	56.8143	12126	54.4283	12126	54.5887
12553.7	94.7768	12553.7	94.3704	12553.7	94.442	12553.7	94.3159	12553.7	94.3008	12553.7	89.0677	12553.7	88.1843	12553.7	84.1284	12553.7	84.4444	12553.7	78.5619	12553.7	77.9203	12553.7	76.9897	12553.7	72.525	12553.7	69.2489	12553.7	70.3117	12553.7	64.3509	12553.7	65.9698	12553.7	59.0849	12553.7	60.7787	12553.7	62.9284	12553.7	55.7302	12553.7	26.5595	12553.7	26.5595	12553.7	64.8354	12553.7	45.3902	12553.7	59.5437	12553.7	46.0169	12553.7	57.8456	12553.7	56.7926	12553.7	47.8427	12553.7	59.0672	12553.7	54.231	12553.7	49.6569	12553.7	59.1655	12553.7	55.0532	12553.7	56.6037
12996.1	95.5386	12996.1	95.2046	12996.1	95.1931	12996.1	94.4815	12996.1	94.5595	12996.1	89.1571	12996.1	88.133	12996.1	85.1016	12996.1	84.0526	12996.1	80.267	12996.1	78.3341	12996.1	75.7368	12996.1	71.9072	12996.1	69.43	12996.1	69.7214	12996.1	62.2693	12996.1	64.7005	12996.1	63.6629	12996.1	59.4506	12996.1	61.1072	12996.1	58.9098	12996.1	40.9483	12996.1	40.9483	12996.1	60.9398	12996.1	48.6011	12996.1	62.8416	12996.1	49.9457	12996.1	56.8657	12996.1	54.6011	12996.1	47.8656	12996.1	58.8625	12996.1	55.2092	12996.1	47.2242	12996.1	60.1004	12996.1	56.0122	12996.1	59.806
13454.6	95.8001	13454.6	95.271	13454.6	95.3879	13454.6	94.3003	13454.6	94.6038	13454.6	89.1671	13454.6	88.1399	13454.6	85.0212	13454.6	83.5972	13454.6	78.0972	13454.6	77.9164	13454.6	69.7904	13454.6	72.9652	13454.6	65.149	13454.6	69.0636	13454.6	69.0775	13454.6	64.7748	13454.6	57.7629	13454.6	57.9247	13454.6	56.4858	13454.6	49.7188	13454.6	57.473	13454.6	57.473	13454.6	60.568	13454.6	46.4566	13454.6	61.8518	13454.6	54.1305	13454.6	51.4257	13454.6	50.6614	13454.6	48.4419	13454.6	56.2928	13454.6	55.4455	13454.6	45.2119	13454.6	62.4921	13454.6	57.4519	13454.6	63.1848
13929.2	94.9689	13929.2	94.6772	13929.2	94.649	13929.2	93.5301	13929.2	93.7666	13929.2	88.4593	13929.2	87.2155	13929.2	84.0903	13929.2	82.138	13929.2	77.7924	13929.2	76.7821	13929.2	70.1933	13929.2	71.8023	13929.2	68.978	13929.2	66.8317	13929.2	63.721	13929.2	58.217	13929.2	59.2044	13929.2	58.7705	13929.2	57.2709	13929.2	60.7136	13929.2	45.877	13929.2	45.877	13929.2	54.5593	13929.2	38.6151	13929.2	60.7235	13929.2	53.9	13929.2	48.253	13929.2	46.5077	13929.2	42.9041	13929.2	50.4709	13929.2	57.4406	13929.2	52.3339	13929.2	62.9467	13929.2	54.5875	13929.2	66.0407
14419.9	93.8039	14419.9	93.4057	14419.9	93.8714	14419.9	92.3842	14419.9	93.0478	14419.9	86.844	14419.9	86.6193	14419.9	82.9098	14419.9	81.9883	14419.9	76.8737	14419.9	76.2372	14419.9	66.1153	14419.9	71.6053	14419.9	67.9514	14419.9	65.1222	14419.9	61.2324	14419.9	61.1227	14419.9	60.7939	14419.9	56.9744	14419.9	54.2123	14419.9	53.9641	14419.9	51.721	14419.9	51.721	14419.9	53.3967	14419.9	39.4099	14419.9	56.1384	14419.9	48.7251	14419.9	36.9632	14419.9	44.5698	14419.9	41.474	14419.9	51.6794	14419.9	55.4187	14419.9	54.8041	14419.9	61.1898	14419.9	54.3099	14419.9	67.1213
14928.2	93.3677	14928.2	93.0287	14928.2	94.0327	14928.2	91.3596	14928.2	93.7005	14928.2	85.858	14928.2	87.5636	14928.2	81.5151	14928.2	82.7519	14928.2	75.6656	14928.2	77.069	14928.2	70.4224	14928.2	72.8283	14928.2	64.9652	14928.2	65.1759	14928.2	58.3511	14928.2	59.3403	14928.2	45.4752	14928.2	57.7791	14928.2	57.325	14928.2	56.5139	14928.2	45.3215	14928.2	45.3215	14928.2	63.3032	14928.2	45.3197	14928.2	57.4505	14928.2	51.0856	14928.2	51.0068	14928.2	33.5853	14928.2	45.6011	14928.2	50.23	14928.2	54.9217	14928.2	56.7579	14928.2	60.7056	14928.2	58.1793	14928.2	69.2277
15455.6	94.5333	15455.6	95.128	15455.6	94.9526	15455.6	94.3077	15455.6	93.8732	15455.6	89.5318	15455.6	86.9315	15455.6	85.3777	15455.6	81.3581	15455.6	79.0303	15455.6	76.1729	15455.6	73.9981	15455.6	72.5092	15455.6	66.0785	15455.6	62.1072	15455.6	63.669	15455.6	61.5128	15455.6	63.0329	15455.6	60.1755	15455.6	58.8804	15455.6	55.2743	15455.6	47.9086	15455.6	47.9086	15455.6	68.4988	15455.6	56.9651	15455.6	59.3592	15455.6	55.3346	15455.6	55.8248	15455.6	48.9655	15455.6	49.0982	15455.6	39.3174	15455.6	61.1569	15455.6	57.0978	15455.6	68.2881	15455.6	56.8166	15455.6	73.1818
16000.5	93.8677	16000.5	94.8043	16000.5	94.5603	16000.5	94.2221	16000.5	93.3632	16000.5	89.2754	16000.5	85.7344	16000.5	85.1483	16000.5	80.035	16000.5	76.1365	16000.5	74.8574	16000.5	70.79	16000.5	70.4703	16000.5	68.1998	16000.5	62.5111	16000.5	65.6076	16000.5	60.3983	16000.5	62.1653	16000.5	52.47	16000.5	56.3647	16000.5	58.0306	16000.5	45.3958	16000.5	45.3958	16000.5	64.7011	16000.5	46.6818	16000.5	58.3839	16000.5	50.3545	16000.5	57.4535	16000.5	52.8929	16000.5	49.3269	16000.5	49.6806	16000.5	61.4747	16000.5	55.2805	16000.5	68.4759	16000.5	57.9097	16000.5	75.3232
16564.5	93.8543	16564.5	94.5488	16564.5	94.2127	16564.5	94.7154	16564.5	93.4607	16564.5	89.9172	16564.5	85.8918	16564.5	86.251	16564.5	80.4488	16564.5	77.9899	16564.5	75.7979	16564.5	72.1793	16564.5	70.7308	16564.5	67.4067	16564.5	65.9258	16564.5	62.8991	16564.5	56.9706	16564.5	62.9049	16564.5	52.3634	16564.5	52.6102	16564.5	54.3972	16564.5	54.2071	16564.5	54.2071	16564.5	51.1196	16564.5	55.5704	16564.5	61.7218	16564.5	46.5017	16564.5	59.1623	16564.5	56.4022	16564.5	55.9552	16564.5	57.0412	16564.5	56.4633	16564.5	50.3728	16564.5	69.2572	16564.5	53.2316	16564.5	77.7776
17148.9	92.1751	17148.9	92.1927	17148.9	91.8323	17148.9	92.5605	17148.9	91.7607	17148.9	87.7867	17148.9	84.4542	17148.9	84.4274	17148.9	79.2543	17148.9	76.2874	17148.9	74.0142	17148.9	71.4484	17148.9	68.0755	17148.9	64.4585	17148.9	62.9924	17148.9	54.1536	17148.9	54.195	17148.9	45.0811	17148.9	37.1293	17148.9	48.9311	17148.9	50.3888	17148.9	57.8487	17148.9	57.8487	17148.9	59.1804	17148.9	33.6352	17148.9	58.2577	17148.9	50.9187	17148.9	56.3885	17148.9	57.6207	17148.9	57.6647	17148.9	58.3853	17148.9	56.1184	17148.9	52.6331	17148.9	64.2365	17148.9	51.269	17148.9	78.0966
17752.4	92.8299	17752.4	91.8876	17752.4	91.3741	17752.4	92.7578	17752.4	91.4076	17752.4	87.4969	17752.4	83.6158	17752.4	84.4995	17752.4	77.9204	17752.4	75.6441	17752.4	73.2349	17752.4	69.4031	17752.4	65.3154	17752.4	64.7636	17752.4	63.7369	17752.4	56.7909	17752.4	53.1841	17752.4	54.2972	17752.4	55.4357	17752.4	52.4145	17752.4	53.7622	17752.4	56.4663	17752.4	56.4663	17752.4	65.7766	17752.4	46.1029	17752.4	59.5141	17752.4	55.8126	17752.4	56.6284	17752.4	60.9846	17752.4	60.152	17752.4	60.1564	17752.4	61.4288	17752.4	60.0541	17752.4	65.2611	17752.4	61.5755	17752.4	79.9086
18379.4	95.3722	18379.4	93.8875	18379.4	92.0294	18379.4	94.9934	18379.4	92.333	18379.4	89.6695	18379.4	83.4392	18379.4	86.253	18379.4	79.0955	18379.4	77.723	18379.4	75.6749	18379.4	70.4111	18379.4	67.1864	18379.4	63.5626	18379.4	62.8018	18379.4	60.7118	18379.4	62.325	18379.4	49.5843	18379.4	61.3482	18379.4	56.0878	18379.4	53.6884	18379.4	58.5676	18379.4	58.5676	18379.4	69.2747	18379.4	45.3645	18379.4	61.8887	18379.4	59.6703	18379.4	61.5836	18379.4	64.6325	18379.4	64.4689	18379.4	62.0046	18379.4	69.4282	18379.4	66.0742	18379.4	70.7336	18379.4	66.1256	18379.4	82.4858
19026.9	96.3903	19026.9	93.3757	19026.9	92.1899	19026.9	93.7532	19026.9	93.3199	19026.9	87.4728	19026.9	84.3384	19026.9	83.639	19026.9	80.4321	19026.9	75.7674	19026.9	77.2815	19026.9	68.859	19026.9	72.327	19026.9	63.1997	19026.9	63.8343	19026.9	65.1343	19026.9	65.2765	19026.9	53.4013	19026.9	61.6886	19026.9	56.3773	19026.9	56.0197	19026.9	63.2933	19026.9	63.2933	19026.9	64.0948	19026.9	56.3426	19026.9	60.652	19026.9	63.0955	19026.9	62.9959	19026.9	66.1596	19026.9	65.2765	19026.9	65.3551	19026.9	71.3598	19026.9	67.0133	19026.9	73.079	19026.9	67.2313	19026.9	82.6835
19697.8	96.8955	19697.8	92.8233	19697.8	92.8259	19697.8	91.8386	19697.8	92.7345	19697.8	84.6282	19697.8	82.8972	19697.8	80.5494	19697.8	79.5515	19697.8	74.3116	19697.8	76.6865	19697.8	67.1617	19697.8	73.0007	19697.8	55.0197	19697.8	68.029	19697.8	62.8629	19697.8	63.8815	19697.8	40.4184	19697.8	60.9428	19697.8	47.0253	19697.8	56.8857	19697.8	64.4517	19697.8	64.4517	19697.8	50.4142	19697.8	58.6476	19697.8	61.0943	19697.8	63.6542	19697.8	63.0704	19697.8	66.2303	19697.8	65.6083	19697.8	66.9142	19697.8	70.9569	19697.8	67.804	19697.8	73.412	19697.8	70.3903	19697.8	82.119
19999.5	96.0914	19999.5	92.1999	19999.5	92.6087	19999.5	90.2669	19999.5	91.7049	19999.5	84.1107	19999.5	81.4074	19999.5	78.4908	19999.5	77.6138	19999.5	71.6245	19999.5	76.6417	19999.5	67.6709	19999.5	73.3039	19999.5	57.8839	19999.5	67.6917	19999.5	66.6209	19999.5	66.5815	19999.5	58.0593	19999.5	51.6792	19999.5	51.0686	19999.5	53.1999	19999.5	60.6409	19999.5	60.6409	19999.5	46.7167	19999.5	58.4777	19999.5	63.9732	19999.5	60.64	19999.5	62.6837	19999.5	65.3679	19999.5	65.5436	19999.5	67.6662	19999.5	70.1049	19999.5	68.2388	19999.5	73.1129	19999.5	70.2219	19999.5	81.3245
