"SPL Vertical"
"On-Axis"		"10°"		"-10°"		"20°"		"-20°"		"30°"		"-30°"		"40°"		"-40°"		"50°"		"-50°"		"60°"		"-60°"		"70°"		"-70°"		"80°"		"-80°"		"90°"		"-90°"		"100°"		"-100°"		"110°"		"-110°"		"120°"		"-120°"		"130°"		"-130°"		"140°"		"-140°"		"150°"		"-150°"		"160°"		"-160°"		"170°"		"-170°"		"180°"
"Frequency / Hz"	"Sound Pressure Level / dB (re 20 µPa/V)  [2.83V at 1m]"	"Frequency / Hz"	"Sound Pressure Level / dB (re 20 µPa/V)  [2.83V at 1m]"	"Frequency / Hz"	"Sound Pressure Level / dB (re 20 µPa/V)  [2.83V at 1m]"	"Frequency / Hz"	"Sound Pressure Level / dB (re 20 µPa/V)  [2.83V at 1m]"	"Frequency / Hz"	"Sound Pressure Level / dB (re 20 µPa/V)  [2.83V at 1m]"	"Frequency / Hz"	"Sound Pressure Level / dB (re 20 µPa/V)  [2.83V at 1m]"	"Frequency / Hz"	"Sound Pressure Level / dB (re 20 µPa/V)  [2.83V at 1m]"	"Frequency / Hz"	"Sound Pressure Level / dB (re 20 µPa/V)  [2.83V at 1m]"	"Frequency / Hz"	"Sound Pressure Level / dB (re 20 µPa/V)  [2.83V at 1m]"	"Frequency / Hz"	"Sound Pressure Level / dB (re 20 µPa/V)  [2.83V at 1m]"	"Frequency / Hz"	"Sound Pressure Level / dB (re 20 µPa/V)  [2.83V at 1m]"	"Frequency / Hz"	"Sound Pressure Level / dB (re 20 µPa/V)  [2.83V at 1m]"	"Frequency / Hz"	"Sound Pressure Level / dB (re 20 µPa/V)  [2.83V at 1m]"	"Frequency / Hz"	"Sound Pressure Level / dB (re 20 µPa/V)  [2.83V at 1m]"	"Frequency / Hz"	"Sound Pressure Level / dB (re 20 µPa/V)  [2.83V at 1m]"	"Frequency / Hz"	"Sound Pressure Level / dB (re 20 µPa/V)  [2.83V at 1m]"	"Frequency / Hz"	"Sound Pressure Level / dB (re 20 µPa/V)  [2.83V at 1m]"	"Frequency / Hz"	"Sound Pressure Level / dB (re 20 µPa/V)  [2.83V at 1m]"	"Frequency / Hz"	"Sound Pressure Level / dB (re 20 µPa/V)  [2.83V at 1m]"	"Frequency / Hz"	"Sound Pressure Level / dB (re 20 µPa/V)  [2.83V at 1m]"	"Frequency / Hz"	"Sound Pressure Level / dB (re 20 µPa/V)  [2.83V at 1m]"	"Frequency / Hz"	"Sound Pressure Level / dB (re 20 µPa/V)  [2.83V at 1m]"	"Frequency / Hz"	"Sound Pressure Level / dB (re 20 µPa/V)  [2.83V at 1m]"	"Frequency / Hz"	"Sound Pressure Level / dB (re 20 µPa/V)  [2.83V at 1m]"	"Frequency / Hz"	"Sound Pressure Level / dB (re 20 µPa/V)  [2.83V at 1m]"	"Frequency / Hz"	"Sound Pressure Level / dB (re 20 µPa/V)  [2.83V at 1m]"	"Frequency / Hz"	"Sound Pressure Level / dB (re 20 µPa/V)  [2.83V at 1m]"	"Frequency / Hz"	"Sound Pressure Level / dB (re 20 µPa/V)  [2.83V at 1m]"	"Frequency / Hz"	"Sound Pressure Level / dB (re 20 µPa/V)  [2.83V at 1m]"	"Frequency / Hz"	"Sound Pressure Level / dB (re 20 µPa/V)  [2.83V at 1m]"	"Frequency / Hz"	"Sound Pressure Level / dB (re 20 µPa/V)  [2.83V at 1m]"	"Frequency / Hz"	"Sound Pressure Level / dB (re 20 µPa/V)  [2.83V at 1m]"	"Frequency / Hz"	"Sound Pressure Level / dB (re 20 µPa/V)  [2.83V at 1m]"	"Frequency / Hz"	"Sound Pressure Level / dB (re 20 µPa/V)  [2.83V at 1m]"	"Frequency / Hz"	"Sound Pressure Level / dB (re 20 µPa/V)  [2.83V at 1m]"	"Frequency / Hz"	"Sound Pressure Level / dB (re 20 µPa/V)  [2.83V at 1m]"
20.5078	72.5585	20.5078	72.5561	20.5078	72.5625	20.5078	72.5542	20.5078	72.5672	20.5078	72.5499	20.5078	72.5701	20.5078	72.5392	20.5078	72.567	20.5078	72.5173	20.5078	72.5531	20.5078	72.4796	20.5078	72.5232	20.5078	72.4229	20.5078	72.4733	20.5078	72.346	20.5078	72.4011	20.5078	72.2507	20.5078	72.3074	20.5078	72.1413	20.5078	72.1961	20.5078	72.0245	20.5078	72.0735	20.5078	71.9074	20.5078	71.9479	20.5078	71.7969	20.5078	71.8275	20.5078	71.6988	20.5078	71.7197	20.5078	71.6175	20.5078	71.6302	20.5078	71.5566	20.5078	71.5634	20.5078	71.519	20.5078	71.5218	20.5078	71.507
21.9727	73.3505	21.9727	73.3523	21.9727	73.347	21.9727	73.3516	21.9727	73.3408	21.9727	73.3461	21.9727	73.3294	21.9727	73.3319	21.9727	73.309	21.9727	73.3045	21.9727	73.2749	21.9727	73.259	21.9727	73.2228	21.9727	73.1919	21.9727	73.1494	21.9727	73.1019	21.9727	73.0535	21.9727	72.9906	21.9727	72.9368	21.9727	72.863	21.9727	72.8044	21.9727	72.7264	21.9727	72.6642	21.9727	72.5894	21.9727	72.5255	21.9727	72.4601	21.9727	72.3972	21.9727	72.345	21.9727	72.2871	21.9727	72.2491	21.9727	72.2005	21.9727	72.1755	21.9727	72.1403	21.9727	72.1265	21.9727	72.108	21.9727	72.1036
23.4375	74.2016	23.4375	74.1961	23.4375	74.2052	23.4375	74.1882	23.4375	74.2061	23.4375	74.1756	23.4375	74.2016	23.4375	74.1548	23.4375	74.1881	23.4375	74.1215	23.4375	74.1612	23.4375	74.0713	23.4375	74.1165	23.4375	74.0008	23.4375	74.0506	23.4375	73.9089	23.4375	73.9624	23.4375	73.7973	23.4375	73.8534	23.4375	73.6712	23.4375	73.7282	23.4375	73.5384	23.4375	73.5942	23.4375	73.4075	23.4375	73.4598	23.4375	73.2869	23.4375	73.3334	23.4375	73.1833	23.4375	73.222	23.4375	73.101	23.4375	73.1307	23.4375	73.0425	23.4375	73.0625	23.4375	73.009	23.4375	73.0191	23.4375	73.0012
24.9023	75.3262	24.9023	75.3284	24.9023	75.3217	24.9023	75.3276	24.9023	75.3137	24.9023	75.3219	24.9023	75.3	24.9023	75.3079	24.9023	75.277	24.9023	75.2815	24.9023	75.2407	24.9023	75.2385	24.9023	75.1871	24.9023	75.1758	24.9023	75.1133	24.9023	75.0921	24.9023	75.0184	24.9023	74.989	24.9023	74.9046	24.9023	74.8709	24.9023	74.7773	24.9023	74.7444	24.9023	74.6442	24.9023	74.6171	24.9023	74.5146	24.9023	74.4965	24.9023	74.397	24.9023	74.3884	24.9023	74.2983	24.9023	74.2972	24.9023	74.2229	24.9023	74.2259	24.9023	74.173	24.9023	74.1765	24.9023	74.149	24.9023	74.1505
26.3672	76.0589	26.3672	76.0645	26.3672	76.0479	26.3672	76.0639	26.3672	76.0312	26.3672	76.0544	26.3672	76.007	26.3672	76.0325	26.3672	75.9722	26.3672	75.9942	26.3672	75.9229	26.3672	75.9354	26.3672	75.8554	26.3672	75.8536	26.3672	75.767	26.3672	75.7481	26.3672	75.657	26.3672	75.6214	26.3672	75.5277	26.3672	75.479	26.3672	75.3847	26.3672	75.3287	26.3672	75.2359	26.3672	75.1795	26.3672	75.0909	26.3672	75.0398	26.3672	74.9584	26.3672	74.9165	26.3672	74.8456	26.3672	74.8143	26.3672	74.7575	26.3672	74.7364	26.3672	74.6966	26.3672	74.6847	26.3672	74.6642	26.3672	74.6604
27.832	76.7512	27.832	76.7482	27.832	76.7485	27.832	76.7391	27.832	76.7397	27.832	76.7217	27.832	76.7225	27.832	76.693	27.832	76.6938	27.832	76.6489	27.832	76.6496	27.832	76.5858	27.832	76.5861	27.832	76.5008	27.832	76.5003	27.832	76.3933	27.832	76.3912	27.832	76.2652	27.832	76.261	27.832	76.1217	27.832	76.1149	27.832	75.9703	27.832	75.9608	27.832	75.8199	27.832	75.8081	27.832	75.6792	27.832	75.6661	27.832	75.5555	27.832	75.5425	27.832	75.4544	27.832	75.443	27.832	75.3795	27.832	75.3711	27.832	75.3328	27.832	75.3284	27.832	75.3157
29.2969	77.5294	29.2969	77.5271	29.2969	77.5253	29.2969	77.5178	29.2969	77.5142	29.2969	77.4996	29.2969	77.4942	29.2969	77.4695	29.2969	77.4624	29.2969	77.4239	29.2969	77.4153	29.2969	77.3594	29.2969	77.3492	29.2969	77.2735	29.2969	77.2617	29.2969	77.1656	29.2969	77.1522	29.2969	77.0377	29.2969	77.0227	29.2969	76.8949	29.2969	76.8784	29.2969	76.7444	29.2969	76.7268	29.2969	76.5945	29.2969	76.5768	29.2969	76.4538	29.2969	76.437	29.2969	76.3294	29.2969	76.3148	29.2969	76.2271	29.2969	76.2156	29.2969	76.1511	29.2969	76.1432	29.2969	76.1037	29.2969	76.0998	29.2969	76.0865
30.7617	78.0998	30.7617	78.096	30.7617	78.0965	30.7617	78.0846	30.7617	78.0856	30.7617	78.0641	30.7617	78.0654	30.7617	78.0318	30.7617	78.0333	30.7617	77.9847	30.7617	77.9863	30.7617	77.9201	30.7617	77.9214	30.7617	77.8358	30.7617	77.8366	30.7617	77.7319	30.7617	77.7316	30.7617	77.6106	30.7617	77.609	30.7617	77.4768	30.7617	77.4736	30.7617	77.3373	30.7617	77.3326	30.7617	77.1998	30.7617	77.1939	30.7617	77.0717	30.7617	77.0652	30.7617	76.9591	30.7617	76.9528	30.7617	76.8669	30.7617	76.8616	30.7617	76.7985	30.7617	76.7947	30.7617	76.7562	30.7617	76.7542	30.7617	76.7413
32.2266	78.5538	32.2266	78.5484	32.2266	78.5509	32.2266	78.5344	32.2266	78.5394	32.2266	78.5102	32.2266	78.5176	32.2266	78.4735	32.2266	78.4832	32.2266	78.4215	32.2266	78.4334	32.2266	78.3515	32.2266	78.3655	32.2266	78.2618	32.2266	78.2778	32.2266	78.1526	32.2266	78.1704	32.2266	78.0265	32.2266	78.0458	32.2266	77.8887	32.2266	77.9089	32.2266	77.7465	32.2266	77.7669	32.2266	77.6077	32.2266	77.6275	32.2266	77.4799	32.2266	77.4982	32.2266	77.3692	32.2266	77.3851	32.2266	77.2801	32.2266	77.2928	32.2266	77.2155	32.2266	77.2243	32.2266	77.1771	32.2266	77.1816	32.2266	77.1657
33.6914	79.173	33.6914	79.171	33.6914	79.1666	33.6914	79.1599	33.6914	79.1514	33.6914	79.1383	33.6914	79.126	33.6914	79.1037	33.6914	79.0885	33.6914	79.0536	33.6914	79.0362	33.6914	78.9853	33.6914	78.9668	33.6914	78.8973	33.6914	78.8787	33.6914	78.7895	33.6914	78.7719	33.6914	78.6647	33.6914	78.6487	33.6914	78.5277	33.6914	78.5139	33.6914	78.3855	33.6914	78.3741	33.6914	78.2458	33.6914	78.2369	33.6914	78.116	33.6914	78.1095	33.6914	78.0025	33.6914	77.9979	33.6914	77.9099	33.6914	77.9069	33.6914	77.8416	33.6914	77.8398	33.6914	77.7996	33.6914	77.7988	33.6914	77.7853
35.1562	79.6796	35.1562	79.675	35.1562	79.6765	35.1562	79.6623	35.1562	79.6654	35.1562	79.6401	35.1562	79.6449	35.1562	79.6063	35.1562	79.6132	35.1562	79.5586	35.1562	79.5678	35.1562	79.4946	35.1562	79.5064	35.1562	79.4129	35.1562	79.4277	35.1562	79.3141	35.1562	79.3319	35.1562	79.2006	35.1562	79.2214	35.1562	79.0773	35.1562	79.1007	35.1562	78.9508	35.1562	78.976	35.1562	78.8281	35.1562	78.8541	35.1562	78.7158	35.1562	78.7412	35.1562	78.6191	35.1562	78.6424	35.1562	78.542	35.1562	78.5615	35.1562	78.4868	35.1562	78.5008	35.1562	78.4549	35.1562	78.4622	35.1562	78.4467
36.6211	80.5188	36.6211	80.5175	36.6211	80.5097	36.6211	80.5054	36.6211	80.4899	36.6211	80.481	36.6211	80.4583	36.6211	80.4426	36.6211	80.4133	36.6211	80.388	36.6211	80.3529	36.6211	80.3152	36.6211	80.2753	36.6211	80.2235	36.6211	80.1801	36.6211	80.1137	36.6211	80.0683	36.6211	79.9889	36.6211	79.9434	36.6211	79.8545	36.6211	79.8107	36.6211	79.7175	36.6211	79.6774	36.6211	79.5853	36.6211	79.5504	36.6211	79.4647	36.6211	79.436	36.6211	79.3608	36.6211	79.3389	36.6211	79.2774	36.6211	79.2619	36.6211	79.2164	36.6211	79.2067	36.6211	79.1788	36.6211	79.1742	36.6211	79.1648
38.0859	80.9768	38.0859	80.9751	38.0859	80.9656	38.0859	80.9601	38.0859	80.9414	38.0859	80.9311	38.0859	80.9034	38.0859	80.8865	38.0859	80.8503	38.0859	80.8248	38.0859	80.7807	38.0859	80.7448	38.0859	80.6936	38.0859	80.646	38.0859	80.5891	38.0859	80.5298	38.0859	80.4686	38.0859	80.3996	38.0859	80.3361	38.0859	80.2609	38.0859	80.1973	38.0859	80.1205	38.0859	80.0593	38.0859	79.9856	38.0859	79.9293	38.0859	79.8629	38.0859	79.8136	38.0859	79.7572	38.0859	79.7167	38.0859	79.6719	38.0859	79.6412	38.0859	79.6089	38.0859	79.5884	38.0859	79.5689	38.0859	79.5587	38.0859	79.5522
39.5508	81.3989	39.5508	81.3944	39.5508	81.3901	39.5508	81.3764	39.5508	81.3678	39.5508	81.3439	39.5508	81.3313	39.5508	81.296	39.5508	81.2795	39.5508	81.2312	39.5508	81.2112	39.5508	81.1484	39.5508	81.1254	39.5508	81.0476	39.5508	81.0221	39.5508	80.9301	39.5508	80.903	39.5508	80.7993	39.5508	80.7715	39.5508	80.6606	39.5508	80.6332	39.5508	80.5208	39.5508	80.4948	39.5508	80.3869	39.5508	80.3634	39.5508	80.2653	39.5508	80.2451	39.5508	80.161	39.5508	80.1445	39.5508	80.0773	39.5508	80.0648	39.5508	80.0161	39.5508	80.0078	39.5508	79.9784	39.5508	79.9742	39.5508	79.9644
41.0156	81.7986	41.0156	81.7962	41.0156	81.7864	41.0156	81.7789	41.0156	81.7595	41.0156	81.7462	41.0156	81.7173	41.0156	81.6969	41.0156	81.659	41.0156	81.6301	41.0156	81.5837	41.0156	81.5451	41.0156	81.4909	41.0156	81.4422	41.0156	81.3811	41.0156	81.3231	41.0156	81.2565	41.0156	81.1917	41.0156	81.1213	41.0156	81.0535	41.0156	80.9814	41.0156	80.9151	41.0156	80.844	41.0156	80.7833	41.0156	80.716	41.0156	80.6637	41.0156	80.6031	41.0156	80.5608	41.0156	80.5094	41.0156	80.4774	41.0156	80.4372	41.0156	80.415	41.0156	80.3875	41.0156	80.3746	41.0156	80.3606	41.0156	80.3563
42.4805	82.3935	42.4805	82.3929	42.4805	82.3777	42.4805	82.3757	42.4805	82.3454	42.4805	82.3414	42.4805	82.2961	42.4805	82.2892	42.4805	82.2293	42.4805	82.2184	42.4805	82.1444	42.4805	82.1286	42.4805	82.0413	42.4805	82.0204	42.4805	81.9212	42.4805	81.8959	42.4805	81.7866	42.4805	81.7592	42.4805	81.6425	42.4805	81.6161	42.4805	81.4955	42.4805	81.4732	42.4805	81.3531	42.4805	81.3373	42.4805	81.2228	42.4805	81.2141	42.4805	81.1102	42.4805	81.1079	42.4805	81.0193	42.4805	81.0211	42.4805	80.9516	42.4805	80.9552	42.4805	80.9075	42.4805	80.9107	42.4805	80.8865	42.4805	80.8877
43.9453	82.8457	43.9453	82.8408	43.9453	82.832	43.9453	82.8172	43.9453	82.7998	43.9453	82.7744	43.9453	82.7486	43.9453	82.7119	43.9453	82.6781	43.9453	82.6293	43.9453	82.5879	43.9453	82.5265	43.9453	82.4781	43.9453	82.4043	43.9453	82.3497	43.9453	82.2653	43.9453	82.2054	43.9453	82.1139	43.9453	82.0498	43.9453	81.9561	43.9453	81.8894	43.9453	81.7991	43.9453	81.7321	43.9453	81.6502	43.9453	81.5853	43.9453	81.5155	43.9453	81.4557	43.9453	81.3998	43.9453	81.3479	43.9453	81.3061	43.9453	81.2648	43.9453	81.2362	43.9453	81.2075	43.9453	81.191	43.9453	81.1763	43.9453	81.1709
45.4102	83.2683	45.4102	83.2658	45.4102	83.2516	45.4102	83.2439	45.4102	83.2157	45.4102	83.2024	45.4102	83.1606	45.4102	83.1409	45.4102	83.0859	45.4102	83.059	45.4102	82.9915	45.4102	82.9568	45.4102	82.8778	45.4102	82.8351	45.4102	82.7457	45.4102	82.6961	45.4102	82.598	45.4102	82.5436	45.4102	82.439	45.4102	82.3833	45.4102	82.275	45.4102	82.2217	45.4102	82.1133	45.4102	82.0659	45.4102	81.9615	45.4102	81.9223	45.4102	81.8263	45.4102	81.7961	45.4102	81.7132	45.4102	81.6916	45.4102	81.6257	45.4102	81.6117	45.4102	81.5659	45.4102	81.5582	45.4102	81.5348	45.4102	81.5323
46.875	83.5566	46.875	83.5525	46.875	83.5424	46.875	83.5302	46.875	83.5098	46.875	83.4896	46.875	83.4589	46.875	83.431	46.875	83.3901	46.875	83.3549	46.875	83.3036	46.875	83.2619	46.875	83.2004	46.875	83.1535	46.875	83.0822	46.875	83.0323	46.875	82.952	46.875	82.902	46.875	82.8142	46.875	82.7677	46.875	82.6744	46.875	82.6347	46.875	82.5391	46.875	82.5083	46.875	82.4143	46.875	82.3931	46.875	82.3051	46.875	82.2926	46.875	82.2154	46.875	82.2094	46.875	82.1473	46.875	82.1454	46.875	82.1019	46.875	82.1018	46.875	82.0794	46.875	82.0795
48.3398	83.8685	48.3398	83.8603	48.3398	83.8585	48.3398	83.8339	48.3398	83.8304	48.3398	83.7898	48.3398	83.7846	48.3398	83.7285	48.3398	83.7217	48.3398	83.6509	48.3398	83.6426	48.3398	83.5588	48.3398	83.5488	48.3398	83.4543	48.3398	83.4425	48.3398	83.341	48.3398	83.3271	48.3398	83.2232	48.3398	83.207	48.3398	83.1061	48.3398	83.0875	48.3398	82.995	48.3398	82.9742	48.3398	82.8941	48.3398	82.8719	48.3398	82.8064	48.3398	82.7841	48.3398	82.7336	48.3398	82.7128	48.3398	82.6763	48.3398	82.6587	48.3398	82.6346	48.3398	82.6219	48.3398	82.6083	48.3398	82.6016	48.3398	82.5973
51.2695	84.7108	51.2695	84.7007	51.2695	84.6981	51.2695	84.6681	51.2695	84.6628	51.2695	84.6136	51.2695	84.6058	51.2695	84.5387	51.2695	84.5283	51.2695	84.4452	51.2695	84.4323	51.2695	84.3358	51.2695	84.3208	51.2695	84.2145	51.2695	84.1975	51.2695	84.0862	51.2695	84.0676	51.2695	83.957	51.2695	83.9376	51.2695	83.8337	51.2695	83.814	51.2695	83.7223	51.2695	83.7033	51.2695	83.6273	51.2695	83.6098	51.2695	83.551	51.2695	83.5356	51.2695	83.4932	51.2695	83.4806	51.2695	83.4523	51.2695	83.4427	51.2695	83.4254	51.2695	83.419	51.2695	83.4099	51.2695	83.4068	51.2695	83.404
52.7344	85.0997	52.7344	85.09	52.7344	85.0846	52.7344	85.056	52.7344	85.0451	52.7344	84.9985	52.7344	84.9823	52.7344	84.9189	52.7344	84.8978	52.7344	84.8197	52.7344	84.794	52.7344	84.7037	52.7344	84.6739	52.7344	84.5751	52.7344	84.5418	52.7344	84.4391	52.7344	84.4031	52.7344	84.3019	52.7344	84.2641	52.7344	84.17	52.7344	84.1316	52.7344	84.0496	52.7344	84.0118	52.7344	83.9452	52.7344	83.9093	52.7344	83.8592	52.7344	83.8267	52.7344	83.792	52.7344	83.764	52.7344	83.7421	52.7344	83.7199	52.7344	83.7075	52.7344	83.6921	52.7344	83.6862	52.7344	83.6783	52.7344	83.6765
54.1992	85.4453	54.1992	85.435	54.1992	85.4296	54.1992	85.3991	54.1992	85.3885	54.1992	85.3388	54.1992	85.3233	54.1992	85.2559	54.1992	85.2358	54.1992	85.1532	54.1992	85.1291	54.1992	85.0342	54.1992	85.0067	54.1992	84.9036	54.1992	84.8735	54.1992	84.767	54.1992	84.7352	54.1992	84.6309	54.1992	84.5984	54.1992	84.5018	54.1992	84.4696	54.1992	84.3856	54.1992	84.3548	54.1992	84.2863	54.1992	84.258	54.1992	84.2058	54.1992	84.1808	54.1992	84.1439	54.1992	84.1229	54.1992	84.0987	54.1992	84.0825	54.1992	84.068	54.1992	84.0569	54.1992	84.0495	54.1992	84.0439	54.1992	84.0417
55.6641	85.7464	55.6641	85.7368	55.6641	85.7286	55.6641	85.7001	55.6641	85.6839	55.6641	85.6379	55.6641	85.6137	55.6641	85.5524	55.6641	85.5206	55.6641	85.4468	55.6641	85.4078	55.6641	85.3253	55.6641	85.2799	55.6641	85.1932	55.6641	85.1423	55.6641	85.0567	55.6641	85.0015	55.6641	84.9226	55.6641	84.8649	55.6641	84.7977	55.6641	84.7394	55.6641	84.6878	55.6641	84.631	55.6641	84.5963	55.6641	84.5433	55.6641	84.5243	55.6641	84.4772	55.6641	84.4706	55.6641	84.4311	55.6641	84.4326	55.6641	84.4019	55.6641	84.4069	55.6641	84.3861	55.6641	84.3907	55.6641	84.3802	55.6641	84.382
58.5938	86.4019	58.5938	86.3903	58.5938	86.3823	58.5938	86.3483	58.5938	86.3322	58.5938	86.2776	58.5938	86.2537	58.5938	86.1813	58.5938	86.1497	58.5938	86.0637	58.5938	86.0247	58.5938	85.9301	58.5938	85.8842	58.5938	85.7869	58.5938	85.735	58.5938	85.6417	58.5938	85.5847	58.5938	85.5023	58.5938	85.4417	58.5938	85.3763	58.5938	85.3138	58.5938	85.2692	58.5938	85.207	58.5938	85.1841	58.5938	85.1245	58.5938	85.121	58.5938	85.0665	58.5938	85.077	58.5938	85.0301	58.5938	85.0481	58.5938	85.0108	58.5938	85.0295	58.5938	85.0037	58.5938	85.0174	58.5938	85.0042	58.5938	85.0092
60.0586	86.71	60.0586	86.6969	60.0586	86.6901	60.0586	86.6515	60.0586	86.638	60.0586	86.5757	60.0586	86.5558	60.0586	86.473	60.0586	86.4471	60.0586	86.3481	60.0586	86.3168	60.0586	86.2068	60.0586	86.1709	60.0586	86.0564	60.0586	86.0169	60.0586	85.9051	60.0586	85.863	60.0586	85.7614	60.0586	85.7181	60.0586	85.6333	60.0586	85.5903	60.0586	85.5267	60.0586	85.4855	60.0586	85.4446	60.0586	85.4066	60.0586	85.3864	60.0586	85.3529	60.0586	85.3487	60.0586	85.3209	60.0586	85.3266	60.0586	85.3052	60.0586	85.3147	60.0586	85.3001	60.0586	85.3081	60.0586	85.3008	60.0586	85.3038
62.9883	87.3183	62.9883	87.3006	62.9883	87.2977	62.9883	87.2454	62.9883	87.2398	62.9883	87.1553	62.9883	87.147	62.9883	87.0343	62.9883	87.0236	62.9883	86.888	62.9883	86.8752	62.9883	86.7234	62.9883	86.709	62.9883	86.5489	62.9883	86.5335	62.9883	86.374	62.9883	86.3585	62.9883	86.2087	62.9883	86.194	62.9883	86.0621	62.9883	86.0492	62.9883	85.9413	62.9883	85.931	62.9883	85.8497	62.9883	85.8427	62.9883	85.7868	62.9883	85.7832	62.9883	85.7486	62.9883	85.748	62.9883	85.7291	62.9883	85.7305	62.9883	85.7217	62.9883	85.7236	62.9883	85.7203	62.9883	85.7217	62.9883	85.7209
64.4531	87.6461	64.4531	87.6274	64.4531	87.6252	64.4531	87.5698	64.4531	87.5654	64.4531	87.4757	64.4531	87.4695	64.4531	87.3494	64.4531	87.3417	64.4531	87.1965	64.4531	87.1879	64.4531	87.0242	64.4531	87.0153	64.4531	86.8412	64.4531	86.8324	64.4531	86.6571	64.4531	86.6488	64.4531	86.4822	64.4531	86.4746	64.4531	86.326	64.4531	86.3191	64.4531	86.1959	64.4531	86.1896	64.4531	86.0956	64.4531	86.0897	64.4531	86.0248	64.4531	86.0194	64.4531	85.9797	64.4531	85.9749	64.4531	85.9543	64.4531	85.9504	64.4531	85.9418	64.4531	85.9391	64.4531	85.9366	64.4531	85.9353	64.4531	85.9349
67.3828	88.2511	67.3828	88.2357	67.3828	88.2262	67.3828	88.1809	67.3828	88.162	67.3828	88.0895	67.3828	88.0616	67.3828	87.9664	67.3828	87.9301	67.3828	87.8179	67.3828	87.774	67.3828	87.6517	67.3828	87.6013	67.3828	87.4767	67.3828	87.4213	67.3828	87.302	67.3828	87.2433	67.3828	87.1369	67.3828	87.077	67.3828	86.9894	67.3828	86.9304	67.3828	86.8654	67.3828	86.8093	67.3828	86.7675	67.3828	86.7162	67.3828	86.6953	67.3828	86.6502	67.3828	86.6454	67.3828	86.6079	67.3828	86.6132	67.3828	86.5842	67.3828	86.5934	67.3828	86.5736	67.3828	86.5815	67.3828	86.5714	67.3828	86.5745
68.8477	88.4793	68.8477	88.463	68.8477	88.4546	68.8477	88.4066	68.8477	88.39	68.8477	88.3136	68.8477	88.2888	68.8477	88.1895	68.8477	88.1567	68.8477	88.0415	68.8477	88.0011	68.8477	87.8783	68.8477	87.831	68.8477	87.7097	68.8477	87.6563	68.8477	87.5455	68.8477	87.4874	68.8477	87.3951	68.8477	87.3341	68.8477	87.2658	68.8477	87.2041	68.8477	87.1622	68.8477	87.102	68.8477	87.0851	68.8477	87.0288	68.8477	87.0324	68.8477	86.9821	68.8477	86.9994	68.8477	86.9571	68.8477	86.9804	68.8477	86.9475	68.8477	86.97	68.8477	86.9475	68.8477	86.9634	68.8477	86.952	68.8477	86.9577
71.7773	88.8981	71.7773	88.8782	71.7773	88.8722	71.7773	88.8137	71.7773	88.8019	71.7773	88.7087	71.7773	88.6916	71.7773	88.5698	71.7773	88.5479	71.7773	88.4061	71.7773	88.3803	71.7773	88.2283	71.7773	88.1998	71.7773	88.0486	71.7773	88.0189	71.7773	87.8794	71.7773	87.8501	71.7773	87.7322	71.7773	87.7046	71.7773	87.6154	71.7773	87.5909	71.7773	87.533	71.7773	87.5124	71.7773	87.4844	71.7773	87.468	71.7773	87.4643	71.7773	87.4519	71.7773	87.4646	71.7773	87.4557	71.7773	87.4764	71.7773	87.4704	71.7773	87.4914	71.7773	87.4877	71.7773	87.5029	71.7773	87.5011	71.7773	87.5066
74.707	89.2983	74.707	89.2812	74.707	89.2654	74.707	89.2155	74.707	89.184	74.707	89.1061	74.707	89.059	74.707	88.9606	74.707	88.8981	74.707	88.7894	74.707	88.7122	74.707	88.6048	74.707	88.514	74.707	88.4208	74.707	88.3181	74.707	88.2514	74.707	88.1394	74.707	88.1089	74.707	87.9911	74.707	88.0022	74.707	87.8826	74.707	87.9346	74.707	87.818	74.707	87.9036	74.707	87.7945	74.707	87.9016	74.707	87.8043	74.707	87.9184	74.707	87.8364	74.707	87.9427	74.707	87.8789	74.707	87.9646	74.707	87.9209	74.707	87.9763	74.707	87.9542	74.707	87.9733
77.6367	89.7028	77.6367	89.6785	77.6367	89.6722	77.6367	89.6011	77.6367	89.5886	77.6367	89.476	77.6367	89.4572	77.6367	89.312	77.6367	89.2868	77.6367	89.121	77.6367	89.0893	77.6367	88.9175	77.6367	88.8791	77.6367	88.7177	77.6367	88.6725	77.6367	88.538	77.6367	88.4861	77.6367	88.3928	77.6367	88.3346	77.6367	88.2918	77.6367	88.2284	77.6367	88.238	77.6367	88.1713	77.6367	88.2271	77.6367	88.1598	77.6367	88.2488	77.6367	88.1844	77.6367	88.2897	77.6367	88.232	77.6367	88.3359	77.6367	88.2886	77.6367	88.3753	77.6367	88.3417	77.6367	88.3989	77.6367	88.3814	77.6367	88.4014
79.1016	89.9044	79.1016	89.8757	79.1016	89.8755	79.1016	89.7913	79.1016	89.7909	79.1016	89.6567	79.1016	89.6563	79.1016	89.4811	79.1016	89.4808	79.1016	89.2772	79.1016	89.2769	79.1016	89.0605	79.1016	89.0601	79.1016	88.8484	79.1016	88.8474	79.1016	88.6587	79.1016	88.6565	79.1016	88.5072	79.1016	88.5029	79.1016	88.4047	79.1016	88.3973	79.1016	88.3542	79.1016	88.3435	79.1016	88.3511	79.1016	88.3371	79.1016	88.3838	79.1016	88.3675	79.1016	88.4373	79.1016	88.4205	79.1016	88.4963	79.1016	88.481	79.1016	88.5474	79.1016	88.5357	79.1016	88.5806	79.1016	88.5743	79.1016	88.5901
82.0312	90.358	82.0312	90.325	82.0312	90.3266	82.0312	90.2297	82.0312	90.2329	82.0312	90.0779	82.0312	90.083	82.0312	89.8798	82.0312	89.887	82.0312	89.6489	82.0312	89.6586	82.0312	89.4023	82.0312	89.4148	82.0312	89.1594	82.0312	89.175	82.0312	88.9405	82.0312	88.9589	82.0312	88.7634	82.0312	88.7843	82.0312	88.6408	82.0312	88.6633	82.0312	88.5773	82.0312	88.5999	82.0312	88.5677	82.0312	88.5891	82.0312	88.5998	82.0312	88.6187	82.0312	88.6569	82.0312	88.6723	82.0312	88.722	82.0312	88.7334	82.0312	88.7801	82.0312	88.7876	82.0312	88.8202	82.0312	88.8238	82.0312	88.8355
84.9609	90.7083	84.9609	90.666	84.9609	90.6794	84.9609	90.5547	84.9609	90.582	84.9609	90.3809	84.9609	90.4227	84.9609	90.1553	84.9609	90.2128	84.9609	89.893	84.9609	89.9675	84.9609	89.6131	84.9609	89.7059	84.9609	89.3375	84.9609	89.4494	84.9609	89.0896	84.9609	89.2198	84.9609	88.8903	84.9609	89.0363	84.9609	88.7548	84.9609	88.9111	84.9609	88.6882	84.9609	88.8473	84.9609	88.6847	84.9609	88.8379	84.9609	88.7297	84.9609	88.8684	84.9609	88.8035	84.9609	88.9208	84.9609	88.8868	84.9609	88.9777	84.9609	88.9628	84.9609	89.0244	84.9609	89.0194	84.9609	89.0504	84.9609	89.0494
87.8906	91.2323	87.8906	91.2044	87.8906	91.1842	87.8906	91.1025	87.8906	91.0625	87.8906	90.9336	87.8906	90.8749	87.8906	90.7093	87.8906	90.6339	87.8906	90.4455	87.8906	90.3571	87.8906	90.1623	87.8906	90.0668	87.8906	89.8831	87.8906	89.7889	87.8906	89.6327	87.8906	89.5502	87.8906	89.4339	87.8906	89.374	87.8906	89.3035	87.8906	89.2752	87.8906	89.2479	87.8906	89.2553	87.8906	89.2614	87.8906	89.302	87.8906	89.3283	87.8906	89.3932	87.8906	89.4267	87.8906	89.503	87.8906	89.5342	87.8906	89.6075	87.8906	89.6312	87.8906	89.6884	87.8906	89.7027	87.8906	89.7339	87.8906	89.7387
90.8203	91.7372	90.8203	91.7077	90.8203	91.6857	90.8203	91.5998	90.8203	91.5556	90.8203	91.4212	90.8203	91.3542	90.8203	91.1845	90.8203	91.0943	90.8203	90.9075	90.8203	90.7939	90.8203	90.6123	90.8203	90.4759	90.8203	90.3251	90.8203	90.1681	90.8203	90.0735	90.8203	89.9004	90.8203	89.8833	90.8203	89.7011	90.8203	89.7731	90.8203	89.5911	90.8203	89.7492	90.8203	89.5773	90.8203	89.8029	90.8203	89.6501	90.8203	89.9134	90.8203	89.7856	90.8203	90.0526	90.8203	89.9526	90.8203	90.1921	90.8203	90.1197	90.8203	90.3071	90.8203	90.2606	90.8203	90.3793	90.8203	90.3567	90.8203	90.3972
95.2148	92.1607	95.2148	92.1223	95.2148	92.1103	95.2148	91.9977	95.2148	91.9738	95.2148	91.7953	95.2148	91.7591	95.2148	91.5287	95.2148	91.4802	95.2148	91.2168	95.2148	91.1561	95.2148	90.8836	95.2148	90.8115	95.2148	90.5569	95.2148	90.4753	95.2148	90.2666	95.2148	90.1784	95.2148	90.0407	95.2148	89.9502	95.2148	89.9003	95.2148	89.8124	95.2148	89.8539	95.2148	89.7734	95.2148	89.8944	95.2148	89.825	95.2148	90.001	95.2148	89.9445	95.2148	90.144	95.2148	90.1007	95.2148	90.2923	95.2148	90.2612	95.2148	90.4179	95.2148	90.3981	95.2148	90.5001	95.2148	90.4904	95.2148	90.5257
98.1445	92.3225	98.1445	92.2802	98.1445	92.2698	98.1445	92.146	98.1445	92.1251	98.1445	91.9285	98.1445	91.8971	98.1445	91.6424	98.1445	91.6007	98.1445	91.3082	98.1445	91.2568	98.1445	90.9517	98.1445	90.8921	98.1445	90.603	98.1445	90.5379	98.1445	90.2947	98.1445	90.2278	98.1445	90.0572	98.1445	89.9932	98.1445	89.9131	98.1445	89.8567	98.1445	89.8712	98.1445	89.8258	98.1445	89.9231	98.1445	89.8902	98.1445	90.0454	98.1445	90.0242	98.1445	90.206	98.1445	90.1939	98.1445	90.3711	98.1445	90.3652	98.1445	90.5112	98.1445	90.5088	98.1445	90.6043	98.1445	90.6035	98.1445	90.6366
101.074	92.5004	101.074	92.4597	101.074	92.4392	101.074	92.3204	101.074	92.2792	101.074	92.0917	101.074	92.0295	101.074	91.7891	101.074	91.7058	101.074	91.434	101.074	91.3304	101.074	91.0539	101.074	90.932	101.074	90.6809	101.074	90.5447	101.074	90.3496	101.074	90.2057	101.074	90.0929	101.074	89.9503	101.074	89.9358	101.074	89.8041	101.074	89.888	101.074	89.7758	101.074	89.9413	101.074	89.8531	101.074	90.0705	101.074	90.0067	101.074	90.241	101.074	90.1985	101.074	90.4165	101.074	90.3903	101.074	90.5651	101.074	90.5506	101.074	90.663	101.074	90.6566	101.074	90.6953
105.469	92.8584	105.469	92.8104	105.469	92.795	105.469	92.6546	105.469	92.623	105.469	92.4008	105.469	92.3513	105.469	92.0654	105.469	91.9959	105.469	91.6712	105.469	91.579	105.469	91.2474	105.469	91.1296	105.469	90.8279	105.469	90.683	105.469	90.45	105.469	90.2785	105.469	90.1489	105.469	89.9554	105.469	89.952	105.469	89.7456	105.469	89.8712	105.469	89.6647	105.469	89.8988	105.469	89.7059	105.469	90.0093	105.469	89.8412	105.469	90.1664	105.469	90.03	105.469	90.3315	105.469	90.2296	105.469	90.4706	105.469	90.4034	105.469	90.5579	105.469	90.5247	105.469	90.5778
108.398	92.9369	108.398	92.8791	108.398	92.88	108.398	92.7101	108.398	92.7118	108.398	92.4405	108.398	92.4428	108.398	92.0878	108.398	92.0902	108.398	91.677	108.398	91.6786	108.398	91.2396	108.398	91.2389	108.398	90.813	108.398	90.8079	108.398	90.4368	108.398	90.4249	108.398	90.1483	108.398	90.1278	108.398	89.9746	108.398	89.9451	108.398	89.9254	108.398	89.8889	108.398	89.9892	108.398	89.9495	108.398	90.1365	108.398	90.098	108.398	90.3278	108.398	90.2942	108.398	90.5227	108.398	90.4965	108.398	90.6864	108.398	90.6687	108.398	90.7933	108.398	90.7844	108.398	90.8277
112.793	92.822	112.793	92.7623	112.793	92.7565	112.793	92.5814	112.793	92.5696	112.793	92.2909	112.793	92.2733	112.793	91.9108	112.793	91.8874	112.793	91.4692	112.793	91.4403	112.793	91.0023	112.793	90.9685	112.793	90.5532	112.793	90.5155	112.793	90.168	112.793	90.1283	112.793	89.8901	112.793	89.8508	112.793	89.7505	112.793	89.7144	112.793	89.758	112.793	89.7273	112.793	89.8949	112.793	89.8711	112.793	90.1223	112.793	90.1053	112.793	90.3908	112.793	90.3796	112.793	90.6524	112.793	90.6456	112.793	90.8673	112.793	90.8636	112.793	91.0072	112.793	91.0056	112.793	91.0552
117.188	92.7834	117.188	92.7151	117.188	92.7124	117.188	92.5113	117.188	92.506	117.188	92.1836	117.188	92.1764	117.188	91.7523	117.188	91.744	117.188	91.2461	117.188	91.2383	117.188	90.7027	117.188	90.6977	117.188	90.169	117.188	90.1698	117.188	89.698	117.188	89.7081	117.188	89.3444	117.188	89.3662	117.188	89.1521	117.188	89.1861	117.188	89.1399	117.188	89.183	117.188	89.2918	117.188	89.338	117.188	89.5606	117.188	89.6035	117.188	89.8836	117.188	89.9184	117.188	90.1997	117.188	90.2245	117.188	90.4597	117.188	90.4749	117.188	90.6297	117.188	90.6367	117.188	90.6905
120.117	93.2063	120.117	93.1378	120.117	93.1304	120.117	92.9287	120.117	92.9136	120.117	92.5905	120.117	92.5674	120.117	92.1426	120.117	92.111	120.117	91.6122	120.117	91.5724	120.117	91.0346	120.117	90.988	120.117	90.4526	120.117	90.4032	120.117	89.9153	120.117	89.8707	120.117	89.475	120.117	89.4464	120.117	89.1791	120.117	89.1785	120.117	89.057	120.117	89.0921	120.117	89.1077	120.117	89.1765	120.117	89.2967	120.117	89.3873	120.117	89.5666	120.117	89.6622	120.117	89.8543	120.117	89.9387	120.117	90.1046	120.117	90.1662	120.117	90.2774	120.117	90.3095	120.117	90.3485
124.512	93.8278	124.512	93.7546	124.512	93.7551	124.512	93.5397	124.512	93.5402	124.512	93.1961	124.512	93.1955	124.512	92.7454	124.512	92.742	124.512	92.2183	124.512	92.2097	124.512	91.6546	124.512	91.638	124.512	91.102	124.512	91.075	124.512	90.613	124.512	90.575	124.512	90.2397	124.512	90.1941	124.512	90.023	124.512	89.9779	124.512	89.9805	124.512	89.9473	124.512	90.0983	124.512	90.0865	124.512	90.3342	124.512	90.3469	124.512	90.631	124.512	90.6632	124.512	90.9307	124.512	90.9714	124.512	91.1845	124.512	91.221	124.512	91.3566	124.512	91.3779	124.512	91.4243
128.906	93.7402	128.906	93.6593	128.906	93.6625	128.906	93.4242	128.906	93.4303	128.906	93.0477	128.906	93.0563	128.906	92.5519	128.906	92.5621	128.906	91.9687	128.906	91.9793	128.906	91.3405	128.906	91.3494	128.906	90.72	128.906	90.725	128.906	90.1697	128.906	90.1688	128.906	89.756	128.906	89.749	128.906	89.5366	128.906	89.5266	128.906	89.54	128.906	89.5329	128.906	89.7491	128.906	89.7512	128.906	90.1042	128.906	90.1186	128.906	90.5251	128.906	90.5499	128.906	90.9344	128.906	90.9637	128.906	91.271	128.906	91.2967	128.906	91.4928	128.906	91.5078	128.906	91.575
133.301	93.8015	133.301	93.7197	133.301	93.7167	133.301	93.4755	133.301	93.4694	133.301	93.0813	133.301	93.0721	133.301	92.5582	133.301	92.5459	133.301	91.936	133.301	91.9208	133.301	91.2528	133.301	91.2357	133.301	90.5552	133.301	90.5381	133.301	89.8981	133.301	89.8848	133.301	89.345	133.301	89.341	133.301	88.9625	133.301	88.9747	133.301	88.8052	133.301	88.839	133.301	88.8891	133.301	88.9446	133.301	89.1748	133.301	89.2458	133.301	89.5789	133.301	89.6546	133.301	90.0053	133.301	90.074	133.301	90.3714	133.301	90.423	133.301	90.6192	133.301	90.6468	133.301	90.7149
139.16	93.5101	139.16	93.435	139.16	93.4127	139.16	93.1928	139.16	93.1473	139.16	92.7991	139.16	92.7286	139.16	92.2797	139.16	92.1818	139.16	91.6709	139.16	91.5425	139.16	91.0178	139.16	90.856	139.16	90.372	139.16	90.1748	139.16	89.7873	139.16	89.5552	139.16	89.315	139.16	89.0525	139.16	88.9975	139.16	88.715	139.16	88.8606	139.16	88.574	139.16	88.9043	139.16	88.6324	139.16	89.0967	139.16	88.857	139.16	89.3803	139.16	89.1846	139.16	89.6856	139.16	89.5396	139.16	89.9477	139.16	89.852	139.16	90.1165	139.16	90.0694	139.16	90.1607
143.555	93.3166	143.555	93.2177	143.555	93.2258	143.555	92.9345	143.555	92.9502	143.555	92.4834	143.555	92.506	143.555	91.8927	143.555	91.9209	143.555	91.2028	143.555	91.2349	143.555	90.4659	143.555	90.5	143.555	89.7437	143.555	89.7784	143.555	89.1026	143.555	89.1372	143.555	88.6064	143.555	88.6409	143.555	88.305	143.555	88.3392	143.555	88.2215	143.555	88.2535	143.555	88.342	143.555	88.3679	143.555	88.6161	143.555	88.6322	143.555	88.9715	143.555	88.9766	143.555	89.3322	143.555	89.329	143.555	89.6342	143.555	89.6276	143.555	89.8316	143.555	89.8268	143.555	89.8982
147.949	93.6207	147.949	93.5191	147.949	93.5206	147.949	93.222	147.949	93.2235	147.949	92.7463	147.949	92.745	147.949	92.1211	147.949	92.113	147.949	91.3882	147.949	91.3684	147.949	90.6025	147.949	90.5669	147.949	89.8303	147.949	89.7778	147.949	89.1458	147.949	89.0818	147.949	88.623	147.949	88.5622	147.949	88.3223	147.949	88.2863	147.949	88.2717	147.949	88.2794	147.949	88.4517	147.949	88.5083	147.949	88.7989	147.949	88.8926	147.949	89.2274	147.949	89.3361	147.949	89.6532	147.949	89.7542	147.949	90.009	147.949	90.085	147.949	90.2485	147.949	90.2889	147.949	90.3451
153.809	94.0206	153.809	93.9074	153.809	93.9232	153.809	93.5893	153.809	93.6196	153.809	93.0826	153.809	93.1244	153.809	92.4151	153.809	92.4635	153.809	91.6272	153.809	91.6745	153.809	90.7722	153.809	90.8078	153.809	89.9162	153.809	89.9268	153.809	89.1368	153.809	89.1096	153.809	88.5208	153.809	88.4495	153.809	88.1537	153.809	88.048	153.809	88.0945	153.809	87.9821	153.809	88.3414	153.809	88.256	153.809	88.8203	153.809	88.7817	153.809	89.413	153.809	89.4188	153.809	90.0002	153.809	90.0325	153.809	90.4871	153.809	90.5238	153.809	90.8094	153.809	90.8327	153.809	90.9297
159.668	93.6953	159.668	93.578	159.668	93.5938	159.668	93.2483	159.668	93.2783	159.668	92.7246	159.668	92.7659	159.668	92.0383	159.668	92.0859	159.668	91.2337	159.668	91.2811	159.668	90.3671	159.668	90.4063	159.668	89.5023	159.668	89.5245	159.668	88.7042	159.668	88.7018	159.668	88.0331	159.668	88.0018	159.668	87.5415	159.668	87.4827	159.668	87.2725	159.668	87.1944	159.668	87.249	159.668	87.1654	159.668	87.4561	159.668	87.3814	159.668	87.8299	159.668	87.774	159.668	88.2709	159.668	88.236	159.668	88.6733	159.668	88.6554	159.668	88.9505	159.668	88.9436	159.668	89.0473
165.527	93.1744	165.527	93.0395	165.527	93.0662	165.527	92.668	165.527	92.7213	165.527	92.0801	165.527	92.1595	165.527	91.3125	165.527	91.4163	165.527	90.4203	165.527	90.5451	165.527	89.4797	165.527	89.6186	165.527	88.5847	165.527	88.7267	165.527	87.8382	165.527	87.9684	165.527	87.332	165.527	87.4343	165.527	87.1203	165.527	87.1821	165.527	87.198	165.527	87.2153	165.527	87.5033	165.527	87.4819	165.527	87.9442	165.527	87.8964	165.527	88.4278	165.527	88.3688	165.527	88.8776	165.527	88.8213	165.527	89.236	165.527	89.1931	165.527	89.4626	165.527	89.4396	165.527	89.533
171.387	93.7962	171.387	93.6716	171.387	93.6561	171.387	93.2884	171.387	93.2566	171.387	92.6646	171.387	92.6142	171.387	91.8319	171.387	91.7591	171.387	90.8388	171.387	90.737	171.387	89.7522	171.387	89.6117	171.387	88.6589	171.387	88.4661	171.387	87.6637	171.387	87.405	171.387	86.8848	171.387	86.5568	171.387	86.435	171.387	86.0612	171.387	86.3767	171.387	86.0115	171.387	86.6749	171.387	86.3765	171.387	87.2044	171.387	87.0003	171.387	87.813	171.387	87.6956	171.387	88.3773	171.387	88.3211	171.387	88.8192	171.387	88.7978	171.387	89.0968	171.387	89.091	171.387	89.1903
177.246	93.3873	177.246	93.2454	177.246	93.263	177.246	92.8431	177.246	92.8791	177.246	92.2001	177.246	92.2563	177.246	91.3514	177.246	91.4308	177.246	90.3496	177.246	90.4567	177.246	89.2671	177.246	89.4069	177.246	88.194	177.246	88.371	177.246	87.2367	177.246	87.4493	177.246	86.515	177.246	86.7466	177.246	86.1508	177.246	86.3622	177.246	86.225	177.246	86.3636	177.246	86.7117	177.246	86.7433	177.246	87.4681	177.246	87.4009	177.246	88.3068	177.246	88.1811	177.246	89.0711	177.246	88.9341	177.246	89.6594	177.246	89.5487	177.246	90.0161	177.246	89.9552	177.246	90.116
183.105	93.1323	183.105	92.987	183.105	92.9933	183.105	92.5655	183.105	92.5751	183.105	91.8903	183.105	91.8968	183.105	91	183.105	90.9944	183.105	89.9518	183.105	89.9236	183.105	88.8224	183.105	88.7619	183.105	87.7043	183.105	87.6083	183.105	86.6995	183.105	86.5791	183.105	85.9158	183.105	85.8032	183.105	85.4637	183.105	85.4064	183.105	85.4332	183.105	85.4647	183.105	85.834	183.105	85.9425	183.105	86.5548	183.105	86.6926	183.105	87.4098	183.105	87.5313	183.105	88.2227	183.105	88.3071	183.105	88.8707	183.105	88.9184	183.105	89.284	183.105	89.3042	183.105	89.4305
188.965	93.2594	188.965	93.102	188.965	93.1197	188.965	92.6543	188.965	92.6894	188.965	91.9367	188.965	91.9884	188.965	90.9864	188.965	91.0527	188.965	89.8607	188.965	89.9373	188.965	88.6393	188.965	88.7173	188.965	87.4238	188.965	87.4876	188.965	86.3342	188.965	86.3635	188.965	85.5048	188.965	85.4871	188.965	85.076	188.965	85.0303	188.965	85.1509	188.965	85.1341	188.965	85.7165	188.965	85.781	188.965	86.6175	188.965	86.7641	188.965	87.6358	188.965	87.8228	188.965	88.5841	188.965	88.7626	188.965	89.3381	188.965	89.4726	188.965	89.8277	188.965	89.8989	188.965	90.0187
196.289	93.0929	196.289	92.9337	196.289	92.9437	196.289	92.4732	196.289	92.4922	196.289	91.7338	196.289	91.7594	196.289	90.7552	196.289	90.7832	196.289	89.5987	196.289	89.6228	196.289	88.3485	196.289	88.36	196.289	87.1092	196.289	87.0963	196.289	85.9958	196.289	85.9447	196.289	85.1281	196.289	85.0258	196.289	84.6311	196.289	84.4738	196.289	84.6187	196.289	84.4235	196.289	85.1192	196.289	84.9238	196.289	86.0079	196.289	85.8482	196.289	87.0582	196.289	86.9492	196.289	88.0545	196.289	87.9912	196.289	88.8477	196.289	88.8167	196.289	89.3511	196.289	89.3393	196.289	89.5203
203.613	92.826	203.613	92.6345	203.613	92.677	203.613	92.1095	203.613	92.1945	203.613	91.2737	203.613	91.4008	203.613	90.1685	203.613	90.3374	203.613	88.8598	203.613	89.0691	203.613	87.4409	203.613	87.6866	203.613	86.0305	203.613	86.3034	203.613	84.7628	203.613	85.0467	203.613	83.7835	203.613	84.0579	203.613	83.2602	203.613	83.5084	203.613	83.3556	203.613	83.5742	203.613	84.0971	203.613	84.2923	203.613	85.2824	203.613	85.457	203.613	86.6015	203.613	86.7515	203.613	87.8033	203.613	87.9224	203.613	88.7386	203.613	88.8213	203.613	89.3312	203.613	89.3736	203.613	89.5464
210.938	93.3107	210.938	93.1251	210.938	93.1313	210.938	92.5819	210.938	92.5921	210.938	91.7034	210.938	91.7122	210.938	90.5303	210.938	90.5284	210.938	89.1286	210.938	89.1005	210.938	87.5942	210.938	87.5157	210.938	86.0523	210.938	85.8867	210.938	84.6456	210.938	84.3442	210.938	83.523	210.938	83.0438	210.938	82.8441	210.938	82.2095	210.938	82.7721	210.938	82.1304	210.938	83.3763	210.938	82.9205	210.938	84.5082	210.938	84.2979	210.938	85.8602	210.938	85.8217	210.938	87.1403	210.938	87.1777	210.938	88.1563	210.938	88.2059	210.938	88.8043	210.938	88.8347	210.938	89.0359
218.262	93.1637	218.262	92.9506	218.262	92.9913	218.262	92.3567	218.262	92.4424	218.262	91.4017	218.262	91.5408	218.262	90.1251	218.262	90.3307	218.262	88.5946	218.262	88.8832	218.262	86.9144	218.262	87.3026	218.262	85.2266	218.262	85.7207	218.262	83.696	218.262	84.2731	218.262	82.4842	218.262	83.0723	218.262	81.7425	218.262	82.2173	218.262	81.6086	218.262	81.8365	218.262	82.1246	218.262	82.0586	218.262	83.1305	218.262	82.8594	218.262	84.3321	218.262	83.9984	218.262	85.4624	218.262	85.1699	218.262	86.3479	218.262	86.1442	218.262	86.8916	218.262	86.7895	218.262	87.0442
225.586	92.6466	225.586	92.418	225.586	92.4664	225.586	91.7847	225.586	91.886	225.586	90.7653	225.586	90.929	225.586	89.3986	225.586	89.6395	225.586	87.7544	225.586	88.0915	225.586	85.9474	225.586	86.3963	225.586	84.1457	225.586	84.7011	225.586	82.5635	225.586	83.1707	225.586	81.4448	225.586	81.9871	225.586	81.0498	225.586	81.4032	225.586	81.5494	225.586	81.7089	225.586	82.813	225.586	82.9018	225.586	84.449	225.586	84.5602	225.586	86.0849	225.586	86.2255	225.586	87.4933	225.586	87.6328	225.586	88.5588	225.586	88.6672	225.586	89.2268	225.586	89.2851	225.586	89.472
232.91	92.4497	232.91	92.1833	232.91	92.2841	232.91	91.4876	232.91	91.6958	232.91	90.3777	232.91	90.7068	232.91	88.8871	232.91	89.3584	232.91	87.0756	232.91	87.7177	232.91	85.0371	232.91	85.883	232.91	82.891	232.91	83.9738	232.91	80.7405	232.91	82.0978	232.91	78.6678	232.91	80.3477	232.91	77.0619	232.91	78.9934	232.91	77.2532	232.91	78.8585	232.91	79.7027	232.91	80.546	232.91	82.7565	232.91	83.1408	232.91	85.4244	232.91	85.6256	232.91	87.4995	232.91	87.6249	232.91	88.9714	232.91	89.0521	232.91	89.856	232.91	89.8969	232.91	90.1637
241.699	94.0258	241.699	93.7365	241.699	93.8903	241.699	93.0251	241.699	93.3396	241.699	91.907	241.699	92.3973	241.699	90.4158	241.699	91.1066	241.699	88.6125	241.699	89.5385	241.699	86.5975	241.699	87.7984	241.699	84.5119	241.699	86.0139	241.699	82.4939	241.699	84.2808	241.699	80.5828	241.699	82.5779	241.699	78.6888	241.699	80.7412	241.699	76.9234	241.699	78.6709	241.699	76.5896	241.699	77.2922	241.699	78.9233	241.699	78.8373	241.699	82.1146	241.699	82.0252	241.699	84.794	241.699	84.7919	241.699	86.7011	241.699	86.7298	241.699	87.8354	241.699	87.8573	241.699	88.2191
250.488	93.0717	250.488	92.768	250.488	92.9032	250.488	91.9945	250.488	92.2739	250.488	90.771	250.488	91.2129	250.488	89.1446	250.488	89.7747	250.488	87.2091	250.488	88.0559	250.488	85.1312	250.488	86.2109	250.488	83.1567	250.488	84.4449	250.488	81.5282	250.488	82.9428	250.488	80.3086	250.488	81.7567	250.488	79.3021	250.488	80.7789	250.488	78.2078	250.488	79.8524	250.488	76.9609	250.488	78.9725	250.488	76.4064	250.488	78.578	250.488	77.8885	250.488	79.3853	250.488	80.4505	250.488	81.1556	250.488	82.6238	250.488	82.9118	250.488	83.9726	250.488	84.0742	250.488	84.4482
259.277	94.1727	259.277	93.8435	259.277	94.0095	259.277	93.0223	259.277	93.3641	259.277	91.7213	259.277	92.2603	259.277	89.9708	259.277	90.7432	259.277	87.8359	259.277	88.8938	259.277	85.4428	259.277	86.8455	259.277	83.0049	259.277	84.788	259.277	80.7927	259.277	82.9233	259.277	79.0341	259.277	81.3945	259.277	77.9248	259.277	80.3185	259.277	77.7726	259.277	79.9336	259.277	78.7556	259.277	80.4996	259.277	80.5246	259.277	81.8685	259.277	82.5224	259.277	83.5387	259.277	84.3565	259.277	85.085	259.277	85.8062	259.277	86.2719	259.277	86.7545	259.277	86.98	259.277	87.1489
268.066	94.529	268.066	94.2513	268.066	94.3422	268.066	93.5127	268.066	93.6986	268.066	92.329	268.066	92.6202	268.066	90.7339	268.066	91.1507	268.066	88.7939	268.066	89.3713	268.066	86.6372	268.066	87.4235	268.066	84.4876	268.066	85.5201	268.066	82.6301	268.066	83.8824	268.066	81.226	268.066	82.5852	268.066	80.1681	268.066	81.4957	268.066	79.2673	268.066	80.4574	268.066	78.5797	268.066	79.5826	268.066	78.5565	268.066	79.4194	268.066	79.5807	268.066	80.3813	268.066	81.2552	268.066	81.9567	268.066	82.8703	268.066	83.3857	268.066	84.004	268.066	84.2744	268.066	84.4883
276.855	93.159	276.855	92.7981	276.855	92.9917	276.855	91.9104	276.855	92.3084	276.855	90.5112	276.855	91.1388	276.855	88.6357	276.855	89.539	276.855	86.3532	276.855	87.6082	276.855	83.8033	276.855	85.5148	276.855	81.2638	276.855	83.516	276.855	79.1798	276.855	81.9052	276.855	77.9299	276.855	80.8399	276.855	77.523	276.855	80.2776	276.855	77.8686	276.855	80.2351	276.855	79.0335	276.855	80.9504	276.855	80.8998	276.855	82.459	276.855	83.038	276.855	84.3105	276.855	85.0289	276.855	86.0086	276.855	86.6184	276.855	87.2804	276.855	87.6767	276.855	88.0088	276.855	88.1456
287.109	92.1412	287.109	91.7359	287.109	91.9134	287.109	90.6937	287.109	91.0586	287.109	89.0141	287.109	89.5905	287.109	86.7091	287.109	87.5465	287.109	83.8297	287.109	85.0248	287.109	80.5418	287.109	82.2558	287.109	77.3067	287.109	79.6815	287.109	74.9492	287.109	77.8676	287.109	73.7392	287.109	77.0602	287.109	72.7722	287.109	76.8978	287.109	71.5979	287.109	76.9053	287.109	72.6155	287.109	77.2467	287.109	76.6969	287.109	78.757	287.109	80.5952	287.109	81.3135	287.109	83.4826	287.109	83.8215	287.109	85.459	287.109	85.6848	287.109	86.6425	287.109	86.7692	287.109	87.0802
297.363	93.2158	297.363	92.6918	297.363	93.1194	297.363	91.5356	297.363	92.4118	297.363	89.7294	297.363	91.1011	297.363	87.2439	297.363	89.1961	297.363	84.031	297.363	86.7136	297.363	80.0283	297.363	83.7088	297.363	75.2684	297.363	80.3537	297.363	70.5497	297.363	77.0188	297.363	68.2474	297.363	74.0092	297.363	68.1032	297.363	71.1582	297.363	67.8032	297.363	69.6565	297.363	67.5891	297.363	72.4641	297.363	71.0651	297.363	76.4222	297.363	76.2671	297.363	79.6365	297.363	80.3191	297.363	82.0952	297.363	83.0415	297.363	83.871	297.363	84.6229	297.363	84.9365	297.363	85.2173
307.617	91.5843	307.617	90.9699	307.617	91.478	307.617	89.5941	307.617	90.6769	307.617	87.3875	307.617	89.2005	307.617	84.2239	307.617	87.0705	307.617	79.8597	307.617	84.3273	307.617	73.905	307.617	81.0849	307.617	68.203	307.617	77.7176	307.617	69.8641	307.617	75.1817	307.617	72.1098	307.617	74.2793	307.617	72.9043	307.617	74.1629	307.617	72.5399	307.617	73.6566	307.617	71.3319	307.617	72.516	307.617	70.9684	307.617	72.668	307.617	73.8908	307.617	75.9247	307.617	77.731	307.617	79.433	307.617	80.6875	307.617	81.8578	307.617	82.5532	307.617	83.1439	307.617	83.3655
319.336	89.9729	319.336	89.2414	319.336	89.879	319.336	87.6332	319.336	88.9769	319.336	85.0407	319.336	87.2597	319.336	81.2584	319.336	84.7027	319.336	76.018	319.336	81.2821	319.336	70.8053	319.336	77.0685	319.336	71.2804	319.336	72.6711	319.336	72.8948	319.336	70.2024	319.336	73.23	319.336	70.8477	319.336	72.7558	319.336	72.5229	319.336	72.3607	319.336	73.8856	319.336	73.1323	319.336	74.7287	319.336	75.245	319.336	75.6546	319.336	77.8986	319.336	77.5763	319.336	80.4118	319.336	80.146	319.336	82.4146	319.336	82.3505	319.336	83.7043	319.336	83.7207	319.336	84.1633
329.59	91.5814	329.59	91.0589	329.59	91.3196	329.59	89.7217	329.59	90.2832	329.59	87.5127	329.59	88.462	329.59	84.3529	329.59	85.8221	329.59	80.2699	329.59	82.2981	329.59	76.2778	329.59	77.8036	329.59	75.0937	329.59	72.4026	329.59	75.6508	329.59	67.1828	329.59	75.5504	329.59	64.886	329.59	74.0651	329.59	66.7855	329.59	70.2212	329.59	70.779	329.59	61.5009	329.59	74.3766	329.59	70.5918	329.59	77.2281	329.59	77.2254	329.59	79.6525	329.59	81.1007	329.59	81.8293	329.59	83.5212	329.59	83.6352	329.59	84.8695	329.59	84.8419	329.59	85.2844
341.309	91.2231	341.309	90.6072	341.309	90.98	341.309	89.1011	341.309	89.8718	341.309	86.6248	341.309	87.8517	341.309	83.0276	341.309	84.8062	341.309	78.1706	341.309	80.4754	341.309	73.3574	341.309	74.1877	341.309	73.1299	341.309	64.073	341.309	74.5586	341.309	62.1123	341.309	75.0005	341.309	64.5156	341.309	74.3728	341.309	59.6196	341.309	72.5707	341.309	59.1792	341.309	70.2393	341.309	71.548	341.309	72.9921	341.309	77.3957	341.309	78.2619	341.309	81.1749	341.309	82.1431	341.309	83.789	341.309	84.6991	341.309	85.5499	341.309	86.1938	341.309	86.5494	341.309	86.7812
353.027	93.3318	353.027	92.8068	353.027	92.9915	353.027	91.3928	353.027	91.772	353.027	89.0251	353.027	89.6069	353.027	85.5868	353.027	86.324	353.027	80.988	353.027	81.4643	353.027	76.2199	353.027	73.3651	353.027	75.1597	353.027	52.4375	353.027	76.1892	353.027	70.6853	353.027	76.3522	353.027	73.608	353.027	75.2014	353.027	74.0705	353.027	72.0425	353.027	74.0533	353.027	64.4575	353.027	75.9205	353.027	72.4209	353.027	79.7846	353.027	80.0629	353.027	83.6029	353.027	84.6813	353.027	86.6088	353.027	87.6555	353.027	88.699	353.027	89.412	353.027	89.8737	353.027	90.124
366.211	93.5521	366.211	93.0344	366.211	93.1876	366.211	91.5894	366.211	91.9323	366.211	89.0907	366.211	89.7147	366.211	85.2306	366.211	86.3355	366.211	79.1721	366.211	81.2214	366.211	69.7318	366.211	72.1554	366.211	73.5896	366.211	68.5685	366.211	77.3124	366.211	75.9177	366.211	78.5828	366.211	78.6112	366.211	78.6806	366.211	79.5158	366.211	77.9904	366.211	79.28	366.211	76.255	366.211	78.1121	366.211	72.2209	366.211	76.686	366.211	67.8281	366.211	77.4722	366.211	76.4207	366.211	80.6237	366.211	81.6477	366.211	83.4521	366.211	84.3883	366.211	85.1007	366.211	85.4466
379.395	92.6993	379.395	92.2342	379.395	92.179	379.395	90.7377	379.395	90.6534	379.395	88.0557	379.395	88.0248	379.395	83.7482	379.395	84.0397	379.395	76.3268	379.395	78.1023	379.395	69.4109	379.395	71.1341	379.395	77.0975	379.395	73.6011	379.395	80.1287	379.395	76.4545	379.395	81.0294	379.395	77.6003	379.395	80.5638	379.395	77.8915	379.395	78.8259	379.395	77.6199	379.395	75.3171	379.395	76.4215	379.395	69.0446	379.395	73.6728	379.395	74.1935	379.395	74.2579	379.395	80.8503	379.395	80.25	379.395	84.7195	379.395	84.4403	379.395	86.8199	379.395	86.7254	379.395	87.4728
392.578	93.3958	392.578	92.9514	392.578	92.7473	392.578	91.3744	392.578	90.9293	392.578	88.4646	392.578	87.6862	392.578	83.5935	392.578	82.3165	392.578	73.8195	392.578	73.7855	392.578	69.5966	392.578	76.1623	392.578	78.4767	392.578	80.1543	392.578	81.2314	392.578	81.6682	392.578	82.2211	392.578	81.9687	392.578	82.3165	392.578	81.5295	392.578	81.8422	392.578	80.4766	392.578	80.848	392.578	78.7973	392.578	79.0282	392.578	76.5547	392.578	76.2065	392.578	75.1855	392.578	76.5594	392.578	77.8751	392.578	80.8917	392.578	81.6542	392.578	83.7979	392.578	84.0585	392.578	84.7961
405.762	92.0353	405.762	91.3546	405.762	91.591	405.762	89.4955	405.762	89.9694	405.762	86.2548	405.762	86.961	405.762	81.04	405.762	82.0069	405.762	72.3701	405.762	74.8491	405.762	73.1923	405.762	76.4568	405.762	78.2703	405.762	80.1933	405.762	80.6074	405.762	81.7533	405.762	81.566	405.762	82.1195	405.762	81.5404	405.762	81.8866	405.762	80.5739	405.762	81.3554	405.762	78.461	405.762	80.4082	405.762	74.3949	405.762	78.4924	405.762	64.5122	405.762	74.989	405.762	69.8032	405.762	73.2581	405.762	77.0422	405.762	77.4239	405.762	80.2357	405.762	80.3769	405.762	81.2542
420.41	91.0382	420.41	90.3306	420.41	90.2949	420.41	87.9962	420.41	88.0048	420.41	83.3152	420.41	83.727	420.41	73.0259	420.41	77.0686	420.41	74.295	420.41	77.5183	420.41	80.2895	420.41	81.5959	420.41	82.145	420.41	83.5995	420.41	82.5301	420.41	84.4033	420.41	82.4136	420.41	84.4455	420.41	82.1965	420.41	83.8428	420.41	81.7719	420.41	82.5847	420.41	80.711	420.41	80.6272	420.41	78.2332	420.41	77.748	420.41	72.5236	420.41	72.9367	420.41	73.1011	420.41	71.2916	420.41	80.3475	420.41	78.6489	420.41	83.6041	420.41	82.7696	420.41	84.3026
435.059	90.3104	435.059	89.6335	435.059	89.355	435.059	87.1096	435.059	86.6234	435.059	81.7054	435.059	81.6019	435.059	68.2809	435.059	75.9858	435.059	78.0113	435.059	79.0221	435.059	82.7118	435.059	81.8994	435.059	84.4263	435.059	83.2556	435.059	84.8481	435.059	83.9243	435.059	84.5691	435.059	84.2276	435.059	83.913	435.059	84.1714	435.059	83.0693	435.059	83.6692	435.059	81.9365	435.059	82.5794	435.059	79.8658	435.059	80.502	435.059	75.0809	435.059	76.1259	435.059	62.6528	435.059	63.6494	435.059	76.3958	435.059	75.2671	435.059	81.1079	435.059	80.6968	435.059	82.2756
451.172	90.3548	451.172	89.5285	451.172	89.3987	451.172	86.6472	451.172	86.4499	451.172	80.3084	451.172	80.7381	451.172	70.8201	451.172	76.4686	451.172	80.6168	451.172	81.2713	451.172	84.2216	451.172	83.9277	451.172	85.5905	451.172	85.0279	451.172	85.9191	451.172	85.4348	451.172	85.6399	451.172	85.4773	451.172	84.8989	451.172	85.194	451.172	83.7364	451.172	84.5629	451.172	82.1614	451.172	83.5256	451.172	79.8678	451.172	81.6953	451.172	75.2078	451.172	77.9613	451.172	67.7134	451.172	73.6268	451.172	78.7023	451.172	79.6737	451.172	83.4048	451.172	83.7121	451.172	84.8328
465.82	91.6393	465.82	90.6721	465.82	90.7808	465.82	87.574	465.82	87.8776	465.82	80.8057	465.82	82.1456	465.82	74.3549	465.82	78.9408	465.82	82.7891	465.82	83.9096	465.82	86.0853	465.82	86.43	465.82	87.4149	465.82	87.2258	465.82	87.7747	465.82	87.0443	465.82	87.5406	465.82	86.2966	465.82	86.8916	465.82	85.2839	465.82	85.9619	465.82	84.3084	465.82	84.8391	465.82	83.6	465.82	83.3587	465.82	82.9036	465.82	80.8773	465.82	81.3145	465.82	77.3752	465.82	78.4842	465.82	79.4398	465.82	79.6629	465.82	83.3965	465.82	83.3851	465.82	84.7271
483.398	89.8221	483.398	88.5683	483.398	88.5988	483.398	84.1422	483.398	84.2007	483.398	71.3239	483.398	73.5035	483.398	80.1207	483.398	81.6455	483.398	85.1781	483.398	86.3997	483.398	86.9446	483.398	88.2153	483.398	87.4982	483.398	88.7398	483.398	87.6205	483.398	88.5826	483.398	87.5605	483.398	87.9943	483.398	87.278	483.398	87.112	483.398	86.7303	483.398	86.1692	483.398	85.9892	483.398	85.4361	483.398	84.9918	483.398	84.682	483.398	83.0207	483.398	82.9497	483.398	78.1112	483.398	78.9112	483.398	71.5552	483.398	76.3486	483.398	80.0736	483.398	81.0642	483.398	82.6237
499.512	88.2498	499.512	86.8258	499.512	86.3967	499.512	80.6598	499.512	79.2454	499.512	71.204	499.512	74.2095	499.512	83.9892	499.512	84.5952	499.512	87.489	499.512	87.834	499.512	88.5712	499.512	89.0587	499.512	88.5547	499.512	89.4636	499.512	88.0954	499.512	89.509	499.512	87.5407	499.512	89.2449	499.512	86.9736	499.512	88.5525	499.512	86.3883	499.512	87.3876	499.512	85.8293	499.512	85.9832	499.512	85.129	499.512	84.7813	499.512	83.4789	499.512	83.4889	499.512	79.1411	499.512	80.389	499.512	70.1356	499.512	70.4218	499.512	77.2323	499.512	73.7515	499.512	79.0455
517.09	90.5712	517.09	89.188	517.09	88.7356	517.09	83.4972	517.09	81.7656	517.09	77.0824	517.09	77.2853	517.09	86.3672	517.09	86.8716	517.09	89.6769	517.09	89.848	517.09	90.6869	517.09	90.6418	517.09	90.6121	517.09	90.4202	517.09	90.0874	517.09	89.8259	517.09	89.3992	517.09	89.1484	517.09	88.4809	517.09	88.2602	517.09	87.1523	517.09	86.9039	517.09	85.5473	517.09	85.312	517.09	84.1687	517.09	84.3155	517.09	82.4087	517.09	83.2097	517.09	76.9534	517.09	78.9202	517.09	68.8256	517.09	58.7357	517.09	81.4473	517.09	80.5748	517.09	83.6515
536.133	91.1122	536.133	89.7301	536.133	89.2095	536.133	84.2885	536.133	82.2225	536.133	80.0215	536.133	79.9144	536.133	86.9936	536.133	87.6435	536.133	89.8247	536.133	90.1104	536.133	90.6554	536.133	90.5303	536.133	90.6468	536.133	90.1493	536.133	90.4121	536.133	89.8614	536.133	90.1502	536.133	89.9813	536.133	89.7447	536.133	90.0765	536.133	88.978	536.133	89.5643	536.133	87.75	536.133	88.2112	536.133	86.2072	536.133	86.4905	536.133	84.1025	536.133	84.934	536.133	78.978	536.133	81.6287	536.133	68.4772	536.133	67.9344	536.133	81.7561	536.133	79.8158	536.133	83.8479
555.176	92.5419	555.176	91.0567	555.176	91.1471	555.176	86.2885	555.176	86.2886	555.176	83.6616	555.176	82.6145	555.176	88.5377	555.176	88.2713	555.176	90.8039	555.176	90.9462	555.176	91.1403	555.176	91.5502	555.176	90.4443	555.176	91.0185	555.176	89.3917	555.176	89.9981	555.176	88.4166	555.176	89.0329	555.176	87.5703	555.176	88.3753	555.176	86.8781	555.176	87.8948	555.176	86.5506	555.176	87.3542	555.176	86.2586	555.176	86.5566	555.176	85.0256	555.176	84.9601	555.176	81.3533	555.176	80.679	555.176	70.5118	555.176	55.2936	555.176	78.7502	555.176	79.4737	555.176	82.3899
574.219	93.5024	574.219	92.1901	574.219	91.874	574.219	87.8442	574.219	86.5565	574.219	85.2142	574.219	83.8975	574.219	89.2495	574.219	89.4361	574.219	91.3912	574.219	91.7176	574.219	91.8569	574.219	92.0905	574.219	91.5033	574.219	91.601	574.219	90.8994	574.219	90.9506	574.219	90.2931	574.219	90.3818	574.219	89.5511	574.219	89.6044	574.219	88.2799	574.219	88.1439	574.219	86.1687	574.219	85.8511	574.219	83.8027	574.219	84.157	574.219	82.4458	574.219	84.2992	574.219	79.8473	574.219	82.7145	574.219	75.3759	574.219	75.143	574.219	82.0093	574.219	80.3479	574.219	84.1605
594.727	94.4728	594.727	92.9055	594.727	93.2869	594.727	87.985	594.727	89.1369	594.727	83.3355	594.727	84.9139	594.727	88.2899	594.727	88.4818	594.727	90.4998	594.727	90.6162	594.727	90.5185	594.727	90.7083	594.727	89.4265	594.727	89.7186	594.727	88.2036	594.727	88.5559	594.727	87.7248	594.727	87.8957	594.727	87.924	594.727	87.6879	594.727	87.9591	594.727	87.5198	594.727	87.3078	594.727	86.98	594.727	86.1973	594.727	85.4444	594.727	84.7263	594.727	82.5053	594.727	80.9407	594.727	79.1615	594.727	69.1973	594.727	77.6248	594.727	80.1098	594.727	80.9878	594.727	83.0414
615.234	95.057	615.234	93.6754	615.234	93.513	615.234	89.4608	615.234	88.3108	615.234	87.4507	615.234	84.0756	615.234	90.6699	615.234	89.3936	615.234	91.9119	615.234	91.3486	615.234	91.1488	615.234	91.0002	615.234	89.2287	615.234	89.4036	615.234	87.7138	615.234	87.7496	615.234	87.8194	615.234	87.3846	615.234	88.3562	615.234	87.9993	615.234	88.2454	615.234	88.2645	615.234	87.2731	615.234	87.4007	615.234	85.6972	615.234	85.5167	615.234	84.3699	615.234	84.0106	615.234	82.1127	615.234	81.7568	615.234	74.2491	615.234	70.9505	615.234	80.2019	615.234	79.4042	615.234	83.4952
637.207	95.3675	637.207	94.0922	637.207	93.6889	637.207	89.6542	637.207	88.0486	637.207	85.391	637.207	82.9537	637.207	89.3618	637.207	89.6004	637.207	91.4944	637.207	91.9349	637.207	91.5323	637.207	91.8691	637.207	90.1973	637.207	90.315	637.207	87.9009	637.207	87.8707	637.207	85.4661	637.207	85.6086	637.207	84.4782	637.207	84.6258	637.207	84.3043	637.207	84.143	637.207	83.3075	637.207	83.1896	637.207	82.3478	637.207	82.9054	637.207	82.463	637.207	83.5847	637.207	80.015	637.207	81.5075	637.207	73.6761	637.207	70.271	637.207	83.8944	637.207	82.8263	637.207	86.3561
659.18	95.0655	659.18	93.6827	659.18	93.5048	659.18	88.9969	659.18	88.3583	659.18	84.0462	659.18	83.0037	659.18	88.0591	659.18	88.107	659.18	90.0362	659.18	90.1603	659.18	89.8872	659.18	89.9718	659.18	88.515	659.18	88.605	659.18	86.5859	659.18	86.857	659.18	84.9055	659.18	85.6129	659.18	84.1831	659.18	85.3904	659.18	84.3503	659.18	85.5733	659.18	84.2843	659.18	85.1668	659.18	82.4401	659.18	83.4993	659.18	78.4875	659.18	80.0613	659.18	77.6369	659.18	76.2605	659.18	78.0735	659.18	76.8096	659.18	79.1911	659.18	79.5422	659.18	80.8126
682.617	95.2649	682.617	93.7684	682.617	93.4337	682.617	88.4576	682.617	87.2665	682.617	84.728	682.617	83.9075	682.617	89.4412	682.617	89.6195	682.617	90.9678	682.617	91.186	682.617	90.3481	682.617	90.5403	682.617	88.5444	682.617	88.5468	682.617	86.2977	682.617	85.692	682.617	84.3191	682.617	83.1608	682.617	83.2726	682.617	83.0629	682.617	83.4349	682.617	83.9204	682.617	83.6671	682.617	83.6331	682.617	82.7637	682.617	82.4578	682.617	81.5007	682.617	81.5451	682.617	79.6604	682.617	79.4077	682.617	66.002	682.617	70.4005	682.617	79.2563	682.617	80.0414	682.617	83.4523
707.52	94.4427	707.52	92.879	707.52	92.6615	707.52	87.2863	707.52	86.1788	707.52	82.4195	707.52	79.3249	707.52	88.1026	707.52	87.8374	707.52	89.9258	707.52	89.9809	707.52	89.3762	707.52	89.4987	707.52	87.3073	707.52	87.2697	707.52	84.2198	707.52	83.7022	707.52	81.1987	707.52	79.6877	707.52	80.4187	707.52	77.932	707.52	81.181	707.52	79.4055	707.52	81.4185	707.52	81.152	707.52	80.889	707.52	81.297	707.52	79.7831	707.52	79.8532	707.52	77.3354	707.52	77.2243	707.52	75.0666	707.52	69.9157	707.52	81.7722	707.52	80.9486	707.52	84.2422
732.422	93.4794	732.422	91.7567	732.422	91.4897	732.422	85.4739	732.422	83.9952	732.422	81.8116	732.422	80.1367	732.422	87.2879	732.422	87.3026	732.422	88.6187	732.422	88.698	732.422	87.8472	732.422	87.984	732.422	85.797	732.422	86.2806	732.422	82.7611	732.422	84.038	732.422	79.36	732.422	81.4601	732.422	77.7541	732.422	78.9714	732.422	78.7213	732.422	77.793	732.422	79.9286	732.422	78.3217	732.422	79.5524	732.422	78.2469	732.422	76.9926	732.422	76.1753	732.422	74.7054	732.422	72.9386	732.422	69.0799	732.422	65.6388	732.422	77.8803	732.422	78.3084	732.422	81.6645
757.324	92.8099	757.324	91.1161	757.324	90.6367	757.324	84.6429	757.324	81.9147	757.324	81.0805	757.324	79.8626	757.324	86.6675	757.324	87.169	757.324	87.6253	757.324	88.0976	757.324	86.2944	757.324	86.4994	757.324	83.9213	757.324	83.5191	757.324	81.4107	757.324	80.3026	757.324	78.9831	757.324	77.8125	757.324	76.1458	757.324	76.7165	757.324	74.9918	757.324	77.7146	757.324	76.7016	757.324	78.3918	757.324	77.4964	757.324	77.2993	757.324	78.2493	757.324	77.342	757.324	76.0752	757.324	76.7006	757.324	69.2376	757.324	68.4322	757.324	77.0217	757.324	72.68	757.324	78.3752
785.156	91.2361	785.156	90.0531	785.156	88.0295	785.156	84.2337	785.156	73.4452	785.156	80.748	785.156	82.5965	785.156	85.8425	785.156	86.9151	785.156	87.0193	785.156	86.8524	785.156	86.0285	785.156	84.7478	785.156	83.7627	785.156	81.1778	785.156	80.8616	785.156	76.2634	785.156	78.2879	785.156	70.9516	785.156	76.6873	785.156	67.5518	785.156	75.8001	785.156	66.2077	785.156	75.8409	785.156	71.1624	785.156	76.0803	785.156	73.7718	785.156	75.7692	785.156	73.0926	785.156	74.3664	785.156	73.212	785.156	64.3493	785.156	65.3416	785.156	76.1512	785.156	73.5565	785.156	79.1981
811.523	91.6125	811.523	91.0225	811.523	87.1337	811.523	84.8286	811.523	74.2408	811.523	75.4503	811.523	85.5863	811.523	85.7999	811.523	87.607	811.523	87.2986	811.523	85.9768	811.523	85.9696	811.523	82.1564	811.523	83.2959	811.523	77.1476	811.523	80.1563	811.523	72.2483	811.523	77.0447	811.523	68.8112	811.523	75.876	811.523	67.2127	811.523	77.3862	811.523	65.993	811.523	78.0558	811.523	66.5723	811.523	77.8073	811.523	72.0438	811.523	76.3462	811.523	72.6893	811.523	71.4039	811.523	70.7897	811.523	62.3658	811.523	68.0295	811.523	75.4184	811.523	67.0043	811.523	76.7596
840.82	92.108	840.82	90.6902	840.82	88.6606	840.82	81.9268	840.82	79.968	840.82	80.7534	840.82	85.8233	840.82	87.8127	840.82	88.2478	840.82	88.5259	840.82	87.2159	840.82	86.6277	840.82	84.0461	840.82	83.0498	840.82	79.6482	840.82	78.5524	840.82	75.729	840.82	74.6964	840.82	74.1327	840.82	72.7612	840.82	74.6685	840.82	72.3443	840.82	72.719	840.82	75.498	840.82	69.3927	840.82	75.6264	840.82	72.7131	840.82	74.0766	840.82	73.5082	840.82	74.8462	840.82	73.8119	840.82	64.1524	840.82	71.461	840.82	72.3222	840.82	65.5486	840.82	74.31
870.117	92.3927	870.117	89.3993	870.117	90.2108	870.117	74.1417	870.117	82.2487	870.117	84.3817	870.117	86.0763	870.117	87.8301	870.117	88.9451	870.117	86.7615	870.117	87.9565	870.117	83.5181	870.117	84.8916	870.117	79.2873	870.117	80.9938	870.117	74.7071	870.117	77.2703	870.117	70.7707	870.117	73.6655	870.117	68.3876	870.117	71.1688	870.117	63.5905	870.117	72.8305	870.117	66.5251	870.117	74.1333	870.117	72.3892	870.117	73.1276	870.117	72.1918	870.117	72.124	870.117	72.636	870.117	74.7069	870.117	63.4329	870.117	71.8611	870.117	75.2653	870.117	76.9198	870.117	79.9963
900.879	92.0465	900.879	88.1133	900.879	89.9334	900.879	61.3479	900.879	77.9789	900.879	86.2509	900.879	85.9302	900.879	88.3105	900.879	89.3699	900.879	86.4023	900.879	88.2041	900.879	81.7874	900.879	84.5362	900.879	73.9595	900.879	79.4402	900.879	60.5952	900.879	74.4297	900.879	65.3839	900.879	71.7663	900.879	65.2291	900.879	69.025	900.879	61.6592	900.879	63.7992	900.879	56.3944	900.879	66.6463	900.879	66.8559	900.879	71.9498	900.879	69.4885	900.879	75.5167	900.879	70.0843	900.879	74.8103	900.879	66.3017	900.879	64.7129	900.879	65.1403	900.879	71.7898	900.879	74.4971
933.105	92.0349	933.105	88.4621	933.105	89.1212	933.105	74.4984	933.105	77.2339	933.105	86.9692	933.105	87.2622	933.105	88.4689	933.105	89.1103	933.105	85.7387	933.105	86.8296	933.105	79.7199	933.105	81.7906	933.105	68.7247	933.105	73.6907	933.105	61.6455	933.105	66.5728	933.105	63.1844	933.105	67.7004	933.105	62.0557	933.105	68.8896	933.105	66.7491	933.105	70.3627	933.105	61.247	933.105	66.1786	933.105	65.5391	933.105	68.2148	933.105	69.5767	933.105	69.2834	933.105	68.0533	933.105	72.0756	933.105	68.0908	933.105	70.0568	933.105	70.3081	933.105	70.4635	933.105	76.3919
965.332	91.675	965.332	88.1151	965.332	88.639	965.332	75.9561	965.332	77.6372	965.332	86.6826	965.332	86.6656	965.332	87.8402	965.332	88.0206	965.332	84.5026	965.332	85.0998	965.332	76.8101	965.332	78.3518	965.332	53.5542	965.332	66.2095	965.332	70.6938	965.332	72.2873	965.332	73.0686	965.332	73.2505	965.332	70.5197	965.332	69.6975	965.332	64.637	965.332	65.0004	965.332	65.5225	965.332	53.1727	965.332	62.4996	965.332	67.8545	965.332	60.2083	965.332	70.2192	965.332	69.7504	965.332	71.0108	965.332	68.3928	965.332	69.1739	965.332	69.8781	965.332	70.9284	965.332	76.704
1000.49	91.8466	1000.49	88.1589	1000.49	88.857	1000.49	77.648	1000.49	79.2864	1000.49	86.4481	1000.49	85.8788	1000.49	86.4403	1000.49	86.2316	1000.49	81.5613	1000.49	81.4458	1000.49	70.8009	1000.49	70.3494	1000.49	64.746	1000.49	64.6428	1000.49	72.583	1000.49	72.4198	1000.49	74.8579	1000.49	73.8948	1000.49	73.8781	1000.49	73.5964	1000.49	72.69	1000.49	73.1716	1000.49	70.6925	1000.49	70.1978	1000.49	60.6973	1000.49	51.6302	1000.49	70.1691	1000.49	69.7284	1000.49	73.5532	1000.49	73.2784	1000.49	71.2545	1000.49	70.3211	1000.49	65.9051	1000.49	68.6888	1000.49	74.0565
1035.64	92.2717	1035.64	88.5885	1035.64	89.7097	1035.64	77.6978	1035.64	79.5053	1035.64	84.5628	1035.64	84.2121	1035.64	83.8129	1035.64	84.3572	1035.64	76.5046	1035.64	77.3876	1035.64	68.147	1035.64	65.1019	1035.64	76.3667	1035.64	75.6357	1035.64	77.6019	1035.64	77.9013	1035.64	76.0377	1035.64	77.4986	1035.64	73.4092	1035.64	74.9913	1035.64	72.1236	1035.64	72.861	1035.64	71.8138	1035.64	72.4338	1035.64	63.5357	1035.64	65.5528	1035.64	67.2362	1035.64	59.7193	1035.64	65.1621	1035.64	55.5316	1035.64	69.7887	1035.64	66.5467	1035.64	65.5971	1035.64	70.1057	1035.64	75.3363
1072.27	93.3163	1072.27	89.8219	1072.27	90.4767	1072.27	78.4204	1072.27	77.6216	1072.27	83.6088	1072.27	83.855	1072.27	81.4751	1072.27	82.4621	1072.27	64.6871	1072.27	68.9386	1072.27	76.6883	1072.27	75.3148	1072.27	79.1701	1072.27	79.1571	1072.27	79.1838	1072.27	79.7925	1072.27	78.9094	1072.27	79.0197	1072.27	77.6585	1072.27	77.2351	1072.27	75.266	1072.27	75.8113	1072.27	73.8599	1072.27	75.2644	1072.27	69.924	1072.27	71.3631	1072.27	55.5774	1072.27	53.6193	1072.27	66.6377	1072.27	66.1149	1072.27	69.9497	1072.27	69.8887	1072.27	67.7637	1072.27	68.0138	1072.27	76.3179
1108.89	93.5954	1108.89	90.3785	1108.89	90.4231	1108.89	78.7046	1108.89	76.0249	1108.89	82.0196	1108.89	81.9021	1108.89	77.4428	1108.89	78.5307	1108.89	70.7723	1108.89	70.6381	1108.89	80.3696	1108.89	81.2357	1108.89	81.2474	1108.89	82.3592	1108.89	79.6207	1108.89	81.5386	1108.89	78.4724	1108.89	80.6528	1108.89	76.2937	1108.89	78.9524	1108.89	75.3012	1108.89	77.3334	1108.89	76.5329	1108.89	77.5993	1108.89	72.8112	1108.89	75.3812	1108.89	64.1992	1108.89	63.0845	1108.89	63.3654	1108.89	65.6508	1108.89	69.0729	1108.89	70.9784	1108.89	68.6389	1108.89	68.9209	1108.89	74.2225
1148.44	94.2994	1148.44	91.3237	1148.44	91.0995	1148.44	81.0847	1148.44	77.9673	1148.44	78.9202	1148.44	79.9959	1148.44	68.2375	1148.44	71.1446	1148.44	78.4068	1148.44	79.5798	1148.44	82.9009	1148.44	84.5038	1148.44	82.7905	1148.44	84.3263	1148.44	81.4612	1148.44	82.4187	1148.44	79.8256	1148.44	80.4569	1148.44	77.9187	1148.44	79.5537	1148.44	76.165	1148.44	78.9174	1148.44	75.1317	1148.44	78.5221	1148.44	74.3586	1148.44	77.003	1148.44	65.1656	1148.44	70.0512	1148.44	46.7164	1148.44	57.0274	1148.44	69.6898	1148.44	70.1674	1148.44	70.1323	1148.44	69.4063	1148.44	77.6529
1189.45	93.5203	1189.45	91.2286	1189.45	90.3827	1189.45	83.112	1189.45	79.7278	1189.45	71.8064	1189.45	70.1926	1189.45	71.724	1189.45	74.339	1189.45	81.2981	1189.45	83.7449	1189.45	83.5399	1189.45	85.2494	1189.45	82.9604	1189.45	83.8601	1189.45	81.1729	1189.45	82.213	1189.45	79.2259	1189.45	80.4354	1189.45	77.5465	1189.45	77.4845	1189.45	76.9148	1189.45	75.457	1189.45	77.4442	1189.45	77.4555	1189.45	76.7452	1189.45	77.481	1189.45	70.5229	1189.45	71.2176	1189.45	61.2125	1189.45	61.4305	1189.45	68.4872	1189.45	68.5587	1189.45	68.1497	1189.45	68.8131	1189.45	74.7669
1230.47	92.8225	1230.47	91.0135	1230.47	89.9733	1230.47	84.8244	1230.47	82.4565	1230.47	77.5331	1230.47	76.2246	1230.47	79.7385	1230.47	81.7197	1230.47	82.8825	1230.47	84.5021	1230.47	83.5506	1230.47	84.2842	1230.47	82.2593	1230.47	82.1903	1230.47	79.9278	1230.47	78.9276	1230.47	78.0758	1230.47	76.501	1230.47	76.3974	1230.47	75.8624	1230.47	75.4814	1230.47	76.1692	1230.47	74.7178	1230.47	75.1169	1230.47	75.8099	1230.47	76.1908	1230.47	69.1139	1230.47	70.4591	1230.47	65.4882	1230.47	65.3515	1230.47	68.1534	1230.47	65.3983	1230.47	70.7309	1230.47	70.2694	1230.47	75.8727
1274.41	91.2618	1274.41	89.9684	1274.41	89.2173	1274.41	86.1334	1274.41	84.9731	1274.41	83.2184	1274.41	82.6729	1274.41	83.3616	1274.41	83.642	1274.41	83.8716	1274.41	83.9998	1274.41	82.9879	1274.41	82.8474	1274.41	80.6712	1274.41	80.593	1274.41	78.5727	1274.41	78.7837	1274.41	76.587	1274.41	76.6861	1274.41	73.7122	1274.41	72.6489	1274.41	72.6154	1274.41	69.6515	1274.41	73.5573	1274.41	72.6044	1274.41	73.8366	1274.41	73.7741	1274.41	71.1397	1274.41	71.6191	1274.41	67.7925	1274.41	68.8422	1274.41	59.9392	1274.41	63.2393	1274.41	67.071	1274.41	69.7325	1274.41	71.935
1319.82	90.8856	1319.82	89.8959	1319.82	89.7752	1319.82	87.27	1319.82	87.0601	1319.82	85.1092	1319.82	84.8342	1319.82	84.5438	1319.82	84.4811	1319.82	83.8146	1319.82	83.7594	1319.82	82.0376	1319.82	82.0429	1319.82	79.595	1319.82	79.8202	1319.82	76.8907	1319.82	76.4899	1319.82	74.7663	1319.82	74.3407	1319.82	73.3968	1319.82	73.6181	1319.82	72.6746	1319.82	72.3537	1319.82	71.4037	1319.82	70.4074	1319.82	74.0551	1319.82	73.0575	1319.82	71.2767	1319.82	70.8219	1319.82	65.8107	1319.82	63.2525	1319.82	61.4597	1319.82	61.6977	1319.82	68.6862	1319.82	64.523	1319.82	71.8135
1366.7	90.6675	1366.7	90.0702	1366.7	89.9857	1366.7	88.3113	1366.7	88.1553	1366.7	86.3071	1366.7	86.3198	1366.7	84.7465	1366.7	84.8369	1366.7	83.3833	1366.7	83.2606	1366.7	81.7049	1366.7	81.628	1366.7	79.2925	1366.7	79.4444	1366.7	76.7939	1366.7	76.7886	1366.7	75.299	1366.7	75.1838	1366.7	72.5875	1366.7	71.7967	1366.7	68.8085	1366.7	68.2336	1366.7	72.1931	1366.7	71.8971	1366.7	72.3394	1366.7	71.5207	1366.7	69.5272	1366.7	69.3951	1366.7	64.4109	1366.7	65.9666	1366.7	56.072	1366.7	63.2935	1366.7	67.1479	1366.7	68.3196	1366.7	69.2481
1413.57	90.4038	1413.57	90.3635	1413.57	89.844	1413.57	89.0489	1413.57	88.8725	1413.57	86.9401	1413.57	87.3298	1413.57	85.0412	1413.57	84.9982	1413.57	83.3492	1413.57	82.9927	1413.57	81.9525	1413.57	81.7647	1413.57	79.582	1413.57	79.1897	1413.57	74.6795	1413.57	74.7624	1413.57	70.9821	1413.57	73.0116	1413.57	72.0393	1413.57	73.3592	1413.57	72.646	1413.57	71.9943	1413.57	70.8535	1413.57	70.5936	1413.57	69.9635	1413.57	69.4933	1413.57	69.8863	1413.57	72.3408	1413.57	61.7168	1413.57	66.9127	1413.57	64.7143	1413.57	63.3333	1413.57	67.5937	1413.57	67.9599	1413.57	65.6946
1463.38	90.4477	1463.38	90.5849	1463.38	90.3211	1463.38	89.4992	1463.38	89.5274	1463.38	87.1386	1463.38	87.0265	1463.38	84.7528	1463.38	84.5181	1463.38	83.1695	1463.38	83.1599	1463.38	81.8579	1463.38	81.5428	1463.38	79.7568	1463.38	79.4755	1463.38	77.2087	1463.38	76.5916	1463.38	74.255	1463.38	73.3426	1463.38	72.1138	1463.38	70.3956	1463.38	67.1393	1463.38	66.8237	1463.38	70.149	1463.38	69.0583	1463.38	69.2769	1463.38	70.0185	1463.38	71.3234	1463.38	70.704	1463.38	60.2118	1463.38	52.8923	1463.38	59.0231	1463.38	52.6639	1463.38	69.2641	1463.38	67.5881	1463.38	69.2297
1516.11	90.4054	1516.11	90.449	1516.11	90.5328	1516.11	89.4349	1516.11	89.2848	1516.11	86.7319	1516.11	86.5011	1516.11	84.0461	1516.11	83.956	1516.11	82.5233	1516.11	82.3687	1516.11	81.1129	1516.11	81.2469	1516.11	78.7368	1516.11	78.1043	1516.11	75.8417	1516.11	73.9955	1516.11	72.6739	1516.11	70.8455	1516.11	71.3545	1516.11	71.9305	1516.11	71.0049	1516.11	71.3212	1516.11	70.3065	1516.11	71.2214	1516.11	70.7835	1516.11	70.9166	1516.11	71.3972	1516.11	69.0068	1516.11	63.1418	1516.11	57.5527	1516.11	58.5411	1516.11	59.165	1516.11	66.7175	1516.11	69.1528	1516.11	64.4936
1568.85	90.0765	1568.85	90.2842	1568.85	90.2832	1568.85	89.1537	1568.85	89.4767	1568.85	86.0975	1568.85	86.5878	1568.85	83.1343	1568.85	83.1854	1568.85	81.3421	1568.85	81.6942	1568.85	80.4011	1568.85	80.344	1568.85	78.0969	1568.85	77.9136	1568.85	74.6418	1568.85	75.4016	1568.85	70.724	1568.85	71.6226	1568.85	70.5395	1568.85	68.9944	1568.85	70.5682	1568.85	67.7282	1568.85	69.1723	1568.85	69.0989	1568.85	69.318	1568.85	70.5551	1568.85	68.4273	1568.85	65.229	1568.85	54.0507	1568.85	58.8311	1568.85	62.8338	1568.85	65.3964	1568.85	69.0337	1568.85	68.7414	1568.85	57.2278
1624.51	90.5156	1624.51	91.2741	1624.51	90.9689	1624.51	90.4813	1624.51	90.7642	1624.51	86.755	1624.51	87.379	1624.51	83.3031	1624.51	83.465	1624.51	81.8202	1624.51	81.4652	1624.51	80.5342	1624.51	80.3757	1624.51	78.8819	1624.51	78.8015	1624.51	76.198	1624.51	76.2239	1624.51	74.8	1624.51	73.2549	1624.51	73.2404	1624.51	71.393	1624.51	69.4837	1624.51	68.8075	1624.51	70.4148	1624.51	71.2426	1624.51	71.9426	1624.51	71.4067	1624.51	69.2248	1624.51	67.4189	1624.51	56.2114	1624.51	63.5256	1624.51	64.7271	1624.51	67.451	1624.51	71.2644	1624.51	67.5219	1624.51	62.9875
1681.64	91.7341	1681.64	92.4685	1681.64	92.1779	1681.64	91.4552	1681.64	91.3608	1681.64	87.6559	1681.64	87.9261	1681.64	84.3522	1681.64	83.9346	1681.64	83.1732	1681.64	82.1502	1681.64	82.1706	1681.64	81.4836	1681.64	80.294	1681.64	79.2123	1681.64	77.5071	1681.64	77.3371	1681.64	75.5129	1681.64	74.2865	1681.64	70.0659	1681.64	71.0504	1681.64	68.8513	1681.64	68.7413	1681.64	70.7798	1681.64	69.0385	1681.64	72.1045	1681.64	70.6985	1681.64	66.7576	1681.64	68.04	1681.64	60.6079	1681.64	61.3145	1681.64	66.0465	1681.64	63.6379	1681.64	71.3377	1681.64	69.9141	1681.64	69.5809
1741.7	92.414	1741.7	92.8878	1741.7	92.4547	1741.7	91.511	1741.7	91.3064	1741.7	88.0216	1741.7	87.8004	1741.7	84.9065	1741.7	84.436	1741.7	83.8896	1741.7	82.6235	1741.7	82.795	1741.7	81.5753	1741.7	80.8005	1741.7	79.7807	1741.7	77.2743	1741.7	75.756	1741.7	72.3278	1741.7	72.3078	1741.7	72.0403	1741.7	74.5189	1741.7	73.0358	1741.7	73.047	1741.7	70.0578	1741.7	70.4193	1741.7	71.798	1741.7	72.3648	1741.7	64.0197	1741.7	69.5018	1741.7	52.1236	1741.7	56.1964	1741.7	67.0222	1741.7	62.4549	1741.7	70.7366	1741.7	71.2377	1741.7	64.2548
1803.22	92.5577	1803.22	92.4174	1803.22	92.3496	1803.22	90.6822	1803.22	90.8942	1803.22	87.2934	1803.22	87.3944	1803.22	84.0656	1803.22	84.0255	1803.22	83.1132	1803.22	82.6146	1803.22	81.9531	1803.22	81.4484	1803.22	80.6661	1803.22	79.3981	1803.22	77.8804	1803.22	77.275	1803.22	76.0873	1803.22	74.1232	1803.22	74.757	1803.22	71.7043	1803.22	69.8438	1803.22	67.3943	1803.22	70.6177	1803.22	69.6836	1803.22	70.3532	1803.22	70.322	1803.22	66.6951	1803.22	66.5133	1803.22	56.791	1803.22	58.4414	1803.22	65.9735	1803.22	62.771	1803.22	65.8982	1803.22	66.7596	1803.22	65.5077
1866.21	93.2485	1866.21	92.7631	1866.21	92.5855	1866.21	90.71	1866.21	90.9187	1866.21	87.245	1866.21	87.9749	1866.21	84.1779	1866.21	84.1661	1866.21	83.5386	1866.21	83.6346	1866.21	83.0124	1866.21	83.229	1866.21	80.3776	1866.21	81.6755	1866.21	77.6762	1866.21	79.1597	1866.21	74.6879	1866.21	76.8757	1866.21	73.4461	1866.21	71.7316	1866.21	73.7549	1866.21	72.6185	1866.21	70.7849	1866.21	69.2118	1866.21	71.3684	1866.21	73.0514	1866.21	69.5411	1866.21	70.9465	1866.21	51.7479	1866.21	56.5449	1866.21	67.5472	1866.21	71.0828	1866.21	69.7595	1866.21	70.5607	1866.21	68.3375
1932.13	93.9958	1932.13	93.1144	1932.13	92.7808	1932.13	91.3044	1932.13	91.0771	1932.13	88.2144	1932.13	88.3931	1932.13	84.8457	1932.13	84.7257	1932.13	84.4682	1932.13	84.2272	1932.13	83.9651	1932.13	84.1556	1932.13	81.8286	1932.13	82.026	1932.13	78.4528	1932.13	78.5556	1932.13	76.8898	1932.13	74.1139	1932.13	72.4077	1932.13	73.0342	1932.13	72.1709	1932.13	74.3386	1932.13	71.5856	1932.13	71.7779	1932.13	72.089	1932.13	73.4055	1932.13	68.3459	1932.13	71.4611	1932.13	55.0456	1932.13	56.3988	1932.13	68.3554	1932.13	71.0203	1932.13	67.3192	1932.13	65.5521	1932.13	67.8067
1999.51	93.9593	1999.51	92.9022	1999.51	92.5966	1999.51	91.2227	1999.51	90.617	1999.51	88.376	1999.51	87.9413	1999.51	85.1642	1999.51	84.2431	1999.51	84.585	1999.51	84.1355	1999.51	84.5321	1999.51	83.8025	1999.51	82.4962	1999.51	81.7767	1999.51	79.1239	1999.51	77.6106	1999.51	75.2704	1999.51	75.1735	1999.51	68.8319	1999.51	72.8768	1999.51	74.1038	1999.51	71.0873	1999.51	71.4171	1999.51	72.1497	1999.51	70.9097	1999.51	71.8896	1999.51	67.8989	1999.51	67.7051	1999.51	58.9431	1999.51	52.7023	1999.51	70.0999	1999.51	72.2999	1999.51	65.1807	1999.51	67.2293	1999.51	71.1653
2069.82	93.72	2069.82	92.3227	2069.82	92.287	2069.82	90.196	2069.82	90.4368	2069.82	87.294	2069.82	87.735	2069.82	84.4962	2069.82	84.3138	2069.82	84.5332	2069.82	84.0406	2069.82	84.1686	2069.82	83.6953	2069.82	81.9909	2069.82	81.9154	2069.82	78.5081	2069.82	78.8202	2069.82	74.1843	2069.82	75.8792	2069.82	73.5171	2069.82	73.0559	2069.82	73.1267	2069.82	70.4404	2069.82	72.27	2069.82	72.3432	2069.82	70.493	2069.82	70.0603	2069.82	60.3345	2069.82	63.4225	2069.82	52.477	2069.82	53.712	2069.82	71.2157	2069.82	70.1916	2069.82	68.1299	2069.82	64.3899	2069.82	73.0551
2143.07	94.1369	2143.07	92.8454	2143.07	92.9929	2143.07	90.8606	2143.07	90.8686	2143.07	88.0209	2143.07	88.3071	2143.07	84.9232	2143.07	85.1686	2143.07	84.5623	2143.07	84.6346	2143.07	84.1477	2143.07	84.5233	2143.07	82.0404	2143.07	82.3423	2143.07	78.1196	2143.07	79.9608	2143.07	74.5591	2143.07	76.7874	2143.07	72.6135	2143.07	72.9667	2143.07	71.1899	2143.07	70.9498	2143.07	71.5924	2143.07	71.6624	2143.07	70.5828	2143.07	69.8694	2143.07	57.9684	2143.07	63.0828	2143.07	63.3607	2143.07	49.924	2143.07	68.8776	2143.07	67.1042	2143.07	61.2076	2143.07	67.6369	2143.07	69.227
2219.24	94.3674	2219.24	93.261	2219.24	93.0485	2219.24	91.2508	2219.24	90.7698	2219.24	88.6866	2219.24	88.3306	2219.24	85.8869	2219.24	85.3695	2219.24	84.676	2219.24	84.2614	2219.24	84.3597	2219.24	84.4053	2219.24	82.1281	2219.24	81.569	2219.24	78.4813	2219.24	78.7012	2219.24	73.7899	2219.24	75.8574	2219.24	70.1769	2219.24	71.0556	2219.24	72.4786	2219.24	70.6584	2219.24	71.848	2219.24	71.8001	2219.24	68.8834	2219.24	71.5623	2219.24	57.5246	2219.24	60.377	2219.24	63.2576	2219.24	65.1359	2219.24	67.0774	2219.24	65.1687	2219.24	58.5647	2219.24	63.3096	2219.24	67.5637
2296.88	93.4019	2296.88	92.4448	2296.88	92.338	2296.88	90.0839	2296.88	89.921	2296.88	87.5415	2296.88	87.5298	2296.88	84.5169	2296.88	84.2783	2296.88	83.6772	2296.88	83.2054	2296.88	83.4546	2296.88	83.2984	2296.88	81.0471	2296.88	80.6975	2296.88	77.5998	2296.88	76.3627	2296.88	74.1026	2296.88	73.2033	2296.88	71.8539	2296.88	69.9316	2296.88	70.5375	2296.88	69.2806	2296.88	70.2094	2296.88	70.856	2296.88	68.8202	2296.88	70.2569	2296.88	57.9263	2296.88	63.8153	2296.88	65.5553	2296.88	62.3252	2296.88	64.0345	2296.88	63.3008	2296.88	58.6272	2296.88	59.8575	2296.88	67.7413
2378.91	93.6915	2378.91	92.8022	2378.91	92.8579	2378.91	90.1702	2378.91	90.0807	2378.91	87.6824	2378.91	87.7079	2378.91	84.8273	2378.91	84.7818	2378.91	83.7613	2378.91	83.8504	2378.91	83.276	2378.91	83.3927	2378.91	80.8187	2378.91	80.7982	2378.91	76.3694	2378.91	77.301	2378.91	73.0747	2378.91	72.6409	2378.91	71.7195	2378.91	70.118	2378.91	69.4982	2378.91	69.417	2378.91	71.0988	2378.91	70.3039	2378.91	68.4108	2378.91	68.6251	2378.91	59.6293	2378.91	57.3958	2378.91	65.8606	2378.91	65.2656	2378.91	58.3408	2378.91	61.0677	2378.91	63.5065	2378.91	59.5666	2378.91	63.9587
2462.4	94.0607	2462.4	93.4493	2462.4	93.2037	2462.4	90.7504	2462.4	90.1527	2462.4	88.2017	2462.4	87.6492	2462.4	85.3406	2462.4	84.7496	2462.4	84.082	2462.4	83.8022	2462.4	83.6468	2462.4	83.1733	2462.4	81.4096	2462.4	80.8486	2462.4	77.7289	2462.4	77.0835	2462.4	73.294	2462.4	72.7766	2462.4	69.8782	2462.4	70.5167	2462.4	68.0424	2462.4	69.2808	2462.4	71.1933	2462.4	71.9679	2462.4	67.7943	2462.4	68.9306	2462.4	62.7004	2462.4	65.2177	2462.4	66.686	2462.4	65.5664	2462.4	61.9168	2462.4	61.6355	2462.4	64.0111	2462.4	63.0162	2462.4	63.4664
2548.83	93.5048	2548.83	92.7991	2548.83	92.6705	2548.83	89.8068	2548.83	89.5679	2548.83	87.104	2548.83	86.6134	2548.83	84.5886	2548.83	84.2494	2548.83	83.2193	2548.83	82.5645	2548.83	82.6242	2548.83	81.938	2548.83	80.8957	2548.83	79.88	2548.83	77.7975	2548.83	76.158	2548.83	73.0473	2548.83	71.7611	2548.83	70.2661	2548.83	70.8736	2548.83	69.3051	2548.83	67.6597	2548.83	69.8462	2548.83	70.831	2548.83	66.8726	2548.83	67.369	2548.83	56.3562	2548.83	59.0237	2548.83	65.1738	2548.83	65.5352	2548.83	62.8672	2548.83	62.0723	2548.83	63.8811	2548.83	62.9322	2548.83	61.9748
2639.65	93.2789	2639.65	92.6661	2639.65	92.6557	2639.65	89.6816	2639.65	89.4925	2639.65	86.8485	2639.65	86.5952	2639.65	84.8624	2639.65	85.006	2639.65	82.535	2639.65	82.4818	2639.65	81.7996	2639.65	81.9631	2639.65	79.8906	2639.65	79.9528	2639.65	76.2752	2639.65	76.5451	2639.65	72.0017	2639.65	72.6943	2639.65	70.6899	2639.65	69.7111	2639.65	68.3502	2639.65	68.096	2639.65	68.8736	2639.65	69.8295	2639.65	66.7993	2639.65	68.3265	2639.65	57.0673	2639.65	61.0595	2639.65	66.1114	2639.65	64.8818	2639.65	60.9116	2639.65	60.1099	2639.65	64.5475	2639.65	64.2275	2639.65	61.665
2731.93	93.7886	2731.93	93.087	2731.93	92.8152	2731.93	90.3514	2731.93	89.9631	2731.93	87.5834	2731.93	87.1457	2731.93	86.2193	2731.93	85.7954	2731.93	83.3549	2731.93	82.87	2731.93	82.4654	2731.93	82.2952	2731.93	80.3378	2731.93	79.7268	2731.93	76.6758	2731.93	76.9046	2731.93	73.1971	2731.93	73.0283	2731.93	69.6602	2731.93	68.9818	2731.93	68.0829	2731.93	68.9419	2731.93	70.7137	2731.93	69.5468	2731.93	66.8136	2731.93	68.1442	2731.93	53.7825	2731.93	58.5616	2731.93	66.0688	2731.93	67.5201	2731.93	59.903	2731.93	64.2498	2731.93	65.116	2731.93	64.6339	2731.93	62.6302
2828.61	93.6191	2828.61	92.8412	2828.61	92.667	2828.61	90.1826	2828.61	89.8289	2828.61	87.833	2828.61	87.3618	2828.61	86.2811	2828.61	85.7884	2828.61	83.4007	2828.61	82.7836	2828.61	82.1318	2828.61	81.6547	2828.61	79.974	2828.61	79.5402	2828.61	77.2538	2828.61	77.2775	2828.61	74.5688	2828.61	74.08	2828.61	71.3337	2828.61	70.0001	2828.61	69.8443	2828.61	69.3902	2828.61	70.0466	2828.61	67.0702	2828.61	67.4695	2828.61	67.7569	2828.61	53.6435	2828.61	60.545	2828.61	67.2392	2828.61	64.8399	2828.61	56.3936	2828.61	49.4914	2828.61	65.6773	2828.61	66.5787	2828.61	65.4184
2928.22	93.5656	2928.22	92.6106	2928.22	92.4896	2928.22	90.159	2928.22	89.8857	2928.22	87.9226	2928.22	87.6071	2928.22	86.0917	2928.22	85.8744	2928.22	82.8586	2928.22	82.5362	2928.22	81.5205	2928.22	81.2932	2928.22	80.1475	2928.22	80.5765	2928.22	77.8899	2928.22	77.725	2928.22	74.3446	2928.22	73.9712	2928.22	71.0798	2928.22	69.9668	2928.22	70.2995	2928.22	67.4894	2928.22	69.5503	2928.22	68.9868	2928.22	67.5533	2928.22	67.8544	2928.22	60.1957	2928.22	59.6744	2928.22	65.7046	2928.22	66.0478	2928.22	51.203	2928.22	56.5043	2928.22	64.3068	2928.22	63.7771	2928.22	64.6928
3030.76	94.1386	3030.76	93.3457	3030.76	93.0893	3030.76	91.0001	3030.76	90.5514	3030.76	88.5326	3030.76	88.3147	3030.76	86.7698	3030.76	86.442	3030.76	82.8498	3030.76	82.3922	3030.76	81.9172	3030.76	81.704	3030.76	81.3769	3030.76	81.4924	3030.76	78.3818	3030.76	78.3715	3030.76	74.1214	3030.76	73.8477	3030.76	70.6816	3030.76	70.6431	3030.76	70.3566	3030.76	68.6484	3030.76	69.7346	3030.76	69.5725	3030.76	66.7154	3030.76	68.0508	3030.76	59.2663	3030.76	56.8112	3030.76	67.1257	3030.76	66.5012	3030.76	55.4978	3030.76	53.4246	3030.76	63.3839	3030.76	64.2142	3030.76	66.8536
3137.7	94.4589	3137.7	93.5693	3137.7	93.268	3137.7	91.1442	3137.7	90.8732	3137.7	88.869	3137.7	88.3427	3137.7	87.1616	3137.7	86.4564	3137.7	83.0654	3137.7	81.8753	3137.7	83.1019	3137.7	82.1448	3137.7	82.4907	3137.7	81.6936	3137.7	79.1114	3137.7	78.306	3137.7	74.5409	3137.7	73.9803	3137.7	71.24	3137.7	69.883	3137.7	70.0438	3137.7	69.2694	3137.7	70.6277	3137.7	69.7495	3137.7	66.9762	3137.7	67.4435	3137.7	56.9532	3137.7	58.1005	3137.7	65.3016	3137.7	65.4766	3137.7	58.1123	3137.7	59.6893	3137.7	63.151	3137.7	65.2388	3137.7	67.7953
3249.02	94.0015	3249.02	93.1211	3249.02	92.7714	3249.02	90.8557	3249.02	90.6499	3249.02	88.5297	3249.02	88.1467	3249.02	86.0222	3249.02	86.0749	3249.02	82.2798	3249.02	82.2463	3249.02	82.5927	3249.02	82.6111	3249.02	81.9966	3249.02	81.8324	3249.02	78.5369	3249.02	78.4825	3249.02	74.426	3249.02	74.2795	3249.02	72.1673	3249.02	70.4406	3249.02	70.7375	3249.02	69.4251	3249.02	71.4172	3249.02	70.1468	3249.02	68.1348	3249.02	69.497	3249.02	58.0902	3249.02	55.5786	3249.02	66.1337	3249.02	67.2688	3249.02	62.1697	3249.02	55.4341	3249.02	61.9685	3249.02	62.381	3249.02	65.7974
3363.28	94.7443	3363.28	93.7488	3363.28	93.2683	3363.28	91.5622	3363.28	91.006	3363.28	89.3945	3363.28	88.7612	3363.28	86.4584	3363.28	85.7325	3363.28	84.1	3363.28	82.7794	3363.28	83.2727	3363.28	82.2004	3363.28	82.6929	3363.28	81.9792	3363.28	79.3771	3363.28	78.5583	3363.28	74.1861	3363.28	73.8278	3363.28	70.8418	3363.28	70.3651	3363.28	71.0015	3363.28	68.8009	3363.28	71.4323	3363.28	70.1072	3363.28	65.4156	3363.28	69.1548	3363.28	59.84	3363.28	56.8954	3363.28	66.4152	3363.28	66.7311	3363.28	60.6257	3363.28	60.8587	3363.28	58.8038	3363.28	63.4131	3363.28	65.9953
3481.93	94.7137	3481.93	93.2369	3481.93	93.0794	3481.93	90.8878	3481.93	90.6136	3481.93	88.9244	3481.93	88.7255	3481.93	85.7088	3481.93	85.5748	3481.93	83.2964	3481.93	82.8735	3481.93	82.3521	3481.93	82.0831	3481.93	82.29	3481.93	81.9972	3481.93	78.7759	3481.93	78.5873	3481.93	74.742	3481.93	73.5856	3481.93	71.5207	3481.93	69.7055	3481.93	70.6845	3481.93	68.8917	3481.93	71.2511	3481.93	69.6036	3481.93	65.6518	3481.93	66.6337	3481.93	61.6213	3481.93	60.3134	3481.93	66.1831	3481.93	63.5596	3481.93	62.6455	3481.93	62.5313	3481.93	60.7737	3481.93	60.3921	3481.93	63.6045
3604.98	95.1241	3604.98	93.7339	3604.98	93.3486	3604.98	91.6369	3604.98	90.8172	3604.98	89.724	3604.98	88.9945	3604.98	86.7611	3604.98	85.8416	3604.98	83.907	3604.98	82.4607	3604.98	82.3635	3604.98	81.6447	3604.98	81.0984	3604.98	80.7397	3604.98	77.7469	3604.98	77.4381	3604.98	73.6428	3604.98	72.8576	3604.98	68.8702	3604.98	68.3262	3604.98	70.6631	3604.98	67.6797	3604.98	69.8921	3604.98	69.4421	3604.98	65.1347	3604.98	67.2766	3604.98	63.936	3604.98	59.3545	3604.98	63.5261	3604.98	66.5493	3604.98	63.931	3604.98	60.345	3604.98	50.0941	3604.98	56.7487	3604.98	58.1359
3732.42	94.8354	3732.42	93.1841	3732.42	93.0605	3732.42	91.2922	3732.42	90.9125	3732.42	89.1992	3732.42	88.9415	3732.42	86.3335	3732.42	85.8623	3732.42	83.3746	3732.42	83.4369	3732.42	81.8162	3732.42	80.6543	3732.42	80.6685	3732.42	80.3372	3732.42	78.1552	3732.42	78.003	3732.42	74.6192	3732.42	73.2804	3732.42	69.7927	3732.42	69.0188	3732.42	67.557	3732.42	67.8058	3732.42	69.1158	3732.42	69.1721	3732.42	64.7871	3732.42	67.7453	3732.42	63.4423	3732.42	61.8367	3732.42	61.8212	3732.42	65.2306	3732.42	62.0976	3732.42	61.8106	3732.42	53.152	3732.42	55.9341	3732.42	58.188
3864.26	95.1847	3864.26	93.8172	3864.26	93.4387	3864.26	92.3629	3864.26	91.6514	3864.26	90.0608	3864.26	89.2042	3864.26	86.7198	3864.26	85.5145	3864.26	84.242	3864.26	83.3344	3864.26	81.8426	3864.26	80.4032	3864.26	80.8056	3864.26	80.3024	3864.26	77.7137	3864.26	77.1784	3864.26	73.7321	3864.26	72.689	3864.26	68.5876	3864.26	68.0156	3864.26	69.8048	3864.26	67.0762	3864.26	69.0732	3864.26	69.6829	3864.26	62.1489	3864.26	67.9905	3864.26	62.0978	3864.26	60.6607	3864.26	58.5037	3864.26	63.1627	3864.26	61.452	3864.26	63.4148	3864.26	58.4935	3864.26	56.0142	3864.26	59.0493
4000.49	94.3251	4000.49	93.1617	4000.49	92.7178	4000.49	91.9062	4000.49	91.4101	4000.49	89.3386	4000.49	88.9305	4000.49	85.2995	4000.49	84.9726	4000.49	82.7561	4000.49	82.5242	4000.49	81.1935	4000.49	80.5963	4000.49	80.6708	4000.49	79.9363	4000.49	77.8908	4000.49	77.3187	4000.49	73.6223	4000.49	73.9085	4000.49	70.1708	4000.49	68.7777	4000.49	66.9987	4000.49	68.437	4000.49	68.8034	4000.49	68.9879	4000.49	64.0359	4000.49	66.4676	4000.49	63.5725	4000.49	60.6725	4000.49	55.3769	4000.49	57.9566	4000.49	64.773	4000.49	63.6657	4000.49	64.5205	4000.49	54.7364	4000.49	63.0181
4141.11	94.4958	4141.11	93.5195	4141.11	93.0914	4141.11	92.1034	4141.11	91.5544	4141.11	89.6389	4141.11	88.9313	4141.11	86.2565	4141.11	85.1975	4141.11	83.3004	4141.11	83.0812	4141.11	81.2125	4141.11	79.8104	4141.11	81.235	4141.11	80.5149	4141.11	78.7664	4141.11	78.5687	4141.11	74.4402	4141.11	74.5566	4141.11	69.4593	4141.11	69.3025	4141.11	70.0214	4141.11	68.3223	4141.11	69.1064	4141.11	68.875	4141.11	65.4301	4141.11	67.2537	4141.11	66.2422	4141.11	61.9215	4141.11	53.3028	4141.11	62.5842	4141.11	63.8298	4141.11	62.6143	4141.11	62.1877	4141.11	60.2411	4141.11	63.3073
4287.6	94.2157	4287.6	93.245	4287.6	92.9854	4287.6	91.4383	4287.6	91.4329	4287.6	89.023	4287.6	88.6639	4287.6	86.0848	4287.6	85.1318	4287.6	83.3018	4287.6	83.5213	4287.6	80.8288	4287.6	79.304	4287.6	81.4016	4287.6	81.0508	4287.6	79.2386	4287.6	79.0391	4287.6	74.4703	4287.6	74.8192	4287.6	70.9283	4287.6	71.4734	4287.6	69.5453	4287.6	68.3102	4287.6	69.5633	4287.6	70.5311	4287.6	64.7383	4287.6	65.6384	4287.6	64.6996	4287.6	63.1083	4287.6	50.3754	4287.6	56.7694	4287.6	59.5271	4287.6	60.7918	4287.6	56.2334	4287.6	59.3763	4287.6	61.9421
4438.48	94.5768	4438.48	93.9051	4438.48	93.554	4438.48	91.8898	4438.48	91.7318	4438.48	89.8367	4438.48	88.9157	4438.48	86.9017	4438.48	86.1302	4438.48	83.8445	4438.48	83.5647	4438.48	80.7814	4438.48	78.9387	4438.48	81.1133	4438.48	80.6599	4438.48	78.3841	4438.48	79.3509	4438.48	74.4269	4438.48	74.6938	4438.48	71.0882	4438.48	70.7045	4438.48	69.9132	4438.48	67.9153	4438.48	68.7988	4438.48	69.7061	4438.48	63.522	4438.48	66.0832	4438.48	64.1765	4438.48	64.8482	4438.48	38.1318	4438.48	49.0561	4438.48	60.4887	4438.48	62.5435	4438.48	55.0753	4438.48	60.978	4438.48	62.9943
4595.21	94.3481	4595.21	93.7854	4595.21	93.4716	4595.21	91.759	4595.21	91.7224	4595.21	89.7238	4595.21	88.9317	4595.21	86.3402	4595.21	86.0404	4595.21	82.6369	4595.21	82.4744	4595.21	79.3457	4595.21	77.6133	4595.21	81.0065	4595.21	80.7066	4595.21	78.6404	4595.21	78.7987	4595.21	73.7531	4595.21	74.1992	4595.21	70.5277	4595.21	68.5447	4595.21	67.7769	4595.21	66.4332	4595.21	69.8093	4595.21	69.3078	4595.21	61.2499	4595.21	65.8985	4595.21	62.5462	4595.21	64.5079	4595.21	49.0409	4595.21	52.7154	4595.21	59.725	4595.21	58.9157	4595.21	61.9185	4595.21	59.359	4595.21	64.2341
4756.35	94.5212	4756.35	93.9907	4756.35	93.6931	4756.35	92.2891	4756.35	92.0845	4756.35	89.7917	4756.35	89.2373	4756.35	85.9223	4756.35	85.693	4756.35	82.5323	4756.35	81.3456	4756.35	79.4613	4756.35	79.1186	4756.35	80.7411	4756.35	79.8076	4756.35	78.5556	4756.35	77.6071	4756.35	73.1134	4756.35	71.6496	4756.35	69.2351	4756.35	66.9258	4756.35	69.5087	4756.35	65.1848	4756.35	68.9636	4756.35	67.5987	4756.35	62.3056	4756.35	64.2419	4756.35	63.0741	4756.35	62.7269	4756.35	54.3066	4756.35	49.4512	4756.35	56.0114	4756.35	55.2171	4756.35	60.8104	4756.35	59.8246	4756.35	62.6336
4924.8	93.8077	4924.8	93.5854	4924.8	93.3584	4924.8	92.2896	4924.8	92.1254	4924.8	89.1943	4924.8	89.3226	4924.8	85.3922	4924.8	85.3772	4924.8	81.1868	4924.8	80.6533	4924.8	79.6658	4924.8	80.4336	4924.8	80.378	4924.8	79.1315	4924.8	78.3678	4924.8	77.3872	4924.8	73.8244	4924.8	73.2111	4924.8	68.3335	4924.8	67.5452	4924.8	66.4183	4924.8	63.0778	4924.8	68.2426	4924.8	66.702	4924.8	61.0521	4924.8	63.1451	4924.8	61.9477	4924.8	62.8181	4924.8	46.1743	4924.8	48.4751	4924.8	56.3404	4924.8	55.9521	4924.8	59.2539	4924.8	59.3088	4924.8	60.6178
5097.66	93.5434	5097.66	93.949	5097.66	93.4343	5097.66	92.3645	5097.66	92.237	5097.66	88.9197	5097.66	89.2072	5097.66	85.9788	5097.66	85.6557	5097.66	82.005	5097.66	82.2191	5097.66	79.5905	5097.66	80.1506	5097.66	80.255	5097.66	78.9408	5097.66	76.9814	5097.66	77.1714	5097.66	71.7094	5097.66	73.3297	5097.66	66.7643	5097.66	69.5824	5097.66	66.1222	5097.66	65.5692	5097.66	67.0343	5097.66	67.1987	5097.66	57.611	5097.66	62.1308	5097.66	61.6213	5097.66	62.7848	5097.66	51.4871	5097.66	49.3323	5097.66	53.4688	5097.66	50.2461	5097.66	58.6913	5097.66	53.6985	5097.66	60.4887
5277.83	93.6526	5277.83	94.4575	5277.83	94.0702	5277.83	92.8429	5277.83	92.3668	5277.83	89.674	5277.83	89.7739	5277.83	85.5199	5277.83	85.12	5277.83	82.0819	5277.83	82.8985	5277.83	79.6679	5277.83	79.637	5277.83	79.0644	5277.83	77.9147	5277.83	76.0066	5277.83	77.469	5277.83	72.8736	5277.83	74.8634	5277.83	68.0639	5277.83	69.5856	5277.83	66.8078	5277.83	66.6522	5277.83	68.0247	5277.83	68.6158	5277.83	56.868	5277.83	59.5631	5277.83	60.4872	5277.83	61.502	5277.83	55.9284	5277.83	52.7375	5277.83	54.4253	5277.83	55.3212	5277.83	54.4039	5277.83	53.0154	5277.83	59.7733
5463.87	94.0548	5463.87	94.4561	5463.87	94.6647	5463.87	93.269	5463.87	92.6603	5463.87	90.2213	5463.87	90.4335	5463.87	85.3144	5463.87	85.7936	5463.87	82.6747	5463.87	83.0456	5463.87	78.8492	5463.87	77.9683	5463.87	78.4208	5463.87	78.78	5463.87	77.5172	5463.87	78.339	5463.87	74.5053	5463.87	74.6932	5463.87	68.27	5463.87	69.8705	5463.87	68.804	5463.87	67.7012	5463.87	69.3212	5463.87	70.6289	5463.87	50.7604	5463.87	56.2826	5463.87	60.9152	5463.87	61.3239	5463.87	60.4029	5463.87	53.4633	5463.87	56.9092	5463.87	54.9833	5463.87	53.9468	5463.87	41.0318	5463.87	58.9498
5657.23	94.4271	5657.23	94.3204	5657.23	94.7657	5657.23	93.5327	5657.23	93.0796	5657.23	90.4434	5657.23	90.5028	5657.23	85.9066	5657.23	86.6565	5657.23	83.1544	5657.23	82.84	5657.23	76.5458	5657.23	78.962	5657.23	79.3094	5657.23	79.4134	5657.23	78.6669	5657.23	79.646	5657.23	74.1396	5657.23	75.1221	5657.23	68.7517	5657.23	72.4887	5657.23	68.6594	5657.23	66.6383	5657.23	67.9314	5657.23	70.5409	5657.23	54.526	5657.23	47.7759	5657.23	63.6815	5657.23	63.787	5657.23	63.3533	5657.23	50.9801	5657.23	50.9849	5657.23	54.8904	5657.23	52.8972	5657.23	57.2793	5657.23	59.5901
5856.45	95.1389	5856.45	95.0218	5856.45	95.1791	5856.45	94.2544	5856.45	94.2131	5856.45	91.1877	5856.45	90.5425	5856.45	87.0376	5856.45	87.5172	5856.45	82.075	5856.45	82.4474	5856.45	74.4473	5856.45	79.5239	5856.45	79.2614	5856.45	79.2412	5856.45	78.4551	5856.45	79.0057	5856.45	72.6184	5856.45	73.4144	5856.45	68.6325	5856.45	69.0671	5856.45	66.8831	5856.45	65.8266	5856.45	67.6754	5856.45	66.2241	5856.45	57.7131	5856.45	60.8249	5856.45	63.9687	5856.45	56.3494	5856.45	61.573	5856.45	55.4193	5856.45	53.4193	5856.45	45.9287	5856.45	44.144	5856.45	47.7598	5856.45	51.7463
6062.99	95.0021	6062.99	94.8744	6062.99	95.0613	6062.99	94.0967	6062.99	94.2562	6062.99	91.0088	6062.99	90.1976	6062.99	87.6471	6062.99	87.5841	6062.99	81.0434	6062.99	82.6907	6062.99	76.6902	6062.99	79.0644	6062.99	79.1878	6062.99	77.5523	6062.99	77.3164	6062.99	77.2729	6062.99	70.9357	6062.99	72.2449	6062.99	64.6278	6062.99	68.1233	6062.99	64.7232	6062.99	66.0202	6062.99	63.3117	6062.99	66.3136	6062.99	55.0175	6062.99	51.7468	6062.99	61.8571	6062.99	54.9239	6062.99	55.9886	6062.99	56.3799	6062.99	46.5637	6062.99	49.29	6062.99	55.224	6062.99	55.9663	6062.99	60.3422
6276.86	94.3457	6276.86	94.7328	6276.86	94.6027	6276.86	94.0397	6276.86	93.9708	6276.86	90.5506	6276.86	90.0456	6276.86	87.4272	6276.86	86.9729	6276.86	80.628	6276.86	82.3266	6276.86	77.817	6276.86	79.0028	6276.86	76.6074	6276.86	76.9191	6276.86	75.898	6276.86	77.7059	6276.86	71.3673	6276.86	73.6743	6276.86	65.5153	6276.86	67.5722	6276.86	62.718	6276.86	64.5345	6276.86	62.3882	6276.86	66.1837	6276.86	53.2717	6276.86	59.0564	6276.86	57.363	6276.86	58.0986	6276.86	53.886	6276.86	47.323	6276.86	51.8095	6276.86	51.909	6276.86	57.6617	6276.86	57.2743	6276.86	59.6297
6498.05	93.6273	6498.05	94.2123	6498.05	93.9087	6498.05	93.5914	6498.05	93.704	6498.05	90.3287	6498.05	89.6808	6498.05	87.0143	6498.05	86.3553	6498.05	81.6666	6498.05	81.9356	6498.05	77.3288	6498.05	78.1666	6498.05	75.3305	6498.05	76.8871	6498.05	74.8019	6498.05	76.02	6498.05	71.9577	6498.05	73.1843	6498.05	65.1895	6498.05	66.6744	6498.05	63.4306	6498.05	65.7192	6498.05	64.3695	6498.05	63.9103	6498.05	45.3849	6498.05	60.4915	6498.05	54.9321	6498.05	57.8279	6498.05	55.9536	6498.05	55.7687	6498.05	51.8728	6498.05	46.5339	6498.05	54.7398	6498.05	51.2528	6498.05	58.4728
6726.56	93.7934	6726.56	93.8446	6726.56	93.8343	6726.56	93.5479	6726.56	93.7417	6726.56	89.866	6726.56	89.6695	6726.56	86.8106	6726.56	86.6508	6726.56	82.5966	6726.56	82.0568	6726.56	75.7089	6726.56	77.4299	6726.56	73.0792	6726.56	75.7344	6726.56	73.4981	6726.56	77.0562	6726.56	70.7307	6726.56	74.0064	6726.56	63.8503	6726.56	67.6199	6726.56	65.2788	6726.56	63.6239	6726.56	63.1208	6726.56	63.4112	6726.56	55.5204	6726.56	50.2615	6726.56	51.7674	6726.56	48.6234	6726.56	55.3333	6726.56	56.6269	6726.56	44.343	6726.56	52.5859	6726.56	47.3122	6726.56	53.5988	6726.56	56.4545
6963.87	93.8064	6963.87	94.3089	6963.87	94.5821	6963.87	94.3685	6963.87	94.0205	6963.87	90.2075	6963.87	90.3933	6963.87	87.0984	6963.87	86.6359	6963.87	83.3134	6963.87	83.2505	6963.87	77.0293	6963.87	77.0534	6963.87	73.4235	6963.87	76.0701	6963.87	74.3049	6963.87	75.0864	6963.87	69.9134	6963.87	73.7251	6963.87	64.3671	6963.87	66.4987	6963.87	64.8164	6963.87	61.9853	6963.87	63.0161	6963.87	61.9317	6963.87	48.9802	6963.87	54.4882	6963.87	52.4543	6963.87	56.6969	6963.87	55.3173	6963.87	54.5813	6963.87	45.6803	6963.87	52.5339	6963.87	49.5944	6963.87	56.6884	6963.87	53.1501
7209.96	93.949	7209.96	94.9342	7209.96	95.1561	7209.96	94.3943	7209.96	94.281	7209.96	91.3367	7209.96	91.213	7209.96	86.9629	7209.96	86.2697	7209.96	84.0693	7209.96	83.9924	7209.96	78.9603	7209.96	77.2892	7209.96	75.4202	7209.96	77.2397	7209.96	72.3436	7209.96	73.6727	7209.96	69.2835	7209.96	72.2552	7209.96	59.5786	7209.96	60.3042	7209.96	65.0213	7209.96	61.9729	7209.96	63.8188	7209.96	62.3664	7209.96	43.8626	7209.96	52.8486	7209.96	53.5058	7209.96	56.0497	7209.96	57.8108	7209.96	57.931	7209.96	53.0641	7209.96	53.8217	7209.96	52.7196	7209.96	54.5445	7209.96	52.6316
7464.84	94.1991	7464.84	95.1748	7464.84	95.1723	7464.84	94.5806	7464.84	94.5272	7464.84	91.4654	7464.84	91.5073	7464.84	86.6472	7464.84	86.6172	7464.84	84.4012	7464.84	82.7194	7464.84	78.6316	7464.84	78.6828	7464.84	71.8317	7464.84	75.4321	7464.84	71.9777	7464.84	72.2406	7464.84	67.3059	7464.84	70.8492	7464.84	63.9602	7464.84	64.7746	7464.84	63.1443	7464.84	55.0258	7464.84	62.5087	7464.84	62.9319	7464.84	52.6086	7464.84	49.7929	7464.84	51.8372	7464.84	45.5909	7464.84	56.7546	7464.84	43.7649	7464.84	51.9394	7464.84	56.0082	7464.84	51.1799	7464.84	51.3925	7464.84	54.4397
7727.05	93.9497	7727.05	95.0573	7727.05	95.2939	7727.05	94.5817	7727.05	94.5719	7727.05	91.4805	7727.05	91.5245	7727.05	87.5984	7727.05	87.3306	7727.05	83.4676	7727.05	82.4731	7727.05	79.6384	7727.05	79.6553	7727.05	73.3987	7727.05	73.8619	7727.05	74.4633	7727.05	73.1224	7727.05	68.8946	7727.05	71.5937	7727.05	63.752	7727.05	62.2646	7727.05	64.4022	7727.05	58.006	7727.05	63.1723	7727.05	62.6637	7727.05	56.5028	7727.05	51.762	7727.05	47.4597	7727.05	51.6972	7727.05	57.6795	7727.05	55.2873	7727.05	44.3564	7727.05	45.225	7727.05	54.3713	7727.05	55.1033	7727.05	49.2599
7999.51	93.7765	7999.51	95.4244	7999.51	95.7218	7999.51	94.4629	7999.51	94.8928	7999.51	92.4537	7999.51	92.2506	7999.51	88.2798	7999.51	87.6288	7999.51	83.5526	7999.51	83.0247	7999.51	80.5298	7999.51	79.0382	7999.51	75.2343	7999.51	71.9182	7999.51	75.3633	7999.51	74.5244	7999.51	70.1824	7999.51	69.7669	7999.51	67.5663	7999.51	61.3553	7999.51	63.891	7999.51	50.9379	7999.51	64.6644	7999.51	63.7936	7999.51	55.2277	7999.51	48.7768	7999.51	60.9975	7999.51	55.841	7999.51	46.5146	7999.51	55.8233	7999.51	53.8099	7999.51	49.0091	7999.51	55.2508	7999.51	57.3377	7999.51	56.5693
8282.23	93.5489	8282.23	95.8495	8282.23	96.0005	8282.23	94.9487	8282.23	95.078	8282.23	92.4651	8282.23	92.5551	8282.23	88.2086	8282.23	88.1485	8282.23	84.7809	8282.23	83.7758	8282.23	80.0345	8282.23	78.4835	8282.23	75.0611	8282.23	72.0674	8282.23	74.9625	8282.23	73.1842	8282.23	70.2404	8282.23	65.104	8282.23	65.0259	8282.23	45.7682	8282.23	61.474	8282.23	57.2889	8282.23	62.827	8282.23	61.565	8282.23	44.7354	8282.23	44.5603	8282.23	60.83	8282.23	55.4814	8282.23	54.7329	8282.23	47.2893	8282.23	50.2474	8282.23	45.4322	8282.23	57.0329	8282.23	56.7445	8282.23	46.839
8573.73	93.2633	8573.73	95.2565	8573.73	95.5226	8573.73	94.6832	8573.73	95.1318	8573.73	92.1934	8573.73	92.2873	8573.73	87.5755	8573.73	87.28	8573.73	83.8085	8573.73	84.0132	8573.73	78.6675	8573.73	78.7055	8573.73	76.023	8573.73	73.1103	8573.73	72.347	8573.73	72.8099	8573.73	69.208	8573.73	60.9649	8573.73	65.3847	8573.73	56.2826	8573.73	59.1078	8573.73	61.3529	8573.73	60.7985	8573.73	61.064	8573.73	53.9631	8573.73	56.2552	8573.73	54.9839	8573.73	57.5751	8573.73	47.4691	8573.73	44.4638	8573.73	49.9364	8573.73	53.3199	8573.73	56.4695	8573.73	52.2481	8573.73	47.4086
8876.95	92.2528	8876.95	94.512	8876.95	94.7896	8876.95	93.964	8876.95	94.6665	8876.95	91.5404	8876.95	91.9836	8876.95	86.6618	8876.95	86.9585	8876.95	82.3025	8876.95	83.1759	8876.95	79.4922	8876.95	79.0253	8876.95	74.523	8876.95	71.9063	8876.95	72.9726	8876.95	73.6539	8876.95	68.6546	8876.95	66.1363	8876.95	64.6582	8876.95	58.8691	8876.95	56.636	8876.95	62.0938	8876.95	55.8214	8876.95	59.4972	8876.95	49.9024	8876.95	52.6935	8876.95	48.6042	8876.95	53.0686	8876.95	53.4095	8876.95	48.0512	8876.95	55.2754	8876.95	47.4431	8876.95	55.3301	8876.95	48.2	8876.95	47.9947
9188.96	91.3944	9188.96	93.5717	9188.96	94.3149	9188.96	93.2067	9188.96	94.1435	9188.96	90.3241	9188.96	91.363	9188.96	85.4433	9188.96	85.6109	9188.96	80.139	9188.96	81.432	9188.96	78.5554	9188.96	77.0858	9188.96	74.0431	9188.96	73.1487	9188.96	72.8904	9188.96	73.1905	9188.96	68.252	9188.96	64.4267	9188.96	63.9286	9188.96	59.9295	9188.96	58.9468	9188.96	58.8203	9188.96	52.4952	9188.96	60.2698	9188.96	30.4992	9188.96	53.6082	9188.96	49.8433	9188.96	50.005	9188.96	56.1226	9188.96	53.5831	9188.96	57.081	9188.96	48.6052	9188.96	48.4416	9188.96	56.3625	9188.96	45.1848
9514.16	91.8127	9514.16	93.4247	9514.16	94.2132	9514.16	93.5513	9514.16	94.5465	9514.16	91.2695	9514.16	91.9352	9514.16	85.5369	9514.16	86.9761	9514.16	80.1603	9514.16	82.6879	9514.16	76.3081	9514.16	77.1731	9514.16	72.2544	9514.16	73.9449	9514.16	69.8936	9514.16	70.151	9514.16	67.5813	9514.16	64.7523	9514.16	61.808	9514.16	59.4418	9514.16	56.7399	9514.16	61.0294	9514.16	41.6617	9514.16	60.4504	9514.16	43.4325	9514.16	50.4358	9514.16	51.7835	9514.16	51.2222	9514.16	52.5007	9514.16	41.7318	9514.16	52.2054	9514.16	48.2193	9514.16	50.006	9514.16	51.7592	9514.16	48.6267
9849.61	93.0211	9849.61	94.3714	9849.61	94.9693	9849.61	94.8349	9849.61	95.518	9849.61	92.2331	9849.61	92.8935	9849.61	86.7295	9849.61	88.4423	9849.61	81.5522	9849.61	83.5689	9849.61	78.0128	9849.61	78.9051	9849.61	71.7767	9849.61	73.02	9849.61	68.6068	9849.61	71.1012	9849.61	66.8126	9849.61	68.0592	9849.61	63.6787	9849.61	61.9816	9849.61	51.7376	9849.61	58.3916	9849.61	48.2271	9849.61	56.1689	9849.61	51.9272	9849.61	49.3353	9849.61	50.868	9849.61	43.0886	9849.61	42.1892	9849.61	53.4324	9849.61	46.075	9849.61	45.0471	9849.61	50.275	9849.61	52.2544	9849.61	50.9992
10196.8	94.1474	10196.8	95.2617	10196.8	95.3537	10196.8	96.0941	10196.8	96.3556	10196.8	93.4626	10196.8	93.648	10196.8	88.0157	10196.8	88.6291	10196.8	82.5048	10196.8	83.6572	10196.8	80.4051	10196.8	79.1181	10196.8	71.6474	10196.8	74.8263	10196.8	70.6221	10196.8	71.881	10196.8	68.3893	10196.8	68.4162	10196.8	65.055	10196.8	60.4911	10196.8	54.1524	10196.8	57.2068	10196.8	52.5073	10196.8	57.0058	10196.8	51.9636	10196.8	51.9029	10196.8	55.7014	10196.8	52.803	10196.8	54.6577	10196.8	54.0611	10196.8	50.479	10196.8	43.9879	10196.8	47.4532	10196.8	54.2359	10196.8	49.2349
10555.7	94.6151	10555.7	95.3054	10555.7	95.2486	10555.7	96.5325	10555.7	96.2323	10555.7	93.4954	10555.7	93.3395	10555.7	87.7327	10555.7	88.5833	10555.7	81.3548	10555.7	83.0145	10555.7	79.5045	10555.7	77.9037	10555.7	73.5117	10555.7	72.8371	10555.7	67.6669	10555.7	67.0469	10555.7	65.8119	10555.7	66.7561	10555.7	58.4841	10555.7	60.797	10555.7	54.2212	10555.7	56.8802	10555.7	51.5405	10555.7	51.4518	10555.7	53.1928	10555.7	55.8095	10555.7	53.9812	10555.7	49.4462	10555.7	55.711	10555.7	52.2666	10555.7	48.6508	10555.7	45.4594	10555.7	40.147	10555.7	39.648	10555.7	51.7891
10927.7	94.3625	10927.7	94.9014	10927.7	94.6678	10927.7	96.0318	10927.7	96.0227	10927.7	92.8411	10927.7	92.9107	10927.7	87.508	10927.7	88.8639	10927.7	81.3542	10927.7	82.9984	10927.7	78.4029	10927.7	78.9011	10927.7	70.4408	10927.7	72.3275	10927.7	70.9976	10927.7	68.6572	10927.7	66.4025	10927.7	67.1082	10927.7	59.5745	10927.7	60.6653	10927.7	56.7008	10927.7	52.5928	10927.7	54.9653	10927.7	50.53	10927.7	54.6832	10927.7	55.1563	10927.7	43.9928	10927.7	46.5804	10927.7	52.9169	10927.7	53.6632	10927.7	44.1873	10927.7	43.9273	10927.7	51.6555	10927.7	53.5662	10927.7	52.506
11313	93.7954	11313	93.906	11313	93.825	11313	95.0123	11313	95.273	11313	91.3506	11313	92.1039	11313	86.6055	11313	88.0629	11313	81.5076	11313	82.1353	11313	77.1474	11313	77.8396	11313	71.5521	11313	73.1888	11313	70.312	11313	62.1077	11313	66.0052	11313	62.7688	11313	54.5664	11313	58.2926	11313	52.7134	11313	52.6727	11313	54.7907	11313	52.2238	11313	47.6048	11313	52.6775	11313	51.4697	11313	47.4802	11313	53.6445	11313	44.8541	11313	53.1987	11313	45.6579	11313	54.8855	11313	55.7919	11313	53.5787
11712.9	93.7064	11712.9	93.5687	11712.9	93.4141	11712.9	94.5593	11712.9	94.8039	11712.9	91.0509	11712.9	91.4362	11712.9	85.8766	11712.9	87.0959	11712.9	79.5624	11712.9	80.8292	11712.9	74.4136	11712.9	77.3794	11712.9	70.4919	11712.9	70.1538	11712.9	67.2785	11712.9	63.1814	11712.9	63.3792	11712.9	61.4747	11712.9	58.6334	11712.9	54.054	11712.9	50.6107	11712.9	52.8865	11712.9	54.928	11712.9	50.3285	11712.9	49.7846	11712.9	54.188	11712.9	41.481	11712.9	43.6174	11712.9	46.6491	11712.9	40.5539	11712.9	54.8638	11712.9	43.0897	11712.9	52.5408	11712.9	56.7854	11712.9	51.8069
12126	93.945	12126	93.7639	12126	93.3685	12126	94.4278	12126	94.3061	12126	90.2434	12126	90.2826	12126	84.7455	12126	86.2816	12126	80.1779	12126	80.57	12126	74.3313	12126	77.1824	12126	69.5137	12126	70.0377	12126	70.3185	12126	66.5257	12126	63.9836	12126	60.9266	12126	57.8128	12126	43.7746	12126	43.5802	12126	51.5216	12126	57.0551	12126	54.3927	12126	56.5138	12126	53.9633	12126	53.0346	12126	43.877	12126	45.3971	12126	42.0662	12126	52.599	12126	53.7651	12126	48.9146	12126	57.6305	12126	54.5887
12553.7	94.7768	12553.7	94.5823	12553.7	94.254	12553.7	94.9502	12553.7	94.4081	12553.7	90.4695	12553.7	90.3182	12553.7	85.8126	12553.7	85.723	12553.7	80.5621	12553.7	79.5092	12553.7	74.9515	12553.7	76.5967	12553.7	72.4821	12553.7	71.4537	12553.7	68.4848	12553.7	66.0828	12553.7	59.4883	12553.7	56.3392	12553.7	51.6027	12553.7	50.8838	12553.7	46.6588	12553.7	55.6538	12553.7	57.5986	12553.7	51.5392	12553.7	55.5395	12553.7	49.5268	12553.7	47.0821	12553.7	34.8084	12553.7	45.6209	12553.7	44.4769	12553.7	57.3228	12553.7	54.3464	12553.7	50.8354	12553.7	56.3191	12553.7	56.6037
12996.1	95.5386	12996.1	95.1672	12996.1	95.0287	12996.1	95.024	12996.1	94.6439	12996.1	90.3698	12996.1	90.5212	12996.1	85.526	12996.1	85.0575	12996.1	80.512	12996.1	79.1659	12996.1	73.4677	12996.1	75.6593	12996.1	70.6175	12996.1	70.4386	12996.1	60.1364	12996.1	68.5196	12996.1	58.2404	12996.1	56.4832	12996.1	51.8228	12996.1	54.2774	12996.1	53.6119	12996.1	54.1865	12996.1	56.8832	12996.1	53.4851	12996.1	50.334	12996.1	52.9729	12996.1	49.5184	12996.1	44.0786	12996.1	53.59	12996.1	43.2451	12996.1	57.2482	12996.1	54.7344	12996.1	41.1344	12996.1	58.213	12996.1	59.806
13454.6	95.8001	13454.6	95.4069	13454.6	95.4013	13454.6	94.8872	13454.6	94.8119	13454.6	90.3515	13454.6	90.8639	13454.6	84.9055	13454.6	84.4346	13454.6	79.4368	13454.6	78.788	13454.6	74.8741	13454.6	76.0379	13454.6	69.5458	13454.6	69.4891	13454.6	62.3043	13454.6	68.3182	13454.6	59.7019	13454.6	53.4854	13454.6	45.6962	13454.6	53.3285	13454.6	53.0366	13454.6	54.7031	13454.6	48.5074	13454.6	47.1825	13454.6	48.5666	13454.6	52.1117	13454.6	53.8161	13454.6	33.8697	13454.6	44.9083	13454.6	45.2875	13454.6	57.8757	13454.6	57.1543	13454.6	41.544	13454.6	56.3042	13454.6	63.1848
13929.2	94.9689	13929.2	94.7145	13929.2	94.8027	13929.2	94.2383	13929.2	93.896	13929.2	89.7341	13929.2	89.4209	13929.2	84.4074	13929.2	82.9511	13929.2	80.1385	13929.2	77.8665	13929.2	74.5836	13929.2	73.7103	13929.2	70.7717	13929.2	69.1551	13929.2	59.7216	13929.2	65.5852	13929.2	55.0863	13929.2	55.8357	13929.2	53.0547	13929.2	30.5873	13929.2	50.0519	13929.2	47.4448	13929.2	41.5355	13929.2	50.7833	13929.2	45.3819	13929.2	36.9374	13929.2	49.1332	13929.2	38.5243	13929.2	47.1009	13929.2	51.7628	13929.2	56.2815	13929.2	55.455	13929.2	53.7146	13929.2	57.9705	13929.2	66.0407
14419.9	93.8039	14419.9	93.6306	14419.9	94.2509	14419.9	92.9864	14419.9	93.5263	14419.9	87.8966	14419.9	89.0834	14419.9	83.4177	14419.9	82.8421	14419.9	77.2799	14419.9	77.3931	14419.9	72.4366	14419.9	73.4147	14419.9	65.9773	14419.9	67.8809	14419.9	63.2828	14419.9	66.9859	14419.9	56.4739	14419.9	58.1095	14419.9	52.0423	14419.9	47.0713	14419.9	48.1203	14419.9	40.1401	14419.9	48.9669	14419.9	48.1825	14419.9	43.7969	14419.9	41.8532	14419.9	44.4901	14419.9	37.5795	14419.9	39.6632	14419.9	49.7189	14419.9	55.5457	14419.9	57.3684	14419.9	54.8916	14419.9	59.8288	14419.9	67.1213
14928.2	93.3677	14928.2	93.2082	14928.2	94.6775	14928.2	92.2084	14928.2	94.6663	14928.2	86.6455	14928.2	90.6373	14928.2	81.3067	14928.2	84.1861	14928.2	76.1148	14928.2	79.9956	14928.2	72.4709	14928.2	75.2797	14928.2	68.1735	14928.2	70.6414	14928.2	59.2797	14928.2	66.1273	14928.2	51.4653	14928.2	56.5629	14928.2	51.9812	14928.2	48.6227	14928.2	47.0621	14928.2	32.5064	14928.2	24.878	14928.2	48.3597	14928.2	46.0987	14928.2	45.329	14928.2	40.6751	14928.2	39.9616	14928.2	47.1485	14928.2	53.8597	14928.2	57.2283	14928.2	57.458	14928.2	55.0373	14928.2	60.3992	14928.2	69.2277
15455.6	94.5333	15455.6	95.1176	15455.6	95.8945	15455.6	95.1914	15455.6	95.2058	15455.6	90.8996	15455.6	90.6882	15455.6	85.5566	15455.6	83.2305	15455.6	80.0005	15455.6	79.4406	15455.6	76.5913	15455.6	72.4684	15455.6	72.3985	15455.6	70.7513	15455.6	65.6461	15455.6	65.4782	15455.6	44.8457	15455.6	58.1511	15455.6	56.3023	15455.6	51.8165	15455.6	48.5853	15455.6	38.1134	15455.6	46.8956	15455.6	53.7369	15455.6	49.7936	15455.6	57.6084	15455.6	44.1096	15455.6	52.2794	15455.6	49.6709	15455.6	56.3109	15455.6	60.6144	15455.6	59.3708	15455.6	56.3553	15455.6	66.8452	15455.6	73.1818
16000.5	93.8677	16000.5	94.6337	16000.5	95.3089	16000.5	95.1477	16000.5	94.7803	16000.5	90.847	16000.5	90.012	16000.5	85.6344	16000.5	83.1941	16000.5	79.3135	16000.5	78.5957	16000.5	74.9004	16000.5	70.6293	16000.5	72.8274	16000.5	72.1253	16000.5	64.4925	16000.5	64.1791	16000.5	57.7888	16000.5	45.9218	16000.5	51.3654	16000.5	55.6896	16000.5	47.8137	16000.5	52.0216	16000.5	52.8223	16000.5	53.5177	16000.5	56.0925	16000.5	60.7642	16000.5	53.4106	16000.5	55.6721	16000.5	53.2609	16000.5	56.5064	16000.5	54.3651	16000.5	53.2523	16000.5	64.7425	16000.5	68.1189	16000.5	75.3232
16564.5	93.8543	16564.5	94.3121	16564.5	94.9055	16564.5	95.1849	16564.5	95.0499	16564.5	90.4673	16564.5	89.9948	16564.5	85.0568	16564.5	82.8265	16564.5	78.8578	16564.5	79.465	16564.5	75.1355	16564.5	73.2246	16564.5	71.1235	16564.5	72.1996	16564.5	63.3006	16564.5	67.3224	16564.5	61.8602	16564.5	54.2971	16564.5	41.6201	16564.5	56.8351	16564.5	48.7433	16564.5	55.2119	16564.5	52.386	16564.5	52.0252	16564.5	59.506	16564.5	61.1181	16564.5	54.2254	16564.5	57.5895	16564.5	56.8994	16564.5	57.986	16564.5	53.221	16564.5	45.0868	16564.5	66.6333	16564.5	70.5313	16564.5	77.7776
17148.9	92.1751	17148.9	91.6405	17148.9	92.5502	17148.9	93.4837	17148.9	93.7172	17148.9	88.6709	17148.9	88.7639	17148.9	82.9074	17148.9	81.5735	17148.9	77.0126	17148.9	77.5536	17148.9	72.9661	17148.9	74.2618	17148.9	64.4318	17148.9	68.5237	17148.9	64.1896	17148.9	66.5318	17148.9	60.2991	17148.9	56.0047	17148.9	50.6991	17148.9	48.0341	17148.9	50.9716	17148.9	53.218	17148.9	54.0302	17148.9	52.0359	17148.9	60.1076	17148.9	61.1737	17148.9	58.7129	17148.9	57.8257	17148.9	61.3026	17148.9	58.1045	17148.9	59.7876	17148.9	56.7301	17148.9	67.5083	17148.9	71.2356	17148.9	78.0966
17752.4	92.8299	17752.4	90.8527	17752.4	91.9768	17752.4	94.1637	17752.4	93.4329	17752.4	89.1415	17752.4	88.0855	17752.4	83.542	17752.4	81.7273	17752.4	77.79	17752.4	77.2756	17752.4	75.4368	17752.4	75.9576	17752.4	58.739	17752.4	62.5766	17752.4	68.558	17752.4	66.0193	17752.4	62.3305	17752.4	54.5451	17752.4	59.2872	17752.4	49.6623	17752.4	51.3253	17752.4	59.1078	17752.4	58.9635	17752.4	58.4821	17752.4	63.9157	17752.4	64.4883	17752.4	63.068	17752.4	60.8078	17752.4	66.1223	17752.4	62.0458	17752.4	66.3834	17752.4	62.4438	17752.4	70.2173	17752.4	73.8935	17752.4	79.9086
18379.4	95.3722	18379.4	91.84	18379.4	92.3831	18379.4	95.4496	18379.4	94.0073	18379.4	89.723	18379.4	87.8763	18379.4	84.0518	18379.4	82.0844	18379.4	79.1875	18379.4	79.0488	18379.4	78.0235	18379.4	78.2325	18379.4	66.8559	18379.4	61.0023	18379.4	70.6223	18379.4	58.4741	18379.4	62.0613	18379.4	57.0513	18379.4	64.9384	18379.4	52.4337	18379.4	57.6868	18379.4	63.4393	18379.4	62.2979	18379.4	63.3995	18379.4	68.036	18379.4	68.2234	18379.4	66.8128	18379.4	63.3328	18379.4	69.9348	18379.4	65.0493	18379.4	72.1676	18379.4	66.718	18379.4	74.3571	18379.4	76.2971	18379.4	82.4858
19026.9	96.3903	19026.9	91.0217	19026.9	92.2326	19026.9	93.5211	19026.9	94.5338	19026.9	86.7993	19026.9	88.3327	19026.9	79.9297	19026.9	82.9529	19026.9	75.122	19026.9	78.851	19026.9	76.7945	19026.9	80.9223	19026.9	69.0958	19026.9	56.284	19026.9	67.9038	19026.9	51.6985	19026.9	60.3663	19026.9	57.7146	19026.9	66.4782	19026.9	57.356	19026.9	54.8151	19026.9	65.2768	19026.9	61.4391	19026.9	61.3839	19026.9	69.5598	19026.9	68.8892	19026.9	67.4581	19026.9	64.112	19026.9	71.322	19026.9	66.8448	19026.9	74.296	19026.9	69.0501	19026.9	76.1282	19026.9	76.3184	19026.9	82.6835
19697.8	96.8955	19697.8	90.8735	19697.8	92.7846	19697.8	91.7939	19697.8	94.156	19697.8	84.7536	19697.8	86.8914	19697.8	77.9943	19697.8	81.7057	19697.8	73.1816	19697.8	76.9948	19697.8	74.766	19697.8	81.2807	19697.8	73.1184	19697.8	67.1393	19697.8	62.766	19697.8	60.605	19697.8	61.4925	19697.8	57.2237	19697.8	65.1865	19697.8	57.4467	19697.8	41.3954	19697.8	66.7047	19697.8	64.3181	19697.8	56.6544	19697.8	70.0417	19697.8	68.8774	19697.8	69.1168	19697.8	64.6856	19697.8	72.1477	19697.8	68.5837	19697.8	74.2666	19697.8	70.1925	19697.8	75.4316	19697.8	76.1442	19697.8	82.119
19999.5	96.0914	19999.5	90.0453	19999.5	91.9125	19999.5	90.2708	19999.5	93.0924	19999.5	83.887	19999.5	85.1326	19999.5	77.5745	19999.5	80.5588	19999.5	72.5251	19999.5	75.7768	19999.5	75.0037	19999.5	80.8823	19999.5	72.2819	19999.5	68.8294	19999.5	64.7515	19999.5	65.0519	19999.5	61.8225	19999.5	60.5773	19999.5	62.9742	19999.5	60.6095	19999.5	51.3299	19999.5	66.5369	19999.5	64.1119	19999.5	53.7965	19999.5	69.96	19999.5	68.7841	19999.5	69.3286	19999.5	64.3796	19999.5	71.8248	19999.5	68.4894	19999.5	73.7085	19999.5	69.7177	19999.5	74.9272	19999.5	75.4586	19999.5	81.3245
