Freq[Hz]     dBSPL  Phase[Deg]
5.00000     -0.278    19.402
5.07273      0.053    20.248
5.14651      0.284    20.922
5.22137      0.237    21.116
5.29732      0.189    21.310
5.37437      0.142    21.505
5.45254      0.094    21.699
5.53185     -0.182    23.064
5.61231     -0.700    25.670
5.69394     -1.218    28.275
5.77676     -1.736    30.879
5.86079     -2.247    33.595
5.94604     -2.379    42.839
6.03252     -2.511    52.083
6.12027     -2.643    61.326
6.20929     -2.775    70.570
6.29961     -1.980    76.792
6.39124     -0.979    82.343
6.48420      0.021    87.895
6.57851      1.022    93.446
6.67420      1.738    94.242
6.77128      2.407    94.265
6.86977      3.076    94.287
6.96969      3.667    94.179
7.07107      3.654    93.075
7.17392      3.642    91.971
7.27827      3.629    90.866
7.38413      3.117    91.544
7.49154      2.219    93.598
7.60050      1.321    95.653
7.71105      0.515   100.340
7.82321      0.108   116.593
7.93701     -0.299   132.846
8.05245     -0.706   149.099
8.16958      1.191   156.979
8.28841      3.175   164.547
8.40896      5.159   172.114
8.53128      6.406   171.557
8.65537      7.557   169.952
8.78126      8.708   168.346
8.90899      8.886   165.246
9.03857      9.000   162.047
9.17004      8.932   159.282
9.30342      7.406   159.976
9.43874      5.880   160.671
9.57603      4.983   174.728
9.71532      5.046  -150.797
9.85663      5.109  -116.322
10.0000      8.320  -105.939
10.1455     12.407  -102.269
10.2930     16.017  -100.954
10.4427     18.295  -106.217
10.5946     20.573  -111.480
10.7487     22.215  -118.252
10.9051     23.731  -125.327
11.0637     25.019  -132.871
11.2246     26.067  -140.913
11.3879     27.039  -149.142
11.5535     27.733  -158.054
11.7216     28.421  -166.983
11.8921     28.808  -176.950
12.0650     29.194   173.083
12.2405     29.328   161.762
12.4186     29.430   150.265
12.5992     29.338   136.777
12.7825     29.202   122.848
12.9684     29.019   105.915
13.1570     28.825    88.283
13.3484     28.967    67.366
13.5426     29.163    45.917
13.7395     30.048    24.115
13.9394     31.003     2.648
14.1421     32.290   -16.166
14.3478     33.558   -34.043
14.5565     34.785   -49.905
14.7683     35.873   -64.720
14.9831     36.853   -78.726
15.2010     37.573   -91.825
15.4221     38.188  -104.654
15.6464     38.534  -116.974
15.8740     38.678  -129.073
16.1049     38.661  -140.998
16.3392     38.240  -152.646
16.5768     37.592  -164.182
16.8179     36.634  -175.571
17.0626     35.019   173.286
17.3107     32.801   162.345
17.5625     29.796   151.665
17.8180     23.099   142.583
18.0771     19.657  -164.000
18.3401     20.266   -64.317
18.6068     26.471   -72.330
18.8775     29.848   -80.664
19.1521     31.718   -88.636
19.4306     32.746   -95.727
19.7133     33.133  -100.977
20.0000     33.276  -104.194
20.2909     33.382  -105.682
20.5860     33.596  -105.943
20.8855     34.035  -105.939
21.1893     34.680  -107.448
21.4975     35.298  -110.627
21.8102     35.774  -114.797
22.1274     36.066  -119.051
22.4492     36.217  -122.336
22.7758     36.376  -123.809
23.1071     36.788  -123.442
23.4432     37.652  -122.726
23.7841     38.887  -124.021
24.1301     40.148  -127.900
24.4811     41.200  -133.527
24.8372     41.929  -139.631
25.1984     42.336  -144.810
25.5649     42.540  -147.781
25.9368     42.794  -147.948
26.3141     43.382  -146.261
26.6968     44.372  -144.938
27.0851     45.553  -145.593
27.4791     46.650  -148.234
27.8788     47.514  -151.776
28.2843     48.160  -155.126
28.6957     48.679  -157.711
29.1131     49.169  -159.513
29.5365     49.688  -160.884
29.9661     50.236  -162.190
30.4020     50.787  -163.564
30.8442     51.333  -164.970
31.2929     51.880  -166.424
31.7480     52.426  -168.014
32.2098     52.950  -169.749
32.6783     53.435  -171.452
33.1536     53.908  -172.937
33.6359     54.401  -174.250
34.1251     54.919  -175.621
34.6215     55.424  -177.147
35.1250     55.885  -178.596
35.6359     56.328  -179.606
36.1543     56.814   179.723
36.6802     57.361   178.953
37.2137     57.906   177.769
37.7550     58.391   176.439
38.3041     58.822   175.431
38.8613     59.274   174.765
39.4265     59.784   174.029
40.0000     60.299   172.900
40.5818     60.767   171.539
41.1721     61.194   170.334
41.7710     61.625   169.343
42.3785     62.073   168.436
42.9949     62.524   167.615
43.6203     62.984   167.032
44.2548     63.488   166.696
44.8985     64.041   166.361
45.5515     64.616   165.923
46.2141     65.194   165.457
46.8863     65.781   165.003
47.5683     66.380   164.475
48.2602     66.978   163.857
48.9621     67.583   163.204
49.6743     68.213   162.445
50.3968     68.868   161.403
51.1299     69.524   160.046
51.8736     70.171   158.524
52.6281     70.829   156.904
53.3936     71.507   155.042
54.1702     72.177   152.821
54.9581     72.814   150.319
55.7575     73.419   147.618
56.5685     73.997   144.619
57.3914     74.526   141.212
58.2261     74.980   137.489
59.0730     75.358   133.638
59.9323     75.680   129.753
60.8040     75.945   125.862
61.6884     76.148   122.097
62.5857     76.290   118.593
63.4960     76.372   115.417
64.4196     76.383   112.611
65.3566     76.321   110.338
66.3073     76.218   108.563
67.2717     76.076   107.077
68.2502     75.877   105.940
69.2429     75.670   105.342
70.2501     75.494   104.964
71.2719     75.315   104.779
72.3086     75.164   104.965
73.3603     75.036   105.226
74.4274     74.894   105.788
75.5099     74.779   106.680
76.6083     74.644   107.670
77.7226     74.489   109.339
78.8531     74.414   111.424
80.0000     74.350   113.473
81.1636     74.308   115.968
82.3442     74.340   118.298
83.5419     74.342   120.395
84.7570     74.345   122.630
85.9899     74.357   124.812
87.2406     74.362   127.191
88.5096     74.412   129.860
89.7970     74.513   132.539
91.1031     74.627   135.051
92.4282     74.699   137.527
93.7726     74.729   140.153
95.1366     74.711   143.248
96.5204     74.727   146.974
97.9243     74.827   151.046
99.3486     74.997   155.102
100.794     75.220   159.072
102.260     75.451   162.902
103.747     75.700   166.657
105.256     75.949   170.297
106.787     76.191   173.843
108.340     76.435   177.422
109.916     76.672  -178.939
111.515     76.926  -174.994
113.137     77.239  -171.010
114.783     77.576  -167.181
116.452     77.912  -163.486
118.146     78.253  -159.706
119.865     78.610  -155.816
121.608     79.008  -152.021
123.377     79.421  -148.318
125.171     79.854  -144.964
126.992     80.284  -141.929
128.839     80.696  -139.103
130.713     81.078  -136.544
132.615     81.415  -134.039
134.543     81.733  -131.368
136.500     82.073  -128.752
138.486     82.371  -126.769
140.500     82.621  -124.841
142.544     82.815  -122.595
144.617     82.961  -120.405
146.721     83.118  -118.146
148.855     83.294  -116.249
151.020     83.331  -114.954
153.217     83.199  -113.545
155.445     82.956  -111.246
157.706     82.712  -108.929
160.000     82.238  -105.362
162.327     81.886  -100.306
164.688     81.648   -95.776
167.084     81.486   -90.661
169.514     81.253   -86.969
171.980     80.549   -82.805
174.481     79.765   -75.389
177.019     79.518   -65.163
179.594     79.785   -57.246
182.206     79.704   -51.574
184.856     79.454   -44.682
187.545     79.265   -37.813
190.273     79.089   -30.297
193.041     78.914   -23.103
195.849     78.710   -15.803
198.697     78.507    -7.877
201.587     78.281     0.007
204.520     77.957     7.956
207.494     77.644    16.842
210.512     77.379    26.886
213.574     77.300    35.777
216.681     76.846    44.358
219.833     76.665    55.107
223.030     76.403    65.639
226.274     76.173    76.734
229.565     76.027    88.113
232.905     75.941    99.792
236.292     75.991   111.546
239.729     76.137   121.659
243.216     75.900   131.374
246.754     75.692   143.344
250.343     75.555   155.760
253.984     75.530   168.964
257.678     75.689  -178.705
261.426     75.852  -167.220
265.229     75.687  -156.217
269.087     75.497  -144.203
273.001     75.266  -130.492
276.972     75.330  -116.742
281.000     75.332  -103.000
285.088     75.409   -88.765
289.234     75.599   -74.369
293.441     75.774   -61.403
297.709     75.849   -48.225
302.040     75.938   -35.696
306.433     75.905   -22.105
310.890     75.817    -7.255
315.412     76.025     6.930
320.000     76.058    20.473
324.655     75.739    33.423
329.377     75.671    50.465
334.168     75.835    66.659
339.028     75.968    82.280
343.959     76.148    97.054
348.962     76.067   110.895
354.038     75.882   125.755
359.188     75.675   143.332
364.412     75.999   159.305
369.713     75.738   173.479
375.090     75.233  -169.842
380.546     75.161  -151.368
386.081     74.831  -133.973
391.697     74.692  -113.998
397.394     74.751   -96.098
403.175     74.296   -78.146
409.039     74.284   -57.540
414.989     74.292   -39.882
421.025     73.805   -21.402
427.149     73.275    -2.209
433.362     72.704    20.390
439.665     72.732    43.473
446.060     72.377    65.072
452.548     72.117    89.090
459.131     72.216   111.297
465.809     71.699   135.174
472.584     71.835   160.044
479.458     71.608  -177.160
486.432     71.419  -152.389
493.507     71.375  -125.657
500.686     71.416  -100.931
507.968     71.277   -74.579
515.357     71.325   -48.467
522.853     71.429   -22.117
530.458     71.510     4.668
538.174     71.663    30.977
546.002     71.715    56.847
553.943     71.788    83.562
562.001     71.856   110.918
570.175     71.933   138.747
578.469     72.029   167.090
586.883     72.113  -164.778
595.419     72.179  -136.629
604.080     72.234  -107.947
612.866     72.293   -78.784
621.780     72.337   -49.019
630.824     72.369   -18.654
640.000     72.383    11.620
649.309     72.388    41.907
658.753     72.383    72.775
668.335     72.359   104.910
678.056     72.324   137.041
687.919     72.282   169.849
697.925     72.221  -156.703
708.077     72.162  -123.200
718.376     72.096   -88.992
728.825     72.025   -54.127
739.426     71.955   -18.528
750.181     71.884    17.699
761.093     71.821    54.655
772.163     71.763    91.602
783.394     71.715   129.267
794.789     71.675   168.142
806.349     71.642  -152.962
818.078     71.615  -113.524
829.977     71.602   -73.493
842.050     71.592   -32.862
854.298     71.584     8.284
866.724     71.574    49.356
879.330     71.563    91.601
892.120     71.552   134.389
905.097     71.523   177.774
918.262     71.487  -138.296
931.618     71.439   -93.770
945.169     71.372   -48.656
958.917     71.306    -2.897
972.864     71.219    43.502
987.015     71.132    90.598
1001.37     71.025   138.955
1015.94     70.916  -171.952
1030.71     70.803  -122.849
1045.71     70.698   -72.459
1060.92     70.594   -20.756
1076.35     70.498    30.932
1092.00     70.409    83.268
1107.89     70.330   136.771
1124.00     70.250  -169.116
1140.35     70.179  -114.472
1156.94     70.100   -58.669
1173.77     70.022    -2.296
1190.84     69.936    54.636
1208.16     69.827   112.134
1225.73     69.714   170.786
1243.56     69.587  -129.341
1261.65     69.443   -68.820
1280.00     69.286    -7.668
1298.62     69.122    54.092
1317.51     68.948   117.081
1336.67     68.765  -178.688
1356.11     68.572  -113.839
1375.84     68.359   -47.874
1395.85     68.138    19.257
1416.15     67.890    86.976
1436.75     67.607   155.252
1457.65     67.274  -135.275
1478.85     66.878   -64.500
1500.36     66.432     7.023
1522.19     65.902    80.104
1544.33     65.314   154.885
1566.79     64.671  -128.340
1589.58     64.010   -49.502
1612.70     63.390    31.016
1636.16     62.873   113.723
1659.95     62.527  -161.677
1684.10     62.383   -75.793
1708.60     62.413    10.627
1733.45     62.559    96.668
1758.66     62.738  -176.497
1784.24     62.855   -89.429
1810.19     62.874    -2.520
1836.52     62.766    85.784
1863.24     62.530   175.303
1890.34     62.159   -93.634
1917.83     61.689    -0.855
1945.73     61.143    93.862
1974.03     60.575  -168.827
2002.74     60.019   -69.534
2031.87     59.486    31.443
2061.43     58.945   134.373
2091.41     58.414  -120.102
2121.83     57.898   -11.509
2152.69     57.560    99.130
2184.01     57.559  -147.389
2215.77     58.020   -32.388
2248.00     58.796    81.371
2280.70     59.674  -166.510
2313.87     60.425   -55.028
2347.53     60.912    56.489
2381.68     61.102   168.476
2416.32     60.982   -77.644
2451.46     60.604    39.087
2487.12     60.104   159.170
2523.30     59.665   -76.778
2560.00     59.459    50.141
2597.24     59.500   178.005
2635.01     59.674   -53.769
2673.34     59.781    74.892
2712.23     59.671  -155.259
2751.68     59.342   -22.490
2791.70     58.863   113.425
2832.31     58.435  -106.968
2873.50     58.200    35.547
2915.30     58.215   179.836
2957.70     58.387   -34.387
3000.72     58.551   112.237
3044.37     58.638   -99.695
3088.65     58.681    51.070
3133.58     58.725  -155.917
3179.16     58.888    -0.279
3225.40     59.152   157.542
3272.31     59.481   -43.858
3319.91     59.769   115.907
3368.20     59.920   -82.618
3417.19     59.841    80.609
3466.89     59.584  -112.865
3517.32     59.314    58.193
3568.48     59.189  -127.849
3620.39     59.246    47.904
3673.05     59.308  -134.898
3726.47     59.083    43.778
3780.67     58.533  -134.205
3835.67     57.818    53.049
3891.46     57.369  -113.979
3948.06     57.366    80.987
4005.49     57.525   -84.085
4063.75     57.443   112.559
4122.86     57.026   -48.151
4182.82     56.452   154.476
4243.66     55.895     1.408
4305.39     55.244  -149.631
4368.01     54.292    62.136
4431.55     52.968   -81.706
4496.01     51.338   140.277
4561.40     49.591     8.325
4627.75     47.769  -117.554
4695.06     45.824   127.589
4763.35     45.208    26.587
4832.64     47.359   -76.220
4902.93     49.677   169.765
4974.24     51.036    53.224
5046.60     51.585   -59.328
5120.00     52.024  -165.605
5194.47     52.651    92.373
5270.03     53.425    -7.695
5346.68     54.236  -105.728
5424.45     54.869   158.476
5503.35     55.083    65.670
5583.40     55.061   -21.700
5664.61     55.163  -104.264
5747.01     55.243   175.033
5830.60     54.735    97.483
5915.41     53.956    28.359
6001.45     53.597   -35.321
6088.74     53.375   -98.603
6177.30     52.449  -159.837
6267.15     50.540   144.351
6358.31     47.633    98.130
6450.80     43.168    69.178
6544.62     40.936    76.056
6639.82     44.532    74.787
6736.40     47.850    58.779
6834.38     50.967    40.280
6933.79     53.670    18.743
7034.64     55.500    -1.555
7136.96     56.757   -18.919
7240.77     57.454   -32.047
7346.09     57.565   -39.191
7452.94     57.305   -40.925
7561.35     56.681   -37.075
7671.33     55.505   -27.233
7782.91     53.480    -9.566
7896.12     50.907    21.718
8010.97     48.918    66.098
8127.49     47.224   120.608
8245.71     46.703  -174.035
8365.65     47.274  -106.811
8487.33     48.407   -32.313
8610.78     50.851    40.948
8736.03     52.827   109.616
8863.09     53.961  -176.635
8992.01     54.861   -98.581
9122.80     54.983   -15.377
9255.50     54.849    75.956
9390.12     54.335   173.765
9526.70     53.473   -78.667
9665.27     52.515    33.544
9805.86     50.889   158.414
9948.49     49.686   -67.965
10093.2     48.117    76.483
10240.0     47.165  -128.107
10388.9     47.047    38.570
10540.1     48.019  -156.306
10693.4     48.420    13.069
10848.9     48.462  -172.757
11006.7     48.131    11.671
11166.8     47.784  -158.257
11329.2     47.349    40.985
11494.0     46.336  -112.936
11661.2     45.482   106.702
11830.8     44.776   -26.735
12002.9     43.632  -152.405
12177.5     42.583    99.760
12354.6     42.884    -3.729
12534.3     43.304  -101.344
12716.6     43.368   168.070
12901.6     43.605    81.662
13089.2     42.910     3.981
13279.6     41.930   -63.469
13472.8     40.740  -121.921
13668.8     38.984  -168.923
13867.6     36.570   159.494
14069.3     34.973   145.422
14273.9     35.296   140.346
14481.5     35.314   141.740
14692.2     35.392   144.669
14905.9     35.584   157.619
15122.7     34.813   173.407
15342.7     31.856  -151.564
15565.8     31.117   -91.808
15792.2     30.502   -44.042
16021.9     29.034    22.625
16255.0     25.181   105.862
16491.4     23.317  -132.937
16731.3     27.157   -27.485
16974.7     24.464    67.273
17221.6     19.275    20.675
17472.1     17.982   -80.737
17726.2     17.822   -63.833
17984.0     19.678   139.209
18245.6     18.069   -11.809
18511.0     20.970    55.172
18780.2     21.553   -80.550
19053.4     19.212   -95.612
19330.5     20.158    88.623
19611.7     24.795    39.352
19897.0     27.862   -84.859
20186.4     27.304   176.988
20480.0     24.930    49.391
20777.9     23.307   -65.389
21080.1     22.798   135.653
21386.7     24.855     7.711
21697.8     24.693    17.503
22013.4     28.388    32.503
22333.6     28.798    48.405
22658.4     27.729    89.281
22988.0     29.306   155.558
23322.4     30.172  -127.999
23661.6     30.857   -33.760
24005.8     31.165  -102.632
24355.0     30.786  -178.279
24709.2     27.172   -45.715
25068.6     24.862   137.922
25433.2     27.797   -32.411
25803.2     28.159   157.803
26178.5     26.326    10.283
26559.3     22.904    59.824
26945.6     19.019    41.052
27337.5     16.557   139.143
27735.2     16.156  -158.459
28138.6     17.965    26.523
28547.9     16.893    28.139
28963.1     18.159  -175.962
29384.4     18.142   149.517
29811.8     18.371   -75.172
30245.4     17.487    75.418
30685.3     17.132   -75.165
31131.7     18.567  -151.457
31584.5     17.340    83.630
32043.9     18.941    93.019
32510.0     18.557  -129.502
32982.8     15.880    25.526
33462.6     16.877    51.242
33949.3     16.537   100.929
34443.1     16.619    88.512
34944.1     17.048   114.412
35452.4     16.397   125.363
35968.0     18.393   -98.781
36491.2     17.951    30.717
37022.0     17.870   150.715
37560.5     17.450   105.165
38106.8     16.634    59.875
38661.1     17.696  -166.034
39223.4     16.839   -52.422
39793.9     17.116    80.439
