"SPL Horizontal"
"On-Axis"		"10°"		"-10°"		"20°"		"-20°"		"30°"		"-30°"		"40°"		"-40°"		"50°"		"-50°"		"60°"		"-60°"		"70°"		"-70°"		"80°"		"-80°"		"90°"		"-90°"		"100°"		"-100°"		"110°"		"-110°"		"120°"		"-120°"		"130°"		"-130°"		"140°"		"-140°"		"150°"		"-150°"		"160°"		"-160°"		"170°"		"-170°"		"180°"
"Frequency / Hz"	"Sound Pressure Level / dB (re 20 µPa/V)  [2.83  V @ 1. m]"	"Frequency / Hz"	"Sound Pressure Level / dB (re 20 µPa/V)  [2.83  V @ 1. m]"	"Frequency / Hz"	"Sound Pressure Level / dB (re 20 µPa/V)  [2.83  V @ 1. m]"	"Frequency / Hz"	"Sound Pressure Level / dB (re 20 µPa/V)  [2.83  V @ 1. m]"	"Frequency / Hz"	"Sound Pressure Level / dB (re 20 µPa/V)  [2.83  V @ 1. m]"	"Frequency / Hz"	"Sound Pressure Level / dB (re 20 µPa/V)  [2.83  V @ 1. m]"	"Frequency / Hz"	"Sound Pressure Level / dB (re 20 µPa/V)  [2.83  V @ 1. m]"	"Frequency / Hz"	"Sound Pressure Level / dB (re 20 µPa/V)  [2.83  V @ 1. m]"	"Frequency / Hz"	"Sound Pressure Level / dB (re 20 µPa/V)  [2.83  V @ 1. m]"	"Frequency / Hz"	"Sound Pressure Level / dB (re 20 µPa/V)  [2.83  V @ 1. m]"	"Frequency / Hz"	"Sound Pressure Level / dB (re 20 µPa/V)  [2.83  V @ 1. m]"	"Frequency / Hz"	"Sound Pressure Level / dB (re 20 µPa/V)  [2.83  V @ 1. m]"	"Frequency / Hz"	"Sound Pressure Level / dB (re 20 µPa/V)  [2.83  V @ 1. m]"	"Frequency / Hz"	"Sound Pressure Level / dB (re 20 µPa/V)  [2.83  V @ 1. m]"	"Frequency / Hz"	"Sound Pressure Level / dB (re 20 µPa/V)  [2.83  V @ 1. m]"	"Frequency / Hz"	"Sound Pressure Level / dB (re 20 µPa/V)  [2.83  V @ 1. m]"	"Frequency / Hz"	"Sound Pressure Level / dB (re 20 µPa/V)  [2.83  V @ 1. m]"	"Frequency / Hz"	"Sound Pressure Level / dB (re 20 µPa/V)  [2.83  V @ 1. m]"	"Frequency / Hz"	"Sound Pressure Level / dB (re 20 µPa/V)  [2.83  V @ 1. m]"	"Frequency / Hz"	"Sound Pressure Level / dB (re 20 µPa/V)  [2.83  V @ 1. m]"	"Frequency / Hz"	"Sound Pressure Level / dB (re 20 µPa/V)  [2.83  V @ 1. m]"	"Frequency / Hz"	"Sound Pressure Level / dB (re 20 µPa/V)  [2.83  V @ 1. m]"	"Frequency / Hz"	"Sound Pressure Level / dB (re 20 µPa/V)  [2.83  V @ 1. m]"	"Frequency / Hz"	"Sound Pressure Level / dB (re 20 µPa/V)  [2.83  V @ 1. m]"	"Frequency / Hz"	"Sound Pressure Level / dB (re 20 µPa/V)  [2.83  V @ 1. m]"	"Frequency / Hz"	"Sound Pressure Level / dB (re 20 µPa/V)  [2.83  V @ 1. m]"	"Frequency / Hz"	"Sound Pressure Level / dB (re 20 µPa/V)  [2.83  V @ 1. m]"	"Frequency / Hz"	"Sound Pressure Level / dB (re 20 µPa/V)  [2.83  V @ 1. m]"	"Frequency / Hz"	"Sound Pressure Level / dB (re 20 µPa/V)  [2.83  V @ 1. m]"	"Frequency / Hz"	"Sound Pressure Level / dB (re 20 µPa/V)  [2.83  V @ 1. m]"	"Frequency / Hz"	"Sound Pressure Level / dB (re 20 µPa/V)  [2.83  V @ 1. m]"	"Frequency / Hz"	"Sound Pressure Level / dB (re 20 µPa/V)  [2.83  V @ 1. m]"	"Frequency / Hz"	"Sound Pressure Level / dB (re 20 µPa/V)  [2.83  V @ 1. m]"	"Frequency / Hz"	"Sound Pressure Level / dB (re 20 µPa/V)  [2.83  V @ 1. m]"	"Frequency / Hz"	"Sound Pressure Level / dB (re 20 µPa/V)  [2.83  V @ 1. m]"	"Frequency / Hz"	"Sound Pressure Level / dB (re 20 µPa/V)  [2.83  V @ 1. m]"
20.5078	52.5906	20.5078	52.317	20.5078	52.7421	20.5078	51.9296	20.5078	52.7812	20.5078	51.4627	20.5078	52.7363	20.5078	50.9987	20.5078	52.6626	20.5078	50.6975	20.5078	52.6495	20.5078	50.7865	20.5078	52.8135	20.5078	51.4383	20.5078	53.2594	20.5078	52.6119	20.5078	54.0211	20.5078	54.0877	20.5078	55.0392	20.5078	55.6411	20.5078	56.2019	20.5078	57.1275	20.5078	57.4001	20.5078	58.4721	20.5078	58.5526	20.5078	59.6382	20.5078	59.6042	20.5078	60.6066	20.5078	60.5173	20.5078	61.365	20.5078	61.2637	20.5078	61.905	20.5078	61.8218	20.5078	62.2206	20.5078	62.1744	20.5078	62.3097
21.9727	54.4721	21.9727	54.2678	21.9727	54.4905	21.9727	53.8847	21.9727	54.3163	21.9727	53.338	21.9727	53.9415	21.9727	52.6699	21.9727	53.3603	21.9727	51.9887	21.9727	52.5844	21.9727	51.5203	21.9727	51.6852	21.9727	51.5839	21.9727	50.8868	21.9727	52.3605	21.9727	50.6445	21.9727	53.6866	21.9727	51.3698	21.9727	55.2335	21.9727	52.902	21.9727	56.7561	21.9727	54.7256	21.9727	58.1321	21.9727	56.4815	21.9727	59.3111	21.9727	58.0225	21.9727	60.2736	21.9727	59.3048	21.9727	61.0102	21.9727	60.3204	21.9727	61.514	21.9727	61.0715	21.9727	61.778	21.9727	61.5619	21.9727	61.7958
23.4375	55.555	23.4375	55.3764	23.4375	55.5653	23.4375	55.0321	23.4375	55.4131	23.4375	54.5406	23.4375	55.1165	23.4375	53.9574	23.4375	54.7187	23.4375	53.4156	23.4375	54.312	23.4375	53.1639	23.4375	54.0629	23.4375	53.4928	23.4375	54.1905	23.4375	54.4889	23.4375	54.84	23.4375	55.9345	23.4375	55.9517	23.4375	57.5279	23.4375	57.3175	23.4375	59.0662	23.4375	58.735	23.4375	60.4503	23.4375	60.0755	23.4375	61.6384	23.4375	61.2709	23.4375	62.6134	23.4375	62.2871	23.4375	63.3672	23.4375	63.1051	23.4375	63.895	23.4375	63.7124	23.4375	64.1936	23.4375	64.1	23.4375	64.2617
24.9023	58.0783	24.9023	57.9575	24.9023	58.0777	24.9023	57.7275	24.9023	57.9568	24.9023	57.4195	24.9023	57.7317	24.9023	57.0968	24.9023	57.4414	24.9023	56.869	24.9023	57.1627	24.9023	56.8881	24.9023	57.0207	24.9023	57.2911	24.9023	57.1696	24.9023	58.1059	24.9023	57.7162	24.9023	59.2255	24.9023	58.6392	24.9023	60.4857	24.9023	59.8038	24.9023	61.7472	24.9023	61.0526	24.9023	62.9192	24.9023	62.2662	24.9023	63.9495	24.9023	63.371	24.9023	64.808	24.9023	64.3247	24.9023	65.4764	24.9023	65.1024	24.9023	65.9427	24.9023	65.6879	24.9023	66.1992	24.9023	66.0701	24.9023	66.2417
26.3672	60.5694	26.3672	60.445	26.3672	60.6017	26.3672	60.239	26.3672	60.542	26.3672	59.9761	26.3672	60.4009	26.3672	59.7029	26.3672	60.2032	26.3672	59.4959	26.3672	59.9947	26.3672	59.4599	26.3672	59.8489	26.3672	59.7003	26.3672	59.8635	26.3672	60.2677	26.3672	60.1334	26.3672	61.1224	26.3672	60.7023	26.3672	62.1565	26.3672	61.5327	26.3672	63.2502	26.3672	62.5268	26.3672	64.3071	26.3672	63.5739	26.3672	65.2612	26.3672	64.5828	26.3672	66.0694	26.3672	65.4888	26.3672	66.7037	26.3672	66.2486	26.3672	67.1453	26.3672	66.8332	26.3672	67.3823	26.3672	67.2238	26.3672	67.4086
27.832	62.818	27.832	62.7465	27.832	62.8078	27.832	62.6026	27.832	62.7171	27.832	62.408	27.832	62.5579	27.832	62.2025	27.832	62.3574	27.832	62.0489	27.832	62.1634	27.832	62.0318	27.832	62.0489	27.832	62.2383	27.832	62.1042	27.832	62.7191	27.832	62.4085	27.832	63.4571	27.832	62.9886	27.832	64.3738	27.832	63.7999	27.832	65.3677	27.832	64.7507	27.832	66.3479	27.832	65.7419	27.832	67.2467	27.832	66.6925	27.832	68.0172	27.832	67.544	27.832	68.628	27.832	68.2565	27.832	69.0581	27.832	68.8028	27.832	69.2944	27.832	69.1645	27.832	69.3301
29.2969	64.6497	29.2969	64.591	29.2969	64.6487	29.2969	64.4823	29.2969	64.5885	29.2969	64.3454	29.2969	64.4804	29.2969	64.2171	29.2969	64.3489	29.2969	64.1512	29.2969	64.235	29.2969	64.2142	29.2969	64.1974	29.2969	64.4684	29.2969	64.3053	29.2969	64.9466	29.2969	64.6177	29.2969	65.6327	29.2969	65.1562	29.2969	66.4668	29.2969	65.8908	29.2969	67.3699	29.2969	66.7523	29.2969	68.2662	29.2969	67.6593	29.2969	69.0949	29.2969	68.5394	29.2969	69.8107	29.2969	69.3362	29.2969	70.3812	29.2969	70.0085	29.2969	70.7839	29.2969	70.5276	29.2969	71.0041	29.2969	70.8737	29.2969	71.0343
30.7617	66.7221	30.7617	66.6844	30.7617	66.7122	30.7617	66.6075	30.7617	66.6561	30.7617	66.5108	30.7617	66.5652	30.7617	66.4259	30.7617	66.4634	30.7617	66.3976	30.7617	66.3882	30.7617	66.4793	30.7617	66.3906	30.7617	66.7207	30.7617	66.5272	30.7617	67.15	30.7617	66.8437	30.7617	67.7585	30.7617	67.3548	30.7617	68.5027	30.7617	68.0346	30.7617	69.3189	30.7617	68.826	30.7617	70.1415	30.7617	69.6601	30.7617	70.9132	30.7617	70.4729	30.7617	71.5887	30.7617	71.2119	30.7617	72.1339	30.7617	71.8374	30.7617	72.5242	30.7617	72.3199	30.7617	72.7432	30.7617	72.6391	30.7617	72.7821
32.2266	68.988	32.2266	68.9602	32.2266	68.9874	32.2266	68.9113	32.2266	68.9596	32.2266	68.8571	32.2266	68.9141	32.2266	68.8228	32.2266	68.8701	32.2266	68.8423	32.2266	68.856	32.2266	68.954	32.2266	68.9089	32.2266	69.1929	32.2266	69.0681	32.2266	69.5791	32.2266	69.365	32.2266	70.1086	32.2266	69.811	32.2266	70.7521	32.2266	70.3909	32.2266	71.4632	32.2266	71.0664	32.2266	72.1891	32.2266	71.7868	32.2266	72.8796	32.2266	72.4997	32.2266	73.4917	32.2266	73.158	32.2266	73.9907	32.2266	73.7228	32.2266	74.3505	32.2266	74.1634	32.2266	74.5533	32.2266	74.4571	32.2266	74.5893
33.6914	70.9253	33.6914	70.9086	33.6914	70.922	33.6914	70.8781	33.6914	70.8999	33.6914	70.847	33.6914	70.8669	33.6914	70.8359	33.6914	70.839	33.6914	70.8717	33.6914	70.8397	33.6914	70.985	33.6914	70.8987	33.6914	71.204	33.6914	71.0478	33.6914	71.5459	33.6914	71.3128	33.6914	72.0102	33.6914	71.705	33.6914	72.5762	33.6914	72.215	33.6914	73.2073	33.6914	72.814	33.6914	73.8586	33.6914	73.4602	33.6914	74.4848	33.6914	74.1077	33.6914	75.0448	33.6914	74.7124	33.6914	75.5041	33.6914	75.2365	33.6914	75.8361	33.6914	75.6488	33.6914	76.0224	33.6914	75.926	33.6914	76.0528
35.1562	72.6682	35.1562	72.657	35.1562	72.6653	35.1562	72.6366	35.1562	72.6493	35.1562	72.6185	35.1562	72.6274	35.1562	72.6202	35.1562	72.6135	35.1562	72.6647	35.1562	72.6273	35.1562	72.7779	35.1562	72.694	35.1562	72.9838	35.1562	72.8397	35.1562	73.2982	35.1562	73.0865	35.1562	73.7221	35.1562	73.445	35.1562	74.2398	35.1562	73.9092	35.1562	74.8203	35.1562	74.4565	35.1562	75.4241	35.1562	75.0515	35.1562	76.0091	35.1562	75.6529	35.1562	76.5356	35.1562	76.2194	35.1562	76.9697	35.1562	76.7138	35.1562	77.2847	35.1562	77.1049	35.1562	77.4617	35.1562	77.369	35.1562	77.4903
36.6211	74.246	36.6211	74.2417	36.6211	74.2439	36.6211	74.2354	36.6211	74.2362	36.6211	74.2369	36.6211	74.2288	36.6211	74.2608	36.6211	74.2332	36.6211	74.3258	36.6211	74.2659	36.6211	74.4524	36.6211	74.347	36.6211	74.6595	36.6211	74.4978	36.6211	74.959	36.6211	74.736	36.6211	75.3517	36.6211	75.0705	36.6211	75.8247	36.6211	75.4971	36.6211	76.353	36.6211	75.9976	36.6211	76.9032	36.6211	76.5422	36.6211	77.4382	36.6211	77.095	36.6211	77.9223	36.6211	77.6185	36.6211	78.3232	36.6211	78.0777	36.6211	78.615	36.6211	78.4427	36.6211	78.779	36.6211	78.6902	36.6211	78.8046
38.0859	75.6852	38.0859	75.687	38.0859	75.683	38.0859	75.6919	38.0859	75.681	38.0859	75.7078	38.0859	75.6846	38.0859	75.7465	38.0859	75.7032	38.0859	75.8229	38.0859	75.7502	38.0859	75.9535	38.0859	75.8419	38.0859	76.1532	38.0859	75.9949	38.0859	76.4316	38.0859	76.2232	38.0859	76.7901	38.0859	76.5338	38.0859	77.2188	38.0859	76.9236	38.0859	77.6976	38.0859	77.3779	38.0859	78.198	38.0859	77.8726	38.0859	78.6877	38.0859	78.3765	38.0859	79.1333	38.0859	78.8563	38.0859	79.5046	38.0859	79.2795	38.0859	79.776	38.0859	79.6173	38.0859	79.9291	38.0859	79.8471	38.0859	79.9534
39.5508	76.9964	39.5508	77.0016	39.5508	76.998	39.5508	77.0168	39.5508	77.0069	39.5508	77.0481	39.5508	77.0268	39.5508	77.1049	39.5508	77.0646	39.5508	77.1985	39.5508	77.1303	39.5508	77.3409	39.5508	77.2358	39.5508	77.543	39.5508	77.3935	39.5508	77.8116	39.5508	77.6136	39.5508	78.1466	39.5508	77.9019	39.5508	78.5401	39.5508	78.2563	39.5508	78.9755	39.5508	78.6661	39.5508	79.4291	39.5508	79.1119	39.5508	79.873	39.5508	79.5678	39.5508	80.2778	39.5508	80.0047	39.5508	80.6155	39.5508	80.3927	39.5508	80.8624	39.5508	80.7049	39.5508	81.0006	39.5508	80.919	39.5508	81.02
41.0156	78.2401	41.0156	78.2469	41.0156	78.2399	41.0156	78.2623	41.0156	78.2473	41.0156	78.2907	41.0156	78.2658	41.0156	78.3391	41.0156	78.3018	41.0156	78.4164	41.0156	78.364	41.0156	78.5327	41.0156	78.4626	41.0156	78.6974	41.0156	78.6082	41.0156	78.9179	41.0156	78.8095	41.0156	79.1968	41.0156	79.0706	41.0156	79.5298	41.0156	79.3892	41.0156	79.9055	41.0156	79.7552	41.0156	80.305	41.0156	80.1513	41.0156	80.7042	41.0156	80.5548	41.0156	81.0759	41.0156	80.9399	41.0156	81.3931	41.0156	81.28	41.0156	81.6318	41.0156	81.5505	41.0156	81.7736	41.0156	81.731	41.0156	81.8075
42.4805	79.1411	42.4805	79.1386	42.4805	79.1529	42.4805	79.1473	42.4805	79.1742	42.4805	79.1714	42.4805	79.2075	42.4805	79.2169	42.4805	79.2573	42.4805	79.2916	42.4805	79.3298	42.4805	79.404	42.4805	79.4323	42.4805	79.5624	42.4805	79.5723	42.4805	79.7726	42.4805	79.7565	42.4805	80.0364	42.4805	79.9886	42.4805	80.35	42.4805	80.2683	42.4805	80.7026	42.4805	80.5894	42.4805	81.0768	42.4805	80.9397	42.4805	81.4501	42.4805	81.301	42.4805	81.7969	42.4805	81.6507	42.4805	82.0917	42.4805	81.9643	42.4805	82.3118	42.4805	82.2176	42.4805	82.4399	42.4805	82.3899	42.4805	82.4664
43.9453	79.7011	43.9453	79.7058	43.9453	79.7078	43.9453	79.7233	43.9453	79.726	43.9453	79.757	43.9453	79.7579	43.9453	79.8116	43.9453	79.8069	43.9453	79.8934	43.9453	79.8782	43.9453	80.0089	43.9453	79.9778	43.9453	80.1646	43.9453	80.1119	43.9453	80.365	43.9453	80.286	43.9453	80.6115	43.9453	80.5034	43.9453	80.9007	43.9453	80.7638	43.9453	81.2235	43.9453	81.062	43.9453	81.5652	43.9453	81.3873	43.9453	81.9058	43.9453	81.7235	43.9453	82.2224	43.9453	82.0502	43.9453	82.4912	43.9453	82.3447	43.9453	82.6911	43.9453	82.5843	43.9453	82.8057	43.9453	82.7493	43.9453	82.8255
45.4102	80.1491	45.4102	80.159	45.4102	80.1517	45.4102	80.1828	45.4102	80.1673	45.4102	80.2229	45.4102	80.1973	45.4102	80.2831	45.4102	80.2447	45.4102	80.3681	45.4102	80.3135	45.4102	80.483	45.4102	80.4085	45.4102	80.6328	45.4102	80.5349	45.4102	80.821	45.4102	80.6973	45.4102	81.0486	45.4102	80.8986	45.4102	81.3128	45.4102	81.1387	45.4102	81.6062	45.4102	81.4133	45.4102	81.9161	45.4102	81.7133	45.4102	82.2251	45.4102	82.0242	45.4102	82.5127	45.4102	82.3275	45.4102	82.7572	45.4102	82.6022	45.4102	82.9388	45.4102	82.8269	45.4102	83.0416	45.4102	82.983	45.4102	83.0568
46.875	80.4995	46.875	80.5132	46.875	80.5005	46.875	80.5424	46.875	80.5165	46.875	80.589	46.875	80.5488	46.875	80.6554	46.875	80.5995	46.875	80.7452	46.875	80.6716	46.875	80.862	46.875	80.7687	46.875	81.0092	46.875	80.8945	46.875	81.1894	46.875	81.0524	46.875	81.4031	46.875	81.2444	46.875	81.6479	46.875	81.4699	46.875	81.9176	46.875	81.7252	46.875	82.2013	46.875	82.0023	46.875	82.4839	46.875	82.2887	46.875	82.747	46.875	82.5681	46.875	82.9709	46.875	82.8215	46.875	83.1371	46.875	83.0295	46.875	83.2309	46.875	83.1745	46.875	83.2438
48.3398	80.7928	48.3398	80.8085	48.3398	80.7936	48.3398	80.8411	48.3398	80.811	48.3398	80.8917	48.3398	80.8459	48.3398	80.9621	48.3398	80.8996	48.3398	81.0545	48.3398	80.9743	48.3398	81.1714	48.3398	81.0723	48.3398	81.315	48.3398	81.1961	48.3398	81.4869	48.3398	81.3479	48.3398	81.6873	48.3398	81.5288	48.3398	81.914	48.3398	81.7384	48.3398	82.1615	48.3398	81.9732	48.3398	82.4206	48.3398	82.2267	48.3398	82.678	48.3398	82.4883	48.3398	82.9174	48.3398	82.7438	48.3398	83.121	48.3398	82.9761	48.3398	83.2719	48.3398	83.1676	48.3398	83.3566	48.3398	83.3019	48.3398	83.3669
51.2695	81.4531	51.2695	81.4727	51.2695	81.4522	51.2695	81.5108	51.2695	81.47	51.2695	81.5671	51.2695	81.5067	51.2695	81.6416	51.2695	81.5625	51.2695	81.7343	51.2695	81.6373	51.2695	81.8456	51.2695	81.7314	51.2695	81.9756	51.2695	81.8452	51.2695	82.1247	51.2695	81.979	51.2695	82.2925	51.2695	82.133	51.2695	82.4776	51.2695	82.3065	51.2695	82.6766	51.2695	82.4975	51.2695	82.8834	51.2695	82.7018	51.2695	83.0885	51.2695	82.9124	51.2695	83.2797	51.2695	83.1192	51.2695	83.4428	51.2695	83.309	51.2695	83.5636	51.2695	83.4672	51.2695	83.6304	51.2695	83.5799	51.2695	83.6361
52.7344	81.6927	52.7344	81.7113	52.7344	81.6919	52.7344	81.7475	52.7344	81.709	52.7344	81.8007	52.7344	81.744	52.7344	81.8707	52.7344	81.7967	52.7344	81.9573	52.7344	81.8668	52.7344	82.0604	52.7344	81.9542	52.7344	82.18	52.7344	82.0587	52.7344	82.3163	52.7344	82.1805	52.7344	82.469	52.7344	82.3195	52.7344	82.6366	52.7344	82.4753	52.7344	82.8163	52.7344	82.6463	52.7344	83.0025	52.7344	82.8294	52.7344	83.1872	52.7344	83.0185	52.7344	83.3592	52.7344	83.2049	52.7344	83.5059	52.7344	83.3769	52.7344	83.6142	52.7344	83.5211	52.7344	83.6734	52.7344	83.6246	52.7344	83.6771
54.1992	81.8473	54.1992	81.8688	54.1992	81.8441	54.1992	81.9081	54.1992	81.8594	54.1992	81.9647	54.1992	81.893	54.1992	82.0375	54.1992	81.9443	54.1992	82.1259	54.1992	82.0129	54.1992	82.2289	54.1992	82.098	54.1992	82.3459	54.1992	82.199	54.1992	82.4762	54.1992	82.3153	54.1992	82.6189	54.1992	82.4466	54.1992	82.7727	54.1992	82.5921	54.1992	82.9347	54.1992	82.7501	54.1992	83.1006	54.1992	82.9178	54.1992	83.2636	54.1992	83.0901	54.1992	83.4147	54.1992	83.2593	54.1992	83.543	54.1992	83.4153	54.1992	83.6374	54.1992	83.5462	54.1992	83.6881	54.1992	83.6406	54.1992	83.6895
55.6641	82.0736	55.6641	82.0946	55.6641	82.0699	55.6641	82.1323	55.6641	82.0836	55.6641	82.1857	55.6641	82.1146	55.6641	82.2535	55.6641	82.1621	55.6641	82.3345	55.6641	82.2253	55.6641	82.4274	55.6641	82.303	55.6641	82.5311	55.6641	82.3945	55.6641	82.6447	55.6641	82.4988	55.6641	82.7674	55.6641	82.6153	55.6641	82.8981	55.6641	82.7431	55.6641	83.035	55.6641	82.8809	55.6641	83.1751	55.6641	83.0262	55.6641	83.3133	55.6641	83.1749	55.6641	83.4425	55.6641	83.3204	55.6641	83.5533	55.6641	83.4541	55.6641	83.6361	55.6641	83.5658	55.6641	83.6821	55.6641	83.6456	55.6641	83.6856
58.5938	82.3838	58.5938	82.3989	58.5938	82.3876	58.5938	82.4323	58.5938	82.4103	58.5938	82.4827	58.5938	82.4511	58.5938	82.5485	58.5938	82.5087	58.5938	82.6275	58.5938	82.5813	58.5938	82.7176	58.5938	82.6668	58.5938	82.8169	58.5938	82.7631	58.5938	82.9236	58.5938	82.8682	58.5938	83.0365	58.5938	82.9805	58.5938	83.1541	58.5938	83.0983	58.5938	83.275	58.5938	83.2198	58.5938	83.3972	58.5938	83.3432	58.5938	83.5169	58.5938	83.4653	58.5938	83.6288	58.5938	83.5817	58.5938	83.7259	58.5938	83.6862	58.5938	83.8004	58.5938	83.7713	58.5938	83.8451	58.5938	83.8297	58.5938	83.8552
60.0586	82.5492	60.0586	82.5623	60.0586	82.5554	60.0586	82.5941	60.0586	82.5808	60.0586	82.643	60.0586	82.6246	60.0586	82.7071	60.0586	82.685	60.0586	82.7841	60.0586	82.7598	60.0586	82.8713	60.0586	82.8466	60.0586	82.9665	60.0586	82.9425	60.0586	83.0675	60.0586	83.045	60.0586	83.1727	60.0586	83.1519	60.0586	83.2807	60.0586	83.2611	60.0586	83.3903	60.0586	83.3711	60.0586	83.4997	60.0586	83.4801	60.0586	83.6061	60.0586	83.586	60.0586	83.7054	60.0586	83.6853	60.0586	83.7918	60.0586	83.7735	60.0586	83.8587	60.0586	83.8445	60.0586	83.8999	60.0586	83.8921	60.0586	83.9114
62.9883	82.879	62.9883	82.8943	62.9883	82.8836	62.9883	82.9285	62.9883	82.908	62.9883	82.9799	62.9883	82.9511	62.9883	83.0459	62.9883	83.0108	62.9883	83.1232	62.9883	83.0842	62.9883	83.2086	62.9883	83.1682	62.9883	83.2989	62.9883	83.2592	62.9883	83.3911	62.9883	83.354	62.9883	83.4831	62.9883	83.4498	62.9883	83.5732	62.9883	83.5441	62.9883	83.6605	62.9883	83.6354	62.9883	83.7442	62.9883	83.7225	62.9883	83.8232	62.9883	83.8042	62.9883	83.8955	62.9883	83.8788	62.9883	83.9579	62.9883	83.9439	62.9883	84.0061	62.9883	83.9957	62.9883	84.0359	62.9883	84.0303	62.9883	84.0442
64.4531	83.0011	64.4531	83.0132	64.4531	83.009	64.4531	83.0445	64.4531	83.0369	64.4531	83.0929	64.4531	83.0834	64.4531	83.1558	64.4531	83.1463	64.4531	83.2298	64.4531	83.2224	64.4531	83.3113	64.4531	83.3082	64.4531	83.3967	64.4531	83.3999	64.4531	83.483	64.4531	83.4936	64.4531	83.5678	64.4531	83.5861	64.4531	83.6495	64.4531	83.6748	64.4531	83.7273	64.4531	83.7578	64.4531	83.801	64.4531	83.834	64.4531	83.8702	64.4531	83.9025	64.4531	83.9337	64.4531	83.9625	64.4531	83.9894	64.4531	84.0124	64.4531	84.0341	64.4531	84.05	64.4531	84.0644	64.4531	84.0724	64.4531	84.0775
67.3828	83.3028	67.3828	83.3121	67.3828	83.3139	67.3828	83.3409	67.3828	83.3449	67.3828	83.387	67.3828	83.3944	67.3828	83.4474	67.3828	83.4596	67.3828	83.5183	67.3828	83.5369	67.3828	83.5957	67.3828	83.622	67.3828	83.6756	67.3828	83.7105	67.3828	83.7543	67.3828	83.798	67.3828	83.8291	67.3828	83.8809	67.3828	83.898	67.3828	83.9561	67.3828	83.9601	67.3828	84.0217	67.3828	84.0155	67.3828	84.0772	67.3828	84.0645	67.3828	84.1226	67.3828	84.1076	67.3828	84.1586	67.3828	84.1446	67.3828	84.1855	67.3828	84.1749	67.3828	84.2033	67.3828	84.1969	67.3828	84.2115	67.3828	84.2094
68.8477	83.4697	68.8477	83.4754	68.8477	83.4837	68.8477	83.4999	68.8477	83.5171	68.8477	83.5412	68.8477	83.5679	68.8477	83.5965	68.8477	83.6336	68.8477	83.6621	68.8477	83.7103	68.8477	83.7338	68.8477	83.7938	68.8477	83.8077	68.8477	83.8794	68.8477	83.88	68.8477	83.9626	68.8477	83.9478	68.8477	84.0395	68.8477	84.009	68.8477	84.1071	68.8477	84.0625	68.8477	84.1633	68.8477	84.1085	68.8477	84.2076	68.8477	84.1479	68.8477	84.2404	68.8477	84.1817	68.8477	84.2628	68.8477	84.211	68.8477	84.2762	68.8477	84.2361	68.8477	84.2817	68.8477	84.2564	68.8477	84.2799	68.8477	84.2713
71.7773	83.8726	71.7773	83.8753	71.7773	83.8879	71.7773	83.8952	71.7773	83.9207	71.7773	83.9307	71.7773	83.969	71.7773	83.9788	71.7773	84.0303	71.7773	84.036	71.7773	84.1006	71.7773	84.0981	71.7773	84.1757	71.7773	84.1609	71.7773	84.2508	71.7773	84.2202	71.7773	84.3213	71.7773	84.2727	71.7773	84.3828	71.7773	84.3158	71.7773	84.4322	71.7773	84.3484	71.7773	84.4673	71.7773	84.371	71.7773	84.4877	71.7773	84.3853	71.7773	84.4945	71.7773	84.3941	71.7773	84.4902	71.7773	84.4006	71.7773	84.4782	71.7773	84.4076	71.7773	84.4621	71.7773	84.417	71.7773	84.4451	71.7773	84.4296
74.707	84.2491	74.707	84.2549	74.707	84.2618	74.707	84.2783	74.707	84.2924	74.707	84.3173	74.707	84.3391	74.707	84.3688	74.707	84.399	74.707	84.4288	74.707	84.4682	74.707	84.4925	74.707	84.5419	74.707	84.5549	74.707	84.6149	74.707	84.6114	74.707	84.6819	74.707	84.6579	74.707	84.7381	74.707	84.6915	74.707	84.7795	74.707	84.7109	74.707	84.8037	74.707	84.7169	74.707	84.8104	74.707	84.7122	74.707	84.8012	74.707	84.7009	74.707	84.78	74.707	84.688	74.707	84.7521	74.707	84.6783	74.707	84.7233	74.707	84.6757	74.707	84.6988	74.707	84.6824
77.6367	84.5381	77.6367	84.5499	77.6367	84.5438	77.6367	84.5779	77.6367	84.5666	77.6367	84.6198	77.6367	84.6053	77.6367	84.672	77.6367	84.6569	77.6367	84.7301	77.6367	84.7177	77.6367	84.7892	77.6367	84.7828	77.6367	84.8439	77.6367	84.8466	77.6367	84.8893	77.6367	84.9037	77.6367	84.9212	77.6367	84.9486	77.6367	84.9369	77.6367	84.9771	77.6367	84.9355	77.6367	84.9865	77.6367	84.9183	77.6367	84.9764	77.6367	84.889	77.6367	84.9492	77.6367	84.8533	77.6367	84.9098	77.6367	84.8178	77.6367	84.8652	77.6367	84.7893	77.6367	84.8233	77.6367	84.7734	77.6367	84.7911	77.6367	84.7737
79.1016	84.6746	79.1016	84.686	79.1016	84.68	79.1016	84.7131	79.1016	84.702	79.1016	84.7536	79.1016	84.7391	79.1016	84.8041	79.1016	84.7885	79.1016	84.8602	79.1016	84.8462	79.1016	84.9169	79.1016	84.9075	79.1016	84.9689	79.1016	84.9669	79.1016	85.0113	79.1016	85.0187	79.1016	85.0396	79.1016	85.0579	79.1016	85.0513	79.1016	85.0802	79.1016	85.0451	79.1016	85.0832	79.1016	85.0227	79.1016	85.0669	79.1016	84.9876	79.1016	85.0339	79.1016	84.9456	79.1016	84.9894	79.1016	84.9039	79.1016	84.9409	79.1016	84.8698	79.1016	84.8964	79.1016	84.8495	79.1016	84.8633	79.1016	84.8469
82.0312	84.9271	82.0312	84.9373	82.0312	84.9339	82.0312	84.9635	82.0312	84.9574	82.0312	85.0035	82.0312	84.996	82.0312	85.0539	82.0312	85.0466	82.0312	85.1102	82.0312	85.1053	82.0312	85.1672	82.0312	85.1669	82.0312	85.2195	82.0312	85.2259	82.0312	85.2618	82.0312	85.2764	82.0312	85.2894	82.0312	85.3131	82.0312	85.2992	82.0312	85.3316	82.0312	85.2899	82.0312	85.3295	82.0312	85.2626	82.0312	85.3068	82.0312	85.2212	82.0312	85.2664	82.0312	85.1719	82.0312	85.2141	82.0312	85.1225	82.0312	85.158	82.0312	85.0816	82.0312	85.107	82.0312	85.0564	82.0312	85.0697	82.0312	85.052
84.9609	85.0931	84.9609	85.1044	84.9609	85.0995	84.9609	85.1326	84.9609	85.1232	84.9609	85.1753	84.9609	85.1624	84.9609	85.2293	84.9609	85.2142	84.9609	85.29	84.9609	85.2744	84.9609	85.352	84.9609	85.3379	84.9609	85.4096	84.9609	85.3988	84.9609	85.457	84.9609	85.4514	84.9609	85.4891	84.9609	85.4901	84.9609	85.5021	84.9609	85.5104	84.9609	85.4941	84.9609	85.5097	84.9609	85.4659	84.9609	85.4877	84.9609	85.4213	84.9609	85.4472	84.9609	85.367	84.9609	85.3939	84.9609	85.3116	84.9609	85.336	84.9609	85.2647	84.9609	85.2832	84.9609	85.2348	84.9609	85.2448	84.9609	85.2277
87.8906	85.388	87.8906	85.4051	87.8906	85.3873	87.8906	85.4377	87.8906	85.403	87.8906	85.4834	87.8906	85.4337	87.8906	85.5385	87.8906	85.4766	87.8906	85.5984	87.8906	85.5278	87.8906	85.6575	87.8906	85.5825	87.8906	85.7096	87.8906	85.6349	87.8906	85.7484	87.8906	85.6788	87.8906	85.7685	87.8906	85.7083	87.8906	85.7657	87.8906	85.7185	87.8906	85.7383	87.8906	85.7063	87.8906	85.6874	87.8906	85.6711	87.8906	85.6178	87.8906	85.6157	87.8906	85.5379	87.8906	85.5464	87.8906	85.4587	87.8906	85.4726	87.8906	85.3925	87.8906	85.406	87.8906	85.3499	87.8906	85.3581	87.8906	85.3379
90.8203	85.6592	90.8203	85.6767	90.8203	85.6567	90.8203	85.7081	90.8203	85.669	90.8203	85.7511	90.8203	85.6945	90.8203	85.802	90.8203	85.7307	90.8203	85.8561	90.8203	85.7735	90.8203	85.9076	90.8203	85.818	90.8203	85.9504	90.8203	85.8586	90.8203	85.9783	90.8203	85.8892	90.8203	85.9858	90.8203	85.9042	90.8203	85.969	90.8203	85.8989	90.8203	85.9263	90.8203	85.8705	90.8203	85.8592	90.8203	85.8191	90.8203	85.7728	90.8203	85.7479	90.8203	85.6762	90.8203	85.6642	90.8203	85.5813	90.8203	85.5785	90.8203	85.5015	90.8203	85.5032	90.8203	85.4489	90.8203	85.4509	90.8203	85.4313
95.2148	85.8913	95.2148	85.8984	95.2148	85.8958	95.2148	85.9165	95.2148	85.9117	95.2148	85.9442	95.2148	85.9379	95.2148	85.9788	95.2148	85.9721	95.2148	86.0164	95.2148	86.0113	95.2148	86.0523	95.2148	86.0512	95.2148	86.0805	95.2148	86.0866	95.2148	86.095	95.2148	86.1116	95.2148	86.09	95.2148	86.1204	95.2148	86.0611	95.2148	86.1076	95.2148	86.0062	95.2148	86.0696	95.2148	85.9267	95.2148	86.0052	95.2148	85.828	95.2148	85.917	95.2148	85.7204	95.2148	85.8119	95.2148	85.6176	95.2148	85.7012	95.2148	85.5353	95.2148	85.5996	95.2148	85.4874	95.2148	85.5224	95.2148	85.4827
98.1445	85.9967	98.1445	86.0054	98.1445	85.999	98.1445	86.0243	98.1445	86.0123	98.1445	86.0519	98.1445	86.0356	98.1445	86.0854	98.1445	86.0671	98.1445	86.1212	98.1445	86.1039	98.1445	86.1543	98.1445	86.142	98.1445	86.1792	98.1445	86.1761	98.1445	86.1897	98.1445	86.2004	98.1445	86.1803	98.1445	86.2087	98.1445	86.1465	98.1445	86.1953	98.1445	86.0864	98.1445	86.1562	98.1445	86.0014	98.1445	86.0898	98.1445	85.8972	98.1445	85.9985	98.1445	85.7845	98.1445	85.8891	98.1445	85.6775	98.1445	85.7733	98.1445	85.5926	98.1445	85.6663	98.1445	85.5442	98.1445	85.5844	98.1445	85.5411
101.074	86.0562	101.074	86.0639	101.074	86.0598	101.074	86.0824	101.074	86.0747	101.074	86.11	101.074	86.0998	101.074	86.1441	101.074	86.1331	101.074	86.1808	101.074	86.1715	101.074	86.2151	101.074	86.2109	101.074	86.2412	101.074	86.2461	101.074	86.2527	101.074	86.2714	101.074	86.2436	101.074	86.2806	101.074	86.2093	101.074	86.2684	101.074	86.1478	101.074	86.2308	101.074	86.0609	101.074	86.1661	101.074	85.9549	101.074	86.0764	101.074	85.841	101.074	85.9679	101.074	85.7343	101.074	85.8516	101.074	85.6514	101.074	85.7423	101.074	85.6067	101.074	85.6564	101.074	85.6084
105.469	86.5095	105.469	86.5032	105.469	86.5223	105.469	86.5033	105.469	86.5413	105.469	86.5093	105.469	86.5656	105.469	86.5198	105.469	86.5936	105.469	86.5322	105.469	86.6225	105.469	86.5428	105.469	86.6481	105.469	86.5463	105.469	86.6651	105.469	86.5363	105.469	86.6667	105.469	86.5064	105.469	86.6462	105.469	86.4508	105.469	86.5975	105.469	86.3663	105.469	86.5168	105.469	86.2537	105.469	86.4039	105.469	86.1189	105.469	86.2634	105.469	85.974	105.469	86.1056	105.469	85.8358	105.469	85.9461	105.469	85.7242	105.469	85.8042	105.469	85.6575	105.469	85.6997	105.469	85.6484
108.398	86.8574	108.398	86.8527	108.398	86.8623	108.398	86.8483	108.398	86.8673	108.398	86.8439	108.398	86.8718	108.398	86.8387	108.398	86.8751	108.398	86.8311	108.398	86.8756	108.398	86.8183	108.398	86.8705	108.398	86.7968	108.398	86.856	108.398	86.7616	108.398	86.827	108.398	86.7078	108.398	86.7778	108.398	86.6305	108.398	86.703	108.398	86.527	108.398	86.5994	108.398	86.3974	108.398	86.467	108.398	86.2469	108.398	86.3108	108.398	86.0862	108.398	86.1418	108.398	85.9315	108.398	85.9764	108.398	85.8027	108.398	85.8344	108.398	85.7193	108.398	85.7357	108.398	85.6954
112.793	86.9876	112.793	86.982	112.793	86.9935	112.793	86.9762	112.793	86.9999	112.793	86.9693	112.793	87.0066	112.793	86.96	112.793	87.0126	112.793	86.9462	112.793	87.0161	112.793	86.9254	112.793	87.0138	112.793	86.894	112.793	87.0015	112.793	86.8482	112.793	86.9738	112.793	86.7838	112.793	86.925	112.793	86.6975	112.793	86.85	112.793	86.5878	112.793	86.7457	112.793	86.4558	112.793	86.6124	112.793	86.3072	112.793	86.4549	112.793	86.1527	112.793	86.2839	112.793	86.0079	112.793	86.1149	112.793	85.8914	112.793	85.9672	112.793	85.821	112.793	85.8604	112.793	85.8094
117.188	87.0922	117.188	87.0919	117.188	87.092	117.188	87.0906	117.188	87.0909	117.188	87.0874	117.188	87.0881	117.188	87.0805	117.188	87.0821	117.188	87.0668	117.188	87.0707	117.188	87.0426	117.188	87.0503	117.188	87.0033	117.188	87.0165	117.188	86.9437	117.188	86.9641	117.188	86.8593	117.188	86.8877	117.188	86.7465	117.188	86.7827	117.188	86.6046	117.188	86.6472	117.188	86.4361	117.188	86.4827	117.188	86.2488	117.188	86.2959	117.188	86.0556	117.188	86.0996	117.188	85.8744	117.188	85.9117	117.188	85.7262	117.188	85.7532	117.188	85.6306	117.188	85.6448	117.188	85.6019
120.117	87.1655	120.117	87.1591	120.117	87.1725	120.117	87.1527	120.117	87.1802	120.117	87.1451	120.117	87.1879	120.117	87.1344	120.117	87.194	120.117	87.1175	120.117	87.196	120.117	87.0905	120.117	87.1899	120.117	87.0488	120.117	87.1699	120.117	86.9873	120.117	87.1296	120.117	86.9013	120.117	87.062	120.117	86.7874	120.117	86.9611	120.117	86.6446	120.117	86.8236	120.117	86.4754	120.117	86.6507	120.117	86.2876	120.117	86.4496	120.117	86.0944	120.117	86.2344	120.117	85.9144	120.117	86.0253	120.117	85.7693	120.117	85.8459	120.117	85.6799	120.117	85.719	120.117	85.6615
124.512	87.1691	124.512	87.1679	124.512	87.1737	124.512	87.1695	124.512	87.1817	124.512	87.1728	124.512	87.1928	124.512	87.176	124.512	87.2058	124.512	87.1761	124.512	87.2185	124.512	87.169	124.512	87.2274	124.512	87.1498	124.512	87.227	124.512	87.1128	124.512	87.2104	124.512	87.0527	124.512	87.1702	124.512	86.965	124.512	87.0995	124.512	86.8477	124.512	86.9937	124.512	86.7027	124.512	86.8524	124.512	86.5369	124.512	86.6814	124.512	86.363	124.512	86.4928	124.512	86.1991	124.512	86.3054	124.512	86.0664	124.512	86.1418	124.512	85.9852	124.512	86.0243	124.512	85.9697
128.906	87.2193	128.906	87.2201	128.906	87.221	128.906	87.2225	128.906	87.2257	128.906	87.225	128.906	87.2335	128.906	87.2255	128.906	87.2436	128.906	87.221	128.906	87.2541	128.906	87.2075	128.906	87.2616	128.906	87.1802	128.906	87.2608	128.906	87.1339	128.906	87.2452	128.906	87.0639	128.906	87.2074	128.906	86.9667	128.906	87.1404	128.906	86.8416	128.906	87.0393	128.906	86.6915	128.906	86.9032	128.906	86.5243	128.906	86.7365	128.906	86.3534	128.906	86.5503	128.906	86.1966	128.906	86.3623	128.906	86.0745	128.906	86.1943	128.906	86.0057	128.906	86.0686	128.906	86.0029
133.301	87.2034	133.301	87.2142	133.301	87.194	133.301	87.2252	133.301	87.187	133.301	87.2347	133.301	87.183	133.301	87.2406	133.301	87.1822	133.301	87.2398	133.301	87.1835	133.301	87.2281	133.301	87.1842	133.301	87.2007	133.301	87.1794	133.301	87.1522	133.301	87.1622	133.301	87.0777	133.301	87.1247	133.301	86.9739	133.301	87.0592	133.301	86.8401	133.301	86.9603	133.301	86.6799	133.301	86.8265	133.301	86.5022	133.301	86.662	133.301	86.3212	133.301	86.4783	133.301	86.1556	133.301	86.2929	133.301	86.0262	133.301	86.1279	133.301	85.9515	133.301	86.0056	133.301	85.9439
139.16	87.2004	139.16	87.2146	139.16	87.186	139.16	87.2284	139.16	87.1718	139.16	87.2407	139.16	87.1582	139.16	87.2498	139.16	87.1454	139.16	87.2525	139.16	87.1329	139.16	87.2442	139.16	87.1189	139.16	87.2193	139.16	87.0996	139.16	87.1713	139.16	87.0693	139.16	87.0945	139.16	87.0209	139.16	86.985	139.16	86.9472	139.16	86.8418	139.16	86.8429	139.16	86.6688	139.16	86.7065	139.16	86.4757	139.16	86.5422	139.16	86.2783	139.16	86.3608	139.16	86.0969	139.16	86.1796	139.16	85.9535	139.16	86.0201	139.16	85.8673	139.16	85.9044	139.16	85.8504
143.555	87.132	143.555	87.1329	143.555	87.1294	143.555	87.1331	143.555	87.1244	143.555	87.1331	143.555	87.1168	143.555	87.1326	143.555	87.1066	143.555	87.1293	143.555	87.0932	143.555	87.1189	143.555	87.0752	143.555	87.0948	143.555	87.0493	143.555	87.0495	143.555	87.0105	143.555	86.9756	143.555	86.9522	143.555	86.8677	143.555	86.8682	143.555	86.7245	143.555	86.7538	143.555	86.5501	143.555	86.6081	143.555	86.3551	143.555	86.4359	143.555	86.1561	143.555	86.2485	143.555	85.9741	143.555	86.0633	143.555	85.8311	143.555	85.9016	143.555	85.7458	143.555	85.7847	143.555	85.7298
147.949	87.1161	147.949	87.1105	147.949	87.1166	147.949	87.1002	147.949	87.1125	147.949	87.0855	147.949	87.1046	147.949	87.0669	147.949	87.0938	147.949	87.0437	147.949	87.0805	147.949	87.0136	147.949	87.0635	147.949	86.9725	147.949	87.0397	147.949	86.9147	147.949	87.0038	147.949	86.8339	147.949	86.9486	147.949	86.7251	147.949	86.867	147.949	86.5863	147.949	86.7535	147.949	86.421	147.949	86.6069	147.949	86.2385	147.949	86.4319	147.949	86.0546	147.949	86.2401	147.949	85.8888	147.949	86.0492	147.949	85.7622	147.949	85.8804	147.949	85.6921	147.949	85.7549	147.949	85.6893
153.809	87.1165	153.809	87.1109	153.809	87.1106	153.809	87.0943	153.809	87.0929	153.809	87.0677	153.809	87.064	153.809	87.0318	153.809	87.0248	153.809	86.9863	153.809	86.9765	153.809	86.9294	153.809	86.9195	153.809	86.8579	153.809	86.8531	153.809	86.7673	153.809	86.7748	153.809	86.6527	153.809	86.6808	153.809	86.5108	153.809	86.5669	153.809	86.3418	153.809	86.4299	153.809	86.1516	153.809	86.2699	153.809	85.9522	153.809	86.0921	153.809	85.7609	153.809	85.9073	153.809	85.597	153.809	85.7309	153.809	85.4776	153.809	85.5798	153.809	85.4143	153.809	85.4696	153.809	85.4122
159.668	87.0513	159.668	87.0398	159.668	87.0542	159.668	87.0212	159.668	87.0474	159.668	86.9971	159.668	87.0306	159.668	86.968	159.668	87.0042	159.668	86.9335	159.668	86.9689	159.668	86.8912	159.668	86.9244	159.668	86.837	159.668	86.8693	159.668	86.765	159.668	86.8004	159.668	86.6689	159.668	86.7128	159.668	86.5434	159.668	86.6016	159.668	86.386	159.668	86.4631	159.668	86.2001	159.668	86.2973	159.668	85.9958	159.668	86.1096	159.668	85.7906	159.668	85.9115	159.668	85.6066	159.668	85.7199	159.668	85.4661	159.668	85.5547	159.668	85.3863	159.668	85.4351	159.668	85.3761
165.527	87.0799	165.527	87.0566	165.527	87.0978	165.527	87.0306	165.527	87.1084	165.527	87.0045	165.527	87.1108	165.527	86.9797	165.527	87.1051	165.527	86.9559	165.527	87.092	165.527	86.9301	165.527	87.0715	165.527	86.8974	165.527	87.0422	165.527	86.8512	165.527	87.0006	165.527	86.7851	165.527	86.9419	165.527	86.6948	165.527	86.8608	165.527	86.5795	165.527	86.7545	165.527	86.4433	165.527	86.624	165.527	86.2961	165.527	86.4756	165.527	86.152	165.527	86.3201	165.527	86.0271	165.527	86.1712	165.527	85.9366	165.527	86.043	165.527	85.891	165.527	85.9477	165.527	85.8951
171.387	87.1848	171.387	87.1658	171.387	87.1844	171.387	87.1292	171.387	87.1641	171.387	87.0775	171.387	87.1248	171.387	87.0132	171.387	87.0689	171.387	86.9383	171.387	86.9991	171.387	86.8539	171.387	86.9183	171.387	86.7593	171.387	86.8278	171.387	86.653	171.387	86.7266	171.387	86.5325	171.387	86.6118	171.387	86.3962	171.387	86.48	171.387	86.2452	171.387	86.3298	171.387	86.0844	171.387	86.1642	171.387	85.9232	171.387	85.9922	171.387	85.7735	171.387	85.8275	171.387	85.6473	171.387	85.685	171.387	85.5536	171.387	85.5764	171.387	85.4977	171.387	85.5082	171.387	85.4821
177.246	86.8436	177.246	86.8277	177.246	86.8464	177.246	86.8014	177.246	86.8341	177.246	86.7669	177.246	86.8061	177.246	86.7248	177.246	86.7627	177.246	86.6733	177.246	86.7044	177.246	86.6076	177.246	86.6314	177.246	86.5211	177.246	86.5421	177.246	86.4063	177.246	86.4329	177.246	86.2575	177.246	86.2989	177.246	86.0725	177.246	86.1352	177.246	85.8552	177.246	85.9406	177.246	85.6172	177.246	85.7203	177.246	85.377	177.246	85.4874	177.246	85.1573	177.246	85.2617	177.246	84.9781	177.246	85.0647	177.246	84.8524	177.246	84.913	177.246	84.7841	177.246	84.815	177.246	84.772
183.105	86.569	183.105	86.5723	183.105	86.546	183.105	86.5588	183.105	86.5029	183.105	86.5322	183.105	86.4416	183.105	86.4956	183.105	86.3671	183.105	86.4502	183.105	86.2854	183.105	86.3942	183.105	86.2019	183.105	86.3234	183.105	86.1189	183.105	86.2323	183.105	86.0341	183.105	86.1154	183.105	85.9406	183.105	85.9694	183.105	85.8296	183.105	85.7952	183.105	85.6939	183.105	85.5993	183.105	85.5333	183.105	85.3948	183.105	85.356	183.105	85.1998	183.105	85.1789	183.105	85.0327	183.105	85.0221	183.105	84.9075	183.105	84.9023	183.105	84.8312	183.105	84.829	183.105	84.8052
188.965	86.5737	188.965	86.5713	188.965	86.548	188.965	86.5468	188.965	86.4913	188.965	86.5073	188.965	86.4043	188.965	86.4586	188.965	86.2909	188.965	86.403	188.965	86.1582	188.965	86.3379	188.965	86.0139	188.965	86.2561	188.965	85.8649	188.965	86.1482	188.965	85.715	188.965	86.0069	188.965	85.5634	188.965	85.8299	188.965	85.4056	188.965	85.6227	188.965	85.2374	188.965	85.398	188.965	85.0598	188.965	85.1736	188.965	84.882	188.965	84.9676	188.965	84.7207	188.965	84.7937	188.965	84.5947	188.965	84.6587	188.965	84.5163	188.965	84.563	188.965	84.4882	188.965	84.5056
196.289	86.7305	196.289	86.6918	196.289	86.7317	196.289	86.6222	196.289	86.6922	196.289	86.5307	196.289	86.6125	196.289	86.4267	196.289	86.4964	196.289	86.3174	196.289	86.3501	196.289	86.2054	196.289	86.1811	196.289	86.0878	196.289	85.997	196.289	85.957	196.289	85.8036	196.289	85.8039	196.289	85.6026	196.289	85.6219	196.289	85.3919	196.289	85.4102	196.289	85.167	196.289	85.1762	196.289	84.9264	196.289	84.9343	196.289	84.6785	196.289	84.7022	196.289	84.4439	196.289	84.4952	196.289	84.2511	196.289	84.3227	196.289	84.1257	196.289	84.1902	196.289	84.0787	196.289	84.1048
203.613	86.7637	203.613	86.712	203.613	86.7688	203.613	86.6167	203.613	86.7282	203.613	86.4846	203.613	86.6452	203.613	86.3256	203.613	86.5247	203.613	86.1504	203.613	86.3716	203.613	85.9674	203.613	86.1904	203.613	85.7804	203.613	85.9855	203.613	85.5886	203.613	85.7615	203.613	85.3895	203.613	85.5248	203.613	85.1824	203.613	85.2835	203.613	84.9717	203.613	85.0476	203.613	84.7677	203.613	84.8285	203.613	84.5848	203.613	84.6377	203.613	84.437	203.613	84.4845	203.613	84.3331	203.613	84.3736	203.613	84.2727	203.613	84.3025	203.613	84.2471	203.613	84.263	203.613	84.2456
210.938	86.5821	210.938	86.5348	210.938	86.5868	210.938	86.4441	210.938	86.553	210.938	86.3136	210.938	86.4869	210.938	86.1511	210.938	86.3945	210.938	85.967	210.938	86.2803	210.938	85.7713	210.938	86.1459	210.938	85.5688	210.938	85.9897	210.938	85.3577	210.938	85.8073	210.938	85.1314	210.938	85.593	210.938	84.885	210.938	85.3418	210.938	84.6222	210.938	85.0538	210.938	84.3586	210.938	84.7382	210.938	84.1179	210.938	84.4172	210.938	83.9224	210.938	84.124	210.938	83.7837	210.938	83.8919	210.938	83.6981	210.938	83.7393	210.938	83.6529	210.938	83.6618	210.938	83.6393
218.262	86.3153	218.262	86.2977	218.262	86.2926	218.262	86.2396	218.262	86.2335	218.262	86.1445	218.262	86.1452	218.262	86.0186	218.262	86.0367	218.262	85.8688	218.262	85.9166	218.262	85.7011	218.262	85.7908	218.262	85.5185	218.262	85.6607	218.262	85.3208	218.262	85.5229	218.262	85.1062	218.262	85.3695	218.262	84.8742	218.262	85.1904	218.262	84.6298	218.262	84.9778	218.262	84.3853	218.262	84.731	218.262	84.159	218.262	84.4619	218.262	83.9694	218.262	84.196	218.262	83.8276	218.262	83.9664	218.262	83.7342	218.262	83.7996	218.262	83.6827	218.262	83.7041	218.262	83.6702
225.586	86.2608	225.586	86.2597	225.586	86.2079	225.586	86.204	225.586	86.1061	225.586	86.0984	225.586	85.9635	225.586	85.9528	225.586	85.7901	225.586	85.7807	225.586	85.5964	225.586	85.5949	225.586	85.3929	225.586	85.4032	225.586	85.1889	225.586	85.2057	225.586	84.9932	225.586	84.998	225.586	84.8128	225.586	84.7773	225.586	84.6506	225.586	84.5482	225.586	84.5042	225.586	84.3249	225.586	84.3663	225.586	84.1271	225.586	84.2311	225.586	83.9728	225.586	84.1003	225.586	83.8707	225.586	83.9846	225.586	83.8176	225.586	83.8962	225.586	83.8012	225.586	83.8394	225.586	83.8096
232.91	86.2927	232.91	86.2592	232.91	86.2717	232.91	86.1713	232.91	86.1983	232.91	86.0325	232.91	86.0772	232.91	85.8504	232.91	85.9143	232.91	85.6371	232.91	85.7153	232.91	85.4074	232.91	85.4845	232.91	85.1742	232.91	85.2236	232.91	84.9432	232.91	84.9348	232.91	84.7123	232.91	84.6256	232.91	84.4774	232.91	84.312	232.91	84.2421	232.91	84.0174	232.91	84.021	232.91	83.7645	232.91	83.8331	232.91	83.5665	232.91	83.6882	232.91	83.4254	232.91	83.5803	232.91	83.3375	232.91	83.494	232.91	83.2996	232.91	83.4175	232.91	83.3073	232.91	83.3514
241.699	86.033	241.699	85.9643	241.699	86.0459	241.699	85.8438	241.699	86.0038	241.699	85.6794	241.699	85.9109	241.699	85.4816	241.699	85.7737	241.699	85.2609	241.699	85.5984	241.699	85.0247	241.699	85.3881	241.699	84.7751	241.699	85.141	241.699	84.5092	241.699	84.8512	241.699	84.2224	241.699	84.5138	241.699	83.914	241.699	84.1329	241.699	83.5947	241.699	83.7286	241.699	83.2892	241.699	83.3383	241.699	83.0309	241.699	83.0071	241.699	82.8453	241.699	82.7704	241.699	82.735	241.699	82.6373	241.699	82.6785	241.699	82.5893	241.699	82.6462	241.699	82.5932	241.699	82.6181
250.488	85.7469	250.488	85.6834	250.488	85.7554	250.488	85.5705	250.488	85.706	250.488	85.416	250.488	85.5994	250.488	85.2302	250.488	85.4413	250.488	85.026	250.488	85.2422	250.488	84.8148	250.488	85.0141	250.488	84.6013	250.488	84.7635	250.488	84.378	250.488	84.4861	250.488	84.1269	250.488	84.1679	250.488	83.8296	250.488	83.7947	250.488	83.4826	250.488	83.3668	250.488	83.1081	250.488	82.9113	250.488	82.7513	250.488	82.4841	250.488	82.4604	250.488	82.152	250.488	82.2585	250.488	81.9581	250.488	82.1324	250.488	81.8956	250.488	82.0485	250.488	81.9189	250.488	81.9787
259.277	85.6305	259.277	85.4834	259.277	85.7266	259.277	85.2997	259.277	85.762	259.277	85.097	259.277	85.7325	259.277	84.8926	259.277	85.6394	259.277	84.6994	259.277	85.4904	259.277	84.5234	259.277	85.2983	259.277	84.3608	259.277	85.0753	259.277	84.1969	259.277	84.8263	259.277	84.006	259.277	84.5443	259.277	83.759	259.277	84.2145	259.277	83.4375	259.277	83.8262	259.277	83.0501	259.277	83.3863	259.277	82.6391	259.277	82.927	259.277	82.2686	259.277	82.5005	259.277	81.993	259.277	82.1588	259.277	81.8287	259.277	81.9285	259.277	81.7567	259.277	81.8013	259.277	81.75
268.066	85.135	268.066	85.0004	268.066	85.1897	268.066	84.796	268.066	85.1644	268.066	84.5441	268.066	85.0668	268.066	84.2765	268.066	84.9096	268.066	84.0288	268.066	84.7077	268.066	83.8279	268.066	84.4759	268.066	83.6796	268.066	84.2248	268.066	83.5631	268.066	83.9564	268.066	83.4364	268.066	83.6606	268.066	83.2531	268.066	83.3189	268.066	82.9835	268.066	82.9179	268.066	82.6332	268.066	82.4696	268.066	82.2509	268.066	82.0265	268.066	81.9131	268.066	81.6712	268.066	81.683	268.066	81.4698	268.066	81.5701	268.066	81.4198	268.066	81.5293	268.066	81.4544	268.066	81.5002
276.855	85.2609	276.855	85.114	276.855	85.2875	276.855	84.8417	276.855	85.2084	276.855	84.456	276.855	85.0458	276.855	83.9935	276.855	84.8279	276.855	83.5173	276.855	84.5874	276.855	83.1018	276.855	84.352	276.855	82.7974	276.855	84.1306	276.855	82.5953	276.855	83.9037	276.855	82.4274	276.855	83.627	276.855	82.2048	276.855	83.2469	276.855	81.8601	276.855	82.7196	276.855	81.3738	276.855	82.0289	276.855	80.7832	276.855	81.2051	276.855	80.1746	276.855	80.3448	276.855	79.6498	276.855	79.6036	276.855	79.2726	276.855	79.1211	276.855	79.0404	276.855	78.9212	276.855	78.9205
287.109	86.9414	287.109	86.8143	287.109	86.8765	287.109	86.4943	287.109	86.6244	287.109	85.9822	287.109	86.197	287.109	85.2831	287.109	85.6196	287.109	84.4164	287.109	84.9408	287.109	83.4413	287.109	84.2447	287.109	82.4911	287.109	83.6493	287.109	81.7667	287.109	83.2641	287.109	81.4119	287.109	83.1141	287.109	81.3612	287.109	83.1072	287.109	81.3933	287.109	83.0921	287.109	81.3155	287.109	82.9352	287.109	81.0504	287.109	82.5611	287.109	80.6231	287.109	81.9617	287.109	80.1223	287.109	81.2008	287.109	79.668	287.109	80.4107	287.109	79.3909	287.109	79.7634	287.109	79.4054
297.363	87.9405	297.363	87.9508	297.363	87.8224	297.363	87.8538	297.363	87.5894	297.363	87.6425	297.363	87.2299	297.363	87.3017	297.363	86.7304	297.363	86.81	297.363	86.0816	297.363	86.1469	297.363	85.2905	297.363	85.3101	297.363	84.4065	297.363	84.3499	297.363	83.5532	297.363	83.4138	297.363	82.9229	297.363	82.7471	297.363	82.6675	297.363	82.5507	297.363	82.7587	297.363	82.7918	297.363	83.022	297.363	83.2541	297.363	83.2962	297.363	83.7304	297.363	83.5141	297.363	84.0976	297.363	83.6876	297.363	84.2998	297.363	83.8579	297.363	84.3301	297.363	84.0455	297.363	84.2239
307.617	87.0059	307.617	86.9918	307.617	86.9584	307.617	86.8912	307.617	86.8677	307.617	86.6833	307.617	86.7388	307.617	86.3617	307.617	86.559	307.617	85.9402	307.617	86.2971	307.617	85.4474	307.617	85.909	307.617	84.9122	307.617	85.3523	307.617	84.3554	307.617	84.6157	307.617	83.8009	307.617	83.7592	307.617	83.3016	307.617	82.9513	307.617	82.941	307.617	82.4276	307.617	82.7876	307.617	82.3178	307.617	82.8391	307.617	82.5231	307.617	83.0266	307.617	82.8451	307.617	83.2642	307.617	83.1516	307.617	83.4795	307.617	83.3962	307.617	83.6173	307.617	83.5666	307.617	83.6465
319.336	85.767	319.336	85.7415	319.336	85.7851	319.336	85.7013	319.336	85.7905	319.336	85.6232	319.336	85.7708	319.336	85.4696	319.336	85.7085	319.336	85.1998	319.336	85.5807	319.336	84.7866	319.336	85.3586	319.336	84.2311	319.336	85.009	319.336	83.5725	319.336	84.5041	319.336	82.8894	319.336	83.8419	319.336	82.2967	319.336	83.0793	319.336	81.9296	319.336	82.368	319.336	81.8882	319.336	81.933	319.336	82.1569	319.336	81.9247	319.336	82.5979	319.336	82.2704	319.336	83.0457	319.336	82.7544	319.336	83.3907	319.336	83.1923	319.336	83.5872	319.336	83.491	319.336	83.6225
329.59	85.6403	329.59	85.5977	329.59	85.6779	329.59	85.5532	329.59	85.7009	329.59	85.5049	329.59	85.6931	329.59	85.4426	329.59	85.6373	329.59	85.3397	329.59	85.5216	329.59	85.1507	329.59	85.3385	329.59	84.8265	329.59	85.0768	329.59	84.3416	329.59	84.7141	329.59	83.7224	329.59	84.2247	329.59	83.0628	329.59	83.607	329.59	82.5113	329.59	82.921	329.59	82.2078	329.59	82.3099	329.59	82.1983	329.59	81.9528	329.59	82.4098	329.59	81.9392	329.59	82.7097	329.59	82.1957	329.59	82.9733	329.59	82.5602	329.59	83.1134	329.59	82.8873	329.59	83.0855
341.309	85.6041	341.309	85.6271	341.309	85.5264	341.309	85.5772	341.309	85.408	341.309	85.4362	341.309	85.2599	341.309	85.1959	341.309	85.0844	341.309	84.8666	341.309	84.8676	341.309	84.4702	341.309	84.5816	341.309	84.021	341.309	84.2033	341.309	83.5161	341.309	83.7424	341.309	82.9578	341.309	83.257	341.309	82.3957	341.309	82.8373	341.309	81.9406	341.309	82.5563	341.309	81.7071	341.309	82.4287	341.309	81.7212	341.309	82.4223	341.309	81.914	341.309	82.497	341.309	82.1933	341.309	82.6213	341.309	82.4831	341.309	82.7574	341.309	82.718	341.309	82.8507	341.309	82.8464
353.027	85.3509	353.027	85.2291	353.027	85.4359	353.027	85.0913	353.027	85.4581	353.027	84.9433	353.027	85.396	353.027	84.7729	353.027	85.2422	353.027	84.5591	353.027	85.0053	353.027	84.2875	353.027	84.6945	353.027	83.9548	353.027	84.2894	353.027	83.5545	353.027	83.7251	353.027	83.0691	353.027	82.9231	353.027	82.5026	353.027	81.8733	353.027	81.952	353.027	80.7697	353.027	81.6242	353.027	80.0929	353.027	81.681	353.027	80.234	353.027	82.0463	353.027	80.9525	353.027	82.4873	353.027	81.7522	353.027	82.8223	353.027	82.3727	353.027	82.9823	353.027	82.7672	353.027	82.9633
366.211	85.5447	366.211	85.4104	366.211	85.6216	366.211	85.2265	366.211	85.6349	366.211	84.9947	366.211	85.58	366.211	84.7017	366.211	85.4516	366.211	84.3205	366.211	85.2486	366.211	83.8241	366.211	84.9788	366.211	83.2051	366.211	84.6497	366.211	82.4943	366.211	84.243	366.211	81.7784	366.211	83.6977	366.211	81.2015	366.211	82.9277	366.211	80.9194	366.211	81.8859	366.211	80.9999	366.211	80.6882	366.211	81.3579	366.211	79.7768	366.211	81.8125	366.211	79.7198	366.211	82.1963	366.211	80.4242	366.211	82.4162	366.211	81.2779	366.211	82.4489	366.211	81.9183	366.211	82.2927
379.395	86.4584	379.395	86.4023	379.395	86.4471	379.395	86.289	379.395	86.3661	379.395	86.1275	379.395	86.2183	379.395	85.907	379.395	86.007	379.395	85.5815	379.395	85.7361	379.395	85.082	379.395	85.4148	379.395	84.3517	379.395	85.06	379.395	83.3827	379.395	84.6854	379.395	82.2321	379.395	84.2827	379.395	81.0151	379.395	83.813	379.395	79.9122	379.395	83.2314	379.395	79.2237	379.395	82.5472	379.395	79.2796	379.395	81.8962	379.395	80.0368	379.395	81.5341	379.395	81.0515	379.395	81.625	379.395	81.9292	379.395	82.0316	379.395	82.4794	379.395	82.452	379.395	82.6435
392.578	85.6665	392.578	85.6905	392.578	85.5954	392.578	85.6581	392.578	85.4803	392.578	85.5675	392.578	85.3139	392.578	85.4359	392.578	85.0811	392.578	85.2856	392.578	84.7661	392.578	85.1052	392.578	84.3633	392.578	84.827	392.578	83.8867	392.578	84.3553	392.578	83.3658	392.578	83.6225	392.578	82.8245	392.578	82.6465	392.578	82.2741	392.578	81.584	392.578	81.7517	392.578	80.7531	392.578	81.3785	392.578	80.5124	392.578	81.3282	392.578	80.9569	392.578	81.657	392.578	81.7989	392.578	82.2172	392.578	82.6347	392.578	82.7926	392.578	83.1939	392.578	83.2185	392.578	83.3802
405.762	85.9064	405.762	85.7766	405.762	85.9533	405.762	85.5737	405.762	85.9096	405.762	85.3037	405.762	85.7745	405.762	84.972	405.762	85.5508	405.762	84.5896	405.762	85.235	405.762	84.1694	405.762	84.8151	405.762	83.706	405.762	84.2845	405.762	83.1648	405.762	83.6622	405.762	82.5052	405.762	82.9925	405.762	81.733	405.762	82.3101	405.762	80.9527	405.762	81.6168	405.762	80.3849	405.762	80.9567	405.762	80.2849	405.762	80.5553	405.762	80.7262	405.762	80.7227	405.762	81.4854	405.762	81.4131	405.762	82.2372	405.762	82.2102	405.762	82.761	405.762	82.7677	405.762	82.9532
420.41	86.1482	420.41	85.9958	420.41	86.2058	420.41	85.7588	420.41	86.1719	420.41	85.4551	420.41	86.0595	420.41	85.0983	420.41	85.8789	420.41	84.6888	420.41	85.6275	420.41	84.2093	420.41	85.2803	420.41	83.6198	420.41	84.7858	420.41	82.8667	420.41	84.0679	420.41	81.9362	420.41	83.0443	420.41	80.9692	420.41	81.6762	420.41	80.3292	420.41	80.0892	420.41	80.3185	420.41	78.7867	420.41	80.7744	420.41	78.523	420.41	81.3428	420.41	79.3408	420.41	81.8695	420.41	80.5516	420.41	82.3344	420.41	81.6427	420.41	82.6677	420.41	82.3937	420.41	82.7269
435.059	85.9137	435.059	85.9029	435.059	85.844	435.059	85.794	435.059	85.7159	435.059	85.5807	435.059	85.5504	435.059	85.27	435.059	85.3716	435.059	84.8781	435.059	85.211	435.059	84.4165	435.059	85.09	435.059	83.8617	435.059	84.9784	435.059	83.125	435.059	84.7734	435.059	82.0671	435.059	84.3365	435.059	80.5939	435.059	83.5633	435.059	78.9006	435.059	82.4537	435.059	77.8649	435.059	81.1847	435.059	78.3466	435.059	80.1505	435.059	79.6509	435.059	79.7712	435.059	80.8447	435.059	80.0906	435.059	81.6346	435.059	80.7781	435.059	81.9883	435.059	81.4698	435.059	81.9173
451.172	86.1775	451.172	86.1325	451.172	86.1212	451.172	85.9956	451.172	85.9741	451.172	85.7835	451.172	85.7676	451.172	85.5138	451.172	85.5287	451.172	85.2003	451.172	85.2482	451.172	84.8377	451.172	84.8835	451.172	84.3761	451.172	84.3887	451.172	83.7073	451.172	83.7289	451.172	82.6805	451.172	82.8564	451.172	81.1556	451.172	81.6899	451.172	79.1902	451.172	80.1731	451.172	77.6348	451.172	78.5382	451.172	78.0177	451.172	77.7761	451.172	79.7186	451.172	78.7462	451.172	81.2753	451.172	80.4688	451.172	82.2981	451.172	81.882	451.172	82.8463	451.172	82.7069	451.172	82.9934
465.82	86.3685	465.82	86.3202	465.82	86.3345	465.82	86.1956	465.82	86.2271	465.82	86.0123	465.82	86.0688	465.82	85.786	465.82	85.8934	465.82	85.5204	465.82	85.7284	465.82	85.2097	465.82	85.5588	465.82	84.8365	465.82	85.3071	465.82	84.3429	465.82	84.8658	465.82	83.6055	465.82	84.1513	465.82	82.4473	465.82	83.1234	465.82	80.678	465.82	81.7601	465.82	78.2669	465.82	80.0632	465.82	76.2398	465.82	78.314	465.82	76.8849	465.82	77.6082	465.82	78.9727	465.82	78.6424	465.82	80.5886	465.82	80.1728	465.82	81.4559	465.82	81.2384	465.82	81.6609
483.398	85.8499	483.398	85.7684	483.398	85.8717	483.398	85.6617	483.398	85.8195	483.398	85.5462	483.398	85.707	483.398	85.4004	483.398	85.5516	483.398	85.1916	483.398	85.359	483.398	84.9102	483.398	85.1409	483.398	84.5551	483.398	84.9202	483.398	84.072	483.398	84.6765	483.398	83.318	483.398	84.2819	483.398	82.1033	483.398	83.5197	483.398	80.3153	483.398	82.1808	483.398	78.2565	483.398	80.2249	483.398	77.2515	483.398	78.1935	483.398	78.1915	483.398	77.4944	483.398	79.7067	483.398	78.3841	483.398	80.7775	483.398	79.6058	483.398	81.225	483.398	80.5534	483.398	81.1165
499.512	86.0716	499.512	85.8769	499.512	86.1173	499.512	85.6083	499.512	85.9833	499.512	85.3396	499.512	85.7049	499.512	85.0911	499.512	85.3751	499.512	84.8285	499.512	85.0886	499.512	84.5224	499.512	84.8597	499.512	84.1841	499.512	84.6077	499.512	83.8044	499.512	84.2376	499.512	83.2724	499.512	83.6965	499.512	82.3904	499.512	82.9377	499.512	80.9923	499.512	81.8603	499.512	79.1887	499.512	80.3606	499.512	77.9001	499.512	78.6514	499.512	78.3933	499.512	77.8013	499.512	79.9673	499.512	78.6958	499.512	81.3687	499.512	80.311	499.512	82.1601	499.512	81.6047	499.512	82.2435
517.09	86.6777	517.09	86.5076	517.09	86.7124	517.09	86.2044	517.09	86.6206	517.09	85.8347	517.09	86.3958	517.09	85.5184	517.09	86.0475	517.09	85.3125	517.09	85.6531	517.09	85.1237	517.09	85.3419	517.09	84.7863	517.09	85.1639	517.09	84.1802	517.09	84.98	517.09	83.2393	517.09	84.5406	517.09	81.8635	517.09	83.6444	517.09	79.9068	517.09	82.2152	517.09	77.5602	517.09	80.3343	517.09	76.4661	517.09	78.4246	517.09	77.9044	517.09	77.6223	517.09	79.8967	517.09	78.6303	517.09	81.3164	517.09	80.2817	517.09	82.0569	517.09	81.5437	517.09	82.1387
536.133	86.5236	536.133	86.2943	536.133	86.5602	536.133	85.9101	536.133	86.3963	536.133	85.4528	536.133	86.0553	536.133	85.0624	536.133	85.5888	536.133	84.8572	536.133	85.0749	536.133	84.7913	536.133	84.6308	536.133	84.687	536.133	84.3778	536.133	84.3935	536.133	84.2987	536.133	83.8033	536.133	84.1569	536.133	82.7517	536.133	83.6329	536.133	80.9716	536.133	82.4943	536.133	78.2337	536.133	80.7025	536.133	75.3992	536.133	78.6473	536.133	75.9436	536.133	77.5305	536.133	78.5182	536.133	78.2201	536.133	80.4139	536.133	79.6983	536.133	81.3769	536.133	80.9227	536.133	81.5205
555.176	86.8965	555.176	86.7446	555.176	86.9232	555.176	86.4642	555.176	86.824	555.176	86.0311	555.176	86.6159	555.176	85.4605	555.176	86.3306	555.176	84.8994	555.176	85.9933	555.176	84.5335	555.176	85.6005	555.176	84.327	555.176	85.1344	555.176	84.0529	555.176	84.602	555.176	83.541	555.176	84.0075	555.176	82.6669	555.176	83.2362	555.176	81.158	555.176	81.9883	555.176	78.5897	555.176	79.8344	555.176	75.1758	555.176	76.5662	555.176	74.8963	555.176	74.5898	555.176	77.9024	555.176	76.9817	555.176	80.1573	555.176	79.5521	555.176	81.3024	555.176	81.0202	555.176	81.5651
574.219	87.1462	574.219	86.9756	574.219	87.0654	574.219	86.5679	574.219	86.7853	574.219	86.019	574.219	86.3814	574.219	85.4623	574.219	85.9167	574.219	85.0045	574.219	85.4347	574.219	84.7025	574.219	84.9923	574.219	84.5112	574.219	84.664	574.219	84.2128	574.219	84.4632	574.219	83.5146	574.219	84.2894	574.219	82.251	574.219	83.959	574.219	80.4412	574.219	83.2138	574.219	78.2347	574.219	81.7043	574.219	76.372	574.219	79.1363	574.219	76.803	574.219	76.3561	574.219	78.8786	574.219	76.6864	574.219	80.4351	574.219	78.7307	574.219	80.9938	574.219	80.0921	574.219	80.799
594.727	86.8559	594.727	86.6485	594.727	86.8156	594.727	86.2012	594.727	86.5565	594.727	85.5972	594.727	86.1184	594.727	85.0147	594.727	85.5705	594.727	84.6765	594.727	85.0334	594.727	84.6995	594.727	84.6391	594.727	84.9756	594.727	84.4861	594.727	85.2092	594.727	84.5588	594.727	85.0593	594.727	84.5701	594.727	84.2662	594.727	84.074	594.727	82.6574	594.727	82.8028	594.727	80.0377	594.727	80.8233	594.727	76.1582	594.727	78.5088	594.727	73.266	594.727	76.8833	594.727	76.4725	594.727	77.7684	594.727	79.7288	594.727	79.9894	594.727	81.4399	594.727	81.5254	594.727	81.9897
615.234	87.3623	615.234	87.304	615.234	87.2284	615.234	86.9904	615.234	86.9291	615.234	86.3469	615.234	86.4784	615.234	85.3866	615.234	85.9058	615.234	84.323	615.234	85.2651	615.234	83.5091	615.234	84.639	615.234	83.1588	615.234	84.1541	615.234	83.1885	615.234	83.9165	615.234	83.2413	615.234	83.8475	615.234	82.8302	615.234	83.6586	615.234	81.5914	615.234	82.9953	615.234	79.3867	615.234	81.5261	615.234	76.4393	615.234	78.9455	615.234	74.9837	615.234	75.3958	615.234	77.2465	615.234	74.5216	615.234	79.6741	615.234	77.5581	615.234	80.892	615.234	79.9205	615.234	80.9705
637.207	87.5056	637.207	87.3648	637.207	87.4342	637.207	87.0192	637.207	87.1182	637.207	86.4348	637.207	86.5579	637.207	85.6032	637.207	85.8261	637.207	84.6356	637.207	85.0535	637.207	83.8235	637.207	84.3383	637.207	83.5387	637.207	83.7816	637.207	83.7683	637.207	83.6346	637.207	83.9688	637.207	83.8715	637.207	83.5706	637.207	83.8908	637.207	82.187	637.207	83.1375	637.207	79.548	637.207	81.4252	637.207	76.1143	637.207	78.7528	637.207	75.9553	637.207	75.7441	637.207	79.0862	637.207	75.8849	637.207	81.447	637.207	78.7049	637.207	82.4573	637.207	80.9668	637.207	82.2398
659.18	87.6775	659.18	87.4751	659.18	87.6604	659.18	87.057	659.18	87.4237	659.18	86.4544	659.18	86.9179	659.18	85.6968	659.18	86.0824	659.18	84.81	659.18	85.0041	659.18	83.8474	659.18	83.9893	659.18	82.9697	659.18	83.2682	659.18	82.5164	659.18	82.8278	659.18	82.5463	659.18	82.6802	659.18	82.4709	659.18	82.4815	659.18	81.6959	659.18	81.5268	659.18	79.8496	659.18	79.5612	659.18	76.4621	659.18	76.878	659.18	73.0601	659.18	73.915	659.18	75.779	659.18	74.3463	659.18	78.8176	659.18	78.1646	659.18	80.4165	659.18	80.4593	659.18	81.0206
682.617	87.1639	682.617	87.0222	682.617	87.157	682.617	86.8099	682.617	86.8874	682.617	86.4161	682.617	86.3525	682.617	85.6495	682.617	85.6158	682.617	84.5455	682.617	84.7125	682.617	83.5841	682.617	83.7275	682.617	83.241	682.617	82.9473	682.617	83.2988	682.617	82.6325	682.617	83.3364	682.617	82.6872	682.617	83.012	682.617	82.8263	682.617	81.8917	682.617	82.5917	682.617	79.6467	682.617	81.3583	682.617	76.2794	682.617	78.6352	682.617	73.7292	682.617	74.8597	682.617	76.5767	682.617	74.3865	682.617	79.6908	682.617	77.2634	682.617	80.8622	682.617	79.4288	682.617	80.6092
707.52	86.8833	707.52	86.5626	707.52	86.9633	707.52	86.078	707.52	86.7804	707.52	85.4588	707.52	86.3466	707.52	84.619	707.52	85.6538	707.52	83.5342	707.52	84.6186	707.52	82.3992	707.52	83.1538	707.52	81.6367	707.52	81.6247	707.52	81.8387	707.52	81.1483	707.52	82.6914	707.52	81.7124	707.52	82.9467	707.52	82.0498	707.52	81.8482	707.52	81.7193	707.52	79.0625	707.52	80.4854	707.52	74.3882	707.52	77.5586	707.52	72.4288	707.52	72.2562	707.52	76.0827	707.52	72.0499	707.52	78.5786	707.52	76.1941	707.52	79.6533	707.52	78.5364	707.52	79.6094
732.422	86.8545	732.422	86.7594	732.422	86.6168	732.422	86.3221	732.422	86.2156	732.422	85.7461	732.422	85.719	732.422	85.1324	732.422	85.0975	732.422	84.2707	732.422	84.4608	732.422	83.0387	732.422	83.8558	732.422	81.8264	732.422	82.9335	732.422	81.193	732.422	81.7078	732.422	81.263	732.422	81.3436	732.422	81.6183	732.422	81.9877	732.422	81.4516	732.422	82.1674	732.422	80.1747	732.422	81.1227	732.422	77.2853	732.422	78.5684	732.422	72.3731	732.422	73.9315	732.422	72.3858	732.422	70.7851	732.422	76.1242	732.422	75.0858	732.422	78.2108	732.422	78.0131	732.422	78.9374
757.324	87.002	757.324	86.9791	757.324	86.8831	757.324	86.7126	757.324	86.6814	757.324	86.1308	757.324	86.3215	757.324	85.2042	757.324	85.6351	757.324	83.9556	757.324	84.5994	757.324	82.5408	757.324	83.564	757.324	81.3643	757.324	82.8761	757.324	80.7889	757.324	82.3716	757.324	80.8521	757.324	82.1872	757.324	81.2837	757.324	82.5983	757.324	81.147	757.324	82.8658	757.324	79.5594	757.324	82.2299	757.324	76.1842	757.324	80.0845	757.324	72.3833	757.324	75.2873	757.324	75.5102	757.324	71.3279	757.324	79.0935	757.324	76.1717	757.324	80.2374	757.324	78.7926	757.324	79.9275
785.156	86.0418	785.156	85.7245	785.156	86.168	785.156	85.3687	785.156	86.0832	785.156	85.1202	785.156	85.7796	785.156	84.7551	785.156	85.2571	785.156	83.7698	785.156	84.3698	785.156	81.8576	785.156	82.8465	785.156	79.8784	785.156	81.0681	785.156	79.6313	785.156	80.0362	785.156	79.6565	785.156	79.3308	785.156	78.9779	785.156	78.5604	785.156	78.8923	785.156	78.9693	785.156	77.5697	785.156	79.604	785.156	72.7459	785.156	78.1355	785.156	72.3976	785.156	72.3429	785.156	76.5806	785.156	71.3315	785.156	79.1112	785.156	77.8381	785.156	80.4547	785.156	80.1655	785.156	80.7375
811.523	88.7637	811.523	88.6958	811.523	88.5241	811.523	88.3279	811.523	88.103	811.523	87.7756	811.523	87.6735	811.523	87.3501	811.523	87.1387	811.523	86.9688	811.523	86.3551	811.523	85.9462	811.523	85.4948	811.523	84.449	811.523	84.5121	811.523	84.0825	811.523	83.3772	811.523	84.7266	811.523	83.2083	811.523	84.7236	811.523	83.5148	811.523	83.5278	811.523	82.942	811.523	81.7278	811.523	82.3844	811.523	79.1664	811.523	81.678	811.523	73.4329	811.523	78.2738	811.523	74.8374	811.523	68.7679	811.523	79.0739	811.523	71.0603	811.523	79.9934	811.523	76.3597	811.523	79.0122
840.82	87.8621	840.82	88.0617	840.82	87.5746	840.82	88.0049	840.82	87.3148	840.82	87.4309	840.82	87.2103	840.82	86.374	840.82	87.0375	840.82	85.226	840.82	86.2704	840.82	83.8936	840.82	84.7502	840.82	82.1647	840.82	83.0959	840.82	81.073	840.82	81.9531	840.82	81.0751	840.82	81.7114	840.82	81.3735	840.82	82.2744	840.82	80.7787	840.82	82.1039	840.82	78.2065	840.82	81.16	840.82	72.9591	840.82	80.5065	840.82	58.9994	840.82	78.6125	840.82	68.9001	840.82	73.4076	840.82	75.6991	840.82	61.8982	840.82	78.0866	840.82	72.496	840.82	77.2043
870.117	86.8229	870.117	86.5741	870.117	86.7759	870.117	86.0834	870.117	86.5216	870.117	85.4383	870.117	86.2243	870.117	84.5838	870.117	85.816	870.117	83.2674	870.117	85.0708	870.117	81.2037	870.117	84.0695	870.117	78.5327	870.117	83.2705	870.117	77.9393	870.117	82.9661	870.117	80.0299	870.117	83.1596	870.117	81.3494	870.117	84.0391	870.117	81.2508	870.117	84.5776	870.117	79.8298	870.117	84.0658	870.117	77.1844	870.117	82.9882	870.117	72.6937	870.117	80.8511	870.117	72.0003	870.117	77.0265	870.117	76.0039	870.117	75.9746	870.117	76.5615	870.117	77.1585	870.117	76.7794
900.879	85.179	900.879	85.5044	900.879	85.2074	900.879	85.8878	900.879	85.0845	900.879	85.7697	900.879	84.5014	900.879	85.0562	900.879	83.9442	900.879	84.143	900.879	83.363	900.879	83.106	900.879	82.1347	900.879	80.6167	900.879	80.0323	900.879	76.5264	900.879	78.1592	900.879	77.3162	900.879	78.8431	900.879	78.817	900.879	80.7891	900.879	79.5614	900.879	82.1287	900.879	78.593	900.879	81.7003	900.879	73.6731	900.879	79.7251	900.879	66.5818	900.879	77.3491	900.879	72.1921	900.879	70.8278	900.879	76.2645	900.879	70.7369	900.879	78.2615	900.879	78.3778	900.879	79.4393
933.105	86.8489	933.105	86.9482	933.105	86.697	933.105	86.3898	933.105	86.7414	933.105	85.339	933.105	86.3628	933.105	84.5353	933.105	85.5385	933.105	84.05	933.105	85.0004	933.105	83.1244	933.105	84.1568	933.105	81.4763	933.105	82.0935	933.105	79.6451	933.105	79.6204	933.105	78.7974	933.105	77.621	933.105	79.2194	933.105	77.5971	933.105	78.7092	933.105	78.4691	933.105	76.2803	933.105	77.8713	933.105	72.2256	933.105	77.7491	933.105	61.8066	933.105	76.9016	933.105	66.999	933.105	74.9093	933.105	74.2697	933.105	75.88	933.105	77.6043	933.105	77.2199	933.105	78.3973
965.332	87.2116	965.332	87.1678	965.332	87.5375	965.332	87.4952	965.332	87.4248	965.332	87.2364	965.332	86.6173	965.332	86.2108	965.332	85.4001	965.332	85.3089	965.332	84.5249	965.332	84.6675	965.332	83.8584	965.332	82.7849	965.332	81.9494	965.332	78.604	965.332	77.4434	965.332	78.9557	965.332	72.7393	965.332	80.5063	965.332	75.2078	965.332	80.1917	965.332	78.5025	965.332	79.5279	965.332	80.163	965.332	75.8405	965.332	79.1644	965.332	69.2437	965.332	76.085	965.332	65.1159	965.332	71.9697	965.332	69.8019	965.332	67.2292	965.332	75.5961	965.332	73.6122	965.332	76.4807
1,000.49	86.5673	1,000.49	85.7391	1,000.49	86.7551	1,000.49	84.3947	1,000.49	86.6035	1,000.49	83.2084	1,000.49	86.2947	1,000.49	83.0263	1,000.49	85.3756	1,000.49	82.7225	1,000.49	83.9642	1,000.49	81.497	1,000.49	83.1189	1,000.49	80.1887	1,000.49	82.9723	1,000.49	78.0726	1,000.49	82.1449	1,000.49	75.2599	1,000.49	80.2141	1,000.49	78.3403	1,000.49	78.8036	1,000.49	79.521	1,000.49	79.5733	1,000.49	80.3646	1,000.49	80.8574	1,000.49	80.4929	1,000.49	80.6602	1,000.49	76.6769	1,000.49	77.3007	1,000.49	70.4766	1,000.49	73.3994	1,000.49	67.212	1,000.49	75.4823	1,000.49	75.2172	1,000.49	77.0179	1,000.49	77.9134
1,035.64	87.6932	1,035.64	86.8125	1,035.64	88.0667	1,035.64	86.41	1,035.64	87.3911	1,035.64	86.026	1,035.64	86.4234	1,035.64	84.5589	1,035.64	86.0584	1,035.64	82.9303	1,035.64	85.5633	1,035.64	82.5168	1,035.64	84.3485	1,035.64	82.0733	1,035.64	83.0622	1,035.64	80.6547	1,035.64	81.309	1,035.64	76.8279	1,035.64	78.1349	1,035.64	77.5536	1,035.64	75.8532	1,035.64	79.8023	1,035.64	77.7052	1,035.64	79.1387	1,035.64	79.4031	1,035.64	78.0953	1,035.64	79.0437	1,035.64	74.6104	1,035.64	75.9421	1,035.64	71.1877	1,035.64	64.3081	1,035.64	74.1779	1,035.64	70.1676	1,035.64	77.2771	1,035.64	75.1142	1,035.64	77.4756
1,072.27	86.3139	1,072.27	85.8932	1,072.27	85.7867	1,072.27	84.6989	1,072.27	85.2763	1,072.27	83.7588	1,072.27	84.7805	1,072.27	83.2635	1,072.27	83.8889	1,072.27	83.2996	1,072.27	83.208	1,072.27	83.4304	1,072.27	82.5236	1,072.27	83.1751	1,072.27	80.9216	1,072.27	82.0617	1,072.27	78.7762	1,072.27	78.6368	1,072.27	76.6618	1,072.27	77.8929	1,072.27	74.8206	1,072.27	79.8056	1,072.27	74.8543	1,072.27	79.3815	1,072.27	77.4543	1,072.27	76.9969	1,072.27	78.1374	1,072.27	71.5319	1,072.27	76.4379	1,072.27	70.17	1,072.27	73.4913	1,072.27	72.3161	1,072.27	71.9424	1,072.27	76.3279	1,072.27	76.3858	1,072.27	78.3405
1,108.89	87.1302	1,108.89	86.8854	1,108.89	87.0493	1,108.89	86.3492	1,108.89	86.3875	1,108.89	85.4352	1,108.89	85.3491	1,108.89	83.9846	1,108.89	84.0839	1,108.89	82.0123	1,108.89	82.4914	1,108.89	80.8294	1,108.89	80.5593	1,108.89	79.8054	1,108.89	78.1442	1,108.89	77.8848	1,108.89	75.8556	1,108.89	74.0315	1,108.89	73.1212	1,108.89	68.7937	1,108.89	69.3221	1,108.89	71.8398	1,108.89	68.8535	1,108.89	72.9078	1,108.89	71.6531	1,108.89	74.3174	1,108.89	74.83	1,108.89	72.7542	1,108.89	73.1233	1,108.89	67.3993	1,108.89	62.839	1,108.89	72.0544	1,108.89	68.8398	1,108.89	75.9532	1,108.89	73.3689	1,108.89	77.1562
1,148.44	85.8651	1,148.44	85.7125	1,148.44	85.2466	1,148.44	85.355	1,148.44	84.6787	1,148.44	85.0932	1,148.44	84.1677	1,148.44	83.7404	1,148.44	83.1409	1,148.44	81.188	1,148.44	82.2574	1,148.44	79.8764	1,148.44	81.4466	1,148.44	78.8226	1,148.44	80.4213	1,148.44	77.3117	1,148.44	78.7345	1,148.44	76.8006	1,148.44	77.0805	1,148.44	75.6159	1,148.44	73.9355	1,148.44	76.7566	1,148.44	65.7301	1,148.44	78.3262	1,148.44	72.0968	1,148.44	76.6406	1,148.44	74.4076	1,148.44	71.1269	1,148.44	74.5716	1,148.44	69.5981	1,148.44	68.6366	1,148.44	74.8673	1,148.44	58.2376	1,148.44	76.7393	1,148.44	71.9096	1,148.44	76.77
1,189.45	85.4917	1,189.45	85.6106	1,189.45	85.8127	1,189.45	85.154	1,189.45	85.9041	1,189.45	84.2472	1,189.45	85.2994	1,189.45	83.7537	1,189.45	84.0407	1,189.45	82.1958	1,189.45	83.0193	1,189.45	79.4973	1,189.45	82.9487	1,189.45	77.4163	1,189.45	82.1153	1,189.45	75.9824	1,189.45	80.8624	1,189.45	73.6705	1,189.45	79.4334	1,189.45	73.3525	1,189.45	77.9961	1,189.45	75.5707	1,189.45	75.39	1,189.45	77.7658	1,189.45	73.8204	1,189.45	77.8363	1,189.45	75.4419	1,189.45	74.757	1,189.45	76.6765	1,189.45	68.4756	1,189.45	74.9567	1,189.45	71.481	1,189.45	69.9402	1,189.45	69.8854	1,189.45	62.5189	1,189.45	66.6148
1,230.47	85.003	1,230.47	84.443	1,230.47	85.2372	1,230.47	83.2559	1,230.47	85.3345	1,230.47	81.7804	1,230.47	84.7835	1,230.47	80.5686	1,230.47	82.94	1,230.47	79.037	1,230.47	80.871	1,230.47	78.1399	1,230.47	80.0302	1,230.47	77.8636	1,230.47	79.8224	1,230.47	77.2583	1,230.47	79.4141	1,230.47	75.9852	1,230.47	78.1827	1,230.47	73.511	1,230.47	77.0169	1,230.47	71.8456	1,230.47	74.4864	1,230.47	73.3231	1,230.47	71.8808	1,230.47	72.1893	1,230.47	70.8828	1,230.47	69.2062	1,230.47	71.8567	1,230.47	45.1505	1,230.47	69.7574	1,230.47	72.9507	1,230.47	69.6137	1,230.47	75.1371	1,230.47	71.167	1,230.47	72.5584
1,274.41	85.9807	1,274.41	85.4436	1,274.41	86.0158	1,274.41	84.5761	1,274.41	85.5663	1,274.41	83.3855	1,274.41	85.4342	1,274.41	81.8099	1,274.41	84.9482	1,274.41	80.0856	1,274.41	83.389	1,274.41	78.2677	1,274.41	82.0703	1,274.41	77.2464	1,274.41	80.638	1,274.41	76.4672	1,274.41	79.4616	1,274.41	71.7746	1,274.41	77.2789	1,274.41	69.9712	1,274.41	74.9703	1,274.41	72.1683	1,274.41	71.5108	1,274.41	74.0943	1,274.41	72.1717	1,274.41	75.9494	1,274.41	73.3859	1,274.41	74.2207	1,274.41	72.8421	1,274.41	68.079	1,274.41	71.6299	1,274.41	67.6044	1,274.41	69.4642	1,274.41	72.1759	1,274.41	67.7406	1,274.41	70.9629
1,319.82	86.8889	1,319.82	86.4841	1,319.82	87.133	1,319.82	86.1014	1,319.82	86.357	1,319.82	84.5397	1,319.82	85.7317	1,319.82	83.2117	1,319.82	85.1553	1,319.82	81.9345	1,319.82	83.4668	1,319.82	79.3987	1,319.82	81.7378	1,319.82	77.7439	1,319.82	79.7904	1,319.82	75.8258	1,319.82	78.9274	1,319.82	73.7995	1,319.82	77.7572	1,319.82	70.783	1,319.82	75.1267	1,319.82	69.3692	1,319.82	71.5283	1,319.82	66.3868	1,319.82	73.0401	1,319.82	72.2043	1,319.82	73.5042	1,319.82	68.9083	1,319.82	71.9042	1,319.82	63.0184	1,319.82	68.7819	1,319.82	66.8099	1,319.82	67.8598	1,319.82	73.2628	1,319.82	73.3526	1,319.82	74.0575
1,366.7	87.4074	1,366.7	86.9281	1,366.7	87.0895	1,366.7	86.2898	1,366.7	86.7258	1,366.7	85.8405	1,366.7	86.3799	1,366.7	84.5256	1,366.7	85.2504	1,366.7	82.7163	1,366.7	83.7215	1,366.7	80.1074	1,366.7	81.8342	1,366.7	78.0633	1,366.7	80.1373	1,366.7	77.4964	1,366.7	79.9613	1,366.7	75.6447	1,366.7	79.4416	1,366.7	73.3077	1,366.7	76.7804	1,366.7	71.1403	1,366.7	73.5693	1,366.7	68.9697	1,366.7	72.0911	1,366.7	71.6611	1,366.7	73.089	1,366.7	73.0056	1,366.7	73.2165	1,366.7	70.0473	1,366.7	70.858	1,366.7	69.524	1,366.7	66.882	1,366.7	75.0368	1,366.7	72.5867	1,366.7	74.4174
1,413.57	87.6341	1,413.57	87.257	1,413.57	87.6278	1,413.57	86.5101	1,413.57	87.1146	1,413.57	85.6758	1,413.57	86.0942	1,413.57	84.5519	1,413.57	85.1765	1,413.57	82.568	1,413.57	83.8768	1,413.57	80.1345	1,413.57	82.5169	1,413.57	78.3856	1,413.57	80.3462	1,413.57	78.8356	1,413.57	78.2443	1,413.57	79.3166	1,413.57	76.7053	1,413.57	76.591	1,413.57	75.2646	1,413.57	73.1216	1,413.57	72.9831	1,413.57	70.9949	1,413.57	72.2671	1,413.57	73.2502	1,413.57	74.5285	1,413.57	70.5961	1,413.57	74.2634	1,413.57	69.827	1,413.57	70.7737	1,413.57	70.0497	1,413.57	67.4861	1,413.57	74.1319	1,413.57	73.2145	1,413.57	76.0309
1,463.38	87.3786	1,463.38	87.1677	1,463.38	87.1544	1,463.38	86.5615	1,463.38	86.5502	1,463.38	85.4752	1,463.38	85.7534	1,463.38	84.3918	1,463.38	84.8412	1,463.38	83.0484	1,463.38	83.2221	1,463.38	81.6184	1,463.38	80.9051	1,463.38	80.225	1,463.38	78.781	1,463.38	79.0568	1,463.38	77.8977	1,463.38	76.4104	1,463.38	75.9662	1,463.38	73.5925	1,463.38	74.396	1,463.38	72.7158	1,463.38	71.5489	1,463.38	72.7583	1,463.38	68.2801	1,463.38	71.5569	1,463.38	71.0735	1,463.38	71.6505	1,463.38	73.3501	1,463.38	65.831	1,463.38	71.1232	1,463.38	66.9839	1,463.38	57.3394	1,463.38	74.3193	1,463.38	69.5423	1,463.38	73.3786
1,516.11	86.7473	1,516.11	86.6669	1,516.11	86.6457	1,516.11	86.1342	1,516.11	86.3454	1,516.11	85.1694	1,516.11	85.2952	1,516.11	83.8468	1,516.11	83.9663	1,516.11	81.9825	1,516.11	82.7667	1,516.11	79.919	1,516.11	81.1952	1,516.11	78.8706	1,516.11	78.5745	1,516.11	77.8215	1,516.11	74.8261	1,516.11	75.8696	1,516.11	73.4003	1,516.11	73.0781	1,516.11	74.3176	1,516.11	74.3842	1,516.11	74.225	1,516.11	73.8867	1,516.11	70.9402	1,516.11	74.2455	1,516.11	65.5504	1,516.11	71.8902	1,516.11	70.9455	1,516.11	67.1786	1,516.11	69.9378	1,516.11	68.7975	1,516.11	63.233	1,516.11	72.124	1,516.11	70.0427	1,516.11	73.65
1,568.85	86.4182	1,568.85	85.9975	1,568.85	86.1904	1,568.85	85.3655	1,568.85	85.6054	1,568.85	84.0484	1,568.85	84.7568	1,568.85	82.6041	1,568.85	83.5633	1,568.85	80.5253	1,568.85	81.9778	1,568.85	79.1317	1,568.85	80.6563	1,568.85	77.1946	1,568.85	78.8907	1,568.85	77.0788	1,568.85	76.6219	1,568.85	75.7365	1,568.85	74.9023	1,568.85	72.6122	1,568.85	74.5059	1,568.85	71.9868	1,568.85	73.043	1,568.85	71.3413	1,568.85	71.1926	1,568.85	70.3691	1,568.85	68.58	1,568.85	73.2431	1,568.85	70.0576	1,568.85	68.9078	1,568.85	70.9253	1,568.85	69.5104	1,568.85	68.6862	1,568.85	70.1949	1,568.85	69.2239	1,568.85	69.4378
1,624.51	85.836	1,624.51	85.811	1,624.51	86.1326	1,624.51	84.4638	1,624.51	85.4636	1,624.51	82.4511	1,624.51	84.4579	1,624.51	81.0674	1,624.51	83.7128	1,624.51	79.2634	1,624.51	82.1654	1,624.51	78.398	1,624.51	80.07	1,624.51	75.8861	1,624.51	78.7721	1,624.51	74.6435	1,624.51	76.8433	1,624.51	74.7471	1,624.51	75.6641	1,624.51	71.6638	1,624.51	74.8945	1,624.51	71.3654	1,624.51	72.2518	1,624.51	68.1861	1,624.51	70.5598	1,624.51	65.1109	1,624.51	70.3856	1,624.51	66.5597	1,624.51	69.6129	1,624.51	65.2635	1,624.51	67.0444	1,624.51	63.9619	1,624.51	65.4099	1,624.51	68.4105	1,624.51	64.9589	1,624.51	70.8453
1,681.64	86.9628	1,681.64	86.4354	1,681.64	87.1754	1,681.64	85.3982	1,681.64	87.3712	1,681.64	83.8895	1,681.64	86.0722	1,681.64	81.6481	1,681.64	84.691	1,681.64	80.4368	1,681.64	82.8463	1,681.64	78.0495	1,681.64	80.7428	1,681.64	74.3088	1,681.64	80.1249	1,681.64	73.5404	1,681.64	78.3372	1,681.64	69.4097	1,681.64	78.2488	1,681.64	68.6832	1,681.64	74.2023	1,681.64	68.7041	1,681.64	68.9688	1,681.64	68.9275	1,681.64	70.246	1,681.64	69.4327	1,681.64	67.4011	1,681.64	66.1244	1,681.64	67.9635	1,681.64	58.1482	1,681.64	64.3422	1,681.64	58.0121	1,681.64	66.5466	1,681.64	66.5994	1,681.64	67.2932	1,681.64	69.4392
1,741.7	88.6473	1,741.7	87.7984	1,741.7	88.3547	1,741.7	86.4072	1,741.7	87.4531	1,741.7	85.115	1,741.7	86.2618	1,741.7	84.0017	1,741.7	85.4205	1,741.7	79.7469	1,741.7	82.9433	1,741.7	78.2315	1,741.7	80.3966	1,741.7	76.6973	1,741.7	77.4149	1,741.7	75.221	1,741.7	76.9439	1,741.7	75.0287	1,741.7	77.013	1,741.7	69.7234	1,741.7	76.9848	1,741.7	66.5894	1,741.7	70.5435	1,741.7	64.547	1,741.7	67.4146	1,741.7	71.6321	1,741.7	71.3172	1,741.7	70.0021	1,741.7	71.4745	1,741.7	68.8599	1,741.7	72.5863	1,741.7	53.6709	1,741.7	68.6078	1,741.7	74.5794	1,741.7	70.0648	1,741.7	73.4174
1,803.22	87.5261	1,803.22	87.7455	1,803.22	87.9469	1,803.22	86.9471	1,803.22	86.9827	1,803.22	85.7109	1,803.22	86.4854	1,803.22	83.5418	1,803.22	84.7884	1,803.22	81.9755	1,803.22	82.9798	1,803.22	80.4781	1,803.22	81.4199	1,803.22	77.7825	1,803.22	78.9982	1,803.22	75.5872	1,803.22	77.5218	1,803.22	74.9879	1,803.22	75.2734	1,803.22	73.2617	1,803.22	72.6699	1,803.22	72.6114	1,803.22	73.443	1,803.22	71.3319	1,803.22	65.8846	1,803.22	63.6504	1,803.22	68.6001	1,803.22	68.906	1,803.22	67.6182	1,803.22	68.3552	1,803.22	67.15	1,803.22	69.6945	1,803.22	65.7455	1,803.22	68.9716	1,803.22	69.4231	1,803.22	70.0483
1,866.21	87.4039	1,866.21	87.3008	1,866.21	87.2413	1,866.21	86.2945	1,866.21	86.2192	1,866.21	84.2041	1,866.21	85.8003	1,866.21	82.3784	1,866.21	83.7906	1,866.21	80.7657	1,866.21	82.0612	1,866.21	78.8416	1,866.21	79.9463	1,866.21	77.2782	1,866.21	77.405	1,866.21	74.2464	1,866.21	74.9368	1,866.21	73.375	1,866.21	72.954	1,866.21	71.6463	1,866.21	74.8153	1,866.21	68.8487	1,866.21	69.7043	1,866.21	70.3564	1,866.21	69.965	1,866.21	69.1502	1,866.21	70.579	1,866.21	70.4789	1,866.21	66.9491	1,866.21	72.049	1,866.21	70.9551	1,866.21	66.7054	1,866.21	68.7028	1,866.21	68.1111	1,866.21	65.6049	1,866.21	68.6385
1,932.13	86.1299	1,932.13	85.536	1,932.13	85.9032	1,932.13	84.7341	1,932.13	85.2998	1,932.13	83.7493	1,932.13	84.6284	1,932.13	82.2122	1,932.13	83.2163	1,932.13	80.3402	1,932.13	81.4207	1,932.13	78.2344	1,932.13	79.503	1,932.13	76.5118	1,932.13	78.1406	1,932.13	72.7189	1,932.13	75.0188	1,932.13	72.2919	1,932.13	71.5843	1,932.13	72.672	1,932.13	71.1648	1,932.13	70.9301	1,932.13	70.7916	1,932.13	70.0956	1,932.13	66.7634	1,932.13	66.4662	1,932.13	68.3833	1,932.13	65.3069	1,932.13	65.9554	1,932.13	67.1041	1,932.13	67.0172	1,932.13	65.8771	1,932.13	65.4682	1,932.13	70.317	1,932.13	66.097	1,932.13	70.7132
1,999.51	85.7419	1,999.51	85.2368	1,999.51	85.8119	1,999.51	84.2937	1,999.51	85.4986	1,999.51	82.5898	1,999.51	84.6114	1,999.51	80.725	1,999.51	83.202	1,999.51	78.6072	1,999.51	81.5323	1,999.51	76.9076	1,999.51	78.9894	1,999.51	75.13	1,999.51	77.9377	1,999.51	72.2681	1,999.51	75.4071	1,999.51	71.5515	1,999.51	72.5578	1,999.51	70.6688	1,999.51	71.8431	1,999.51	68.0511	1,999.51	70.0187	1,999.51	68.3946	1,999.51	66.5751	1,999.51	68.157	1,999.51	68.6966	1,999.51	65.6254	1,999.51	65.3467	1,999.51	65.9987	1,999.51	64.6331	1,999.51	65.6918	1,999.51	64.8321	1,999.51	68.97	1,999.51	63.4834	1,999.51	68.1052
2,069.82	86.3446	2,069.82	85.7835	2,069.82	86.421	2,069.82	84.3847	2,069.82	85.859	2,069.82	82.9449	2,069.82	84.7568	2,069.82	80.9431	2,069.82	83.309	2,069.82	78.5242	2,069.82	81.5228	2,069.82	76.1346	2,069.82	79.4164	2,069.82	75.1318	2,069.82	76.6714	2,069.82	72.7218	2,069.82	75.4707	2,069.82	70.205	2,069.82	72.6601	2,069.82	69.884	2,069.82	71.8371	2,069.82	66.3512	2,069.82	71.2707	2,069.82	67.2896	2,069.82	68.3503	2,069.82	65.1497	2,069.82	68.2466	2,069.82	62.6936	2,069.82	65.4716	2,069.82	60.7068	2,069.82	67.9628	2,069.82	61.6917	2,069.82	65.4785	2,069.82	64.1103	2,069.82	63.7327	2,069.82	66.1311
2,143.07	87.0829	2,143.07	86.5619	2,143.07	86.8166	2,143.07	85.4372	2,143.07	86.0216	2,143.07	83.872	2,143.07	84.6513	2,143.07	82.0914	2,143.07	82.8603	2,143.07	79.6479	2,143.07	81.0866	2,143.07	76.9283	2,143.07	78.7273	2,143.07	75.2977	2,143.07	76.469	2,143.07	73.3547	2,143.07	74.9243	2,143.07	70.33	2,143.07	71.8524	2,143.07	70.7353	2,143.07	70.8964	2,143.07	67.5163	2,143.07	70.6688	2,143.07	68.2771	2,143.07	66.3826	2,143.07	66.0401	2,143.07	67.8959	2,143.07	61.4702	2,143.07	65.0767	2,143.07	66.5225	2,143.07	65.2354	2,143.07	62.0989	2,143.07	65.2487	2,143.07	64.553	2,143.07	63.0428	2,143.07	68.1056
2,219.24	86.6686	2,219.24	86.4904	2,219.24	86.4143	2,219.24	85.5497	2,219.24	85.4858	2,219.24	83.9341	2,219.24	83.8523	2,219.24	82.1523	2,219.24	81.8842	2,219.24	80.4887	2,219.24	79.9031	2,219.24	78.5452	2,219.24	77.4933	2,219.24	76.1589	2,219.24	75.1052	2,219.24	74.9426	2,219.24	73.6719	2,219.24	71.9097	2,219.24	71.2926	2,219.24	70.8381	2,219.24	69.6193	2,219.24	68.2946	2,219.24	69.1217	2,219.24	67.7155	2,219.24	67.1151	2,219.24	69.1371	2,219.24	66.7626	2,219.24	65.0125	2,219.24	63.2786	2,219.24	67.4814	2,219.24	64.5827	2,219.24	64.6661	2,219.24	65.0155	2,219.24	64.9495	2,219.24	62.0606	2,219.24	66.2247
2,296.88	85.6431	2,296.88	85.4764	2,296.88	85.399	2,296.88	84.4864	2,296.88	84.489	2,296.88	83.2158	2,296.88	83.0054	2,296.88	81.4309	2,296.88	81.0479	2,296.88	79.6189	2,296.88	79.1067	2,296.88	78.0885	2,296.88	77.5367	2,296.88	75.9133	2,296.88	74.2883	2,296.88	75.117	2,296.88	73.3711	2,296.88	72.1935	2,296.88	72.1689	2,296.88	70.6899	2,296.88	67.8238	2,296.88	70.1856	2,296.88	68.6347	2,296.88	69.2636	2,296.88	65.7555	2,296.88	67.9312	2,296.88	65.8765	2,296.88	65.0707	2,296.88	63.5647	2,296.88	66.7646	2,296.88	63.9136	2,296.88	64.4796	2,296.88	65.2702	2,296.88	66.1653	2,296.88	57.4171	2,296.88	67.5318
2,378.91	85.4016	2,378.91	84.8037	2,378.91	85.3779	2,378.91	83.7981	2,378.91	84.6413	2,378.91	82.2013	2,378.91	83.6137	2,378.91	80.3008	2,378.91	81.9967	2,378.91	78.7966	2,378.91	80.1763	2,378.91	76.7519	2,378.91	78.1718	2,378.91	74.1837	2,378.91	76.1509	2,378.91	73.4435	2,378.91	74.2266	2,378.91	70.4762	2,378.91	72.6292	2,378.91	70.1517	2,378.91	69.2326	2,378.91	68.2009	2,378.91	69.6364	2,378.91	68.1151	2,378.91	67.1552	2,378.91	67.9344	2,378.91	67.3097	2,378.91	64.3185	2,378.91	65.8351	2,378.91	68.383	2,378.91	61.6113	2,378.91	62.7137	2,378.91	67.167	2,378.91	65.896	2,378.91	60.3507	2,378.91	66.2632
2,462.4	86.8314	2,462.4	86.2562	2,462.4	86.7563	2,462.4	85.3466	2,462.4	86.2686	2,462.4	83.9217	2,462.4	85.1565	2,462.4	81.7561	2,462.4	83.66	2,462.4	79.6292	2,462.4	81.6622	2,462.4	77.1787	2,462.4	79.5851	2,462.4	74.4436	2,462.4	77.8111	2,462.4	72.2954	2,462.4	75.4008	2,462.4	70.2627	2,462.4	73.8138	2,462.4	68.2154	2,462.4	71.7281	2,462.4	67.3876	2,462.4	69.9273	2,462.4	65.7774	2,462.4	68.5834	2,462.4	67.2283	2,462.4	68.4576	2,462.4	60.4621	2,462.4	67.5339	2,462.4	67.9298	2,462.4	65.0962	2,462.4	61.6161	2,462.4	67.9264	2,462.4	63.6825	2,462.4	61.2041	2,462.4	64.1662
2,548.83	87.8313	2,548.83	87.4125	2,548.83	87.5199	2,548.83	86.4957	2,548.83	86.7891	2,548.83	85.1473	2,548.83	85.5027	2,548.83	83.2006	2,548.83	84.0396	2,548.83	80.8613	2,548.83	82.0231	2,548.83	78.624	2,548.83	79.7112	2,548.83	76.1005	2,548.83	77.7782	2,548.83	73.7703	2,548.83	74.6095	2,548.83	72.3016	2,548.83	73.6517	2,548.83	69.5446	2,548.83	71.2195	2,548.83	69.1928	2,548.83	70.1533	2,548.83	65.3555	2,548.83	67.753	2,548.83	67.724	2,548.83	67.795	2,548.83	62.4074	2,548.83	67.4147	2,548.83	68.145	2,548.83	65.0953	2,548.83	63.6293	2,548.83	68.0983	2,548.83	62.2718	2,548.83	59.2522	2,548.83	65.9535
2,639.65	87.0091	2,639.65	86.6069	2,639.65	86.7816	2,639.65	85.9953	2,639.65	85.826	2,639.65	84.5999	2,639.65	84.6832	2,639.65	83.1425	2,639.65	82.8943	2,639.65	80.9363	2,639.65	81.0899	2,639.65	78.5518	2,639.65	78.8227	2,639.65	76.3428	2,639.65	76.4998	2,639.65	74.7988	2,639.65	73.9391	2,639.65	72.7655	2,639.65	72.8526	2,639.65	70.2481	2,639.65	70.2064	2,639.65	70.489	2,639.65	67.6769	2,639.65	66.3652	2,639.65	66.7194	2,639.65	68.2914	2,639.65	65.9663	2,639.65	62.6244	2,639.65	66.1899	2,639.65	67.9461	2,639.65	62.5844	2,639.65	64.578	2,639.65	67.7776	2,639.65	58.6144	2,639.65	56.1591	2,639.65	63.9323
2,731.93	85.876	2,731.93	85.636	2,731.93	85.6811	2,731.93	84.5774	2,731.93	85.0427	2,731.93	83.3392	2,731.93	83.6671	2,731.93	81.6775	2,731.93	82.3328	2,731.93	79.7605	2,731.93	80.3502	2,731.93	77.6326	2,731.93	77.9475	2,731.93	76.0479	2,731.93	75.9923	2,731.93	73.2523	2,731.93	73.679	2,731.93	71.6159	2,731.93	70.9299	2,731.93	69.2722	2,731.93	69.3998	2,731.93	69.0046	2,731.93	67.9754	2,731.93	66.8349	2,731.93	66.4073	2,731.93	67.6326	2,731.93	64.8053	2,731.93	64.0568	2,731.93	65.6359	2,731.93	68.0743	2,731.93	61.4336	2,731.93	64.0883	2,731.93	67.0438	2,731.93	61.2317	2,731.93	55.5265	2,731.93	63.9069
2,828.61	85.9048	2,828.61	85.5608	2,828.61	85.6134	2,828.61	84.3897	2,828.61	85.1851	2,828.61	83.1921	2,828.61	84.161	2,828.61	81.0681	2,828.61	82.7046	2,828.61	78.7831	2,828.61	80.9969	2,828.61	76.4583	2,828.61	78.6937	2,828.61	74.5327	2,828.61	76.2851	2,828.61	71.5738	2,828.61	74.173	2,828.61	70.6756	2,828.61	70.6238	2,828.61	68.0532	2,828.61	70.2256	2,828.61	67.9539	2,828.61	68.2371	2,828.61	65.0943	2,828.61	67.6603	2,828.61	66.5366	2,828.61	64.1851	2,828.61	59.4231	2,828.61	65.1341	2,828.61	67.9902	2,828.61	61.4192	2,828.61	65.0695	2,828.61	67.4257	2,828.61	61.4187	2,828.61	60.2708	2,828.61	62.5527
2,928.22	86.7913	2,928.22	86.3653	2,928.22	86.6448	2,928.22	85.5383	2,928.22	86.06	2,928.22	83.9902	2,928.22	85.0384	2,928.22	82.0885	2,928.22	83.5301	2,928.22	79.6955	2,928.22	81.7969	2,928.22	76.8831	2,928.22	79.4146	2,928.22	74.4294	2,928.22	77.0897	2,928.22	72.2649	2,928.22	74.893	2,928.22	71.2714	2,928.22	71.8685	2,928.22	68.161	2,928.22	70.4387	2,928.22	67.1643	2,928.22	68.3548	2,928.22	65.3021	2,928.22	68.0003	2,928.22	65.9431	2,928.22	64.7816	2,928.22	61.176	2,928.22	65.397	2,928.22	67.4255	2,928.22	62.2676	2,928.22	65.4947	2,928.22	67.6978	2,928.22	59.154	2,928.22	59.5291	2,928.22	62.6936
3,030.76	86.9137	3,030.76	86.6856	3,030.76	87.0331	3,030.76	86.1765	3,030.76	86.4072	3,030.76	84.5488	3,030.76	85.5757	3,030.76	82.5304	3,030.76	83.9575	3,030.76	80.5736	3,030.76	81.9084	3,030.76	77.6478	3,030.76	79.5498	3,030.76	74.9561	3,030.76	77.3922	3,030.76	72.7856	3,030.76	74.4168	3,030.76	70.9209	3,030.76	71.9888	3,030.76	68.7757	3,030.76	70.1871	3,030.76	67.7998	3,030.76	67.8968	3,030.76	65.6872	3,030.76	67.1809	3,030.76	65.2954	3,030.76	64.6318	3,030.76	59.8436	3,030.76	65.0175	3,030.76	67.8944	3,030.76	63.2876	3,030.76	65.9926	3,030.76	68.3212	3,030.76	59.0113	3,030.76	60.455	3,030.76	61.9503
3,137.7	86.7262	3,137.7	86.6671	3,137.7	86.6465	3,137.7	85.8788	3,137.7	86.2207	3,137.7	84.7225	3,137.7	85.2155	3,137.7	82.9616	3,137.7	83.8893	3,137.7	80.9863	3,137.7	81.2386	3,137.7	77.905	3,137.7	79.0283	3,137.7	75.7925	3,137.7	76.0762	3,137.7	73.431	3,137.7	74.5037	3,137.7	71.5334	3,137.7	72.2022	3,137.7	68.8937	3,137.7	69.9977	3,137.7	68.2325	3,137.7	67.5284	3,137.7	65.8256	3,137.7	66.8926	3,137.7	66.3404	3,137.7	62.6886	3,137.7	61.7272	3,137.7	65.2232	3,137.7	66.5339	3,137.7	60.9359	3,137.7	65.5016	3,137.7	69.0899	3,137.7	56.4623	3,137.7	59.2028	3,137.7	63.3593
3,249.02	86.2337	3,249.02	85.7841	3,249.02	85.9447	3,249.02	85.0767	3,249.02	85.5486	3,249.02	84.0717	3,249.02	84.5608	3,249.02	82.3069	3,249.02	83.1988	3,249.02	79.8116	3,249.02	80.9648	3,249.02	77.7604	3,249.02	78.5923	3,249.02	75.6337	3,249.02	75.8127	3,249.02	73.5765	3,249.02	74.2328	3,249.02	71.0098	3,249.02	71.5356	3,249.02	69.3457	3,249.02	69.6467	3,249.02	68.3018	3,249.02	67.3874	3,249.02	66.8018	3,249.02	66.5121	3,249.02	64.0573	3,249.02	64.0119	3,249.02	61.7297	3,249.02	64.9349	3,249.02	66.2691	3,249.02	59.499	3,249.02	65.9467	3,249.02	68.7971	3,249.02	58.7279	3,249.02	60.7881	3,249.02	62.808
3,363.28	85.8008	3,363.28	85.2344	3,363.28	85.5769	3,363.28	84.3232	3,363.28	85.4527	3,363.28	82.9216	3,363.28	84.4685	3,363.28	81.0596	3,363.28	82.8595	3,363.28	78.3001	3,363.28	80.8714	3,363.28	76.2817	3,363.28	78.4059	3,363.28	74.2343	3,363.28	75.3856	3,363.28	71.859	3,363.28	72.9703	3,363.28	70.2231	3,363.28	70.7811	3,363.28	67.9545	3,363.28	69.8312	3,363.28	67.3988	3,363.28	67.6226	3,363.28	66.3666	3,363.28	66.4422	3,363.28	65.3499	3,363.28	63.8311	3,363.28	62.1685	3,363.28	64.6328	3,363.28	66.4025	3,363.28	59.5103	3,363.28	67.1561	3,363.28	67.0026	3,363.28	61.8128	3,363.28	62.0383	3,363.28	65.2337
3,481.93	85.7583	3,481.93	85.4747	3,481.93	85.8191	3,481.93	84.7895	3,481.93	85.2528	3,481.93	83.3305	3,481.93	84.2409	3,481.93	81.1472	3,481.93	82.3328	3,481.93	78.2281	3,481.93	80.2151	3,481.93	75.8879	3,481.93	77.5252	3,481.93	73.3111	3,481.93	75.0319	3,481.93	71.4031	3,481.93	72.6653	3,481.93	69.2306	3,481.93	70.2898	3,481.93	66.4891	3,481.93	68.2836	3,481.93	64.8679	3,481.93	67.0402	3,481.93	65.2069	3,481.93	65.0056	3,481.93	63.3442	3,481.93	63.7469	3,481.93	59.8782	3,481.93	62.2215	3,481.93	62.1898	3,481.93	58.9544	3,481.93	64.9624	3,481.93	66.045	3,481.93	58.8045	3,481.93	59.8463	3,481.93	63.6831
3,604.98	85.2439	3,604.98	85.2209	3,604.98	85.4304	3,604.98	84.6519	3,604.98	84.7903	3,604.98	83.2837	3,604.98	84.0182	3,604.98	81.2506	3,604.98	82.1683	3,604.98	79.2076	3,604.98	79.9087	3,604.98	76.4822	3,604.98	77.6515	3,604.98	74.1645	3,604.98	75.6344	3,604.98	72.2115	3,604.98	73.5612	3,604.98	69.4036	3,604.98	71.2543	3,604.98	67.9192	3,604.98	68.8281	3,604.98	65.9216	3,604.98	66.3978	3,604.98	64.14	3,604.98	65.826	3,604.98	62.7011	3,604.98	64.3952	3,604.98	62.1322	3,604.98	61.4202	3,604.98	63.2086	3,604.98	58.3689	3,604.98	63.5922	3,604.98	65.0135	3,604.98	58.6642	3,604.98	59.1051	3,604.98	65.9705
3,732.42	85.3729	3,732.42	85.176	3,732.42	85.6466	3,732.42	84.2202	3,732.42	85.1895	3,732.42	82.8035	3,732.42	84.1495	3,732.42	80.5369	3,732.42	82.6344	3,732.42	79.1661	3,732.42	80.4018	3,732.42	76.4069	3,732.42	78.6656	3,732.42	74.7228	3,732.42	76.4575	3,732.42	71.8608	3,732.42	74.0047	3,732.42	69.7719	3,732.42	72.0488	3,732.42	67.8811	3,732.42	70.246	3,732.42	64.5866	3,732.42	67.9077	3,732.42	65.4534	3,732.42	66.988	3,732.42	63.9628	3,732.42	64.8328	3,732.42	61.5077	3,732.42	61.9804	3,732.42	60.2552	3,732.42	60.5741	3,732.42	63.3631	3,732.42	63.8633	3,732.42	57.7116	3,732.42	57.6605	3,732.42	65.5614
3,864.26	85.2722	3,864.26	85.3345	3,864.26	85.0981	3,864.26	84.5123	3,864.26	84.7507	3,864.26	83.0712	3,864.26	83.3928	3,864.26	81.4728	3,864.26	81.8635	3,864.26	78.7433	3,864.26	79.4327	3,864.26	76.7818	3,864.26	77.9392	3,864.26	74.3364	3,864.26	76.1762	3,864.26	72.2406	3,864.26	72.64	3,864.26	70.2199	3,864.26	71.1817	3,864.26	67.5046	3,864.26	68.2048	3,864.26	65.2701	3,864.26	66.6284	3,864.26	64.5575	3,864.26	64.4702	3,864.26	65.0158	3,864.26	60.6856	3,864.26	60.1264	3,864.26	59.6399	3,864.26	64.6077	3,864.26	58.8855	3,864.26	62.7952	3,864.26	61.2043	3,864.26	55.2277	3,864.26	56.9831	3,864.26	64.0231
4,000.49	84.3563	4,000.49	84.3993	4,000.49	84.0339	4,000.49	83.5362	4,000.49	83.3363	4,000.49	82.203	4,000.49	82.4228	4,000.49	80.5416	4,000.49	80.605	4,000.49	77.6954	4,000.49	78.8157	4,000.49	75.8797	4,000.49	77.3011	4,000.49	73.4667	4,000.49	74.8962	4,000.49	71.0407	4,000.49	73.3932	4,000.49	68.568	4,000.49	71.2807	4,000.49	67.3981	4,000.49	68.4531	4,000.49	63.7931	4,000.49	66.1551	4,000.49	62.206	4,000.49	65.6966	4,000.49	62.2235	4,000.49	62.9958	4,000.49	58.9352	4,000.49	63.172	4,000.49	64.5217	4,000.49	57.5935	4,000.49	60.7891	4,000.49	60.5983	4,000.49	60.4633	4,000.49	57.6257	4,000.49	64.685
4,141.11	84.7645	4,141.11	83.9636	4,141.11	85.0936	4,141.11	83.3505	4,141.11	83.7744	4,141.11	81.8595	4,141.11	82.7915	4,141.11	79.1392	4,141.11	81.4812	4,141.11	78.3763	4,141.11	80.3862	4,141.11	75.9158	4,141.11	78.2944	4,141.11	73.7074	4,141.11	75.9895	4,141.11	70.8225	4,141.11	73.4791	4,141.11	67.9505	4,141.11	70.8948	4,141.11	66.1247	4,141.11	68.9868	4,141.11	64.2538	4,141.11	66.3641	4,141.11	63.2173	4,141.11	65.5497	4,141.11	62.1293	4,141.11	62.0489	4,141.11	57.7071	4,141.11	62.1251	4,141.11	60.3964	4,141.11	61.6773	4,141.11	59.6221	4,141.11	63.6591	4,141.11	58.9039	4,141.11	53.035	4,141.11	63.5037
4,287.6	85.0866	4,287.6	85.0856	4,287.6	84.65	4,287.6	83.7993	4,287.6	84.4247	4,287.6	82.1727	4,287.6	83.1517	4,287.6	81.0786	4,287.6	82.1552	4,287.6	78.7395	4,287.6	80.4858	4,287.6	76.2514	4,287.6	78.0223	4,287.6	73.8786	4,287.6	75.5299	4,287.6	70.5523	4,287.6	73.1033	4,287.6	67.1933	4,287.6	69.604	4,287.6	64.213	4,287.6	67.1431	4,287.6	63.2502	4,287.6	65.9527	4,287.6	62.7436	4,287.6	64.5146	4,287.6	62.9931	4,287.6	61.488	4,287.6	60.0233	4,287.6	59.9153	4,287.6	61.0649	4,287.6	57.1883	4,287.6	59.3008	4,287.6	59.4381	4,287.6	46.9495	4,287.6	56.7566	4,287.6	61.8017
4,438.48	85.3722	4,438.48	85.3515	4,438.48	85.2039	4,438.48	83.8145	4,438.48	84.3071	4,438.48	82.7947	4,438.48	83.4469	4,438.48	81.3606	4,438.48	81.3478	4,438.48	78.9054	4,438.48	79.5666	4,438.48	75.5968	4,438.48	78.2398	4,438.48	72.7643	4,438.48	75.7104	4,438.48	70.5562	4,438.48	72.9332	4,438.48	68.1088	4,438.48	70.4565	4,438.48	67.2092	4,438.48	66.2343	4,438.48	63.8654	4,438.48	65.4769	4,438.48	61.3563	4,438.48	62.9003	4,438.48	60.0619	4,438.48	65.3912	4,438.48	60.8072	4,438.48	61.3788	4,438.48	63.4047	4,438.48	57.8647	4,438.48	60.4314	4,438.48	57.9376	4,438.48	58.9156	4,438.48	59.9326	4,438.48	61.9713
4,595.21	85.4206	4,595.21	84.4113	4,595.21	85.4495	4,595.21	83.9738	4,595.21	83.9574	4,595.21	82.1649	4,595.21	82.4292	4,595.21	79.7874	4,595.21	81.1165	4,595.21	78.1034	4,595.21	79.4745	4,595.21	75.7951	4,595.21	77.1418	4,595.21	71.8495	4,595.21	74.7067	4,595.21	68.2271	4,595.21	70.6207	4,595.21	62.7572	4,595.21	69.0693	4,595.21	63.2446	4,595.21	65.5572	4,595.21	58.9526	4,595.21	64.4833	4,595.21	59.7654	4,595.21	63.7571	4,595.21	61.4345	4,595.21	60.2741	4,595.21	47.9685	4,595.21	57.1909	4,595.21	57.0326	4,595.21	58.7106	4,595.21	58.7377	4,595.21	61.4187	4,595.21	56.6152	4,595.21	58.8732	4,595.21	61.1195
4,756.35	85.3766	4,756.35	84.8257	4,756.35	85.1841	4,756.35	82.7745	4,756.35	84.5258	4,756.35	81.3771	4,756.35	82.9078	4,756.35	79.572	4,756.35	81.9457	4,756.35	76.8281	4,756.35	80.1992	4,756.35	74.3686	4,756.35	77.1767	4,756.35	71.6216	4,756.35	73.9999	4,756.35	68.0494	4,756.35	71.6734	4,756.35	66.0401	4,756.35	67.9634	4,756.35	62.187	4,756.35	65.1054	4,756.35	63.7316	4,756.35	63.1646	4,756.35	60.9751	4,756.35	57.8842	4,756.35	61.1783	4,756.35	61.0966	4,756.35	59.8128	4,756.35	59.5993	4,756.35	58.7907	4,756.35	56.6418	4,756.35	57.3818	4,756.35	60.1032	4,756.35	52.5184	4,756.35	55.2453	4,756.35	58.513
4,924.8	85.9459	4,924.8	85.1993	4,924.8	85.9791	4,924.8	84.2842	4,924.8	84.6105	4,924.8	82.6071	4,924.8	83.5754	4,924.8	81.0708	4,924.8	81.3683	4,924.8	78.3416	4,924.8	79.1142	4,924.8	73.7062	4,924.8	77.0478	4,924.8	69.0393	4,924.8	73.4534	4,924.8	66.153	4,924.8	69.3627	4,924.8	64.8161	4,924.8	67.668	4,924.8	64.0656	4,924.8	64.7485	4,924.8	60.9769	4,924.8	62.429	4,924.8	59.3592	4,924.8	60.8384	4,924.8	58.5209	4,924.8	60.8012	4,924.8	54.2641	4,924.8	59.6376	4,924.8	56.7184	4,924.8	52.1866	4,924.8	57.3057	4,924.8	45.6256	4,924.8	54.9659	4,924.8	57.5041	4,924.8	58.6671
5,097.66	85.4753	5,097.66	84.5983	5,097.66	85.1732	5,097.66	83.4815	5,097.66	84.0985	5,097.66	82.0304	5,097.66	82.5418	5,097.66	80.5169	5,097.66	81.2503	5,097.66	77.9775	5,097.66	79.4394	5,097.66	74.2814	5,097.66	76.5399	5,097.66	71.0068	5,097.66	73.1237	5,097.66	69.3863	5,097.66	69.6431	5,097.66	64.832	5,097.66	65.3918	5,097.66	64.0783	5,097.66	64.122	5,097.66	61.1349	5,097.66	62.0238	5,097.66	58.1005	5,097.66	60.3821	5,097.66	56.2258	5,097.66	58.2338	5,097.66	56.5253	5,097.66	58.0905	5,097.66	57.8263	5,097.66	56.6588	5,097.66	57.9276	5,097.66	57.9415	5,097.66	50.3461	5,097.66	58.6635	5,097.66	57.0702
5,277.83	85.1849	5,277.83	84.4867	5,277.83	85.1008	5,277.83	82.6012	5,277.83	84.0536	5,277.83	81.3832	5,277.83	82.5844	5,277.83	79.1157	5,277.83	81.2626	5,277.83	75.5242	5,277.83	78.9984	5,277.83	72.503	5,277.83	75.7033	5,277.83	69.2811	5,277.83	71.1572	5,277.83	66.5687	5,277.83	67.9771	5,277.83	64.5746	5,277.83	65.8974	5,277.83	57.722	5,277.83	64.1593	5,277.83	59.6405	5,277.83	62.6929	5,277.83	58.7167	5,277.83	60.3663	5,277.83	56.6196	5,277.83	57.3712	5,277.83	55.436	5,277.83	56.6042	5,277.83	55.8118	5,277.83	53.9086	5,277.83	56.0614	5,277.83	55.1394	5,277.83	50.1679	5,277.83	55.1625	5,277.83	52.8279
5,463.87	85.7066	5,463.87	84.7995	5,463.87	85.5129	5,463.87	83.594	5,463.87	84.2494	5,463.87	82.1396	5,463.87	82.9992	5,463.87	80.4975	5,463.87	81.377	5,463.87	77.1572	5,463.87	78.585	5,463.87	72.8981	5,463.87	75.0458	5,463.87	69.3203	5,463.87	71.0426	5,463.87	66.3355	5,463.87	68.5548	5,463.87	65.7295	5,463.87	67.1231	5,463.87	64.4431	5,463.87	63.7723	5,463.87	61.0129	5,463.87	62.0919	5,463.87	58.7907	5,463.87	61.5027	5,463.87	57.5219	5,463.87	59.8789	5,463.87	49.9201	5,463.87	60.2488	5,463.87	56.034	5,463.87	53.4394	5,463.87	56.4212	5,463.87	50.6525	5,463.87	53.5154	5,463.87	56.0407	5,463.87	56.0167
5,657.23	85.3494	5,657.23	84.3816	5,657.23	85.1486	5,657.23	82.9569	5,657.23	84.0806	5,657.23	81.6751	5,657.23	82.595	5,657.23	78.9385	5,657.23	81.4974	5,657.23	75.2303	5,657.23	78.8457	5,657.23	71.286	5,657.23	74.3792	5,657.23	69.083	5,657.23	71.7213	5,657.23	67.3417	5,657.23	70.1068	5,657.23	65.3687	5,657.23	67.4285	5,657.23	65.3387	5,657.23	65.4461	5,657.23	62.5279	5,657.23	63.5538	5,657.23	61.8756	5,657.23	61.3436	5,657.23	57.8868	5,657.23	61.4776	5,657.23	57.2377	5,657.23	58.6699	5,657.23	53.1733	5,657.23	56.0281	5,657.23	54.4539	5,657.23	56.4936	5,657.23	52.3426	5,657.23	54.2795	5,657.23	56.1757
5,856.45	85.255	5,856.45	84.3146	5,856.45	85.094	5,856.45	82.9537	5,856.45	83.6277	5,856.45	81.5824	5,856.45	82.531	5,856.45	79.5671	5,856.45	80.6554	5,856.45	75.7481	5,856.45	77.6068	5,856.45	72.6508	5,856.45	74.5698	5,856.45	69.0595	5,856.45	71.7024	5,856.45	67.4294	5,856.45	69.0918	5,856.45	64.6617	5,856.45	67.8215	5,856.45	61.893	5,856.45	65.9203	5,856.45	61.3789	5,856.45	63.0229	5,856.45	60.1125	5,856.45	61.4171	5,856.45	57.6519	5,856.45	59.325	5,856.45	52.7958	5,856.45	58.476	5,856.45	48.6379	5,856.45	51.8695	5,856.45	53.9163	5,856.45	53.01	5,856.45	50.8696	5,856.45	53.6221	5,856.45	56.1544
6,062.99	85.694	6,062.99	84.6259	6,062.99	85.4105	6,062.99	83.0319	6,062.99	84.3742	6,062.99	81.911	6,062.99	82.7866	6,062.99	79.0241	6,062.99	81.3802	6,062.99	75.0968	6,062.99	78.4271	6,062.99	71.7178	6,062.99	74.6376	6,062.99	69.0905	6,062.99	71.5426	6,062.99	69.368	6,062.99	70.614	6,062.99	66.6672	6,062.99	67.9641	6,062.99	65.6134	6,062.99	65.775	6,062.99	63.1034	6,062.99	63.4382	6,062.99	60.4002	6,062.99	61.4213	6,062.99	60.3325	6,062.99	61.5612	6,062.99	58.895	6,062.99	59.4089	6,062.99	54.9027	6,062.99	57.9791	6,062.99	52.6994	6,062.99	57.8684	6,062.99	53.6955	6,062.99	54.5372	6,062.99	55.7367
6,276.86	84.9844	6,276.86	84.034	6,276.86	85.0126	6,276.86	82.9327	6,276.86	83.6497	6,276.86	81.8248	6,276.86	82.7783	6,276.86	79.2297	6,276.86	80.7122	6,276.86	75.4515	6,276.86	77.2866	6,276.86	73.7505	6,276.86	74.7847	6,276.86	71.8185	6,276.86	72.6082	6,276.86	68.59	6,276.86	70.0457	6,276.86	66.4121	6,276.86	66.5637	6,276.86	62.3162	6,276.86	64.6175	6,276.86	62.4355	6,276.86	63.1629	6,276.86	59.9623	6,276.86	60.8754	6,276.86	53.3446	6,276.86	58.9444	6,276.86	53.7594	6,276.86	58.6002	6,276.86	52.8843	6,276.86	54.8415	6,276.86	48.1818	6,276.86	55.8689	6,276.86	50.5932	6,276.86	54.0677	6,276.86	55.3542
6,498.05	85.2846	6,498.05	84.5211	6,498.05	85.1021	6,498.05	83.1633	6,498.05	84.0281	6,498.05	81.3694	6,498.05	82.6898	6,498.05	78.1479	6,498.05	80.659	6,498.05	74.3992	6,498.05	76.9801	6,498.05	72.8019	6,498.05	73.9409	6,498.05	70.3198	6,498.05	71.4333	6,498.05	67.4541	6,498.05	69.0149	6,498.05	65.5769	6,498.05	66.827	6,498.05	62.4508	6,498.05	62.8452	6,498.05	60.3056	6,498.05	61.4037	6,498.05	59.6284	6,498.05	60.1576	6,498.05	59.13	6,498.05	59.4561	6,498.05	55.6305	6,498.05	58.7744	6,498.05	53.3985	6,498.05	57.6579	6,498.05	51.3179	6,498.05	56.5065	6,498.05	46.8949	6,498.05	52.3136	6,498.05	49.2786
6,726.56	85.9903	6,726.56	85.0806	6,726.56	85.933	6,726.56	83.6882	6,726.56	84.8041	6,726.56	81.9042	6,726.56	83.4554	6,726.56	78.6186	6,726.56	80.8436	6,726.56	75.8667	6,726.56	77.8585	6,726.56	72.8954	6,726.56	75.4878	6,726.56	70.0387	6,726.56	73.0543	6,726.56	66.1547	6,726.56	68.7206	6,726.56	63.2438	6,726.56	66.4022	6,726.56	61.9224	6,726.56	64.0012	6,726.56	58.9674	6,726.56	62.7082	6,726.56	57.3144	6,726.56	60.2007	6,726.56	55.2781	6,726.56	56.4376	6,726.56	56.4272	6,726.56	57.2502	6,726.56	54.9392	6,726.56	56.258	6,726.56	52.669	6,726.56	56.9366	6,726.56	48.5938	6,726.56	51.2558	6,726.56	50.4357
6,963.87	85.3812	6,963.87	84.6578	6,963.87	85.3748	6,963.87	83.1884	6,963.87	84.4574	6,963.87	80.8292	6,963.87	82.8014	6,963.87	77.8957	6,963.87	79.9833	6,963.87	74.2517	6,963.87	76.99	6,963.87	72.3684	6,963.87	74.3512	6,963.87	68.7729	6,963.87	71.0568	6,963.87	66.1359	6,963.87	67.5183	6,963.87	65.1959	6,963.87	66.4446	6,963.87	62.9091	6,963.87	63.2032	6,963.87	59.2355	6,963.87	61.4654	6,963.87	59.9196	6,963.87	59.7957	6,963.87	56.3246	6,963.87	57.9376	6,963.87	53.7045	6,963.87	56.1334	6,963.87	54.5406	6,963.87	58.0003	6,963.87	49.4554	6,963.87	56.1278	6,963.87	39.368	6,963.87	48.0816	6,963.87	48.8837
7,209.96	86.367	7,209.96	85.6519	7,209.96	86.2893	7,209.96	83.9202	7,209.96	85.2216	7,209.96	81.2962	7,209.96	83.214	7,209.96	78.082	7,209.96	80.0055	7,209.96	74.7744	7,209.96	77.3432	7,209.96	71.6933	7,209.96	74.7503	7,209.96	68.3399	7,209.96	71.3295	7,209.96	64.1925	7,209.96	66.9076	7,209.96	63.6457	7,209.96	66.0009	7,209.96	59.7831	7,209.96	62.5904	7,209.96	58.458	7,209.96	62.2899	7,209.96	56.5157	7,209.96	60.4384	7,209.96	55.2176	7,209.96	56.84	7,209.96	52.4525	7,209.96	56.5098	7,209.96	53.0112	7,209.96	57.7138	7,209.96	50.7352	7,209.96	57.1601	7,209.96	49.7743	7,209.96	51.5856	7,209.96	52.8102
7,464.84	86.2409	7,464.84	85.3702	7,464.84	86.2528	7,464.84	83.4559	7,464.84	85.2146	7,464.84	80.3817	7,464.84	83.2301	7,464.84	77.3804	7,464.84	80.174	7,464.84	73.9894	7,464.84	77.0455	7,464.84	70.2645	7,464.84	74.0633	7,464.84	68.2439	7,464.84	70.5329	7,464.84	65.8189	7,464.84	68.1088	7,464.84	63.941	7,464.84	66.1473	7,464.84	62.1525	7,464.84	64.6683	7,464.84	61.5624	7,464.84	61.6793	7,464.84	60.0051	7,464.84	59.9896	7,464.84	58.1251	7,464.84	59.4078	7,464.84	51.8826	7,464.84	57.7828	7,464.84	50.8669	7,464.84	59.339	7,464.84	54.0687	7,464.84	53.893	7,464.84	44.0111	7,464.84	50.9321	7,464.84	57.231
7,727.05	85.9448	7,727.05	85.2085	7,727.05	85.9886	7,727.05	83.1366	7,727.05	84.9999	7,727.05	80.3542	7,727.05	82.6791	7,727.05	77.0568	7,727.05	79.5715	7,727.05	73.8641	7,727.05	76.6821	7,727.05	70.8726	7,727.05	73.4743	7,727.05	66.6376	7,727.05	70.0744	7,727.05	64.9058	7,727.05	67.1016	7,727.05	62.0943	7,727.05	65.2436	7,727.05	60.9464	7,727.05	63.0102	7,727.05	57.3169	7,727.05	62.3157	7,727.05	58.5937	7,727.05	60.5183	7,727.05	55.3708	7,727.05	60.2705	7,727.05	52.2782	7,727.05	54.7621	7,727.05	54.6978	7,727.05	55.7359	7,727.05	55.399	7,727.05	55.7023	7,727.05	41.2056	7,727.05	53.6668	7,727.05	54.1549
7,999.51	86.3762	7,999.51	85.9243	7,999.51	86.4872	7,999.51	83.7273	7,999.51	85.5267	7,999.51	80.2061	7,999.51	82.9469	7,999.51	77.3385	7,999.51	79.8829	7,999.51	73.3888	7,999.51	77.2375	7,999.51	69.2994	7,999.51	73.4944	7,999.51	65.6834	7,999.51	70.724	7,999.51	64.8143	7,999.51	68.4067	7,999.51	61.921	7,999.51	66.7293	7,999.51	61.2636	7,999.51	63.1956	7,999.51	58.8675	7,999.51	61.2787	7,999.51	57.373	7,999.51	58.9873	7,999.51	55.4102	7,999.51	58.5436	7,999.51	56.9053	7,999.51	56.7776	7,999.51	53.1918	7,999.51	57.7764	7,999.51	53.8145	7,999.51	47.8767	7,999.51	39.1397	7,999.51	54.7483	7,999.51	51.614
8,282.23	86.1063	8,282.23	85.4557	8,282.23	86.2916	8,282.23	82.9059	8,282.23	85.1672	8,282.23	79.2878	8,282.23	82.4045	8,282.23	76.7604	8,282.23	79.3747	8,282.23	72.6668	8,282.23	76.7664	8,282.23	70.1637	8,282.23	73.9053	8,282.23	68.5994	8,282.23	71.6162	8,282.23	65.3063	8,282.23	68.822	8,282.23	64.5039	8,282.23	66.6774	8,282.23	61.4135	8,282.23	63.7536	8,282.23	59.1298	8,282.23	62.0441	8,282.23	58.0952	8,282.23	59.8978	8,282.23	54.3353	8,282.23	56.6577	8,282.23	57.3574	8,282.23	55.6679	8,282.23	55.832	8,282.23	57.2166	8,282.23	53.2492	8,282.23	55.3255	8,282.23	43.9989	8,282.23	48.7314	8,282.23	54.1615
8,573.73	86.2542	8,573.73	85.7922	8,573.73	86.4633	8,573.73	83.2987	8,573.73	85.6532	8,573.73	79.7135	8,573.73	82.6766	8,573.73	77.5599	8,573.73	80.1046	8,573.73	73.3581	8,573.73	77.0825	8,573.73	71.0819	8,573.73	74.0182	8,573.73	68.1658	8,573.73	71.3045	8,573.73	65.9531	8,573.73	69.6523	8,573.73	63.1518	8,573.73	66.6552	8,573.73	60.2614	8,573.73	63.6599	8,573.73	57.8605	8,573.73	62.0052	8,573.73	57.8971	8,573.73	58.7663	8,573.73	54.5576	8,573.73	56.0474	8,573.73	53.855	8,573.73	55.9803	8,573.73	52.5528	8,573.73	57.9111	8,573.73	52.7529	8,573.73	53.3146	8,573.73	45.7708	8,573.73	48.454	8,573.73	55.0219
8,876.95	85.9342	8,876.95	85.4347	8,876.95	85.9523	8,876.95	82.647	8,876.95	85.1862	8,876.95	79.6117	8,876.95	81.9622	8,876.95	76.3523	8,876.95	79.2358	8,876.95	72.6761	8,876.95	75.9612	8,876.95	70.5529	8,876.95	72.6454	8,876.95	66.972	8,876.95	70.0556	8,876.95	65.6024	8,876.95	66.213	8,876.95	63.0148	8,876.95	64.0727	8,876.95	60.2456	8,876.95	61.4107	8,876.95	56.3739	8,876.95	59.564	8,876.95	56.3303	8,876.95	54.1118	8,876.95	55.6665	8,876.95	54.1108	8,876.95	51.744	8,876.95	54.7249	8,876.95	55.8539	8,876.95	56.952	8,876.95	54.7112	8,876.95	53.2694	8,876.95	45.4391	8,876.95	41.4828	8,876.95	54.9622
9,188.96	86.0064	9,188.96	85.5872	9,188.96	86.2758	9,188.96	82.5488	9,188.96	85.0433	9,188.96	78.8837	9,188.96	81.7828	9,188.96	75.7765	9,188.96	78.7999	9,188.96	72.0661	9,188.96	75.8506	9,188.96	70.1152	9,188.96	72.7471	9,188.96	66.6747	9,188.96	70.5648	9,188.96	64.3711	9,188.96	66.2605	9,188.96	62.2452	9,188.96	64.0401	9,188.96	59.4776	9,188.96	61.0206	9,188.96	57.9421	9,188.96	59.3272	9,188.96	53.757	9,188.96	57.2514	9,188.96	54.2566	9,188.96	52.2993	9,188.96	55.0555	9,188.96	54.1896	9,188.96	53.3878	9,188.96	56.8246	9,188.96	53.5058	9,188.96	48.104	9,188.96	40.6211	9,188.96	52.3901	9,188.96	53.6175
9,514.16	85.9031	9,514.16	85.3787	9,514.16	86.2425	9,514.16	81.9788	9,514.16	84.8945	9,514.16	78.6632	9,514.16	81.4512	9,514.16	75.9251	9,514.16	78.55	9,514.16	72.6258	9,514.16	75.6022	9,514.16	70.9732	9,514.16	72.8184	9,514.16	68.1949	9,514.16	70.3174	9,514.16	65.1004	9,514.16	68.072	9,514.16	60.9987	9,514.16	64.1117	9,514.16	60.5672	9,514.16	62.1809	9,514.16	56.0672	9,514.16	60.4217	9,514.16	50.7213	9,514.16	57.2669	9,514.16	56.8101	9,514.16	55.5617	9,514.16	54.1698	9,514.16	55.0167	9,514.16	54.0684	9,514.16	55.2816	9,514.16	45.6797	9,514.16	47.3458	9,514.16	46.1123	9,514.16	53.2373	9,514.16	45.6662
9,849.61	86.07	9,849.61	85.5431	9,849.61	86.3831	9,849.61	82.1782	9,849.61	85.1137	9,849.61	78.8064	9,849.61	81.8503	9,849.61	76.1319	9,849.61	78.8328	9,849.61	73.7317	9,849.61	75.6994	9,849.61	71.1689	9,849.61	73.3594	9,849.61	67.3332	9,849.61	69.8188	9,849.61	64.637	9,849.61	66.5875	9,849.61	62.3337	9,849.61	64.0702	9,849.61	60.1326	9,849.61	62.5726	9,849.61	55.6938	9,849.61	60.1265	9,849.61	55.4422	9,849.61	58.2291	9,849.61	52.6892	9,849.61	57.0525	9,849.61	55.0292	9,849.61	56.0241	9,849.61	52.6941	9,849.61	54.7491	9,849.61	47.3293	9,849.61	45.1301	9,849.61	48.0531	9,849.61	53.4908	9,849.61	49.0197
10,196.8	86.3657	10,196.8	85.7279	10,196.8	86.7413	10,196.8	82.2919	10,196.8	85.2286	10,196.8	78.9489	10,196.8	82.1984	10,196.8	76.9395	10,196.8	78.9222	10,196.8	73.965	10,196.8	76.7396	10,196.8	71.6641	10,196.8	73.8546	10,196.8	68.3759	10,196.8	71.0867	10,196.8	64.9346	10,196.8	67.3857	10,196.8	63.7959	10,196.8	65.6695	10,196.8	59.8461	10,196.8	62.3104	10,196.8	56.1249	10,196.8	59.4722	10,196.8	53.7495	10,196.8	58.9868	10,196.8	56.1232	10,196.8	52.5364	10,196.8	54.1538	10,196.8	54.9582	10,196.8	53.8597	10,196.8	51.3888	10,196.8	48.3738	10,196.8	49.8723	10,196.8	53.1095	10,196.8	48.3435	10,196.8	50.7305
10,555.7	86.7799	10,555.7	85.9614	10,555.7	86.899	10,555.7	82.6767	10,555.7	85.2949	10,555.7	79.2014	10,555.7	82.3009	10,555.7	77.5321	10,555.7	79.2132	10,555.7	74.4514	10,555.7	76.712	10,555.7	71.5878	10,555.7	73.9406	10,555.7	68.9767	10,555.7	70.4264	10,555.7	65.8159	10,555.7	68.3002	10,555.7	62.4959	10,555.7	65.1429	10,555.7	60.9402	10,555.7	61.374	10,555.7	57.2033	10,555.7	61.0569	10,555.7	52.7998	10,555.7	56.6275	10,555.7	54.7184	10,555.7	53.317	10,555.7	53.4654	10,555.7	54.6037	10,555.7	49.9959	10,555.7	54.3431	10,555.7	44.6808	10,555.7	46.9548	10,555.7	52.5019	10,555.7	52.0165	10,555.7	52.3722
10,927.7	87.1237	10,927.7	85.9187	10,927.7	87.3658	10,927.7	83.0698	10,927.7	85.6104	10,927.7	79.6014	10,927.7	82.9766	10,927.7	77.4439	10,927.7	79.9819	10,927.7	74.0633	10,927.7	77.0834	10,927.7	71.2465	10,927.7	73.8571	10,927.7	68.2365	10,927.7	70.4244	10,927.7	65.7801	10,927.7	68.1192	10,927.7	61.5453	10,927.7	65.2304	10,927.7	60.501	10,927.7	62.5737	10,927.7	53.8865	10,927.7	60.7145	10,927.7	51.9076	10,927.7	55.0942	10,927.7	54.2808	10,927.7	58.5429	10,927.7	53.8678	10,927.7	54.8926	10,927.7	47.7763	10,927.7	53.4266	10,927.7	41.0241	10,927.7	46.1578	10,927.7	53.8406	10,927.7	54.8277	10,927.7	45.4336
11,313	87.4129	11,313	86.1305	11,313	87.6425	11,313	83.5747	11,313	85.854	11,313	80.1139	11,313	83.5289	11,313	77.7907	11,313	80.5741	11,313	73.8973	11,313	77.5436	11,313	70.7905	11,313	73.7932	11,313	67.6791	11,313	70.5787	11,313	64.6263	11,313	68.6853	11,313	61.8861	11,313	65.0278	11,313	60.3765	11,313	62.7616	11,313	56.2095	11,313	60.2532	11,313	51.1761	11,313	56.2189	11,313	55.0162	11,313	55.5129	11,313	51.4217	11,313	53.9426	11,313	50.7341	11,313	51.2243	11,313	43.6861	11,313	44.1834	11,313	55.8042	11,313	57.0668	11,313	37.084
11,712.9	87.6144	11,712.9	86.2256	11,712.9	87.8093	11,712.9	83.9479	11,712.9	86.0344	11,712.9	80.5697	11,712.9	83.9206	11,712.9	78.0062	11,712.9	80.9782	11,712.9	73.3333	11,712.9	78.0509	11,712.9	69.8864	11,712.9	73.374	11,712.9	67.3567	11,712.9	70.3627	11,712.9	65.217	11,712.9	67.6627	11,712.9	60.2721	11,712.9	64.8924	11,712.9	59.4683	11,712.9	61.8014	11,712.9	55.2572	11,712.9	60.9587	11,712.9	52.8867	11,712.9	56.7053	11,712.9	53.6708	11,712.9	57.3369	11,712.9	51.496	11,712.9	54.2514	11,712.9	50.3573	11,712.9	51.9413	11,712.9	32.5262	11,712.9	49.5428	11,712.9	56.0863	11,712.9	56.1274	11,712.9	44.1338
12,126	87.557	12,126	86.1159	12,126	87.5224	12,126	84.1319	12,126	86.1777	12,126	80.3857	12,126	83.8026	12,126	78.1347	12,126	80.9069	12,126	72.8256	12,126	77.7651	12,126	68.9528	12,126	73.4458	12,126	66.1486	12,126	70.6331	12,126	63.7856	12,126	66.1277	12,126	60.4314	12,126	65.1624	12,126	59.1844	12,126	61.2697	12,126	57.2807	12,126	59.261	12,126	55.0437	12,126	56.1442	12,126	52.9563	12,126	54.3615	12,126	50.9763	12,126	53.2481	12,126	50.2766	12,126	49.0744	12,126	40.8675	12,126	45.2199	12,126	54.1265	12,126	56.5897	12,126	47.5569
12,553.7	87.8153	12,553.7	86.3313	12,553.7	87.6646	12,553.7	84.3091	12,553.7	86.4458	12,553.7	80.806	12,553.7	84.3647	12,553.7	77.7451	12,553.7	81.2685	12,553.7	73.0258	12,553.7	77.9165	12,553.7	69.8307	12,553.7	73.6698	12,553.7	67.0545	12,553.7	71.0687	12,553.7	64.4355	12,553.7	67.1613	12,553.7	61.761	12,553.7	64.8558	12,553.7	59.6619	12,553.7	62.1143	12,553.7	58.8006	12,553.7	59.571	12,553.7	54.504	12,553.7	57.3591	12,553.7	55.9558	12,553.7	54.6024	12,553.7	49.8777	12,553.7	52.2891	12,553.7	52.5396	12,553.7	46.8297	12,553.7	45.958	12,553.7	45.4962	12,553.7	53.0213	12,553.7	56.3037	12,553.7	45.621
12,996.1	88.1643	12,996.1	86.2923	12,996.1	88.1704	12,996.1	84.4972	12,996.1	86.9053	12,996.1	81.2109	12,996.1	84.6651	12,996.1	78.0571	12,996.1	81.4808	12,996.1	73.6986	12,996.1	77.5388	12,996.1	69.9403	12,996.1	74.2505	12,996.1	68.1018	12,996.1	71.0872	12,996.1	65.5034	12,996.1	67.1773	12,996.1	62.882	12,996.1	66.0596	12,996.1	60.1721	12,996.1	62.8809	12,996.1	59.0131	12,996.1	60.3586	12,996.1	53.13	12,996.1	57.3958	12,996.1	52.6248	12,996.1	53.8353	12,996.1	50.7773	12,996.1	53.7812	12,996.1	51.7449	12,996.1	47.0642	12,996.1	45.8239	12,996.1	49.3579	12,996.1	53.1567	12,996.1	55.7277	12,996.1	49.4166
13,454.6	88.6489	13,454.6	86.5718	13,454.6	88.6471	13,454.6	84.5155	13,454.6	87.3267	13,454.6	81.8321	13,454.6	85.0384	13,454.6	77.8826	13,454.6	81.9032	13,454.6	74.5703	13,454.6	77.8079	13,454.6	70.1344	13,454.6	75.1955	13,454.6	69.1551	13,454.6	71.4987	13,454.6	66.0008	13,454.6	68.2825	13,454.6	62.6438	13,454.6	66.1975	13,454.6	60.075	13,454.6	62.6045	13,454.6	57.9556	13,454.6	60.0261	13,454.6	54.4372	13,454.6	56.2061	13,454.6	55.0993	13,454.6	53.2033	13,454.6	51.7586	13,454.6	52.8978	13,454.6	52.3333	13,454.6	44.869	13,454.6	47.9001	13,454.6	39.8844	13,454.6	53.9925	13,454.6	55.256	13,454.6	50.3924
13,929.2	88.6536	13,929.2	86.7701	13,929.2	88.8098	13,929.2	84.813	13,929.2	87.5526	13,929.2	81.871	13,929.2	85.3588	13,929.2	77.9238	13,929.2	82.2133	13,929.2	73.5067	13,929.2	78.2273	13,929.2	69.1827	13,929.2	74.1016	13,929.2	67.9587	13,929.2	70.6212	13,929.2	63.9408	13,929.2	67.827	13,929.2	60.694	13,929.2	64.2697	13,929.2	57.044	13,929.2	61.2653	13,929.2	57.4378	13,929.2	58.9439	13,929.2	53.6653	13,929.2	54.676	13,929.2	54.0031	13,929.2	52.9916	13,929.2	51.6209	13,929.2	51.3147	13,929.2	52.397	13,929.2	44.7225	13,929.2	43.1145	13,929.2	40.7902	13,929.2	52.3207	13,929.2	50.939	13,929.2	44.5415
14,419.9	88.5146	14,419.9	86.9142	14,419.9	88.6801	14,419.9	84.8736	14,419.9	87.5821	14,419.9	81.3592	14,419.9	85.306	14,419.9	77.0888	14,419.9	81.5276	14,419.9	70.779	14,419.9	77.1962	14,419.9	67.4676	14,419.9	72.2318	14,419.9	64.9231	14,419.9	68.4352	14,419.9	61.1242	14,419.9	64.7071	14,419.9	58.1736	14,419.9	62.1382	14,419.9	54.9286	14,419.9	59.7449	14,419.9	55.6416	14,419.9	56.9466	14,419.9	50.8673	14,419.9	52.9365	14,419.9	48.6234	14,419.9	53.2075	14,419.9	47.3223	14,419.9	50.4121	14,419.9	50.4962	14,419.9	40.1523	14,419.9	31.9597	14,419.9	44.6299	14,419.9	49.0417	14,419.9	44.6048	14,419.9	43.9572
14,928.2	88.4925	14,928.2	86.9695	14,928.2	88.6128	14,928.2	84.3047	14,928.2	87.205	14,928.2	79.5826	14,928.2	84.5746	14,928.2	75.3225	14,928.2	80.1362	14,928.2	67.9551	14,928.2	75.4644	14,928.2	65.0808	14,928.2	70.188	14,928.2	60.5875	14,928.2	65.6125	14,928.2	59.718	14,928.2	62.7242	14,928.2	56.8454	14,928.2	60.3113	14,928.2	52.6863	14,928.2	58.525	14,928.2	53.4452	14,928.2	54.8545	14,928.2	49.2983	14,928.2	52.3784	14,928.2	46.3848	14,928.2	53.5707	14,928.2	42.5266	14,928.2	46.8612	14,928.2	46.6581	14,928.2	31.9755	14,928.2	34.6982	14,928.2	45.8816	14,928.2	47.9841	14,928.2	45.5832	14,928.2	43.5518
15,455.6	88.6478	15,455.6	86.8343	15,455.6	88.5682	15,455.6	83.4806	15,455.6	86.4666	15,455.6	77.6056	15,455.6	83.1122	15,455.6	72.7439	15,455.6	78.0904	15,455.6	64.816	15,455.6	72.8331	15,455.6	59.7676	15,455.6	67.0952	15,455.6	56.5653	15,455.6	61.1479	15,455.6	56.0979	15,455.6	58.2563	15,455.6	53.0378	15,455.6	56.5694	15,455.6	46.9338	15,455.6	54.1729	15,455.6	49.3655	15,455.6	50.3197	15,455.6	46.4059	15,455.6	49.6049	15,455.6	41.9373	15,455.6	49.0978	15,455.6	32.3022	15,455.6	41.9575	15,455.6	39.7665	15,455.6	32.8017	15,455.6	36.3188	15,455.6	48.0137	15,455.6	41.0041	15,455.6	42.8553	15,455.6	40.3841
16,000.5	89.1357	16,000.5	86.7759	16,000.5	88.8262	16,000.5	81.9016	16,000.5	85.6638	16,000.5	73.8647	16,000.5	80.6916	16,000.5	65.5631	16,000.5	74.0549	16,000.5	48.9818	16,000.5	66.8726	16,000.5	43.2472	16,000.5	57.609	16,000.5	39.5816	16,000.5	42.5429	16,000.5	33.82	16,000.5	42.7015	16,000.5	40.9941	16,000.5	41.5932	16,000.5	37.4858	16,000.5	38.4121	16,000.5	26.6675	16,000.5	35.3627	16,000.5	20.424	16,000.5	41.1462	16,000.5	35.8773	16,000.5	45.4937	16,000.5	34.2347	16,000.5	34.5365	16,000.5	39.6147	16,000.5	34.7612	16,000.5	28.8526	16,000.5	45.657	16,000.5	34.8056	16,000.5	42.37	16,000.5	42.5315
16,564.5	89.6517	16,564.5	86.5316	16,564.5	89.2079	16,564.5	79.1397	16,564.5	84.8209	16,564.5	64.1749	16,564.5	76.6433	16,564.5	60.8788	16,564.5	64.8923	16,564.5	63.6098	16,564.5	62.1621	16,564.5	61.6992	16,564.5	60.0754	16,564.5	58.5218	16,564.5	58.839	16,564.5	55.0036	16,564.5	57.9316	16,564.5	52.6164	16,564.5	52.769	16,564.5	46.554	16,564.5	48.409	16,564.5	44.3853	16,564.5	45.8789	16,564.5	44.6057	16,564.5	42.1937	16,564.5	44.3382	16,564.5	42.7564	16,564.5	40.3791	16,564.5	39.2092	16,564.5	40.7454	16,564.5	40.0859	16,564.5	24.3722	16,564.5	39.2825	16,564.5	46.8819	16,564.5	23.6865	16,564.5	50.2199
17,148.9	90.2083	17,148.9	86.2787	17,148.9	89.6124	17,148.9	76.1558	17,148.9	83.9682	17,148.9	64.4967	17,148.9	70.739	17,148.9	70.1365	17,148.9	65.7064	17,148.9	68.6271	17,148.9	69.1692	17,148.9	66.705	17,148.9	66.9787	17,148.9	62.2248	17,148.9	64.2686	17,148.9	59.9147	17,148.9	62.3214	17,148.9	57.6932	17,148.9	59.338	17,148.9	51.7738	17,148.9	53.8878	17,148.9	51.1381	17,148.9	53.5735	17,148.9	47.7435	17,148.9	51.5941	17,148.9	46.4568	17,148.9	39.8952	17,148.9	40.1469	17,148.9	44.0815	17,148.9	45.018	17,148.9	40.8869	17,148.9	33.3041	17,148.9	35.1974	17,148.9	55.8839	17,148.9	40.6958	17,148.9	54.2785
17,752.4	90.3057	17,752.4	85.6243	17,752.4	89.6842	17,752.4	73.4961	17,752.4	82.988	17,752.4	71.4706	17,752.4	69.3852	17,752.4	73.7952	17,752.4	72.6507	17,752.4	71.0138	17,752.4	73.0983	17,752.4	68.7033	17,752.4	70.3714	17,752.4	63.9158	17,752.4	66.6658	17,752.4	62.2352	17,752.4	63.0833	17,752.4	60.0305	17,752.4	61.4172	17,752.4	54.6834	17,752.4	55.6857	17,752.4	54.409	17,752.4	56.2815	17,752.4	49.1505	17,752.4	54.4635	17,752.4	45.8871	17,752.4	41.8069	17,752.4	41.0737	17,752.4	45.4177	17,752.4	47.9822	17,752.4	40.5956	17,752.4	42.6189	17,752.4	42.0496	17,752.4	60.5505	17,752.4	46.6323	17,752.4	58.5105
18,379.4	90.1607	18,379.4	84.458	18,379.4	89.7726	18,379.4	75.6541	18,379.4	82.4722	18,379.4	76.3489	18,379.4	75.5926	18,379.4	76.7968	18,379.4	76.321	18,379.4	73.987	18,379.4	75.1156	18,379.4	71.0458	18,379.4	72.5772	18,379.4	66.735	18,379.4	68.2239	18,379.4	63.5025	18,379.4	63.4444	18,379.4	62.8469	18,379.4	62.0602	18,379.4	57.5041	18,379.4	56.2136	18,379.4	57.5706	18,379.4	57.5344	18,379.4	48.987	18,379.4	56.602	18,379.4	34.31	18,379.4	46.3634	18,379.4	49.2347	18,379.4	45.8464	18,379.4	51.0331	18,379.4	34.5983	18,379.4	47.6471	18,379.4	47.2886	18,379.4	64.2913	18,379.4	54.4215	18,379.4	60.4053
19,026.9	88.7423	19,026.9	82.6719	19,026.9	88.7876	19,026.9	77.5986	19,026.9	81.5472	19,026.9	78.0845	19,026.9	78.5071	19,026.9	77.9417	19,026.9	77.5058	19,026.9	74.7434	19,026.9	76.0097	19,026.9	71.3408	19,026.9	72.9877	19,026.9	67.5612	19,026.9	68.6092	19,026.9	62.4621	19,026.9	62.3463	19,026.9	62.692	19,026.9	60.9528	19,026.9	57.9896	19,026.9	54.6708	19,026.9	58.6272	19,026.9	57.3893	19,026.9	46.4138	19,026.9	56.0505	19,026.9	46.4037	19,026.9	50.8433	19,026.9	52.2787	19,026.9	43.7448	19,026.9	51.6847	19,026.9	33.0756	19,026.9	49.9447	19,026.9	52.6873	19,026.9	65.8764	19,026.9	56.7434	19,026.9	61.625
19,697.8	86.3167	19,697.8	80.2214	19,697.8	86.838	19,697.8	78.1605	19,697.8	80.1674	19,697.8	78.3128	19,697.8	79.0537	19,697.8	77.1505	19,697.8	77.6006	19,697.8	73.4967	19,697.8	76.4187	19,697.8	70.5324	19,697.8	72.1069	19,697.8	65.6969	19,697.8	67.9927	19,697.8	59.0249	19,697.8	62.2386	19,697.8	62.3697	19,697.8	59.883	19,697.8	56.5317	19,697.8	56.0967	19,697.8	58.0344	19,697.8	58.1652	19,697.8	36.7423	19,697.8	55.1521	19,697.8	51.7755	19,697.8	55.4957	19,697.8	54.8002	19,697.8	43.1057	19,697.8	51.7195	19,697.8	41.5558	19,697.8	52.7079	19,697.8	54.4465	19,697.8	66.3403	19,697.8	58.0822	19,697.8	61.7714
19,999.5	84.8573	19,999.5	79.0183	19,999.5	85.6578	19,999.5	77.8417	19,999.5	78.9796	19,999.5	78.2531	19,999.5	79.2218	19,999.5	76.2916	19,999.5	77.525	19,999.5	72.6633	19,999.5	76.3666	19,999.5	70.5026	19,999.5	71.7721	19,999.5	65.181	19,999.5	67.8766	19,999.5	54.6933	19,999.5	65.013	19,999.5	62.7776	19,999.5	58.2579	19,999.5	54.8306	19,999.5	52.1461	19,999.5	52.7122	19,999.5	58.4177	19,999.5	48.7609	19,999.5	50.3924	19,999.5	56.3716	19,999.5	58.8295	19,999.5	55.7564	19,999.5	42.4339	19,999.5	51.5607	19,999.5	44.4299	19,999.5	54.7875	19,999.5	53.7252	19,999.5	66.0239	19,999.5	59.022	19,999.5	61.8382
