"SPL Vertical"
"On-Axis"		"10°"		"-10°"		"20°"		"-20°"		"30°"		"-30°"		"40°"		"-40°"		"50°"		"-50°"		"60°"		"-60°"		"70°"		"-70°"		"80°"		"-80°"		"90°"		"-90°"		"100°"		"-100°"		"110°"		"-110°"		"120°"		"-120°"		"130°"		"-130°"		"140°"		"-140°"		"150°"		"-150°"		"160°"		"-160°"		"170°"		"-170°"		"180°"
"Frequency / Hz"	"Sound Pressure Level / dB (re 20 µPa/V)  [2.83  V @ 1. m]"	"Frequency / Hz"	"Sound Pressure Level / dB (re 20 µPa/V)  [2.83  V @ 1. m]"	"Frequency / Hz"	"Sound Pressure Level / dB (re 20 µPa/V)  [2.83  V @ 1. m]"	"Frequency / Hz"	"Sound Pressure Level / dB (re 20 µPa/V)  [2.83  V @ 1. m]"	"Frequency / Hz"	"Sound Pressure Level / dB (re 20 µPa/V)  [2.83  V @ 1. m]"	"Frequency / Hz"	"Sound Pressure Level / dB (re 20 µPa/V)  [2.83  V @ 1. m]"	"Frequency / Hz"	"Sound Pressure Level / dB (re 20 µPa/V)  [2.83  V @ 1. m]"	"Frequency / Hz"	"Sound Pressure Level / dB (re 20 µPa/V)  [2.83  V @ 1. m]"	"Frequency / Hz"	"Sound Pressure Level / dB (re 20 µPa/V)  [2.83  V @ 1. m]"	"Frequency / Hz"	"Sound Pressure Level / dB (re 20 µPa/V)  [2.83  V @ 1. m]"	"Frequency / Hz"	"Sound Pressure Level / dB (re 20 µPa/V)  [2.83  V @ 1. m]"	"Frequency / Hz"	"Sound Pressure Level / dB (re 20 µPa/V)  [2.83  V @ 1. m]"	"Frequency / Hz"	"Sound Pressure Level / dB (re 20 µPa/V)  [2.83  V @ 1. m]"	"Frequency / Hz"	"Sound Pressure Level / dB (re 20 µPa/V)  [2.83  V @ 1. m]"	"Frequency / Hz"	"Sound Pressure Level / dB (re 20 µPa/V)  [2.83  V @ 1. m]"	"Frequency / Hz"	"Sound Pressure Level / dB (re 20 µPa/V)  [2.83  V @ 1. m]"	"Frequency / Hz"	"Sound Pressure Level / dB (re 20 µPa/V)  [2.83  V @ 1. m]"	"Frequency / Hz"	"Sound Pressure Level / dB (re 20 µPa/V)  [2.83  V @ 1. m]"	"Frequency / Hz"	"Sound Pressure Level / dB (re 20 µPa/V)  [2.83  V @ 1. m]"	"Frequency / Hz"	"Sound Pressure Level / dB (re 20 µPa/V)  [2.83  V @ 1. m]"	"Frequency / Hz"	"Sound Pressure Level / dB (re 20 µPa/V)  [2.83  V @ 1. m]"	"Frequency / Hz"	"Sound Pressure Level / dB (re 20 µPa/V)  [2.83  V @ 1. m]"	"Frequency / Hz"	"Sound Pressure Level / dB (re 20 µPa/V)  [2.83  V @ 1. m]"	"Frequency / Hz"	"Sound Pressure Level / dB (re 20 µPa/V)  [2.83  V @ 1. m]"	"Frequency / Hz"	"Sound Pressure Level / dB (re 20 µPa/V)  [2.83  V @ 1. m]"	"Frequency / Hz"	"Sound Pressure Level / dB (re 20 µPa/V)  [2.83  V @ 1. m]"	"Frequency / Hz"	"Sound Pressure Level / dB (re 20 µPa/V)  [2.83  V @ 1. m]"	"Frequency / Hz"	"Sound Pressure Level / dB (re 20 µPa/V)  [2.83  V @ 1. m]"	"Frequency / Hz"	"Sound Pressure Level / dB (re 20 µPa/V)  [2.83  V @ 1. m]"	"Frequency / Hz"	"Sound Pressure Level / dB (re 20 µPa/V)  [2.83  V @ 1. m]"	"Frequency / Hz"	"Sound Pressure Level / dB (re 20 µPa/V)  [2.83  V @ 1. m]"	"Frequency / Hz"	"Sound Pressure Level / dB (re 20 µPa/V)  [2.83  V @ 1. m]"	"Frequency / Hz"	"Sound Pressure Level / dB (re 20 µPa/V)  [2.83  V @ 1. m]"	"Frequency / Hz"	"Sound Pressure Level / dB (re 20 µPa/V)  [2.83  V @ 1. m]"	"Frequency / Hz"	"Sound Pressure Level / dB (re 20 µPa/V)  [2.83  V @ 1. m]"	"Frequency / Hz"	"Sound Pressure Level / dB (re 20 µPa/V)  [2.83  V @ 1. m]"
20.5078	52.5906	20.5078	52.1361	20.5078	52.9766	20.5078	51.6908	20.5078	53.246	20.5078	51.3713	20.5078	53.3699	20.5078	51.3219	20.5078	53.334	20.5078	51.6587	20.5078	53.1447	20.5078	52.3965	20.5078	52.8497	20.5078	53.4395	20.5078	52.5775	20.5078	54.6483	20.5078	52.5692	20.5078	55.9046	20.5078	53.0945	20.5078	57.1301	20.5078	54.2139	20.5078	58.2783	20.5078	55.7019	20.5078	59.3206	20.5078	57.265	20.5078	60.2369	20.5078	58.7084	20.5078	61.0099	20.5078	59.9379	20.5078	61.6221	20.5078	60.9165	20.5078	62.0552	20.5078	61.6348	20.5078	62.2906	20.5078	62.0959	20.5078	62.3097
21.9727	54.4721	21.9727	53.8482	21.9727	54.9275	21.9727	53.0862	21.9727	55.1959	21.9727	52.2513	21.9727	55.2587	21.9727	51.485	21.9727	55.0927	21.9727	51.0377	21.9727	54.669	21.9727	51.1893	21.9727	53.9602	21.9727	52.0152	21.9727	52.9706	21.9727	53.3033	21.9727	51.8403	21.9727	54.7673	21.9727	51.0782	21.9727	56.2144	21.9727	51.5042	21.9727	57.5502	21.9727	53.1669	21.9727	58.7336	21.9727	55.2446	21.9727	59.746	21.9727	57.1681	21.9727	60.5755	21.9727	58.7599	21.9727	61.2102	21.9727	59.9974	21.9727	61.6363	21.9727	60.8991	21.9727	61.8377	21.9727	61.4904	21.9727	61.7958
23.4375	55.555	23.4375	55.0532	23.4375	55.9272	23.4375	54.4773	23.4375	56.1363	23.4375	53.9269	23.4375	56.1589	23.4375	53.5627	23.4375	55.9763	23.4375	53.5796	23.4375	55.5792	23.4375	54.0986	23.4375	54.9897	23.4375	55.0665	23.4375	54.3189	23.4375	56.3052	23.4375	53.8675	23.4375	57.6368	23.4375	54.109	23.4375	58.943	23.4375	55.2556	23.4375	60.1591	23.4375	56.9575	23.4375	61.2513	23.4375	58.7453	23.4375	62.1999	23.4375	60.3587	23.4375	62.99	23.4375	61.7035	23.4375	63.6073	23.4375	62.7583	23.4375	64.0363	23.4375	63.5271	23.4375	64.2602	23.4375	64.023	23.4375	64.2617
24.9023	58.0783	24.9023	57.6857	24.9023	58.3844	24.9023	57.2598	24.9023	58.5709	24.9023	56.8844	24.9023	58.6175	24.9023	56.6759	24.9023	58.5145	24.9023	56.7591	24.9023	58.2684	24.9023	57.2075	24.9023	57.9196	24.9023	57.9957	24.9023	57.5758	24.9023	59.018	24.9023	57.443	24.9023	60.151	24.9023	57.7735	24.9023	61.2967	24.9023	58.671	24.9023	62.3904	24.9023	59.973	24.9023	63.3916	24.9023	61.4063	24.9023	64.2739	24.9023	62.7642	24.9023	65.0168	24.9023	63.9374	24.9023	65.6025	24.9023	64.8795	24.9023	66.0133	24.9023	65.5759	24.9023	66.2319	24.9023	66.0272	24.9023	66.2417
26.3672	60.5694	26.3672	60.2723	26.3672	60.7994	26.3672	59.9455	26.3672	60.9372	26.3672	59.643	26.3672	60.9658	26.3672	59.4387	26.3672	60.8758	26.3672	59.4173	26.3672	60.6702	26.3672	59.6489	26.3672	60.3762	26.3672	60.1562	26.3672	60.0673	26.3672	60.9008	26.3672	59.8868	26.3672	61.8041	26.3672	60.0297	26.3672	62.7798	26.3672	60.6314	26.3672	63.756	26.3672	61.6411	26.3672	64.6793	26.3672	62.8601	26.3672	65.511	26.3672	64.0851	26.3672	66.2219	26.3672	65.1824	26.3672	66.7878	26.3672	66.0831	26.3672	67.1871	26.3672	66.7575	26.3672	67.4	26.3672	67.1981	26.3672	67.4086
27.832	62.818	27.832	62.5374	27.832	63.0385	27.832	62.2326	27.832	63.175	27.832	61.9552	27.832	63.2126	27.832	61.7725	27.832	63.1459	27.832	61.7599	27.832	62.9831	27.832	61.9782	27.832	62.7562	27.832	62.4473	27.832	62.5369	27.832	63.1355	27.832	62.4477	27.832	63.9748	27.832	62.6384	27.832	64.8886	27.832	63.2037	27.832	65.81	27.832	64.1026	27.832	66.6877	27.832	65.1841	27.832	67.4831	27.832	66.2833	27.832	68.1666	27.832	67.2811	27.832	68.7136	27.832	68.1085	27.832	69.1023	27.832	68.7319	27.832	69.3134	27.832	69.139	27.832	69.3301
29.2969	64.6497	29.2969	64.4135	29.2969	64.8452	29.2969	64.1698	29.2969	64.9777	29.2969	63.964	29.2969	65.0341	29.2969	63.8522	29.2969	65.012	29.2969	63.893	29.2969	64.9223	29.2969	64.1308	29.2969	64.7981	29.2969	64.5788	29.2969	64.7031	29.2969	65.2121	29.2969	64.7339	29.2969	65.9785	29.2969	64.9965	29.2969	66.8164	29.2969	65.5501	29.2969	67.6689	29.2969	66.3607	29.2969	68.4888	29.2969	67.318	29.2969	69.2391	29.2969	68.2945	29.2969	69.8896	29.2969	69.189	29.2969	70.4152	29.2969	69.9366	29.2969	70.7935	29.2969	70.5016	29.2969	71.0054	29.2969	70.8685	29.2969	71.0343
30.7617	66.7221	30.7617	66.5389	30.7617	66.8782	30.7617	66.3586	30.7617	66.9858	30.7617	66.2196	30.7617	67.032	30.7617	66.1672	30.7617	67.0137	30.7617	66.2458	30.7617	66.941	30.7617	66.4883	30.7617	66.8439	30.7617	66.9043	30.7617	66.7785	30.7617	67.476	30.7617	66.8272	30.7617	68.1645	30.7617	67.0785	30.7617	68.9209	30.7617	67.5835	30.7617	69.6971	30.7617	68.3195	30.7617	70.4503	30.7617	69.1981	30.7617	71.1443	30.7617	70.109	30.7617	71.7485	30.7617	70.9582	30.7617	72.2362	30.7617	71.6801	30.7617	72.584	30.7617	72.2355	30.7617	72.7714	30.7617	72.6048	30.7617	72.7821
32.2266	68.988	32.2266	68.8598	32.2266	69.1019	32.2266	68.74	32.2266	69.1856	32.2266	68.6572	32.2266	69.2305	32.2266	68.6443	32.2266	69.237	32.2266	68.7333	32.2266	69.2168	32.2266	68.9488	32.2266	69.1966	32.2266	69.3011	32.2266	69.2207	32.2266	69.7819	32.2266	69.3471	32.2266	70.3667	32.2266	69.6321	32.2266	71.0205	32.2266	70.105	32.2266	71.7045	32.2266	70.7481	32.2266	72.3808	32.2266	71.5002	32.2266	73.015	32.2266	72.2808	32.2266	73.576	32.2266	73.0143	32.2266	74.0365	32.2266	73.6425	32.2266	74.3719	32.2266	74.1266	32.2266	74.5616	32.2266	74.445	32.2266	74.5893
33.6914	70.9253	33.6914	70.809	33.6914	71.0329	33.6914	70.7027	33.6914	71.1188	33.6914	70.6303	33.6914	71.176	33.6914	70.6185	33.6914	71.2055	33.6914	70.6942	33.6914	71.2172	33.6914	70.8786	33.6914	71.233	33.6914	71.1824	33.6914	71.2873	33.6914	71.6018	33.6914	71.4246	33.6914	72.119	33.6914	71.6877	33.6914	72.7058	33.6914	72.101	33.6914	73.3284	33.6914	72.6549	33.6914	73.9521	33.6914	73.3055	33.6914	74.5436	33.6914	73.989	33.6914	75.0721	33.6914	74.6398	33.6914	75.5098	33.6914	75.2032	33.6914	75.832	33.6914	75.6402	33.6914	76.0182	33.6914	75.9269	33.6914	76.0528
35.1562	72.6682	35.1562	72.5543	35.1562	72.7782	35.1562	72.4531	35.1562	72.8723	35.1562	72.3856	35.1562	72.9442	35.1562	72.3751	35.1562	72.9939	35.1562	72.4448	35.1562	73.0295	35.1562	72.6133	35.1562	73.0693	35.1562	72.8904	35.1562	73.1416	35.1562	73.2741	35.1562	73.283	35.1562	73.7501	35.1562	73.5295	35.1562	74.294	35.1562	73.9029	35.1562	74.8759	35.1562	74.3984	35.1562	75.4635	35.1562	74.9822	35.1562	76.0251	35.1562	75.6005	35.1562	76.5305	35.1562	76.1945	35.1562	76.9521	35.1562	76.7123	35.1562	77.2654	35.1562	77.1153	35.1562	77.4498	35.1562	77.3785	35.1562	77.4903
36.6211	74.246	36.6211	74.1537	36.6211	74.3407	36.6211	74.0776	36.6211	74.428	36.6211	74.0349	36.6211	74.5024	36.6211	74.0442	36.6211	74.5645	36.6211	74.1238	36.6211	74.6214	36.6211	74.2887	36.6211	74.688	36.6211	74.5468	36.6211	74.7874	36.6211	74.8971	36.6211	74.948	36.6211	75.3289	36.6211	75.1972	36.6211	75.823	36.6211	75.5514	36.6211	76.3544	36.6211	76.0065	36.6211	76.895	36.6211	76.5355	36.6211	77.4155	36.6211	77.094	36.6211	77.8876	36.6211	77.6318	36.6211	78.2846	36.6211	78.1022	36.6211	78.5823	36.6211	78.4686	36.6211	78.7606	36.6211	78.7069	36.6211	78.8046
38.0859	75.6852	38.0859	75.604	38.0859	75.7733	38.0859	75.5412	38.0859	75.8599	38.0859	75.5107	38.0859	75.9407	38.0859	75.528	38.0859	76.0158	38.0859	75.6078	38.0859	76.0912	38.0859	75.7622	38.0859	76.1788	38.0859	75.9983	38.0859	76.2968	38.0859	76.3158	38.0859	76.4672	38.0859	76.7068	38.0859	76.7111	38.0859	77.156	38.0859	77.041	38.0859	77.6421	38.0859	77.4538	38.0859	78.1406	38.0859	77.9281	38.0859	78.6247	38.0859	78.4277	38.0859	79.0675	38.0859	78.9096	38.0859	79.4433	38.0859	79.3319	38.0859	79.7284	38.0859	79.6605	38.0859	79.9033	38.0859	79.8719	38.0859	79.9534
39.5508	76.9964	39.5508	76.9307	39.5508	77.0753	39.5508	76.8872	39.5508	77.1608	39.5508	76.8766	39.5508	77.249	39.5508	76.9104	39.5508	77.3396	39.5508	76.9994	39.5508	77.4367	39.5508	77.1524	39.5508	77.5488	39.5508	77.3747	39.5508	77.689	39.5508	77.6663	39.5508	77.873	39.5508	78.0213	39.5508	78.1158	39.5508	78.4277	39.5508	78.4262	39.5508	78.8687	39.5508	78.8019	39.5508	79.3233	39.5508	79.2264	39.5508	79.7678	39.5508	79.6708	39.5508	80.1777	39.5508	80.0991	39.5508	80.5285	39.5508	80.4749	39.5508	80.7977	39.5508	80.767	39.5508	80.9661	39.5508	80.9528	39.5508	81.02
41.0156	78.2401	41.0156	78.1845	41.0156	78.3076	41.0156	78.1481	41.0156	78.3816	41.0156	78.1394	41.0156	78.4592	41.0156	78.1678	41.0156	78.5402	41.0156	78.2423	41.0156	78.6278	41.0156	78.3709	41.0156	78.7291	41.0156	78.5587	41.0156	78.8545	41.0156	78.8072	41.0156	79.0171	41.0156	79.1128	41.0156	79.2292	41.0156	79.467	41.0156	79.4991	41.0156	79.8558	41.0156	79.826	41.0156	80.2611	41.0156	80.1976	41.0156	80.6616	41.0156	80.5901	41.0156	81.0341	41.0156	80.9722	41.0156	81.355	41.0156	81.3108	41.0156	81.6024	41.0156	81.5762	41.0156	81.7577	41.0156	81.746	41.0156	81.8075
42.4805	79.1411	42.4805	79.0829	42.4805	79.2123	42.4805	79.0434	42.4805	79.292	42.4805	79.0299	42.4805	79.3777	42.4805	79.05	42.4805	79.469	42.4805	79.1116	42.4805	79.5683	42.4805	79.2218	42.4805	79.6807	42.4805	79.3858	42.4805	79.8143	42.4805	79.606	42.4805	79.9789	42.4805	79.8804	42.4805	80.1841	42.4805	80.2026	42.4805	80.4362	42.4805	80.5611	42.4805	80.7346	42.4805	80.9399	42.4805	81.069	42.4805	81.3193	42.4805	81.4193	42.4805	81.6773	42.4805	81.7585	42.4805	81.991	42.4805	82.0566	42.4805	82.2386	42.4805	82.2865	42.4805	82.4015	42.4805	82.4272	42.4805	82.4664
43.9453	79.7011	43.9453	79.6438	43.9453	79.773	43.9453	79.6059	43.9453	79.8555	43.9453	79.5934	43.9453	79.9464	43.9453	79.6126	43.9453	80.0452	43.9453	79.6704	43.9453	80.1531	43.9453	79.7725	43.9453	80.2741	43.9453	79.9237	43.9453	80.414	43.9453	80.1261	43.9453	80.5801	43.9453	80.3784	43.9453	80.7795	43.9453	80.6753	43.9453	81.017	43.9453	81.0072	43.9453	81.2916	43.9453	81.3598	43.9453	81.5948	43.9453	81.7155	43.9453	81.9098	43.9453	82.0538	43.9453	82.2131	43.9453	82.3532	43.9453	82.4782	43.9453	82.5927	43.9453	82.6803	43.9453	82.7545	43.9453	82.7999	43.9453	82.8255
45.4102	80.1491	45.4102	80.094	45.4102	80.2193	45.4102	80.0583	45.4102	80.3016	45.4102	80.0466	45.4102	80.394	45.4102	80.0645	45.4102	80.4959	45.4102	80.1174	45.4102	80.6082	45.4102	80.2104	45.4102	80.7334	45.4102	80.3475	45.4102	80.8758	45.4102	80.5309	45.4102	81.0406	45.4102	80.7601	45.4102	81.2327	45.4102	81.0308	45.4102	81.4553	45.4102	81.335	45.4102	81.7073	45.4102	81.6605	45.4102	81.9814	45.4102	81.9913	45.4102	82.2633	45.4102	82.3086	45.4102	82.5329	45.4102	82.5922	45.4102	82.767	45.4102	82.8222	45.4102	82.9431	45.4102	82.9812	45.4102	83.0433	45.4102	83.0568
46.875	80.4995	46.875	80.4482	46.875	80.5677	46.875	80.4169	46.875	80.6503	46.875	80.4095	46.875	80.7455	46.875	80.4301	46.875	80.8525	46.875	80.483	46.875	80.9715	46.875	80.5722	46.875	81.1037	46.875	80.7012	46.875	81.2516	46.875	80.8717	46.875	81.4182	46.875	81.0835	46.875	81.6067	46.875	81.3332	46.875	81.8187	46.875	81.6142	46.875	82.0529	46.875	81.9158	46.875	82.3028	46.875	82.224	46.875	82.5566	46.875	82.5216	46.875	82.7971	46.875	82.7898	46.875	83.0039	46.875	83.0097	46.875	83.1571	46.875	83.165	46.875	83.2404	46.875	83.2438
48.3398	80.7928	48.3398	80.7424	48.3398	80.8616	48.3398	80.7127	48.3398	80.9466	48.3398	80.7068	48.3398	81.046	48.3398	80.7278	48.3398	81.1587	48.3398	80.7789	48.3398	81.284	48.3398	80.8634	48.3398	81.4221	48.3398	80.9837	48.3398	81.5738	48.3398	81.1414	48.3398	81.7404	48.3398	81.3363	48.3398	81.9234	48.3398	81.5659	48.3398	82.1234	48.3398	81.8245	48.3398	82.3386	48.3398	82.1032	48.3398	82.5638	48.3398	82.3896	48.3398	82.7891	48.3398	82.6681	48.3398	83	48.3398	82.9214	48.3398	83.1792	48.3398	83.132	48.3398	83.3089	48.3398	83.2843	48.3398	83.3744	48.3398	83.3669
51.2695	81.4531	51.2695	81.409	51.2695	81.5168	51.2695	81.3856	51.2695	81.599	51.2695	81.384	51.2695	81.6983	51.2695	81.4052	51.2695	81.8132	51.2695	81.4505	51.2695	81.9419	51.2695	81.5215	51.2695	82.0826	51.2695	81.6195	51.2695	82.2335	51.2695	81.7458	51.2695	82.3931	51.2695	81.9007	51.2695	82.5603	51.2695	82.0834	51.2695	82.7337	51.2695	82.2912	51.2695	82.9113	51.2695	82.5183	51.2695	83.0893	51.2695	82.7561	51.2695	83.2612	51.2695	82.9925	51.2695	83.4172	51.2695	83.2132	51.2695	83.5448	51.2695	83.4029	51.2695	83.6307	51.2695	83.5475	51.2695	83.6635	51.2695	83.6361
52.7344	81.6927	52.7344	81.6466	52.7344	81.7573	52.7344	81.6198	52.7344	81.8396	52.7344	81.6131	52.7344	81.9382	52.7344	81.6273	52.7344	82.0517	52.7344	81.6635	52.7344	82.1782	52.7344	81.7231	52.7344	82.3155	52.7344	81.8073	52.7344	82.4613	52.7344	81.9173	52.7344	82.6134	52.7344	82.054	52.7344	82.7699	52.7344	82.2171	52.7344	82.929	52.7344	82.4043	52.7344	83.0887	52.7344	82.6112	52.7344	83.2455	52.7344	82.8302	52.7344	83.394	52.7344	83.0505	52.7344	83.526	52.7344	83.2591	52.7344	83.6308	52.7344	83.4415	52.7344	83.697	52.7344	83.5843	52.7344	83.7145	52.7344	83.6771
54.1992	81.8473	54.1992	81.8024	54.1992	81.9113	54.1992	81.7772	54.1992	81.9939	54.1992	81.7719	54.1992	82.0938	54.1992	81.7867	54.1992	82.2091	54.1992	81.8219	54.1992	82.3376	54.1992	81.8782	54.1992	82.4764	54.1992	81.9562	54.1992	82.6224	54.1992	82.0569	54.1992	82.7724	54.1992	82.1809	54.1992	82.9237	54.1992	82.3282	54.1992	83.0738	54.1992	82.4974	54.1992	83.2202	54.1992	82.685	54.1992	83.3599	54.1992	82.8849	54.1992	83.4884	54.1992	83.088	54.1992	83.5991	54.1992	83.2825	54.1992	83.6832	54.1992	83.4556	54.1992	83.7314	54.1992	83.5945	54.1992	83.7351	54.1992	83.6895
55.6641	82.0736	55.6641	82.0276	55.6641	82.138	55.6641	82.0001	55.6641	82.2204	55.6641	81.9908	55.6641	82.3195	55.6641	81.9994	55.6641	82.4333	55.6641	82.0258	55.6641	82.5591	55.6641	82.0701	55.6641	82.6934	55.6641	82.1329	55.6641	82.8326	55.6641	82.2152	55.6641	82.9728	55.6641	82.3179	55.6641	83.1109	55.6641	82.4417	55.6641	83.2439	55.6641	82.5861	55.6641	83.3695	55.6641	82.749	55.6641	83.485	55.6641	82.9258	55.6641	83.5871	55.6641	83.1088	55.6641	83.6707	55.6641	83.2878	55.6641	83.7293	55.6641	83.4511	55.6641	83.7553	55.6641	83.5869	55.6641	83.742	55.6641	83.6856
58.5938	82.3838	58.5938	82.3337	58.5938	82.4535	58.5938	82.3032	58.5938	82.5425	58.5938	82.2915	58.5938	82.6494	58.5938	82.298	58.5938	82.7716	58.5938	82.3216	58.5938	82.9059	58.5938	82.3619	58.5938	83.048	58.5938	82.4188	58.5938	83.193	58.5938	82.4925	58.5938	83.3361	58.5938	82.5837	58.5938	83.4726	58.5938	82.6929	58.5938	83.5984	58.5938	82.8203	58.5938	83.7104	58.5938	82.9647	58.5938	83.806	58.5938	83.1229	58.5938	83.8826	58.5938	83.2893	58.5938	83.9372	58.5938	83.4556	58.5938	83.9659	58.5938	83.612	58.5938	83.9641	58.5938	83.7481	58.5938	83.9278	58.5938	83.8552
60.0586	82.5492	60.0586	82.4995	60.0586	82.6187	60.0586	82.4693	60.0586	82.7076	60.0586	82.4577	60.0586	82.8147	60.0586	82.4634	60.0586	82.9372	60.0586	82.4853	60.0586	83.0718	60.0586	82.5224	60.0586	83.2136	60.0586	82.5741	60.0586	83.3577	60.0586	82.6405	60.0586	83.4984	60.0586	82.7222	60.0586	83.6307	60.0586	82.8198	60.0586	83.7501	60.0586	82.9339	60.0586	83.8531	60.0586	83.064	60.0586	83.9372	60.0586	83.208	60.0586	84.0003	60.0586	83.3615	60.0586	84.0401	60.0586	83.5177	60.0586	84.0539	60.0586	83.6675	60.0586	84.0385	60.0586	83.8016	60.0586	83.9912	60.0586	83.9114
62.9883	82.879	62.9883	82.8274	62.9883	82.9506	62.9883	82.7951	62.9883	83.0422	62.9883	82.7807	62.9883	83.1523	62.9883	82.7824	62.9883	83.2782	62.9883	82.7984	62.9883	83.4158	62.9883	82.8273	62.9883	83.5599	62.9883	82.868	62.9883	83.7043	62.9883	82.9203	62.9883	83.8426	62.9883	82.9846	62.9883	83.9685	62.9883	83.0618	62.9883	84.0767	62.9883	83.1532	62.9883	84.1632	62.9883	83.2594	62.9883	84.2253	62.9883	83.3801	62.9883	84.2617	62.9883	83.5129	62.9883	84.2717	62.9883	83.653	62.9883	84.255	62.9883	83.7936	62.9883	84.2111	62.9883	83.9266	62.9883	84.1403	62.9883	84.0442
64.4531	83.0011	64.4531	82.9486	64.4531	83.0738	64.4531	82.9155	64.4531	83.1665	64.4531	82.9004	64.4531	83.2776	64.4531	82.9011	64.4531	83.4044	64.4531	82.9157	64.4531	83.5425	64.4531	82.9422	64.4531	83.6865	64.4531	82.9794	64.4531	83.8301	64.4531	83.0266	64.4531	83.9664	64.4531	83.084	64.4531	84.0891	64.4531	83.1527	64.4531	84.1922	64.4531	83.2339	64.4531	84.2715	64.4531	83.329	64.4531	84.3242	64.4531	83.4382	64.4531	84.3492	64.4531	83.5603	64.4531	84.3464	64.4531	83.6916	64.4531	84.3166	64.4531	83.8264	64.4531	84.2606	64.4531	83.9575	64.4531	84.18	64.4531	84.0775
67.3828	83.3028	67.3828	83.2488	67.3828	83.3772	67.3828	83.2141	67.3828	83.472	67.3828	83.1965	67.3828	83.5857	67.3828	83.1936	67.3828	83.7155	67.3828	83.2028	67.3828	83.8567	67.3828	83.2218	67.3828	84.0032	67.3828	83.249	67.3828	84.148	67.3828	83.2834	67.3828	84.2836	67.3828	83.3253	67.3828	84.4023	67.3828	83.3758	67.3828	84.4976	67.3828	83.437	67.3828	84.5643	67.3828	83.511	67.3828	84.5993	67.3828	83.5996	67.3828	84.6018	67.3828	83.7036	67.3828	84.5729	67.3828	83.8212	67.3828	84.5153	67.3828	83.9487	67.3828	84.4324	67.3828	84.0804	67.3828	84.3288	67.3828	84.2094
68.8477	83.4697	68.8477	83.4115	68.8477	83.5477	68.8477	83.3721	68.8477	83.6454	68.8477	83.3495	68.8477	83.7612	68.8477	83.3413	68.8477	83.8919	68.8477	83.3449	68.8477	84.033	68.8477	83.358	68.8477	84.1784	68.8477	83.3787	68.8477	84.3208	68.8477	83.4061	68.8477	84.4526	68.8477	83.4402	68.8477	84.566	68.8477	83.4823	68.8477	84.6542	68.8477	83.5342	68.8477	84.7119	68.8477	83.5986	68.8477	84.7358	68.8477	83.6777	68.8477	84.7253	68.8477	83.7729	68.8477	84.6822	68.8477	83.8837	68.8477	84.61	68.8477	84.0072	68.8477	84.5136	68.8477	84.1385	68.8477	84.3986	68.8477	84.2713
71.7773	83.8726	71.7773	83.813	71.7773	83.9507	71.7773	83.7709	71.7773	84.047	71.7773	83.7445	71.7773	84.1596	71.7773	83.7312	71.7773	84.2854	71.7773	83.7281	71.7773	84.4197	71.7773	83.7327	71.7773	84.5565	71.7773	83.7425	71.7773	84.6885	71.7773	83.7562	71.7773	84.8079	71.7773	83.7735	71.7773	84.9067	71.7773	83.7953	71.7773	84.9779	71.7773	83.8238	71.7773	85.0157	71.7773	83.8623	71.7773	85.0169	71.7773	83.9143	71.7773	84.9815	71.7773	83.9831	71.7773	84.9122	71.7773	84.0706	71.7773	84.8147	71.7773	84.1764	71.7773	84.6962	71.7773	84.2978	71.7773	84.565	71.7773	84.4296
74.707	84.2491	74.707	84.19	74.707	84.3269	74.707	84.1484	74.707	84.4231	74.707	84.1222	74.707	84.5359	74.707	84.1086	74.707	84.6619	74.707	84.1043	74.707	84.7963	74.707	84.1062	74.707	84.9328	74.707	84.1114	74.707	85.0639	74.707	84.1183	74.707	85.1811	74.707	84.1262	74.707	85.2762	74.707	84.136	74.707	85.3412	74.707	84.15	74.707	85.37	74.707	84.1721	74.707	85.3592	74.707	84.207	74.707	85.3089	74.707	84.2595	74.707	85.2226	74.707	84.3332	74.707	85.1072	74.707	84.4298	74.707	84.9718	74.707	84.5477	74.707	84.8269	74.707	84.6824
77.6367	84.5381	77.6367	84.4755	77.6367	84.6181	77.6367	84.4293	77.6367	84.7153	77.6367	84.3973	77.6367	84.8277	77.6367	84.3767	77.6367	84.9522	77.6367	84.364	77.6367	85.0837	77.6367	84.356	77.6367	85.2159	77.6367	84.3497	77.6367	85.3409	77.6367	84.3431	77.6367	85.4502	77.6367	84.3355	77.6367	85.535	77.6367	84.3279	77.6367	85.5871	77.6367	84.3228	77.6367	85.6001	77.6367	84.3247	77.6367	85.5706	77.6367	84.3396	77.6367	85.4988	77.6367	84.3736	77.6367	85.3893	77.6367	84.4323	77.6367	85.2503	77.6367	84.5191	77.6367	85.0931	77.6367	84.6342	77.6367	84.9302	77.6367	84.7737
79.1016	84.6746	79.1016	84.6102	79.1016	84.756	79.1016	84.5618	79.1016	84.854	79.1016	84.5273	79.1016	84.9669	79.1016	84.5039	79.1016	85.0912	79.1016	84.4881	79.1016	85.2221	79.1016	84.4766	79.1016	85.3531	79.1016	84.4665	79.1016	85.4763	79.1016	84.4556	79.1016	85.5834	79.1016	84.4432	79.1016	85.6652	79.1016	84.4301	79.1016	85.7136	79.1016	84.419	79.1016	85.7219	79.1016	84.4146	79.1016	85.6867	79.1016	84.4231	79.1016	85.6081	79.1016	84.4514	79.1016	85.4908	79.1016	84.5056	79.1016	85.3436	79.1016	84.5899	79.1016	85.1784	79.1016	84.7048	79.1016	85.0084	79.1016	84.8469
82.0312	84.9271	82.0312	84.8628	82.0312	85.0082	82.0312	84.8142	82.0312	85.1059	82.0312	84.7793	82.0312	85.2184	82.0312	84.755	82.0312	85.3425	82.0312	84.738	82.0312	85.4736	82.0312	84.7247	82.0312	85.6054	82.0312	84.7119	82.0312	85.7303	82.0312	84.6975	82.0312	85.8394	82.0312	84.6805	82.0312	85.9234	82.0312	84.6616	82.0312	85.9734	82.0312	84.6438	82.0312	85.9821	82.0312	84.6321	82.0312	85.945	82.0312	84.6332	82.0312	85.8617	82.0312	84.6549	82.0312	85.737	82.0312	84.7044	82.0312	85.5799	82.0312	84.787	82.0312	85.4034	82.0312	84.904	82.0312	85.2226	82.0312	85.052
84.9609	85.0931	84.9609	85.0301	84.9609	85.1735	84.9609	84.9831	84.9609	85.2714	84.9609	84.9498	84.9609	85.3855	84.9609	84.9271	84.9609	85.5129	84.9609	84.9113	84.9609	85.649	84.9609	84.899	84.9609	85.7876	84.9609	84.8869	84.9609	85.9206	84.9609	84.8726	84.9609	86.0386	84.9609	84.8552	84.9609	86.1314	84.9609	84.8352	84.9609	86.1889	84.9609	84.8155	84.9609	86.2029	84.9609	84.8013	84.9609	86.1679	84.9609	84.7996	84.9609	86.0832	84.9609	84.8188	84.9609	85.9532	84.9609	84.8672	84.9609	85.7875	84.9609	84.951	84.9609	85.6004	84.9609	85.0722	84.9609	85.4083	84.9609	85.2277
87.8906	85.388	87.8906	85.3148	87.8906	85.4788	87.8906	85.2587	87.8906	85.5868	87.8906	85.2172	87.8906	85.7098	87.8906	85.1872	87.8906	85.844	87.8906	85.1648	87.8906	85.984	87.8906	85.1457	87.8906	86.1229	87.8906	85.1261	87.8906	86.2521	87.8906	85.1028	87.8906	86.3622	87.8906	85.0741	87.8906	86.4428	87.8906	85.0405	87.8906	86.4842	87.8906	85.0046	87.8906	86.4782	87.8906	84.9722	87.8906	86.4199	87.8906	84.9514	87.8906	86.3091	87.8906	84.9523	87.8906	86.1512	87.8906	84.9852	87.8906	85.9579	87.8906	85.0587	87.8906	85.7452	87.8906	85.177	87.8906	85.5324	87.8906	85.3379
90.8203	85.6592	90.8203	85.5821	90.8203	85.752	90.8203	85.5203	90.8203	85.8593	90.8203	85.4722	90.8203	85.9786	90.8203	85.4348	90.8203	86.1059	90.8203	85.4044	90.8203	86.2362	90.8203	85.3767	90.8203	86.3628	90.8203	85.3476	90.8203	86.4782	90.8203	85.3139	90.8203	86.5734	90.8203	85.2737	90.8203	86.6389	90.8203	85.2272	90.8203	86.6653	90.8203	85.1774	90.8203	86.6445	90.8203	85.13	90.8203	86.5718	90.8203	85.0937	90.8203	86.4469	90.8203	85.0795	90.8203	86.2756	90.8203	85.0988	90.8203	86.0701	90.8203	85.1615	90.8203	85.8476	90.8203	85.2728	90.8203	85.6281	90.8203	85.4313
95.2148	85.8913	95.2148	85.813	95.2148	85.9836	95.2148	85.7487	95.2148	86.0887	95.2148	85.6967	95.2148	86.2038	95.2148	85.654	95.2148	86.3251	95.2148	85.6168	95.2148	86.4476	95.2148	85.5807	95.2148	86.5649	95.2148	85.5416	95.2148	86.6698	95.2148	85.4962	95.2148	86.7536	95.2148	85.4426	95.2148	86.807	95.2148	85.3812	95.2148	86.8204	95.2148	85.3152	95.2148	86.7856	95.2148	85.2507	95.2148	86.6979	95.2148	85.197	95.2148	86.5571	95.2148	85.166	95.2148	86.3697	95.2148	85.1704	95.2148	86.1487	95.2148	85.2213	95.2148	85.9129	95.2148	85.3256	95.2148	85.6839	95.2148	85.4827
98.1445	85.9967	98.1445	85.914	98.1445	86.0918	98.1445	85.8437	98.1445	86.1981	98.1445	85.7846	98.1445	86.3132	98.1445	85.7339	98.1445	86.4336	98.1445	85.6885	98.1445	86.5548	98.1445	85.6443	98.1445	86.6712	98.1445	85.5976	98.1445	86.7759	98.1445	85.5455	98.1445	86.8603	98.1445	85.4863	98.1445	86.9147	98.1445	85.4206	98.1445	86.9292	98.1445	85.3514	98.1445	86.8949	98.1445	85.285	98.1445	86.8059	98.1445	85.2307	98.1445	86.6618	98.1445	85.2007	98.1445	86.4684	98.1445	85.2077	98.1445	86.239	98.1445	85.2635	98.1445	85.993	98.1445	85.3748	98.1445	85.753	98.1445	85.5411
101.074	86.0562	101.074	85.9647	101.074	86.1601	101.074	85.8865	101.074	86.2744	101.074	85.8211	101.074	86.3964	101.074	85.7663	101.074	86.5223	101.074	85.7192	101.074	86.6476	101.074	85.6757	101.074	86.767	101.074	85.6318	101.074	86.8738	101.074	85.584	101.074	86.9596	101.074	85.5298	101.074	87.0151	101.074	85.4691	101.074	87.0299	101.074	85.4045	101.074	86.9951	101.074	85.3415	101.074	86.9046	101.074	85.2896	101.074	86.7573	101.074	85.2608	101.074	86.5593	101.074	85.2686	101.074	86.3241	101.074	85.3253	101.074	86.0715	101.074	85.4386	101.074	85.8253	101.074	85.6084
105.469	86.5095	105.469	86.4136	105.469	86.6137	105.469	86.3278	105.469	86.7235	105.469	86.2525	105.469	86.8355	105.469	86.1865	105.469	86.9457	105.469	86.1273	105.469	87.0497	105.469	86.0707	105.469	87.1427	105.469	86.0124	105.469	87.2184	105.469	85.948	105.469	87.2696	105.469	85.874	105.469	87.2876	105.469	85.7893	105.469	87.2632	105.469	85.6956	105.469	87.1884	105.469	85.5984	105.469	87.0581	105.469	85.5076	105.469	86.8729	105.469	85.4366	105.469	86.641	105.469	85.4018	105.469	86.3785	105.469	85.4191	105.469	86.1085	105.469	85.5	105.469	85.857	105.469	85.6484
108.398	86.8574	108.398	86.7662	108.398	86.9519	108.398	86.6796	108.398	87.0475	108.398	86.598	108.398	87.1412	108.398	86.5202	108.398	87.2301	108.398	86.444	108.398	87.3106	108.398	86.3658	108.398	87.3789	108.398	86.2821	108.398	87.43	108.398	86.1894	108.398	87.4574	108.398	86.0854	108.398	87.4534	108.398	85.9702	108.398	87.409	108.398	85.8466	108.398	87.3162	108.398	85.7215	108.398	87.1698	108.398	85.6056	108.398	86.97	108.398	85.5139	108.398	86.7246	108.398	85.4632	108.398	86.4498	108.398	85.4701	108.398	86.169	108.398	85.5464	108.398	85.9091	108.398	85.6954
112.793	86.9876	112.793	86.8928	112.793	87.0836	112.793	86.8006	112.793	87.1789	112.793	86.7116	112.793	87.2707	112.793	86.6248	112.793	87.3566	112.793	86.5385	112.793	87.4338	112.793	86.4498	112.793	87.4991	112.793	86.3558	112.793	87.5481	112.793	86.2538	112.793	87.575	112.793	86.1425	112.793	87.5719	112.793	86.0225	112.793	87.5297	112.793	85.8974	112.793	87.44	112.793	85.7744	112.793	87.2968	112.793	85.6643	112.793	87.0997	112.793	85.5815	112.793	86.8557	112.793	85.5421	112.793	86.5805	112.793	85.5614	112.793	86.2969	112.793	85.6498	112.793	86.0314	112.793	85.8094
117.188	87.0922	117.188	86.9886	117.188	87.1955	117.188	86.8864	117.188	87.2959	117.188	86.7859	117.188	87.3906	117.188	86.6863	117.188	87.4767	117.188	86.5855	117.188	87.5509	117.188	86.4805	117.188	87.6098	117.188	86.3678	117.188	87.6484	117.188	86.2448	117.188	87.6603	117.188	86.1099	117.188	87.6373	117.188	85.9642	117.188	87.5701	117.188	85.8117	117.188	87.4501	117.188	85.6605	117.188	87.2721	117.188	85.5227	117.188	87.0371	117.188	85.4143	117.188	86.7543	117.188	85.3534	117.188	86.4422	117.188	85.3575	117.188	86.1268	117.188	85.4391	117.188	85.8376	117.188	85.6019
120.117	87.1655	120.117	87.0751	120.117	87.2558	120.117	86.9857	120.117	87.3445	120.117	86.8973	120.117	87.4295	120.117	86.8085	120.117	87.5086	120.117	86.7168	120.117	87.5795	120.117	86.6188	120.117	87.6387	120.117	86.5108	120.117	87.6812	120.117	86.3898	120.117	87.6999	120.117	86.254	120.117	87.6852	120.117	86.1044	120.117	87.6263	120.117	85.945	120.117	87.5133	120.117	85.7842	120.117	87.3398	120.117	85.6347	120.117	87.1061	120.117	85.5133	120.117	86.8217	120.117	85.4393	120.117	86.5062	120.117	85.4315	120.117	86.1871	120.117	85.5041	120.117	85.8959	120.117	85.6615
124.512	87.1691	124.512	87.0714	124.512	87.2702	124.512	86.9789	124.512	87.3723	124.512	86.892	124.512	87.4727	124.512	86.8099	124.512	87.5686	124.512	86.73	124.512	87.6573	124.512	86.6488	124.512	87.7355	124.512	86.562	124.512	87.7985	124.512	86.4659	124.512	87.8393	124.512	86.3579	124.512	87.8486	124.512	86.2378	124.512	87.8152	124.512	86.1086	124.512	87.728	124.512	85.9777	124.512	87.5796	124.512	85.8565	124.512	87.3688	124.512	85.7608	124.512	87.1038	124.512	85.7091	124.512	86.803	124.512	85.7193	124.512	86.4934	124.512	85.8047	124.512	86.206	124.512	85.9697
128.906	87.2193	128.906	87.1204	128.906	87.3216	128.906	87.0271	128.906	87.4241	128.906	86.9406	128.906	87.5237	128.906	86.8601	128.906	87.6172	128.906	86.7832	128.906	87.7021	128.906	86.7061	128.906	87.7752	128.906	86.6241	128.906	87.8323	128.906	86.5329	128.906	87.867	128.906	86.4294	128.906	87.8702	128.906	86.3129	128.906	87.8312	128.906	86.1859	128.906	87.7393	128.906	86.0553	128.906	87.5872	128.906	85.9323	128.906	87.3741	128.906	85.8325	128.906	87.109	128.906	85.774	128.906	86.8109	128.906	85.7751	128.906	86.507	128.906	85.8496	128.906	86.2283	128.906	86.0029
133.301	87.2034	133.301	87.0894	133.301	87.3195	133.301	86.9808	133.301	87.4337	133.301	86.8797	133.301	87.5421	133.301	86.7862	133.301	87.6417	133.301	86.6984	133.301	87.7302	133.301	86.6125	133.301	87.805	133.301	86.5241	133.301	87.8626	133.301	86.4286	133.301	87.8969	133.301	86.3228	133.301	87.8987	133.301	86.2058	133.301	87.8568	133.301	86.0801	133.301	87.7599	133.301	85.9526	133.301	87.6003	133.301	85.8343	133.301	87.3772	133.301	85.7405	133.301	87.0999	133.301	85.6891	133.301	86.7885	133.301	85.698	133.301	86.4713	133.301	85.781	133.301	86.1803	133.301	85.9439
139.16	87.2004	139.16	87.0827	139.16	87.3173	139.16	86.9683	139.16	87.4295	139.16	86.8598	139.16	87.5335	139.16	86.758	139.16	87.6271	139.16	86.6612	139.16	87.7092	139.16	86.5658	139.16	87.7787	139.16	86.4672	139.16	87.833	139.16	86.3607	139.16	87.8666	139.16	86.2431	139.16	87.87	139.16	86.1139	139.16	87.8308	139.16	85.9765	139.16	87.7363	139.16	85.8387	139.16	87.5767	139.16	85.713	139.16	87.3501	139.16	85.6158	139.16	87.065	139.16	85.5656	139.16	86.7416	139.16	85.5805	139.16	86.4096	139.16	85.6739	139.16	86.1024	139.16	85.8504
143.555	87.132	143.555	87.0064	143.555	87.2548	143.555	86.8824	143.555	87.3705	143.555	86.7637	143.555	87.4757	143.555	86.6517	143.555	87.5686	143.555	86.5455	143.555	87.6485	143.555	86.442	143.555	87.7147	143.555	86.3366	143.555	87.7652	143.555	86.2244	143.555	87.7949	143.555	86.1021	143.555	87.7947	143.555	85.969	143.555	87.7523	143.555	85.8285	143.555	87.6547	143.555	85.6888	143.555	87.4921	143.555	85.5629	143.555	87.262	143.555	85.4676	143.555	86.9726	143.555	85.4218	143.555	86.6439	143.555	85.4432	143.555	86.3052	143.555	85.5447	143.555	85.9904	143.555	85.7298
147.949	87.1161	147.949	86.9822	147.949	87.2429	147.949	86.8463	147.949	87.3584	147.949	86.7126	147.949	87.4598	147.949	86.584	147.949	87.5461	147.949	86.4613	147.949	87.6179	147.949	86.3429	147.949	87.676	147.949	86.2256	147.949	87.7197	147.949	86.1056	147.949	87.745	147.949	85.9799	147.949	87.7433	147.949	85.8482	147.949	87.7021	147.949	85.7133	147.949	87.6078	147.949	85.5828	147.949	87.4495	147.949	85.4685	147.949	87.2235	147.949	85.3861	147.949	86.9373	147.949	85.3531	147.949	86.6103	147.949	85.3861	147.949	86.2715	147.949	85.497	147.949	85.9544	147.949	85.6893
153.809	87.1165	153.809	86.9798	153.809	87.239	153.809	86.8341	153.809	87.3431	153.809	86.6846	153.809	87.4263	153.809	86.5349	153.809	87.4887	153.809	86.3864	153.809	87.5323	153.809	86.2383	153.809	87.5593	153.809	86.0882	153.809	87.5711	153.809	85.9334	153.809	87.5654	153.809	85.7723	153.809	87.5357	153.809	85.6063	153.809	87.4709	153.809	85.4409	153.809	87.3584	153.809	85.2861	153.809	87.1877	153.809	85.1563	153.809	86.9552	153.809	85.0687	153.809	86.6671	153.809	85.04	153.809	86.3409	153.809	85.0841	153.809	86.0031	153.809	85.2085	153.809	85.6841	153.809	85.4122
159.668	87.0513	159.668	86.9144	159.668	87.1794	159.668	86.7746	159.668	87.2934	159.668	86.6372	159.668	87.3902	159.668	86.5058	159.668	87.469	159.668	86.3807	159.668	87.531	159.668	86.2596	159.668	87.578	159.668	86.1377	159.668	87.6102	159.668	86.0094	159.668	87.6233	159.668	85.8703	159.668	87.608	159.668	85.7192	159.668	87.5501	159.668	85.5591	159.668	87.4343	159.668	85.3989	159.668	87.2495	159.668	85.2529	159.668	86.9939	159.668	85.14	159.668	86.6781	159.668	85.0805	159.668	86.3255	159.668	85.0931	159.668	85.9686	159.668	85.1904	159.668	85.6421	159.668	85.3761
165.527	87.0799	165.527	86.9465	165.527	87.2037	165.527	86.8101	165.527	87.3125	165.527	86.6772	165.527	87.4031	165.527	86.5528	165.527	87.4754	165.527	86.4392	165.527	87.5315	165.527	86.3358	165.527	87.5752	165.527	86.2394	165.527	87.6088	165.527	86.1456	165.527	87.6313	165.527	86.0503	165.527	87.6355	165.527	85.9517	165.527	87.6089	165.527	85.8513	165.527	87.5362	165.527	85.7548	165.527	87.4051	165.527	85.672	165.527	87.2113	165.527	85.6155	165.527	86.9627	165.527	85.5989	165.527	86.6788	165.527	85.6348	165.527	86.3876	165.527	85.7324	165.527	86.1184	165.527	85.8951
171.387	87.1848	171.387	87.044	171.387	87.3065	171.387	86.8918	171.387	87.4025	171.387	86.7353	171.387	87.4688	171.387	86.58	171.387	87.5043	171.387	86.4285	171.387	87.5111	171.387	86.2805	171.387	87.4934	171.387	86.1342	171.387	87.4554	171.387	85.9873	171.387	87.3994	171.387	85.839	171.387	87.3234	171.387	85.6913	171.387	87.2207	171.387	85.5499	171.387	87.0828	171.387	85.4235	171.387	86.9028	171.387	85.3226	171.387	86.6808	171.387	85.2575	171.387	86.4266	171.387	85.2366	171.387	86.1584	171.387	85.2654	171.387	85.8988	171.387	85.347	171.387	85.6686	171.387	85.4821
177.246	86.8436	177.246	86.7058	177.246	86.965	177.246	86.5592	177.246	87.0633	177.246	86.4101	177.246	87.134	177.246	86.2618	177.246	87.1758	177.246	86.114	177.246	87.1908	177.246	85.9628	177.246	87.1835	177.246	85.8025	177.246	87.1571	177.246	85.628	177.246	87.1111	177.246	85.4373	177.246	87.0384	177.246	85.2339	177.246	86.9265	177.246	85.0278	177.246	86.7617	177.246	84.835	177.246	86.5355	177.246	84.6744	177.246	86.2507	177.246	84.5637	177.246	85.9244	177.246	84.5151	177.246	85.5851	177.246	84.5338	177.246	85.2646	177.246	84.6198	177.246	84.9887	177.246	84.772
183.105	86.569	183.105	86.3948	183.105	86.7197	183.105	86.209	183.105	86.8382	183.105	86.0234	183.105	86.92	183.105	85.8477	183.105	86.9663	183.105	85.687	183.105	86.9836	183.105	85.5412	183.105	86.9814	183.105	85.4053	183.105	86.9685	183.105	85.2725	183.105	86.9479	183.105	85.1361	183.105	86.914	183.105	84.9936	183.105	86.8515	183.105	84.8481	183.105	86.7408	183.105	84.7092	183.105	86.5657	183.105	84.5918	183.105	86.321	183.105	84.5125	183.105	86.0177	183.105	84.4862	183.105	85.6821	183.105	84.5232	183.105	85.3483	183.105	84.6291	183.105	85.0486	183.105	84.8052
188.965	86.5737	188.965	86.3969	188.965	86.7178	188.965	86.199	188.965	86.8206	188.965	85.9921	188.965	86.878	188.965	85.7863	188.965	86.8914	188.965	85.5881	188.965	86.8678	188.965	85.3993	188.965	86.8173	188.965	85.2175	188.965	86.7502	188.965	85.0392	188.965	86.6719	188.965	84.8617	188.965	86.5801	188.965	84.6864	188.965	86.4642	188.965	84.5199	188.965	86.31	188.965	84.374	188.965	86.1063	188.965	84.263	188.965	85.8528	188.965	84.1997	188.965	85.5623	188.965	84.1922	188.965	85.2588	188.965	84.2421	188.965	84.9691	188.965	84.3476	188.965	84.7142	188.965	84.5056
196.289	86.7305	196.289	86.5606	196.289	86.8611	196.289	86.3625	196.289	86.9456	196.289	86.1487	196.289	86.9822	196.289	85.9308	196.289	86.9753	196.289	85.7168	196.289	86.9342	196.289	85.5094	196.289	86.871	196.289	85.3064	196.289	86.7958	196.289	85.1028	196.289	86.7121	196.289	84.894	196.289	86.6123	196.289	84.6799	196.289	86.4785	196.289	84.4668	196.289	86.2891	196.289	84.2675	196.289	86.0288	196.289	84.099	196.289	85.6989	196.289	83.9775	196.289	85.322	196.289	83.9139	196.289	84.9378	196.289	83.9127	196.289	84.5896	196.289	83.9752	196.289	84.3083	196.289	84.1048
203.613	86.7637	203.613	86.595	203.613	86.8889	203.613	86.3924	203.613	86.9645	203.613	86.1669	203.613	86.9884	203.613	85.9289	203.613	86.9635	203.613	85.6864	203.613	86.8973	203.613	85.4431	203.613	86.8011	203.613	85.1997	203.613	86.6873	203.613	84.9551	203.613	86.5651	203.613	84.7101	203.613	86.4363	203.613	84.4709	203.613	86.2927	203.613	84.2502	203.613	86.1188	203.613	84.0662	203.613	85.9	203.613	83.9376	203.613	85.632	203.613	83.8773	203.613	85.3269	203.613	83.8868	203.613	85.0107	203.613	83.9581	203.613	84.7133	203.613	84.0799	203.613	84.4561	203.613	84.2456
210.938	86.5821	210.938	86.4059	210.938	86.7149	210.938	86.1961	210.938	86.797	210.938	85.964	210.938	86.8255	210.938	85.7194	210.938	86.8028	210.938	85.4687	210.938	86.7366	210.938	85.2141	210.938	86.6387	210.938	84.9538	210.938	86.521	210.938	84.6845	210.938	86.3904	210.938	84.4051	210.938	86.2444	210.938	84.1209	210.938	86.0696	210.938	83.8459	210.938	85.8479	210.938	83.6028	210.938	85.5661	210.938	83.418	210.938	85.2262	210.938	83.3124	210.938	84.8505	210.938	83.2931	210.938	84.4758	210.938	83.3511	210.938	84.1387	210.938	83.4702	210.938	83.8595	210.938	83.6393
218.262	86.3153	218.262	86.1269	218.262	86.4636	218.262	85.912	218.262	86.5613	218.262	85.685	218.262	86.6034	218.262	85.4572	218.262	86.5922	218.262	85.2349	218.262	86.5368	218.262	85.0182	218.262	86.4517	218.262	84.8018	218.262	86.3523	218.262	84.5788	218.262	86.2484	218.262	84.3446	218.262	86.1374	218.262	84.1013	218.262	86.003	218.262	83.8602	218.262	85.8207	218.262	83.6418	218.262	85.5706	218.262	83.4713	218.262	85.2505	218.262	83.3702	218.262	84.8822	218.262	83.3477	218.262	84.5065	218.262	83.3982	218.262	84.1661	218.262	83.5085	218.262	83.8865	218.262	83.6702
225.586	86.2608	225.586	86.0395	225.586	86.4245	225.586	85.777	225.586	86.5199	225.586	85.4931	225.586	86.5432	225.586	85.208	225.586	86.4984	225.586	84.9383	225.586	86.3972	225.586	84.6929	225.586	86.2581	225.586	84.4724	225.586	86.1032	225.586	84.2705	225.586	85.9511	225.586	84.0791	225.586	85.8096	225.586	83.8943	225.586	85.6697	225.586	83.7205	225.586	85.5098	225.586	83.5723	225.586	85.3074	225.586	83.4698	225.586	85.0539	225.586	83.4302	225.586	84.7635	225.586	83.4578	225.586	84.4687	225.586	83.5414	225.586	84.2039	225.586	83.6626	225.586	83.9858	225.586	83.8096
232.91	86.2927	232.91	86.0834	232.91	86.4411	232.91	85.8267	232.91	86.5193	232.91	85.5395	232.91	86.524	232.91	85.2401	232.91	86.4579	232.91	84.9444	232.91	86.3297	232.91	84.6638	232.91	86.154	232.91	84.4023	232.91	85.9486	232.91	84.1571	232.91	85.7303	232.91	83.9223	232.91	85.5087	232.91	83.6944	232.91	85.2813	232.91	83.4781	232.91	85.036	232.91	83.2893	232.91	84.7606	232.91	83.1513	232.91	84.4569	232.91	83.0838	232.91	84.1465	232.91	83.0901	232.91	83.8647	232.91	83.1528	232.91	83.6398	232.91	83.2456	232.91	83.4753	232.91	83.3514
241.699	86.033	241.699	85.7875	241.699	86.2237	241.699	85.5059	241.699	86.3442	241.699	85.2084	241.699	86.3845	241.699	84.913	241.699	86.3411	241.699	84.633	241.699	86.218	241.699	84.3738	241.699	86.027	241.699	84.1322	241.699	85.787	241.699	83.8985	241.699	85.5188	241.699	83.6605	241.699	85.2372	241.699	83.4109	241.699	84.9429	241.699	83.1532	241.699	84.6228	241.699	82.9057	241.699	84.263	241.699	82.6985	241.699	83.8668	241.699	82.5606	241.699	83.4672	241.699	82.5032	241.699	83.1183	241.699	82.5114	241.699	82.8641	241.699	82.556	241.699	82.7085	241.699	82.6181
250.488	85.7469	250.488	85.4422	250.488	85.9953	250.488	85.1052	250.488	86.168	250.488	84.7615	250.488	86.2514	250.488	84.4351	250.488	86.2381	250.488	84.1434	250.488	86.1287	250.488	83.8935	250.488	85.9316	250.488	83.6807	250.488	85.6629	250.488	83.4903	250.488	85.3423	250.488	83.3031	250.488	84.9861	250.488	83.1021	250.488	84.6006	250.488	82.8799	250.488	84.1813	250.488	82.6439	250.488	83.7236	250.488	82.4167	250.488	83.2398	250.488	82.2276	250.488	82.773	250.488	82.0969	250.488	82.3874	250.488	82.0233	250.488	82.1334	250.488	81.9881	250.488	82.0117	250.488	81.9787
259.277	85.6305	259.277	85.2843	259.277	85.9127	259.277	84.9037	259.277	86.1103	259.277	84.5239	259.277	86.2135	259.277	84.1794	259.277	86.2235	259.277	83.8957	259.277	86.1509	259.277	83.6817	259.277	86.0125	259.277	83.5268	259.277	85.8253	259.277	83.405	259.277	85.5996	259.277	83.2839	259.277	85.333	259.277	83.1351	259.277	85.009	259.277	82.9432	259.277	84.6052	259.277	82.7109	259.277	84.1083	259.277	82.4594	259.277	83.5334	259.277	82.2199	259.277	82.9362	259.277	82.0205	259.277	82.4047	259.277	81.874	259.277	82.0206	259.277	81.7813	259.277	81.8127	259.277	81.75
268.066	85.135	268.066	84.7967	268.066	85.3961	268.066	84.4039	268.066	85.5667	268.066	83.988	268.066	85.6434	268.066	83.587	268.066	85.6328	268.066	83.239	268.066	85.5504	268.066	82.9715	268.066	85.4182	268.066	82.7903	268.066	85.2568	268.066	82.6759	268.066	85.0749	268.066	82.5919	268.066	84.8601	268.066	82.5007	268.066	84.5781	268.066	82.3788	268.066	84.1871	268.066	82.2244	268.066	83.6629	268.066	82.0562	268.066	83.0294	268.066	81.9009	268.066	82.3775	268.066	81.7758	268.066	81.8451	268.066	81.6773	268.066	81.5384	268.066	81.5874	268.066	81.4538	268.066	81.5002
276.855	85.2609	276.855	84.8928	276.855	85.5144	276.855	84.4267	276.855	85.6479	276.855	83.8922	276.855	85.6664	276.855	83.331	276.855	85.5839	276.855	82.79	276.855	85.4232	276.855	82.3083	276.855	85.2136	276.855	81.9009	276.855	84.9837	276.855	81.5531	276.855	84.7489	276.855	81.2291	276.855	84.4967	276.855	80.8924	276.855	84.1808	276.855	80.5257	276.855	83.7324	276.855	80.1415	276.855	83.0858	276.855	79.7794	276.855	82.213	276.855	79.4855	276.855	81.1668	276.855	79.28	276.855	80.1206	276.855	79.1385	276.855	79.3325	276.855	79.0176	276.855	78.9609	276.855	78.9205
287.109	86.9414	287.109	86.6081	287.109	87.1276	287.109	86.1331	287.109	87.1676	287.109	85.5285	287.109	87.0692	287.109	84.8168	287.109	86.85	287.109	84.0355	287.109	86.5405	287.109	83.241	287.109	86.1867	287.109	82.5035	287.109	85.8465	287.109	81.8863	287.109	85.5733	287.109	81.4143	287.109	85.3866	287.109	81.058	287.109	85.2493	287.109	80.751	287.109	85.0744	287.109	80.4273	287.109	84.7598	287.109	80.051	287.109	84.2253	287.109	79.6327	287.109	83.4375	287.109	79.2356	287.109	82.4255	287.109	78.974	287.109	81.2933	287.109	78.9921	287.109	80.2181	287.109	79.4054
297.363	87.9405	297.363	87.7428	297.363	88.0377	297.363	87.4437	297.363	88.0366	297.363	87.0441	297.363	87.9418	297.363	86.5489	297.363	87.7632	297.363	85.9711	297.363	87.5191	297.363	85.3374	297.363	87.2383	297.363	84.6924	297.363	86.9578	297.363	84.0972	297.363	86.7131	297.363	83.6161	297.363	86.5233	297.363	83.2951	297.363	86.3783	297.363	83.1432	297.363	86.2412	297.363	83.1338	297.363	86.0678	297.363	83.2234	297.363	85.8292	297.363	83.3721	297.363	85.5248	297.363	83.5533	297.363	85.18	297.363	83.7547	297.363	84.8312	297.363	83.9758	297.363	84.5082	297.363	84.2239
307.617	87.0059	307.617	86.8106	307.617	87.1246	307.617	86.5437	307.617	87.1622	307.617	86.2106	307.617	87.1171	307.617	85.8162	307.617	86.9929	307.617	85.3664	307.617	86.8023	307.617	84.8698	307.617	86.5702	307.617	84.341	307.617	86.3336	307.617	83.8034	307.617	86.1329	307.617	83.2909	307.617	85.9936	307.617	82.8479	307.617	85.9049	307.617	82.524	307.617	85.8172	307.617	82.3617	307.617	85.6658	307.617	82.3777	307.617	85.4067	307.617	82.5492	307.617	85.0433	307.617	82.8178	307.617	84.6283	307.617	83.1148	307.617	84.2357	307.617	83.3928	307.617	83.912	307.617	83.6465
319.336	85.767	319.336	85.4745	319.336	85.9773	319.336	85.1227	319.336	86.0887	319.336	84.7366	319.336	86.0947	319.336	84.3392	319.336	86.0019	319.336	83.9495	319.336	85.8334	319.336	83.5827	319.336	85.6296	319.336	83.2528	319.336	85.4422	319.336	82.9738	319.336	85.3179	319.336	82.7575	319.336	85.2745	319.336	82.611	319.336	85.2867	319.336	82.5345	319.336	85.2976	319.336	82.5245	319.336	85.2488	319.336	82.578	319.336	85.1067	319.336	82.6933	319.336	84.8723	319.336	82.8662	319.336	84.5733	319.336	83.0866	319.336	84.2477	319.336	83.3418	319.336	83.9257	319.336	83.6225
329.59	85.6403	329.59	85.4065	329.59	85.7798	329.59	85.0932	329.59	85.8166	329.59	84.7189	329.59	85.7506	329.59	84.3012	329.59	85.591	329.59	83.8543	329.59	85.3574	329.59	83.3897	329.59	85.0804	329.59	82.9219	329.59	84.8001	329.59	82.4758	329.59	84.5581	329.59	82.0902	329.59	84.3796	329.59	81.8127	329.59	84.2554	329.59	81.6826	329.59	84.1422	329.59	81.7118	329.59	83.9929	329.59	81.8776	329.59	83.7932	329.59	82.1331	329.59	83.5751	329.59	82.4242	329.59	83.3919	329.59	82.7016	329.59	83.2702	329.59	82.9279	329.59	83.1856	329.59	83.0855
341.309	85.6041	341.309	85.3665	341.309	85.7356	341.309	85.0504	341.309	85.7436	341.309	84.6913	341.309	85.6235	341.309	84.3264	341.309	85.387	341.309	83.9848	341.309	85.0664	341.309	83.6777	341.309	84.7161	341.309	83.398	341.309	84.4028	341.309	83.1281	341.309	84.1817	341.309	82.855	341.309	84.064	341.309	82.5821	341.309	84.0023	341.309	82.3355	341.309	83.9175	341.309	82.1609	341.309	83.7485	341.309	82.1048	341.309	83.4909	341.309	82.1852	341.309	83.2053	341.309	82.3698	341.309	82.9836	341.309	82.5867	341.309	82.8797	341.309	82.7596	341.309	82.8626	341.309	82.8464
353.027	85.3509	353.027	84.9797	353.027	85.5767	353.027	84.4901	353.027	85.647	353.027	83.9273	353.027	85.5635	353.027	83.352	353.027	85.3368	353.027	82.8278	353.027	84.9859	353.027	82.4039	353.027	84.5435	353.027	82.1014	353.027	84.069	353.027	81.9145	353.027	83.657	353.027	81.8249	353.027	83.4092	353.027	81.818	353.027	83.3617	353.027	81.8903	353.027	83.4387	353.027	82.0428	353.027	83.5032	353.027	82.2659	353.027	83.4526	353.027	82.5264	353.027	83.2757	353.027	82.7704	353.027	83.0557	353.027	82.9405	353.027	82.9117	353.027	83.0009	353.027	82.8991	353.027	82.9633
366.211	85.5447	366.211	85.3168	366.211	85.6365	366.211	84.9605	366.211	85.587	366.211	84.4861	366.211	85.3952	366.211	83.911	366.211	85.0685	366.211	83.2686	366.211	84.6277	366.211	82.6169	366.211	84.1165	366.211	82.0385	366.211	83.608	366.211	81.6192	366.211	83.1935	366.211	81.4041	366.211	82.9381	366.211	81.3693	366.211	82.8344	366.211	81.4434	366.211	82.809	366.211	81.5596	366.211	82.7775	366.211	81.6885	366.211	82.6943	366.211	81.8307	366.211	82.5656	366.211	81.9868	366.211	82.434	366.211	82.1353	366.211	82.3453	366.211	82.2425	366.211	82.31	366.211	82.2927
379.395	86.4584	379.395	86.177	379.395	86.6073	379.395	85.7799	379.395	86.6077	379.395	85.2857	379.395	86.444	379.395	84.7146	379.395	86.1031	379.395	84.0887	379.395	85.58	379.395	83.4314	379.395	84.8903	379.395	82.7702	379.395	84.0885	379.395	82.1391	379.395	83.2924	379.395	81.5813	379.395	82.6773	379.395	81.1474	379.395	82.3871	379.395	80.8867	379.395	82.4071	379.395	80.8303	379.395	82.5825	379.395	80.9744	379.395	82.7616	379.395	81.2741	379.395	82.8751	379.395	81.6573	379.395	82.9167	379.395	82.0483	379.395	82.8957	379.395	82.3878	379.395	82.8092	379.395	82.6435
392.578	85.6665	392.578	85.3827	392.578	85.8464	392.578	85.0065	392.578	85.9131	392.578	84.5535	392.578	85.8563	392.578	84.0432	392.578	85.6646	392.578	83.4955	392.578	85.3291	392.578	82.929	392.578	84.8479	392.578	82.365	392.578	84.2341	392.578	81.839	392.578	83.5291	392.578	81.4082	392.578	82.8197	392.578	81.1446	392.578	82.2382	392.578	81.1061	392.578	81.9124	392.578	81.3039	392.578	81.8829	392.578	81.6917	392.578	82.0813	392.578	82.1815	392.578	82.397	392.578	82.6714	392.578	82.7402	392.578	83.07	392.578	83.0507	392.578	83.3145	392.578	83.2797	392.578	83.3802
405.762	85.9064	405.762	85.6149	405.762	86.0618	405.762	85.2133	405.762	86.0594	405.762	84.7236	405.762	85.8913	405.762	84.1618	405.762	85.5698	405.762	83.5425	405.762	85.1247	405.762	82.8848	405.762	84.5925	405.762	82.217	405.762	84.0065	405.762	81.5765	405.762	83.3952	405.762	81.0098	405.762	82.7872	405.762	80.5773	405.762	82.2141	405.762	80.357	405.762	81.7173	405.762	80.4227	405.762	81.368	405.762	80.788	405.762	81.2679	405.762	81.3652	405.762	81.4748	405.762	81.9985	405.762	81.9119	405.762	82.5349	405.762	82.4029	405.762	82.8697	405.762	82.7834	405.762	82.9532
420.41	86.1482	420.41	85.8421	420.41	86.3219	420.41	85.4204	420.41	86.356	420.41	84.9038	420.41	86.2515	420.41	84.3087	420.41	86.0108	420.41	83.6437	420.41	85.6325	420.41	82.9169	420.41	85.1144	420.41	82.1517	420.41	84.4679	420.41	81.4048	420.41	83.7323	420.41	80.7708	420.41	82.9789	420.41	80.3543	420.41	82.2856	420.41	80.2155	420.41	81.6969	420.41	80.3431	420.41	81.2318	420.41	80.6833	420.41	80.9627	420.41	81.172	420.41	81.0303	420.41	81.7298	420.41	81.4634	420.41	82.2508	420.41	82.0541	420.41	82.6167	420.41	82.5288	420.41	82.7269
435.059	85.9137	435.059	85.6897	435.059	85.9933	435.059	85.3399	435.059	85.9227	435.059	84.8907	435.059	85.7092	435.059	84.3672	435.059	85.3725	435.059	83.7835	435.059	84.9466	435.059	83.1417	435.059	84.4778	435.059	82.4437	435.059	84.0137	435.059	81.712	435.059	83.5819	435.059	81.0079	435.059	83.1722	435.059	80.4343	435.059	82.7388	435.059	80.1058	435.059	82.233	435.059	80.0918	435.059	81.6614	435.059	80.3709	435.059	81.1369	435.059	80.8368	435.059	80.8511	435.059	81.3434	435.059	80.9203	435.059	81.7511	435.059	81.2566	435.059	81.958	435.059	81.65	435.059	81.9173
451.172	86.1775	451.172	85.8194	451.172	86.3746	451.172	85.3362	451.172	86.3852	451.172	84.7675	451.172	86.2004	451.172	84.1453	451.172	85.8324	451.172	83.4797	451.172	85.3112	451.172	82.7524	451.172	84.6732	451.172	81.9293	451.172	83.9555	451.172	80.9936	451.172	83.2095	451.172	80.0043	451.172	82.5117	451.172	79.1692	451.172	81.9169	451.172	78.8282	451.172	81.3876	451.172	79.1729	451.172	80.8499	451.172	80.0083	451.172	80.4004	451.172	80.9871	451.172	80.394	451.172	81.8732	451.172	81.0185	451.172	82.549	451.172	81.9206	451.172	82.9437	451.172	82.6466	451.172	82.9934
465.82	86.3685	465.82	86.1702	465.82	86.3667	465.82	85.7775	465.82	86.1859	465.82	85.2188	465.82	85.8718	465.82	84.5365	465.82	85.4827	465.82	83.7763	465.82	85.0648	465.82	82.976	465.82	84.6266	465.82	82.1535	465.82	84.1312	465.82	81.2975	465.82	83.5223	465.82	80.3754	465.82	82.7747	465.82	79.3878	465.82	81.9405	465.82	78.492	465.82	81.1359	465.82	78.1041	465.82	80.442	465.82	78.587	465.82	79.8519	465.82	79.6893	465.82	79.4219	465.82	80.8319	465.82	79.4218	465.82	81.6293	465.82	80.0311	465.82	81.9182	465.82	80.9388	465.82	81.6609
483.398	85.8499	483.398	85.7145	483.398	85.8117	483.398	85.4141	483.398	85.6141	483.398	84.9813	483.398	85.2851	483.398	84.4568	483.398	84.864	483.398	83.8665	483.398	84.4102	483.398	83.2099	483.398	84.0017	483.398	82.4693	483.398	83.697	483.398	81.6329	483.398	83.4773	483.398	80.719	483.398	83.2319	483.398	79.8013	483.398	82.8139	483.398	79.0292	483.398	82.1227	483.398	78.6173	483.398	81.1772	483.398	78.7329	483.398	80.1906	483.398	79.318	483.398	79.5706	483.398	80.0942	483.398	79.6127	483.398	80.762	483.398	80.1421	483.398	81.129	483.398	80.7431	483.398	81.1165
499.512	86.0716	499.512	85.6653	499.512	86.3056	499.512	85.1433	499.512	86.3271	499.512	84.5816	499.512	86.1095	499.512	84.0571	499.512	85.6506	499.512	83.6053	499.512	84.9939	499.512	83.1964	499.512	84.243	499.512	82.7552	499.512	83.5554	499.512	82.2033	499.512	83.0776	499.512	81.4911	499.512	82.8191	499.512	80.624	499.512	82.6076	499.512	79.7197	499.512	82.2175	499.512	79.0842	499.512	81.5275	499.512	79.1114	499.512	80.6434	499.512	79.8489	499.512	80.0008	499.512	80.8845	499.512	80.1112	499.512	81.7741	499.512	80.8782	499.512	82.2618	499.512	81.7284	499.512	82.2435
517.09	86.6777	517.09	86.2403	517.09	86.8421	517.09	85.5934	517.09	86.7105	517.09	84.8475	517.09	86.2945	517.09	84.1373	517.09	85.6428	517.09	83.5447	517.09	84.8441	517.09	83.0328	517.09	84.0256	517.09	82.4845	517.09	83.3433	517.09	81.7919	517.09	82.9274	517.09	80.9027	517.09	82.761	517.09	79.8506	517.09	82.6383	517.09	78.8416	517.09	82.3077	517.09	78.3184	517.09	81.6429	517.09	78.6574	517.09	80.7629	517.09	79.662	517.09	80.1052	517.09	80.804	517.09	80.1591	517.09	81.7006	517.09	80.8464	517.09	82.1677	517.09	81.6413	517.09	82.1387
536.133	86.5236	536.133	86.0756	536.133	86.6203	536.133	85.3202	536.133	86.3665	536.133	84.3728	536.133	85.7909	536.133	83.4462	536.133	84.9346	536.133	82.7963	536.133	83.845	536.133	82.5342	536.133	82.6214	536.133	82.5082	536.133	81.5348	536.133	82.4296	536.133	81.0591	536.133	82.0465	536.133	81.3837	536.133	81.2279	536.133	81.9894	536.133	80.0331	536.133	82.2224	536.133	78.8404	536.133	81.7566	536.133	78.3484	536.133	80.6297	536.133	78.8984	536.133	79.4021	536.133	79.9867	536.133	79.11	536.133	80.9806	536.133	79.916	536.133	81.5379	536.133	80.9204	536.133	81.5205
555.176	86.8965	555.176	86.5184	555.176	86.9209	555.176	85.7569	555.176	86.6455	555.176	84.6355	555.176	86.1328	555.176	83.2917	555.176	85.435	555.176	82.036	555.176	84.5664	555.176	81.2487	555.176	83.4848	555.176	81.0197	555.176	82.1289	555.176	81.032	555.176	80.6347	555.176	80.9036	555.176	79.6965	555.176	80.4234	555.176	79.9678	555.176	79.5772	555.176	80.7815	555.176	78.6112	555.176	81.2024	555.176	78.1614	555.176	80.8612	555.176	78.7984	555.176	79.8361	555.176	80.1105	555.176	78.8824	555.176	81.2762	555.176	79.2277	555.176	81.8221	555.176	80.5337	555.176	81.5651
574.219	87.1462	574.219	86.755	574.219	87.2153	574.219	86.0329	574.219	87.0017	574.219	85.0099	574.219	86.5644	574.219	83.7669	574.219	85.9689	574.219	82.4681	574.219	85.2557	574.219	81.3801	574.219	84.3931	574.219	80.735	574.219	83.2902	574.219	80.4821	574.219	81.9225	574.219	80.3334	574.219	80.4974	574.219	80.0286	574.219	79.5234	574.219	79.4601	574.219	79.4625	574.219	78.7275	574.219	80.0697	574.219	78.2336	574.219	80.6313	574.219	78.5129	574.219	80.6759	574.219	79.5067	574.219	80.2207	574.219	80.5294	574.219	79.8427	574.219	81.0174	574.219	80.1582	574.219	80.799
594.727	86.8559	594.727	86.6195	594.727	86.7377	594.727	86.038	594.727	86.3197	594.727	85.1662	594.727	85.7047	594.727	84.0782	594.727	84.9836	594.727	82.8484	594.727	84.1881	594.727	81.5563	594.727	83.2941	594.727	80.3347	594.727	82.2633	594.727	79.4068	594.727	81.1204	594.727	78.9283	594.727	80.0466	594.727	78.7175	594.727	79.3697	594.727	78.4143	594.727	79.2953	594.727	77.9351	594.727	79.6102	594.727	77.7276	594.727	79.9247	594.727	78.4271	594.727	80.1174	594.727	79.8316	594.727	80.3946	594.727	81.1429	594.727	80.935	594.727	81.8897	594.727	81.5792	594.727	81.9897
615.234	87.3623	615.234	87.1388	615.234	87.2348	615.234	86.528	615.234	86.8364	615.234	85.5596	615.234	86.2587	615.234	84.347	615.234	85.5572	615.234	83.0788	615.234	84.7129	615.234	81.9531	615.234	83.6527	615.234	81.0837	615.234	82.3436	615.234	80.4599	615.234	80.9342	615.234	79.9677	615.234	79.8486	615.234	79.4229	615.234	79.4773	615.234	78.6556	615.234	79.5545	615.234	77.6968	615.234	79.4478	615.234	77.0833	615.234	78.7743	615.234	77.6357	615.234	77.5889	615.234	79.0849	615.234	76.945	615.234	80.4296	615.234	78.1248	615.234	81.1224	615.234	79.8954	615.234	80.9705
637.207	87.5056	637.207	87.1976	637.207	87.4307	637.207	86.4677	637.207	87.0679	637.207	85.3546	637.207	86.5463	637.207	84.0243	637.207	85.9716	637.207	82.7951	637.207	85.3378	637.207	81.959	637.207	84.505	637.207	81.4703	637.207	83.3154	637.207	81.0498	637.207	81.7752	637.207	80.5645	637.207	80.2365	637.207	80.0615	637.207	79.3997	637.207	79.518	637.207	79.5339	637.207	78.8438	637.207	79.9944	637.207	78.228	637.207	80.0952	637.207	78.3491	637.207	79.5991	637.207	79.5712	637.207	79.0723	637.207	81.1328	637.207	79.7756	637.207	82.1612	637.207	81.2889	637.207	82.2398
659.18	87.6775	659.18	87.577	659.18	87.374	659.18	87.0205	659.18	86.7477	659.18	86.0092	659.18	85.8956	659.18	84.617	659.18	84.9234	659.18	83.0184	659.18	83.917	659.18	81.5388	659.18	82.9107	659.18	80.5344	659.18	81.891	659.18	79.9984	659.18	80.7975	659.18	79.5829	659.18	79.543	659.18	79.0301	659.18	78.2554	659.18	78.3725	659.18	77.6332	659.18	78.0014	659.18	78.0625	659.18	78.4221	659.18	78.545	659.18	79.563	659.18	78.0635	659.18	80.85	659.18	76.5621	659.18	81.7687	659.18	76.3475	659.18	81.9365	659.18	78.8352	659.18	81.0206
682.617	87.1639	682.617	87.2003	682.617	86.7926	682.617	86.8553	682.617	86.1855	682.617	86.102	682.617	85.511	682.617	84.9389	682.617	84.9212	682.617	83.4396	682.617	84.3901	682.617	81.7844	682.617	83.7229	682.617	80.2176	682.617	82.7417	682.617	79.0659	682.617	81.4057	682.617	78.6689	682.617	79.8347	682.617	78.6723	682.617	78.4009	682.617	78.2172	682.617	77.8281	682.617	77.1046	682.617	78.2176	682.617	76.2991	682.617	78.5577	682.617	77.3214	682.617	78.307	682.617	79.4887	682.617	77.7982	682.617	81.0919	682.617	77.7949	682.617	81.4795	682.617	78.9674	682.617	80.6092
707.52	86.8833	707.52	87.1736	707.52	86.3525	707.52	87.0051	707.52	85.9616	707.52	86.3676	707.52	85.7934	707.52	85.2994	707.52	85.5174	707.52	83.8209	707.52	84.9034	707.52	82.0542	707.52	84.0176	707.52	80.4003	707.52	82.9671	707.52	79.2395	707.52	81.6295	707.52	78.3232	707.52	79.8408	707.52	77.5422	707.52	78.1955	707.52	77.3335	707.52	78.0364	707.52	77.2546	707.52	78.6528	707.52	76.4647	707.52	78.6957	707.52	75.7348	707.52	78.5673	707.52	77.3374	707.52	79.1884	707.52	79.3584	707.52	79.743	707.52	79.9589	707.52	79.5944	707.52	79.6094
732.422	86.8545	732.422	87.1982	732.422	86.162	732.422	87.0529	732.422	85.284	732.422	86.4045	732.422	84.3959	732.422	85.3774	732.422	83.7372	732.422	84.1255	732.422	83.377	732.422	82.6893	732.422	83.0434	732.422	81.0969	732.422	82.4136	732.422	79.7935	732.422	81.3232	732.422	79.3017	732.422	79.7766	732.422	79.0941	732.422	78.0785	732.422	78.5565	732.422	77.1357	732.422	77.8709	732.422	77.4331	732.422	77.4498	732.422	77.7596	732.422	77.2963	732.422	77.0176	732.422	77.4632	732.422	75.1688	732.422	78.1472	732.422	75.0961	732.422	78.9081	732.422	77.5353	732.422	78.9374
757.324	87.002	757.324	87.7611	757.324	86.4656	757.324	88.069	757.324	86.5214	757.324	87.7141	757.324	86.5219	757.324	86.7751	757.324	85.8376	757.324	85.3398	757.324	84.4448	757.324	83.3357	757.324	82.8273	757.324	80.5853	757.324	81.536	757.324	77.4032	757.324	80.5516	757.324	75.6505	757.324	79.5474	757.324	75.9426	757.324	78.1797	757.324	76.7297	757.324	76.8059	757.324	77.5079	757.324	77.3288	757.324	78.0008	757.324	78.3903	757.324	78.6675	757.324	78.2682	757.324	80.0559	757.324	78.2019	757.324	81.1119	757.324	78.7233	757.324	80.9829	757.324	79.0823	757.324	79.9275
785.156	86.0418	785.156	86.6497	785.156	86.7057	785.156	87.8677	785.156	87.3111	785.156	88.5367	785.156	86.9112	785.156	88.244	785.156	85.5553	785.156	86.8668	785.156	84.0741	785.156	84.6393	785.156	83.468	785.156	82.3878	785.156	83.3335	785.156	80.589	785.156	82.7918	785.156	78.7065	785.156	81.4179	785.156	76.9495	785.156	79.2901	785.156	77.2064	785.156	78.2671	785.156	78.4036	785.156	78.6809	785.156	78.3752	785.156	78.1457	785.156	77.3394	785.156	77.5592	785.156	77.1074	785.156	78.32	785.156	78.6041	785.156	79.3463	785.156	80.2069	785.156	80.2436	785.156	80.7375
811.523	88.7637	811.523	86.7504	811.523	88.9894	811.523	84.7484	811.523	86.9773	811.523	85.7473	811.523	83.1879	811.523	87.4937	811.523	82.9903	811.523	88.0199	811.523	85.4429	811.523	87.2714	811.523	86.4105	811.523	85.7018	811.523	86.0557	811.523	84.0609	811.523	84.9123	811.523	82.8844	811.523	83.432	811.523	81.7996	811.523	81.7857	811.523	80.1314	811.523	79.8438	811.523	77.7689	811.523	78.3021	811.523	75.5549	811.523	78.5676	811.523	74.1366	811.523	78.9153	811.523	75.0719	811.523	77.5937	811.523	78.0687	811.523	74.6586	811.523	79.7748	811.523	75.6595	811.523	79.0122
840.82	87.8621	840.82	88.7768	840.82	85.063	840.82	87.7857	840.82	82.8921	840.82	85.4801	840.82	84.7994	840.82	84.331	840.82	86.3782	840.82	85.1616	840.82	86.3737	840.82	85.315	840.82	85.4491	840.82	83.9745	840.82	84.5729	840.82	81.0379	840.82	84.1841	840.82	76.279	840.82	83.7679	840.82	71.5885	840.82	82.5781	840.82	73.7439	840.82	80.1232	840.82	78.3904	840.82	75.1435	840.82	80.5168	840.82	67.0579	840.82	80.4467	840.82	76.4593	840.82	81.1831	840.82	79.9337	840.82	82.8643	840.82	79.355	840.82	82.2569	840.82	74.0035	840.82	77.2043
870.117	86.8229	870.117	88.8486	870.117	84.1073	870.117	88.7185	870.117	85.0014	870.117	86.5208	870.117	86.7383	870.117	83.2819	870.117	86.8712	870.117	82.3124	870.117	85.423	870.117	83.5046	870.117	82.7934	870.117	84.5218	870.117	79.8925	870.117	84.9445	870.117	78.2034	870.117	84.8204	870.117	78.3816	870.117	84.5759	870.117	79.2742	870.117	84.569	870.117	79.9267	870.117	84.1866	870.117	80.0601	870.117	83.0264	870.117	78.908	870.117	81.7913	870.117	75.0137	870.117	80.9153	870.117	73.0604	870.117	79.5437	870.117	77.8695	870.117	77.042	870.117	78.81	870.117	76.7794
900.879	85.179	900.879	86.905	900.879	86.6454	900.879	88.4332	900.879	87.8114	900.879	87.9463	900.879	86.7312	900.879	85.5479	900.879	83.5983	900.879	81.5575	900.879	80.9144	900.879	76.5466	900.879	82.163	900.879	73.9275	900.879	83.4919	900.879	77.4574	900.879	83.493	900.879	79.9119	900.879	82.6073	900.879	80.8191	900.879	80.8214	900.879	80.6622	900.879	77.6409	900.879	78.4657	900.879	73.9208	900.879	73.6939	900.879	75.8241	900.879	69.2626	900.879	78.8076	900.879	72.7744	900.879	79.2639	900.879	77.7503	900.879	78.5024	900.879	79.8287	900.879	78.3679	900.879	79.4393
933.105	86.8489	933.105	86.1412	933.105	87.1585	933.105	86.31	933.105	86.0877	933.105	86.6949	933.105	84.6737	933.105	86.3222	933.105	85.0266	933.105	84.9545	933.105	85.6459	933.105	82.7483	933.105	85.0607	933.105	80.1603	933.105	83.5648	933.105	77.7865	933.105	82.0667	933.105	76.237	933.105	80.9583	933.105	75.9257	933.105	79.7371	933.105	76.3873	933.105	78.2482	933.105	77.0123	933.105	76.6947	933.105	77.2775	933.105	75.9023	933.105	76.6758	933.105	77.3449	933.105	76.0527	933.105	78.8087	933.105	77.7942	933.105	79.3394	933.105	79.1525	933.105	78.5815	933.105	78.3973
965.332	87.2116	965.332	86.2422	965.332	87.23	965.332	85.9878	965.332	86.2869	965.332	86.233	965.332	85.9959	965.332	85.6636	965.332	86.063	965.332	84.3617	965.332	85.6511	965.332	82.9678	965.332	84.8942	965.332	81.0048	965.332	83.7804	965.332	77.0993	965.332	82.4401	965.332	70.2456	965.332	81.6852	965.332	68.5184	965.332	81.5152	965.332	71.1519	965.332	81.9979	965.332	73.0856	965.332	82.2376	965.332	75.2894	965.332	79.1925	965.332	76.3028	965.332	72.4615	965.332	75.9216	965.332	78.0985	965.332	76.1707	965.332	80.5695	965.332	76.3224	965.332	79.6134	965.332	76.4807
1,000.49	86.5673	1,000.49	87.225	1,000.49	86.9358	1,000.49	87.4214	1,000.49	87.8287	1,000.49	86.3401	1,000.49	87.3277	1,000.49	83.8584	1,000.49	84.9578	1,000.49	81.1081	1,000.49	82.7737	1,000.49	80.2133	1,000.49	82.919	1,000.49	80.6267	1,000.49	82.8088	1,000.49	80.2777	1,000.49	81.1668	1,000.49	77.8745	1,000.49	79.0767	1,000.49	74.3124	1,000.49	76.9657	1,000.49	75.3433	1,000.49	73.4716	1,000.49	79.7947	1,000.49	77.8026	1,000.49	81.6917	1,000.49	80.6915	1,000.49	81.5709	1,000.49	79.0286	1,000.49	79.7803	1,000.49	66.9272	1,000.49	76.0848	1,000.49	78.2425	1,000.49	70.4134	1,000.49	81.6687	1,000.49	77.9134
1,035.64	87.6932	1,035.64	86.643	1,035.64	87.5725	1,035.64	86.0317	1,035.64	86.4285	1,035.64	86.5997	1,035.64	86.2108	1,035.64	86.5793	1,035.64	86.576	1,035.64	85.1266	1,035.64	85.879	1,035.64	82.394	1,035.64	84.4755	1,035.64	77.895	1,035.64	82.6856	1,035.64	70.6607	1,035.64	80.3309	1,035.64	71.0339	1,035.64	78.9329	1,035.64	72.6317	1,035.64	80.2424	1,035.64	77.3235	1,035.64	80.8587	1,035.64	80.1033	1,035.64	79.1029	1,035.64	79.5895	1,035.64	75.1895	1,035.64	77.9444	1,035.64	75.9142	1,035.64	76.9558	1,035.64	77.2086	1,035.64	76.3358	1,035.64	74.4125	1,035.64	76.8104	1,035.64	75.9098	1,035.64	77.4756
1,072.27	86.3139	1,072.27	86.9911	1,072.27	87.463	1,072.27	87.2003	1,072.27	88.6609	1,072.27	85.9348	1,072.27	87.7199	1,072.27	83.5767	1,072.27	85.1288	1,072.27	81.7352	1,072.27	84.0806	1,072.27	81.43	1,072.27	84.2915	1,072.27	81.0744	1,072.27	83.261	1,072.27	80.3756	1,072.27	80.3038	1,072.27	79.9512	1,072.27	75.168	1,072.27	78.7934	1,072.27	71.2894	1,072.27	74.1452	1,072.27	70.7099	1,072.27	74.7649	1,072.27	71.2372	1,072.27	79.794	1,072.27	78.2947	1,072.27	79.2584	1,072.27	79.5999	1,072.27	77.4301	1,072.27	75.1747	1,072.27	74.3267	1,072.27	71.4041	1,072.27	73.1374	1,072.27	78.9029	1,072.27	78.3405
1,108.89	87.1302	1,108.89	85.1947	1,108.89	86.7892	1,108.89	83.5606	1,108.89	85.9187	1,108.89	84.8515	1,108.89	87.1478	1,108.89	85.0723	1,108.89	86.9679	1,108.89	83.4207	1,108.89	84.0707	1,108.89	81.7482	1,108.89	80.417	1,108.89	80.7549	1,108.89	79.8185	1,108.89	78.6992	1,108.89	80.9896	1,108.89	78.58	1,108.89	79.9519	1,108.89	80.6714	1,108.89	76.583	1,108.89	79.6321	1,108.89	78.3533	1,108.89	78.7824	1,108.89	77.5865	1,108.89	79.5662	1,108.89	69.7115	1,108.89	76.1308	1,108.89	76.5778	1,108.89	71.1192	1,108.89	78.4204	1,108.89	71.6481	1,108.89	74.5554	1,108.89	75.3134	1,108.89	74.2827	1,108.89	77.1562
1,148.44	85.8651	1,148.44	86.0149	1,148.44	86.0991	1,148.44	84.8086	1,148.44	87.1909	1,148.44	83.4023	1,148.44	87.34	1,148.44	83.4555	1,148.44	86.2958	1,148.44	82.5247	1,148.44	84.3712	1,148.44	80.112	1,148.44	81.2506	1,148.44	78.6066	1,148.44	77.8694	1,148.44	79.0366	1,148.44	76.2225	1,148.44	79.8026	1,148.44	73.4361	1,148.44	81.0083	1,148.44	73.0956	1,148.44	80.0039	1,148.44	78.3769	1,148.44	78.11	1,148.44	79.2822	1,148.44	77.3105	1,148.44	74.9311	1,148.44	73.337	1,148.44	64.4537	1,148.44	68.6811	1,148.44	77.193	1,148.44	72.0141	1,148.44	77.8884	1,148.44	76.5731	1,148.44	72.4398	1,148.44	76.77
1,189.45	85.4917	1,189.45	85.5761	1,189.45	85.9441	1,189.45	83.8799	1,189.45	87.4633	1,189.45	82.2663	1,189.45	87.6723	1,189.45	83.6428	1,189.45	85.6681	1,189.45	83.7747	1,189.45	81.4966	1,189.45	80.6458	1,189.45	78.1428	1,189.45	74.6267	1,189.45	76.0556	1,189.45	73.2575	1,189.45	74.6484	1,189.45	75.8062	1,189.45	73.7975	1,189.45	80.7647	1,189.45	71.5641	1,189.45	80.3091	1,189.45	78.6652	1,189.45	76.3769	1,189.45	80.7802	1,189.45	72.864	1,189.45	81.1082	1,189.45	69.6323	1,189.45	78.6381	1,189.45	77.1488	1,189.45	67.1867	1,189.45	77.4378	1,189.45	80.1143	1,189.45	75.1566	1,189.45	77.7728	1,189.45	66.6148
1,230.47	85.003	1,230.47	84.5983	1,230.47	87.0965	1,230.47	84.4833	1,230.47	87.6665	1,230.47	81.7393	1,230.47	85.362	1,230.47	80.5513	1,230.47	81.9841	1,230.47	83.1306	1,230.47	82.4911	1,230.47	82.9872	1,230.47	82.334	1,230.47	80.2044	1,230.47	79.1683	1,230.47	78.5844	1,230.47	74.9594	1,230.47	76.4266	1,230.47	75.2929	1,230.47	74.2401	1,230.47	75.8943	1,230.47	72.0743	1,230.47	72.0332	1,230.47	61.5058	1,230.47	67.5324	1,230.47	71.1018	1,230.47	76.6515	1,230.47	76.4693	1,230.47	78.4692	1,230.47	75.3749	1,230.47	68.8395	1,230.47	73.2477	1,230.47	72.864	1,230.47	71.2475	1,230.47	75.8876	1,230.47	72.5584
1,274.41	85.9807	1,274.41	84.7537	1,274.41	87.3744	1,274.41	83.516	1,274.41	87.3245	1,274.41	81.7893	1,274.41	84.9896	1,274.41	81.0165	1,274.41	82.4614	1,274.41	81.8976	1,274.41	81.5499	1,274.41	81.2814	1,274.41	80.545	1,274.41	77.5134	1,274.41	79.5557	1,274.41	70.3379	1,274.41	78.8266	1,274.41	59.9338	1,274.41	79.2369	1,274.41	67.5297	1,274.41	79.6066	1,274.41	68.548	1,274.41	77.171	1,274.41	64.2954	1,274.41	70.7027	1,274.41	73.7727	1,274.41	65.7685	1,274.41	75.4834	1,274.41	74.6593	1,274.41	74.21	1,274.41	70.2201	1,274.41	73.0031	1,274.41	72.7243	1,274.41	70.0354	1,274.41	76.1456	1,274.41	70.9629
1,319.82	86.8889	1,319.82	84.5233	1,319.82	87.6254	1,319.82	82.5992	1,319.82	86.5803	1,319.82	81.7301	1,319.82	85.3771	1,319.82	79.7221	1,319.82	83.1248	1,319.82	78.165	1,319.82	77.5109	1,319.82	78.4653	1,319.82	73.5606	1,319.82	76.7424	1,319.82	74.5133	1,319.82	73.0762	1,319.82	72.7202	1,319.82	73.1372	1,319.82	68.6707	1,319.82	76.684	1,319.82	68.6709	1,319.82	77.5332	1,319.82	69.7913	1,319.82	75.5927	1,319.82	74.3747	1,319.82	76.0259	1,319.82	75.3081	1,319.82	75.9464	1,319.82	67.0246	1,319.82	73.0208	1,319.82	67.1362	1,319.82	70.0535	1,319.82	73.9457	1,319.82	69.8637	1,319.82	76.2028	1,319.82	74.0575
1,366.7	87.4074	1,366.7	85.7782	1,366.7	87.9669	1,366.7	82.7063	1,366.7	87.6846	1,366.7	80.4947	1,366.7	85.6297	1,366.7	80.474	1,366.7	82.0639	1,366.7	80.3886	1,366.7	78.8008	1,366.7	79.5091	1,366.7	75.1853	1,366.7	77.0804	1,366.7	72.9806	1,366.7	73.4479	1,366.7	74.502	1,366.7	75.0174	1,366.7	75.5288	1,366.7	76.5514	1,366.7	74.7234	1,366.7	72.7176	1,366.7	71.7203	1,366.7	72.133	1,366.7	49.0628	1,366.7	75.5333	1,366.7	70.5571	1,366.7	75.3102	1,366.7	71.9561	1,366.7	72.0274	1,366.7	70.1078	1,366.7	67.1905	1,366.7	69.8458	1,366.7	63.8767	1,366.7	75.9357	1,366.7	74.4174
1,413.57	87.6341	1,413.57	85.3648	1,413.57	88.4727	1,413.57	83.0112	1,413.57	86.9986	1,413.57	80.5943	1,413.57	84.6222	1,413.57	79.8271	1,413.57	82.0986	1,413.57	80.4968	1,413.57	76.3984	1,413.57	79.8538	1,413.57	70.7106	1,413.57	78.8167	1,413.57	74.9761	1,413.57	78.769	1,413.57	77.5923	1,413.57	76.2899	1,413.57	76.4783	1,413.57	72.9492	1,413.57	73.4952	1,413.57	74.3896	1,413.57	73.3375	1,413.57	73.3071	1,413.57	67.8358	1,413.57	76.4451	1,413.57	69.7922	1,413.57	76.1362	1,413.57	71.3369	1,413.57	70.1117	1,413.57	63.8357	1,413.57	67.1928	1,413.57	70.6905	1,413.57	63.4352	1,413.57	76.9793	1,413.57	76.0309
1,463.38	87.3786	1,463.38	85.2473	1,463.38	88.1516	1,463.38	81.4783	1,463.38	87.2719	1,463.38	78.1217	1,463.38	84.0863	1,463.38	78.9468	1,463.38	77.9229	1,463.38	78.2404	1,463.38	76.837	1,463.38	75.4556	1,463.38	78.165	1,463.38	74.1878	1,463.38	76.3776	1,463.38	73.8557	1,463.38	74.1869	1,463.38	73.6635	1,463.38	75.1723	1,463.38	75.1508	1,463.38	76.0216	1,463.38	76.2472	1,463.38	73.2499	1,463.38	74.9465	1,463.38	68.5536	1,463.38	76.0788	1,463.38	67.0548	1,463.38	77.2213	1,463.38	73.8939	1,463.38	71.5368	1,463.38	61.6962	1,463.38	68.4137	1,463.38	74.0434	1,463.38	70.7277	1,463.38	75.6531	1,463.38	73.3786
1,516.11	86.7473	1,516.11	83.5545	1,516.11	87.6476	1,516.11	80.9786	1,516.11	85.9094	1,516.11	78.6971	1,516.11	83.417	1,516.11	77.766	1,516.11	79.319	1,516.11	78.8787	1,516.11	75.8627	1,516.11	77.2657	1,516.11	77.4167	1,516.11	76.813	1,516.11	75.706	1,516.11	76.3968	1,516.11	71.7229	1,516.11	75.2345	1,516.11	70.7279	1,516.11	76.142	1,516.11	71.4597	1,516.11	75.7622	1,516.11	75.45	1,516.11	68.9286	1,516.11	76.4305	1,516.11	67.1248	1,516.11	71.9918	1,516.11	73.2968	1,516.11	53.8576	1,516.11	74.7082	1,516.11	69.4949	1,516.11	61.1639	1,516.11	69.1694	1,516.11	59.9403	1,516.11	74.897	1,516.11	73.65
1,568.85	86.4182	1,568.85	83.2169	1,568.85	86.5371	1,568.85	79.0312	1,568.85	85.1624	1,568.85	78.4776	1,568.85	81.8337	1,568.85	76.5313	1,568.85	75.7321	1,568.85	75.8852	1,568.85	77.4915	1,568.85	76.4328	1,568.85	75.6622	1,568.85	76.1323	1,568.85	75.0514	1,568.85	75.296	1,568.85	75.5653	1,568.85	74.058	1,568.85	72.7838	1,568.85	70.9632	1,568.85	72.1265	1,568.85	73.7561	1,568.85	71.9419	1,568.85	74.6646	1,568.85	71.9836	1,568.85	62.862	1,568.85	67.2399	1,568.85	72.3867	1,568.85	64.5811	1,568.85	73.1884	1,568.85	68.1689	1,568.85	66.2723	1,568.85	65.5287	1,568.85	50.6545	1,568.85	74.8981	1,568.85	69.4378
1,624.51	85.836	1,624.51	83.1397	1,624.51	86.5249	1,624.51	78.5024	1,624.51	84.4158	1,624.51	75.9341	1,624.51	79.0128	1,624.51	78.3534	1,624.51	75.745	1,624.51	77.3878	1,624.51	76.6936	1,624.51	74.2857	1,624.51	76.4678	1,624.51	74.4684	1,624.51	76.1048	1,624.51	73.7828	1,624.51	76.5177	1,624.51	74.4672	1,624.51	74.7001	1,624.51	74.4373	1,624.51	72.5499	1,624.51	69.0327	1,624.51	70.7194	1,624.51	68.739	1,624.51	70.8173	1,624.51	66.0339	1,624.51	63.4646	1,624.51	73.0093	1,624.51	71.3585	1,624.51	74.3172	1,624.51	60.4973	1,624.51	57.4873	1,624.51	72.2135	1,624.51	66.4739	1,624.51	70.6872	1,624.51	70.8453
1,681.64	86.9628	1,681.64	83.6635	1,681.64	87.106	1,681.64	77.1182	1,681.64	84.6677	1,681.64	75.1309	1,681.64	79.6705	1,681.64	75.5774	1,681.64	76.135	1,681.64	77.5818	1,681.64	76.749	1,681.64	79.428	1,681.64	77.3537	1,681.64	78.1936	1,681.64	77.4667	1,681.64	77.2174	1,681.64	74.9801	1,681.64	75.5201	1,681.64	72.718	1,681.64	75.5003	1,681.64	70.2025	1,681.64	71.761	1,681.64	69.8453	1,681.64	68.741	1,681.64	70.8456	1,681.64	74.2822	1,681.64	68.8557	1,681.64	70.2919	1,681.64	68.5993	1,681.64	74.1958	1,681.64	64.9903	1,681.64	63.0376	1,681.64	66.953	1,681.64	62.0267	1,681.64	73.0253	1,681.64	69.4392
1,741.7	88.6473	1,741.7	85.4006	1,741.7	87.7077	1,741.7	78.958	1,741.7	83.7778	1,741.7	71.8589	1,741.7	78.2311	1,741.7	77.8439	1,741.7	76.1817	1,741.7	78.8186	1,741.7	80.9869	1,741.7	80.191	1,741.7	81.2728	1,741.7	79.3912	1,741.7	77.6603	1,741.7	76.8172	1,741.7	76.8931	1,741.7	75.7081	1,741.7	77.6398	1,741.7	74.5124	1,741.7	76.9964	1,741.7	71.4232	1,741.7	73.5856	1,741.7	72.6485	1,741.7	65.3173	1,741.7	72.4467	1,741.7	73.7041	1,741.7	63.1857	1,741.7	66.8669	1,741.7	65.1151	1,741.7	64.8844	1,741.7	64.4451	1,741.7	63.4131	1,741.7	66.1124	1,741.7	74.3928	1,741.7	73.4174
1,803.22	87.5261	1,803.22	84.6749	1,803.22	87.3237	1,803.22	77.783	1,803.22	83.6541	1,803.22	63.175	1,803.22	78.2555	1,803.22	75.5811	1,803.22	77.7669	1,803.22	77.9106	1,803.22	80.274	1,803.22	78.5043	1,803.22	80.448	1,803.22	75.3614	1,803.22	77.5753	1,803.22	74.7275	1,803.22	74.9502	1,803.22	73.8073	1,803.22	74.6492	1,803.22	71.4457	1,803.22	73.4743	1,803.22	69.1996	1,803.22	67.4951	1,803.22	73.1993	1,803.22	65.1523	1,803.22	73.7963	1,803.22	70.1358	1,803.22	71.1142	1,803.22	73.8617	1,803.22	65.9262	1,803.22	68.754	1,803.22	66.8089	1,803.22	59.7738	1,803.22	65.1726	1,803.22	72.5102	1,803.22	70.0483
1,866.21	87.4039	1,866.21	84.8251	1,866.21	86.1858	1,866.21	78.6497	1,866.21	82.7172	1,866.21	66.4857	1,866.21	75.8318	1,866.21	75.8292	1,866.21	79.5961	1,866.21	79.0991	1,866.21	81.1432	1,866.21	77.2216	1,866.21	79.9393	1,866.21	72.1639	1,866.21	76.0264	1,866.21	70.5215	1,866.21	71.1381	1,866.21	66.4558	1,866.21	66.3488	1,866.21	66.8344	1,866.21	65.7885	1,866.21	71.614	1,866.21	67.5924	1,866.21	68.7121	1,866.21	62.8691	1,866.21	73.6861	1,866.21	73.0465	1,866.21	68.979	1,866.21	65.645	1,866.21	64.8777	1,866.21	71.7592	1,866.21	49.5555	1,866.21	61.849	1,866.21	67.8602	1,866.21	72.5329	1,866.21	68.6385
1,932.13	86.1299	1,932.13	84.1267	1,932.13	85.3966	1,932.13	79.528	1,932.13	80.3718	1,932.13	53.8612	1,932.13	74.2309	1,932.13	77.3705	1,932.13	78.8845	1,932.13	77.351	1,932.13	81.6416	1,932.13	76.4085	1,932.13	81.7721	1,932.13	76.9521	1,932.13	78.0218	1,932.13	71.4655	1,932.13	75.0525	1,932.13	70.6305	1,932.13	72.6018	1,932.13	69.4395	1,932.13	69.8777	1,932.13	66.1125	1,932.13	69.0674	1,932.13	69.454	1,932.13	68.8129	1,932.13	70.1608	1,932.13	66.9052	1,932.13	67.0779	1,932.13	71.9873	1,932.13	63.0075	1,932.13	61.3371	1,932.13	64.2246	1,932.13	63.5236	1,932.13	67.0812	1,932.13	69.2503	1,932.13	70.7132
1,999.51	85.7419	1,999.51	83.8442	1,999.51	85.0164	1,999.51	79.2089	1,999.51	79.044	1,999.51	60.0464	1,999.51	72.7655	1,999.51	75.5822	1,999.51	79.874	1,999.51	77.8522	1,999.51	82.6076	1,999.51	77.6431	1,999.51	81.1754	1,999.51	74.7584	1,999.51	78.0983	1,999.51	74.2056	1,999.51	74.5576	1,999.51	69.3415	1,999.51	71.1133	1,999.51	68.5618	1,999.51	66.2914	1,999.51	67.6357	1,999.51	68.7349	1,999.51	67.0887	1,999.51	69.4191	1,999.51	68.2341	1,999.51	68.6398	1,999.51	67.9659	1,999.51	70.4844	1,999.51	63.1226	1,999.51	62.8136	1,999.51	63.1926	1,999.51	63.92	1,999.51	66.6442	1,999.51	68.2862	1,999.51	68.1052
2,069.82	86.3446	2,069.82	84.4955	2,069.82	84.6106	2,069.82	76.537	2,069.82	76.99	2,069.82	62.8072	2,069.82	75.9431	2,069.82	72.832	2,069.82	81.7377	2,069.82	78.4449	2,069.82	82.5114	2,069.82	77.9815	2,069.82	80.873	2,069.82	76.8385	2,069.82	77.4398	2,069.82	74.2898	2,069.82	74.6053	2,069.82	72.8658	2,069.82	68.6365	2,069.82	71.5276	2,069.82	53.3366	2,069.82	67.5826	2,069.82	64.5313	2,069.82	65.1405	2,069.82	67.0005	2,069.82	69.9487	2,069.82	65.9774	2,069.82	66.9538	2,069.82	69.4182	2,069.82	62.2228	2,069.82	58.4981	2,069.82	62.5379	2,069.82	61.3109	2,069.82	67.2547	2,069.82	68.1757	2,069.82	66.1311
2,143.07	87.0829	2,143.07	85.3936	2,143.07	84.7974	2,143.07	78.5714	2,143.07	76.0886	2,143.07	62.7615	2,143.07	77.2241	2,143.07	74.7496	2,143.07	82.3437	2,143.07	78.064	2,143.07	82.9494	2,143.07	78.1709	2,143.07	80.4411	2,143.07	74.7401	2,143.07	76.81	2,143.07	71.7791	2,143.07	74.7089	2,143.07	70.2852	2,143.07	72.7992	2,143.07	66.7509	2,143.07	65.8149	2,143.07	68.9981	2,143.07	38.9816	2,143.07	63.0659	2,143.07	62.5321	2,143.07	69.1186	2,143.07	64.5574	2,143.07	66.3572	2,143.07	67.8904	2,143.07	62.6642	2,143.07	53.4152	2,143.07	59.5941	2,143.07	62.7091	2,143.07	69.1564	2,143.07	67.4092	2,143.07	68.1056
2,219.24	86.6686	2,219.24	85.9772	2,219.24	83.9882	2,219.24	81.1202	2,219.24	74.4802	2,219.24	66.5085	2,219.24	76.7526	2,219.24	76.4354	2,219.24	82.8575	2,219.24	78.3027	2,219.24	82.6671	2,219.24	77.3474	2,219.24	80.2133	2,219.24	75.9371	2,219.24	75.6371	2,219.24	74.9556	2,219.24	72.2169	2,219.24	71.0704	2,219.24	71.0638	2,219.24	68.9003	2,219.24	67.4493	2,219.24	66.776	2,219.24	61.5451	2,219.24	65.0468	2,219.24	60.6139	2,219.24	68.1067	2,219.24	62.5755	2,219.24	69.5655	2,219.24	67.2243	2,219.24	61.5909	2,219.24	58.8087	2,219.24	60.6064	2,219.24	60.5143	2,219.24	68.0272	2,219.24	65.2906	2,219.24	66.2247
2,296.88	85.6431	2,296.88	85.9939	2,296.88	81.5869	2,296.88	81.9458	2,296.88	65.3272	2,296.88	70.0427	2,296.88	78.8256	2,296.88	77.5454	2,296.88	82.9751	2,296.88	78.7711	2,296.88	82.6755	2,296.88	78.5172	2,296.88	79.4472	2,296.88	76.2334	2,296.88	74.2118	2,296.88	73.5752	2,296.88	68.229	2,296.88	71.7688	2,296.88	67.728	2,296.88	67.5703	2,296.88	63.9178	2,296.88	68.5322	2,296.88	61.3306	2,296.88	66.03	2,296.88	59.1793	2,296.88	68.2127	2,296.88	60.2605	2,296.88	69.2071	2,296.88	67.2879	2,296.88	64.0074	2,296.88	63.6032	2,296.88	63.3447	2,296.88	53.9348	2,296.88	68.9622	2,296.88	59.8856	2,296.88	67.5318
2,378.91	85.4016	2,378.91	85.2871	2,378.91	79.7081	2,378.91	80.4766	2,378.91	65.1116	2,378.91	68.5619	2,378.91	80.8768	2,378.91	77.1566	2,378.91	83.5809	2,378.91	79.5476	2,378.91	82.4915	2,378.91	78.5626	2,378.91	78.8221	2,378.91	77.091	2,378.91	73.1094	2,378.91	74.0731	2,378.91	68.323	2,378.91	69.9912	2,378.91	67.2889	2,378.91	67.8292	2,378.91	59.1141	2,378.91	66.1664	2,378.91	56.8487	2,378.91	64.6462	2,378.91	60.0137	2,378.91	68.1439	2,378.91	61.8165	2,378.91	68.7239	2,378.91	67.6215	2,378.91	65.1047	2,378.91	64.9962	2,378.91	57.581	2,378.91	55.6849	2,378.91	66.5965	2,378.91	54.9395	2,378.91	66.2632
2,462.4	86.8314	2,462.4	86.1792	2,462.4	80.7229	2,462.4	80.0414	2,462.4	69.9742	2,462.4	62.509	2,462.4	81.2947	2,462.4	78.1255	2,462.4	83.2907	2,462.4	80.1529	2,462.4	82.0299	2,462.4	78.8236	2,462.4	78.0452	2,462.4	76.0524	2,462.4	71.5263	2,462.4	74.4333	2,462.4	67.1072	2,462.4	72.145	2,462.4	64.9251	2,462.4	67.3487	2,462.4	60.6138	2,462.4	64.5156	2,462.4	53.2576	2,462.4	63.6338	2,462.4	59.993	2,462.4	65.0957	2,462.4	60.2271	2,462.4	68.7695	2,462.4	67.2419	2,462.4	62.9732	2,462.4	64.8701	2,462.4	61.9152	2,462.4	55.1979	2,462.4	66.6304	2,462.4	49.9824	2,462.4	64.1662
2,548.83	87.8313	2,548.83	87.3451	2,548.83	82.0916	2,548.83	81.036	2,548.83	69.2541	2,548.83	69.9466	2,548.83	81.1615	2,548.83	79.4153	2,548.83	82.5583	2,548.83	80.2366	2,548.83	81.2253	2,548.83	79.5791	2,548.83	77.0506	2,548.83	76.0845	2,548.83	69.8562	2,548.83	74.211	2,548.83	66.8158	2,548.83	71.9971	2,548.83	64.5228	2,548.83	67.5146	2,548.83	53.6579	2,548.83	66.1708	2,548.83	65.7668	2,548.83	64.4248	2,548.83	61.805	2,548.83	65.7716	2,548.83	60.5643	2,548.83	68.1545	2,548.83	65.9204	2,548.83	64.933	2,548.83	65.1206	2,548.83	64.1805	2,548.83	58.0665	2,548.83	66.4064	2,548.83	48.6745	2,548.83	65.9535
2,639.65	87.0091	2,639.65	87.3087	2,639.65	80.6665	2,639.65	81.3377	2,639.65	74.3154	2,639.65	74.0354	2,639.65	82.7575	2,639.65	80.2244	2,639.65	82.5806	2,639.65	81.7745	2,639.65	80.1306	2,639.65	79.3371	2,639.65	75.865	2,639.65	76.7198	2,639.65	67.0755	2,639.65	71.915	2,639.65	69.0502	2,639.65	69.644	2,639.65	57.6132	2,639.65	66.7239	2,639.65	62.3359	2,639.65	63.6693	2,639.65	69.3538	2,639.65	64.5212	2,639.65	65.7761	2,639.65	63.6828	2,639.65	60.1568	2,639.65	69.0227	2,639.65	65.4311	2,639.65	65.4853	2,639.65	63.6895	2,639.65	62.2336	2,639.65	60.5246	2,639.65	65.6524	2,639.65	53.4518	2,639.65	63.9323
2,731.93	85.876	2,731.93	85.9781	2,731.93	78.7295	2,731.93	79.5334	2,731.93	76.3194	2,731.93	74.5988	2,731.93	83.7103	2,731.93	82.0694	2,731.93	83.1085	2,731.93	81.3689	2,731.93	78.4597	2,731.93	78.6432	2,731.93	73.8254	2,731.93	74.8501	2,731.93	67.0041	2,731.93	70.9209	2,731.93	70.5918	2,731.93	66.3322	2,731.93	60.125	2,731.93	62.0647	2,731.93	69.2547	2,731.93	63.3162	2,731.93	69.6878	2,731.93	61.4219	2,731.93	67.8078	2,731.93	64.0982	2,731.93	60.2201	2,731.93	66.9499	2,731.93	63.417	2,731.93	66.0588	2,731.93	64.7488	2,731.93	61.5825	2,731.93	57.627	2,731.93	63.6298	2,731.93	53.062	2,731.93	63.9069
2,828.61	85.9048	2,828.61	85.3445	2,828.61	77.424	2,828.61	78.4357	2,828.61	78.0065	2,828.61	74.6828	2,828.61	84.4397	2,828.61	81.6777	2,828.61	83.1852	2,828.61	81.0699	2,828.61	76.8074	2,828.61	78.185	2,828.61	71.9726	2,828.61	73.3824	2,828.61	69.2182	2,828.61	70.7877	2,828.61	72.967	2,828.61	64.4269	2,828.61	61.8738	2,828.61	64.2741	2,828.61	70.7622	2,828.61	61.6279	2,828.61	70.1754	2,828.61	51.5551	2,828.61	70.4151	2,828.61	59.8769	2,828.61	62.8318	2,828.61	64.731	2,828.61	61.5293	2,828.61	65.2764	2,828.61	64.3403	2,828.61	60.0846	2,828.61	58.0476	2,828.61	60.2914	2,828.61	53.6663	2,828.61	62.5527
2,928.22	86.7913	2,928.22	86.6831	2,928.22	77.7787	2,928.22	78.6566	2,928.22	79.7232	2,928.22	77.0562	2,928.22	84.6764	2,928.22	81.3856	2,928.22	82.6851	2,928.22	81.1507	2,928.22	75.3439	2,928.22	77.0385	2,928.22	71.1102	2,928.22	73.8881	2,928.22	70.9419	2,928.22	68.9877	2,928.22	73.1671	2,928.22	64.3677	2,928.22	63.5502	2,928.22	60.5761	2,928.22	68.8202	2,928.22	55.3288	2,928.22	68.73	2,928.22	52.8313	2,928.22	70.7704	2,928.22	55.0388	2,928.22	63.9293	2,928.22	61.4731	2,928.22	52.6383	2,928.22	65.1506	2,928.22	62.8617	2,928.22	61.4612	2,928.22	55.7166	2,928.22	62.0763	2,928.22	52.582	2,928.22	62.6936
3,030.76	86.9137	3,030.76	86.9707	3,030.76	77.6355	3,030.76	78.7158	3,030.76	80.939	3,030.76	79.2425	3,030.76	84.7548	3,030.76	81.8469	3,030.76	82.7107	3,030.76	80.3993	3,030.76	73.5197	3,030.76	75.7937	3,030.76	71.5338	3,030.76	71.1466	3,030.76	71.9325	3,030.76	65.3508	3,030.76	74.3265	3,030.76	64.1472	3,030.76	71.6231	3,030.76	64.1333	3,030.76	68.2976	3,030.76	57.9421	3,030.76	72.3941	3,030.76	59.4812	3,030.76	72.0826	3,030.76	56.3678	3,030.76	67.114	3,030.76	58.4826	3,030.76	57.2092	3,030.76	64.0541	3,030.76	65.9939	3,030.76	59.3597	3,030.76	58.8003	3,030.76	59.2243	3,030.76	55.5988	3,030.76	61.9503
3,137.7	86.7262	3,137.7	86.791	3,137.7	76.786	3,137.7	78.9424	3,137.7	82.5795	3,137.7	80.2367	3,137.7	84.4795	3,137.7	82.1733	3,137.7	80.7675	3,137.7	79.4883	3,137.7	71.8208	3,137.7	74.7274	3,137.7	71.7496	3,137.7	66.8612	3,137.7	74.1562	3,137.7	69.2177	3,137.7	75.3213	3,137.7	66.9839	3,137.7	73.5023	3,137.7	64.6987	3,137.7	65.6524	3,137.7	62.0008	3,137.7	70.5932	3,137.7	58.7122	3,137.7	72.5082	3,137.7	54.1931	3,137.7	61.9857	3,137.7	57.3031	3,137.7	59.5553	3,137.7	64.0995	3,137.7	63.8679	3,137.7	61.391	3,137.7	57.8498	3,137.7	60.4455	3,137.7	59.0689	3,137.7	63.3593
3,249.02	86.2337	3,249.02	85.8675	3,249.02	75.7187	3,249.02	77.7131	3,249.02	83.5151	3,249.02	80.6346	3,249.02	85.543	3,249.02	82.5229	3,249.02	79.2183	3,249.02	78.5702	3,249.02	69.727	3,249.02	73.0197	3,249.02	73.2048	3,249.02	69.994	3,249.02	76.5984	3,249.02	66.789	3,249.02	77.0777	3,249.02	63.6945	3,249.02	73.3225	3,249.02	65.5012	3,249.02	69.4703	3,249.02	59.3423	3,249.02	71.3008	3,249.02	61.4866	3,249.02	70.0197	3,249.02	53.2571	3,249.02	62.3505	3,249.02	54.9819	3,249.02	63.1479	3,249.02	64.2443	3,249.02	62.7166	3,249.02	62.2046	3,249.02	56.9877	3,249.02	59.0387	3,249.02	60.5205	3,249.02	62.808
3,363.28	85.8008	3,363.28	85.4107	3,363.28	75.0915	3,363.28	76.9989	3,363.28	83.2299	3,363.28	80.5381	3,363.28	85.4468	3,363.28	81.6466	3,363.28	79.4045	3,363.28	77.3584	3,363.28	67.8271	3,363.28	72.0137	3,363.28	74.8108	3,363.28	68.0402	3,363.28	78.1915	3,363.28	67.47	3,363.28	76.8433	3,363.28	69.4905	3,363.28	73.4081	3,363.28	67.2737	3,363.28	71.1752	3,363.28	61.1345	3,363.28	71.754	3,363.28	62.9045	3,363.28	70.0325	3,363.28	51.0844	3,363.28	61.8289	3,363.28	60.1092	3,363.28	63.5961	3,363.28	62.4665	3,363.28	64.4874	3,363.28	61.5911	3,363.28	53.4652	3,363.28	54.5934	3,363.28	60.3554	3,363.28	65.2337
3,481.93	85.7583	3,481.93	85.8839	3,481.93	77.1127	3,481.93	78.0389	3,481.93	83.0802	3,481.93	81.422	3,481.93	84.6491	3,481.93	80.9166	3,481.93	78.518	3,481.93	76.9526	3,481.93	66.7966	3,481.93	72.1444	3,481.93	76.1506	3,481.93	71.5359	3,481.93	77.5247	3,481.93	70.2582	3,481.93	76.4349	3,481.93	66.2202	3,481.93	71.3093	3,481.93	65.7716	3,481.93	70.4671	3,481.93	63.3109	3,481.93	73.0518	3,481.93	62.7846	3,481.93	67.4841	3,481.93	56.1504	3,481.93	63.7324	3,481.93	62.6113	3,481.93	61.0679	3,481.93	61.2918	3,481.93	65.3476	3,481.93	61.2158	3,481.93	41.1157	3,481.93	58.0906	3,481.93	58.4739	3,481.93	63.6831
3,604.98	85.2439	3,604.98	85.8672	3,604.98	77.6405	3,604.98	78.7947	3,604.98	83.3093	3,604.98	82.4574	3,604.98	84.3888	3,604.98	80.5559	3,604.98	78.5967	3,604.98	76.1757	3,604.98	66.4942	3,604.98	72.7251	3,604.98	77.4228	3,604.98	71.9219	3,604.98	74.7655	3,604.98	70.1746	3,604.98	75.9329	3,604.98	71.6373	3,604.98	66.4231	3,604.98	65.6209	3,604.98	68.899	3,604.98	64.9654	3,604.98	74.0907	3,604.98	63.4976	3,604.98	67.1958	3,604.98	61.4423	3,604.98	65.2375	3,604.98	62.7989	3,604.98	57.384	3,604.98	61.3712	3,604.98	64.5155	3,604.98	64.0648	3,604.98	49.8903	3,604.98	60.3071	3,604.98	57.1025	3,604.98	65.9705
3,732.42	85.3729	3,732.42	85.1499	3,732.42	78.8853	3,732.42	79.3448	3,732.42	83.1492	3,732.42	82.1106	3,732.42	83.2259	3,732.42	80.9739	3,732.42	78.8745	3,732.42	75.3296	3,732.42	69.6346	3,732.42	74.4303	3,732.42	78.0454	3,732.42	74.9968	3,732.42	74.0686	3,732.42	72.8758	3,732.42	74.3495	3,732.42	70.3157	3,732.42	55.9839	3,732.42	66.3688	3,732.42	67.9924	3,732.42	63.7039	3,732.42	74.4738	3,732.42	60.64	3,732.42	64.8898	3,732.42	62.6718	3,732.42	63.1453	3,732.42	61.5355	3,732.42	56.2572	3,732.42	56.6871	3,732.42	62.3686	3,732.42	64.418	3,732.42	39.9507	3,732.42	61.8798	3,732.42	47.2282	3,732.42	65.5614
3,864.26	85.2722	3,864.26	85.4481	3,864.26	80.3188	3,864.26	80.1372	3,864.26	84.4001	3,864.26	81.484	3,864.26	82.4699	3,864.26	80.3094	3,864.26	78.9849	3,864.26	75.507	3,864.26	71.3033	3,864.26	76.4991	3,864.26	78.9831	3,864.26	75.9154	3,864.26	74.7656	3,864.26	72.076	3,864.26	73.6984	3,864.26	69.3489	3,864.26	65.8536	3,864.26	67.322	3,864.26	71.4231	3,864.26	61.709	3,864.26	72.4477	3,864.26	61.9063	3,864.26	65.8001	3,864.26	60.5688	3,864.26	58.2724	3,864.26	61.8219	3,864.26	52.3983	3,864.26	57.2555	3,864.26	61.7784	3,864.26	63.2469	3,864.26	47.089	3,864.26	61.8472	3,864.26	57.798	3,864.26	64.0231
4,000.49	84.3563	4,000.49	84.7831	4,000.49	79.7412	4,000.49	79.9342	4,000.49	84.9527	4,000.49	82.3817	4,000.49	82.1049	4,000.49	78.9346	4,000.49	78.0481	4,000.49	77.2744	4,000.49	75.5434	4,000.49	77.0302	4,000.49	78.4711	4,000.49	74.8825	4,000.49	76.6838	4,000.49	70.9007	4,000.49	72.4337	4,000.49	69.9299	4,000.49	70.4441	4,000.49	66.1904	4,000.49	68.8236	4,000.49	62.3522	4,000.49	69.4885	4,000.49	58.3919	4,000.49	65.8253	4,000.49	60.6872	4,000.49	59.1353	4,000.49	61.1739	4,000.49	50.6257	4,000.49	55.7309	4,000.49	58.9402	4,000.49	63.9541	4,000.49	46.138	4,000.49	59.3963	4,000.49	57.0359	4,000.49	64.685
4,141.11	84.7645	4,141.11	84.8781	4,141.11	80.901	4,141.11	79.9938	4,141.11	84.2733	4,141.11	82.8716	4,141.11	81.573	4,141.11	78.4027	4,141.11	78.1376	4,141.11	78.1782	4,141.11	75.1287	4,141.11	77.2569	4,141.11	78.5556	4,141.11	73.0275	4,141.11	74.905	4,141.11	71.2968	4,141.11	72.9193	4,141.11	62.0301	4,141.11	69.4549	4,141.11	60.1622	4,141.11	55.1735	4,141.11	59.7229	4,141.11	69.9766	4,141.11	53.8497	4,141.11	60.2709	4,141.11	57.3684	4,141.11	56.5217	4,141.11	60.7243	4,141.11	57.9063	4,141.11	53.5486	4,141.11	60.8547	4,141.11	63.7314	4,141.11	47.4526	4,141.11	57.1944	4,141.11	56.9551	4,141.11	63.5037
4,287.6	85.0866	4,287.6	86.1619	4,287.6	82.3071	4,287.6	81.0102	4,287.6	84.7614	4,287.6	81.1905	4,287.6	80.5975	4,287.6	78.9474	4,287.6	80.1259	4,287.6	78.5013	4,287.6	74.1105	4,287.6	76.6485	4,287.6	76.471	4,287.6	73.2668	4,287.6	73.4912	4,287.6	67.9371	4,287.6	73.197	4,287.6	69.0231	4,287.6	71.5175	4,287.6	67.3603	4,287.6	61.2628	4,287.6	60.7454	4,287.6	71.1463	4,287.6	58.5905	4,287.6	58.4041	4,287.6	58.3027	4,287.6	59.9353	4,287.6	55.3591	4,287.6	60.9731	4,287.6	57.4883	4,287.6	60.4454	4,287.6	61.4244	4,287.6	55.165	4,287.6	56.6522	4,287.6	60.411	4,287.6	61.8017
4,438.48	85.3722	4,438.48	85.1109	4,438.48	83.0894	4,438.48	81.8308	4,438.48	85.6902	4,438.48	82.8031	4,438.48	79.4445	4,438.48	79.9122	4,438.48	79.6369	4,438.48	78.886	4,438.48	74.2092	4,438.48	75.4289	4,438.48	71.2621	4,438.48	71.4762	4,438.48	75.042	4,438.48	68.9004	4,438.48	72.2582	4,438.48	64.6663	4,438.48	71.3683	4,438.48	60.9898	4,438.48	63.7523	4,438.48	60.1042	4,438.48	68.1257	4,438.48	60.0516	4,438.48	53.3453	4,438.48	56.5609	4,438.48	59.3072	4,438.48	52.0508	4,438.48	62.4003	4,438.48	58.186	4,438.48	60.5434	4,438.48	60.3334	4,438.48	54.7281	4,438.48	59.6408	4,438.48	56.7604	4,438.48	61.9713
4,595.21	85.4206	4,595.21	84.7432	4,595.21	82.9828	4,595.21	82.0116	4,595.21	85.4369	4,595.21	81.5959	4,595.21	79.8047	4,595.21	79.8728	4,595.21	80.7494	4,595.21	79.0653	4,595.21	77.0757	4,595.21	74.8938	4,595.21	72.1149	4,595.21	70.187	4,595.21	77.9358	4,595.21	70.1527	4,595.21	75.2854	4,595.21	66.0087	4,595.21	71.1063	4,595.21	65.4177	4,595.21	53.4824	4,595.21	62.9344	4,595.21	64.6417	4,595.21	55.6352	4,595.21	58.4949	4,595.21	55.9321	4,595.21	58.4598	4,595.21	53.4834	4,595.21	61.3659	4,595.21	60.7012	4,595.21	57.3035	4,595.21	60.5591	4,595.21	53.4576	4,595.21	54.7785	4,595.21	57.6021	4,595.21	61.1195
4,756.35	85.3766	4,756.35	85.7754	4,756.35	82.9776	4,756.35	83.1081	4,756.35	85.5085	4,756.35	82.4082	4,756.35	79.8824	4,756.35	81.0708	4,756.35	81.0703	4,756.35	78.0543	4,756.35	75.3619	4,756.35	74.908	4,756.35	75.9192	4,756.35	72.3921	4,756.35	79.0576	4,756.35	67.5489	4,756.35	74.631	4,756.35	68.3993	4,756.35	70.589	4,756.35	64.2107	4,756.35	60.2879	4,756.35	60.8847	4,756.35	68.8511	4,756.35	61.1155	4,756.35	63.8446	4,756.35	57.9617	4,756.35	46.4018	4,756.35	56.0681	4,756.35	58.8382	4,756.35	59.2196	4,756.35	55.0187	4,756.35	59.9786	4,756.35	56.4044	4,756.35	58.5207	4,756.35	57.2064	4,756.35	58.513
4,924.8	85.9459	4,924.8	84.7844	4,924.8	84.2427	4,924.8	83.1583	4,924.8	84.66	4,924.8	82.286	4,924.8	80.3026	4,924.8	79.8784	4,924.8	80.7278	4,924.8	78.8032	4,924.8	76.2372	4,924.8	73.724	4,924.8	78.016	4,924.8	71.6191	4,924.8	78.0124	4,924.8	71.2089	4,924.8	69.8962	4,924.8	66.7074	4,924.8	63.3233	4,924.8	63.5609	4,924.8	57.6446	4,924.8	62.2821	4,924.8	65.5379	4,924.8	58.9516	4,924.8	59.8967	4,924.8	58.1516	4,924.8	41.3267	4,924.8	53.2285	4,924.8	55.3979	4,924.8	60.8506	4,924.8	49.5324	4,924.8	55.0575	4,924.8	56.2818	4,924.8	60.1098	4,924.8	50.9415	4,924.8	58.6671
5,097.66	85.4753	5,097.66	85.5521	5,097.66	85.1992	5,097.66	83.6299	5,097.66	85.3643	5,097.66	82.0919	5,097.66	79.6192	5,097.66	80.868	5,097.66	80.1733	5,097.66	78.0229	5,097.66	76.6267	5,097.66	73.6371	5,097.66	76.9929	5,097.66	71.6693	5,097.66	73.5469	5,097.66	66.7619	5,097.66	69.6856	5,097.66	66.572	5,097.66	59.5205	5,097.66	63.0805	5,097.66	60.0151	5,097.66	59.354	5,097.66	60.508	5,097.66	50.8949	5,097.66	55.8899	5,097.66	48.4737	5,097.66	46.519	5,097.66	56.0542	5,097.66	55.5451	5,097.66	58.6136	5,097.66	51.6046	5,097.66	56.8264	5,097.66	53.2483	5,097.66	57.5948	5,097.66	53.4524	5,097.66	57.0702
5,277.83	85.1849	5,277.83	85.0802	5,277.83	84.5986	5,277.83	83.3699	5,277.83	84.9176	5,277.83	82.1028	5,277.83	79.8603	5,277.83	80.4187	5,277.83	79.1271	5,277.83	77.2624	5,277.83	77.0731	5,277.83	72.9148	5,277.83	74.2682	5,277.83	71.0719	5,277.83	71.8314	5,277.83	68.227	5,277.83	66.6532	5,277.83	65.0363	5,277.83	63.073	5,277.83	62.6879	5,277.83	65.0559	5,277.83	60.2096	5,277.83	66.6594	5,277.83	59.9632	5,277.83	58.939	5,277.83	56.8565	5,277.83	52.8935	5,277.83	57.2886	5,277.83	54.7066	5,277.83	58.8987	5,277.83	48.1463	5,277.83	54.0165	5,277.83	52.478	5,277.83	56.4484	5,277.83	48.1693	5,277.83	52.8279
5,463.87	85.7066	5,463.87	85.7279	5,463.87	85.2897	5,463.87	83.6356	5,463.87	84.2219	5,463.87	82.2244	5,463.87	81.3305	5,463.87	80.803	5,463.87	78.8376	5,463.87	76.9196	5,463.87	77.6771	5,463.87	72.3953	5,463.87	71.522	5,463.87	71.2938	5,463.87	70.3213	5,463.87	67.9454	5,463.87	66.5856	5,463.87	64.9673	5,463.87	65.1616	5,463.87	62.1196	5,463.87	56.7926	5,463.87	59.5366	5,463.87	63.2539	5,463.87	55.2203	5,463.87	59.3215	5,463.87	55.0471	5,463.87	53.1764	5,463.87	55.9316	5,463.87	53.2795	5,463.87	55.1207	5,463.87	54.9972	5,463.87	52.6156	5,463.87	55.2807	5,463.87	55.4386	5,463.87	49.6561	5,463.87	56.0167
5,657.23	85.3494	5,657.23	85.3902	5,657.23	85.6025	5,657.23	83.9593	5,657.23	83.7111	5,657.23	81.9044	5,657.23	82.0553	5,657.23	80.3978	5,657.23	79.4821	5,657.23	76.7285	5,657.23	77.5928	5,657.23	71.6935	5,657.23	68.4535	5,657.23	69.9463	5,657.23	68.7545	5,657.23	64.4025	5,657.23	69.0214	5,657.23	62.2969	5,657.23	62.0489	5,657.23	62.7318	5,657.23	56.9626	5,657.23	57.6661	5,657.23	56.5175	5,657.23	55.014	5,657.23	57.4324	5,657.23	51.6559	5,657.23	57.4018	5,657.23	56.1411	5,657.23	33.3494	5,657.23	52.629	5,657.23	53.8216	5,657.23	52.3423	5,657.23	54.2113	5,657.23	53.0067	5,657.23	47.0953	5,657.23	56.1757
5,856.45	85.255	5,856.45	85.3675	5,856.45	85.5117	5,856.45	83.6051	5,856.45	84.0832	5,856.45	81.3961	5,856.45	82.3998	5,856.45	80.6282	5,856.45	79.583	5,856.45	76.2306	5,856.45	78.0401	5,856.45	71.4573	5,856.45	68.3494	5,856.45	69.0091	5,856.45	71.1353	5,856.45	68.6282	5,856.45	71.0669	5,856.45	62.8965	5,856.45	66.5246	5,856.45	62.7277	5,856.45	61.4125	5,856.45	60.3751	5,856.45	56.921	5,856.45	58.5617	5,856.45	56.3875	5,856.45	53.2643	5,856.45	58.1143	5,856.45	57.4767	5,856.45	52.527	5,856.45	55.7619	5,856.45	47.3976	5,856.45	52.9063	5,856.45	57.6292	5,856.45	53.4253	5,856.45	47.6378	5,856.45	56.1544
6,062.99	85.694	6,062.99	85.7502	6,062.99	85.4938	6,062.99	83.9523	6,062.99	83.1599	6,062.99	82.0117	6,062.99	83.0098	6,062.99	80.5083	6,062.99	79.436	6,062.99	75.5564	6,062.99	76.9386	6,062.99	71.4836	6,062.99	67.4647	6,062.99	70.2908	6,062.99	70.5874	6,062.99	67.6597	6,062.99	73.4411	6,062.99	64.3143	6,062.99	66.093	6,062.99	61.4623	6,062.99	62.8323	6,062.99	59.7499	6,062.99	61.706	6,062.99	53.7921	6,062.99	44.5873	6,062.99	49.5339	6,062.99	54.6889	6,062.99	56.7408	6,062.99	55.8947	6,062.99	56.711	6,062.99	46.4323	6,062.99	54.6155	6,062.99	57.5371	6,062.99	50.0483	6,062.99	42.9123	6,062.99	55.7367
6,276.86	84.9844	6,276.86	85.7014	6,276.86	86.1581	6,276.86	83.6234	6,276.86	82.9103	6,276.86	81.9368	6,276.86	82.1661	6,276.86	80.322	6,276.86	79.9576	6,276.86	75.5387	6,276.86	74.3881	6,276.86	72.1491	6,276.86	69.7759	6,276.86	69.869	6,276.86	69.9523	6,276.86	66.6588	6,276.86	74.5213	6,276.86	62.7977	6,276.86	61.7002	6,276.86	61.3274	6,276.86	62.4365	6,276.86	58.8286	6,276.86	59.1541	6,276.86	56.155	6,276.86	53.149	6,276.86	53.1983	6,276.86	54.8205	6,276.86	57.002	6,276.86	45.2577	6,276.86	55.0668	6,276.86	45.7002	6,276.86	52.9647	6,276.86	55.0896	6,276.86	48.4008	6,276.86	46.6321	6,276.86	55.3542
6,498.05	85.2846	6,498.05	85.4346	6,498.05	85.2975	6,498.05	83.7624	6,498.05	83.9698	6,498.05	81.9805	6,498.05	82.0875	6,498.05	80.0856	6,498.05	77.903	6,498.05	74.8483	6,498.05	73.9278	6,498.05	72.3663	6,498.05	68.2153	6,498.05	68.561	6,498.05	70.4626	6,498.05	68.1161	6,498.05	72.6463	6,498.05	63.7739	6,498.05	57.6402	6,498.05	61.723	6,498.05	61.0424	6,498.05	59.8595	6,498.05	53.7756	6,498.05	55.8545	6,498.05	56.7225	6,498.05	54.3131	6,498.05	50.2917	6,498.05	56.3852	6,498.05	52.5042	6,498.05	55.9309	6,498.05	45.3783	6,498.05	54.1844	6,498.05	47.6871	6,498.05	49.555	6,498.05	39.727	6,498.05	49.2786
6,726.56	85.9903	6,726.56	85.8034	6,726.56	85.4043	6,726.56	84.2643	6,726.56	83.4083	6,726.56	81.8093	6,726.56	82.5598	6,726.56	79.6719	6,726.56	76.0714	6,726.56	75.0882	6,726.56	71.9197	6,726.56	71.5738	6,726.56	70.948	6,726.56	69.0394	6,726.56	68.4789	6,726.56	66.9848	6,726.56	69.3186	6,726.56	61.6659	6,726.56	59.1035	6,726.56	59.6798	6,726.56	64.1277	6,726.56	57.6809	6,726.56	58.3968	6,726.56	51.7053	6,726.56	56.0457	6,726.56	55.6711	6,726.56	40.3853	6,726.56	54.8066	6,726.56	51.7273	6,726.56	55.4959	6,726.56	49.0923	6,726.56	53.6346	6,726.56	53.2218	6,726.56	44.9177	6,726.56	51.6355	6,726.56	50.4357
6,963.87	85.3812	6,963.87	85.8021	6,963.87	85.9064	6,963.87	84.0801	6,963.87	83.6348	6,963.87	82.1774	6,963.87	81.9019	6,963.87	78.734	6,963.87	77.0364	6,963.87	75.2087	6,963.87	71.867	6,963.87	71.5599	6,963.87	71.3756	6,963.87	68.8256	6,963.87	62.0907	6,963.87	64.4652	6,963.87	69.0393	6,963.87	58.9774	6,963.87	62.3565	6,963.87	55.5119	6,963.87	61.8096	6,963.87	56.8611	6,963.87	59.4258	6,963.87	51.8375	6,963.87	51.0674	6,963.87	49.6888	6,963.87	47.1227	6,963.87	51.0096	6,963.87	50.8661	6,963.87	51.4525	6,963.87	42.0324	6,963.87	47.7848	6,963.87	51.2304	6,963.87	43.4451	6,963.87	54.0248	6,963.87	48.8837
7,209.96	86.367	7,209.96	86.3467	7,209.96	85.8278	7,209.96	84.2265	7,209.96	84.2639	7,209.96	82.5007	7,209.96	82.0127	7,209.96	78.1675	7,209.96	76.9986	7,209.96	74.7506	7,209.96	73.5402	7,209.96	71.5435	7,209.96	68.7133	7,209.96	65.0045	7,209.96	59.5681	7,209.96	62.2488	7,209.96	70.7512	7,209.96	59.8343	7,209.96	62.9459	7,209.96	58.0778	7,209.96	53.2942	7,209.96	59.1838	7,209.96	54.4587	7,209.96	53.3927	7,209.96	43.7258	7,209.96	54.646	7,209.96	45.0651	7,209.96	54.3826	7,209.96	55.1353	7,209.96	51.7934	7,209.96	44.77	7,209.96	46.2967	7,209.96	50.6574	7,209.96	37.8659	7,209.96	52.9861	7,209.96	52.8102
7,464.84	86.2409	7,464.84	86.0798	7,464.84	85.7707	7,464.84	84.4779	7,464.84	83.9423	7,464.84	82.2866	7,464.84	81.2406	7,464.84	78.1841	7,464.84	75.2587	7,464.84	74.7255	7,464.84	74.2107	7,464.84	71.3467	7,464.84	68.7235	7,464.84	65.9997	7,464.84	61.6931	7,464.84	63.1424	7,464.84	70.3772	7,464.84	58.9092	7,464.84	60.6185	7,464.84	57.994	7,464.84	59.2505	7,464.84	56.1055	7,464.84	53.699	7,464.84	51.3205	7,464.84	44.1984	7,464.84	52.131	7,464.84	50.1737	7,464.84	55.3261	7,464.84	55.3865	7,464.84	54.3153	7,464.84	52.6471	7,464.84	50.5847	7,464.84	45.2294	7,464.84	46.8925	7,464.84	52.8601	7,464.84	57.231
7,727.05	85.9448	7,727.05	85.8492	7,727.05	85.3503	7,727.05	84.3499	7,727.05	84.3034	7,727.05	81.8532	7,727.05	80.3093	7,727.05	77.8443	7,727.05	75.5794	7,727.05	74.9989	7,727.05	74.9417	7,727.05	70.3222	7,727.05	63.2881	7,727.05	65.1477	7,727.05	69.4232	7,727.05	64.6345	7,727.05	64.8024	7,727.05	61.7818	7,727.05	63.7261	7,727.05	61.9398	7,727.05	59.8474	7,727.05	59.0215	7,727.05	54.6444	7,727.05	52.6415	7,727.05	45.403	7,727.05	53.557	7,727.05	36.4363	7,727.05	54.12	7,727.05	53.7876	7,727.05	53.2147	7,727.05	50.3911	7,727.05	51.5265	7,727.05	44.1043	7,727.05	42.8089	7,727.05	54.7653	7,727.05	54.1549
7,999.51	86.3762	7,999.51	86.0856	7,999.51	85.8583	7,999.51	84.292	7,999.51	84.5237	7,999.51	82.2165	7,999.51	79.9067	7,999.51	78.2286	7,999.51	76.6712	7,999.51	75.3238	7,999.51	75.2663	7,999.51	70.0647	7,999.51	68.8378	7,999.51	67.8597	7,999.51	67.6471	7,999.51	65.253	7,999.51	64.2533	7,999.51	62.3477	7,999.51	56.2378	7,999.51	58.6816	7,999.51	61.5078	7,999.51	56.5055	7,999.51	61.2813	7,999.51	53.4749	7,999.51	52.5734	7,999.51	57.2743	7,999.51	43.7374	7,999.51	52.8574	7,999.51	49.1605	7,999.51	51.8564	7,999.51	51.9809	7,999.51	49.0531	7,999.51	38.1526	7,999.51	37.8166	7,999.51	54.2132	7,999.51	51.614
8,282.23	86.1063	8,282.23	85.8201	8,282.23	85.8701	8,282.23	84.7546	8,282.23	84.738	8,282.23	81.6242	8,282.23	80.5704	8,282.23	78.7199	8,282.23	76.5996	8,282.23	74.4521	8,282.23	73.5565	8,282.23	69.9362	8,282.23	71.6787	8,282.23	67.8318	8,282.23	63.9167	8,282.23	63.7815	8,282.23	62.466	8,282.23	58.976	8,282.23	62.5168	8,282.23	61.8685	8,282.23	58.9794	8,282.23	51.897	8,282.23	63.0319	8,282.23	51.6532	8,282.23	55.0739	8,282.23	53.4741	8,282.23	50.9797	8,282.23	52.8796	8,282.23	49.039	8,282.23	54.6427	8,282.23	49.7606	8,282.23	52.6991	8,282.23	39.2213	8,282.23	38.7199	8,282.23	49.4943	8,282.23	54.1615
8,573.73	86.2542	8,573.73	85.9991	8,573.73	85.8757	8,573.73	84.3482	8,573.73	84.3097	8,573.73	80.9355	8,573.73	79.3057	8,573.73	77.7792	8,573.73	75.0947	8,573.73	73.5835	8,573.73	70.3576	8,573.73	69.3314	8,573.73	70.5022	8,573.73	67.464	8,573.73	67.4476	8,573.73	63.2638	8,573.73	64.2634	8,573.73	58.3079	8,573.73	63.7507	8,573.73	57.2777	8,573.73	60.2285	8,573.73	53.0771	8,573.73	63.4959	8,573.73	51.7714	8,573.73	56.5875	8,573.73	53.5986	8,573.73	51.741	8,573.73	54.0419	8,573.73	50.0504	8,573.73	55.4671	8,573.73	50.1749	8,573.73	54.4208	8,573.73	48.1892	8,573.73	43.7221	8,573.73	49.9868	8,573.73	55.0219
8,876.95	85.9342	8,876.95	86.3039	8,876.95	86.2843	8,876.95	83.9656	8,876.95	84.5805	8,876.95	80.8445	8,876.95	77.4435	8,876.95	77.4476	8,876.95	75.7088	8,876.95	72.5205	8,876.95	73.3657	8,876.95	70.6022	8,876.95	68.4428	8,876.95	66.9512	8,876.95	69.4246	8,876.95	62.8611	8,876.95	65.2525	8,876.95	59.2407	8,876.95	59.2558	8,876.95	60.0234	8,876.95	52.2372	8,876.95	52.9633	8,876.95	61.1994	8,876.95	45.2829	8,876.95	57.0102	8,876.95	46.6135	8,876.95	47.7906	8,876.95	50.9126	8,876.95	45.4486	8,876.95	52.0616	8,876.95	48.3511	8,876.95	54.8727	8,876.95	50.6959	8,876.95	25.8621	8,876.95	50.0335	8,876.95	54.9622
9,188.96	86.0064	9,188.96	86.3057	9,188.96	86.4338	9,188.96	83.525	9,188.96	84.7122	9,188.96	80.301	9,188.96	78.997	9,188.96	77.6829	9,188.96	75.5376	9,188.96	73.3535	9,188.96	75.4447	9,188.96	70.9175	9,188.96	67.5953	9,188.96	66.5107	9,188.96	68.5318	9,188.96	61.5536	9,188.96	60.8627	9,188.96	59.2949	9,188.96	56.2003	9,188.96	60.0742	9,188.96	51.2222	9,188.96	48.325	9,188.96	59.743	9,188.96	53.6813	9,188.96	58.5427	9,188.96	54.1168	9,188.96	42.3068	9,188.96	56.1715	9,188.96	52.088	9,188.96	54.363	9,188.96	48.5847	9,188.96	56.8095	9,188.96	39.1735	9,188.96	44.7927	9,188.96	50.8423	9,188.96	53.6175
9,514.16	85.9031	9,514.16	86.3896	9,514.16	86.4757	9,514.16	83.6546	9,514.16	84.3867	9,514.16	80.1254	9,514.16	79.0985	9,514.16	77.1363	9,514.16	75.1861	9,514.16	73.7344	9,514.16	74.9969	9,514.16	70.883	9,514.16	69.4021	9,514.16	66.3471	9,514.16	63.3625	9,514.16	64.6607	9,514.16	57.3035	9,514.16	57.9533	9,514.16	60.0989	9,514.16	60.3656	9,514.16	55.9281	9,514.16	56.6394	9,514.16	60.0122	9,514.16	38.6873	9,514.16	59.1149	9,514.16	46.5786	9,514.16	48.0059	9,514.16	49.2157	9,514.16	50.6296	9,514.16	51.5635	9,514.16	47.6792	9,514.16	55.0061	9,514.16	41.9464	9,514.16	43.5327	9,514.16	45.8213	9,514.16	45.6662
9,849.61	86.07	9,849.61	86.7216	9,849.61	86.5342	9,849.61	83.8223	9,849.61	84.0793	9,849.61	80.0288	9,849.61	79.719	9,849.61	77.3562	9,849.61	76.776	9,849.61	73.8025	9,849.61	73.7061	9,849.61	71.4991	9,849.61	72.303	9,849.61	67.0509	9,849.61	62.4343	9,849.61	63.215	9,849.61	55.7768	9,849.61	60.2609	9,849.61	58.5886	9,849.61	57.5036	9,849.61	56.015	9,849.61	49.4042	9,849.61	58.9754	9,849.61	54.389	9,849.61	61.0096	9,849.61	50.0877	9,849.61	49.4411	9,849.61	53.4252	9,849.61	49.2862	9,849.61	52.7265	9,849.61	44.2432	9,849.61	52.7632	9,849.61	41.3906	9,849.61	43.3328	9,849.61	48.5553	9,849.61	49.0197
10,196.8	86.3657	10,196.8	86.992	10,196.8	86.9996	10,196.8	83.9026	10,196.8	84.0894	10,196.8	79.8508	10,196.8	80.7073	10,196.8	77.2602	10,196.8	78.028	10,196.8	74.4288	10,196.8	72.3577	10,196.8	72.3489	10,196.8	72.8387	10,196.8	66.3084	10,196.8	61.0225	10,196.8	62.4994	10,196.8	58.5164	10,196.8	58.3506	10,196.8	61.2287	10,196.8	60.2635	10,196.8	56.6716	10,196.8	57.591	10,196.8	56.7694	10,196.8	47.4758	10,196.8	61.5643	10,196.8	51.7774	10,196.8	53.8288	10,196.8	48.2404	10,196.8	44.7781	10,196.8	52.7167	10,196.8	48.784	10,196.8	52.902	10,196.8	48.7942	10,196.8	44.4096	10,196.8	45.7884	10,196.8	50.7305
10,555.7	86.7799	10,555.7	86.6984	10,555.7	86.8685	10,555.7	84.0175	10,555.7	84.0909	10,555.7	80.0061	10,555.7	80.7349	10,555.7	77.661	10,555.7	76.28	10,555.7	74.4249	10,555.7	74.5982	10,555.7	71.3389	10,555.7	71.8099	10,555.7	66.9453	10,555.7	62.0246	10,555.7	62.8804	10,555.7	60.7676	10,555.7	59.7231	10,555.7	60.5923	10,555.7	59.9289	10,555.7	58.4292	10,555.7	51.4723	10,555.7	57.7248	10,555.7	47.9814	10,555.7	61.1521	10,555.7	41.2209	10,555.7	51.3477	10,555.7	53.1827	10,555.7	42.2643	10,555.7	53.3288	10,555.7	52.5905	10,555.7	54.1875	10,555.7	41.449	10,555.7	46.8453	10,555.7	44.1362	10,555.7	52.3722
10,927.7	87.1237	10,927.7	86.8707	10,927.7	86.7433	10,927.7	84.3274	10,927.7	84.1003	10,927.7	80.8199	10,927.7	80.3463	10,927.7	77.6874	10,927.7	76.1988	10,927.7	75.1364	10,927.7	75.8547	10,927.7	70.9838	10,927.7	69.6639	10,927.7	67.4322	10,927.7	60.4132	10,927.7	62.046	10,927.7	54.6095	10,927.7	60.4643	10,927.7	55.6968	10,927.7	54.434	10,927.7	55.6471	10,927.7	55.8214	10,927.7	54.2665	10,927.7	55.2073	10,927.7	62.6655	10,927.7	51.5266	10,927.7	53.0835	10,927.7	53.6371	10,927.7	45.5524	10,927.7	53.4631	10,927.7	51.3638	10,927.7	53.8795	10,927.7	48.1569	10,927.7	47.7778	10,927.7	39.9179	10,927.7	45.4336
11,313	87.4129	11,313	86.9326	11,313	86.8479	11,313	84.3792	11,313	84.4137	11,313	81.3344	11,313	80.7844	11,313	77.7631	11,313	77.6695	11,313	74.7889	11,313	75.467	11,313	69.7353	11,313	69.2609	11,313	67.4997	11,313	59.9162	11,313	61.0328	11,313	59.6759	11,313	60.4188	11,313	53.4695	11,313	57.8288	11,313	58.0508	11,313	56.2666	11,313	52.5166	11,313	46.3417	11,313	63.6012	11,313	46.2162	11,313	56.8417	11,313	50.1266	11,313	32.2327	11,313	52.0005	11,313	52.3222	11,313	55.8616	11,313	45.7461	11,313	49.5385	11,313	51.6758	11,313	37.084
11,712.9	87.6144	11,712.9	86.949	11,712.9	87.058	11,712.9	84.8087	11,712.9	85.2455	11,712.9	82.3173	11,712.9	81.7504	11,712.9	78.1583	11,712.9	78.0843	11,712.9	74.689	11,712.9	74.8193	11,712.9	70.969	11,712.9	71.5764	11,712.9	66.5723	11,712.9	56.6302	11,712.9	59.81	11,712.9	57.894	11,712.9	62.2859	11,712.9	60.4382	11,712.9	51.724	11,712.9	60.96	11,712.9	52.1534	11,712.9	46.3669	11,712.9	52.5808	11,712.9	64.3162	11,712.9	46.8396	11,712.9	57.319	11,712.9	50.6455	11,712.9	39.8672	11,712.9	52.5538	11,712.9	49.0669	11,712.9	57.0736	11,712.9	42.5024	11,712.9	53.8809	11,712.9	53.0232	11,712.9	44.1338
12,126	87.557	12,126	86.5744	12,126	86.8088	12,126	84.7167	12,126	85.2591	12,126	82.2287	12,126	81.8338	12,126	79.0587	12,126	76.517	12,126	73.5525	12,126	73.4047	12,126	71.0497	12,126	71.4257	12,126	66.3109	12,126	63.5535	12,126	62.2026	12,126	56.5073	12,126	61.2332	12,126	58.333	12,126	45.4947	12,126	63.6702	12,126	58.3444	12,126	54.9942	12,126	47.6221	12,126	64.541	12,126	46.2282	12,126	55.6357	12,126	50.911	12,126	42.8772	12,126	53.0181	12,126	48.8836	12,126	56.0902	12,126	42.5102	12,126	52.0087	12,126	48.6138	12,126	47.5569
12,553.7	87.8153	12,553.7	86.9949	12,553.7	86.8974	12,553.7	85.2708	12,553.7	85.6063	12,553.7	82.8635	12,553.7	82.2731	12,553.7	80.0222	12,553.7	77.1433	12,553.7	74.2709	12,553.7	73.4383	12,553.7	70.9413	12,553.7	69.0534	12,553.7	67.1155	12,553.7	65.9702	12,553.7	62.363	12,553.7	58.2942	12,553.7	58.9837	12,553.7	55.5211	12,553.7	48.6895	12,553.7	61.8073	12,553.7	54.9063	12,553.7	54.8311	12,553.7	53.461	12,553.7	64.4435	12,553.7	47.3917	12,553.7	54.8599	12,553.7	48.5623	12,553.7	38.3282	12,553.7	52.695	12,553.7	44.3478	12,553.7	56.6336	12,553.7	40.4007	12,553.7	47.7238	12,553.7	50.6588	12,553.7	45.621
12,996.1	88.1643	12,996.1	87.3128	12,996.1	87.0947	12,996.1	85.8739	12,996.1	85.8932	12,996.1	83.3577	12,996.1	82.8117	12,996.1	80.2479	12,996.1	77.7561	12,996.1	74.9552	12,996.1	73.8566	12,996.1	71.4014	12,996.1	68.998	12,996.1	67.3938	12,996.1	64.988	12,996.1	62.6627	12,996.1	57.5014	12,996.1	60.1022	12,996.1	58.981	12,996.1	50.8297	12,996.1	61.4568	12,996.1	49.3332	12,996.1	55.1437	12,996.1	43.2351	12,996.1	64.1269	12,996.1	41.5758	12,996.1	52.8495	12,996.1	46.9786	12,996.1	38.9449	12,996.1	49.5812	12,996.1	39.083	12,996.1	55.0205	12,996.1	44.8718	12,996.1	46.9359	12,996.1	53.337	12,996.1	49.4166
13,454.6	88.6489	13,454.6	87.7457	13,454.6	87.3283	13,454.6	86.5014	13,454.6	86.0683	13,454.6	83.9371	13,454.6	82.7194	13,454.6	80.2086	13,454.6	78.8043	13,454.6	75.3463	13,454.6	74.3853	13,454.6	71.8044	13,454.6	69.6023	13,454.6	67.0245	13,454.6	67.6155	13,454.6	62.4234	13,454.6	62.4822	13,454.6	61.1455	13,454.6	58.466	13,454.6	51.205	13,454.6	64.6327	13,454.6	56.9516	13,454.6	57.9388	13,454.6	48.7355	13,454.6	62.8172	13,454.6	48.4768	13,454.6	53.475	13,454.6	42.84	13,454.6	42.1901	13,454.6	44.2395	13,454.6	28.4906	13,454.6	51.102	13,454.6	41.8299	13,454.6	42.6316	13,454.6	52.157	13,454.6	50.3924
13,929.2	88.6536	13,929.2	88.0071	13,929.2	87.3091	13,929.2	86.8167	13,929.2	86.1769	13,929.2	84.4263	13,929.2	83.0821	13,929.2	80.2253	13,929.2	77.3781	13,929.2	75.1773	13,929.2	72.6308	13,929.2	70.5771	13,929.2	65.7199	13,929.2	66.1482	13,929.2	65.9836	13,929.2	61.6334	13,929.2	61.1499	13,929.2	60.3587	13,929.2	53.9953	13,929.2	50.8509	13,929.2	62.5654	13,929.2	55.0104	13,929.2	53.1805	13,929.2	52.1547	13,929.2	63.9417	13,929.2	43.5695	13,929.2	54.4651	13,929.2	45.7204	13,929.2	41.4154	13,929.2	35.9538	13,929.2	33.5131	13,929.2	47.5022	13,929.2	43.1564	13,929.2	42.9593	13,929.2	50.7381	13,929.2	44.5415
14,419.9	88.5146	14,419.9	88.1421	14,419.9	87.2408	14,419.9	86.8171	14,419.9	85.8844	14,419.9	84.1984	14,419.9	82.6712	14,419.9	79.3452	14,419.9	76.3673	14,419.9	73.9655	14,419.9	71.4622	14,419.9	68.444	14,419.9	63.1552	14,419.9	65.5077	14,419.9	63.9189	14,419.9	58.1943	14,419.9	56.8364	14,419.9	59.5364	14,419.9	53.6051	14,419.9	48.6074	14,419.9	61.8514	14,419.9	50.4438	14,419.9	48.3874	14,419.9	47.4786	14,419.9	63.2016	14,419.9	49.2748	14,419.9	52.9956	14,419.9	49.2941	14,419.9	32.575	14,419.9	41.3108	14,419.9	40.3066	14,419.9	44.7219	14,419.9	45.6175	14,419.9	45.4274	14,419.9	41.8486	14,419.9	43.9572
14,928.2	88.4925	14,928.2	88.0389	14,928.2	87.1234	14,928.2	86.2484	14,928.2	85.0689	14,928.2	83.1158	14,928.2	81.3075	14,928.2	77.6882	14,928.2	73.5012	14,928.2	72.2102	14,928.2	70.5096	14,928.2	66.8088	14,928.2	64.3902	14,928.2	63.7113	14,928.2	58.039	14,928.2	54.9822	14,928.2	55.1839	14,928.2	56.8534	14,928.2	50.6932	14,928.2	50.3914	14,928.2	60.1797	14,928.2	45.7586	14,928.2	48.6089	14,928.2	47.3309	14,928.2	62.062	14,928.2	50.5891	14,928.2	51.7441	14,928.2	48.8795	14,928.2	19.8302	14,928.2	45.3739	14,928.2	41.5588	14,928.2	46.6639	14,928.2	45.1198	14,928.2	50.6833	14,928.2	35.7556	14,928.2	43.5518
15,455.6	88.6478	15,455.6	88.0261	15,455.6	87.2214	15,455.6	85.3756	15,455.6	84.1357	15,455.6	81.7361	15,455.6	79.1246	15,455.6	75.8338	15,455.6	71.7961	15,455.6	69.3378	15,455.6	65.3298	15,455.6	64.1424	15,455.6	60.5259	15,455.6	60.3948	15,455.6	53.1312	15,455.6	52.067	15,455.6	47.3457	15,455.6	52.139	15,455.6	47.2795	15,455.6	49.2583	15,455.6	56.8424	15,455.6	48.2421	15,455.6	57.745	15,455.6	36.8583	15,455.6	61.6069	15,455.6	46.1019	15,455.6	50.1051	15,455.6	46.8983	15,455.6	33.7968	15,455.6	43.3313	15,455.6	34.486	15,455.6	41.1951	15,455.6	40.8176	15,455.6	48.3799	15,455.6	28.203	15,455.6	40.3841
16,000.5	89.1357	16,000.5	87.8015	16,000.5	87.3826	16,000.5	83.9209	16,000.5	82.9397	16,000.5	78.9759	16,000.5	75.5749	16,000.5	72.8427	16,000.5	66.4155	16,000.5	65.866	16,000.5	56.9186	16,000.5	59.2485	16,000.5	45.2296	16,000.5	55.7299	16,000.5	41.6081	16,000.5	45.3139	16,000.5	43.2165	16,000.5	42.5687	16,000.5	45.3017	16,000.5	43.8986	16,000.5	53.1752	16,000.5	42.1604	16,000.5	62.4104	16,000.5	37.1833	16,000.5	60.7095	16,000.5	34.8022	16,000.5	50.3146	16,000.5	41.6446	16,000.5	41.5616	16,000.5	40.7831	16,000.5	29.4132	16,000.5	43.3295	16,000.5	44.4635	16,000.5	39.1017	16,000.5	41.9366	16,000.5	42.5315
16,564.5	89.6517	16,564.5	87.583	16,564.5	87.4272	16,564.5	81.6965	16,564.5	80.8705	16,564.5	74.321	16,564.5	68.101	16,564.5	68.5967	16,564.5	61.4434	16,564.5	64.1978	16,564.5	61.1271	16,564.5	59.5517	16,564.5	57.7406	16,564.5	57.647	16,564.5	51.4624	16,564.5	50.0433	16,564.5	52.3749	16,564.5	43.3855	16,564.5	45.757	16,564.5	47.7446	16,564.5	54.0062	16,564.5	47.0406	16,564.5	65.4694	16,564.5	44.5941	16,564.5	60.2607	16,564.5	46.9317	16,564.5	51.5784	16,564.5	46.9855	16,564.5	47.6664	16,564.5	49.5169	16,564.5	47.5099	16,564.5	52.137	16,564.5	50.7986	16,564.5	48.6581	16,564.5	46.4361	16,564.5	50.2199
17,148.9	90.2083	17,148.9	87.4817	17,148.9	87.2769	17,148.9	78.7455	17,148.9	78.8161	17,148.9	66.1884	17,148.9	59.2556	17,148.9	66.5084	17,148.9	65.2672	17,148.9	65.3212	17,148.9	67.1581	17,148.9	62.0605	17,148.9	63.7293	17,148.9	62.2532	17,148.9	55.1461	17,148.9	56.9738	17,148.9	52.8578	17,148.9	49.5008	17,148.9	48.4835	17,148.9	54.0848	17,148.9	55.257	17,148.9	53.6613	17,148.9	65.8188	17,148.9	49.9182	17,148.9	59.8909	17,148.9	53.7456	17,148.9	52.4907	17,148.9	53.3411	17,148.9	51.0018	17,148.9	55.9429	17,148.9	50.7767	17,148.9	58.0934	17,148.9	54.9053	17,148.9	56.3094	17,148.9	53.2749	17,148.9	54.2785
17,752.4	90.3057	17,752.4	87.0223	17,752.4	86.6339	17,752.4	74.7374	17,752.4	76.3803	17,752.4	67.2506	17,752.4	70.0554	17,752.4	69.2233	17,752.4	68.5316	17,752.4	66.6021	17,752.4	68.6273	17,752.4	62.7368	17,752.4	64.1859	17,752.4	65.7196	17,752.4	51.6486	17,752.4	60.6655	17,752.4	52.7203	17,752.4	55.0559	17,752.4	53.374	17,752.4	57.7714	17,752.4	55.9911	17,752.4	58.6982	17,752.4	64.2291	17,752.4	54.672	17,752.4	59.262	17,752.4	58.3985	17,752.4	52.3758	17,752.4	58.2752	17,752.4	54.5972	17,752.4	59.9873	17,752.4	54.5357	17,752.4	62.334	17,752.4	57.0446	17,752.4	60.4859	17,752.4	58.0119	17,752.4	58.5105
18,379.4	90.1607	18,379.4	86.3701	18,379.4	85.7053	18,379.4	72.3478	18,379.4	75.5635	18,379.4	72.0407	18,379.4	75.3217	18,379.4	71.1279	18,379.4	71.0251	18,379.4	67.9964	18,379.4	69.6909	18,379.4	63.9969	18,379.4	63.3206	18,379.4	67.6472	18,379.4	54.8881	18,379.4	64.1602	18,379.4	49.0509	18,379.4	60.4937	18,379.4	53.4925	18,379.4	60.4266	18,379.4	55.7249	18,379.4	63.2991	18,379.4	60.1053	18,379.4	58.2273	18,379.4	58.2577	18,379.4	61.6295	18,379.4	55.3647	18,379.4	61.3458	18,379.4	57.9612	18,379.4	62.8976	18,379.4	57.9516	18,379.4	65.2289	18,379.4	62.2714	18,379.4	65.228	18,379.4	61.0011	18,379.4	60.4053
19,026.9	88.7423	19,026.9	84.4239	19,026.9	83.2258	19,026.9	72.5578	19,026.9	75.7006	19,026.9	73.6442	19,026.9	76.9288	19,026.9	71.2383	19,026.9	71.9555	19,026.9	67.2733	19,026.9	70.1166	19,026.9	61.6189	19,026.9	63.6595	19,026.9	67.9453	19,026.9	57.3814	19,026.9	65.3578	19,026.9	50.2639	19,026.9	63.4049	19,026.9	54.5327	19,026.9	60.5414	19,026.9	55.1256	19,026.9	65.4301	19,026.9	55.0693	19,026.9	59.2618	19,026.9	55.7135	19,026.9	62.4825	19,026.9	53.5037	19,026.9	62.4372	19,026.9	58.0241	19,026.9	63.8138	19,026.9	58.8856	19,026.9	66.776	19,026.9	63.9322	19,026.9	67.3614	19,026.9	60.6628	19,026.9	61.625
19,697.8	86.3167	19,697.8	81.1837	19,697.8	79.8976	19,697.8	73.0457	19,697.8	76.631	19,697.8	72.7798	19,697.8	77.2253	19,697.8	70.5127	19,697.8	72.0265	19,697.8	65.8388	19,697.8	68.8143	19,697.8	51.3781	19,697.8	63.8012	19,697.8	67.4183	19,697.8	58.2762	19,697.8	64.3697	19,697.8	52.2482	19,697.8	65.1751	19,697.8	53.6666	19,697.8	59.1861	19,697.8	54.8747	19,697.8	65.7163	19,697.8	60.3585	19,697.8	59.263	19,697.8	52.2106	19,697.8	62.3676	19,697.8	51.9938	19,697.8	62.4749	19,697.8	57.4932	19,697.8	64.2038	19,697.8	58.4083	19,697.8	67.0861	19,697.8	63.937	19,697.8	68.2361	19,697.8	61.4434	19,697.8	61.7714
19,999.5	84.8573	19,999.5	79.2586	19,999.5	78.0943	19,999.5	72.6739	19,999.5	76.9517	19,999.5	72.4246	19,999.5	77.2596	19,999.5	69.7678	19,999.5	72.017	19,999.5	64.9127	19,999.5	68.0249	19,999.5	49.9547	19,999.5	65.9069	19,999.5	67.2272	19,999.5	58.3153	19,999.5	64.2474	19,999.5	49.5293	19,999.5	65.6167	19,999.5	42.6462	19,999.5	58.1861	19,999.5	56.5905	19,999.5	66.0786	19,999.5	59.6864	19,999.5	60.4491	19,999.5	53.4065	19,999.5	62.198	19,999.5	49.7085	19,999.5	62.2824	19,999.5	57.0152	19,999.5	64.0374	19,999.5	58.881	19,999.5	67.3544	19,999.5	63.938	19,999.5	68.5	19,999.5	61.6387	19,999.5	61.8382
