"CEA2034"													
"On Axis"		"Listening Window"		"Early Reflections"		"Sound Power"		"Sound Power DI"		"Early Reflections DI"		"DI offset"	
"Frequency [Hz]"	"Sound Pessure Level [dB]  / [2.83V 1m] "	"Frequency [Hz]"	"Sound Pessure Level [dB]  / [2.83V 1m] "	"Frequency [Hz]"	"Sound Pessure Level [dB]  / [2.83V 1m] "	"Frequency [Hz]"	"Sound Pessure Level [dB]  / [2.83V 1m] "	"Frequency [Hz]"	"Sound Pessure Level [dB]  / [2.83V 1m] "	"Frequency [Hz]"	"Sound Pessure Level [dB]  / [2.83V 1m] "	"Frequency [Hz]"	"Sound Pessure Level [dB]  / [2.83V 1m] "
20.5078	37.2383	20.5078	37.7246	20.5078	44.9116	20.5078	49.9628	20.5078	27.7412	20.5078	32.7924	20.5078	39.9794
21.2402	44.333	21.2402	44.1628	21.2402	46.0885	21.2402	49.8576	21.2402	34.2846	21.2402	38.0537	21.2402	39.9794
21.9727	46.8979	21.9727	46.7553	21.9727	47.9586	21.9727	51.0195	21.9727	35.7152	21.9727	38.776	21.9727	39.9794
22.7051	45.828	22.7051	45.5706	22.7051	46.8701	22.7051	50.4882	22.7051	35.0619	22.7051	38.68	22.7051	39.9794
23.4375	46.4724	23.4375	46.1959	23.4375	47.3646	23.4375	50.964	23.4375	35.2113	23.4375	38.8108	23.4375	39.9794
24.1699	46.8252	24.1699	46.5846	24.1699	48.169	24.1699	51.924	24.1699	34.64	24.1699	38.3949	24.1699	39.9794
25.6348	49.4448	25.6348	49.3053	25.6348	50.8061	25.6348	54.1134	25.6348	35.1713	25.6348	38.4787	25.6348	39.9794
26.3672	50.8747	26.3672	50.7505	26.3672	51.955	26.3672	54.9239	26.3672	35.806	26.3672	38.7749	26.3672	39.9794
27.0996	51.6201	27.0996	51.4957	27.0996	52.6134	27.0996	55.4884	27.0996	35.9868	27.0996	38.8617	27.0996	39.9794
27.832	52.9365	27.832	52.8366	27.832	53.8609	27.832	56.5137	27.832	36.3023	27.832	38.9552	27.832	39.9794
29.2969	54.9018	29.2969	54.8229	29.2969	55.7114	29.2969	58.086	29.2969	36.7162	29.2969	39.0908	29.2969	39.9794
30.0293	55.9472	30.0293	55.8872	30.0293	56.782	30.0293	59.0576	30.0293	36.809	30.0293	39.0846	30.0293	39.9794
31.4941	58.4251	31.4941	58.3816	31.4941	59.0779	31.4941	60.9627	31.4941	37.3983	31.4941	39.2831	31.4941	39.9794
32.2266	59.2517	32.2266	59.2132	32.2266	59.8886	32.2266	61.7052	32.2266	37.4874	32.2266	39.304	32.2266	39.9794
33.6914	61.2288	33.6914	61.2125	33.6914	61.9023	33.6914	63.5976	33.6914	37.5942	33.6914	39.2896	33.6914	39.9794
34.4238	62.3268	34.4238	62.3146	34.4238	62.9441	34.4238	64.506	34.4238	37.788	34.4238	39.3499	34.4238	39.9794
35.8887	64.3207	35.8887	64.3177	35.8887	64.9063	35.8887	66.3268	35.8887	37.9703	35.8887	39.3908	35.8887	39.9794
37.3535	66.3322	37.3535	66.338	37.3535	66.8895	37.3535	68.1739	37.3535	38.1435	37.3535	39.4279	37.3535	39.9794
38.8184	68.3361	38.8184	68.3476	38.8184	68.8564	38.8184	70.0111	38.8184	38.3159	38.8184	39.4705	38.8184	39.9794
39.5508	69.3215	39.5508	69.3346	39.5508	69.8165	39.5508	70.9026	39.5508	38.4114	39.5508	39.4975	39.5508	39.9794
41.0156	70.9251	41.0156	70.9411	41.0156	71.3966	41.0156	72.4027	41.0156	38.5178	41.0156	39.524	41.0156	39.9794
42.4805	72.8323	42.4805	72.8527	42.4805	73.2857	42.4805	74.208	42.4805	38.6241	42.4805	39.5463	42.4805	39.9794
43.9453	74.3654	43.9453	74.3875	43.9453	74.7956	43.9453	75.6468	43.9453	38.7201	43.9453	39.5713	43.9453	39.9794
45.4102	75.8295	45.4102	75.855	45.4102	76.2539	45.4102	77.0542	45.4102	38.7802	45.4102	39.5805	45.4102	39.9794
47.6074	77.677	47.6074	77.7046	47.6074	78.0744	47.6074	78.7877	47.6074	38.8963	47.6074	39.6096	47.6074	39.9794
49.0723	78.5153	49.0723	78.5441	49.0723	78.8975	49.0723	79.5616	49.0723	38.9619	49.0723	39.6259	49.0723	39.9794
50.5371	79.1112	50.5371	79.1409	50.5371	79.4806	50.5371	80.1028	50.5371	39.0174	50.5371	39.6397	50.5371	39.9794
52.7344	79.6745	52.7344	79.7049	52.7344	80.023	52.7344	80.5845	52.7344	39.0998	52.7344	39.6613	52.7344	39.9794
54.1992	79.8779	54.1992	79.9083	54.1992	80.2115	54.1992	80.7349	54.1992	39.1528	54.1992	39.6762	54.1992	39.9794
56.3965	80.0347	56.3965	80.0654	56.3965	80.3523	56.3965	80.8308	56.3965	39.214	56.3965	39.6926	56.3965	39.9794
58.5938	80.1419	58.5938	80.1726	58.5938	80.4443	58.5938	80.8817	58.5938	39.2703	58.5938	39.7077	58.5938	39.9794
60.0586	80.186	60.0586	80.2171	60.0586	80.4819	60.0586	80.8986	60.0586	39.2979	60.0586	39.7146	60.0586	39.9794
62.2559	80.1617	62.2559	80.1919	62.2559	80.4365	62.2559	80.8101	62.2559	39.3612	62.2559	39.7348	62.2559	39.9794
64.4531	80.2135	64.4531	80.2433	64.4531	80.4741	64.4531	80.8151	64.4531	39.4076	64.4531	39.7486	64.4531	39.9794
66.6504	80.2773	66.6504	80.3062	66.6504	80.5217	66.6504	80.8295	66.6504	39.4561	66.6504	39.764	66.6504	39.9794
69.5801	80.4415	69.5801	80.4688	69.5801	80.6622	69.5801	80.9263	69.5801	39.522	69.5801	39.786	69.5801	39.9794
71.7773	80.5756	71.7773	80.6024	71.7773	80.7856	71.7773	81.0266	71.7773	39.5552	71.7773	39.7962	71.7773	39.9794
73.9746	80.7174	73.9746	80.7435	73.9746	80.9171	73.9746	81.1369	73.9746	39.5861	73.9746	39.8059	73.9746	39.9794
76.9043	80.8713	76.9043	80.897	76.9043	81.0613	76.9043	81.2603	76.9043	39.6161	76.9043	39.815	76.9043	39.9794
79.834	81.1011	79.834	81.1249	79.834	81.2712	79.834	81.4379	79.834	39.6665	79.834	39.8331	79.834	39.9794
82.7637	81.3794	82.7637	81.4001	82.7637	81.5168	82.7637	81.6313	82.7637	39.7482	82.7637	39.8627	82.7637	39.9794
85.6934	81.5935	85.6934	81.6131	85.6934	81.7151	85.6934	81.8016	85.6934	39.7909	85.6934	39.8773	85.6934	39.9794
88.623	81.7096	88.623	81.7314	88.623	81.8526	88.623	81.9708	88.623	39.74	88.623	39.8581	88.623	39.9794
91.5527	81.9688	91.5527	81.9885	91.5527	82.0942	91.5527	82.186	91.5527	39.7819	91.5527	39.8737	91.5527	39.9794
94.4824	82.1536	94.4824	82.1706	94.4824	82.2551	94.4824	82.3164	94.4824	39.8336	94.4824	39.8949	94.4824	39.9794
98.1445	82.4664	98.1445	82.4806	98.1445	82.5398	98.1445	82.554	98.1445	39.906	98.1445	39.9202	98.1445	39.9794
101.807	82.6653	101.807	82.6786	101.807	82.7354	101.807	82.7488	101.807	39.9093	101.807	39.9226	101.807	39.9794
105.469	82.8747	105.469	82.8839	105.469	82.9147	105.469	82.8939	105.469	39.9694	105.469	39.9486	105.469	39.9794
109.131	83.2389	109.131	83.2451	109.131	83.2498	109.131	83.1835	109.131	40.041	109.131	39.9747	109.131	39.9794
112.793	83.4757	112.793	83.4823	112.793	83.4893	112.793	83.4277	112.793	40.034	112.793	39.9724	112.793	39.9794
116.455	83.6264	116.455	83.6319	116.455	83.6348	116.455	83.5725	116.455	40.0388	116.455	39.9765	116.455	39.9794
120.85	83.8599	120.85	83.8617	120.85	83.8468	120.85	83.7699	120.85	40.0712	120.85	39.9943	120.85	39.9794
125.244	84.0487	125.244	84.0464	125.244	84.0002	125.244	83.8758	125.244	40.15	125.244	40.0256	125.244	39.9794
129.639	84.178	129.639	84.1745	129.639	84.1181	129.639	83.9745	129.639	40.1794	129.639	40.0358	129.639	39.9794
134.033	84.2381	134.033	84.2351	134.033	84.1911	134.033	84.0808	134.033	40.1337	134.033	40.0234	134.033	39.9794
138.428	84.3027	138.428	84.2958	138.428	84.2337	138.428	84.1132	138.428	40.1619	138.428	40.0414	138.428	39.9794
143.555	84.4019	143.555	84.3892	143.555	84.2899	143.555	84.1237	143.555	40.2449	143.555	40.0787	143.555	39.9794
148.682	84.4986	148.682	84.4814	148.682	84.3543	148.682	84.1565	148.682	40.3044	148.682	40.1066	148.682	39.9794
153.809	84.5392	153.809	84.5181	153.809	84.3636	153.809	84.1215	153.809	40.376	153.809	40.1339	153.809	39.9794
159.668	84.6336	159.668	84.6085	159.668	84.4323	159.668	84.1725	159.668	40.4153	159.668	40.1556	159.668	39.9794
164.795	84.7423	164.795	84.7147	164.795	84.5208	164.795	84.2328	164.795	40.4613	164.795	40.1733	164.795	39.9794
170.654	84.691	170.654	84.6601	170.654	84.4514	170.654	84.1542	170.654	40.4853	170.654	40.188	170.654	39.9794
176.514	84.524	176.514	84.4908	176.514	84.2748	176.514	83.9834	176.514	40.4867	176.514	40.1954	176.514	39.9794
183.105	84.4238	183.105	84.3814	183.105	84.1126	183.105	83.7712	183.105	40.5896	183.105	40.2482	183.105	39.9794
189.697	84.4458	189.697	84.3979	189.697	84.0882	189.697	83.6728	189.697	40.7046	189.697	40.2891	189.697	39.9794
196.289	84.4322	196.289	84.3809	196.289	84.0572	196.289	83.6307	196.289	40.7296	196.289	40.3031	196.289	39.9794
202.881	84.3996	202.881	84.3397	202.881	83.9674	202.881	83.4888	202.881	40.8303	202.881	40.3517	202.881	39.9794
210.205	84.3336	210.205	84.269	210.205	83.8578	210.205	83.3229	210.205	40.9256	210.205	40.3907	210.205	39.9794
217.529	84.2549	217.529	84.19	217.529	83.7788	217.529	83.2446	217.529	40.9248	217.529	40.3905	217.529	39.9794
225.586	84.233	225.586	84.1527	225.586	83.6615	225.586	83.059	225.586	41.0731	225.586	40.4706	225.586	39.9794
232.91	84.2914	232.91	84.2081	232.91	83.6661	232.91	82.9264	232.91	41.2611	232.91	40.5214	232.91	39.9794
241.699	84.0776	241.699	83.9951	241.699	83.4418	241.699	82.6673	241.699	41.3072	241.699	40.5328	241.699	39.9794
249.756	84.1256	249.756	84.0326	249.756	83.4042	249.756	82.5401	249.756	41.4719	249.756	40.6078	249.756	39.9794
258.545	84.0963	258.545	84.0065	258.545	83.4008	258.545	82.5621	258.545	41.4237	258.545	40.5851	258.545	39.9794
268.066	83.8316	268.066	83.7371	268.066	83.0672	268.066	82.1159	268.066	41.6006	268.066	40.6493	268.066	39.9794
277.588	83.9301	277.588	83.8311	277.588	83.1753	277.588	82.2737	277.588	41.5368	277.588	40.6352	277.588	39.9794
287.109	83.762	287.109	83.6534	287.109	82.9597	287.109	82.0571	287.109	41.5756	287.109	40.673	287.109	39.9794
297.363	83.934	297.363	83.82	297.363	83.0227	297.363	81.8504	297.363	41.949	297.363	40.7767	297.363	39.9794
307.617	83.7588	307.617	83.66	307.617	82.9545	307.617	81.902	307.617	41.7374	307.617	40.6848	307.617	39.9794
318.604	83.676	318.604	83.5606	318.604	82.7484	318.604	81.5297	318.604	42.0103	318.604	40.7916	318.604	39.9794
329.59	83.676	329.59	83.5718	329.59	82.7757	329.59	81.5104	329.59	42.0408	329.59	40.7754	329.59	39.9794
341.309	83.2851	341.309	83.1712	341.309	82.3885	341.309	81.2899	341.309	41.8607	341.309	40.7621	341.309	39.9794
353.76	83.7196	353.76	83.5913	353.76	82.6317	353.76	81.1503	353.76	42.4204	353.76	40.939	353.76	39.9794
366.211	83.6577	366.211	83.5449	366.211	82.6531	366.211	81.1631	366.211	42.3611	366.211	40.8712	366.211	39.9794
378.662	83.7742	378.662	83.6688	378.662	82.7929	378.662	81.2906	378.662	42.3576	378.662	40.8552	378.662	39.9794
392.578	83.1845	392.578	83.0961	392.578	82.3035	392.578	80.8414	392.578	42.2341	392.578	40.772	392.578	39.9794
405.762	83.1882	405.762	83.071	405.762	82.1593	405.762	80.6475	405.762	42.4029	405.762	40.8911	405.762	39.9794
420.41	83.3167	420.41	83.222	420.41	82.3383	420.41	80.6505	420.41	42.5509	420.41	40.8631	420.41	39.9794
435.059	83.2691	435.059	83.1786	435.059	82.2856	435.059	80.6573	435.059	42.5007	435.059	40.8725	435.059	39.9794
450.439	82.9962	450.439	82.934	450.439	82.1537	450.439	80.3788	450.439	42.5347	450.439	40.7597	450.439	39.9794
466.553	82.9055	466.553	82.847	466.553	82.0831	466.553	80.3084	466.553	42.518	466.553	40.7433	466.553	39.9794
482.666	82.5996	482.666	82.5517	482.666	81.8664	482.666	80.1286	482.666	42.4025	482.666	40.6648	482.666	39.9794
500.244	82.4618	500.244	82.4137	500.244	81.7557	500.244	80.0955	500.244	42.2975	500.244	40.6374	500.244	39.9794
517.822	81.8394	517.822	81.8184	517.822	81.3488	517.822	79.8723	517.822	41.9255	517.822	40.449	517.822	39.9794
536.133	82.2411	536.133	82.1062	536.133	81.2185	536.133	79.4615	536.133	42.6241	536.133	40.8671	536.133	39.9794
554.443	82.4634	554.443	82.3943	554.443	81.7256	554.443	79.6734	554.443	42.7003	554.443	40.6481	554.443	39.9794
574.219	82.4626	574.219	82.34	574.219	81.7586	574.219	79.786	574.219	42.5334	574.219	40.5608	574.219	39.9794
594.727	82.465	594.727	82.2679	594.727	81.5591	594.727	79.6709	594.727	42.5764	594.727	40.6881	594.727	39.9794
615.234	82.9385	615.234	82.6837	615.234	81.7752	615.234	79.7397	615.234	42.9234	615.234	40.8879	615.234	39.9794
637.207	83.7013	637.207	83.3204	637.207	82.1821	637.207	80.0465	637.207	43.2533	637.207	41.1177	637.207	39.9794
659.912	83.7341	659.912	83.3857	659.912	82.2363	659.912	80.1092	659.912	43.2559	659.912	41.1288	659.912	39.9794
683.35	84.4647	683.35	84.0431	683.35	82.5983	683.35	80.4031	683.35	43.6194	683.35	41.4242	683.35	39.9794
706.787	84.8675	706.787	84.4013	706.787	82.8565	706.787	80.5677	706.787	43.813	706.787	41.5243	706.787	39.9794
731.689	84.9319	731.689	84.5215	731.689	82.8867	731.689	80.4516	731.689	44.0493	731.689	41.6142	731.689	39.9794
758.057	85.0576	758.057	84.5946	758.057	82.9008	758.057	80.4735	758.057	44.1005	758.057	41.6732	758.057	39.9794
784.424	84.9535	784.424	84.5086	784.424	82.6894	784.424	80.3148	784.424	44.1732	784.424	41.7986	784.424	39.9794
812.256	85.0626	812.256	84.6408	812.256	82.6697	812.256	80.2126	812.256	44.4076	812.256	41.9505	812.256	39.9794
840.82	85.0668	840.82	84.6787	840.82	82.596	840.82	80.0409	840.82	44.6172	840.82	42.0621	840.82	39.9794
870.85	85.0546	870.85	84.7079	870.85	82.5569	870.85	79.9433	870.85	44.7441	870.85	42.1304	870.85	39.9794
901.611	84.8381	901.611	84.604	901.611	82.6786	901.611	80.029	901.611	44.5545	901.611	41.9048	901.611	39.9794
933.105	85.1836	933.105	84.8993	933.105	82.7185	933.105	79.9538	933.105	44.9249	933.105	42.1602	933.105	39.9794
966.064	84.7957	966.064	84.6239	966.064	82.529	966.064	79.7794	966.064	44.8239	966.064	42.0743	966.064	39.9794
999.756	84.5335	999.756	84.4016	999.756	82.415	999.756	79.61	999.756	44.7709	999.756	41.966	999.756	39.9794
1,034.91	83.5539	1,034.91	83.4882	1,034.91	81.915	1,034.91	79.3173	1,034.91	44.1503	1,034.91	41.5526	1,034.91	39.9794
1,071.53	83.3822	1,071.53	83.2837	1,071.53	81.9549	1,071.53	79.4109	1,071.53	43.8522	1,071.53	41.3082	1,071.53	39.9794
1,109.62	83.5427	1,109.62	83.2557	1,109.62	81.7891	1,109.62	79.3306	1,109.62	43.9045	1,109.62	41.446	1,109.62	39.9794
1,148.44	84.4127	1,148.44	83.9209	1,148.44	82.2668	1,148.44	79.6734	1,148.44	44.2269	1,148.44	41.6335	1,148.44	39.9794
1,189.45	84.6141	1,189.45	83.9957	1,189.45	82.1031	1,189.45	79.3884	1,189.45	44.5866	1,189.45	41.872	1,189.45	39.9794
1,231.2	84.9073	1,231.2	84.2656	1,231.2	82.0029	1,231.2	79.0102	1,231.2	45.2348	1,231.2	42.2421	1,231.2	39.9794
1,274.41	84.3906	1,274.41	83.828	1,274.41	81.5554	1,274.41	78.4254	1,274.41	45.3819	1,274.41	42.2519	1,274.41	39.9794
1,319.82	83.3863	1,319.82	82.9658	1,319.82	81.0034	1,319.82	77.9143	1,319.82	45.0309	1,319.82	41.9418	1,319.82	39.9794
1,365.97	82.8228	1,365.97	82.4476	1,365.97	80.4564	1,365.97	77.5247	1,365.97	44.9023	1,365.97	41.9706	1,365.97	39.9794
1,414.31	82.3438	1,414.31	82.0262	1,414.31	80.0082	1,414.31	77.188	1,414.31	44.8176	1,414.31	41.9974	1,414.31	39.9794
1,464.11	82.3849	1,464.11	81.9599	1,464.11	79.8061	1,464.11	76.9796	1,464.11	44.9597	1,464.11	42.1332	1,464.11	39.9794
1,515.38	82.2994	1,515.38	81.8546	1,515.38	79.842	1,515.38	76.9348	1,515.38	44.8992	1,515.38	41.992	1,515.38	39.9794
1,568.85	82.2929	1,568.85	81.8284	1,568.85	79.9405	1,568.85	77.0608	1,568.85	44.747	1,568.85	41.8673	1,568.85	39.9794
1,624.51	81.9742	1,624.51	81.6398	1,624.51	79.7725	1,624.51	76.9623	1,624.51	44.6569	1,624.51	41.8467	1,624.51	39.9794
1,681.64	81.1344	1,681.64	80.9473	1,681.64	79.5432	1,681.64	76.9045	1,681.64	44.0222	1,681.64	41.3835	1,681.64	39.9794
1,740.97	81.5311	1,740.97	81.2307	1,740.97	79.8178	1,740.97	77.1549	1,740.97	44.0552	1,740.97	41.3923	1,740.97	39.9794
1,802.49	82.6806	1,802.49	82.3602	1,802.49	80.6686	1,802.49	77.7926	1,802.49	44.547	1,802.49	41.6709	1,802.49	39.9794
1,866.21	82.8468	1,866.21	82.448	1,866.21	80.8618	1,866.21	78.1065	1,866.21	44.3209	1,866.21	41.5655	1,866.21	39.9794
1,932.13	82.3348	1,932.13	81.8657	1,932.13	80.3454	1,932.13	77.7187	1,932.13	44.1264	1,932.13	41.4997	1,932.13	39.9794
2,000.24	83.1022	2,000.24	82.6602	2,000.24	80.9182	2,000.24	78.2697	2,000.24	44.3699	2,000.24	41.7213	2,000.24	39.9794
2,070.56	84.5277	2,070.56	84.0432	2,070.56	81.8867	2,070.56	78.631	2,070.56	45.3917	2,070.56	42.1359	2,070.56	39.9794
2,143.8	84.6439	2,143.8	84.3151	2,143.8	82.1252	2,143.8	78.8515	2,143.8	45.443	2,143.8	42.1693	2,143.8	39.9794
2,219.24	83.5797	2,219.24	83.4315	2,219.24	81.4616	2,219.24	78.2704	2,219.24	45.1404	2,219.24	41.9492	2,219.24	39.9794
2,297.61	84.8144	2,297.61	84.4417	2,297.61	81.9457	2,297.61	78.4612	2,297.61	45.96	2,297.61	42.4754	2,297.61	39.9794
2,378.17	86.183	2,378.17	85.5702	2,378.17	82.6872	2,378.17	78.9122	2,378.17	46.6373	2,378.17	42.8624	2,378.17	39.9794
2,462.4	86.0315	2,462.4	85.4569	2,462.4	82.5431	2,462.4	78.6331	2,462.4	46.8032	2,462.4	42.8932	2,462.4	39.9794
2,548.83	85.4337	2,548.83	85.0685	2,548.83	82.2537	2,548.83	78.3254	2,548.83	46.7225	2,548.83	42.7942	2,548.83	39.9794
2,638.92	85.3752	2,638.92	84.8905	2,638.92	81.956	2,638.92	78.0273	2,638.92	46.8426	2,638.92	42.914	2,638.92	39.9794
2,731.93	85.2546	2,731.93	84.7861	2,731.93	81.8221	2,731.93	77.7976	2,731.93	46.9679	2,731.93	42.9434	2,731.93	39.9794
2,828.61	85.9835	2,828.61	85.3795	2,828.61	82.1642	2,828.61	77.9215	2,828.61	47.4374	2,828.61	43.1948	2,828.61	39.9794
2,928.22	86.1618	2,928.22	85.5861	2,928.22	82.3717	2,928.22	78.0541	2,928.22	47.5114	2,928.22	43.1937	2,928.22	39.9794
3,031.49	85.7395	3,031.49	85.1701	3,031.49	82.0152	3,031.49	77.7199	3,031.49	47.4297	3,031.49	43.1344	3,031.49	39.9794
3,138.43	86.411	3,138.43	85.6172	3,138.43	82.2553	3,138.43	77.7593	3,138.43	47.8373	3,138.43	43.3413	3,138.43	39.9794
3,249.02	86.346	3,249.02	85.5812	3,249.02	82.176	3,249.02	77.6847	3,249.02	47.8759	3,249.02	43.3847	3,249.02	39.9794
3,363.28	85.9802	3,363.28	85.2194	3,363.28	81.7916	3,363.28	77.3763	3,363.28	47.8225	3,363.28	43.4071	3,363.28	39.9794
3,481.93	86.0396	3,481.93	85.1502	3,481.93	81.579	3,481.93	77.1636	3,481.93	47.966	3,481.93	43.5506	3,481.93	39.9794
3,604.98	86.4431	3,604.98	85.469	3,604.98	81.7007	3,604.98	77.1161	3,604.98	48.3323	3,604.98	43.7477	3,604.98	39.9794
3,732.42	86.0883	3,732.42	85.0304	3,732.42	81.1828	3,732.42	76.6644	3,732.42	48.3454	3,732.42	43.827	3,732.42	39.9794
3,863.53	86.2314	3,863.53	85.0414	3,863.53	81.0819	3,863.53	76.4381	3,863.53	48.5827	3,863.53	43.9388	3,863.53	39.9794
3,999.76	86.6781	3,999.76	85.442	3,999.76	81.3009	3,999.76	76.4779	3,999.76	48.9435	3,999.76	44.1206	3,999.76	39.9794
4,141.11	86.8928	4,141.11	85.5493	4,141.11	81.3458	4,141.11	76.4786	4,141.11	49.05	4,141.11	44.1829	4,141.11	39.9794
4,286.87	87.7784	4,286.87	86.1467	4,286.87	81.7295	4,286.87	76.5994	4,286.87	49.5267	4,286.87	44.3966	4,286.87	39.9794
4,438.48	88.1552	4,438.48	86.5138	4,438.48	82.1022	4,438.48	76.9943	4,438.48	49.4989	4,438.48	44.391	4,438.48	39.9794
4,594.48	88.2573	4,594.48	86.5696	4,594.48	82.1673	4,594.48	77.1407	4,594.48	49.4084	4,594.48	44.3818	4,594.48	39.9794
4,757.08	88.1711	4,757.08	86.5192	4,757.08	82.2182	4,757.08	77.3143	4,757.08	49.1842	4,757.08	44.2803	4,757.08	39.9794
4,924.8	88.0508	4,924.8	86.3467	4,924.8	82.2679	4,924.8	77.4888	4,924.8	48.8373	4,924.8	44.0581	4,924.8	39.9794
5,098.39	87.4937	5,098.39	85.7338	5,098.39	81.7724	5,098.39	77.1238	5,098.39	48.5895	5,098.39	43.9408	5,098.39	39.9794
5,277.83	86.9024	5,277.83	85.2682	5,277.83	81.5346	5,277.83	76.9729	5,277.83	48.2747	5,277.83	43.713	5,277.83	39.9794
5,463.87	86.1293	5,463.87	84.4873	5,463.87	80.926	5,463.87	76.5323	5,463.87	47.9344	5,463.87	43.5407	5,463.87	39.9794
5,656.49	84.9191	5,656.49	83.5601	5,656.49	80.2923	5,656.49	76.019	5,656.49	47.5205	5,656.49	43.2473	5,656.49	39.9794
5,856.45	84.349	5,856.45	83.1322	5,856.45	79.9644	5,856.45	75.7149	5,856.45	47.3967	5,856.45	43.1472	5,856.45	39.9794
6,062.99	84.3078	6,062.99	83.3079	6,062.99	80.0524	6,062.99	75.6246	6,062.99	47.6627	6,062.99	43.2349	6,062.99	39.9794
6,276.86	84.321	6,276.86	83.4365	6,276.86	80.1892	6,276.86	75.7201	6,276.86	47.6959	6,276.86	43.2267	6,276.86	39.9794
6,498.05	84.2749	6,498.05	83.4403	6,498.05	80.1914	6,498.05	75.7856	6,498.05	47.6341	6,498.05	43.2283	6,498.05	39.9794
6,727.29	84.0454	6,727.29	83.5165	6,727.29	80.343	6,727.29	75.9687	6,727.29	47.5272	6,727.29	43.1529	6,727.29	39.9794
6,964.6	83.7988	6,964.6	83.4636	6,964.6	80.4117	6,964.6	76.0529	6,964.6	47.3901	6,964.6	43.0313	6,964.6	39.9794
7,209.96	83.8658	7,209.96	83.4198	7,209.96	80.3058	7,209.96	75.8474	7,209.96	47.5517	7,209.96	43.0934	7,209.96	39.9794
7,464.11	83.0033	7,464.11	82.7659	7,464.11	79.8103	7,464.11	75.3838	7,464.11	47.3615	7,464.11	42.935	7,464.11	39.9794
7,727.78	82.0424	7,727.78	81.8056	7,727.78	79.0711	7,727.78	74.8019	7,727.78	46.983	7,727.78	42.7138	7,727.78	39.9794
8,000.24	81.3911	8,000.24	81.3018	8,000.24	78.4852	8,000.24	74.3017	8,000.24	46.9795	8,000.24	42.796	8,000.24	39.9794
8,282.23	82.4606	8,282.23	82.1544	8,282.23	78.9723	8,282.23	74.5584	8,282.23	47.5754	8,282.23	43.1616	8,282.23	39.9794
8,574.46	84.2018	8,574.46	83.5706	8,574.46	79.9351	8,574.46	75.1298	8,574.46	48.4202	8,574.46	43.6149	8,574.46	39.9794
8,876.22	84.3945	8,876.22	83.9342	8,876.22	80.3713	8,876.22	75.5279	8,876.22	48.3857	8,876.22	43.5423	8,876.22	39.9794
9,189.7	83.1382	9,189.7	83.0595	9,189.7	79.8115	9,189.7	75.1442	9,189.7	47.8948	9,189.7	43.2274	9,189.7	39.9794
9,513.43	81.3206	9,513.43	81.6827	9,513.43	78.7663	9,513.43	74.3244	9,513.43	47.3377	9,513.43	42.8958	9,513.43	39.9794
9,848.88	80.589	9,848.88	81.2919	9,848.88	78.424	9,848.88	74.1146	9,848.88	47.1567	9,848.88	42.8473	9,848.88	39.9794
10,196.8	81.9022	10,196.8	82.284	10,196.8	79.0007	10,196.8	74.4986	10,196.8	47.7648	10,196.8	43.2627	10,196.8	39.9794
10,556.4	82.5758	10,556.4	82.8721	10,556.4	79.4919	10,556.4	74.8262	10,556.4	48.0252	10,556.4	43.3596	10,556.4	39.9794
10,928.5	82.8326	10,928.5	82.9531	10,928.5	79.5755	10,928.5	74.7754	10,928.5	48.1571	10,928.5	43.357	10,928.5	39.9794
11,313.7	82.4508	11,313.7	82.6456	11,313.7	79.2854	11,313.7	74.4977	11,313.7	48.1274	11,313.7	43.3396	11,313.7	39.9794
11,712.9	81.9616	11,712.9	82.1581	11,712.9	78.7723	11,712.9	74.0931	11,712.9	48.0444	11,712.9	43.3652	11,712.9	39.9794
12,126	82.0387	12,126	82.0719	12,126	78.5311	12,126	73.884	12,126	48.1672	12,126	43.5201	12,126	39.9794
12,553.7	83.1732	12,553.7	82.728	12,553.7	78.975	12,553.7	74.1393	12,553.7	48.5681	12,553.7	43.7324	12,553.7	39.9794
12,996.1	83.8122	12,996.1	83.1001	12,996.1	79.2247	12,996.1	74.2601	12,996.1	48.8194	12,996.1	43.8548	12,996.1	39.9794
13,454.6	84.2064	13,454.6	83.3133	13,454.6	79.313	13,454.6	74.2618	13,454.6	49.0308	13,454.6	43.9796	13,454.6	39.9794
13,928.5	83.885	13,928.5	82.8934	13,928.5	78.9628	13,928.5	73.9728	13,928.5	48.9001	13,928.5	43.91	13,928.5	39.9794
14,419.9	83.4223	14,419.9	82.3496	14,419.9	78.3816	14,419.9	73.4863	14,419.9	48.8427	14,419.9	43.9474	14,419.9	39.9794
14,928.2	83.8424	14,928.2	82.5563	14,928.2	78.4594	14,928.2	73.4055	14,928.2	49.1303	14,928.2	44.0763	14,928.2	39.9794
15,454.8	84.483	15,454.8	83.0274	15,454.8	78.8051	15,454.8	73.5173	15,454.8	49.4895	15,454.8	44.2017	15,454.8	39.9794
15,999.8	84.9789	15,999.8	83.1676	15,999.8	78.8124	15,999.8	73.4117	15,999.8	49.7353	15,999.8	44.3347	15,999.8	39.9794
16,564.5	85.5178	16,564.5	83.1752	16,564.5	78.5851	16,564.5	73.0421	16,564.5	50.1125	16,564.5	44.5695	16,564.5	39.9794
17,148.2	85.8075	17,148.2	83.0039	17,148.2	78.3124	17,148.2	72.6672	17,148.2	50.3161	17,148.2	44.6709	17,148.2	39.9794
17,753.2	86.1453	17,753.2	83.1015	17,753.2	78.3793	17,753.2	72.5984	17,753.2	50.4824	17,753.2	44.7015	17,753.2	39.9794
18,379.4	85.8612	18,379.4	82.5511	18,379.4	77.8248	18,379.4	72.0307	18,379.4	50.4998	18,379.4	44.7057	18,379.4	39.9794
19,027.6	84.5998	19,027.6	81.1469	19,027.6	76.3899	19,027.6	70.7085	19,027.6	50.4178	19,027.6	44.7363	19,027.6	39.9794
19,698.5	84.7853	19,698.5	81.1061	19,698.5	76.218	19,698.5	70.2439	19,698.5	50.8416	19,698.5	44.8675	19,698.5	39.9794
19,999.5	84.7996	19,999.5	81.0111	19,999.5	76.1139	19,999.5	70.0131	19,999.5	50.9774	19,999.5	44.8766	19,999.5	39.9794
