"SPL Vertical"																																																																							
"On-Axis"		"10°"		"-10°"		"20°"		"-20°"		"30°"		"-30°"		"40°"		"-40°"		"50°"		"-50°"		"60°"		"-60°"		"70°"		"-70°"		"80°"		"-80°"		"90°"		"-90°"		"100°"		"-100°"		"110°"		"-110°"		"120°"		"-120°"		"130°"		"-130°"		"140°"		"-140°"		"150°"		"-150°"		"160°"		"-160°"		"170°"		"-170°"		"180°"	
"Frequency [Hz]"	"Sound Pessure Level [dB]  / [2.83V 1m] "	"Frequency [Hz]"	"Sound Pessure Level [dB]  / [2.83V 1m] "	"Frequency [Hz]"	"Sound Pessure Level [dB]  / [2.83V 1m] "	"Frequency [Hz]"	"Sound Pessure Level [dB]  / [2.83V 1m] "	"Frequency [Hz]"	"Sound Pessure Level [dB]  / [2.83V 1m] "	"Frequency [Hz]"	"Sound Pessure Level [dB]  / [2.83V 1m] "	"Frequency [Hz]"	"Sound Pessure Level [dB]  / [2.83V 1m] "	"Frequency [Hz]"	"Sound Pessure Level [dB]  / [2.83V 1m] "	"Frequency [Hz]"	"Sound Pessure Level [dB]  / [2.83V 1m] "	"Frequency [Hz]"	"Sound Pessure Level [dB]  / [2.83V 1m] "	"Frequency [Hz]"	"Sound Pessure Level [dB]  / [2.83V 1m] "	"Frequency [Hz]"	"Sound Pessure Level [dB]  / [2.83V 1m] "	"Frequency [Hz]"	"Sound Pessure Level [dB]  / [2.83V 1m] "	"Frequency [Hz]"	"Sound Pessure Level [dB]  / [2.83V 1m] "	"Frequency [Hz]"	"Sound Pessure Level [dB]  / [2.83V 1m] "	"Frequency [Hz]"	"Sound Pessure Level [dB]  / [2.83V 1m] "	"Frequency [Hz]"	"Sound Pessure Level [dB]  / [2.83V 1m] "	"Frequency [Hz]"	"Sound Pessure Level [dB]  / [2.83V 1m] "	"Frequency [Hz]"	"Sound Pessure Level [dB]  / [2.83V 1m] "	"Frequency [Hz]"	"Sound Pessure Level [dB]  / [2.83V 1m] "	"Frequency [Hz]"	"Sound Pessure Level [dB]  / [2.83V 1m] "	"Frequency [Hz]"	"Sound Pessure Level [dB]  / [2.83V 1m] "	"Frequency [Hz]"	"Sound Pessure Level [dB]  / [2.83V 1m] "	"Frequency [Hz]"	"Sound Pessure Level [dB]  / [2.83V 1m] "	"Frequency [Hz]"	"Sound Pessure Level [dB]  / [2.83V 1m] "	"Frequency [Hz]"	"Sound Pessure Level [dB]  / [2.83V 1m] "	"Frequency [Hz]"	"Sound Pessure Level [dB]  / [2.83V 1m] "	"Frequency [Hz]"	"Sound Pessure Level [dB]  / [2.83V 1m] "	"Frequency [Hz]"	"Sound Pessure Level [dB]  / [2.83V 1m] "	"Frequency [Hz]"	"Sound Pessure Level [dB]  / [2.83V 1m] "	"Frequency [Hz]"	"Sound Pessure Level [dB]  / [2.83V 1m] "	"Frequency [Hz]"	"Sound Pessure Level [dB]  / [2.83V 1m] "	"Frequency [Hz]"	"Sound Pessure Level [dB]  / [2.83V 1m] "	"Frequency [Hz]"	"Sound Pessure Level [dB]  / [2.83V 1m] "	"Frequency [Hz]"	"Sound Pessure Level [dB]  / [2.83V 1m] "	"Frequency [Hz]"	"Sound Pessure Level [dB]  / [2.83V 1m] "
20.5078	37.2383	20.5078	37.5059	20.5078	37.1846	20.5078	38.074	20.5078	37.3772	20.5078	39.0536	20.5078	37.9539	20.5078	40.4461	20.5078	39.0249	20.5078	42.1165	20.5078	40.534	20.5078	43.89	20.5078	42.2903	20.5078	45.6352	20.5078	44.1044	20.5078	47.277	20.5078	45.8555	20.5078	48.7797	20.5078	47.4836	20.5078	50.1278	20.5078	48.9634	20.5078	51.3154	20.5078	50.2857	20.5078	52.3398	20.5078	51.4475	20.5078	53.1991	20.5078	52.4476	20.5078	53.8916	20.5078	53.2844	20.5078	54.4154	20.5078	53.9562	20.5078	54.7686	20.5078	54.4605	20.5078	54.95	20.5078	54.7954	20.5078	54.9589
21.2402	44.333	21.2402	44.202	21.2402	44.3442	21.2402	43.9809	21.2402	44.2401	21.2402	43.7465	21.2402	44.0602	21.2402	43.6368	21.2402	43.8884	21.2402	43.8342	21.2402	43.8615	21.2402	44.4733	21.2402	44.1415	21.2402	45.5341	21.2402	44.8301	21.2402	46.8585	21.2402	45.8904	21.2402	48.2671	21.2402	47.1769	21.2402	49.6318	21.2402	48.5324	21.2402	50.8805	21.2402	49.8443	21.2402	51.9769	21.2402	51.0466	21.2402	52.9036	21.2402	52.1042	21.2402	53.6521	21.2402	52.9989	21.2402	54.2181	21.2402	53.721	21.2402	54.5993	21.2402	54.2646	21.2402	54.7944	21.2402	54.6261	21.2402	54.8032
21.9727	46.8979	21.9727	46.7807	21.9727	46.9184	21.9727	46.5897	21.9727	46.8428	21.9727	46.3787	21.9727	46.6945	21.9727	46.2414	21.9727	46.525	21.9727	46.3062	21.9727	46.4212	21.9727	46.6921	21.9727	46.499	21.9727	47.4363	21.9727	46.8672	21.9727	48.4649	21.9727	47.5661	21.9727	49.6438	21.9727	48.538	21.9727	50.8469	21.9727	49.6653	21.9727	51.986	21.9727	50.8303	21.9727	53.0079	21.9727	51.9457	21.9727	53.8826	21.9727	52.9564	21.9727	54.5931	21.9727	53.8293	21.9727	55.1299	21.9727	54.5452	21.9727	55.4874	21.9727	55.0924	21.9727	55.6627	21.9727	55.4636	21.9727	55.6545
22.7051	45.828	22.7051	45.6342	22.7051	45.8529	22.7051	45.2947	22.7051	45.7097	22.7051	44.8739	22.7051	45.4213	22.7051	44.5103	22.7051	45.047	22.7051	44.4327	22.7051	44.708	22.7051	44.8751	22.7051	44.6054	22.7051	45.8846	22.7051	44.959	22.7051	47.2718	22.7051	45.8483	22.7051	48.7865	22.7051	47.1349	22.7051	50.2548	22.7051	48.5902	22.7051	51.5874	22.7051	50.0353	22.7051	52.7451	22.7051	51.3693	22.7051	53.7126	22.7051	52.5442	22.7051	54.4843	22.7051	53.5388	22.7051	55.0582	22.7051	54.3439	22.7051	55.4339	22.7051	54.9554	22.7051	55.6111	22.7051	55.3712	22.7051	55.5901
23.4375	46.4724	23.4375	46.2868	23.4375	46.4778	23.4375	45.9432	23.4375	46.3016	23.4375	45.5019	23.4375	45.9618	23.4375	45.0957	23.4375	45.511	23.4375	44.9548	23.4375	45.0682	23.4375	45.3338	23.4375	44.8511	23.4375	46.3075	23.4375	45.1256	23.4375	47.6921	23.4375	46.01	23.4375	49.2234	23.4375	47.3521	23.4375	50.7141	23.4375	48.8828	23.4375	52.0684	23.4375	50.3973	23.4375	53.2449	23.4375	51.7868	23.4375	54.2277	23.4375	53.0036	23.4375	55.0113	23.4375	54.029	23.4375	55.594	23.4375	54.8562	23.4375	55.9752	23.4375	55.4829	23.4375	56.1547	23.4375	55.9084	23.4375	56.1324
24.1699	46.8252	24.1699	46.6434	24.1699	46.8472	24.1699	46.3341	24.1699	46.7062	24.1699	45.9772	24.1699	46.4256	24.1699	45.7282	24.1699	46.0695	24.1699	45.8129	24.1699	45.7695	24.1699	46.4166	24.1699	45.7359	24.1699	47.524	24.1699	46.182	24.1699	48.9339	24.1699	47.1585	24.1699	50.4261	24.1699	48.504	24.1699	51.8555	24.1699	49.9899	24.1699	53.1481	24.1699	51.4476	24.1699	54.2704	24.1699	52.7853	24.1699	55.2085	24.1699	53.9603	24.1699	55.9566	24.1699	54.954	24.1699	56.5122	24.1699	55.7587	24.1699	56.874	24.1699	56.371	24.1699	57.0409	24.1699	56.7893	24.1699	57.0128
25.6348	49.4448	25.6348	49.3594	25.6348	49.4346	25.6348	49.2086	25.6348	49.3262	25.6348	49.0571	25.6348	49.144	25.6348	49.0098	25.6348	48.947	25.6348	49.1974	25.6348	48.8376	25.6348	49.7206	25.6348	48.9523	25.6348	50.5845	25.6348	49.4097	25.6348	51.693	25.6348	50.2339	25.6348	52.9118	25.6348	51.3347	25.6348	54.1269	25.6348	52.5703	25.6348	55.2622	25.6348	53.8163	25.6348	56.2728	25.6348	54.9892	25.6348	57.133	25.6348	56.0401	25.6348	57.8284	25.6348	56.9419	25.6348	58.3504	25.6348	57.6794	25.6348	58.6938	25.6348	58.2438	25.6348	58.8555	25.6348	58.6297	25.6348	58.8341
26.3672	50.8747	26.3672	50.785	26.3672	50.8796	26.3672	50.6352	26.3672	50.7984	26.3672	50.4783	26.3672	50.652	26.3672	50.4014	26.3672	50.4887	26.3672	50.5167	26.3672	50.3901	26.3672	50.9224	26.3672	50.4652	26.3672	51.6459	26.3672	50.8172	26.3672	52.6228	26.3672	51.4873	26.3672	53.7379	26.3672	52.4253	26.3672	54.8793	26.3672	53.5216	26.3672	55.9652	26.3672	54.6623	26.3672	56.9436	26.3672	55.7607	26.3672	57.7833	26.3672	56.7605	26.3672	58.466	26.3672	57.6276	26.3672	58.9807	26.3672	58.3416	26.3672	59.3208	26.3672	58.8902	26.3672	59.4824	26.3672	59.2658	26.3672	59.464
27.0996	51.6201	27.0996	51.5361	27.0996	51.6202	27.0996	51.3921	27.0996	51.534	27.0996	51.2393	27.0996	51.3805	27.0996	51.1608	27.0996	51.2048	27.0996	51.2638	27.0996	51.0841	27.0996	51.6445	27.0996	51.1251	27.0996	52.3337	27.0996	51.4334	27.0996	53.2749	27.0996	52.059	27.0996	54.3589	27.0996	52.9613	27.0996	55.4761	27.0996	54.0345	27.0996	56.5439	27.0996	55.1635	27.0996	57.5088	27.0996	56.2579	27.0996	58.3382	27.0996	57.2584	27.0996	59.0126	27.0996	58.1287	27.0996	59.5203	27.0996	58.8472	27.0996	59.854	27.0996	59.401	27.0996	60.0098	27.0996	59.782	27.0996	59.9857
27.832	52.9365	27.832	52.869	27.832	52.9359	27.832	52.7547	27.832	52.8656	27.832	52.6377	27.832	52.743	27.832	52.5878	27.832	52.6082	27.832	52.6936	27.832	52.5271	27.832	53.0356	27.832	52.5872	27.832	53.6457	27.832	52.8748	27.832	54.4869	27.832	53.4343	27.832	55.4723	27.832	54.2402	27.832	56.5061	27.832	55.211	27.832	57.5092	27.832	56.2486	27.832	58.4264	27.832	57.2692	27.832	59.222	27.832	58.2133	27.832	59.8733	27.832	59.0417	27.832	60.3662	27.832	59.7298	27.832	60.6919	27.832	60.2621	27.832	60.8453	27.832	60.6288	27.832	60.8242
29.2969	54.9018	29.2969	54.8432	29.2969	54.9061	29.2969	54.7483	29.2969	54.8549	29.2969	54.654	29.2969	54.7633	29.2969	54.6178	29.2969	54.6648	29.2969	54.7118	29.2969	54.6129	29.2969	55.0034	29.2969	54.6771	29.2969	55.5259	29.2969	54.9267	29.2969	56.2585	29.2969	55.4026	29.2969	57.1355	29.2969	56.0946	29.2969	58.075	29.2969	56.9448	29.2969	59.0029	29.2969	57.8737	29.2969	59.8632	29.2969	58.8056	29.2969	60.6172	29.2969	59.6814	29.2969	61.2391	29.2969	60.4591	29.2969	61.7123	29.2969	61.1108	29.2969	62.0262	29.2969	61.618	29.2969	62.1748	29.2969	61.9686	29.2969	62.1555
30.0293	55.9472	30.0293	55.8993	30.0293	55.9532	30.0293	55.8272	30.0293	55.9156	30.0293	55.7655	30.0293	55.8477	30.0293	55.7658	30.0293	55.7794	30.0293	55.8902	30.0293	55.7577	30.0293	56.1946	30.0293	55.8426	30.0293	56.7047	30.0293	56.0932	30.0293	57.4014	30.0293	56.5448	30.0293	58.2285	30.0293	57.1913	30.0293	59.1142	30.0293	57.9856	30.0293	59.9919	30.0293	58.8589	30.0293	60.8089	30.0293	59.7423	30.0293	61.5272	30.0293	60.5793	30.0293	62.121	30.0293	61.3283	30.0293	62.5727	30.0293	61.9599	30.0293	62.8711	30.0293	62.4545	30.0293	63.0097	30.0293	62.799	30.0293	62.9854
31.4941	58.4251	31.4941	58.3898	31.4941	58.4299	31.4941	58.3376	31.4941	58.4027	31.4941	58.2944	31.4941	58.3536	31.4941	58.2983	31.4941	58.3051	31.4941	58.3954	31.4941	58.2917	31.4941	58.6295	31.4941	58.3578	31.4941	59.0268	31.4941	58.5488	31.4941	59.5835	31.4941	58.8972	31.4941	60.2649	31.4941	59.4084	31.4941	61.0176	31.4941	60.0564	31.4941	61.7841	31.4941	60.7922	31.4941	62.5137	31.4941	61.5585	31.4941	63.1665	31.4941	62.3024	31.4941	63.7129	31.4941	62.9807	31.4941	64.1324	31.4941	63.561	31.4941	64.411	31.4941	64.0201	31.4941	64.5406	31.4941	64.3423	31.4941	64.5174
32.2266	59.2517	32.2266	59.2227	32.2266	59.2535	32.2266	59.1794	32.2266	59.2266	32.2266	59.1463	32.2266	59.1804	32.2266	59.1589	32.2266	59.1357	32.2266	59.2599	32.2266	59.1252	32.2266	59.4898	32.2266	59.19	32.2266	59.873	32.2266	59.3731	32.2266	60.407	32.2266	59.7055	32.2266	61.0607	32.2266	60.1941	32.2266	61.7848	32.2266	60.8159	32.2266	62.5249	32.2266	61.5257	32.2266	63.2318	32.2266	62.2692	32.2266	63.8661	32.2266	62.9946	32.2266	64.3981	32.2266	63.659	32.2266	64.8066	32.2266	64.2295	32.2266	65.0775	32.2266	64.6825	32.2266	65.2021	32.2266	65.0016	32.2266	65.1765
33.6914	61.2288	33.6914	61.2157	33.6914	61.2289	33.6914	61.2004	33.6914	61.2147	33.6914	61.2033	33.6914	61.1942	33.6914	61.2528	33.6914	61.1849	33.6914	61.3817	33.6914	61.2133	33.6914	61.6201	33.6914	61.3116	33.6914	61.9857	33.6914	61.5117	33.6914	62.4762	33.6914	61.8364	33.6914	63.0678	33.6914	62.29	33.6914	63.7214	33.6914	62.8547	33.6914	64.3921	33.6914	63.4953	33.6914	65.0371	33.6914	64.1675	33.6914	65.62	33.6914	64.8271	33.6914	66.112	33.6914	65.4352	33.6914	66.4918	33.6914	65.9606	33.6914	66.7448	33.6914	66.3798	33.6914	66.8617	33.6914	66.6761	33.6914	66.8386
34.4238	62.3268	34.4238	62.3156	34.4238	62.3276	34.4238	62.3037	34.4238	62.3168	34.4238	62.309	34.4238	62.3015	34.4238	62.3564	34.4238	62.2972	34.4238	62.4751	34.4238	62.327	34.4238	62.6922	34.4238	62.4189	34.4238	63.0248	34.4238	62.6015	34.4238	63.473	34.4238	62.8959	34.4238	64.0177	34.4238	63.3079	34.4238	64.6249	34.4238	63.8244	34.4238	65.2536	34.4238	64.4157	34.4238	65.863	34.4238	65.0422	34.4238	66.4173	34.4238	65.6625	34.4238	66.8875	34.4238	66.239	34.4238	67.2519	34.4238	66.7403	34.4238	67.495	34.4238	67.1423	34.4238	67.6073	34.4238	67.4275	34.4238	67.5845
35.8887	64.3207	35.8887	64.3196	35.8887	64.3177	35.8887	64.3224	35.8887	64.3093	35.8887	64.3438	35.8887	64.3016	35.8887	64.4043	35.8887	64.3072	35.8887	64.5272	35.8887	64.345	35.8887	64.7342	35.8887	64.4381	35.8887	65.0394	35.8887	64.61	35.8887	65.4438	35.8887	64.8783	35.8887	65.933	35.8887	65.249	35.8887	66.4798	35.8887	65.7132	35.8887	67.0493	35.8887	66.247	35.8887	67.6054	35.8887	66.8173	35.8887	68.1146	35.8887	67.3872	35.8887	68.5489	35.8887	67.9215	35.8887	68.8864	35.8887	68.3899	35.8887	69.1114	35.8887	68.7683	35.8887	69.2139	35.8887	69.0388	35.8887	69.1894
37.3535	66.3322	37.3535	66.3372	37.3535	66.3288	37.3535	66.3502	37.3535	66.3259	37.3535	66.3831	37.3535	66.3284	37.3535	66.4521	37.3535	66.3465	37.3535	66.5757	37.3535	66.3954	37.3535	66.7709	37.3535	66.4932	37.3535	67.0492	37.3535	66.6585	37.3535	67.4118	37.3535	66.9053	37.3535	67.8483	37.3535	67.239	37.3535	68.337	37.3535	67.6532	37.3535	68.8489	37.3535	68.1296	37.3535	69.3523	37.3535	68.6407	37.3535	69.8167	37.3535	69.1551	37.3535	70.2153	37.3535	69.6409	37.3535	70.5268	37.3535	70.0698	37.3535	70.7352	37.3535	70.4182	37.3535	70.8304	37.3535	70.6682	37.3535	70.8078
38.8184	68.3361	38.8184	68.3457	38.8184	68.3317	38.8184	68.3659	38.8184	68.332	38.8184	68.406	38.8184	68.3409	38.8184	68.4789	38.8184	68.3666	38.8184	68.5991	38.8184	68.4213	38.8184	68.7802	38.8184	68.5195	38.8184	69.0316	38.8184	68.6755	38.8184	69.3552	38.8184	68.9009	38.8184	69.7431	38.8184	69.2004	38.8184	70.1783	38.8184	69.5694	38.8184	70.6368	38.8184	69.9936	38.8184	71.0909	38.8184	70.4508	38.8184	71.5128	38.8184	70.9137	38.8184	71.8774	38.8184	71.354	38.8184	72.1638	38.8184	71.7452	38.8184	72.3563	38.8184	72.0648	38.8184	72.4445	38.8184	72.295	38.8184	72.4238
39.5508	69.3215	39.5508	69.3315	39.5508	69.3179	39.5508	69.3527	39.5508	69.3202	39.5508	69.3934	39.5508	69.332	39.5508	69.4651	39.5508	69.3607	39.5508	69.5805	39.5508	69.4168	39.5508	69.7521	39.5508	69.5133	39.5508	69.9884	39.5508	69.6631	39.5508	70.2915	39.5508	69.8762	39.5508	70.6549	39.5508	70.1574	39.5508	71.0637	39.5508	70.5029	39.5508	71.4958	39.5508	70.9003	39.5508	71.9256	39.5508	71.3296	39.5508	72.3267	39.5508	71.7659	39.5508	72.6746	39.5508	72.1823	39.5508	72.9488	39.5508	72.5537	39.5508	73.1337	39.5508	72.8577	39.5508	73.2189	39.5508	73.0772	39.5508	73.1997
41.0156	70.9251	41.0156	70.9377	41.0156	70.9208	41.0156	70.9627	41.0156	70.9244	41.0156	71.0071	41.0156	70.9387	41.0156	71.0806	41.0156	70.9699	41.0156	71.1941	41.0156	71.0272	41.0156	71.358	41.0156	71.1211	41.0156	71.5795	41.0156	71.2627	41.0156	71.8607	41.0156	71.4609	41.0156	72.1962	41.0156	71.7199	41.0156	72.5733	41.0156	72.0371	41.0156	72.9727	41.0156	72.4025	41.0156	73.371	41.0156	72.7987	41.0156	73.7439	41.0156	73.2034	41.0156	74.0683	41.0156	73.5922	41.0156	74.3243	41.0156	73.9408	41.0156	74.4964	41.0156	74.2281	41.0156	74.5747	41.0156	74.4367	41.0156	74.5545
42.4805	72.8323	42.4805	72.8467	42.4805	72.8293	42.4805	72.8756	42.4805	72.8372	42.4805	72.9246	42.4805	72.8583	42.4805	73.0012	42.4805	72.8974	42.4805	73.1137	42.4805	72.9616	42.4805	73.2701	42.4805	73.059	42.4805	73.4761	42.4805	73.1979	42.4805	73.7331	42.4805	73.3852	42.4805	74.0368	42.4805	73.6238	42.4805	74.3768	42.4805	73.9117	42.4805	74.7369	42.4805	74.2407	42.4805	75.0971	42.4805	74.5965	42.4805	75.4358	42.4805	74.9602	42.4805	75.7317	42.4805	75.3104	42.4805	75.9664	42.4805	75.6255	42.4805	76.1253	42.4805	75.8857	42.4805	76.1984	42.4805	76.0749	42.4805	76.1812
43.9453	74.3654	43.9453	74.3808	43.9453	74.3625	43.9453	74.4115	43.9453	74.3719	43.9453	74.462	43.9453	74.3953	43.9453	74.5384	43.9453	74.4367	43.9453	74.6477	43.9453	74.5015	43.9453	74.7963	43.9453	74.5966	43.9453	74.9888	43.9453	74.7287	43.9453	75.2265	43.9453	74.9032	43.9453	75.5057	43.9453	75.123	43.9453	75.8176	43.9453	75.3865	43.9453	76.1481	43.9453	75.6868	43.9453	76.4792	43.9453	76.012	43.9453	76.7914	43.9453	76.3455	43.9453	77.0648	43.9453	76.668	43.9453	77.282	43.9453	76.9597	43.9453	77.4288	43.9453	77.2017	43.9453	77.4958	43.9453	77.3785	43.9453	77.4787
45.4102	75.8295	45.4102	75.8482	45.4102	75.8256	45.4102	75.8837	45.4102	75.8362	45.4102	75.9395	45.4102	75.8626	45.4102	76.0206	45.4102	75.9079	45.4102	76.132	45.4102	75.9764	45.4102	76.2786	45.4102	76.0733	45.4102	76.4638	45.4102	76.2037	45.4102	76.6882	45.4102	76.3719	45.4102	76.9484	45.4102	76.5797	45.4102	77.2366	45.4102	76.8256	45.4102	77.5407	45.4102	77.1037	45.4102	77.8451	45.4102	77.4037	45.4102	78.1319	45.4102	77.7111	45.4102	78.3833	45.4102	78.0088	45.4102	78.5831	45.4102	78.2785	45.4102	78.7179	45.4102	78.5032	45.4102	78.7789	45.4102	78.6679	45.4102	78.7619
47.6074	77.677	47.6074	77.6972	47.6074	77.673	47.6074	77.735	47.6074	77.685	47.6074	77.7928	47.6074	77.7139	47.6074	77.8737	47.6074	77.7617	47.6074	77.9811	47.6074	77.8314	47.6074	78.1181	47.6074	77.9261	47.6074	78.2868	47.6074	78.0493	47.6074	78.4872	47.6074	78.2038	47.6074	78.7167	47.6074	78.3904	47.6074	78.9689	47.6074	78.6078	47.6074	79.2343	47.6074	78.8515	47.6074	79.4998	47.6074	79.1131	47.6074	79.7506	47.6074	79.381	47.6074	79.971	47.6074	79.641	47.6074	80.1467	47.6074	79.8774	47.6074	80.2655	47.6074	80.075	47.6074	80.3191	47.6074	80.2205	47.6074	80.3038
49.0723	78.5153	49.0723	78.5366	49.0723	78.511	49.0723	78.5758	49.0723	78.5234	49.0723	78.6347	49.0723	78.5533	49.0723	78.7155	49.0723	78.6021	49.0723	78.8207	49.0723	78.6719	49.0723	78.9524	49.0723	78.765	49.0723	79.112	49.0723	78.8839	49.0723	79.2993	49.0723	79.0304	49.0723	79.5116	49.0723	79.2051	49.0723	79.7436	49.0723	79.4067	49.0723	79.9867	49.0723	79.6309	49.0723	80.2297	49.0723	79.8709	49.0723	80.4592	49.0723	80.1163	49.0723	80.6611	49.0723	80.3546	49.0723	80.8221	49.0723	80.5716	49.0723	80.9309	49.0723	80.7535	49.0723	80.9797	49.0723	80.8878	49.0723	80.965
50.5371	79.1112	50.5371	79.1329	50.5371	79.1071	50.5371	79.173	50.5371	79.1204	50.5371	79.2326	50.5371	79.1517	50.5371	79.3131	50.5371	79.2018	50.5371	79.4163	50.5371	79.2722	50.5371	79.5435	50.5371	79.3645	50.5371	79.6954	50.5371	79.4801	50.5371	79.8714	50.5371	79.6202	50.5371	80.0691	50.5371	79.7849	50.5371	80.2836	50.5371	79.9728	50.5371	80.5075	50.5371	80.1802	50.5371	80.7309	50.5371	80.4009	50.5371	80.9417	50.5371	80.6262	50.5371	81.1272	50.5371	80.8448	50.5371	81.2751	50.5371	81.044	50.5371	81.3752	50.5371	81.2112	50.5371	81.42	50.5371	81.3349	50.5371	81.4062
52.7344	79.6745	52.7344	79.6982	52.7344	79.669	52.7344	79.7403	52.7344	79.6816	52.7344	79.8014	52.7344	79.7125	52.7344	79.8819	52.7344	79.7621	52.7344	79.9824	52.7344	79.8309	52.7344	80.1032	52.7344	79.9197	52.7344	80.2443	52.7344	80.0288	52.7344	80.4045	52.7344	80.1585	52.7344	80.5816	52.7344	80.3083	52.7344	80.7715	52.7344	80.4767	52.7344	80.968	52.7344	80.6607	52.7344	81.1629	52.7344	80.8553	52.7344	81.3462	52.7344	81.0532	52.7344	81.5071	52.7344	81.2453	52.7344	81.635	52.7344	81.4209	52.7344	81.7208	52.7344	81.5689	52.7344	81.7581	52.7344	81.6792	52.7344	81.7439
54.1992	79.8779	54.1992	79.9027	54.1992	79.8714	54.1992	79.9457	54.1992	79.8831	54.1992	80.0071	54.1992	79.9131	54.1992	80.0869	54.1992	79.9615	54.1992	80.1851	54.1992	80.0285	54.1992	80.3014	54.1992	80.1142	54.1992	80.4353	54.1992	80.2185	54.1992	80.5856	54.1992	80.3412	54.1992	80.7499	54.1992	80.4816	54.1992	80.9246	54.1992	80.6381	54.1992	81.1044	54.1992	80.808	54.1992	81.282	54.1992	80.9869	54.1992	81.4485	54.1992	81.1685	54.1992	81.5944	54.1992	81.3447	54.1992	81.7101	54.1992	81.506	54.1992	81.7871	54.1992	81.6424	54.1992	81.8197	54.1992	81.7446	54.1992	81.8052
56.3965	80.0347	56.3965	80.06	56.3965	80.0279	56.3965	80.1035	56.3965	80.0397	56.3965	80.1649	56.3965	80.07	56.3965	80.2434	56.3965	80.1185	56.3965	80.3384	56.3965	80.1848	56.3965	80.4491	56.3965	80.2683	56.3965	80.5742	56.3965	80.3683	56.3965	80.7122	56.3965	80.4839	56.3965	80.8608	56.3965	80.6139	56.3965	81.017	56.3965	80.7566	56.3965	81.1762	56.3965	80.9094	56.3965	81.3324	56.3965	81.0687	56.3965	81.4785	56.3965	81.2293	56.3965	81.6061	56.3965	81.3845	56.3965	81.7072	56.3965	81.5263	56.3965	81.7745	56.3965	81.6462	56.3965	81.8027	56.3965	81.7362	56.3965	81.7897
58.5938	80.1419	58.5938	80.1696	58.5938	80.1327	58.5938	80.2152	58.5938	80.1421	58.5938	80.2779	58.5938	80.17	58.5938	80.3565	58.5938	80.216	58.5938	80.4497	58.5938	80.2792	58.5938	80.556	58.5938	80.3586	58.5938	80.6738	58.5938	80.453	58.5938	80.8013	58.5938	80.561	58.5938	80.9363	58.5938	80.6811	58.5938	81.0759	58.5938	80.8115	58.5938	81.2164	58.5938	80.9498	58.5938	81.3529	58.5938	81.0929	58.5938	81.4796	58.5938	81.2365	58.5938	81.5895	58.5938	81.3749	58.5938	81.6757	58.5938	81.5016	58.5938	81.7322	58.5938	81.6092	58.5938	81.7543	58.5938	81.6906	58.5938	81.7402
60.0586	80.186	60.0586	80.2125	60.0586	80.1781	60.0586	80.257	60.0586	80.189	60.0586	80.3183	60.0586	80.2186	60.0586	80.3951	60.0586	80.266	60.0586	80.4857	60.0586	80.3303	60.0586	80.5885	60.0586	80.4101	60.0586	80.7015	60.0586	80.5037	60.0586	80.8226	60.0586	80.6095	60.0586	80.9498	60.0586	80.7256	60.0586	81.0804	60.0586	80.85	60.0586	81.211	60.0586	80.9802	60.0586	81.3373	60.0586	81.1134	60.0586	81.4543	60.0586	81.2456	60.0586	81.5558	60.0586	81.372	60.0586	81.6359	60.0586	81.4867	60.0586	81.6888	60.0586	81.5835	60.0586	81.7106	60.0586	81.6561	60.0586	81.6995
62.2559	80.1617	62.2559	80.1853	62.2559	80.1563	62.2559	80.2265	62.2559	80.1693	62.2559	80.284	62.2559	80.2004	62.2559	80.356	62.2559	80.2485	62.2559	80.4406	62.2559	80.312	62.2559	80.5356	62.2559	80.3893	62.2559	80.6388	62.2559	80.478	62.2559	80.748	62.2559	80.5761	62.2559	80.861	62.2559	80.6813	62.2559	80.9754	62.2559	80.7916	62.2559	81.0884	62.2559	80.9047	62.2559	81.1966	62.2559	81.0182	62.2559	81.2961	62.2559	81.1294	62.2559	81.382	62.2559	81.2347	62.2559	81.4496	62.2559	81.3296	62.2559	81.4944	62.2559	81.4093	62.2559	81.5132	62.2559	81.469	62.2559	81.5045
64.4531	80.2135	64.4531	80.2373	64.4531	80.2078	64.4531	80.2783	64.4531	80.2202	64.4531	80.3349	64.4531	80.2505	64.4531	80.4051	64.4531	80.2973	64.4531	80.4866	64.4531	80.3589	64.4531	80.5769	64.4531	80.4333	64.4531	80.6735	64.4531	80.5178	64.4531	80.7739	64.4531	80.61	64.4531	80.876	64.4531	80.7075	64.4531	80.9774	64.4531	80.808	64.4531	81.076	64.4531	80.9093	64.4531	81.169	64.4531	81.0095	64.4531	81.2536	64.4531	81.1063	64.4531	81.326	64.4531	81.1968	64.4531	81.3825	64.4531	81.2779	64.4531	81.4196	64.4531	81.3458	64.4531	81.4348	64.4531	81.3966	64.4531	81.427
66.6504	80.2773	66.6504	80.3004	66.6504	80.2717	66.6504	80.3401	66.6504	80.2841	66.6504	80.3947	66.6504	80.3137	66.6504	80.4619	66.6504	80.3594	66.6504	80.5391	66.6504	80.4192	66.6504	80.6235	66.6504	80.4907	66.6504	80.7124	66.6504	80.5711	66.6504	80.8033	66.6504	80.6576	66.6504	80.8939	66.6504	80.7475	66.6504	80.9822	66.6504	80.8383	66.6504	81.0665	66.6504	80.928	66.6504	81.1449	66.6504	81.0147	66.6504	81.2153	66.6504	81.0967	66.6504	81.275	66.6504	81.1722	66.6504	81.3215	66.6504	81.2388	66.6504	81.3521	66.6504	81.2939	66.6504	81.3649	66.6504	81.3348	66.6504	81.359
69.5801	80.4415	69.5801	80.4636	69.5801	80.4361	69.5801	80.5013	69.5801	80.4477	69.5801	80.5527	69.5801	80.4757	69.5801	80.6154	69.5801	80.5188	69.5801	80.6865	69.5801	80.5747	69.5801	80.7631	69.5801	80.6409	69.5801	80.8421	69.5801	80.7142	69.5801	80.921	69.5801	80.7916	69.5801	80.9976	69.5801	80.8702	69.5801	81.0701	69.5801	80.9475	69.5801	81.1372	69.5801	81.0215	69.5801	81.1977	69.5801	81.0908	69.5801	81.2505	69.5801	81.1545	69.5801	81.2943	69.5801	81.2117	69.5801	81.3275	69.5801	81.2614	69.5801	81.3487	69.5801	81.3022	69.5801	81.3567	69.5801	81.3327	69.5801	81.3512
71.7773	80.5756	71.7773	80.5975	71.7773	80.5701	71.7773	80.6346	71.7773	80.5812	71.7773	80.6849	71.7773	80.6082	71.7773	80.7459	71.7773	80.6499	71.7773	80.8146	71.7773	80.7038	71.7773	80.8877	71.7773	80.7671	71.7773	80.9623	71.7773	80.8368	71.7773	81.0355	71.7773	80.9094	71.7773	81.105	71.7773	80.982	71.7773	81.1691	71.7773	81.0521	71.7773	81.2267	71.7773	81.1176	71.7773	81.277	71.7773	81.1775	71.7773	81.3194	71.7773	81.2311	71.7773	81.3534	71.7773	81.2782	71.7773	81.3782	71.7773	81.3185	71.7773	81.3931	71.7773	81.3514	71.7773	81.3977	71.7773	81.3763	71.7773	81.392
73.9746	80.7174	73.9746	80.7398	73.9746	80.7109	73.9746	80.777	73.9746	80.7208	73.9746	80.827	73.9746	80.7463	73.9746	80.887	73.9746	80.786	73.9746	80.9539	73.9746	80.8374	73.9746	81.0244	73.9746	80.8977	73.9746	81.0952	73.9746	80.9636	73.9746	81.1634	73.9746	81.0316	73.9746	81.2265	73.9746	81.0986	73.9746	81.283	73.9746	81.1619	73.9746	81.3316	73.9746	81.2199	73.9746	81.3722	73.9746	81.2714	73.9746	81.4046	73.9746	81.3161	73.9746	81.4289	73.9746	81.3544	73.9746	81.4453	73.9746	81.3867	73.9746	81.4536	73.9746	81.413	73.9746	81.4542	73.9746	81.4334	73.9746	81.4473
76.9043	80.8713	76.9043	80.8933	76.9043	80.8651	76.9043	80.9298	76.9043	80.8749	76.9043	80.9787	76.9043	80.9001	76.9043	81.0371	76.9043	80.9391	76.9043	81.1019	76.9043	80.9894	76.9043	81.1693	76.9043	81.0478	76.9043	81.2359	76.9043	81.1109	76.9043	81.2986	76.9043	81.1751	76.9043	81.3549	76.9043	81.2371	76.9043	81.403	76.9043	81.2941	76.9043	81.4422	76.9043	81.3443	76.9043	81.4725	76.9043	81.3868	76.9043	81.4944	76.9043	81.4216	76.9043	81.509	76.9043	81.4494	76.9043	81.5172	76.9043	81.4715	76.9043	81.5199	76.9043	81.4889	76.9043	81.518	76.9043	81.5022	76.9043	81.512
79.834	81.1011	79.834	81.123	79.834	81.0938	79.834	81.1581	79.834	81.1016	79.834	81.2043	79.834	81.1239	79.834	81.2587	79.834	81.1592	79.834	81.3178	79.834	81.2053	79.834	81.3782	79.834	81.2589	79.834	81.4363	79.834	81.3167	79.834	81.4891	79.834	81.3748	79.834	81.5341	79.834	81.4299	79.834	81.5698	79.834	81.4789	79.834	81.5959	79.834	81.5198	79.834	81.6129	79.834	81.5517	79.834	81.6222	79.834	81.5749	79.834	81.6255	79.834	81.5905	79.834	81.6249	79.834	81.6003	79.834	81.6221	79.834	81.6065	79.834	81.6184	79.834	81.6109	79.834	81.6146
82.7637	81.3794	82.7637	81.4021	82.7637	81.3695	82.7637	81.436	82.7637	81.3728	82.7637	81.4788	82.7637	81.389	82.7637	81.5277	82.7637	81.4168	82.7637	81.5792	82.7637	81.4538	82.7637	81.6297	82.7637	81.4972	82.7637	81.6756	82.7637	81.5434	82.7637	81.714	82.7637	81.5889	82.7637	81.7426	82.7637	81.6301	82.7637	81.7601	82.7637	81.6641	82.7637	81.7668	82.7637	81.6891	82.7637	81.7637	82.7637	81.7044	82.7637	81.7533	82.7637	81.7106	82.7637	81.7386	82.7637	81.7098	82.7637	81.7228	82.7637	81.7047	82.7637	81.7088	82.7637	81.6985	82.7637	81.6987	82.7637	81.6942	82.7637	81.6938
85.6934	81.5935	85.6934	81.6117	85.6934	81.5873	85.6934	81.6403	85.6934	81.5933	85.6934	81.6772	85.6934	81.6111	85.6934	81.7195	85.6934	81.6392	85.6934	81.7638	85.6934	81.6752	85.6934	81.8065	85.6934	81.716	85.6934	81.8442	85.6934	81.758	85.6934	81.8737	85.6934	81.7975	85.6934	81.893	85.6934	81.831	85.6934	81.9011	85.6934	81.8555	85.6934	81.8983	85.6934	81.8695	85.6934	81.8861	85.6934	81.8726	85.6934	81.8675	85.6934	81.8659	85.6934	81.8458	85.6934	81.852	85.6934	81.825	85.6934	81.8344	85.6934	81.8084	85.6934	81.8171	85.6934	81.7986	85.6934	81.8038	85.6934	81.7971
88.623	81.7096	88.623	81.7281	88.623	81.7044	88.623	81.7586	88.623	81.713	88.623	81.7989	88.623	81.7349	88.623	81.8461	88.623	81.7684	88.623	81.8966	88.623	81.8111	88.623	81.9469	88.623	81.8599	88.623	81.993	88.623	81.911	88.623	82.0317	88.623	81.9604	88.623	82.0605	88.623	82.0042	88.623	82.0779	88.623	82.0391	88.623	82.0838	88.623	82.063	88.623	82.0796	88.623	82.0751	88.623	82.068	88.623	82.076	88.623	82.0523	88.623	82.0679	88.623	82.0365	88.623	82.0543	88.623	82.024	88.623	82.0391	88.623	82.0174	88.623	82.026	88.623	82.0182
91.5527	81.9688	91.5527	81.9898	91.5527	81.96	91.5527	82.0216	91.5527	81.9641	91.5527	82.0618	91.5527	81.9807	91.5527	82.1074	91.5527	82.0086	91.5527	82.155	91.5527	82.0456	91.5527	82.2007	91.5527	82.0885	91.5527	82.2409	91.5527	82.1336	91.5527	82.2722	91.5527	82.177	91.5527	82.2922	91.5527	82.2146	91.5527	82.2997	91.5527	82.2432	91.5527	82.2948	91.5527	82.2603	91.5527	82.2794	91.5527	82.2653	91.5527	82.2566	91.5527	82.2588	91.5527	82.2305	91.5527	82.2434	91.5527	82.2057	91.5527	82.2229	91.5527	82.1864	91.5527	82.2018	91.5527	82.1758	91.5527	82.1848	91.5527	82.1753
94.4824	82.1536	94.4824	82.1715	94.4824	82.1461	94.4824	82.1983	94.4824	82.1497	94.4824	82.2319	94.4824	82.1641	94.4824	82.2695	94.4824	82.1884	94.4824	82.308	94.4824	82.2205	94.4824	82.3438	94.4824	82.2577	94.4824	82.3737	94.4824	82.2965	94.4824	82.3945	94.4824	82.3331	94.4824	82.4041	94.4824	82.3636	94.4824	82.4015	94.4824	82.3845	94.4824	82.3871	94.4824	82.3936	94.4824	82.3631	94.4824	82.3899	94.4824	82.3329	94.4824	82.3743	94.4824	82.3012	94.4824	82.3493	94.4824	82.2729	94.4824	82.3191	94.4824	82.2526	94.4824	82.2888	94.4824	82.2437	94.4824	82.2635	94.4824	82.2475
98.1445	82.4664	98.1445	82.4877	98.1445	82.4537	98.1445	82.516	98.1445	82.4505	98.1445	82.549	98.1445	82.4568	98.1445	82.5839	98.1445	82.4718	98.1445	82.6173	98.1445	82.4938	98.1445	82.6457	98.1445	82.5201	98.1445	82.6656	98.1445	82.5473	98.1445	82.6741	98.1445	82.5718	98.1445	82.669	98.1445	82.5896	98.1445	82.6498	98.1445	82.5974	98.1445	82.6172	98.1445	82.593	98.1445	82.574	98.1445	82.5756	98.1445	82.5247	98.1445	82.5464	98.1445	82.4749	98.1445	82.5086	98.1445	82.4307	98.1445	82.4672	98.1445	82.3978	98.1445	82.4282	98.1445	82.3804	98.1445	82.3976	98.1445	82.3806
101.807	82.6653	101.807	82.6874	101.807	82.6512	101.807	82.716	101.807	82.646	101.807	82.7489	101.807	82.6499	101.807	82.7835	101.807	82.6623	101.807	82.8167	101.807	82.6817	101.807	82.845	101.807	82.7059	101.807	82.8651	101.807	82.7316	101.807	82.8741	101.807	82.7553	101.807	82.8698	101.807	82.7731	101.807	82.8512	101.807	82.7817	101.807	82.8193	101.807	82.7785	101.807	82.7765	101.807	82.7628	101.807	82.7272	101.807	82.7354	101.807	82.6769	101.807	82.6996	101.807	82.6319	101.807	82.66	101.807	82.598	101.807	82.6226	101.807	82.5793	101.807	82.5936	101.807	82.5781
105.469	82.8747	105.469	82.8989	105.469	82.8562	105.469	82.9271	105.469	82.8443	105.469	82.9576	105.469	82.8395	105.469	82.9877	105.469	82.8416	105.469	83.0148	105.469	82.8497	105.469	83.0358	105.469	82.8619	105.469	83.0475	105.469	82.8758	105.469	83.0474	105.469	82.8883	105.469	83.0336	105.469	82.8959	105.469	83.0052	105.469	82.8956	105.469	82.9635	105.469	82.8851	105.469	82.911	105.469	82.8635	105.469	82.8525	105.469	82.8317	105.469	82.7936	105.469	82.7928	105.469	82.741	105.469	82.7514	105.469	82.7006	105.469	82.7135	105.469	82.6768	105.469	82.6853	105.469	82.672
109.131	83.2389	109.131	83.2617	109.131	83.2197	109.131	83.2867	109.131	83.2051	109.131	83.3121	109.131	83.1953	109.131	83.3358	109.131	83.1902	109.131	83.355	109.131	83.189	109.131	83.3668	109.131	83.1901	109.131	83.3683	109.131	83.1912	109.131	83.3567	109.131	83.1897	109.131	83.3303	109.131	83.1824	109.131	83.2886	109.131	83.1668	109.131	83.2326	109.131	83.141	109.131	83.1657	109.131	83.1046	109.131	83.0927	109.131	83.0591	109.131	83.0202	109.131	83.0081	109.131	82.9554	109.131	82.9568	109.131	82.9051	109.131	82.9118	109.131	82.8745	109.131	82.8798	109.131	82.8662
112.793	83.4757	112.793	83.4949	112.793	83.4601	112.793	83.5164	112.793	83.4491	112.793	83.5387	112.793	83.4429	112.793	83.5594	112.793	83.4415	112.793	83.5762	112.793	83.444	112.793	83.5861	112.793	83.449	112.793	83.5863	112.793	83.454	112.793	83.574	112.793	83.4562	112.793	83.5476	112.793	83.4523	112.793	83.5064	112.793	83.4393	112.793	83.4516	112.793	83.4153	112.793	83.3865	112.793	83.3794	112.793	83.3161	112.793	83.333	112.793	83.2471	112.793	83.2796	112.793	83.1868	112.793	83.2244	112.793	83.1419	112.793	83.1742	112.793	83.1174	112.793	83.136	112.793	83.1158
116.455	83.6264	116.455	83.6444	116.455	83.6113	116.455	83.6641	116.455	83.6	116.455	83.6839	116.455	83.5931	116.455	83.702	116.455	83.5907	116.455	83.7161	116.455	83.5923	116.455	83.7235	116.455	83.5966	116.455	83.7215	116.455	83.6016	116.455	83.7077	116.455	83.6044	116.455	83.6804	116.455	83.6018	116.455	83.639	116.455	83.5906	116.455	83.5848	116.455	83.5686	116.455	83.5209	116.455	83.5348	116.455	83.4525	116.455	83.49	116.455	83.3861	116.455	83.4374	116.455	83.3288	116.455	83.3822	116.455	83.2873	116.455	83.331	116.455	83.2663	116.455	83.2908	116.455	83.2679
120.85	83.8599	120.85	83.8783	120.85	83.8421	120.85	83.8963	120.85	83.8257	120.85	83.9127	120.85	83.8116	120.85	83.9263	120.85	83.8004	120.85	83.9353	120.85	83.7923	120.85	83.9376	120.85	83.7869	120.85	83.931	120.85	83.7829	120.85	83.9135	120.85	83.7784	120.85	83.8835	120.85	83.7707	120.85	83.8407	120.85	83.7571	120.85	83.7861	120.85	83.7353	120.85	83.7229	120.85	83.7042	120.85	83.6558	120.85	83.6642	120.85	83.591	120.85	83.6177	120.85	83.535	120.85	83.5693	120.85	83.4939	120.85	83.5246	120.85	83.472	120.85	83.49	120.85	83.4711
125.244	84.0487	125.244	84.062	125.244	84.0332	125.244	84.0726	125.244	84.0164	125.244	84.0795	125.244	83.999	125.244	84.0818	125.244	83.9817	125.244	84.0782	125.244	83.9648	125.244	84.0671	125.244	83.9483	125.244	84.0467	125.244	83.9311	125.244	84.0153	125.244	83.9118	125.244	83.9718	125.244	83.8882	125.244	83.9161	125.244	83.8583	125.244	83.8495	125.244	83.8204	125.244	83.7753	125.244	83.7739	125.244	83.6984	125.244	83.7199	125.244	83.6252	125.244	83.6613	125.244	83.5624	125.244	83.6029	125.244	83.5164	125.244	83.5508	125.244	83.4918	125.244	83.5114	125.244	83.4905
129.639	84.178	129.639	84.1937	129.639	84.1597	129.639	84.206	129.639	84.1399	129.639	84.2139	129.639	84.1193	129.639	84.2162	129.639	84.0987	129.639	84.2115	129.639	84.0785	129.639	84.198	129.639	84.0584	129.639	84.1739	129.639	84.0373	129.639	84.1374	129.639	84.0135	129.639	84.0875	129.639	83.9848	129.639	84.0241	129.639	83.9489	129.639	83.9488	129.639	83.9043	129.639	83.8653	129.639	83.8505	129.639	83.7788	129.639	83.789	129.639	83.6962	129.639	83.7233	129.639	83.6251	129.639	83.6588	129.639	83.5723	129.639	83.6021	129.639	83.5428	129.639	83.5602	129.639	83.5391
134.033	84.2381	134.033	84.2522	134.033	84.2217	134.033	84.2629	134.033	84.2039	134.033	84.2696	134.033	84.1861	134.033	84.2714	134.033	84.1694	134.033	84.2672	134.033	84.1547	134.033	84.2556	134.033	84.1421	134.033	84.2351	134.033	84.1308	134.033	84.2041	134.033	84.1191	134.033	84.1617	134.033	84.1045	134.033	84.1079	134.033	84.084	134.033	84.0444	134.033	84.0552	134.033	83.9746	134.033	84.0168	134.033	83.9033	134.033	83.969	134.033	83.8369	134.033	83.9144	134.033	83.782	134.033	83.8574	134.033	83.7443	134.033	83.8039	134.033	83.7279	134.033	83.7608	134.033	83.734
138.428	84.3027	138.428	84.3139	138.428	84.2864	138.428	84.3193	138.428	84.266	138.428	84.3189	138.428	84.2431	138.428	84.3124	138.428	84.2194	138.428	84.2995	138.428	84.1968	138.428	84.2796	138.428	84.1764	138.428	84.2519	138.428	84.1586	138.428	84.2155	138.428	84.1425	138.428	84.1698	138.428	84.1263	138.428	84.1152	138.428	84.1073	138.428	84.0535	138.428	84.0828	138.428	83.9879	138.428	84.0507	138.428	83.9232	138.428	84.0105	138.428	83.865	138.428	83.9635	138.428	83.8192	138.428	83.9128	138.428	83.7904	138.428	83.8636	138.428	83.7815	138.428	83.8216	138.428	83.7927
143.555	84.4019	143.555	84.4046	143.555	84.3906	143.555	84.3986	143.555	84.3715	143.555	84.3842	143.555	84.346	143.555	84.362	143.555	84.3161	143.555	84.3324	143.555	84.2839	143.555	84.2956	143.555	84.2511	143.555	84.2516	143.555	84.2187	143.555	84.2002	143.555	84.1869	143.555	84.1414	143.555	84.1546	143.555	84.0762	143.555	84.1201	143.555	84.0065	143.555	84.0815	143.555	83.9356	143.555	84.0372	143.555	83.8681	143.555	83.987	143.555	83.8093	143.555	83.9321	143.555	83.7644	143.555	83.8756	143.555	83.7375	143.555	83.822	143.555	83.731	143.555	83.7767	143.555	83.7449
148.682	84.4986	148.682	84.4973	148.682	84.4884	148.682	84.4843	148.682	84.4679	148.682	84.4599	148.682	84.4388	148.682	84.4251	148.682	84.4037	148.682	84.3808	148.682	84.3651	148.682	84.3278	148.682	84.3254	148.682	84.267	148.682	84.2861	148.682	84.1994	148.682	84.2475	148.682	84.1261	148.682	84.2091	148.682	84.0491	148.682	84.1692	148.682	83.9712	148.682	84.1258	148.682	83.8965	148.682	84.0774	148.682	83.8296	148.682	84.0232	148.682	83.7754	148.682	83.9642	148.682	83.7383	148.682	83.9029	148.682	83.7214	148.682	83.8433	148.682	83.7256	148.682	83.7905	148.682	83.7497
153.809	84.5392	153.809	84.545	153.809	84.5195	153.809	84.5365	153.809	84.4873	153.809	84.514	153.809	84.4447	153.809	84.4783	153.809	84.3947	153.809	84.4301	153.809	84.3405	153.809	84.3705	153.809	84.2849	153.809	84.3002	153.809	84.2302	153.809	84.2204	153.809	84.1774	153.809	84.1327	153.809	84.1263	153.809	84.0396	153.809	84.0758	153.809	83.9448	153.809	84.024	153.809	83.8531	153.809	83.9694	153.809	83.7703	153.809	83.9112	153.809	83.702	153.809	83.8503	153.809	83.6532	153.809	83.7887	153.809	83.627	153.809	83.7303	153.809	83.6241	153.809	83.6799	153.809	83.6429
159.668	84.6336	159.668	84.6346	159.668	84.616	159.668	84.6187	159.668	84.5829	159.668	84.5866	159.668	84.5369	159.668	84.5397	159.668	84.4815	159.668	84.4796	159.668	84.4203	159.668	84.4081	159.668	84.3573	159.668	84.3271	159.668	84.2955	159.668	84.2385	159.668	84.2368	159.668	84.1446	159.668	84.1815	159.668	84.0486	159.668	84.1287	159.668	83.9543	159.668	84.0767	159.668	83.8667	159.668	84.0236	159.668	83.7907	159.668	83.9681	159.668	83.7313	159.668	83.9102	159.668	83.6922	159.668	83.8514	159.668	83.6751	159.668	83.7945	159.668	83.6798	159.668	83.7438	159.668	83.704
164.795	84.7423	164.795	84.7437	164.795	84.7224	164.795	84.7264	164.795	84.6855	164.795	84.6912	164.795	84.6342	164.795	84.6393	164.795	84.5721	164.795	84.5724	164.795	84.5036	164.795	84.4923	164.795	84.4329	164.795	84.4008	164.795	84.3637	164.795	84.3003	164.795	84.2982	164.795	84.1936	164.795	84.2374	164.795	84.0845	164.795	84.1803	164.795	83.9781	164.795	84.1252	164.795	83.8802	164.795	84.0698	164.795	83.7971	164.795	84.0123	164.795	83.7344	164.795	83.952	164.795	83.6957	164.795	83.8899	164.795	83.6826	164.795	83.8284	164.795	83.6935	164.795	83.7717	164.795	83.7249
170.654	84.691	170.654	84.6927	170.654	84.6688	170.654	84.674	170.654	84.6272	170.654	84.6361	170.654	84.569	170.654	84.581	170.654	84.4981	170.654	84.5109	170.654	84.4193	170.654	84.428	170.654	84.3376	170.654	84.3347	170.654	84.2579	170.654	84.2335	170.654	84.1837	170.654	84.1274	170.654	84.1167	170.654	84.0205	170.654	84.0571	170.654	83.9174	170.654	84.0036	170.654	83.824	170.654	83.954	170.654	83.7459	170.654	83.9059	170.654	83.688	170.654	83.8577	170.654	83.653	170.654	83.809	170.654	83.6413	170.654	83.7607	170.654	83.6507	170.654	83.7154	170.654	83.6771
176.514	84.524	176.514	84.5196	176.514	84.5066	176.514	84.4941	176.514	84.4685	176.514	84.449	176.514	84.4122	176.514	84.3868	176.514	84.3419	176.514	84.3106	176.514	84.2625	176.514	84.2233	176.514	84.1797	176.514	84.1279	176.514	84.0984	176.514	84.0274	176.514	84.0227	176.514	83.9253	176.514	83.955	176.514	83.8254	176.514	83.8959	176.514	83.7323	176.514	83.8444	176.514	83.651	176.514	83.7984	176.514	83.5861	176.514	83.7557	176.514	83.541	176.514	83.714	176.514	83.5173	176.514	83.6724	176.514	83.5139	176.514	83.6308	176.514	83.5279	176.514	83.5907	176.514	83.555
183.105	84.4238	183.105	84.4141	183.105	84.4067	183.105	84.3777	183.105	84.3646	183.105	84.3159	183.105	84.3009	183.105	84.2315	183.105	84.2206	183.105	84.1279	183.105	84.1299	183.105	84.0094	183.105	84.0354	183.105	83.8809	183.105	83.943	183.105	83.7478	183.105	83.8578	183.105	83.6164	183.105	83.7827	183.105	83.4937	183.105	83.7185	183.105	83.3871	183.105	83.6641	183.105	83.3032	183.105	83.6171	183.105	83.2469	183.105	83.5741	183.105	83.2201	183.105	83.5317	183.105	83.2213	183.105	83.4874	183.105	83.2455	183.105	83.4396	183.105	83.286	183.105	83.3883	183.105	83.3357
189.697	84.4458	189.697	84.4525	189.697	84.4089	189.697	84.4289	189.697	84.3437	189.697	84.376	189.697	84.2542	189.697	84.2963	189.697	84.1462	189.697	84.1927	189.697	84.0271	189.697	84.0686	189.697	83.9048	189.697	83.9278	189.697	83.7871	189.697	83.7753	189.697	83.6801	189.697	83.6171	189.697	83.5879	189.697	83.461	189.697	83.5117	189.697	83.3163	189.697	83.45	189.697	83.1927	189.697	83.3991	189.697	83.0989	189.697	83.3546	189.697	83.0403	189.697	83.3116	189.697	83.0178	189.697	83.2663	189.697	83.0273	189.697	83.2167	189.697	83.0608	189.697	83.1631	189.697	83.109
196.289	84.4322	196.289	84.4403	196.289	84.3908	196.289	84.4158	196.289	84.318	196.289	84.3607	196.289	84.2175	196.289	84.2782	196.289	84.0956	196.289	84.1724	196.289	83.9603	196.289	84.0476	196.289	83.8207	196.289	83.9086	196.289	83.686	196.289	83.7607	196.289	83.5643	196.289	83.6099	196.289	83.4612	196.289	83.4633	196.289	83.3792	196.289	83.329	196.289	83.3179	196.289	83.215	196.289	83.2739	196.289	83.1283	196.289	83.2419	196.289	83.0726	196.289	83.2162	196.289	83.0476	196.289	83.1916	196.289	83.049	196.289	83.1643	196.289	83.0692	196.289	83.133	196.289	83.0997
202.881	84.3996	202.881	84.4026	202.881	84.3578	202.881	84.3682	202.881	84.2779	202.881	84.2995	202.881	84.1635	202.881	84.2009	202.881	84.0206	202.881	84.0777	202.881	83.8579	202.881	83.9357	202.881	83.6862	202.881	83.781	202.881	83.5172	202.881	83.6204	202.881	83.3623	202.881	83.4613	202.881	83.231	202.881	83.3118	202.881	83.1294	202.881	83.1802	202.881	83.0592	202.881	83.0738	202.881	83.0179	202.881	82.9978	202.881	82.9993	202.881	82.9534	202.881	82.9951	202.881	82.937	202.881	82.9968	202.881	82.9416	202.881	82.9967	202.881	82.9577	202.881	82.9902	202.881	82.9762
210.205	84.3336	210.205	84.3295	210.205	84.296	210.205	84.2846	210.205	84.2179	210.205	84.2014	210.205	84.103	210.205	84.0839	210.205	83.9574	210.205	83.9369	210.205	83.7896	210.205	83.7665	210.205	83.6102	210.205	83.5798	210.205	83.4308	210.205	83.3854	210.205	83.2633	210.205	83.1934	210.205	83.1177	210.205	83.0156	210.205	83.0013	210.205	82.8642	210.205	82.9173	210.205	82.7496	210.205	82.8644	210.205	82.678	210.205	82.837	210.205	82.6496	210.205	82.8266	210.205	82.6573	210.205	82.8229	210.205	82.6891	210.205	82.8164	210.205	82.7309	210.205	82.7999	210.205	82.7706
217.529	84.2549	217.529	84.2544	217.529	84.2129	217.529	84.2127	217.529	84.1292	217.529	84.1331	217.529	84.0073	217.529	84.0202	217.529	83.8538	217.529	83.8794	217.529	83.6777	217.529	83.7168	217.529	83.4903	217.529	83.5394	217.529	83.3042	217.529	83.3549	217.529	83.1318	217.529	83.1722	217.529	82.9838	217.529	83.0017	217.529	82.8677	217.529	82.854	217.529	82.7864	217.529	82.7388	217.529	82.7383	217.529	82.662	217.529	82.7173	217.529	82.6246	217.529	82.7143	217.529	82.6208	217.529	82.719	217.529	82.6399	217.529	82.7217	217.529	82.6692	217.529	82.7152	217.529	82.6969
225.586	84.233	225.586	84.2347	225.586	84.1784	225.586	84.1851	225.586	84.0719	225.586	84.0877	225.586	83.9172	225.586	83.9478	225.586	83.722	225.586	83.7719	225.586	83.4973	225.586	83.5684	225.586	83.2581	225.586	83.3475	225.586	83.0221	225.586	83.1218	225.586	82.8084	225.586	82.9065	225.586	82.6345	225.586	82.7183	225.586	82.5134	225.586	82.5733	225.586	82.4506	225.586	82.4829	225.586	82.4425	225.586	82.4506	225.586	82.4777	225.586	82.4694	225.586	82.5387	225.586	82.5232	225.586	82.606	225.586	82.5906	225.586	82.6614	225.586	82.6508	225.586	82.6909	225.586	82.6872
232.91	84.2914	232.91	84.2898	232.91	84.2387	232.91	84.2368	232.91	84.1308	232.91	84.1362	232.91	83.9692	232.91	83.9928	232.91	83.7586	232.91	83.8118	232.91	83.5075	232.91	83.5993	232.91	83.2285	232.91	83.3627	232.91	82.9387	232.91	83.112	232.91	82.6584	232.91	82.8606	232.91	82.4098	232.91	82.6253	232.91	82.2131	232.91	82.4252	232.91	82.0826	232.91	82.2773	232.91	82.0226	232.91	82.1913	232.91	82.0258	232.91	82.165	232.91	82.0748	232.91	82.1841	232.91	82.146	232.91	82.2254	232.91	82.2157	232.91	82.2641	232.91	82.2642	232.91	82.2806
241.699	84.0776	241.699	84.0491	241.699	84.0541	241.699	83.9722	241.699	83.9764	241.699	83.8519	241.699	83.8446	241.699	83.6936	241.699	83.6617	241.699	83.5027	241.699	83.4335	241.699	83.2852	241.699	83.1696	241.699	83.0475	241.699	82.8831	241.699	82.7978	241.699	82.5911	241.699	82.5473	241.699	82.3134	241.699	82.3107	241.699	82.0709	241.699	82.1049	241.699	81.8821	241.699	81.9463	241.699	81.759	241.699	81.8453	241.699	81.7033	241.699	81.8017	241.699	81.7046	241.699	81.8029	241.699	81.7432	241.699	81.8275	241.699	81.7951	241.699	81.8522	241.699	81.8384	241.699	81.8586
249.756	84.1256	249.756	84.0686	249.756	84.1221	249.756	83.9542	249.756	84.0567	249.756	83.7874	249.756	83.9308	249.756	83.5746	249.756	83.7487	249.756	83.3231	249.756	83.5177	249.756	83.0415	249.756	83.2483	249.756	82.7403	249.756	82.9543	249.756	82.4325	249.756	82.6526	249.756	82.1347	249.756	82.362	249.756	81.8669	249.756	82.102	249.756	81.65	249.756	81.8898	249.756	81.5013	249.756	81.7372	249.756	81.4281	249.756	81.6469	249.756	81.4235	249.756	81.6114	249.756	81.4675	249.756	81.6136	249.756	81.533	249.756	81.6316	249.756	81.5941	249.756	81.6434	249.756	81.6329
258.545	84.0963	258.545	84.0599	258.545	84.0741	258.545	83.9675	258.545	83.9924	258.545	83.8231	258.545	83.8528	258.545	83.6317	258.545	83.6598	258.545	83.3991	258.545	83.4211	258.545	83.1321	258.545	83.1482	258.545	82.8395	258.545	82.8561	258.545	82.5335	258.545	82.5632	258.545	82.2305	258.545	82.2896	258.545	81.952	258.545	82.0553	258.545	81.722	258.545	81.8764	258.545	81.5619	258.545	81.7614	258.545	81.4831	258.545	81.7082	258.545	81.4813	258.545	81.7043	258.545	81.536	258.545	81.7289	258.545	81.6177	258.545	81.758	258.545	81.6965	258.545	81.7699	258.545	81.7505
268.066	83.8316	268.066	83.7546	268.066	83.848	268.066	83.6197	268.066	83.8024	268.066	83.431	268.066	83.695	268.066	83.1934	268.066	83.5281	268.066	82.9124	268.066	83.3062	268.066	82.5948	268.066	83.0367	268.066	82.2494	268.066	82.7308	268.066	81.8887	268.066	82.4037	268.066	81.5312	268.066	82.0758	268.066	81.2025	268.066	81.7713	268.066	80.9336	268.066	81.515	268.066	80.7537	268.066	81.3271	268.066	80.6797	268.066	81.2158	268.066	80.7063	268.066	81.1731	268.066	80.8056	268.066	81.1757	268.066	80.9371	268.066	81.1918	268.066	81.0608	268.066	81.1901	268.066	81.1488
277.588	83.9301	277.588	83.9139	277.588	83.8795	277.588	83.8292	277.588	83.7664	277.588	83.6766	277.588	83.5982	277.588	83.4585	277.588	83.3852	277.588	83.1796	277.588	83.1406	277.588	82.8475	277.588	82.8792	277.588	82.4743	277.588	82.6166	277.588	82.0785	277.588	82.367	277.588	81.6864	277.588	82.1422	277.588	81.3322	277.588	81.9505	277.588	81.0527	277.588	81.7967	277.588	80.8778	277.588	81.6818	277.588	80.8189	277.588	81.603	277.588	80.8627	277.588	81.5531	277.588	80.9761	277.588	81.5201	277.588	81.1187	277.588	81.4884	277.588	81.2559	277.588	81.4415	277.588	81.3658
287.109	83.762	287.109	83.772	287.109	83.6802	287.109	83.7117	287.109	83.5268	287.109	83.5838	287.109	83.3061	287.109	83.3909	287.109	83.0273	287.109	83.1355	287.109	82.7061	287.109	82.8213	287.109	82.365	287.109	82.4548	287.109	82.0327	287.109	82.0496	287.109	81.7406	287.109	81.6304	287.109	81.5171	287.109	81.2361	287.109	81.3805	287.109	80.9173	287.109	81.3342	287.109	80.7236	287.109	81.3648	287.109	80.6828	287.109	81.447	287.109	80.7846	287.109	81.5492	287.109	80.983	287.109	81.6393	287.109	81.2171	287.109	81.6892	287.109	81.4323	287.109	81.6773	287.109	81.5914
297.363	83.934	297.363	83.9051	297.363	83.8895	297.363	83.8109	297.363	83.7643	297.363	83.6583	297.363	83.5527	297.363	83.4519	297.363	83.2534	297.363	83.1934	297.363	82.8713	297.363	82.8818	297.363	82.4204	297.363	82.5157	297.363	81.9278	297.363	82.0969	297.363	81.4359	297.363	81.6359	297.363	81.0014	297.363	81.1593	297.363	80.6844	297.363	80.7142	297.363	80.5271	297.363	80.3655	297.363	80.5329	297.363	80.1755	297.363	80.6618	297.363	80.1727	297.363	80.8476	297.363	80.3305	297.363	81.0216	297.363	80.5786	297.363	81.1294	297.363	80.8354	297.363	81.1375	297.363	81.035
307.617	83.7588	307.617	83.7107	307.617	83.7418	307.617	83.6035	307.617	83.6543	307.617	83.4436	307.617	83.4924	307.617	83.2369	307.617	83.2541	307.617	82.9888	307.617	82.9403	307.617	82.7038	307.617	82.557	307.617	82.387	307.617	82.1177	307.617	82.0459	307.617	81.6477	307.617	81.6941	307.617	81.1871	307.617	81.3545	307.617	80.7901	307.617	81.0599	307.617	80.5149	307.617	80.8482	307.617	80.4023	307.617	80.7486	307.617	80.4526	307.617	80.766	307.617	80.6222	307.617	80.8731	307.617	80.8412	307.617	81.0185	307.617	81.0406	307.617	81.1445	307.617	81.1698	307.617	81.2038
318.604	83.676	318.604	83.6375	318.604	83.6398	318.604	83.5298	318.604	83.5244	318.604	83.359	318.604	83.3272	318.604	83.1306	318.604	83.0486	318.604	82.8493	318.604	82.6923	318.604	82.5186	318.604	82.2665	318.604	82.1432	318.604	81.7866	318.604	81.7315	318.604	81.2771	318.604	81.3	318.604	80.7749	318.604	80.8783	318.604	80.3296	318.604	80.51	318.604	79.9963	318.604	80.245	318.604	79.8195	318.604	80.1199	318.604	79.811	318.604	80.1362	318.604	79.9402	318.604	80.2534	318.604	80.1445	318.604	80.4051	318.604	80.3522	318.604	80.5246	318.604	80.5042	318.604	80.5644
329.59	83.676	329.59	83.5969	329.59	83.6851	329.59	83.4543	329.59	83.6183	329.59	83.2546	329.59	83.4709	329.59	83.0028	329.59	83.2403	329.59	82.7022	329.59	82.9261	329.59	82.3544	329.59	82.5322	329.59	81.9604	329.59	82.0685	329.59	81.5252	329.59	81.5549	329.59	81.0625	329.59	81.0252	329.59	80.6019	329.59	80.53	329.59	80.1921	329.59	80.1324	329.59	79.894	329.59	79.8899	329.59	79.7575	329.59	79.8275	329.59	79.7914	329.59	79.9192	329.59	79.951	329.59	80.0975	329.59	80.1584	329.59	80.2816	329.59	80.3349	329.59	80.4042	329.59	80.4249
341.309	83.2851	341.309	83.2157	341.309	83.2777	341.309	83.0752	341.309	83.1901	341.309	82.8718	341.309	83.0218	341.309	82.6143	341.309	82.775	341.309	82.3118	341.309	82.4553	341.309	81.973	341.309	82.0721	341.309	81.6065	341.309	81.6405	341.309	81.2232	341.309	81.1842	341.309	80.8408	341.309	80.7378	341.309	80.4873	341.309	80.348	341.309	80.2026	341.309	80.0667	341.309	80.0298	341.309	79.9348	341.309	79.9966	341.309	79.9619	341.309	80.0964	341.309	80.1159	341.309	80.284	341.309	80.3335	341.309	80.4919	341.309	80.5433	341.309	80.6547	341.309	80.6861	341.309	80.726
353.76	83.7196	353.76	83.6351	353.76	83.7133	353.76	83.4642	353.76	83.6124	353.76	83.2112	353.76	83.4142	353.76	82.8799	353.76	83.1176	353.76	82.4733	353.76	82.7244	353.76	81.9952	353.76	82.2411	353.76	81.4523	353.76	81.682	353.76	80.8596	353.76	81.0738	353.76	80.2496	353.76	80.4617	353.76	79.6803	353.76	79.9124	353.76	79.2367	353.76	79.5061	353.76	79.0066	353.76	79.3096	353.76	79.0315	353.76	79.3391	353.76	79.2706	353.76	79.5445	353.76	79.6198	353.76	79.8324	353.76	79.9643	353.76	80.105	353.76	80.2171	353.76	80.2861	353.76	80.3291
366.211	83.6577	366.211	83.6004	366.211	83.6292	366.211	83.4622	366.211	83.5109	366.211	83.2479	366.211	83.3003	366.211	82.961	366.211	82.9971	366.211	82.6033	366.211	82.6038	366.211	82.1743	366.211	82.1272	366.211	81.6729	366.211	81.5815	366.211	81.1024	366.211	80.9925	366.211	80.4783	366.211	80.4033	366.211	79.8399	366.211	79.8767	366.211	79.2619	366.211	79.4874	366.211	78.8485	366.211	79.296	366.211	78.6927	366.211	79.3141	366.211	78.8114	366.211	79.4903	366.211	79.1236	366.211	79.7325	366.211	79.4987	366.211	79.9448	366.211	79.82	366.211	80.0531	366.211	80.0145
378.662	83.7742	378.662	83.6948	378.662	83.7737	378.662	83.5429	378.662	83.6851	378.662	83.3243	378.662	83.5005	378.662	83.0426	378.662	83.2124	378.662	82.698	378.662	82.8154	378.662	82.2883	378.662	82.3083	378.662	81.8103	378.662	81.6983	378.662	81.2655	378.662	81.0089	378.662	80.6684	378.662	80.2918	378.662	80.0599	378.662	79.6381	378.662	79.5183	378.662	79.1716	378.662	79.1527	378.662	79.0008	378.662	79.0565	378.662	79.1426	378.662	79.239	378.662	79.5011	378.662	79.606	378.662	79.9267	378.662	80.0165	378.662	80.2878	378.662	80.3473	378.662	80.4991	378.662	80.5198
392.578	83.1845	392.578	83.1237	392.578	83.1806	392.578	83.0017	392.578	83.1074	392.578	82.8207	392.578	82.9591	392.578	82.5806	392.578	82.728	392.578	82.2788	392.578	82.4057	392.578	81.9098	392.578	81.9839	392.578	81.4671	392.578	81.4581	392.578	80.9476	392.578	80.834	392.578	80.3597	392.578	80.1392	392.578	79.7365	392.578	79.439	392.578	79.15	392.578	78.8476	392.578	78.7127	392.578	78.5056	392.578	78.5382	392.578	78.4998	392.578	78.6632	392.578	78.7849	392.578	79.005	392.578	79.208	392.578	79.4119	392.578	79.6034	392.578	79.7421	392.578	79.8545	392.578	79.9031
405.762	83.1882	405.762	83.105	405.762	83.1871	405.762	82.9422	405.762	83.0973	405.762	82.7044	405.762	82.9147	405.762	82.395	405.762	82.635	405.762	82.0148	405.762	82.2532	405.762	81.5621	405.762	81.7652	405.762	81.035	405.762	81.1703	405.762	80.4376	405.762	80.4796	405.762	79.7922	405.762	79.7288	405.762	79.1558	405.762	78.9992	405.762	78.6346	405.762	78.4295	405.762	78.3641	405.762	78.1795	405.762	78.4337	405.762	78.3245	405.762	78.8041	405.762	78.7775	405.762	79.3241	405.762	79.3493	405.762	79.8229	405.762	79.8622	405.762	80.1751	405.762	80.2013	405.762	80.3099
420.41	83.3167	420.41	83.2152	420.41	83.351	420.41	83.0528	420.41	83.3107	420.41	82.8344	420.41	83.1872	420.41	82.5619	420.41	82.9702	420.41	82.2321	420.41	82.6469	420.41	81.836	420.41	82.202	420.41	81.3596	420.41	81.6202	420.41	80.7888	420.41	80.8904	420.41	80.1193	420.41	80.0181	420.41	79.3752	420.41	79.0501	420.41	78.6367	420.41	78.1168	420.41	78.0605	420.41	77.4584	420.41	77.835	420.41	77.3211	420.41	78.0353	420.41	77.7182	420.41	78.5294	420.41	78.3913	420.41	79.0798	420.41	79.0434	420.41	79.488	420.41	79.4866	420.41	79.6388
435.059	83.2691	435.059	83.183	435.059	83.2758	435.059	83.0183	435.059	83.2028	435.059	82.7766	435.059	83.0502	435.059	82.4588	435.059	82.8161	435.059	82.0643	435.059	82.4963	435.059	81.5898	435.059	82.0835	435.059	81.0313	435.059	81.569	435.059	80.3897	435.059	80.9472	435.059	79.6839	435.059	80.2258	435.059	78.972	435.059	79.4441	435.059	78.3735	435.059	78.6995	435.059	78.0548	435.059	78.1601	435.059	78.132	435.059	78.0042	435.059	78.555	435.059	78.2752	435.059	79.1313	435.059	78.8198	435.059	79.6557	435.059	79.4064	435.059	79.9884	435.059	79.8532	435.059	80.0592
450.439	82.9962	450.439	82.9218	450.439	83.0058	450.439	82.7841	450.439	82.9487	450.439	82.5836	450.439	82.8213	450.439	82.3183	450.439	82.6167	450.439	81.9809	450.439	82.3234	450.439	81.557	450.439	81.9249	450.439	81.0254	450.439	81.4018	450.439	80.3624	450.439	80.7361	450.439	79.5523	450.439	79.9223	450.439	78.612	450.439	78.99	450.439	77.6388	450.439	78.0464	450.439	76.8676	450.439	77.3186	450.439	76.6191	450.439	77.0862	450.439	77.0099	450.439	77.4274	450.439	77.7829	450.439	78.1021	450.439	78.5714	450.439	78.7799	450.439	79.135	450.439	79.2368	450.439	79.3657
466.553	82.9055	466.553	82.8568	466.553	82.8911	466.553	82.7472	466.553	82.8104	466.553	82.5763	466.553	82.6593	466.553	82.3382	466.553	82.4318	466.553	82.0198	466.553	82.1187	466.553	81.6003	466.553	81.7068	466.553	81.0534	466.553	81.1803	466.553	80.3525	466.553	80.5251	466.553	79.4839	466.553	79.7395	466.553	78.4743	466.553	78.855	466.553	77.4455	466.553	77.9741	466.553	76.6744	466.553	77.3017	466.553	76.501	466.553	77.0833	466.553	76.985	466.553	77.393	466.553	77.8037	466.553	78.0271	466.553	78.5862	466.553	78.6859	466.553	79.1166	466.553	79.1511	466.553	79.309
482.666	82.5996	482.666	82.5413	482.666	82.6091	482.666	82.4405	482.666	82.5632	482.666	82.3002	482.666	82.4551	482.666	82.1158	482.666	82.2755	482.666	81.8706	482.666	82.0108	482.666	81.5346	482.666	81.6416	482.666	81.0667	482.666	81.144	482.666	80.4196	482.666	80.4934	482.666	79.5504	482.666	79.675	482.666	78.4446	482.666	78.7074	482.666	77.1832	482.666	77.6933	482.666	76.0802	482.666	76.8885	482.666	75.7095	482.666	76.6516	482.666	76.3314	482.666	77.1095	482.666	77.4653	482.666	77.962	482.666	78.5319	482.666	78.7994	482.666	79.248	482.666	79.3611	482.666	79.5259
500.244	82.4618	500.244	82.3338	500.244	82.5328	500.244	82.1671	500.244	82.5344	500.244	81.9816	500.244	82.4594	500.244	81.7902	500.244	82.3015	500.244	81.5879	500.244	82.0512	500.244	81.3469	500.244	81.6935	500.244	81.0192	500.244	81.2083	500.244	80.545	500.244	80.5746	500.244	79.8651	500.244	79.7814	500.244	78.9382	500.244	78.8519	500.244	77.785	500.244	77.8935	500.244	76.5944	500.244	77.1562	500.244	75.8533	500.244	76.9661	500.244	76.0676	500.244	77.4127	500.244	77.0516	500.244	78.2001	500.244	78.1727	500.244	78.9429	500.244	79.0161	500.244	79.3926	500.244	79.4308
517.822	81.8394	517.822	81.7467	517.822	81.8928	517.822	81.6188	517.822	81.915	517.822	81.4725	517.822	81.9156	517.822	81.3274	517.822	81.8928	517.822	81.1905	517.822	81.8251	517.822	81.0436	517.822	81.6713	517.822	80.8424	517.822	81.3774	517.822	80.5264	517.822	80.8851	517.822	80.0322	517.822	80.1392	517.822	79.3104	517.822	79.1042	517.822	78.3564	517.822	77.8165	517.822	77.2847	517.822	76.5254	517.822	76.4483	517.822	75.8426	517.822	76.3535	517.822	76.2661	517.822	77.073	517.822	77.3805	517.822	78.0903	517.822	78.4614	517.822	78.9071	517.822	79.1333	517.822	79.2825
536.133	82.2411	536.133	82.0786	536.133	82.2338	536.133	81.7635	536.133	82.0676	536.133	81.3402	536.133	81.7817	536.133	80.8739	536.133	81.4368	536.133	80.4325	536.133	81.0972	536.133	80.0548	536.133	80.8004	536.133	79.7229	536.133	80.5298	536.133	79.3619	536.133	80.2146	536.133	78.8716	536.133	79.7561	536.133	78.1711	536.133	79.0635	536.133	77.2628	536.133	78.1028	536.133	76.354	536.133	77.0029	536.133	75.9654	536.133	76.2352	536.133	76.5371	536.133	76.4399	536.133	77.7486	536.133	77.5294	536.133	78.9457	536.133	78.7698	536.133	79.7406	536.133	79.6513	536.133	79.9877
554.443	82.4634	554.443	82.3887	554.443	82.4201	554.443	82.2017	554.443	82.2643	554.443	81.9178	554.443	82.0122	554.443	81.5574	554.443	81.6865	554.443	81.1381	554.443	81.3084	554.443	80.6654	554.443	80.8865	554.443	80.1242	554.443	80.4084	554.443	79.476	554.443	79.8377	554.443	78.6664	554.443	79.1225	554.443	77.6489	554.443	78.2174	554.443	76.449	554.443	77.1346	554.443	75.3137	554.443	76.0586	554.443	74.8427	554.443	75.4672	554.443	75.4732	554.443	75.8212	554.443	76.7525	554.443	76.8815	554.443	77.9765	554.443	78.0075	554.443	78.7847	554.443	78.7874	554.443	79.0611
574.219	82.4626	574.219	82.3453	574.219	82.4347	574.219	82.1003	574.219	82.2691	574.219	81.7659	574.219	81.9982	574.219	81.3902	574.219	81.6709	574.219	81.0124	574.219	81.3337	574.219	80.6415	574.219	81.0044	574.219	80.2438	574.219	80.653	574.219	79.7473	574.219	80.2035	574.219	79.0585	574.219	79.5528	574.219	78.0841	574.219	78.5953	574.219	76.7711	574.219	77.2664	574.219	75.2325	574.219	75.6828	574.219	74.0637	574.219	74.4975	574.219	74.2495	574.219	74.7437	574.219	75.6498	574.219	76.1494	574.219	77.1877	574.219	77.5777	574.219	78.264	574.219	78.474	574.219	78.706
594.727	82.465	594.727	82.3522	594.727	82.4083	594.727	82.0954	594.727	82.1878	594.727	81.7451	594.727	81.8405	594.727	81.362	594.727	81.4288	594.727	80.9915	594.727	81.0205	594.727	80.6368	594.727	80.6554	594.727	80.2488	594.727	80.3149	594.727	79.7395	594.727	79.9192	594.727	79.007	594.727	79.3517	594.727	77.9613	594.727	78.4921	594.727	76.5787	594.727	77.2615	594.727	75.0861	594.727	75.7594	594.727	74.3062	594.727	74.628	594.727	75.0712	594.727	74.949	594.727	76.7253	594.727	76.4893	594.727	78.2408	594.727	78.0721	594.727	79.2007	594.727	79.1212	594.727	79.5016
615.234	82.9385	615.234	82.7479	615.234	82.9004	615.234	82.3624	615.234	82.6297	615.234	81.8494	615.234	82.1544	615.234	81.3083	615.234	81.5437	615.234	80.8442	615.234	80.9125	615.234	80.5108	615.234	80.3927	615.234	80.2602	615.234	80.052	615.234	79.9563	615.234	79.8226	615.234	79.4309	615.234	79.5268	615.234	78.5293	615.234	78.9627	615.234	77.1523	615.234	77.9649	615.234	75.4123	615.234	76.476	615.234	74.1286	615.234	74.8299	615.234	74.6282	615.234	74.2581	615.234	76.3667	615.234	75.5073	615.234	77.9671	615.234	77.2801	615.234	78.9167	615.234	78.5671	615.234	79.1212
637.207	83.7013	637.207	83.4455	637.207	83.7069	637.207	82.9492	637.207	83.4649	637.207	82.2452	637.207	82.9919	637.207	81.4105	637.207	82.3288	637.207	80.5832	637.207	81.5573	637.207	79.9316	637.207	80.8022	637.207	79.5396	637.207	80.1866	637.207	79.3035	637.207	79.7384	637.207	78.9806	637.207	79.3361	637.207	78.3105	637.207	78.7657	637.207	77.0839	637.207	77.8228	637.207	75.2621	637.207	76.441	637.207	73.6101	637.207	75.0619	637.207	74.1828	637.207	75.0465	637.207	76.5306	637.207	76.7304	637.207	78.6393	637.207	78.6277	637.207	79.92	637.207	79.8896	637.207	80.3303
659.912	83.7341	659.912	83.6172	659.912	83.6195	659.912	83.2794	659.912	83.2884	659.912	82.7598	659.912	82.7804	659.912	82.1304	659.912	82.1629	659.912	81.4881	659.912	81.526	659.912	80.9216	659.912	80.9576	659.912	80.4559	659.912	80.4936	659.912	80.018	659.912	80.0781	659.912	79.4605	659.912	79.573	659.912	78.6109	659.912	78.8045	659.912	77.3126	659.912	77.6106	659.912	75.5161	659.912	75.9374	659.912	73.6994	659.912	74.2358	659.912	73.4947	659.912	74.0149	659.912	75.291	659.912	75.6738	659.912	77.2931	659.912	77.5449	659.912	78.6159	659.912	78.7434	659.912	79.104
683.35	84.4647	683.35	84.2486	683.35	84.4094	683.35	83.7775	683.35	84.0756	683.35	83.0844	683.35	83.4687	683.35	82.2372	683.35	82.6247	683.35	81.3591	683.35	81.6424	683.35	80.6138	683.35	80.7139	683.35	80.1124	683.35	80.0716	683.35	79.7964	683.35	79.7936	683.35	79.4494	683.35	79.6815	683.35	78.8157	683.35	79.4062	683.35	77.6885	683.35	78.6834	683.35	76.0218	683.35	77.3505	683.35	74.4248	683.35	75.6126	683.35	74.6591	683.35	74.8208	683.35	76.7114	683.35	76.2513	683.35	78.7292	683.35	78.3362	683.35	79.9747	683.35	79.7827	683.35	80.3317
706.787	84.8675	706.787	84.6701	706.787	84.8049	706.787	84.2139	706.787	84.4872	706.787	83.5161	706.787	83.9236	706.787	82.6264	706.787	83.1357	706.787	81.6481	706.787	82.1809	706.787	80.7411	706.787	81.1843	706.787	80.0598	706.787	80.3357	706.787	79.6267	706.787	79.7731	706.787	79.2782	706.787	79.4118	706.787	78.7526	706.787	78.9573	706.787	77.7971	706.787	78.0817	706.787	76.2613	706.787	76.5954	706.787	74.5029	706.787	74.9105	706.787	74.3251	706.787	74.9248	706.787	76.4732	706.787	77.1098	706.787	78.8354	706.787	79.3162	706.787	80.3926	706.787	80.6459	706.787	80.9998
731.689	84.9319	731.689	84.8283	731.689	84.7941	731.689	84.4756	731.689	84.4212	731.689	83.8754	731.689	83.8137	731.689	83.0549	731.689	82.9721	731.689	82.0872	731.689	81.9228	731.689	81.1039	731.689	80.7653	731.689	80.2605	731.689	79.716	731.689	79.6302	731.689	79.0238	731.689	79.1144	731.689	78.6992	731.689	78.4822	731.689	78.4116	731.689	77.4794	731.689	77.7264	731.689	75.9311	731.689	76.3147	731.689	74.0821	731.689	74.2854	731.689	73.5572	731.689	73.5552	731.689	75.5124	731.689	75.7881	731.689	77.9368	731.689	78.3265	731.689	79.5911	731.689	79.8432	731.689	80.245
758.057	85.0576	758.057	84.916	758.057	85.0105	758.057	84.5757	758.057	84.769	758.057	84.025	758.057	84.3064	758.057	83.2679	758.057	83.582	758.057	82.3407	758.057	82.5653	758.057	81.3256	758.057	81.2875	758.057	80.3403	758.057	79.9292	758.057	79.4777	758.057	78.8641	758.057	78.7114	758.057	78.3695	758.057	77.8633	758.057	78.1839	758.057	76.677	758.057	77.7177	758.057	74.9817	758.057	76.4846	758.057	73.2717	758.057	74.3848	758.057	73.6384	758.057	73.1486	758.057	76.204	758.057	75.3943	758.057	78.657	758.057	78.2697	758.057	80.1806	758.057	80.0543	758.057	80.6628
784.424	84.9535	784.424	84.7824	784.424	84.8967	784.424	84.3858	784.424	84.6211	784.424	83.7913	784.424	84.1361	784.424	83.0634	784.424	83.4462	784.424	82.3034	784.424	82.5601	784.424	81.6164	784.424	81.5149	784.424	81.0425	784.424	80.4099	784.424	80.5153	784.424	79.4045	784.424	79.8965	784.424	78.6014	784.424	79.0408	784.424	77.87	784.424	77.8302	784.424	76.8443	784.424	76.2083	784.424	75.1068	784.424	74.4176	784.424	72.707	784.424	73.7051	784.424	72.2972	784.424	75.2437	784.424	75.3263	784.424	77.5513	784.424	78.125	784.424	79.265	784.424	79.6659	784.424	80.0087
812.256	85.0626	812.256	84.9151	812.256	85.0003	812.256	84.5145	812.256	84.7491	812.256	83.8209	812.256	84.298	812.256	82.8419	812.256	83.6089	812.256	81.6964	812.256	82.6395	812.256	80.6574	812.256	81.3953	812.256	80.0174	812.256	80.031	812.256	79.77	812.256	78.9318	812.256	79.5831	812.256	78.4234	812.256	79.0945	812.256	78.2129	812.256	78.0563	812.256	77.5798	812.256	76.3575	812.256	75.8016	812.256	74.3742	812.256	72.0433	812.256	73.9757	812.256	68.2925	812.256	76.0557	812.256	73.3637	812.256	78.4048	812.256	77.5515	812.256	79.9186	812.256	79.6922	812.256	80.3893
840.82	85.0668	840.82	85.0534	840.82	84.8623	840.82	84.7601	840.82	84.4995	840.82	84.1429	840.82	84.0155	840.82	83.201	840.82	83.4081	840.82	82.0112	840.82	82.6331	840.82	80.7563	840.82	81.6313	840.82	79.6805	840.82	80.3982	840.82	78.9115	840.82	79.0973	840.82	78.3297	840.82	78.102	840.82	77.6889	840.82	77.6251	840.82	76.7987	840.82	77.2507	840.82	75.6246	840.82	76.2306	840.82	74.5151	840.82	73.9069	840.82	74.5478	840.82	71.0328	840.82	76.2535	840.82	73.3248	840.82	78.3871	840.82	77.2877	840.82	79.8924	840.82	79.5878	840.82	80.3666
870.85	85.0546	870.85	84.992	870.85	84.8907	870.85	84.6677	870.85	84.506	870.85	84.0267	870.85	83.8849	870.85	83.0234	870.85	83.008	870.85	81.673	870.85	81.8763	870.85	80.1359	870.85	80.5626	870.85	78.7925	870.85	79.3105	870.85	78.0363	870.85	78.5539	870.85	77.7733	870.85	78.4981	870.85	77.4981	870.85	78.7079	870.85	76.7766	870.85	78.5115	870.85	75.3913	870.85	77.3482	870.85	73.5688	870.85	74.6742	870.85	73.0887	870.85	70.9784	870.85	75.3784	870.85	73.0867	870.85	78.0921	870.85	77.2946	870.85	79.8567	870.85	79.6539	870.85	80.4203
901.611	84.8381	901.611	84.8351	901.611	84.6953	901.611	84.6099	901.611	84.4697	901.611	84.1017	901.611	84.1702	901.611	83.2801	901.611	83.7275	901.611	82.1555	901.611	83.0067	901.611	80.7934	901.611	81.8473	901.611	79.3415	901.611	80.1326	901.611	78.0455	901.611	78.0126	901.611	77.1706	901.611	76.4621	901.611	76.7773	901.611	76.5745	901.611	76.6021	901.611	77.2374	901.611	76.2449	901.611	76.9661	901.611	75.4921	901.611	75.0073	901.611	74.9067	901.611	71.7938	901.611	76.0077	901.611	73.8468	901.611	78.3929	901.611	78.1128	901.611	80.3298	901.611	80.4633	901.611	81.1049
933.105	85.1836	933.105	85.145	933.105	84.9407	933.105	84.7774	933.105	84.4816	933.105	84.0577	933.105	83.8753	933.105	83.0018	933.105	83.161	933.105	81.6982	933.105	82.3049	933.105	80.3477	933.105	81.1917	933.105	79.2024	933.105	79.6995	933.105	78.3103	933.105	77.9197	933.105	77.3839	933.105	76.5336	933.105	76.0706	933.105	76.2925	933.105	74.3167	933.105	76.414	933.105	72.7421	933.105	75.5286	933.105	72.5056	933.105	72.6165	933.105	73.7685	933.105	69.0555	933.105	75.7818	933.105	73.5366	933.105	77.8763	933.105	77.7387	933.105	79.4906	933.105	79.7626	933.105	80.2212
966.064	84.7957	966.064	84.842	966.064	84.5108	966.064	84.5643	966.064	84.0697	966.064	83.8901	966.064	83.5423	966.064	82.7909	966.064	82.9653	966.064	81.3376	966.064	82.2947	966.064	79.7874	966.064	81.3765	966.064	78.554	966.064	79.9956	966.064	77.7964	966.064	78.0632	966.064	77.1567	966.064	76.172	966.064	76.2298	966.064	75.778	966.064	74.9842	966.064	76.3982	966.064	73.7664	966.064	76.0877	966.064	72.9659	966.064	73.4943	966.064	73.1094	966.064	67.7711	966.064	75.044	966.064	72.5968	966.064	77.8962	966.064	78.0857	966.064	80.1336	966.064	80.5818	966.064	81.1238
999.756	84.5335	999.756	84.6006	999.756	84.258	999.756	84.4169	999.756	83.8079	999.756	83.9137	999.756	83.2284	999.756	83.0024	999.756	82.5608	999.756	81.6197	999.756	81.785	999.756	79.8382	999.756	80.7706	999.756	78.059	999.756	79.3068	999.756	76.899	999.756	77.2672	999.756	76.2806	999.756	75.1384	999.756	75.3857	999.756	74.4285	999.756	73.7019	999.756	74.9238	999.756	71.78	999.756	74.5174	999.756	71.6032	999.756	71.3626	999.756	73.3552	999.756	61.0244	999.756	75.7385	999.756	71.953	999.756	78.241	999.756	78.0135	999.756	80.2397	999.756	80.5893	999.756	81.158
1,034.91	83.5539	1,034.91	83.8171	1,034.91	83.2242	1,034.91	83.9149	1,034.91	82.8727	1,034.91	83.7197	1,034.91	82.5115	1,034.91	83.1189	1,034.91	82.1477	1,034.91	82.0556	1,034.91	81.7436	1,034.91	80.58	1,034.91	81.1408	1,034.91	78.9026	1,034.91	80.0638	1,034.91	77.3074	1,034.91	78.2368	1,034.91	75.8086	1,034.91	75.8074	1,034.91	74.0857	1,034.91	74.5568	1,034.91	72.1399	1,034.91	75.5925	1,034.91	71.0318	1,034.91	76.2971	1,034.91	71.3021	1,034.91	74.8004	1,034.91	72.0036	1,034.91	67.9341	1,034.91	73.8321	1,034.91	66.9446	1,034.91	77.0524	1,034.91	76.918	1,034.91	79.8073	1,034.91	80.3534	1,034.91	81.0562
1,071.53	83.3822	1,071.53	83.4931	1,071.53	83.2807	1,071.53	83.6329	1,071.53	83.0795	1,071.53	83.6546	1,071.53	82.7175	1,071.53	83.3275	1,071.53	82.2239	1,071.53	82.4854	1,071.53	81.6214	1,071.53	81.1574	1,071.53	80.789	1,071.53	79.7052	1,071.53	79.4428	1,071.53	78.7088	1,071.53	77.2605	1,071.53	78.1508	1,071.53	74.4003	1,071.53	77.1909	1,071.53	73.327	1,071.53	74.9023	1,071.53	75.0805	1,071.53	70.5051	1,071.53	76.1803	1,071.53	67.3656	1,071.53	74.9649	1,071.53	71.4772	1,071.53	68.8429	1,071.53	74.9539	1,071.53	65.7169	1,071.53	77.6634	1,071.53	76.2988	1,071.53	79.7902	1,071.53	79.8961	1,071.53	80.744
1,109.62	83.5427	1,109.62	83.7005	1,109.62	83.3339	1,109.62	83.8059	1,109.62	82.9818	1,109.62	83.7199	1,109.62	82.4409	1,109.62	83.2508	1,109.62	81.8397	1,109.62	82.2738	1,109.62	81.4077	1,109.62	80.8244	1,109.62	81.1176	1,109.62	79.2567	1,109.62	80.5232	1,109.62	78.2702	1,109.62	79.008	1,109.62	77.9929	1,109.62	75.9539	1,109.62	77.5287	1,109.62	72.0562	1,109.62	76.0249	1,109.62	73.5238	1,109.62	73.192	1,109.62	76.2037	1,109.62	70.6995	1,109.62	76.1786	1,109.62	71.7917	1,109.62	71.8684	1,109.62	74.1799	1,109.62	58.6233	1,109.62	76.869	1,109.62	75.2459	1,109.62	79.3133	1,109.62	79.5171	1,109.62	80.4538
1,148.44	84.4127	1,148.44	84.3306	1,148.44	84.3411	1,148.44	84.1789	1,148.44	84.0108	1,148.44	83.9108	1,148.44	83.3881	1,148.44	83.3593	1,148.44	82.5674	1,148.44	82.3511	1,148.44	81.768	1,148.44	80.8234	1,148.44	81.1198	1,148.44	79.1161	1,148.44	80.3672	1,148.44	78.2605	1,148.44	78.9301	1,148.44	78.5104	1,148.44	76.1664	1,148.44	78.5431	1,148.44	72.5284	1,148.44	77.2932	1,148.44	73.5031	1,148.44	74.1152	1,148.44	76.2978	1,148.44	69.1048	1,148.44	76.673	1,148.44	69.2764	1,148.44	73.1786	1,148.44	73.3674	1,148.44	52.7517	1,148.44	76.7908	1,148.44	74.6272	1,148.44	79.3957	1,148.44	79.4498	1,148.44	80.5326
1,189.45	84.6141	1,189.45	84.0817	1,189.45	84.8387	1,189.45	83.497	1,189.45	84.6049	1,189.45	83.0433	1,189.45	83.8849	1,189.45	82.6052	1,189.45	82.7957	1,189.45	81.8098	1,189.45	81.6809	1,189.45	80.2677	1,189.45	80.9816	1,189.45	77.9545	1,189.45	80.6017	1,189.45	76.1981	1,189.45	79.7518	1,189.45	76.6277	1,189.45	77.484	1,189.45	77.4179	1,189.45	72.8205	1,189.45	77.0162	1,189.45	70.0392	1,189.45	75.1811	1,189.45	74.4296	1,189.45	72.7064	1,189.45	76.0049	1,189.45	71.8671	1,189.45	73.3439	1,189.45	72.7762	1,189.45	59.2814	1,189.45	75.3557	1,189.45	74.6818	1,189.45	78.6229	1,189.45	79.5198	1,189.45	80.3454
1,231.2	84.9073	1,231.2	84.3664	1,231.2	85.0433	1,231.2	83.6572	1,231.2	84.6948	1,231.2	83.0824	1,231.2	83.8755	1,231.2	82.6672	1,231.2	82.6528	1,231.2	82.0081	1,231.2	81.2588	1,231.2	80.5856	1,231.2	80.2315	1,231.2	78.0642	1,231.2	79.8112	1,231.2	74.9129	1,231.2	79.2339	1,231.2	73.8413	1,231.2	77.4242	1,231.2	74.671	1,231.2	73.3772	1,231.2	74.1428	1,231.2	70.0555	1,231.2	71.1167	1,231.2	74.5557	1,231.2	68.6208	1,231.2	76.7062	1,231.2	71.9192	1,231.2	74.64	1,231.2	74.2961	1,231.2	58.6928	1,231.2	75.9741	1,231.2	73.7528	1,231.2	78.2324	1,231.2	79.0523	1,231.2	79.8181
1,274.41	84.3906	1,274.41	83.9822	1,274.41	84.3721	1,274.41	83.2831	1,274.41	83.9723	1,274.41	82.621	1,274.41	83.2613	1,274.41	82.1977	1,274.41	82.2135	1,274.41	81.7336	1,274.41	80.7918	1,274.41	80.6752	1,274.41	79.2627	1,274.41	78.5743	1,274.41	78.2373	1,274.41	75.4591	1,274.41	77.6389	1,274.41	73.345	1,274.41	76.3721	1,274.41	74.0058	1,274.41	73.2025	1,274.41	74.325	1,274.41	68.3299	1,274.41	72.503	1,274.41	71.8483	1,274.41	67.8071	1,274.41	75.1827	1,274.41	67.5226	1,274.41	74.3661	1,274.41	72.3406	1,274.41	65.7124	1,274.41	75.2524	1,274.41	69.6916	1,274.41	77.3196	1,274.41	76.6973	1,274.41	78.2351
1,319.82	83.3863	1,319.82	83.2596	1,319.82	83.2678	1,319.82	82.8544	1,319.82	83.0256	1,319.82	82.3251	1,319.82	82.6743	1,319.82	81.9505	1,319.82	81.9998	1,319.82	81.6783	1,319.82	80.7207	1,319.82	80.949	1,319.82	78.7956	1,319.82	79.1182	1,319.82	76.8476	1,319.82	75.6074	1,319.82	75.9049	1,319.82	71.2038	1,319.82	75.3001	1,319.82	72.3384	1,319.82	73.1086	1,319.82	74.5286	1,319.82	67.794	1,319.82	74.1592	1,319.82	70.9781	1,319.82	71.135	1,319.82	75.883	1,319.82	67.0287	1,319.82	76.4791	1,319.82	67.8536	1,319.82	71.6815	1,319.82	71.3794	1,319.82	61.173	1,319.82	75.1113	1,319.82	74.7054	1,319.82	76.82
1,365.97	82.8228	1,365.97	83.1256	1,365.97	82.368	1,365.97	82.9625	1,365.97	82.0739	1,365.97	82.3148	1,365.97	81.8954	1,365.97	81.5585	1,365.97	81.5028	1,365.97	81.1019	1,365.97	80.6604	1,365.97	80.6522	1,365.97	79.4225	1,365.97	79.4617	1,365.97	78.1353	1,365.97	76.904	1,365.97	77.1241	1,365.97	72.8043	1,365.97	76.027	1,365.97	70.3976	1,365.97	73.7366	1,365.97	71.5682	1,365.97	68.8426	1,365.97	70.9367	1,365.97	68.5765	1,365.97	67.8447	1,365.97	73.6809	1,365.97	67.9073	1,365.97	74.7664	1,365.97	70.1199	1,365.97	70.9858	1,365.97	70.8548	1,365.97	65.6195	1,365.97	73.2691	1,365.97	73.6185	1,365.97	75.2864
1,414.31	82.3438	1,414.31	82.7902	1,414.31	81.9973	1,414.31	82.9506	1,414.31	81.8377	1,414.31	82.4849	1,414.31	81.683	1,414.31	81.425	1,414.31	81.3347	1,414.31	80.2599	1,414.31	80.652	1,414.31	79.4832	1,414.31	79.5189	1,414.31	78.8705	1,414.31	77.9542	1,414.31	77.7658	1,414.31	76.2953	1,414.31	75.7539	1,414.31	74.8399	1,414.31	73.1843	1,414.31	72.9832	1,414.31	71.3916	1,414.31	69.3938	1,414.31	69.7505	1,414.31	66.8723	1,414.31	66.4162	1,414.31	71.4596	1,414.31	67.9318	1,414.31	73.1874	1,414.31	71.5248	1,414.31	70.2042	1,414.31	72.1728	1,414.31	66.7197	1,414.31	72.6013	1,414.31	72.7621	1,414.31	74.0549
1,464.11	82.3849	1,464.11	82.6426	1,464.11	82.0627	1,464.11	82.4882	1,464.11	81.8423	1,464.11	81.6632	1,464.11	81.6735	1,464.11	80.2767	1,464.11	81.3919	1,464.11	78.895	1,464.11	80.7925	1,464.11	78.1265	1,464.11	79.7088	1,464.11	77.7507	1,464.11	78.1711	1,464.11	76.9363	1,464.11	76.5456	1,464.11	75.3979	1,464.11	75.1697	1,464.11	74.2787	1,464.11	73.4553	1,464.11	74.4517	1,464.11	69.7748	1,464.11	74.0226	1,464.11	65.3473	1,464.11	70.9208	1,464.11	70.4573	1,464.11	64.9153	1,464.11	72.3062	1,464.11	69.9851	1,464.11	68.738	1,464.11	72.6638	1,464.11	65.9281	1,464.11	72.6938	1,464.11	72.1256	1,464.11	73.2011
1,515.38	82.2994	1,515.38	82.2318	1,515.38	82.3097	1,515.38	82.0669	1,515.38	82.2116	1,515.38	81.6833	1,515.38	81.978	1,515.38	80.9266	1,515.38	81.5894	1,515.38	79.8313	1,515.38	80.9114	1,515.38	78.8178	1,515.38	79.7954	1,515.38	78.0454	1,515.38	78.3044	1,515.38	76.8353	1,515.38	76.734	1,515.38	74.5938	1,515.38	75.1779	1,515.38	72.701	1,515.38	72.9602	1,515.38	73.6877	1,515.38	68.9242	1,515.38	74.4801	1,515.38	66.4938	1,515.38	72.6329	1,515.38	70.0235	1,515.38	66.5259	1,515.38	70.7557	1,515.38	65.2525	1,515.38	65.968	1,515.38	70.7017	1,515.38	62.0933	1,515.38	72.956	1,515.38	71.3621	1,515.38	73.5477
1,568.85	82.2929	1,568.85	82.5168	1,568.85	82.0729	1,568.85	82.6983	1,568.85	81.8563	1,568.85	82.7045	1,568.85	81.5846	1,568.85	82.3421	1,568.85	81.1314	1,568.85	81.4414	1,568.85	80.4025	1,568.85	79.9426	1,568.85	79.4493	1,568.85	77.9897	1,568.85	78.4438	1,568.85	75.8612	1,568.85	77.4986	1,568.85	73.6155	1,568.85	76.4129	1,568.85	71.4847	1,568.85	74.5794	1,568.85	71.2215	1,568.85	71.2165	1,568.85	72.4482	1,568.85	67.3352	1,568.85	72.3664	1,568.85	69.1882	1,568.85	69.9871	1,568.85	70.6751	1,568.85	68.2065	1,568.85	67.3135	1,568.85	70.9195	1,568.85	62.2766	1,568.85	73.1374	1,568.85	70.9924	1,568.85	73.559
1,624.51	81.9742	1,624.51	81.9694	1,624.51	81.9556	1,624.51	81.916	1,624.51	81.8044	1,624.51	81.7135	1,624.51	81.4224	1,624.51	81.333	1,624.51	80.879	1,624.51	80.7934	1,624.51	80.2995	1,624.51	80.0223	1,624.51	79.5979	1,624.51	78.8673	1,624.51	78.565	1,624.51	77.2047	1,624.51	77.2016	1,624.51	75.0036	1,624.51	75.7924	1,624.51	72.4607	1,624.51	74.3227	1,624.51	70.3355	1,624.51	71.7893	1,624.51	69.7931	1,624.51	67.0649	1,624.51	70.6295	1,624.51	68.7443	1,624.51	71.4247	1,624.51	72.3192	1,624.51	71.1733	1,624.51	70.9629	1,624.51	70.5734	1,624.51	63.3518	1,624.51	72.1891	1,624.51	70.1405	1,624.51	73.234
1,681.64	81.1344	1,681.64	81.3419	1,681.64	81.5197	1,681.64	81.776	1,681.64	82.0962	1,681.64	81.8997	1,681.64	82.2322	1,681.64	81.5402	1,681.64	81.7159	1,681.64	80.7892	1,681.64	80.7593	1,681.64	79.8705	1,681.64	79.6631	1,681.64	78.7812	1,681.64	78.4837	1,681.64	77.0933	1,681.64	77.0725	1,681.64	74.4325	1,681.64	75.4667	1,681.64	71.5127	1,681.64	73.9041	1,681.64	70.961	1,681.64	72.0758	1,681.64	70.9467	1,681.64	69.6281	1,681.64	68.9173	1,681.64	70.2879	1,681.64	69.2102	1,681.64	73.1282	1,681.64	71.5441	1,681.64	72.5608	1,681.64	70.9994	1,681.64	67.0553	1,681.64	70.6984	1,681.64	70.3356	1,681.64	72.5768
1,740.97	81.5311	1,740.97	81.3703	1,740.97	81.8605	1,740.97	81.6384	1,740.97	82.0454	1,740.97	82.066	1,740.97	81.9376	1,740.97	82.1047	1,740.97	81.4717	1,740.97	81.3853	1,740.97	80.6777	1,740.97	79.9773	1,740.97	79.6248	1,740.97	78.3076	1,740.97	78.3855	1,740.97	76.6476	1,740.97	77.0415	1,740.97	74.8879	1,740.97	75.6908	1,740.97	73.2727	1,740.97	74.3516	1,740.97	72.5991	1,740.97	72.7409	1,740.97	71.5821	1,740.97	70.8996	1,740.97	67.3433	1,740.97	71.4432	1,740.97	66.4569	1,740.97	73.4258	1,740.97	71.8453	1,740.97	72.5952	1,740.97	72.3413	1,740.97	70.2613	1,740.97	70.9448	1,740.97	73.0475	1,740.97	73.1941
1,802.49	82.6806	1,802.49	82.2321	1,802.49	82.7446	1,802.49	81.9408	1,802.49	82.4568	1,802.49	82.1697	1,802.49	82.1297	1,802.49	82.3484	1,802.49	81.7945	1,802.49	81.7679	1,802.49	81.1733	1,802.49	80.39	1,802.49	80.0877	1,802.49	78.8788	1,802.49	78.6452	1,802.49	77.7744	1,802.49	77.1018	1,802.49	76.4688	1,802.49	75.6026	1,802.49	74.1231	1,802.49	73.9467	1,802.49	72.166	1,802.49	71.739	1,802.49	72.3875	1,802.49	70.0196	1,802.49	70.5052	1,802.49	71.8658	1,802.49	65.0959	1,802.49	73.4279	1,802.49	71.4815	1,802.49	70.9467	1,802.49	74.0027	1,802.49	68.0466	1,802.49	73.076	1,802.49	73.3671	1,802.49	73.85
1,866.21	82.8468	1,866.21	82.7451	1,866.21	82.9324	1,866.21	82.9207	1,866.21	82.8288	1,866.21	83.285	1,866.21	82.6142	1,866.21	83.3472	1,866.21	82.3401	1,866.21	82.7356	1,866.21	81.8262	1,866.21	81.5253	1,866.21	80.7572	1,866.21	80.0739	1,866.21	78.9288	1,866.21	78.5073	1,866.21	76.5404	1,866.21	76.5383	1,866.21	74.4263	1,866.21	74.3252	1,866.21	73.1259	1,866.21	73.9113	1,866.21	71.6683	1,866.21	74.6771	1,866.21	69.7185	1,866.21	73.0552	1,866.21	71.6007	1,866.21	66.2328	1,866.21	74.2314	1,866.21	70.658	1,866.21	72.5783	1,866.21	74.3695	1,866.21	64.9172	1,866.21	73.3919	1,866.21	70.3138	1,866.21	72.1833
1,932.13	82.3348	1,932.13	82.5793	1,932.13	82.2898	1,932.13	82.887	1,932.13	82.4416	1,932.13	83.0034	1,932.13	82.6291	1,932.13	82.5607	1,932.13	82.5797	1,932.13	81.3969	1,932.13	82.0562	1,932.13	79.8989	1,932.13	80.9462	1,932.13	78.8027	1,932.13	79.228	1,932.13	78.3594	1,932.13	76.9782	1,932.13	77.4581	1,932.13	74.525	1,932.13	74.5917	1,932.13	72.4353	1,932.13	69.2738	1,932.13	70.5602	1,932.13	70.1655	1,932.13	67.7337	1,932.13	72.1469	1,932.13	68.9548	1,932.13	69.5224	1,932.13	73.2818	1,932.13	69.6473	1,932.13	73.193	1,932.13	73.6334	1,932.13	69.6943	1,932.13	73.6011	1,932.13	72.2533	1,932.13	73.238
2,000.24	83.1022	2,000.24	83.1654	2,000.24	82.7645	2,000.24	83.1131	2,000.24	82.4378	2,000.24	83.1348	2,000.24	82.3944	2,000.24	82.845	2,000.24	82.4315	2,000.24	81.933	2,000.24	82.2014	2,000.24	80.8028	2,000.24	81.5337	2,000.24	79.9272	2,000.24	80.3417	2,000.24	79.3521	2,000.24	78.5448	2,000.24	78.2997	2,000.24	76.2098	2,000.24	75.5602	2,000.24	73.8492	2,000.24	71.4507	2,000.24	71.7981	2,000.24	70.7741	2,000.24	68.3354	2,000.24	70.5302	2,000.24	66.0756	2,000.24	66.5724	2,000.24	71.8901	2,000.24	70.6791	2,000.24	72.5979	2,000.24	73.6621	2,000.24	68.8328	2,000.24	72.6189	2,000.24	72.1941	2,000.24	73.1577
2,070.56	84.5277	2,070.56	84.5025	2,070.56	83.9956	2,070.56	83.6549	2,070.56	83.3482	2,070.56	82.6033	2,070.56	82.7107	2,070.56	82.3774	2,070.56	82.138	2,070.56	82.6717	2,070.56	81.687	2,070.56	82.0111	2,070.56	81.0975	2,070.56	79.6346	2,070.56	79.9327	2,070.56	76.3671	2,070.56	77.929	2,070.56	74.0576	2,070.56	75.2919	2,070.56	72.4969	2,070.56	72.9729	2,070.56	70.2379	2,070.56	71.1748	2,070.56	69.8197	2,070.56	68.1175	2,070.56	70.5213	2,070.56	66.8418	2,070.56	67.1577	2,070.56	71.7905	2,070.56	69.4501	2,070.56	72.4339	2,070.56	73.3252	2,070.56	68.8452	2,070.56	72.1845	2,070.56	70.9225	2,070.56	71.6563
2,143.8	84.6439	2,143.8	84.5305	2,143.8	84.4514	2,143.8	84.0326	2,143.8	84.0295	2,143.8	83.3872	2,143.8	83.2589	2,143.8	82.8488	2,143.8	82.2445	2,143.8	82.2811	2,143.8	81.4637	2,143.8	81.1926	2,143.8	81.077	2,143.8	79.5628	2,143.8	80.4331	2,143.8	77.7457	2,143.8	78.7372	2,143.8	76.1508	2,143.8	75.7072	2,143.8	74.3741	2,143.8	72.1482	2,143.8	71.0785	2,143.8	70.1997	2,143.8	68.1165	2,143.8	68.5235	2,143.8	70.0287	2,143.8	62.1134	2,143.8	69.4331	2,143.8	69.2896	2,143.8	68.8462	2,143.8	72.0706	2,143.8	71.9268	2,143.8	68.9074	2,143.8	71.2576	2,143.8	69.8128	2,143.8	70.7916
2,219.24	83.5797	2,219.24	83.8292	2,219.24	83.7459	2,219.24	84.2527	2,219.24	83.8375	2,219.24	84.1655	2,219.24	83.3565	2,219.24	83.2861	2,219.24	82.2657	2,219.24	81.873	2,219.24	80.8778	2,219.24	80.2262	2,219.24	79.6391	2,219.24	78.3055	2,219.24	78.7746	2,219.24	76.1271	2,219.24	77.7795	2,219.24	74.2812	2,219.24	76.0848	2,219.24	73.1807	2,219.24	73.9624	2,219.24	71.5879	2,219.24	72.7213	2,219.24	68.4789	2,219.24	72.2116	2,219.24	67.6078	2,219.24	68.0159	2,219.24	68.8538	2,219.24	65.7086	2,219.24	70.0081	2,219.24	71.0322	2,219.24	71.1582	2,219.24	68.3136	2,219.24	69.2846	2,219.24	67.5149	2,219.24	68.3822
2,297.61	84.8144	2,297.61	84.6081	2,297.61	84.3261	2,297.61	84.1844	2,297.61	83.5037	2,297.61	83.7867	2,297.61	82.9225	2,297.61	82.8044	2,297.61	82.3991	2,297.61	81.0566	2,297.61	81.3423	2,297.61	79.4049	2,297.61	79.6009	2,297.61	78.5739	2,297.61	77.7031	2,297.61	77.9165	2,297.61	76.0788	2,297.61	76.4289	2,297.61	74.4761	2,297.61	73.813	2,297.61	72.9169	2,297.61	70.9632	2,297.61	72.4267	2,297.61	69.0081	2,297.61	73.0347	2,297.61	67.353	2,297.61	71.0393	2,297.61	67.1763	2,297.61	66.3945	2,297.61	69.8808	2,297.61	69.1376	2,297.61	71.1131	2,297.61	66.9827	2,297.61	68.6075	2,297.61	63.1492	2,297.61	64.4642
2,378.17	86.183	2,378.17	85.8905	2,378.17	85.2655	2,378.17	84.4722	2,378.17	83.7761	2,378.17	82.753	2,378.17	82.7342	2,378.17	81.7173	2,378.17	82.2886	2,378.17	81.6606	2,378.17	81.5248	2,378.17	81.4389	2,378.17	79.9808	2,378.17	79.8953	2,378.17	78.0126	2,378.17	77.3975	2,378.17	76.489	2,378.17	74.7361	2,378.17	75.6425	2,378.17	72.2167	2,378.17	74.37	2,378.17	69.8538	2,378.17	72.3194	2,378.17	68.3113	2,378.17	72.3438	2,378.17	67.241	2,378.17	71.5866	2,378.17	66.448	2,378.17	67.9612	2,378.17	70.0337	2,378.17	69.3025	2,378.17	71.3987	2,378.17	68.0513	2,378.17	68.9887	2,378.17	64.2777	2,378.17	65.7739
2,462.4	86.0315	2,462.4	85.698	2,462.4	85.5736	2,462.4	84.3596	2,462.4	84.5706	2,462.4	82.7918	2,462.4	83.0239	2,462.4	82.2391	2,462.4	81.441	2,462.4	82.0928	2,462.4	80.5085	2,462.4	80.7821	2,462.4	79.6939	2,462.4	78.1343	2,462.4	78.1014	2,462.4	75.7821	2,462.4	75.9109	2,462.4	74.8083	2,462.4	74.394	2,462.4	73.6609	2,462.4	73.5971	2,462.4	70.5766	2,462.4	71.747	2,462.4	67.2879	2,462.4	70.0616	2,462.4	67.6152	2,462.4	70.3461	2,462.4	66.5334	2,462.4	68.3673	2,462.4	69.5254	2,462.4	69.5448	2,462.4	71.2051	2,462.4	69.696	2,462.4	67.2146	2,462.4	64.2842	2,462.4	62.9764
2,548.83	85.4337	2,548.83	85.1077	2,548.83	85.2015	2,548.83	84.421	2,548.83	84.4135	2,548.83	83.7299	2,548.83	83.1406	2,548.83	82.9534	2,548.83	81.5547	2,548.83	81.6904	2,548.83	79.9112	2,548.83	79.7002	2,548.83	78.4396	2,548.83	77.0745	2,548.83	77.0228	2,548.83	74.1499	2,548.83	75.3442	2,548.83	72.0951	2,548.83	73.3998	2,548.83	71.8578	2,548.83	71.9996	2,548.83	71.0702	2,548.83	71.538	2,548.83	68.2436	2,548.83	70.1821	2,548.83	67.1428	2,548.83	68.3702	2,548.83	67.0006	2,548.83	67.6581	2,548.83	68.293	2,548.83	68.7832	2,548.83	70.4639	2,548.83	69.8345	2,548.83	67.7668	2,548.83	67.3168	2,548.83	64.0525
2,638.92	85.3752	2,638.92	84.7838	2,638.92	85.0247	2,638.92	84.0141	2,638.92	83.794	2,638.92	83.4207	2,638.92	82.4646	2,638.92	82.346	2,638.92	81.3709	2,638.92	80.4505	2,638.92	80.0256	2,638.92	78.7054	2,638.92	78.2981	2,638.92	77.7244	2,638.92	76.7951	2,638.92	76.357	2,638.92	75.7772	2,638.92	74.1004	2,638.92	74.312	2,638.92	71.7633	2,638.92	71.2313	2,638.92	70.2576	2,638.92	68.4792	2,638.92	68.7994	2,638.92	68.9982	2,638.92	67.1374	2,638.92	67.2434	2,638.92	65.9829	2,638.92	65.6558	2,638.92	66.4589	2,638.92	68.1224	2,638.92	68.2929	2,638.92	66.8645	2,638.92	67.6569	2,638.92	65.5703	2,638.92	66.1144
2,731.93	85.2546	2,731.93	85.0971	2,731.93	84.8287	2,731.93	84.3447	2,731.93	83.8649	2,731.93	83.0834	2,731.93	82.5555	2,731.93	81.7659	2,731.93	81.1235	2,731.93	80.81	2,731.93	79.5667	2,731.93	79.7884	2,731.93	77.6127	2,731.93	77.9458	2,731.93	75.3226	2,731.93	75.5387	2,731.93	73.6012	2,731.93	73.2618	2,731.93	72.4886	2,731.93	70.8234	2,731.93	70.0028	2,731.93	67.7234	2,731.93	65.8098	2,731.93	65.5558	2,731.93	67.3824	2,731.93	65.9164	2,731.93	67.8896	2,731.93	65.8205	2,731.93	63.1667	2,731.93	66.0255	2,731.93	67.2396	2,731.93	66.5453	2,731.93	67.8529	2,731.93	64.4955	2,731.93	62.8753	2,731.93	62.5921
2,828.61	85.9835	2,828.61	85.624	2,828.61	85.5572	2,828.61	84.5735	2,828.61	84.4009	2,828.61	83.0575	2,828.61	82.7523	2,828.61	81.4371	2,828.61	81.1001	2,828.61	80.0327	2,828.61	79.6911	2,828.61	78.866	2,828.61	78.0843	2,828.61	77.3569	2,828.61	75.9064	2,828.61	74.6951	2,828.61	73.3793	2,828.61	70.9566	2,828.61	71.2148	2,828.61	67.7101	2,828.61	68.3208	2,828.61	66.0704	2,828.61	62.534	2,828.61	64.2961	2,828.61	62.0229	2,828.61	65.2184	2,828.61	67.1956	2,828.61	66.6821	2,828.61	64.984	2,828.61	65.9592	2,828.61	65.2715	2,828.61	64.544	2,828.61	66.9074	2,828.61	60.7321	2,828.61	61.0773	2,828.61	58.7875
2,928.22	86.1618	2,928.22	85.8893	2,928.22	85.9978	2,928.22	85.024	2,928.22	85.225	2,928.22	83.4128	2,928.22	83.5658	2,928.22	81.6454	2,928.22	81.2341	2,928.22	80.5234	2,928.22	79.1718	2,928.22	79.2801	2,928.22	77.6571	2,928.22	76.4644	2,928.22	75.589	2,928.22	72.6212	2,928.22	71.9019	2,928.22	70.9441	2,928.22	67.2858	2,928.22	70.4954	2,928.22	65.2644	2,928.22	69.2176	2,928.22	64.6283	2,928.22	66.4057	2,928.22	59.5098	2,928.22	64.3628	2,928.22	66.2042	2,928.22	66.2606	2,928.22	66.2263	2,928.22	66.7868	2,928.22	64.2204	2,928.22	64.051	2,928.22	66.8036	2,928.22	59.5769	2,928.22	64.1712	2,928.22	58.624
3,031.49	85.7395	3,031.49	85.6955	3,031.49	85.6594	3,031.49	84.9456	3,031.49	85.2949	3,031.49	83.3798	3,031.49	84.0395	3,031.49	81.8362	3,031.49	81.7953	3,031.49	80.4304	3,031.49	79.1176	3,031.49	78.1983	3,031.49	76.6487	3,031.49	75.7407	3,031.49	73.813	3,031.49	75.0397	3,031.49	69.6032	3,031.49	73.8077	3,031.49	66.397	3,031.49	71.1508	3,031.49	66.9038	3,031.49	67.8312	3,031.49	66.8988	3,031.49	64.559	3,031.49	61.7592	3,031.49	63.229	3,031.49	63.9171	3,031.49	64.5728	3,031.49	65.6513	3,031.49	66.2661	3,031.49	64.8166	3,031.49	64.3568	3,031.49	66.5823	3,031.49	58.948	3,031.49	64.9665	3,031.49	61.3844
3,138.43	86.411	3,138.43	85.9892	3,138.43	85.9568	3,138.43	84.6642	3,138.43	85.1452	3,138.43	83.1688	3,138.43	84.0073	3,138.43	81.651	3,138.43	82.095	3,138.43	79.5656	3,138.43	79.3219	3,138.43	77.841	3,138.43	76.0673	3,138.43	77.2232	3,138.43	72.6286	3,138.43	75.4045	3,138.43	69.7171	3,138.43	71.4953	3,138.43	67.8907	3,138.43	67.1304	3,138.43	66.2465	3,138.43	64.9755	3,138.43	65.6373	3,138.43	63.9349	3,138.43	61.9795	3,138.43	62.9825	3,138.43	60.5591	3,138.43	62.5655	3,138.43	63.6201	3,138.43	64.0276	3,138.43	64.5152	3,138.43	62.6397	3,138.43	66.8139	3,138.43	57.7097	3,138.43	64.5825	3,138.43	59.4265
3,249.02	86.346	3,249.02	85.9022	3,249.02	86.2057	3,249.02	84.8825	3,249.02	85.4684	3,249.02	83.2433	3,249.02	84.0238	3,249.02	81.1117	3,249.02	81.8876	3,249.02	79.4309	3,249.02	79.3797	3,249.02	78.3657	3,249.02	76.7725	3,249.02	75.7969	3,249.02	74.2629	3,249.02	70.4928	3,249.02	72.5232	3,249.02	67.3272	3,249.02	70.9624	3,249.02	67.5193	3,249.02	68.1264	3,249.02	66.0386	3,249.02	66.2556	3,249.02	62.6088	3,249.02	64.374	3,249.02	62.818	3,249.02	62.3608	3,249.02	63.9926	3,249.02	62.1316	3,249.02	64.8932	3,249.02	63.3766	3,249.02	62.8473	3,249.02	67.3343	3,249.02	54.9787	3,249.02	64.9975	3,249.02	59.2466
3,363.28	85.9802	3,363.28	85.723	3,363.28	85.8317	3,363.28	84.7891	3,363.28	85.3248	3,363.28	83.182	3,363.28	84.1177	3,363.28	81.2906	3,363.28	81.9682	3,363.28	79.2928	3,363.28	79.172	3,363.28	76.5947	3,363.28	76.4609	3,363.28	72.9915	3,363.28	74.7943	3,363.28	71.9739	3,363.28	74.5816	3,363.28	71.6245	3,363.28	74.1508	3,363.28	69.0052	3,363.28	71.6035	3,363.28	65.2773	3,363.28	67.3664	3,363.28	61.4623	3,363.28	63.0122	3,363.28	60.5502	3,363.28	62.9438	3,363.28	63.2061	3,363.28	63.9049	3,363.28	63.8078	3,363.28	60.3017	3,363.28	60.3178	3,363.28	67.2665	3,363.28	44.6787	3,363.28	66.2612	3,363.28	55.7204
3,481.93	86.0396	3,481.93	85.6037	3,481.93	85.7116	3,481.93	84.5708	3,481.93	84.8757	3,481.93	83.3049	3,481.93	83.6754	3,481.93	81.4808	3,481.93	81.9621	3,481.93	78.572	3,481.93	79.7225	3,481.93	75.3382	3,481.93	77.0055	3,481.93	73.8402	3,481.93	74.7855	3,481.93	72.7373	3,481.93	74.4145	3,481.93	69.8947	3,481.93	74.3874	3,481.93	65.9151	3,481.93	72.7691	3,481.93	63.4274	3,481.93	69.8562	3,481.93	61.5172	3,481.93	66.2279	3,481.93	59.678	3,481.93	62.4145	3,481.93	59.4678	3,481.93	64.9516	3,481.93	62.3244	3,481.93	62.5058	3,481.93	62.0145	3,481.93	65.9561	3,481.93	56.0771	3,481.93	66.7581	3,481.93	58.6099
3,604.98	86.4431	3,604.98	85.8133	3,604.98	86.0942	3,604.98	84.7016	3,604.98	84.8837	3,604.98	83.2493	3,604.98	83.3252	3,604.98	80.765	3,604.98	81.6628	3,604.98	77.314	3,604.98	79.7565	3,604.98	75.126	3,604.98	77.4162	3,604.98	73.9409	3,604.98	74.9988	3,604.98	71.1638	3,604.98	73.2556	3,604.98	67.5535	3,604.98	71.7662	3,604.98	65.669	3,604.98	69.5883	3,604.98	64.5371	3,604.98	66.726	3,604.98	62.2115	3,604.98	63.403	3,604.98	59.1727	3,604.98	61.5309	3,604.98	60.6859	3,604.98	63.5607	3,604.98	61.7804	3,604.98	62.7266	3,604.98	62.7912	3,604.98	64.9385	3,604.98	59.9535	3,604.98	65.4099	3,604.98	60.1846
3,732.42	86.0883	3,732.42	85.8828	3,732.42	85.9663	3,732.42	85.3006	3,732.42	85.0348	3,732.42	83.3986	3,732.42	83.2302	3,732.42	79.7996	3,732.42	81.1486	3,732.42	76.7939	3,732.42	79.2268	3,732.42	75.4779	3,732.42	77.0432	3,732.42	72.5127	3,732.42	74.6615	3,732.42	69.1409	3,732.42	71.9513	3,732.42	68.9694	3,732.42	67.8736	3,732.42	68.0977	3,732.42	62.7676	3,732.42	65.398	3,732.42	60.4275	3,732.42	61.4999	3,732.42	60.5502	3,732.42	60.0929	3,732.42	58.3352	3,732.42	59.7911	3,732.42	59.0179	3,732.42	62.6154	3,732.42	60.4305	3,732.42	62.9472	3,732.42	62.6736	3,732.42	57.6152	3,732.42	62.7193	3,732.42	58.9142
3,863.53	86.2314	3,863.53	86.0614	3,863.53	85.79	3,863.53	84.9755	3,863.53	84.6854	3,863.53	82.5554	3,863.53	83.0008	3,863.53	79.6201	3,863.53	81.0485	3,863.53	77.6685	3,863.53	78.8865	3,863.53	74.9406	3,863.53	76.4787	3,863.53	71.6508	3,863.53	74.174	3,863.53	71.8207	3,863.53	71.957	3,863.53	70.3855	3,863.53	68.8223	3,863.53	66.3723	3,863.53	63.0026	3,863.53	63.2396	3,863.53	54.7736	3,863.53	60.356	3,863.53	59.3634	3,863.53	56.6696	3,863.53	56.816	3,863.53	59.4928	3,863.53	55.1717	3,863.53	61.2328	3,863.53	59.8107	3,863.53	62.7665	3,863.53	60.6386	3,863.53	57.146	3,863.53	62.5549	3,863.53	57.6051
3,999.76	86.6781	3,999.76	86.4811	3,999.76	85.9138	3,999.76	85.0996	3,999.76	84.4255	3,999.76	82.6342	3,999.76	82.5102	3,999.76	79.8453	3,999.76	80.5789	3,999.76	77.1473	3,999.76	78.5981	3,999.76	74.4369	3,999.76	76.0213	3,999.76	72.8175	3,999.76	72.9779	3,999.76	70.5785	3,999.76	69.327	3,999.76	65.7618	3,999.76	65.4236	3,999.76	62.6269	3,999.76	63.4295	3,999.76	64.3112	3,999.76	60.8636	3,999.76	62.2874	3,999.76	55.5647	3,999.76	59.0393	3,999.76	63.2577	3,999.76	56.652	3,999.76	56.8836	3,999.76	58.1318	3,999.76	61.2527	3,999.76	61.281	3,999.76	59.4664	3,999.76	59.1268	3,999.76	59.1801	3,999.76	57.5965
4,141.11	86.8928	4,141.11	86.6521	4,141.11	86.0911	4,141.11	85.1458	4,141.11	84.445	4,141.11	82.4542	4,141.11	82.3171	4,141.11	79.4395	4,141.11	80.294	4,141.11	77.1457	4,141.11	78.3291	4,141.11	75.0922	4,141.11	76.0958	4,141.11	71.3531	4,141.11	73.0864	4,141.11	66.865	4,141.11	67.9999	4,141.11	67.3869	4,141.11	64.2164	4,141.11	67.0902	4,141.11	65.3061	4,141.11	66.1092	4,141.11	66.3317	4,141.11	60.3008	4,141.11	60.4054	4,141.11	55.2999	4,141.11	59.7457	4,141.11	58.2593	4,141.11	56.1848	4,141.11	55.5597	4,141.11	60.1748	4,141.11	60.5723	4,141.11	62.0347	4,141.11	58.1718	4,141.11	55.5808	4,141.11	58.1397
4,286.87	87.7784	4,286.87	87.1104	4,286.87	86.7293	4,286.87	84.937	4,286.87	84.4766	4,286.87	82.1825	4,286.87	82.214	4,286.87	79.9498	4,286.87	80.3628	4,286.87	77.0869	4,286.87	78.1418	4,286.87	71.8977	4,286.87	75.4927	4,286.87	70.2256	4,286.87	71.8539	4,286.87	71.6044	4,286.87	68.5703	4,286.87	68.6104	4,286.87	67.5356	4,286.87	62.4596	4,286.87	62.6428	4,286.87	61.8321	4,286.87	56.1977	4,286.87	62.5783	4,286.87	60.2166	4,286.87	54.8902	4,286.87	57.9361	4,286.87	58.302	4,286.87	54.6741	4,286.87	56.0562	4,286.87	58.8216	4,286.87	56.3995	4,286.87	61.3153	4,286.87	49.6447	4,286.87	59.2738	4,286.87	54.4349
4,438.48	88.1552	4,438.48	87.3459	4,438.48	87.2934	4,438.48	85.2735	4,438.48	84.9903	4,438.48	82.7379	4,438.48	81.953	4,438.48	79.5997	4,438.48	79.1207	4,438.48	75.414	4,438.48	77.0107	4,438.48	73.8022	4,438.48	74.8956	4,438.48	73.9561	4,438.48	72.7638	4,438.48	71.3635	4,438.48	72.2354	4,438.48	67.5312	4,438.48	69.4162	4,438.48	66.8269	4,438.48	62.6536	4,438.48	66.3985	4,438.48	40.7185	4,438.48	63.2111	4,438.48	57.3753	4,438.48	57.3299	4,438.48	61.0161	4,438.48	60.6132	4,438.48	51.5375	4,438.48	56.3402	4,438.48	60.4162	4,438.48	59.0213	4,438.48	61.7103	4,438.48	55.8974	4,438.48	58.6929	4,438.48	58.01
4,594.48	88.2573	4,594.48	87.2022	4,594.48	87.5738	4,594.48	85.1835	4,594.48	85.1434	4,594.48	82.746	4,594.48	81.7121	4,594.48	79.3401	4,594.48	78.3874	4,594.48	76.4459	4,594.48	76.0964	4,594.48	75.0099	4,594.48	75.4699	4,594.48	72.4166	4,594.48	75.5677	4,594.48	71.7473	4,594.48	74.6268	4,594.48	71.1554	4,594.48	71.8193	4,594.48	67.7418	4,594.48	67.7168	4,594.48	65.2748	4,594.48	62.7821	4,594.48	63.9306	4,594.48	51.5861	4,594.48	55.8855	4,594.48	62.2775	4,594.48	61.3064	4,594.48	60.3669	4,594.48	61.3803	4,594.48	59.498	4,594.48	60.7411	4,594.48	64.3776	4,594.48	57.9159	4,594.48	56.6341	4,594.48	57.7141
4,757.08	88.1711	4,757.08	87.2754	4,757.08	87.5944	4,757.08	85.3108	4,757.08	85.4692	4,757.08	82.2046	4,757.08	82.2554	4,757.08	78.7816	4,757.08	78.586	4,757.08	76.8631	4,757.08	76.3691	4,757.08	75.5248	4,757.08	76.1118	4,757.08	75.4298	4,757.08	75.8475	4,757.08	74.4932	4,757.08	75.2151	4,757.08	70.4478	4,757.08	73.0601	4,757.08	65.5406	4,757.08	68.662	4,757.08	64.6356	4,757.08	61.7688	4,757.08	63.8124	4,757.08	55.7515	4,757.08	52.9183	4,757.08	64.4051	4,757.08	60.466	4,757.08	61.1461	4,757.08	58.3522	4,757.08	60.1751	4,757.08	59.8699	4,757.08	64.424	4,757.08	56.6649	4,757.08	58.8355	4,757.08	50.665
4,924.8	88.0508	4,924.8	87.2216	4,924.8	87.5039	4,924.8	85.1782	4,924.8	85.6667	4,924.8	82.077	4,924.8	82.773	4,924.8	78.9396	4,924.8	79.8649	4,924.8	77.9073	4,924.8	78.3977	4,924.8	77.2229	4,924.8	77.1698	4,924.8	74.8361	4,924.8	75.9655	4,924.8	71.342	4,924.8	75.1591	4,924.8	69.3078	4,924.8	72.2157	4,924.8	67.4419	4,924.8	65.8889	4,924.8	66.0748	4,924.8	61.0108	4,924.8	65.1348	4,924.8	62.6793	4,924.8	58.4973	4,924.8	64.5996	4,924.8	58.1609	4,924.8	60.9866	4,924.8	59.1244	4,924.8	58.5977	4,924.8	58.6253	4,924.8	64.1353	4,924.8	59.8643	4,924.8	60.3773	4,924.8	59.0988
5,098.39	87.4937	5,098.39	86.6475	5,098.39	86.9948	5,098.39	84.4927	5,098.39	85.1494	5,098.39	81.2633	5,098.39	82.5182	5,098.39	79.2538	5,098.39	80.4399	5,098.39	78.3039	5,098.39	78.8417	5,098.39	75.7342	5,098.39	77.0384	5,098.39	74.0461	5,098.39	76.2898	5,098.39	73.7482	5,098.39	75.3187	5,098.39	71.2178	5,098.39	71.5316	5,098.39	67.419	5,098.39	68.1473	5,098.39	65.0919	5,098.39	67.674	5,098.39	63.7316	5,098.39	65.086	5,098.39	57.0189	5,098.39	60.3593	5,098.39	58.4857	5,098.39	59.5219	5,098.39	58.2805	5,098.39	59.9357	5,098.39	57.5424	5,098.39	63.101	5,098.39	54.8969	5,098.39	59.47	5,098.39	56.0482
5,277.83	86.9024	5,277.83	86.1745	5,277.83	86.4885	5,277.83	84.0889	5,277.83	85.0106	5,277.83	81.5249	5,277.83	82.8503	5,277.83	79.9772	5,277.83	81.0186	5,277.83	77.5294	5,277.83	78.8975	5,277.83	75.3806	5,277.83	76.7682	5,277.83	75.028	5,277.83	76.0809	5,277.83	72.1943	5,277.83	74.024	5,277.83	68.3376	5,277.83	69.9567	5,277.83	66.9381	5,277.83	69.1319	5,277.83	65.5849	5,277.83	69.6967	5,277.83	62.2266	5,277.83	66.7192	5,277.83	54.4737	5,277.83	56.345	5,277.83	55.2123	5,277.83	47.6655	5,277.83	53.642	5,277.83	59.0588	5,277.83	57.9688	5,277.83	59.6213	5,277.83	56.8869	5,277.83	56.0532	5,277.83	59.1783
5,463.87	86.1293	5,463.87	85.0752	5,463.87	85.7924	5,463.87	83.1992	5,463.87	84.1714	5,463.87	81.3248	5,463.87	82.5893	5,463.87	79.542	5,463.87	81.1369	5,463.87	77.4961	5,463.87	78.8558	5,463.87	75.3468	5,463.87	77.5169	5,463.87	73.7076	5,463.87	76.4683	5,463.87	73.4491	5,463.87	73.524	5,463.87	72.3004	5,463.87	70.7402	5,463.87	68.1255	5,463.87	69.1835	5,463.87	63.8481	5,463.87	68.8282	5,463.87	62.8167	5,463.87	67.4375	5,463.87	53.9843	5,463.87	57.4301	5,463.87	58.3565	5,463.87	53.3573	5,463.87	55.7685	5,463.87	49.4714	5,463.87	60.1497	5,463.87	62.5308	5,463.87	58.0957	5,463.87	59.8991	5,463.87	60.2057
5,656.49	84.9191	5,656.49	84.3489	5,656.49	84.6684	5,656.49	82.8971	5,656.49	83.7507	5,656.49	81.2878	5,656.49	82.6718	5,656.49	79.6723	5,656.49	81.1367	5,656.49	76.8209	5,656.49	79.2137	5,656.49	74.8405	5,656.49	77.6067	5,656.49	73.4687	5,656.49	75.3523	5,656.49	70.7057	5,656.49	72.4669	5,656.49	69.0062	5,656.49	70.3782	5,656.49	67.5023	5,656.49	66.0627	5,656.49	64.157	5,656.49	63.0891	5,656.49	63.3497	5,656.49	63.714	5,656.49	50.5717	5,656.49	53.3861	5,656.49	59.1298	5,656.49	53.8172	5,656.49	51.347	5,656.49	52.095	5,656.49	59.7098	5,656.49	62.8704	5,656.49	56.5463	5,656.49	61.2327	5,656.49	61.4165
5,856.45	84.349	5,856.45	83.8261	5,856.45	83.9075	5,856.45	82.674	5,856.45	82.9241	5,856.45	81.3787	5,856.45	82.0419	5,856.45	79.4089	5,856.45	80.7242	5,856.45	77.4197	5,856.45	78.7235	5,856.45	75.2696	5,856.45	76.3538	5,856.45	71.8092	5,856.45	73.3192	5,856.45	70.9847	5,856.45	70.6223	5,856.45	70.8575	5,856.45	69.7897	5,856.45	67.1487	5,856.45	67.9353	5,856.45	61.3822	5,856.45	64.0195	5,856.45	62.1255	5,856.45	63.8753	5,856.45	57.969	5,856.45	56.763	5,856.45	56.6747	5,856.45	48.3978	5,856.45	57.9738	5,856.45	53.9786	5,856.45	58.2829	5,856.45	62.0225	5,856.45	57.7992	5,856.45	53.7165	5,856.45	56.9708
6,062.99	84.3078	6,062.99	84.0818	6,062.99	83.6541	6,062.99	82.8932	6,062.99	82.8169	6,062.99	81.2079	6,062.99	82.0766	6,062.99	79.8374	6,062.99	80.5043	6,062.99	78.0122	6,062.99	78.3304	6,062.99	75.1417	6,062.99	75.0311	6,062.99	72.0798	6,062.99	69.712	6,062.99	68.8932	6,062.99	67.5816	6,062.99	66.8196	6,062.99	67.5685	6,062.99	66.3848	6,062.99	65.7652	6,062.99	63.827	6,062.99	64.0399	6,062.99	60.0428	6,062.99	63.4141	6,062.99	56.4833	6,062.99	58.8214	6,062.99	49.5919	6,062.99	50.8338	6,062.99	54.0634	6,062.99	52.0007	6,062.99	52.7408	6,062.99	59.8613	6,062.99	55.4275	6,062.99	57.917	6,062.99	55.9392
6,276.86	84.321	6,276.86	83.9936	6,276.86	83.4315	6,276.86	82.4086	6,276.86	82.3717	6,276.86	81.0338	6,276.86	81.6291	6,276.86	79.7077	6,276.86	80.1694	6,276.86	77.6186	6,276.86	77.7113	6,276.86	75.451	6,276.86	74.6642	6,276.86	72.5134	6,276.86	72.2214	6,276.86	70.4335	6,276.86	71.5118	6,276.86	68.2714	6,276.86	69.9439	6,276.86	65.1462	6,276.86	65.9675	6,276.86	62.3901	6,276.86	57.1666	6,276.86	58.985	6,276.86	59.4715	6,276.86	54.3228	6,276.86	55.2841	6,276.86	53.7354	6,276.86	57.1553	6,276.86	56.0438	6,276.86	40.188	6,276.86	57.2153	6,276.86	60.3002	6,276.86	56.7928	6,276.86	58.6365	6,276.86	59.4082
6,498.05	84.2749	6,498.05	83.7958	6,498.05	83.5161	6,498.05	82.3446	6,498.05	82.5747	6,498.05	80.8413	6,498.05	81.5252	6,498.05	78.8923	6,498.05	79.7693	6,498.05	76.9886	6,498.05	78.1035	6,498.05	75.0987	6,498.05	76.1062	6,498.05	72.2412	6,498.05	74.1571	6,498.05	70.1821	6,498.05	73.2022	6,498.05	68.2126	6,498.05	70.8387	6,498.05	65.1405	6,498.05	66.101	6,498.05	63.2773	6,498.05	59.5534	6,498.05	60.7888	6,498.05	56.0374	6,498.05	48.9109	6,498.05	46.8462	6,498.05	53.241	6,498.05	52.8091	6,498.05	51.6095	6,498.05	48.1284	6,498.05	57.2173	6,498.05	58.2787	6,498.05	53.2292	6,498.05	57.6197	6,498.05	58.2485
6,727.29	84.0454	6,727.29	83.54	6,727.29	83.443	6,727.29	82.3122	6,727.29	82.8111	6,727.29	80.9705	6,727.29	81.7745	6,727.29	78.8923	6,727.29	80.1485	6,727.29	76.9051	6,727.29	78.7425	6,727.29	74.7968	6,727.29	76.6008	6,727.29	72.7574	6,727.29	75.039	6,727.29	71.4131	6,727.29	73.3563	6,727.29	67.8276	6,727.29	69.5389	6,727.29	63.1555	6,727.29	65.7969	6,727.29	62.0671	6,727.29	60.17	6,727.29	60.8374	6,727.29	54.186	6,727.29	52.5275	6,727.29	52.9175	6,727.29	52.2772	6,727.29	48.5603	6,727.29	47.5219	6,727.29	53.507	6,727.29	55.9797	6,727.29	58.7421	6,727.29	54.934	6,727.29	56.8797	6,727.29	57.9319
6,964.6	83.7988	6,964.6	83.5495	6,964.6	83.4709	6,964.6	82.6671	6,964.6	82.9688	6,964.6	81.2805	6,964.6	81.9927	6,964.6	79.5124	6,964.6	80.7429	6,964.6	77.4999	6,964.6	78.9397	6,964.6	74.6091	6,964.6	76.7345	6,964.6	71.9329	6,964.6	74.8263	6,964.6	70.3658	6,964.6	70.9605	6,964.6	68.2251	6,964.6	65.9499	6,964.6	64.9617	6,964.6	64.1326	6,964.6	62.0929	6,964.6	61.0612	6,964.6	60.9763	6,964.6	54.037	6,964.6	41.9806	6,964.6	33.741	6,964.6	55.55	6,964.6	36.029	6,964.6	42.29	6,964.6	54.6021	6,964.6	54.6322	6,964.6	58.513	6,964.6	53.2188	6,964.6	56.3619	6,964.6	58.7641
7,209.96	83.8658	7,209.96	83.4542	7,209.96	83.7841	7,209.96	82.8025	7,209.96	83.3154	7,209.96	81.7026	7,209.96	82.0271	7,209.96	79.6742	7,209.96	80.1327	7,209.96	77.4032	7,209.96	77.8341	7,209.96	74.7096	7,209.96	75.5262	7,209.96	72.1188	7,209.96	72.0215	7,209.96	70.0022	7,209.96	64.8792	7,209.96	67.229	7,209.96	63.1734	7,209.96	63.2402	7,209.96	62.8447	7,209.96	58.4477	7,209.96	62.0422	7,209.96	59.8796	7,209.96	59.515	7,209.96	50.7898	7,209.96	48.9844	7,209.96	50.9601	7,209.96	52.0382	7,209.96	33.9659	7,209.96	53.6858	7,209.96	52.8632	7,209.96	56.026	7,209.96	48.6399	7,209.96	54.773	7,209.96	57.2152
7,464.11	83.0033	7,464.11	82.6148	7,464.11	83.4001	7,464.11	82.1813	7,464.11	83.1939	7,464.11	81.1051	7,464.11	81.9745	7,464.11	79.9459	7,464.11	80.0982	7,464.11	77.5392	7,464.11	77.8215	7,464.11	73.5312	7,464.11	74.7236	7,464.11	70.7436	7,464.11	68.7108	7,464.11	69.0185	7,464.11	65.492	7,464.11	67.912	7,464.11	65.6149	7,464.11	65.2092	7,464.11	57.5655	7,464.11	59.3644	7,464.11	57.8079	7,464.11	59.9349	7,464.11	61.4101	7,464.11	52.1057	7,464.11	53.729	7,464.11	52.8572	7,464.11	57.0642	7,464.11	41.9188	7,464.11	52.8006	7,464.11	54.5731	7,464.11	56.7666	7,464.11	43.9178	7,464.11	57.3304	7,464.11	59.3423
7,727.78	82.0424	7,727.78	81.7919	7,727.78	82.699	7,727.78	81.702	7,727.78	82.8339	7,727.78	80.9571	7,727.78	82.0593	7,727.78	79.487	7,727.78	80.5829	7,727.78	77.1938	7,727.78	77.9902	7,727.78	74.5485	7,727.78	73.318	7,727.78	70.6315	7,727.78	69.4262	7,727.78	67.4378	7,727.78	70.7306	7,727.78	65.5991	7,727.78	68.5817	7,727.78	63.4082	7,727.78	61.9693	7,727.78	59.1863	7,727.78	50.0131	7,727.78	57.8052	7,727.78	63.6616	7,727.78	56.0533	7,727.78	58.0966	7,727.78	52.4391	7,727.78	58.9929	7,727.78	50.0974	7,727.78	50.6378	7,727.78	56.2259	7,727.78	58.6273	7,727.78	48.238	7,727.78	56.4258	7,727.78	59.5725
8,000.24	81.3911	8,000.24	81.6181	8,000.24	81.7432	8,000.24	81.5386	8,000.24	81.8931	8,000.24	80.7927	8,000.24	81.1651	8,000.24	79.3941	8,000.24	79.692	8,000.24	76.8896	8,000.24	76.8394	8,000.24	74.1303	8,000.24	73.4932	8,000.24	70.9878	8,000.24	72.3968	8,000.24	68.9312	8,000.24	71.2446	8,000.24	66.1828	8,000.24	68.4192	8,000.24	62.389	8,000.24	63.1885	8,000.24	58.488	8,000.24	42.5626	8,000.24	57.394	8,000.24	61.8217	8,000.24	53.5983	8,000.24	55.4089	8,000.24	51.5146	8,000.24	58.0349	8,000.24	48.0111	8,000.24	50.0577	8,000.24	55.4396	8,000.24	57.1211	8,000.24	47.3626	8,000.24	54.7546	8,000.24	57.1396
8,282.23	82.4606	8,282.23	82.7157	8,282.23	81.8882	8,282.23	82.0177	8,282.23	81.4109	8,282.23	80.9383	8,282.23	80.913	8,282.23	79.3057	8,282.23	79.399	8,282.23	76.7809	8,282.23	76.3557	8,282.23	74.0255	8,282.23	74.0743	8,282.23	70.6921	8,282.23	71.8869	8,282.23	68.6104	8,282.23	68.5221	8,282.23	64.6687	8,282.23	65.3223	8,282.23	61.5141	8,282.23	62.6709	8,282.23	59.6656	8,282.23	50.9832	8,282.23	57.2575	8,282.23	57.2087	8,282.23	52.1462	8,282.23	51.3907	8,282.23	51.7433	8,282.23	55.391	8,282.23	47.4514	8,282.23	46.5168	8,282.23	55.3147	8,282.23	57.6831	8,282.23	43.8938	8,282.23	55.0281	8,282.23	56.6786
8,574.46	84.2018	8,574.46	83.8904	8,574.46	83.3518	8,574.46	82.5691	8,574.46	82.3305	8,574.46	80.9931	8,574.46	81.0662	8,574.46	78.3765	8,574.46	78.7225	8,574.46	75.4696	8,574.46	76.2642	8,574.46	72.8761	8,574.46	74.006	8,574.46	69.6022	8,574.46	70.3499	8,574.46	66.4502	8,574.46	66.2531	8,574.46	61.4239	8,574.46	63.3602	8,574.46	59.1154	8,574.46	58.228	8,574.46	57.6155	8,574.46	51.0315	8,574.46	54.6134	8,574.46	58.5784	8,574.46	48.1853	8,574.46	53.9813	8,574.46	44.956	8,574.46	47.3494	8,574.46	42.7227	8,574.46	46.2106	8,574.46	52.2681	8,574.46	52.133	8,574.46	42.4664	8,574.46	54.3482	8,574.46	52.5342
8,876.22	84.3945	8,876.22	83.8389	8,876.22	83.9503	8,876.22	82.8492	8,876.22	83.2223	8,876.22	81.3055	8,876.22	81.7087	8,876.22	78.4675	8,876.22	79.0247	8,876.22	75.7023	8,876.22	75.8526	8,876.22	72.9282	8,876.22	72.8448	8,876.22	69.3789	8,876.22	69.9574	8,876.22	66.5594	8,876.22	66.8713	8,876.22	62.8922	8,876.22	64.5338	8,876.22	59.9788	8,876.22	57.5784	8,876.22	57.1157	8,876.22	56.3337	8,876.22	55.9287	8,876.22	63.5125	8,876.22	43.9578	8,876.22	60.1909	8,876.22	51.6209	8,876.22	47.7588	8,876.22	37.4099	8,876.22	46.2946	8,876.22	55.2841	8,876.22	45.4858	8,876.22	41.2177	8,876.22	50.3489	8,876.22	58.0617
9,189.7	83.1382	9,189.7	82.8004	9,189.7	83.2639	9,189.7	82.5239	9,189.7	83.4125	9,189.7	80.8983	9,189.7	81.9717	9,189.7	78.1866	9,189.7	79.1447	9,189.7	75.9367	9,189.7	76.5417	9,189.7	73.032	9,189.7	73.5666	9,189.7	68.9281	9,189.7	68.4278	9,189.7	65.6339	9,189.7	64.8674	9,189.7	61.9539	9,189.7	62.63	9,189.7	59.6964	9,189.7	47.1652	9,189.7	55.3578	9,189.7	62.9688	9,189.7	56.823	9,189.7	66.0985	9,189.7	52.3176	9,189.7	61.7119	9,189.7	54.6763	9,189.7	53.994	9,189.7	44.3717	9,189.7	46.6383	9,189.7	58.3428	9,189.7	54.8232	9,189.7	35.7459	9,189.7	48.1804	9,189.7	59.1499
9,513.43	81.3206	9,513.43	81.5903	9,513.43	82.1909	9,513.43	81.9436	9,513.43	82.8623	9,513.43	80.4808	9,513.43	81.5282	9,513.43	78.6732	9,513.43	79.44	9,513.43	76.4739	9,513.43	76.5861	9,513.43	73.5735	9,513.43	72.3615	9,513.43	68.7465	9,513.43	68.0438	9,513.43	65.1453	9,513.43	65.906	9,513.43	60.8543	9,513.43	62.4053	9,513.43	59.565	9,513.43	61.1426	9,513.43	56.7138	9,513.43	63.378	9,513.43	56.1568	9,513.43	65.6146	9,513.43	54.745	9,513.43	60.9041	9,513.43	55.4863	9,513.43	59.3167	9,513.43	47.3182	9,513.43	55.638	9,513.43	58.6881	9,513.43	56.7908	9,513.43	42.7995	9,513.43	48.5939	9,513.43	60.5
9,848.88	80.589	9,848.88	81.6165	9,848.88	81.6771	9,848.88	82.2002	9,848.88	82.6392	9,848.88	80.6288	9,848.88	81.4451	9,848.88	78.8279	9,848.88	79.418	9,848.88	76.6198	9,848.88	76.3024	9,848.88	73.4871	9,848.88	73.3716	9,848.88	68.125	9,848.88	69.7703	9,848.88	65.4419	9,848.88	66.1305	9,848.88	59.1244	9,848.88	63.7921	9,848.88	58.2024	9,848.88	61.6623	9,848.88	57.7833	9,848.88	63.4776	9,848.88	52.9499	9,848.88	66.7707	9,848.88	54.9082	9,848.88	61.6678	9,848.88	56.2637	9,848.88	57.276	9,848.88	48.4692	9,848.88	54.9904	9,848.88	57.8641	9,848.88	57.7267	9,848.88	45.3189	9,848.88	48.8551	9,848.88	60.6366
10,196.8	81.9022	10,196.8	82.891	10,196.8	82.2263	10,196.8	82.702	10,196.8	82.5243	10,196.8	80.7812	10,196.8	81.0851	10,196.8	78.9559	10,196.8	79.1532	10,196.8	76.341	10,196.8	76.165	10,196.8	72.9385	10,196.8	73.2687	10,196.8	67.8115	10,196.8	68.2509	10,196.8	66.3877	10,196.8	65.5834	10,196.8	58.1882	10,196.8	62.6476	10,196.8	56.754	10,196.8	60.4689	10,196.8	58.3896	10,196.8	63.8654	10,196.8	50.4606	10,196.8	67.2876	10,196.8	54.4014	10,196.8	63.6793	10,196.8	55.4522	10,196.8	55.0607	10,196.8	46.7076	10,196.8	56.5934	10,196.8	57.9227	10,196.8	56.6525	10,196.8	50.5945	10,196.8	51.8853	10,196.8	61.4495
10,556.4	82.5758	10,556.4	83.257	10,556.4	82.6928	10,556.4	82.5515	10,556.4	82.6953	10,556.4	80.3714	10,556.4	80.9804	10,556.4	78.5034	10,556.4	78.9807	10,556.4	75.6368	10,556.4	75.7153	10,556.4	72.6706	10,556.4	72.8627	10,556.4	68.1257	10,556.4	67.8177	10,556.4	65.9089	10,556.4	64.4684	10,556.4	56.1513	10,556.4	61.9244	10,556.4	54.4324	10,556.4	61.4668	10,556.4	58.567	10,556.4	64.2132	10,556.4	47.5509	10,556.4	67.1567	10,556.4	53.4043	10,556.4	63.4272	10,556.4	55.0265	10,556.4	55.9132	10,556.4	46.1587	10,556.4	57.7837	10,556.4	57.9068	10,556.4	54.0283	10,556.4	52.4333	10,556.4	44.612	10,556.4	62.5993
10,928.5	82.8326	10,928.5	82.6812	10,928.5	83.0551	10,928.5	81.6223	10,928.5	82.7621	10,928.5	79.8901	10,928.5	81.0614	10,928.5	77.7973	10,928.5	79.0979	10,928.5	75.0669	10,928.5	75.3955	10,928.5	71.8677	10,928.5	71.5881	10,928.5	67.7877	10,928.5	65.0492	10,928.5	66.1892	10,928.5	67.22	10,928.5	57.5178	10,928.5	64.5928	10,928.5	54.5699	10,928.5	60.9983	10,928.5	57.9288	10,928.5	63.4795	10,928.5	42.293	10,928.5	67.7592	10,928.5	52.4888	10,928.5	65.1173	10,928.5	56.7499	10,928.5	49.2968	10,928.5	49.4237	10,928.5	54.5884	10,928.5	59.2391	10,928.5	57.8444	10,928.5	54.0226	10,928.5	37.4281	10,928.5	63.2551
11,313.7	82.4508	11,313.7	82.1262	11,313.7	83.0476	11,313.7	81.6554	11,313.7	83.0901	11,313.7	79.7732	11,313.7	81.2184	11,313.7	77.5435	11,313.7	78.6379	11,313.7	74.7857	11,313.7	74.0705	11,313.7	71.3493	11,313.7	71.0499	11,313.7	68.0387	11,313.7	68.3865	11,313.7	65.8936	11,313.7	66.8904	11,313.7	58.7852	11,313.7	61.9489	11,313.7	54.7614	11,313.7	61.6657	11,313.7	57.6057	11,313.7	66.6791	11,313.7	39.7704	11,313.7	69.279	11,313.7	51.6251	11,313.7	64.7626	11,313.7	57.0083	11,313.7	55.148	11,313.7	49.2397	11,313.7	53.2079	11,313.7	59.3813	11,313.7	59.7228	11,313.7	55.7779	11,313.7	42.7611	11,313.7	64.0636
11,712.9	81.9616	11,712.9	82.2088	11,712.9	82.8429	11,712.9	82.1931	11,712.9	83.2212	11,712.9	79.7444	11,712.9	81.2444	11,712.9	77.4415	11,712.9	78.5215	11,712.9	74.2787	11,712.9	73.57	11,712.9	71.5439	11,712.9	72.0977	11,712.9	67.1327	11,712.9	67.5967	11,712.9	65.9324	11,712.9	65.4401	11,712.9	59.3074	11,712.9	61.3238	11,712.9	54.3491	11,712.9	62.8977	11,712.9	58.0746	11,712.9	67.4037	11,712.9	39.7244	11,712.9	69.5592	11,712.9	52.3691	11,712.9	64.467	11,712.9	58.9801	11,712.9	58.5573	11,712.9	50.7099	11,712.9	55.0017	11,712.9	61.438	11,712.9	62.3388	11,712.9	56.0548	11,712.9	52.6141	11,712.9	65.1059
12,126	82.0387	12,126	82.799	12,126	82.7452	12,126	82.0999	12,126	83.0945	12,126	79.3427	12,126	80.8719	12,126	77.2508	12,126	78.3831	12,126	73.9849	12,126	74.0372	12,126	71.4359	12,126	73.4789	12,126	67.2326	12,126	66.9682	12,126	66.5587	12,126	67.6027	12,126	61.6701	12,126	63.4507	12,126	54.1309	12,126	62.1042	12,126	58.3294	12,126	66.1465	12,126	47.3942	12,126	69.6657	12,126	52.9489	12,126	65.9434	12,126	61.6621	12,126	61.08	12,126	52.0053	12,126	60.4824	12,126	63.5323	12,126	63.1735	12,126	58.0335	12,126	54.2074	12,126	66.5967
12,553.7	83.1732	12,553.7	83.2828	12,553.7	83.2793	12,553.7	81.7805	12,553.7	82.8739	12,553.7	79.3033	12,553.7	80.4794	12,553.7	76.8169	12,553.7	78.0794	12,553.7	74.2379	12,553.7	73.0767	12,553.7	71.1167	12,553.7	72.9677	12,553.7	68.3185	12,553.7	66.2036	12,553.7	66.6554	12,553.7	67.8017	12,553.7	63.423	12,553.7	61.7656	12,553.7	54.4336	12,553.7	63.5809	12,553.7	57.2787	12,553.7	67.1077	12,553.7	51.6307	12,553.7	70.7794	12,553.7	52.2821	12,553.7	67.5284	12,553.7	62.5526	12,553.7	60.4897	12,553.7	53.1161	12,553.7	60.4021	12,553.7	63.5826	12,553.7	62.817	12,553.7	60.1769	12,553.7	51.4792	12,553.7	67.6325
12,996.1	83.8122	12,996.1	83.1958	12,996.1	83.6636	12,996.1	81.7823	12,996.1	82.7781	12,996.1	79.4741	12,996.1	80.3414	12,996.1	76.2594	12,996.1	77.4113	12,996.1	74.0017	12,996.1	72.7202	12,996.1	70.3083	12,996.1	72.6625	12,996.1	67.9777	12,996.1	64.4121	12,996.1	65.595	12,996.1	68.0797	12,996.1	64.0365	12,996.1	63.9208	12,996.1	53.9914	12,996.1	65.6297	12,996.1	55.4759	12,996.1	67.1342	12,996.1	53.0676	12,996.1	70.3757	12,996.1	52.7963	12,996.1	67.8894	12,996.1	62.3644	12,996.1	56.6812	12,996.1	54.6188	12,996.1	58.8339	12,996.1	63.0239	12,996.1	62.7342	12,996.1	62.4714	12,996.1	51.4684	12,996.1	68.158
13,454.6	84.2064	13,454.6	83.3756	13,454.6	83.7754	13,454.6	82.1039	13,454.6	82.734	13,454.6	79.3426	13,454.6	79.8516	13,454.6	75.7617	13,454.6	76.3471	13,454.6	73.41	13,454.6	72.2453	13,454.6	70.0203	13,454.6	72.1236	13,454.6	67.1216	13,454.6	65.3679	13,454.6	65.425	13,454.6	67.6828	13,454.6	64.5404	13,454.6	61.7982	13,454.6	55.8986	13,454.6	64.7807	13,454.6	55.7186	13,454.6	67.3771	13,454.6	53.3529	13,454.6	70.8682	13,454.6	53.6577	13,454.6	67.6347	13,454.6	62.2783	13,454.6	58.7953	13,454.6	56.4174	13,454.6	58.9909	13,454.6	63.0738	13,454.6	63.6647	13,454.6	64.1763	13,454.6	52.0615	13,454.6	69.5099
13,928.5	83.885	13,928.5	82.9064	13,928.5	83.3677	13,928.5	81.9757	13,928.5	82.5484	13,928.5	78.7937	13,928.5	79.7599	13,928.5	75.2368	13,928.5	76.54	13,928.5	73.1542	13,928.5	72.4229	13,928.5	69.7357	13,928.5	72.1467	13,928.5	66.9908	13,928.5	63.0223	13,928.5	65.4556	13,928.5	66.4412	13,928.5	65.5383	13,928.5	62.5475	13,928.5	57.0525	13,928.5	65.982	13,928.5	56.3442	13,928.5	68.2806	13,928.5	55.0071	13,928.5	71.4709	13,928.5	53.7963	13,928.5	67.9444	13,928.5	63.5748	13,928.5	60.9011	13,928.5	56.6745	13,928.5	60.2567	13,928.5	64.5595	13,928.5	65.6515	13,928.5	64.8946	13,928.5	57.2365	13,928.5	70.3355
14,419.9	83.4223	14,419.9	82.8953	14,419.9	82.6536	14,419.9	81.9421	14,419.9	82.0124	14,419.9	78.6501	14,419.9	79.115	14,419.9	74.569	14,419.9	76.3171	14,419.9	73.5019	14,419.9	71.2444	14,419.9	69.0345	14,419.9	71.9537	14,419.9	67.6816	14,419.9	62.2096	14,419.9	64.8407	14,419.9	67.7956	14,419.9	66.5687	14,419.9	63.6117	14,419.9	57.3454	14,419.9	65.4115	14,419.9	56.7281	14,419.9	66.2021	14,419.9	57.4567	14,419.9	71.077	14,419.9	54.4351	14,419.9	68.516	14,419.9	64.9158	14,419.9	62.4027	14,419.9	59.5916	14,419.9	62.3348	14,419.9	66.0811	14,419.9	66.5322	14,419.9	65.8861	14,419.9	58.7452	14,419.9	70.7557
14,928.2	83.8424	14,928.2	82.9818	14,928.2	82.9344	14,928.2	81.8712	14,928.2	82.0904	14,928.2	78.2385	14,928.2	78.7768	14,928.2	73.9399	14,928.2	75.5488	14,928.2	73.151	14,928.2	69.8441	14,928.2	67.9021	14,928.2	71.6387	14,928.2	67.1279	14,928.2	58.21	14,928.2	64.2553	14,928.2	67.5686	14,928.2	66.6394	14,928.2	63.0843	14,928.2	59.4648	14,928.2	65.7971	14,928.2	56.4491	14,928.2	65.6823	14,928.2	58.492	14,928.2	70.3635	14,928.2	56.6565	14,928.2	68.1058	14,928.2	65.1915	14,928.2	61.2437	14,928.2	60.0246	14,928.2	62.362	14,928.2	65.7082	14,928.2	64.8552	14,928.2	66.2941	14,928.2	51.851	14,928.2	71.0634
15,454.8	84.483	15,454.8	83.0288	15,454.8	83.6101	15,454.8	81.6784	15,454.8	82.3409	15,454.8	77.2674	15,454.8	78.4121	15,454.8	73.5607	15,454.8	74.8208	15,454.8	72.2136	15,454.8	69.7492	15,454.8	67.6894	15,454.8	71.26	15,454.8	65.6641	15,454.8	59.4689	15,454.8	64.0118	15,454.8	66.3851	15,454.8	66.4363	15,454.8	61.5422	15,454.8	60.3058	15,454.8	63.4351	15,454.8	57.5301	15,454.8	63.8417	15,454.8	58.0988	15,454.8	69.6642	15,454.8	56.0785	15,454.8	67.3981	15,454.8	64.6916	15,454.8	61.8076	15,454.8	59.2609	15,454.8	61.335	15,454.8	65.6236	15,454.8	65.3263	15,454.8	66.8313	15,454.8	51.0418	15,454.8	71.8454
15,999.8	84.9789	15,999.8	83.0904	15,999.8	84.1446	15,999.8	81.6756	15,999.8	82.4342	15,999.8	76.8501	15,999.8	78.0708	15,999.8	73.361	15,999.8	75.043	15,999.8	71.3621	15,999.8	69.5515	15,999.8	67.7161	15,999.8	71.8105	15,999.8	65.2235	15,999.8	56.6791	15,999.8	63.4517	15,999.8	65.6032	15,999.8	66.346	15,999.8	61.5778	15,999.8	60.212	15,999.8	62.6132	15,999.8	58.3978	15,999.8	62.9086	15,999.8	58.8912	15,999.8	69.701	15,999.8	55.3683	15,999.8	67.4162	15,999.8	65.385	15,999.8	62.9485	15,999.8	59.8072	15,999.8	60.9687	15,999.8	66.8655	15,999.8	66.8257	15,999.8	67.2284	15,999.8	56.6946	15,999.8	72.7037
16,564.5	85.5178	16,564.5	83.475	16,564.5	84.4492	16,564.5	81.4902	16,564.5	81.919	16,564.5	76.3116	16,564.5	77.3026	16,564.5	72.6005	16,564.5	75.2854	16,564.5	71.3591	16,564.5	69.0354	16,564.5	67.8502	16,564.5	71.1213	16,564.5	65.1584	16,564.5	55.6869	16,564.5	61.8377	16,564.5	65.3709	16,564.5	65.9437	16,564.5	60.7327	16,564.5	59.575	16,564.5	61.3211	16,564.5	59.5315	16,564.5	60.7477	16,564.5	59.8634	16,564.5	69.2499	16,564.5	55.1056	16,564.5	67.3515	16,564.5	66.0422	16,564.5	63.8647	16,564.5	60.848	16,564.5	61.6338	16,564.5	67.5771	16,564.5	67.9658	16,564.5	67.8611	16,564.5	57.4941	16,564.5	73.0713
17,148.2	85.8075	17,148.2	83.5112	17,148.2	84.1538	17,148.2	80.9415	17,148.2	80.9305	17,148.2	76.0325	17,148.2	76.8485	17,148.2	72.1944	17,148.2	75.0548	17,148.2	71.4444	17,148.2	67.1704	17,148.2	67.7876	17,148.2	71.5537	17,148.2	63.9178	17,148.2	59.9429	17,148.2	59.0854	17,148.2	63.7025	17,148.2	65.3386	17,148.2	59.8456	17,148.2	60.4374	17,148.2	60.3149	17,148.2	60.2489	17,148.2	60.1695	17,148.2	60.385	17,148.2	68.5307	17,148.2	55.3207	17,148.2	66.671	17,148.2	66.0336	17,148.2	64.0421	17,148.2	61.4147	17,148.2	61.7531	17,148.2	67.6035	17,148.2	67.6738	17,148.2	68.5361	17,148.2	53.087	17,148.2	73.4944
17,753.2	86.1453	17,753.2	83.2937	17,753.2	84.2477	17,753.2	80.2502	17,753.2	80.6417	17,753.2	75.7792	17,753.2	76.6088	17,753.2	71.6693	17,753.2	74.4346	17,753.2	70.635	17,753.2	66.1383	17,753.2	67.7169	17,753.2	71.6168	17,753.2	62.3031	17,753.2	61.752	17,753.2	57.0722	17,753.2	63.7363	17,753.2	64.4007	17,753.2	58.5763	17,753.2	59.9761	17,753.2	59.2046	17,753.2	60.287	17,753.2	61.5836	17,753.2	60.3701	17,753.2	68.0723	17,753.2	54.338	17,753.2	65.6987	17,753.2	65.7318	17,753.2	63.8305	17,753.2	61.5968	17,753.2	60.7266	17,753.2	67.5472	17,753.2	67.3068	17,753.2	69.0373	17,753.2	55.7346	17,753.2	74.1262
18,379.4	85.8612	18,379.4	82.4396	18,379.4	83.8973	18,379.4	79.6183	18,379.4	79.9325	18,379.4	75.5488	18,379.4	76.0997	18,379.4	70.6452	18,379.4	74.68	18,379.4	69.9487	18,379.4	65.8011	18,379.4	67.8651	18,379.4	70.9346	18,379.4	61.9885	18,379.4	60.7216	18,379.4	54.6281	18,379.4	63.6979	18,379.4	63.4386	18,379.4	57.6302	18,379.4	59.2428	18,379.4	57.5623	18,379.4	60.863	18,379.4	63.5669	18,379.4	60.6882	18,379.4	67.5975	18,379.4	53.4162	18,379.4	65.3929	18,379.4	66.0078	18,379.4	64.2153	18,379.4	62.0542	18,379.4	60.6727	18,379.4	68.0475	18,379.4	68.2049	18,379.4	69.295	18,379.4	59.0917	18,379.4	74.2695
19,027.6	84.5998	19,027.6	81.5446	19,027.6	82.4805	19,027.6	78.6387	19,027.6	78.4836	19,027.6	74.6131	19,027.6	75.4241	19,027.6	68.5471	19,027.6	74.1927	19,027.6	69.8065	19,027.6	64.0887	19,027.6	67.6143	19,027.6	70.5374	19,027.6	60.7069	19,027.6	61.9866	19,027.6	51.2745	19,027.6	61.8293	19,027.6	61.3956	19,027.6	55.1574	19,027.6	58.9995	19,027.6	56.3222	19,027.6	60.1872	19,027.6	63.4836	19,027.6	60.0007	19,027.6	67.0876	19,027.6	52.2737	19,027.6	64.1648	19,027.6	64.9209	19,027.6	63.6755	19,027.6	62.0535	19,027.6	60.7892	19,027.6	67.0429	19,027.6	67.3442	19,027.6	68.8742	19,027.6	55.7332	19,027.6	73.3114
19,698.5	84.7853	19,698.5	81.5857	19,698.5	82.2413	19,698.5	77.189	19,698.5	77.974	19,698.5	73.875	19,698.5	75.1064	19,698.5	67.0268	19,698.5	72.8437	19,698.5	68.9006	19,698.5	63.507	19,698.5	66.4266	19,698.5	68.8383	19,698.5	59.2681	19,698.5	61.7333	19,698.5	51.0099	19,698.5	57.7239	19,698.5	59.1792	19,698.5	52.6468	19,698.5	57.5662	19,698.5	44.5563	19,698.5	58.7123	19,698.5	64.7859	19,698.5	58.5385	19,698.5	66.2965	19,698.5	50.9966	19,698.5	62.1604	19,698.5	63.3827	19,698.5	62.3433	19,698.5	60.8269	19,698.5	59.5328	19,698.5	65.3917	19,698.5	64.92	19,698.5	68.2553	19,698.5	50.3063	19,698.5	72.6141
19,999.5	84.7996	19,999.5	81.1216	19,999.5	82.2037	19,999.5	76.4928	19,999.5	77.7582	19,999.5	73.6119	19,999.5	74.6657	19,999.5	66.5731	19,999.5	72.0092	19,999.5	68.199	19,999.5	63.0824	19,999.5	66.4947	19,999.5	68.4597	19,999.5	58.0674	19,999.5	62.7138	19,999.5	51.367	19,999.5	55.1971	19,999.5	58.2938	19,999.5	52.1932	19,999.5	55.7828	19,999.5	42.2998	19,999.5	57.991	19,999.5	65.3654	19,999.5	58.0993	19,999.5	66.0002	19,999.5	48.7218	19,999.5	61.7143	19,999.5	62.5906	19,999.5	61.082	19,999.5	60.4329	19,999.5	57.4767	19,999.5	64.8681	19,999.5	64.4018	19,999.5	68.0954	19,999.5	55.4175	19,999.5	72.7078
