"SPL Horizontal"																																																																							
"On-Axis"		"10°"		"-10°"		"20°"		"-20°"		"30°"		"-30°"		"40°"		"-40°"		"50°"		"-50°"		"60°"		"-60°"		"70°"		"-70°"		"80°"		"-80°"		"90°"		"-90°"		"100°"		"-100°"		"110°"		"-110°"		"120°"		"-120°"		"130°"		"-130°"		"140°"		"-140°"		"150°"		"-150°"		"160°"		"-160°"		"170°"		"-170°"		"180°"	
"Frequency [Hz]"	"Sound Pessure Level [dB]  / [2.83V 1m] "	"Frequency [Hz]"	"Sound Pessure Level [dB]  / [2.83V 1m] "	"Frequency [Hz]"	"Sound Pessure Level [dB]  / [2.83V 1m] "	"Frequency [Hz]"	"Sound Pessure Level [dB]  / [2.83V 1m] "	"Frequency [Hz]"	"Sound Pessure Level [dB]  / [2.83V 1m] "	"Frequency [Hz]"	"Sound Pessure Level [dB]  / [2.83V 1m] "	"Frequency [Hz]"	"Sound Pessure Level [dB]  / [2.83V 1m] "	"Frequency [Hz]"	"Sound Pessure Level [dB]  / [2.83V 1m] "	"Frequency [Hz]"	"Sound Pessure Level [dB]  / [2.83V 1m] "	"Frequency [Hz]"	"Sound Pessure Level [dB]  / [2.83V 1m] "	"Frequency [Hz]"	"Sound Pessure Level [dB]  / [2.83V 1m] "	"Frequency [Hz]"	"Sound Pessure Level [dB]  / [2.83V 1m] "	"Frequency [Hz]"	"Sound Pessure Level [dB]  / [2.83V 1m] "	"Frequency [Hz]"	"Sound Pessure Level [dB]  / [2.83V 1m] "	"Frequency [Hz]"	"Sound Pessure Level [dB]  / [2.83V 1m] "	"Frequency [Hz]"	"Sound Pessure Level [dB]  / [2.83V 1m] "	"Frequency [Hz]"	"Sound Pessure Level [dB]  / [2.83V 1m] "	"Frequency [Hz]"	"Sound Pessure Level [dB]  / [2.83V 1m] "	"Frequency [Hz]"	"Sound Pessure Level [dB]  / [2.83V 1m] "	"Frequency [Hz]"	"Sound Pessure Level [dB]  / [2.83V 1m] "	"Frequency [Hz]"	"Sound Pessure Level [dB]  / [2.83V 1m] "	"Frequency [Hz]"	"Sound Pessure Level [dB]  / [2.83V 1m] "	"Frequency [Hz]"	"Sound Pessure Level [dB]  / [2.83V 1m] "	"Frequency [Hz]"	"Sound Pessure Level [dB]  / [2.83V 1m] "	"Frequency [Hz]"	"Sound Pessure Level [dB]  / [2.83V 1m] "	"Frequency [Hz]"	"Sound Pessure Level [dB]  / [2.83V 1m] "	"Frequency [Hz]"	"Sound Pessure Level [dB]  / [2.83V 1m] "	"Frequency [Hz]"	"Sound Pessure Level [dB]  / [2.83V 1m] "	"Frequency [Hz]"	"Sound Pessure Level [dB]  / [2.83V 1m] "	"Frequency [Hz]"	"Sound Pessure Level [dB]  / [2.83V 1m] "	"Frequency [Hz]"	"Sound Pessure Level [dB]  / [2.83V 1m] "	"Frequency [Hz]"	"Sound Pessure Level [dB]  / [2.83V 1m] "	"Frequency [Hz]"	"Sound Pessure Level [dB]  / [2.83V 1m] "	"Frequency [Hz]"	"Sound Pessure Level [dB]  / [2.83V 1m] "	"Frequency [Hz]"	"Sound Pessure Level [dB]  / [2.83V 1m] "	"Frequency [Hz]"	"Sound Pessure Level [dB]  / [2.83V 1m] "
20.5078	37.2383	20.5078	37.0975	20.5078	37.5906	20.5078	37.2041	20.5078	38.2359	20.5078	37.7126	20.5078	39.2708	20.5078	38.7581	20.5078	40.6858	20.5078	40.2892	20.5078	42.3505	20.5078	42.094	20.5078	44.1034	20.5078	43.9607	20.5078	45.823	20.5078	45.7574	20.5078	47.4392	20.5078	47.421	20.5078	48.9178	20.5078	48.9263	20.5078	50.2434	20.5078	50.2656	20.5078	51.4099	20.5078	51.4375	20.5078	52.4145	20.5078	52.4425	20.5078	53.2555	20.5078	53.281	20.5078	53.9315	20.5078	53.9527	20.5078	54.4411	20.5078	54.4568	20.5078	54.7828	20.5078	54.7924	20.5078	54.9556	20.5078	54.9589
21.2402	44.333	21.2402	44.2741	21.2402	44.2716	21.2402	44.0974	21.2402	44.1206	21.2402	43.8422	21.2402	43.9527	21.2402	43.5994	21.2402	43.8936	21.2402	43.5242	21.2402	44.1063	21.2402	43.8043	21.2402	44.7157	21.2402	44.5492	21.2402	45.7167	21.2402	45.6972	21.2402	46.9778	21.2402	47.0688	21.2402	48.3353	21.2402	48.489	21.2402	49.6642	21.2402	49.8427	21.2402	50.8896	21.2402	51.0683	21.2402	51.9715	21.2402	52.1357	21.2402	52.89	21.2402	53.0312	21.2402	53.6349	21.2402	53.7482	21.2402	54.201	21.2402	54.2835	21.2402	54.5854	21.2402	54.6355	21.2402	54.7864	21.2402	54.8032
21.9727	46.8979	21.9727	46.8627	21.9727	46.8351	21.9727	46.7297	21.9727	46.6967	21.9727	46.5232	21.9727	46.5334	21.9727	46.2996	21.9727	46.4314	21.9727	46.1568	21.9727	46.508	21.9727	46.2281	21.9727	46.8747	21.9727	46.6339	21.9727	47.5744	21.9727	47.4059	21.9727	48.5498	21.9727	48.4605	21.9727	49.6812	21.9727	49.6574	21.9727	50.8487	21.9727	50.8694	21.9727	51.9638	21.9727	52.0101	21.9727	52.9712	21.9727	53.0286	21.9727	53.839	21.9727	53.897	21.9727	54.5488	21.9727	54.6003	21.9727	55.0903	21.9727	55.1302	21.9727	55.4572	21.9727	55.4824	21.9727	55.6459	21.9727	55.6545
22.7051	45.828	22.7051	45.7971	22.7051	45.6877	22.7051	45.5966	22.7051	45.3975	22.7051	45.2523	22.7051	45.0154	22.7051	44.8324	22.7051	44.6651	22.7051	44.4801	22.7051	44.5556	22.7051	44.426	22.7051	44.9186	22.7051	44.8964	22.7051	45.8349	22.7051	45.9243	22.7051	47.1532	22.7051	47.3145	22.7051	48.6326	22.7051	48.8214	22.7051	50.0901	22.7051	50.2772	22.7051	51.4258	22.7051	51.5964	22.7051	52.5946	22.7051	52.7418	22.7051	53.5779	22.7051	53.6991	22.7051	54.3691	22.7051	54.4634	22.7051	54.9662	22.7051	55.0335	22.7051	55.3688	22.7051	55.409	22.7051	55.5767	22.7051	55.5901
23.4375	46.4724	23.4375	46.4362	23.4375	46.3267	23.4375	46.2162	23.4375	46.0209	23.4375	45.8307	23.4375	45.6112	23.4375	45.3366	23.4375	45.22	23.4375	44.8678	23.4375	45.0612	23.4375	44.6693	23.4375	45.3839	23.4375	45.0244	23.4375	46.2866	23.4375	46.0215	23.4375	47.6165	23.4375	47.4557	23.4375	49.1184	23.4375	49.0368	23.4375	50.5988	23.4375	50.5673	23.4375	51.9537	23.4375	51.9508	23.4375	53.1369	23.4375	53.1486	23.4375	54.1302	23.4375	54.1478	23.4375	54.9273	23.4375	54.9453	23.4375	55.5263	23.4375	55.5413	23.4375	55.9269	23.4375	55.9367	23.4375	56.129	23.4375	56.1324
24.1699	46.8252	24.1699	46.802	24.1699	46.6857	24.1699	46.6155	24.1699	46.4115	24.1699	46.2933	24.1699	46.0735	24.1699	45.9094	24.1699	45.8126	24.1699	45.6143	24.1699	45.8433	24.1699	45.6394	24.1699	46.3644	24.1699	46.1926	24.1699	47.3973	24.1699	47.2799	24.1699	48.765	24.1699	48.6987	24.1699	50.2447	24.1699	50.2144	24.1699	51.6794	24.1699	51.6709	24.1699	52.9858	24.1699	52.9891	24.1699	54.1257	24.1699	54.1346	24.1699	55.0833	24.1699	55.0939	24.1699	55.8523	24.1699	55.8624	24.1699	56.4304	24.1699	56.4385	24.1699	56.8168	24.1699	56.822	24.1699	57.011	24.1699	57.0128
25.6348	49.4448	25.6348	49.4189	25.6348	49.3724	25.6348	49.295	25.6348	49.2289	25.6348	49.1013	25.6348	49.0746	25.6348	48.9025	25.6348	49.0104	25.6348	48.8087	25.6348	49.1665	25.6348	48.9615	25.6348	49.6513	25.6348	49.4744	25.6348	50.4819	25.6348	50.3541	25.6348	51.5703	25.6348	51.4943	25.6348	52.7822	25.6348	52.7479	25.6348	53.9994	25.6348	53.9937	25.6348	55.142	25.6348	55.1533	25.6348	56.1628	25.6348	56.1827	25.6348	57.0353	25.6348	57.0579	25.6348	57.7451	25.6348	57.7662	25.6348	58.2838	25.6348	58.3006	25.6348	58.6465	25.6348	58.6573	25.6348	58.8304	25.6348	58.8341
26.3672	50.8747	26.3672	50.8603	26.3672	50.8024	26.3672	50.7593	26.3672	50.6663	26.3672	50.5947	26.3672	50.5165	26.3672	50.4187	26.3672	50.4366	26.3672	50.3189	26.3672	50.5363	26.3672	50.411	26.3672	50.9162	26.3672	50.7999	26.3672	51.6108	26.3672	51.5177	26.3672	52.5638	26.3672	52.5001	26.3672	53.6637	26.3672	53.6269	26.3672	54.7979	26.3672	54.7819	26.3672	55.8824	26.3672	55.8806	26.3672	56.8635	26.3672	56.8702	26.3672	57.7091	26.3672	57.7198	26.3672	58.4007	26.3672	58.4121	26.3672	58.9272	26.3672	58.937	26.3672	59.2821	26.3672	59.2886	26.3672	59.4617	26.3672	59.464
27.0996	51.6201	27.0996	51.6084	27.0996	51.5457	27.0996	51.5103	27.0996	51.4066	27.0996	51.3477	27.0996	51.2508	27.0996	51.1695	27.0996	51.1584	27.0996	51.0588	27.0996	51.2362	27.0996	51.1267	27.0996	51.5847	27.0996	51.4779	27.0996	52.2439	27.0996	52.1516	27.0996	53.1648	27.0996	53.0935	27.0996	54.2399	27.0996	54.1897	27.0996	55.357	27.0996	55.3243	27.0996	56.4302	27.0996	56.4106	27.0996	57.4038	27.0996	57.3933	27.0996	58.2443	27.0996	58.2397	27.0996	58.9321	27.0996	58.9309	27.0996	59.4556	27.0996	59.456	27.0996	59.808	27.0996	59.8087	27.0996	59.9854	27.0996	59.9857
27.832	52.9365	27.832	52.9237	27.832	52.8794	27.832	52.8405	27.832	52.772	27.832	52.7063	27.832	52.6566	27.832	52.5636	27.832	52.6011	27.832	52.4826	27.832	52.6929	27.832	52.5555	27.832	53.0146	27.832	52.8701	27.832	53.6032	27.832	53.4658	27.832	54.4268	27.832	54.3074	27.832	55.4011	27.832	55.3046	27.832	56.4297	27.832	56.3558	27.832	57.4323	27.832	57.3779	27.832	58.3523	27.832	58.3136	27.832	59.1534	27.832	59.1267	27.832	59.8128	27.832	59.7952	27.832	60.3165	27.832	60.3056	27.832	60.656	27.832	60.6501	27.832	60.8261	27.832	60.8242
29.2969	54.9018	29.2969	54.8863	29.2969	54.8616	29.2969	54.8143	29.2969	54.783	29.2969	54.7021	29.2969	54.7016	29.2969	54.5851	29.2969	54.6729	29.2969	54.5208	29.2969	54.767	29.2969	54.5838	29.2969	55.0505	29.2969	54.8474	29.2969	55.5583	29.2969	55.3515	29.2969	56.2733	29.2969	56.0788	29.2969	57.1336	29.2969	56.9623	29.2969	58.0593	29.2969	57.9158	29.2969	58.9771	29.2969	58.8613	29.2969	59.831	29.2969	59.7404	29.2969	60.5821	29.2969	60.5133	29.2969	61.2045	29.2969	61.1545	29.2969	61.6816	29.2969	61.6478	29.2969	62.0028	29.2969	61.9833	29.2969	62.1618	29.2969	62.1555
30.0293	55.9472	30.0293	55.9309	30.0293	55.9198	30.0293	55.871	30.0293	55.8642	30.0293	55.7832	30.0293	55.8127	30.0293	55.7009	30.0293	55.814	30.0293	55.6755	30.0293	55.9285	30.0293	55.7716	30.0293	56.2126	30.0293	56.0497	30.0293	56.6964	30.0293	56.5412	30.0293	57.3668	30.0293	57.2305	30.0293	58.1724	30.0293	58.0605	30.0293	59.0437	30.0293	58.9567	30.0293	59.9137	30.0293	59.849	30.0293	60.7291	30.0293	60.6826	30.0293	61.4508	30.0293	61.4186	30.0293	62.0524	30.0293	62.0309	30.0293	62.516	30.0293	62.5026	30.0293	62.8301	30.0293	62.8228	30.0293	62.9877	30.0293	62.9854
31.4941	58.4251	31.4941	58.4173	31.4941	58.401	31.4941	58.3775	31.4941	58.357	31.4941	58.3175	31.4941	58.3176	31.4941	58.2617	31.4941	58.3192	31.4941	58.2476	31.4941	58.4071	31.4941	58.322	31.4941	58.6257	31.4941	58.5318	31.4941	59.0038	31.4941	58.9076	31.4941	59.5411	31.4941	59.4496	31.4941	60.2064	31.4941	60.1252	31.4941	60.9478	31.4941	60.88	31.4941	61.7085	31.4941	61.6547	31.4941	62.4371	31.4941	62.3965	31.4941	63.0934	31.4941	63.064	31.4941	63.6474	31.4941	63.6272	31.4941	64.0782	31.4941	64.0653	31.4941	64.3719	31.4941	64.3647	31.4941	64.5197	31.4941	64.5174
32.2266	59.2517	32.2266	59.2481	32.2266	59.2268	32.2266	59.2158	32.2266	59.1847	32.2266	59.166	32.2266	59.1485	32.2266	59.1214	32.2266	59.1526	32.2266	59.1169	32.2266	59.2393	32.2266	59.1954	32.2266	59.4505	32.2266	59.4002	32.2266	59.8135	32.2266	59.76	32.2266	60.3293	32.2266	60.2767	32.2266	60.9697	32.2266	60.9216	32.2266	61.6863	32.2266	61.6452	32.2266	62.4245	32.2266	62.3916	32.2266	63.1345	32.2266	63.1095	32.2266	63.776	32.2266	63.7582	32.2266	64.3191	32.2266	64.3071	32.2266	64.7425	32.2266	64.735	32.2266	65.0317	32.2266	65.0276	32.2266	65.1778	32.2266	65.1765
33.6914	61.2288	33.6914	61.223	33.6914	61.2202	33.6914	61.2028	33.6914	61.2069	33.6914	61.1776	33.6914	61.2079	33.6914	61.1668	33.6914	61.2509	33.6914	61.1984	33.6914	61.3685	33.6914	61.3063	33.6914	61.5919	33.6914	61.5229	33.6914	61.941	33.6914	61.8695	33.6914	62.416	33.6914	62.3466	33.6914	62.9954	33.6914	62.9322	33.6914	63.6413	33.6914	63.587	33.6914	64.309	33.6914	64.2647	33.6914	64.9553	33.6914	64.9208	33.6914	65.5433	33.6914	65.5177	33.6914	66.0442	33.6914	66.0261	33.6914	66.4364	33.6914	66.4246	33.6914	66.7051	33.6914	66.6985	33.6914	66.8407	33.6914	66.8386
34.4238	62.3268	34.4238	62.3243	34.4238	62.318	34.4238	62.3103	34.4238	62.3065	34.4238	62.293	34.4238	62.3092	34.4238	62.2892	34.4238	62.3506	34.4238	62.3232	34.4238	62.4596	34.4238	62.4245	34.4238	62.664	34.4238	62.6219	34.4238	62.9825	34.4238	62.9352	34.4238	63.4173	34.4238	63.3675	34.4238	63.951	34.4238	63.902	34.4238	64.5508	34.4238	64.5056	34.4238	65.1762	34.4238	65.1367	34.4238	65.7861	34.4238	65.7534	34.4238	66.3447	34.4238	66.319	34.4238	66.8229	34.4238	66.8039	34.4238	67.1987	34.4238	67.1858	34.4238	67.4567	34.4238	67.4492	34.4238	67.5869	34.4238	67.5845
35.8887	64.3207	35.8887	64.3186	35.8887	64.3177	35.8887	64.311	35.8887	64.317	35.8887	64.3045	35.8887	64.3327	35.8887	64.3129	35.8887	64.3849	35.8887	64.3561	35.8887	64.4972	35.8887	64.4579	35.8887	64.692	35.8887	64.642	35.8887	64.9848	35.8887	64.9254	35.8887	65.3782	35.8887	65.3122	35.8887	65.859	35.8887	65.7907	35.8887	66.4008	35.8887	66.3344	35.8887	66.9689	35.8887	66.908	35.8887	67.527	35.8887	67.4741	35.8887	68.0415	35.8887	67.9981	35.8887	68.4845	35.8887	68.451	35.8887	68.8339	35.8887	68.8102	35.8887	69.0738	35.8887	69.0598	35.8887	69.194	35.8887	69.1894
37.3535	66.3322	37.3535	66.3296	37.3535	66.3356	37.3535	66.3273	37.3535	66.3459	37.3535	66.3309	37.3535	66.3744	37.3535	66.3511	37.3535	66.4373	37.3535	66.4039	37.3535	66.553	37.3535	66.5081	37.3535	66.7392	37.3535	66.6823	37.3535	67.0081	37.3535	66.9405	37.3535	67.3623	37.3535	67.2867	37.3535	67.7921	37.3535	67.7125	37.3535	68.2763	37.3535	68.1974	37.3535	68.7863	37.3535	68.7124	37.3535	69.2904	37.3535	69.2249	37.3535	69.7582	37.3535	69.7032	37.3535	70.1632	37.3535	70.12	37.3535	70.4838	37.3535	70.4529	37.3535	70.7042	37.3535	70.6857	37.3535	70.8139	37.3535	70.8078
38.8184	68.3361	38.8184	68.3329	38.8184	68.3439	38.8184	68.3341	38.8184	68.3615	38.8184	68.3439	38.8184	68.3979	38.8184	68.3712	38.8184	68.466	38.8184	68.4284	38.8184	68.5803	38.8184	68.5306	38.8184	68.7548	38.8184	68.6927	38.8184	68.9995	38.8184	68.9262	38.8184	69.3167	38.8184	69.2351	38.8184	69.6993	38.8184	69.6135	38.8184	70.1307	38.8184	70.0455	38.8184	70.5871	38.8184	70.507	38.8184	71.0411	38.8184	70.9697	38.8184	71.4652	38.8184	71.4049	38.8184	71.8344	38.8184	71.7868	38.8184	72.128	38.8184	72.0938	38.8184	72.3302	38.8184	72.3097	38.8184	72.4306	38.8184	72.4238
39.5508	69.3215	39.5508	69.3184	39.5508	69.3305	39.5508	69.3209	39.5508	69.3499	39.5508	69.3329	39.5508	69.3878	39.5508	69.3621	39.5508	69.4555	39.5508	69.4198	39.5508	69.5659	39.5508	69.5194	39.5508	69.7318	39.5508	69.6742	39.5508	69.9619	39.5508	69.8944	39.5508	70.2591	39.5508	70.1843	39.5508	70.6173	39.5508	70.5389	39.5508	71.022	39.5508	70.9442	39.5508	71.4516	39.5508	71.3785	39.5508	71.8808	39.5508	71.8156	39.5508	72.2833	39.5508	72.2283	39.5508	72.635	39.5508	72.5916	39.5508	72.9156	39.5508	72.8845	39.5508	73.1095	39.5508	73.0908	39.5508	73.206	39.5508	73.1997
41.0156	70.9251	41.0156	70.9213	41.0156	70.9368	41.0156	70.9251	41.0156	70.9603	41.0156	70.9397	41.0156	71.0024	41.0156	70.9714	41.0156	71.0729	41.0156	71.0297	41.0156	71.1827	41.0156	71.1258	41.0156	71.3422	41.0156	71.2712	41.0156	71.5592	41.0156	71.4747	41.0156	71.836	41.0156	71.7403	41.0156	72.1677	41.0156	72.0649	41.0156	72.5417	41.0156	72.4367	41.0156	72.939	41.0156	72.8372	41.0156	73.3365	41.0156	73.243	41.0156	73.7102	41.0156	73.6291	41.0156	74.0372	41.0156	73.9715	41.0156	74.298	41.0156	74.2498	41.0156	74.4771	41.0156	74.4477	41.0156	74.5643	41.0156	74.5545
42.4805	72.8323	42.4805	72.8278	42.4805	72.8476	42.4805	72.834	42.4805	72.8768	42.4805	72.8534	42.4805	72.9251	42.4805	72.8912	42.4805	73.0001	42.4805	72.9546	42.4805	73.11	42.4805	73.0525	42.4805	73.263	42.4805	73.1937	42.4805	73.465	42.4805	73.385	42.4805	73.7178	42.4805	73.6296	42.4805	74.0174	42.4805	73.9246	42.4805	74.3538	42.4805	74.2606	42.4805	74.7111	42.4805	74.622	42.4805	75.0697	42.4805	74.9887	42.4805	75.4082	42.4805	75.3385	42.4805	75.7058	42.4805	75.6498	42.4805	75.9443	42.4805	75.9034	42.4805	76.1088	42.4805	76.0841	42.4805	76.1895	42.4805	76.1812
43.9453	74.3654	43.9453	74.3636	43.9453	74.3793	43.9453	74.3738	43.9453	74.4079	43.9453	74.3978	43.9453	74.4557	43.9453	74.4397	43.9453	74.5288	43.9453	74.5055	43.9453	74.6342	43.9453	74.6022	43.9453	74.7786	43.9453	74.7369	43.9453	74.9667	43.9453	74.9155	43.9453	75.2002	43.9453	75.1405	43.9453	75.4758	43.9453	75.4099	43.9453	75.7847	43.9453	75.716	43.9453	76.1132	43.9453	76.0454	43.9453	76.4438	43.9453	76.3805	43.9453	76.757	43.9453	76.7013	43.9453	77.0333	43.9453	76.9879	43.9453	77.2556	43.9453	77.2221	43.9453	77.4096	43.9453	77.3891	43.9453	77.4856	43.9453	77.4787
45.4102	75.8295	45.4102	75.8278	45.4102	75.8457	45.4102	75.8401	45.4102	75.8783	45.4102	75.8681	45.4102	75.931	45.4102	75.9148	45.4102	76.0084	45.4102	75.9847	45.4102	76.116	45.4102	76.0834	45.4102	76.2586	45.4102	76.2162	45.4102	76.44	45.4102	76.3876	45.4102	76.6609	45.4102	76.5995	45.4102	76.9182	45.4102	76.85	45.4102	77.2042	45.4102	77.1324	45.4102	77.5071	45.4102	77.4355	45.4102	77.8114	45.4102	77.7439	45.4102	78.0995	45.4102	78.0397	45.4102	78.3539	45.4102	78.3047	45.4102	78.5585	45.4102	78.5219	45.4102	78.7001	45.4102	78.6777	45.4102	78.7695	45.4102	78.7619
47.6074	77.677	47.6074	77.6758	47.6074	77.6941	47.6074	77.6902	47.6074	77.7288	47.6074	77.7212	47.6074	77.7832	47.6074	77.7708	47.6074	77.8608	47.6074	77.8418	47.6074	77.9649	47.6074	77.9377	47.6074	78.0989	47.6074	78.0624	47.6074	78.2649	47.6074	78.2186	47.6074	78.463	47.6074	78.4076	47.6074	78.6907	47.6074	78.6278	47.6074	78.9418	47.6074	78.8743	47.6074	79.2066	47.6074	79.1382	47.6074	79.4724	47.6074	79.4068	47.6074	79.7243	47.6074	79.6654	47.6074	79.9473	47.6074	79.8982	47.6074	80.1268	47.6074	80.0901	47.6074	80.2511	47.6074	80.2283	47.6074	80.3115	47.6074	80.3038
49.0723	78.5153	49.0723	78.5145	49.0723	78.533	49.0723	78.5301	49.0723	78.5686	49.0723	78.5627	49.0723	78.6239	49.0723	78.6136	49.0723	78.7013	49.0723	78.685	49.0723	78.8035	49.0723	78.7793	49.0723	78.9325	49.0723	78.8992	49.0723	79.0899	49.0723	79.0468	49.0723	79.2755	49.0723	79.2229	49.0723	79.4866	49.0723	79.4261	49.0723	79.718	49.0723	79.6522	49.0723	79.9612	49.0723	79.8934	49.0723	80.2047	49.0723	80.1391	49.0723	80.4356	49.0723	80.376	49.0723	80.6399	49.0723	80.5899	49.0723	80.8045	49.0723	80.7667	49.0723	80.9181	49.0723	80.8947	49.0723	80.973	49.0723	80.965
50.5371	79.1112	50.5371	79.1095	50.5371	79.1304	50.5371	79.1249	50.5371	79.1679	50.5371	79.1578	50.5371	79.225	50.5371	79.209	50.5371	79.3032	50.5371	79.28	50.5371	79.4044	50.5371	79.3723	50.5371	79.5298	50.5371	79.4879	50.5371	79.6803	50.5371	79.6281	50.5371	79.8552	50.5371	79.7933	50.5371	80.0522	50.5371	79.9822	50.5371	80.2664	50.5371	80.1912	50.5371	80.4903	50.5371	80.4135	50.5371	80.7139	50.5371	80.6398	50.5371	80.9255	50.5371	80.8583	50.5371	81.1125	50.5371	81.056	50.5371	81.2628	50.5371	81.2202	50.5371	81.3662	50.5371	81.3397	50.5371	81.4152	50.5371	81.4062
52.7344	79.6745	52.7344	79.6726	52.7344	79.6944	52.7344	79.6886	52.7344	79.7327	52.7344	79.7223	52.7344	79.7902	52.7344	79.7739	52.7344	79.8674	52.7344	79.8441	52.7344	79.9651	52.7344	79.9334	52.7344	80.0837	52.7344	80.0425	52.7344	80.223	52.7344	80.1721	52.7344	80.3822	52.7344	80.3219	52.7344	80.5588	52.7344	80.4906	52.7344	80.7487	52.7344	80.6752	52.7344	80.9458	52.7344	80.8705	52.7344	81.1417	52.7344	81.0687	52.7344	81.3267	52.7344	81.2601	52.7344	81.49	52.7344	81.4337	52.7344	81.621	52.7344	81.5784	52.7344	81.7109	52.7344	81.6843	52.7344	81.7529	52.7344	81.7439
54.1992	79.8779	54.1992	79.8762	54.1992	79.8978	54.1992	79.8923	54.1992	79.936	54.1992	79.9262	54.1992	79.9929	54.1992	79.9776	54.1992	80.0686	54.1992	80.0466	54.1992	80.1633	54.1992	80.1333	54.1992	80.2769	54.1992	80.2379	54.1992	80.4089	54.1992	80.3603	54.1992	80.558	54.1992	80.5003	54.1992	80.722	54.1992	80.6565	54.1992	80.8972	54.1992	80.8262	54.1992	81.0781	54.1992	81.0049	54.1992	81.2574	54.1992	81.186	54.1992	81.4263	54.1992	81.3609	54.1992	81.5753	54.1992	81.5198	54.1992	81.6948	54.1992	81.6525	54.1992	81.7764	54.1992	81.75	54.1992	81.8142	54.1992	81.8052
56.3965	80.0347	56.3965	80.0324	56.3965	80.0555	56.3965	80.0482	56.3965	80.0947	56.3965	80.0818	56.3965	80.1521	56.3965	80.1328	56.3965	80.2273	56.3965	80.2003	56.3965	80.3197	56.3965	80.2841	56.3965	80.4286	56.3965	80.3833	56.3965	80.5527	56.3965	80.4975	56.3965	80.6906	56.3965	80.6259	56.3965	80.8399	56.3965	80.7672	56.3965	80.9973	56.3965	80.919	56.3965	81.1581	56.3965	81.0777	56.3965	81.3164	56.3965	81.2379	56.3965	81.4645	56.3965	81.3926	56.3965	81.5945	56.3965	81.5334	56.3965	81.6982	56.3965	81.6516	56.3965	81.7683	56.3965	81.7391	56.3965	81.7996	56.3965	81.7897
58.5938	80.1419	58.5938	80.1385	58.5938	80.1638	58.5938	80.1534	58.5938	80.204	58.5938	80.1861	58.5938	80.2619	58.5938	80.2357	58.5938	80.3366	58.5938	80.3013	58.5938	80.4269	58.5938	80.3816	58.5938	80.5314	58.5938	80.4755	58.5938	80.6485	58.5938	80.5821	58.5938	80.7764	58.5938	80.7	58.5938	80.9127	58.5938	80.828	58.5938	81.0543	58.5938	80.9641	58.5938	81.1973	58.5938	81.1052	58.5938	81.3366	58.5938	81.2471	58.5938	81.466	58.5938	81.3839	58.5938	81.5786	58.5938	81.5088	58.5938	81.6675	58.5938	81.6143	58.5938	81.7266	58.5938	81.6933	58.5938	81.7515	58.5938	81.7402
60.0586	80.186	60.0586	80.1812	60.0586	80.2096	60.0586	80.1951	60.0586	80.2516	60.0586	80.2271	60.0586	80.311	60.0586	80.2761	60.0586	80.3868	60.0586	80.3409	60.0586	80.4772	60.0586	80.42	60.0586	80.5804	60.0586	80.5118	60.0586	80.6946	60.0586	80.6149	60.0586	80.8176	60.0586	80.7279	60.0586	80.9469	60.0586	80.8493	60.0586	81.0796	60.0586	80.9771	60.0586	81.2122	60.0586	81.1088	60.0586	81.34	60.0586	81.2404	60.0586	81.4578	60.0586	81.3671	60.0586	81.5595	60.0586	81.4828	60.0586	81.6391	60.0586	81.5808	60.0586	81.6912	60.0586	81.6547	60.0586	81.7119	60.0586	81.6995
62.2559	80.1617	62.2559	80.1567	62.2559	80.185	62.2559	80.1699	62.2559	80.226	62.2559	80.2008	62.2559	80.2837	62.2559	80.248	62.2559	80.3563	62.2559	80.3098	62.2559	80.4418	62.2559	80.3845	62.2559	80.5382	62.2559	80.47	62.2559	80.643	62.2559	80.5645	62.2559	80.754	62.2559	80.6663	62.2559	80.8688	62.2559	80.7738	62.2559	80.9848	62.2559	80.8853	62.2559	81.0991	62.2559	80.9988	62.2559	81.208	62.2559	81.1114	62.2559	81.3074	62.2559	81.2194	62.2559	81.3925	62.2559	81.3178	62.2559	81.4584	62.2559	81.4015	62.2559	81.5008	62.2559	81.4652	62.2559	81.5166	62.2559	81.5045
64.4531	80.2135	64.4531	80.208	64.4531	80.2372	64.4531	80.2205	64.4531	80.2782	64.4531	80.2503	64.4531	80.3352	64.4531	80.296	64.4531	80.4063	64.4531	80.3557	64.4531	80.489	64.4531	80.4271	64.4531	80.5809	64.4531	80.508	64.4531	80.6794	64.4531	80.5961	64.4531	80.782	64.4531	80.6895	64.4531	80.8863	64.4531	80.7866	64.4531	80.9899	64.4531	80.8858	64.4531	81.0901	64.4531	80.9855	64.4531	81.1843	64.4531	81.0835	64.4531	81.2689	64.4531	81.177	64.4531	81.3403	64.4531	81.2623	64.4531	81.3946	64.4531	81.3352	64.4531	81.4286	64.4531	81.3913	64.4531	81.4397	64.4531	81.427
66.6504	80.2773	66.6504	80.2702	66.6504	80.3019	66.6504	80.2809	66.6504	80.3434	66.6504	80.3084	66.6504	80.4001	66.6504	80.3513	66.6504	80.4697	66.6504	80.4075	66.6504	80.5496	66.6504	80.4745	66.6504	80.637	66.6504	80.5497	66.6504	80.7292	66.6504	80.6307	66.6504	80.8233	66.6504	80.7153	66.6504	80.9171	66.6504	80.8018	66.6504	81.0082	66.6504	80.8889	66.6504	81.0945	66.6504	80.9753	66.6504	81.1738	66.6504	81.0596	66.6504	81.2434	66.6504	81.1397	66.6504	81.3008	66.6504	81.2129	66.6504	81.3431	66.6504	81.2762	66.6504	81.3678	66.6504	81.3259	66.6504	81.3732	66.6504	81.359
69.5801	80.4415	69.5801	80.4319	69.5801	80.4678	69.5801	80.4391	69.5801	80.5098	69.5801	80.4624	69.5801	80.5656	69.5801	80.5002	69.5801	80.6328	69.5801	80.5502	69.5801	80.7084	69.5801	80.61	69.5801	80.7894	69.5801	80.6766	69.5801	80.8727	69.5801	80.7473	69.5801	80.9555	69.5801	80.8201	69.5801	81.0354	69.5801	80.8931	69.5801	81.1104	69.5801	80.9652	69.5801	81.1789	69.5801	81.0354	69.5801	81.2393	69.5801	81.1032	69.5801	81.2901	69.5801	81.1674	69.5801	81.3297	69.5801	81.2265	69.5801	81.3567	69.5801	81.2784	69.5801	81.3697	69.5801	81.3208	69.5801	81.3679	69.5801	81.3512
71.7773	80.5756	71.7773	80.5642	71.7773	80.6034	71.7773	80.5694	71.7773	80.6464	71.7773	80.5904	71.7773	80.7027	71.7773	80.6258	71.7773	80.7694	71.7773	80.6731	71.7773	80.8436	71.7773	80.7295	71.7773	80.9219	71.7773	80.7922	71.7773	81.001	71.7773	80.8583	71.7773	81.0781	71.7773	80.9253	71.7773	81.1506	71.7773	80.9914	71.7773	81.2168	71.7773	81.0554	71.7773	81.275	71.7773	81.1167	71.7773	81.3243	71.7773	81.175	71.7773	81.3639	71.7773	81.2299	71.7773	81.3929	71.7773	81.2804	71.7773	81.4105	71.7773	81.3255	71.7773	81.4163	71.7773	81.3633	71.7773	81.41	71.7773	81.392
73.9746	80.7174	73.9746	80.7058	73.9746	80.745	73.9746	80.7104	73.9746	80.7874	73.9746	80.7306	73.9746	80.8426	73.9746	80.7645	73.9746	80.9077	73.9746	80.8098	73.9746	80.9796	73.9746	80.8636	73.9746	81.0546	73.9746	80.9228	73.9746	81.1295	73.9746	80.9843	73.9746	81.2012	73.9746	81.0457	73.9746	81.2671	73.9746	81.105	73.9746	81.3254	73.9746	81.1612	73.9746	81.3749	73.9746	81.2139	73.9746	81.4148	73.9746	81.2629	73.9746	81.4449	73.9746	81.3085	73.9746	81.465	73.9746	81.3505	73.9746	81.475	73.9746	81.3884	73.9746	81.4751	73.9746	81.4211	73.9746	81.4657	73.9746	81.4473
76.9043	80.8713	76.9043	80.8605	76.9043	80.8979	76.9043	80.8657	76.9043	80.939	76.9043	80.8861	76.9043	80.9923	76.9043	80.9199	76.9043	81.0551	76.9043	80.9648	76.9043	81.1238	76.9043	81.0174	76.9043	81.1948	76.9043	81.0746	76.9043	81.2646	76.9043	81.1331	76.9043	81.33	76.9043	81.19	76.9043	81.3884	76.9043	81.2434	76.9043	81.4381	76.9043	81.292	76.9043	81.478	76.9043	81.3355	76.9043	81.5079	76.9043	81.3741	76.9043	81.5282	76.9043	81.4085	76.9043	81.5395	76.9043	81.4393	76.9043	81.5426	76.9043	81.467	76.9043	81.5385	76.9043	81.4914	76.9043	81.528	76.9043	81.512
79.834	81.1011	79.834	81.0945	79.834	81.1224	79.834	81.1028	79.834	81.1572	79.834	81.125	79.834	81.2034	79.834	81.1595	79.834	81.2583	79.834	81.2036	79.834	81.3183	79.834	81.2539	79.834	81.38	79.834	81.3072	79.834	81.4399	79.834	81.36	79.834	81.4948	79.834	81.4093	79.834	81.5423	79.834	81.4531	79.834	81.5807	79.834	81.49	79.834	81.6095	79.834	81.52	79.834	81.6287	79.834	81.5436	79.834	81.6394	79.834	81.5623	79.834	81.6428	79.834	81.5776	79.834	81.6405	79.834	81.5909	79.834	81.6342	79.834	81.6031	79.834	81.6252	79.834	81.6146
82.7637	81.3794	82.7637	81.3749	82.7637	81.3967	82.7637	81.3833	82.7637	81.4257	82.7637	81.4039	82.7637	81.4642	82.7637	81.4346	82.7637	81.5095	82.7637	81.4731	82.7637	81.5583	82.7637	81.5159	82.7637	81.6071	82.7637	81.5596	82.7637	81.6526	82.7637	81.6008	82.7637	81.6917	82.7637	81.6365	82.7637	81.7224	82.7637	81.6646	82.7637	81.7431	82.7637	81.684	82.7637	81.7539	82.7637	81.695	82.7637	81.7555	82.7637	81.6988	82.7637	81.7496	82.7637	81.6977	82.7637	81.7388	82.7637	81.6943	82.7637	81.7254	82.7637	81.6912	82.7637	81.7122	82.7637	81.6906	82.7637	81.7012	82.7637	81.6938
85.6934	81.5935	85.6934	81.5867	85.6934	81.6126	85.6934	81.5922	85.6934	81.6424	85.6934	81.6094	85.6934	81.6809	85.6934	81.6363	85.6934	81.7251	85.6934	81.6703	85.6934	81.7715	85.6934	81.708	85.6934	81.8164	85.6934	81.7457	85.6934	81.8564	85.6934	81.7799	85.6934	81.8885	85.6934	81.8077	85.6934	81.9104	85.6934	81.8268	85.6934	81.921	85.6934	81.8364	85.6934	81.9205	85.6934	81.8371	85.6934	81.91	85.6934	81.8306	85.6934	81.8919	85.6934	81.8197	85.6934	81.8694	85.6934	81.808	85.6934	81.8456	85.6934	81.7986	85.6934	81.824	85.6934	81.7944	85.6934	81.8072	85.6934	81.7971
88.623	81.7096	88.623	81.6987	88.623	81.7339	88.623	81.7018	88.623	81.7702	88.623	81.7181	88.623	81.8161	88.623	81.7459	88.623	81.8684	88.623	81.7828	88.623	81.9236	88.623	81.8253	88.623	81.9779	88.623	81.8698	88.623	82.0274	88.623	81.9125	88.623	82.0691	88.623	81.95	88.623	82.1003	88.623	81.98	88.623	82.1196	88.623	82.0009	88.623	82.1268	88.623	82.0129	88.623	82.1229	88.623	82.0171	88.623	82.11	88.623	82.0161	88.623	82.0911	88.623	82.0128	88.623	82.0695	88.623	82.0104	88.623	82.0484	88.623	82.0116	88.623	82.0307	88.623	82.0182
91.5527	81.9688	91.5527	81.9581	91.5527	81.9917	91.5527	81.9601	91.5527	82.0254	91.5527	81.9742	91.5527	82.0677	91.5527	81.9988	91.5527	82.1154	91.5527	82.0314	91.5527	82.1652	91.5527	82.0689	91.5527	82.2133	91.5527	82.1075	91.5527	82.256	91.5527	82.1437	91.5527	82.2902	91.5527	82.1741	91.5527	82.3133	91.5527	82.1962	91.5527	82.3241	91.5527	82.2088	91.5527	82.3224	91.5527	82.2119	91.5527	82.3096	91.5527	82.2071	91.5527	82.288	91.5527	82.1971	91.5527	82.2612	91.5527	82.1854	91.5527	82.233	91.5527	82.1759	91.5527	82.2073	91.5527	82.1718	91.5527	82.1874	91.5527	82.1753
94.4824	82.1536	94.4824	82.142	94.4824	82.1758	94.4824	82.1415	94.4824	82.2069	94.4824	82.1519	94.4824	82.2449	94.4824	82.1717	94.4824	82.2868	94.4824	82.1987	94.4824	82.3293	94.4824	82.2301	94.4824	82.3689	94.4824	82.2624	94.4824	82.4021	94.4824	82.2919	94.4824	82.4261	94.4824	82.3154	94.4824	82.4386	94.4824	82.3304	94.4824	82.4386	94.4824	82.3354	94.4824	82.4263	94.4824	82.3305	94.4824	82.4034	94.4824	82.3172	94.4824	82.3729	94.4824	82.2984	94.4824	82.3387	94.4824	82.278	94.4824	82.3053	94.4824	82.2602	94.4824	82.2769	94.4824	82.2491	94.4824	82.2569	94.4824	82.2475
98.1445	82.4664	98.1445	82.4554	98.1445	82.4863	98.1445	82.4538	98.1445	82.5136	98.1445	82.4612	98.1445	82.5462	98.1445	82.4762	98.1445	82.5812	98.1445	82.4966	98.1445	82.6153	98.1445	82.5195	98.1445	82.645	98.1445	82.5414	98.1445	82.6669	98.1445	82.5588	98.1445	82.6781	98.1445	82.5687	98.1445	82.6766	98.1445	82.5685	98.1445	82.6614	98.1445	82.5573	98.1445	82.6332	98.1445	82.5354	98.1445	82.5941	98.1445	82.505	98.1445	82.5478	98.1445	82.47	98.1445	82.4991	98.1445	82.435	98.1445	82.4533	98.1445	82.4054	98.1445	82.4158	98.1445	82.3861	98.1445	82.3907	98.1445	82.3806
101.807	82.6653	101.807	82.6553	101.807	82.6836	101.807	82.6542	101.807	82.7091	101.807	82.6617	101.807	82.7395	101.807	82.6765	101.807	82.7724	101.807	82.6966	101.807	82.8046	101.807	82.7192	101.807	82.8328	101.807	82.741	101.807	82.8539	101.807	82.7585	101.807	82.8649	101.807	82.7685	101.807	82.8638	101.807	82.7687	101.807	82.8495	101.807	82.7577	101.807	82.8226	101.807	82.736	101.807	82.7849	101.807	82.7056	101.807	82.7399	101.807	82.6703	101.807	82.6925	101.807	82.6349	101.807	82.6479	101.807	82.6046	101.807	82.6114	101.807	82.5845	101.807	82.5872	101.807	82.5781
105.469	82.8747	105.469	82.861	105.469	82.8941	105.469	82.8538	105.469	82.9179	105.469	82.8532	105.469	82.9441	105.469	82.8585	105.469	82.9703	105.469	82.8682	105.469	82.9939	105.469	82.8801	105.469	83.012	105.469	82.8915	105.469	83.0219	105.469	82.8992	105.469	83.0213	105.469	82.9006	105.469	83.0085	105.469	82.8932	105.469	82.983	105.469	82.8759	105.469	82.9457	105.469	82.8489	105.469	82.8988	105.469	82.8141	105.469	82.8463	105.469	82.7749	105.469	82.793	105.469	82.736	105.469	82.7442	105.469	82.7027	105.469	82.7053	105.469	82.6801	105.469	82.6805	105.469	82.672
109.131	83.2389	109.131	83.226	109.131	83.2558	109.131	83.2177	109.131	83.2754	109.131	83.214	109.131	83.2959	109.131	83.2143	109.131	83.3148	109.131	83.2171	109.131	83.3297	109.131	83.2202	109.131	83.3376	109.131	83.221	109.131	83.3361	109.131	83.2167	109.131	83.3228	109.131	83.2045	109.131	83.2962	109.131	83.1826	109.131	83.2562	109.131	83.1501	109.131	83.2039	109.131	83.1075	109.131	83.1421	109.131	83.0574	109.131	83.0754	109.131	83.0038	109.131	83.0093	109.131	82.9521	109.131	82.95	109.131	82.9083	109.131	82.9035	109.131	82.8782	109.131	82.8747	109.131	82.8662
112.793	83.4757	112.793	83.4663	112.793	83.4893	112.793	83.4619	112.793	83.5058	112.793	83.4625	112.793	83.5234	112.793	83.4675	112.793	83.5396	112.793	83.4752	112.793	83.5521	112.793	83.4835	112.793	83.558	112.793	83.4894	112.793	83.5546	112.793	83.4898	112.793	83.54	112.793	83.4817	112.793	83.5127	112.793	83.4628	112.793	83.4725	112.793	83.4319	112.793	83.4207	112.793	83.3894	112.793	83.3604	112.793	83.3375	112.793	83.296	112.793	83.2804	112.793	83.2335	112.793	83.2234	112.793	83.179	112.793	83.1731	112.793	83.1385	112.793	83.1355	112.793	83.1167	112.793	83.1158
116.455	83.6264	116.455	83.609	116.455	83.6473	116.455	83.5961	116.455	83.6702	116.455	83.5883	116.455	83.693	116.455	83.5853	116.455	83.7135	116.455	83.5861	116.455	83.7291	116.455	83.5889	116.455	83.7373	116.455	83.5911	116.455	83.7355	116.455	83.5897	116.455	83.7217	116.455	83.5819	116.455	83.6945	116.455	83.5651	116.455	83.6537	116.455	83.5379	116.455	83.6008	116.455	83.5006	116.455	83.5387	116.455	83.4548	116.455	83.4718	116.455	83.4045	116.455	83.406	116.455	83.3547	116.455	83.3475	116.455	83.3115	116.455	83.3022	116.455	83.281	116.455	83.2749	116.455	83.2679
120.85	83.8599	120.85	83.8365	120.85	83.8844	120.85	83.8155	120.85	83.9085	120.85	83.7976	120.85	83.9306	120.85	83.7833	120.85	83.9487	120.85	83.7723	120.85	83.9608	120.85	83.7637	120.85	83.965	120.85	83.7559	120.85	83.9591	120.85	83.7466	120.85	83.9415	120.85	83.7335	120.85	83.9113	120.85	83.7147	120.85	83.8686	120.85	83.6886	120.85	83.8146	120.85	83.6553	120.85	83.7521	120.85	83.6161	120.85	83.6854	120.85	83.5741	120.85	83.6197	120.85	83.5335	120.85	83.5607	120.85	83.4996	120.85	83.5138	120.85	83.4774	120.85	83.4832	120.85	83.4711
125.244	84.0487	125.244	84.0251	125.244	84.0709	125.244	84.0012	125.244	84.0906	125.244	83.9777	125.244	84.1064	125.244	83.955	125.244	84.1168	125.244	83.9328	125.244	84.12	125.244	83.9107	125.244	84.1142	125.244	83.8873	125.244	84.0976	125.244	83.8611	125.244	84.0687	125.244	83.8305	125.244	84.0266	125.244	83.7943	125.244	83.9716	125.244	83.7518	125.244	83.9052	125.244	83.7037	125.244	83.8301	125.244	83.6521	125.244	83.751	125.244	83.6004	125.244	83.6733	125.244	83.5532	125.244	83.6033	125.244	83.516	125.244	83.5467	125.244	83.4938	125.244	83.5082	125.244	83.4905
129.639	84.178	129.639	84.1651	129.639	84.1889	129.639	84.1511	129.639	84.1967	129.639	84.1366	129.639	84.2003	129.639	84.1217	129.639	84.1981	129.639	84.106	129.639	84.1887	129.639	84.0885	129.639	84.1704	129.639	84.0676	129.639	84.1417	129.639	84.0416	129.639	84.1016	129.639	84.0083	129.639	84.0496	129.639	83.9664	129.639	83.9861	129.639	83.9151	129.639	83.9133	129.639	83.8553	129.639	83.8344	129.639	83.7893	129.639	83.7543	129.639	83.7211	129.639	83.6791	129.639	83.6561	129.639	83.6149	129.639	83.6002	129.639	83.5676	129.639	83.5596	129.639	83.5416	129.639	83.5391
134.033	84.2381	134.033	84.2245	134.033	84.25	134.033	84.2103	134.033	84.2588	134.033	84.1966	134.033	84.2633	134.033	84.184	134.033	84.2624	134.033	84.1727	134.033	84.2547	134.033	84.1621	134.033	84.2391	134.033	84.1508	134.033	84.2142	134.033	84.1369	134.033	84.1795	134.033	84.118	134.033	84.1345	134.033	84.0919	134.033	84.0801	134.033	84.0573	134.033	84.0181	134.033	84.0138	134.033	83.9519	134.033	83.9627	134.033	83.886	134.033	83.9068	134.033	83.8255	134.033	83.8506	134.033	83.7761	134.033	83.7994	134.033	83.7426	134.033	83.7589	134.033	83.7281	134.033	83.734
138.428	84.3027	138.428	84.282	138.428	84.3191	138.428	84.2586	138.428	84.3299	138.428	84.2342	138.428	84.3339	138.428	84.2102	138.428	84.3304	138.428	84.1877	138.428	84.3184	138.428	84.1671	138.428	84.2975	138.428	84.148	138.428	84.2671	138.428	84.1291	138.428	84.2272	138.428	84.1087	138.428	84.1783	138.428	84.0847	138.428	84.1215	138.428	84.0555	138.428	84.0591	138.428	84.0202	138.428	83.9944	138.428	83.9792	138.428	83.9316	138.428	83.9344	138.428	83.8755	138.428	83.8889	138.428	83.8305	138.428	83.8471	138.428	83.8005	138.428	83.8135	138.428	83.7878	138.428	83.7927
143.555	84.4019	143.555	84.3716	143.555	84.4243	143.555	84.3352	143.555	84.4375	143.555	84.2946	143.555	84.4405	143.555	84.252	143.555	84.4328	143.555	84.2094	143.555	84.4139	143.555	84.1682	143.555	84.3837	143.555	84.1291	143.555	84.3422	143.555	84.092	143.555	84.2898	143.555	84.0562	143.555	84.2275	143.555	84.0203	143.555	84.157	143.555	83.9831	143.555	84.0812	143.555	83.9437	143.555	84.0038	143.555	83.9023	143.555	83.9291	143.555	83.8602	143.555	83.8623	143.555	83.8196	143.555	83.8077	143.555	83.7843	143.555	83.7689	143.555	83.758	143.555	83.7479	143.555	83.7449
148.682	84.4986	148.682	84.4688	148.682	84.5177	148.682	84.43	148.682	84.5254	148.682	84.3841	148.682	84.5209	148.682	84.3334	148.682	84.5042	148.682	84.2802	148.682	84.4756	148.682	84.2264	148.682	84.4354	148.682	84.1736	148.682	84.3844	148.682	84.1226	148.682	84.3234	148.682	84.0734	148.682	84.2539	148.682	84.0259	148.682	84.1779	148.682	83.9795	148.682	84.0983	148.682	83.934	148.682	84.0186	148.682	83.8897	148.682	83.943	148.682	83.8477	148.682	83.8756	148.682	83.81	148.682	83.8204	148.682	83.7791	148.682	83.7803	148.682	83.758	148.682	83.7567	148.682	83.7497
153.809	84.5392	153.809	84.5106	153.809	84.5547	153.809	84.4707	153.809	84.5562	153.809	84.4214	153.809	84.5434	153.809	84.3652	153.809	84.5161	153.809	84.3045	153.809	84.475	153.809	84.2416	153.809	84.4207	153.809	84.1782	153.809	84.3543	153.809	84.1156	153.809	84.2774	153.809	84.0542	153.809	84.1921	153.809	83.9942	153.809	84.1013	153.809	83.9356	153.809	84.0084	153.809	83.8783	153.809	83.9178	153.809	83.8231	153.809	83.8341	153.809	83.7712	153.809	83.7619	153.809	83.7244	153.809	83.7048	153.809	83.6854	153.809	83.6655	153.809	83.6573	153.809	83.6451	153.809	83.6429
159.668	84.6336	159.668	84.6062	159.668	84.6456	159.668	84.5649	159.668	84.6412	159.668	84.512	159.668	84.6202	159.668	84.4505	159.668	84.5832	159.668	84.3834	159.668	84.5311	159.668	84.3137	159.668	84.4654	159.668	84.244	159.668	84.3881	159.668	84.1761	159.668	84.3014	159.668	84.1112	159.668	84.2084	159.668	84.0497	159.668	84.1125	159.668	83.9916	159.668	84.018	159.668	83.9366	159.668	83.9293	159.668	83.8845	159.668	83.8509	159.668	83.8359	159.668	83.7866	159.668	83.7915	159.668	83.7392	159.668	83.7531	159.668	83.71	159.668	83.723	159.668	83.6988	159.668	83.704
164.795	84.7423	164.795	84.7149	164.795	84.7528	164.795	84.6722	164.795	84.7455	164.795	84.6167	164.795	84.7202	164.795	84.5513	164.795	84.6773	164.795	84.4792	164.795	84.618	164.795	84.4036	164.795	84.5439	164.795	84.3271	164.795	84.457	164.795	84.2521	164.795	84.3601	164.795	84.1798	164.795	84.2566	164.795	84.111	164.795	84.1508	164.795	84.0459	164.795	84.0473	164.795	83.9845	164.795	83.9513	164.795	83.9268	164.795	83.8677	164.795	83.8731	164.795	83.8006	164.795	83.8243	164.795	83.7526	164.795	83.7818	164.795	83.7248	164.795	83.7477	164.795	83.7163	164.795	83.7249
170.654	84.691	170.654	84.6564	170.654	84.7064	170.654	84.6047	170.654	84.702	170.654	84.5384	170.654	84.6775	170.654	84.4612	170.654	84.6337	170.654	84.3771	170.654	84.572	170.654	84.2901	170.654	84.4943	170.654	84.2044	170.654	84.4031	170.654	84.1231	170.654	84.3018	170.654	84.0486	170.654	84.1943	170.654	83.9822	170.654	84.0853	170.654	83.9239	170.654	83.9802	170.654	83.8731	170.654	83.8845	170.654	83.8287	170.654	83.8033	170.654	83.7892	170.654	83.7403	170.654	83.7538	170.654	83.6973	170.654	83.7225	170.654	83.6741	170.654	83.6962	170.654	83.6685	170.654	83.6771
176.514	84.524	176.514	84.4895	176.514	84.5379	176.514	84.4359	176.514	84.531	176.514	84.3659	176.514	84.5037	176.514	84.283	176.514	84.4577	176.514	84.1914	176.514	84.3951	176.514	84.0959	176.514	84.3185	176.514	84.0012	176.514	84.2312	176.514	83.9114	176.514	84.1366	176.514	83.8301	176.514	84.0386	176.514	83.7597	176.514	83.9413	176.514	83.7013	176.514	83.8492	176.514	83.6551	176.514	83.7664	176.514	83.62	176.514	83.6961	176.514	83.5944	176.514	83.6405	176.514	83.5763	176.514	83.6002	176.514	83.5641	176.514	83.5741	176.514	83.5569	176.514	83.56	176.514	83.555
183.105	84.4238	183.105	84.3981	183.105	84.4233	183.105	84.3478	183.105	84.3964	183.105	84.2758	183.105	84.3442	183.105	84.186	183.105	84.2691	183.105	84.0836	183.105	84.1744	183.105	83.9743	183.105	84.0647	183.105	83.864	183.105	83.9453	183.105	83.7583	183.105	83.8222	183.105	83.6622	183.105	83.7019	183.105	83.5794	183.105	83.5908	183.105	83.512	183.105	83.4947	183.105	83.4602	183.105	83.4182	183.105	83.4226	183.105	83.3633	183.105	83.3963	183.105	83.33	183.105	83.3776	183.105	83.3153	183.105	83.3629	183.105	83.3148	183.105	83.3493	183.105	83.3231	183.105	83.3357
189.697	84.4458	189.697	84.4245	189.697	84.4377	189.697	84.3759	189.697	84.3993	189.697	84.3035	189.697	84.3309	189.697	84.2116	189.697	84.2343	189.697	84.1054	189.697	84.1125	189.697	83.9903	189.697	83.9703	189.697	83.8721	189.697	83.8137	189.697	83.7561	189.697	83.6506	189.697	83.647	189.697	83.49	189.697	83.5483	189.697	83.3416	189.697	83.4623	189.697	83.2146	189.697	83.3896	189.697	83.1166	189.697	83.3291	189.697	83.0516	189.697	83.2784	189.697	83.0196	189.697	83.2339	189.697	83.0167	189.697	83.1922	189.697	83.0358	189.697	83.1508	189.697	83.069	189.697	83.109
196.289	84.4322	196.289	84.385	196.289	84.4476	196.289	84.3093	196.289	84.4298	196.289	84.2095	196.289	84.3785	196.289	84.0916	196.289	84.2951	196.289	83.9628	196.289	84.1822	196.289	83.8307	196.289	84.044	196.289	83.703	196.289	83.8861	196.289	83.5865	196.289	83.7163	196.289	83.4864	196.289	83.544	196.289	83.4053	196.289	83.38	196.289	83.3435	196.289	83.2354	196.289	83.2985	196.289	83.1203	196.289	83.2655	196.289	83.0415	196.289	83.2388	196.289	83.0008	196.289	83.2123	196.289	82.995	196.289	83.1813	196.289	83.0164	196.289	83.1435	196.289	83.0547	196.289	83.0997
202.881	84.3996	202.881	84.3419	202.881	84.4202	202.881	84.2494	202.881	84.4029	202.881	84.1266	202.881	84.3483	202.881	83.9794	202.881	84.2586	202.881	83.8159	202.881	84.1374	202.881	83.6454	202.881	83.9899	202.881	83.4784	202.881	83.8229	202.881	83.3255	202.881	83.6451	202.881	83.1957	202.881	83.4669	202.881	83.0956	202.881	83.2995	202.881	83.0279	202.881	83.1544	202.881	82.9907	202.881	83.0408	202.881	82.978	202.881	82.9642	202.881	82.981	202.881	82.9245	202.881	82.9896	202.881	82.9162	202.881	82.995	202.881	82.9296	202.881	82.9911	202.881	82.9532	202.881	82.9762
210.205	84.3336	210.205	84.276	210.205	84.3514	210.205	84.1801	210.205	84.3292	210.205	84.049	210.205	84.2682	210.205	83.8879	210.205	84.1708	210.205	83.7038	210.205	84.0409	210.205	83.5062	210.205	83.8837	210.205	83.3065	210.205	83.7064	210.205	83.1172	210.205	83.5179	210.205	82.9513	210.205	83.3292	210.205	82.8196	210.205	83.1524	210.205	82.729	210.205	82.9995	210.205	82.6807	210.205	82.8803	210.205	82.6695	210.205	82.7999	210.205	82.6851	210.205	82.7573	210.205	82.7142	210.205	82.7451	210.205	82.7439	210.205	82.7518	210.205	82.7643	210.205	82.7641	210.205	82.7706
217.529	84.2549	217.529	84.2075	217.529	84.2624	217.529	84.1213	217.529	84.2303	217.529	83.9993	217.529	84.1602	217.529	83.846	217.529	84.055	217.529	83.6681	217.529	83.919	217.529	83.4746	217.529	83.7579	217.529	83.2762	217.529	83.5793	217.529	83.0852	217.529	83.3924	217.529	82.9144	217.529	83.2081	217.529	82.7751	217.529	83.0383	217.529	82.6753	217.529	82.8943	217.529	82.6177	217.529	82.7847	217.529	82.5986	217.529	82.7135	217.529	82.6087	217.529	82.6784	217.529	82.6354	217.529	82.6713	217.529	82.6654	217.529	82.6803	217.529	82.6879	217.529	82.6924	217.529	82.6969
225.586	84.233	225.586	84.1998	225.586	84.217	225.586	84.1191	225.586	84.1519	225.586	83.9941	225.586	84.0395	225.586	83.8302	225.586	83.8836	225.586	83.6351	225.586	83.6903	225.586	83.4189	225.586	83.4688	225.586	83.1949	225.586	83.2317	225.586	82.9787	225.586	82.9949	225.586	82.7871	225.586	82.777	225.586	82.6358	225.586	82.5971	225.586	82.536	225.586	82.471	225.586	82.4916	225.586	82.4071	225.586	82.4971	225.586	82.4032	225.586	82.5384	225.586	82.4468	225.586	82.5965	225.586	82.5179	225.586	82.651	225.586	82.5939	225.586	82.6849	225.586	82.6549	225.586	82.6872
232.91	84.2914	232.91	84.2438	232.91	84.2882	232.91	84.1484	232.91	84.2322	232.91	84.0095	232.91	84.1226	232.91	83.8325	232.91	83.9601	232.91	83.6246	232.91	83.7477	232.91	83.3953	232.91	83.4913	232.91	83.1561	232.91	83.2014	232.91	82.9212	232.91	82.8939	232.91	82.7063	232.91	82.5905	232.91	82.5264	232.91	82.3177	232.91	82.3933	232.91	82.1023	232.91	82.3123	232.91	81.9651	232.91	82.2798	232.91	81.9132	232.91	82.2832	232.91	81.9374	232.91	82.3039	232.91	82.0144	232.91	82.3211	232.91	82.1145	232.91	82.3171	232.91	82.2099	232.91	82.2806
241.699	84.0776	241.699	84.0001	241.699	84.1043	241.699	83.8734	241.699	84.0794	241.699	83.7003	241.699	84.0027	241.699	83.4857	241.699	83.8749	241.699	83.2366	241.699	83.6977	241.699	82.9633	241.699	83.4747	241.699	82.6798	241.699	83.2122	241.699	82.4037	241.699	82.9208	241.699	82.1553	241.699	82.6166	241.699	81.9541	241.699	82.3211	241.699	81.8152	241.699	82.0599	241.699	81.7435	241.699	81.8575	241.699	81.7323	241.699	81.7306	241.699	81.7635	241.699	81.6815	241.699	81.8129	241.699	81.6964	241.699	81.8561	241.699	81.7497	241.699	81.8743	241.699	81.8121	241.699	81.8586
249.756	84.1256	249.756	84.0705	249.756	84.1241	249.756	83.9601	249.756	84.0653	249.756	83.797	249.756	83.9494	249.756	83.585	249.756	83.778	249.756	83.3302	249.756	83.5541	249.756	83.0416	249.756	83.2833	249.756	82.7319	249.756	82.9752	249.756	82.4183	249.756	82.6443	249.756	82.1219	249.756	82.311	249.756	81.8659	249.756	82.0008	249.756	81.6709	249.756	81.7413	249.756	81.5495	249.756	81.5557	249.756	81.501	249.756	81.4551	249.756	81.5109	249.756	81.4337	249.756	81.5544	249.756	81.4701	249.756	81.6036	249.756	81.5341	249.756	81.6347	249.756	81.5959	249.756	81.6329
258.545	84.0963	258.545	84.027	258.545	84.1107	258.545	83.9042	258.545	84.0693	258.545	83.7309	258.545	83.9721	258.545	83.5116	258.545	83.8196	258.545	83.2533	258.545	83.6138	258.545	82.9662	258.545	83.3589	258.545	82.6645	258.545	83.0625	258.545	82.3665	258.545	82.7373	258.545	82.094	258.545	82.4026	258.545	81.869	258.545	82.0844	258.545	81.7095	258.545	81.8126	258.545	81.6237	258.545	81.6144	258.545	81.6062	258.545	81.5061	258.545	81.6384	258.545	81.4853	258.545	81.6938	258.545	81.5315	258.545	81.7443	258.545	81.6123	258.545	81.7673	258.545	81.6941	258.545	81.7505
268.066	83.8316	268.066	83.7475	268.066	83.8579	268.066	83.6063	268.066	83.8256	268.066	83.4093	268.066	83.7336	268.066	83.1594	268.066	83.5808	268.066	82.8621	268.066	83.3663	268.066	82.5272	268.066	83.091	268.066	82.17	268.066	82.7592	268.066	81.8125	268.066	82.3815	268.066	81.4828	268.066	81.9774	268.066	81.2116	268.066	81.5777	268.066	81.0246	268.066	81.2225	268.066	80.9338	268.066	80.954	268.066	80.9314	268.066	80.8022	268.066	80.9909	268.066	80.7711	268.066	81.0752	268.066	80.8352	268.066	81.1466	268.066	80.9495	268.066	81.1762	268.066	81.0665	268.066	81.1488
277.588	83.9301	277.588	83.8975	277.588	83.9023	277.588	83.8021	277.588	83.8182	277.588	83.6432	277.588	83.6831	277.588	83.4217	277.588	83.5035	277.588	83.141	277.588	83.2874	277.588	82.8082	277.588	83.0432	277.588	82.4359	277.588	82.7805	277.588	82.0439	277.588	82.5099	277.588	81.6607	277.588	82.2433	277.588	81.3222	277.588	81.9945	277.588	81.0653	277.588	81.7779	277.588	80.9169	277.588	81.6069	277.588	80.8824	277.588	81.4897	277.588	80.9415	277.588	81.426	277.588	81.0565	277.588	81.4041	277.588	81.1853	277.588	81.403	277.588	81.2945	277.588	81.3977	277.588	81.3658
287.109	83.762	287.109	83.7095	287.109	83.7485	287.109	83.5932	287.109	83.6673	287.109	83.4163	287.109	83.5183	287.109	83.1831	287.109	83.3034	287.109	82.9002	287.109	83.0281	287.109	82.577	287.109	82.7027	287.109	82.2282	287.109	82.3446	287.109	81.8747	287.109	81.9794	287.109	81.5443	287.109	81.6408	287.109	81.2694	287.109	81.3661	287.109	81.0804	287.109	81.1871	287.109	80.9962	287.109	81.1189	287.109	81.0162	287.109	81.1526	287.109	81.1181	287.109	81.2572	287.109	81.2647	287.109	81.39	287.109	81.4145	287.109	81.5093	287.109	81.5317	287.109	81.5827	287.109	81.5914
297.363	83.934	297.363	83.8577	297.363	83.9414	297.363	83.7154	297.363	83.8762	297.363	83.5091	297.363	83.7335	297.363	83.2411	297.363	83.5085	297.363	82.9157	297.363	83.1969	297.363	82.5408	297.363	82.7981	297.363	82.1309	297.363	82.3181	297.363	81.7097	297.363	81.7751	297.363	81.311	297.363	81.2056	297.363	80.9761	297.363	80.669	297.363	80.7448	297.363	80.2427	297.363	80.6405	297.363	79.9993	297.363	80.658	297.363	79.9701	297.363	80.7626	297.363	80.124	297.363	80.9018	297.363	80.3837	297.363	81.0206	297.363	80.6627	297.363	81.0745	297.363	80.8931	297.363	81.035
307.617	83.7588	307.617	83.6721	307.617	83.7855	307.617	83.525	307.617	83.752	307.617	83.3166	307.617	83.6569	307.617	83.0471	307.617	83.4982	307.617	82.719	307.617	83.2733	307.617	82.3392	307.617	82.9811	307.617	81.9223	307.617	82.624	307.617	81.4935	307.617	82.2119	307.617	81.091	307.617	81.7663	307.617	80.7627	307.617	81.3245	307.617	80.5551	307.617	80.9388	307.617	80.4947	307.617	80.6668	307.617	80.5718	307.617	80.5488	307.617	80.7419	307.617	80.586	307.617	80.9422	307.617	80.736	307.617	81.1122	307.617	80.9308	307.617	81.207	307.617	81.1033	307.617	81.2038
318.604	83.676	318.604	83.6042	318.604	83.678	318.604	83.4614	318.604	83.6106	318.604	83.2461	318.604	83.4734	318.604	82.9569	318.604	83.2656	318.604	82.5944	318.604	82.9865	318.604	82.1626	318.604	82.6375	318.604	81.6728	318.604	82.2239	318.604	81.1482	318.604	81.759	318.604	80.6283	318.604	81.2683	318.604	80.1703	318.604	80.793	318.604	79.84	318.604	80.3884	318.604	79.6879	318.604	80.1117	318.604	79.7213	318.604	79.9982	318.604	79.8957	318.604	80.0402	318.604	80.1346	318.604	80.1868	318.604	80.3602	318.604	80.3653	318.604	80.514	318.604	80.5073	318.604	80.5644
329.59	83.676	329.59	83.6128	329.59	83.6771	329.59	83.4858	329.59	83.6159	329.59	83.2915	329.59	83.4901	329.59	83.0262	329.59	83.2961	329.59	82.6865	329.59	83.0289	329.59	82.2721	329.59	82.6849	329.59	81.7894	329.59	82.2639	329.59	81.2563	329.59	81.774	329.59	80.7089	329.59	81.2369	329.59	80.205	329.59	80.695	329.59	79.818	329.59	80.2129	329.59	79.6128	329.59	79.8666	329.59	79.6103	329.59	79.7126	329.59	79.7703	329.59	79.7533	329.59	80.0095	329.59	79.9302	329.59	80.2389	329.59	80.1531	329.59	80.39	329.59	80.3374	329.59	80.4249
341.309	83.2851	341.309	83.2644	341.309	83.2373	341.309	83.1736	341.309	83.1219	341.309	83.0112	341.309	82.9404	341.309	82.7753	341.309	82.6945	341.309	82.4646	341.309	82.3879	341.309	82.0805	341.309	82.0273	341.309	81.6301	341.309	81.6247	341.309	81.1312	341.309	81.2009	341.309	80.6183	341.309	80.7883	341.309	80.1466	341.309	80.4305	341.309	79.7875	341.309	80.1761	341.309	79.6061	341.309	80.0615	341.309	79.6278	341.309	80.0924	341.309	79.819	341.309	80.2359	341.309	80.1015	341.309	80.4317	341.309	80.3883	341.309	80.6126	341.309	80.6102	341.309	80.7227	341.309	80.726
353.76	83.7196	353.76	83.6489	353.76	83.7141	353.76	83.5037	353.76	83.6281	353.76	83.2837	353.76	83.4553	353.76	82.9867	353.76	83.1877	353.76	82.6101	353.76	82.8172	353.76	82.1535	353.76	82.3369	353.76	81.6224	353.76	81.7457	353.76	81.0347	353.76	81.0545	353.76	80.4297	353.76	80.2988	353.76	79.8741	353.76	79.5536	353.76	79.4574	353.76	78.9417	353.76	79.2606	353.76	78.6038	353.76	79.3082	353.76	78.6158	353.76	79.5441	353.76	78.9228	353.76	79.8604	353.76	79.3761	353.76	80.1464	353.76	79.8232	353.76	80.3191	353.76	80.1589	353.76	80.3291
366.211	83.6577	366.211	83.5513	366.211	83.697	366.211	83.3757	366.211	83.6682	366.211	83.1268	366.211	83.5674	366.211	82.7991	366.211	83.3881	366.211	82.3875	366.211	83.1219	366.211	81.8904	366.211	82.76	366.211	81.3142	366.211	82.2963	366.211	80.6804	366.211	81.7316	366.211	80.0358	366.211	81.0814	366.211	79.4585	366.211	80.3868	366.211	79.0486	366.211	79.7256	366.211	78.8876	366.211	79.2098	366.211	78.9838	366.211	78.9472	366.211	79.2589	366.211	78.9733	366.211	79.5916	366.211	79.2181	366.211	79.8715	366.211	79.5497	366.211	80.0243	366.211	79.8431	366.211	80.0145
378.662	83.7742	378.662	83.7249	378.662	83.7626	378.662	83.6087	378.662	83.6918	378.662	83.4162	378.662	83.559	378.662	83.1353	378.662	83.3576	378.662	82.7535	378.662	83.0784	378.662	82.2597	378.662	82.7118	378.662	81.6497	378.662	82.252	378.662	80.9346	378.662	81.7022	378.662	80.1549	378.662	81.0838	378.662	79.4001	378.662	80.4482	378.662	78.8155	378.662	79.884	378.662	78.5565	378.662	79.5037	378.662	78.6824	378.662	79.392	378.662	79.0962	378.662	79.5434	378.662	79.617	378.662	79.8566	378.662	80.0848	378.662	80.194	378.662	80.4006	378.662	80.4398	378.662	80.5198
392.578	83.1845	392.578	83.1674	392.578	83.1509	392.578	83.0978	392.578	83.0644	392.578	82.9693	392.578	82.9186	392.578	82.771	392.578	82.7045	392.578	82.4889	392.578	82.4114	392.578	82.1077	392.578	82.0287	392.578	81.615	392.578	81.5495	392.578	81.0073	392.578	80.9761	392.578	80.3015	392.578	80.3297	392.578	79.5525	392.578	79.6642	392.578	78.8708	392.578	79.0766	392.578	78.4141	392.578	78.6937	392.578	78.3105	392.578	78.6104	392.578	78.5518	392.578	78.8141	392.578	78.9894	392.578	79.1829	392.578	79.44	392.578	79.5613	392.578	79.7683	392.578	79.8256	392.578	79.9031
405.762	83.1882	405.762	83.1335	405.762	83.1739	405.762	83.0107	405.762	83.0868	405.762	82.8176	405.762	82.9208	405.762	82.549	405.762	82.6679	405.762	82.1965	405.762	82.3187	405.762	81.7511	405.762	81.8644	405.762	81.2069	405.762	81.3002	405.762	80.5692	405.762	80.6333	405.762	79.8678	405.762	79.8958	405.762	79.1754	405.762	79.1646	405.762	78.6193	405.762	78.5743	405.762	78.3507	405.762	78.2851	405.762	78.4502	405.762	78.3827	405.762	78.8502	405.762	78.7942	405.762	79.3794	405.762	79.3395	405.762	79.867	405.762	79.8423	405.762	80.1974	405.762	80.1857	405.762	80.3099
420.41	83.3167	420.41	83.2496	420.41	83.3295	420.41	83.1278	420.41	83.2826	420.41	82.9452	420.41	83.1655	420.41	82.6902	420.41	82.9628	420.41	82.3468	420.41	82.6558	420.41	81.8964	420.41	82.2239	420.41	81.3217	420.41	81.648	420.41	80.6134	420.41	80.916	420.41	79.7843	420.41	80.0359	420.41	78.8946	420.41	79.0605	420.41	78.0848	420.41	78.1284	420.41	77.5743	420.41	77.4808	420.41	77.5414	420.41	77.3497	420.41	77.948	420.41	77.7334	420.41	78.5618	420.41	78.3818	420.41	79.139	420.41	79.0168	420.41	79.5233	420.41	79.4628	420.41	79.6388
435.059	83.2691	435.059	83.2211	435.059	83.2674	435.059	83.1171	435.059	83.215	435.059	82.945	435.059	83.1034	435.059	82.6884	435.059	82.9167	435.059	82.3285	435.059	82.6332	435.059	81.8472	435.059	82.2276	435.059	81.2317	435.059	81.6749	435.059	80.4827	435.059	80.9567	435.059	79.6311	435.059	80.0745	435.059	78.7663	435.059	79.0777	435.059	78.0613	435.059	78.1117	435.059	77.7352	435.059	77.447	435.059	77.8984	435.059	77.3538	435.059	78.4314	435.059	77.8281	435.059	79.0862	435.059	78.58	435.059	79.6498	435.059	79.3047	435.059	79.9948	435.059	79.8232	435.059	80.0592
450.439	82.9962	450.439	82.9782	450.439	82.982	450.439	82.924	450.439	82.9328	450.439	82.8221	450.439	82.8393	450.439	82.6531	450.439	82.6863	450.439	82.3899	450.439	82.4522	450.439	82.0005	450.439	82.1107	450.439	81.4497	450.439	81.6328	450.439	80.7051	450.439	80.9913	450.439	79.7475	450.439	80.1698	450.439	78.6004	450.439	79.1845	450.439	77.3978	450.439	78.1291	450.439	76.4758	450.439	77.2379	450.439	76.2725	450.439	76.8538	450.439	76.8501	450.439	77.1387	450.439	77.7815	450.439	77.854	450.439	78.6342	450.439	78.6151	450.439	79.1879	450.439	79.1602	450.439	79.3657
466.553	82.9055	466.553	82.8648	466.553	82.9162	466.553	82.794	466.553	82.8901	466.553	82.6853	466.553	82.814	466.553	82.5228	466.553	82.6679	466.553	82.2825	466.553	82.4259	466.553	81.9345	466.553	82.0579	466.553	81.4463	466.553	81.5324	466.553	80.7891	466.553	80.8202	466.553	79.9486	466.553	79.9051	466.553	78.951	466.553	78.8069	466.553	77.9135	466.553	77.638	466.553	77.1014	466.553	76.6831	466.553	76.8495	466.553	76.3476	466.553	77.2413	466.553	76.7713	466.553	77.9815	466.553	77.6206	466.553	78.7029	466.553	78.4683	466.553	79.1787	466.553	79.0646	466.553	79.309
482.666	82.5996	482.666	82.579	482.666	82.596	482.666	82.5329	482.666	82.563	482.666	82.4528	482.666	82.4893	482.666	82.3206	482.666	82.3567	482.666	82.1094	482.666	82.14	482.666	81.7848	482.666	81.8078	482.666	81.3084	482.666	81.3247	482.666	80.6433	482.666	80.6557	482.666	79.7644	482.666	79.7761	482.666	78.6845	482.666	78.6961	482.666	77.518	482.666	77.5224	482.666	76.5774	482.666	76.5571	482.666	76.3171	482.666	76.2589	482.666	76.868	482.666	76.7869	482.666	77.8266	482.666	77.7506	482.666	78.73	482.666	78.6752	482.666	79.3282	482.666	79.3002	482.666	79.5259
500.244	82.4618	500.244	82.3894	500.244	82.5085	500.244	82.2946	500.244	82.5223	500.244	82.1743	500.244	82.4916	500.244	82.0159	500.244	82.3988	500.244	81.7955	500.244	82.218	500.244	81.4794	500.244	81.9164	500.244	81.0291	500.244	81.4557	500.244	80.4085	500.244	80.7958	500.244	79.5963	500.244	79.9029	500.244	78.6128	500.244	78.7702	500.244	77.5768	500.244	77.477	500.244	76.778	500.244	76.3134	500.244	76.5963	500.244	75.8212	500.244	77.1163	500.244	76.3015	500.244	77.9866	500.244	77.3477	500.244	78.7982	500.244	78.3877	500.244	79.3136	500.244	79.1167	500.244	79.4308
517.822	81.8394	517.822	81.8112	517.822	81.8572	517.822	81.7684	517.822	81.8686	517.822	81.7045	517.822	81.8728	517.822	81.6057	517.822	81.8575	517.822	81.4461	517.822	81.7947	517.822	81.1873	517.822	81.6429	517.822	80.782	517.822	81.3522	517.822	80.1806	517.822	80.8707	517.822	79.341	517.822	80.1507	517.822	78.2538	517.822	79.1631	517.822	77.0119	517.822	77.9397	517.822	75.9493	517.822	76.6846	517.822	75.6447	517.822	75.9063	517.822	76.3152	517.822	76.1133	517.822	77.449	517.822	77.0849	517.822	78.4751	517.822	78.1699	517.822	79.1173	517.822	78.9539	517.822	79.2825
536.133	82.2411	536.133	82.1878	536.133	82.2108	536.133	82.0696	536.133	82.0956	536.133	81.9156	536.133	81.9083	536.133	81.7458	536.133	81.662	536.133	81.5526	536.133	81.355	536.133	81.2915	536.133	80.9598	536.133	80.8882	536.133	80.4226	536.133	80.2509	536.133	79.6716	536.133	79.281	536.133	78.6306	536.133	77.8891	536.133	77.2511	536.133	76.0731	536.133	75.6258	536.133	74.2554	536.133	74.307	536.133	73.7819	536.133	74.3519	536.133	75.2303	536.133	75.7932	536.133	77.184	536.133	77.5273	536.133	78.7242	536.133	78.8986	536.133	79.659	536.133	79.7299	536.133	79.9877
554.443	82.4634	554.443	82.352	554.443	82.5299	554.443	82.2049	554.443	82.5582	554.443	82.0435	554.443	82.5606	554.443	81.8847	554.443	82.538	554.443	81.7202	554.443	82.4653	554.443	81.5064	554.443	82.2894	554.443	81.1692	554.443	81.9354	554.443	80.6177	554.443	81.3133	554.443	79.754	554.443	80.3162	554.443	78.4841	554.443	78.8109	554.443	76.7609	554.443	76.6357	554.443	74.796	554.443	73.7577	554.443	73.6134	554.443	71.4459	554.443	74.4002	554.443	72.6426	554.443	76.2167	554.443	75.3637	554.443	77.803	554.443	77.4344	554.443	78.7731	554.443	78.6367	554.443	79.0611
574.219	82.4626	574.219	82.391	574.219	82.4467	574.219	82.2575	574.219	82.357	574.219	82.1162	574.219	82.2372	574.219	82.0181	574.219	82.1335	574.219	81.9707	574.219	82.0618	574.219	81.9198	574.219	81.9869	574.219	81.7648	574.219	81.8301	574.219	81.3877	574.219	81.4907	574.219	80.6663	574.219	80.8612	574.219	79.47	574.219	79.8306	574.219	77.6535	574.219	78.2874	574.219	75.1394	574.219	76.1857	574.219	72.6075	574.219	73.9516	574.219	72.6677	574.219	73.3172	574.219	75.035	574.219	74.9593	574.219	77.1355	574.219	76.9234	574.219	78.3561	574.219	78.2231	574.219	78.706
594.727	82.465	594.727	82.3514	594.727	82.4386	594.727	82.1157	594.727	82.3017	594.727	81.8189	594.727	82.1194	594.727	81.5427	594.727	81.9635	594.727	81.3437	594.727	81.8691	594.727	81.2103	594.727	81.8033	594.727	81.0573	594.727	81.6739	594.727	80.7605	594.727	81.3609	594.727	80.1924	594.727	80.7404	594.727	79.2394	594.727	79.6873	594.727	77.8285	594.727	78.0769	594.727	76.0617	594.727	75.8715	594.727	74.6634	594.727	73.6789	594.727	74.9426	594.727	73.5887	594.727	76.5803	594.727	75.6632	594.727	78.2021	594.727	77.7172	594.727	79.2187	594.727	79.0133	594.727	79.5016
615.234	82.9385	615.234	82.8095	615.234	82.8916	615.234	82.5259	615.234	82.6968	615.234	82.1592	615.234	82.4217	615.234	81.8152	615.234	82.1519	615.234	81.5834	615.234	81.9481	615.234	81.4693	615.234	81.8027	615.234	81.3707	615.234	81.631	615.234	81.1222	615.234	81.3021	615.234	80.5465	615.234	80.6724	615.234	79.4665	615.234	79.5954	615.234	77.6918	615.234	77.9212	615.234	75.0725	615.234	75.5695	615.234	72.2428	615.234	73.1167	615.234	72.3974	615.234	72.9468	615.234	75.1421	615.234	75.1895	615.234	77.4246	615.234	77.3419	615.234	78.7262	615.234	78.6629	615.234	79.1212
637.207	83.7013	637.207	83.5211	637.207	83.6176	637.207	83.0994	637.207	83.2973	637.207	82.5174	637.207	82.8223	637.207	81.9258	637.207	82.3324	637.207	81.5093	637.207	81.9886	637.207	81.366	637.207	81.8693	637.207	81.4006	637.207	81.8874	637.207	81.3803	637.207	81.837	637.207	81.0596	637.207	81.4942	637.207	80.2222	637.207	80.6533	637.207	78.6477	637.207	79.0964	637.207	76.092	637.207	76.561	637.207	72.8159	637.207	73.1314	637.207	72.4103	637.207	72.1569	637.207	75.6346	637.207	75.3694	637.207	78.3326	637.207	78.1968	637.207	79.857	637.207	79.8024	637.207	80.3303
659.912	83.7341	659.912	83.5755	659.912	83.6536	659.912	83.1908	659.912	83.3655	659.912	82.6449	659.912	82.9448	659.912	82.0622	659.912	82.5062	659.912	81.6001	659.912	82.1707	659.912	81.3556	659.912	81.995	659.912	81.2706	659.912	81.9176	659.912	81.1539	659.912	81.7842	659.912	80.7802	659.912	81.4135	659.912	79.943	659.912	80.6316	659.912	78.4451	659.912	79.2648	659.912	76.117	659.912	77.1404	659.912	73.2944	659.912	74.3348	659.912	72.6247	659.912	72.6307	659.912	75.0561	659.912	74.3731	659.912	77.4059	659.912	76.8674	659.912	78.7539	659.912	78.486	659.912	79.104
683.35	84.4647	683.35	84.3222	683.35	84.3251	683.35	83.9053	683.35	83.9278	683.35	83.2628	683.35	83.3375	683.35	82.5065	683.35	82.6757	683.35	81.8224	683.35	82.1154	683.35	81.4005	683.35	81.8009	683.35	81.274	683.35	81.7223	683.35	81.2557	683.35	81.6969	683.35	81.0638	683.35	81.4788	683.35	80.4403	683.35	80.8419	683.35	79.1586	683.35	79.5792	683.35	77.0122	683.35	77.4938	683.35	74.1744	683.35	74.6933	683.35	73.1573	683.35	73.3379	683.35	75.6882	683.35	75.5737	683.35	78.3023	683.35	78.1899	683.35	79.8488	683.35	79.7913	683.35	80.3317
706.787	84.8675	706.787	84.6804	706.787	84.745	706.787	84.1889	706.787	84.3257	706.787	83.4325	706.787	83.653	706.787	82.5286	706.787	82.8369	706.787	81.7208	706.787	82.0915	706.787	81.3039	706.787	81.6706	706.787	81.3427	706.787	81.6384	706.787	81.5508	706.787	81.7544	706.787	81.5386	706.787	81.662	706.787	80.9936	706.787	81.0537	706.787	79.6418	706.787	79.6509	706.787	77.1391	706.787	77.1094	706.787	73.257	706.787	73.2488	706.787	71.65	706.787	71.8418	706.787	75.5361	706.787	75.6822	706.787	78.7166	706.787	78.7928	706.787	80.4458	706.787	80.479	706.787	80.9998
731.689	84.9319	731.689	84.834	731.689	84.7668	731.689	84.4682	731.689	84.3467	731.689	83.8418	731.689	83.6949	731.689	83.0065	731.689	82.8828	731.689	82.1093	731.689	82.0726	731.689	81.4084	731.689	81.5025	731.689	81.1166	731.689	81.3178	731.689	81.1416	731.689	81.3843	731.689	81.1202	731.689	81.3724	731.689	80.6637	731.689	80.9512	731.689	79.4268	731.689	79.8269	731.689	77.0021	731.689	77.6543	731.689	72.9312	731.689	73.9875	731.689	70.4586	731.689	70.4655	731.689	74.6472	731.689	73.6621	731.689	78.051	731.689	77.4036	731.689	79.7988	731.689	79.4935	731.689	80.245
758.057	85.0576	758.057	84.904	758.057	84.908	758.057	84.4438	758.057	84.456	758.057	83.6841	758.057	83.7119	758.057	82.6846	758.057	82.7355	758.057	81.6374	758.057	81.7093	758.057	80.9032	758.057	80.9703	758.057	80.7641	758.057	80.7864	758.057	81.0396	758.057	81.0031	758.057	81.25	758.057	81.1729	758.057	80.9855	758.057	80.8957	758.057	79.9389	758.057	79.8648	758.057	77.7704	758.057	77.7383	758.057	74.1051	758.057	74.0861	758.057	71.2959	758.057	70.8229	758.057	74.8063	758.057	74.2572	758.057	78.2721	758.057	77.948	758.057	80.1296	758.057	79.9786	758.057	80.6628
784.424	84.9535	784.424	84.8151	784.424	84.8131	784.424	84.3786	784.424	84.3948	784.424	83.6186	784.424	83.6911	784.424	82.5466	784.424	82.723	784.424	81.3043	784.424	81.6088	784.424	80.2855	784.424	80.6359	784.424	79.9729	784.424	80.1542	784.424	80.3104	784.424	80.188	784.424	80.7002	784.424	80.3393	784.424	80.6036	784.424	80.1484	784.424	79.6547	784.424	79.2599	784.424	77.4575	784.424	77.3187	784.424	73.4292	784.424	73.8456	784.424	69.8733	784.424	69.9114	784.424	74.1204	784.424	72.806	784.424	77.7993	784.424	76.8425	784.424	79.6104	784.424	79.1342	784.424	80.0087
812.256	85.0626	812.256	84.9482	812.256	84.9188	812.256	84.5568	812.256	84.5065	812.256	83.8459	812.256	83.7999	812.256	82.779	812.256	82.7915	812.256	81.4084	812.256	81.5627	812.256	80.0558	812.256	80.3975	812.256	79.3891	812.256	79.7613	812.256	79.683	812.256	79.8128	812.256	80.2652	812.256	80.0942	812.256	80.379	812.256	80.0176	812.256	79.562	812.256	79.1572	812.256	77.3737	812.256	77.1089	812.256	73.1178	812.256	73.3087	812.256	69.4771	812.256	69.4585	812.256	74.4043	812.256	73.4115	812.256	78.1506	812.256	77.4112	812.256	79.9638	812.256	79.5867	812.256	80.3893
840.82	85.0668	840.82	84.9301	840.82	84.9746	840.82	84.549	840.82	84.6309	840.82	83.8714	840.82	83.9893	840.82	82.8299	840.82	83.0089	840.82	81.4025	840.82	81.7118	840.82	79.7764	840.82	80.3027	840.82	78.61	840.82	79.2802	840.82	78.5987	840.82	79.0728	840.82	79.2563	840.82	79.3579	840.82	79.5844	840.82	79.4154	840.82	78.9593	840.82	78.696	840.82	76.8544	840.82	76.7314	840.82	72.2856	840.82	72.8649	840.82	67.4925	840.82	68.8006	840.82	73.8509	840.82	73.2454	840.82	77.9703	840.82	77.3778	840.82	79.8966	840.82	79.5759	840.82	80.3666
870.85	85.0546	870.85	84.965	870.85	84.9527	870.85	84.6614	870.85	84.6286	870.85	84.0698	870.85	84.016	870.85	83.0859	870.85	83.0451	870.85	81.628	870.85	81.7041	870.85	79.795	870.85	80.1845	870.85	78.2694	870.85	79.0788	870.85	78.1498	870.85	78.9786	870.85	79.0438	870.85	79.4891	870.85	79.6452	870.85	79.7395	870.85	79.2327	870.85	79.1563	870.85	77.296	870.85	77.3008	870.85	72.8045	870.85	73.5096	870.85	66.4517	870.85	68.7317	870.85	73.4015	870.85	72.9208	870.85	77.8841	870.85	77.3034	870.85	79.923	870.85	79.6022	870.85	80.4203
901.611	84.8381	901.611	84.756	901.611	84.8041	901.611	84.5487	901.611	84.6028	901.611	84.1389	901.611	84.1487	901.611	83.4003	901.611	83.3511	901.611	82.2017	901.611	82.1525	901.611	80.495	901.611	80.6234	901.611	78.5904	901.611	79.1708	901.611	77.5623	901.611	78.5373	901.611	78.0229	901.611	78.8147	901.611	78.7458	901.611	79.1299	901.611	78.5717	901.611	78.6768	901.611	76.7796	901.611	76.8334	901.611	71.919	901.611	72.493	901.611	60.2096	901.611	65.2462	901.611	73.1133	901.611	72.8782	901.611	78.2291	901.611	77.899	901.611	80.4936	901.611	80.3107	901.611	81.1049
933.105	85.1836	933.105	85.066	933.105	85.1549	933.105	84.802	933.105	84.9355	933.105	84.3294	933.105	84.4493	933.105	83.5215	933.105	83.5977	933.105	82.2162	933.105	82.2881	933.105	80.3195	933.105	80.5416	933.105	78.2224	933.105	78.8241	933.105	77.4948	933.105	78.2331	933.105	78.6417	933.105	78.9203	933.105	79.7989	933.105	79.633	933.105	79.8837	933.105	79.4887	933.105	78.4092	933.105	77.9811	933.105	74.401	933.105	74.2634	933.105	62.6842	933.105	66.3353	933.105	70.5905	933.105	70.9459	933.105	76.9527	933.105	76.759	933.105	79.5258	933.105	79.3934	933.105	80.2212
966.064	84.7957	966.064	84.6327	966.064	84.8879	966.064	84.4436	966.064	84.8148	966.064	84.1727	966.064	84.4622	966.064	83.6471	966.064	83.7065	966.064	82.6172	966.064	82.4271	966.064	80.8271	966.064	80.5735	966.064	78.2382	966.064	78.4519	966.064	76.1874	966.064	77.2642	966.064	77.0899	966.064	77.7927	966.064	78.8484	966.064	78.6774	966.064	79.4249	966.064	78.722	966.064	78.2372	966.064	77.3345	966.064	74.2435	966.064	73.5863	966.064	59.5203	966.064	65.4366	966.064	71.7741	966.064	71.7352	966.064	78.0129	966.064	77.4945	966.064	80.516	966.064	80.1965	966.064	81.1238
999.756	84.5335	999.756	84.3372	999.756	84.6688	999.756	84.1407	999.756	84.6645	999.756	83.9262	999.756	84.4259	999.756	83.5357	999.756	83.8236	999.756	82.6947	999.756	82.6939	999.756	81.0809	999.756	80.8783	999.756	78.4611	999.756	78.4369	999.756	75.7566	999.756	76.5247	999.756	76.4552	999.756	77.0104	999.756	78.7918	999.756	78.4255	999.756	79.8795	999.756	78.9221	999.756	79.1183	999.756	77.8193	999.756	75.6331	999.756	74.1449	999.756	63.3406	999.756	62.5181	999.756	71.2346	999.756	70.3702	999.756	78.0898	999.756	77.1909	999.756	80.6307	999.756	80.1123	999.756	81.158
1,034.91	83.5539	1,034.91	83.3232	1,034.91	83.7291	1,034.91	83.124	1,034.91	83.8013	1,034.91	83.0245	1,034.91	83.7094	1,034.91	82.9227	1,034.91	83.3264	1,034.91	82.5192	1,034.91	82.4681	1,034.91	81.4342	1,034.91	80.9403	1,034.91	79.2857	1,034.91	78.6676	1,034.91	76.0335	1,034.91	76.3041	1,034.91	74.624	1,034.91	75.9318	1,034.91	77.1436	1,034.91	77.2877	1,034.91	78.9816	1,034.91	78.0876	1,034.91	78.8105	1,034.91	77.3495	1,034.91	75.8991	1,034.91	74.1617	1,034.91	65.6806	1,034.91	64.2635	1,034.91	70.2918	1,034.91	69.0835	1,034.91	77.8199	1,034.91	76.662	1,034.91	80.5303	1,034.91	79.8756	1,034.91	81.0562
1,071.53	83.3822	1,071.53	83.0777	1,071.53	83.5651	1,071.53	82.7615	1,071.53	83.637	1,071.53	82.6245	1,071.53	83.606	1,071.53	82.6633	1,071.53	83.3769	1,071.53	82.5368	1,071.53	82.7527	1,071.53	81.7707	1,071.53	81.4915	1,071.53	79.9085	1,071.53	79.3827	1,071.53	76.6397	1,071.53	76.6566	1,071.53	74.077	1,071.53	75.424	1,071.53	76.5047	1,071.53	76.8452	1,071.53	78.8787	1,071.53	78.0517	1,071.53	79.1806	1,071.53	77.6531	1,071.53	76.8525	1,071.53	74.8446	1,071.53	68.955	1,071.53	66.0124	1,071.53	68.718	1,071.53	66.9105	1,071.53	77.2551	1,071.53	75.9586	1,071.53	80.1888	1,071.53	79.4696	1,071.53	80.744
1,109.62	83.5427	1,109.62	83.2499	1,109.62	83.5726	1,109.62	82.7085	1,109.62	83.4702	1,109.62	82.1698	1,109.62	83.3428	1,109.62	81.9286	1,109.62	83.1347	1,109.62	81.8578	1,109.62	82.6244	1,109.62	81.4156	1,109.62	81.5337	1,109.62	80.0225	1,109.62	79.63	1,109.62	77.1981	1,109.62	76.9944	1,109.62	73.9105	1,109.62	75.2151	1,109.62	75.5143	1,109.62	76.2096	1,109.62	78.3321	1,109.62	77.6114	1,109.62	79.0728	1,109.62	77.6221	1,109.62	77.2323	1,109.62	75.4575	1,109.62	70.8239	1,109.62	68.6614	1,109.62	67.6473	1,109.62	63.0712	1,109.62	76.6591	1,109.62	74.9881	1,109.62	79.8485	1,109.62	79.0261	1,109.62	80.4538
1,148.44	84.4127	1,148.44	84.1298	1,148.44	84.2914	1,148.44	83.3886	1,148.44	83.9652	1,148.44	82.4178	1,148.44	83.6472	1,148.44	81.7522	1,148.44	83.39	1,148.44	81.6294	1,148.44	82.9986	1,148.44	81.4617	1,148.44	82.145	1,148.44	80.4458	1,148.44	80.5219	1,148.44	77.9578	1,148.44	78.0376	1,148.44	74.3044	1,148.44	75.807	1,148.44	74.9667	1,148.44	76.3541	1,148.44	78.1549	1,148.44	77.9733	1,148.44	79.3526	1,148.44	78.3553	1,148.44	78.0415	1,148.44	76.6723	1,148.44	72.7941	1,148.44	71.1175	1,148.44	66.5622	1,148.44	57.4636	1,148.44	76.269	1,148.44	74.4245	1,148.44	79.836	1,148.44	78.9823	1,148.44	80.5326
1,189.45	84.6141	1,189.45	84.4303	1,189.45	84.3391	1,189.45	83.6619	1,189.45	83.8173	1,189.45	82.3869	1,189.45	83.2844	1,189.45	81.121	1,189.45	82.866	1,189.45	80.6072	1,189.45	82.419	1,189.45	80.6032	1,189.45	81.5944	1,189.45	80.0349	1,189.45	80.0329	1,189.45	77.9812	1,189.45	77.5517	1,189.45	73.8539	1,189.45	75.1062	1,189.45	73.0478	1,189.45	75.6602	1,189.45	77.4626	1,189.45	77.6523	1,189.45	79.5778	1,189.45	78.4036	1,189.45	79.0134	1,189.45	77.1181	1,189.45	74.9904	1,189.45	72.3903	1,189.45	67.8526	1,189.45	51.4249	1,189.45	75.8601	1,189.45	73.4462	1,189.45	79.6729	1,189.45	78.5769	1,189.45	80.3454
1,231.2	84.9073	1,231.2	84.9428	1,231.2	84.4373	1,231.2	84.383	1,231.2	83.7094	1,231.2	83.1407	1,231.2	82.9174	1,231.2	81.389	1,231.2	82.21	1,231.2	79.8846	1,231.2	81.5137	1,231.2	79.3559	1,231.2	80.5043	1,231.2	78.9777	1,231.2	78.7867	1,231.2	77.3331	1,231.2	76.1303	1,231.2	73.2148	1,231.2	73.7162	1,231.2	70.6851	1,231.2	74.7621	1,231.2	76.1173	1,231.2	76.8654	1,231.2	78.9826	1,231.2	77.4991	1,231.2	78.9963	1,231.2	76.0422	1,231.2	75.672	1,231.2	71.0652	1,231.2	67.3048	1,231.2	51.9896	1,231.2	74.641	1,231.2	72.9582	1,231.2	79.0119	1,231.2	78.0468	1,231.2	79.8181
1,274.41	84.3906	1,274.41	84.5251	1,274.41	83.909	1,274.41	84.2011	1,274.41	83.1245	1,274.41	83.2617	1,274.41	82.1607	1,274.41	81.6514	1,274.41	81.3325	1,274.41	79.7267	1,274.41	80.8164	1,274.41	78.4593	1,274.41	80.2518	1,274.41	78.0287	1,274.41	78.976	1,274.41	77.0247	1,274.41	76.2201	1,274.41	73.762	1,274.41	71.1193	1,274.41	66.6881	1,274.41	70.0034	1,274.41	72.7223	1,274.41	74.6799	1,274.41	77.5484	1,274.41	76.59	1,274.41	78.6716	1,274.41	75.8495	1,274.41	76.5156	1,274.41	71.8148	1,274.41	69.6117	1,274.41	54.9715	1,274.41	72.0812	1,274.41	70.5705	1,274.41	77.1925	1,274.41	76.3785	1,274.41	78.2351
1,319.82	83.3863	1,319.82	83.4239	1,319.82	83.1173	1,319.82	83.2397	1,319.82	82.4891	1,319.82	82.681	1,319.82	81.4902	1,319.82	81.5823	1,319.82	80.4359	1,319.82	79.9961	1,319.82	79.7918	1,319.82	78.4748	1,319.82	79.4859	1,319.82	77.6908	1,319.82	78.8177	1,319.82	77.0509	1,319.82	76.9925	1,319.82	75.0777	1,319.82	73.1523	1,319.82	69.9835	1,319.82	68.3701	1,319.82	67.838	1,319.82	71.9177	1,319.82	74.2137	1,319.82	75.0246	1,319.82	76.399	1,319.82	75.2815	1,319.82	74.9334	1,319.82	72.4005	1,319.82	67.9395	1,319.82	61.3223	1,319.82	68.6182	1,319.82	68.3349	1,319.82	75.2757	1,319.82	75.0386	1,319.82	76.82
1,365.97	82.8228	1,365.97	82.7161	1,365.97	82.7169	1,365.97	82.483	1,365.97	82.2263	1,365.97	82.0313	1,365.97	81.2792	1,365.97	81.1969	1,365.97	80.0571	1,365.97	79.9457	1,365.97	79.0121	1,365.97	78.5391	1,365.97	78.4293	1,365.97	77.3774	1,365.97	77.8776	1,365.97	76.2777	1,365.97	76.536	1,365.97	74.2827	1,365.97	73.5302	1,365.97	70.2852	1,365.97	68.2428	1,365.97	68.3277	1,365.97	69.0919	1,365.97	72.9885	1,365.97	73.4122	1,365.97	75.178	1,365.97	74.7683	1,365.97	74.005	1,365.97	73.1152	1,365.97	67.2134	1,365.97	65.753	1,365.97	64.7383	1,365.97	63.6751	1,365.97	73.4682	1,365.97	73.1367	1,365.97	75.2864
1,414.31	82.3438	1,414.31	82.0733	1,414.31	82.4147	1,414.31	81.8046	1,414.31	82.0294	1,414.31	81.4573	1,414.31	81.0884	1,414.31	80.7517	1,414.31	79.7458	1,414.31	79.5201	1,414.31	78.4474	1,414.31	77.9689	1,414.31	77.6652	1,414.31	76.6706	1,414.31	77.2101	1,414.31	75.7131	1,414.31	76.27	1,414.31	74.1211	1,414.31	73.9642	1,414.31	70.632	1,414.31	69.5003	1,414.31	67.9007	1,414.31	67.817	1,414.31	72.3652	1,414.31	71.9967	1,414.31	74.8558	1,414.31	73.6373	1,414.31	73.9642	1,414.31	72.1709	1,414.31	67.8635	1,414.31	65.3759	1,414.31	62.7611	1,414.31	61.0283	1,414.31	72.2683	1,414.31	71.6294	1,414.31	74.0549
1,464.11	82.3849	1,464.11	82.0081	1,464.11	82.4577	1,464.11	81.4878	1,464.11	82.1057	1,464.11	80.8849	1,464.11	81.2976	1,464.11	80.0825	1,464.11	80.1	1,464.11	78.9481	1,464.11	78.745	1,464.11	77.6109	1,464.11	77.6814	1,464.11	76.5229	1,464.11	77.1058	1,464.11	75.7765	1,464.11	76.4419	1,464.11	74.4773	1,464.11	74.7701	1,464.11	71.1746	1,464.11	71.0543	1,464.11	66.295	1,464.11	65.9474	1,464.11	71.0154	1,464.11	69.4459	1,464.11	74.2687	1,464.11	72.4004	1,464.11	73.7044	1,464.11	72.1006	1,464.11	67.7903	1,464.11	67.5483	1,464.11	60.8042	1,464.11	56.2086	1,464.11	71.5579	1,464.11	70.0317	1,464.11	73.2011
1,515.38	82.2994	1,515.38	82.0642	1,515.38	82.2147	1,515.38	81.5555	1,515.38	81.8144	1,515.38	80.822	1,515.38	81.1097	1,515.38	79.8424	1,515.38	80.0679	1,515.38	78.6077	1,515.38	78.6977	1,515.38	77.3616	1,515.38	77.2853	1,515.38	76.5812	1,515.38	76.292	1,515.38	76.1672	1,515.38	75.586	1,515.38	75.1275	1,515.38	74.3326	1,515.38	72.2039	1,515.38	71.5587	1,515.38	66.9592	1,515.38	67.0561	1,515.38	69.4675	1,515.38	67.666	1,515.38	72.9539	1,515.38	70.6929	1,515.38	72.6337	1,515.38	70.637	1,515.38	66.7715	1,515.38	65.8597	1,515.38	60.3964	1,515.38	61.0823	1,515.38	71.6163	1,515.38	70.9525	1,515.38	73.5477
1,568.85	82.2929	1,568.85	81.955	1,568.85	82.2578	1,568.85	81.4508	1,568.85	81.7736	1,568.85	80.9283	1,568.85	80.8963	1,568.85	80.2701	1,568.85	79.7308	1,568.85	79.2048	1,568.85	78.4226	1,568.85	77.6739	1,568.85	77.1998	1,568.85	76.1926	1,568.85	76.2311	1,568.85	75.4575	1,568.85	75.3613	1,568.85	74.8649	1,568.85	74.1202	1,568.85	72.9199	1,568.85	71.9833	1,568.85	68.456	1,568.85	68.9563	1,568.85	67.8456	1,568.85	67.7344	1,568.85	71.8672	1,568.85	69.2548	1,568.85	72.2308	1,568.85	69.2298	1,568.85	66.986	1,568.85	64.6748	1,568.85	59.664	1,568.85	60.8622	1,568.85	71.6131	1,568.85	70.8333	1,568.85	73.559
1,624.51	81.9742	1,624.51	81.8066	1,624.51	81.9318	1,624.51	81.4548	1,624.51	81.621	1,624.51	80.9177	1,624.51	80.9653	1,624.51	80.1494	1,624.51	79.9219	1,624.51	79.0642	1,624.51	78.578	1,624.51	77.6807	1,624.51	77.2159	1,624.51	76.3503	1,624.51	76.1694	1,624.51	75.545	1,624.51	75.3906	1,624.51	74.8695	1,624.51	74.3225	1,624.51	73.1159	1,624.51	72.3065	1,624.51	69.3571	1,624.51	69.1532	1,624.51	68.5086	1,624.51	67.6495	1,624.51	72.161	1,624.51	69.4436	1,624.51	72.7773	1,624.51	69.6551	1,624.51	68.2533	1,624.51	65.1726	1,624.51	57.1669	1,624.51	56.9769	1,624.51	71.1282	1,624.51	70.2869	1,624.51	73.234
1,681.64	81.1344	1,681.64	81.0242	1,681.64	81.0806	1,681.64	80.7551	1,681.64	80.8413	1,681.64	80.3407	1,681.64	80.3364	1,681.64	79.7141	1,681.64	79.4967	1,681.64	78.7288	1,681.64	78.3745	1,681.64	77.3676	1,681.64	77.1647	1,681.64	76.082	1,681.64	76.09	1,681.64	75.5658	1,681.64	75.2118	1,681.64	75.2781	1,681.64	74.3089	1,681.64	73.7503	1,681.64	72.9184	1,681.64	69.9263	1,681.64	70.5849	1,681.64	68.2626	1,681.64	68.2075	1,681.64	71.8894	1,681.64	68.7826	1,681.64	72.4936	1,681.64	69.456	1,681.64	67.7019	1,681.64	66.2685	1,681.64	58.6455	1,681.64	43.4019	1,681.64	71.0291	1,681.64	68.6603	1,681.64	72.5768
1,740.97	81.5311	1,740.97	81.5416	1,740.97	81.2698	1,740.97	81.1165	1,740.97	81.0244	1,740.97	80.4382	1,740.97	80.7519	1,740.97	79.752	1,740.97	80.1632	1,740.97	78.9223	1,740.97	79.0824	1,740.97	77.6541	1,740.97	77.7265	1,740.97	76.2071	1,740.97	76.6638	1,740.97	75.6037	1,740.97	76.1072	1,740.97	75.5731	1,740.97	75.5344	1,740.97	74.296	1,740.97	74.3666	1,740.97	70.2722	1,740.97	72.3969	1,740.97	67.7654	1,740.97	70.2415	1,740.97	72.0969	1,740.97	69.5699	1,740.97	72.7877	1,740.97	69.5556	1,740.97	66.9447	1,740.97	67.0059	1,740.97	63.2302	1,740.97	52.8597	1,740.97	72.6903	1,740.97	67.9857	1,740.97	73.1941
1,802.49	82.6806	1,802.49	82.6805	1,802.49	82.4995	1,802.49	82.3637	1,802.49	82.2548	1,802.49	81.7738	1,802.49	81.9038	1,802.49	81.0673	1,802.49	81.3288	1,802.49	80.2087	1,802.49	80.446	1,802.49	78.9035	1,802.49	79.2274	1,802.49	77.0095	1,802.49	77.7485	1,802.49	75.3015	1,802.49	76.3101	1,802.49	74.8956	1,802.49	75.3277	1,802.49	74.3934	1,802.49	74.6632	1,802.49	71.7635	1,802.49	73.6068	1,802.49	67.7727	1,802.49	72.0146	1,802.49	70.8545	1,802.49	71.0195	1,802.49	72.4598	1,802.49	70.7319	1,802.49	67.9923	1,802.49	68.5567	1,802.49	63.7565	1,802.49	57.1814	1,802.49	73.0421	1,802.49	68.5948	1,802.49	73.85
1,866.21	82.8468	1,866.21	82.6878	1,866.21	82.7294	1,866.21	82.197	1,866.21	82.3896	1,866.21	81.4934	1,866.21	81.7833	1,866.21	80.8021	1,866.21	80.8726	1,866.21	80.1238	1,866.21	79.739	1,866.21	79.1522	1,866.21	78.5952	1,866.21	77.6761	1,866.21	77.6274	1,866.21	76.1059	1,866.21	76.6707	1,866.21	75.2805	1,866.21	75.3103	1,866.21	74.5892	1,866.21	73.5014	1,866.21	72.2828	1,866.21	71.9968	1,866.21	68.2103	1,866.21	71.3459	1,866.21	69.9261	1,866.21	71.0209	1,866.21	72.1097	1,866.21	70.4435	1,866.21	69.4755	1,866.21	68.267	1,866.21	59.332	1,866.21	61.3235	1,866.21	70.3288	1,866.21	67.7703	1,866.21	72.1833
1,932.13	82.3348	1,932.13	82.2134	1,932.13	82.0095	1,932.13	81.65	1,932.13	81.4762	1,932.13	80.8684	1,932.13	81.0422	1,932.13	80.1251	1,932.13	80.7155	1,932.13	79.4727	1,932.13	80.1168	1,932.13	78.65	1,932.13	78.9206	1,932.13	77.3723	1,932.13	77.221	1,932.13	75.9084	1,932.13	75.5572	1,932.13	75.1806	1,932.13	74.3668	1,932.13	74.822	1,932.13	73.2324	1,932.13	73.1511	1,932.13	71.6219	1,932.13	70.0615	1,932.13	70.1142	1,932.13	71.216	1,932.13	69.6378	1,932.13	73.3516	1,932.13	69.0597	1,932.13	70.7337	1,932.13	66.0369	1,932.13	49.7079	1,932.13	57.7338	1,932.13	71.1919	1,932.13	69.1653	1,932.13	73.238
2,000.24	83.1022	2,000.24	82.6566	2,000.24	83.2553	2,000.24	82.077	2,000.24	82.9509	2,000.24	81.3045	2,000.24	82.3154	2,000.24	80.3069	2,000.24	81.6508	2,000.24	79.2904	2,000.24	81.0423	2,000.24	78.321	2,000.24	80.2803	2,000.24	77.0191	2,000.24	79.1802	2,000.24	75.2233	2,000.24	77.7998	2,000.24	73.8652	2,000.24	76.3437	2,000.24	73.5165	2,000.24	74.8711	2,000.24	72.3485	2,000.24	73.168	2,000.24	69.5841	2,000.24	71.4274	2,000.24	70.9202	2,000.24	70.6567	2,000.24	73.2242	2,000.24	70.3183	2,000.24	70.7234	2,000.24	67.8649	2,000.24	60.6258	2,000.24	56.7786	2,000.24	71.5614	2,000.24	68.3836	2,000.24	73.1577
2,070.56	84.5277	2,070.56	84.1319	2,070.56	84.6021	2,070.56	83.5224	2,070.56	84.3146	2,070.56	82.7223	2,070.56	83.7476	2,070.56	81.6933	2,070.56	82.9913	2,070.56	80.4553	2,070.56	82.0947	2,070.56	79.0404	2,070.56	81.0866	2,070.56	77.3336	2,070.56	79.9677	2,070.56	75.2177	2,070.56	78.7341	2,070.56	73.3183	2,070.56	77.4109	2,070.56	72.5814	2,070.56	75.9637	2,070.56	71.4396	2,070.56	74.3015	2,070.56	67.8381	2,070.56	72.7732	2,070.56	67.1789	2,070.56	72.2387	2,070.56	71.5473	2,070.56	71.9659	2,070.56	71.3713	2,070.56	69.4132	2,070.56	63.1709	2,070.56	59.0035	2,070.56	67.9086	2,070.56	67.9534	2,070.56	71.6563
2,143.8	84.6439	2,143.8	84.4525	2,143.8	84.6714	2,143.8	84.1366	2,143.8	84.4149	2,143.8	83.6062	2,143.8	83.8024	2,143.8	82.7943	2,143.8	82.8473	2,143.8	81.7622	2,143.8	81.6571	2,143.8	80.5557	2,143.8	80.3616	2,143.8	79.015	2,143.8	78.9685	2,143.8	76.9514	2,143.8	77.4523	2,143.8	74.7693	2,143.8	75.9902	2,143.8	73.6141	2,143.8	74.7506	2,143.8	73.0189	2,143.8	73.2957	2,143.8	70.8933	2,143.8	71.2605	2,143.8	68.2096	2,143.8	70.3358	2,143.8	71.2381	2,143.8	71.1101	2,143.8	71.7473	2,143.8	69.6852	2,143.8	63.7988	2,143.8	58.7766	2,143.8	65.2088	2,143.8	66.7594	2,143.8	70.7916
2,219.24	83.5797	2,219.24	83.4146	2,219.24	83.655	2,219.24	83.0893	2,219.24	83.6127	2,219.24	82.5164	2,219.24	83.2922	2,219.24	81.6947	2,219.24	82.4831	2,219.24	80.7308	2,219.24	81.1459	2,219.24	79.6894	2,219.24	79.5005	2,219.24	78.4299	2,219.24	77.7852	2,219.24	76.7553	2,219.24	75.9987	2,219.24	74.8591	2,219.24	74.1457	2,219.24	73.6273	2,219.24	72.6176	2,219.24	73.0639	2,219.24	71.4786	2,219.24	71.6092	2,219.24	69.7957	2,219.24	69.7297	2,219.24	67.4918	2,219.24	70.6729	2,219.24	68.0905	2,219.24	69.812	2,219.24	69.0696	2,219.24	59.3074	2,219.24	64.3012	2,219.24	65.5343	2,219.24	59.2612	2,219.24	68.3822
2,297.61	84.8144	2,297.61	84.4844	2,297.61	84.9907	2,297.61	83.9066	2,297.61	84.9669	2,297.61	82.9607	2,297.61	84.5673	2,297.61	81.6311	2,297.61	83.6627	2,297.61	80.0908	2,297.61	82.3406	2,297.61	78.5863	2,297.61	80.8334	2,297.61	77.0995	2,297.61	79.2221	2,297.61	75.3565	2,297.61	77.3619	2,297.61	73.4825	2,297.61	75.2622	2,297.61	72.4072	2,297.61	73.5248	2,297.61	71.8332	2,297.61	72.6652	2,297.61	69.7556	2,297.61	71.6102	2,297.61	66.4786	2,297.61	69.0957	2,297.61	68.3156	2,297.61	67.1754	2,297.61	68.5954	2,297.61	67.9091	2,297.61	61.4226	2,297.61	65.5781	2,297.61	59.2802	2,297.61	61.15	2,297.61	64.4642
2,378.17	86.183	2,378.17	85.9018	2,378.17	86.1451	2,378.17	85.2464	2,378.17	85.813	2,378.17	84.1565	2,378.17	85.1652	2,378.17	82.6538	2,378.17	84.1432	2,378.17	80.9203	2,378.17	82.7493	2,378.17	79.1912	2,378.17	81.1454	2,378.17	77.4697	2,378.17	79.5403	2,378.17	75.4955	2,378.17	77.8982	2,378.17	73.244	2,378.17	75.9667	2,378.17	71.7478	2,378.17	73.8936	2,378.17	71.5714	2,378.17	72.6192	2,378.17	70.3981	2,378.17	71.8892	2,378.17	66.5467	2,378.17	70.182	2,378.17	64.7307	2,378.17	67.9647	2,378.17	65.9494	2,378.17	67.0434	2,378.17	61.6183	2,378.17	63.3479	2,378.17	62.1592	2,378.17	61.7549	2,378.17	65.7739
2,462.4	86.0315	2,462.4	85.8809	2,462.4	85.8338	2,462.4	85.3362	2,462.4	85.395	2,462.4	84.3831	2,462.4	84.7081	2,462.4	82.9667	2,462.4	83.616	2,462.4	81.1499	2,462.4	82.0482	2,462.4	79.2512	2,462.4	80.1681	2,462.4	77.5493	2,462.4	78.2424	2,462.4	75.834	2,462.4	76.3815	2,462.4	73.6314	2,462.4	74.3949	2,462.4	71.195	2,462.4	72.2828	2,462.4	70.0424	2,462.4	70.9778	2,462.4	69.4912	2,462.4	70.5169	2,462.4	67.7234	2,462.4	68.884	2,462.4	66.0229	2,462.4	65.9129	2,462.4	65.5429	2,462.4	65.7799	2,462.4	60.5092	2,462.4	63.3853	2,462.4	57.093	2,462.4	58.9147	2,462.4	62.9764
2,548.83	85.4337	2,548.83	85.2065	2,548.83	85.5619	2,548.83	84.8451	2,548.83	85.3685	2,548.83	84.0346	2,548.83	84.6587	2,548.83	82.5733	2,548.83	83.4173	2,548.83	80.6377	2,548.83	81.7716	2,548.83	78.6085	2,548.83	79.8682	2,548.83	76.8196	2,548.83	77.8682	2,548.83	75.2639	2,548.83	75.9515	2,548.83	73.5416	2,548.83	74.0278	2,548.83	71.5632	2,548.83	71.8864	2,548.83	70.0204	2,548.83	70.2578	2,548.83	68.9642	2,548.83	70.0439	2,548.83	67.7344	2,548.83	69.705	2,548.83	67.0205	2,548.83	68.2264	2,548.83	65.9862	2,548.83	66.5754	2,548.83	62.9777	2,548.83	63.089	2,548.83	64.1689	2,548.83	57.7043	2,548.83	64.0525
2,638.92	85.3752	2,638.92	85.1455	2,638.92	85.3967	2,638.92	84.5926	2,638.92	85.1909	2,638.92	83.6368	2,638.92	84.6042	2,638.92	82.3029	2,638.92	83.5017	2,638.92	80.5618	2,638.92	81.8648	2,638.92	78.3	2,638.92	79.7821	2,638.92	75.7087	2,638.92	77.497	2,638.92	73.3138	2,638.92	75.3734	2,638.92	71.2588	2,638.92	73.461	2,638.92	69.4435	2,638.92	71.4542	2,638.92	68.2361	2,638.92	69.6667	2,638.92	67.4281	2,638.92	69.0361	2,638.92	66.8027	2,638.92	68.5201	2,638.92	67.3473	2,638.92	67.8139	2,638.92	65.9998	2,638.92	68.3505	2,638.92	53.0329	2,638.92	66.4344	2,638.92	64.1945	2,638.92	60.6638	2,638.92	66.1144
2,731.93	85.2546	2,731.93	85.0533	2,731.93	85.2476	2,731.93	84.5033	2,731.93	84.9896	2,731.93	83.4946	2,731.93	84.3225	2,731.93	82.0765	2,731.93	83.1692	2,731.93	80.3094	2,731.93	81.5435	2,731.93	78.2029	2,731.93	79.4882	2,731.93	75.8735	2,731.93	77.1923	2,731.93	73.4796	2,731.93	75.0164	2,731.93	71.171	2,731.93	73.1291	2,731.93	69.3803	2,731.93	71.3851	2,731.93	68.2919	2,731.93	69.9443	2,731.93	66.864	2,731.93	68.8892	2,731.93	64.5682	2,731.93	66.9983	2,731.93	65.3466	2,731.93	64.8733	2,731.93	66.3511	2,731.93	66.0281	2,731.93	60.9546	2,731.93	63.9364	2,731.93	56.823	2,731.93	53.4485	2,731.93	62.5921
2,828.61	85.9835	2,828.61	85.6714	2,828.61	85.9542	2,828.61	84.9647	2,828.61	85.5899	2,828.61	83.8469	2,828.61	84.8195	2,828.61	82.299	2,828.61	83.5809	2,828.61	80.2711	2,828.61	81.873	2,828.61	77.8795	2,828.61	79.7474	2,828.61	75.4493	2,828.61	77.3689	2,828.61	73.1683	2,828.61	75.0131	2,828.61	71.0117	2,828.61	72.7712	2,828.61	68.9815	2,828.61	70.438	2,828.61	67.5975	2,828.61	68.2216	2,828.61	67.2992	2,828.61	67.1107	2,828.61	66.4779	2,828.61	66.7563	2,828.61	64.6382	2,828.61	67.1044	2,828.61	63.2687	2,828.61	68.7099	2,828.61	57.0601	2,828.61	67.2266	2,828.61	55.1277	2,828.61	55.5043	2,828.61	58.7875
2,928.22	86.1618	2,928.22	85.9116	2,928.22	86.0985	2,928.22	85.3193	2,928.22	85.6091	2,928.22	84.228	2,928.22	84.6503	2,928.22	82.6119	2,928.22	83.2872	2,928.22	80.6805	2,928.22	81.5116	2,928.22	78.582	2,928.22	79.2742	2,928.22	76.1693	2,928.22	76.7806	2,928.22	73.4732	2,928.22	74.4155	2,928.22	71.1783	2,928.22	72.3507	2,928.22	69.7114	2,928.22	70.571	2,928.22	68.1146	2,928.22	69.3558	2,928.22	65.9648	2,928.22	68.5065	2,928.22	65.7148	2,928.22	65.8883	2,928.22	67.2807	2,928.22	62.9621	2,928.22	67.5715	2,928.22	66.8496	2,928.22	64.4431	2,928.22	66.2069	2,928.22	57.1165	2,928.22	59.188	2,928.22	58.624
3,031.49	85.7395	3,031.49	85.4455	3,031.49	85.6987	3,031.49	84.7547	3,031.49	85.2264	3,031.49	83.5406	3,031.49	84.2455	3,031.49	81.889	3,031.49	82.7524	3,031.49	80.0012	3,031.49	80.768	3,031.49	77.9226	3,031.49	78.4363	3,031.49	75.715	3,031.49	75.959	3,031.49	73.5285	3,031.49	73.3855	3,031.49	71.3875	3,031.49	70.8352	3,031.49	69.4762	3,031.49	68.3646	3,031.49	67.8182	3,031.49	66.0818	3,031.49	65.7953	3,031.49	65.0468	3,031.49	64.8038	3,031.49	64.0848	3,031.49	66.4342	3,031.49	63.2063	3,031.49	66.3769	3,031.49	66.4189	3,031.49	61.4411	3,031.49	65.4904	3,031.49	60.0879	3,031.49	53.6907	3,031.49	61.3844
3,138.43	86.411	3,138.43	86.0571	3,138.43	86.2574	3,138.43	85.1646	3,138.43	85.6618	3,138.43	83.7996	3,138.43	84.6148	3,138.43	82.0475	3,138.43	83.0272	3,138.43	79.8702	3,138.43	80.9239	3,138.43	77.3262	3,138.43	78.5436	3,138.43	74.8399	3,138.43	76.0405	3,138.43	72.6091	3,138.43	73.4701	3,138.43	70.3656	3,138.43	70.9805	3,138.43	68.3688	3,138.43	68.4293	3,138.43	67.0683	3,138.43	66.2651	3,138.43	65.2324	3,138.43	65.7537	3,138.43	63.0675	3,138.43	64.2529	3,138.43	66	3,138.43	55.6041	3,138.43	67.0318	3,138.43	62.4265	3,138.43	61.3473	3,138.43	64.6937	3,138.43	58.3585	3,138.43	55.8813	3,138.43	59.4265
3,249.02	86.346	3,249.02	86.0353	3,249.02	86.1535	3,249.02	85.1601	3,249.02	85.5321	3,249.02	83.8159	3,249.02	84.4049	3,249.02	82.0852	3,249.02	82.6985	3,249.02	79.8919	3,249.02	80.5295	3,249.02	77.303	3,249.02	78.0031	3,249.02	74.7185	3,249.02	75.2529	3,249.02	72.4684	3,249.02	72.8161	3,249.02	70.5831	3,249.02	70.7895	3,249.02	68.8843	3,249.02	68.4907	3,249.02	67.4252	3,249.02	66.0527	3,249.02	66.2919	3,249.02	65.0874	3,249.02	64.678	3,249.02	64.5849	3,249.02	65.0427	3,249.02	61.9594	3,249.02	65.8646	3,249.02	63.8049	3,249.02	59.9043	3,249.02	63.9174	3,249.02	54.9813	3,249.02	53.3097	3,249.02	59.2466
3,363.28	85.9802	3,363.28	85.688	3,363.28	85.7908	3,363.28	84.9246	3,363.28	85.0216	3,363.28	83.6372	3,363.28	83.6394	3,363.28	81.8276	3,363.28	81.7432	3,363.28	79.572	3,363.28	79.3726	3,363.28	76.9957	3,363.28	76.4791	3,363.28	74.3239	3,363.28	73.4142	3,363.28	71.9052	3,363.28	70.8794	3,363.28	70.2494	3,363.28	69.0857	3,363.28	69.29	3,363.28	67.2501	3,363.28	67.8065	3,363.28	64.709	3,363.28	65.0138	3,363.28	63.2765	3,363.28	62.876	3,363.28	62.1583	3,363.28	65.1453	3,363.28	55.8357	3,363.28	67.1233	3,363.28	62.3321	3,363.28	64.8933	3,363.28	63.6478	3,363.28	56.5267	3,363.28	53.5892	3,363.28	55.7204
3,481.93	86.0396	3,481.93	85.6958	3,481.93	85.868	3,481.93	84.7743	3,481.93	85.0485	3,481.93	83.1631	3,481.93	83.5031	3,481.93	81.0011	3,481.93	81.3813	3,481.93	78.5975	3,481.93	78.8687	3,481.93	76.2253	3,481.93	76.1223	3,481.93	74.086	3,481.93	73.3844	3,481.93	71.8663	3,481.93	70.5793	3,481.93	69.3444	3,481.93	67.9033	3,481.93	67.738	3,481.93	66.0645	3,481.93	67.3627	3,481.93	64.6745	3,481.93	65.6896	3,481.93	63.8684	3,481.93	61.0907	3,481.93	63.1608	3,481.93	62.5048	3,481.93	55.6283	3,481.93	65.5848	3,481.93	58.9682	3,481.93	63.1427	3,481.93	63.763	3,481.93	60.8895	3,481.93	55.9716	3,481.93	58.6099
3,604.98	86.4431	3,604.98	86.1681	3,604.98	86.1341	3,604.98	85.1903	3,604.98	85.2257	3,604.98	83.5356	3,604.98	83.5784	3,604.98	81.4368	3,604.98	81.2113	3,604.98	78.9689	3,604.98	78.4372	3,604.98	76.3415	3,604.98	75.6749	3,604.98	74.1366	3,604.98	73.0268	3,604.98	72.1335	3,604.98	70.228	3,604.98	69.6604	3,604.98	67.3349	3,604.98	66.6423	3,604.98	64.9382	3,604.98	64.8349	3,604.98	63.4108	3,604.98	64.6428	3,604.98	63.9462	3,604.98	62.0854	3,604.98	65.4634	3,604.98	58.7424	3,604.98	62.387	3,604.98	63.4841	3,604.98	57.4691	3,604.98	61.2848	3,604.98	63.8296	3,604.98	61.2124	3,604.98	57.7796	3,604.98	60.1846
3,732.42	86.0883	3,732.42	85.6451	3,732.42	85.6969	3,732.42	84.467	3,732.42	84.5232	3,732.42	82.7972	3,732.42	82.6863	3,732.42	80.7874	3,732.42	80.3109	3,732.42	78.3737	3,732.42	77.504	3,732.42	75.7946	3,732.42	74.5351	3,732.42	73.3848	3,732.42	71.8324	3,732.42	71.0555	3,732.42	69.5701	3,732.42	68.886	3,732.42	67.9651	3,732.42	66.6326	3,732.42	66.6507	3,732.42	64.6571	3,732.42	64.068	3,732.42	64.7643	3,732.42	61.1757	3,732.42	63.7949	3,732.42	63.214	3,732.42	58.9083	3,732.42	61.5099	3,732.42	61.9472	3,732.42	56.3361	3,732.42	59.7267	3,732.42	61.996	3,732.42	57.9508	3,732.42	55.5664	3,732.42	58.9142
3,863.53	86.2314	3,863.53	85.7203	3,863.53	85.8155	3,863.53	84.3564	3,863.53	84.5628	3,863.53	82.4413	3,863.53	82.5871	3,863.53	80.2217	3,863.53	80.0745	3,863.53	77.6884	3,863.53	77.3096	3,863.53	74.9589	3,863.53	74.4986	3,863.53	72.1653	3,863.53	71.9592	3,863.53	69.5032	3,863.53	69.8678	3,863.53	67.8131	3,863.53	68.2204	3,863.53	66.3793	3,863.53	66.9937	3,863.53	63.8601	3,863.53	65.0126	3,863.53	63.5928	3,863.53	61.7756	3,863.53	63.7733	3,863.53	60.5752	3,863.53	59.5168	3,863.53	58.008	3,863.53	60.1662	3,863.53	55.9134	3,863.53	55.8297	3,863.53	60.4202	3,863.53	55.4221	3,863.53	52.7113	3,863.53	57.6051
3,999.76	86.6781	3,999.76	86.1743	3,999.76	86.3215	3,999.76	84.8175	3,999.76	85.0595	3,999.76	82.7072	3,999.76	82.9476	3,999.76	80.1164	3,999.76	80.3086	3,999.76	77.4104	3,999.76	77.4421	3,999.76	74.9316	3,999.76	74.6525	3,999.76	72.4421	3,999.76	72.2595	3,999.76	69.7555	3,999.76	69.7551	3,999.76	67.7971	3,999.76	67.4283	3,999.76	66.6268	3,999.76	65.7938	3,999.76	64.4502	3,999.76	63.6288	3,999.76	62.2264	3,999.76	60.9694	3,999.76	62.775	3,999.76	61.5281	3,999.76	60.267	3,999.76	60.1407	3,999.76	60.5595	3,999.76	54.5737	3,999.76	60.5994	3,999.76	60.5442	3,999.76	50.8949	3,999.76	51.7327	3,999.76	57.5965
4,141.11	86.8928	4,141.11	86.378	4,141.11	86.4303	4,141.11	84.9222	4,141.11	84.977	4,141.11	82.7363	4,141.11	82.6676	4,141.11	80.2839	4,141.11	79.8462	4,141.11	77.7968	4,141.11	76.9419	4,141.11	75.4723	4,141.11	74.5468	4,141.11	73.4729	4,141.11	72.6177	4,141.11	71.2792	4,141.11	70.425	4,141.11	68.9023	4,141.11	67.771	4,141.11	66.8584	4,141.11	65.5493	4,141.11	65.4389	4,141.11	64.5296	4,141.11	64.0694	4,141.11	62.5926	4,141.11	63.2485	4,141.11	60.9004	4,141.11	61.8784	4,141.11	61.4563	4,141.11	61.1748	4,141.11	57.8607	4,141.11	60.8001	4,141.11	58.9887	4,141.11	54.1971	4,141.11	41.0872	4,141.11	58.1397
4,286.87	87.7784	4,286.87	86.9207	4,286.87	87.3723	4,286.87	84.9317	4,286.87	85.8294	4,286.87	82.3171	4,286.87	83.3999	4,286.87	79.4764	4,286.87	80.4848	4,286.87	76.4325	4,286.87	77.4972	4,286.87	73.8582	4,286.87	74.8068	4,286.87	71.91	4,286.87	72.6674	4,286.87	70.5312	4,286.87	70.7663	4,286.87	69.7282	4,286.87	68.8921	4,286.87	68.0627	4,286.87	67.1485	4,286.87	65.4977	4,286.87	65.7783	4,286.87	64.9455	4,286.87	65.1186	4,286.87	64.3478	4,286.87	63.5142	4,286.87	61.7296	4,286.87	58.8284	4,286.87	62.075	4,286.87	56.692	4,286.87	57.3407	4,286.87	61.1456	4,286.87	57.8402	4,286.87	56.1802	4,286.87	54.4349
4,438.48	88.1552	4,438.48	87.3458	4,438.48	87.6658	4,438.48	85.5632	4,438.48	85.8832	4,438.48	83.2724	4,438.48	83.2855	4,438.48	80.7655	4,438.48	80.6844	4,438.48	78.5032	4,438.48	78.3451	4,438.48	76.6886	4,438.48	76.2168	4,438.48	74.3247	4,438.48	73.957	4,438.48	71.4872	4,438.48	71.2477	4,438.48	69.3763	4,438.48	69.1776	4,438.48	67.8602	4,438.48	67.6325	4,438.48	64.9923	4,438.48	64.7978	4,438.48	61.7083	4,438.48	61.65	4,438.48	61.6694	4,438.48	62.9637	4,438.48	57.1064	4,438.48	61.8375	4,438.48	58.4598	4,438.48	57.575	4,438.48	54.8708	4,438.48	62.3566	4,438.48	57.0286	4,438.48	54.2266	4,438.48	58.01
4,594.48	88.2573	4,594.48	87.5039	4,594.48	87.6955	4,594.48	85.564	4,594.48	85.9274	4,594.48	82.9678	4,594.48	83.3822	4,594.48	80.6671	4,594.48	80.5954	4,594.48	78.8687	4,594.48	77.9892	4,594.48	77.0532	4,594.48	76.0793	4,594.48	75.0674	4,594.48	74.7023	4,594.48	72.8946	4,594.48	73.2358	4,594.48	70.3805	4,594.48	70.9035	4,594.48	67.8884	4,594.48	68.1433	4,594.48	66.1454	4,594.48	66.771	4,594.48	65.3729	4,594.48	65.3304	4,594.48	65.248	4,594.48	63.8927	4,594.48	63.3508	4,594.48	63.08	4,594.48	64.1059	4,594.48	60.2541	4,594.48	63.597	4,594.48	64.0966	4,594.48	29.5824	4,594.48	55.1351	4,594.48	57.7141
4,757.08	88.1711	4,757.08	87.3462	4,757.08	87.6376	4,757.08	85.2706	4,757.08	85.9589	4,757.08	82.8431	4,757.08	83.5475	4,757.08	80.7864	4,757.08	81.1094	4,757.08	78.6936	4,757.08	79.0585	4,757.08	76.9451	4,757.08	77.3546	4,757.08	75.3837	4,757.08	75.5549	4,757.08	73.664	4,757.08	73.3708	4,757.08	71.8463	4,757.08	71.2102	4,757.08	69.2124	4,757.08	69.0312	4,757.08	65.5956	4,757.08	66.8204	4,757.08	64.027	4,757.08	65.876	4,757.08	64.7638	4,757.08	64.8776	4,757.08	61.8538	4,757.08	61.2001	4,757.08	64.2102	4,757.08	54.9477	4,757.08	61.9011	4,757.08	61.6234	4,757.08	52.2573	4,757.08	58.0114	4,757.08	50.665
4,924.8	88.0508	4,924.8	87.0142	4,924.8	87.54	4,924.8	85.0639	4,924.8	85.5186	4,924.8	83.1548	4,924.8	82.9588	4,924.8	81.3659	4,924.8	81.1689	4,924.8	79.6173	4,924.8	79.795	4,924.8	78.0605	4,924.8	78.3542	4,924.8	76.0273	4,924.8	76.3727	4,924.8	73.5356	4,924.8	73.7018	4,924.8	71.4539	4,924.8	71.2051	4,924.8	70.2775	4,924.8	69.4332	4,924.8	68.8986	4,924.8	67.5016	4,924.8	66.7035	4,924.8	64.8077	4,924.8	65.7157	4,924.8	65.7503	4,924.8	60.8835	4,924.8	64.916	4,924.8	61.1628	4,924.8	60.1925	4,924.8	60.0102	4,924.8	63.5023	4,924.8	53.9596	4,924.8	53.8982	4,924.8	59.0988
5,098.39	87.4937	5,098.39	86.365	5,098.39	86.953	5,098.39	84.1065	5,098.39	85.001	5,098.39	81.8925	5,098.39	82.7553	5,098.39	80.3407	5,098.39	80.8462	5,098.39	79.1154	5,098.39	79.1249	5,098.39	78.0496	5,098.39	77.9663	5,098.39	76.3541	5,098.39	76.8441	5,098.39	73.6408	5,098.39	75.1126	5,098.39	71.0038	5,098.39	72.4645	5,098.39	69.1644	5,098.39	69.5126	5,098.39	67.5458	5,098.39	68.0432	5,098.39	66.2664	5,098.39	66.3125	5,098.39	66.1888	5,098.39	63.7792	5,098.39	62.9418	5,098.39	62.7086	5,098.39	62.6301	5,098.39	58.0885	5,098.39	62.9764	5,098.39	63.5101	5,098.39	43.2607	5,098.39	56.021	5,098.39	56.0482
5,277.83	86.9024	5,277.83	86.0552	5,277.83	86.1064	5,277.83	84.1425	5,277.83	84.1453	5,277.83	82.5267	5,277.83	82.252	5,277.83	81.008	5,277.83	80.9081	5,277.83	79.3559	5,277.83	79.6478	5,277.83	77.8744	5,277.83	78.2789	5,277.83	75.5829	5,277.83	76.1278	5,277.83	73.4121	5,277.83	73.5902	5,277.83	71.6035	5,277.83	71.485	5,277.83	68.9933	5,277.83	69.26	5,277.83	66.0813	5,277.83	66.8223	5,277.83	65.0655	5,277.83	65.2277	5,277.83	66.6656	5,277.83	65.2088	5,277.83	64.5936	5,277.83	63.3485	5,277.83	63.8894	5,277.83	54.4962	5,277.83	61.689	5,277.83	62.7896	5,277.83	59.0974	5,277.83	58.0175	5,277.83	59.1783
5,463.87	86.1293	5,463.87	84.9964	5,463.87	85.539	5,463.87	83.1011	5,463.87	83.7198	5,463.87	81.4976	5,463.87	82.1181	5,463.87	79.8397	5,463.87	80.8627	5,463.87	78.3624	5,463.87	79.4667	5,463.87	76.8638	5,463.87	78.042	5,463.87	74.8821	5,463.87	76.3808	5,463.87	73.0137	5,463.87	74.2946	5,463.87	71.2002	5,463.87	71.4089	5,463.87	69.4015	5,463.87	68.7138	5,463.87	67.3337	5,463.87	67.5913	5,463.87	64.8474	5,463.87	65.6571	5,463.87	63.9881	5,463.87	63.8476	5,463.87	58.937	5,463.87	63.4189	5,463.87	63.1578	5,463.87	58.4045	5,463.87	59.3902	5,463.87	60.6426	5,463.87	56.6743	5,463.87	50.6446	5,463.87	60.2057
5,656.49	84.9191	5,656.49	84.0628	5,656.49	84.3453	5,656.49	82.4927	5,656.49	82.8817	5,656.49	81.0208	5,656.49	81.5338	5,656.49	79.6352	5,656.49	80.0048	5,656.49	78.5152	5,656.49	78.4154	5,656.49	77.4262	5,656.49	77.263	5,656.49	75.4278	5,656.49	75.834	5,656.49	72.394	5,656.49	73.9307	5,656.49	69.0453	5,656.49	71.4859	5,656.49	66.5688	5,656.49	68.5128	5,656.49	64.1883	5,656.49	66.2285	5,656.49	59.7449	5,656.49	64.3707	5,656.49	61.2773	5,656.49	63.3253	5,656.49	54.8985	5,656.49	62.4216	5,656.49	58.7957	5,656.49	55.2858	5,656.49	58.9205	5,656.49	59.5887	5,656.49	56.3901	5,656.49	41.7544	5,656.49	61.4165
5,856.45	84.349	5,856.45	83.5595	5,856.45	83.7826	5,856.45	82.3723	5,856.45	82.4857	5,856.45	81.3559	5,856.45	81.4411	5,856.45	79.7565	5,856.45	80.3498	5,856.45	78.219	5,856.45	79.0975	5,856.45	76.4805	5,856.45	77.6471	5,856.45	73.7996	5,856.45	75.525	5,856.45	71.476	5,856.45	72.8114	5,856.45	69.2689	5,856.45	69.7535	5,856.45	67.2152	5,856.45	67.3877	5,856.45	65.3555	5,856.45	66.0248	5,856.45	63.0042	5,856.45	63.9127	5,856.45	64.6547	5,856.45	63.7858	5,856.45	61.0441	5,856.45	62.6415	5,856.45	58.5895	5,856.45	58.801	5,856.45	58.937	5,856.45	61.8943	5,856.45	50.1274	5,856.45	54.99	5,856.45	56.9708
6,062.99	84.3078	6,062.99	83.7528	6,062.99	83.8807	6,062.99	82.8437	6,062.99	82.968	6,062.99	81.4819	6,062.99	81.9656	6,062.99	79.7048	6,062.99	80.2873	6,062.99	78.1782	6,062.99	78.5655	6,062.99	76.1932	6,062.99	77.0935	6,062.99	73.6511	6,062.99	75.097	6,062.99	70.8651	6,062.99	72.8493	6,062.99	67.9635	6,062.99	70.1132	6,062.99	66.8059	6,062.99	67.3307	6,062.99	65.885	6,062.99	66.2472	6,062.99	61.4552	6,062.99	63.3458	6,062.99	61.1247	6,062.99	60.2503	6,062.99	57.9297	6,062.99	61.3542	6,062.99	58.171	6,062.99	56.8076	6,062.99	60.1503	6,062.99	62.854	6,062.99	40.1395	6,062.99	54.6366	6,062.99	55.9392
6,276.86	84.321	6,276.86	83.9015	6,276.86	84.0861	6,276.86	82.9267	6,276.86	83.5268	6,276.86	81.4983	6,276.86	82.5422	6,276.86	79.8319	6,276.86	81.0792	6,276.86	78.2517	6,276.86	79.4945	6,276.86	76.4159	6,276.86	77.4791	6,276.86	74.1835	6,276.86	75.1978	6,276.86	72.0165	6,276.86	72.813	6,276.86	69.2683	6,276.86	69.6109	6,276.86	66.4567	6,276.86	65.9714	6,276.86	64.7035	6,276.86	63.9614	6,276.86	60.7258	6,276.86	62.7471	6,276.86	59.7545	6,276.86	60.2142	6,276.86	56.7601	6,276.86	58.5893	6,276.86	59.1406	6,276.86	47.4277	6,276.86	59.493	6,276.86	60.1529	6,276.86	53.2965	6,276.86	49.2433	6,276.86	59.4082
6,498.05	84.2749	6,498.05	83.8063	6,498.05	84.0325	6,498.05	83.1664	6,498.05	83.3679	6,498.05	82.1392	6,498.05	82.4036	6,498.05	80.5828	6,498.05	80.8953	6,498.05	79.0574	6,498.05	79.1341	6,498.05	77.0064	6,498.05	77.2327	6,498.05	74.664	6,498.05	75.2232	6,498.05	72.1818	6,498.05	72.7294	6,498.05	68.5234	6,498.05	69.1256	6,498.05	65.6786	6,498.05	65.5481	6,498.05	64.5116	6,498.05	64.8466	6,498.05	61.1869	6,498.05	63.325	6,498.05	62.6473	6,498.05	60.3488	6,498.05	59.2836	6,498.05	61.3134	6,498.05	56.6569	6,498.05	49.4297	6,498.05	59.6028	6,498.05	60.2204	6,498.05	48.9051	6,498.05	49.5161	6,498.05	58.2485
6,727.29	84.0454	6,727.29	84.1047	6,727.29	83.7854	6,727.29	83.6594	6,727.29	83.6347	6,727.29	82.4234	6,727.29	82.7297	6,727.29	80.8811	6,727.29	80.9658	6,727.29	79.1753	6,727.29	79.3215	6,727.29	76.9774	6,727.29	77.4596	6,727.29	74.5645	6,727.29	75.3409	6,727.29	71.8824	6,727.29	72.8188	6,727.29	68.8532	6,727.29	69.7665	6,727.29	66.7603	6,727.29	66.6857	6,727.29	65.6632	6,727.29	64.6629	6,727.29	60.6598	6,727.29	63.4784	6,727.29	60.3088	6,727.29	57.5808	6,727.29	58.6615	6,727.29	59.7888	6,727.29	60.0533	6,727.29	47.5145	6,727.29	61.7287	6,727.29	60.7627	6,727.29	47.8628	6,727.29	54.4218	6,727.29	57.9319
6,964.6	83.7988	6,964.6	83.818	6,964.6	83.8837	6,964.6	83.5181	6,964.6	83.7064	6,964.6	82.6003	6,964.6	82.6101	6,964.6	81.1562	6,964.6	81.3808	6,964.6	79.178	6,964.6	79.7707	6,964.6	76.7548	6,964.6	77.5025	6,964.6	74.3724	6,964.6	75.1845	6,964.6	72.151	6,964.6	72.2047	6,964.6	69.0055	6,964.6	69.3258	6,964.6	65.451	6,964.6	66.4194	6,964.6	64.3845	6,964.6	63.7271	6,964.6	61.2273	6,964.6	62.2971	6,964.6	57.5739	6,964.6	58.4636	6,964.6	55.3971	6,964.6	58.2139	6,964.6	58.8124	6,964.6	42.3509	6,964.6	61.1785	6,964.6	60.2632	6,964.6	50.2341	6,964.6	52.5485	6,964.6	58.7641
7,209.96	83.8658	7,209.96	83.7881	7,209.96	83.8212	7,209.96	83.3887	7,209.96	83.4875	7,209.96	82.3642	7,209.96	82.5484	7,209.96	80.8096	7,209.96	81.1875	7,209.96	78.7383	7,209.96	79.4674	7,209.96	76.2703	7,209.96	77.4967	7,209.96	73.7866	7,209.96	75.1108	7,209.96	71.145	7,209.96	72.5781	7,209.96	67.9124	7,209.96	69.9095	7,209.96	64.8685	7,209.96	66.4406	7,209.96	64.0137	7,209.96	63.9259	7,209.96	61.3732	7,209.96	63.0622	7,209.96	59.3997	7,209.96	58.6089	7,209.96	57.5856	7,209.96	60.7398	7,209.96	54.4513	7,209.96	53.3784	7,209.96	58.4957	7,209.96	58.042	7,209.96	52.1159	7,209.96	53.4058	7,209.96	57.2152
7,464.11	83.0033	7,464.11	82.9841	7,464.11	83.1739	7,464.11	82.6499	7,464.11	83.0622	7,464.11	81.7279	7,464.11	82.0043	7,464.11	80.1963	7,464.11	80.7671	7,464.11	77.9828	7,464.11	79.0465	7,464.11	75.4882	7,464.11	76.8048	7,464.11	73.0326	7,464.11	74.5369	7,464.11	70.9597	7,464.11	71.7458	7,464.11	68.1783	7,464.11	69.2707	7,464.11	64.624	7,464.11	66.6992	7,464.11	63.8208	7,464.11	64.1578	7,464.11	61.3423	7,464.11	63.8309	7,464.11	59.1073	7,464.11	59.5559	7,464.11	58.7745	7,464.11	54.1572	7,464.11	53.4098	7,464.11	50.9568	7,464.11	58.0008	7,464.11	57.5424	7,464.11	54.2461	7,464.11	50.3176	7,464.11	59.3423
7,727.78	82.0424	7,727.78	81.9177	7,727.78	82.164	7,727.78	81.6859	7,727.78	81.78	7,727.78	80.9444	7,727.78	80.9403	7,727.78	79.3161	7,727.78	79.8835	7,727.78	76.9454	7,727.78	77.9293	7,727.78	74.7068	7,727.78	75.7898	7,727.78	72.4331	7,727.78	73.1586	7,727.78	70.2469	7,727.78	70.7019	7,727.78	67.3338	7,727.78	68.5181	7,727.78	63.3368	7,727.78	65.5509	7,727.78	62.1712	7,727.78	62.7916	7,727.78	61.3847	7,727.78	61.0661	7,727.78	57.9524	7,727.78	59.2487	7,727.78	57.1505	7,727.78	59.0166	7,727.78	53.8184	7,727.78	48.9016	7,727.78	57.1129	7,727.78	56.6819	7,727.78	53.4746	7,727.78	46.3749	7,727.78	59.5725
8,000.24	81.3911	8,000.24	81.3736	8,000.24	81.6031	8,000.24	81.3043	8,000.24	81.4354	8,000.24	80.4513	8,000.24	80.6173	8,000.24	78.7483	8,000.24	79.3331	8,000.24	76.6844	8,000.24	77.1641	8,000.24	74.2258	8,000.24	74.8268	8,000.24	71.4831	8,000.24	72.263	8,000.24	69.3122	8,000.24	69.4355	8,000.24	66.5047	8,000.24	66.6534	8,000.24	63.0506	8,000.24	64.0067	8,000.24	61.0434	8,000.24	61.5713	8,000.24	58.5894	8,000.24	60.7583	8,000.24	57.3986	8,000.24	56.6607	8,000.24	55.7238	8,000.24	53.6258	8,000.24	52.3127	8,000.24	50.6761	8,000.24	55.294	8,000.24	54.5398	8,000.24	52.915	8,000.24	48.4716	8,000.24	57.1396
8,282.23	82.4606	8,282.23	82.3403	8,282.23	82.662	8,282.23	82.1098	8,282.23	82.3416	8,282.23	81.1593	8,282.23	81.4575	8,282.23	79.2251	8,282.23	80.0105	8,282.23	76.8633	8,282.23	77.6444	8,282.23	74.5485	8,282.23	75.4336	8,282.23	71.5351	8,282.23	72.2839	8,282.23	68.8002	8,282.23	68.949	8,282.23	65.5699	8,282.23	65.6819	8,282.23	61.36	8,282.23	62.5851	8,282.23	59.2572	8,282.23	59.977	8,282.23	58.7344	8,282.23	58.0004	8,282.23	54.3865	8,282.23	56.0657	8,282.23	56.1245	8,282.23	52.6738	8,282.23	52.4244	8,282.23	48.9192	8,282.23	57.8557	8,282.23	53.8693	8,282.23	41.9645	8,282.23	49.6336	8,282.23	56.6786
8,574.46	84.2018	8,574.46	83.9572	8,574.46	84.2309	8,574.46	83.5079	8,574.46	83.7628	8,574.46	82.1172	8,574.46	82.6684	8,574.46	80.0279	8,574.46	80.8394	8,574.46	77.858	8,574.46	78.3987	8,574.46	74.8178	8,574.46	75.9729	8,574.46	71.5263	8,574.46	72.8726	8,574.46	68.5174	8,574.46	69.4409	8,574.46	64.4836	8,574.46	65.4633	8,574.46	61.1458	8,574.46	62.498	8,574.46	59.4319	8,574.46	60.7527	8,574.46	57.0613	8,574.46	57.7598	8,574.46	53.5893	8,574.46	54.1893	8,574.46	50.7094	8,574.46	49.2544	8,574.46	50.2707	8,574.46	41.6745	8,574.46	51.7675	8,574.46	54.0303	8,574.46	50.3612	8,574.46	50.1698	8,574.46	52.5342
8,876.22	84.3945	8,876.22	84.3327	8,876.22	84.5035	8,876.22	84.0494	8,876.22	84.2043	8,876.22	82.6529	8,876.22	83.148	8,876.22	80.5416	8,876.22	81.288	8,876.22	78.0518	8,876.22	78.7355	8,876.22	75.2884	8,876.22	76.6	8,876.22	71.9931	8,876.22	73.4673	8,876.22	68.7094	8,876.22	70.1912	8,876.22	65.3911	8,876.22	66.6606	8,876.22	62.4503	8,876.22	63.755	8,876.22	60.5911	8,876.22	61.3049	8,876.22	58.9721	8,876.22	57.1747	8,876.22	55.1669	8,876.22	54.6236	8,876.22	54.8829	8,876.22	42.3323	8,876.22	52.2658	8,876.22	41.9863	8,876.22	57.5323	8,876.22	55.5154	8,876.22	50.3717	8,876.22	34.7949	8,876.22	58.0617
9,189.7	83.1382	9,189.7	83.3106	9,189.7	83.3845	9,189.7	83.3494	9,189.7	83.5301	9,189.7	81.9782	9,189.7	82.5595	9,189.7	80.0882	9,189.7	80.6185	9,189.7	78.0039	9,189.7	78.6007	9,189.7	74.9837	9,189.7	76.4223	9,189.7	71.6431	9,189.7	72.9801	9,189.7	68.5506	9,189.7	69.8208	9,189.7	64.95	9,189.7	65.9491	9,189.7	62.6871	9,189.7	63.5807	9,189.7	61.4154	9,189.7	62.3388	9,189.7	59.3044	9,189.7	58.1822	9,189.7	56.2735	9,189.7	55.7796	9,189.7	48.8426	9,189.7	43.6084	9,189.7	52.7553	9,189.7	48.1019	9,189.7	55.1386	9,189.7	50.6481	9,189.7	55.9852	9,189.7	42.5226	9,189.7	59.1499
9,513.43	81.3206	9,513.43	81.7718	9,513.43	81.9157	9,513.43	81.9167	9,513.43	82.3537	9,513.43	80.489	9,513.43	81.3156	9,513.43	78.8553	9,513.43	79.7235	9,513.43	76.4442	9,513.43	77.6928	9,513.43	73.7142	9,513.43	75.3721	9,513.43	70.1929	9,513.43	71.6965	9,513.43	67.3432	9,513.43	68.433	9,513.43	64.8428	9,513.43	65.3456	9,513.43	61.4062	9,513.43	63.0486	9,513.43	58.9882	9,513.43	61.2273	9,513.43	58.1113	9,513.43	55.8225	9,513.43	55.3091	9,513.43	57.637	9,513.43	52.3883	9,513.43	33.2718	9,513.43	49.5271	9,513.43	52.8025	9,513.43	53.9613	9,513.43	51.2545	9,513.43	55.6827	9,513.43	50.2569	9,513.43	60.5
9,848.88	80.589	9,848.88	81.2993	9,848.88	81.362	9,848.88	81.669	9,848.88	81.9611	9,848.88	80.2756	9,848.88	80.894	9,848.88	78.6203	9,848.88	79.3266	9,848.88	75.9761	9,848.88	77.1879	9,848.88	72.7076	9,848.88	74.5491	9,848.88	69.1089	9,848.88	70.7203	9,848.88	66.5648	9,848.88	68.0609	9,848.88	63.2052	9,848.88	63.7812	9,848.88	60.9802	9,848.88	61.331	9,848.88	59.3973	9,848.88	61.2575	9,848.88	57.7468	9,848.88	53.1387	9,848.88	56.0835	9,848.88	55.742	9,848.88	52.6708	9,848.88	36.436	9,848.88	50.2738	9,848.88	52.3101	9,848.88	55.5052	9,848.88	47.2859	9,848.88	53.5512	9,848.88	55.297	9,848.88	60.6366
10,196.8	81.9022	10,196.8	82.5288	10,196.8	82.5798	10,196.8	82.6452	10,196.8	82.8301	10,196.8	81.0888	10,196.8	81.5202	10,196.8	79.3695	10,196.8	79.8549	10,196.8	76.4526	10,196.8	77.458	10,196.8	73.1831	10,196.8	74.9122	10,196.8	69.3376	10,196.8	70.8912	10,196.8	67.0789	10,196.8	68.7646	10,196.8	62.6143	10,196.8	62.7768	10,196.8	60.857	10,196.8	59.3435	10,196.8	60.3448	10,196.8	61.8903	10,196.8	56.7457	10,196.8	51.3549	10,196.8	56.8256	10,196.8	55.8858	10,196.8	54.8741	10,196.8	50.8396	10,196.8	49.2568	10,196.8	53.8639	10,196.8	54.7087	10,196.8	51.5359	10,196.8	55.1376	10,196.8	54.714	10,196.8	61.4495
10,556.4	82.5758	10,556.4	83.1968	10,556.4	83.2537	10,556.4	83.231	10,556.4	83.5119	10,556.4	81.6107	10,556.4	82.1733	10,556.4	79.9939	10,556.4	80.629	10,556.4	77.0188	10,556.4	78.3504	10,556.4	74.0762	10,556.4	75.6889	10,556.4	70.5663	10,556.4	72.4051	10,556.4	68.1864	10,556.4	70.6608	10,556.4	62.9499	10,556.4	64.634	10,556.4	62.0195	10,556.4	59.2278	10,556.4	62.3158	10,556.4	61.988	10,556.4	57.1581	10,556.4	53.3848	10,556.4	57.213	10,556.4	55.5518	10,556.4	54.3826	10,556.4	56.0906	10,556.4	55.3242	10,556.4	50.5811	10,556.4	56.7778	10,556.4	55.2107	10,556.4	55.2217	10,556.4	56.2366	10,556.4	62.5993
10,928.5	82.8326	10,928.5	83.291	10,928.5	83.572	10,928.5	83.1719	10,928.5	83.7177	10,928.5	81.5764	10,928.5	82.2863	10,928.5	80.1038	10,928.5	80.7598	10,928.5	76.8145	10,928.5	78.3762	10,928.5	74.0498	10,928.5	75.8376	10,928.5	70.9209	10,928.5	72.8292	10,928.5	68.6719	10,928.5	71.5762	10,928.5	62.6623	10,928.5	66.033	10,928.5	61.7177	10,928.5	59.9168	10,928.5	62.5447	10,928.5	62.1321	10,928.5	56.2773	10,928.5	56.389	10,928.5	58.1616	10,928.5	54.5351	10,928.5	54.3891	10,928.5	57.785	10,928.5	53.947	10,928.5	50.8571	10,928.5	58.1303	10,928.5	57.7725	10,928.5	57.3002	10,928.5	55.2757	10,928.5	63.2551
11,313.7	82.4508	11,313.7	82.9504	11,313.7	83.2522	11,313.7	82.9913	11,313.7	83.4212	11,313.7	81.3085	11,313.7	81.8032	11,313.7	79.4509	11,313.7	80.204	11,313.7	75.9539	11,313.7	77.6849	11,313.7	73.553	11,313.7	75.2099	11,313.7	70.4721	11,313.7	72.5813	11,313.7	68.1615	11,313.7	71.5065	11,313.7	62.1389	11,313.7	66.6907	11,313.7	61.8641	11,313.7	61.5345	11,313.7	62.7172	11,313.7	62.1323	11,313.7	55.2573	11,313.7	57.6391	11,313.7	57.1193	11,313.7	53.6885	11,313.7	55.4575	11,313.7	58.6771	11,313.7	55.9342	11,313.7	51.3374	11,313.7	59.4047	11,313.7	58.6446	11,313.7	56.3285	11,313.7	54.8849	11,313.7	64.0636
11,712.9	81.9616	11,712.9	82.5235	11,712.9	82.6451	11,712.9	82.5257	11,712.9	82.6351	11,712.9	80.6893	11,712.9	80.8379	11,712.9	78.5314	11,712.9	79.1691	11,712.9	74.8542	11,712.9	76.4765	11,712.9	73.0579	11,712.9	74.2104	11,712.9	69.8261	11,712.9	71.8278	11,712.9	67.5475	11,712.9	71.3805	11,712.9	61.509	11,712.9	65.9988	11,712.9	61.5025	11,712.9	60.6925	11,712.9	62.8678	11,712.9	61.7172	11,712.9	52.4733	11,712.9	58.0357	11,712.9	57.8028	11,712.9	53.7107	11,712.9	55.4147	11,712.9	59.3885	11,712.9	52.8782	11,712.9	52.5733	11,712.9	60.4327	11,712.9	59.9548	11,712.9	56.9353	11,712.9	55.627	11,712.9	65.1059
12,126	82.0387	12,126	82.5795	12,126	82.5903	12,126	82.4004	12,126	82.2462	12,126	80.2251	12,126	80.0907	12,126	78.0797	12,126	78.3249	12,126	74.8216	12,126	75.3567	12,126	73.6426	12,126	73.447	12,126	70.5676	12,126	71.1991	12,126	68.5611	12,126	70.6832	12,126	62.2564	12,126	65.2491	12,126	60.432	12,126	59.489	12,126	63.0584	12,126	60.7467	12,126	49.2165	12,126	58.1157	12,126	59.1163	12,126	52.1757	12,126	54.8184	12,126	59.5066	12,126	50.5763	12,126	53.961	12,126	61.1383	12,126	58.8221	12,126	56.5455	12,126	59.701	12,126	66.5967
12,553.7	83.1732	12,553.7	83.109	12,553.7	83.7352	12,553.7	82.6692	12,553.7	83.0055	12,553.7	80.4424	12,553.7	80.6821	12,553.7	78.5346	12,553.7	78.6607	12,553.7	75.8838	12,553.7	75.8933	12,553.7	74.4848	12,553.7	73.8269	12,553.7	71.208	12,553.7	71.6785	12,553.7	69.1905	12,553.7	71.0148	12,553.7	62.5611	12,553.7	66.057	12,553.7	60.184	12,553.7	60.5998	12,553.7	63.9871	12,553.7	59.1775	12,553.7	48.7669	12,553.7	59.5812	12,553.7	60.5982	12,553.7	50.4895	12,553.7	55.5248	12,553.7	61.458	12,553.7	54.763	12,553.7	54.0638	12,553.7	61.5896	12,553.7	60.3864	12,553.7	54.2006	12,553.7	60.9786	12,553.7	67.6325
12,996.1	83.8122	12,996.1	83.3844	12,996.1	84.3026	12,996.1	82.9301	12,996.1	83.563	12,996.1	80.5678	12,996.1	81.1761	12,996.1	78.6543	12,996.1	78.8149	12,996.1	75.6408	12,996.1	76.4767	12,996.1	74.1878	12,996.1	74.1605	12,996.1	70.2259	12,996.1	72.2688	12,996.1	68.6717	12,996.1	71.8193	12,996.1	62.6143	12,996.1	68.0148	12,996.1	58.777	12,996.1	63.4733	12,996.1	63.7219	12,996.1	57.7454	12,996.1	50.4296	12,996.1	61.7572	12,996.1	61.3271	12,996.1	51.6115	12,996.1	57.8248	12,996.1	63.7049	12,996.1	56.6179	12,996.1	55.2211	12,996.1	63.3598	12,996.1	62.2466	12,996.1	55.4111	12,996.1	61.3027	12,996.1	68.158
13,454.6	84.2064	13,454.6	83.7487	13,454.6	84.5384	13,454.6	83.3175	13,454.6	83.6843	13,454.6	80.5986	13,454.6	81.0083	13,454.6	78.5283	13,454.6	78.724	13,454.6	75.6369	13,454.6	76.4139	13,454.6	74.0904	13,454.6	73.8486	13,454.6	69.9892	13,454.6	72.4674	13,454.6	69.0569	13,454.6	72.3343	13,454.6	63.6069	13,454.6	69.2489	13,454.6	56.7176	13,454.6	64.9017	13,454.6	64.3321	13,454.6	56.1508	13,454.6	51.2364	13,454.6	63.2201	13,454.6	61.3324	13,454.6	51.404	13,454.6	61.29	13,454.6	65.0765	13,454.6	57.7037	13,454.6	55.1111	13,454.6	65.962	13,454.6	64.2258	13,454.6	58.0165	13,454.6	62.1528	13,454.6	69.5099
13,928.5	83.885	13,928.5	83.2987	13,928.5	84.0758	13,928.5	82.9877	13,928.5	83.3182	13,928.5	80.0625	13,928.5	80.4414	13,928.5	78.2265	13,928.5	77.8826	13,928.5	75.3951	13,928.5	75.9567	13,928.5	73.8823	13,928.5	73.2264	13,928.5	69.9587	13,928.5	72.3529	13,928.5	69.7794	13,928.5	72.4095	13,928.5	65.1939	13,928.5	69.7042	13,928.5	54.7977	13,928.5	65.714	13,928.5	64.2713	13,928.5	53.3335	13,928.5	51.2808	13,928.5	64.1815	13,928.5	61.794	13,928.5	52.0779	13,928.5	61.2314	13,928.5	65.4353	13,928.5	57.8262	13,928.5	56.623	13,928.5	66.412	13,928.5	65.1518	13,928.5	59.3506	13,928.5	63.5098	13,928.5	70.3355
14,419.9	83.4223	14,419.9	82.7457	14,419.9	83.5094	14,419.9	82.4413	14,419.9	82.6858	14,419.9	79.2769	14,419.9	79.486	14,419.9	77.5947	14,419.9	77.0473	14,419.9	74.5295	14,419.9	75.3537	14,419.9	73.0752	14,419.9	72.3528	14,419.9	69.5263	14,419.9	71.9386	14,419.9	69.6103	14,419.9	72.0736	14,419.9	65.2141	14,419.9	69.257	14,419.9	53.6431	14,419.9	65.7162	14,419.9	63.5003	14,419.9	52.8387	14,419.9	52.2138	14,419.9	64.613	14,419.9	62.1231	14,419.9	52.6779	14,419.9	61.0302	14,419.9	65.617	14,419.9	57.5761	14,419.9	57.5224	14,419.9	66.5304	14,419.9	64.6492	14,419.9	59.339	14,419.9	64.892	14,419.9	70.7557
14,928.2	83.8424	14,928.2	83.0355	14,928.2	83.7324	14,928.2	82.6775	14,928.2	82.9166	14,928.2	79.0594	14,928.2	79.2964	14,928.2	77.5209	14,928.2	76.9971	14,928.2	73.9925	14,928.2	75.3041	14,928.2	73.0783	14,928.2	71.9565	14,928.2	68.9523	14,928.2	71.8717	14,928.2	69.2399	14,928.2	71.7632	14,928.2	65.0525	14,928.2	69.2637	14,928.2	49.793	14,928.2	66.1723	14,928.2	63.9395	14,928.2	52.4329	14,928.2	54.0475	14,928.2	64.7203	14,928.2	63.3485	14,928.2	54.8166	14,928.2	61.3361	14,928.2	65.9141	14,928.2	58.7619	14,928.2	58.9483	14,928.2	67.2154	14,928.2	64.7758	14,928.2	59.5608	14,928.2	65.6425	14,928.2	71.0634
15,454.8	84.483	15,454.8	83.7105	15,454.8	84.2652	15,454.8	83.192	15,454.8	83.4134	15,454.8	79.1885	15,454.8	79.1868	15,454.8	77.7045	15,454.8	76.9162	15,454.8	73.8038	15,454.8	75.3306	15,454.8	73.5735	15,454.8	71.9192	15,454.8	68.7182	15,454.8	71.8109	15,454.8	69.7497	15,454.8	72.03	15,454.8	66.2038	15,454.8	69.8099	15,454.8	45.6067	15,454.8	67.1441	15,454.8	64.6022	15,454.8	54.2095	15,454.8	57.6213	15,454.8	65.1309	15,454.8	64.5057	15,454.8	56.5267	15,454.8	63.2898	15,454.8	67.3754	15,454.8	59.9887	15,454.8	59.0485	15,454.8	68.9121	15,454.8	65.95	15,454.8	61.7836	15,454.8	65.8199	15,454.8	71.8454
15,999.8	84.9789	15,999.8	84.0557	15,999.8	84.4885	15,999.8	83.0525	15,999.8	83.2605	15,999.8	78.5729	15,999.8	78.2579	15,999.8	77.3784	15,999.8	76.1955	15,999.8	73.8444	15,999.8	74.7096	15,999.8	73.6667	15,999.8	71.3093	15,999.8	68.1475	15,999.8	71.2197	15,999.8	69.6954	15,999.8	71.6379	15,999.8	66.401	15,999.8	69.4653	15,999.8	50.9872	15,999.8	67.4899	15,999.8	64.5281	15,999.8	55.9826	15,999.8	58.7778	15,999.8	65.539	15,999.8	64.7072	15,999.8	57.6744	15,999.8	64.2161	15,999.8	67.7784	15,999.8	60.1513	15,999.8	58.5734	15,999.8	69.8306	15,999.8	66.874	15,999.8	63.0572	15,999.8	66.5618	15,999.8	72.7037
16,564.5	85.5178	16,564.5	84.1519	16,564.5	84.5455	16,564.5	82.3521	16,564.5	82.6896	16,564.5	77.7428	16,564.5	77.0063	16,564.5	76.906	16,564.5	75.4512	16,564.5	73.2037	16,564.5	74.2323	16,564.5	72.7904	16,564.5	70.918	16,564.5	66.1377	16,564.5	70.4174	16,564.5	67.9238	16,564.5	70.8361	16,564.5	65.6199	16,564.5	68.6059	16,564.5	52.677	16,564.5	67.2118	16,564.5	64.3716	16,564.5	57.7458	16,564.5	59.3611	16,564.5	65.1325	16,564.5	64.3257	16,564.5	57.9532	16,564.5	64.8559	16,564.5	67.4721	16,564.5	60.0054	16,564.5	59.0062	16,564.5	69.9846	16,564.5	67.0235	16,564.5	62.8783	16,564.5	67.1019	16,564.5	73.0713
17,148.2	85.8075	17,148.2	83.9411	17,148.2	84.2602	17,148.2	81.8799	17,148.2	82.1302	17,148.2	77.5323	17,148.2	76.353	17,148.2	76.6217	17,148.2	75.2686	17,148.2	72.5152	17,148.2	74.1025	17,148.2	72.1304	17,148.2	70.9145	17,148.2	63.9922	17,148.2	68.7872	17,148.2	67.4357	17,148.2	69.5898	17,148.2	66.5685	17,148.2	67.7238	17,148.2	57.0134	17,148.2	66.4807	17,148.2	65.1984	17,148.2	59.6839	17,148.2	61.0448	17,148.2	65.2919	17,148.2	65.1993	17,148.2	58.4701	17,148.2	65.621	17,148.2	68.0181	17,148.2	60.6958	17,148.2	59.5919	17,148.2	70.556	17,148.2	67.6633	17,148.2	62.5672	17,148.2	67.38	17,148.2	73.4944
17,753.2	86.1453	17,753.2	84.1347	17,753.2	84.2475	17,753.2	82.0619	17,753.2	82.0834	17,753.2	77.7348	17,753.2	76.0655	17,753.2	76.6266	17,753.2	75.0125	17,753.2	72.4739	17,753.2	74.0942	17,753.2	72.173	17,753.2	71.4441	17,753.2	62.6952	17,753.2	67.2238	17,753.2	67.9589	17,753.2	69.1595	17,753.2	67.4489	17,753.2	67.2091	17,753.2	60.4203	17,753.2	66.5869	17,753.2	66.7176	17,753.2	61.8573	17,753.2	62.1985	17,753.2	65.9709	17,753.2	66.2602	17,753.2	58.6424	17,753.2	66.8107	17,753.2	69.0818	17,753.2	61.9187	17,753.2	59.0359	17,753.2	71.637	17,753.2	69.0056	17,753.2	63.66	17,753.2	67.7299	17,753.2	74.1262
18,379.4	85.8612	18,379.4	83.7029	18,379.4	83.5485	18,379.4	81.4483	18,379.4	81.1674	18,379.4	77.0336	18,379.4	74.9444	18,379.4	75.8618	18,379.4	73.8505	18,379.4	71.8658	18,379.4	73.8276	18,379.4	71.121	18,379.4	71.4695	18,379.4	60.9989	18,379.4	64.8443	18,379.4	67.0321	18,379.4	68.2105	18,379.4	67.2547	18,379.4	65.3494	18,379.4	62.5658	18,379.4	65.8897	18,379.4	67.2335	18,379.4	62.4112	18,379.4	62.8758	18,379.4	65.4652	18,379.4	66.3453	18,379.4	58.3522	18,379.4	67.174	18,379.4	68.7507	18,379.4	61.9437	18,379.4	59.2154	18,379.4	71.8782	18,379.4	69.3168	18,379.4	64.0076	18,379.4	67.9305	18,379.4	74.2695
19,027.6	84.5998	19,027.6	82.3016	19,027.6	81.9251	19,027.6	79.8263	19,027.6	79.3393	19,027.6	75.5474	19,027.6	73.0895	19,027.6	74.234	19,027.6	72.3187	19,027.6	69.8846	19,027.6	72.4608	19,027.6	68.9055	19,027.6	70.2324	19,027.6	58.3947	19,027.6	62.195	19,027.6	64.9395	19,027.6	66.0917	19,027.6	66.119	19,027.6	62.0409	19,027.6	63.2663	19,027.6	63.7562	19,027.6	66.5448	19,027.6	61.4087	19,027.6	62.4938	19,027.6	64.0671	19,027.6	65.3957	19,027.6	56.8924	19,027.6	66.3568	19,027.6	67.3798	19,027.6	60.7924	19,027.6	59.1162	19,027.6	70.8546	19,027.6	68.059	19,027.6	61.8788	19,027.6	67.397	19,027.6	73.3114
19,698.5	84.7853	19,698.5	82.4135	19,698.5	81.6796	19,698.5	79.7559	19,698.5	78.9269	19,698.5	75.2735	19,698.5	73.1416	19,698.5	73.4715	19,698.5	71.5442	19,698.5	68.6291	19,698.5	71.9365	19,698.5	68.807	19,698.5	70.1552	19,698.5	56.8363	19,698.5	58.3582	19,698.5	64.1667	19,698.5	64.6364	19,698.5	65.9907	19,698.5	60.1963	19,698.5	63.8505	19,698.5	62.2757	19,698.5	67.2277	19,698.5	61.0705	19,698.5	62.1702	19,698.5	63.9007	19,698.5	65.7751	19,698.5	55.4527	19,698.5	65.9989	19,698.5	67.4034	19,698.5	61.3289	19,698.5	57.7279	19,698.5	70.5786	19,698.5	67.7794	19,698.5	62.2884	19,698.5	66.7398	19,698.5	72.6141
19,999.5	84.7996	19,999.5	82.5122	19,999.5	81.4541	19,999.5	79.6416	19,999.5	78.8146	19,999.5	75.0723	19,999.5	73.0009	19,999.5	72.9055	19,999.5	71.3837	19,999.5	68.2726	19,999.5	71.7097	19,999.5	68.6871	19,999.5	70.3379	19,999.5	57.0902	19,999.5	54.6461	19,999.5	63.0299	19,999.5	63.9928	19,999.5	65.8188	19,999.5	59.7703	19,999.5	63.3943	19,999.5	61.5038	19,999.5	67.6616	19,999.5	60.2125	19,999.5	61.5788	19,999.5	63.9992	19,999.5	65.7327	19,999.5	54.7818	19,999.5	65.9307	19,999.5	67.3994	19,999.5	61.3647	19,999.5	56.9937	19,999.5	70.5641	19,999.5	68.0032	19,999.5	62.3583	19,999.5	66.8009	19,999.5	72.7078
