"SPL Horizontal"
"On-Axis"		"10°"		"-10°"		"20°"		"-20°"		"30°"		"-30°"		"40°"		"-40°"		"50°"		"-50°"		"60°"		"-60°"		"70°"		"-70°"		"80°"		"-80°"		"90°"		"-90°"		"100°"		"-100°"		"110°"		"-110°"		"120°"		"-120°"		"130°"		"-130°"		"140°"		"-140°"		"150°"		"-150°"		"160°"		"-160°"		"170°"		"-170°"		"180°"
"Frequency / Hz"	"Sound Pressure Level / dB (re 20 µPa/V)  [2.83  V @ 1. m]"	"Frequency / Hz"	"Sound Pressure Level / dB (re 20 µPa/V)  [2.83  V @ 1. m]"	"Frequency / Hz"	"Sound Pressure Level / dB (re 20 µPa/V)  [2.83  V @ 1. m]"	"Frequency / Hz"	"Sound Pressure Level / dB (re 20 µPa/V)  [2.83  V @ 1. m]"	"Frequency / Hz"	"Sound Pressure Level / dB (re 20 µPa/V)  [2.83  V @ 1. m]"	"Frequency / Hz"	"Sound Pressure Level / dB (re 20 µPa/V)  [2.83  V @ 1. m]"	"Frequency / Hz"	"Sound Pressure Level / dB (re 20 µPa/V)  [2.83  V @ 1. m]"	"Frequency / Hz"	"Sound Pressure Level / dB (re 20 µPa/V)  [2.83  V @ 1. m]"	"Frequency / Hz"	"Sound Pressure Level / dB (re 20 µPa/V)  [2.83  V @ 1. m]"	"Frequency / Hz"	"Sound Pressure Level / dB (re 20 µPa/V)  [2.83  V @ 1. m]"	"Frequency / Hz"	"Sound Pressure Level / dB (re 20 µPa/V)  [2.83  V @ 1. m]"	"Frequency / Hz"	"Sound Pressure Level / dB (re 20 µPa/V)  [2.83  V @ 1. m]"	"Frequency / Hz"	"Sound Pressure Level / dB (re 20 µPa/V)  [2.83  V @ 1. m]"	"Frequency / Hz"	"Sound Pressure Level / dB (re 20 µPa/V)  [2.83  V @ 1. m]"	"Frequency / Hz"	"Sound Pressure Level / dB (re 20 µPa/V)  [2.83  V @ 1. m]"	"Frequency / Hz"	"Sound Pressure Level / dB (re 20 µPa/V)  [2.83  V @ 1. m]"	"Frequency / Hz"	"Sound Pressure Level / dB (re 20 µPa/V)  [2.83  V @ 1. m]"	"Frequency / Hz"	"Sound Pressure Level / dB (re 20 µPa/V)  [2.83  V @ 1. m]"	"Frequency / Hz"	"Sound Pressure Level / dB (re 20 µPa/V)  [2.83  V @ 1. m]"	"Frequency / Hz"	"Sound Pressure Level / dB (re 20 µPa/V)  [2.83  V @ 1. m]"	"Frequency / Hz"	"Sound Pressure Level / dB (re 20 µPa/V)  [2.83  V @ 1. m]"	"Frequency / Hz"	"Sound Pressure Level / dB (re 20 µPa/V)  [2.83  V @ 1. m]"	"Frequency / Hz"	"Sound Pressure Level / dB (re 20 µPa/V)  [2.83  V @ 1. m]"	"Frequency / Hz"	"Sound Pressure Level / dB (re 20 µPa/V)  [2.83  V @ 1. m]"	"Frequency / Hz"	"Sound Pressure Level / dB (re 20 µPa/V)  [2.83  V @ 1. m]"	"Frequency / Hz"	"Sound Pressure Level / dB (re 20 µPa/V)  [2.83  V @ 1. m]"	"Frequency / Hz"	"Sound Pressure Level / dB (re 20 µPa/V)  [2.83  V @ 1. m]"	"Frequency / Hz"	"Sound Pressure Level / dB (re 20 µPa/V)  [2.83  V @ 1. m]"	"Frequency / Hz"	"Sound Pressure Level / dB (re 20 µPa/V)  [2.83  V @ 1. m]"	"Frequency / Hz"	"Sound Pressure Level / dB (re 20 µPa/V)  [2.83  V @ 1. m]"	"Frequency / Hz"	"Sound Pressure Level / dB (re 20 µPa/V)  [2.83  V @ 1. m]"	"Frequency / Hz"	"Sound Pressure Level / dB (re 20 µPa/V)  [2.83  V @ 1. m]"	"Frequency / Hz"	"Sound Pressure Level / dB (re 20 µPa/V)  [2.83  V @ 1. m]"	"Frequency / Hz"	"Sound Pressure Level / dB (re 20 µPa/V)  [2.83  V @ 1. m]"	"Frequency / Hz"	"Sound Pressure Level / dB (re 20 µPa/V)  [2.83  V @ 1. m]"	"Frequency / Hz"	"Sound Pressure Level / dB (re 20 µPa/V)  [2.83  V @ 1. m]"
20.5078	73.8493	20.5078	73.8137	20.5078	73.9126	20.5078	73.8072	20.5078	74.0013	20.5078	73.8298	20.5078	74.1121	20.5078	73.8804	20.5078	74.2409	20.5078	73.9569	20.5078	74.383	20.5078	74.0559	20.5078	74.5333	20.5078	74.1733	20.5078	74.6866	20.5078	74.3049	20.5078	74.8376	20.5078	74.4461	20.5078	74.9816	20.5078	74.5929	20.5078	75.1141	20.5078	74.7409	20.5078	75.2318	20.5078	74.8861	20.5078	75.3318	20.5078	75.0243	20.5078	75.4121	20.5078	75.1513	20.5078	75.4714	20.5078	75.2635	20.5078	75.5086	20.5078	75.3578	20.5078	75.5234	20.5078	75.432	20.5078	75.5154	20.5078	75.4848
21.9727	76.7384	21.9727	76.7271	21.9727	76.7769	21.9727	76.7431	21.9727	76.842	21.9727	76.7859	21.9727	76.9323	21.9727	76.8542	21.9727	77.0457	21.9727	76.946	21.9727	77.1794	21.9727	77.0585	21.9727	77.3296	21.9727	77.1883	21.9727	77.4915	21.9727	77.3313	21.9727	77.6597	21.9727	77.4833	21.9727	77.828	21.9727	77.6396	21.9727	77.9901	21.9727	77.7953	21.9727	78.1396	21.9727	77.9457	21.9727	78.2711	21.9727	78.0862	21.9727	78.38	21.9727	78.2129	21.9727	78.4632	21.9727	78.3225	21.9727	78.5194	21.9727	78.4127	21.9727	78.5484	21.9727	78.4817	21.9727	78.5509	21.9727	78.5282
23.4375	78.4415	23.4375	78.441	23.4375	78.4679	23.4375	78.4665	23.4375	78.5195	23.4375	78.5175	23.4375	78.5949	23.4375	78.5927	23.4375	78.6923	23.4375	78.69	23.4375	78.8091	23.4375	78.8066	23.4375	78.942	23.4375	78.9392	23.4375	79.0872	23.4375	79.0834	23.4375	79.2402	23.4375	79.2345	23.4375	79.3955	23.4375	79.3874	23.4375	79.5476	23.4375	79.5367	23.4375	79.6904	23.4375	79.6769	23.4375	79.8187	23.4375	79.8036	23.4375	79.9282	23.4375	79.9127	23.4375	80.0161	23.4375	80.0019	23.4375	80.081	23.4375	80.0696	23.4375	80.123	23.4375	80.1156	23.4375	80.1424	23.4375	80.1398
24.9023	81.0193	24.9023	81.0188	24.9023	81.0462	24.9023	81.0447	24.9023	81.0989	24.9023	81.0965	24.9023	81.1761	24.9023	81.1732	24.9023	81.2764	24.9023	81.273	24.9023	81.3973	24.9023	81.3933	24.9023	81.536	24.9023	81.5307	24.9023	81.6885	24.9023	81.6812	24.9023	81.8502	24.9023	81.8397	24.9023	82.0155	24.9023	82.0007	24.9023	82.1781	24.9023	82.1587	24.9023	82.3316	24.9023	82.3078	24.9023	82.4702	24.9023	82.4431	24.9023	82.5887	24.9023	82.5605	24.9023	82.6838	24.9023	82.6572	24.9023	82.7536	24.9023	82.7318	24.9023	82.7978	24.9023	82.7834	24.9023	82.8169	24.9023	82.8119
26.3672	83.8124	26.3672	83.8146	26.3672	83.837	26.3672	83.8434	26.3672	83.888	26.3672	83.8981	26.3672	83.9643	26.3672	83.9775	26.3672	84.0641	26.3672	84.0794	26.3672	84.1851	26.3672	84.201	26.3672	84.3238	26.3672	84.3388	26.3672	84.4761	26.3672	84.4884	26.3672	84.6367	26.3672	84.6449	26.3672	84.8002	26.3672	84.8027	26.3672	84.9601	26.3672	84.9564	26.3672	85.1105	26.3672	85.1007	26.3672	85.2457	26.3672	85.2308	26.3672	85.3611	26.3672	85.3432	26.3672	85.4537	26.3672	85.4354	26.3672	85.5218	26.3672	85.506	26.3672	85.5653	26.3672	85.5546	26.3672	85.5847	26.3672	85.5809
27.832	86.4549	27.832	86.4578	27.832	86.4785	27.832	86.4873	27.832	86.5282	27.832	86.5428	27.832	86.6028	27.832	86.6232	27.832	86.7009	27.832	86.7268	27.832	86.82	27.832	86.8511	27.832	86.9573	27.832	86.9927	27.832	87.1088	27.832	87.1474	27.832	87.2698	27.832	87.3102	27.832	87.4348	27.832	87.4754	27.832	87.5977	27.832	87.6367	27.832	87.7523	27.832	87.788	27.832	87.8927	27.832	87.9239	27.832	88.0142	27.832	88.04	27.832	88.1134	27.832	88.1334	27.832	88.1887	27.832	88.2027	27.832	88.2394	27.832	88.2477	27.832	88.266	27.832	88.2687
29.2969	88.7837	29.2969	88.7869	29.2969	88.8064	29.2969	88.8159	29.2969	88.8546	29.2969	88.8701	29.2969	88.9274	29.2969	88.9487	29.2969	89.0233	29.2969	89.0498	29.2969	89.1402	29.2969	89.1711	29.2969	89.2751	29.2969	89.3093	29.2969	89.4244	29.2969	89.4602	29.2969	89.5833	29.2969	89.619	29.2969	89.7463	29.2969	89.7801	29.2969	89.9073	29.2969	89.9376	29.2969	90.0601	29.2969	90.0856	29.2969	90.1989	29.2969	90.2189	29.2969	90.3188	29.2969	90.3334	29.2969	90.4164	29.2969	90.4263	29.2969	90.4901	29.2969	90.4961	29.2969	90.5391	29.2969	90.5422	29.2969	90.5639	29.2969	90.5648
30.7617	89.932	30.7617	89.9384	30.7617	89.9516	30.7617	89.9706	30.7617	89.9968	30.7617	90.0283	30.7617	90.0669	30.7617	90.1104	30.7617	90.1605	30.7617	90.2152	30.7617	90.2756	30.7617	90.3406	30.7617	90.4098	30.7617	90.4834	30.7617	90.5595	30.7617	90.6396	30.7617	90.7203	30.7617	90.8044	30.7617	90.887	30.7617	90.9721	30.7617	91.0538	30.7617	91.1367	30.7617	91.2144	30.7617	91.292	30.7617	91.3627	30.7617	91.4323	30.7617	91.4935	30.7617	91.5528	30.7617	91.6026	30.7617	91.6501	30.7617	91.6875	30.7617	91.722	30.7617	91.7468	30.7617	91.7677	30.7617	91.78	30.7617	91.787
32.2266	90.1265	32.2266	90.1335	32.2266	90.144	32.2266	90.1649	32.2266	90.1857	32.2266	90.2201	32.2266	90.2511	32.2266	90.2983	32.2266	90.3392	32.2266	90.3982	32.2266	90.4485	32.2266	90.5177	32.2266	90.5766	32.2266	90.654	32.2266	90.7205	32.2266	90.8036	32.2266	90.8759	32.2266	90.9618	32.2266	91.0381	32.2266	91.1233	32.2266	91.2009	32.2266	91.282	32.2266	91.3582	32.2266	91.4321	32.2266	91.5037	32.2266	91.5679	32.2266	91.632	32.2266	91.6848	32.2266	91.7386	32.2266	91.7794	32.2266	91.821	32.2266	91.8497	32.2266	91.8779	32.2266	91.8949	32.2266	91.9091	32.2266	91.9147
33.6914	90.1019	33.6914	90.1051	33.6914	90.1233	33.6914	90.1328	33.6914	90.169	33.6914	90.1846	33.6914	90.2385	33.6914	90.2597	33.6914	90.3307	33.6914	90.357	33.6914	90.4439	33.6914	90.4746	33.6914	90.5759	33.6914	90.61	33.6914	90.7234	33.6914	90.7596	33.6914	90.8821	33.6914	90.9191	33.6914	91.0471	33.6914	91.0834	33.6914	91.2123	33.6914	91.2467	33.6914	91.3716	33.6914	91.4027	33.6914	91.5189	33.6914	91.5458	33.6914	91.6488	33.6914	91.6707	33.6914	91.7569	33.6914	91.7736	33.6914	91.8401	33.6914	91.8518	33.6914	91.8969	33.6914	91.9037	33.6914	91.9264	33.6914	91.9287
35.1562	90.2851	35.1562	90.2902	35.1562	90.3037	35.1562	90.319	35.1562	90.346	35.1562	90.3712	35.1562	90.4114	35.1562	90.4461	35.1562	90.4992	35.1562	90.5427	35.1562	90.6079	35.1562	90.6594	35.1562	90.7356	35.1562	90.7937	35.1562	90.8792	35.1562	90.9425	35.1562	91.035	35.1562	91.1013	35.1562	91.198	35.1562	91.2652	35.1562	91.3627	35.1562	91.4283	35.1562	91.5229	35.1562	91.5843	35.1562	91.6724	35.1562	91.7274	35.1562	91.8055	35.1562	91.8521	35.1562	91.9175	35.1562	91.9544	35.1562	92.005	35.1562	92.0315	35.1562	92.0659	35.1562	92.0818	35.1562	92.0991	35.1562	92.1044
36.6211	90.7484	36.6211	90.7549	36.6211	90.7657	36.6211	90.7851	36.6211	90.8068	36.6211	90.8389	36.6211	90.871	36.6211	90.9155	36.6211	90.9578	36.6211	91.014	36.6211	91.0658	36.6211	91.1327	36.6211	91.193	36.6211	91.2693	36.6211	91.3366	36.6211	91.4205	36.6211	91.4927	36.6211	91.582	36.6211	91.6567	36.6211	91.7485	36.6211	91.8228	36.6211	91.914	36.6211	91.9852	36.6211	92.0723	36.6211	92.1375	36.6211	92.2172	36.6211	92.274	36.6211	92.3431	36.6211	92.3898	36.6211	92.446	36.6211	92.4814	36.6211	92.5226	36.6211	92.5464	36.6211	92.5715	36.6211	92.5834	36.6211	92.5918
38.0859	91.628	38.0859	91.6337	38.0859	91.6454	38.0859	91.6623	38.0859	91.6856	38.0859	91.7138	38.0859	91.7483	38.0859	91.7875	38.0859	91.8328	38.0859	91.8827	38.0859	91.9381	38.0859	91.9979	38.0859	92.0623	38.0859	92.1311	38.0859	92.2029	38.0859	92.2789	38.0859	92.3561	38.0859	92.4375	38.0859	92.5174	38.0859	92.6017	38.0859	92.6815	38.0859	92.7657	38.0859	92.8421	38.0859	92.9231	38.0859	92.9932	38.0859	93.0679	38.0859	93.1289	38.0859	93.1943	38.0859	93.2442	38.0859	93.2978	38.0859	93.3356	38.0859	93.3753	38.0859	93.4005	38.0859	93.4248	38.0859	93.4374	38.0859	93.4456
39.5508	92.7386	39.5508	92.7443	39.5508	92.7557	39.5508	92.7729	39.5508	92.7954	39.5508	92.824	39.5508	92.8575	39.5508	92.8975	39.5508	92.9414	39.5508	92.9924	39.5508	93.0461	39.5508	93.1075	39.5508	93.1698	39.5508	93.2407	39.5508	93.3102	39.5508	93.3889	39.5508	93.4636	39.5508	93.5481	39.5508	93.6256	39.5508	93.7132	39.5508	93.7908	39.5508	93.8784	39.5508	93.9531	39.5508	94.0375	39.5508	94.1064	39.5508	94.184	39.5508	94.2445	39.5508	94.3123	39.5508	94.3624	39.5508	94.4177	39.5508	94.4561	39.5508	94.4968	39.5508	94.5227	39.5508	94.5476	39.5508	94.5606	39.5508	94.569
41.0156	94.1473	41.0156	94.1534	41.0156	94.164	41.0156	94.1823	41.0156	94.2032	41.0156	94.2337	41.0156	94.2649	41.0156	94.3075	41.0156	94.3483	41.0156	94.403	41.0156	94.4526	41.0156	94.5189	41.0156	94.5762	41.0156	94.6532	41.0156	94.7166	41.0156	94.8029	41.0156	94.8705	41.0156	94.9642	41.0156	95.0337	41.0156	95.132	41.0156	95.201	41.0156	95.3004	41.0156	95.3663	41.0156	95.4629	41.0156	95.5236	41.0156	95.6131	41.0156	95.6666	41.0156	95.7451	41.0156	95.7898	41.0156	95.854	41.0156	95.8886	41.0156	95.936	41.0156	95.9595	41.0156	95.9885	41.0156	96.0004	41.0156	96.0102
42.4805	95.3971	42.4805	95.4075	42.4805	95.4087	42.4805	95.4398	42.4805	95.4423	42.4805	95.4938	42.4805	95.4978	42.4805	95.5691	42.4805	95.5749	42.4805	95.6652	42.4805	95.6729	42.4805	95.7809	42.4805	95.7904	42.4805	95.9141	42.4805	95.9255	42.4805	96.0621	42.4805	96.0751	42.4805	96.2211	42.4805	96.2351	42.4805	96.386	42.4805	96.4004	42.4805	96.5512	42.4805	96.5651	42.4805	96.7104	42.4805	96.7228	42.4805	96.857	42.4805	96.8673	42.4805	96.9851	42.4805	96.9928	42.4805	97.0897	42.4805	97.0948	42.4805	97.1668	42.4805	97.1698	42.4805	97.2141	42.4805	97.2155	42.4805	97.2304
43.9453	96.4472	43.9453	96.4572	43.9453	96.4584	43.9453	96.4884	43.9453	96.4909	43.9453	96.5406	43.9453	96.5447	43.9453	96.6137	43.9453	96.6196	43.9453	96.7071	43.9453	96.715	43.9453	96.8197	43.9453	96.8299	43.9453	96.9499	43.9453	96.9623	43.9453	97.0948	43.9453	97.1093	43.9453	97.2509	43.9453	97.267	43.9453	97.4134	43.9453	97.4304	43.9453	97.5766	43.9453	97.5936	43.9453	97.7343	43.9453	97.7504	43.9453	97.8801	43.9453	97.8943	43.9453	98.0079	43.9453	98.0196	43.9453	98.1127	43.9453	98.1214	43.9453	98.1906	43.9453	98.1962	43.9453	98.2387	43.9453	98.2415	43.9453	98.2558
45.4102	97.042	45.4102	97.0533	45.4102	97.0511	45.4102	97.0848	45.4102	97.0806	45.4102	97.1364	45.4102	97.1307	45.4102	97.208	45.4102	97.2014	45.4102	97.2991	45.4102	97.2923	45.4102	97.409	45.4102	97.4026	45.4102	97.536	45.4102	97.5308	45.4102	97.6777	45.4102	97.674	45.4102	97.8306	45.4102	97.8287	45.4102	97.9901	45.4102	97.9898	45.4102	98.1507	45.4102	98.1517	45.4102	98.3063	45.4102	98.308	45.4102	98.4505	45.4102	98.4522	45.4102	98.5771	45.4102	98.5784	45.4102	98.6809	45.4102	98.6816	45.4102	98.7577	45.4102	98.758	45.4102	98.8049	45.4102	98.8049	45.4102	98.8207
46.875	97.2198	46.875	97.2301	46.875	97.2294	46.875	97.2601	46.875	97.259	46.875	97.3098	46.875	97.3088	46.875	97.3792	46.875	97.3789	46.875	97.4681	46.875	97.4692	46.875	97.5757	46.875	97.579	46.875	97.7008	46.875	97.7066	46.875	97.8411	46.875	97.8497	46.875	97.9933	46.875	98.0045	46.875	98.153	46.875	98.1661	46.875	98.3146	46.875	98.3286	46.875	98.4719	46.875	98.4856	46.875	98.6184	46.875	98.6306	46.875	98.7477	46.875	98.7576	46.875	98.8541	46.875	98.8615	46.875	98.9335	46.875	98.9381	46.875	98.9826	46.875	98.9848	46.875	98.9999
48.3398	97.0724	48.3398	97.0813	48.3398	97.0827	48.3398	97.1091	48.3398	97.1121	48.3398	97.156	48.3398	97.161	48.3398	97.2221	48.3398	97.2297	48.3398	97.3074	48.3398	97.3181	48.3398	97.4113	48.3398	97.4257	48.3398	97.5327	48.3398	97.5511	48.3398	97.6698	48.3398	97.6921	48.3398	97.8192	48.3398	97.8449	48.3398	97.9768	48.3398	98.0049	48.3398	98.1372	48.3398	98.1662	48.3398	98.2942	48.3398	98.3223	48.3398	98.4411	48.3398	98.4667	48.3398	98.5716	48.3398	98.5932	48.3398	98.6799	48.3398	98.6965	48.3398	98.7613	48.3398	98.7725	48.3398	98.8126	48.3398	98.8182	48.3398	98.8317
51.2695	96.4772	51.2695	96.4856	51.2695	96.4862	51.2695	96.5115	51.2695	96.513	51.2695	96.555	51.2695	96.5579	51.2695	96.6165	51.2695	96.6214	51.2695	96.6962	51.2695	96.7037	51.2695	96.7938	51.2695	96.8047	51.2695	96.9087	51.2695	96.9233	51.2695	97.0393	51.2695	97.0577	51.2695	97.1826	51.2695	97.2045	51.2695	97.3348	51.2695	97.3594	51.2695	97.4908	51.2695	97.5166	51.2695	97.6443	51.2695	97.67	51.2695	97.789	51.2695	97.8127	51.2695	97.9182	51.2695	97.9386	51.2695	98.026	51.2695	98.042	51.2695	98.1074	51.2695	98.1183	51.2695	98.1588	51.2695	98.1643	51.2695	98.178
52.7344	96.2719	52.7344	96.2817	52.7344	96.2786	52.7344	96.3079	52.7344	96.302	52.7344	96.3506	52.7344	96.3427	52.7344	96.4102	52.7344	96.4014	52.7344	96.487	52.7344	96.4786	52.7344	96.5809	52.7344	96.5741	52.7344	96.6916	52.7344	96.6875	52.7344	96.8175	52.7344	96.8169	52.7344	96.9563	52.7344	96.9595	52.7344	97.1043	52.7344	97.111	52.7344	97.2565	52.7344	97.2659	52.7344	97.4072	52.7344	97.4179	52.7344	97.5496	52.7344	97.5603	52.7344	97.6773	52.7344	97.6868	52.7344	97.7839	52.7344	97.7914	52.7344	97.8643	52.7344	97.8693	52.7344	97.9146	52.7344	97.9171	52.7344	97.9325
54.1992	96.1239	54.1992	96.1318	54.1992	96.1311	54.1992	96.1549	54.1992	96.1539	54.1992	96.1935	54.1992	96.1929	54.1992	96.2481	54.1992	96.2487	54.1992	96.3194	54.1992	96.3221	54.1992	96.4075	54.1992	96.4133	54.1992	96.5124	54.1992	96.5219	54.1992	96.6329	54.1992	96.6465	54.1992	96.767	54.1992	96.7844	54.1992	96.911	54.1992	96.9316	54.1992	97.0604	54.1992	97.0828	54.1992	97.2092	54.1992	97.2319	54.1992	97.3508	54.1992	97.3721	54.1992	97.4784	54.1992	97.4968	54.1992	97.5858	54.1992	97.6001	54.1992	97.6673	54.1992	97.677	54.1992	97.7188	54.1992	97.7237	54.1992	97.7379
55.6641	96.0332	55.6641	96.0399	55.6641	96.041	55.6641	96.0612	55.6641	96.0638	55.6641	96.0975	55.6641	96.1022	55.6641	96.1492	55.6641	96.157	55.6641	96.2172	55.6641	96.2291	55.6641	96.302	55.6641	96.3188	55.6641	96.4036	55.6641	96.4259	55.6641	96.5211	55.6641	96.5491	55.6641	96.6525	55.6641	96.6857	55.6641	96.7946	55.6641	96.8319	55.6641	96.9428	55.6641	96.9822	55.6641	97.0911	55.6641	97.1306	55.6641	97.233	55.6641	97.27	55.6641	97.3615	55.6641	97.3939	55.6641	97.4703	55.6641	97.4961	55.6641	97.5537	55.6641	97.5716	55.6641	97.6074	55.6641	97.6166	55.6641	97.6287
58.5938	96.0725	58.5938	96.0748	58.5938	96.0829	58.5938	96.0897	58.5938	96.1061	58.5938	96.1178	58.5938	96.1432	58.5938	96.16	58.5938	96.195	58.5938	96.2172	58.5938	96.2628	58.5938	96.2906	58.5938	96.3472	58.5938	96.3807	58.5938	96.4485	58.5938	96.4872	58.5938	96.5657	58.5938	96.6088	58.5938	96.6966	58.5938	96.7429	58.5938	96.8375	58.5938	96.8854	58.5938	96.9833	58.5938	97.0309	58.5938	97.1277	58.5938	97.1729	58.5938	97.2636	58.5938	97.3044	58.5938	97.384	58.5938	97.4185	58.5938	97.4825	58.5938	97.5087	58.5938	97.5534	58.5938	97.5699	58.5938	97.5929	58.5938	97.5985
60.0586	96.1431	60.0586	96.1444	60.0586	96.1531	60.0586	96.1573	60.0586	96.1751	60.0586	96.1824	60.0586	96.2098	60.0586	96.2205	60.0586	96.2585	60.0586	96.2729	60.0586	96.3224	60.0586	96.3409	60.0586	96.4026	60.0586	96.4253	60.0586	96.4994	60.0586	96.5263	60.0586	96.6121	60.0586	96.6428	60.0586	96.7388	60.0586	96.7726	60.0586	96.8761	60.0586	96.9118	60.0586	97.0187	60.0586	97.0552	60.0586	97.1607	60.0586	97.1961	60.0586	97.2948	60.0586	97.3276	60.0586	97.4141	60.0586	97.4422	60.0586	97.5117	60.0586	97.5335	60.0586	97.5821	60.0586	97.5958	60.0586	97.6208	60.0586	97.6255
62.9883	96.3195	62.9883	96.3186	62.9883	96.3299	62.9883	96.3272	62.9883	96.3502	62.9883	96.3462	62.9883	96.3814	62.9883	96.3767	62.9883	96.4249	62.9883	96.4204	62.9883	96.4823	62.9883	96.4789	62.9883	96.5549	62.9883	96.5538	62.9883	96.6436	62.9883	96.6455	62.9883	96.7483	62.9883	96.7539	62.9883	96.8676	62.9883	96.8769	62.9883	96.9982	62.9883	97.0112	62.9883	97.1357	62.9883	97.1516	62.9883	97.2738	62.9883	97.2915	62.9883	97.4055	62.9883	97.4235	62.9883	97.5235	62.9883	97.54	62.9883	97.6204	62.9883	97.6338	62.9883	97.6901	62.9883	97.6989	62.9883	97.7279	62.9883	97.7309
64.4531	96.4075	64.4531	96.4057	64.4531	96.4176	64.4531	96.4125	64.4531	96.4365	64.4531	96.4285	64.4531	96.4653	64.4531	96.4552	64.4531	96.5056	64.4531	96.4943	64.4531	96.5589	64.4531	96.5476	64.4531	96.627	64.4531	96.6169	64.4531	96.7108	64.4531	96.7031	64.4531	96.8105	64.4531	96.8062	64.4531	96.925	64.4531	96.9246	64.4531	97.0515	64.4531	97.0551	64.4531	97.1855	64.4531	97.1927	64.4531	97.321	64.4531	97.3309	64.4531	97.451	64.4531	97.4625	64.4531	97.568	64.4531	97.5793	64.4531	97.6644	64.4531	97.674	64.4531	97.7337	64.4531	97.7402	64.4531	97.771	64.4531	97.7733
67.3828	96.549	67.3828	96.5437	67.3828	96.5609	67.3828	96.5452	67.3828	96.5797	67.3828	96.5544	67.3828	96.6064	67.3828	96.573	67.3828	96.6427	67.3828	96.6029	67.3828	96.6904	67.3828	96.6464	67.3828	96.7513	67.3828	96.7057	67.3828	96.8269	67.3828	96.7821	67.3828	96.9178	67.3828	96.8762	67.3828	97.0234	67.3828	96.9871	67.3828	97.1417	67.3828	97.1119	67.3828	97.2685	67.3828	97.2459	67.3828	97.3984	67.3828	97.3829	67.3828	97.5243	67.3828	97.515	67.3828	97.6384	67.3828	97.634	67.3828	97.733	67.3828	97.7316	67.3828	97.8008	67.3828	97.8008	67.3828	97.8364	67.3828	97.8366
68.8477	96.6177	68.8477	96.6102	68.8477	96.6306	68.8477	96.6087	68.8477	96.6495	68.8477	96.6139	68.8477	96.6755	68.8477	96.6277	68.8477	96.7101	68.8477	96.6521	68.8477	96.7553	68.8477	96.6896	68.8477	96.8129	68.8477	96.7425	68.8477	96.8847	68.8477	96.8127	68.8477	96.9713	68.8477	96.9009	68.8477	97.0724	68.8477	97.0066	68.8477	97.186	68.8477	97.1273	68.8477	97.3082	68.8477	97.2585	68.8477	97.4335	68.8477	97.3939	68.8477	97.5552	68.8477	97.5255	68.8477	97.6655	68.8477	97.645	68.8477	97.7566	68.8477	97.7437	68.8477	97.8214	68.8477	97.8146	68.8477	97.8544	68.8477	97.8523
71.7773	96.7843	71.7773	96.7707	71.7773	96.8008	71.7773	96.7605	71.7773	96.8206	71.7773	96.7549	71.7773	96.8447	71.7773	96.7557	71.7773	96.8748	71.7773	96.7655	71.7773	96.9127	71.7773	96.7871	71.7773	96.9609	71.7773	96.8233	71.7773	97.0212	71.7773	96.8768	71.7773	97.0951	71.7773	96.949	71.7773	97.183	71.7773	97.0403	71.7773	97.2834	71.7773	97.1489	71.7773	97.3933	71.7773	97.271	71.7773	97.5075	71.7773	97.4007	71.7773	97.6194	71.7773	97.5303	71.7773	97.7209	71.7773	97.651	71.7773	97.804	71.7773	97.754	71.7773	97.8611	71.7773	97.831	71.7773	97.8862	71.7773	97.8762
74.707	96.9101	74.707	96.8957	74.707	96.925	74.707	96.8822	74.707	96.9407	74.707	96.8708	74.707	96.9582	74.707	96.8636	74.707	96.9791	74.707	96.863	74.707	97.0057	74.707	96.8721	74.707	97.0405	74.707	96.8942	74.707	97.0859	74.707	96.9323	74.707	97.144	74.707	96.9886	74.707	97.2158	74.707	97.064	74.707	97.3009	74.707	97.1579	74.707	97.3969	74.707	97.2671	74.707	97.4994	74.707	97.3862	74.707	97.6021	74.707	97.5078	74.707	97.697	74.707	97.6231	74.707	97.7757	74.707	97.7228	74.707	97.83	74.707	97.7983	74.707	97.8536	74.707	97.843
77.6367	96.9428	77.6367	96.9348	77.6367	96.9489	77.6367	96.9253	77.6367	96.9536	77.6367	96.9154	77.6367	96.9579	77.6367	96.9069	77.6367	96.9638	77.6367	96.9023	77.6367	96.9736	77.6367	96.9047	77.6367	96.9902	77.6367	96.9173	77.6367	97.0166	77.6367	96.9435	77.6367	97.0556	77.6367	96.9861	77.6367	97.1092	77.6367	97.0466	77.6367	97.178	77.6367	97.125	77.6367	97.2607	77.6367	97.2189	77.6367	97.3539	77.6367	97.3232	77.6367	97.4516	77.6367	97.431	77.6367	97.5459	77.6367	97.5335	77.6367	97.6278	77.6367	97.6211	77.6367	97.6883	77.6367	97.6853	77.6367	97.7203	77.6367	97.7195
79.1016	96.9321	79.1016	96.9264	79.1016	96.935	79.1016	96.9182	79.1016	96.9355	79.1016	96.9084	79.1016	96.9348	79.1016	96.8989	79.1016	96.9346	79.1016	96.892	79.1016	96.9374	79.1016	96.8908	79.1016	96.9463	79.1016	96.8985	79.1016	96.9644	79.1016	96.9187	79.1016	96.9948	79.1016	96.9543	79.1016	97.04	79.1016	97.0073	79.1016	97.1012	79.1016	97.0781	79.1016	97.1776	79.1016	97.1647	79.1016	97.2662	79.1016	97.2626	79.1016	97.3611	79.1016	97.3647	79.1016	97.4545	79.1016	97.4623	79.1016	97.5372	79.1016	97.5458	79.1016	97.5998	79.1016	97.6063	79.1016	97.6347	79.1016	97.6371
82.0312	96.8832	82.0312	96.8793	82.0312	96.8823	82.0312	96.8708	82.0312	96.877	82.0312	96.8585	82.0312	96.8684	82.0312	96.8442	82.0312	96.8583	82.0312	96.8301	82.0312	96.8493	82.0312	96.8192	82.0312	96.8444	82.0312	96.815	82.0312	96.8472	82.0312	96.8212	82.0312	96.8614	82.0312	96.8416	82.0312	96.8901	82.0312	96.8787	82.0312	96.9353	82.0312	96.9338	82.0312	96.9973	82.0312	97.0057	82.0312	97.0739	82.0312	97.0906	82.0312	97.1597	82.0312	97.1819	82.0312	97.2472	82.0312	97.2709	82.0312	97.3269	82.0312	97.3478	82.0312	97.3889	82.0312	97.4032	82.0312	97.4251	82.0312	97.4301
84.9609	96.7928	84.9609	96.7876	84.9609	96.7909	84.9609	96.7756	84.9609	96.7823	84.9609	96.7576	84.9609	96.7681	84.9609	96.7353	84.9609	96.7499	84.9609	96.7109	84.9609	96.7303	84.9609	96.6873	84.9609	96.7125	84.9609	96.6685	84.9609	96.7002	84.9609	96.6585	84.9609	96.6978	84.9609	96.6615	84.9609	96.7092	84.9609	96.6811	84.9609	96.7373	84.9609	96.7195	84.9609	96.7832	84.9609	96.7765	84.9609	96.8455	84.9609	96.849	84.9609	96.9196	84.9609	96.9308	84.9609	96.9981	84.9609	97.0133	84.9609	97.0712	84.9609	97.0862	84.9609	97.1289	84.9609	97.1398	84.9609	97.1625	84.9609	97.1664
87.8906	96.6755	87.8906	96.67	87.8906	96.6721	87.8906	96.6558	87.8906	96.6602	87.8906	96.6338	87.8906	96.6407	87.8906	96.6053	87.8906	96.6152	87.8906	96.5724	87.8906	96.586	87.8906	96.5381	87.8906	96.5563	87.8906	96.506	87.8906	96.53	87.8906	96.4805	87.8906	96.5114	87.8906	96.4662	87.8906	96.5051	87.8906	96.4673	87.8906	96.5146	87.8906	96.4869	87.8906	96.5423	87.8906	96.5259	87.8906	96.5875	87.8906	96.5822	87.8906	96.6466	87.8906	96.6505	87.8906	96.7129	87.8906	96.7224	87.8906	96.7768	87.8906	96.7878	87.8906	96.8284	87.8906	96.8369	87.8906	96.8586	87.8906	96.8617
90.8203	96.5763	90.8203	96.5712	90.8203	96.5698	90.8203	96.5545	90.8203	96.552	90.8203	96.5269	90.8203	96.5239	90.8203	96.4894	90.8203	96.4869	90.8203	96.4441	90.8203	96.4432	90.8203	96.3935	90.8203	96.3959	90.8203	96.3415	90.8203	96.3491	90.8203	96.2925	90.8203	96.3075	90.8203	96.2519	90.8203	96.2761	90.8203	96.2248	90.8203	96.2596	90.8203	96.2159	90.8203	96.2614	90.8203	96.2275	90.8203	96.2824	90.8203	96.2591	90.8203	96.32	90.8203	96.3068	90.8203	96.3682	90.8203	96.3629	90.8203	96.4181	90.8203	96.4177	90.8203	96.4596	90.8203	96.4609	90.8203	96.4835	90.8203	96.4842
95.2148	96.3056	95.2148	96.2981	95.2148	96.2997	95.2148	96.2771	95.2148	96.2806	95.2148	96.2431	95.2148	96.2488	95.2148	96.1967	95.2148	96.2053	95.2148	96.1393	95.2148	96.1519	95.2148	96.0734	95.2148	96.0913	95.2148	96.0023	95.2148	96.0271	95.2148	95.9307	95.2148	95.9641	95.2148	95.8643	95.2148	95.9079	95.2148	95.8092	95.2148	95.8641	95.2148	95.7714	95.2148	95.8374	95.2148	95.7551	95.2148	95.8302	95.2148	95.7616	95.2148	95.8417	95.2148	95.7882	95.2148	95.8671	95.2148	95.8286	95.2148	95.8983	95.2148	95.8731	95.2148	95.9255	95.2148	95.9116	95.2148	95.9397	95.2148	95.9353
98.1445	96.1834	98.1445	96.1774	98.1445	96.1735	98.1445	96.1555	98.1445	96.1477	98.1445	96.1179	98.1445	96.1065	98.1445	96.0653	98.1445	96.0506	98.1445	95.9988	98.1445	95.9817	98.1445	95.9205	98.1445	95.9022	98.1445	95.8335	98.1445	95.8159	98.1445	95.7424	98.1445	95.728	98.1445	95.6529	98.1445	95.6445	98.1445	95.5718	98.1445	95.5722	98.1445	95.5057	98.1445	95.517	98.1445	95.4601	98.1445	95.483	98.1445	95.4379	98.1445	95.4706	98.1445	95.438	98.1445	95.4765	98.1445	95.4553	98.1445	95.4935	98.1445	95.4812	98.1445	95.512	98.1445	95.5061	98.1445	95.5233	98.1445	95.5216
101.074	96.006	101.074	95.9993	101.074	95.9955	101.074	95.9756	101.074	95.9679	101.074	95.9348	101.074	95.9231	101.074	95.8775	101.074	95.8619	101.074	95.8044	101.074	95.7852	101.074	95.7174	101.074	95.6955	101.074	95.6192	101.074	95.5963	101.074	95.5144	101.074	95.4927	101.074	95.4089	101.074	95.3914	101.074	95.3097	101.074	95.2996	101.074	95.2245	101.074	95.2244	101.074	95.1598	101.074	95.171	101.074	95.1195	101.074	95.1412	101.074	95.1038	101.074	95.1326	101.074	95.1081	101.074	95.1385	101.074	95.1245	101.074	95.1497	101.074	95.143	101.074	95.1574	101.074	95.1555
105.469	95.8258	105.469	95.8174	105.469	95.8138	105.469	95.7884	105.469	95.7815	105.469	95.7384	105.469	95.7291	105.469	95.6671	105.469	95.6567	105.469	95.5751	105.469	95.565	105.469	95.4635	105.469	95.4558	105.469	95.3351	105.469	95.332	105.469	95.1946	105.469	95.1983	105.469	95.0483	105.469	95.0611	105.469	94.9045	105.469	94.9281	105.469	94.7722	105.469	94.8074	105.469	94.6601	105.469	94.706	105.469	94.5745	105.469	94.6282	105.469	94.518	105.469	94.5744	105.469	94.4887	105.469	94.5408	105.469	94.4806	105.469	94.5208	105.469	94.4854	105.469	94.5074	105.469	94.4957
108.398	96.009	108.398	95.9995	108.398	95.9954	108.398	95.9667	108.398	95.9589	108.398	95.9099	108.398	95.8994	108.398	95.8287	108.398	95.8169	108.398	95.7231	108.398	95.7118	108.398	95.5942	108.398	95.5857	108.398	95.4447	108.398	95.4415	108.398	95.2792	108.398	95.2841	108.398	95.1045	108.398	95.1204	108.398	94.9296	108.398	94.9587	108.398	94.7645	108.398	94.808	108.398	94.6196	108.398	94.6762	108.398	94.503	108.398	94.569	108.398	94.4193	108.398	94.488	108.398	94.3681	108.398	94.431	108.398	94.3444	108.398	94.3927	108.398	94.3407	108.398	94.3669	108.398	94.3496
112.793	96.1267	112.793	96.1204	112.793	96.1054	112.793	96.0864	112.793	96.0565	112.793	96.0247	112.793	95.9801	112.793	95.9349	112.793	95.8764	112.793	95.8176	112.793	95.7463	112.793	95.6739	112.793	95.5921	112.793	95.5063	112.793	95.4172	112.793	95.3195	112.793	95.2274	112.793	95.1202	112.793	95.0303	112.793	94.9171	112.793	94.8353	112.793	94.7207	112.793	94.6524	112.793	94.5419	112.793	94.491	112.793	94.3899	112.793	94.3582	112.793	94.2711	112.793	94.2569	112.793	94.1872	112.793	94.1856	112.793	94.1353	112.793	94.1398	112.793	94.1096	112.793	94.1138	112.793	94.1037
117.188	96.0906	117.188	96.0875	117.188	96.0642	117.188	96.0549	117.188	96.0079	117.188	95.9923	117.188	95.9212	117.188	95.8993	117.188	95.8037	117.188	95.7756	117.188	95.6557	117.188	95.6219	117.188	95.4787	117.188	95.44	117.188	95.2759	117.188	95.2341	117.188	95.0532	117.188	95.0105	117.188	94.8186	117.188	94.7779	117.188	94.5827	117.188	94.5471	117.188	94.3574	117.188	94.3296	117.188	94.1544	117.188	94.136	117.188	93.9833	117.188	93.9743	117.188	93.8498	117.188	93.8485	117.188	93.7553	117.188	93.7584	117.188	93.697	117.188	93.7009	117.188	93.6706	117.188	93.6723
120.117	96.1502	120.117	96.1424	120.117	96.1274	120.117	96.1039	120.117	96.0735	120.117	96.034	120.117	95.9877	120.117	95.9322	120.117	95.8692	120.117	95.7977	120.117	95.7177	120.117	95.6307	120.117	95.534	120.117	95.4328	120.117	95.3208	120.117	95.2078	120.117	95.0831	120.117	94.962	120.117	94.8287	120.117	94.7044	120.117	94.5678	120.117	94.4465	120.117	94.313	120.117	94.2009	120.117	94.0771	120.117	93.9799	120.117	93.8716	120.117	93.793	120.117	93.7048	120.117	93.6462	120.117	93.5802	120.117	93.541	120.117	93.4977	120.117	93.4756	120.117	93.4543	120.117	93.4472
124.512	96.1724	124.512	96.1534	124.512	96.1586	124.512	96.1015	124.512	96.1115	124.512	96.0161	124.512	96.0303	124.512	95.8964	124.512	95.9143	124.512	95.7419	124.512	95.763	124.512	95.553	124.512	95.5774	124.512	95.3317	124.512	95.3597	124.512	95.0821	124.512	95.115	124.512	94.8113	124.512	94.8504	124.512	94.5294	124.512	94.5759	124.512	94.2488	124.512	94.3031	124.512	93.9831	124.512	94.0446	124.512	93.7458	124.512	93.8116	124.512	93.5475	124.512	93.6128	124.512	93.3954	124.512	93.4538	124.512	93.2922	124.512	93.3364	124.512	93.2371	124.512	93.261	124.512	93.2275
128.906	96.1507	128.906	96.1318	128.906	96.1357	128.906	96.0784	128.906	96.0864	128.906	95.9897	128.906	96.0027	128.906	95.8647	128.906	95.8839	128.906	95.7027	128.906	95.7302	128.906	95.5042	128.906	95.5427	128.906	95.2714	128.906	95.3242	128.906	95.009	128.906	95.0798	128.906	94.7249	128.906	94.8171	128.906	94.43	128.906	94.5455	128.906	94.138	128.906	94.2761	128.906	93.8635	128.906	94.0198	128.906	93.6207	128.906	93.7864	128.906	93.4211	128.906	93.583	128.906	93.272	128.906	93.4142	128.906	93.1763	128.906	93.2826	128.906	93.1331	128.906	93.19	128.906	93.1391
133.301	96.142	133.301	96.1356	133.301	96.112	133.301	96.0923	133.301	96.0455	133.301	96.0114	133.301	95.9421	133.301	95.8918	133.301	95.8018	133.301	95.733	133.301	95.625	133.301	95.5354	133.301	95.4137	133.301	95.3011	133.301	95.1717	133.301	95.0348	133.301	94.9053	133.301	94.7439	133.301	94.6233	133.301	94.4393	133.301	94.3363	133.301	94.1341	133.301	94.056	133.301	93.8425	133.301	93.7935	133.301	93.5786	133.301	93.5581	133.301	93.354	133.301	93.3567	133.301	93.177	133.301	93.1936	133.301	93.0525	133.301	93.072	133.301	92.9816	133.301	92.9942	133.301	92.9631
139.16	96.1601	139.16	96.1604	139.16	96.1187	139.16	96.1192	139.16	96.036	139.16	96.0362	139.16	95.9119	139.16	95.9109	139.16	95.7466	139.16	95.7434	139.16	95.541	139.16	95.5348	139.16	95.2979	139.16	95.2882	139.16	95.0222	139.16	95.009	139.16	94.7217	139.16	94.7056	139.16	94.4072	139.16	94.3888	139.16	94.0916	139.16	94.0717	139.16	93.7886	139.16	93.7677	139.16	93.511	139.16	93.4891	139.16	93.2689	139.16	93.2463	139.16	93.0689	139.16	93.0468	139.16	92.915	139.16	92.8956	139.16	92.8092	139.16	92.7957	139.16	92.7531	139.16	92.7482
143.555	96.1675	143.555	96.1572	143.555	96.1345	143.555	96.1036	143.555	96.058	143.555	96.0065	143.555	95.9374	143.555	95.8658	143.555	95.7725	143.555	95.6821	143.555	95.5642	143.555	95.457	143.555	95.3149	143.555	95.1944	143.555	95.0295	143.555	94.9006	143.555	94.7162	143.555	94.5851	143.555	94.3864	143.555	94.2597	143.555	94.054	143.555	93.938	143.555	93.7341	143.555	93.6332	143.555	93.4405	143.555	93.3569	143.555	93.1842	143.555	93.1179	143.555	92.9725	143.555	92.9222	143.555	92.8094	143.555	92.7739	143.555	92.6971	143.555	92.6758	143.555	92.637	143.555	92.6299
147.949	96.2093	147.949	96.1888	147.949	96.1836	147.949	96.1222	147.949	96.1113	147.949	96.0094	147.949	95.9922	147.949	95.8505	147.949	95.8263	147.949	95.646	147.949	95.615	147.949	95.3979	147.949	95.3612	147.949	95.1104	147.949	95.0706	147.949	94.7907	147.949	94.752	147.949	94.4495	147.949	94.417	147.949	94.1005	147.949	94.0796	147.949	93.7595	147.949	93.7543	147.949	93.4421	147.949	93.454	147.949	93.1612	147.949	93.1881	147.949	92.9265	147.949	92.9627	147.949	92.7433	147.949	92.7811	147.949	92.6145	147.949	92.6456	147.949	92.5412	147.949	92.5586	147.949	92.523
153.809	96.2948	153.809	96.2776	153.809	96.2632	153.809	96.212	153.809	96.1826	153.809	96.0979	153.809	96.0526	153.809	95.9354	153.809	95.8733	153.809	95.7254	153.809	95.6459	153.809	95.4701	153.809	95.3735	153.809	95.1741	153.809	95.0624	153.809	94.8449	153.809	94.7219	153.809	94.4934	153.809	94.365	153.809	94.1335	153.809	94.0074	153.809	93.7806	153.809	93.6649	153.809	93.4501	153.809	93.3515	153.809	93.1548	153.809	93.0772	153.809	92.9043	153.809	92.848	153.809	92.7045	153.809	92.6671	153.809	92.5588	153.809	92.5367	153.809	92.4689	153.809	92.4588	153.809	92.4358
159.668	96.3911	159.668	96.3744	159.668	96.3574	159.668	96.3079	159.668	96.2729	159.668	96.1919	159.668	96.1371	159.668	96.027	159.668	95.9503	159.668	95.8146	159.668	95.7142	159.668	95.5575	159.668	95.4328	159.668	95.2612	159.668	95.1135	159.668	94.9342	159.668	94.7672	159.668	94.5886	159.668	94.4088	159.668	94.2394	159.668	94.055	159.668	93.9023	159.668	93.7225	159.668	93.5915	159.668	93.4247	159.668	93.3175	159.668	93.17	159.668	93.086	159.668	92.9622	159.668	92.8994	159.668	92.8026	159.668	92.7589	159.668	92.6921	159.668	92.6662	159.668	92.632	159.668	92.6234
165.527	96.55	165.527	96.5292	165.527	96.5207	165.527	96.459	165.527	96.4409	165.527	96.3401	165.527	96.3105	165.527	96.1738	165.527	96.1303	165.527	95.9623	165.527	95.9021	165.527	95.7098	165.527	95.6304	165.527	95.4223	165.527	95.3222	165.527	95.1094	165.527	94.9883	165.527	94.7832	165.527	94.6429	165.527	94.4582	165.527	94.3023	165.527	94.1491	165.527	93.9832	165.527	93.8679	165.527	93.6995	165.527	93.6227	165.527	93.4602	165.527	93.4165	165.527	93.2693	165.527	93.2496	165.527	93.1275	165.527	93.1218	165.527	93.034	165.527	93.034	165.527	92.988	165.527	92.9886
171.387	96.5962	171.387	96.5617	171.387	96.5785	171.387	96.4754	171.387	96.5084	171.387	96.3387	171.387	96.3866	171.387	96.1537	171.387	96.2146	171.387	95.9244	171.387	95.9955	171.387	95.6572	171.387	95.7347	171.387	95.3611	171.387	95.4403	171.387	95.0485	171.387	95.1231	171.387	94.734	171.387	94.7967	171.387	94.4332	171.387	94.4755	171.387	94.1592	171.387	94.1731	171.387	93.9203	171.387	93.9007	171.387	93.7186	171.387	93.6662	171.387	93.5514	171.387	93.4746	171.387	93.4142	171.387	93.3293	171.387	93.3053	171.387	93.2324	171.387	93.2267	171.387	93.1847	171.387	93.1844
177.246	96.5089	177.246	96.4864	177.246	96.4796	177.246	96.4106	177.246	96.4012	177.246	96.2812	177.246	96.2774	177.246	96.1001	177.246	96.1137	177.246	95.8713	177.246	95.9173	177.246	95.6022	177.246	95.6973	177.246	95.3042	177.246	95.4645	177.246	94.9922	177.246	95.2299	177.246	94.6839	177.246	95.003	177.246	94.3968	177.246	94.7895	177.246	94.1457	177.246	94.5906	177.246	93.9389	177.246	94.4036	177.246	93.778	177.246	94.2251	177.246	93.6593	177.246	94.0539	177.246	93.5787	177.246	93.8933	177.246	93.5344	177.246	93.7515	177.246	93.528	177.246	93.6383	177.246	93.5625
183.105	95.9051	183.105	95.8971	183.105	95.8459	183.105	95.8224	183.105	95.7212	183.105	95.6832	183.105	95.5354	183.105	95.4843	183.105	95.2968	183.105	95.2342	183.105	95.0193	183.105	94.9466	183.105	94.7243	183.105	94.6418	183.105	94.4398	183.105	94.3458	183.105	94.1973	183.105	94.0877	183.105	94.0241	183.105	93.893	183.105	93.9335	183.105	93.7759	183.105	93.9191	183.105	93.7346	183.105	93.9574	183.105	93.7527	183.105	94.0174	183.105	93.8069	183.105	94.072	183.105	93.8756	183.105	94.1047	183.105	93.9442	183.105	94.1104	183.105	94.0051	183.105	94.0919	183.105	94.0552
188.965	95.4646	188.965	95.4745	188.965	95.3757	188.965	95.4055	188.965	95.2085	188.965	95.2575	188.965	94.9643	188.965	95.0318	188.965	94.6476	188.965	94.7321	188.965	94.2678	188.965	94.3675	188.965	93.8436	188.965	93.9551	188.965	93.4054	188.965	93.5236	188.965	92.9966	188.965	93.1142	188.965	92.6676	188.965	92.7759	188.965	92.4619	188.965	92.5525	188.965	92.3979	188.965	92.4655	188.965	92.4598	188.965	92.5033	188.965	92.605	188.965	92.6274	188.965	92.7823	188.965	92.7891	188.965	92.9475	188.965	92.9454	188.965	93.0702	188.965	93.0657	188.965	93.1336	188.965	93.1315
196.289	95.8652	196.289	95.8484	196.289	95.8019	196.289	95.753	196.289	95.6562	196.289	95.5805	196.289	95.4261	196.289	95.3326	196.289	95.11	196.289	95.0128	196.289	94.7092	196.289	94.6279	196.289	94.231	196.289	94.1911	196.289	93.6927	196.289	93.7241	196.289	93.1272	196.289	93.2599	196.289	92.5851	196.289	92.8405	196.289	92.1297	196.289	92.5089	196.289	91.8188	196.289	92.2945	196.289	91.6793	196.289	92.1995	196.289	91.6934	196.289	92.1976	196.289	91.8099	196.289	92.2457	196.289	91.9696	196.289	92.3008	196.289	92.1245	196.289	92.3299	196.289	92.2441	196.289	92.3136
203.613	96.1557	203.613	96.118	203.613	96.1141	203.613	96.0015	203.613	95.9929	203.613	95.8063	203.613	95.7909	203.613	95.5328	203.613	95.508	203.613	95.1831	203.613	95.145	203.613	94.7627	203.613	94.7065	203.613	94.2828	203.613	94.204	203.613	93.7634	203.613	93.6596	203.613	93.2372	203.613	93.1104	203.613	92.7498	203.613	92.6079	203.613	92.3541	203.613	92.2085	203.613	92.0941	203.613	91.9545	203.613	91.9843	203.613	91.8544	203.613	91.9998	203.613	91.8801	203.613	92.087	203.613	91.981	203.613	92.1867	203.613	92.1044	203.613	92.2532	203.613	92.2075	203.613	92.2615
210.938	96.0094	210.938	95.951	210.938	95.9979	210.938	95.823	210.938	95.9158	210.938	95.6257	210.938	95.7625	210.938	95.36	210.938	95.5378	210.938	95.029	210.938	95.2436	210.938	94.6391	210.938	94.8849	210.938	94.2019	210.938	94.472	210.938	93.7351	210.938	94.0219	210.938	93.2638	210.938	93.5596	210.938	92.8188	210.938	93.1179	210.938	92.4338	210.938	92.7326	210.938	92.1383	210.938	92.434	210.938	91.9501	210.938	92.2361	210.938	91.8677	210.938	92.1305	210.938	91.8698	210.938	92.0903	210.938	91.9222	210.938	92.0811	210.938	91.9887	210.938	92.0718	210.938	92.0426
218.262	95.635	218.262	95.6088	218.262	95.5829	218.262	95.5015	218.262	95.4553	218.262	95.3109	218.262	95.2566	218.262	95.0357	218.262	94.9934	218.262	94.6782	218.262	94.676	218.262	94.2475	218.262	94.3198	218.262	93.7626	218.262	93.9454	218.262	93.2554	218.262	93.5779	218.262	92.7689	218.262	93.243	218.262	92.3507	218.262	92.9614	218.262	92.0399	218.262	92.7429	218.262	91.8545	218.262	92.5839	218.262	91.7857	218.262	92.4711	218.262	91.805	218.262	92.3885	218.262	91.8762	218.262	92.3225	218.262	91.9675	218.262	92.2632	218.262	92.0576	218.262	92.2034	218.262	92.1364
225.586	95.8812	225.586	95.9159	225.586	95.7534	225.586	95.857	225.586	95.5326	225.586	95.7029	225.586	95.2192	225.586	95.4522	225.586	94.8167	225.586	95.1047	225.586	94.3351	225.586	94.6651	225.586	93.7971	225.586	94.1483	225.586	93.2447	225.586	93.5852	225.586	92.7414	225.586	93.0281	225.586	92.3627	225.586	92.5468	225.586	92.1677	225.586	92.2098	225.586	92.1659	225.586	92.054	225.586	92.3098	225.586	92.0673	225.586	92.5213	225.586	92.1991	225.586	92.7279	225.586	92.389	225.586	92.8818	225.586	92.5876	225.586	92.9607	225.586	92.762	225.586	92.9616	225.586	92.8916
232.91	96.4538	232.91	96.4565	232.91	96.3582	232.91	96.3681	232.91	96.1647	232.91	96.1884	232.91	95.8664	232.91	95.9153	232.91	95.4552	232.91	95.5472	232.91	94.9244	232.91	95.0852	232.91	94.2744	232.91	94.5378	232.91	93.5205	232.91	93.927	232.91	92.7081	232.91	93.2962	232.91	91.9277	232.91	92.7136	232.91	91.3154	232.91	92.2627	232.91	91.0036	232.91	92.01	232.91	91.0321	232.91	91.9676	232.91	91.3137	232.91	92.0848	232.91	91.7037	232.91	92.2781	232.91	92.0817	232.91	92.4683	232.91	92.3789	232.91	92.5993	232.91	92.5663	232.91	92.6377
241.699	96.4487	241.699	96.4109	241.699	96.408	241.699	96.2949	241.699	96.2859	241.699	96.0981	241.699	96.0768	241.699	95.8162	241.699	95.773	241.699	95.4445	241.699	95.3662	241.699	94.9815	241.699	94.8496	241.699	94.4338	241.699	94.2237	241.699	93.8235	241.699	93.5043	241.699	93.195	241.699	92.7365	241.699	92.6184	241.699	92.0064	241.699	92.177	241.699	91.4365	241.699	91.9358	241.699	91.1383	241.699	91.904	241.699	91.1416	241.699	92.0276	241.699	91.3726	241.699	92.218	241.699	91.7091	241.699	92.3895	241.699	92.0433	241.699	92.4797	241.699	92.3045	241.699	92.4544
250.488	96.4969	250.488	96.4671	250.488	96.4516	250.488	96.3627	250.488	96.3285	250.488	96.1819	250.488	96.123	250.488	95.9205	250.488	95.8292	250.488	95.5723	250.488	95.4416	250.488	95.1319	250.488	94.9576	250.488	94.5989	250.488	94.3819	250.488	93.9865	250.488	93.7324	250.488	93.3309	250.488	93.0497	250.488	92.6982	250.488	92.4049	250.488	92.1762	250.488	91.8938	250.488	91.8432	250.488	91.6025	250.488	91.727	250.488	91.5549	250.488	91.7894	250.488	91.693	250.488	91.9516	250.488	91.9151	250.488	92.1318	250.488	92.128	250.488	92.2673	250.488	92.272	250.488	92.3196
259.277	96.6851	259.277	96.6521	259.277	96.6504	259.277	96.5508	259.277	96.5458	259.277	96.3771	259.277	96.3653	259.277	96.1248	259.277	96.1008	259.277	95.785	259.277	95.7434	259.277	95.3475	259.277	95.287	259.277	94.8038	259.277	94.7321	259.277	94.1555	259.277	94.0913	259.277	93.4294	259.277	93.3968	259.277	92.6947	259.277	92.7088	259.277	92.065	259.277	92.1194	259.277	91.6582	259.277	91.7318	259.277	91.5225	259.277	91.6065	259.277	91.6051	259.277	91.7105	259.277	91.8027	259.277	91.933	259.277	92.023	259.277	92.152	259.277	92.2031	259.277	92.285	259.277	92.2999
268.066	96.1157	268.066	96.0902	268.066	96.0757	268.066	95.9993	268.066	95.9685	268.066	95.8423	268.066	95.7904	268.066	95.6184	268.066	95.5356	268.066	95.3277	268.066	95.1965	268.066	94.971	268.066	94.7669	268.066	94.5491	268.066	94.2469	268.066	94.0647	268.066	93.6508	268.066	93.529	268.066	93.0158	268.066	92.9755	268.066	92.4075	268.066	92.472	268.066	91.9135	268.066	92.1095	268.066	91.6176	268.066	91.9543	268.066	91.5579	268.066	91.9971	268.066	91.7003	268.066	92.1575	268.066	91.954	268.066	92.3383	268.066	92.2165	268.066	92.4653	268.066	92.4102	268.066	92.4954
276.855	95.8486	276.855	95.7643	276.855	95.8764	276.855	95.6231	276.855	95.8448	276.855	95.4191	276.855	95.7479	276.855	95.1419	276.855	95.5767	276.855	94.778	276.855	95.3193	276.855	94.317	276.855	94.9624	276.855	93.7584	276.855	94.4972	276.855	93.1205	276.855	93.9292	276.855	92.4502	276.855	93.2903	276.855	91.8324	276.855	92.6456	276.855	91.3848	276.855	92.0848	276.855	91.2145	276.855	91.692	276.855	91.3417	276.855	91.5114	276.855	91.668	276.855	91.5342	276.855	92.0368	276.855	91.7102	276.855	92.3176	276.855	91.966	276.855	92.4417	276.855	92.2207	276.855	92.3989
287.109	95.4787	287.109	95.5122	287.109	95.3771	287.109	95.4722	287.109	95.2124	287.109	95.3516	287.109	94.9902	287.109	95.1426	287.109	94.7195	287.109	94.8374	287.109	94.4124	287.109	94.4296	287.109	94.0801	287.109	93.9157	287.109	93.7278	287.109	93.2998	287.109	93.3529	287.109	92.6039	287.109	92.9536	287.109	91.8828	287.109	92.5465	287.109	91.2374	287.109	92.1794	287.109	90.8	287.109	91.92	287.109	90.6695	287.109	91.8156	287.109	90.8352	287.109	91.8552	287.109	91.1822	287.109	91.9748	287.109	91.5687	287.109	92.0946	287.109	91.8881	287.109	92.1467	287.109	92.0848
297.363	95.8422	297.363	95.8759	297.363	95.7232	297.363	95.8313	297.363	95.512	297.363	95.7159	297.363	95.1994	297.363	95.5353	297.363	94.773	297.363	95.2886	297.363	94.2234	297.363	94.9655	297.363	93.5577	297.363	94.5491	297.363	92.8186	297.363	94.025	297.363	92.0971	297.363	93.3977	297.363	91.5209	297.363	92.713	297.363	91.2043	297.363	92.0799	297.363	91.1877	297.363	91.6572	297.363	91.4237	297.363	91.5681	297.363	91.8143	297.363	91.7943	297.363	92.2523	297.363	92.1904	297.363	92.6473	297.363	92.5959	297.363	92.9361	297.363	92.9063	297.363	93.0833	297.363	93.0738
307.617	96.7612	307.617	96.693	307.617	96.7439	307.617	96.5403	307.617	96.64	307.617	96.3026	307.617	96.4476	307.617	95.9786	307.617	96.1608	307.617	95.5668	307.617	95.7643	307.617	95.0697	307.617	95.2304	307.617	94.4995	307.617	94.5249	307.617	93.8827	307.617	93.6282	307.617	93.2594	307.617	92.5765	307.617	92.6777	307.617	91.5197	307.617	92.1902	307.617	90.7409	307.617	91.8602	307.617	90.5007	307.617	91.7522	307.617	90.7806	307.617	91.8868	307.617	91.3281	307.617	92.1938	307.617	91.9086	307.617	92.5366	307.617	92.3934	307.617	92.7834	307.617	92.7198	307.617	92.8534
319.336	96.3839	319.336	96.3472	319.336	96.335	319.336	96.225	319.336	96.1997	319.336	96.0149	319.336	95.9773	319.336	95.7096	319.336	95.6687	319.336	95.294	319.336	95.2774	319.336	94.7443	319.336	94.8081	319.336	94.0318	319.336	94.2631	319.336	93.1392	319.336	93.6409	319.336	92.0979	319.336	92.9475	319.336	91.0512	319.336	92.2262	319.336	90.2915	319.336	91.5933	319.336	90.1067	319.336	91.2223	319.336	90.4753	319.336	91.2228	319.336	91.1031	319.336	91.5249	319.336	91.7246	319.336	91.9438	319.336	92.21	319.336	92.3187	319.336	92.5156	319.336	92.5607	319.336	92.6313
329.59	95.9412	329.59	95.9226	329.59	95.9179	329.59	95.8654	329.59	95.8408	329.59	95.7666	329.59	95.6909	329.59	95.618	329.59	95.4457	329.59	95.4062	329.59	95.0838	329.59	95.1084	329.59	94.589	329.59	94.6878	329.59	93.9534	329.59	94.0967	329.59	93.1832	329.59	93.2925	329.59	92.3122	329.59	92.2782	329.59	91.4307	329.59	91.1752	329.59	90.7152	329.59	90.3015	329.59	90.3905	329.59	90.0501	329.59	90.5605	329.59	90.4694	329.59	91.0852	329.59	91.2006	329.59	91.7071	329.59	91.8908	329.59	92.2249	329.59	92.3699	329.59	92.5325	329.59	92.5857
341.309	95.6982	341.309	95.7005	341.309	95.6214	341.309	95.6254	341.309	95.4778	341.309	95.4751	341.309	95.2749	341.309	95.2528	341.309	95.0131	341.309	94.9587	341.309	94.682	341.309	94.5854	341.309	94.2648	341.309	94.1168	341.309	93.7505	341.309	93.5325	341.309	93.149	341.309	92.8205	341.309	92.5031	341.309	92.0067	341.309	91.8937	341.309	91.2	341.309	91.4296	341.309	90.6205	341.309	91.2133	341.309	90.5	341.309	91.2845	341.309	90.8557	341.309	91.5867	341.309	91.4575	341.309	91.9944	341.309	92.0456	341.309	92.3722	341.309	92.4653	341.309	92.6151	341.309	92.6566
353.027	95.2735	353.027	95.2696	353.027	95.2171	353.027	95.2036	353.027	95.0985	353.027	95.0729	353.027	94.9108	353.027	94.8763	353.027	94.6397	353.027	94.6139	353.027	94.2587	353.027	94.2813	353.027	93.728	353.027	93.8599	353.027	92.9996	353.027	93.3116	353.027	92.0386	353.027	92.5915	353.027	90.8697	353.027	91.6883	353.027	89.6727	353.027	90.6979	353.027	88.8758	353.027	89.9019	353.027	88.9219	353.027	89.679	353.027	89.7091	353.027	90.1251	353.027	90.7356	353.027	90.9277	353.027	91.6378	353.027	91.7242	353.027	92.2718	353.027	92.3116	353.027	92.5985	353.027	92.6107
366.211	94.9505	366.211	94.8623	366.211	94.9653	366.211	94.708	366.211	94.9049	366.211	94.5	366.211	94.7709	366.211	94.2514	366.211	94.5653	366.211	93.9701	366.211	94.2851	366.211	93.6535	366.211	93.9111	366.211	93.2871	366.211	93.3986	366.211	92.8462	366.211	92.6807	366.211	92.3032	366.211	91.6999	366.211	91.649	366.211	90.4814	366.211	90.9393	366.211	89.2612	366.211	90.3509	366.211	88.5507	366.211	90.1445	366.211	88.7291	366.211	90.4269	366.211	89.5314	366.211	90.995	366.211	90.4558	366.211	91.5456	366.211	91.2203	366.211	91.8885	366.211	91.7283	366.211	91.9534
379.395	95.8234	379.395	95.8217	379.395	95.7665	379.395	95.7479	379.395	95.6653	379.395	95.5901	379.395	95.5294	379.395	95.3374	379.395	95.3527	379.395	94.9764	379.395	95.1078	379.395	94.4852	379.395	94.7504	379.395	93.8251	379.395	94.2323	379.395	92.9411	379.395	93.5083	379.395	91.7841	379.395	92.5366	379.395	90.3773	379.395	91.2936	379.395	88.9618	379.395	89.861	379.395	88.1246	379.395	88.6402	379.395	88.355	379.395	88.3688	379.395	89.337	379.395	89.199	379.395	90.4541	379.395	90.4048	379.395	91.3705	379.395	91.4053	379.395	91.9645	379.395	92.0076	379.395	92.1872
392.578	96.3585	392.578	96.3753	392.578	96.2592	392.578	96.3232	392.578	96.0832	392.578	96.2247	392.578	95.8585	392.578	96.0956	392.578	95.6234	392.578	95.9318	392.578	95.4016	392.578	95.7043	392.578	95.1739	392.578	95.3637	392.578	94.8727	392.578	94.8439	392.578	94.4053	392.578	94.0658	392.578	93.6904	392.578	92.9475	392.578	92.6981	392.578	91.4556	392.578	91.514	392.578	89.7842	392.578	90.4415	392.578	88.6898	392.578	89.9868	392.578	89.0317	392.578	90.3878	392.578	90.3201	392.578	91.2736	392.578	91.593	392.578	92.1385	392.578	92.4499	392.578	92.6923	392.578	92.8126
405.762	96.174	405.762	96.1469	405.762	96.0633	405.762	95.9912	405.762	95.8225	405.762	95.7374	405.762	95.4752	405.762	95.4375	405.762	95.063	405.762	95.1493	405.762	94.6394	405.762	94.9022	405.762	94.2457	405.762	94.6661	405.762	93.8761	405.762	94.3533	405.762	93.4646	405.762	93.8503	405.762	92.9157	405.762	93.0596	405.762	92.1658	405.762	91.9499	405.762	91.2652	405.762	90.6592	405.762	90.4751	405.762	89.6662	405.762	90.2212	405.762	89.6195	405.762	90.6673	405.762	90.4678	405.762	91.4733	405.762	91.5239	405.762	92.2122	405.762	92.3168	405.762	92.6504	405.762	92.6966
420.41	96.0125	420.41	95.9228	420.41	95.9891	420.41	95.7257	420.41	95.8579	420.41	95.4349	420.41	95.6345	420.41	95.0741	420.41	95.3369	420.41	94.6832	420.41	94.9732	420.41	94.3139	420.41	94.526	420.41	93.9964	420.41	93.9413	420.41	93.6921	420.41	93.1273	420.41	93.2905	420.41	91.9756	420.41	92.6664	420.41	90.4279	420.41	91.7572	420.41	88.6811	420.41	90.6522	420.41	87.5666	420.41	89.7002	420.41	87.985	420.41	89.4232	420.41	89.3307	420.41	89.9512	420.41	90.6265	420.41	90.8289	420.41	91.5261	420.41	91.5857	420.41	91.9801	420.41	91.9939
435.059	95.5829	435.059	95.6125	435.059	95.4453	435.059	95.5167	435.059	95.2301	435.059	95.2919	435.059	94.9824	435.059	94.9491	435.059	94.7549	435.059	94.5156	435.059	94.5868	435.059	94.0298	435.059	94.4733	435.059	93.5181	435.059	94.3497	435.059	92.9577	435.059	94.105	435.059	92.2596	435.059	93.6087	435.059	91.3055	435.059	92.7324	435.059	90.054	435.059	91.3789	435.059	88.756	435.059	89.5891	435.059	88.1476	435.059	87.9159	435.059	88.7458	435.059	87.6491	435.059	89.9691	435.059	88.9266	435.059	91.0758	435.059	90.4314	435.059	91.7508	435.059	91.4636	435.059	91.896
451.172	96.19	451.172	96.1101	451.172	96.1169	451.172	95.9003	451.172	95.8797	451.172	95.5929	451.172	95.4879	451.172	95.2306	451.172	94.9787	451.172	94.8596	451.172	94.4126	451.172	94.5045	451.172	93.8443	451.172	94.1409	451.172	93.2786	451.172	93.6917	451.172	92.6488	451.172	93.0521	451.172	91.8511	451.172	92.1224	451.172	90.8235	451.172	90.8516	451.172	89.6613	451.172	89.3601	451.172	88.7542	451.172	88.2334	451.172	88.6536	451.172	88.3846	451.172	89.4099	451.172	89.6395	451.172	90.497	451.172	90.9868	451.172	91.4573	451.172	91.8904	451.172	92.0735	451.172	92.2414
465.82	96.8192	465.82	96.7233	465.82	96.7398	465.82	96.4569	465.82	96.497	465.82	96.0412	465.82	96.1252	465.82	95.5205	465.82	95.6865	465.82	94.9782	465.82	95.2617	465.82	94.5315	465.82	94.9125	465.82	94.2571	465.82	94.6248	465.82	94.0825	465.82	94.2861	465.82	93.792	465.82	93.7226	465.82	93.1492	465.82	92.7599	465.82	91.9908	465.82	91.29	465.82	90.3023	465.82	89.453	465.82	88.4787	465.82	88.0938	465.82	87.6952	465.82	88.374	465.82	88.5902	465.82	89.7185	465.82	90.048	465.82	90.9477	465.82	91.1698	465.82	91.6359	465.82	91.7112
483.398	96.7502	483.398	96.7242	483.398	96.6085	483.398	96.5412	483.398	96.3038	483.398	96.2197	483.398	95.8602	483.398	95.7808	483.398	95.3248	483.398	95.2546	483.398	94.7707	483.398	94.6951	483.398	94.2808	483.398	94.1694	483.398	93.8943	483.398	93.6985	483.398	93.5514	483.398	93.1941	483.398	93.1028	483.398	92.4738	483.398	92.3851	483.398	91.3652	483.398	91.3102	483.398	89.886	483.398	90.0063	483.398	88.6011	483.398	89.0462	483.398	88.5885	483.398	89.1739	483.398	89.7796	483.398	90.1811	483.398	91.0737	483.398	91.2592	483.398	91.913	483.398	91.9733	483.398	92.2044
499.512	97.1156	499.512	97.0084	499.512	97.0318	499.512	96.7246	499.512	96.7508	499.512	96.2858	499.512	96.2755	499.512	95.7196	499.512	95.6303	499.512	95.07	499.512	94.8901	499.512	94.4204	499.512	94.1965	499.512	93.8833	499.512	93.6865	499.512	93.5055	499.512	93.343	499.512	93.1605	499.512	92.9614	499.512	92.5842	499.512	92.2827	499.512	91.502	499.512	91.1211	499.512	89.7475	499.512	89.5185	499.512	87.6201	499.512	88.1855	499.512	86.763	499.512	88.4162	499.512	88.1908	499.512	89.8648	499.512	90.0799	499.512	91.2147	499.512	91.398	499.512	91.9553	499.512	92.0175
517.09	97.2826	517.09	97.1925	517.09	97.175	517.09	96.9029	517.09	96.8883	517.09	96.434	517.09	96.4562	517.09	95.831	517.09	95.9304	517.09	95.1586	517.09	95.3751	517.09	94.4882	517.09	94.8435	517.09	93.8807	517.09	94.334	517.09	93.3587	517.09	93.7588	517.09	92.8699	517.09	92.9574	517.09	92.2796	517.09	91.7543	517.09	91.413	517.09	90.0527	517.09	90.1559	517.09	88.0644	517.09	88.7016	517.09	86.8275	517.09	87.9707	517.09	87.5113	517.09	88.7955	517.09	89.2209	517.09	90.2981	517.09	90.7353	517.09	91.444	517.09	91.66	517.09	91.9077
536.133	97.7006	536.133	97.6533	536.133	97.5205	536.133	97.3828	536.133	97.1058	536.133	96.8973	536.133	96.4564	536.133	96.2253	536.133	95.6036	536.133	95.4295	536.133	94.6425	536.133	94.6089	536.133	93.7573	536.133	93.8807	536.133	93.1846	536.133	93.3195	536.133	93.0092	536.133	92.8594	536.133	92.9703	536.133	92.264	536.133	92.6193	536.133	91.2219	536.133	91.5862	536.133	89.4758	536.133	89.7074	536.133	87.1264	536.133	87.3747	536.133	85.8581	536.133	86.4049	536.133	87.5553	536.133	87.8478	536.133	89.8978	536.133	89.8335	536.133	91.3744	536.133	91.2496	536.133	91.8044
555.176	97.2312	555.176	97.2939	555.176	97.0488	555.176	97.1979	555.176	96.751	555.176	96.8897	555.176	96.3136	555.176	96.3351	555.176	95.7165	555.176	95.5475	555.176	94.9835	555.176	94.6097	555.176	94.1967	555.176	93.702	555.176	93.4596	555.176	93.0697	555.176	92.8372	555.176	92.7808	555.176	92.3126	555.176	92.5085	555.176	91.7351	555.176	91.7347	555.176	90.7966	555.176	90.0365	555.176	89.1825	555.176	87.3314	555.176	87.176	555.176	85.1142	555.176	86.7536	555.176	86.2131	555.176	88.4844	555.176	88.4751	555.176	90.149	555.176	90.0731	555.176	90.9402	555.176	90.8857
574.219	97.0679	574.219	96.944	574.219	97.0055	574.219	96.6907	574.219	96.7206	574.219	96.3308	574.219	96.2321	574.219	95.8426	574.219	95.6088	574.219	95.2239	574.219	94.9399	574.219	94.5573	574.219	94.313	574.219	93.9542	574.219	93.7941	574.219	93.3963	574.219	93.3685	574.219	92.731	574.219	92.8743	574.219	91.8769	574.219	92.0358	574.219	90.907	574.219	90.5704	574.219	89.8348	574.219	88.3194	574.219	88.4778	574.219	85.7624	574.219	86.936	574.219	85.1281	574.219	86.4371	574.219	86.9102	574.219	87.6756	574.219	88.7251	574.219	89.1408	574.219	89.7415	574.219	89.8817
594.727	97.0715	594.727	96.9903	594.727	96.9341	594.727	96.691	594.727	96.5678	594.727	96.1791	594.727	95.9545	594.727	95.4811	594.727	95.0962	594.727	94.6541	594.727	94.0764	594.727	93.8157	594.727	93.1396	594.727	93.2014	594.727	92.6167	594.727	93.0355	594.727	92.5275	594.727	93.151	594.727	92.4838	594.727	93.0339	594.727	92.1188	594.727	92.2373	594.727	91.2557	594.727	90.4985	594.727	89.7765	594.727	87.6868	594.727	87.6724	594.727	84.3759	594.727	85.9109	594.727	84.0713	594.727	86.609	594.727	86.7754	594.727	88.5651	594.727	88.935	594.727	89.8131	594.727	89.9418
615.234	97.3727	615.234	97.3407	615.234	97.2011	615.234	97.0757	615.234	96.8595	615.234	96.5928	615.234	96.3419	615.234	95.935	615.234	95.6111	615.234	95.1117	615.234	94.6572	615.234	94.0902	615.234	93.5659	615.234	92.9187	615.234	92.577	615.234	91.93	615.234	92.0358	615.234	91.618	615.234	91.9933	615.234	91.8159	615.234	91.9272	615.234	91.7023	615.234	91.1536	615.234	90.6473	615.234	89.1546	615.234	88.4412	615.234	85.7652	615.234	86.054	615.234	83.4687	615.234	86.7118	615.234	85.8555	615.234	89.0868	615.234	88.5454	615.234	90.5712	615.234	90.1886	615.234	90.8841
637.207	96.3337	637.207	96.2919	637.207	96.1757	637.207	96.0585	637.207	95.8066	637.207	95.617	637.207	95.2191	637.207	94.9371	637.207	94.3794	637.207	94.0121	637.207	93.2561	637.207	92.9404	637.207	91.981	637.207	92.0482	637.207	91.0166	637.207	91.6873	637.207	90.8698	637.207	91.6734	637.207	91.3676	637.207	91.5537	637.207	91.7759	637.207	91.1726	637.207	91.4435	637.207	90.4703	637.207	89.9999	637.207	89.1952	637.207	87.4688	637.207	87.282	637.207	84.986	637.207	85.8109	637.207	85.0055	637.207	86.253	637.207	86.753	637.207	87.5118	637.207	88.0421	637.207	88.2649
659.18	96.5691	659.18	96.5543	659.18	96.4281	659.18	96.3627	659.18	96.122	659.18	95.9815	659.18	95.6107	659.18	95.4009	659.18	94.8487	659.18	94.5534	659.18	93.793	659.18	93.3054	659.18	92.4245	659.18	91.6214	659.18	90.8414	659.18	89.9621	659.18	89.4079	659.18	89.3165	659.18	88.6944	659.18	89.6373	659.18	88.7986	659.18	89.8491	659.18	88.9898	659.18	89.299	659.18	88.4614	659.18	87.6338	659.18	86.9959	659.18	84.9944	659.18	85.9066	659.18	84.6367	659.18	87.1222	659.18	87.4311	659.18	89.0318	659.18	89.5393	659.18	90.196	659.18	90.396
682.617	96.3137	682.617	96.2303	682.617	96.1721	682.617	95.9985	682.617	95.7623	682.617	95.6226	682.617	95.1183	682.617	95.0195	682.617	94.2866	682.617	94.1613	682.617	93.2836	682.617	93.235	682.617	92.1913	682.617	92.4281	682.617	91.2619	682.617	91.5513	682.617	90.7401	682.617	90.5734	682.617	90.5546	682.617	90.0364	682.617	90.3738	682.617	89.6429	682.617	89.7021	682.617	88.2371	682.617	87.9225	682.617	85.4464	682.617	84.5792	682.617	83.2679	682.617	81.3831	682.617	84.7365	682.617	83.3112	682.617	87.1773	682.617	86.2894	682.617	88.7098	682.617	88.2094	682.617	89.0409
707.52	97.2708	707.52	97.2471	707.52	97.1249	707.52	97.0364	707.52	96.833	707.52	96.6239	707.52	96.3858	707.52	95.9762	707.52	95.7149	707.52	95.056	707.52	94.7036	707.52	93.864	707.52	93.2009	707.52	92.5364	707.52	91.2723	707.52	91.4966	707.52	90.0195	707.52	91.2175	707.52	90.457	707.52	91.4985	707.52	91.1662	707.52	91.6333	707.52	91.1526	707.52	91.0582	707.52	90.2946	707.52	89.4637	707.52	88.357	707.52	86.7695	707.52	85.5854	707.52	84.1016	707.52	85.2074	707.52	84.6503	707.52	87.4887	707.52	86.7819	707.52	88.7022	707.52	88.3119
732.422	97.8116	732.422	97.8241	732.422	97.5596	732.422	97.5659	732.422	97.1214	732.422	97.0981	732.422	96.5114	732.422	96.5081	732.422	95.7584	732.422	95.7468	732.422	94.9113	732.422	94.5999	732.422	93.8979	732.422	92.8998	732.422	92.5478	732.422	90.9588	732.422	90.95	732.422	89.9828	732.422	89.9109	732.422	90.4229	732.422	90.1292	732.422	90.9092	732.422	90.4068	732.422	90.5209	732.422	89.3005	732.422	89.0222	732.422	86.2688	732.422	86.425	732.422	83.2506	732.422	84.743	732.422	84.9436	732.422	87.7397	732.422	88.2726	732.422	90.7619	732.422	90.8298	732.422	91.7811
757.324	97.6791	757.324	97.5947	757.324	97.6427	757.324	97.4529	757.324	97.3737	757.324	97.1514	757.324	96.8363	757.324	96.5079	757.324	96.0402	757.324	95.4547	757.324	95.0152	757.324	94.1706	757.324	93.8244	757.324	92.8888	757.324	92.3711	757.324	91.3941	757.324	90.6952	757.324	89.6016	757.324	90.0025	757.324	88.8846	757.324	90.5688	757.324	89.4754	757.324	90.9548	757.324	89.6131	757.324	90.5033	757.324	88.2964	757.324	88.21	757.324	84.7681	757.324	82.3597	757.324	82.4085	757.324	79.532	757.324	86.0031	757.324	85.3271	757.324	88.4564	757.324	88.2701	757.324	89.231
785.156	97.5248	785.156	97.3806	785.156	97.3859	785.156	97.103	785.156	96.9466	785.156	96.7347	785.156	96.3812	785.156	96.1358	785.156	95.8645	785.156	95.2241	785.156	95.255	785.156	94.05	785.156	94.1535	785.156	92.4877	785.156	92.4318	785.156	90.2449	785.156	90.6133	785.156	88.0337	785.156	89.5631	785.156	87.9269	785.156	89.5469	785.156	88.8986	785.156	89.7491	785.156	89.2347	785.156	89.0964	785.156	88.0753	785.156	87.2502	785.156	84.3438	785.156	84.8686	785.156	80.382	785.156	84.9742	785.156	84.8687	785.156	88.1307	785.156	88.3802	785.156	90.0476	785.156	90.0378
811.523	96.7899	811.523	96.8439	811.523	96.5288	811.523	96.7475	811.523	96.119	811.523	96.485	811.523	95.5989	811.523	95.9455	811.523	94.8266	811.523	95.1879	811.523	93.7648	811.523	94.378	811.523	92.5698	811.523	93.4397	811.523	91.0932	811.523	92.1992	811.523	89.2619	811.523	90.8138	811.523	88.2384	811.523	89.9826	811.523	88.811	811.523	90.0845	811.523	89.9814	811.523	90.037	811.523	90.4753	811.523	88.8551	811.523	89.2116	811.523	86.1493	811.523	86.29	811.523	82.2032	811.523	83.9756	811.523	83.2342	811.523	84.3697	811.523	86.2484	811.523	86.3056	811.523	87.2328
840.82	97.4291	840.82	97.4092	840.82	97.2885	840.82	97.1479	840.82	96.9738	840.82	96.6465	840.82	96.4972	840.82	96.0706	840.82	95.9147	840.82	95.2831	840.82	95.1239	840.82	93.9587	840.82	93.9122	840.82	92.2672	840.82	92.3284	840.82	90.2659	840.82	90.566	840.82	87.2596	840.82	88.5537	840.82	86.4813	840.82	87.2729	840.82	89.0564	840.82	88.082	840.82	89.852	840.82	88.756	840.82	88.4604	840.82	87.2565	840.82	84.3467	840.82	83.3361	840.82	78.6187	840.82	82.8751	840.82	83.6285	840.82	86.1724	840.82	87.0536	840.82	88.0863	840.82	88.4334
870.117	97.5398	870.117	97.4595	870.117	97.2205	870.117	96.9967	870.117	96.5966	870.117	96.2952	870.117	95.8314	870.117	95.4915	870.117	95.0092	870.117	94.6024	870.117	94.0387	870.117	93.6562	870.117	92.9419	870.117	92.6126	870.117	91.6289	870.117	91.0753	870.117	89.8068	870.117	88.9955	870.117	88.0093	870.117	87.2854	870.117	86.7618	870.117	86.8703	870.117	86.8826	870.117	87.6005	870.117	88.0758	870.117	87.7595	870.117	87.4412	870.117	86.3842	870.117	84.0616	870.117	83.2294	870.117	78.1622	870.117	80.8722	870.117	79.1597	870.117	84.0079	870.117	83.6481	870.117	85.2877
900.879	97.8612	900.879	97.7263	900.879	97.7299	900.879	97.3127	900.879	97.3494	900.879	96.689	900.879	96.6598	900.879	95.8006	900.879	95.7932	900.879	94.6676	900.879	94.9213	900.879	93.565	900.879	93.7083	900.879	92.3684	900.879	91.9876	900.879	90.6596	900.879	90.2497	900.879	88.2685	900.879	88.031	900.879	85.8074	900.879	86.4666	900.879	85.949	900.879	87.2474	900.879	87.4596	900.879	87.0789	900.879	87.7607	900.879	86.3934	900.879	85.6517	900.879	84.3277	900.879	78.9577	900.879	80.062	900.879	80.9922	900.879	85.133	900.879	84.4249	900.879	86.9043	900.879	85.7238
933.105	97.8041	933.105	97.9366	933.105	97.2834	933.105	97.5658	933.105	96.4601	933.105	96.6896	933.105	95.5814	933.105	95.6832	933.105	94.8133	933.105	94.7578	933.105	93.8988	933.105	93.7374	933.105	92.7927	933.105	93.1153	933.105	91.644	933.105	92.6493	933.105	89.8985	933.105	91.2409	933.105	87.4193	933.105	89.8261	933.105	85.5388	933.105	89.1639	933.105	85.4244	933.105	88.9611	933.105	87.6679	933.105	89.5473	933.105	87.8238	933.105	89.135	933.105	85.1901	933.105	86.7499	933.105	82.2948	933.105	82.3875	933.105	80.4174	933.105	83.2776	933.105	83.6807	933.105	85.6261
965.332	97.7405	965.332	97.6177	965.332	97.5389	965.332	97.0019	965.332	97.0938	965.332	96.0627	965.332	96.2542	965.332	94.8982	965.332	95.2199	965.332	93.5778	965.332	94.4876	965.332	92.3349	965.332	93.8311	965.332	90.3523	965.332	92.6801	965.332	88.2379	965.332	91.3394	965.332	86.7207	965.332	89.7691	965.332	84.1485	965.332	87.0924	965.332	85.6623	965.332	85.4064	965.332	87.5162	965.332	84.2542	965.332	87.8817	965.332	83.3175	965.332	86.5868	965.332	80.9758	965.332	82.5869	965.332	73.0609	965.332	81.2094	965.332	84.0842	965.332	83.8897	965.332	86.6536	965.332	85.9007
1,000.49	97.4085	1,000.49	97.4578	1,000.49	97.0509	1,000.49	97.2566	1,000.49	96.1787	1,000.49	96.6001	1,000.49	94.8526	1,000.49	95.6985	1,000.49	93.4513	1,000.49	94.7397	1,000.49	92.6907	1,000.49	93.5385	1,000.49	92.3139	1,000.49	92.7723	1,000.49	91.3388	1,000.49	92.1836	1,000.49	89.7605	1,000.49	90.959	1,000.49	88.2332	1,000.49	88.9319	1,000.49	87.0241	1,000.49	86.3099	1,000.49	87.3898	1,000.49	86.1379	1,000.49	89.3622	1,000.49	87.9098	1,000.49	88.8224	1,000.49	88.5003	1,000.49	86.7075	1,000.49	85.2235	1,000.49	84.4887	1,000.49	79.4505	1,000.49	83.4026	1,000.49	83.2726	1,000.49	86.4249	1,000.49	86.2126
1,035.64	97.4993	1,035.64	97.4089	1,035.64	97.2312	1,035.64	96.9665	1,035.64	96.5815	1,035.64	96.141	1,035.64	95.4769	1,035.64	94.9882	1,035.64	93.9916	1,035.64	94.0306	1,035.64	92.399	1,035.64	93.414	1,035.64	91.0036	1,035.64	92.2604	1,035.64	89.9731	1,035.64	90.7602	1,035.64	88.7155	1,035.64	89.245	1,035.64	85.9498	1,035.64	86.229	1,035.64	81.5613	1,035.64	83.3589	1,035.64	81.4716	1,035.64	82.9836	1,035.64	82.8559	1,035.64	85.3969	1,035.64	83.061	1,035.64	86.6441	1,035.64	80.7953	1,035.64	83.5625	1,035.64	77.5043	1,035.64	81.9625	1,035.64	81.1002	1,035.64	85.0762	1,035.64	85.0985	1,035.64	86.1367
1,072.27	94.6146	1,072.27	95.0142	1,072.27	93.9642	1,072.27	94.9972	1,072.27	93.2835	1,072.27	94.6272	1,072.27	92.6706	1,072.27	94.1624	1,072.27	91.798	1,072.27	93.2214	1,072.27	90.7131	1,072.27	91.4282	1,072.27	90.3172	1,072.27	90.4653	1,072.27	90.0728	1,072.27	90.2358	1,072.27	88.7285	1,072.27	89.7153	1,072.27	87.4474	1,072.27	88.2168	1,072.27	86.3732	1,072.27	84.8267	1,072.27	83.5249	1,072.27	87.1139	1,072.27	85.1998	1,072.27	88.1412	1,072.27	86.1072	1,072.27	87.1297	1,072.27	83.8594	1,072.27	86.222	1,072.27	79.3648	1,072.27	83.4625	1,072.27	82.8895	1,072.27	85.6399	1,072.27	86.8372	1,072.27	87.9484
1,108.89	96.1	1,108.89	95.3818	1,108.89	96.1663	1,108.89	94.7885	1,108.89	95.8095	1,108.89	94.4366	1,108.89	95.0072	1,108.89	93.2967	1,108.89	93.4695	1,108.89	92.0091	1,108.89	91.4654	1,108.89	91.3038	1,108.89	89.8044	1,108.89	90.1355	1,108.89	89.3006	1,108.89	88.8369	1,108.89	88.8935	1,108.89	87.6662	1,108.89	87.1414	1,108.89	86.1001	1,108.89	83.856	1,108.89	84.1349	1,108.89	79.4153	1,108.89	83.6473	1,108.89	80.0901	1,108.89	83.3204	1,108.89	82.7034	1,108.89	83.5385	1,108.89	80.9392	1,108.89	80.426	1,108.89	75.0051	1,108.89	80.8001	1,108.89	76.1957	1,108.89	85.167	1,108.89	85.4496	1,108.89	86.4531
1,148.44	94.9971	1,148.44	94.9459	1,148.44	94.7663	1,148.44	94.1877	1,148.44	94.1643	1,148.44	93.0229	1,148.44	93.3932	1,148.44	91.9223	1,148.44	92.4998	1,148.44	90.1005	1,148.44	90.9132	1,148.44	88.3469	1,148.44	88.9535	1,148.44	87.1794	1,148.44	88.001	1,148.44	85.8669	1,148.44	87.3908	1,148.44	85.4259	1,148.44	85.8991	1,148.44	85.5066	1,148.44	84.9147	1,148.44	82.561	1,148.44	82.9951	1,148.44	80.1942	1,148.44	79.1559	1,148.44	83.6472	1,148.44	82.0497	1,148.44	82.5957	1,148.44	81.8618	1,148.44	79.5191	1,148.44	72.3245	1,148.44	79.4391	1,148.44	73.7763	1,148.44	81.4587	1,148.44	79.0025	1,148.44	81.063
1,189.45	94.3413	1,189.45	93.8184	1,189.45	94.2608	1,189.45	92.5639	1,189.45	93.9647	1,189.45	91.6923	1,189.45	93.0656	1,189.45	91.2181	1,189.45	91.4887	1,189.45	90.4267	1,189.45	89.8546	1,189.45	90.1055	1,189.45	87.7784	1,189.45	88.7687	1,189.45	86.1482	1,189.45	86.2359	1,189.45	86.573	1,189.45	84.2326	1,189.45	86.6295	1,189.45	83.3762	1,189.45	84.8654	1,189.45	82.7069	1,189.45	83.1957	1,189.45	81.1871	1,189.45	79.3414	1,189.45	84.09	1,189.45	81.0902	1,189.45	83.9301	1,189.45	84.1981	1,189.45	78.4956	1,189.45	82.2457	1,189.45	75.378	1,189.45	75.2863	1,189.45	80.2868	1,189.45	72.5578	1,189.45	78.7561
1,230.47	95.6887	1,230.47	95.5172	1,230.47	95.3673	1,230.47	94.8379	1,230.47	94.6661	1,230.47	93.6306	1,230.47	93.886	1,230.47	91.9907	1,230.47	92.9526	1,230.47	89.8377	1,230.47	91.6967	1,230.47	87.3961	1,230.47	89.306	1,230.47	85.8434	1,230.47	85.5932	1,230.47	84.3384	1,230.47	84.8721	1,230.47	82.8678	1,230.47	85.4869	1,230.47	81.3319	1,230.47	86.3058	1,230.47	79.4916	1,230.47	84.4462	1,230.47	78.1779	1,230.47	79.5212	1,230.47	79.1048	1,230.47	82.5562	1,230.47	78.5061	1,230.47	84.7021	1,230.47	73.7007	1,230.47	83.2106	1,230.47	67.3226	1,230.47	78.0224	1,230.47	76.9968	1,230.47	72.1023	1,230.47	77.8529
1,274.41	95.8894	1,274.41	95.9139	1,274.41	95.4556	1,274.41	95.581	1,274.41	94.4448	1,274.41	94.7499	1,274.41	93.4472	1,274.41	93.7745	1,274.41	92.512	1,274.41	92.0634	1,274.41	91.8472	1,274.41	90.2769	1,274.41	90.6522	1,274.41	90.1277	1,274.41	88.6072	1,274.41	88.9654	1,274.41	87.6405	1,274.41	86.4668	1,274.41	87.0426	1,274.41	83.4179	1,274.41	86.5658	1,274.41	83.0918	1,274.41	85.2456	1,274.41	75.147	1,274.41	83.146	1,274.41	79.5629	1,274.41	83.6819	1,274.41	82.9311	1,274.41	85.7371	1,274.41	82.5032	1,274.41	84.3698	1,274.41	73.3019	1,274.41	81.6523	1,274.41	75.6374	1,274.41	76.37	1,274.41	78.9536
1,319.82	96.1699	1,319.82	96.6472	1,319.82	96.2536	1,319.82	97.1041	1,319.82	95.4197	1,319.82	96.7849	1,319.82	93.9712	1,319.82	95.8695	1,319.82	93.3712	1,319.82	94.5837	1,319.82	91.9355	1,319.82	92.4328	1,319.82	90.537	1,319.82	90.0095	1,319.82	89.2371	1,319.82	88.8474	1,319.82	87.1526	1,319.82	87.7354	1,319.82	86.5628	1,319.82	85.8246	1,319.82	88.5674	1,319.82	82.9702	1,319.82	87.9632	1,319.82	81.7658	1,319.82	85.485	1,319.82	83.9255	1,319.82	84.4083	1,319.82	81.636	1,319.82	85.4084	1,319.82	79.171	1,319.82	84.6894	1,319.82	70.3422	1,319.82	80.764	1,319.82	77.6265	1,319.82	82.297	1,319.82	80.9287
1,366.7	97.509	1,366.7	97.62	1,366.7	97.1853	1,366.7	97.2241	1,366.7	96.6986	1,366.7	96.4559	1,366.7	95.8216	1,366.7	95.5539	1,366.7	94.3486	1,366.7	94.5219	1,366.7	93.1025	1,366.7	92.8802	1,366.7	92.6727	1,366.7	90.8115	1,366.7	91.9628	1,366.7	89.4447	1,366.7	90.1613	1,366.7	88.9446	1,366.7	87.366	1,366.7	88.8646	1,366.7	86.1025	1,366.7	85.962	1,366.7	84.6914	1,366.7	82.5182	1,366.7	83.5592	1,366.7	81.76	1,366.7	85.882	1,366.7	84.7341	1,366.7	87.0147	1,366.7	86.6307	1,366.7	84.7896	1,366.7	82.3563	1,366.7	83.0508	1,366.7	71.0254	1,366.7	84.0931	1,366.7	78.6122
1,413.57	97.5005	1,413.57	97.8763	1,413.57	97.0142	1,413.57	97.4536	1,413.57	96.7338	1,413.57	96.3408	1,413.57	95.7284	1,413.57	95.0243	1,413.57	94.4359	1,413.57	94.0981	1,413.57	93.062	1,413.57	92.4301	1,413.57	92.1397	1,413.57	91.2079	1,413.57	91.3038	1,413.57	89.4288	1,413.57	89.4497	1,413.57	88.351	1,413.57	87.7893	1,413.57	88.3824	1,413.57	85.4536	1,413.57	85.7718	1,413.57	85.7988	1,413.57	85.2214	1,413.57	82.4944	1,413.57	78.5007	1,413.57	84.6771	1,413.57	76.6831	1,413.57	86.2747	1,413.57	81.0317	1,413.57	83.6934	1,413.57	78.3661	1,413.57	83.5375	1,413.57	76.7205	1,413.57	83.5836	1,413.57	80.6702
1,463.38	97.2742	1,463.38	96.6663	1,463.38	96.8481	1,463.38	96.7142	1,463.38	95.7377	1,463.38	96.1379	1,463.38	94.9762	1,463.38	94.7111	1,463.38	94.2405	1,463.38	93.9234	1,463.38	92.8876	1,463.38	93.3102	1,463.38	91.0704	1,463.38	91.4973	1,463.38	89.4244	1,463.38	90.0756	1,463.38	88.5819	1,463.38	88.5143	1,463.38	87.7363	1,463.38	85.579	1,463.38	85.552	1,463.38	83.9276	1,463.38	82.3986	1,463.38	84.0709	1,463.38	81.971	1,463.38	84.8909	1,463.38	80.9952	1,463.38	84.3353	1,463.38	82.6775	1,463.38	83.3591	1,463.38	76.7787	1,463.38	81.2489	1,463.38	79.9958	1,463.38	76.1028	1,463.38	82.8911	1,463.38	80.0537
1,516.11	94.6411	1,516.11	94.4801	1,516.11	94.8992	1,516.11	94.1106	1,516.11	94.1656	1,516.11	92.7439	1,516.11	93.4236	1,516.11	91.4315	1,516.11	93.1304	1,516.11	91.2949	1,516.11	91.8428	1,516.11	91.1855	1,516.11	90.4675	1,516.11	90.0184	1,516.11	88.4618	1,516.11	88.7613	1,516.11	87.3121	1,516.11	86.3723	1,516.11	85.8112	1,516.11	85.4525	1,516.11	80.082	1,516.11	84.844	1,516.11	76.3687	1,516.11	84.207	1,516.11	80.5638	1,516.11	83.708	1,516.11	77.9567	1,516.11	83.2376	1,516.11	82.5941	1,516.11	82.5192	1,516.11	79.9076	1,516.11	76.9501	1,516.11	75.8542	1,516.11	74.9286	1,516.11	78.4996	1,516.11	79.1906
1,568.85	95.8087	1,568.85	95.8354	1,568.85	95.3055	1,568.85	95.2708	1,568.85	94.9601	1,568.85	93.594	1,568.85	95.3158	1,568.85	92.2787	1,568.85	94.167	1,568.85	91.1445	1,568.85	91.6797	1,568.85	90.2676	1,568.85	90.8884	1,568.85	88.3705	1,568.85	89.679	1,568.85	86.9001	1,568.85	88.3083	1,568.85	84.7179	1,568.85	86.0247	1,568.85	83.2529	1,568.85	85.0178	1,568.85	82.368	1,568.85	82.1194	1,568.85	83.1034	1,568.85	77.8225	1,568.85	83.5424	1,568.85	80.0457	1,568.85	86.1801	1,568.85	81.9395	1,568.85	85.4234	1,568.85	80.9389	1,568.85	76.5674	1,568.85	77.3978	1,568.85	74.8949	1,568.85	80.7221	1,568.85	80.0887
1,624.51	95.8999	1,624.51	95.5993	1,624.51	96.2435	1,624.51	95.3206	1,624.51	95.3812	1,624.51	94.0716	1,624.51	95.2449	1,624.51	93.5032	1,624.51	93.5431	1,624.51	91.3475	1,624.51	91.7855	1,624.51	89.4276	1,624.51	91.0791	1,624.51	87.9434	1,624.51	89.5072	1,624.51	87.9562	1,624.51	87.9067	1,624.51	88.3283	1,624.51	87.3964	1,624.51	84.4236	1,624.51	86.6852	1,624.51	81.9855	1,624.51	83.5223	1,624.51	79.657	1,624.51	84.0761	1,624.51	75.9266	1,624.51	83.2081	1,624.51	82.2001	1,624.51	82.2803	1,624.51	83.5871	1,624.51	83.8944	1,624.51	81.1763	1,624.51	79.0251	1,624.51	70.6566	1,624.51	79.353	1,624.51	79.9865
1,681.64	96.0458	1,681.64	95.7942	1,681.64	96.026	1,681.64	95.4696	1,681.64	94.9513	1,681.64	94.3844	1,681.64	94.8822	1,681.64	93.501	1,681.64	93.026	1,681.64	92.3218	1,681.64	91.6115	1,681.64	90.7979	1,681.64	90.3784	1,681.64	88.0733	1,681.64	89.1231	1,681.64	88.2042	1,681.64	86.2056	1,681.64	84.4223	1,681.64	86.5623	1,681.64	82.2774	1,681.64	85.7137	1,681.64	81.0182	1,681.64	83.0226	1,681.64	78.3233	1,681.64	84.0172	1,681.64	75.9078	1,681.64	79.0389	1,681.64	79.8404	1,681.64	83.1683	1,681.64	81.3843	1,681.64	82.2676	1,681.64	76.9386	1,681.64	74.5261	1,681.64	75.5997	1,681.64	79.9155	1,681.64	80.3864
1,741.7	96.0054	1,741.7	95.2285	1,741.7	95.9901	1,741.7	95.6187	1,741.7	95.5377	1,741.7	95.005	1,741.7	94.6045	1,741.7	93.9609	1,741.7	93.4535	1,741.7	93.0745	1,741.7	93.3431	1,741.7	91.0884	1,741.7	90.4268	1,741.7	90.3399	1,741.7	87.2125	1,741.7	89.2777	1,741.7	87.1926	1,741.7	87.8922	1,741.7	86.7055	1,741.7	82.4779	1,741.7	83.5972	1,741.7	78.6233	1,741.7	81.7851	1,741.7	80.9111	1,741.7	82.4133	1,741.7	80.8716	1,741.7	82.6605	1,741.7	76.5675	1,741.7	83.0795	1,741.7	83.9146	1,741.7	81.8797	1,741.7	80.4627	1,741.7	76.603	1,741.7	78.2744	1,741.7	76.3558	1,741.7	76.2587
1,803.22	96.598	1,803.22	96.596	1,803.22	96.1315	1,803.22	96.3188	1,803.22	95.5363	1,803.22	95.585	1,803.22	94.6306	1,803.22	94.809	1,803.22	93.7555	1,803.22	94.0042	1,803.22	92.4343	1,803.22	92.4305	1,803.22	90.5279	1,803.22	90.4747	1,803.22	89.2283	1,803.22	89.3317	1,803.22	87.5399	1,803.22	86.9149	1,803.22	85.9421	1,803.22	85.4322	1,803.22	84.4698	1,803.22	84.6375	1,803.22	80.4857	1,803.22	81.2955	1,803.22	79.363	1,803.22	80.9124	1,803.22	80.0021	1,803.22	80.7147	1,803.22	81.0565	1,803.22	82.5267	1,803.22	81.5296	1,803.22	82.1815	1,803.22	76.7989	1,803.22	79.0033	1,803.22	78.6694	1,803.22	82.2319
1,866.21	97.1485	1,866.21	97.2868	1,866.21	96.814	1,866.21	96.9269	1,866.21	96.2538	1,866.21	96.368	1,866.21	95.2146	1,866.21	95.3952	1,866.21	94.431	1,866.21	94.2197	1,866.21	93.1909	1,866.21	93.4541	1,866.21	91.5106	1,866.21	91.5457	1,866.21	89.2829	1,866.21	89.7007	1,866.21	87.8202	1,866.21	87.8179	1,866.21	85.7925	1,866.21	85.7804	1,866.21	85.0654	1,866.21	85.5303	1,866.21	80.7332	1,866.21	81.5944	1,866.21	80.9814	1,866.21	82.8876	1,866.21	78.4174	1,866.21	80.7797	1,866.21	78.5905	1,866.21	83.2591	1,866.21	83.2312	1,866.21	83.1271	1,866.21	75.8275	1,866.21	78.6742	1,866.21	79.569	1,866.21	81.3762
1,932.13	96.6276	1,932.13	96.5764	1,932.13	96.698	1,932.13	96.3101	1,932.13	96.0046	1,932.13	95.9517	1,932.13	95.3609	1,932.13	95.3606	1,932.13	94.4955	1,932.13	94.2939	1,932.13	93.1448	1,932.13	92.5483	1,932.13	91.3628	1,932.13	90.8156	1,932.13	89.4064	1,932.13	89.8525	1,932.13	87.6708	1,932.13	87.4593	1,932.13	85.6353	1,932.13	85.6507	1,932.13	84.3664	1,932.13	85.4008	1,932.13	83.3404	1,932.13	81.9129	1,932.13	80.184	1,932.13	81.4612	1,932.13	82.202	1,932.13	79.6237	1,932.13	78.0993	1,932.13	80.3319	1,932.13	80.9525	1,932.13	80.3254	1,932.13	78.021	1,932.13	78.3503	1,932.13	79.5991	1,932.13	82.2078
1,999.51	96.3064	1,999.51	96.0136	1,999.51	96.0028	1,999.51	96.0112	1,999.51	96.0031	1,999.51	95.3166	1,999.51	95.6129	1,999.51	94.6992	1,999.51	94.5244	1,999.51	93.6109	1,999.51	93.6942	1,999.51	92.1709	1,999.51	92.517	1,999.51	90.3698	1,999.51	90.6628	1,999.51	87.7946	1,999.51	88.2701	1,999.51	87.0952	1,999.51	86.3463	1,999.51	84.8359	1,999.51	85.0949	1,999.51	84.1351	1,999.51	83.7829	1,999.51	80.98	1,999.51	80.0293	1,999.51	81.0639	1,999.51	82.6533	1,999.51	80.3151	1,999.51	80.201	1,999.51	79.8766	1,999.51	80.6171	1,999.51	79.7969	1,999.51	77.281	1,999.51	77.7568	1,999.51	75.8969	1,999.51	82.2211
2,069.82	96.4065	2,069.82	96.311	2,069.82	96.5671	2,069.82	95.957	2,069.82	96.3977	2,069.82	95.4313	2,069.82	96.0884	2,069.82	94.5317	2,069.82	95.3057	2,069.82	93.1745	2,069.82	93.9137	2,069.82	91.8393	2,069.82	92.34	2,069.82	89.3849	2,069.82	90.3999	2,069.82	87.2782	2,069.82	88.6428	2,069.82	85.3002	2,069.82	86.9694	2,069.82	83.072	2,069.82	84.8439	2,069.82	82.504	2,069.82	84.8957	2,069.82	80.9319	2,069.82	80.1455	2,069.82	79.0433	2,069.82	83.52	2,069.82	79.7765	2,069.82	80.1992	2,069.82	76.3953	2,069.82	81.0099	2,069.82	78.9602	2,069.82	79.4073	2,069.82	75.7845	2,069.82	79.6871	2,069.82	80.6941
2,143.07	96.7654	2,143.07	96.5533	2,143.07	96.6259	2,143.07	96.1229	2,143.07	96.354	2,143.07	95.3842	2,143.07	95.8996	2,143.07	94.7319	2,143.07	94.6978	2,143.07	93.578	2,143.07	93.254	2,143.07	91.5081	2,143.07	91.8643	2,143.07	90.1341	2,143.07	89.378	2,143.07	87.0545	2,143.07	86.858	2,143.07	84.769	2,143.07	84.5797	2,143.07	82.9662	2,143.07	82.5566	2,143.07	81.4458	2,143.07	83.0837	2,143.07	78.3649	2,143.07	77.171	2,143.07	76.7507	2,143.07	82.1202	2,143.07	78.2868	2,143.07	80.1321	2,143.07	77.4417	2,143.07	79.2501	2,143.07	77.0135	2,143.07	75.9036	2,143.07	69.8551	2,143.07	78.8688	2,143.07	79.7618
2,219.24	96.4013	2,219.24	96.329	2,219.24	96.0491	2,219.24	96.0752	2,219.24	95.6161	2,219.24	95.5431	2,219.24	94.7073	2,219.24	94.7459	2,219.24	93.4715	2,219.24	93.3303	2,219.24	91.7906	2,219.24	91.2213	2,219.24	89.7192	2,219.24	89.4478	2,219.24	87.8493	2,219.24	86.7398	2,219.24	84.9247	2,219.24	84.9383	2,219.24	82.7529	2,219.24	81.8042	2,219.24	80.2919	2,219.24	79.5031	2,219.24	79.9014	2,219.24	80.6764	2,219.24	73.5849	2,219.24	74.6291	2,219.24	76.5716	2,219.24	78.8627	2,219.24	77.1796	2,219.24	78.0303	2,219.24	80.3045	2,219.24	76.576	2,219.24	75.3724	2,219.24	74.2797	2,219.24	79.037	2,219.24	81.0591
2,296.88	94.96	2,296.88	95.5197	2,296.88	94.8329	2,296.88	95.4256	2,296.88	94.4372	2,296.88	95.1165	2,296.88	93.3995	2,296.88	93.872	2,296.88	92.4135	2,296.88	92.8377	2,296.88	90.4408	2,296.88	91.2196	2,296.88	87.886	2,296.88	89.1218	2,296.88	85.5816	2,296.88	87.6297	2,296.88	83.0054	2,296.88	83.6954	2,296.88	80.1839	2,296.88	83.1333	2,296.88	78.3781	2,296.88	80.5044	2,296.88	78.6581	2,296.88	80.2626	2,296.88	76.6665	2,296.88	75.9858	2,296.88	71.3367	2,296.88	75.6281	2,296.88	71.183	2,296.88	76.5313	2,296.88	73.8719	2,296.88	77.4062	2,296.88	72.5457	2,296.88	74.2843	2,296.88	77.6729	2,296.88	79.3185
2,378.91	93.9387	2,378.91	94.0862	2,378.91	94.1254	2,378.91	94.1606	2,378.91	93.9294	2,378.91	93.6577	2,378.91	93.25	2,378.91	92.6809	2,378.91	91.8939	2,378.91	91.0529	2,378.91	90.5426	2,378.91	89.0724	2,378.91	88.2739	2,378.91	86.3386	2,378.91	85.4305	2,378.91	84.9332	2,378.91	83.8965	2,378.91	82.7087	2,378.91	80.0995	2,378.91	79.0104	2,378.91	78.9362	2,378.91	78.9608	2,378.91	76.6545	2,378.91	78.7294	2,378.91	76.5675	2,378.91	73.2801	2,378.91	72.7323	2,378.91	75.7738	2,378.91	76.1217	2,378.91	74.3347	2,378.91	73.0652	2,378.91	73.6662	2,378.91	72.4338	2,378.91	70.5848	2,378.91	73.1518	2,378.91	78.8109
2,462.4	95.2993	2,462.4	95.122	2,462.4	95.385	2,462.4	94.8839	2,462.4	95.3072	2,462.4	94.1973	2,462.4	94.7172	2,462.4	92.8323	2,462.4	93.3101	2,462.4	90.4176	2,462.4	91.2892	2,462.4	88.2933	2,462.4	88.9021	2,462.4	84.863	2,462.4	85.8316	2,462.4	82.3301	2,462.4	83.8174	2,462.4	79.196	2,462.4	81.8847	2,462.4	76.114	2,462.4	78.1117	2,462.4	74.6623	2,462.4	77.8673	2,462.4	78.2786	2,462.4	77.6615	2,462.4	71.3411	2,462.4	72.7923	2,462.4	73.7034	2,462.4	76.394	2,462.4	72.5979	2,462.4	75.0149	2,462.4	73.4383	2,462.4	75.1415	2,462.4	69.5581	2,462.4	76.857	2,462.4	77.7445
2,548.83	96.2506	2,548.83	96.221	2,548.83	96.1678	2,548.83	96.1179	2,548.83	95.9045	2,548.83	95.4219	2,548.83	94.8363	2,548.83	94.05	2,548.83	93.1155	2,548.83	92.2337	2,548.83	90.9866	2,548.83	89.7345	2,548.83	88.259	2,548.83	87.0594	2,548.83	85.5183	2,548.83	83.2679	2,548.83	82.8104	2,548.83	80.2157	2,548.83	80.884	2,548.83	78.3974	2,548.83	77.8828	2,548.83	74.8831	2,548.83	72.6314	2,548.83	75.2114	2,548.83	76.6065	2,548.83	71.7758	2,548.83	66.7857	2,548.83	71.0609	2,548.83	73.3626	2,548.83	73.6155	2,548.83	74.8994	2,548.83	75.5341	2,548.83	72.6729	2,548.83	72.6845	2,548.83	76.9055	2,548.83	78.5412
2,639.65	96.0999	2,639.65	96.009	2,639.65	95.622	2,639.65	95.9327	2,639.65	95.2804	2,639.65	95.3536	2,639.65	94.2927	2,639.65	94.1592	2,639.65	92.4689	2,639.65	91.8234	2,639.65	89.8011	2,639.65	88.8783	2,639.65	87.1973	2,639.65	86.612	2,639.65	84.6844	2,639.65	82.6784	2,639.65	81.9471	2,639.65	81.5897	2,639.65	79.9703	2,639.65	78.6173	2,639.65	77.7594	2,639.65	77.1106	2,639.65	75.4347	2,639.65	73.9575	2,639.65	74.7035	2,639.65	74.8823	2,639.65	71.6836	2,639.65	66.342	2,639.65	73.0078	2,639.65	70.3653	2,639.65	72.9653	2,639.65	73.5191	2,639.65	70.1688	2,639.65	67.9537	2,639.65	74.8383	2,639.65	76.8059
2,731.93	94.9762	2,731.93	94.7719	2,731.93	95.016	2,731.93	94.7501	2,731.93	94.5588	2,731.93	94.2116	2,731.93	93.6494	2,731.93	92.6257	2,731.93	91.8674	2,731.93	90.1368	2,731.93	89.3874	2,731.93	87.0109	2,731.93	86.6146	2,731.93	84.2396	2,731.93	84.2994	2,731.93	80.9799	2,731.93	81.5013	2,731.93	80.6649	2,731.93	79.6463	2,731.93	78.4579	2,731.93	78.0516	2,731.93	77.5023	2,731.93	76.8358	2,731.93	73.1242	2,731.93	74.3733	2,731.93	75.5148	2,731.93	73.2261	2,731.93	66.3873	2,731.93	68.8354	2,731.93	73.3045	2,731.93	71.7088	2,731.93	74.048	2,731.93	70.5474	2,731.93	69.4968	2,731.93	69.3614	2,731.93	76.2328
2,828.61	95.6561	2,828.61	95.7876	2,828.61	95.7243	2,828.61	95.2263	2,828.61	95.1423	2,828.61	93.9795	2,828.61	94.1473	2,828.61	92.4488	2,828.61	92.409	2,828.61	90.3261	2,828.61	89.635	2,828.61	86.9792	2,828.61	86.7623	2,828.61	84.2	2,828.61	84.4568	2,828.61	83.321	2,828.61	81.7079	2,828.61	80.07	2,828.61	79.8575	2,828.61	78.3804	2,828.61	77.3038	2,828.61	75.0111	2,828.61	77.2528	2,828.61	74.4889	2,828.61	74.733	2,828.61	74.8345	2,828.61	72.6112	2,828.61	67.5362	2,828.61	70.95	2,828.61	71.5142	2,828.61	71.118	2,828.61	72.2584	2,828.61	72.9731	2,828.61	62.9372	2,828.61	70.4941	2,828.61	75.5627
2,928.22	96.7266	2,928.22	96.8065	2,928.22	96.8091	2,928.22	96.4247	2,928.22	96.4072	2,928.22	95.4529	2,928.22	94.9449	2,928.22	93.5346	2,928.22	93.001	2,928.22	91.2528	2,928.22	90.4679	2,928.22	88.3176	2,928.22	87.5204	2,928.22	85.6064	2,928.22	85.0856	2,928.22	84.5035	2,928.22	82.3826	2,928.22	79.9089	2,928.22	79.807	2,928.22	78.7259	2,928.22	78.2983	2,928.22	76.5864	2,928.22	76.9345	2,928.22	75.8381	2,928.22	75.1652	2,928.22	75.5971	2,928.22	75.614	2,928.22	69.946	2,928.22	68.5544	2,928.22	68.6619	2,928.22	67.7473	2,928.22	72.0987	2,928.22	73.0204	2,928.22	68.239	2,928.22	72.0448	2,928.22	74.5474
3,030.76	97.49	3,030.76	97.5682	3,030.76	97.3692	3,030.76	97.0089	3,030.76	96.7623	3,030.76	95.9948	3,030.76	95.2205	3,030.76	93.9527	3,030.76	93.0348	3,030.76	91.2934	3,030.76	90.5219	3,030.76	88.6051	3,030.76	87.2941	3,030.76	86.1908	3,030.76	85.2919	3,030.76	83.9462	3,030.76	84.0549	3,030.76	81.8727	3,030.76	81.1184	3,030.76	79.6548	3,030.76	79.1748	3,030.76	78.4449	3,030.76	77.0684	3,030.76	78.3045	3,030.76	74.3551	3,030.76	75.9507	3,030.76	75.8671	3,030.76	73.2473	3,030.76	72.1453	3,030.76	70.6102	3,030.76	60.2897	3,030.76	71.9949	3,030.76	71.9327	3,030.76	67.1548	3,030.76	72.3631	3,030.76	76.1977
3,137.7	97.5136	3,137.7	97.5092	3,137.7	97.0949	3,137.7	97.1349	3,137.7	96.4177	3,137.7	96.2599	3,137.7	94.6889	3,137.7	93.9699	3,137.7	92.1716	3,137.7	91.4293	3,137.7	89.5705	3,137.7	89.3074	3,137.7	87.1099	3,137.7	86.5293	3,137.7	84.3441	3,137.7	83.9915	3,137.7	83.3116	3,137.7	83.8694	3,137.7	81.2848	3,137.7	80.8557	3,137.7	78.8129	3,137.7	78.6095	3,137.7	76.4135	3,137.7	79.0756	3,137.7	74.8823	3,137.7	77.0391	3,137.7	75.0594	3,137.7	74.8831	3,137.7	71.7378	3,137.7	71.3706	3,137.7	68.3591	3,137.7	71.681	3,137.7	72.9057	3,137.7	70.8079	3,137.7	71.9588	3,137.7	72.7664
3,249.02	97.0282	3,249.02	96.923	3,249.02	96.7483	3,249.02	96.5157	3,249.02	95.7479	3,249.02	95.4042	3,249.02	94.1978	3,249.02	93.5001	3,249.02	91.8115	3,249.02	90.7086	3,249.02	89.1948	3,249.02	88.7715	3,249.02	87.0307	3,249.02	86.5017	3,249.02	84.8751	3,249.02	84.2896	3,249.02	82.3928	3,249.02	83.7227	3,249.02	81.639	3,249.02	81.1905	3,249.02	79.954	3,249.02	79.5915	3,249.02	77.2701	3,249.02	79.3503	3,249.02	77.4152	3,249.02	77.3656	3,249.02	74.6675	3,249.02	75.2372	3,249.02	72.4198	3,249.02	73.1079	3,249.02	71.5573	3,249.02	71.9181	3,249.02	70.7675	3,249.02	73.0371	3,249.02	69.9745	3,249.02	72.9328
3,363.28	96.9329	3,363.28	96.6717	3,363.28	96.6397	3,363.28	96.3187	3,363.28	95.7833	3,363.28	94.6409	3,363.28	93.9992	3,363.28	92.352	3,363.28	91.5807	3,363.28	90.1287	3,363.28	89.3255	3,363.28	88.4112	3,363.28	87.6715	3,363.28	86.6618	3,363.28	85.538	3,363.28	84.6864	3,363.28	83.1869	3,363.28	83.5626	3,363.28	81.7588	3,363.28	82.0517	3,363.28	79.1	3,363.28	79.5313	3,363.28	77.0406	3,363.28	78.3136	3,363.28	78.0414	3,363.28	76.4056	3,363.28	74.0664	3,363.28	73.5618	3,363.28	71.7299	3,363.28	74.6448	3,363.28	71.2354	3,363.28	73.2031	3,363.28	70.7344	3,363.28	70.9595	3,363.28	55.9889	3,363.28	73.434
3,481.93	96.6794	3,481.93	96.4324	3,481.93	96.7933	3,481.93	96.385	3,481.93	95.3535	3,481.93	94.7252	3,481.93	93.7447	3,481.93	92.6114	3,481.93	91.3646	3,481.93	90.5467	3,481.93	89.4818	3,481.93	88.5053	3,481.93	87.0331	3,481.93	87.2222	3,481.93	85.393	3,481.93	85.1472	3,481.93	83.0856	3,481.93	83.3799	3,481.93	81.6069	3,481.93	81.1702	3,481.93	78.5094	3,481.93	78.9365	3,481.93	76.537	3,481.93	77.7892	3,481.93	75.2839	3,481.93	77.1	3,481.93	73.3798	3,481.93	75.2026	3,481.93	73.4153	3,481.93	73.2967	3,481.93	69.2792	3,481.93	71.5964	3,481.93	66.9194	3,481.93	69.5655	3,481.93	61.2311	3,481.93	73.6113
3,604.98	96.4746	3,604.98	96.7193	3,604.98	96.4182	3,604.98	95.8846	3,604.98	95.2538	3,604.98	94.4569	3,604.98	93.5591	3,604.98	92.9208	3,604.98	91.8847	3,604.98	91.8595	3,604.98	90.1481	3,604.98	89.7289	3,604.98	88.3068	3,604.98	88.217	3,604.98	86.3466	3,604.98	85.342	3,604.98	83.7633	3,604.98	83.5016	3,604.98	82.6899	3,604.98	81.4738	3,604.98	79.5559	3,604.98	78.9751	3,604.98	77.9259	3,604.98	76.7687	3,604.98	75.8364	3,604.98	76.7761	3,604.98	77.28	3,604.98	75.6437	3,604.98	74.288	3,604.98	73.3192	3,604.98	72.2332	3,604.98	69.7989	3,604.98	71.8526	3,604.98	69.8836	3,604.98	53.4569	3,604.98	69.6707
3,732.42	96.7041	3,732.42	96.772	3,732.42	96.2387	3,732.42	95.4723	3,732.42	95.2327	3,732.42	94.3221	3,732.42	93.5584	3,732.42	92.7787	3,732.42	92.4897	3,732.42	92.0404	3,732.42	90.9242	3,732.42	89.9705	3,732.42	89.4336	3,732.42	88.5755	3,732.42	86.8956	3,732.42	86.1666	3,732.42	84.3321	3,732.42	83.4662	3,732.42	81.9909	3,732.42	81.3249	3,732.42	80.4617	3,732.42	78.5714	3,732.42	79.2721	3,732.42	75.7862	3,732.42	77.4845	3,732.42	76.833	3,732.42	76.8022	3,732.42	75.3643	3,732.42	73.4884	3,732.42	73.2366	3,732.42	72.9524	3,732.42	69.8242	3,732.42	71.0632	3,732.42	72.9955	3,732.42	59.254	3,732.42	69.0061
3,864.26	96.4062	3,864.26	96.4772	3,864.26	95.3934	3,864.26	95.189	3,864.26	94.7471	3,864.26	94.2582	3,864.26	93.1181	3,864.26	93.1135	3,864.26	91.9888	3,864.26	92.2365	3,864.26	90.2155	3,864.26	90.5835	3,864.26	88.6045	3,864.26	88.7737	3,864.26	86.2492	3,864.26	86.2216	3,864.26	83.0543	3,864.26	82.2619	3,864.26	80.688	3,864.26	81.0279	3,864.26	78.0237	3,864.26	79.531	3,864.26	76.5147	3,864.26	75.8302	3,864.26	75.2687	3,864.26	76.8158	3,864.26	74.5198	3,864.26	75.7652	3,864.26	68.6222	3,864.26	70.0379	3,864.26	72.4448	3,864.26	69.1934	3,864.26	70.4091	3,864.26	72.9274	3,864.26	57.5773	3,864.26	66.9808
4,000.49	95.4394	4,000.49	95.1543	4,000.49	94.39	4,000.49	94.1936	4,000.49	93.1658	4,000.49	93.0737	4,000.49	91.8448	4,000.49	92.611	4,000.49	91.0588	4,000.49	91.0988	4,000.49	89.8275	4,000.49	89.9077	4,000.49	88.011	4,000.49	87.1453	4,000.49	85.7783	4,000.49	85.1275	4,000.49	81.9521	4,000.49	81.5727	4,000.49	80.5867	4,000.49	79.8963	4,000.49	78.383	4,000.49	78.2775	4,000.49	74.571	4,000.49	75.7505	4,000.49	73.7984	4,000.49	75.446	4,000.49	74.7716	4,000.49	72.1978	4,000.49	71.4419	4,000.49	70.3146	4,000.49	70.4756	4,000.49	65.6543	4,000.49	68.386	4,000.49	73.436	4,000.49	61.2026	4,000.49	65.9792
4,141.11	95.345	4,141.11	95.0774	4,141.11	94.3646	4,141.11	94.0859	4,141.11	92.8428	4,141.11	92.9064	4,141.11	92.2847	4,141.11	92.4462	4,141.11	91.6262	4,141.11	90.7295	4,141.11	90.5564	4,141.11	89.572	4,141.11	87.74	4,141.11	86.5781	4,141.11	84.771	4,141.11	84.0952	4,141.11	82.2876	4,141.11	80.3366	4,141.11	78.6219	4,141.11	79.0406	4,141.11	78.7253	4,141.11	77.1194	4,141.11	75.1388	4,141.11	74.5112	4,141.11	73.3643	4,141.11	72.6548	4,141.11	74.354	4,141.11	72.4703	4,141.11	70.6308	4,141.11	70.3535	4,141.11	71.0571	4,141.11	68.9885	4,141.11	69.1364	4,141.11	71.9984	4,141.11	62.1181	4,141.11	59.4245
4,287.6	94.7791	4,287.6	94.6656	4,287.6	94.2426	4,287.6	93.7648	4,287.6	92.3074	4,287.6	92.8464	4,287.6	91.7781	4,287.6	91.9745	4,287.6	91.0507	4,287.6	90.6121	4,287.6	89.6304	4,287.6	88.9048	4,287.6	87.0118	4,287.6	86.6311	4,287.6	84.2834	4,287.6	83.3008	4,287.6	81.7804	4,287.6	80.2677	4,287.6	78.5571	4,287.6	77.2511	4,287.6	76.679	4,287.6	74.5684	4,287.6	74.848	4,287.6	72.0332	4,287.6	72.1093	4,287.6	72.1724	4,287.6	72.0305	4,287.6	72.8269	4,287.6	68.2547	4,287.6	69.1918	4,287.6	69.4534	4,287.6	70.9681	4,287.6	68.1752	4,287.6	70.9466	4,287.6	65.587	4,287.6	61.7991
4,438.48	94.8575	4,438.48	94.5147	4,438.48	94.5809	4,438.48	93.1762	4,438.48	92.603	4,438.48	92.4875	4,438.48	91.9494	4,438.48	91.3838	4,438.48	91.3092	4,438.48	90.735	4,438.48	89.5376	4,438.48	87.6421	4,438.48	86.6605	4,438.48	85.2483	4,438.48	83.4942	4,438.48	82.591	4,438.48	80.687	4,438.48	80.342	4,438.48	78.3424	4,438.48	78.3076	4,438.48	75.5957	4,438.48	75.4672	4,438.48	73.9296	4,438.48	72.7338	4,438.48	72.6604	4,438.48	72.9221	4,438.48	71.3282	4,438.48	71.2089	4,438.48	69.9947	4,438.48	65.5587	4,438.48	69.6147	4,438.48	67.8906	4,438.48	66.4489	4,438.48	71.4772	4,438.48	67.2627	4,438.48	65.2153
4,595.21	95.6038	4,595.21	94.8578	4,595.21	94.5339	4,595.21	93.7384	4,595.21	92.9468	4,595.21	92.4546	4,595.21	92.1004	4,595.21	91.387	4,595.21	91.4793	4,595.21	90.8312	4,595.21	89.2776	4,595.21	87.5407	4,595.21	86.2874	4,595.21	84.1858	4,595.21	83.1466	4,595.21	81.5685	4,595.21	80.5625	4,595.21	77.4758	4,595.21	77.4991	4,595.21	74.8133	4,595.21	75.3896	4,595.21	75.65	4,595.21	73.4641	4,595.21	71.297	4,595.21	72.205	4,595.21	69.7647	4,595.21	69.4466	4,595.21	70.949	4,595.21	68.6513	4,595.21	69.6389	4,595.21	69.5016	4,595.21	65.7898	4,595.21	64.4864	4,595.21	66.2014	4,595.21	64.2745	4,595.21	63.464
4,756.35	96.1418	4,756.35	96.0919	4,756.35	94.5622	4,756.35	94.207	4,756.35	94.1577	4,756.35	92.9833	4,756.35	93.1816	4,756.35	92.8036	4,756.35	91.9895	4,756.35	91.06	4,756.35	89.5329	4,756.35	88.5745	4,756.35	86.6699	4,756.35	85.664	4,756.35	83.2661	4,756.35	81.8646	4,756.35	79.4876	4,756.35	80.6867	4,756.35	77.4233	4,756.35	76.7701	4,756.35	75.6877	4,756.35	75.5725	4,756.35	72.8183	4,756.35	73.6988	4,756.35	74.3521	4,756.35	71.9319	4,756.35	67.3287	4,756.35	70.8004	4,756.35	70.7605	4,756.35	71.4531	4,756.35	70.6791	4,756.35	69.8253	4,756.35	68.8059	4,756.35	67.9256	4,756.35	59.7234	4,756.35	64.3388
4,924.8	96.9224	4,924.8	97.3245	4,924.8	95.6091	4,924.8	95.5041	4,924.8	94.7179	4,924.8	94.8167	4,924.8	94.0022	4,924.8	94.2608	4,924.8	92.1289	4,924.8	91.3269	4,924.8	89.0747	4,924.8	87.4397	4,924.8	86.9356	4,924.8	83.734	4,924.8	83.749	4,924.8	79.9199	4,924.8	80.0755	4,924.8	79.1813	4,924.8	78.1354	4,924.8	76.8412	4,924.8	75.8544	4,924.8	74.7387	4,924.8	75.0591	4,924.8	73.9181	4,924.8	67.8685	4,924.8	74.6318	4,924.8	72.9343	4,924.8	70.6849	4,924.8	70.7132	4,924.8	66.1796	4,924.8	70.4296	4,924.8	65.7258	4,924.8	61.9004	4,924.8	65.8274	4,924.8	59.2633	4,924.8	64.3687
5,097.66	96.9133	5,097.66	96.5962	5,097.66	96.0875	5,097.66	95.3297	5,097.66	94.4185	5,097.66	94.6406	5,097.66	93.8777	5,097.66	94.1572	5,097.66	92.3222	5,097.66	92.091	5,097.66	89.4043	5,097.66	89.3182	5,097.66	86.6002	5,097.66	85.7965	5,097.66	83.4002	5,097.66	83.1146	5,097.66	80.3416	5,097.66	79.9727	5,097.66	80.117	5,097.66	79.0567	5,097.66	75.3862	5,097.66	74.7038	5,097.66	76.1058	5,097.66	73.0018	5,097.66	72.695	5,097.66	67.0417	5,097.66	73.7716	5,097.66	70.6262	5,097.66	70.2083	5,097.66	58.1462	5,097.66	68.8287	5,097.66	66.166	5,097.66	54.7906	5,097.66	71.2485	5,097.66	66.4715	5,097.66	58.5789
5,277.83	96.9842	5,277.83	96.2941	5,277.83	95.8861	5,277.83	95.154	5,277.83	94.4139	5,277.83	93.9185	5,277.83	93.3944	5,277.83	92.3367	5,277.83	92.5661	5,277.83	90.003	5,277.83	90.3615	5,277.83	86.6877	5,277.83	86.6738	5,277.83	83.7044	5,277.83	83.5985	5,277.83	82.3754	5,277.83	81.291	5,277.83	78.8429	5,277.83	78.7523	5,277.83	77.9496	5,277.83	76.5641	5,277.83	75.0086	5,277.83	75.7587	5,277.83	75.5083	5,277.83	75.1916	5,277.83	72.3927	5,277.83	72.8848	5,277.83	72.6441	5,277.83	71.5886	5,277.83	69.6295	5,277.83	65.8261	5,277.83	65.3511	5,277.83	62.7975	5,277.83	69.5902	5,277.83	66.7074	5,277.83	61.0781
5,463.87	97.1117	5,463.87	96.6419	5,463.87	95.9125	5,463.87	94.608	5,463.87	94.8708	5,463.87	94.3708	5,463.87	94.163	5,463.87	93.5208	5,463.87	93.3625	5,463.87	91.6242	5,463.87	90.7942	5,463.87	89.5304	5,463.87	87.3363	5,463.87	86.4369	5,463.87	84.4903	5,463.87	82.6464	5,463.87	81.9751	5,463.87	80.5684	5,463.87	80.2115	5,463.87	76.0576	5,463.87	77.8953	5,463.87	77.3	5,463.87	74.9803	5,463.87	74.4361	5,463.87	74.0552	5,463.87	71.2418	5,463.87	72.8762	5,463.87	72.2296	5,463.87	74.0056	5,463.87	70.6127	5,463.87	67.1762	5,463.87	70.9698	5,463.87	67.2644	5,463.87	70.7795	5,463.87	63.5614	5,463.87	55.8522
5,657.23	96.6788	5,657.23	96.3323	5,657.23	96.1466	5,657.23	94.4531	5,657.23	95.0845	5,657.23	94.4308	5,657.23	95.0223	5,657.23	93.4118	5,657.23	92.9305	5,657.23	91.252	5,657.23	89.9778	5,657.23	88.79	5,657.23	87.5728	5,657.23	86.5999	5,657.23	84.7889	5,657.23	84.805	5,657.23	82.4844	5,657.23	83.3911	5,657.23	79.3329	5,657.23	80.4834	5,657.23	79.7163	5,657.23	79.2835	5,657.23	75.2629	5,657.23	75.8319	5,657.23	74.4218	5,657.23	76.4318	5,657.23	73.6497	5,657.23	73.2919	5,657.23	74.6453	5,657.23	72.3183	5,657.23	69.5034	5,657.23	71.8007	5,657.23	67.9702	5,657.23	70.663	5,657.23	68.8259	5,657.23	61.8555
5,856.45	96.7281	5,856.45	96.125	5,856.45	95.9846	5,856.45	95.9962	5,856.45	94.9738	5,856.45	95.0976	5,856.45	94.5307	5,856.45	94.4941	5,856.45	92.5672	5,856.45	92.1246	5,856.45	90.0467	5,856.45	88.3865	5,856.45	87.5837	5,856.45	85.1287	5,856.45	84.9866	5,856.45	83.3448	5,856.45	82.838	5,856.45	79.7816	5,856.45	79.3091	5,856.45	78.3938	5,856.45	78.889	5,856.45	74.0195	5,856.45	76.1471	5,856.45	72.7633	5,856.45	75.003	5,856.45	73.8307	5,856.45	70.9523	5,856.45	74.9312	5,856.45	72.0116	5,856.45	68.8522	5,856.45	71.6875	5,856.45	70.0427	5,856.45	67.051	5,856.45	68.6823	5,856.45	68.8292	5,856.45	61.4666
6,062.99	96.8897	6,062.99	96.3443	6,062.99	95.5372	6,062.99	96.2034	6,062.99	95.7503	6,062.99	95.6806	6,062.99	94.7755	6,062.99	93.8648	6,062.99	93.2737	6,062.99	91.6416	6,062.99	90.6716	6,062.99	88.2865	6,062.99	88.4086	6,062.99	86.4042	6,062.99	86.7331	6,062.99	85.0037	6,062.99	82.3663	6,062.99	81.8566	6,062.99	81.4541	6,062.99	80.8136	6,062.99	77.291	6,062.99	75.7082	6,062.99	75.3733	6,062.99	75.7224	6,062.99	74.8916	6,062.99	68.0192	6,062.99	75.1132	6,062.99	73.9038	6,062.99	72.655	6,062.99	72.5745	6,062.99	67.8618	6,062.99	70.0038	6,062.99	62.1817	6,062.99	67.2463	6,062.99	67.1819	6,062.99	62.8148
6,276.86	95.9967	6,276.86	95.8531	6,276.86	95.1247	6,276.86	95.2391	6,276.86	95.3812	6,276.86	95.5554	6,276.86	94.6971	6,276.86	94.0236	6,276.86	92.8249	6,276.86	91.5131	6,276.86	89.8913	6,276.86	89.0878	6,276.86	88.4531	6,276.86	87.4827	6,276.86	86.5557	6,276.86	83.76	6,276.86	81.6603	6,276.86	81.7665	6,276.86	81.5751	6,276.86	77.4047	6,276.86	77.5561	6,276.86	74.5196	6,276.86	75.6045	6,276.86	74.4616	6,276.86	75.5454	6,276.86	71.8303	6,276.86	74.9258	6,276.86	71.7413	6,276.86	73.278	6,276.86	73.541	6,276.86	68.902	6,276.86	70.7494	6,276.86	54.0722	6,276.86	62.736	6,276.86	63.8299	6,276.86	59.3599
6,498.05	96.0346	6,498.05	96.0527	6,498.05	96.5214	6,498.05	95.3293	6,498.05	95.6988	6,498.05	94.5896	6,498.05	94.8356	6,498.05	92.9106	6,498.05	92.2505	6,498.05	89.8675	6,498.05	89.5333	6,498.05	88.1199	6,498.05	87.4988	6,498.05	86.7477	6,498.05	84.6594	6,498.05	83.1593	6,498.05	82.807	6,498.05	81.5156	6,498.05	80.9919	6,498.05	76.0774	6,498.05	75.5788	6,498.05	74.645	6,498.05	75.0682	6,498.05	73.567	6,498.05	76.1628	6,498.05	72.3306	6,498.05	64.3826	6,498.05	65.553	6,498.05	70.3279	6,498.05	70.7461	6,498.05	67.4371	6,498.05	69.5282	6,498.05	62.1407	6,498.05	66.901	6,498.05	62.4887	6,498.05	62.8334
6,726.56	96.9718	6,726.56	96.7151	6,726.56	97.3381	6,726.56	96.4668	6,726.56	96.7246	6,726.56	95.2517	6,726.56	94.764	6,726.56	93.9435	6,726.56	92.9339	6,726.56	90.6845	6,726.56	90.9643	6,726.56	88.8389	6,726.56	88.6633	6,726.56	86.0994	6,726.56	85.6037	6,726.56	83.3454	6,726.56	83.7914	6,726.56	80.3155	6,726.56	79.6042	6,726.56	77.8534	6,726.56	78.1818	6,726.56	76.0411	6,726.56	75.8083	6,726.56	74.5117	6,726.56	73.3079	6,726.56	70.6755	6,726.56	68.1988	6,726.56	72.0126	6,726.56	70.4828	6,726.56	70.2197	6,726.56	71.3697	6,726.56	68.859	6,726.56	64.9617	6,726.56	68.0196	6,726.56	65.595	6,726.56	65.3303
6,963.87	96.72	6,963.87	96.2287	6,963.87	96.7937	6,963.87	96.2619	6,963.87	96.4958	6,963.87	94.9997	6,963.87	94.2923	6,963.87	92.7134	6,963.87	92.5216	6,963.87	91.1369	6,963.87	90.9451	6,963.87	89.0992	6,963.87	89.4278	6,963.87	86.5678	6,963.87	86.55	6,963.87	84.7686	6,963.87	82.873	6,963.87	79.8859	6,963.87	78.8812	6,963.87	78.7135	6,963.87	78.6173	6,963.87	76.973	6,963.87	75.2649	6,963.87	71.8194	6,963.87	69.2399	6,963.87	66.3049	6,963.87	71.1917	6,963.87	70.1372	6,963.87	72.0963	6,963.87	73.8329	6,963.87	71.2679	6,963.87	69.632	6,963.87	68.7604	6,963.87	67.8762	6,963.87	66.3805	6,963.87	63.4739
7,209.96	97.3353	7,209.96	97.271	7,209.96	97.7149	7,209.96	97.0443	7,209.96	96.5701	7,209.96	95.8225	7,209.96	95.2554	7,209.96	93.5708	7,209.96	92.6165	7,209.96	91.7072	7,209.96	91.0088	7,209.96	89.9211	7,209.96	89.4052	7,209.96	86.7069	7,209.96	85.5962	7,209.96	82.5842	7,209.96	81.4411	7,209.96	78.6262	7,209.96	78.782	7,209.96	75.7861	7,209.96	76.5514	7,209.96	75.079	7,209.96	72.8193	7,209.96	71.1695	7,209.96	73.1836	7,209.96	71.451	7,209.96	74.7067	7,209.96	70.9153	7,209.96	70.2102	7,209.96	71.6639	7,209.96	71.3967	7,209.96	68.2227	7,209.96	62.574	7,209.96	62.7961	7,209.96	65.7106	7,209.96	60.6893
7,464.84	97.2937	7,464.84	97.4444	7,464.84	97.8562	7,464.84	97.1846	7,464.84	96.99	7,464.84	95.4134	7,464.84	95.1968	7,464.84	93.0867	7,464.84	93.4628	7,464.84	91.0636	7,464.84	91.8661	7,464.84	89.8049	7,464.84	88.8797	7,464.84	86.47	7,464.84	85.4152	7,464.84	82.8523	7,464.84	80.837	7,464.84	80.4369	7,464.84	78.8435	7,464.84	76.848	7,464.84	75.083	7,464.84	74.7467	7,464.84	72.9608	7,464.84	71.4863	7,464.84	74.5345	7,464.84	70.8076	7,464.84	68.9873	7,464.84	71.7446	7,464.84	71.9028	7,464.84	71.0195	7,464.84	63.9691	7,464.84	67.8144	7,464.84	59.7105	7,464.84	59.6077	7,464.84	64.8315	7,464.84	61.9993
7,727.05	96.8795	7,727.05	97.0183	7,727.05	97.1508	7,727.05	97.0761	7,727.05	96.9988	7,727.05	95.4896	7,727.05	94.8999	7,727.05	93.523	7,727.05	93.0243	7,727.05	92.2438	7,727.05	91.6122	7,727.05	90.3059	7,727.05	88.8916	7,727.05	86.0613	7,727.05	85.6886	7,727.05	81.3583	7,727.05	80.0396	7,727.05	80.2317	7,727.05	78.9405	7,727.05	75.1363	7,727.05	74.7601	7,727.05	72.1537	7,727.05	74.6789	7,727.05	71.0158	7,727.05	71.8769	7,727.05	68.7949	7,727.05	71.3072	7,727.05	70.4328	7,727.05	69.7727	7,727.05	68.9759	7,727.05	69.6352	7,727.05	66.0686	7,727.05	65.1417	7,727.05	61.3093	7,727.05	58.7033	7,727.05	61.7302
7,999.51	96.9849	7,999.51	97.3432	7,999.51	98.0135	7,999.51	97.9384	7,999.51	97.4848	7,999.51	96.4997	7,999.51	95.7547	7,999.51	94.4245	7,999.51	93.799	7,999.51	93.0313	7,999.51	91.6116	7,999.51	89.5042	7,999.51	88.8279	7,999.51	85.0476	7,999.51	84.7404	7,999.51	82.9633	7,999.51	82.4331	7,999.51	80.6349	7,999.51	80.3068	7,999.51	77.7748	7,999.51	76.2846	7,999.51	75.8806	7,999.51	73.8973	7,999.51	74.4294	7,999.51	71.1276	7,999.51	72.6225	7,999.51	67.5243	7,999.51	67.2788	7,999.51	67.824	7,999.51	71.9132	7,999.51	70.1762	7,999.51	61.8028	7,999.51	61.4432	7,999.51	62.1571	7,999.51	69.3197	7,999.51	60.0343
8,282.23	96.7653	8,282.23	97.0958	8,282.23	98.2721	8,282.23	97.983	8,282.23	97.8427	8,282.23	96.4682	8,282.23	95.5569	8,282.23	94.4274	8,282.23	94.3662	8,282.23	93.2955	8,282.23	91.9954	8,282.23	89.5361	8,282.23	87.6999	8,282.23	86.158	8,282.23	84.5272	8,282.23	84.8646	8,282.23	82.2214	8,282.23	82.3919	8,282.23	79.7323	8,282.23	78.6325	8,282.23	78.0747	8,282.23	76.7422	8,282.23	74.052	8,282.23	73.9477	8,282.23	73.4504	8,282.23	71.6981	8,282.23	73.5877	8,282.23	70.6147	8,282.23	70.2312	8,282.23	71.6876	8,282.23	71.8747	8,282.23	66.5596	8,282.23	62.8219	8,282.23	60.2921	8,282.23	66.9334	8,282.23	63.6217
8,573.73	97.3041	8,573.73	97.6645	8,573.73	98.6747	8,573.73	98.6229	8,573.73	98.6138	8,573.73	96.6494	8,573.73	96.1162	8,573.73	95.7004	8,573.73	94.8696	8,573.73	93.192	8,573.73	92.087	8,573.73	89.7804	8,573.73	88.5808	8,573.73	87.6883	8,573.73	86.291	8,573.73	85.2469	8,573.73	84.3175	8,573.73	82.3477	8,573.73	80.9646	8,573.73	79.1022	8,573.73	78.2268	8,573.73	77.4138	8,573.73	76.4173	8,573.73	74.4974	8,573.73	72.619	8,573.73	72.9964	8,573.73	71.9091	8,573.73	70.015	8,573.73	68.6038	8,573.73	72.9469	8,573.73	70.938	8,573.73	66.3716	8,573.73	62.4188	8,573.73	63.7354	8,573.73	67.5856	8,573.73	63.7139
8,876.95	96.9075	8,876.95	97.5136	8,876.95	98.602	8,876.95	98.4889	8,876.95	98.0146	8,876.95	96.8981	8,876.95	96.1204	8,876.95	95.304	8,876.95	94.4511	8,876.95	92.6703	8,876.95	91.2128	8,876.95	90.1615	8,876.95	88.844	8,876.95	87.843	8,876.95	86.3766	8,876.95	86.1547	8,876.95	83.5736	8,876.95	82.0204	8,876.95	80.3735	8,876.95	78.6584	8,876.95	76.9123	8,876.95	76.5087	8,876.95	74.7822	8,876.95	72.9674	8,876.95	72.4816	8,876.95	71.2545	8,876.95	69.633	8,876.95	71.7656	8,876.95	66.5995	8,876.95	70.7765	8,876.95	71.2283	8,876.95	65.45	8,876.95	64.8238	8,876.95	65.0818	8,876.95	66.91	8,876.95	60.7896
9,188.96	97.3205	9,188.96	98.016	9,188.96	98.7438	9,188.96	98.6767	9,188.96	98.2941	9,188.96	96.7401	9,188.96	96.4065	9,188.96	95.2357	9,188.96	94.5857	9,188.96	92.6562	9,188.96	91.8809	9,188.96	90.3042	9,188.96	89.4001	9,188.96	87.9811	9,188.96	87.3722	9,188.96	84.0376	9,188.96	82.9873	9,188.96	81.2337	9,188.96	80.7107	9,188.96	77.5489	9,188.96	76.8277	9,188.96	75.9539	9,188.96	74.3641	9,188.96	73.678	9,188.96	72.6084	9,188.96	70.2336	9,188.96	73.3885	9,188.96	69.9256	9,188.96	69.4742	9,188.96	68.3863	9,188.96	70.629	9,188.96	61.3955	9,188.96	65.1601	9,188.96	64.3677	9,188.96	66.8052	9,188.96	63.1441
9,514.16	96.9604	9,514.16	97.7503	9,514.16	98.3488	9,514.16	98.3464	9,514.16	97.8266	9,514.16	96.5618	9,514.16	96.368	9,514.16	95.5845	9,514.16	94.138	9,514.16	92.0673	9,514.16	91.4239	9,514.16	89.8529	9,514.16	89.1555	9,514.16	87.2288	9,514.16	86.6451	9,514.16	83.7075	9,514.16	82.3342	9,514.16	79.3605	9,514.16	79.1852	9,514.16	75.6882	9,514.16	74.9008	9,514.16	73.8427	9,514.16	72.3728	9,514.16	72.0115	9,514.16	71.6153	9,514.16	71.2668	9,514.16	73.592	9,514.16	67.6491	9,514.16	67.3537	9,514.16	68.3048	9,514.16	68.9637	9,514.16	56.4125	9,514.16	64.4841	9,514.16	63.5469	9,514.16	68.3872	9,514.16	62.2681
9,849.61	96.9538	9,849.61	97.8656	9,849.61	98.4348	9,849.61	98.7348	9,849.61	98.1593	9,849.61	97.5031	9,849.61	96.8908	9,849.61	95.8539	9,849.61	93.9965	9,849.61	92.3539	9,849.61	91.4781	9,849.61	90.514	9,849.61	89.056	9,849.61	86.4649	9,849.61	85.4756	9,849.61	83.0464	9,849.61	82.1407	9,849.61	79.6795	9,849.61	78.7941	9,849.61	76.6366	9,849.61	75.4095	9,849.61	73.7091	9,849.61	71.2484	9,849.61	71.9295	9,849.61	70.8507	9,849.61	70.1318	9,849.61	70.2494	9,849.61	67.7634	9,849.61	67.2162	9,849.61	68.0537	9,849.61	66.9303	9,849.61	47.9247	9,849.61	62.8302	9,849.61	62.7609	9,849.61	66.2257	9,849.61	60.0125
10,196.8	97.0813	10,196.8	98.0693	10,196.8	98.8767	10,196.8	99.198	10,196.8	98.4375	10,196.8	97.9296	10,196.8	97.2503	10,196.8	95.8009	10,196.8	94.0706	10,196.8	92.621	10,196.8	91.3707	10,196.8	90.0969	10,196.8	88.6556	10,196.8	86.7284	10,196.8	84.4096	10,196.8	82.5301	10,196.8	80.6457	10,196.8	79.3409	10,196.8	77.4252	10,196.8	75.0986	10,196.8	74.1592	10,196.8	73.4318	10,196.8	73.4795	10,196.8	69.9083	10,196.8	71.4511	10,196.8	69.7352	10,196.8	70.3895	10,196.8	66.0064	10,196.8	67.1462	10,196.8	68.3173	10,196.8	68.1586	10,196.8	60.5008	10,196.8	67.016	10,196.8	66.6714	10,196.8	67.4063	10,196.8	62.3257
10,555.7	97.1792	10,555.7	98.2725	10,555.7	98.9966	10,555.7	99.0329	10,555.7	98.3437	10,555.7	97.8791	10,555.7	96.722	10,555.7	95.7368	10,555.7	93.5938	10,555.7	92.1984	10,555.7	91.1033	10,555.7	89.8875	10,555.7	87.6144	10,555.7	85.6052	10,555.7	83.0757	10,555.7	82.1683	10,555.7	80.7071	10,555.7	79.4127	10,555.7	77.2323	10,555.7	76.4172	10,555.7	74.2707	10,555.7	74.443	10,555.7	70.0984	10,555.7	71.9063	10,555.7	69.9602	10,555.7	67.296	10,555.7	69.7917	10,555.7	66.7071	10,555.7	66.5895	10,555.7	64.2432	10,555.7	67.802	10,555.7	60.2033	10,555.7	65.1853	10,555.7	65.457	10,555.7	66.9142	10,555.7	63.4019
10,927.7	97.5673	10,927.7	98.2707	10,927.7	98.7484	10,927.7	98.7132	10,927.7	98.0681	10,927.7	97.5138	10,927.7	96.766	10,927.7	95.2569	10,927.7	93.2869	10,927.7	91.9484	10,927.7	90.9438	10,927.7	89.2885	10,927.7	86.9479	10,927.7	85.3168	10,927.7	83.0399	10,927.7	82.6363	10,927.7	81.7054	10,927.7	79.6295	10,927.7	77.6038	10,927.7	76.1935	10,927.7	74.5125	10,927.7	73.5753	10,927.7	73.2561	10,927.7	70.2547	10,927.7	72.2003	10,927.7	63.8614	10,927.7	71.9055	10,927.7	65.1132	10,927.7	65.4509	10,927.7	63.4603	10,927.7	67.6194	10,927.7	62.1648	10,927.7	65.5234	10,927.7	66.1087	10,927.7	64.8091	10,927.7	64.261
11,313	97.5046	11,313	97.9806	11,313	98.3685	11,313	98.2455	11,313	97.7587	11,313	97.6852	11,313	96.3948	11,313	95.1859	11,313	92.9772	11,313	91.4622	11,313	90.76	11,313	89.0842	11,313	86.7127	11,313	85.0935	11,313	83.3683	11,313	82.8945	11,313	81.7116	11,313	78.5338	11,313	77.4333	11,313	76.7666	11,313	75.8918	11,313	72.9123	11,313	72.0159	11,313	67.6764	11,313	70.4355	11,313	62.0355	11,313	66.9352	11,313	64.854	11,313	62.18	11,313	60.2278	11,313	66.1454	11,313	60.1953	11,313	64.1601	11,313	67.4057	11,313	66.179	11,313	61.5352
11,712.9	97.9785	11,712.9	98.3783	11,712.9	98.3946	11,712.9	98.413	11,712.9	98.3034	11,712.9	97.6684	11,712.9	96.6202	11,712.9	94.9117	11,712.9	93.0501	11,712.9	91.6589	11,712.9	90.0379	11,712.9	88.4264	11,712.9	86.5413	11,712.9	85.5331	11,712.9	83.4452	11,712.9	81.8566	11,712.9	80.9964	11,712.9	78.7631	11,712.9	76.808	11,712.9	75.8915	11,712.9	74.5249	11,712.9	70.3336	11,712.9	71.5455	11,712.9	67.9147	11,712.9	69.0246	11,712.9	63.3585	11,712.9	68.3867	11,712.9	65.2778	11,712.9	65.4249	11,712.9	57.1226	11,712.9	68.4506	11,712.9	57.8275	11,712.9	64.511	11,712.9	66.2898	11,712.9	63.4043	11,712.9	55.7295
12,126	97.7194	12,126	98.1043	12,126	98.192	12,126	98.2271	12,126	98.0673	12,126	97.6771	12,126	96.2861	12,126	94.9588	12,126	92.9089	12,126	90.8612	12,126	89.567	12,126	87.5972	12,126	86.4534	12,126	85.5245	12,126	83.6188	12,126	80.6425	12,126	80.5478	12,126	78.286	12,126	76.0077	12,126	74.0337	12,126	72.2231	12,126	71.5444	12,126	70.3802	12,126	67.7258	12,126	68.0114	12,126	62.8229	12,126	69.8381	12,126	59.2195	12,126	60.8929	12,126	56.9638	12,126	62.7058	12,126	52.4938	12,126	64.5874	12,126	64.889	12,126	63.8144	12,126	60.4113
12,553.7	97.5659	12,553.7	97.6703	12,553.7	97.7018	12,553.7	98.2843	12,553.7	98.0487	12,553.7	97.5595	12,553.7	95.7719	12,553.7	94.8034	12,553.7	92.5846	12,553.7	90.5633	12,553.7	88.7218	12,553.7	88.1237	12,553.7	85.501	12,553.7	84.2155	12,553.7	81.0571	12,553.7	79.8603	12,553.7	78.4378	12,553.7	76.584	12,553.7	73.8661	12,553.7	74.1571	12,553.7	72.6185	12,553.7	70.279	12,553.7	68.7009	12,553.7	64.8646	12,553.7	65.2865	12,553.7	59.1072	12,553.7	62.9262	12,553.7	60.5584	12,553.7	63.65	12,553.7	56.5238	12,553.7	66.3623	12,553.7	59.1222	12,553.7	60.0388	12,553.7	64.3715	12,553.7	63.7218	12,553.7	55.4519
12,996.1	97.1969	12,996.1	97.0222	12,996.1	96.747	12,996.1	97.44	12,996.1	97.266	12,996.1	96.9229	12,996.1	94.8952	12,996.1	94.5519	12,996.1	91.9222	12,996.1	90.0679	12,996.1	87.7383	12,996.1	86.8453	12,996.1	85.1375	12,996.1	83.303	12,996.1	79.7121	12,996.1	79.2186	12,996.1	76.2161	12,996.1	75.7813	12,996.1	73.2869	12,996.1	73.9965	12,996.1	70.8056	12,996.1	68.5268	12,996.1	67.3992	12,996.1	64.3483	12,996.1	62.7601	12,996.1	63.295	12,996.1	65.5899	12,996.1	54.8138	12,996.1	60.8611	12,996.1	51.8504	12,996.1	64.5363	12,996.1	59.2116	12,996.1	62.1736	12,996.1	63.1249	12,996.1	61.7236	12,996.1	54.6482
13,454.6	96.5926	13,454.6	95.8564	13,454.6	95.5216	13,454.6	96.4632	13,454.6	96.6196	13,454.6	95.9286	13,454.6	94.6302	13,454.6	94.1754	13,454.6	91.3942	13,454.6	88.7729	13,454.6	87.6842	13,454.6	86.6489	13,454.6	84.0643	13,454.6	81.9958	13,454.6	79.3008	13,454.6	77.7741	13,454.6	76.4372	13,454.6	77.4641	13,454.6	74.2362	13,454.6	73.3515	13,454.6	70.3017	13,454.6	69.7728	13,454.6	67.9496	13,454.6	65.7224	13,454.6	65.1104	13,454.6	62.2899	13,454.6	67.4996	13,454.6	56.9416	13,454.6	61.9473	13,454.6	54.8207	13,454.6	64.7858	13,454.6	56.8391	13,454.6	51.6147	13,454.6	60.0753	13,454.6	63.2363	13,454.6	52.0733
13,929.2	95.7641	13,929.2	94.8289	13,929.2	94.8601	13,929.2	95.8186	13,929.2	96.1519	13,929.2	95.2146	13,929.2	94.4993	13,929.2	93.6231	13,929.2	90.709	13,929.2	88.4482	13,929.2	87.6283	13,929.2	86.0668	13,929.2	83.3154	13,929.2	82.2126	13,929.2	80.0221	13,929.2	79.6774	13,929.2	76.6573	13,929.2	76.7795	13,929.2	74.4041	13,929.2	73.019	13,929.2	71.4754	13,929.2	69.5558	13,929.2	67.4779	13,929.2	64.6248	13,929.2	62.7955	13,929.2	63.4078	13,929.2	64.0611	13,929.2	57.2339	13,929.2	61.5094	13,929.2	47.8064	13,929.2	63.887	13,929.2	53.9525	13,929.2	55.7347	13,929.2	58.4877	13,929.2	63.5852	13,929.2	52.2211
14,419.9	95.6111	14,419.9	94.8119	14,419.9	94.7955	14,419.9	95.7079	14,419.9	95.7136	14,419.9	94.9824	14,419.9	94.6607	14,419.9	93.4654	14,419.9	90.4857	14,419.9	88.1532	14,419.9	87.163	14,419.9	85.4393	14,419.9	83.3915	14,419.9	82.7288	14,419.9	80.6949	14,419.9	79.6514	14,419.9	76.7831	14,419.9	76.4314	14,419.9	74.3183	14,419.9	72.7174	14,419.9	71.185	14,419.9	67.0455	14,419.9	67.6216	14,419.9	63.0757	14,419.9	62.2378	14,419.9	60.824	14,419.9	61.8718	14,419.9	54.18	14,419.9	61.1377	14,419.9	53.3618	14,419.9	62.6191	14,419.9	50.4693	14,419.9	62.7753	14,419.9	59.0958	14,419.9	62.3969	14,419.9	49.2153
14,928.2	95.9688	14,928.2	95.0178	14,928.2	94.8038	14,928.2	94.9978	14,928.2	94.5908	14,928.2	94.3595	14,928.2	94.069	14,928.2	92.5612	14,928.2	89.9902	14,928.2	87.8996	14,928.2	86.4505	14,928.2	84.4006	14,928.2	82.8583	14,928.2	81.9997	14,928.2	79.7429	14,928.2	77.9196	14,928.2	75.2848	14,928.2	74.3156	14,928.2	72.2843	14,928.2	69.3665	14,928.2	69.5842	14,928.2	64.9342	14,928.2	64.1406	14,928.2	62.782	14,928.2	54.6906	14,928.2	58.3833	14,928.2	61.4161	14,928.2	54.6766	14,928.2	56.4913	14,928.2	52.7085	14,928.2	60.3872	14,928.2	56.2556	14,928.2	62.1445	14,928.2	54.8898	14,928.2	57.0083	14,928.2	47.9486
15,455.6	95.9549	15,455.6	95.1582	15,455.6	94.3264	15,455.6	93.9649	15,455.6	93.1209	15,455.6	93.1591	15,455.6	92.6536	15,455.6	91.0185	15,455.6	88.4772	15,455.6	86.3241	15,455.6	84.2908	15,455.6	82.6631	15,455.6	80.7427	15,455.6	80.0966	15,455.6	77.1116	15,455.6	74.6861	15,455.6	71.626	15,455.6	71.5617	15,455.6	70.2329	15,455.6	68.233	15,455.6	64.9354	15,455.6	64.3689	15,455.6	62.0513	15,455.6	61.1308	15,455.6	55.9143	15,455.6	57.077	15,455.6	59.6327	15,455.6	46.4888	15,455.6	55.501	15,455.6	50.1661	15,455.6	57.2936	15,455.6	51.5352	15,455.6	61.2133	15,455.6	47.7817	15,455.6	57.7982	15,455.6	48.8146
16,000.5	95.6468	16,000.5	95.0666	16,000.5	94.3242	16,000.5	92.7485	16,000.5	91.4134	16,000.5	91.0139	16,000.5	89.6365	16,000.5	88.3445	16,000.5	85.5468	16,000.5	83.2065	16,000.5	80.7661	16,000.5	79.9689	16,000.5	77.1722	16,000.5	75.8329	16,000.5	71.2693	16,000.5	72.7375	16,000.5	67.3718	16,000.5	69.2651	16,000.5	67.4754	16,000.5	66.4301	16,000.5	62.6277	16,000.5	60.7867	16,000.5	58.6546	16,000.5	57.6093	16,000.5	43.4558	16,000.5	57.1744	16,000.5	52.7921	16,000.5	40.2846	16,000.5	53.0973	16,000.5	40.4186	16,000.5	54.5273	16,000.5	51.5284	16,000.5	60.5997	16,000.5	31.5303	16,000.5	49.1718	16,000.5	46.2663
16,564.5	96.2759	16,564.5	95.6463	16,564.5	94.9507	16,564.5	92.9261	16,564.5	91.2817	16,564.5	89.5183	16,564.5	87.3258	16,564.5	85.5623	16,564.5	82.2945	16,564.5	78.2758	16,564.5	76.1872	16,564.5	73.8412	16,564.5	70.3682	16,564.5	70.5035	16,564.5	67.6213	16,564.5	68.2303	16,564.5	61.9299	16,564.5	64.2766	16,564.5	62.5348	16,564.5	59.1406	16,564.5	58.158	16,564.5	55.7809	16,564.5	50.1071	16,564.5	53.8111	16,564.5	46.8599	16,564.5	57.4481	16,564.5	50.8083	16,564.5	40.4041	16,564.5	47.8717	16,564.5	37.1971	16,564.5	52.4639	16,564.5	41.7389	16,564.5	56.2102	16,564.5	49.8393	16,564.5	53.038	16,564.5	24.6409
17,148.9	97.7841	17,148.9	97.1201	17,148.9	96.1547	17,148.9	94.4207	17,148.9	92.5174	17,148.9	90.6166	17,148.9	88.1926	17,148.9	85.9878	17,148.9	81.836	17,148.9	76.9614	17,148.9	75.2985	17,148.9	72.0873	17,148.9	69.5742	17,148.9	67.8447	17,148.9	67.4918	17,148.9	65.8292	17,148.9	60.787	17,148.9	58.5117	17,148.9	60.5367	17,148.9	56.219	17,148.9	45.4211	17,148.9	55.3302	17,148.9	50.124	17,148.9	56.6357	17,148.9	45.005	17,148.9	55.2701	17,148.9	50.9264	17,148.9	46.5848	17,148.9	47.2379	17,148.9	28.119	17,148.9	48.5435	17,148.9	44.9341	17,148.9	52.1887	17,148.9	52.646	17,148.9	54.6198	17,148.9	46.3516
17,752.4	97.7552	17,752.4	97.3124	17,752.4	96.2242	17,752.4	94.7444	17,752.4	92.5423	17,752.4	90.8618	17,752.4	87.978	17,752.4	86.2898	17,752.4	81.258	17,752.4	77.4778	17,752.4	74.4954	17,752.4	70.4994	17,752.4	66.8908	17,752.4	66.2359	17,752.4	65.9333	17,752.4	63.3612	17,752.4	57.8764	17,752.4	60.4616	17,752.4	55.3273	17,752.4	52.432	17,752.4	42.8984	17,752.4	58.488	17,752.4	42.7192	17,752.4	55.5806	17,752.4	32.827	17,752.4	54.7921	17,752.4	51.756	17,752.4	38.2496	17,752.4	48.8641	17,752.4	33.4912	17,752.4	52.3555	17,752.4	42.4784	17,752.4	50.6004	17,752.4	50.7746	17,752.4	54.9972	17,752.4	48.1325
18,379.4	97.3092	18,379.4	96.6959	18,379.4	95.9488	18,379.4	94.2035	18,379.4	92.1794	18,379.4	90.1743	18,379.4	87.1359	18,379.4	85.4711	18,379.4	79.7493	18,379.4	76.2409	18,379.4	72.35	18,379.4	67.7446	18,379.4	62.2509	18,379.4	61.871	18,379.4	62.1513	18,379.4	60.1149	18,379.4	53.7477	18,379.4	55.8118	18,379.4	46.9169	18,379.4	51.1218	18,379.4	45.5024	18,379.4	56.4023	18,379.4	41.2979	18,379.4	53.9914	18,379.4	30.1059	18,379.4	52.9523	18,379.4	48.7463	18,379.4	39.1622	18,379.4	46.3208	18,379.4	35.1204	18,379.4	49.5011	18,379.4	47.278	18,379.4	46.2232	18,379.4	47.3651	18,379.4	56.0037	18,379.4	44.1683
19,026.9	96.2332	19,026.9	95.7734	19,026.9	95.1297	19,026.9	93.3226	19,026.9	91.2266	19,026.9	89.0322	19,026.9	85.7243	19,026.9	83.7101	19,026.9	77.5952	19,026.9	73.2586	19,026.9	69.3574	19,026.9	62.118	19,026.9	58.4516	19,026.9	53.732	19,026.9	58.4974	19,026.9	51.4995	19,026.9	48.2447	19,026.9	48.9505	19,026.9	47.3734	19,026.9	45.3284	19,026.9	47.4893	19,026.9	53.9236	19,026.9	34.7654	19,026.9	50.0332	19,026.9	37.9367	19,026.9	48.0289	19,026.9	52.4808	19,026.9	43.6879	19,026.9	40.9675	19,026.9	33.2904	19,026.9	44.0872	19,026.9	46.5554	19,026.9	45.8384	19,026.9	46.4118	19,026.9	54.1881	19,026.9	39.118
19,697.8	94.9311	19,697.8	94.587	19,697.8	93.9674	19,697.8	92.2944	19,697.8	89.669	19,697.8	87.619	19,697.8	83.191	19,697.8	81.8885	19,697.8	73.3168	19,697.8	69.0096	19,697.8	68.7644	19,697.8	51.9086	19,697.8	63.2386	19,697.8	48.8509	19,697.8	62.2496	19,697.8	53.3369	19,697.8	56.8004	19,697.8	48.4921	19,697.8	55.2924	19,697.8	52.9583	19,697.8	55.1243	19,697.8	51.8985	19,697.8	47.0599	19,697.8	47.7833	19,697.8	46.2597	19,697.8	50.442	19,697.8	55.5523	19,697.8	46.2324	19,697.8	41.6446	19,697.8	43.0886	19,697.8	37.3944	19,697.8	52.5008	19,697.8	42.6179	19,697.8	49.8533	19,697.8	57.9633	19,697.8	34.9603
19,999.5	94.3252	19,999.5	93.9075	19,999.5	93.1189	19,999.5	92.0752	19,999.5	88.8577	19,999.5	87.0416	19,999.5	82.1221	19,999.5	80.499	19,999.5	69.7721	19,999.5	68.1442	19,999.5	68.7101	19,999.5	57.8201	19,999.5	63.9524	19,999.5	56.6251	19,999.5	64.1815	19,999.5	49.0778	19,999.5	60.2924	19,999.5	55.765	19,999.5	61.1056	19,999.5	58.1443	19,999.5	52.2084	19,999.5	58.352	19,999.5	55.2054	19,999.5	55.4388	19,999.5	58.2884	19,999.5	48.0121	19,999.5	56.9493	19,999.5	51.4861	19,999.5	55.384	19,999.5	35.2316	19,999.5	53.1803	19,999.5	54.0953	19,999.5	52.0623	19,999.5	56.2307	19,999.5	63.1178	19,999.5	45.6595
