"SPL Vertical"
"On-Axis"		"10°"		"-10°"		"20°"		"-20°"		"30°"		"-30°"		"40°"		"-40°"		"50°"		"-50°"		"60°"		"-60°"		"70°"		"-70°"		"80°"		"-80°"		"90°"		"-90°"		"100°"		"-100°"		"110°"		"-110°"		"120°"		"-120°"		"130°"		"-130°"		"140°"		"-140°"		"150°"		"-150°"		"160°"		"-160°"		"170°"		"-170°"		"180°"
"Frequency / Hz"	"Sound Pressure Level / dB (re 20 µPa/V)  [2.83  V @ 1. m]"	"Frequency / Hz"	"Sound Pressure Level / dB (re 20 µPa/V)  [2.83  V @ 1. m]"	"Frequency / Hz"	"Sound Pressure Level / dB (re 20 µPa/V)  [2.83  V @ 1. m]"	"Frequency / Hz"	"Sound Pressure Level / dB (re 20 µPa/V)  [2.83  V @ 1. m]"	"Frequency / Hz"	"Sound Pressure Level / dB (re 20 µPa/V)  [2.83  V @ 1. m]"	"Frequency / Hz"	"Sound Pressure Level / dB (re 20 µPa/V)  [2.83  V @ 1. m]"	"Frequency / Hz"	"Sound Pressure Level / dB (re 20 µPa/V)  [2.83  V @ 1. m]"	"Frequency / Hz"	"Sound Pressure Level / dB (re 20 µPa/V)  [2.83  V @ 1. m]"	"Frequency / Hz"	"Sound Pressure Level / dB (re 20 µPa/V)  [2.83  V @ 1. m]"	"Frequency / Hz"	"Sound Pressure Level / dB (re 20 µPa/V)  [2.83  V @ 1. m]"	"Frequency / Hz"	"Sound Pressure Level / dB (re 20 µPa/V)  [2.83  V @ 1. m]"	"Frequency / Hz"	"Sound Pressure Level / dB (re 20 µPa/V)  [2.83  V @ 1. m]"	"Frequency / Hz"	"Sound Pressure Level / dB (re 20 µPa/V)  [2.83  V @ 1. m]"	"Frequency / Hz"	"Sound Pressure Level / dB (re 20 µPa/V)  [2.83  V @ 1. m]"	"Frequency / Hz"	"Sound Pressure Level / dB (re 20 µPa/V)  [2.83  V @ 1. m]"	"Frequency / Hz"	"Sound Pressure Level / dB (re 20 µPa/V)  [2.83  V @ 1. m]"	"Frequency / Hz"	"Sound Pressure Level / dB (re 20 µPa/V)  [2.83  V @ 1. m]"	"Frequency / Hz"	"Sound Pressure Level / dB (re 20 µPa/V)  [2.83  V @ 1. m]"	"Frequency / Hz"	"Sound Pressure Level / dB (re 20 µPa/V)  [2.83  V @ 1. m]"	"Frequency / Hz"	"Sound Pressure Level / dB (re 20 µPa/V)  [2.83  V @ 1. m]"	"Frequency / Hz"	"Sound Pressure Level / dB (re 20 µPa/V)  [2.83  V @ 1. m]"	"Frequency / Hz"	"Sound Pressure Level / dB (re 20 µPa/V)  [2.83  V @ 1. m]"	"Frequency / Hz"	"Sound Pressure Level / dB (re 20 µPa/V)  [2.83  V @ 1. m]"	"Frequency / Hz"	"Sound Pressure Level / dB (re 20 µPa/V)  [2.83  V @ 1. m]"	"Frequency / Hz"	"Sound Pressure Level / dB (re 20 µPa/V)  [2.83  V @ 1. m]"	"Frequency / Hz"	"Sound Pressure Level / dB (re 20 µPa/V)  [2.83  V @ 1. m]"	"Frequency / Hz"	"Sound Pressure Level / dB (re 20 µPa/V)  [2.83  V @ 1. m]"	"Frequency / Hz"	"Sound Pressure Level / dB (re 20 µPa/V)  [2.83  V @ 1. m]"	"Frequency / Hz"	"Sound Pressure Level / dB (re 20 µPa/V)  [2.83  V @ 1. m]"	"Frequency / Hz"	"Sound Pressure Level / dB (re 20 µPa/V)  [2.83  V @ 1. m]"	"Frequency / Hz"	"Sound Pressure Level / dB (re 20 µPa/V)  [2.83  V @ 1. m]"	"Frequency / Hz"	"Sound Pressure Level / dB (re 20 µPa/V)  [2.83  V @ 1. m]"	"Frequency / Hz"	"Sound Pressure Level / dB (re 20 µPa/V)  [2.83  V @ 1. m]"	"Frequency / Hz"	"Sound Pressure Level / dB (re 20 µPa/V)  [2.83  V @ 1. m]"	"Frequency / Hz"	"Sound Pressure Level / dB (re 20 µPa/V)  [2.83  V @ 1. m]"	"Frequency / Hz"	"Sound Pressure Level / dB (re 20 µPa/V)  [2.83  V @ 1. m]"
20.5078	73.8493	20.5078	73.9097	20.5078	73.8087	20.5078	73.9885	20.5078	73.7889	20.5078	74.0844	20.5078	73.791	20.5078	74.1955	20.5078	73.8153	20.5078	74.3202	20.5078	73.8619	20.5078	74.4559	20.5078	73.9304	20.5078	74.5999	20.5078	74.0197	20.5078	74.7487	20.5078	74.1283	20.5078	74.8981	20.5078	74.254	20.5078	75.0435	20.5078	74.3939	20.5078	75.18	20.5078	74.5448	20.5078	75.3024	20.5078	74.7023	20.5078	75.4053	20.5078	74.8619	20.5078	75.4838	20.5078	75.0178	20.5078	75.5335	20.5078	75.1642	20.5078	75.5511	20.5078	75.2948	20.5078	75.5348	20.5078	75.4034	20.5078	75.4848
21.9727	76.7384	21.9727	76.8021	21.9727	76.6981	21.9727	76.8879	21.9727	76.6821	21.9727	76.9938	21.9727	76.691	21.9727	77.1176	21.9727	76.7247	21.9727	77.2566	21.9727	76.7829	21.9727	77.4075	21.9727	76.8644	21.9727	77.5666	21.9727	76.9679	21.9727	77.7298	21.9727	77.0912	21.9727	77.8924	21.9727	77.2316	21.9727	78.0496	21.9727	77.3857	21.9727	78.1961	21.9727	77.5497	21.9727	78.3267	21.9727	77.7188	21.9727	78.4362	21.9727	77.8878	21.9727	78.5195	21.9727	78.0511	21.9727	78.5727	21.9727	78.2026	21.9727	78.5925	21.9727	78.3364	21.9727	78.5776	21.9727	78.4466	21.9727	78.5282
23.4375	78.4415	23.4375	78.4914	23.4375	78.4127	23.4375	78.5614	23.4375	78.406	23.4375	78.65	23.4375	78.4218	23.4375	78.7555	23.4375	78.46	23.4375	78.8762	23.4375	78.5202	23.4375	79.0097	23.4375	78.6015	23.4375	79.1533	23.4375	78.7024	23.4375	79.304	23.4375	78.8209	23.4375	79.4576	23.4375	78.9546	23.4375	79.6097	23.4375	79.1001	23.4375	79.7548	23.4375	79.2538	23.4375	79.8871	23.4375	79.4113	23.4375	80.001	23.4375	79.5676	23.4375	80.0908	23.4375	79.7173	23.4375	80.152	23.4375	79.8549	23.4375	80.1814	23.4375	79.9746	23.4375	80.1772	23.4375	80.0711	23.4375	80.1398
24.9023	81.0193	24.9023	81.064	24.9023	80.9972	24.9023	81.1303	24.9023	80.998	24.9023	81.2172	24.9023	81.0217	24.9023	81.3232	24.9023	81.0683	24.9023	81.4465	24.9023	81.1369	24.9023	81.5847	24.9023	81.2265	24.9023	81.735	24.9023	81.3356	24.9023	81.8937	24.9023	81.4619	24.9023	82.0565	24.9023	81.603	24.9023	82.2184	24.9023	81.7554	24.9023	82.3735	24.9023	81.9153	24.9023	82.5159	24.9023	82.0781	24.9023	82.6394	24.9023	82.2387	24.9023	82.7381	24.9023	82.3915	24.9023	82.8074	24.9023	82.5308	24.9023	82.8436	24.9023	82.6507	24.9023	82.8451	24.9023	82.746	24.9023	82.8119
26.3672	83.8124	26.3672	83.8603	26.3672	83.7871	26.3672	83.9301	26.3672	83.785	26.3672	84.0204	26.3672	83.8062	26.3672	84.1296	26.3672	83.8504	26.3672	84.2556	26.3672	83.9171	26.3672	84.3959	26.3672	84.005	26.3672	84.5472	26.3672	84.1125	26.3672	84.7057	26.3672	84.2375	26.3672	84.8669	26.3672	84.3772	26.3672	85.0258	26.3672	84.5283	26.3672	85.1768	26.3672	84.6868	26.3672	85.314	26.3672	84.8482	26.3672	85.4317	26.3672	85.0074	26.3672	85.5245	26.3672	85.1591	26.3672	85.5881	26.3672	85.2976	26.3672	85.6194	26.3672	85.4174	26.3672	85.6169	26.3672	85.5133	26.3672	85.5809
27.832	86.4549	27.832	86.5004	27.832	86.433	27.832	86.5687	27.832	86.4349	27.832	86.6586	27.832	86.4608	27.832	86.7685	27.832	86.5101	27.832	86.8962	27.832	86.582	27.832	87.0391	27.832	86.6751	27.832	87.1939	27.832	86.7877	27.832	87.3564	27.832	86.9175	27.832	87.522	27.832	87.0615	27.832	87.6854	27.832	87.2163	27.832	87.8408	27.832	87.3778	27.832	87.9821	27.832	87.5414	27.832	88.1035	27.832	87.702	27.832	88.1998	27.832	87.854	27.832	88.2666	27.832	87.9919	27.832	88.301	27.832	88.1101	27.832	88.3017	27.832	88.2038	27.832	88.2687
29.2969	88.7837	29.2969	88.8341	29.2969	88.7565	29.2969	88.9069	29.2969	88.753	29.2969	89.0009	29.2969	88.7731	29.2969	89.1143	29.2969	88.8166	29.2969	89.245	29.2969	88.8826	29.2969	89.39	29.2969	88.97	29.2969	89.5459	29.2969	89.0773	29.2969	89.7085	29.2969	89.2021	29.2969	89.873	29.2969	89.342	29.2969	90.034	29.2969	89.4935	29.2969	90.1856	29.2969	89.6528	29.2969	90.3221	29.2969	89.8154	29.2969	90.4375	29.2969	89.9762	29.2969	90.5269	29.2969	90.1299	29.2969	90.5862	29.2969	90.2709	29.2969	90.6127	29.2969	90.3937	29.2969	90.6054	29.2969	90.4931	29.2969	90.5648
30.7617	89.932	30.7617	89.9806	30.7617	89.9073	30.7617	90.0524	30.7617	89.9069	30.7617	90.1461	30.7617	89.9308	30.7617	90.26	30.7617	89.9787	30.7617	90.3919	30.7617	90.0497	30.7617	90.539	30.7617	90.1426	30.7617	90.6977	30.7617	90.2557	30.7617	90.864	30.7617	90.3867	30.7617	91.0331	30.7617	90.5328	30.7617	91.1996	30.7617	90.6907	30.7617	91.3576	30.7617	90.8564	30.7617	91.5013	30.7617	91.0251	30.7617	91.6246	30.7617	91.1915	30.7617	91.7223	30.7617	91.35	30.7617	91.7897	30.7617	91.4944	30.7617	91.8238	30.7617	91.6188	30.7617	91.8229	30.7617	91.7179	30.7617	91.787
32.2266	90.1265	32.2266	90.1769	32.2266	90.0989	32.2266	90.2493	32.2266	90.0945	32.2266	90.3426	32.2266	90.1132	32.2266	90.4552	32.2266	90.1547	32.2266	90.5847	32.2266	90.2185	32.2266	90.7286	32.2266	90.3034	32.2266	90.8835	32.2266	90.4083	32.2266	91.0454	32.2266	90.5312	32.2266	91.2098	32.2266	90.6697	32.2266	91.3715	32.2266	90.8207	32.2266	91.5246	32.2266	90.9807	32.2266	91.6633	32.2266	91.145	32.2266	91.7814	32.2266	91.3086	32.2266	91.8736	32.2266	91.4659	32.2266	91.9353	32.2266	91.611	32.2266	91.9634	32.2266	91.7377	32.2266	91.9564	32.2266	91.8406	32.2266	91.9147
33.6914	90.1019	33.6914	90.1559	33.6914	90.0705	33.6914	90.2317	33.6914	90.0625	33.6914	90.3278	33.6914	90.0781	33.6914	90.4427	33.6914	90.1174	33.6914	90.5742	33.6914	90.18	33.6914	90.72	33.6914	90.2651	33.6914	90.8767	33.6914	90.3715	33.6914	91.0407	33.6914	90.497	33.6914	91.2073	33.6914	90.6394	33.6914	91.3715	33.6914	90.7952	33.6914	91.5274	33.6914	90.9606	33.6914	91.669	33.6914	91.1309	33.6914	91.7901	33.6914	91.3006	33.6914	91.8849	33.6914	91.4638	33.6914	91.9487	33.6914	91.6143	33.6914	91.9781	33.6914	91.7457	33.6914	91.9713	33.6914	91.8522	33.6914	91.9287
35.1562	90.2851	35.1562	90.3342	35.1562	90.2585	35.1562	90.405	35.1562	90.255	35.1562	90.4965	35.1562	90.2745	35.1562	90.6072	35.1562	90.3171	35.1562	90.7351	35.1562	90.3823	35.1562	90.8779	35.1562	90.4691	35.1562	91.0323	35.1562	90.5762	35.1562	91.1947	35.1562	90.7018	35.1562	91.3605	35.1562	90.8434	35.1562	91.5246	35.1562	90.9978	35.1562	91.6812	35.1562	91.1612	35.1562	91.8243	35.1562	91.3289	35.1562	91.9475	35.1562	91.4957	35.1562	92.0452	35.1562	91.6556	35.1562	92.1124	35.1562	91.8024	35.1562	92.1455	35.1562	91.9299	35.1562	92.1429	35.1562	92.0322	35.1562	92.1044
36.6211	90.7484	36.6211	90.7998	36.6211	90.7199	36.6211	90.8733	36.6211	90.7147	36.6211	90.9676	36.6211	90.7332	36.6211	91.0813	36.6211	90.7752	36.6211	91.2124	36.6211	90.8402	36.6211	91.3582	36.6211	90.9274	36.6211	91.5157	36.6211	91.0354	36.6211	91.681	36.6211	91.1623	36.6211	91.8494	36.6211	91.3056	36.6211	92.0157	36.6211	91.4621	36.6211	92.1741	36.6211	91.6279	36.6211	92.3182	36.6211	91.7984	36.6211	92.4419	36.6211	91.968	36.6211	92.5393	36.6211	92.131	36.6211	92.6057	36.6211	92.2809	36.6211	92.6374	36.6211	92.4115	36.6211	92.6327	36.6211	92.5168	36.6211	92.5918
38.0859	91.628	38.0859	91.6797	38.0859	91.5989	38.0859	91.7529	38.0859	91.5928	38.0859	91.8464	38.0859	91.61	38.0859	91.9588	38.0859	91.6505	38.0859	92.088	38.0859	91.7138	38.0859	92.2317	38.0859	91.7992	38.0859	92.3867	38.0859	91.9054	38.0859	92.5494	38.0859	92.0304	38.0859	92.7152	38.0859	92.1718	38.0859	92.879	38.0859	92.3265	38.0859	93.035	38.0859	92.4905	38.0859	93.177	38.0859	92.6591	38.0859	93.2988	38.0859	92.8272	38.0859	93.3948	38.0859	92.9886	38.0859	93.4601	38.0859	93.1373	38.0859	93.4911	38.0859	93.2667	38.0859	93.4862	38.0859	93.3712	38.0859	93.4456
39.5508	92.7386	39.5508	92.7896	39.5508	92.7102	39.5508	92.8625	39.5508	92.7051	39.5508	92.9562	39.5508	92.7234	39.5508	93.069	39.5508	92.765	39.5508	93.199	39.5508	92.8295	39.5508	93.3437	39.5508	92.916	39.5508	93.4999	39.5508	93.0233	39.5508	93.6638	39.5508	93.1494	39.5508	93.8308	39.5508	93.2919	39.5508	93.9957	39.5508	93.4475	39.5508	94.1526	39.5508	93.6124	39.5508	94.2955	39.5508	93.7819	39.5508	94.4183	39.5508	93.9506	39.5508	94.5151	39.5508	94.1125	39.5508	94.5812	39.5508	94.2614	39.5508	94.6131	39.5508	94.3908	39.5508	94.609	39.5508	94.4951	39.5508	94.569
41.0156	94.1473	41.0156	94.1968	41.0156	94.1209	41.0156	94.2686	41.0156	94.1178	41.0156	94.3616	41.0156	94.1383	41.0156	94.4745	41.0156	94.1822	41.0156	94.6052	41.0156	94.249	41.0156	94.7513	41.0156	94.3379	41.0156	94.9094	41.0156	94.4474	41.0156	95.0756	41.0156	94.5758	41.0156	95.2453	41.0156	94.7205	41.0156	95.4131	41.0156	94.8783	41.0156	95.5734	41.0156	95.0454	41.0156	95.7199	41.0156	95.217	41.0156	95.8463	41.0156	95.3877	41.0156	95.9468	41.0156	95.5513	41.0156	96.0162	41.0156	95.7016	41.0156	96.0509	41.0156	95.8321	41.0156	96.049	41.0156	95.9367	41.0156	96.0102
42.4805	95.3971	42.4805	95.4503	42.4805	95.3666	42.4805	95.5254	42.4805	95.3593	42.4805	95.6211	42.4805	95.3756	42.4805	95.7358	42.4805	95.4152	42.4805	95.8674	42.4805	95.4778	42.4805	96.0134	42.4805	95.5626	42.4805	96.1705	42.4805	95.6684	42.4805	96.335	42.4805	95.7934	42.4805	96.5023	42.4805	95.9351	42.4805	96.6674	42.4805	96.0905	42.4805	96.8243	42.4805	96.2558	42.4805	96.9671	42.4805	96.4263	42.4805	97.0895	42.4805	96.5966	42.4805	97.1855	42.4805	96.7609	42.4805	97.2503	42.4805	96.9126	42.4805	97.2802	42.4805	97.0454	42.4805	97.2736	42.4805	97.1531	42.4805	97.2304
43.9453	96.4472	43.9453	96.4989	43.9453	96.4177	43.9453	96.5718	43.9453	96.411	43.9453	96.6649	43.9453	96.4274	43.9453	96.7766	43.9453	96.4668	43.9453	96.9048	43.9453	96.5289	43.9453	97.0472	43.9453	96.613	43.9453	97.2007	43.9453	96.7178	43.9453	97.3616	43.9453	96.8415	43.9453	97.5257	43.9453	96.9818	43.9453	97.6881	43.9453	97.1356	43.9453	97.843	43.9453	97.2991	43.9453	97.9844	43.9453	97.4675	43.9453	98.1063	43.9453	97.6357	43.9453	98.2027	43.9453	97.7975	43.9453	98.2687	43.9453	97.9466	43.9453	98.3005	43.9453	98.0766	43.9453	98.2962	43.9453	98.1814	43.9453	98.2558
45.4102	97.042	45.4102	97.0928	45.4102	97.0129	45.4102	97.1643	45.4102	97.0059	45.4102	97.2553	45.4102	97.0215	45.4102	97.3645	45.4102	97.0596	45.4102	97.4899	45.4102	97.1201	45.4102	97.6292	45.4102	97.2021	45.4102	97.7795	45.4102	97.3046	45.4102	97.9374	45.4102	97.4259	45.4102	98.0986	45.4102	97.5637	45.4102	98.2584	45.4102	97.715	45.4102	98.4111	45.4102	97.876	45.4102	98.5508	45.4102	98.0421	45.4102	98.6714	45.4102	98.2081	45.4102	98.767	45.4102	98.3679	45.4102	98.8326	45.4102	98.5152	45.4102	98.8644	45.4102	98.6437	45.4102	98.8604	45.4102	98.7472	45.4102	98.8207
46.875	97.2198	46.875	97.2703	46.875	97.1909	46.875	97.3414	46.875	97.1842	46.875	97.4321	46.875	97.2001	46.875	97.5408	46.875	97.2386	46.875	97.6657	46.875	97.2995	46.875	97.8045	46.875	97.382	46.875	97.9544	46.875	97.485	46.875	98.1119	46.875	97.6067	46.875	98.2729	46.875	97.745	46.875	98.4326	46.875	97.8966	46.875	98.5854	46.875	98.0578	46.875	98.7254	46.875	98.2241	46.875	98.8465	46.875	98.39	46.875	98.9427	46.875	98.5496	46.875	99.0091	46.875	98.6965	46.875	99.0417	46.875	98.8244	46.875	99.0387	46.875	98.9272	46.875	98.9999
48.3398	97.0724	48.3398	97.1226	48.3398	97.0434	48.3398	97.1931	48.3398	97.0363	48.3398	97.2827	48.3398	97.0513	48.3398	97.3901	48.3398	97.0887	48.3398	97.5133	48.3398	97.1482	48.3398	97.6502	48.3398	97.2291	48.3398	97.7981	48.3398	97.3304	48.3398	97.9536	48.3398	97.4505	48.3398	98.1125	48.3398	97.587	48.3398	98.2703	48.3398	97.7369	48.3398	98.4214	48.3398	97.8966	48.3398	98.5599	48.3398	98.0614	48.3398	98.6798	48.3398	98.226	48.3398	98.7752	48.3398	98.3844	48.3398	98.8409	48.3398	98.5303	48.3398	98.8733	48.3398	98.6574	48.3398	98.8703	48.3398	98.7595	48.3398	98.8317
51.2695	96.4772	51.2695	96.5271	51.2695	96.4477	51.2695	96.5967	51.2695	96.4394	51.2695	96.6846	51.2695	96.4527	51.2695	96.7895	51.2695	96.4876	51.2695	96.9095	51.2695	96.5441	51.2695	97.0425	51.2695	96.6215	51.2695	97.1856	51.2695	96.7188	51.2695	97.3358	51.2695	96.8344	51.2695	97.4891	51.2695	96.9662	51.2695	97.641	51.2695	97.1113	51.2695	97.7864	51.2695	97.2661	51.2695	97.9196	51.2695	97.4261	51.2695	98.0348	51.2695	97.5862	51.2695	98.1264	51.2695	97.7406	51.2695	98.1893	51.2695	97.883	51.2695	98.22	51.2695	98.0071	51.2695	98.2163	51.2695	98.1071	51.2695	98.178
52.7344	96.2719	52.7344	96.3231	52.7344	96.2407	52.7344	96.3932	52.7344	96.23	52.7344	96.481	52.7344	96.2405	52.7344	96.5851	52.7344	96.2723	52.7344	96.7036	52.7344	96.3252	52.7344	96.8344	52.7344	96.3989	52.7344	96.9748	52.7344	96.4923	52.7344	97.1217	52.7344	96.604	52.7344	97.2714	52.7344	96.732	52.7344	97.4196	52.7344	96.8736	52.7344	97.5612	52.7344	97.0253	52.7344	97.6907	52.7344	97.1827	52.7344	97.8023	52.7344	97.3407	52.7344	97.8906	52.7344	97.4937	52.7344	97.9506	52.7344	97.6354	52.7344	97.9785	52.7344	97.7596	52.7344	97.9725	52.7344	97.8603	52.7344	97.9325
54.1992	96.1239	54.1992	96.1765	54.1992	96.0904	54.1992	96.2472	54.1992	96.0769	54.1992	96.3348	54.1992	96.0838	54.1992	96.4378	54.1992	96.1115	54.1992	96.5545	54.1992	96.16	54.1992	96.6826	54.1992	96.2291	54.1992	96.8198	54.1992	96.318	54.1992	96.963	54.1992	96.4254	54.1992	97.1085	54.1992	96.5494	54.1992	97.2522	54.1992	96.6874	54.1992	97.3892	54.1992	96.836	54.1992	97.5141	54.1992	96.9909	54.1992	97.6215	54.1992	97.147	54.1992	97.7059	54.1992	97.2987	54.1992	97.7625	54.1992	97.4397	54.1992	97.7877	54.1992	97.5637	54.1992	97.7796	54.1992	97.6648	54.1992	97.7379
55.6641	96.0332	55.6641	96.0859	55.6641	95.9995	55.6641	96.1564	55.6641	95.9854	55.6641	96.2434	55.6641	95.9918	55.6641	96.3455	55.6641	96.0188	55.6641	96.4607	55.6641	96.0666	55.6641	96.5871	55.6641	96.1349	55.6641	96.7222	55.6641	96.2229	55.6641	96.8629	55.6641	96.3294	55.6641	97.0059	55.6641	96.4524	55.6641	97.1472	55.6641	96.5893	55.6641	97.282	55.6641	96.7367	55.6641	97.4051	55.6641	96.8903	55.6641	97.5111	55.6641	97.0451	55.6641	97.5947	55.6641	97.1953	55.6641	97.6511	55.6641	97.3348	55.6641	97.6766	55.6641	97.4573	55.6641	97.6692	55.6641	97.5569	55.6641	97.6287
58.5938	96.0725	58.5938	96.1244	58.5938	96.0387	58.5938	96.1932	58.5938	96.0236	58.5938	96.2777	58.5938	96.028	58.5938	96.3763	58.5938	96.0522	58.5938	96.4874	58.5938	96.0965	58.5938	96.6088	58.5938	96.1605	58.5938	96.7382	58.5938	96.2436	58.5938	96.8728	58.5938	96.3446	58.5938	97.0093	58.5938	96.4619	58.5938	97.1439	58.5938	96.5929	58.5938	97.2723	58.5938	96.7344	58.5938	97.3896	58.5938	96.8822	58.5938	97.4905	58.5938	97.0316	58.5938	97.5699	58.5938	97.1769	58.5938	97.6232	58.5938	97.312	58.5938	97.6468	58.5938	97.4311	58.5938	97.6386	58.5938	97.5281	58.5938	97.5985
60.0586	96.1431	60.0586	96.1952	60.0586	96.1083	60.0586	96.2636	60.0586	96.0917	60.0586	96.3471	60.0586	96.094	60.0586	96.4441	60.0586	96.1158	60.0586	96.5528	60.0586	96.1571	60.0586	96.6714	60.0586	96.2178	60.0586	96.7975	60.0586	96.2973	60.0586	96.9285	60.0586	96.3946	60.0586	97.0612	60.0586	96.5081	60.0586	97.192	60.0586	96.6354	60.0586	97.3166	60.0586	96.7732	60.0586	97.4302	60.0586	96.9178	60.0586	97.5278	60.0586	97.0642	60.0586	97.6042	60.0586	97.207	60.0586	97.6549	60.0586	97.3404	60.0586	97.6763	60.0586	97.4583	60.0586	97.6666	60.0586	97.5549	60.0586	97.6255
62.9883	96.3195	62.9883	96.372	62.9883	96.2834	62.9883	96.4397	62.9883	96.2645	62.9883	96.5213	62.9883	96.2636	62.9883	96.6154	62.9883	96.2812	62.9883	96.7203	62.9883	96.3175	62.9883	96.8342	62.9883	96.3727	62.9883	96.9547	62.9883	96.4462	62.9883	97.0795	62.9883	96.5372	62.9883	97.2056	62.9883	96.6442	62.9883	97.3296	62.9883	96.7653	62.9883	97.4476	62.9883	96.8974	62.9883	97.555	62.9883	97.0367	62.9883	97.647	62.9883	97.1787	62.9883	97.7186	62.9883	97.318	62.9883	97.7656	62.9883	97.4486	62.9883	97.7843	62.9883	97.5647	62.9883	97.7728	62.9883	97.6604	62.9883	97.7309
64.4531	96.4075	64.4531	96.4597	64.4531	96.371	64.4531	96.5266	64.4531	96.3511	64.4531	96.6068	64.4531	96.3487	64.4531	96.6989	64.4531	96.3642	64.4531	96.8013	64.4531	96.398	64.4531	96.912	64.4531	96.4501	64.4531	97.029	64.4531	96.5202	64.4531	97.1498	64.4531	96.6075	64.4531	97.2716	64.4531	96.7107	64.4531	97.3912	64.4531	96.8279	64.4531	97.5049	64.4531	96.9561	64.4531	97.6082	64.4531	97.0918	64.4531	97.6966	64.4531	97.2305	64.4531	97.7654	64.4531	97.3668	64.4531	97.8101	64.4531	97.495	64.4531	97.8273	64.4531	97.6091	64.4531	97.8151	64.4531	97.7034	64.4531	97.7733
67.3828	96.549	67.3828	96.5984	67.3828	96.5144	67.3828	96.6616	67.3828	96.4954	67.3828	96.7372	67.3828	96.4926	67.3828	96.824	67.3828	96.5067	67.3828	96.9203	67.3828	96.5378	67.3828	97.0244	67.3828	96.5862	67.3828	97.1342	67.3828	96.6514	67.3828	97.2475	67.3828	96.7331	67.3828	97.3617	67.3828	96.8299	67.3828	97.4738	67.3828	96.9402	67.3828	97.5805	67.3828	97.0613	67.3828	97.6777	67.3828	97.1899	67.3828	97.7611	67.3828	97.3215	67.3828	97.8264	67.3828	97.451	67.3828	97.8693	67.3828	97.573	67.3828	97.8864	67.3828	97.6813	67.3828	97.8756	67.3828	97.7707	67.3828	97.8366
68.8477	96.6177	68.8477	96.6662	68.8477	96.5834	68.8477	96.7279	68.8477	96.5642	68.8477	96.8017	68.8477	96.5608	68.8477	96.8861	68.8477	96.5737	68.8477	96.9795	68.8477	96.6032	68.8477	97.08	68.8477	96.6493	68.8477	97.1858	68.8477	96.712	68.8477	97.2944	68.8477	96.7905	68.8477	97.4035	68.8477	96.8838	68.8477	97.5103	68.8477	96.9902	68.8477	97.6115	68.8477	97.1071	68.8477	97.7035	68.8477	97.2311	68.8477	97.7823	68.8477	97.3579	68.8477	97.8438	68.8477	97.4827	68.8477	97.8842	68.8477	97.5998	68.8477	97.9001	68.8477	97.7038	68.8477	97.8896	68.8477	97.7893	68.8477	97.8523
71.7773	96.7843	71.7773	96.8314	71.7773	96.7498	71.7773	96.8901	71.7773	96.7286	71.7773	96.9593	71.7773	96.7215	71.7773	97.0376	71.7773	96.7288	71.7773	97.1234	71.7773	96.7511	71.7773	97.2151	71.7773	96.7884	71.7773	97.3107	71.7773	96.8407	71.7773	97.4083	71.7773	96.9077	71.7773	97.5054	71.7773	96.9885	71.7773	97.5998	71.7773	97.0818	71.7773	97.6885	71.7773	97.1854	71.7773	97.7684	71.7773	97.2966	71.7773	97.8361	71.7773	97.4116	71.7773	97.8877	71.7773	97.5259	71.7773	97.9198	71.7773	97.6346	71.7773	97.9296	71.7773	97.7324	71.7773	97.9151	71.7773	97.8143	71.7773	97.8762
74.707	96.9101	74.707	96.9617	74.707	96.8697	74.707	97.0232	74.707	96.841	74.707	97.0935	74.707	96.8249	74.707	97.1711	74.707	96.8219	74.707	97.2543	74.707	96.8324	74.707	97.3412	74.707	96.8567	74.707	97.4298	74.707	96.895	74.707	97.5178	74.707	96.9473	74.707	97.6032	74.707	97.0132	74.707	97.6835	74.707	97.0918	74.707	97.7565	74.707	97.1816	74.707	97.8195	74.707	97.2804	74.707	97.8697	74.707	97.3851	74.707	97.9044	74.707	97.4917	74.707	97.9206	74.707	97.5957	74.707	97.9164	74.707	97.692	74.707	97.8905	74.707	97.7758	74.707	97.843
77.6367	96.9428	77.6367	96.9978	77.6367	96.8974	77.6367	97.0613	77.6367	96.8626	77.6367	97.1322	77.6367	96.8389	77.6367	97.2086	77.6367	96.8269	77.6367	97.2887	77.6367	96.827	77.6367	97.3704	77.6367	96.8397	77.6367	97.4514	77.6367	96.8652	77.6367	97.5297	77.6367	96.9037	77.6367	97.603	77.6367	96.9553	77.6367	97.6693	77.6367	97.0196	77.6367	97.7266	77.6367	97.0956	77.6367	97.773	77.6367	97.1817	77.6367	97.8065	77.6367	97.2753	77.6367	97.825	77.6367	97.3732	77.6367	97.8266	77.6367	97.4711	77.6367	97.8098	77.6367	97.5645	77.6367	97.7739	77.6367	97.6487	77.6367	97.7195
79.1016	96.9321	79.1016	96.9873	79.1016	96.886	79.1016	97.0504	79.1016	96.8497	79.1016	97.1202	79.1016	96.8238	79.1016	97.1948	79.1016	96.8088	79.1016	97.2725	79.1016	96.8052	79.1016	97.351	79.1016	96.8133	79.1016	97.428	79.1016	96.8335	79.1016	97.5013	79.1016	96.8662	79.1016	97.5689	79.1016	96.9114	79.1016	97.6288	79.1016	96.9691	79.1016	97.6792	79.1016	97.0384	79.1016	97.7186	79.1016	97.1181	79.1016	97.7451	79.1016	97.206	79.1016	97.7571	79.1016	97.2988	79.1016	97.7531	79.1016	97.3927	79.1016	97.7319	79.1016	97.4833	79.1016	97.693	79.1016	97.5661	79.1016	97.6371
82.0312	96.8832	82.0312	96.9396	82.0312	96.8345	82.0312	97.0027	82.0312	96.7943	82.0312	97.0711	82.0312	96.7631	82.0312	97.1431	82.0312	96.7412	82.0312	97.2167	82.0312	96.7291	82.0312	97.2894	82.0312	96.7271	82.0312	97.359	82.0312	96.7358	82.0312	97.423	82.0312	96.7555	82.0312	97.4791	82.0312	96.7868	82.0312	97.5257	82.0312	96.8299	82.0312	97.5612	82.0312	96.8845	82.0312	97.5844	82.0312	96.9501	82.0312	97.5946	82.0312	97.0249	82.0312	97.5908	82.0312	97.1065	82.0312	97.5724	82.0312	97.1918	82.0312	97.5392	82.0312	97.2769	82.0312	97.4914	82.0312	97.3576	82.0312	97.4301
84.9609	96.7928	84.9609	96.8509	84.9609	96.741	84.9609	96.9141	84.9609	96.696	84.9609	96.9812	84.9609	96.6585	84.9609	97.0503	84.9609	96.6287	84.9609	97.1191	84.9609	96.6071	84.9609	97.1852	84.9609	96.5939	84.9609	97.2461	84.9609	96.5899	84.9609	97.2992	84.9609	96.5956	84.9609	97.3424	84.9609	96.6119	84.9609	97.3739	84.9609	96.6393	84.9609	97.3928	84.9609	96.6782	84.9609	97.3985	84.9609	96.7285	84.9609	97.3908	84.9609	96.7893	84.9609	97.37	84.9609	96.859	84.9609	97.3364	84.9609	96.9349	84.9609	97.2905	84.9609	97.0139	84.9609	97.2333	84.9609	97.0922	84.9609	97.1664
87.8906	96.6755	87.8906	96.734	87.8906	96.6221	87.8906	96.7966	87.8906	96.5746	87.8906	96.8617	87.8906	96.5332	87.8906	96.9274	87.8906	96.4982	87.8906	96.9912	87.8906	96.4697	87.8906	97.0503	87.8906	96.4479	87.8906	97.1019	87.8906	96.4333	87.8906	97.1433	87.8906	96.4263	87.8906	97.1722	87.8906	96.4278	87.8906	97.1871	87.8906	96.4387	87.8906	97.1875	87.8906	96.4599	87.8906	97.1735	87.8906	96.4918	87.8906	97.146	87.8906	96.5345	87.8906	97.1065	87.8906	96.5875	87.8906	97.0565	87.8906	96.6491	87.8906	96.9978	87.8906	96.7173	87.8906	96.9321	87.8906	96.7892	87.8906	96.8617
90.8203	96.5763	90.8203	96.6353	90.8203	96.5198	90.8203	96.6959	90.8203	96.4665	90.8203	96.7564	90.8203	96.4167	90.8203	96.815	90.8203	96.3705	90.8203	96.8689	90.8203	96.328	90.8203	96.9156	90.8203	96.2895	90.8203	96.9519	90.8203	96.2555	90.8203	96.9754	90.8203	96.2267	90.8203	96.9837	90.8203	96.2043	90.8203	96.9757	90.8203	96.1898	90.8203	96.9512	90.8203	96.185	90.8203	96.911	90.8203	96.1914	90.8203	96.8572	90.8203	96.2102	90.8203	96.7924	90.8203	96.2422	90.8203	96.7195	90.8203	96.2872	90.8203	96.6418	90.8203	96.3439	90.8203	96.5623	90.8203	96.4104	90.8203	96.4842
95.2148	96.3056	95.2148	96.3664	95.2148	96.2456	95.2148	96.4269	95.2148	96.1868	95.2148	96.4858	95.2148	96.1292	95.2148	96.541	95.2148	96.0728	95.2148	96.5898	95.2148	96.0177	95.2148	96.6291	95.2148	95.9638	95.2148	96.6554	95.2148	95.9117	95.2148	96.6655	95.2148	95.8621	95.2148	96.6569	95.2148	95.8165	95.2148	96.6278	95.2148	95.7767	95.2148	96.5782	95.2148	95.7451	95.2148	96.5097	95.2148	95.7244	95.2148	96.4253	95.2148	95.7172	95.2148	96.3294	95.2148	95.7259	95.2148	96.2272	95.2148	95.7521	95.2148	96.1241	95.2148	95.7964	95.2148	96.0253	95.2148	95.858	95.2148	95.9353
98.1445	96.1834	98.1445	96.2505	98.1445	96.1148	98.1445	96.3152	98.1445	96.0455	98.1445	96.3755	98.1445	95.9755	98.1445	96.4291	98.1445	95.9049	98.1445	96.4729	98.1445	95.8335	98.1445	96.5034	98.1445	95.7615	98.1445	96.5171	98.1445	95.6892	98.1445	96.5105	98.1445	95.6175	98.1445	96.4809	98.1445	95.5479	98.1445	96.4272	98.1445	95.4828	98.1445	96.3495	98.1445	95.4252	98.1445	96.2502	98.1445	95.3787	98.1445	96.1337	98.1445	95.3474	98.1445	96.0058	98.1445	95.3351	98.1445	95.8736	98.1445	95.3451	98.1445	95.7444	98.1445	95.3795	98.1445	95.625	98.1445	95.4388	98.1445	95.5216
101.074	96.006	101.074	96.0783	101.074	95.9308	101.074	96.1464	101.074	95.8534	101.074	96.2086	101.074	95.7741	101.074	96.2623	101.074	95.6929	101.074	96.3044	101.074	95.6097	101.074	96.3313	101.074	95.5247	101.074	96.3392	101.074	95.4381	101.074	96.3244	101.074	95.351	101.074	96.284	101.074	95.2651	101.074	96.2165	101.074	95.1828	101.074	96.1219	101.074	95.1079	101.074	96.0031	101.074	95.0446	101.074	95.8647	101.074	94.998	101.074	95.7139	101.074	94.973	101.074	95.559	101.074	94.9741	101.074	95.4088	101.074	95.0044	101.074	95.2719	101.074	95.0652	101.074	95.1555
105.469	95.8258	105.469	95.921	105.469	95.7243	105.469	96.0082	105.469	95.6175	105.469	96.0848	105.469	95.5063	105.469	96.1478	105.469	95.3909	105.469	96.1935	105.469	95.2716	105.469	96.2176	105.469	95.1487	105.469	96.2154	105.469	95.0227	105.469	96.1825	105.469	94.8947	105.469	96.1153	105.469	94.7669	105.469	96.0118	105.469	94.6425	105.469	95.872	105.469	94.5262	105.469	95.6992	105.469	94.424	105.469	95.4997	105.469	94.3431	105.469	95.2832	105.469	94.2913	105.469	95.0614	105.469	94.2762	105.469	94.8479	105.469	94.3037	105.469	94.6555	105.469	94.377	105.469	94.4957
108.398	96.009	108.398	96.1125	108.398	95.8972	108.398	96.206	108.398	95.7784	108.398	96.2868	108.398	95.6528	108.398	96.3514	108.398	95.5206	108.398	96.3955	108.398	95.3816	108.398	96.4142	108.398	95.2358	108.398	96.4024	108.398	95.0837	108.398	96.3552	108.398	94.9268	108.398	96.2686	108.398	94.7676	108.398	96.1406	108.398	94.6105	108.398	95.9713	108.398	94.4612	108.398	95.7644	108.398	94.3277	108.398	95.5273	108.398	94.2189	108.398	95.271	108.398	94.1449	108.398	95.0095	108.398	94.1152	108.398	94.7586	108.398	94.1373	108.398	94.5341	108.398	94.2156	108.398	94.3496
112.793	96.1267	112.793	96.224	112.793	96.0157	112.793	96.3057	112.793	95.8923	112.793	96.3696	112.793	95.7575	112.793	96.4127	112.793	95.6119	112.793	96.4316	112.793	95.4559	112.793	96.4224	112.793	95.2903	112.793	96.381	112.793	95.1162	112.793	96.3036	112.793	94.9353	112.793	96.187	112.793	94.7507	112.793	96.0294	112.793	94.5666	112.793	95.8316	112.793	94.3891	112.793	95.5977	112.793	94.2261	112.793	95.3355	112.793	94.0872	112.793	95.0569	112.793	93.9832	112.793	94.7774	112.793	93.9251	112.793	94.5142	112.793	93.9224	112.793	94.2847	112.793	93.9815	112.793	94.1037
117.188	96.0906	117.188	96.1941	117.188	95.9709	117.188	96.2794	117.188	95.8363	117.188	96.3443	117.188	95.6878	117.188	96.3857	117.188	95.526	117.188	96.4	117.188	95.3514	117.188	96.3829	117.188	95.1646	117.188	96.3297	117.188	94.9665	117.188	96.2357	117.188	94.7586	117.188	96.0968	117.188	94.5437	117.188	95.9108	117.188	94.3263	117.188	95.6781	117.188	94.1129	117.188	95.4032	117.188	93.9124	117.188	95.0955	117.188	93.7363	117.188	94.7691	117.188	93.598	117.188	94.4427	117.188	93.5116	117.188	94.1374	117.188	93.4901	117.188	93.8746	117.188	93.5426	117.188	93.6723
120.117	96.1502	120.117	96.2565	120.117	96.0265	120.117	96.3435	120.117	95.8862	120.117	96.4088	120.117	95.7301	120.117	96.4494	120.117	95.5585	120.117	96.4611	120.117	95.3714	120.117	96.4392	120.117	95.1691	120.117	96.3783	120.117	94.9522	120.117	96.2731	120.117	94.7225	120.117	96.1191	120.117	94.4828	120.117	95.9135	120.117	94.238	120.117	95.6568	120.117	93.9956	120.117	95.3536	120.117	93.7657	120.117	95.014	120.117	93.5613	120.117	94.6536	120.117	93.398	120.117	94.2931	120.117	93.2922	120.117	93.9564	120.117	93.259	120.117	93.6675	120.117	93.3094	120.117	93.4472
124.512	96.1724	124.512	96.2738	124.512	96.0503	124.512	96.3531	124.512	95.9087	124.512	96.4082	124.512	95.7482	124.512	96.4362	124.512	95.5691	124.512	96.4338	124.512	95.3719	124.512	96.3967	124.512	95.1568	124.512	96.3203	124.512	94.9249	124.512	96.1996	124.512	94.6778	124.512	96.0301	124.512	94.4189	124.512	95.809	124.512	94.1531	124.512	95.5364	124.512	93.8884	124.512	95.2165	124.512	93.6354	124.512	94.8594	124.512	93.408	124.512	94.4812	124.512	93.223	124.512	94.1035	124.512	93.0981	124.512	93.7519	124.512	93.0502	124.512	93.4525	124.512	93.0918	124.512	93.2275
128.906	96.1507	128.906	96.2535	128.906	96.0261	128.906	96.3329	128.906	95.8808	128.906	96.3867	128.906	95.7156	128.906	96.4125	128.906	95.5312	128.906	96.4068	128.906	95.328	128.906	96.3658	128.906	95.1067	128.906	96.2847	128.906	94.8683	128.906	96.1588	128.906	94.6149	128.906	95.9837	128.906	94.3499	128.906	95.7566	128.906	94.0785	128.906	95.4778	128.906	93.8088	128.906	95.1517	128.906	93.5518	128.906	94.7885	128.906	93.3214	128.906	94.4048	128.906	93.1345	128.906	94.0225	128.906	93.0086	128.906	93.6674	128.906	92.9606	128.906	93.3655	128.906	93.0024	128.906	93.1391
133.301	96.142	133.301	96.2452	133.301	96.0147	133.301	96.3226	133.301	95.8646	133.301	96.3721	133.301	95.6928	133.301	96.3911	133.301	95.5002	133.301	96.3764	133.301	95.2876	133.301	96.3243	133.301	95.056	133.301	96.2303	133.301	94.8065	133.301	96.09	133.301	94.5415	133.301	95.8995	133.301	94.2646	133.301	95.6562	133.301	93.9811	133.301	95.3609	133.301	93.6993	133.301	95.0187	133.301	93.4304	133.301	94.6406	133.301	93.1885	133.301	94.2441	133.301	92.9905	133.301	93.852	133.301	92.8545	133.301	93.4911	133.301	92.7973	133.301	93.1875	133.301	92.8317	133.301	92.9631
139.16	96.1601	139.16	96.2651	139.16	96.0262	139.16	96.339	139.16	95.8652	139.16	96.3795	139.16	95.6791	139.16	96.3842	139.16	95.4695	139.16	96.3506	139.16	95.238	139.16	96.2756	139.16	94.9864	139.16	96.1562	139.16	94.7168	139.16	95.989	139.16	94.432	139.16	95.7712	139.16	94.1363	139.16	95.5019	139.16	93.8358	139.16	95.1827	139.16	93.5392	139.16	94.8201	139.16	93.2581	139.16	94.4262	139.16	93.0066	139.16	94.0193	139.16	92.8014	139.16	93.623	139.16	92.6595	139.16	93.2633	139.16	92.5966	139.16	92.9652	139.16	92.6244	139.16	92.7482
143.555	96.1675	143.555	96.273	143.555	96.0298	143.555	96.3439	143.555	95.8622	143.555	96.3781	143.555	95.6671	143.555	96.3732	143.555	95.4468	143.555	96.3271	143.555	95.2038	143.555	96.2373	143.555	94.9405	143.555	96.1012	143.555	94.6597	143.555	95.9161	143.555	94.3648	143.555	95.6802	143.555	94.0605	143.555	95.3933	143.555	93.7532	143.555	95.0584	143.555	93.4517	143.555	94.683	143.555	93.1672	143.555	94.2804	143.555	92.9136	143.555	93.8701	143.555	92.7067	143.555	93.4759	143.555	92.5624	143.555	93.1234	143.555	92.4952	143.555	92.8356	143.555	92.5158	143.555	92.6299
147.949	96.2093	147.949	96.3182	147.949	96.0649	147.949	96.3887	147.949	95.8881	147.949	96.4184	147.949	95.6819	147.949	96.4047	147.949	95.4495	147.949	96.3456	147.949	95.1942	147.949	96.2388	147.949	94.919	147.949	96.0822	147.949	94.6275	147.949	95.8739	147.949	94.3234	147.949	95.613	147.949	94.0118	147.949	95.3008	147.949	93.699	147.949	94.9421	147.949	93.3937	147.949	94.5466	147.949	93.1069	147.949	94.13	147.949	92.8515	147.949	93.7137	147.949	92.6422	147.949	93.3226	147.949	92.4933	147.949	92.9812	147.949	92.4179	147.949	92.7102	147.949	92.4258	147.949	92.523
153.809	96.2948	153.809	96.4162	153.809	96.1347	153.809	96.4962	153.809	95.9395	153.809	96.532	153.809	95.7127	153.809	96.5212	153.809	95.4585	153.809	96.4615	153.809	95.1809	153.809	96.3503	153.809	94.8845	153.809	96.1853	153.809	94.5738	153.809	95.964	153.809	94.254	153.809	95.6853	153.809	93.9309	153.809	95.3504	153.809	93.6114	153.809	94.9646	153.809	93.3041	153.809	94.5394	153.809	93.0191	153.809	94.0931	153.809	92.7681	153.809	93.6509	153.809	92.5635	153.809	93.2409	153.809	92.4175	153.809	92.89	153.809	92.3414	153.809	92.618	153.809	92.345	153.809	92.4358
159.668	96.3911	159.668	96.5112	159.668	96.23	159.668	96.5876	159.668	96.0312	159.668	96.6181	159.668	95.7987	159.668	96.601	159.668	95.5368	159.668	96.5348	159.668	95.2502	159.668	96.4182	159.668	94.944	159.668	96.2498	159.668	94.624	159.668	96.0284	159.668	94.2965	159.668	95.7535	159.668	93.9687	159.668	95.4268	159.668	93.6491	159.668	95.0537	159.668	93.3476	159.668	94.6451	159.668	93.0752	159.668	94.2188	159.668	92.8434	159.668	93.7978	159.668	92.6634	159.668	93.408	159.668	92.5447	159.668	93.0725	159.668	92.4949	159.668	92.8082	159.668	92.5197	159.668	92.6234
165.527	96.55	165.527	96.6774	165.527	96.3812	165.527	96.7602	165.527	96.1753	165.527	96.7963	165.527	95.9371	165.527	96.7843	165.527	95.6723	165.527	96.7235	165.527	95.3868	165.527	96.6134	165.527	95.0868	165.527	96.4531	165.527	94.7787	165.527	96.2417	165.527	94.4687	165.527	95.9785	165.527	94.1638	165.527	95.6644	165.527	93.8716	165.527	95.3039	165.527	93.6005	165.527	94.9078	165.527	93.3599	165.527	94.494	165.527	93.1591	165.527	94.0872	165.527	93.0064	165.527	93.7143	165.527	92.9085	165.527	93.399	165.527	92.8701	165.527	93.1556	165.527	92.8952	165.527	92.9886
171.387	96.5962	171.387	96.7188	171.387	96.4283	171.387	96.7928	171.387	96.2199	171.387	96.8166	171.387	95.9771	171.387	96.79	171.387	95.7071	171.387	96.7137	171.387	95.4178	171.387	96.5894	171.387	95.1174	171.387	96.4186	171.387	94.8139	171.387	96.2026	171.387	94.5147	171.387	95.9427	171.387	94.2268	171.387	95.641	171.387	93.9565	171.387	95.302	171.387	93.7105	171.387	94.9351	171.387	93.4954	171.387	94.5557	171.387	93.318	171.387	94.1848	171.387	93.1848	171.387	93.846	171.387	93.101	171.387	93.5595	171.387	93.0704	171.387	93.3377	171.387	93.0968	171.387	93.1844
177.246	96.5089	177.246	96.625	177.246	96.3467	177.246	96.6916	177.246	96.1445	177.246	96.7079	177.246	95.9104	177.246	96.6751	177.246	95.6545	177.246	96.5969	177.246	95.3878	177.246	96.4775	177.246	95.1208	177.246	96.3214	177.246	94.8629	177.246	96.132	177.246	94.6207	177.246	95.911	177.246	94.3976	177.246	95.659	177.246	94.195	177.246	95.3771	177.246	94.0127	177.246	95.0702	177.246	93.8512	177.246	94.7486	177.246	93.7126	177.246	94.4296	177.246	93.6012	177.246	94.1344	177.246	93.5231	177.246	93.8834	177.246	93.4855	177.246	93.691	177.246	93.4961	177.246	93.5625
183.105	95.9051	183.105	96.0237	183.105	95.7217	183.105	96.075	183.105	95.4805	183.105	96.0599	183.105	95.1929	183.105	95.9835	183.105	94.8756	183.105	95.8547	183.105	94.5501	183.105	95.6858	183.105	94.2419	183.105	95.4922	183.105	93.9768	183.105	95.2901	183.105	93.7758	183.105	95.0941	183.105	93.6503	183.105	94.9145	183.105	93.5984	183.105	94.7554	183.105	93.6069	183.105	94.6158	183.105	93.6564	183.105	94.4921	183.105	93.7267	183.105	94.3811	183.105	93.8021	183.105	94.2819	183.105	93.8733	183.105	94.1948	183.105	93.9373	183.105	94.12	183.105	93.9963	183.105	94.0552
188.965	95.4646	188.965	95.5808	188.965	95.2692	188.965	95.6168	188.965	94.9979	188.965	95.5736	188.965	94.6568	188.965	95.4537	188.965	94.2565	188.965	95.262	188.965	93.8141	188.965	95.0069	188.965	93.3548	188.965	94.7012	188.965	92.9132	188.965	94.3638	188.965	92.5309	188.965	94.0205	188.965	92.2492	188.965	93.7015	188.965	92.097	188.965	93.4367	188.965	92.0799	188.965	93.2478	188.965	92.1778	188.965	93.1408	188.965	92.3525	188.965	93.1044	188.965	92.561	188.965	93.1141	188.965	92.7651	188.965	93.1398	188.965	92.9372	188.965	93.153	188.965	93.0611	188.965	93.1315
196.289	95.8652	196.289	95.9889	196.289	95.6639	196.289	96.0339	196.289	95.3874	196.289	95.9998	196.289	95.0396	196.289	95.8869	196.289	94.6265	196.289	95.6969	196.289	94.1582	196.289	95.4328	196.289	93.65	196.289	95.1002	196.289	93.1246	196.289	94.7089	196.289	92.6135	196.289	94.2753	196.289	92.1567	196.289	93.8243	196.289	91.7969	196.289	93.3898	196.289	91.5691	196.289	93.0103	196.289	91.4876	196.289	92.7193	196.289	91.5383	196.289	92.5313	196.289	91.6831	196.289	92.4343	196.289	91.8727	196.289	92.3939	196.289	92.0605	196.289	92.3663	196.289	92.2128	196.289	92.3136
203.613	96.1557	203.613	96.2789	203.613	95.9536	203.613	96.3222	203.613	95.6748	203.613	96.2852	203.613	95.3231	203.613	96.1684	203.613	94.9043	203.613	95.9733	203.613	94.4274	203.613	95.7024	203.613	93.9059	203.613	95.3603	203.613	93.3601	203.613	94.9549	203.613	92.8184	203.613	94.5005	203.613	92.318	203.613	94.0203	203.613	91.9023	203.613	93.548	203.613	91.6118	203.613	93.1253	203.613	91.4707	203.613	92.7911	203.613	91.4759	203.613	92.5659	203.613	91.5952	203.613	92.4404	203.613	91.7786	203.613	92.3783	203.613	91.9745	203.613	92.3324	203.613	92.1425	203.613	92.2615
210.938	96.0094	210.938	96.1282	210.938	95.8201	210.938	96.1722	210.938	95.5656	210.938	96.1386	210.938	95.2528	210.938	96.026	210.938	94.8897	210.938	95.8347	210.938	94.4859	210.938	95.5672	210.938	94.0531	210.938	95.2285	210.938	93.6049	210.938	94.8271	210.938	93.1576	210.938	94.3772	210.938	92.7302	210.938	93.9004	210.938	92.345	210.938	93.428	210.938	92.0264	210.938	92.9986	210.938	91.7973	210.938	92.65	210.938	91.6728	210.938	92.4044	210.938	91.6518	210.938	92.2563	210.938	91.7138	210.938	92.1741	210.938	91.8235	210.938	92.1147	210.938	91.9426	210.938	92.0426
218.262	95.635	218.262	95.8118	218.262	95.3839	218.262	95.9095	218.262	95.0656	218.262	95.9241	218.262	94.6899	218.262	95.8531	218.262	94.271	218.262	95.6948	218.262	93.8283	218.262	95.4491	218.262	93.3869	218.262	95.1186	218.262	92.9757	218.262	94.7108	218.262	92.623	218.262	94.2406	218.262	92.3501	218.262	93.734	218.262	92.1657	218.262	93.2293	218.262	92.0642	218.262	92.7752	218.262	92.0292	218.262	92.4192	218.262	92.0397	218.262	92.1901	218.262	92.0744	218.262	92.0848	218.262	92.1148	218.262	92.0702	218.262	92.1451	218.262	92.1006	218.262	92.1538	218.262	92.1364
225.586	95.8812	225.586	96.0669	225.586	95.5981	225.586	96.1532	225.586	95.2219	225.586	96.1399	225.586	94.761	225.586	96.0286	225.586	94.2294	225.586	95.8225	225.586	93.6502	225.586	95.5276	225.586	93.0585	225.586	95.153	225.586	92.5025	225.586	94.7129	225.586	92.0394	225.586	94.2292	225.586	91.7223	225.586	93.735	225.586	91.5829	225.586	93.2764	225.586	91.617	225.586	92.907	225.586	91.7873	225.586	92.6724	225.586	92.0384	225.586	92.5878	225.586	92.3134	225.586	92.6263	225.586	92.5647	225.586	92.7302	225.586	92.757	225.586	92.8356	225.586	92.8685	225.586	92.8916
232.91	96.4538	232.91	96.6177	232.91	96.1877	232.91	96.6799	232.91	95.8192	232.91	96.6415	232.91	95.3494	232.91	96.5033	232.91	94.7827	232.91	96.2665	232.91	94.1295	232.91	95.9323	232.91	93.4117	232.91	95.5039	232.91	92.669	232.91	94.9884	232.91	91.9652	232.91	94.4018	232.91	91.3865	232.91	93.7762	232.91	91.0212	232.91	93.1669	232.91	90.9201	232.91	92.6522	232.91	91.0654	232.91	92.3122	232.91	91.3797	232.91	92.1876	232.91	91.7644	232.91	92.2477	232.91	92.1328	232.91	92.405	232.91	92.4223	232.91	92.5603	232.91	92.5954	232.91	92.6377
241.699	96.4487	241.699	96.5744	241.699	96.237	241.699	96.617	241.699	95.9355	241.699	96.5786	241.699	95.5407	241.699	96.4597	241.699	95.0513	241.699	96.2598	241.699	94.4703	241.699	95.9771	241.699	93.8096	241.699	95.6097	241.699	93.0959	241.699	95.1577	241.699	92.3777	241.699	94.6271	241.699	91.7289	241.699	94.0372	241.699	91.2402	241.699	93.4292	241.699	90.9892	241.699	92.8713	241.699	90.9985	241.699	92.4479	241.699	91.219	241.699	92.2218	241.699	91.5564	241.699	92.1914	241.699	91.9118	241.699	92.2849	241.699	92.2073	241.699	92.4012	241.699	92.3943	241.699	92.4544
250.488	96.4969	250.488	96.5744	250.488	96.3361	250.488	96.5713	250.488	96.0885	250.488	96.4898	250.488	95.7502	250.488	96.3315	250.488	95.318	250.488	96.0978	250.488	94.7913	250.488	95.7901	250.488	94.1752	250.488	95.4104	250.488	93.4853	250.488	94.9629	250.488	92.754	250.488	94.4569	250.488	92.038	250.488	93.9122	250.488	91.421	250.488	93.365	250.488	90.9987	250.488	92.8709	250.488	90.84	250.488	92.4949	250.488	90.9437	250.488	92.2833	250.488	91.2338	250.488	92.2314	250.488	91.5999	250.488	92.2775	250.488	91.9419	250.488	92.3329	250.488	92.1918	250.488	92.3196
259.277	96.6851	259.277	96.7635	259.277	96.5322	259.277	96.7664	259.277	96.305	259.277	96.6914	259.277	96.0022	259.277	96.5353	259.277	95.6224	259.277	96.2949	259.277	95.1655	259.277	95.9671	259.277	94.6348	259.277	95.5505	259.277	94.0404	259.277	95.0478	259.277	93.4028	259.277	94.4698	259.277	92.7582	259.277	93.8423	259.277	92.1619	259.277	93.2136	259.277	91.6854	259.277	92.657	259.277	91.3982	259.277	92.2555	259.277	91.3351	259.277	92.0621	259.277	91.4703	259.277	92.0603	259.277	91.7239	259.277	92.1662	259.277	91.9968	259.277	92.2737	259.277	92.2053	259.277	92.2999
268.066	96.1157	268.066	96.2344	268.066	95.9305	268.066	96.282	268.066	95.6825	268.066	96.2531	268.066	95.3745	268.066	96.1431	268.066	95.009	268.066	95.9475	268.066	94.59	268.066	95.6627	268.066	94.1257	268.066	95.2858	268.066	93.6313	268.066	94.8172	268.066	93.132	268.066	94.2651	268.066	92.664	268.066	93.6545	268.066	92.2717	268.066	93.0381	268.066	91.9981	268.066	92.4993	268.066	91.8708	268.066	92.1322	268.066	91.8885	268.066	91.9922	268.066	92.0179	268.066	92.0537	268.066	92.2023	268.066	92.2239	268.066	92.3774	268.066	92.3966	268.066	92.4871	268.066	92.4954
276.855	95.8486	276.855	95.966	276.855	95.661	276.855	96.0105	276.855	95.4056	276.855	95.9797	276.855	95.0839	276.855	95.8719	276.855	94.6967	276.855	95.6851	276.855	94.2466	276.855	95.4154	276.855	93.7412	276.855	95.0563	276.855	93.1972	276.855	94.6005	276.855	92.6449	276.855	94.0467	276.855	92.1303	276.855	93.4118	276.855	91.712	276.855	92.7489	276.855	91.448	276.855	92.1581	276.855	91.3731	276.855	91.7654	276.855	91.4788	276.855	91.6507	276.855	91.7114	276.855	91.781	276.855	91.9915	276.855	92.0317	276.855	92.2383	276.855	92.2679	276.855	92.3871	276.855	92.3989
287.109	95.4787	287.109	95.6866	287.109	95.1975	287.109	95.8103	287.109	94.8562	287.109	95.8417	287.109	94.4687	287.109	95.7767	287.109	94.0485	287.109	95.6143	287.109	93.6089	287.109	95.3556	287.109	93.1638	287.109	95.0025	287.109	92.7296	287.109	94.5559	287.109	92.3261	287.109	94.0179	287.109	91.9771	287.109	93.3987	287.109	91.7084	287.109	92.7321	287.109	91.5431	287.109	92.0942	287.109	91.4946	287.109	91.6045	287.109	91.5587	287.109	91.3757	287.109	91.7082	287.109	91.4258	287.109	91.8939	287.109	91.6526	287.109	92.0547	287.109	91.9091	287.109	92.1317	287.109	92.0848
297.363	95.8422	297.363	96.0815	297.363	95.4871	297.363	96.2022	297.363	95.0247	297.363	96.2063	297.363	94.4704	297.363	96.0993	297.363	93.8485	297.363	95.8884	297.363	93.1943	297.363	95.5805	297.363	92.5563	297.363	95.1811	297.363	91.995	297.363	94.6947	297.363	91.5736	297.363	94.1303	297.363	91.3398	297.363	93.5121	297.363	91.3079	297.363	92.8953	297.363	91.454	297.363	92.3761	297.363	91.729	297.363	92.0702	297.363	92.075	297.363	92.0449	297.363	92.4356	297.363	92.2585	297.363	92.7589	297.363	92.5835	297.363	92.9973	297.363	92.8852	297.363	93.1109	297.363	93.0738
307.617	96.7612	307.617	96.8822	307.617	96.5269	307.617	96.8932	307.617	96.1771	307.617	96.7996	307.617	95.7104	307.617	96.6088	307.617	95.1266	307.617	96.3288	307.617	94.43	307.617	95.9656	307.617	93.6357	307.617	95.5204	307.617	92.7817	307.617	94.9877	307.617	91.9438	307.617	94.3582	307.617	91.2453	307.617	93.6285	307.617	90.8308	307.617	92.8246	307.617	90.7887	307.617	92.0386	307.617	91.0811	307.617	91.452	307.617	91.5704	307.617	91.2646	307.617	92.1034	307.617	91.5119	307.617	92.5627	307.617	92.0077	307.617	92.8703	307.617	92.5085	307.617	92.9761	307.617	92.8534
319.336	96.3839	319.336	96.4966	319.336	96.1599	319.336	96.505	319.336	95.8194	319.336	96.4168	319.336	95.3594	319.336	96.2396	319.336	94.7807	319.336	95.979	319.336	94.0917	319.336	95.6381	319.336	93.3148	319.336	95.2173	319.336	92.4969	319.336	94.7158	319.336	91.7204	319.336	94.1353	319.336	91.1053	319.336	93.4855	319.336	90.7771	319.336	92.7947	319.336	90.7987	319.336	92.1274	319.336	91.1207	319.336	91.5979	319.336	91.6103	319.336	91.3448	319.336	92.1221	319.336	91.4392	319.336	92.5406	319.336	91.8034	319.336	92.7882	319.336	92.2575	319.336	92.8212	319.336	92.6313
329.59	95.9412	329.59	96.0255	329.59	95.7713	329.59	96.0283	329.59	95.5102	329.59	95.9538	329.59	95.1491	329.59	95.8063	329.59	94.6765	329.59	95.5889	329.59	94.0805	329.59	95.3001	329.59	93.3558	329.59	94.9323	329.59	92.5146	329.59	94.4733	329.59	91.6063	329.59	93.9141	329.59	90.7443	329.59	93.2639	329.59	90.1157	329.59	92.5704	329.59	89.9136	329.59	91.9363	329.59	90.1848	329.59	91.5052	329.59	90.7754	329.59	91.389	329.59	91.4575	329.59	91.5798	329.59	92.0541	329.59	91.9482	329.59	92.464	329.59	92.3276	329.59	92.6425	329.59	92.5857
341.309	95.6982	341.309	95.7848	341.309	95.518	341.309	95.7771	341.309	95.2463	341.309	95.6785	341.309	94.8828	341.309	95.4977	341.309	94.4233	341.309	95.2463	341.309	93.8609	341.309	94.9331	341.309	93.1926	341.309	94.56	341.309	92.4301	341.309	94.1198	341.309	91.617	341.309	93.6042	341.309	90.8479	341.309	93.0198	341.309	90.274	341.309	92.4116	341.309	90.0535	341.309	91.8781	341.309	90.2447	341.309	91.5499	341.309	90.7496	341.309	91.5147	341.309	91.3845	341.309	91.7439	341.309	91.9807	341.309	92.1068	341.309	92.4249	341.309	92.4505	341.309	92.656	341.309	92.6566
353.027	95.2735	353.027	95.4463	353.027	95.0163	353.027	95.5248	353.027	94.6849	353.027	95.5041	353.027	94.2846	353.027	95.3848	353.027	93.8112	353.027	95.1707	353.027	93.2513	353.027	94.8642	353.027	92.588	353.027	94.4601	353.027	91.814	353.027	93.9425	353.027	90.9516	353.027	93.29	353.027	90.0827	353.027	92.4961	353.027	89.377	353.027	91.6151	353.027	89.0624	353.027	90.825	353.027	89.2751	353.027	90.4221	353.027	89.9204	353.027	90.5942	353.027	90.7545	353.027	91.1851	353.027	91.5537	353.027	91.8605	353.027	92.1755	353.027	92.3734	353.027	92.5412	353.027	92.6107
366.211	94.9505	366.211	95.183	366.211	94.6228	366.211	95.3176	366.211	94.2101	366.211	95.3595	366.211	93.7239	366.211	95.3193	366.211	93.1707	366.211	95.2059	366.211	92.5487	366.211	95.019	366.211	91.8523	366.211	94.7429	366.211	91.0849	366.211	94.3459	366.211	90.2797	366.211	93.7852	366.211	89.5246	366.211	93.0217	366.211	88.9741	366.211	92.0523	366.211	88.8029	366.211	90.9737	366.211	89.0851	366.211	90.067	366.211	89.7178	366.211	89.7384	366.211	90.4949	366.211	90.1146	366.211	91.2227	366.211	90.853	366.211	91.7626	366.211	91.5402	366.211	92.024	366.211	91.9534
379.395	95.8234	379.395	95.9983	379.395	95.5336	379.395	96.0693	379.395	95.1271	379.395	96.057	379.395	94.6061	379.395	95.9868	379.395	93.9687	379.395	95.8804	379.395	93.2016	379.395	95.7452	379.395	92.2779	379.395	95.5669	379.395	91.1641	379.395	95.3075	379.395	89.8474	379.395	94.9104	379.395	88.4065	379.395	94.3131	379.395	87.1612	379.395	93.4701	379.395	86.7207	379.395	92.4029	379.395	87.3901	379.395	91.2939	379.395	88.6889	379.395	90.5556	379.395	90.0265	379.395	90.5552	379.395	91.1167	379.395	91.1255	379.395	91.8607	379.395	91.78	379.395	92.222	379.395	92.1872
392.578	96.3585	392.578	96.3618	392.578	96.224	392.578	96.2315	392.578	95.9757	392.578	95.9875	392.578	95.6367	392.578	95.6765	392.578	95.2245	392.578	95.3652	392.578	94.741	392.578	95.1175	392.578	94.1668	392.578	94.9576	392.578	93.4614	392.578	94.8468	392.578	92.5703	392.578	94.695	392.578	91.4447	392.578	94.4007	392.578	90.0963	392.578	93.894	392.578	88.7441	392.578	93.1798	392.578	88.0076	392.578	92.3902	392.578	88.4792	392.578	91.8079	392.578	89.7822	392.578	91.7097	392.578	91.1419	392.578	92.061	392.578	92.1566	392.578	92.5348	392.578	92.7123	392.578	92.8126
405.762	96.174	405.762	96.2188	405.762	95.9428	405.762	96.0639	405.762	95.556	405.762	95.715	405.762	95.0598	405.762	95.1993	405.762	94.5078	405.762	94.5709	405.762	93.9451	405.762	93.9111	405.762	93.3898	405.762	93.3138	405.762	92.8244	405.762	92.8472	405.762	92.2044	405.762	92.5117	405.762	91.4846	405.762	92.2389	405.762	90.664	405.762	91.9435	405.762	89.8582	405.762	91.5963	405.762	89.3648	405.762	91.2775	405.762	89.5195	405.762	91.1667	405.762	90.2964	405.762	91.4008	405.762	91.2932	405.762	91.8997	405.762	92.1311	405.762	92.4113	405.762	92.617	405.762	92.6966
420.41	96.0125	420.41	96.0435	420.41	95.8215	420.41	95.9065	420.41	95.4931	420.41	95.6114	420.41	95.0574	420.41	95.1888	420.41	94.5439	420.41	94.688	420.41	93.9702	420.41	94.1657	420.41	93.3343	420.41	93.6626	420.41	92.6127	420.41	93.1765	420.41	91.7699	420.41	92.6531	420.41	90.7825	420.41	92.0109	420.41	89.6906	420.41	91.2009	420.41	88.6915	420.41	90.2969	420.41	88.1916	420.41	89.5895	420.41	88.5192	420.41	89.4845	420.41	89.4763	420.41	90.0519	420.41	90.5682	420.41	90.9021	420.41	91.4418	420.41	91.6226	420.41	91.9357	420.41	91.9939
435.059	95.5829	435.059	95.5629	435.059	95.4217	435.059	95.361	435.059	95.0998	435.059	94.9979	435.059	94.6562	435.059	94.5172	435.059	94.1413	435.059	93.9842	435.059	93.6036	435.059	93.4758	435.059	93.069	435.059	93.055	435.059	92.5254	435.059	92.7345	435.059	91.925	435.059	92.4531	435.059	91.2066	435.059	92.0917	435.059	90.3363	435.059	91.5264	435.059	89.3789	435.059	90.7108	435.059	88.6022	435.059	89.8088	435.059	88.4554	435.059	89.3107	435.059	89.1197	435.059	89.664	435.059	90.2046	435.059	90.5876	435.059	91.1992	435.059	91.4535	435.059	91.8048	435.059	91.896
451.172	96.19	451.172	96.1367	451.172	96.0268	451.172	95.8605	451.172	95.6641	451.172	95.3701	451.172	95.1291	451.172	94.6987	451.172	94.4611	451.172	93.9135	451.172	93.71	451.172	93.1133	451.172	92.9263	451.172	92.403	451.172	92.1453	451.172	91.8422	451.172	91.3768	451.172	91.4025	451.172	90.6199	451.172	90.9804	451.172	89.9103	451.172	90.4701	451.172	89.3848	451.172	89.8614	451.172	89.2746	451.172	89.332	451.172	89.7148	451.172	89.2376	451.172	90.545	451.172	89.7889	451.172	91.4326	451.172	90.7385	451.172	92.1017	451.172	91.6516	451.172	92.394	451.172	92.2414
465.82	96.8192	465.82	96.7439	465.82	96.6725	465.82	96.4394	465.82	96.3262	465.82	95.922	465.82	95.8124	465.82	95.2417	465.82	95.1686	465.82	94.4849	465.82	94.435	465.82	93.7575	465.82	93.6496	465.82	93.1428	465.82	92.8378	465.82	92.6536	465.82	91.9982	465.82	92.2153	465.82	91.0971	465.82	91.6972	465.82	90.0989	465.82	90.9693	465.82	89.0623	465.82	89.9735	465.82	88.2977	465.82	88.8589	465.82	88.3178	465.82	88.1857	465.82	89.2053	465.82	88.5981	465.82	90.4011	465.82	89.8038	465.82	91.3648	465.82	90.9915	465.82	91.8337	465.82	91.7112
483.398	96.7502	483.398	96.7003	483.398	96.513	483.398	96.3544	483.398	96.0333	483.398	95.7389	483.398	95.3932	483.398	94.923	483.398	94.702	483.398	94.0268	483.398	94.055	483.398	93.215	483.398	93.4777	483.398	92.6467	483.398	92.9052	483.398	92.3657	483.398	92.2213	483.398	92.2292	483.398	91.3168	483.398	91.988	483.398	90.1497	483.398	91.4226	483.398	88.8533	483.398	90.4309	483.398	87.9336	483.398	89.1601	483.398	88.1095	483.398	88.2952	483.398	89.3093	483.398	88.7321	483.398	90.7294	483.398	90.1126	483.398	91.8088	483.398	91.43	483.398	92.3265	483.398	92.2044
499.512	97.1156	499.512	97.0593	499.512	96.8793	499.512	96.7153	499.512	96.361	499.512	96.0969	499.512	95.6018	499.512	95.2283	499.512	94.6958	499.512	94.1582	499.512	93.7992	499.512	92.9991	499.512	93.0861	499.512	91.9856	499.512	92.6334	499.512	91.4324	499.512	92.3423	499.512	91.4311	499.512	92.0047	499.512	91.6646	499.512	91.4249	499.512	91.7003	499.512	90.5092	499.512	91.2549	499.512	89.3872	499.512	90.2606	499.512	88.6286	499.512	89.0632	499.512	88.9792	499.512	88.715	499.512	90.2108	499.512	89.7655	499.512	91.4309	499.512	91.1605	499.512	92.0989	499.512	92.0175
517.09	97.2826	517.09	97.1934	517.09	97.1011	517.09	96.8371	517.09	96.6561	517.09	96.2323	517.09	95.9679	517.09	95.4206	517.09	95.0815	517.09	94.4679	517.09	94.0777	517.09	93.4566	517.09	93.0705	517.09	92.4805	517.09	92.1737	517.09	91.6443	517.09	91.44	517.09	91.0337	517.09	90.8269	517.09	90.647	517.09	90.2341	517.09	90.3695	517.09	89.6047	517.09	90.0462	517.09	89.0608	517.09	89.5988	517.09	88.9755	517.09	89.1702	517.09	89.6357	517.09	89.1976	517.09	90.7385	517.09	89.9693	517.09	91.6987	517.09	91.0781	517.09	92.1344	517.09	91.9077
536.133	97.7006	536.133	97.5644	536.133	97.5079	536.133	97.1165	536.133	96.9751	536.133	96.3829	536.133	96.1046	536.133	95.4021	536.133	94.938	536.133	94.2227	536.133	93.6058	536.133	92.9178	536.133	92.3756	536.133	91.6498	536.133	91.5575	536.133	90.7247	536.133	91.1983	536.133	90.3728	536.133	90.9962	536.133	90.3887	536.133	90.6025	536.133	90.3125	536.133	89.8472	536.133	89.8041	536.133	88.8485	536.133	88.7202	536.133	88.2109	536.133	87.2954	536.133	88.7302	536.133	86.8495	536.133	90.1341	536.133	88.4601	536.133	91.4483	536.133	90.5229	536.133	92.0855	536.133	91.8044
555.176	97.2312	555.176	97.1627	555.176	97.0374	555.176	96.8329	555.176	96.5791	555.176	96.2517	555.176	95.847	555.176	95.4374	555.176	94.835	555.176	94.4072	555.176	93.5715	555.176	93.1869	555.176	92.173	555.176	91.8647	555.176	90.8896	555.176	90.6637	555.176	90.0191	555.176	89.8854	555.176	89.6062	555.176	89.6187	555.176	89.34	555.176	89.5998	555.176	88.8861	555.176	89.4634	555.176	88.2271	555.176	88.9531	555.176	87.864	555.176	88.0567	555.176	88.4607	555.176	87.3852	555.176	89.7527	555.176	88.028	555.176	90.8826	555.176	89.6111	555.176	91.324	555.176	90.8857
574.219	97.0679	574.219	96.8815	574.219	96.973	574.219	96.4449	574.219	96.5917	574.219	95.8118	574.219	95.9304	574.219	95.0331	574.219	94.9892	574.219	94.1286	574.219	93.7611	574.219	93.0792	574.219	92.2661	574.219	91.863	574.219	90.643	574.219	90.5412	574.219	89.2727	574.219	89.35	574.219	88.6185	574.219	88.6241	574.219	88.6083	574.219	88.4633	574.219	88.6788	574.219	88.5899	574.219	88.4505	574.219	88.6087	574.219	87.9891	574.219	88.293	574.219	87.8178	574.219	87.8637	574.219	88.4239	574.219	88.0511	574.219	89.4194	574.219	89.0101	574.219	90.0383	574.219	89.8817
594.727	97.0715	594.727	96.8988	594.727	96.9843	594.727	96.4741	594.727	96.654	594.727	95.8356	594.727	96.1008	594.727	95.0392	594.727	95.325	594.727	94.1291	594.727	94.3031	594.727	93.0999	594.727	93.012	594.727	91.8894	594.727	91.48	594.727	90.4647	594.727	89.8677	594.727	89.0008	594.727	88.526	594.727	87.9517	594.727	87.8146	594.727	87.6062	594.727	87.7097	594.727	87.6393	594.727	87.8645	594.727	87.5258	594.727	88.0416	594.727	87.0195	594.727	88.3185	594.727	86.5285	594.727	88.925	594.727	87.1492	594.727	89.7459	594.727	88.7236	594.727	90.2442	594.727	89.9418
615.234	97.3727	615.234	97.1577	615.234	97.263	615.234	96.6515	615.234	96.8365	615.234	95.9359	615.234	96.1313	615.234	95.12	615.234	95.2054	615.234	94.2801	615.234	94.1247	615.234	93.404	615.234	92.9534	615.234	92.3962	615.234	91.7528	615.234	91.1403	615.234	90.5759	615.234	89.6179	615.234	89.4098	615.234	88.0707	615.234	88.1053	615.234	86.9672	615.234	86.5152	615.234	86.4068	615.234	85.1769	615.234	85.8256	615.234	85.7935	615.234	84.8897	615.234	88.0547	615.234	84.7395	615.234	90.101	615.234	86.7235	615.234	91.2974	615.234	89.2049	615.234	91.5677	615.234	90.8841
637.207	96.3337	637.207	96.0486	637.207	96.3076	637.207	95.4985	637.207	95.9569	637.207	94.7532	637.207	95.3091	637.207	93.8834	637.207	94.4332	637.207	92.9204	637.207	93.421	637.207	91.8582	637.207	92.3472	637.207	90.73	637.207	91.2473	637.207	89.6544	637.207	90.1631	637.207	88.759	637.207	89.1878	637.207	88.1091	637.207	88.3563	637.207	87.7164	637.207	87.4906	637.207	87.4744	637.207	86.3505	637.207	87.0983	637.207	85.16	637.207	86.3386	637.207	85.1165	637.207	85.4793	637.207	86.5802	637.207	85.6171	637.207	88.0729	637.207	86.971	637.207	88.6934	637.207	88.2649
659.18	96.5691	659.18	96.2679	659.18	96.5801	659.18	95.7086	659.18	96.31	659.18	94.9601	659.18	95.7771	659.18	94.0652	659.18	94.983	659.18	92.9876	659.18	93.9165	659.18	91.6688	659.18	92.5802	659.18	90.1321	659.18	91.0278	659.18	88.4844	659.18	89.4373	659.18	86.8871	659.18	88.1735	659.18	85.8828	659.18	87.5139	659.18	86.2962	659.18	87.1652	659.18	87.3683	659.18	86.5584	659.18	87.6287	659.18	85.621	659.18	86.5407	659.18	85.4931	659.18	85.1105	659.18	87.1995	659.18	86.344	659.18	89.2906	659.18	88.902	659.18	90.486	659.18	90.396
682.617	96.3137	682.617	95.8711	682.617	96.386	682.617	95.1586	682.617	96.0304	682.617	94.2854	682.617	95.2546	682.617	93.3253	682.617	94.1481	682.617	92.2969	682.617	92.8664	682.617	91.1872	682.617	91.5583	682.617	89.9996	682.617	90.278	682.617	88.7957	682.617	89.0028	682.617	87.603	682.617	87.7669	682.617	86.1799	682.617	86.671	682.617	84.3459	682.617	85.7246	682.617	83.173	682.617	85.0078	682.617	83.7148	682.617	85.1096	682.617	84.0172	682.617	86.4349	682.617	83.0672	682.617	88.1751	682.617	83.672	682.617	89.448	682.617	86.7855	682.617	89.8358	682.617	89.0409
707.52	97.2708	707.52	96.8875	707.52	97.3296	707.52	96.1937	707.52	97.0882	707.52	95.2657	707.52	96.5836	707.52	94.2348	707.52	95.8487	707.52	93.2049	707.52	94.9151	707.52	92.1391	707.52	93.8179	707.52	90.8793	707.52	92.5734	707.52	89.3674	707.52	91.1941	707.52	87.8941	707.52	89.8377	707.52	86.8393	707.52	88.839	707.52	86.1323	707.52	88.2076	707.52	85.8718	707.52	87.5104	707.52	86.3015	707.52	86.7187	707.52	86.3216	707.52	86.7287	707.52	84.5682	707.52	87.8988	707.52	82.4416	707.52	89.1032	707.52	85.3302	707.52	89.4211	707.52	88.3119
732.422	97.8116	732.422	97.2797	732.422	97.9918	732.422	96.4633	732.422	97.8493	732.422	95.5173	732.422	97.4538	732.422	94.5487	732.422	96.8303	732.422	93.4659	732.422	95.9137	732.422	92.1366	732.422	94.6102	732.422	90.6675	732.422	92.9472	732.422	89.2935	732.422	91.2153	732.422	88.0856	732.422	89.817	732.422	87.1522	732.422	88.8422	732.422	86.8985	732.422	88.1026	732.422	87.4424	732.422	87.3881	732.422	88.1209	732.422	86.7196	732.422	87.8676	732.422	87.1116	732.422	85.6451	732.422	89.2984	732.422	84.1913	732.422	91.5688	732.422	88.6847	732.422	92.5767	732.422	91.7811
757.324	97.6791	757.324	97.0039	757.324	97.8119	757.324	95.9516	757.324	97.3945	757.324	94.7312	757.324	96.6068	757.324	93.3679	757.324	95.7541	757.324	91.6999	757.324	94.9789	757.324	89.7826	757.324	94.0569	757.324	88.1669	757.324	92.7108	757.324	87.1457	757.324	91.0176	757.324	86.1652	757.324	89.4544	757.324	84.7656	757.324	88.448	757.324	82.9766	757.324	88.1021	757.324	83.2145	757.324	88.2913	757.324	86.4579	757.324	88.5423	757.324	88.7318	757.324	88.9647	757.324	88.6759	757.324	90.4294	757.324	85.8335	757.324	91.9055	757.324	84.5206	757.324	91.7843	757.324	89.231
785.156	97.5248	785.156	96.5966	785.156	97.6918	785.156	95.0658	785.156	97.2044	785.156	93.3686	785.156	96.399	785.156	92.0055	785.156	95.6755	785.156	91.1255	785.156	95.1008	785.156	90.454	785.156	94.35	785.156	89.5748	785.156	93.0265	785.156	88.4422	785.156	90.7818	785.156	87.5877	785.156	87.5635	785.156	87.1113	785.156	84.8768	785.156	86.8267	785.156	84.3667	785.156	87.1277	785.156	84.344	785.156	87.7835	785.156	84.0038	785.156	87.6426	785.156	84.4261	785.156	84.8148	785.156	87.5831	785.156	73.3221	785.156	90.3413	785.156	84.985	785.156	91.2704	785.156	90.0378
811.523	96.7899	811.523	95.4918	811.523	98.0178	811.523	94.9807	811.523	98.3531	811.523	94.752	811.523	97.5363	811.523	93.973	811.523	95.7139	811.523	92.6932	811.523	93.7277	811.523	91.5367	811.523	92.8111	811.523	90.6026	811.523	92.41	811.523	89.214	811.523	91.5385	811.523	87.5885	811.523	90.5511	811.523	87.4	811.523	89.8903	811.523	87.7469	811.523	89.3935	811.523	86.7797	811.523	89.3188	811.523	85.0882	811.523	88.9677	811.523	84.4673	811.523	87.6792	811.523	84.4492	811.523	87.6374	811.523	84.2449	811.523	88.9069	811.523	84.9109	811.523	88.9448	811.523	87.2328
840.82	97.4291	840.82	96.3485	840.82	97.9199	840.82	94.8438	840.82	97.8115	840.82	93.4994	840.82	97.0997	840.82	92.9354	840.82	95.7964	840.82	92.7272	840.82	94.0995	840.82	92.0433	840.82	92.665	840.82	90.5562	840.82	92.0105	840.82	88.4661	840.82	91.3728	840.82	86.633	840.82	89.9069	840.82	85.7789	840.82	87.7568	840.82	84.7597	840.82	85.2738	840.82	83.6303	840.82	82.578	840.82	84.9303	840.82	81.2673	840.82	86.1009	840.82	84.2684	840.82	85.4258	840.82	88.342	840.82	83.2798	840.82	90.6171	840.82	83.8527	840.82	90.7745	840.82	88.4334
870.117	97.5398	870.117	96.7657	870.117	97.7113	870.117	95.4027	870.117	97.5584	870.117	93.7682	870.117	97.2515	870.117	92.1795	870.117	96.5822	870.117	90.9133	870.117	95.2693	870.117	90.3615	870.117	93.4145	870.117	90.5007	870.117	91.5629	870.117	90.6023	870.117	89.9719	870.117	89.8005	870.117	88.6723	870.117	88.1999	870.117	88.2722	870.117	86.9013	870.117	88.9477	870.117	84.7228	870.117	89.9027	870.117	80.7144	870.117	89.936	870.117	84.2568	870.117	88.1852	870.117	85.7267	870.117	87.558	870.117	83.966	870.117	89.0012	870.117	83.0036	870.117	88.2081	870.117	85.2877
900.879	97.8612	900.879	96.7024	900.879	98.2305	900.879	94.8644	900.879	97.9335	900.879	93.0919	900.879	97.1763	900.879	92.4658	900.879	96.1559	900.879	92.5269	900.879	94.9317	900.879	92.1728	900.879	93.4493	900.879	90.9451	900.879	91.8846	900.879	88.619	900.879	90.7584	900.879	85.916	900.879	90.0462	900.879	86.378	900.879	89.4763	900.879	88.2972	900.879	89.3123	900.879	87.7724	900.879	89.1832	900.879	84.3185	900.879	88.5282	900.879	82.2579	900.879	88.0513	900.879	84.2216	900.879	88.6527	900.879	83.1361	900.879	89.3552	900.879	80.4643	900.879	88.8112	900.879	85.7238
933.105	97.8041	933.105	96.1366	933.105	98.753	933.105	94.5896	933.105	98.7356	933.105	94.0335	933.105	97.9038	933.105	94.1608	933.105	96.6403	933.105	94.1579	933.105	95.328	933.105	93.5646	933.105	94.0905	933.105	92.4563	933.105	92.7474	933.105	91.4779	933.105	91.1284	933.105	90.9208	933.105	89.7657	933.105	90.2966	933.105	89.7135	933.105	89.9128	933.105	90.5324	933.105	89.6762	933.105	91.0044	933.105	88.1744	933.105	90.4954	933.105	85.6523	933.105	89.117	933.105	84.5255	933.105	89.2859	933.105	84.7697	933.105	89.7384	933.105	85.1654	933.105	87.9515	933.105	85.6261
965.332	97.7405	965.332	95.9069	965.332	98.7043	965.332	94.3231	965.332	98.7857	965.332	94.2102	965.332	98.1844	965.332	94.1955	965.332	96.9633	965.332	93.2704	965.332	95.1167	965.332	91.8347	965.332	92.894	965.332	90.8227	965.332	90.8508	965.332	90.095	965.332	89.2204	965.332	88.2556	965.332	87.948	965.332	83.6904	965.332	87.6883	965.332	81.0656	965.332	88.8666	965.332	85.1569	965.332	89.5655	965.332	87.2482	965.332	88.4794	965.332	88.4517	965.332	86.3063	965.332	88.6595	965.332	86.6752	965.332	86.9454	965.332	88.8368	965.332	83.3562	965.332	88.9789	965.332	85.9007
1,000.49	97.4085	1,000.49	95.4225	1,000.49	98.8807	1,000.49	95.2914	1,000.49	98.9692	1,000.49	96.0288	1,000.49	97.8553	1,000.49	95.633	1,000.49	96.0419	1,000.49	94.3607	1,000.49	94.4109	1,000.49	93.3562	1,000.49	93.7345	1,000.49	92.6745	1,000.49	93.2998	1,000.49	91.4836	1,000.49	92.0214	1,000.49	89.7868	1,000.49	89.9819	1,000.49	88.7015	1,000.49	88.3299	1,000.49	88.557	1,000.49	87.7183	1,000.49	88.7086	1,000.49	87.7527	1,000.49	88.3819	1,000.49	86.853	1,000.49	86.3968	1,000.49	83.5558	1,000.49	83.9086	1,000.49	82.8144	1,000.49	83.1398	1,000.49	85.3559	1,000.49	83.9284	1,000.49	86.7961	1,000.49	86.2126
1,035.64	97.4993	1,035.64	96.1149	1,035.64	98.4409	1,035.64	94.9372	1,035.64	98.6869	1,035.64	94.3588	1,035.64	98.4117	1,035.64	94.7519	1,035.64	97.6937	1,035.64	95.5349	1,035.64	96.175	1,035.64	95.3807	1,035.64	93.3217	1,035.64	94.1239	1,035.64	89.0485	1,035.64	92.448	1,035.64	85.364	1,035.64	91.1656	1,035.64	85.2213	1,035.64	91.0064	1,035.64	85.8913	1,035.64	91.0575	1,035.64	86.0135	1,035.64	88.5377	1,035.64	86.7524	1,035.64	83.3189	1,035.64	87.8845	1,035.64	85.5792	1,035.64	86.8922	1,035.64	86.672	1,035.64	85.268	1,035.64	86.0198	1,035.64	86.9557	1,035.64	86.6184	1,035.64	86.9253	1,035.64	86.1367
1,072.27	94.6146	1,072.27	94.796	1,072.27	98.2723	1,072.27	97.5195	1,072.27	99.688	1,072.27	97.74	1,072.27	98.6767	1,072.27	96.1609	1,072.27	95.7106	1,072.27	94.4253	1,072.27	93.168	1,072.27	93.2763	1,072.27	93.464	1,072.27	92.3576	1,072.27	93.5646	1,072.27	91.539	1,072.27	92.8342	1,072.27	90.3427	1,072.27	91.4227	1,072.27	87.2633	1,072.27	88.6767	1,072.27	86.5096	1,072.27	86.4258	1,072.27	90.085	1,072.27	86.296	1,072.27	89.8314	1,072.27	84.1064	1,072.27	86.888	1,072.27	81.4764	1,072.27	88.9465	1,072.27	82.8073	1,072.27	88.0709	1,072.27	86.6487	1,072.27	81.4913	1,072.27	89.3223	1,072.27	87.9484
1,108.89	96.1	1,108.89	96.0839	1,108.89	96.8102	1,108.89	95.9308	1,108.89	98.0399	1,108.89	95.9753	1,108.89	98.5914	1,108.89	96.3868	1,108.89	97.9149	1,108.89	96.241	1,108.89	95.8295	1,108.89	95.3646	1,108.89	92.4887	1,108.89	94.506	1,108.89	89.4085	1,108.89	93.671	1,108.89	87.313	1,108.89	91.7733	1,108.89	83.589	1,108.89	88.9636	1,108.89	82.5872	1,108.89	87.8332	1,108.89	84.8054	1,108.89	87.533	1,108.89	84.7781	1,108.89	85.6545	1,108.89	84.2552	1,108.89	85.6118	1,108.89	84.7686	1,108.89	89.6774	1,108.89	85.4819	1,108.89	89.6716	1,108.89	88.6551	1,108.89	81.7154	1,108.89	90.2644	1,108.89	86.4531
1,148.44	94.9971	1,148.44	95.8287	1,148.44	95.2275	1,148.44	95.8181	1,148.44	96.9928	1,148.44	95.9945	1,148.44	97.9602	1,148.44	97.0046	1,148.44	97.2554	1,148.44	97.2313	1,148.44	94.6621	1,148.44	96.5492	1,148.44	90.7948	1,148.44	95.5537	1,148.44	88.8021	1,148.44	94.0819	1,148.44	88.9469	1,148.44	91.8429	1,148.44	88.0685	1,148.44	89.3611	1,148.44	85.3587	1,148.44	87.7027	1,148.44	83.84	1,148.44	87.1573	1,148.44	83.9836	1,148.44	86.7396	1,148.44	83.3014	1,148.44	84.351	1,148.44	83.4678	1,148.44	85.6088	1,148.44	86.6367	1,148.44	88.0194	1,148.44	88.1038	1,148.44	83.9721	1,148.44	86.9445	1,148.44	81.063
1,189.45	94.3413	1,189.45	95.3419	1,189.45	94.5359	1,189.45	96.0317	1,189.45	96.1567	1,189.45	96.2488	1,189.45	97.2026	1,189.45	96.4328	1,189.45	96.6936	1,189.45	96.6181	1,189.45	94.6026	1,189.45	96.0746	1,189.45	91.4433	1,189.45	94.5778	1,189.45	88.5562	1,189.45	93.2171	1,189.45	88.1914	1,189.45	91.3661	1,189.45	86.0218	1,189.45	88.3954	1,189.45	74.1677	1,189.45	88.762	1,189.45	76.6162	1,189.45	90.5749	1,189.45	77.0567	1,189.45	91.0428	1,189.45	83.0858	1,189.45	87.7132	1,189.45	87.0436	1,189.45	83.8647	1,189.45	87.2656	1,189.45	89.6843	1,189.45	89.213	1,189.45	86.3472	1,189.45	88.5752	1,189.45	78.7561
1,230.47	95.6887	1,230.47	96.0322	1,230.47	93.9764	1,230.47	95.2043	1,230.47	94.625	1,230.47	96.1596	1,230.47	96.4486	1,230.47	97.6484	1,230.47	96.3189	1,230.47	97.6552	1,230.47	93.4717	1,230.47	96.3688	1,230.47	88.3403	1,230.47	94.3298	1,230.47	86.4665	1,230.47	92.1893	1,230.47	87.0607	1,230.47	90.6056	1,230.47	86.3308	1,230.47	88.4831	1,230.47	84.6364	1,230.47	86.5156	1,230.47	81.6256	1,230.47	87.3203	1,230.47	78.55	1,230.47	88.3659	1,230.47	82.7526	1,230.47	86.6509	1,230.47	83.949	1,230.47	82.3971	1,230.47	83.909	1,230.47	87.6625	1,230.47	85.6173	1,230.47	84.6465	1,230.47	85.0273	1,230.47	77.8529
1,274.41	95.8894	1,274.41	96.2976	1,274.41	94.8364	1,274.41	97.1316	1,274.41	94.5302	1,274.41	98.2053	1,274.41	95.2823	1,274.41	98.0267	1,274.41	95.1813	1,274.41	96.779	1,274.41	94.0426	1,274.41	95.3738	1,274.41	92.1696	1,274.41	93.3176	1,274.41	88.9082	1,274.41	90.3101	1,274.41	86.6159	1,274.41	88.6622	1,274.41	87.8849	1,274.41	87.2915	1,274.41	85.9539	1,274.41	81.5546	1,274.41	81.7218	1,274.41	85.2383	1,274.41	74.9438	1,274.41	90.2667	1,274.41	83.7835	1,274.41	90.6432	1,274.41	88.0588	1,274.41	85.1337	1,274.41	85.9451	1,274.41	85.826	1,274.41	86.3746	1,274.41	87.172	1,274.41	83.761	1,274.41	78.9536
1,319.82	96.1699	1,319.82	97.3867	1,319.82	96.4375	1,319.82	98.9776	1,319.82	96.0227	1,319.82	99.2292	1,319.82	95.2072	1,319.82	98.4313	1,319.82	95.0702	1,319.82	97.4218	1,319.82	94.2482	1,319.82	96.0754	1,319.82	92.0017	1,319.82	93.7116	1,319.82	88.2759	1,319.82	91.2706	1,319.82	84.0629	1,319.82	89.9892	1,319.82	84.5362	1,319.82	90.2647	1,319.82	86.7759	1,319.82	88.0517	1,319.82	87.1508	1,319.82	81.9878	1,319.82	86.2591	1,319.82	87.2543	1,319.82	87.1298	1,319.82	88.3157	1,319.82	87.001	1,319.82	86.6661	1,319.82	82.2399	1,319.82	87.8002	1,319.82	83.0779	1,319.82	86.0274	1,319.82	84.1604	1,319.82	80.9287
1,366.7	97.509	1,366.7	99.0783	1,366.7	97.0179	1,366.7	100.597	1,366.7	96.2398	1,366.7	100.354	1,366.7	95.0271	1,366.7	98.7407	1,366.7	94.5391	1,366.7	97.8073	1,366.7	94.7227	1,366.7	97.1877	1,366.7	94.2706	1,366.7	95.1378	1,366.7	92.1959	1,366.7	92.1502	1,366.7	88.4871	1,366.7	88.9526	1,366.7	86.8556	1,366.7	86.4731	1,366.7	84.6045	1,366.7	88.2142	1,366.7	81.9138	1,366.7	85.1497	1,366.7	81.2488	1,366.7	85.7098	1,366.7	81.8947	1,366.7	89.9636	1,366.7	88.2096	1,366.7	86.6187	1,366.7	88.2521	1,366.7	87.5756	1,366.7	85.938	1,366.7	87.9553	1,366.7	83.3448	1,366.7	78.6122
1,413.57	97.5005	1,413.57	99.3565	1,413.57	96.4432	1,413.57	100.606	1,413.57	96.4745	1,413.57	100.63	1,413.57	96.0803	1,413.57	99.2185	1,413.57	94.8831	1,413.57	97.6817	1,413.57	93.9892	1,413.57	96.0611	1,413.57	93.0378	1,413.57	92.6649	1,413.57	89.7309	1,413.57	90.8181	1,413.57	85.205	1,413.57	90.8667	1,413.57	83.5452	1,413.57	86.9943	1,413.57	84.9968	1,413.57	83.2669	1,413.57	86.8107	1,413.57	83.7922	1,413.57	81.3661	1,413.57	86.9985	1,413.57	83.7278	1,413.57	89.96	1,413.57	87.5431	1,413.57	83.5098	1,413.57	81.1901	1,413.57	87.2351	1,413.57	85.0177	1,413.57	87.5254	1,413.57	85.3948	1,413.57	80.6702
1,463.38	97.2742	1,463.38	99.0318	1,463.38	95.2484	1,463.38	99.7937	1,463.38	95.9538	1,463.38	100.284	1,463.38	96.9139	1,463.38	99.6431	1,463.38	95.9274	1,463.38	97.4528	1,463.38	93.0749	1,463.38	93.8834	1,463.38	88.8896	1,463.38	91.5634	1,463.38	87.9524	1,463.38	90.2598	1,463.38	89.237	1,463.38	88.0385	1,463.38	87.7702	1,463.38	84.4786	1,463.38	86.2337	1,463.38	80.7081	1,463.38	87.5657	1,463.38	85.0255	1,463.38	86.2414	1,463.38	81.7996	1,463.38	84.3677	1,463.38	85.3715	1,463.38	88.1449	1,463.38	86.165	1,463.38	85.415	1,463.38	86.0327	1,463.38	74.0405	1,463.38	87.2723	1,463.38	72.6307	1,463.38	80.0537
1,516.11	94.6411	1,516.11	98.7004	1,516.11	94.1245	1,516.11	99.7439	1,516.11	95.7217	1,516.11	97.5734	1,516.11	94.0104	1,516.11	96.9662	1,516.11	92.7844	1,516.11	97.846	1,516.11	94.8818	1,516.11	97.0231	1,516.11	94.7045	1,516.11	94.7069	1,516.11	92.1628	1,516.11	92.403	1,516.11	89.4737	1,516.11	90.9408	1,516.11	83.3507	1,516.11	87.165	1,516.11	79.8634	1,516.11	81.3047	1,516.11	85.5672	1,516.11	81.1728	1,516.11	84.8362	1,516.11	83.339	1,516.11	79.2774	1,516.11	88.1755	1,516.11	82.8825	1,516.11	83.4874	1,516.11	80.4845	1,516.11	86.9012	1,516.11	76.4738	1,516.11	87.6599	1,516.11	83.6284	1,516.11	79.1906
1,568.85	95.8087	1,568.85	97.5603	1,568.85	94.9571	1,568.85	99.3051	1,568.85	93.2486	1,568.85	98.815	1,568.85	94.0817	1,568.85	97.2257	1,568.85	95.3195	1,568.85	94.7075	1,568.85	94.3279	1,568.85	92.5985	1,568.85	91.4412	1,568.85	91.9648	1,568.85	90.3597	1,568.85	85.3316	1,568.85	88.4732	1,568.85	82.0327	1,568.85	84.5683	1,568.85	85.4794	1,568.85	81.5934	1,568.85	87.2053	1,568.85	73.0682	1,568.85	85.7713	1,568.85	79.495	1,568.85	78.8508	1,568.85	81.3633	1,568.85	82.0474	1,568.85	86.004	1,568.85	86.628	1,568.85	87.0417	1,568.85	80.5237	1,568.85	80.5335	1,568.85	86.7617	1,568.85	52.4224	1,568.85	80.0887
1,624.51	95.8999	1,624.51	96.7636	1,624.51	93.988	1,624.51	97.7929	1,624.51	92.1506	1,624.51	97.4994	1,624.51	93.4335	1,624.51	95.8463	1,624.51	93.694	1,624.51	93.758	1,624.51	92.19	1,624.51	92.3161	1,624.51	89.0891	1,624.51	91.1214	1,624.51	86.531	1,624.51	90.1187	1,624.51	88.6627	1,624.51	88.3288	1,624.51	90.1966	1,624.51	87.8381	1,624.51	88.3874	1,624.51	84.83	1,624.51	88.2833	1,624.51	60.9573	1,624.51	84.1302	1,624.51	78.9758	1,624.51	82.408	1,624.51	78.569	1,624.51	81.1667	1,624.51	85.508	1,624.51	79.1483	1,624.51	81.8029	1,624.51	82.2282	1,624.51	87.5203	1,624.51	77.6177	1,624.51	79.9865
1,681.64	96.0458	1,681.64	97.4871	1,681.64	93.1579	1,681.64	97.0826	1,681.64	91.2661	1,681.64	95.32	1,681.64	91.2158	1,681.64	93.8225	1,681.64	92.3422	1,681.64	92.1084	1,681.64	92.6954	1,681.64	92.4175	1,681.64	89.5591	1,681.64	92.073	1,681.64	85.4079	1,681.64	88.6758	1,681.64	87.6716	1,681.64	85.4862	1,681.64	86.3859	1,681.64	85.0636	1,681.64	85.4846	1,681.64	80.2763	1,681.64	86.1694	1,681.64	74.249	1,681.64	85.1351	1,681.64	83.2583	1,681.64	84.0831	1,681.64	75.1866	1,681.64	82.4669	1,681.64	82.5384	1,681.64	78.7988	1,681.64	82.401	1,681.64	80.6154	1,681.64	83.5552	1,681.64	78.4249	1,681.64	80.3864
1,741.7	96.0054	1,741.7	98.127	1,741.7	93.4159	1,741.7	96.4799	1,741.7	91.5779	1,741.7	93.9659	1,741.7	89.5727	1,741.7	92.9852	1,741.7	92.6607	1,741.7	91.6542	1,741.7	93.8311	1,741.7	90.5716	1,741.7	90.127	1,741.7	84.5993	1,741.7	84.4255	1,741.7	77.2016	1,741.7	81.6091	1,741.7	80.4798	1,741.7	79.1736	1,741.7	82.9593	1,741.7	85.9511	1,741.7	77.1545	1,741.7	87.1424	1,741.7	79.8582	1,741.7	87.619	1,741.7	81.4891	1,741.7	81.336	1,741.7	86.7147	1,741.7	85.571	1,741.7	75.6285	1,741.7	82.5066	1,741.7	81.4671	1,741.7	72.7201	1,741.7	81.6188	1,741.7	73.4626	1,741.7	76.2587
1,803.22	96.598	1,803.22	97.8256	1,803.22	94.0087	1,803.22	96.9664	1,803.22	92.109	1,803.22	95.4814	1,803.22	90.9047	1,803.22	92.2186	1,803.22	91.5285	1,803.22	89.1728	1,803.22	92.5454	1,803.22	87.8746	1,803.22	91.6669	1,803.22	84.6769	1,803.22	89.8047	1,803.22	82.5612	1,803.22	86.5342	1,803.22	83.2794	1,803.22	81.11	1,803.22	79.4434	1,803.22	83.4088	1,803.22	72.4114	1,803.22	82.2139	1,803.22	77.712	1,803.22	81.3864	1,803.22	71.1756	1,803.22	77.5773	1,803.22	77.087	1,803.22	81.1168	1,803.22	78.0497	1,803.22	82.9739	1,803.22	76.8302	1,803.22	80.6157	1,803.22	83.2875	1,803.22	77.8838	1,803.22	82.2319
1,866.21	97.1485	1,866.21	97.9149	1,866.21	94.6652	1,866.21	97.8369	1,866.21	93.0872	1,866.21	96.6199	1,866.21	92.1799	1,866.21	92.3886	1,866.21	91.9965	1,866.21	90.3594	1,866.21	92.3978	1,866.21	88.5682	1,866.21	92.3452	1,866.21	88.7599	1,866.21	90.2125	1,866.21	83.1009	1,866.21	86.6374	1,866.21	82.1245	1,866.21	82.656	1,866.21	83.1094	1,866.21	80.9325	1,866.21	78.7782	1,866.21	80.2834	1,866.21	78.6555	1,866.21	80.8616	1,866.21	75.6281	1,866.21	80.2841	1,866.21	77.1014	1,866.21	80.8142	1,866.21	76.7366	1,866.21	81.3054	1,866.21	79.0144	1,866.21	79.708	1,866.21	83.2669	1,866.21	75.0382	1,866.21	81.3762
1,932.13	96.6276	1,932.13	97.0854	1,932.13	94.6809	1,932.13	97.8386	1,932.13	92.5354	1,932.13	95.3696	1,932.13	92.3638	1,932.13	93.4442	1,932.13	92.1374	1,932.13	90.7743	1,932.13	92.0066	1,932.13	90.8186	1,932.13	91.5371	1,932.13	85.2852	1,932.13	89.848	1,932.13	88.3219	1,932.13	84.6631	1,932.13	82.849	1,932.13	76.5275	1,932.13	75.9328	1,932.13	75.6321	1,932.13	82.5211	1,932.13	77.6061	1,932.13	72.7228	1,932.13	79.0842	1,932.13	77.6565	1,932.13	79.6363	1,932.13	75.543	1,932.13	82.5987	1,932.13	76.2045	1,932.13	82.242	1,932.13	76.7591	1,932.13	76.3758	1,932.13	81.6417	1,932.13	64.0216	1,932.13	82.2078
1,999.51	96.3064	1,999.51	96.9709	1,999.51	94.4401	1,999.51	96.1596	1,999.51	91.5832	1,999.51	94.6616	1,999.51	92.1117	1,999.51	93.6615	1,999.51	91.7779	1,999.51	92.0771	1,999.51	92.1194	1,999.51	88.5704	1,999.51	92.2936	1,999.51	88.317	1,999.51	89.2474	1,999.51	83.6582	1,999.51	87.3543	1,999.51	85.6158	1,999.51	80.2848	1,999.51	81.893	1,999.51	80.7514	1,999.51	78.8745	1,999.51	78.6418	1,999.51	75.3972	1,999.51	77.3252	1,999.51	79.0969	1,999.51	76.5235	1,999.51	77.9587	1,999.51	82.3103	1,999.51	76.8369	1,999.51	82.389	1,999.51	76.8515	1,999.51	77.7295	1,999.51	79.6617	1,999.51	72.092	1,999.51	82.2211
2,069.82	96.4065	2,069.82	96.7928	2,069.82	94.2118	2,069.82	94.5855	2,069.82	90.6396	2,069.82	93.0154	2,069.82	90.9906	2,069.82	92.8667	2,069.82	92.3403	2,069.82	90.5845	2,069.82	91.8481	2,069.82	87.2522	2,069.82	91.5021	2,069.82	85.2366	2,069.82	89.5558	2,069.82	84.5567	2,069.82	85.9529	2,069.82	78.8781	2,069.82	81.0905	2,069.82	77.2966	2,069.82	63.1842	2,069.82	79.5018	2,069.82	75.1952	2,069.82	76.3568	2,069.82	78.4013	2,069.82	75.6215	2,069.82	79.2379	2,069.82	78.4282	2,069.82	80.2604	2,069.82	77.856	2,069.82	81.0753	2,069.82	75.7787	2,069.82	74.5364	2,069.82	78.8774	2,069.82	71.5675	2,069.82	80.6941
2,143.07	96.7654	2,143.07	96.7845	2,143.07	94.768	2,143.07	94.5985	2,143.07	90.5064	2,143.07	92.7856	2,143.07	88.7852	2,143.07	90.9894	2,143.07	91.4386	2,143.07	90.0578	2,143.07	91.3926	2,143.07	88.2182	2,143.07	90.7712	2,143.07	87.0397	2,143.07	90.4692	2,143.07	86.7681	2,143.07	88.2468	2,143.07	82.195	2,143.07	85.0877	2,143.07	80.8455	2,143.07	79.5545	2,143.07	71.335	2,143.07	74.2882	2,143.07	77.364	2,143.07	78.036	2,143.07	72.7283	2,143.07	79.726	2,143.07	76.7818	2,143.07	77.374	2,143.07	71.6308	2,143.07	77.9991	2,143.07	75.7239	2,143.07	72.8346	2,143.07	78.1011	2,143.07	58.2609	2,143.07	79.7618
2,219.24	96.4013	2,219.24	96.2296	2,219.24	94.7127	2,219.24	94.8658	2,219.24	91.5132	2,219.24	92.8464	2,219.24	87.0087	2,219.24	88.6838	2,219.24	89.9698	2,219.24	89.1196	2,219.24	91.0199	2,219.24	88.9872	2,219.24	89.4032	2,219.24	84.9534	2,219.24	88.8273	2,219.24	83.4658	2,219.24	86.5688	2,219.24	84.8917	2,219.24	77.1228	2,219.24	78.46	2,219.24	78.2033	2,219.24	76.3233	2,219.24	79.4347	2,219.24	75.1866	2,219.24	76.1157	2,219.24	73.3803	2,219.24	80.3647	2,219.24	72.1658	2,219.24	78.4495	2,219.24	72.0249	2,219.24	76.6702	2,219.24	72.7532	2,219.24	69.1825	2,219.24	76.8352	2,219.24	66.8161	2,219.24	81.0591
2,296.88	94.96	2,296.88	94.4882	2,296.88	93.7376	2,296.88	94.6694	2,296.88	91.2881	2,296.88	91.7305	2,296.88	87.4567	2,296.88	89.7109	2,296.88	88.7065	2,296.88	87.2839	2,296.88	91.209	2,296.88	87.3451	2,296.88	89.479	2,296.88	86.6213	2,296.88	86.6104	2,296.88	82.8627	2,296.88	85.0797	2,296.88	80.3712	2,296.88	84.7055	2,296.88	78.135	2,296.88	82.3199	2,296.88	75.6503	2,296.88	81.0582	2,296.88	73.6765	2,296.88	75.8962	2,296.88	72.0919	2,296.88	77.7088	2,296.88	76.7072	2,296.88	74.1705	2,296.88	74.9802	2,296.88	76.4246	2,296.88	73.1418	2,296.88	69.149	2,296.88	71.0379	2,296.88	68.0298	2,296.88	79.3185
2,378.91	93.9387	2,378.91	93.877	2,378.91	92.8168	2,378.91	92.5982	2,378.91	89.7135	2,378.91	91.0381	2,378.91	88.0016	2,378.91	89.7403	2,378.91	89.4327	2,378.91	87.1623	2,378.91	91.0728	2,378.91	88.0028	2,378.91	89.1222	2,378.91	86.131	2,378.91	86.9762	2,378.91	84.421	2,378.91	84.1182	2,378.91	78.9669	2,378.91	83.4062	2,378.91	78.3885	2,378.91	83.1861	2,378.91	78.0069	2,378.91	78.9236	2,378.91	73.5183	2,378.91	76.6869	2,378.91	71.6692	2,378.91	73.1202	2,378.91	75.7845	2,378.91	72.2654	2,378.91	76.7999	2,378.91	71.1044	2,378.91	72.637	2,378.91	69.5107	2,378.91	73.4919	2,378.91	64.7029	2,378.91	78.8109
2,462.4	95.2993	2,462.4	95.3638	2,462.4	92.974	2,462.4	92.4759	2,462.4	87.6234	2,462.4	89.7505	2,462.4	85.6692	2,462.4	87.5611	2,462.4	88.8801	2,462.4	88.6816	2,462.4	90.0951	2,462.4	87.1266	2,462.4	89.234	2,462.4	87.0612	2,462.4	87.7358	2,462.4	85.03	2,462.4	82.3825	2,462.4	80.18	2,462.4	79.2485	2,462.4	78.7624	2,462.4	79.0707	2,462.4	74.8347	2,462.4	79.3497	2,462.4	76.4685	2,462.4	72.6313	2,462.4	71.8167	2,462.4	73.9081	2,462.4	76.06	2,462.4	70.764	2,462.4	76.7426	2,462.4	76.8923	2,462.4	69.6649	2,462.4	69.8881	2,462.4	68.5914	2,462.4	66.8693	2,462.4	77.7445
2,548.83	96.2506	2,548.83	95.9524	2,548.83	94.4159	2,548.83	93.9858	2,548.83	87.6914	2,548.83	88.8329	2,548.83	82.9244	2,548.83	86.3387	2,548.83	88.6471	2,548.83	89.3001	2,548.83	89.2926	2,548.83	86.6161	2,548.83	89.1208	2,548.83	86.0014	2,548.83	86.3125	2,548.83	82.7019	2,548.83	79.1381	2,548.83	82.8161	2,548.83	80.808	2,548.83	76.2524	2,548.83	80.5121	2,548.83	74.4346	2,548.83	77.9034	2,548.83	74.7113	2,548.83	68.5241	2,548.83	72.0177	2,548.83	71.1985	2,548.83	77.1935	2,548.83	63.8709	2,548.83	77.508	2,548.83	75.7102	2,548.83	69.2812	2,548.83	65.5729	2,548.83	70.665	2,548.83	61.5311	2,548.83	78.5412
2,639.65	96.0999	2,639.65	95.7807	2,639.65	95.2664	2,639.65	93.4837	2,639.65	90.147	2,639.65	88.5975	2,639.65	76.849	2,639.65	87.6611	2,639.65	88.0018	2,639.65	89.4697	2,639.65	89.1615	2,639.65	89.7805	2,639.65	88.4737	2,639.65	86.1224	2,639.65	86.0365	2,639.65	83.8258	2,639.65	81.62	2,639.65	79.1786	2,639.65	80.7233	2,639.65	74.4119	2,639.65	78.4761	2,639.65	67.9857	2,639.65	68.2947	2,639.65	73.8455	2,639.65	71.4748	2,639.65	73.2102	2,639.65	69.3669	2,639.65	75.9243	2,639.65	68.3724	2,639.65	76.6442	2,639.65	73.7241	2,639.65	69.8934	2,639.65	62.4536	2,639.65	72.1187	2,639.65	56.179	2,639.65	76.8059
2,731.93	94.9762	2,731.93	94.4736	2,731.93	94.0938	2,731.93	90.8361	2,731.93	90.0048	2,731.93	85.525	2,731.93	74.191	2,731.93	89.3195	2,731.93	87.8648	2,731.93	90.0569	2,731.93	89.2566	2,731.93	90.6872	2,731.93	88.514	2,731.93	85.3386	2,731.93	84.7363	2,731.93	85.0774	2,731.93	82.4491	2,731.93	79.711	2,731.93	79.8528	2,731.93	76.7107	2,731.93	73.2812	2,731.93	71.5146	2,731.93	50.9032	2,731.93	75.5169	2,731.93	75.3993	2,731.93	70.549	2,731.93	69.853	2,731.93	75.1674	2,731.93	69.3692	2,731.93	77.7945	2,731.93	74.6214	2,731.93	70.1842	2,731.93	67.2417	2,731.93	71.8648	2,731.93	63.5995	2,731.93	76.2328
2,828.61	95.6561	2,828.61	94.1177	2,828.61	93.8841	2,828.61	88.6283	2,828.61	89.0835	2,828.61	79.9538	2,828.61	72.9052	2,828.61	89.8874	2,828.61	87.3992	2,828.61	91.7756	2,828.61	89.3123	2,828.61	89.3545	2,828.61	87.0367	2,828.61	87.0954	2,828.61	83.883	2,828.61	80.6784	2,828.61	82.9906	2,828.61	80.2277	2,828.61	81.0869	2,828.61	76.7572	2,828.61	74.3672	2,828.61	73.5222	2,828.61	73.1654	2,828.61	72.5983	2,828.61	76.1121	2,828.61	70.235	2,828.61	71.427	2,828.61	75.6874	2,828.61	68.3306	2,828.61	77.5092	2,828.61	74.3834	2,828.61	66.3415	2,828.61	63.2836	2,828.61	69.9075	2,828.61	66.4488	2,828.61	75.5627
2,928.22	96.7266	2,928.22	94.7138	2,928.22	95.2721	2,928.22	88.6144	2,928.22	89.2476	2,928.22	82.4358	2,928.22	77.1078	2,928.22	90.3188	2,928.22	87.9818	2,928.22	92.4774	2,928.22	88.4712	2,928.22	89.3168	2,928.22	85.8454	2,928.22	86.9468	2,928.22	82.3712	2,928.22	81.6753	2,928.22	81.7848	2,928.22	79.6986	2,928.22	75.3218	2,928.22	73.8363	2,928.22	75.4819	2,928.22	70.1295	2,928.22	79.1768	2,928.22	65.5497	2,928.22	73.0696	2,928.22	70.7016	2,928.22	68.7354	2,928.22	75.9515	2,928.22	73.3807	2,928.22	76.3903	2,928.22	74.5962	2,928.22	60.4771	2,928.22	62.3636	2,928.22	72.3391	2,928.22	71.2549	2,928.22	74.5474
3,030.76	97.49	3,030.76	95.26	3,030.76	96.3041	3,030.76	86.1276	3,030.76	90.0559	3,030.76	85.6882	3,030.76	81.2636	3,030.76	91.7445	3,030.76	88.5648	3,030.76	91.4011	3,030.76	88.7794	3,030.76	89.3672	3,030.76	86.5497	3,030.76	84.8313	3,030.76	84.3477	3,030.76	81.752	3,030.76	82.1139	3,030.76	77.4461	3,030.76	75.5497	3,030.76	72.8106	3,030.76	79.4397	3,030.76	71.4465	3,030.76	77.5434	3,030.76	67.1853	3,030.76	73.8078	3,030.76	68.8136	3,030.76	73.014	3,030.76	75.1107	3,030.76	73.5134	3,030.76	76.1929	3,030.76	73.7707	3,030.76	62.0506	3,030.76	68.4088	3,030.76	71.3568	3,030.76	72.0954	3,030.76	76.1977
3,137.7	97.5136	3,137.7	94.5502	3,137.7	96.8436	3,137.7	82.7383	3,137.7	91.6745	3,137.7	87.8446	3,137.7	84.0009	3,137.7	92.2462	3,137.7	88.0216	3,137.7	91.6578	3,137.7	88.699	3,137.7	88.8604	3,137.7	85.883	3,137.7	84.6505	3,137.7	85.1668	3,137.7	80.5501	3,137.7	82.1707	3,137.7	77.7953	3,137.7	80.9303	3,137.7	75.852	3,137.7	82.5527	3,137.7	67.9036	3,137.7	78.4045	3,137.7	60.9799	3,137.7	68.9447	3,137.7	69.3389	3,137.7	70.8973	3,137.7	75.5634	3,137.7	73.1248	3,137.7	76.1104	3,137.7	70.993	3,137.7	66.5834	3,137.7	69.7947	3,137.7	70.5436	3,137.7	73.602	3,137.7	72.7664
3,249.02	97.0282	3,249.02	92.8736	3,249.02	97.0435	3,249.02	80.6234	3,249.02	92.8344	3,249.02	90.4216	3,249.02	86.626	3,249.02	92.4366	3,249.02	88.3267	3,249.02	90.9547	3,249.02	87.8063	3,249.02	88.481	3,249.02	86.3259	3,249.02	84.9717	3,249.02	87.0259	3,249.02	81.4591	3,249.02	84.0503	3,249.02	73.3335	3,249.02	83.8985	3,249.02	70.0908	3,249.02	84.6374	3,249.02	64.2334	3,249.02	76.4325	3,249.02	64.8533	3,249.02	68.87	3,249.02	68.0134	3,249.02	74.46	3,249.02	76.3529	3,249.02	70.5055	3,249.02	75.3427	3,249.02	72.0735	3,249.02	66.7077	3,249.02	70.1559	3,249.02	70.2038	3,249.02	74.0764	3,249.02	72.9328
3,363.28	96.9329	3,363.28	92.133	3,363.28	96.7024	3,363.28	83.3871	3,363.28	92.9674	3,363.28	91.2344	3,363.28	86.3752	3,363.28	92.0827	3,363.28	87.6207	3,363.28	90.9924	3,363.28	89.0215	3,363.28	86.5532	3,363.28	87.8	3,363.28	84.0585	3,363.28	87.6206	3,363.28	77.3708	3,363.28	84.5193	3,363.28	71.5483	3,363.28	84.4145	3,363.28	59.6696	3,363.28	84.4631	3,363.28	63.1791	3,363.28	75.8154	3,363.28	65.26	3,363.28	73.2512	3,363.28	62.4531	3,363.28	74.7679	3,363.28	74.6276	3,363.28	67.328	3,363.28	73.5295	3,363.28	75.4733	3,363.28	68.4109	3,363.28	69.1221	3,363.28	69.4118	3,363.28	72.966	3,363.28	73.434
3,481.93	96.6794	3,481.93	92.0102	3,481.93	97.0477	3,481.93	86.4568	3,481.93	92.9532	3,481.93	91.8595	3,481.93	84.1702	3,481.93	91.88	3,481.93	86.5752	3,481.93	90.2444	3,481.93	88.5545	3,481.93	86.2783	3,481.93	88.3548	3,481.93	81.7202	3,481.93	85.7607	3,481.93	75.484	3,481.93	83.0548	3,481.93	74.4633	3,481.93	83.1934	3,481.93	70.2756	3,481.93	78.3947	3,481.93	62.5252	3,481.93	73.4156	3,481.93	63.9499	3,481.93	76.4714	3,481.93	66.1867	3,481.93	72.3753	3,481.93	75.5089	3,481.93	75.0037	3,481.93	72.3071	3,481.93	73.5901	3,481.93	64.3131	3,481.93	71.3055	3,481.93	67.2768	3,481.93	73.8243	3,481.93	73.6113
3,604.98	96.4746	3,604.98	90.8865	3,604.98	96.5344	3,604.98	89.7881	3,604.98	93.3893	3,604.98	93.2161	3,604.98	86.4755	3,604.98	91.4743	3,604.98	87.9595	3,604.98	88.2048	3,604.98	88.9292	3,604.98	85.9803	3,604.98	89.5906	3,604.98	79.1249	3,604.98	84.0724	3,604.98	79.4845	3,604.98	82.5266	3,604.98	72.2138	3,604.98	81.1027	3,604.98	69.2978	3,604.98	78.7654	3,604.98	67.3718	3,604.98	77.8942	3,604.98	60.529	3,604.98	75.7526	3,604.98	70.298	3,604.98	71.4456	3,604.98	73.7346	3,604.98	74.9594	3,604.98	69.6695	3,604.98	72.0588	3,604.98	63.3307	3,604.98	69.4656	3,604.98	69.658	3,604.98	73.6432	3,604.98	69.6707
3,732.42	96.7041	3,732.42	89.8916	3,732.42	96.4809	3,732.42	90.9311	3,732.42	91.6293	3,732.42	93.9426	3,732.42	85.4277	3,732.42	90.8238	3,732.42	87.9251	3,732.42	86.3545	3,732.42	88.6914	3,732.42	84.2088	3,732.42	89.1422	3,732.42	80.213	3,732.42	82.8623	3,732.42	79.4069	3,732.42	78.8309	3,732.42	70.6477	3,732.42	75.574	3,732.42	67.1739	3,732.42	74.938	3,732.42	66.8665	3,732.42	78.0146	3,732.42	68.5041	3,732.42	75.4827	3,732.42	72.6162	3,732.42	66.4868	3,732.42	73.2904	3,732.42	71.9876	3,732.42	63.2672	3,732.42	68.0383	3,732.42	61.7356	3,732.42	71.7249	3,732.42	66.6593	3,732.42	74.3461	3,732.42	69.0061
3,864.26	96.4062	3,864.26	90.5122	3,864.26	97.1902	3,864.26	92.0311	3,864.26	92.182	3,864.26	94.136	3,864.26	84.2689	3,864.26	90.4082	3,864.26	86.8021	3,864.26	85.2347	3,864.26	89.3448	3,864.26	80.6614	3,864.26	87.4462	3,864.26	81.4658	3,864.26	83.3096	3,864.26	73.1559	3,864.26	76.9238	3,864.26	77.4574	3,864.26	65.5293	3,864.26	68.9401	3,864.26	72.2693	3,864.26	67.8718	3,864.26	73.9679	3,864.26	67.7668	3,864.26	66.6383	3,864.26	71.5262	3,864.26	62.0711	3,864.26	72.057	3,864.26	65.4655	3,864.26	66.217	3,864.26	69.4115	3,864.26	67.5149	3,864.26	70.6089	3,864.26	66.4222	3,864.26	73.0563	3,864.26	66.9808
4,000.49	95.4394	4,000.49	89.7865	4,000.49	95.655	4,000.49	93.0492	4,000.49	92.1526	4,000.49	93.3946	4,000.49	86.9798	4,000.49	89.7314	4,000.49	86.0537	4,000.49	82.3408	4,000.49	89.2763	4,000.49	82.6164	4,000.49	86.2493	4,000.49	81.3937	4,000.49	82.2384	4,000.49	78.9453	4,000.49	77.5182	4,000.49	79.6837	4,000.49	74.32	4,000.49	71.9322	4,000.49	69.2749	4,000.49	63.9249	4,000.49	55.8816	4,000.49	64.0903	4,000.49	65.9941	4,000.49	63.1526	4,000.49	64.204	4,000.49	69.1842	4,000.49	67.3495	4,000.49	70.2376	4,000.49	70.9819	4,000.49	60.1667	4,000.49	70.0829	4,000.49	68.8216	4,000.49	72.1671	4,000.49	65.9792
4,141.11	95.345	4,141.11	89.7385	4,141.11	95.6179	4,141.11	93.7083	4,141.11	89.469	4,141.11	93.3804	4,141.11	86.2339	4,141.11	88.1568	4,141.11	87.8112	4,141.11	79.9014	4,141.11	88.0907	4,141.11	81.7415	4,141.11	85.8234	4,141.11	80.3602	4,141.11	76.5148	4,141.11	80.6017	4,141.11	73.8492	4,141.11	74.9939	4,141.11	70.5787	4,141.11	71.8689	4,141.11	72.2224	4,141.11	67.3159	4,141.11	73.4913	4,141.11	64.4283	4,141.11	71.0522	4,141.11	70.4579	4,141.11	64.6326	4,141.11	71.0501	4,141.11	65.6023	4,141.11	71.1556	4,141.11	70.6599	4,141.11	55.8911	4,141.11	67.4965	4,141.11	67.9939	4,141.11	70.9666	4,141.11	59.4245
4,287.6	94.7791	4,287.6	89.9279	4,287.6	95.8783	4,287.6	92.9373	4,287.6	89.2118	4,287.6	92.6962	4,287.6	84.0258	4,287.6	87.3805	4,287.6	88.6118	4,287.6	79.0198	4,287.6	87.669	4,287.6	79.4297	4,287.6	82.29	4,287.6	81.7955	4,287.6	76.747	4,287.6	77.1687	4,287.6	74.7393	4,287.6	71.9315	4,287.6	75.5374	4,287.6	72.9323	4,287.6	74.0545	4,287.6	71.0378	4,287.6	74.9812	4,287.6	66.9248	4,287.6	67.5975	4,287.6	69.4753	4,287.6	62.5232	4,287.6	71.8673	4,287.6	60.6593	4,287.6	66.1402	4,287.6	68.2848	4,287.6	65.2767	4,287.6	65.1712	4,287.6	68.6492	4,287.6	68.4041	4,287.6	61.7991
4,438.48	94.8575	4,438.48	89.6429	4,438.48	95.453	4,438.48	93.3889	4,438.48	89.5301	4,438.48	93.23	4,438.48	86.8088	4,438.48	87.4803	4,438.48	89.2598	4,438.48	77.684	4,438.48	86.7939	4,438.48	83.1416	4,438.48	76.9892	4,438.48	81.7687	4,438.48	79.2633	4,438.48	81.2873	4,438.48	79.5472	4,438.48	79.7763	4,438.48	76.3845	4,438.48	74.0869	4,438.48	74.9841	4,438.48	68.0756	4,438.48	69.6132	4,438.48	62.1439	4,438.48	51.5674	4,438.48	67.3808	4,438.48	60.1049	4,438.48	69.9557	4,438.48	57.0298	4,438.48	66.1326	4,438.48	62.5098	4,438.48	61.5954	4,438.48	67.0769	4,438.48	68.3026	4,438.48	69.3596	4,438.48	65.2153
4,595.21	95.6038	4,595.21	91.5035	4,595.21	95.8637	4,595.21	94.0077	4,595.21	91.1123	4,595.21	92.9661	4,595.21	88.1013	4,595.21	87.3057	4,595.21	90.7395	4,595.21	77.6663	4,595.21	87.0175	4,595.21	83.2187	4,595.21	79.9629	4,595.21	83.4301	4,595.21	82.4638	4,595.21	83.0511	4,595.21	80.8547	4,595.21	76.8316	4,595.21	78.0881	4,595.21	69.4328	4,595.21	71.4554	4,595.21	61.1652	4,595.21	70.3644	4,595.21	66.3886	4,595.21	70.6428	4,595.21	69.1489	4,595.21	65.9677	4,595.21	70.1487	4,595.21	65.9757	4,595.21	67.067	4,595.21	65.2166	4,595.21	63.3179	4,595.21	68.5814	4,595.21	68.4615	4,595.21	65.7416	4,595.21	63.464
4,756.35	96.1418	4,756.35	94.6235	4,756.35	96.0623	4,756.35	95.6288	4,756.35	92.7987	4,756.35	93.6435	4,756.35	90.9097	4,756.35	87.2749	4,756.35	91.4994	4,756.35	80.0421	4,756.35	85.8087	4,756.35	84.4946	4,756.35	85.4864	4,756.35	85.308	4,756.35	83.4911	4,756.35	79.3691	4,756.35	78.5295	4,756.35	76.7901	4,756.35	74.3331	4,756.35	75.3607	4,756.35	73.7153	4,756.35	69.4123	4,756.35	75.3016	4,756.35	65.7797	4,756.35	70.9388	4,756.35	68.8612	4,756.35	65.129	4,756.35	66.8158	4,756.35	67.7313	4,756.35	57.7878	4,756.35	64.2124	4,756.35	66.6023	4,756.35	67.1773	4,756.35	65.1287	4,756.35	69.9794	4,756.35	64.3388
4,924.8	96.9224	4,924.8	94.8379	4,924.8	97.5617	4,924.8	95.6553	4,924.8	92.8582	4,924.8	93.6423	4,924.8	91.2307	4,924.8	88.6584	4,924.8	91.9807	4,924.8	81.2262	4,924.8	85.2828	4,924.8	86.5231	4,924.8	86.6466	4,924.8	85.0883	4,924.8	82.9867	4,924.8	84.7135	4,924.8	79.4858	4,924.8	78.8208	4,924.8	71.8465	4,924.8	76.7387	4,924.8	73.7343	4,924.8	67.2426	4,924.8	76.2592	4,924.8	64.8034	4,924.8	71.3488	4,924.8	60.378	4,924.8	70.2778	4,924.8	64.3827	4,924.8	63.717	4,924.8	62.9676	4,924.8	57.4197	4,924.8	58.1511	4,924.8	67.2193	4,924.8	67.8804	4,924.8	72.0664	4,924.8	64.3687
5,097.66	96.9133	5,097.66	96.0427	5,097.66	98.3041	5,097.66	96.5835	5,097.66	94.6759	5,097.66	93.84	5,097.66	91.868	5,097.66	88.3903	5,097.66	92.2865	5,097.66	83.9584	5,097.66	85.3328	5,097.66	85.9821	5,097.66	87.2649	5,097.66	87.2918	5,097.66	81.4308	5,097.66	83.1854	5,097.66	79.0917	5,097.66	78.1595	5,097.66	76.6427	5,097.66	73.6923	5,097.66	76.532	5,097.66	65.6149	5,097.66	74.1336	5,097.66	65.3852	5,097.66	74.7403	5,097.66	67.3808	5,097.66	66.1412	5,097.66	69.5793	5,097.66	63.5904	5,097.66	67.9316	5,097.66	62.8008	5,097.66	56.827	5,097.66	70.6357	5,097.66	69.3972	5,097.66	73.5003	5,097.66	58.5789
5,277.83	96.9842	5,277.83	96.4335	5,277.83	97.5423	5,277.83	96.7008	5,277.83	94.5627	5,277.83	93.3302	5,277.83	92.7088	5,277.83	89.4836	5,277.83	91.073	5,277.83	84.2101	5,277.83	88.4852	5,277.83	86.4505	5,277.83	86.8906	5,277.83	85.8994	5,277.83	81.4525	5,277.83	82.6847	5,277.83	78.4944	5,277.83	79.951	5,277.83	78.4757	5,277.83	74.1953	5,277.83	76.9342	5,277.83	61.5928	5,277.83	78.285	5,277.83	65.1141	5,277.83	76.2405	5,277.83	63.1528	5,277.83	69.2224	5,277.83	66.65	5,277.83	68.4129	5,277.83	60.0566	5,277.83	59.8946	5,277.83	64.0384	5,277.83	67.8357	5,277.83	69.7123	5,277.83	68.7676	5,277.83	61.0781
5,463.87	97.1117	5,463.87	97.5944	5,463.87	97.4325	5,463.87	96.2668	5,463.87	94.3147	5,463.87	92.6133	5,463.87	93.034	5,463.87	89.3909	5,463.87	89.1301	5,463.87	86.4642	5,463.87	89.143	5,463.87	85.9808	5,463.87	85.8306	5,463.87	86.8073	5,463.87	83.4988	5,463.87	84.4606	5,463.87	78.2683	5,463.87	78.6334	5,463.87	77.4258	5,463.87	72.6705	5,463.87	73.4622	5,463.87	64.8504	5,463.87	73.6235	5,463.87	70.1299	5,463.87	72.4405	5,463.87	64.6689	5,463.87	56.0645	5,463.87	71.5651	5,463.87	71.5217	5,463.87	62.6156	5,463.87	61.4962	5,463.87	60.0837	5,463.87	69.8493	5,463.87	72.2523	5,463.87	67.6029	5,463.87	55.8522
5,657.23	96.6788	5,657.23	96.7749	5,657.23	97.589	5,657.23	95.7957	5,657.23	94.271	5,657.23	92.7203	5,657.23	92.3541	5,657.23	90.0924	5,657.23	88.3241	5,657.23	86.1733	5,657.23	88.9108	5,657.23	85.1996	5,657.23	83.5829	5,657.23	85.9663	5,657.23	82.7222	5,657.23	81.0731	5,657.23	80.1295	5,657.23	77.0052	5,657.23	78.5405	5,657.23	76.7591	5,657.23	73.5666	5,657.23	55.505	5,657.23	71.0499	5,657.23	64.9882	5,657.23	74.0506	5,657.23	57.8892	5,657.23	67.1601	5,657.23	67.471	5,657.23	72.3555	5,657.23	61.2839	5,657.23	65.9225	5,657.23	62.5803	5,657.23	68.5684	5,657.23	71.6554	5,657.23	68.8564	5,657.23	61.8555
5,856.45	96.7281	5,856.45	96.3679	5,856.45	97.5877	5,856.45	95.0687	5,856.45	94.0956	5,856.45	91.2003	5,856.45	92.5576	5,856.45	88.9277	5,856.45	88.329	5,856.45	86.6555	5,856.45	88.6052	5,856.45	85.4786	5,856.45	84.0241	5,856.45	84.0583	5,856.45	80.4968	5,856.45	82.4131	5,856.45	77.7061	5,856.45	76.525	5,856.45	73.3174	5,856.45	71.4957	5,856.45	72.3944	5,856.45	63.3545	5,856.45	76.1949	5,856.45	63.9494	5,856.45	77.3277	5,856.45	61.9827	5,856.45	70.2632	5,856.45	67.8875	5,856.45	70.5679	5,856.45	53.1262	5,856.45	62.7778	5,856.45	56.8313	5,856.45	66.5137	5,856.45	68.863	5,856.45	68.8406	5,856.45	61.4666
6,062.99	96.8897	6,062.99	96.6723	6,062.99	96.8754	6,062.99	95.3885	6,062.99	92.6515	6,062.99	90.5367	6,062.99	92.0577	6,062.99	89.5906	6,062.99	88.722	6,062.99	86.7448	6,062.99	87.1434	6,062.99	83.6501	6,062.99	84.4571	6,062.99	84.283	6,062.99	80.8576	6,062.99	79.2802	6,062.99	80.6269	6,062.99	75.3789	6,062.99	75.2104	6,062.99	71.6139	6,062.99	68.3902	6,062.99	62.7048	6,062.99	76.9144	6,062.99	59.0699	6,062.99	72.9895	6,062.99	59.1737	6,062.99	70.4211	6,062.99	66.3028	6,062.99	65.819	6,062.99	62.6571	6,062.99	61.0355	6,062.99	63.4266	6,062.99	67.0886	6,062.99	64.471	6,062.99	69.4618	6,062.99	62.8148
6,276.86	95.9967	6,276.86	96.6398	6,276.86	97.0708	6,276.86	94.1337	6,276.86	92.9464	6,276.86	91.4098	6,276.86	89.1247	6,276.86	90.1806	6,276.86	90.2574	6,276.86	85.5082	6,276.86	85.1525	6,276.86	84.2709	6,276.86	83.9496	6,276.86	83.7407	6,276.86	81.6601	6,276.86	80.6698	6,276.86	80.7053	6,276.86	75.3311	6,276.86	75.1642	6,276.86	73.0128	6,276.86	71.6626	6,276.86	60.3994	6,276.86	72.8854	6,276.86	57.7152	6,276.86	68.4991	6,276.86	59.3233	6,276.86	65.6626	6,276.86	62.6459	6,276.86	49.0187	6,276.86	65.3402	6,276.86	59.8405	6,276.86	61.1814	6,276.86	62.5963	6,276.86	60.248	6,276.86	65.8762	6,276.86	59.3599
6,498.05	96.0346	6,498.05	96.0345	6,498.05	96.362	6,498.05	93.7028	6,498.05	93.2659	6,498.05	90.4156	6,498.05	88.5154	6,498.05	89.9352	6,498.05	89.6133	6,498.05	86.7002	6,498.05	86.3085	6,498.05	82.9053	6,498.05	83.3924	6,498.05	83.7977	6,498.05	82.7292	6,498.05	79.4507	6,498.05	78.6605	6,498.05	76.8259	6,498.05	74.0973	6,498.05	70.195	6,498.05	73.1951	6,498.05	67.79	6,498.05	73.3198	6,498.05	57.739	6,498.05	71.2386	6,498.05	61.3169	6,498.05	66.3546	6,498.05	58.4646	6,498.05	62.5998	6,498.05	64.898	6,498.05	62.286	6,498.05	56.0142	6,498.05	61.754	6,498.05	64.1903	6,498.05	64.084	6,498.05	62.8334
6,726.56	96.9718	6,726.56	96.5725	6,726.56	96.9525	6,726.56	93.9313	6,726.56	93.2724	6,726.56	89.7887	6,726.56	89.8987	6,726.56	89.8435	6,726.56	89.0033	6,726.56	85.6067	6,726.56	86.07	6,726.56	81.352	6,726.56	83.8051	6,726.56	81.7785	6,726.56	81.5613	6,726.56	79.921	6,726.56	72.6282	6,726.56	74.7477	6,726.56	71.1417	6,726.56	71.1512	6,726.56	68.2179	6,726.56	66.5828	6,726.56	72.0916	6,726.56	62.0461	6,726.56	70.5159	6,726.56	63.7739	6,726.56	66.9534	6,726.56	61.1413	6,726.56	62.5721	6,726.56	66.9575	6,726.56	55.825	6,726.56	61.3906	6,726.56	59.3799	6,726.56	65.5388	6,726.56	65.7339	6,726.56	65.3303
6,963.87	96.72	6,963.87	96.5414	6,963.87	97.0457	6,963.87	93.4943	6,963.87	93.2604	6,963.87	90.1057	6,963.87	90.8751	6,963.87	90.1923	6,963.87	88.3219	6,963.87	86.9663	6,963.87	86.5917	6,963.87	81.4558	6,963.87	84.3163	6,963.87	83.3852	6,963.87	78.5097	6,963.87	79.6783	6,963.87	75.3594	6,963.87	75.539	6,963.87	71.2026	6,963.87	71.9708	6,963.87	68.7	6,963.87	67.6605	6,963.87	73.2767	6,963.87	50.9977	6,963.87	71.9506	6,963.87	58.5469	6,963.87	63.1041	6,963.87	60.4875	6,963.87	65.9101	6,963.87	62.9471	6,963.87	60.2862	6,963.87	62.7385	6,963.87	62.1161	6,963.87	60.2735	6,963.87	65.9774	6,963.87	63.4739
7,209.96	97.3353	7,209.96	96.8914	7,209.96	96.8223	7,209.96	93.6616	7,209.96	93.9633	7,209.96	90.7787	7,209.96	92.0381	7,209.96	90.2329	7,209.96	89.0302	7,209.96	86.8546	7,209.96	86.3233	7,209.96	82.14	7,209.96	85.4524	7,209.96	83.1117	7,209.96	74.2784	7,209.96	80.3689	7,209.96	80.9502	7,209.96	75.2726	7,209.96	74.419	7,209.96	68.8145	7,209.96	55.139	7,209.96	68.685	7,209.96	71.4848	7,209.96	65.5079	7,209.96	72.8889	7,209.96	56.2608	7,209.96	64.4866	7,209.96	61.8436	7,209.96	63.8682	7,209.96	55.2769	7,209.96	61.8665	7,209.96	57.7329	7,209.96	58.6787	7,209.96	51.401	7,209.96	62.92	7,209.96	60.6893
7,464.84	97.2937	7,464.84	96.621	7,464.84	97.4251	7,464.84	93.4048	7,464.84	94.4382	7,464.84	91.567	7,464.84	91.8919	7,464.84	90.3667	7,464.84	89.1852	7,464.84	87.0144	7,464.84	85.7836	7,464.84	81.8417	7,464.84	83.7119	7,464.84	83.1478	7,464.84	81.3376	7,464.84	80.5563	7,464.84	78.9098	7,464.84	73.1225	7,464.84	74.1658	7,464.84	70.4209	7,464.84	70.613	7,464.84	70.8822	7,464.84	72.7831	7,464.84	61.4661	7,464.84	73.1523	7,464.84	50.084	7,464.84	69.3002	7,464.84	60.378	7,464.84	60.346	7,464.84	58.4555	7,464.84	48.3708	7,464.84	61.4188	7,464.84	60.0369	7,464.84	59.1906	7,464.84	62.6607	7,464.84	61.9993
7,727.05	96.8795	7,727.05	96.2705	7,727.05	97.0338	7,727.05	92.6206	7,727.05	94.5019	7,727.05	90.9716	7,727.05	92.0919	7,727.05	89.9252	7,727.05	88.6192	7,727.05	86.688	7,727.05	87.5077	7,727.05	81.6146	7,727.05	78.5298	7,727.05	83.2327	7,727.05	84.1109	7,727.05	80.5651	7,727.05	76.5157	7,727.05	73.9987	7,727.05	75.1991	7,727.05	66.8548	7,727.05	63.561	7,727.05	72.2963	7,727.05	74.1385	7,727.05	63.6546	7,727.05	79.0465	7,727.05	61.6054	7,727.05	72.8013	7,727.05	51.8921	7,727.05	63.7456	7,727.05	64.526	7,727.05	61.3102	7,727.05	63.7048	7,727.05	62.8537	7,727.05	63.07	7,727.05	61.5853	7,727.05	61.7302
7,999.51	96.9849	7,999.51	96.0811	7,999.51	97.0222	7,999.51	92.1744	7,999.51	93.1033	7,999.51	91.6788	7,999.51	91.4721	7,999.51	89.9481	7,999.51	87.9993	7,999.51	86.5651	7,999.51	87.1761	7,999.51	80.6427	7,999.51	81.2423	7,999.51	81.3335	7,999.51	82.728	7,999.51	81.843	7,999.51	74.7166	7,999.51	70.0693	7,999.51	58.2763	7,999.51	74.3649	7,999.51	67.0775	7,999.51	64.6291	7,999.51	76.7264	7,999.51	64.2054	7,999.51	77.9037	7,999.51	61.7428	7,999.51	69.557	7,999.51	48.0721	7,999.51	63.2294	7,999.51	68.5273	7,999.51	48.1314	7,999.51	62.9718	7,999.51	57.7951	7,999.51	62.5786	7,999.51	49.9339	7,999.51	60.0343
8,282.23	96.7653	8,282.23	95.2628	8,282.23	96.0436	8,282.23	92.6251	8,282.23	92.5681	8,282.23	91.274	8,282.23	91.7241	8,282.23	88.3569	8,282.23	87.4911	8,282.23	85.8879	8,282.23	85.2341	8,282.23	81.4852	8,282.23	84.9719	8,282.23	81.5894	8,282.23	73.2302	8,282.23	81.1161	8,282.23	75.5505	8,282.23	72.6685	8,282.23	73.983	8,282.23	71.4859	8,282.23	58.0588	8,282.23	72.2106	8,282.23	74.1517	8,282.23	61.6994	8,282.23	78.5276	8,282.23	60.5293	8,282.23	72.6718	8,282.23	55.9437	8,282.23	64.8703	8,282.23	65.3047	8,282.23	63.1741	8,282.23	62.8624	8,282.23	55.7939	8,282.23	59.7837	8,282.23	60.1209	8,282.23	63.6217
8,573.73	97.3041	8,573.73	95.6579	8,573.73	96.3232	8,573.73	92.717	8,573.73	93.4948	8,573.73	91.0875	8,573.73	90.1503	8,573.73	87.8814	8,573.73	87.8712	8,573.73	85.0573	8,573.73	82.9785	8,573.73	80.8689	8,573.73	83.9085	8,573.73	81.5229	8,573.73	74.4219	8,573.73	80.8421	8,573.73	75.5696	8,573.73	76.0331	8,573.73	72.6937	8,573.73	72.0344	8,573.73	61.1371	8,573.73	52.2421	8,573.73	75.7243	8,573.73	64.7101	8,573.73	81.3801	8,573.73	61.8962	8,573.73	74.5483	8,573.73	54.6045	8,573.73	67.508	8,573.73	66.0317	8,573.73	57.7043	8,573.73	62.3959	8,573.73	59.0385	8,573.73	62.2387	8,573.73	62.3831	8,573.73	63.7139
8,876.95	96.9075	8,876.95	95.8517	8,876.95	96.604	8,876.95	92.6769	8,876.95	93.8304	8,876.95	90.1991	8,876.95	87.3509	8,876.95	87.192	8,876.95	87.8153	8,876.95	84.6965	8,876.95	81.2093	8,876.95	80.3127	8,876.95	79.5042	8,876.95	80.0352	8,876.95	81.3314	8,876.95	81.3565	8,876.95	74.3157	8,876.95	73.7578	8,876.95	72.3685	8,876.95	70.626	8,876.95	60.9063	8,876.95	70.1305	8,876.95	76.5776	8,876.95	57.9792	8,876.95	81.9829	8,876.95	56.7888	8,876.95	76.7465	8,876.95	61.5126	8,876.95	66.1488	8,876.95	65.5092	8,876.95	53.5104	8,876.95	45.4685	8,876.95	58.637	8,876.95	67.0427	8,876.95	62.0238	8,876.95	60.7896
9,188.96	97.3205	9,188.96	95.9804	9,188.96	96.0135	9,188.96	92.8404	9,188.96	93.2557	9,188.96	88.959	9,188.96	89.0719	9,188.96	85.8796	9,188.96	87.1296	9,188.96	84.7598	9,188.96	84.1682	9,188.96	80.9105	9,188.96	74.4648	9,188.96	79.5695	9,188.96	78.7776	9,188.96	80.3134	9,188.96	75.6137	9,188.96	73.0861	9,188.96	69.2321	9,188.96	66.0338	9,188.96	60.9002	9,188.96	67.5162	9,188.96	78.2898	9,188.96	62.6802	9,188.96	83.5618	9,188.96	56.9962	9,188.96	78.3159	9,188.96	62.9477	9,188.96	65.056	9,188.96	65.0962	9,188.96	61.9535	9,188.96	50.0745	9,188.96	59.2046	9,188.96	64.181	9,188.96	61.0261	9,188.96	63.1441
9,514.16	96.9604	9,514.16	95.5653	9,514.16	95.8458	9,514.16	92.8399	9,514.16	93.2918	9,514.16	89.4693	9,514.16	90.6211	9,514.16	85.4584	9,514.16	86.7469	9,514.16	85.2234	9,514.16	83.7655	9,514.16	81.1294	9,514.16	79.2238	9,514.16	78.2543	9,514.16	78.022	9,514.16	80.7444	9,514.16	72.7474	9,514.16	76.4781	9,514.16	72.1015	9,514.16	70.2582	9,514.16	63.8761	9,514.16	69.8402	9,514.16	77.1384	9,514.16	59.1832	9,514.16	83.2773	9,514.16	64.8955	9,514.16	77.9613	9,514.16	66.0893	9,514.16	64.3127	9,514.16	64.5875	9,514.16	62.7723	9,514.16	57.86	9,514.16	60.927	9,514.16	60.0942	9,514.16	54.7357	9,514.16	62.2681
9,849.61	96.9538	9,849.61	95.6678	9,849.61	96.1011	9,849.61	92.9074	9,849.61	93.0374	9,849.61	89.11	9,849.61	90.4177	9,849.61	84.8474	9,849.61	85.9337	9,849.61	84.786	9,849.61	80.1674	9,849.61	80.2896	9,849.61	81.4852	9,849.61	77.9239	9,849.61	74.909	9,849.61	78.9487	9,849.61	73.4425	9,849.61	74.3525	9,849.61	72.7782	9,849.61	72.0414	9,849.61	70.1259	9,849.61	64.7581	9,849.61	76.5491	9,849.61	61.9341	9,849.61	83.6517	9,849.61	60.7207	9,849.61	78.3628	9,849.61	64.4116	9,849.61	67.4032	9,849.61	60.543	9,849.61	66.3665	9,849.61	62.2698	9,849.61	61.0126	9,849.61	61.0791	9,849.61	58.9197	9,849.61	60.0125
10,196.8	97.0813	10,196.8	95.6548	10,196.8	95.8918	10,196.8	92.6612	10,196.8	93.255	10,196.8	89.2772	10,196.8	89.9403	10,196.8	84.1647	10,196.8	83.5203	10,196.8	84.6049	10,196.8	80.5471	10,196.8	80.5518	10,196.8	82.1139	10,196.8	78.1493	10,196.8	78.3058	10,196.8	79.5542	10,196.8	73.3992	10,196.8	73.0418	10,196.8	71.8552	10,196.8	66.3266	10,196.8	74.0423	10,196.8	65.4412	10,196.8	77.3623	10,196.8	53.3369	10,196.8	83.9267	10,196.8	62.6438	10,196.8	79.9401	10,196.8	63.3618	10,196.8	69.9454	10,196.8	58.092	10,196.8	61.087	10,196.8	63.2914	10,196.8	52.5189	10,196.8	59.8286	10,196.8	58.0761	10,196.8	62.3257
10,555.7	97.1792	10,555.7	95.4609	10,555.7	95.6179	10,555.7	93.1183	10,555.7	92.8601	10,555.7	89.9753	10,555.7	89.4219	10,555.7	84.4917	10,555.7	84.4554	10,555.7	84.8812	10,555.7	82.8859	10,555.7	81.1165	10,555.7	81.0667	10,555.7	76.285	10,555.7	78.6819	10,555.7	79.1006	10,555.7	73.6713	10,555.7	74.5092	10,555.7	73.86	10,555.7	70.8505	10,555.7	67.2117	10,555.7	64.3282	10,555.7	76.6589	10,555.7	57.9957	10,555.7	85.299	10,555.7	65.4178	10,555.7	81.5104	10,555.7	56.3323	10,555.7	69.0283	10,555.7	54.8403	10,555.7	64.8027	10,555.7	60.4289	10,555.7	59.3256	10,555.7	59.9669	10,555.7	59.0961	10,555.7	63.4019
10,927.7	97.5673	10,927.7	95.9185	10,927.7	96.4896	10,927.7	93.7461	10,927.7	92.4826	10,927.7	90.4612	10,927.7	88.7668	10,927.7	85.0937	10,927.7	85.8329	10,927.7	84.9168	10,927.7	84.5646	10,927.7	80.2972	10,927.7	79.9998	10,927.7	76.6861	10,927.7	77.5883	10,927.7	78.8135	10,927.7	69.7547	10,927.7	73.8332	10,927.7	70.6221	10,927.7	67.8068	10,927.7	69.8159	10,927.7	65.2196	10,927.7	78.1347	10,927.7	52.7198	10,927.7	85.3745	10,927.7	64.5554	10,927.7	81.9885	10,927.7	53.4366	10,927.7	67.2577	10,927.7	59.7425	10,927.7	61.4976	10,927.7	55.4574	10,927.7	57.2491	10,927.7	63.4787	10,927.7	57.2208	10,927.7	64.261
11,313	97.5046	11,313	96.4764	11,313	96.1301	11,313	94.2441	11,313	93.328	11,313	89.9683	11,313	89.0744	11,313	84.5848	11,313	85.3428	11,313	83.8702	11,313	84.2953	11,313	79.3986	11,313	80.8044	11,313	76.7979	11,313	73.9272	11,313	78.5163	11,313	69.6507	11,313	74.5178	11,313	66.2785	11,313	68.9081	11,313	72.0573	11,313	59.0924	11,313	79.6299	11,313	56.6477	11,313	85.1746	11,313	63.1706	11,313	81.2598	11,313	46.5434	11,313	67.8293	11,313	64.3764	11,313	61.2678	11,313	49.1535	11,313	62.0866	11,313	62.248	11,313	45.8395	11,313	61.5352
11,712.9	97.9785	11,712.9	96.5329	11,712.9	96.6861	11,712.9	94.5695	11,712.9	93.9599	11,712.9	89.5859	11,712.9	90.1418	11,712.9	84.612	11,712.9	85.703	11,712.9	83.8256	11,712.9	83.7443	11,712.9	78.3845	11,712.9	78.4863	11,712.9	73.8965	11,712.9	74.519	11,712.9	77.4759	11,712.9	71.7829	11,712.9	73.1368	11,712.9	68.9533	11,712.9	66.6813	11,712.9	72.0751	11,712.9	60.4148	11,712.9	78.3253	11,712.9	56.6516	11,712.9	84.6999	11,712.9	63.153	11,712.9	80.5461	11,712.9	57.2132	11,712.9	69.6558	11,712.9	61.0326	11,712.9	63.095	11,712.9	59.0297	11,712.9	60.7357	11,712.9	58.4261	11,712.9	47.1636	11,712.9	55.7295
12,126	97.7194	12,126	96.2801	12,126	96.6663	12,126	94.4227	12,126	94.1984	12,126	89.746	12,126	90.2415	12,126	85.2565	12,126	85.6551	12,126	83.3375	12,126	82.0366	12,126	77.7652	12,126	78.4618	12,126	73.7431	12,126	76.8316	12,126	75.5973	12,126	72.318	12,126	70.6637	12,126	68.4542	12,126	66.6196	12,126	74.0934	12,126	55.2886	12,126	77.837	12,126	52.0288	12,126	84.2328	12,126	64.873	12,126	80.4233	12,126	61.22	12,126	69.1931	12,126	45.1779	12,126	63.1054	12,126	60.2198	12,126	55.2835	12,126	58.8101	12,126	51.7347	12,126	60.4113
12,553.7	97.5659	12,553.7	96.1542	12,553.7	96.1669	12,553.7	94.1046	12,553.7	93.9274	12,553.7	89.5987	12,553.7	89.9001	12,553.7	85.9789	12,553.7	85.5879	12,553.7	82.1207	12,553.7	79.2708	12,553.7	76.8835	12,553.7	78.3227	12,553.7	73.6933	12,553.7	79.0902	12,553.7	74.9339	12,553.7	70.4918	12,553.7	71.0063	12,553.7	65.2933	12,553.7	67.186	12,553.7	69.2437	12,553.7	60.0221	12,553.7	76.6399	12,553.7	51.4814	12,553.7	83.3491	12,553.7	61.6408	12,553.7	78.7962	12,553.7	60.4891	12,553.7	67.1024	12,553.7	56.6491	12,553.7	62.5213	12,553.7	57.857	12,553.7	63.0939	12,553.7	60.2941	12,553.7	58.7154	12,553.7	55.4519
12,996.1	97.1969	12,996.1	95.6123	12,996.1	95.8336	12,996.1	93.6526	12,996.1	93.6864	12,996.1	89.691	12,996.1	89.0101	12,996.1	86.3595	12,996.1	85.8346	12,996.1	81.8553	12,996.1	81.4635	12,996.1	76.7728	12,996.1	77.6716	12,996.1	74.1984	12,996.1	75.4656	12,996.1	71.858	12,996.1	72.4046	12,996.1	69.0111	12,996.1	66.7993	12,996.1	59.8956	12,996.1	68.9606	12,996.1	47.389	12,996.1	73.9909	12,996.1	50.3721	12,996.1	81.888	12,996.1	55.2021	12,996.1	76.4666	12,996.1	58.168	12,996.1	67.1642	12,996.1	59.8875	12,996.1	63.8726	12,996.1	57.4209	12,996.1	62.391	12,996.1	56.5328	12,996.1	60.1071	12,996.1	54.6482
13,454.6	96.5926	13,454.6	95.6069	13,454.6	95.3347	13,454.6	93.8482	13,454.6	93.3777	13,454.6	89.6132	13,454.6	89.1626	13,454.6	86.0084	13,454.6	85.5944	13,454.6	80.6374	13,454.6	81.2342	13,454.6	77.143	13,454.6	79.4468	13,454.6	75.0681	13,454.6	75.5435	13,454.6	69.7417	13,454.6	71.823	13,454.6	67.0135	13,454.6	63.3854	13,454.6	60.9924	13,454.6	66.0694	13,454.6	56.7313	13,454.6	71.8437	13,454.6	56.5573	13,454.6	79.7953	13,454.6	61.6562	13,454.6	73.4234	13,454.6	60.803	13,454.6	65.5556	13,454.6	60.9116	13,454.6	58.593	13,454.6	57.57	13,454.6	59.4776	13,454.6	60.5285	13,454.6	58.7851	13,454.6	52.0733
13,929.2	95.7641	13,929.2	95.5254	13,929.2	95.0462	13,929.2	93.6528	13,929.2	93.3656	13,929.2	88.8336	13,929.2	88.9765	13,929.2	85.3046	13,929.2	84.5569	13,929.2	80.0029	13,929.2	78.2487	13,929.2	77.0697	13,929.2	77.9806	13,929.2	73.4596	13,929.2	73.6757	13,929.2	68.0322	13,929.2	66.8451	13,929.2	66.2686	13,929.2	63.9671	13,929.2	58.8403	13,929.2	65.6793	13,929.2	45.2948	13,929.2	71.266	13,929.2	46.9156	13,929.2	77.2219	13,929.2	54.8826	13,929.2	69.2887	13,929.2	56.6508	13,929.2	63.8999	13,929.2	59.6701	13,929.2	58.5718	13,929.2	60.8263	13,929.2	61.6498	13,929.2	60.426	13,929.2	60.4166	13,929.2	52.2211
14,419.9	95.6111	14,419.9	95.518	14,419.9	94.9496	14,419.9	93.3144	14,419.9	92.5496	14,419.9	87.9723	14,419.9	87.8388	14,419.9	83.1193	14,419.9	80.6314	14,419.9	77.7903	14,419.9	77.7777	14,419.9	75.2749	14,419.9	70.9928	14,419.9	70.7703	14,419.9	72.6694	14,419.9	62.8968	14,419.9	67.6747	14,419.9	64.2352	14,419.9	52.4232	14,419.9	50.2401	14,419.9	59.8319	14,419.9	48.5719	14,419.9	70.4663	14,419.9	49.5797	14,419.9	75.845	14,419.9	43.3331	14,419.9	68.5646	14,419.9	49.4464	14,419.9	61.0815	14,419.9	56.4593	14,419.9	57.9351	14,419.9	59.896	14,419.9	61.208	14,419.9	55.8847	14,419.9	61.5524	14,419.9	49.2153
14,928.2	95.9688	14,928.2	95.7572	14,928.2	94.9038	14,928.2	93.0597	14,928.2	91.9521	14,928.2	87.311	14,928.2	87.268	14,928.2	80.3355	14,928.2	81.5316	14,928.2	75.7243	14,928.2	74.7523	14,928.2	72.2366	14,928.2	75.182	14,928.2	63.1535	14,928.2	68.6055	14,928.2	50.1011	14,928.2	66.6273	14,928.2	58.5918	14,928.2	61.853	14,928.2	42.7955	14,928.2	49.9346	14,928.2	51.4104	14,928.2	65.6132	14,928.2	46.6346	14,928.2	73.9132	14,928.2	50.5393	14,928.2	66.6768	14,928.2	37.7345	14,928.2	59.6341	14,928.2	50.6635	14,928.2	57.4032	14,928.2	56.2029	14,928.2	61.5986	14,928.2	59.5545	14,928.2	59.2653	14,928.2	47.9486
15,455.6	95.9549	15,455.6	95.8935	15,455.6	95.1255	15,455.6	93.0986	15,455.6	91.9642	15,455.6	87.5834	15,455.6	86.8429	15,455.6	78.8743	15,455.6	80.5236	15,455.6	76.8246	15,455.6	74.3351	15,455.6	70.7671	15,455.6	74.0685	15,455.6	67.1554	15,455.6	69.6286	15,455.6	61.3945	15,455.6	63.426	15,455.6	57.1297	15,455.6	55.1483	15,455.6	45.4205	15,455.6	46.29	15,455.6	51.1392	15,455.6	65.0843	15,455.6	46.8135	15,455.6	73.0821	15,455.6	50.4321	15,455.6	66.5768	15,455.6	45.4801	15,455.6	58.3209	15,455.6	49.9758	15,455.6	55.7748	15,455.6	48.4831	15,455.6	59.3329	15,455.6	53.7592	15,455.6	55.6096	15,455.6	48.8146
16,000.5	95.6468	16,000.5	96.0459	16,000.5	95.293	16,000.5	93.129	16,000.5	92.2726	16,000.5	87.2854	16,000.5	86.7669	16,000.5	77.9787	16,000.5	78.4806	16,000.5	78.5142	16,000.5	74.764	16,000.5	71.5227	16,000.5	70.8852	16,000.5	71.1613	16,000.5	69.883	16,000.5	64.7898	16,000.5	68.6378	16,000.5	58.8772	16,000.5	61.0528	16,000.5	50.6491	16,000.5	53.3589	16,000.5	55.063	16,000.5	64.0039	16,000.5	48.2164	16,000.5	73.8179	16,000.5	51.5281	16,000.5	67.7658	16,000.5	47.4832	16,000.5	54.726	16,000.5	55.2936	16,000.5	53.7154	16,000.5	50.9824	16,000.5	54.7913	16,000.5	54.9496	16,000.5	53.067	16,000.5	46.2663
16,564.5	96.2759	16,564.5	96.3133	16,564.5	95.7639	16,564.5	92.4028	16,564.5	91.8809	16,564.5	85.0135	16,564.5	86.0072	16,564.5	78.1219	16,564.5	78.7048	16,564.5	78.9261	16,564.5	75.5545	16,564.5	73.2645	16,564.5	72.6475	16,564.5	71.5251	16,564.5	69.0774	16,564.5	63.9117	16,564.5	65.827	16,564.5	58.8842	16,564.5	60.5919	16,564.5	48.7513	16,564.5	59.5414	16,564.5	45.5796	16,564.5	64.277	16,564.5	47.3384	16,564.5	73.7412	16,564.5	51.6122	16,564.5	69.757	16,564.5	46.887	16,564.5	50.6307	16,564.5	53.5062	16,564.5	53.3913	16,564.5	54.6206	16,564.5	57.0515	16,564.5	56.4231	16,564.5	48.5535	16,564.5	24.6409
17,148.9	97.7841	17,148.9	96.108	17,148.9	95.9333	17,148.9	90.3842	17,148.9	90.9731	17,148.9	83.6527	17,148.9	84.9455	17,148.9	79.3333	17,148.9	79.4557	17,148.9	77.3536	17,148.9	74.2199	17,148.9	72.3057	17,148.9	69.3897	17,148.9	68.6442	17,148.9	67.0256	17,148.9	60.1709	17,148.9	62.3303	17,148.9	56.6254	17,148.9	51.9007	17,148.9	35.923	17,148.9	56.8527	17,148.9	46.4762	17,148.9	66.9907	17,148.9	49.259	17,148.9	75.175	17,148.9	52.7702	17,148.9	71.5605	17,148.9	43.1051	17,148.9	52.6253	17,148.9	49.4322	17,148.9	54.0626	17,148.9	46.9808	17,148.9	56.6067	17,148.9	50.7271	17,148.9	48.8654	17,148.9	46.3516
17,752.4	97.7552	17,752.4	95.309	17,752.4	95.3181	17,752.4	89.1562	17,752.4	89.9733	17,752.4	84.2568	17,752.4	84.7666	17,752.4	78.9598	17,752.4	79.506	17,752.4	74.9146	17,752.4	70.7065	17,752.4	69.243	17,752.4	64.9834	17,752.4	64.9198	17,752.4	58.429	17,752.4	55.7606	17,752.4	53.1705	17,752.4	48.2873	17,752.4	50.1546	17,752.4	24.7888	17,752.4	57.1807	17,752.4	49.3521	17,752.4	67.4772	17,752.4	50.1773	17,752.4	75.7446	17,752.4	51.7526	17,752.4	72.4279	17,752.4	43.0875	17,752.4	55.9727	17,752.4	51.7462	17,752.4	51.7966	17,752.4	44.0596	17,752.4	55.8933	17,752.4	46.4021	17,752.4	48.0614	17,752.4	48.1325
18,379.4	97.3092	18,379.4	94.0338	18,379.4	94.6569	18,379.4	87.7388	18,379.4	89.6892	18,379.4	83.6473	18,379.4	84.4519	18,379.4	77.7215	18,379.4	77.5052	18,379.4	73.1806	18,379.4	67.1597	18,379.4	66.6753	18,379.4	61.6348	18,379.4	60.9847	18,379.4	54.6013	18,379.4	48.0899	18,379.4	48.1347	18,379.4	44.8815	18,379.4	34.7213	18,379.4	29.6024	18,379.4	48.9832	18,379.4	43.4569	18,379.4	66.9064	18,379.4	47.4068	18,379.4	75.3865	18,379.4	51.9226	18,379.4	71.9565	18,379.4	49.3177	18,379.4	55.3454	18,379.4	53.06	18,379.4	50.2723	18,379.4	48.7591	18,379.4	52.5865	18,379.4	50.0539	18,379.4	43.087	18,379.4	44.1683
19,026.9	96.2332	19,026.9	92.5747	19,026.9	93.8797	19,026.9	87.35	19,026.9	89.4792	19,026.9	83.655	19,026.9	84.1106	19,026.9	76.2644	19,026.9	75.2496	19,026.9	71.2377	19,026.9	66.0431	19,026.9	65.1497	19,026.9	61.2877	19,026.9	58.273	19,026.9	57.0032	19,026.9	45.4463	19,026.9	50.7372	19,026.9	47.8174	19,026.9	48.5186	19,026.9	37.5425	19,026.9	52.6862	19,026.9	38.64	19,026.9	66.1003	19,026.9	43.4315	19,026.9	74.7756	19,026.9	51.074	19,026.9	71.3106	19,026.9	49.8141	19,026.9	54.4431	19,026.9	52.5022	19,026.9	45.822	19,026.9	48.9548	19,026.9	45.4001	19,026.9	49.8536	19,026.9	30.234	19,026.9	39.118
19,697.8	94.9311	19,697.8	91.2317	19,697.8	93.4032	19,697.8	87.2738	19,697.8	89.3495	19,697.8	83.3242	19,697.8	81.9331	19,697.8	75.4067	19,697.8	71.7424	19,697.8	70.5446	19,697.8	66.7789	19,697.8	64.706	19,697.8	65.5453	19,697.8	59.4357	19,697.8	62.0815	19,697.8	47.3094	19,697.8	57.7707	19,697.8	45.2503	19,697.8	48.142	19,697.8	45.4912	19,697.8	50.76	19,697.8	42.6666	19,697.8	65.222	19,697.8	38.8289	19,697.8	73.5627	19,697.8	48.782	19,697.8	70.2192	19,697.8	50.7391	19,697.8	50.0556	19,697.8	55.4112	19,697.8	34.7517	19,697.8	52.4009	19,697.8	23.305	19,697.8	51.0058	19,697.8	47.5012	19,697.8	34.9603
19,999.5	94.3252	19,999.5	90.2012	19,999.5	93.3886	19,999.5	87.2207	19,999.5	88.759	19,999.5	83.2879	19,999.5	80.7462	19,999.5	76.9844	19,999.5	70.2883	19,999.5	68.7953	19,999.5	65.1833	19,999.5	64.1962	19,999.5	67.1289	19,999.5	61.7452	19,999.5	62.5498	19,999.5	53.2651	19,999.5	58.5381	19,999.5	49.3741	19,999.5	55.8113	19,999.5	52.2713	19,999.5	55.8099	19,999.5	53.4678	19,999.5	66.5355	19,999.5	53.2589	19,999.5	72.7056	19,999.5	49.7182	19,999.5	70.0061	19,999.5	56.1705	19,999.5	53.8136	19,999.5	62.0705	19,999.5	44.5625	19,999.5	58.0116	19,999.5	55.3159	19,999.5	56.1303	19,999.5	54.6799	19,999.5	45.6595
