"SPL Horizontal"																																																																							
"On-Axis"		"10°"		"-10°"		"20°"		"-20°"		"30°"		"-30°"		"40°"		"-40°"		"50°"		"-50°"		"60°"		"-60°"		"70°"		"-70°"		"80°"		"-80°"		"90°"		"-90°"		"100°"		"-100°"		"110°"		"-110°"		"120°"		"-120°"		"130°"		"-130°"		"140°"		"-140°"		"150°"		"-150°"		"160°"		"-160°"		"170°"		"-170°"		"180°"	
"Frequency [Hz]"	"Sound Pessure Level [dB]  / [2.83V 1m] "	"Frequency [Hz]"	"Sound Pessure Level [dB]  / [2.83V 1m] "	"Frequency [Hz]"	"Sound Pessure Level [dB]  / [2.83V 1m] "	"Frequency [Hz]"	"Sound Pessure Level [dB]  / [2.83V 1m] "	"Frequency [Hz]"	"Sound Pessure Level [dB]  / [2.83V 1m] "	"Frequency [Hz]"	"Sound Pessure Level [dB]  / [2.83V 1m] "	"Frequency [Hz]"	"Sound Pessure Level [dB]  / [2.83V 1m] "	"Frequency [Hz]"	"Sound Pessure Level [dB]  / [2.83V 1m] "	"Frequency [Hz]"	"Sound Pessure Level [dB]  / [2.83V 1m] "	"Frequency [Hz]"	"Sound Pessure Level [dB]  / [2.83V 1m] "	"Frequency [Hz]"	"Sound Pessure Level [dB]  / [2.83V 1m] "	"Frequency [Hz]"	"Sound Pessure Level [dB]  / [2.83V 1m] "	"Frequency [Hz]"	"Sound Pessure Level [dB]  / [2.83V 1m] "	"Frequency [Hz]"	"Sound Pessure Level [dB]  / [2.83V 1m] "	"Frequency [Hz]"	"Sound Pessure Level [dB]  / [2.83V 1m] "	"Frequency [Hz]"	"Sound Pessure Level [dB]  / [2.83V 1m] "	"Frequency [Hz]"	"Sound Pessure Level [dB]  / [2.83V 1m] "	"Frequency [Hz]"	"Sound Pessure Level [dB]  / [2.83V 1m] "	"Frequency [Hz]"	"Sound Pessure Level [dB]  / [2.83V 1m] "	"Frequency [Hz]"	"Sound Pessure Level [dB]  / [2.83V 1m] "	"Frequency [Hz]"	"Sound Pessure Level [dB]  / [2.83V 1m] "	"Frequency [Hz]"	"Sound Pessure Level [dB]  / [2.83V 1m] "	"Frequency [Hz]"	"Sound Pessure Level [dB]  / [2.83V 1m] "	"Frequency [Hz]"	"Sound Pessure Level [dB]  / [2.83V 1m] "	"Frequency [Hz]"	"Sound Pessure Level [dB]  / [2.83V 1m] "	"Frequency [Hz]"	"Sound Pessure Level [dB]  / [2.83V 1m] "	"Frequency [Hz]"	"Sound Pessure Level [dB]  / [2.83V 1m] "	"Frequency [Hz]"	"Sound Pessure Level [dB]  / [2.83V 1m] "	"Frequency [Hz]"	"Sound Pessure Level [dB]  / [2.83V 1m] "	"Frequency [Hz]"	"Sound Pessure Level [dB]  / [2.83V 1m] "	"Frequency [Hz]"	"Sound Pessure Level [dB]  / [2.83V 1m] "	"Frequency [Hz]"	"Sound Pessure Level [dB]  / [2.83V 1m] "	"Frequency [Hz]"	"Sound Pessure Level [dB]  / [2.83V 1m] "	"Frequency [Hz]"	"Sound Pessure Level [dB]  / [2.83V 1m] "	"Frequency [Hz]"	"Sound Pessure Level [dB]  / [2.83V 1m] "	"Frequency [Hz]"	"Sound Pessure Level [dB]  / [2.83V 1m] "
20.5078	49.0364	20.5078	48.867	20.5078	49.1247	20.5078	48.6115	20.5078	49.1364	20.5078	48.2638	20.5078	49.0748	20.5078	47.8176	20.5078	48.9423	20.5078	47.2676	20.5078	48.7404	20.5078	46.611	20.5078	48.4702	20.5078	45.8522	20.5078	48.1326	20.5078	45.0097	20.5078	47.7298	20.5078	44.1274	20.5078	47.2665	20.5078	43.2875	20.5078	46.753	20.5078	42.6102	20.5078	46.2073	20.5078	42.2168	20.5078	45.6581	20.5078	42.1555	20.5078	45.1423	20.5078	42.3628	20.5078	44.697	20.5078	42.7098	20.5078	44.3447	20.5078	43.0783	20.5078	44.0796	20.5078	43.3993	20.5078	43.8666	20.5078	43.655
21.2402	46.7861	21.2402	46.6022	21.2402	46.8251	21.2402	46.2657	21.2402	46.7215	21.2402	45.7636	21.2402	46.4726	21.2402	45.0768	21.2402	46.0702	21.2402	44.1796	21.2402	45.5001	21.2402	43.0413	21.2402	44.741	21.2402	41.6355	21.2402	43.7643	21.2402	39.9754	21.2402	42.5354	21.2402	38.2323	21.2402	41.0257	21.2402	36.9681	21.2402	39.2618	21.2402	36.963	21.2402	37.4846	21.2402	38.1121	21.2402	36.4166	21.2402	39.5857	21.2402	36.8073	21.2402	40.8723	21.2402	38.2172	21.2402	41.8158	21.2402	39.7603	21.2402	42.3904	21.2402	41.0292	21.2402	42.5996	21.2402	41.9263	21.2402	42.4465
21.9727	45.1677	21.9727	44.8754	21.9727	45.2583	21.9727	44.3641	21.9727	45.1524	21.9727	43.601	21.9727	44.8446	21.9727	42.531	21.9727	44.3169	21.9727	41.062	21.9727	43.537	21.9727	39.0366	21.9727	42.4511	21.9727	36.1877	21.9727	40.9756	21.9727	32.2848	21.9727	38.9881	21.9727	29.9766	21.9727	36.3777	21.9727	33.5625	21.9727	33.5877	21.9727	37.4023	21.9727	33.2699	21.9727	40.1623	21.9727	36.0513	21.9727	42.1347	21.9727	38.9703	21.9727	43.5418	21.9727	41.2313	21.9727	44.5068	21.9727	42.8943	21.9727	45.0966	21.9727	44.0738	21.9727	45.345	21.9727	44.8482	21.9727	45.2641
22.7051	47.597	22.7051	47.3654	22.7051	47.6725	22.7051	46.968	22.7051	47.5961	22.7051	46.3881	22.7051	47.3665	22.7051	45.6019	22.7051	46.9772	22.7051	44.5773	22.7051	46.4168	22.7051	43.2782	22.7051	45.6693	22.7051	41.6859	22.7051	44.7183	22.7051	39.8847	22.7051	43.5576	22.7051	38.3163	22.7051	42.2262	22.7051	37.9394	22.7051	40.8942	22.7051	39.0873	22.7051	39.9801	22.7051	40.8494	22.7051	39.993	22.7051	42.4969	22.7051	40.9181	22.7051	43.807	22.7051	42.2222	22.7051	44.7511	22.7051	43.4682	22.7051	45.3447	22.7051	44.4678	22.7051	45.6052	22.7051	45.1637	22.7051	45.5435
23.4375	47.066	23.4375	46.8682	23.4375	47.0967	23.4375	46.4975	23.4375	46.9632	23.4375	45.9454	23.4375	46.6653	23.4375	45.2048	23.4375	46.2018	23.4375	44.2807	23.4375	45.5756	23.4375	43.2188	23.4375	44.8043	23.4375	42.1674	23.4375	43.9435	23.4375	41.4537	23.4375	43.1276	23.4375	41.4833	23.4375	42.5989	23.4375	42.3295	23.4375	42.6244	23.4375	43.6287	23.4375	43.2643	23.4375	44.9912	23.4375	44.2998	23.4375	46.2088	23.4375	45.445	23.4375	47.2033	23.4375	46.509	23.4375	47.9529	23.4375	47.3983	23.4375	48.456	23.4375	48.0742	23.4375	48.7161	23.4375	48.5223	23.4375	48.7372
24.1699	49.0158	24.1699	48.7984	24.1699	49.0859	24.1699	48.4255	24.1699	49.0113	24.1699	47.8833	24.1699	48.79	24.1699	47.1507	24.1699	48.4146	24.1699	46.1988	24.1699	47.8722	24.1699	44.9897	24.1699	47.1434	24.1699	43.4821	24.1699	46.2019	24.1699	41.6615	24.1699	45.016	24.1699	39.6655	24.1699	43.5587	24.1699	38.1186	24.1699	41.8485	24.1699	38.0821	24.1699	40.0828	24.1699	39.4594	24.1699	38.8842	24.1699	41.1561	24.1699	39.0247	24.1699	42.59	24.1699	40.2645	24.1699	43.6264	24.1699	41.7436	24.1699	44.261	24.1699	42.992	24.1699	44.5098	24.1699	43.8778	24.1699	44.3823
25.6348	45.4826	25.6348	45.2228	25.6348	45.4877	25.6348	44.6958	25.6348	45.2375	25.6348	43.8776	25.6348	44.7179	25.6348	42.7413	25.6348	43.9017	25.6348	41.2965	25.6348	42.7543	25.6348	39.7407	25.6348	41.2673	25.6348	38.8064	25.6348	39.602	25.6348	39.4878	25.6348	38.4866	25.6348	41.4457	25.6348	39.0839	25.6348	43.6333	25.6348	41.1192	25.6348	45.5764	25.6348	43.4074	25.6348	47.1834	25.6348	45.424	25.6348	48.4678	25.6348	47.0803	25.6348	49.4591	25.6348	48.3981	25.6348	50.182	25.6348	49.4128	25.6348	50.6539	25.6348	50.1527	25.6348	50.8849	25.6348	50.6377	25.6348	50.8798
26.3672	48.7399	26.3672	48.4889	26.3672	48.7944	26.3672	48.0281	26.3672	48.6563	26.3672	47.3324	26.3672	48.3204	26.3672	46.3619	26.3672	47.7724	26.3672	45.0586	26.3672	46.9889	26.3672	43.3508	26.3672	45.938	26.3672	41.2114	26.3672	44.5897	26.3672	38.9967	26.3672	42.9607	26.3672	38.2532	26.3672	41.2777	26.3672	39.9934	26.3672	40.2996	26.3672	42.5071	26.3672	40.9086	26.3672	44.7019	26.3672	42.6595	26.3672	46.4181	26.3672	44.5723	26.3672	47.7018	26.3672	46.2196	26.3672	48.6108	26.3672	47.515	26.3672	49.1864	26.3672	48.4666	26.3672	49.4531	26.3672	49.0968	26.3672	49.4229
27.0996	47.6365	27.0996	47.3852	27.0996	47.6781	27.0996	46.9162	27.0996	47.5137	27.0996	46.2202	27.0996	47.1433	27.0996	45.2994	27.0996	46.5669	27.0996	44.2031	27.0996	45.7965	27.0996	43.1194	27.0996	44.8844	27.0996	42.4945	27.0996	43.9849	27.0996	42.8489	27.0996	43.4261	27.0996	44.1385	27.0996	43.6042	27.0996	45.8158	27.0996	44.5855	27.0996	47.4585	27.0996	46.0157	27.0996	48.8952	27.0996	47.5163	27.0996	50.0806	27.0996	48.8842	27.0996	51.0121	27.0996	50.0421	27.0996	51.6981	27.0996	50.9685	27.0996	52.1473	27.0996	51.6612	27.0996	52.366	27.0996	52.1232	27.0996	52.3577
27.832	46.5912	27.832	46.3076	27.832	46.6103	27.832	45.7495	27.832	46.3637	27.832	44.9015	27.832	45.8377	27.832	43.7646	27.832	45.0078	27.832	42.4327	27.832	43.8515	27.832	41.3002	27.832	42.4043	27.832	41.197	27.832	40.9616	27.832	42.5139	27.832	40.4196	27.832	44.5364	27.832	41.5791	27.832	46.5601	27.832	43.7412	27.832	48.3298	27.832	45.955	27.832	49.8006	27.832	47.8804	27.832	50.9851	27.832	49.4693	27.832	51.9043	27.832	50.7437	27.832	52.5755	27.832	51.7334	27.832	53.0107	27.832	52.4619	27.832	53.2165	27.832	52.9458	27.832	53.1954
29.2969	49.9045	29.2969	49.7178	29.2969	49.9007	29.2969	49.3357	29.2969	49.7077	29.2969	48.7527	29.2969	49.3248	29.2969	47.9699	29.2969	48.752	29.2969	47.0171	29.2969	48.0007	29.2969	46.0039	29.2969	47.1175	29.2969	45.2047	29.2969	46.2335	29.2969	45.0488	29.2969	45.6229	29.2969	45.7649	29.2969	45.6377	29.2969	47.0822	29.2969	46.3975	29.2969	48.5682	29.2969	47.6404	29.2969	49.9572	29.2969	49.0135	29.2969	51.1427	29.2969	50.2966	29.2969	52.0934	29.2969	51.3943	29.2969	52.8059	29.2969	52.2738	29.2969	53.284	29.2969	52.9269	29.2969	53.5327	29.2969	53.3536	29.2969	53.5555
30.0293	49.1706	30.0293	48.9112	30.0293	49.2022	30.0293	48.4161	30.0293	49.0074	30.0293	47.6746	30.0293	48.5805	30.0293	46.6879	30.0293	47.9114	30.0293	45.5142	30.0293	46.9966	30.0293	44.3857	30.0293	45.8718	30.0293	43.8504	30.0293	44.7047	30.0293	44.4543	30.0293	43.9488	30.0293	45.9835	30.0293	44.2191	30.0293	47.7916	30.0293	45.5437	30.0293	49.4858	30.0293	47.3162	30.0293	50.9352	30.0293	49.0546	30.0293	52.116	30.0293	50.5719	30.0293	53.0351	30.0293	51.8242	30.0293	53.7051	30.0293	52.8126	30.0293	54.136	30.0293	53.5486	30.0293	54.3346	30.0293	54.0432	30.0293	54.3038
31.4941	51.6061	31.4941	51.4209	31.4941	51.6206	31.4941	51.0654	31.4941	51.4653	31.4941	50.546	31.4941	51.1432	31.4941	49.8856	31.4941	50.6629	31.4941	49.1474	31.4941	50.05	31.4941	48.4729	31.4941	49.3681	31.4941	48.1029	31.4941	48.7524	31.4941	48.284	31.4941	48.4229	31.4941	49.0546	31.4941	48.6005	31.4941	50.1999	31.4941	49.3239	31.4941	51.4533	31.4941	50.4065	31.4941	52.6378	31.4941	51.6047	31.4941	53.6664	31.4941	52.7473	31.4941	54.5031	31.4941	53.7451	31.4941	55.1351	31.4941	54.5586	31.4941	55.5588	31.4941	55.1721	31.4941	55.7739	31.4941	55.5801	31.4941	55.7809
32.2266	51.9685	32.2266	51.7946	32.2266	51.969	32.2266	51.4486	32.2266	51.7961	32.2266	50.9372	32.2266	51.451	32.2266	50.2837	32.2266	50.9401	32.2266	49.5515	32.2266	50.2858	32.2266	48.8823	32.2266	49.5495	32.2266	48.5168	32.2266	48.8699	32.2266	48.7015	32.2266	48.486	32.2266	49.4741	32.2266	48.6483	32.2266	50.6198	32.2266	49.4046	32.2266	51.8719	32.2266	50.5447	32.2266	53.0535	32.2266	51.7998	32.2266	54.0777	32.2266	52.989	32.2266	54.9083	32.2266	54.0232	32.2266	55.5325	32.2266	54.865	32.2266	55.9468	32.2266	55.5011	32.2266	56.1506	32.2266	55.9277	32.2266	56.1442
33.6914	52.4332	33.6914	52.2701	33.6914	52.4077	33.6914	51.9182	33.6914	52.1936	33.6914	51.3802	33.6914	51.7902	33.6914	50.6727	33.6914	51.2014	33.6914	49.8522	33.6914	50.4488	33.6914	49.0638	33.6914	49.6028	33.6914	48.5855	33.6914	48.8363	33.6914	48.7349	33.6914	48.458	33.6914	49.5775	33.6914	48.7653	33.6914	50.8454	33.6914	49.7412	33.6914	52.2162	33.6914	51.0708	33.6914	53.4934	33.6914	52.4475	33.6914	54.5906	33.6914	53.7021	33.6914	55.4776	33.6914	54.7653	33.6914	56.1464	33.6914	55.6141	33.6914	56.5972	33.6914	56.2438	33.6914	56.8317	33.6914	56.6555	33.6914	56.8511
34.4238	52.3637	34.4238	52.1939	34.4238	52.3427	34.4238	51.8354	34.4238	52.1308	34.4238	51.2982	34.4238	51.7305	34.4238	50.6151	34.4238	51.1535	34.4238	49.8754	34.4238	50.4391	34.4238	49.2727	34.4238	49.6911	34.4238	49.1054	34.4238	49.1272	34.4238	49.5979	34.4238	49.0581	34.4238	50.6662	34.4238	49.6709	34.4238	52.0105	34.4238	50.8227	34.4238	53.3704	34.4238	52.1986	34.4238	54.6053	34.4238	53.5556	34.4238	55.6562	34.4238	54.7707	34.4238	56.5031	34.4238	55.7947	34.4238	57.141	34.4238	56.6118	34.4238	57.5702	34.4238	57.2189	34.4238	57.7923	34.4238	57.6171	34.4238	57.8079
35.8887	54.2281	35.8887	54.0793	35.8887	54.2226	35.8887	53.7807	35.8887	54.0643	35.8887	53.3469	35.8887	53.7611	35.8887	52.8147	35.8887	53.3331	35.8887	52.2624	35.8887	52.8249	35.8887	51.8322	35.8887	52.3255	35.8887	51.7175	35.8887	51.9833	35.8887	52.0663	35.8887	51.9784	35.8887	52.8582	35.8887	52.4201	35.8887	53.9207	35.8887	53.2544	35.8887	55.06	35.8887	54.3089	35.8887	56.1412	35.8887	55.4095	35.8887	57.0906	35.8887	56.4389	35.8887	57.8729	35.8887	57.3328	35.8887	58.4725	35.8887	58.0596	35.8887	58.8828	35.8887	58.6048	35.8887	59.1015	35.8887	58.9617	35.8887	59.1277
37.3535	55.0661	37.3535	54.9129	37.3535	55.063	37.3535	54.6073	37.3535	54.9051	37.3535	54.1628	37.3535	54.5998	37.3535	53.6142	37.3535	54.1655	37.3535	53.0379	37.3535	53.6444	37.3535	52.5764	37.3535	53.1217	37.3535	52.4289	37.3535	52.7436	37.3535	52.7546	37.3535	52.6948	37.3535	53.5398	37.3535	53.0979	37.3535	54.6079	37.3535	53.9103	37.3535	55.7572	37.3535	54.9597	37.3535	56.8478	37.3535	56.0656	37.3535	57.8042	37.3535	57.1047	37.3535	58.5906	37.3535	58.0093	37.3535	59.1916	37.3535	58.7464	37.3535	59.6009	37.3535	59.3008	37.3535	59.8166	37.3535	59.6656	37.3535	59.838
38.8184	55.6426	38.8184	55.4948	38.8184	55.6401	38.8184	55.2043	38.8184	55.4879	38.8184	54.7924	38.8184	55.1955	38.8184	54.3074	38.8184	54.7869	38.8184	53.8437	38.8184	54.3142	38.8184	53.5546	38.8184	53.8766	38.8184	53.6173	38.8184	53.6289	38.8184	54.1268	38.8184	53.7405	38.8184	55.0146	38.8184	54.2892	38.8184	56.1053	38.8184	55.1939	38.8184	57.2309	38.8184	56.2812	38.8184	58.2809	38.8184	57.3909	38.8184	59.1954	38.8184	58.419	38.8184	59.9451	38.8184	59.3094	38.8184	60.5167	38.8184	60.0341	38.8184	60.904	38.8184	60.5804	38.8184	61.1046	38.8184	60.9423	38.8184	61.1173
39.5508	56.3229	39.5508	56.1923	39.5508	56.3148	39.5508	55.9323	39.5508	56.168	39.5508	55.5668	39.5508	55.8926	39.5508	55.1454	39.5508	55.5139	39.5508	54.7585	39.5508	55.085	39.5508	54.5427	39.5508	54.7021	39.5508	54.6462	39.5508	54.5081	39.5508	55.1433	39.5508	54.6513	39.5508	55.975	39.5508	55.1947	39.5508	56.9943	39.5508	56.0639	39.5508	58.0538	39.5508	57.1039	39.5508	59.051	39.5508	58.1688	39.5508	59.9262	39.5508	59.1601	39.5508	60.6482	39.5508	60.0223	39.5508	61.2009	39.5508	60.7266	39.5508	61.5765	39.5508	61.2587	39.5508	61.7712	39.5508	61.6119	39.5508	61.7831
41.0156	57.7593	41.0156	57.6692	41.0156	57.7326	41.0156	57.4712	41.0156	57.59	41.0156	57.1879	41.0156	57.3433	41.0156	56.8627	41.0156	57.0195	41.0156	56.5686	41.0156	56.6699	41.0156	56.4088	41.0156	56.378	41.0156	56.4933	41.0156	56.2569	41.0156	56.8855	41.0156	56.4143	41.0156	57.5593	41.0156	56.8935	41.0156	58.4156	41.0156	57.6417	41.0156	59.3369	41.0156	58.5443	41.0156	60.2286	41.0156	59.4839	41.0156	61.0278	41.0156	60.3729	41.0156	61.6972	41.0156	61.1563	41.0156	62.2157	41.0156	61.8022	41.0156	62.5716	41.0156	62.2928	41.0156	62.7588	41.0156	62.6186	41.0156	62.7746
42.4805	58.8881	42.4805	58.7968	42.4805	58.8731	42.4805	58.6082	42.4805	58.7529	42.4805	58.3445	42.4805	58.539	42.4805	58.0471	42.4805	58.2575	42.4805	57.7831	42.4805	57.9559	42.4805	57.645	42.4805	57.7089	42.4805	57.7292	42.4805	57.6147	42.4805	58.0923	42.4805	57.766	42.4805	58.7151	42.4805	58.2031	42.4805	59.5132	42.4805	58.8862	42.4805	60.3816	42.4805	59.7191	42.4805	61.2312	42.4805	60.5965	42.4805	61.9999	42.4805	61.435	42.4805	62.6491	42.4805	62.1792	42.4805	63.1559	42.4805	62.7952	42.4805	63.507	42.4805	63.2633	42.4805	63.6954	42.4805	63.5726	42.4805	63.7174
43.9453	60.0738	43.9453	59.9854	43.9453	60.06	43.9453	59.8029	43.9453	59.945	43.9453	59.5465	43.9453	59.7396	43.9453	59.2534	43.9453	59.4677	43.9453	58.9846	43.9453	59.172	43.9453	58.825	43.9453	58.9202	43.9453	58.8663	43.9453	58.8015	43.9453	59.1693	43.9453	58.9044	43.9453	59.7272	43.9453	59.2749	43.9453	60.4677	43.9453	59.8876	43.9453	61.2919	43.9453	60.6592	43.9453	62.1101	43.9453	61.4903	43.9453	62.8576	43.9453	62.2969	43.9453	63.4924	43.9453	63.0205	43.9453	63.9894	43.9453	63.6242	43.9453	64.3339	43.9453	64.0857	43.9453	64.5178	43.9453	64.3924	43.9453	64.5374
45.4102	61.0238	45.4102	60.9421	45.4102	61.0098	45.4102	60.773	45.4102	60.9019	45.4102	60.5366	45.4102	60.7116	45.4102	60.2704	45.4102	60.464	45.4102	60.0337	45.4102	60.2026	45.4102	59.9071	45.4102	59.9931	45.4102	59.9754	45.4102	59.9191	45.4102	60.292	45.4102	60.0586	45.4102	60.848	45.4102	60.448	45.4102	61.5756	45.4102	61.0592	45.4102	62.3818	45.4102	61.8144	45.4102	63.1823	45.4102	62.6219	45.4102	63.9148	45.4102	63.4042	45.4102	64.5384	45.4102	64.106	45.4102	65.0279	45.4102	64.6917	45.4102	65.3685	45.4102	65.1394	45.4102	65.552	45.4102	65.4361	45.4102	65.5746
47.6074	62.7483	47.6074	62.6772	47.6074	62.7385	47.6074	62.533	47.6074	62.6489	47.6074	62.335	47.6074	62.4905	47.6074	62.1168	47.6074	62.2858	47.6074	61.9295	47.6074	62.0731	47.6074	61.8392	47.6074	61.9078	47.6074	61.9133	47.6074	61.8578	47.6074	62.1951	47.6074	61.9862	47.6074	62.6811	47.6074	62.3251	47.6074	63.3206	47.6074	62.8572	47.6074	64.039	47.6074	63.5232	47.6074	64.7629	47.6074	64.2472	47.6074	65.4341	47.6074	64.9595	47.6074	66.0116	47.6074	65.6067	47.6074	66.4685	47.6074	66.152	47.6074	66.7881	47.6074	66.5717	47.6074	66.9609	47.6074	66.8511	47.6074	66.982
49.0723	63.7058	49.0723	63.6399	49.0723	63.6951	49.0723	63.5056	49.0723	63.6092	49.0723	63.3213	49.0723	63.4584	49.0723	63.1194	49.0723	63.2648	49.0723	62.9478	49.0723	63.0645	49.0723	62.8683	49.0723	62.9098	49.0723	62.943	49.0723	62.8644	49.0723	63.2124	49.0723	62.9872	49.0723	63.6744	49.0723	63.3092	49.0723	64.284	49.0723	63.816	49.0723	64.9721	49.0723	64.4539	49.0723	65.6691	49.0723	65.1515	49.0723	66.3182	49.0723	65.8416	49.0723	66.8787	49.0723	66.4717	49.0723	67.3231	49.0723	67.0048	49.0723	67.6343	49.0723	67.4164	49.0723	67.802	49.0723	67.6914	49.0723	67.8212
50.5371	64.6491	50.5371	64.5891	50.5371	64.6404	50.5371	64.4682	50.5371	64.5643	50.5371	64.3047	50.5371	64.4316	50.5371	64.1299	50.5371	64.2642	50.5371	63.9894	50.5371	64.0972	50.5371	63.9397	50.5371	63.9796	50.5371	64.0365	50.5371	63.9688	50.5371	64.3145	50.5371	64.1162	50.5371	64.7702	50.5371	64.4462	50.5371	65.3619	50.5371	64.9438	50.5371	66.0267	50.5371	65.5599	50.5371	66.7	50.5371	66.2298	50.5371	67.3283	50.5371	66.892	50.5371	67.8721	50.5371	67.4972	50.5371	68.3047	50.5371	68.0099	50.5371	68.6085	50.5371	68.4061	50.5371	68.7733	50.5371	68.6704	50.5371	68.7941
52.7344	66.3379	52.7344	66.2876	52.7344	66.3306	52.7344	66.1869	52.7344	66.2667	52.7344	66.0526	52.7344	66.1557	52.7344	65.912	52.7344	66.0169	52.7344	65.804	52.7344	65.8807	52.7344	65.7751	52.7344	65.7883	52.7344	65.8707	52.7344	65.7872	52.7344	66.1195	52.7344	65.9199	52.7344	66.521	52.7344	66.2087	52.7344	67.0438	52.7344	66.6449	52.7344	67.6368	52.7344	67.1906	52.7344	68.2445	52.7344	67.7922	52.7344	68.8176	52.7344	68.3952	52.7344	69.3182	52.7344	68.9529	52.7344	69.7187	52.7344	69.4301	52.7344	70.0008	52.7344	69.802	52.7344	70.1533	52.7344	70.052	52.7344	70.1706
54.1992	67.3003	54.1992	67.2553	54.1992	67.2924	54.1992	67.1646	54.1992	67.2325	54.1992	67.0437	54.1992	67.1299	54.1992	66.9184	54.1992	67.0025	54.1992	66.8244	54.1992	66.8789	54.1992	66.8041	54.1992	66.797	54.1992	66.8987	54.1992	66.8005	54.1992	67.1346	54.1992	66.9282	54.1992	67.5124	54.1992	67.2013	54.1992	68.0051	54.1992	67.6129	54.1992	68.5663	54.1992	68.1296	54.1992	69.1445	54.1992	68.7022	54.1992	69.6927	54.1992	69.2792	54.1992	70.1735	54.1992	69.8156	54.1992	70.5595	54.1992	70.2764	54.1992	70.8319	54.1992	70.6367	54.1992	70.9791	54.1992	70.8797	54.1992	70.9953
56.3965	68.9047	56.3965	68.8681	56.3965	68.896	56.3965	68.7925	56.3965	68.843	56.3965	68.6921	56.3965	68.7543	56.3965	68.5894	56.3965	68.6466	56.3965	68.5157	56.3965	68.5453	56.3965	68.5076	56.3965	68.4838	56.3965	68.6004	56.3965	68.4996	56.3965	68.8176	56.3965	68.626	56.3965	69.1613	56.3965	68.8811	56.3965	69.6101	56.3965	69.26	56.3965	70.125	56.3965	69.7348	56.3965	70.6601	56.3965	70.263	56.3965	71.172	56.3965	70.7985	56.3965	71.6244	56.3965	71.2993	56.3965	71.9901	56.3965	71.7318	56.3965	72.2497	56.3965	72.071	56.3965	72.3912	56.3965	72.2999	56.3965	72.4082
58.5938	70.5399	58.5938	70.5068	58.5938	70.5363	58.5938	70.443	58.5938	70.497	58.5938	70.3611	58.5938	70.4297	58.5938	70.2816	58.5938	70.3492	58.5938	70.2315	58.5938	70.2775	58.5938	70.2419	58.5938	70.2431	58.5938	70.342	58.5938	70.277	58.5938	70.5512	58.5938	70.4064	58.5938	70.871	58.5938	70.6461	58.5938	71.2835	58.5938	70.9924	58.5938	71.7559	58.5938	71.4231	58.5938	72.248	58.5938	71.9025	58.5938	72.7208	58.5938	72.3907	58.5938	73.1408	58.5938	72.8498	58.5938	73.4817	58.5938	73.2484	58.5938	73.7248	58.5938	73.5624	58.5938	73.8579	58.5938	73.7747	58.5938	73.8748
60.0586	71.6745	60.0586	71.6451	60.0586	71.6704	60.0586	71.5877	60.0586	71.6337	60.0586	71.514	60.0586	71.5713	60.0586	71.4423	60.0586	71.4965	60.0586	71.3968	60.0586	71.4293	60.0586	71.4053	60.0586	71.395	60.0586	71.4944	60.0586	71.4217	60.0586	71.6818	60.0586	71.5345	60.0586	71.9707	60.0586	71.748	60.0586	72.3466	60.0586	72.0608	60.0586	72.7809	60.0586	72.4546	60.0586	73.2373	60.0586	72.8981	60.0586	73.6793	60.0586	73.3542	60.0586	74.0742	60.0586	73.787	60.0586	74.3962	60.0586	74.1654	60.0586	74.6263	60.0586	74.4653	60.0586	74.7518	60.0586	74.6692	60.0586	74.7664
62.2559	73.138	62.2559	73.1131	62.2559	73.1332	62.2559	73.0632	62.2559	73.0994	62.2559	72.9988	62.2559	73.043	62.2559	72.936	62.2559	72.9761	62.2559	72.8965	62.2559	72.9165	62.2559	72.9048	62.2559	72.8869	62.2559	72.9847	62.2559	72.9125	62.2559	73.1531	62.2559	73.0158	62.2559	73.4143	62.2559	73.2107	62.2559	73.7572	62.2559	73.4973	62.2559	74.1572	62.2559	73.8601	62.2559	74.5819	62.2559	74.2717	62.2559	74.9967	62.2559	74.6981	62.2559	75.3704	62.2559	75.1053	62.2559	75.6771	62.2559	75.4632	62.2559	75.8975	62.2559	75.7479	62.2559	76.0185	62.2559	75.9417	62.2559	76.0336
64.4531	74.6092	64.4531	74.5889	64.4531	74.605	64.4531	74.5484	64.4531	74.577	64.4531	74.4969	64.4531	74.531	64.4531	74.4486	64.4531	74.4775	64.4531	74.4222	64.4531	74.4324	64.4531	74.4389	64.4531	74.4152	64.4531	74.519	64.4531	74.4474	64.4531	74.677	64.4531	74.5483	64.4531	74.9172	64.4531	74.73	64.4531	75.2305	64.4531	74.993	64.4531	75.5963	64.4531	75.3246	64.4531	75.986	64.4531	75.7014	64.4531	76.3687	64.4531	76.0933	64.4531	76.7152	64.4531	76.4695	64.4531	77.0008	64.4531	76.8018	64.4531	77.2067	64.4531	77.067	64.4531	77.3201	64.4531	77.2482	64.4531	77.3342
66.6504	76.2157	66.6504	76.1988	66.6504	76.2123	66.6504	76.1653	66.6504	76.1891	66.6504	76.1231	66.6504	76.1512	66.6504	76.0847	66.6504	76.1081	66.6504	76.0663	66.6504	76.0732	66.6504	76.0859	66.6504	76.0637	66.6504	76.1613	66.6504	76.0979	66.6504	76.3052	66.6504	76.1925	66.6504	76.5221	66.6504	76.3583	66.6504	76.805	66.6504	76.5963	66.6504	77.1368	66.6504	76.8965	66.6504	77.4927	66.6504	77.2388	66.6504	77.8445	66.6504	77.597	66.6504	78.1652	66.6504	77.9428	66.6504	78.4311	66.6504	78.25	66.6504	78.6238	66.6504	78.4961	66.6504	78.7305	66.6504	78.6646	66.6504	78.7444
69.5801	78.1569	69.5801	78.1438	69.5801	78.155	69.5801	78.1186	69.5801	78.1386	69.5801	78.088	69.5801	78.112	69.5801	78.0621	69.5801	78.0832	69.5801	78.0541	69.5801	78.0632	69.5801	78.0789	69.5801	78.0659	69.5801	78.151	69.5801	78.1061	69.5801	78.2812	69.5801	78.1971	69.5801	78.4737	69.5801	78.3476	69.5801	78.7237	69.5801	78.5591	69.5801	79.0175	69.5801	78.8238	69.5801	79.3344	69.5801	79.1257	69.5801	79.6501	69.5801	79.4429	69.5801	79.94	69.5801	79.751	69.5801	80.182	69.5801	80.0262	69.5801	80.3585	69.5801	80.2478	69.5801	80.4571	69.5801	80.3996	69.5801	80.4711
71.7773	79.6466	71.7773	79.6344	71.7773	79.6482	71.7773	79.6143	71.7773	79.6397	71.7773	79.592	71.7773	79.6244	71.7773	79.5765	71.7773	79.609	71.7773	79.5787	71.7773	79.6027	71.7773	79.6112	71.7773	79.6168	71.7773	79.686	71.7773	79.6636	71.7773	79.812	71.7773	79.754	71.7773	79.9926	71.7773	79.8954	71.7773	80.2237	71.7773	80.0893	71.7773	80.4937	71.7773	80.3296	71.7773	80.7845	71.7773	80.6031	71.7773	81.0744	71.7773	80.8911	71.7773	81.3414	71.7773	81.1718	71.7773	81.5649	71.7773	81.4236	71.7773	81.7283	71.7773	81.6272	71.7773	81.8198	71.7773	81.7671	71.7773	81.833
73.9746	81.0374	73.9746	81.0249	73.9746	81.0416	73.9746	81.0065	73.9746	81.0378	73.9746	80.9873	73.9746	81.0287	73.9746	80.9745	73.9746	81.0197	73.9746	80.9778	73.9746	81.0185	73.9746	81.0076	73.9746	81.0343	73.9746	81.0743	73.9746	81.0775	73.9746	81.1856	73.9746	81.1574	73.9746	81.345	73.9746	81.2809	73.9746	81.5496	73.9746	81.4497	73.9746	81.7898	73.9746	81.6598	73.9746	82.0502	73.9746	81.9006	73.9746	82.3117	73.9746	82.156	73.9746	82.5541	73.9746	82.407	73.9746	82.7582	73.9746	82.6338	73.9746	82.9081	73.9746	82.8183	73.9746	82.9926	73.9746	82.9455	73.9746	83.0052
76.9043	82.8102	76.9043	82.8038	76.9043	82.8121	76.9043	82.7949	76.9043	82.8095	76.9043	82.7874	76.9043	82.8045	76.9043	82.7872	76.9043	82.8013	76.9043	82.8018	76.9043	82.8059	76.9043	82.8393	76.9043	82.8256	76.9043	82.9075	76.9043	82.8686	76.9043	83.0124	76.9043	82.9426	76.9043	83.1565	76.9043	83.0532	76.9043	83.3376	76.9043	83.2024	76.9043	83.5481	76.9043	83.3874	76.9043	83.7754	76.9043	83.5997	76.9043	84.0034	76.9043	83.8263	76.9043	84.2148	76.9043	84.0508	76.9043	84.3924	76.9043	84.2555	76.9043	84.5221	76.9043	84.4238	76.9043	84.5932	76.9043	84.5419	76.9043	84.5999
79.834	84.3358	79.834	84.3359	79.834	84.3338	79.834	84.3356	79.834	84.3302	79.834	84.3376	79.834	84.3266	79.834	84.3459	79.834	84.326	79.834	84.366	79.834	84.333	79.834	84.4036	79.834	84.3531	79.834	84.4646	79.834	84.3925	79.834	84.5536	79.834	84.4572	79.834	84.6732	79.834	84.5517	79.834	84.8223	79.834	84.678	79.834	84.9956	79.834	84.8341	79.834	85.1839	79.834	85.0138	79.834	85.3743	79.834	85.2068	79.834	85.5522	79.834	85.3993	79.834	85.7029	79.834	85.5761	79.834	85.8132	79.834	85.7227	79.834	85.8734	79.834	85.8263	79.834	85.878
82.7637	85.4469	82.7637	85.4474	82.7637	85.447	82.7637	85.4495	82.7637	85.4479	82.7637	85.4552	82.7637	85.4509	82.7637	85.4676	82.7637	85.4582	82.7637	85.4905	82.7637	85.473	82.7637	85.5284	82.7637	85.4996	82.7637	85.586	82.7637	85.5425	82.7637	85.6669	82.7637	85.6061	82.7637	85.7735	82.7637	85.694	82.7637	85.9051	82.7637	85.8077	82.7637	86.0579	82.7637	85.9458	82.7637	86.2243	82.7637	86.1033	82.7637	86.3936	82.7637	86.2718	82.7637	86.553	82.7637	86.4398	82.7637	86.6893	82.7637	86.5941	82.7637	86.7904	82.7637	86.7217	82.7637	86.8472	82.7637	86.8112	82.7637	86.8543
85.6934	86.1226	85.6934	86.1248	85.6934	86.1242	85.6934	86.1313	85.6934	86.1296	85.6934	86.1434	85.6934	86.1394	85.6934	86.1631	85.6934	86.1552	85.6934	86.1929	85.6934	86.1789	85.6934	86.2357	85.6934	86.2131	85.6934	86.2946	85.6934	86.2609	85.6934	86.372	85.6934	86.325	85.6934	86.4697	85.6934	86.408	85.6934	86.587	85.6934	86.5108	85.6934	86.7211	85.6934	86.6325	85.6934	86.866	85.6934	86.7694	85.6934	87.013	85.6934	86.9147	85.6934	87.1517	85.6934	87.0593	85.6934	87.2706	85.6934	87.1922	85.6934	87.3592	85.6934	87.3022	85.6934	87.4093	85.6934	87.3793	85.6934	87.4163
88.623	86.3936	88.623	86.397	88.623	86.3969	88.623	86.4076	88.623	86.4071	88.623	86.4257	88.623	86.4242	88.623	86.4525	88.623	86.449	88.623	86.4892	88.623	86.4823	88.623	86.5373	88.623	86.5254	88.623	86.5986	88.623	86.5798	88.623	86.6745	88.623	86.6472	88.623	86.766	88.623	86.7287	88.623	86.8726	88.623	86.8249	88.623	86.9921	88.623	86.9349	88.623	87.1198	88.623	87.0557	88.623	87.2491	88.623	87.1821	88.623	87.371	88.623	87.3068	88.623	87.4761	88.623	87.4207	88.623	87.5552	88.623	87.5144	88.623	87.601	88.623	87.5794	88.623	87.6093
91.5527	86.2926	91.5527	86.2984	91.5527	86.2975	91.5527	86.3148	91.5527	86.313	91.5527	86.3418	91.5527	86.3389	91.5527	86.3792	91.5527	86.3749	91.5527	86.4269	91.5527	86.4206	91.5527	86.4849	91.5527	86.4758	91.5527	86.5536	91.5527	86.5405	91.5527	86.633	91.5527	86.6147	91.5527	86.7232	91.5527	86.6984	91.5527	86.8234	91.5527	86.7913	91.5527	86.9317	91.5527	86.8925	91.5527	87.0447	91.5527	86.9997	91.5527	87.1572	91.5527	87.1091	91.5527	87.2623	91.5527	87.2153	91.5527	87.3526	91.5527	87.3113	91.5527	87.4205	91.5527	87.3898	91.5527	87.4603	91.5527	87.4438	91.5527	87.4682
94.4824	86.1489	94.4824	86.16	94.4824	86.1511	94.4824	86.1837	94.4824	86.1664	94.4824	86.2192	94.4824	86.194	94.4824	86.2653	94.4824	86.2329	94.4824	86.3204	94.4824	86.2818	94.4824	86.3832	94.4824	86.339	94.4824	86.4525	94.4824	86.4031	94.4824	86.5273	94.4824	86.473	94.4824	86.6068	94.4824	86.5479	94.4824	86.6902	94.4824	86.6271	94.4824	86.7763	94.4824	86.7098	94.4824	86.8629	94.4824	86.7949	94.4824	86.9469	94.4824	86.8802	94.4824	87.024	94.4824	86.9625	94.4824	87.0891	94.4824	87.0372	94.4824	87.1368	94.4824	87.0992	94.4824	87.1631	94.4824	87.1432	94.4824	87.1653
98.1445	85.9642	98.1445	85.9794	98.1445	85.9617	98.1445	86.0065	98.1445	85.9719	98.1445	86.044	98.1445	85.9941	98.1445	86.0897	98.1445	86.0266	98.1445	86.1412	98.1445	86.0675	98.1445	86.1962	98.1445	86.1147	98.1445	86.2527	98.1445	86.166	98.1445	86.3093	98.1445	86.2198	98.1445	86.3651	98.1445	86.2749	98.1445	86.4197	98.1445	86.3307	98.1445	86.4733	98.1445	86.3871	98.1445	86.5255	98.1445	86.444	98.1445	86.5753	98.1445	86.5005	98.1445	86.6207	98.1445	86.5554	98.1445	86.6589	98.1445	86.6061	98.1445	86.6865	98.1445	86.6491	98.1445	86.7003	98.1445	86.6809	98.1445	86.6985
101.807	85.6426	101.807	85.6596	101.807	85.6414	101.807	85.6911	101.807	85.656	101.807	85.735	101.807	85.6852	101.807	85.788	101.807	85.7268	101.807	85.8468	101.807	85.7778	101.807	85.9078	101.807	85.8349	101.807	85.9679	101.807	85.8946	101.807	86.0247	101.807	85.954	101.807	86.0768	101.807	86.011	101.807	86.1238	101.807	86.0641	101.807	86.166	101.807	86.1128	101.807	86.204	101.807	86.1573	101.807	86.2382	101.807	86.1979	101.807	86.2684	101.807	86.2346	101.807	86.2935	101.807	86.2669	101.807	86.3119	101.807	86.2933	101.807	86.3218	101.807	86.3122	101.807	86.322
105.469	85.3381	105.469	85.352	105.469	85.3416	105.469	85.3821	105.469	85.3624	105.469	85.4258	105.469	85.399	105.469	85.4793	105.469	85.4484	105.469	85.5387	105.469	85.5068	105.469	85.5995	105.469	85.57	105.469	85.6581	105.469	85.6335	105.469	85.7112	105.469	85.6937	105.469	85.7572	105.469	85.7474	105.469	85.7954	105.469	85.7931	105.469	85.8263	105.469	85.8301	105.469	85.8513	105.469	85.8591	105.469	85.8719	105.469	85.8814	105.469	85.8892	105.469	85.8983	105.469	85.9037	105.469	85.9111	105.469	85.9152	105.469	85.9202	105.469	85.9229	105.469	85.9254	105.469	85.9264
109.131	85.149	109.131	85.1682	109.131	85.1491	109.131	85.2053	109.131	85.1685	109.131	85.2571	109.131	85.2052	109.131	85.3193	109.131	85.2559	109.131	85.387	109.131	85.3161	109.131	85.455	109.131	85.3807	109.131	85.5184	109.131	85.4449	109.131	85.5735	109.131	85.5039	109.131	85.6177	109.131	85.5545	109.131	85.6499	109.131	85.5944	109.131	85.6707	109.131	85.6234	109.131	85.6817	109.131	85.6422	109.131	85.6853	109.131	85.653	109.131	85.6842	109.131	85.6584	109.131	85.6806	109.131	85.661	109.131	85.676	109.131	85.6627	109.131	85.6715	109.131	85.6648	109.131	85.6677
112.793	85.0647	112.793	85.0892	112.793	85.0609	112.793	85.1325	112.793	85.0777	112.793	85.191	112.793	85.1132	112.793	85.2596	112.793	85.1635	112.793	85.3325	112.793	85.2237	112.793	85.4037	112.793	85.2882	112.793	85.4675	112.793	85.3512	112.793	85.5195	112.793	85.4073	112.793	85.5565	112.793	85.4527	112.793	85.5773	112.793	85.4848	112.793	85.5826	112.793	85.5029	112.793	85.5747	112.793	85.5083	112.793	85.5574	112.793	85.5039	112.793	85.535	112.793	85.4934	112.793	85.5116	112.793	85.4811	112.793	85.4908	112.793	85.4708	112.793	85.4753	112.793	85.4654	112.793	85.4667
116.455	84.9388	116.455	84.9618	116.455	84.9377	116.455	85.0047	116.455	84.9585	116.455	85.0637	116.455	84.9986	116.455	85.133	116.455	85.0539	116.455	85.2064	116.455	85.1188	116.455	85.277	116.455	85.1868	116.455	85.3386	116.455	85.2514	116.455	85.3862	116.455	85.3068	116.455	85.4162	116.455	85.3483	116.455	85.4273	116.455	85.3733	116.455	85.4206	116.455	85.3811	116.455	85.399	116.455	85.373	116.455	85.3673	116.455	85.3528	116.455	85.3313	116.455	85.3251	116.455	85.2967	116.455	85.2956	116.455	85.2685	116.455	85.2697	116.455	85.2506	116.455	85.2517	116.455	85.2449
120.85	84.849	120.85	84.8627	120.85	84.8576	120.85	84.8969	120.85	84.8879	120.85	84.9476	120.85	84.9374	120.85	85.0093	120.85	85.0012	120.85	85.0755	120.85	85.0734	120.85	85.139	120.85	85.1471	120.85	85.1934	120.85	85.2153	120.85	85.2333	120.85	85.2717	120.85	85.2553	120.85	85.3114	120.85	85.2579	120.85	85.3311	120.85	85.2424	120.85	85.3299	120.85	85.2126	120.85	85.3094	120.85	85.1739	120.85	85.2731	120.85	85.1332	120.85	85.2267	120.85	85.0972	120.85	85.1766	120.85	85.072	120.85	85.1297	120.85	85.0618	120.85	85.0922	120.85	85.0687
125.244	84.7895	125.244	84.8104	125.244	84.7916	125.244	84.8521	125.244	84.8168	125.244	84.9101	125.244	84.8625	125.244	84.9783	125.244	84.9242	125.244	85.0496	125.244	84.9958	125.244	85.1166	125.244	85.0699	125.244	85.1724	125.244	85.1393	125.244	85.2114	125.244	85.1969	125.244	85.2298	125.244	85.2371	125.244	85.2262	125.244	85.256	125.244	85.202	125.244	85.2524	125.244	85.161	125.244	85.2273	125.244	85.1095	125.244	85.1846	125.244	85.0552	125.244	85.1306	125.244	85.0061	125.244	85.0727	125.244	84.9697	125.244	85.0193	125.244	84.9514	125.244	84.9779	125.244	84.9542
129.639	84.7712	129.639	84.7884	129.639	84.7765	129.639	84.826	129.639	84.8041	129.639	84.8795	129.639	84.8511	129.639	84.9428	129.639	84.9125	129.639	85.0083	129.639	84.9817	129.639	85.0685	129.639	85.0509	129.639	85.1157	129.639	85.1121	129.639	85.1439	129.639	85.1578	129.639	85.1488	129.639	85.1821	129.639	85.1287	129.639	85.1812	129.639	85.0848	129.639	85.1538	129.639	85.0215	129.639	85.102	129.639	84.9458	129.639	85.031	129.639	84.8669	129.639	84.9488	129.639	84.795	129.639	84.8655	129.639	84.74	129.639	84.7916	129.639	84.7095	129.639	84.7368	129.639	84.7082
134.033	84.7357	134.033	84.7716	134.033	84.7235	134.033	84.8286	134.033	84.7348	134.033	84.9016	134.033	84.7671	134.033	84.9839	134.033	84.8154	134.033	85.0672	134.033	84.8732	134.033	85.1431	134.033	84.9325	134.033	85.2032	134.033	84.9855	134.033	85.2408	134.033	85.0247	134.033	85.2508	134.033	85.0445	134.033	85.2312	134.033	85.0411	134.033	85.1827	134.033	85.0138	134.033	85.1097	134.033	84.9651	134.033	85.0195	134.033	84.9006	134.033	84.9217	134.033	84.8286	134.033	84.8275	134.033	84.7593	134.033	84.7477	134.033	84.7032	134.033	84.6915	134.033	84.6696	134.033	84.6648
138.428	84.6628	138.428	84.6932	138.428	84.6591	138.428	84.7478	138.428	84.682	138.428	84.8219	138.428	84.7284	138.428	84.9083	138.428	84.7932	138.428	84.9988	138.428	84.8693	138.428	85.0846	138.428	84.9487	138.428	85.1571	138.428	85.0228	138.428	85.2092	138.428	85.0837	138.428	85.2354	138.428	85.1251	138.428	85.2334	138.428	85.1425	138.428	85.2036	138.428	85.1343	138.428	85.1499	138.428	85.1023	138.428	85.0793	138.428	85.051	138.428	85.0012	138.428	84.9881	138.428	84.9261	138.428	84.923	138.428	84.8644	138.428	84.866	138.428	84.8245	138.428	84.8265	138.428	84.8116
143.555	84.7656	143.555	84.7821	143.555	84.7738	143.555	84.8211	143.555	84.8064	143.555	84.8782	143.555	84.8604	143.555	84.9471	143.555	84.9308	143.555	85.02	143.555	85.0105	143.555	85.0888	143.555	85.0915	143.555	85.1452	143.555	85.165	143.555	85.1822	143.555	85.2228	143.555	85.1947	143.555	85.2579	143.555	85.1802	143.555	85.2657	143.555	85.1394	143.555	85.2442	143.555	85.0764	143.555	85.1947	143.555	84.9987	143.555	85.1221	143.555	84.9164	143.555	85.0348	143.555	84.8413	143.555	84.9433	143.555	84.7845	143.555	84.8596	143.555	84.7552	143.555	84.795	143.555	84.7586
148.682	84.9094	148.682	84.9298	148.682	84.9104	148.682	84.9692	148.682	84.9325	148.682	85.0232	148.682	84.9732	148.682	85.0854	148.682	85.0275	148.682	85.1481	148.682	85.0891	148.682	85.2028	148.682	85.1501	148.682	85.2414	148.682	85.2021	148.682	85.2569	148.682	85.2372	148.682	85.2442	148.682	85.2487	148.682	85.2012	148.682	85.2321	148.682	85.1294	148.682	85.1856	148.682	85.0337	148.682	85.111	148.682	84.9231	148.682	85.014	148.682	84.8096	148.682	84.9036	148.682	84.7067	148.682	84.7919	148.682	84.6277	148.682	84.6925	148.682	84.5836	148.682	84.6186	148.682	84.5804
153.809	85.0369	153.809	85.0535	153.809	85.041	153.809	85.0892	153.809	85.0653	153.809	85.1397	153.809	85.1069	153.809	85.1991	153.809	85.1609	153.809	85.2595	153.809	85.2206	153.809	85.3125	153.809	85.2782	153.809	85.3492	153.809	85.3253	153.809	85.3619	153.809	85.3537	153.809	85.3449	153.809	85.3565	153.809	85.2952	153.809	85.3289	153.809	85.2138	153.809	85.2693	153.809	85.1056	153.809	85.1796	153.809	84.98	153.809	85.0661	153.809	84.85	153.809	84.9388	153.809	84.7308	153.809	84.8115	153.809	84.6379	153.809	84.6993	153.809	84.584	153.809	84.6172	153.809	84.5768
159.668	85.1329	159.668	85.1536	159.668	85.1317	159.668	85.1918	159.668	85.1497	159.668	85.2434	159.668	85.1845	159.668	85.302	159.668	85.2313	159.668	85.3602	159.668	85.2836	159.668	85.4095	159.668	85.3338	159.668	85.4414	159.668	85.3735	159.668	85.4485	159.668	85.3947	159.668	85.4254	159.668	85.3906	159.668	85.3693	159.668	85.3568	159.668	85.2814	159.668	85.2918	159.668	85.1669	159.668	85.198	159.668	85.0351	159.668	85.0816	159.668	84.8991	159.668	84.9533	159.668	84.7739	159.668	84.8266	159.668	84.6751	159.668	84.7168	159.668	84.6154	159.668	84.6384	159.668	84.6028
164.795	85.3293	164.795	85.3517	164.795	85.3257	164.795	85.3909	164.795	85.3402	164.795	85.4426	164.795	85.3702	164.795	85.5004	164.795	85.4107	164.795	85.5563	164.795	85.4548	164.795	85.6015	164.795	85.4945	164.795	85.627	164.795	85.5211	164.795	85.6249	164.795	85.5267	164.795	85.5894	164.795	85.5046	164.795	85.5178	164.795	85.4504	164.795	85.4113	164.795	85.3636	164.795	85.2754	164.795	85.2474	164.795	85.1202	164.795	85.1096	164.795	84.9597	164.795	84.9622	164.795	84.8108	164.795	84.8204	164.795	84.6904	164.795	84.7012	164.795	84.6133	164.795	84.6202	164.795	84.5892
170.654	85.3299	170.654	85.3489	170.654	85.3299	170.654	85.3848	170.654	85.3487	170.654	85.4333	170.654	85.3838	170.654	85.4883	170.654	85.4304	170.654	85.5418	170.654	85.4818	170.654	85.5851	170.654	85.5299	170.654	85.6093	170.654	85.5657	170.654	85.6064	170.654	85.5806	170.654	85.5707	170.654	85.5673	170.654	85.4994	170.654	85.5209	170.654	85.3938	170.654	85.4398	170.654	85.2598	170.654	85.3268	170.654	85.1078	170.654	85.1891	170.654	84.9525	170.654	85.0384	170.654	84.8108	170.654	84.8898	170.654	84.7	170.654	84.7608	170.654	84.6347	170.654	84.6677	170.654	84.6235
176.514	85.285	176.514	85.309	176.514	85.2797	176.514	85.3494	176.514	85.2934	176.514	85.402	176.514	85.3243	176.514	85.4607	176.514	85.3685	176.514	85.5179	176.514	85.42	176.514	85.5649	176.514	85.471	176.514	85.5931	176.514	85.5126	176.514	85.5945	176.514	85.5358	176.514	85.5634	176.514	85.5325	176.514	85.4969	176.514	85.497	176.514	85.3963	176.514	85.4269	176.514	85.2673	176.514	85.324	176.514	85.1201	176.514	85.1952	176.514	84.9692	176.514	85.0518	176.514	84.8313	176.514	84.9088	176.514	84.7235	176.514	84.7837	176.514	84.66	176.514	84.6929	176.514	84.6495
183.105	85.3308	183.105	85.357	183.105	85.3195	183.105	85.3967	183.105	85.3229	183.105	85.4468	183.105	85.3393	183.105	85.5021	183.105	85.3655	183.105	85.5558	183.105	85.3963	183.105	85.5998	183.105	85.4254	183.105	85.6253	183.105	85.4453	183.105	85.6241	183.105	85.4483	183.105	85.59	183.105	85.4273	183.105	85.5194	183.105	85.3777	183.105	85.4131	183.105	85.2975	183.105	85.2763	183.105	85.1893	183.105	85.1191	183.105	85.0598	183.105	84.9558	183.105	84.9204	183.105	84.8034	183.105	84.7859	183.105	84.6794	183.105	84.6729	183.105	84.5986	183.105	84.5971	183.105	84.5705
189.697	85.4643	189.697	85.4815	189.697	85.4615	189.697	85.5121	189.697	85.4721	189.697	85.5535	189.697	85.494	189.697	85.6014	189.697	85.5232	189.697	85.6493	189.697	85.5543	189.697	85.6896	189.697	85.5805	189.697	85.7135	189.697	85.5942	189.697	85.713	189.697	85.5877	189.697	85.6815	189.697	85.5549	189.697	85.6151	189.697	85.4917	189.697	85.5139	189.697	85.3978	189.697	85.3822	189.697	85.277	189.697	85.2293	189.697	85.1378	189.697	85.0684	189.697	84.9927	189.697	84.9155	189.697	84.8574	189.697	84.7877	189.697	84.7483	189.697	84.6999	189.697	84.68	189.697	84.6627
196.289	85.533	196.289	85.5372	196.289	85.5391	196.289	85.5509	196.289	85.5552	196.289	85.5721	196.289	85.5802	196.289	85.5973	196.289	85.6114	196.289	85.6216	196.289	85.6446	196.289	85.6384	196.289	85.6739	196.289	85.6403	196.289	85.6919	196.289	85.6201	196.289	85.6904	196.289	85.5719	196.289	85.6623	196.289	85.4928	196.289	85.6021	196.289	85.3834	196.289	85.508	196.289	85.2489	196.289	85.3825	196.289	85.099	196.289	85.233	196.289	84.9474	196.289	85.0719	196.289	84.8103	196.289	84.915	196.289	84.704	196.289	84.7796	196.289	84.6425	196.289	84.6821	196.289	84.6346
202.881	85.6471	202.881	85.6445	202.881	85.655	202.881	85.647	202.881	85.668	202.881	85.6534	202.881	85.6852	202.881	85.6616	202.881	85.705	202.881	85.6675	202.881	85.7245	202.881	85.666	202.881	85.7395	202.881	85.6506	202.881	85.7442	202.881	85.6149	202.881	85.7318	202.881	85.5538	202.881	85.6959	202.881	85.4646	202.881	85.6312	202.881	85.3483	202.881	85.5355	202.881	85.2103	202.881	85.4102	202.881	85.0604	202.881	85.2615	202.881	84.9123	202.881	85.1001	202.881	84.7819	202.881	84.9409	202.881	84.6849	202.881	84.8005	202.881	84.6342	202.881	84.6951	202.881	84.6375
210.205	85.6879	210.205	85.6851	210.205	85.6927	210.205	85.6836	210.205	85.6999	210.205	85.6816	210.205	85.7093	210.205	85.6766	210.205	85.7197	210.205	85.6647	210.205	85.7287	210.205	85.6412	210.205	85.7327	210.205	85.6007	210.205	85.7266	210.205	85.5384	210.205	85.7044	210.205	85.4515	210.205	85.6606	210.205	85.3398	210.205	85.5909	210.205	85.2069	210.205	85.4934	210.205	85.0608	210.205	85.3697	210.205	84.9128	210.205	85.2254	210.205	84.7765	210.205	85.0698	210.205	84.6662	210.205	84.9151	210.205	84.594	210.205	84.7752	210.205	84.5683	210.205	84.6638	210.205	84.5924
217.529	85.6999	217.529	85.7114	217.529	85.6902	217.529	85.7231	217.529	85.6835	217.529	85.7328	217.529	85.68	217.529	85.7374	217.529	85.679	217.529	85.7325	217.529	85.6781	217.529	85.713	217.529	85.673	217.529	85.6734	217.529	85.6581	217.529	85.6085	217.529	85.6268	217.529	85.5152	217.529	85.5733	217.529	85.3933	217.529	85.4932	217.529	85.2466	217.529	85.3854	217.529	85.0832	217.529	85.2525	217.529	84.9153	217.529	85.1012	217.529	84.7575	217.529	84.9419	217.529	84.6253	217.529	84.7879	217.529	84.5319	217.529	84.6534	217.529	84.4868	217.529	84.5517	217.529	84.4939
225.586	85.7469	225.586	85.7718	225.586	85.7184	225.586	85.7923	225.586	85.6869	225.586	85.807	225.586	85.6534	225.586	85.8135	225.586	85.6186	225.586	85.8079	225.586	85.5823	225.586	85.7849	225.586	85.5431	225.586	85.739	225.586	85.4978	225.586	85.665	225.586	85.442	225.586	85.5603	225.586	85.371	225.586	85.4255	225.586	85.2813	225.586	85.2654	225.586	85.1718	225.586	85.0895	225.586	85.0449	225.586	84.9103	225.586	84.9068	225.586	84.7423	225.586	84.767	225.586	84.5999	225.586	84.6371	225.586	84.4944	225.586	84.5292	225.586	84.4337	225.586	84.4543	225.586	84.4207
232.91	85.8923	232.91	85.8927	232.91	85.886	232.91	85.8893	232.91	85.8714	232.91	85.8834	232.91	85.8465	232.91	85.8743	232.91	85.8099	232.91	85.8587	232.91	85.76	232.91	85.8307	232.91	85.6953	232.91	85.7829	232.91	85.6138	232.91	85.7078	232.91	85.5139	232.91	85.5999	232.91	85.3946	232.91	85.458	232.91	85.2568	232.91	85.2856	232.91	85.1035	232.91	85.0924	232.91	84.941	232.91	84.8924	232.91	84.7779	232.91	84.7023	232.91	84.6247	232.91	84.5382	232.91	84.4919	232.91	84.4131	232.91	84.3895	232.91	84.3347	232.91	84.3254	232.91	84.3059
241.699	85.7062	241.699	85.6828	241.699	85.72	241.699	85.6514	241.699	85.7235	241.699	85.6138	241.699	85.7167	241.699	85.5715	241.699	85.6997	241.699	85.5243	241.699	85.6713	241.699	85.4697	241.699	85.6292	241.699	85.4033	241.699	85.5688	241.699	85.3195	241.699	85.4852	241.699	85.2133	241.699	85.3736	241.699	85.0823	241.699	85.2322	241.699	84.928	241.699	85.0627	241.699	84.7567	241.699	84.8722	241.699	84.5792	241.699	84.6727	241.699	84.4091	241.699	84.4796	241.699	84.2606	241.699	84.3092	241.699	84.1465	241.699	84.176	241.699	84.0764	241.699	84.0901	241.699	84.0566
249.756	85.9054	249.756	85.8923	249.756	85.8994	249.756	85.862	249.756	85.8735	249.756	85.8166	249.756	85.8278	249.756	85.7582	249.756	85.7636	249.756	85.6873	249.756	85.6819	249.756	85.6029	249.756	85.5835	249.756	85.5021	249.756	85.468	249.756	85.3813	249.756	85.3345	249.756	85.2375	249.756	85.1821	249.756	85.0702	249.756	85.0112	249.756	84.883	249.756	84.8251	249.756	84.6836	249.756	84.6305	249.756	84.4839	249.756	84.4379	249.756	84.2975	249.756	84.2599	249.756	84.138	249.756	84.1092	249.756	84.0159	249.756	83.9964	249.756	83.9383	249.756	83.9284	249.756	83.9087
258.545	85.8777	258.545	85.8549	258.545	85.8858	258.545	85.8187	258.545	85.8783	258.545	85.7702	258.545	85.8544	258.545	85.71	258.545	85.8132	258.545	85.6372	258.545	85.7536	258.545	85.5498	258.545	85.6736	258.545	85.4447	258.545	85.5711	258.545	85.3187	258.545	85.4439	258.545	85.1701	258.545	85.2911	258.545	85.0002	258.545	85.1142	258.545	84.8144	258.545	84.9181	258.545	84.6218	258.545	84.7118	258.545	84.4346	258.545	84.5077	258.545	84.2656	258.545	84.3199	258.545	84.1259	258.545	84.1619	258.545	84.023	258.545	84.0435	258.545	83.9612	258.545	83.9701	258.545	83.943
268.066	85.6153	268.066	85.5513	268.066	85.6648	268.066	85.4763	268.066	85.6967	268.066	85.3939	268.066	85.7077	268.066	85.3068	268.066	85.694	268.066	85.2162	268.066	85.6512	268.066	85.1205	268.066	85.5746	268.066	85.0155	268.066	85.4596	268.066	84.8948	268.066	85.3027	268.066	84.7522	268.066	85.1034	268.066	84.5838	268.066	84.8648	268.066	84.3901	268.066	84.5953	268.066	84.1777	268.066	84.3089	268.066	83.9581	268.066	84.0241	268.066	83.7468	268.066	83.7624	268.066	83.5595	268.066	83.5441	268.066	83.4105	268.066	83.3849	268.066	83.311	268.066	83.293	268.066	83.2696
277.588	85.7924	277.588	85.8098	277.588	85.7475	277.588	85.7921	277.588	85.6863	277.588	85.7359	277.588	85.6213	277.588	85.6415	277.588	85.5635	277.588	85.5129	277.588	85.5185	277.588	85.3562	277.588	85.4845	277.588	85.1792	277.588	85.4521	277.588	84.9903	277.588	85.4078	277.588	84.7982	277.588	85.3377	277.588	84.6111	277.588	85.2323	277.588	84.4363	277.588	85.0893	277.588	84.281	277.588	84.9148	277.588	84.1515	277.588	84.7221	277.588	84.0528	277.588	84.5284	277.588	83.9885	277.588	84.3508	277.588	83.9599	277.588	84.2016	277.588	83.967	277.588	84.0873	277.588	84.0093
287.109	85.9254	287.109	85.9626	287.109	85.8552	287.109	85.9674	287.109	85.7537	287.109	85.9402	287.109	85.626	287.109	85.8801	287.109	85.4819	287.109	85.7845	287.109	85.334	287.109	85.6503	287.109	85.1943	287.109	85.4761	287.109	85.0703	287.109	85.2641	287.109	84.9614	287.109	85.0224	287.109	84.8594	287.109	84.765	287.109	84.752	287.109	84.5106	287.109	84.6283	287.109	84.2788	287.109	84.4842	287.109	84.0849	287.109	84.3244	287.109	83.937	287.109	84.1614	287.109	83.835	287.109	84.0118	287.109	83.7741	287.109	83.8903	287.109	83.7494	287.109	83.8055	287.109	83.7593
297.363	85.8407	297.363	85.7818	297.363	85.8685	297.363	85.7014	297.363	85.8561	297.363	85.6078	297.363	85.7961	297.363	85.507	297.363	85.6835	297.363	85.4009	297.363	85.5179	297.363	85.2866	297.363	85.304	297.363	85.1576	297.363	85.0527	297.363	85.0061	297.363	84.7807	297.363	84.827	297.363	84.5086	297.363	84.6211	297.363	84.2574	297.363	84.3982	297.363	84.0442	297.363	84.1758	297.363	83.8787	297.363	83.9756	297.363	83.7618	297.363	83.8161	297.363	83.6872	297.363	83.7064	297.363	83.6443	297.363	83.6433	297.363	83.6218	297.363	83.615	297.363	83.6107	297.363	83.6074
307.617	85.6576	307.617	85.6022	307.617	85.6894	307.617	85.5235	307.617	85.6977	307.617	85.4227	307.617	85.6816	307.617	85.3023	307.617	85.6378	307.617	85.1656	307.617	85.561	307.617	85.0158	307.617	85.4443	307.617	84.8558	307.617	85.2821	307.617	84.6879	307.617	85.0727	307.617	84.5149	307.617	84.8222	307.617	84.3411	307.617	84.5454	307.617	84.173	307.617	84.2666	307.617	84.0198	307.617	84.0147	307.617	83.8906	307.617	83.8158	307.617	83.792	307.617	83.6843	307.617	83.7245	307.617	83.618	307.617	83.682	307.617	83.6008	307.617	83.654	307.617	83.611	307.617	83.6313
318.604	85.6426	318.604	85.6212	318.604	85.6225	318.604	85.5571	318.604	85.5651	318.604	85.4512	318.604	85.4768	318.604	85.306	318.604	85.365	318.604	85.1246	318.604	85.2351	318.604	84.9105	318.604	85.0887	318.604	84.6686	318.604	84.9229	318.604	84.4066	318.604	84.7317	318.604	84.1364	318.604	84.5097	318.604	83.8746	318.604	84.2571	318.604	83.6407	318.604	83.9835	318.604	83.4524	318.604	83.7099	318.604	83.3196	318.604	83.465	318.604	83.2401	318.604	83.2767	318.604	83.2	318.604	83.1605	318.604	83.1792	318.604	83.1129	318.604	83.1603	318.604	83.1134	318.604	83.136
329.59	85.6224	329.59	85.6153	329.59	85.5962	329.59	85.5728	329.59	85.539	329.59	85.4934	329.59	85.4533	329.59	85.3754	329.59	85.3411	329.59	85.2168	329.59	85.2029	329.59	85.0153	329.59	85.0377	329.59	84.7698	329.59	84.8438	329.59	84.4827	329.59	84.6199	329.59	84.1627	329.59	84.3676	329.59	83.8278	329.59	84.0939	329.59	83.5053	329.59	83.813	329.59	83.2277	329.59	83.5451	329.59	83.0228	329.59	83.3134	329.59	82.9021	329.59	83.1363	329.59	82.856	329.59	83.0204	329.59	82.8587	329.59	82.9568	329.59	82.8812	329.59	82.9254	329.59	82.9044
341.309	85.2871	341.309	85.2887	341.309	85.2438	341.309	85.2528	341.309	85.1571	341.309	85.1842	341.309	85.0285	341.309	85.0866	341.309	84.8632	341.309	84.9608	341.309	84.6682	341.309	84.8053	341.309	84.4511	341.309	84.6169	341.309	84.2182	341.309	84.3944	341.309	83.9742	341.309	84.1408	341.309	83.7239	341.309	83.8674	341.309	83.4746	341.309	83.5935	341.309	83.239	341.309	83.3449	341.309	83.0351	341.309	83.1459	341.309	82.882	341.309	83.0102	341.309	82.7921	341.309	82.9345	341.309	82.7641	341.309	82.8997	341.309	82.7813	341.309	82.8801	341.309	82.8191	341.309	82.8553
353.76	85.5168	353.76	85.4268	353.76	85.5611	353.76	85.298	353.76	85.555	353.76	85.1385	353.76	85.4952	353.76	84.9562	353.76	85.3798	353.76	84.7563	353.76	85.207	353.76	84.5406	353.76	84.9752	353.76	84.3075	353.76	84.6837	353.76	84.0539	353.76	84.3357	353.76	83.78	353.76	83.9406	353.76	83.493	353.76	83.5184	353.76	83.2095	353.76	83.1013	353.76	82.9535	353.76	82.7312	353.76	82.7491	353.76	82.4499	353.76	82.6092	353.76	82.2834	353.76	82.5281	353.76	82.2291	353.76	82.483	353.76	82.2569	353.76	82.4451	353.76	82.324	353.76	82.3931
366.211	85.4563	366.211	85.3887	366.211	85.4791	366.211	85.2747	366.211	85.46	366.211	85.1134	366.211	85.4026	366.211	84.9046	366.211	85.3099	366.211	84.6491	366.211	85.1832	366.211	84.3489	366.211	85.0206	366.211	84.0099	366.211	84.8172	366.211	83.6443	366.211	84.5676	366.211	83.2731	366.211	84.2692	366.211	82.9265	366.211	83.9272	366.211	82.6395	366.211	83.5593	366.211	82.4411	366.211	83.1971	366.211	82.3428	366.211	82.881	366.211	82.3312	366.211	82.6475	366.211	82.3731	366.211	82.513	366.211	82.4291	366.211	82.4644	366.211	82.4682	366.211	82.4662	366.211	82.4775
378.662	85.5027	378.662	85.4617	378.662	85.5015	378.662	85.3771	378.662	85.4592	378.662	85.247	378.662	85.3769	378.662	85.0682	378.662	85.2549	378.662	84.8363	378.662	85.0924	378.662	84.5471	378.662	84.8878	378.662	84.1991	378.662	84.6392	378.662	83.7985	378.662	84.347	378.662	83.365	378.662	84.0173	378.662	82.9356	378.662	83.6653	378.662	82.564	378.662	83.3174	378.662	82.3066	378.662	83.0097	378.662	82.198	378.662	82.7791	378.662	82.2299	378.662	82.6478	378.662	82.353	378.662	82.611	378.662	82.5011	378.662	82.6353	378.662	82.6185	378.662	82.6719	378.662	82.6754
392.578	85.0384	392.578	85.0259	392.578	85.0163	392.578	84.979	392.578	84.9614	392.578	84.8983	392.578	84.8764	392.578	84.783	392.578	84.7624	392.578	84.628	392.578	84.6166	392.578	84.4237	392.578	84.4318	392.578	84.1578	392.578	84.1976	392.578	83.8206	392.578	83.9054	392.578	83.4123	392.578	83.5543	392.578	82.9514	392.578	83.1573	392.578	82.481	392.578	82.7458	392.578	82.0672	392.578	82.3683	392.578	81.7787	392.578	82.0782	392.578	81.6528	392.578	81.9102	392.578	81.6704	392.578	81.8605	392.578	81.7672	392.578	81.8856	392.578	81.8697	392.578	81.9248	392.578	81.927
405.762	85.0036	405.762	84.9782	405.762	84.969	405.762	84.8975	405.762	84.8765	405.762	84.7702	405.762	84.7345	405.762	84.6046	405.762	84.5561	405.762	84.4047	405.762	84.3537	405.762	84.1681	405.762	84.1338	405.762	83.887	405.762	83.894	405.762	83.5532	405.762	83.6254	405.762	83.1652	405.762	83.3185	405.762	82.7373	405.762	82.9732	405.762	82.3061	405.762	82.6074	405.762	81.9301	405.762	82.2605	405.762	81.6723	405.762	81.9851	405.762	81.5685	405.762	81.8234	405.762	81.6021	405.762	81.7805	405.762	81.7107	405.762	81.8165	405.762	81.8201	405.762	81.8676	405.762	81.8774
420.41	84.9674	420.41	84.9261	420.41	84.9539	420.41	84.8365	420.41	84.883	420.41	84.7072	420.41	84.7575	420.41	84.5437	420.41	84.5834	420.41	84.3453	420.41	84.3675	420.41	84.1032	420.41	84.1128	420.41	83.8029	420.41	83.8167	420.41	83.4304	420.41	83.4714	420.41	82.9807	420.41	83.0694	420.41	82.4691	420.41	82.6122	420.41	81.9391	420.41	82.1214	420.41	81.4631	420.41	81.6455	420.41	81.1206	420.41	81.2541	420.41	80.9573	420.41	81.0108	420.41	80.9522	420.41	80.9336	420.41	81.03	420.41	80.9788	420.41	81.105	420.41	81.0657	420.41	81.1203
435.059	84.7088	435.059	84.7106	435.059	84.663	435.059	84.6699	435.059	84.5765	435.059	84.5913	435.059	84.4563	435.059	84.4785	435.059	84.3095	435.059	84.33	435.059	84.1394	435.059	84.1361	435.059	83.9416	435.059	83.8797	435.059	83.7036	435.059	83.5415	435.059	83.408	435.059	83.1094	435.059	83.0393	435.059	82.5895	435.059	82.5943	435.059	82.0193	435.059	82.092	435.059	81.4747	435.059	81.5833	435.059	81.0568	435.059	81.1487	435.059	80.8422	435.059	80.8704	435.059	80.8262	435.059	80.7837	435.059	80.9212	435.059	80.8459	435.059	81.0156	435.059	80.9604	435.059	81.0333
450.439	84.5606	450.439	84.5208	450.439	84.5277	450.439	84.4293	450.439	84.4147	450.439	84.3152	450.439	84.2296	450.439	84.2045	450.439	83.9936	450.439	84.1085	450.439	83.733	450.439	84.0154	450.439	83.4689	450.439	83.8915	450.439	83.2052	450.439	83.6914	450.439	82.9254	450.439	83.3717	450.439	82.5987	450.439	82.9039	450.439	82.1951	450.439	82.2875	450.439	81.7019	450.439	81.5631	450.439	81.1395	450.439	80.8227	450.439	80.5693	450.439	80.1958	450.439	80.0828	450.439	79.7888	450.439	79.7589	450.439	79.6105	450.439	79.6107	450.439	79.5737	450.439	79.5769	450.439	79.5765
466.553	84.1487	466.553	83.9788	466.553	84.2015	466.553	83.7164	466.553	84.139	466.553	83.4154	466.553	83.9833	466.553	83.1528	466.553	83.7685	466.553	83.0014	466.553	83.5318	466.553	82.9904	466.553	83.3015	466.553	83.0836	466.553	83.0869	466.553	83.1984	466.553	82.8757	466.553	83.2456	466.553	82.6399	466.553	83.1582	466.553	82.3495	466.553	82.9034	466.553	81.9858	466.553	82.4851	466.553	81.5531	466.553	81.9457	466.553	81.0856	466.553	81.363	466.553	80.6436	466.553	80.8314	466.553	80.2938	466.553	80.4245	466.553	80.0781	466.553	80.1636	466.553	79.9968	466.553	80.0278
482.666	85.1706	482.666	84.9688	482.666	85.1857	482.666	84.5775	482.666	85.026	482.666	84.008	482.666	84.7131	482.666	83.2986	482.666	84.2835	482.666	82.5357	482.666	83.7934	482.666	81.8669	482.666	83.3161	482.666	81.4646	482.666	82.9236	482.666	81.4161	482.666	82.6553	482.666	81.6429	482.666	82.4959	482.666	81.9664	482.666	82.3861	482.666	82.2266	482.666	82.2578	482.666	82.3335	482.666	82.0643	482.666	82.2627	482.666	81.7951	482.666	82.0369	482.666	81.4768	482.666	81.7116	482.666	81.1656	482.666	81.3604	482.666	80.9284	482.666	81.0584	482.666	80.8202	482.666	80.866
500.244	86.6525	500.244	86.5389	500.244	86.5986	500.244	86.2572	500.244	86.3738	500.244	85.8024	500.244	85.9748	500.244	85.1679	500.244	85.4041	500.244	84.3538	500.244	84.6801	500.244	83.3841	500.244	83.8511	500.244	82.3378	500.244	83.0108	500.244	81.387	500.244	82.3007	500.244	80.7832	500.244	81.8651	500.244	80.7036	500.244	81.7632	500.244	81.0758	500.244	81.9255	500.244	81.6563	500.244	82.2159	500.244	82.231	500.244	82.5186	500.244	82.6893	500.244	82.7722	500.244	82.9999	500.244	82.9611	500.244	83.1744	500.244	83.094	500.244	83.2428	500.244	83.1847	500.244	83.2379
517.822	85.8781	517.822	85.7738	517.822	85.8583	517.822	85.5449	517.822	85.7101	517.822	85.1868	517.822	85.425	517.822	84.6945	517.822	84.9929	517.822	84.0675	517.822	84.4078	517.822	83.3193	517.822	83.6775	517.822	82.491	517.822	82.8385	517.822	81.6695	517.822	81.9761	517.822	80.9943	517.822	81.2338	517.822	80.6166	517.822	80.7741	517.822	80.6036	517.822	80.678	517.822	80.8809	517.822	80.8806	517.822	81.2938	517.822	81.2324	517.822	81.7049	517.822	81.6022	517.822	82.0349	517.822	81.9173	517.822	82.2546	517.822	82.1526	517.822	82.3648	517.822	82.3056	517.822	82.3779
536.133	86.5265	536.133	86.4205	536.133	86.5234	536.133	86.2006	536.133	86.405	536.133	85.8524	536.133	86.1542	536.133	85.3548	536.133	85.7447	536.133	84.6854	536.133	85.1442	536.133	83.8309	536.133	84.3206	536.133	82.8041	536.133	83.2542	536.133	81.6768	536.133	81.9676	536.133	80.6257	536.133	80.5906	536.133	79.9318	536.133	79.45	536.133	79.8163	536.133	78.9925	536.133	80.2178	536.133	79.3405	536.133	80.8663	536.133	80.1348	536.133	81.5219	536.133	80.9809	536.133	82.0592	536.133	81.6866	536.133	82.4328	536.133	82.1995	536.133	82.6337	536.133	82.521	536.133	82.6633
554.443	86.2629	554.443	86.2067	554.443	86.2562	554.443	86.072	554.443	86.1887	554.443	85.831	554.443	86.0483	554.443	85.4474	554.443	85.81	554.443	84.8812	554.443	85.4393	554.443	84.0973	554.443	84.8969	554.443	83.0809	554.443	84.1477	554.443	81.8746	554.443	83.1767	554.443	80.6502	554.443	82.0251	554.443	79.768	554.443	80.8566	554.443	79.5954	554.443	80.0104	554.443	80.0941	554.443	79.8337	554.443	80.8786	554.443	80.301	554.443	81.6292	554.443	81.0513	554.443	82.2108	554.443	81.7708	554.443	82.5965	554.443	82.3192	554.443	82.796	554.443	82.6656	554.443	82.8198
574.219	86.2086	574.219	86.1185	574.219	86.2316	574.219	85.9628	574.219	86.176	574.219	85.7299	574.219	86.0231	574.219	85.3927	574.219	85.7478	574.219	84.9109	574.219	85.3193	574.219	84.2384	574.219	84.7023	574.219	83.3369	574.219	83.8625	574.219	82.1999	574.219	82.7797	574.219	80.9063	574.219	81.4839	574.219	79.7131	574.219	80.1395	574.219	79.0786	574.219	79.1463	574.219	79.3003	574.219	78.9751	574.219	80.1222	574.219	79.6124	574.219	81.0788	574.219	80.5801	574.219	81.8894	574.219	81.4886	574.219	82.4552	574.219	82.1803	574.219	82.7604	574.219	82.621	574.219	82.8134
594.727	86.0024	594.727	85.9546	594.727	86.0014	594.727	85.845	594.727	85.957	594.727	85.6528	594.727	85.8633	594.727	85.3468	594.727	85.6996	594.727	84.8831	594.727	85.4288	594.727	84.2058	594.727	85.001	594.727	83.2539	594.727	84.3599	594.727	81.9802	594.727	83.452	594.727	80.4094	594.727	82.2441	594.727	78.799	594.727	80.77	594.727	77.8403	594.727	79.2526	594.727	78.1418	594.727	78.2542	594.727	79.2686	594.727	78.3352	594.727	80.4674	594.727	79.2598	594.727	81.4011	594.727	80.3722	594.727	82.0017	594.727	81.2987	594.727	82.2805	594.727	81.9301	594.727	82.2553
615.234	85.7689	615.234	85.7641	615.234	85.7441	615.234	85.722	615.234	85.6902	615.234	85.6245	615.234	85.6003	615.234	85.4423	615.234	85.457	615.234	85.1355	615.234	85.2257	615.234	84.6552	615.234	84.8517	615.234	83.9451	615.234	84.2632	615.234	82.9459	615.234	83.3825	615.234	81.6155	615.234	82.1491	615.234	80.0054	615.234	80.5762	615.234	78.4703	615.234	78.9112	615.234	77.8287	615.234	77.8639	615.234	78.5038	615.234	78.1221	615.234	79.7879	615.234	79.2733	615.234	80.9696	615.234	80.517	615.234	81.8041	615.234	81.4868	615.234	82.2608	615.234	82.1001	615.234	82.3563
637.207	85.7067	637.207	85.6311	637.207	85.7414	637.207	85.522	637.207	85.733	637.207	85.3847	637.207	85.6811	637.207	85.2078	637.207	85.5774	637.207	84.9523	637.207	85.3975	637.207	84.5546	637.207	85.099	637.207	83.9427	637.207	84.6245	637.207	83.0562	637.207	83.908	637.207	81.8704	637.207	82.8855	637.207	80.4496	637.207	81.5266	637.207	79.0713	637.207	79.9361	637.207	78.3253	637.207	78.5857	637.207	78.6558	637.207	78.2928	637.207	79.7015	637.207	79.159	637.207	80.8263	637.207	80.3864	637.207	81.6917	637.207	81.4079	637.207	82.1941	637.207	82.0571	637.207	82.3167
659.912	85.3821	659.912	85.3065	659.912	85.4126	659.912	85.1871	659.912	85.3993	659.912	85.0216	659.912	85.3465	659.912	84.7966	659.912	85.2541	659.912	84.4823	659.912	85.1056	659.912	84.0294	659.912	84.8575	659.912	83.371	659.912	84.4412	659.912	82.4312	659.912	83.7751	659.912	81.1545	659.912	82.7823	659.912	79.5882	659.912	81.4199	659.912	78.0864	659.912	79.757	659.912	77.4412	659.912	78.1856	659.912	78.0607	659.912	77.5579	659.912	79.2935	659.912	78.2626	659.912	80.4607	659.912	79.5486	659.912	81.3043	659.912	80.7024	659.912	81.7638	659.912	81.4747	659.912	81.825
683.35	85.6227	683.35	85.625	683.35	85.5852	683.35	85.5869	683.35	85.519	683.35	85.5003	683.35	85.4277	683.35	85.3451	683.35	85.3038	683.35	85.0805	683.35	85.1195	683.35	84.6434	683.35	84.8246	683.35	83.9552	683.35	84.3517	683.35	82.9347	683.35	83.6254	683.35	81.5213	683.35	82.5788	683.35	79.7491	683.35	81.1913	683.35	77.9758	683.35	79.5921	683.35	77.1319	683.35	78.2551	683.35	77.7588	683.35	77.9077	683.35	79.0429	683.35	78.6182	683.35	80.2001	683.35	79.7001	683.35	81.0003	683.35	80.6382	683.35	81.4331	683.35	81.2545	683.35	81.5176
706.787	85.2906	706.787	85.1929	706.787	85.3291	706.787	85.0583	706.787	85.3065	706.787	84.9143	706.787	85.2388	706.787	84.7693	706.787	85.1421	706.787	84.5916	706.787	85.0073	706.787	84.3068	706.787	84.7834	706.787	83.8164	706.787	84.3814	706.787	83.0253	706.787	83.696	706.787	81.8771	706.787	82.6292	706.787	80.423	706.787	81.1222	706.787	78.9793	706.787	79.2538	706.787	78.2261	706.787	77.5338	706.787	78.5869	706.787	77.0386	706.787	79.5831	706.787	78.0027	706.787	80.5844	706.787	79.4006	706.787	81.31	706.787	80.5625	706.787	81.6854	706.787	81.3277	706.787	81.6953
731.689	85.1777	731.689	85.1395	731.689	85.1558	731.689	85.0546	731.689	85.0714	731.689	84.9338	731.689	84.9387	731.689	84.7673	731.689	84.7762	731.689	84.5142	731.689	84.582	731.689	84.1061	731.689	84.3097	731.689	83.4579	731.689	83.8705	731.689	82.4781	731.689	83.1589	731.689	81.0809	731.689	82.0864	731.689	79.2459	731.689	80.6257	731.689	77.2728	731.689	78.9171	731.689	76.2596	731.689	77.4891	731.689	77.0633	731.689	77.1575	731.689	78.6294	731.689	77.9618	731.689	79.9536	731.689	79.1308	731.689	80.7985	731.689	80.1433	731.689	81.1918	731.689	80.8402	731.689	81.1937
758.057	84.9571	758.057	84.9333	758.057	84.9393	758.057	84.8735	758.057	84.8901	758.057	84.7932	758.057	84.8245	758.057	84.6922	758.057	84.7428	758.057	84.53	758.057	84.6189	758.057	84.2213	758.057	84.3998	758.057	83.6568	758.057	84.0111	758.057	82.7286	758.057	83.3599	758.057	81.3546	758.057	82.337	758.057	79.5332	758.057	80.8362	758.057	77.552	758.057	78.8542	758.057	76.3831	758.057	76.8671	758.057	76.9196	758.057	76.234	758.057	78.3672	758.057	77.3421	758.057	79.7113	758.057	78.8478	758.057	80.6232	758.057	80.018	758.057	81.0763	758.057	80.7607	758.057	81.1111
784.424	84.4605	784.424	84.395	784.424	84.4722	784.424	84.3089	784.424	84.4235	784.424	84.2336	784.424	84.342	784.424	84.1643	784.424	84.2645	784.424	84.0412	784.424	84.1866	784.424	83.7591	784.424	84.0311	784.424	83.1951	784.424	83.6693	784.424	82.2315	784.424	82.9655	784.424	80.7778	784.424	81.8114	784.424	78.8494	784.424	80.1657	784.424	76.8753	784.424	78.1917	784.424	76.094	784.424	76.5981	784.424	77.0551	784.424	76.4555	784.424	78.5371	784.424	77.5759	784.424	79.7119	784.424	78.9171	784.424	80.4496	784.424	79.9615	784.424	80.8179	784.424	80.6033	784.424	80.872
812.256	83.6616	812.256	83.674	812.256	83.6239	812.256	83.6911	812.256	83.5887	812.256	83.7743	812.256	83.6195	812.256	83.9443	812.256	83.7579	812.256	84.1208	812.256	83.9625	812.256	84.1391	812.256	84.0984	812.256	83.8171	812.256	83.984	812.256	83.0006	812.256	83.4427	812.256	81.5763	812.256	82.3247	812.256	79.5359	812.256	80.522	812.256	77.3657	812.256	78.1001	812.256	76.6719	812.256	75.9954	812.256	77.9714	812.256	76.265	812.256	79.6175	812.256	78.2	812.256	80.8272	812.256	79.9518	812.256	81.5724	812.256	81.1096	812.256	81.9497	812.256	81.7568	812.256	82.0137
840.82	84.0569	840.82	83.8997	840.82	84.0736	840.82	83.6906	840.82	83.9499	840.82	83.5549	840.82	83.7725	840.82	83.5546	840.82	83.6568	840.82	83.6102	840.82	83.6524	840.82	83.5257	840.82	83.6865	840.82	83.076	840.82	83.5879	840.82	82.0727	840.82	83.1409	840.82	80.4275	840.82	82.1235	840.82	78.3739	840.82	80.3779	840.82	77.0427	840.82	78.1584	840.82	77.7394	840.82	77.067	840.82	79.5326	840.82	78.3264	840.82	81.1895	840.82	80.1872	840.82	82.3733	840.82	81.6197	840.82	83.0919	840.82	82.578	840.82	83.425	840.82	83.164	840.82	83.4404
870.85	83.9238	870.85	83.8586	870.85	83.9074	870.85	83.7975	870.85	83.8335	870.85	83.8744	870.85	83.8223	870.85	84.1317	870.85	84.0025	870.85	84.4256	870.85	84.3588	870.85	84.4878	870.85	84.6726	870.85	84.0212	870.85	84.6322	870.85	82.7024	870.85	83.9301	870.85	80.0729	870.85	82.2243	870.85	75.3281	870.85	78.9456	870.85	71.473	870.85	73.2176	870.85	76.9626	870.85	73.1663	870.85	80.9839	870.85	78.8186	870.85	83.27	870.85	82.0939	870.85	84.5372	870.85	83.9188	870.85	85.186	870.85	84.8993	870.85	85.469	870.85	85.3668	870.85	85.5237
901.611	83.7223	901.611	83.2595	901.611	83.7307	901.611	82.6451	901.611	83.3234	901.611	82.5369	901.611	82.9175	901.611	83.375	901.611	83.1981	901.611	84.6837	901.611	84.2919	901.611	85.7253	901.611	85.539	901.611	86.0496	901.611	86.3331	901.611	85.346	901.611	86.3452	901.611	83.1714	901.611	85.3036	901.611	78.3611	901.611	82.7106	901.611	67.35	901.611	77.0971	901.611	77.2486	901.611	70.1356	901.611	82.8059	901.611	79.5899	901.611	85.667	901.611	84.1009	901.611	87.2861	901.611	86.459	901.611	88.1681	901.611	87.7399	901.611	88.5718	901.611	88.3908	901.611	88.6372
933.105	87.0675	933.105	86.5058	933.105	86.8816	933.105	85.1656	933.105	85.9519	933.105	83.2696	933.105	84.3116	933.105	82.3149	933.105	82.5639	933.105	83.9085	933.105	82.6968	933.105	86.2006	933.105	84.8525	933.105	87.734	933.105	86.8877	933.105	88.1983	933.105	87.9832	933.105	87.435	933.105	87.9968	933.105	85.1115	933.105	86.7961	933.105	80.6238	933.105	84.0131	933.105	77.752	933.105	79.318	933.105	82.8763	933.105	79.6927	933.105	86.6751	933.105	84.8043	933.105	88.927	933.105	88.0255	933.105	90.2306	933.105	89.8325	933.105	90.8915	933.105	90.7468	933.105	91.0577
966.064	88.8196	966.064	88.2693	966.064	88.7378	966.064	87.0167	966.064	87.973	966.064	84.914	966.064	86.3439	966.064	82.1377	966.064	83.5969	966.064	81.1206	966.064	80.4353	966.064	83.6269	966.064	81.3969	966.064	86.2374	966.064	84.7994	966.064	87.6977	966.064	87.1172	966.064	87.8915	966.064	88.1235	966.064	86.6906	966.064	87.8691	966.064	83.7892	966.064	86.2147	966.064	79.7587	966.064	82.8767	966.064	81.511	966.064	79.8846	966.064	85.74	966.064	83.1952	966.064	88.4417	966.064	86.851	966.064	89.9699	966.064	89.0682	966.064	90.6905	966.064	90.2796	966.064	90.7827
999.756	89.32	999.756	88.9159	999.756	89.215	999.756	87.9035	999.756	88.6058	999.756	86.0673	999.756	87.3866	999.756	83.0493	999.756	85.2861	999.756	79.2032	999.756	81.8479	999.756	80.1265	999.756	78.2473	999.756	84.0491	999.756	81.0332	999.756	86.5454	999.756	84.835	999.756	87.5409	999.756	86.8999	999.756	87.1173	999.756	87.4469	999.756	85.1355	999.756	86.5513	999.756	81.7521	999.756	84.1338	999.756	80.9772	999.756	81.0764	999.756	84.4219	999.756	82.1624	999.756	87.2508	999.756	85.6806	999.756	88.998	999.756	88.2128	999.756	89.9406	999.756	89.6446	999.756	90.1746
1,034.91	88.7457	1,034.91	88.488	1,034.91	88.7335	1,034.91	87.8636	1,034.91	88.4241	1,034.91	86.649	1,034.91	87.6686	1,034.91	84.4731	1,034.91	86.174	1,034.91	80.8102	1,034.91	83.4031	1,034.91	77.2797	1,034.91	78.4388	1,034.91	80.7335	1,034.91	76.0794	1,034.91	84.4508	1,034.91	81.7542	1,034.91	86.3123	1,034.91	85.1883	1,034.91	86.6877	1,034.91	86.6401	1,034.91	85.7565	1,034.91	86.6069	1,034.91	83.6047	1,034.91	85.2709	1,034.91	81.4577	1,034.91	82.9347	1,034.91	82.761	1,034.91	81.5484	1,034.91	85.5688	1,034.91	83.3977	1,034.91	87.4812	1,034.91	85.8986	1,034.91	88.3757	1,034.91	87.5891	1,034.91	88.3979
1,071.53	87.1714	1,071.53	86.9821	1,071.53	87.2964	1,071.53	86.6497	1,071.53	87.288	1,071.53	85.9646	1,071.53	86.9553	1,071.53	84.595	1,071.53	86.0363	1,071.53	82.0383	1,071.53	84.1984	1,071.53	77.8207	1,071.53	80.9392	1,071.53	76.5598	1,071.53	76.2326	1,071.53	81.0907	1,071.53	77.5104	1,071.53	84.1935	1,071.53	81.9981	1,071.53	85.5364	1,071.53	84.4737	1,071.53	85.3506	1,071.53	85.2721	1,071.53	83.6973	1,071.53	84.66	1,071.53	81.0082	1,071.53	82.7096	1,071.53	80.0266	1,071.53	80.2599	1,071.53	82.3451	1,071.53	80.8394	1,071.53	84.6786	1,071.53	83.5537	1,071.53	85.9772	1,071.53	85.4598	1,071.53	86.2367
1,109.62	86.1844	1,109.62	86.0467	1,109.62	86.2065	1,109.62	85.7166	1,109.62	86.1406	1,109.62	85.1032	1,109.62	85.9032	1,109.62	84.0228	1,109.62	85.289	1,109.62	82.0156	1,109.62	83.9742	1,109.62	78.0983	1,109.62	81.4283	1,109.62	73.2686	1,109.62	76.7802	1,109.62	78.5097	1,109.62	74.0123	1,109.62	82.6543	1,109.62	79.3235	1,109.62	84.3649	1,109.62	82.7391	1,109.62	84.3564	1,109.62	84.2118	1,109.62	82.799	1,109.62	84.1215	1,109.62	79.528	1,109.62	82.3753	1,109.62	76.1783	1,109.62	79.0177	1,109.62	78.8117	1,109.62	77.497	1,109.62	82.023	1,109.62	80.2875	1,109.62	83.528	1,109.62	82.6079	1,109.62	83.661
1,148.44	85.4063	1,148.44	85.556	1,148.44	85.2368	1,148.44	85.5586	1,148.44	85.1404	1,148.44	85.2829	1,148.44	85.0865	1,148.44	84.5293	1,148.44	84.8865	1,148.44	82.9319	1,148.44	84.2181	1,148.44	79.8621	1,148.44	82.6012	1,148.44	74.7908	1,148.44	79.2427	1,148.44	75.0029	1,148.44	73.5953	1,148.44	79.8186	1,148.44	75.9885	1,148.44	82.4913	1,148.44	80.7042	1,148.44	83.3184	1,148.44	82.8331	1,148.44	82.4483	1,148.44	83.1233	1,148.44	79.776	1,148.44	81.7621	1,148.44	76.2759	1,148.44	78.7294	1,148.44	77.4336	1,148.44	75.9983	1,148.44	80.3995	1,148.44	77.83	1,148.44	81.7806	1,148.44	80.3411	1,148.44	81.6825
1,189.45	85.1858	1,189.45	85.2625	1,189.45	85.0133	1,189.45	85.1543	1,189.45	84.8842	1,189.45	84.8567	1,189.45	84.8769	1,189.45	84.381	1,189.45	84.8711	1,189.45	83.5812	1,189.45	84.5468	1,189.45	82.0145	1,189.45	83.5008	1,189.45	78.8427	1,189.45	81.2812	1,189.45	73.4076	1,189.45	77.3867	1,189.45	75.7219	1,189.45	74.058	1,189.45	80.4638	1,189.45	77.5767	1,189.45	82.4211	1,189.45	80.7927	1,189.45	82.314	1,189.45	82.0745	1,189.45	80.366	1,189.45	81.7049	1,189.45	76.5911	1,189.45	79.784	1,189.45	73.2237	1,189.45	76.5082	1,189.45	75.1819	1,189.45	74.2607	1,189.45	77.3454	1,189.45	75.9813	1,189.45	77.5893
1,231.2	85.6637	1,231.2	85.4988	1,231.2	85.6172	1,231.2	85.1274	1,231.2	85.4103	1,231.2	84.6201	1,231.2	85.1075	1,231.2	84.0449	1,231.2	84.7318	1,231.2	83.3042	1,231.2	84.2154	1,231.2	82.0433	1,231.2	83.3517	1,231.2	79.7914	1,231.2	81.8241	1,231.2	76.532	1,231.2	79.4238	1,231.2	75.1089	1,231.2	76.8998	1,231.2	77.4506	1,231.2	77.0223	1,231.2	79.5906	1,231.2	79.0092	1,231.2	80.1553	1,231.2	80.0883	1,231.2	78.6872	1,231.2	79.5342	1,231.2	74.3073	1,231.2	76.9721	1,231.2	62.2596	1,231.2	71.0401	1,231.2	65.1643	1,231.2	50.2835	1,231.2	71.0186	1,231.2	68.3799	1,231.2	71.6733
1,274.41	85.6085	1,274.41	85.4432	1,274.41	85.5896	1,274.41	85.1092	1,274.41	85.3679	1,274.41	84.5877	1,274.41	84.957	1,274.41	83.8495	1,274.41	84.4185	1,274.41	82.8579	1,274.41	83.8113	1,274.41	81.464	1,274.41	82.9544	1,274.41	79.3888	1,274.41	81.3612	1,274.41	77.0101	1,274.41	78.8385	1,274.41	76.6148	1,274.41	76.8856	1,274.41	77.8065	1,274.41	77.4981	1,274.41	78.339	1,274.41	78.8896	1,274.41	77.7803	1,274.41	79.4258	1,274.41	75.525	1,274.41	78.3562	1,274.41	69.2736	1,274.41	74.6724	1,274.41	64.498	1,274.41	63.9148	1,274.41	73.3196	1,274.41	67.4046	1,274.41	76.0942	1,274.41	74.1423	1,274.41	76.2478
1,319.82	85.5501	1,319.82	85.2859	1,319.82	85.5425	1,319.82	84.8525	1,319.82	85.2527	1,319.82	84.3139	1,319.82	84.7713	1,319.82	83.6377	1,319.82	84.2028	1,319.82	82.7615	1,319.82	83.6188	1,319.82	81.6005	1,319.82	82.8891	1,319.82	79.9396	1,319.82	81.4947	1,319.82	77.6924	1,319.82	78.9948	1,319.82	76.0838	1,319.82	76.5192	1,319.82	76.3372	1,319.82	76.84	1,319.82	76.7552	1,319.82	78.3506	1,319.82	76.2484	1,319.82	79.0024	1,319.82	73.8997	1,319.82	78.048	1,319.82	65.9508	1,319.82	74.4012	1,319.82	65.4621	1,319.82	63.1362	1,319.82	73.8958	1,319.82	67.3755	1,319.82	76.3311	1,319.82	74.2008	1,319.82	76.369
1,365.97	85.2193	1,365.97	84.9176	1,365.97	85.1994	1,365.97	84.4267	1,365.97	84.8397	1,365.97	83.8837	1,365.97	84.2561	1,365.97	83.2571	1,365.97	83.5789	1,365.97	82.3692	1,365.97	82.7938	1,365.97	81.1338	1,365.97	81.8397	1,365.97	79.4909	1,365.97	80.575	1,365.97	77.2195	1,365.97	78.5952	1,365.97	75.4019	1,365.97	76.101	1,365.97	76.3702	1,365.97	75.7377	1,365.97	77.5911	1,365.97	77.4408	1,365.97	77.1703	1,365.97	78.3153	1,365.97	74.7088	1,365.97	77.6487	1,365.97	68.1791	1,365.97	75.0091	1,365.97	60.4879	1,365.97	68.1641	1,365.97	72.1135	1,365.97	60.2387	1,365.97	75.2433	1,365.97	72.4268	1,365.97	75.4115
1,414.31	84.8503	1,414.31	84.5279	1,414.31	84.9039	1,414.31	84.1184	1,414.31	84.6199	1,414.31	83.7343	1,414.31	84.0281	1,414.31	83.1651	1,414.31	83.2351	1,414.31	82.0723	1,414.31	82.3673	1,414.31	80.4405	1,414.31	81.4293	1,414.31	78.7061	1,414.31	80.2013	1,414.31	77.067	1,414.31	78.4711	1,414.31	75.7415	1,414.31	76.4981	1,414.31	76.2119	1,414.31	75.605	1,414.31	77.3275	1,414.31	76.477	1,414.31	76.929	1,414.31	77.1746	1,414.31	74.2716	1,414.31	76.4849	1,414.31	67.2708	1,414.31	74.151	1,414.31	60.3931	1,414.31	69.0594	1,414.31	71.1173	1,414.31	63.8391	1,414.31	74.2452	1,414.31	71.8284	1,414.31	74.5988
1,464.11	84.9494	1,464.11	84.6236	1,464.11	84.822	1,464.11	83.9613	1,464.11	84.3286	1,464.11	83.2768	1,464.11	83.6424	1,464.11	82.7021	1,464.11	82.8601	1,464.11	81.8407	1,464.11	81.9097	1,464.11	80.2334	1,464.11	80.8353	1,464.11	78.1566	1,464.11	79.722	1,464.11	76.5696	1,464.11	78.1794	1,464.11	75.6873	1,464.11	76.4143	1,464.11	75.7345	1,464.11	75.8155	1,464.11	76.3018	1,464.11	76.0774	1,464.11	75.7213	1,464.11	76.1568	1,464.11	73.1666	1,464.11	75.4817	1,464.11	67.3605	1,464.11	73.1743	1,464.11	61.6706	1,464.11	68.2916	1,464.11	71.2425	1,464.11	67.8583	1,464.11	74.7866	1,464.11	73.0947	1,464.11	75.2625
1,515.38	85.0324	1,515.38	84.7782	1,515.38	84.8165	1,515.38	84.0554	1,515.38	84.2764	1,515.38	83.1551	1,515.38	83.6223	1,515.38	82.4939	1,515.38	82.9557	1,515.38	81.7898	1,515.38	82.0082	1,515.38	80.1577	1,515.38	80.5007	1,515.38	77.3612	1,515.38	78.7016	1,515.38	75.0915	1,515.38	76.8267	1,515.38	75.1789	1,515.38	75.2452	1,515.38	75.9381	1,515.38	75.6226	1,515.38	76.2198	1,515.38	76.5048	1,515.38	75.1166	1,515.38	75.7758	1,515.38	71.9321	1,515.38	73.2585	1,515.38	65.9966	1,515.38	69.0101	1,515.38	66.0232	1,515.38	64.5825	1,515.38	72.8392	1,515.38	70.1288	1,515.38	75.8361	1,515.38	74.5326	1,515.38	76.2478
1,568.85	85.1277	1,568.85	84.7437	1,568.85	85.0815	1,568.85	83.9747	1,568.85	84.5903	1,568.85	82.8578	1,568.85	83.7962	1,568.85	81.737	1,568.85	82.9751	1,568.85	81.056	1,568.85	82.1256	1,568.85	80.2351	1,568.85	80.7848	1,568.85	78.1956	1,568.85	78.9412	1,568.85	75.1688	1,568.85	76.9661	1,568.85	74.5126	1,568.85	74.9579	1,568.85	75.7322	1,568.85	75.2034	1,568.85	76.6019	1,568.85	76.979	1,568.85	76.2651	1,568.85	77.0751	1,568.85	73.2815	1,568.85	75.1087	1,568.85	64.4537	1,568.85	70.5984	1,568.85	65.303	1,568.85	60.8513	1,568.85	73.6608	1,568.85	69.2646	1,568.85	76.7046	1,568.85	74.9346	1,568.85	77.0226
1,624.51	84.8054	1,624.51	84.5041	1,624.51	84.7586	1,624.51	83.9037	1,624.51	84.2949	1,624.51	82.991	1,624.51	83.441	1,624.51	81.8214	1,624.51	82.4361	1,624.51	80.698	1,624.51	81.5474	1,624.51	79.7945	1,624.51	80.4856	1,624.51	78.3112	1,624.51	78.7576	1,624.51	75.5018	1,624.51	76.196	1,624.51	74.097	1,624.51	73.0126	1,624.51	75.8544	1,624.51	72.8963	1,624.51	76.8265	1,624.51	75.5923	1,624.51	76.3555	1,624.51	76.6707	1,624.51	74.0543	1,624.51	75.3673	1,624.51	67.7807	1,624.51	70.477	1,624.51	59.1814	1,624.51	50.2037	1,624.51	71.747	1,624.51	69.1559	1,624.51	75.6271	1,624.51	74.3892	1,624.51	76.2618
1,681.64	85.2353	1,681.64	84.9401	1,681.64	85.1734	1,681.64	84.2253	1,681.64	84.7674	1,681.64	83.0869	1,681.64	83.9431	1,681.64	81.8714	1,681.64	82.659	1,681.64	81.0982	1,681.64	81.447	1,681.64	80.4957	1,681.64	80.7913	1,681.64	78.9896	1,681.64	79.8574	1,681.64	75.976	1,681.64	77.6992	1,681.64	73.0867	1,681.64	74.0348	1,681.64	74.3783	1,681.64	70.4878	1,681.64	76.5018	1,681.64	72.8017	1,681.64	76.9584	1,681.64	75.8303	1,681.64	75.0282	1,681.64	75.9296	1,681.64	68.7479	1,681.64	72.5096	1,681.64	63.7574	1,681.64	62.435	1,681.64	72.6807	1,681.64	64.6324	1,681.64	75.7429	1,681.64	73.0464	1,681.64	75.9015
1,740.97	85.6848	1,740.97	85.3344	1,740.97	85.6538	1,740.97	84.5399	1,740.97	85.2524	1,740.97	83.3203	1,740.97	84.3941	1,740.97	81.868	1,740.97	83.0421	1,740.97	80.6336	1,740.97	81.5848	1,740.97	79.8898	1,740.97	80.67	1,740.97	78.7438	1,740.97	80.0611	1,740.97	76.1017	1,740.97	78.7028	1,740.97	72.324	1,740.97	75.589	1,740.97	72.3945	1,740.97	71.2485	1,740.97	75.2976	1,740.97	72.5546	1,740.97	76.3746	1,740.97	75.5609	1,740.97	74.7425	1,740.97	75.9051	1,740.97	69.1822	1,740.97	73.0437	1,740.97	59.8463	1,740.97	64.8353	1,740.97	72.0327	1,740.97	66.3402	1,740.97	75.6225	1,740.97	73.059	1,740.97	75.7514
1,802.49	86.2865	1,802.49	86.0157	1,802.49	86.172	1,802.49	85.2253	1,802.49	85.6751	1,802.49	83.9589	1,802.49	84.7981	1,802.49	82.5468	1,802.49	83.5471	1,802.49	81.1282	1,802.49	82.0548	1,802.49	79.9753	1,802.49	80.9145	1,802.49	79.0951	1,802.49	80.2	1,802.49	77.2233	1,802.49	78.9676	1,802.49	73.7845	1,802.49	76.3821	1,802.49	71.6199	1,802.49	72.4658	1,802.49	73.3501	1,802.49	71.9383	1,802.49	75.2206	1,802.49	74.2461	1,802.49	74.5493	1,802.49	74.6722	1,802.49	70.3705	1,802.49	72.1486	1,802.49	62.2897	1,802.49	62.1491	1,802.49	70.6824	1,802.49	66.2962	1,802.49	75.2505	1,802.49	73.1716	1,802.49	75.7157
1,866.21	85.709	1,866.21	85.4393	1,866.21	85.6423	1,866.21	84.9109	1,866.21	85.0464	1,866.21	83.8952	1,866.21	84.0646	1,866.21	82.3486	1,866.21	82.8185	1,866.21	80.5831	1,866.21	81.1299	1,866.21	79.2301	1,866.21	79.4259	1,866.21	78.4983	1,866.21	78.6539	1,866.21	77.1944	1,866.21	77.9729	1,866.21	74.648	1,866.21	75.9555	1,866.21	72.2072	1,866.21	72.0228	1,866.21	72.0866	1,866.21	70.0632	1,866.21	74.2735	1,866.21	73.1361	1,866.21	74.4377	1,866.21	74.7456	1,866.21	71.3047	1,866.21	73.5286	1,866.21	64.9842	1,866.21	66.9135	1,866.21	70.7986	1,866.21	63.707	1,866.21	74.6777	1,866.21	72.1204	1,866.21	74.8277
1,932.13	85.0527	1,932.13	84.7568	1,932.13	85.0219	1,932.13	84.0667	1,932.13	84.6007	1,932.13	82.8212	1,932.13	83.6354	1,932.13	81.2268	1,932.13	82.0864	1,932.13	79.8479	1,932.13	80.2258	1,932.13	78.619	1,932.13	78.4984	1,932.13	77.5764	1,932.13	77.6046	1,932.13	76.2844	1,932.13	77.3352	1,932.13	74.1215	1,932.13	75.7061	1,932.13	73.2245	1,932.13	72.5897	1,932.13	73.7355	1,932.13	69.8409	1,932.13	74.3427	1,932.13	71.8472	1,932.13	73.4537	1,932.13	74.0566	1,932.13	70.1132	1,932.13	72.2883	1,932.13	67.112	1,932.13	64.8851	1,932.13	71.0139	1,932.13	58.3423	1,932.13	73.892	1,932.13	68.7165	1,932.13	73.0059
2,000.24	86.469	2,000.24	85.9224	2,000.24	86.3746	2,000.24	84.8344	2,000.24	85.8811	2,000.24	83.6014	2,000.24	84.9242	2,000.24	82.1921	2,000.24	83.4177	2,000.24	80.3349	2,000.24	81.8784	2,000.24	78.4657	2,000.24	80.4711	2,000.24	77.2026	2,000.24	79.0813	2,000.24	75.8488	2,000.24	78.1369	2,000.24	73.5811	2,000.24	76.695	2,000.24	72.115	2,000.24	75.0134	2,000.24	72.2951	2,000.24	73.0561	2,000.24	73.5725	2,000.24	72.3172	2,000.24	73.6238	2,000.24	73.4776	2,000.24	70.8243	2,000.24	73.1206	2,000.24	66.2789	2,000.24	69.6614	2,000.24	72.0284	2,000.24	66.8697	2,000.24	74.091	2,000.24	72.274	2,000.24	74.1006
2,070.56	88.0511	2,070.56	87.5501	2,070.56	87.8699	2,070.56	86.5423	2,070.56	87.245	2,070.56	85.4247	2,070.56	86.3596	2,070.56	84.0632	2,070.56	85.0647	2,070.56	81.9701	2,070.56	83.5128	2,070.56	79.7921	2,070.56	82.0779	2,070.56	78.8989	2,070.56	80.1358	2,070.56	77.5609	2,070.56	78.4932	2,070.56	73.7769	2,070.56	77.1819	2,070.56	71.5659	2,070.56	75.6219	2,070.56	72.13	2,070.56	74.4457	2,070.56	73.74	2,070.56	73.3025	2,070.56	73.8471	2,070.56	74.6327	2,070.56	71.1527	2,070.56	74.4258	2,070.56	64.9038	2,070.56	68.8847	2,070.56	72.2641	2,070.56	70.4628	2,070.56	76.4098	2,070.56	75.1618	2,070.56	76.7641
2,143.8	87.6898	2,143.8	87.2036	2,143.8	87.5254	2,143.8	86.5279	2,143.8	86.948	2,143.8	85.6461	2,143.8	86.1541	2,143.8	83.9537	2,143.8	84.9307	2,143.8	82.0644	2,143.8	83.1742	2,143.8	80.722	2,143.8	81.4009	2,143.8	79.525	2,143.8	79.2854	2,143.8	78.2831	2,143.8	77.2324	2,143.8	76.1859	2,143.8	76.5673	2,143.8	74.3077	2,143.8	74.4941	2,143.8	73.9163	2,143.8	73.3131	2,143.8	74.0181	2,143.8	72.8346	2,143.8	74.9316	2,143.8	73.8738	2,143.8	72.7579	2,143.8	74.0019	2,143.8	67.9089	2,143.8	67.5083	2,143.8	71.0293	2,143.8	66.1954	2,143.8	75.9768	2,143.8	73.7924	2,143.8	76.3589
2,219.24	87.0357	2,219.24	86.4429	2,219.24	86.8396	2,219.24	85.6352	2,219.24	86.1626	2,219.24	84.8902	2,219.24	85.4076	2,219.24	83.2519	2,219.24	84.4332	2,219.24	81.1795	2,219.24	83.0581	2,219.24	79.6905	2,219.24	81.1895	2,219.24	77.4355	2,219.24	79.346	2,219.24	75.8672	2,219.24	77.5592	2,219.24	74.5459	2,219.24	76.0929	2,219.24	72.7274	2,219.24	72.9658	2,219.24	73.0123	2,219.24	71.148	2,219.24	72.748	2,219.24	72.3784	2,219.24	73.5371	2,219.24	73.2672	2,219.24	72.1826	2,219.24	73.4544	2,219.24	66.7523	2,219.24	67.7317	2,219.24	72.8468	2,219.24	60.7985	2,219.24	76.1359	2,219.24	72.0136	2,219.24	75.634
2,297.61	88.2061	2,297.61	87.5761	2,297.61	88.4708	2,297.61	86.5416	2,297.61	87.8965	2,297.61	85.4074	2,297.61	86.7763	2,297.61	84.1355	2,297.61	85.8078	2,297.61	81.9174	2,297.61	84.6938	2,297.61	80.1463	2,297.61	82.5433	2,297.61	78.3434	2,297.61	80.6964	2,297.61	76.5683	2,297.61	79.9285	2,297.61	76.3063	2,297.61	78.6995	2,297.61	72.4384	2,297.61	76.3451	2,297.61	67.4633	2,297.61	73.3449	2,297.61	70.449	2,297.61	73.905	2,297.61	74.472	2,297.61	74.5684	2,297.61	73.3526	2,297.61	76.2185	2,297.61	62.0286	2,297.61	74.4568	2,297.61	68.838	2,297.61	61.863	2,297.61	73.739	2,297.61	68.1106	2,297.61	73.7947
2,378.17	88.7857	2,378.17	88.3022	2,378.17	88.837	2,378.17	87.2855	2,378.17	88.3006	2,378.17	86.2423	2,378.17	87.1882	2,378.17	85.2469	2,378.17	85.9514	2,378.17	83.3519	2,378.17	84.4217	2,378.17	81.2517	2,378.17	82.2945	2,378.17	80.0053	2,378.17	80.2601	2,378.17	78.3507	2,378.17	79.5162	2,378.17	77.4989	2,378.17	78.8536	2,378.17	76.7947	2,378.17	77.3093	2,378.17	74.5447	2,378.17	75.5622	2,378.17	71.2483	2,378.17	72.1838	2,378.17	73.0039	2,378.17	73.6713	2,378.17	73.9477	2,378.17	76.5405	2,378.17	68.5541	2,378.17	75.7881	2,378.17	57.3388	2,378.17	69.7761	2,378.17	71.7577	2,378.17	65.2567	2,378.17	72.7631
2,462.4	88.5989	2,462.4	87.9446	2,462.4	88.5729	2,462.4	87.0001	2,462.4	87.8084	2,462.4	85.9894	2,462.4	86.5224	2,462.4	84.5712	2,462.4	85.2823	2,462.4	82.8139	2,462.4	83.6343	2,462.4	81.3566	2,462.4	82.0808	2,462.4	80.5117	2,462.4	80.5418	2,462.4	79.4345	2,462.4	78.8271	2,462.4	77.813	2,462.4	77.9549	2,462.4	76.6622	2,462.4	75.7628	2,462.4	74.9762	2,462.4	73.6927	2,462.4	72.481	2,462.4	72.9884	2,462.4	73.5873	2,462.4	71.227	2,462.4	75.5194	2,462.4	74.0697	2,462.4	72.2809	2,462.4	74.0108	2,462.4	68.4212	2,462.4	69.007	2,462.4	73.2872	2,462.4	68.4711	2,462.4	73.6237
2,548.83	88.2878	2,548.83	87.7302	2,548.83	88.3304	2,548.83	86.8457	2,548.83	87.7446	2,548.83	85.6673	2,548.83	86.7621	2,548.83	84.3823	2,548.83	85.7592	2,548.83	82.9813	2,548.83	84.5256	2,548.83	81.0844	2,548.83	82.8177	2,548.83	78.9358	2,548.83	81.1451	2,548.83	77.6592	2,548.83	79.2312	2,548.83	76.7751	2,548.83	78.1735	2,548.83	75.4429	2,548.83	76.6568	2,548.83	74.2805	2,548.83	74.74	2,548.83	71.3049	2,548.83	73.1374	2,548.83	72.2337	2,548.83	71.7154	2,548.83	73.4316	2,548.83	72.4481	2,548.83	70.379	2,548.83	74.4488	2,548.83	68.4164	2,548.83	69.8152	2,548.83	74.4816	2,548.83	70.0871	2,548.83	74.5565
2,638.92	88.0697	2,638.92	87.6422	2,638.92	88.0188	2,638.92	86.7182	2,638.92	87.6072	2,638.92	85.5843	2,638.92	86.6338	2,638.92	84.3931	2,638.92	85.5057	2,638.92	83.2699	2,638.92	84.4179	2,638.92	81.7465	2,638.92	82.8098	2,638.92	80.1179	2,638.92	81.1074	2,638.92	78.2413	2,638.92	79.1894	2,638.92	76.8124	2,638.92	77.9043	2,638.92	75.8922	2,638.92	77.153	2,638.92	74.7862	2,638.92	75.5689	2,638.92	72.2637	2,638.92	74.4106	2,638.92	71.7935	2,638.92	72.2027	2,638.92	74.135	2,638.92	72.791	2,638.92	70.6249	2,638.92	73.4809	2,638.92	64.0337	2,638.92	69.1721	2,638.92	73.3902	2,638.92	68.2424	2,638.92	74.2647
2,731.93	87.1886	2,731.93	86.8517	2,731.93	87.1863	2,731.93	85.9903	2,731.93	86.7016	2,731.93	85.0138	2,731.93	86.001	2,731.93	84.2058	2,731.93	84.8794	2,731.93	83.1739	2,731.93	83.8157	2,731.93	81.8288	2,731.93	82.5809	2,731.93	80.0409	2,731.93	81.0218	2,731.93	78.2179	2,731.93	79.1931	2,731.93	76.8301	2,731.93	76.9794	2,731.93	75.2037	2,731.93	76.4155	2,731.93	74.9234	2,731.93	75.1916	2,731.93	73.0825	2,731.93	74.1259	2,731.93	70.8618	2,731.93	71.6133	2,731.93	72.1454	2,731.93	71.415	2,731.93	70.8052	2,731.93	73.3633	2,731.93	66.0237	2,731.93	69.0198	2,731.93	71.9538	2,731.93	66.7376	2,731.93	73.0043
2,828.61	87.4134	2,828.61	86.9894	2,828.61	87.4165	2,828.61	86.3266	2,828.61	86.7575	2,828.61	85.4525	2,828.61	85.9774	2,828.61	84.288	2,828.61	84.9398	2,828.61	82.7581	2,828.61	83.7626	2,828.61	81.462	2,828.61	82.8857	2,828.61	80.0457	2,828.61	81.3001	2,828.61	77.9485	2,828.61	79.3056	2,828.61	76.0745	2,828.61	77.941	2,828.61	74.6067	2,828.61	76.3965	2,828.61	73.5186	2,828.61	75.1629	2,828.61	72.8665	2,828.61	74.3058	2,828.61	70.6911	2,828.61	73.0636	2,828.61	73.0542	2,828.61	71.5232	2,828.61	71.4313	2,828.61	72.5615	2,828.61	66.6448	2,828.61	70.3717	2,828.61	72.3913	2,828.61	64.384	2,828.61	72.4762
2,928.22	86.7252	2,928.22	86.4215	2,928.22	86.4256	2,928.22	85.9549	2,928.22	85.9351	2,928.22	85.2579	2,928.22	85.2661	2,928.22	84.1838	2,928.22	84.1253	2,928.22	83.069	2,928.22	83.0192	2,928.22	81.7186	2,928.22	81.861	2,928.22	79.9272	2,928.22	80.9729	2,928.22	78.1356	2,928.22	79.5034	2,928.22	76.5229	2,928.22	77.0512	2,928.22	75.3261	2,928.22	75.6074	2,928.22	73.4826	2,928.22	73.909	2,928.22	72.106	2,928.22	72.724	2,928.22	70.0118	2,928.22	71.5512	2,928.22	71.988	2,928.22	70.6335	2,928.22	70.6406	2,928.22	72.8184	2,928.22	67.5352	2,928.22	68.8232	2,928.22	72.7193	2,928.22	66.318	2,928.22	72.7196
3,031.49	85.6472	3,031.49	85.5992	3,031.49	85.2662	3,031.49	85.0197	3,031.49	84.947	3,031.49	84.4553	3,031.49	84.3413	3,031.49	83.6856	3,031.49	83.7459	3,031.49	82.5547	3,031.49	82.6634	3,031.49	80.9433	3,031.49	81.3738	3,031.49	79.2263	3,031.49	80.0848	3,031.49	77.2074	3,031.49	78.8163	3,031.49	75.3738	3,031.49	76.9165	3,031.49	74.5888	3,031.49	74.7623	3,031.49	72.7304	3,031.49	73.5493	3,031.49	71.1522	3,031.49	71.7938	3,031.49	70.5358	3,031.49	71.8499	3,031.49	72.9733	3,031.49	71.0106	3,031.49	69.7384	3,031.49	72.4634	3,031.49	61.4789	3,031.49	68.844	3,031.49	71.7439	3,031.49	62.1239	3,031.49	71.3569
3,138.43	85.4021	3,138.43	85.2611	3,138.43	85.3515	3,138.43	84.8533	3,138.43	84.9534	3,138.43	84.4104	3,138.43	84.5726	3,138.43	83.722	3,138.43	84.2716	3,138.43	82.3543	3,138.43	83.4278	3,138.43	80.7074	3,138.43	82.2565	3,138.43	79.0075	3,138.43	80.5981	3,138.43	77.1302	3,138.43	78.8027	3,138.43	75.261	3,138.43	76.8662	3,138.43	73.3149	3,138.43	75.1219	3,138.43	72.4056	3,138.43	74.0573	3,138.43	70.7384	3,138.43	72.6368	3,138.43	67.7878	3,138.43	71.8315	3,138.43	72.0757	3,138.43	69.5351	3,138.43	71.1735	3,138.43	72.0128	3,138.43	56.3878	3,138.43	70.8175	3,138.43	69.8345	3,138.43	62.4337	3,138.43	71.7615
3,249.02	84.5491	3,249.02	84.6645	3,249.02	84.5735	3,249.02	84.5662	3,249.02	84.5761	3,249.02	84.4837	3,249.02	84.6019	3,249.02	83.87	3,249.02	84.3243	3,249.02	82.2586	3,249.02	83.4829	3,249.02	80.5564	3,249.02	82.3925	3,249.02	79.0441	3,249.02	80.562	3,249.02	77.2086	3,249.02	78.5939	3,249.02	75.5201	3,249.02	76.7715	3,249.02	74.083	3,249.02	74.4482	3,249.02	71.0602	3,249.02	73.6166	3,249.02	70.8951	3,249.02	72.4572	3,249.02	70.8765	3,249.02	71.8585	3,249.02	69.7767	3,249.02	70.4924	3,249.02	70.5113	3,249.02	71.1003	3,249.02	63.6097	3,249.02	69.568	3,249.02	71.161	3,249.02	64.1697	3,249.02	70.8985
3,363.28	82.962	3,363.28	83.4935	3,363.28	82.8055	3,363.28	83.9629	3,363.28	83.1424	3,363.28	83.9282	3,363.28	83.49	3,363.28	83.3025	3,363.28	83.4581	3,363.28	82.1055	3,363.28	82.7578	3,363.28	80.5457	3,363.28	81.5815	3,363.28	78.7522	3,363.28	79.6478	3,363.28	76.2264	3,363.28	77.6646	3,363.28	74.4645	3,363.28	75.9873	3,363.28	72.9424	3,363.28	73.7612	3,363.28	71.5847	3,363.28	71.6027	3,363.28	70.0573	3,363.28	69.9173	3,363.28	68.099	3,363.28	70.3781	3,363.28	68.9685	3,363.28	69.6012	3,363.28	69.8243	3,363.28	70.5397	3,363.28	57.3892	3,363.28	69.3987	3,363.28	69.1348	3,363.28	58.7527	3,363.28	70.3838
3,481.93	83.2617	3,481.93	83.4898	3,481.93	83.361	3,481.93	83.6588	3,481.93	83.6465	3,481.93	83.335	3,481.93	84.0034	3,481.93	83.0885	3,481.93	83.8268	3,481.93	81.9623	3,481.93	83.049	3,481.93	79.8339	3,481.93	81.2377	3,481.93	77.1673	3,481.93	79.2751	3,481.93	74.9542	3,481.93	77.7138	3,481.93	72.5567	3,481.93	74.3153	3,481.93	71.3354	3,481.93	73.0118	3,481.93	70.117	3,481.93	72.1676	3,481.93	70.3862	3,481.93	69.7583	3,481.93	68.3912	3,481.93	69.7601	3,481.93	69.7125	3,481.93	67.7603	3,481.93	70.264	3,481.93	70.5013	3,481.93	61.3312	3,481.93	69.9585	3,481.93	67.5884	3,481.93	61.7051	3,481.93	70.3821
3,604.98	84.0051	3,604.98	84.2333	3,604.98	83.9251	3,604.98	84.4787	3,604.98	84.1796	3,604.98	84.3222	3,604.98	84.2352	3,604.98	83.2622	3,604.98	83.5948	3,604.98	81.9447	3,604.98	82.2171	3,604.98	80.0919	3,604.98	80.835	3,604.98	77.2189	3,604.98	78.8232	3,604.98	75.336	3,604.98	76.3232	3,604.98	72.156	3,604.98	73.9024	3,604.98	71.3623	3,604.98	71.0454	3,604.98	69.8346	3,604.98	71.7447	3,604.98	68.8634	3,604.98	67.9844	3,604.98	70.358	3,604.98	69.6511	3,604.98	67.4289	3,604.98	67.411	3,604.98	70.7773	3,604.98	69.1932	3,604.98	66.3429	3,604.98	69.153	3,604.98	69.3017	3,604.98	62.0134	3,604.98	71.3301
3,732.42	84.474	3,732.42	84.7956	3,732.42	84.4391	3,732.42	85.0179	3,732.42	84.5042	3,732.42	84.5576	3,732.42	84.4325	3,732.42	82.8818	3,732.42	83.8155	3,732.42	80.9573	3,732.42	82.4345	3,732.42	79.0474	3,732.42	80.6777	3,732.42	76.2351	3,732.42	78.292	3,732.42	74.1416	3,732.42	75.6885	3,732.42	72.1897	3,732.42	73.8243	3,732.42	69.5746	3,732.42	69.9622	3,732.42	68.8359	3,732.42	68.7011	3,732.42	63.4951	3,732.42	67.5587	3,732.42	69.1541	3,732.42	66.5201	3,732.42	68.3235	3,732.42	68.8923	3,732.42	69.7305	3,732.42	66.5329	3,732.42	64.541	3,732.42	68.2315	3,732.42	70.0599	3,732.42	60.4364	3,732.42	67.9866
3,863.53	84.9641	3,863.53	85.3192	3,863.53	84.9928	3,863.53	85.3848	3,863.53	85.1401	3,863.53	84.4378	3,863.53	85.051	3,863.53	82.8322	3,863.53	83.8796	3,863.53	80.2768	3,863.53	81.789	3,863.53	78.5521	3,863.53	80.0272	3,863.53	75.5509	3,863.53	77.2283	3,863.53	73.4283	3,863.53	74.4814	3,863.53	71.5396	3,863.53	73.1265	3,863.53	69.3726	3,863.53	70.152	3,863.53	69.7634	3,863.53	68.1234	3,863.53	63.9393	3,863.53	67.2029	3,863.53	65.1974	3,863.53	63.2784	3,863.53	66.8521	3,863.53	67.344	3,863.53	68.6079	3,863.53	66.5359	3,863.53	62.1079	3,863.53	69.6148	3,863.53	66.0221	3,863.53	62.1505	3,863.53	68.55
3,999.76	86.3767	3,999.76	86.4774	3,999.76	86.441	3,999.76	86.3041	3,999.76	86.2439	3,999.76	85.1058	3,999.76	85.9415	3,999.76	83.1549	3,999.76	84.8788	3,999.76	80.6053	3,999.76	83.1566	3,999.76	77.3623	3,999.76	80.1472	3,999.76	74.2773	3,999.76	77.6398	3,999.76	72.5673	3,999.76	74.8466	3,999.76	70.1656	3,999.76	72.0446	3,999.76	66.2983	3,999.76	70.8721	3,999.76	67.5445	3,999.76	69.0381	3,999.76	63.4826	3,999.76	67.0518	3,999.76	63.9961	3,999.76	63.7086	3,999.76	65.3194	3,999.76	67.2742	3,999.76	68.5353	3,999.76	65.4544	3,999.76	62.7268	3,999.76	66.6352	3,999.76	68.4332	3,999.76	60.1226	3,999.76	71.1003
4,141.11	86.1889	4,141.11	86.3664	4,141.11	86.0546	4,141.11	86.1458	4,141.11	85.9836	4,141.11	85.259	4,141.11	85.6607	4,141.11	83.3102	4,141.11	84.3635	4,141.11	81.1676	4,141.11	82.5477	4,141.11	77.6599	4,141.11	79.3111	4,141.11	74.777	4,141.11	75.9292	4,141.11	74.4646	4,141.11	74.0753	4,141.11	72.4193	4,141.11	70.1589	4,141.11	69.9459	4,141.11	68.2111	4,141.11	68.8833	4,141.11	66.7356	4,141.11	61.0499	4,141.11	68.2524	4,141.11	67.8299	4,141.11	55.9741	4,141.11	60.2515	4,141.11	66.7336	4,141.11	66.6688	4,141.11	64.9816	4,141.11	68.617	4,141.11	66.2884	4,141.11	70.0674	4,141.11	61.1982	4,141.11	70.1103
4,286.87	87.7376	4,286.87	87.6026	4,286.87	87.7411	4,286.87	87.0535	4,286.87	87.6535	4,286.87	86.1436	4,286.87	86.9436	4,286.87	83.8811	4,286.87	85.7924	4,286.87	81.1873	4,286.87	83.3041	4,286.87	77.026	4,286.87	80.4064	4,286.87	74.5572	4,286.87	77.0335	4,286.87	71.631	4,286.87	74.1502	4,286.87	71.7587	4,286.87	71.8424	4,286.87	69.5153	4,286.87	70.8525	4,286.87	68.887	4,286.87	67.7823	4,286.87	66.5203	4,286.87	67.6597	4,286.87	65.9508	4,286.87	60.7463	4,286.87	67.627	4,286.87	65.7601	4,286.87	62.3647	4,286.87	62.4569	4,286.87	65.4023	4,286.87	65.4229	4,286.87	64.5916	4,286.87	66.5095	4,286.87	64.5459
4,438.48	87.9045	4,438.48	87.7677	4,438.48	88.0628	4,438.48	87.5145	4,438.48	87.8392	4,438.48	85.9601	4,438.48	87.31	4,438.48	84.2503	4,438.48	85.5706	4,438.48	80.8078	4,438.48	83.0195	4,438.48	78.3613	4,438.48	79.2637	4,438.48	75.5669	4,438.48	76.2311	4,438.48	72.9935	4,438.48	73.1028	4,438.48	71.8618	4,438.48	70.4833	4,438.48	67.8005	4,438.48	69.8493	4,438.48	67.6325	4,438.48	66.3463	4,438.48	70.5766	4,438.48	67.9449	4,438.48	60.2901	4,438.48	65.7798	4,438.48	69.2669	4,438.48	60.6977	4,438.48	63.7342	4,438.48	66.4804	4,438.48	58.7353	4,438.48	63.9008	4,438.48	70.1791	4,438.48	57.4058	4,438.48	71.2804
4,594.48	89.4439	4,594.48	89.3961	4,594.48	89.3686	4,594.48	88.754	4,594.48	89.3373	4,594.48	86.9455	4,594.48	88.4374	4,594.48	83.9757	4,594.48	86.1858	4,594.48	81.7437	4,594.48	83.1168	4,594.48	77.9095	4,594.48	78.7317	4,594.48	75.389	4,594.48	75.5815	4,594.48	74.585	4,594.48	73.7809	4,594.48	70.7091	4,594.48	73.137	4,594.48	71.6601	4,594.48	70.7724	4,594.48	68.7054	4,594.48	70.6531	4,594.48	68.7972	4,594.48	65.8342	4,594.48	59.7707	4,594.48	67.5144	4,594.48	66.1914	4,594.48	61.7386	4,594.48	69.0281	4,594.48	65.0655	4,594.48	63.5647	4,594.48	66.1331	4,594.48	68.612	4,594.48	61.4963	4,594.48	71.9052
4,757.08	90.0724	4,757.08	89.6619	4,757.08	90.229	4,757.08	88.6348	4,757.08	90.0577	4,757.08	86.8247	4,757.08	88.4386	4,757.08	83.2963	4,757.08	86.327	4,757.08	80.053	4,757.08	82.3443	4,757.08	76.3014	4,757.08	78.8526	4,757.08	75.1359	4,757.08	76.7364	4,757.08	73.0237	4,757.08	74.6276	4,757.08	73.0009	4,757.08	71.6196	4,757.08	71.7419	4,757.08	71.1699	4,757.08	67.9169	4,757.08	69.3471	4,757.08	67.3546	4,757.08	68.819	4,757.08	64.5838	4,757.08	68.5727	4,757.08	66.175	4,757.08	61.2356	4,757.08	68.2401	4,757.08	63.949	4,757.08	66.1512	4,757.08	64.2633	4,757.08	65.5548	4,757.08	62.2512	4,757.08	66.7691
4,924.8	90.0992	4,924.8	89.5531	4,924.8	90.3181	4,924.8	88.6783	4,924.8	89.3762	4,924.8	86.2239	4,924.8	87.716	4,924.8	83.7866	4,924.8	85.1513	4,924.8	79.6012	4,924.8	81.5556	4,924.8	78.1061	4,924.8	78.1995	4,924.8	76.9445	4,924.8	76.215	4,924.8	74.3789	4,924.8	74.7826	4,924.8	73.9061	4,924.8	75.3849	4,924.8	69.7612	4,924.8	72.3663	4,924.8	67.8876	4,924.8	70.2395	4,924.8	66.6737	4,924.8	69.3855	4,924.8	61.1439	4,924.8	68.3833	4,924.8	66.9151	4,924.8	61.855	4,924.8	59.5789	4,924.8	68.8399	4,924.8	64.0462	4,924.8	60.892	4,924.8	67.1176	4,924.8	55.7924	4,924.8	69.0677
5,098.39	90.1964	5,098.39	89.6829	5,098.39	90.3186	5,098.39	87.9343	5,098.39	89.7183	5,098.39	85.3066	5,098.39	88.006	5,098.39	81.2402	5,098.39	84.8432	5,098.39	78.6142	5,098.39	80.7519	5,098.39	76.7964	5,098.39	78.3155	5,098.39	76.0818	5,098.39	77.3861	5,098.39	75.5248	5,098.39	76.8382	5,098.39	72.6522	5,098.39	74.9765	5,098.39	72.9979	5,098.39	73.0434	5,098.39	70.1486	5,098.39	71.8046	5,098.39	70.0225	5,098.39	68.6289	5,098.39	64.5067	5,098.39	69.5062	5,098.39	68.2451	5,098.39	63.5359	5,098.39	61.3277	5,098.39	66.9448	5,098.39	65.1499	5,098.39	64.8184	5,098.39	69.137	5,098.39	65.3896	5,098.39	69.7729
5,277.83	89.5206	5,277.83	88.7167	5,277.83	89.228	5,277.83	87.4065	5,277.83	88.5615	5,277.83	84.737	5,277.83	86.3996	5,277.83	81.0578	5,277.83	83.2214	5,277.83	79.2737	5,277.83	79.9633	5,277.83	78.6662	5,277.83	78.3432	5,277.83	77.4353	5,277.83	78.4115	5,277.83	75.5775	5,277.83	75.8967	5,277.83	73.806	5,277.83	73.6459	5,277.83	71.9815	5,277.83	73.4747	5,277.83	71.1088	5,277.83	71.1938	5,277.83	68.9078	5,277.83	68.4992	5,277.83	66.2898	5,277.83	68.1531	5,277.83	67.6625	5,277.83	62.3657	5,277.83	63.4605	5,277.83	67.006	5,277.83	65.5491	5,277.83	63.1725	5,277.83	63.6238	5,277.83	63.5007	5,277.83	67.2328
5,463.87	89.1732	5,463.87	88.8663	5,463.87	89.2218	5,463.87	87.0885	5,463.87	88.1017	5,463.87	83.738	5,463.87	86.0846	5,463.87	81.7809	5,463.87	82.9286	5,463.87	80.5809	5,463.87	80.2566	5,463.87	78.9049	5,463.87	79.5338	5,463.87	77.6138	5,463.87	79.1362	5,463.87	75.2004	5,463.87	77.4206	5,463.87	72.8316	5,463.87	75.9298	5,463.87	71.3438	5,463.87	72.8462	5,463.87	70.3758	5,463.87	71.3365	5,463.87	67.4699	5,463.87	69.8339	5,463.87	66.6761	5,463.87	68.6787	5,463.87	65.1826	5,463.87	65.4234	5,463.87	61.001	5,463.87	65.6592	5,463.87	65.1102	5,463.87	59.4324	5,463.87	63.8249	5,463.87	62.7062	5,463.87	65.7969
5,656.49	88.8394	5,656.49	87.9562	5,656.49	88.6003	5,656.49	85.9628	5,656.49	87.3561	5,656.49	83.4326	5,656.49	85.0337	5,656.49	80.7725	5,656.49	82.0655	5,656.49	80.4273	5,656.49	80.6007	5,656.49	79.3438	5,656.49	80.5969	5,656.49	77.686	5,656.49	78.8871	5,656.49	76.0031	5,656.49	76.2037	5,656.49	74.0901	5,656.49	74.2301	5,656.49	72.1221	5,656.49	71.8661	5,656.49	69.2821	5,656.49	70.1899	5,656.49	68.0973	5,656.49	68.6178	5,656.49	66.0305	5,656.49	65.9007	5,656.49	65.7962	5,656.49	64.524	5,656.49	60.5482	5,656.49	66.3873	5,656.49	65.771	5,656.49	57.7328	5,656.49	64.8609	5,656.49	62.8453	5,656.49	64.2902
5,856.45	88.4593	5,856.45	87.3548	5,856.45	88.3573	5,856.45	84.787	5,856.45	86.7274	5,856.45	81.945	5,856.45	84.153	5,856.45	81.5577	5,856.45	81.8976	5,856.45	80.9762	5,856.45	81.363	5,856.45	79.7981	5,856.45	80.375	5,856.45	77.7962	5,856.45	78.8576	5,856.45	74.6635	5,856.45	76.6445	5,856.45	71.6513	5,856.45	74.0033	5,856.45	69.2462	5,856.45	70.8581	5,856.45	68.0779	5,856.45	70.2085	5,856.45	65.0035	5,856.45	67.5954	5,856.45	62.8988	5,856.45	66.6104	5,856.45	64.2275	5,856.45	63.2446	5,856.45	62.8458	5,856.45	63.7193	5,856.45	63.2708	5,856.45	61.434	5,856.45	61.7547	5,856.45	62.0237	5,856.45	65.9703
6,062.99	88.5492	6,062.99	87.6674	6,062.99	88.2129	6,062.99	85.5833	6,062.99	86.4789	6,062.99	83.7047	6,062.99	83.7764	6,062.99	82.8687	6,062.99	81.5912	6,062.99	82.0366	6,062.99	81.4677	6,062.99	79.8441	6,062.99	80.8951	6,062.99	77.1409	6,062.99	78.6777	6,062.99	72.6158	6,062.99	75.6216	6,062.99	70.9529	6,062.99	72.7183	6,062.99	68.8918	6,062.99	69.437	6,062.99	65.4119	6,062.99	67.7807	6,062.99	64.7884	6,062.99	65.8678	6,062.99	60.5687	6,062.99	64.6781	6,062.99	62.6454	6,062.99	61.1507	6,062.99	62.1558	6,062.99	61.1536	6,062.99	62.2609	6,062.99	58.9555	6,062.99	63.1965	6,062.99	62.3657	6,062.99	63.0995
6,276.86	89.8398	6,276.86	88.4058	6,276.86	89.3092	6,276.86	86.0739	6,276.86	87.1139	6,276.86	84.3465	6,276.86	84.2804	6,276.86	83.4135	6,276.86	83.1062	6,276.86	81.5611	6,276.86	82.2967	6,276.86	78.9816	6,276.86	80.6218	6,276.86	75.3891	6,276.86	78.3296	6,276.86	72.9571	6,276.86	74.1283	6,276.86	70.7412	6,276.86	71.1183	6,276.86	68.6821	6,276.86	67.7947	6,276.86	67.297	6,276.86	66.3209	6,276.86	65.3428	6,276.86	63.4604	6,276.86	63.5494	6,276.86	66.8236	6,276.86	62.2162	6,276.86	64.3514	6,276.86	59.9868	6,276.86	62.6243	6,276.86	62.1796	6,276.86	53.4708	6,276.86	54.5404	6,276.86	61.6308	6,276.86	63.5294
6,498.05	90.0786	6,498.05	88.6062	6,498.05	89.7283	6,498.05	85.9695	6,498.05	87.4244	6,498.05	84.3922	6,498.05	85.1491	6,498.05	83.4051	6,498.05	83.9945	6,498.05	81.4581	6,498.05	82.9197	6,498.05	78.6343	6,498.05	80.4783	6,498.05	75.6163	6,498.05	76.8593	6,498.05	72.4268	6,498.05	73.5027	6,498.05	70.1097	6,498.05	70.5291	6,498.05	67.9776	6,498.05	67.9791	6,498.05	65.7319	6,498.05	63.8403	6,498.05	66.0279	6,498.05	63.5909	6,498.05	64.7484	6,498.05	62.5562	6,498.05	59.6789	6,498.05	59.7548	6,498.05	59.4564	6,498.05	59.1432	6,498.05	61.8002	6,498.05	59.0767	6,498.05	58.883	6,498.05	61.5803	6,498.05	61.4778
6,727.29	90.6293	6,727.29	89.2584	6,727.29	90.0404	6,727.29	87.0304	6,727.29	88.0958	6,727.29	85.1205	6,727.29	85.6226	6,727.29	84.0497	6,727.29	84.2904	6,727.29	81.7564	6,727.29	82.7829	6,727.29	78.8157	6,727.29	80.2225	6,727.29	75.1551	6,727.29	76.5685	6,727.29	72.0486	6,727.29	72.6896	6,727.29	69.2508	6,727.29	68.6638	6,727.29	66.6445	6,727.29	67.5944	6,727.29	66.581	6,727.29	65.2523	6,727.29	61.3704	6,727.29	63.8384	6,727.29	62.7845	6,727.29	62.9782	6,727.29	58.899	6,727.29	60.6629	6,727.29	59.9623	6,727.29	59.785	6,727.29	57.7276	6,727.29	56.2593	6,727.29	59.4948	6,727.29	58.0614	6,727.29	62.1293
6,964.6	90.9738	6,964.6	89.4508	6,964.6	90.474	6,964.6	86.8051	6,964.6	87.9284	6,964.6	85.0427	6,964.6	85.4781	6,964.6	83.8743	6,964.6	84.3447	6,964.6	81.2343	6,964.6	82.6564	6,964.6	77.5581	6,964.6	79.4513	6,964.6	73.5699	6,964.6	75.0569	6,964.6	70.2311	6,964.6	71.8888	6,964.6	68.2542	6,964.6	69.734	6,964.6	66.292	6,964.6	67.238	6,964.6	64.521	6,964.6	65.9518	6,964.6	63.9183	6,964.6	63.7673	6,964.6	64.6263	6,964.6	60.2273	6,964.6	58.7751	6,964.6	58.9986	6,964.6	59.6362	6,964.6	54.1307	6,964.6	57.0184	6,964.6	51.1328	6,964.6	60.1231	6,964.6	54.8739	6,964.6	61.3847
7,209.96	90.6219	7,209.96	89.1009	7,209.96	89.9653	7,209.96	86.6856	7,209.96	87.561	7,209.96	84.9891	7,209.96	85.2468	7,209.96	83.4641	7,209.96	84.0396	7,209.96	80.1575	7,209.96	81.8528	7,209.96	76.2477	7,209.96	78.027	7,209.96	72.5454	7,209.96	74.2145	7,209.96	69.6098	7,209.96	70.7769	7,209.96	67.8982	7,209.96	68.5369	7,209.96	65.5794	7,209.96	66.7448	7,209.96	64.9933	7,209.96	64.5979	7,209.96	59.2597	7,209.96	64.2669	7,209.96	61.1588	7,209.96	60.9493	7,209.96	59.1262	7,209.96	60.85	7,209.96	60.5492	7,209.96	58.2372	7,209.96	54.4115	7,209.96	56.07	7,209.96	58.2271	7,209.96	56.7447	7,209.96	59.3588
7,464.11	89.8812	7,464.11	88.2914	7,464.11	89.2962	7,464.11	85.5547	7,464.11	86.6048	7,464.11	84.1466	7,464.11	84.6631	7,464.11	82.4521	7,464.11	83.4836	7,464.11	78.6769	7,464.11	80.52	7,464.11	74.7721	7,464.11	76.4839	7,464.11	70.9194	7,464.11	72.2666	7,464.11	69.079	7,464.11	70.2342	7,464.11	67.1733	7,464.11	68.5002	7,464.11	65.5339	7,464.11	67.1594	7,464.11	63.803	7,464.11	65.6405	7,464.11	63.1611	7,464.11	64.5924	7,464.11	59.1113	7,464.11	61.076	7,464.11	58.6489	7,464.11	59.2189	7,464.11	56.4862	7,464.11	56.6099	7,464.11	52.4667	7,464.11	57.4452	7,464.11	54.0339	7,464.11	54.8034	7,464.11	57.5719
7,727.78	89.0359	7,727.78	87.0579	7,727.78	88.1718	7,727.78	84.5964	7,727.78	85.8004	7,727.78	83.4451	7,727.78	84.0565	7,727.78	81.0041	7,727.78	82.4074	7,727.78	76.7925	7,727.78	79.1514	7,727.78	73.2244	7,727.78	74.6928	7,727.78	70.4748	7,727.78	71.9558	7,727.78	69.5203	7,727.78	69.99	7,727.78	66.7588	7,727.78	67.9254	7,727.78	65.5227	7,727.78	65.5792	7,727.78	63.5835	7,727.78	64.5241	7,727.78	62.0373	7,727.78	63.0769	7,727.78	61.7131	7,727.78	63.1755	7,727.78	59.3644	7,727.78	60.4239	7,727.78	57.9328	7,727.78	57.937	7,727.78	53.4157	7,727.78	57.3959	7,727.78	50.614	7,727.78	54.9961	7,727.78	54.5154
8,000.24	88.8371	8,000.24	86.8543	8,000.24	88.072	8,000.24	84.8057	8,000.24	85.5216	8,000.24	83.2618	8,000.24	84.1837	8,000.24	80.7709	8,000.24	82.3336	8,000.24	75.9203	8,000.24	78.4075	8,000.24	73.2145	8,000.24	75.2872	8,000.24	70.8998	8,000.24	72.91	8,000.24	69.0696	8,000.24	70.9473	8,000.24	66.2915	8,000.24	68.5654	8,000.24	64.7105	8,000.24	65.9671	8,000.24	62.7268	8,000.24	64.1706	8,000.24	59.7822	8,000.24	63.2529	8,000.24	58.9268	8,000.24	59.8474	8,000.24	58.2857	8,000.24	60.3411	8,000.24	58.4888	8,000.24	58.4522	8,000.24	50.6371	8,000.24	57.9255	8,000.24	48.7898	8,000.24	49.7024	8,000.24	53.8804
8,282.23	89.8879	8,282.23	88.0992	8,282.23	89.3655	8,282.23	86.1222	8,282.23	87.2751	8,282.23	84.392	8,282.23	85.8918	8,282.23	81.3857	8,282.23	83.5716	8,282.23	77.3245	8,282.23	80.1384	8,282.23	74.7637	8,282.23	77.1118	8,282.23	71.4389	8,282.23	74.9532	8,282.23	68.9756	8,282.23	72.1453	8,282.23	66.0657	8,282.23	69.2233	8,282.23	63.872	8,282.23	66.8051	8,282.23	62.5059	8,282.23	64.2133	8,282.23	60.9683	8,282.23	63.3669	8,282.23	59.767	8,282.23	58.7787	8,282.23	59.5152	8,282.23	60.7097	8,282.23	57.1711	8,282.23	56.3141	8,282.23	46.8507	8,282.23	60.0758	8,282.23	48.4892	8,282.23	53.2188	8,282.23	55.8043
8,574.46	90.9409	8,574.46	88.9929	8,574.46	90.3204	8,574.46	86.9853	8,574.46	88.4072	8,574.46	85.2486	8,574.46	87.0449	8,574.46	81.8212	8,574.46	84.674	8,574.46	78.3825	8,574.46	81.1382	8,574.46	75.7461	8,574.46	78.8557	8,574.46	72.1264	8,574.46	76.455	8,574.46	69.9521	8,574.46	73.586	8,574.46	66.8437	8,574.46	70.728	8,574.46	64.9372	8,574.46	67.9051	8,574.46	62.4618	8,574.46	65.6765	8,574.46	60.6355	8,574.46	63.2697	8,574.46	60.5112	8,574.46	60.5002	8,574.46	59.1763	8,574.46	61.7377	8,574.46	57.2092	8,574.46	60.0774	8,574.46	51.5794	8,574.46	61.2618	8,574.46	55.5837	8,574.46	52.9936	8,574.46	56.4934
8,876.22	90.7088	8,876.22	88.8448	8,876.22	90.2362	8,876.22	87.2126	8,876.22	88.5258	8,876.22	85.0138	8,876.22	87.0866	8,876.22	81.6724	8,876.22	84.5616	8,876.22	78.394	8,876.22	81.4072	8,876.22	76.2444	8,876.22	79.1527	8,876.22	72.3502	8,876.22	76.4916	8,876.22	69.8735	8,876.22	73.716	8,876.22	66.5359	8,876.22	70.5572	8,876.22	64.8876	8,876.22	68.4461	8,876.22	60.8934	8,876.22	65.6964	8,876.22	62.2253	8,876.22	63.3609	8,876.22	60.8302	8,876.22	63.5102	8,876.22	60.9434	8,876.22	62.3064	8,876.22	59.6083	8,876.22	59.3154	8,876.22	43.4847	8,876.22	61.8553	8,876.22	53.45	8,876.22	51.2532	8,876.22	57.1058
9,189.7	89.5378	9,189.7	87.7259	9,189.7	89.0617	9,189.7	86.1425	9,189.7	87.5531	9,189.7	83.63	9,189.7	86.1654	9,189.7	80.5688	9,189.7	83.3155	9,189.7	77.9906	9,189.7	80.6397	9,189.7	75.4308	9,189.7	78.4713	9,189.7	72.3779	9,189.7	75.5396	9,189.7	68.982	9,189.7	72.5197	9,189.7	66.2895	9,189.7	69.6799	9,189.7	64.5141	9,189.7	67.5775	9,189.7	61.1571	9,189.7	66.0865	9,189.7	60.7517	9,189.7	64.1086	9,189.7	60.5453	9,189.7	62.2334	9,189.7	59.8671	9,189.7	60.5042	9,189.7	57.5224	9,189.7	61.0265	9,189.7	53.8556	9,189.7	59.737	9,189.7	51.5739	9,189.7	51.3633	9,189.7	54.7643
9,513.43	87.9595	9,513.43	86.5045	9,513.43	87.5634	9,513.43	84.933	9,513.43	86.4297	9,513.43	82.0894	9,513.43	84.8388	9,513.43	79.2635	9,513.43	82.0605	9,513.43	76.8233	9,513.43	79.6512	9,513.43	73.0729	9,513.43	77.1607	9,513.43	69.9926	9,513.43	73.9283	9,513.43	67.3834	9,513.43	70.9524	9,513.43	65.3702	9,513.43	68.6012	9,513.43	63.657	9,513.43	66.1122	9,513.43	61.8137	9,513.43	65.2153	9,513.43	61.5131	9,513.43	63.0638	9,513.43	58.6758	9,513.43	59.1893	9,513.43	59.0422	9,513.43	60.2763	9,513.43	58.4378	9,513.43	59.4029	9,513.43	50.728	9,513.43	59.6299	9,513.43	51.3106	9,513.43	43.5444	9,513.43	56.5502
9,848.88	87.5796	9,848.88	86.3592	9,848.88	87.3938	9,848.88	84.7207	9,848.88	86.4658	9,848.88	81.9946	9,848.88	84.5794	9,848.88	79.6905	9,848.88	82.1585	9,848.88	76.3618	9,848.88	80.0669	9,848.88	72.5119	9,848.88	76.9703	9,848.88	68.1488	9,848.88	73.3519	9,848.88	67.578	9,848.88	70.9647	9,848.88	65.0094	9,848.88	68.0367	9,848.88	63.7247	9,848.88	66.2848	9,848.88	62.5099	9,848.88	64.374	9,848.88	60.1661	9,848.88	62.3884	9,848.88	61.2835	9,848.88	61.2003	9,848.88	59.2965	9,848.88	59.6737	9,848.88	54.4784	9,848.88	61.6455	9,848.88	51.2048	9,848.88	58.025	9,848.88	51.7891	9,848.88	46.6504	9,848.88	54.5892
10,196.8	88.2428	10,196.8	87.5438	10,196.8	88.1519	10,196.8	85.5541	10,196.8	87.7028	10,196.8	82.7676	10,196.8	85.4125	10,196.8	80.5031	10,196.8	82.9764	10,196.8	76.9848	10,196.8	80.6389	10,196.8	73.8803	10,196.8	77.5008	10,196.8	70.6025	10,196.8	74.3631	10,196.8	68.9453	10,196.8	71.8666	10,196.8	65.2705	10,196.8	68.6182	10,196.8	63.5147	10,196.8	66.7064	10,196.8	60.596	10,196.8	63.9949	10,196.8	61.8259	10,196.8	61.8561	10,196.8	59.2069	10,196.8	62.2359	10,196.8	59.0958	10,196.8	60.4168	10,196.8	56.9398	10,196.8	60.3295	10,196.8	51.7534	10,196.8	59.4449	10,196.8	50.1811	10,196.8	44.3303	10,196.8	54.6673
10,556.4	89.0174	10,556.4	88.3853	10,556.4	88.9616	10,556.4	86.016	10,556.4	88.5198	10,556.4	82.9411	10,556.4	86.0366	10,556.4	80.7913	10,556.4	83.4611	10,556.4	77.0015	10,556.4	80.762	10,556.4	74.8474	10,556.4	77.6719	10,556.4	73.0432	10,556.4	75.1965	10,556.4	69.3262	10,556.4	72.8392	10,556.4	66.0224	10,556.4	68.9973	10,556.4	62.8572	10,556.4	65.8925	10,556.4	59.3612	10,556.4	63.5965	10,556.4	61.5021	10,556.4	62.0294	10,556.4	59.2749	10,556.4	61.2281	10,556.4	59.1704	10,556.4	61.3072	10,556.4	56.8702	10,556.4	60.4806	10,556.4	52.0307	10,556.4	59.3402	10,556.4	49.009	10,556.4	49.1792	10,556.4	54.3183
10,928.5	89.2126	10,928.5	88.5142	10,928.5	89.3987	10,928.5	85.8096	10,928.5	88.6294	10,928.5	82.975	10,928.5	86.0968	10,928.5	80.083	10,928.5	83.6567	10,928.5	76.137	10,928.5	80.8523	10,928.5	74.4718	10,928.5	77.8404	10,928.5	72.048	10,928.5	75.3413	10,928.5	67.8956	10,928.5	72.5961	10,928.5	64.9182	10,928.5	68.5173	10,928.5	61.8872	10,928.5	66.2816	10,928.5	59.9038	10,928.5	64.2002	10,928.5	57.3584	10,928.5	61.7373	10,928.5	57.3786	10,928.5	60.5031	10,928.5	57.3346	10,928.5	60.189	10,928.5	55.8023	10,928.5	59.5624	10,928.5	45.4484	10,928.5	56.6806	10,928.5	37.5861	10,928.5	52.3573	10,928.5	51.6241
11,313.7	89.0692	11,313.7	88.2273	11,313.7	89.3332	11,313.7	85.2943	11,313.7	88.3957	11,313.7	82.4319	11,313.7	85.6153	11,313.7	78.951	11,313.7	83.1771	11,313.7	75.6862	11,313.7	80.0947	11,313.7	73.4716	11,313.7	77.6307	11,313.7	68.4274	11,313.7	74.6181	11,313.7	65.9352	11,313.7	70.8724	11,313.7	61.9832	11,313.7	67.2619	11,313.7	61.3893	11,313.7	65.4102	11,313.7	59.9788	11,313.7	63.4307	11,313.7	57.3992	11,313.7	60.8434	11,313.7	56.4183	11,313.7	60.6403	11,313.7	55.7429	11,313.7	59.9177	11,313.7	53.8831	11,313.7	58.2449	11,313.7	46.7532	11,313.7	56.0549	11,313.7	37.1104	11,313.7	51.9095	11,313.7	49.5648
11,712.9	88.3244	11,712.9	87.3646	11,712.9	88.5703	11,712.9	84.2886	11,712.9	87.6656	11,712.9	81.1161	11,712.9	84.7743	11,712.9	77.529	11,712.9	81.9879	11,712.9	74.9335	11,712.9	78.7213	11,712.9	72.1399	11,712.9	76.5858	11,712.9	66.4949	11,712.9	73.2304	11,712.9	64.0318	11,712.9	68.4229	11,712.9	61.3939	11,712.9	66.3847	11,712.9	60.01	11,712.9	63.3067	11,712.9	58.3921	11,712.9	61.8324	11,712.9	58.0898	11,712.9	59.5128	11,712.9	57.8372	11,712.9	59.1573	11,712.9	54.6846	11,712.9	58.4154	11,712.9	53.6062	11,712.9	56.8315	11,712.9	48.8561	11,712.9	54.8399	11,712.9	43.7026	11,712.9	47.9318	11,712.9	54.3918
12,126	88.8813	12,126	88.1105	12,126	88.9031	12,126	85.0872	12,126	88.0296	12,126	81.5094	12,126	85.226	12,126	77.4096	12,126	81.5669	12,126	75.3691	12,126	78.456	12,126	71.0022	12,126	75.4787	12,126	67.4743	12,126	71.3632	12,126	63.2374	12,126	68.0113	12,126	62.711	12,126	65.4476	12,126	59.4045	12,126	63.2257	12,126	58.6474	12,126	61.805	12,126	57.0293	12,126	58.8638	12,126	57.2532	12,126	58.7635	12,126	54.1115	12,126	56.0212	12,126	55.485	12,126	56.9127	12,126	48.8549	12,126	57.0498	12,126	37.0571	12,126	49.2956	12,126	52.1524
12,553.7	89.9292	12,553.7	89.2383	12,553.7	90.2122	12,553.7	86.2617	12,553.7	89.4133	12,553.7	81.6401	12,553.7	86.5977	12,553.7	77.7023	12,553.7	82.3795	12,553.7	75.9285	12,553.7	80.1333	12,553.7	70.5583	12,553.7	76.6422	12,553.7	68.2149	12,553.7	71.8745	12,553.7	67.2097	12,553.7	70.3244	12,553.7	63.5562	12,553.7	66.9341	12,553.7	62.5343	12,553.7	65.7369	12,553.7	60.123	12,553.7	63.2236	12,553.7	57.6926	12,553.7	59.9177	12,553.7	56.9809	12,553.7	61.3628	12,553.7	56.1527	12,553.7	58.9694	12,553.7	58.9084	12,553.7	57.4361	12,553.7	46.3332	12,553.7	58.2835	12,553.7	40.7526	12,553.7	49.1615	12,553.7	51.2214
12,996.1	90.153	12,996.1	89.4256	12,996.1	90.576	12,996.1	86.5868	12,996.1	89.9104	12,996.1	80.7277	12,996.1	87.3045	12,996.1	79.2104	12,996.1	82.9939	12,996.1	75.7226	12,996.1	81.1452	12,996.1	72.253	12,996.1	77.5666	12,996.1	71.2484	12,996.1	75.4016	12,996.1	69.2488	12,996.1	73.5216	12,996.1	64.7653	12,996.1	70.4761	12,996.1	63.5387	12,996.1	67.2757	12,996.1	59.1654	12,996.1	64.4696	12,996.1	61.0377	12,996.1	61.709	12,996.1	58.7673	12,996.1	62.1647	12,996.1	56.0034	12,996.1	60.9842	12,996.1	58.8787	12,996.1	59.4197	12,996.1	53.7987	12,996.1	57.2434	12,996.1	40.3164	12,996.1	52.7913	12,996.1	52.803
13,454.6	88.7633	13,454.6	87.5822	13,454.6	89.2226	13,454.6	85.3408	13,454.6	89.1922	13,454.6	80.5828	13,454.6	86.7304	13,454.6	79.3496	13,454.6	83.3269	13,454.6	74.1231	13,454.6	80.4347	13,454.6	72.5255	13,454.6	77.7034	13,454.6	71.2612	13,454.6	75.9055	13,454.6	66.4987	13,454.6	73.4736	13,454.6	63.9453	13,454.6	69.6921	13,454.6	59.9891	13,454.6	66.1118	13,454.6	53.8374	13,454.6	64.3028	13,454.6	58.2889	13,454.6	61.2572	13,454.6	55.8764	13,454.6	61.3496	13,454.6	52.7463	13,454.6	59.6554	13,454.6	52.3214	13,454.6	58.6291	13,454.6	46.9702	13,454.6	56.5534	13,454.6	50.9594	13,454.6	51.8536	13,454.6	53.2894
13,928.5	86.8318	13,928.5	85.7436	13,928.5	87.2234	13,928.5	84.2362	13,928.5	87.7435	13,928.5	81.0392	13,928.5	85.4305	13,928.5	77.4965	13,928.5	82.303	13,928.5	73.6216	13,928.5	78.7846	13,928.5	71.216	13,928.5	75.6843	13,928.5	68.4261	13,928.5	72.989	13,928.5	63.3178	13,928.5	69.6517	13,928.5	60.4564	13,928.5	65.1656	13,928.5	57.4031	13,928.5	63.6393	13,928.5	55.3832	13,928.5	61.6721	13,928.5	55.3667	13,928.5	57.3023	13,928.5	49.7053	13,928.5	59.5283	13,928.5	49.2089	13,928.5	57.0556	13,928.5	46.1867	13,928.5	56.1283	13,928.5	45.4673	13,928.5	52.737	13,928.5	46.6561	13,928.5	48.9567	13,928.5	46.4408
14,419.9	85.5517	14,419.9	84.512	14,419.9	86.2033	14,419.9	83.1483	14,419.9	86.5909	14,419.9	80.161	14,419.9	84.5413	14,419.9	75.3626	14,419.9	81.2122	14,419.9	72.0121	14,419.9	77.1983	14,419.9	68.2356	14,419.9	73.7738	14,419.9	63.0838	14,419.9	70.2151	14,419.9	59.0566	14,419.9	66.0259	14,419.9	56.1564	14,419.9	61.2713	14,419.9	53.1793	14,419.9	60.639	14,419.9	51.8648	14,419.9	57.9982	14,419.9	52.6942	14,419.9	53.1095	14,419.9	49.6106	14,419.9	55.7188	14,419.9	46.8718	14,419.9	54.23	14,419.9	51.3107	14,419.9	53.0175	14,419.9	45.0529	14,419.9	49.0985	14,419.9	39.2295	14,419.9	46.3559	14,419.9	48.3929
14,928.2	85.7599	14,928.2	84.3461	14,928.2	86.2703	14,928.2	82.0321	14,928.2	85.9575	14,928.2	78.7187	14,928.2	83.9244	14,928.2	72.1388	14,928.2	79.7856	14,928.2	68.1969	14,928.2	75.377	14,928.2	63.583	14,928.2	71.605	14,928.2	57.4431	14,928.2	66.7329	14,928.2	51.9872	14,928.2	62.2771	14,928.2	50.4553	14,928.2	59.0128	14,928.2	47.8834	14,928.2	56.6854	14,928.2	47.4957	14,928.2	54.4246	14,928.2	40.8012	14,928.2	52.5605	14,928.2	41.8398	14,928.2	53.0568	14,928.2	27.4945	14,928.2	51.0506	14,928.2	50.4174	14,928.2	50.1856	14,928.2	45.7159	14,928.2	46.3218	14,928.2	43.0168	14,928.2	48.6618	14,928.2	41.5172
15,454.8	86.1421	15,454.8	83.7093	15,454.8	86.0973	15,454.8	79.9011	15,454.8	84.3153	15,454.8	76.0683	15,454.8	81.6032	15,454.8	69.6027	15,454.8	75.8443	15,454.8	65.6094	15,454.8	71.1236	15,454.8	62.095	15,454.8	64.3112	15,454.8	56.8513	15,454.8	58.9594	15,454.8	52.307	15,454.8	57.411	15,454.8	50.1379	15,454.8	53.5631	15,454.8	46.799	15,454.8	51.2643	15,454.8	43.3116	15,454.8	46.8399	15,454.8	26.1251	15,454.8	45.5651	15,454.8	36.613	15,454.8	45.9099	15,454.8	32.6092	15,454.8	45.0658	15,454.8	46.6228	15,454.8	46.1307	15,454.8	44.3278	15,454.8	47.6326	15,454.8	19.7736	15,454.8	40.5642	15,454.8	28.2722
15,999.8	85.8972	15,999.8	83.1915	15,999.8	85.3238	15,999.8	76.0469	15,999.8	82.0829	15,999.8	67.762	15,999.8	77.1499	15,999.8	66.3666	15,999.8	70.8926	15,999.8	66.2265	15,999.8	64.0295	15,999.8	65.2875	15,999.8	57.5472	15,999.8	62.1822	15,999.8	54.602	15,999.8	58.8237	15,999.8	50.3445	15,999.8	56.1323	15,999.8	44.9454	15,999.8	53.6838	15,999.8	42.3038	15,999.8	48.6735	15,999.8	38.2381	15,999.8	41.8827	15,999.8	40.8505	15,999.8	40.4923	15,999.8	42.714	15,999.8	41.6779	15,999.8	29.4665	15,999.8	47.2819	15,999.8	34.6908	15,999.8	41.7876	15,999.8	45.7898	15,999.8	40.3937	15,999.8	31.7415	15,999.8	32.8936
16,564.5	85.6127	16,564.5	82.5338	16,564.5	84.6137	16,564.5	72.5409	16,564.5	80.1036	16,564.5	62.4604	16,564.5	71.0746	16,564.5	68.4347	16,564.5	67.7003	16,564.5	67.9593	16,564.5	63.3362	16,564.5	67.4742	16,564.5	64.1937	16,564.5	64.5856	16,564.5	61.0604	16,564.5	60.4712	16,564.5	57.4218	16,564.5	58.7994	16,564.5	53.3429	16,564.5	55.3905	16,564.5	50.3305	16,564.5	50.1177	16,564.5	48.9987	16,564.5	43.46	16,564.5	46.9678	16,564.5	41.6397	16,564.5	39.635	16,564.5	43.6174	16,564.5	35.2268	16,564.5	47.4319	16,564.5	35.5766	16,564.5	38.0342	16,564.5	44.3392	16,564.5	43.8325	16,564.5	39.1985	16,564.5	36.0006
17,148.2	86.4242	17,148.2	83.1729	17,148.2	85.4107	17,148.2	71.0867	17,148.2	79.5338	17,148.2	69.9506	17,148.2	57.4909	17,148.2	72.4431	17,148.2	69.8106	17,148.2	71.1747	17,148.2	68.8534	17,148.2	69.4747	17,148.2	69.8412	17,148.2	67.1185	17,148.2	65.1461	17,148.2	61.8999	17,148.2	61.7969	17,148.2	60.8226	17,148.2	57.4504	17,148.2	57.458	17,148.2	55.6502	17,148.2	54.13	17,148.2	55.583	17,148.2	48.0192	17,148.2	51.9168	17,148.2	43.915	17,148.2	43.3252	17,148.2	42.7324	17,148.2	38.9241	17,148.2	48.5355	17,148.2	40.168	17,148.2	39.1765	17,148.2	40.9658	17,148.2	40.093	17,148.2	41.6336	17,148.2	41.4986
17,753.2	87.4191	17,753.2	84.1589	17,753.2	86.6917	17,753.2	75.0845	17,753.2	80.6979	17,753.2	75.6756	17,753.2	73.6282	17,753.2	75.7899	17,753.2	76.2365	17,753.2	74.5243	17,753.2	72.8532	17,753.2	70.835	17,753.2	73.6542	17,753.2	68.3255	17,753.2	69.2095	17,753.2	64.0295	17,753.2	65.8448	17,753.2	60.9594	17,753.2	62.2579	17,753.2	58.6417	17,753.2	60.4812	17,753.2	56.7911	17,753.2	59.6635	17,753.2	52.316	17,753.2	54.4832	17,753.2	51.2749	17,753.2	46.3375	17,753.2	41.8767	17,753.2	44.4204	17,753.2	48.6731	17,753.2	40.3375	17,753.2	43.7048	17,753.2	44.2996	17,753.2	30.9456	17,753.2	45.5639	17,753.2	40.9293
18,379.4	87.0192	18,379.4	83.7299	18,379.4	86.3533	18,379.4	78.0828	18,379.4	80.6259	18,379.4	79.3552	18,379.4	77.5667	18,379.4	77.1207	18,379.4	78.6892	18,379.4	76.0294	18,379.4	74.722	18,379.4	71.3172	18,379.4	74.379	18,379.4	69.1329	18,379.4	71.269	18,379.4	65.9359	18,379.4	67.0818	18,379.4	61.0947	18,379.4	64.0751	18,379.4	59.5791	18,379.4	61.708	18,379.4	58.4005	18,379.4	60.1247	18,379.4	55.0297	18,379.4	53.4796	18,379.4	53.2989	18,379.4	50.6849	18,379.4	41.0252	18,379.4	47.9938	18,379.4	38.6647	18,379.4	41.7311	18,379.4	44.8955	18,379.4	50.3957	18,379.4	46.1362	18,379.4	41.9421	18,379.4	41.5369
19,027.6	86.4897	19,027.6	82.6775	19,027.6	85.766	19,027.6	79.9522	19,027.6	80.8989	19,027.6	80.8342	19,027.6	79.8272	19,027.6	77.3928	19,027.6	79.7022	19,027.6	75.9478	19,027.6	77.338	19,027.6	72.5346	19,027.6	74.2975	19,027.6	68.7086	19,027.6	73.818	19,027.6	66.7636	19,027.6	67.5079	19,027.6	60.3556	19,027.6	64.5433	19,027.6	59.8776	19,027.6	61.7564	19,027.6	58.1812	19,027.6	58.8209	19,027.6	56.0685	19,027.6	52.3121	19,027.6	54.4952	19,027.6	53.0531	19,027.6	43.9883	19,027.6	40.6841	19,027.6	43.2258	19,027.6	42.8854	19,027.6	46.4051	19,027.6	50.6816	19,027.6	49.5203	19,027.6	32.867	19,027.6	22.1943
19,698.5	86.502	19,698.5	82.7472	19,698.5	85.8642	19,698.5	81.893	19,698.5	82.5223	19,698.5	83.0315	19,698.5	82.8167	19,698.5	79.7989	19,698.5	81.788	19,698.5	77.0635	19,698.5	79.8648	19,698.5	74.3389	19,698.5	76.4047	19,698.5	69.0765	19,698.5	74.6804	19,698.5	66.099	19,698.5	69.2339	19,698.5	61.2329	19,698.5	66.4549	19,698.5	60.7383	19,698.5	61.8266	19,698.5	56.9053	19,698.5	58.113	19,698.5	54.2003	19,698.5	54.6043	19,698.5	53.8562	19,698.5	54.4615	19,698.5	38.8403	19,698.5	44.823	19,698.5	45.2277	19,698.5	40.2956	19,698.5	49.4582	19,698.5	50.0522	19,698.5	49.8115	19,698.5	39.1252	19,698.5	41.4928
19,999.5	86.0351	19,999.5	82.3949	19,999.5	84.917	19,999.5	82.3661	19,999.5	82.8465	19,999.5	83.8649	19,999.5	83.4824	19,999.5	80.6492	19,999.5	81.9733	19,999.5	77.6638	19,999.5	80.0131	19,999.5	74.4393	19,999.5	76.9154	19,999.5	70.0288	19,999.5	74.25	19,999.5	66.967	19,999.5	70.1527	19,999.5	63.3048	19,999.5	66.9663	19,999.5	61.2571	19,999.5	63.379	19,999.5	57.3161	19,999.5	58.1951	19,999.5	56.0091	19,999.5	53.4156	19,999.5	53.1963	19,999.5	56.7	19,999.5	39.4011	19,999.5	46.9803	19,999.5	44.5791	19,999.5	48.5809	19,999.5	51.7596	19,999.5	43.774	19,999.5	38.0081	19,999.5	42.8697	19,999.5	33.5373
