"SPL Vertical"																																																																							
"On-Axis"		"10°"		"-10°"		"20°"		"-20°"		"30°"		"-30°"		"40°"		"-40°"		"50°"		"-50°"		"60°"		"-60°"		"70°"		"-70°"		"80°"		"-80°"		"90°"		"-90°"		"100°"		"-100°"		"110°"		"-110°"		"120°"		"-120°"		"130°"		"-130°"		"140°"		"-140°"		"150°"		"-150°"		"160°"		"-160°"		"170°"		"-170°"		"180°"	
"Frequency [Hz]"	"Sound Pessure Level [dB]  / [2.83V 1m] "	"Frequency [Hz]"	"Sound Pessure Level [dB]  / [2.83V 1m] "	"Frequency [Hz]"	"Sound Pessure Level [dB]  / [2.83V 1m] "	"Frequency [Hz]"	"Sound Pessure Level [dB]  / [2.83V 1m] "	"Frequency [Hz]"	"Sound Pessure Level [dB]  / [2.83V 1m] "	"Frequency [Hz]"	"Sound Pessure Level [dB]  / [2.83V 1m] "	"Frequency [Hz]"	"Sound Pessure Level [dB]  / [2.83V 1m] "	"Frequency [Hz]"	"Sound Pessure Level [dB]  / [2.83V 1m] "	"Frequency [Hz]"	"Sound Pessure Level [dB]  / [2.83V 1m] "	"Frequency [Hz]"	"Sound Pessure Level [dB]  / [2.83V 1m] "	"Frequency [Hz]"	"Sound Pessure Level [dB]  / [2.83V 1m] "	"Frequency [Hz]"	"Sound Pessure Level [dB]  / [2.83V 1m] "	"Frequency [Hz]"	"Sound Pessure Level [dB]  / [2.83V 1m] "	"Frequency [Hz]"	"Sound Pessure Level [dB]  / [2.83V 1m] "	"Frequency [Hz]"	"Sound Pessure Level [dB]  / [2.83V 1m] "	"Frequency [Hz]"	"Sound Pessure Level [dB]  / [2.83V 1m] "	"Frequency [Hz]"	"Sound Pessure Level [dB]  / [2.83V 1m] "	"Frequency [Hz]"	"Sound Pessure Level [dB]  / [2.83V 1m] "	"Frequency [Hz]"	"Sound Pessure Level [dB]  / [2.83V 1m] "	"Frequency [Hz]"	"Sound Pessure Level [dB]  / [2.83V 1m] "	"Frequency [Hz]"	"Sound Pessure Level [dB]  / [2.83V 1m] "	"Frequency [Hz]"	"Sound Pessure Level [dB]  / [2.83V 1m] "	"Frequency [Hz]"	"Sound Pessure Level [dB]  / [2.83V 1m] "	"Frequency [Hz]"	"Sound Pessure Level [dB]  / [2.83V 1m] "	"Frequency [Hz]"	"Sound Pessure Level [dB]  / [2.83V 1m] "	"Frequency [Hz]"	"Sound Pessure Level [dB]  / [2.83V 1m] "	"Frequency [Hz]"	"Sound Pessure Level [dB]  / [2.83V 1m] "	"Frequency [Hz]"	"Sound Pessure Level [dB]  / [2.83V 1m] "	"Frequency [Hz]"	"Sound Pessure Level [dB]  / [2.83V 1m] "	"Frequency [Hz]"	"Sound Pessure Level [dB]  / [2.83V 1m] "	"Frequency [Hz]"	"Sound Pessure Level [dB]  / [2.83V 1m] "	"Frequency [Hz]"	"Sound Pessure Level [dB]  / [2.83V 1m] "	"Frequency [Hz]"	"Sound Pessure Level [dB]  / [2.83V 1m] "	"Frequency [Hz]"	"Sound Pessure Level [dB]  / [2.83V 1m] "	"Frequency [Hz]"	"Sound Pessure Level [dB]  / [2.83V 1m] "	"Frequency [Hz]"	"Sound Pessure Level [dB]  / [2.83V 1m] "
20.5078	49.0364	20.5078	48.7747	20.5078	49.2209	20.5078	48.4406	20.5078	49.3227	20.5078	48.0387	20.5078	49.336	20.5078	47.5735	20.5078	49.254	20.5078	47.0503	20.5078	49.0701	20.5078	46.4763	20.5078	48.7782	20.5078	45.8629	20.5078	48.3741	20.5078	45.2281	20.5078	47.8582	20.5078	44.6	20.5078	47.2397	20.5078	44.019	20.5078	46.542	20.5078	43.536	20.5078	45.8101	20.5078	43.2006	20.5078	45.1122	20.5078	43.0419	20.5078	44.5282	20.5078	43.0504	20.5078	44.1179	20.5078	43.1784	20.5078	43.8871	20.5078	43.3589	20.5078	43.7834	20.5078	43.5304	20.5078	43.7282	20.5078	43.655
21.2402	46.7861	21.2402	46.4452	21.2402	46.9884	21.2402	45.9656	21.2402	47.0474	21.2402	45.3422	21.2402	46.9533	21.2402	44.5646	21.2402	46.6909	21.2402	43.6177	21.2402	46.239	21.2402	42.4832	21.2402	45.5685	21.2402	41.1489	21.2402	44.6418	21.2402	39.6364	21.2402	43.4129	21.2402	38.0808	21.2402	41.8375	21.2402	36.8753	21.2402	39.9247	21.2402	36.6149	21.2402	37.9333	21.2402	37.427	21.2402	36.7503	21.2402	38.7575	21.2402	37.2642	21.2402	40.0829	21.2402	38.7868	21.2402	41.1694	21.2402	40.299	21.2402	41.9407	21.2402	41.4352	21.2402	42.3718	21.2402	42.1438	21.2402	42.4465
21.9727	45.1677	21.9727	44.6934	21.9727	45.4425	21.9727	44.0064	21.9727	45.5191	21.9727	43.0779	21.9727	45.3876	21.9727	41.8559	21.9727	45.0272	21.9727	40.2501	21.9727	44.4032	21.9727	38.1001	21.9727	43.4628	21.9727	35.118	21.9727	42.129	21.9727	30.9676	21.9727	40.3008	21.9727	28.2821	21.9727	37.9213	21.9727	32.179	21.9727	35.4677	21.9727	36.2336	21.9727	35.0832	21.9727	39.1329	21.9727	37.3708	21.9727	41.2409	21.9727	39.969	21.9727	42.798	21.9727	42.0123	21.9727	43.9305	21.9727	43.4831	21.9727	44.7031	21.9727	44.4708	21.9727	45.1453	21.9727	45.0485	21.9727	45.2641
22.7051	47.597	22.7051	47.1686	22.7051	47.8725	22.7051	46.5826	22.7051	47.9939	22.7051	45.828	22.7051	47.9545	22.7051	44.8868	22.7051	47.7421	22.7051	43.7351	22.7051	47.3387	22.7051	42.349	22.7051	46.7214	22.7051	40.7319	22.7051	45.8642	22.7051	39.0072	22.7051	44.7471	22.7051	37.6387	22.7051	43.3865	22.7051	37.4443	22.7051	41.921	22.7051	38.5888	22.7051	40.7698	22.7051	40.287	22.7051	40.56	22.7051	41.9216	22.7051	41.3878	22.7051	43.2806	22.7051	42.6539	22.7051	44.3211	22.7051	43.8418	22.7051	45.0433	22.7051	44.7443	22.7051	45.4514	22.7051	45.3115	22.7051	45.5435
23.4375	47.066	23.4375	46.593	23.4375	47.374	23.4375	45.953	23.4375	47.5161	23.4375	45.1432	23.4375	47.4878	23.4375	44.1677	23.4375	47.2817	23.4375	43.0564	23.4375	46.8896	23.4375	41.9085	23.4375	46.3084	23.4375	40.9646	23.4375	45.554	23.4375	40.608	23.4375	44.692	23.4375	41.0855	23.4375	43.8896	23.4375	42.2076	23.4375	43.4417	23.4375	43.5775	23.4375	43.6222	23.4375	44.9168	23.4375	44.4021	23.4375	46.0987	23.4375	45.4754	23.4375	47.0767	23.4375	46.5474	23.4375	47.8353	23.4375	47.455	23.4375	48.3684	23.4375	48.1321	23.4375	48.6711	23.4375	48.5596	23.4375	48.7372
24.1699	49.0158	24.1699	48.5789	24.1699	49.3068	24.1699	47.9911	24.1699	49.4512	24.1699	47.241	24.1699	49.4433	24.1699	46.3093	24.1699	49.2721	24.1699	45.1671	24.1699	48.9212	24.1699	43.7751	24.1699	48.3682	24.1699	42.0888	24.1699	47.5844	24.1699	40.0957	24.1699	46.5359	24.1699	37.976	24.1699	45.1913	24.1699	36.5248	24.1699	43.5527	24.1699	36.8823	24.1699	41.7591	24.1699	38.5961	24.1699	40.3124	24.1699	40.4744	24.1699	40.0119	24.1699	42.0356	24.1699	40.9019	24.1699	43.1967	24.1699	42.1792	24.1699	43.9668	24.1699	43.2804	24.1699	44.3607	24.1699	44.0246	24.1699	44.3823
25.6348	45.4826	25.6348	44.7624	25.6348	45.9377	25.6348	43.7588	25.6348	46.1342	25.6348	42.4514	25.6348	46.0653	25.6348	40.8587	25.6348	45.7089	25.6348	39.1913	25.6348	45.0269	25.6348	38.1846	25.6348	43.9663	25.6348	38.7942	25.6348	42.4816	25.6348	40.6705	25.6348	40.6652	25.6348	42.8023	25.6348	39.2341	25.6348	44.7303	25.6348	39.7104	25.6348	46.3637	25.6348	41.9183	25.6348	47.7142	25.6348	44.3435	25.6348	48.8087	25.6348	46.3859	25.6348	49.6681	25.6348	47.9832	25.6348	50.3046	25.6348	49.1835	25.6348	50.7219	25.6348	50.0401	25.6348	50.9168	25.6348	50.5951	25.6348	50.8798
26.3672	48.7399	26.3672	48.1925	26.3672	49.0876	26.3672	47.4327	26.3672	49.2385	26.3672	46.4364	26.3672	49.1858	26.3672	45.1676	26.3672	48.913	26.3672	43.5854	26.3672	48.3925	26.3672	41.6868	26.3672	47.5831	26.3672	39.6965	26.3672	46.429	26.3672	38.5305	26.3672	44.8673	26.3672	39.3045	26.3672	42.8925	26.3672	41.3374	26.3672	40.8673	26.3672	43.4598	26.3672	40.1467	26.3672	45.2713	26.3672	41.6138	26.3672	46.7255	26.3672	43.853	26.3672	47.8491	26.3672	45.8243	26.3672	48.6704	26.3672	47.3292	26.3672	49.2057	26.3672	48.3957	26.3672	49.459	26.3672	49.0787	26.3672	49.4229
27.0996	47.6365	27.0996	47.0587	27.0996	48.0076	27.0996	46.2786	27.0996	48.1679	27.0996	45.3133	27.0996	48.1086	27.0996	44.2255	27.0996	47.8153	27.0996	43.1908	27.0996	47.2699	27.0996	42.5682	27.0996	46.4596	27.0996	42.7571	27.0996	45.4083	27.0996	43.7713	27.0996	44.2673	27.0996	45.2208	27.0996	43.4779	27.0996	46.7377	27.0996	43.6811	27.0996	48.138	27.0996	44.9469	27.0996	49.3556	27.0996	46.6558	27.0996	50.3727	27.0996	48.3006	27.0996	51.1865	27.0996	49.687	27.0996	51.7965	27.0996	50.7734	27.0996	52.1997	27.0996	51.5676	27.0996	52.3901	27.0996	52.0892	27.0996	52.3577
27.832	46.5912	27.832	45.9363	27.832	46.9817	27.832	45.0124	27.832	47.1063	27.832	43.8273	27.832	46.9517	27.832	42.4608	27.832	46.4895	27.832	41.2202	27.832	45.6759	27.832	40.7906	27.832	44.4616	27.832	41.6832	27.832	42.858	27.832	43.4459	27.832	41.231	27.832	45.3791	27.832	40.8483	27.832	47.1557	27.832	42.5442	27.832	48.6922	27.832	45.0406	27.832	49.9857	27.832	47.3257	27.832	51.0504	27.832	49.1811	27.832	51.8992	27.832	50.6242	27.832	52.5395	27.832	51.7069	27.832	52.9726	27.832	52.4745	27.832	53.1943	27.832	52.962	27.832	53.1954
29.2969	49.9045	29.2969	49.3707	29.2969	50.2488	29.2969	48.649	29.2969	50.4009	29.2969	47.7483	29.2969	50.3546	29.2969	46.7053	29.2969	50.1	29.2969	45.6311	29.2969	49.6261	29.2969	44.7821	29.2969	48.9301	29.2969	44.5454	29.2969	48.0416	29.2969	45.1383	29.2969	47.0814	29.2969	46.3428	29.2969	46.3527	29.2969	47.7692	29.2969	46.303	29.2969	49.1576	29.2969	47.1086	29.2969	50.394	29.2969	48.4326	29.2969	51.4388	29.2969	49.8398	29.2969	52.2812	29.2969	51.0888	29.2969	52.918	29.2969	52.0929	29.2969	53.3465	29.2969	52.8336	29.2969	53.5617	29.2969	53.317	29.2969	53.5555
30.0293	49.1706	30.0293	48.5609	30.0293	49.5527	30.0293	47.7227	30.0293	49.7055	30.0293	46.6656	30.0293	49.6199	30.0293	45.4486	30.0293	49.278	30.0293	44.2725	30.0293	48.6543	30.0293	43.5953	30.0293	47.7238	30.0293	43.9259	30.0293	46.4979	30.0293	45.1956	30.0293	45.1463	30.0293	46.8604	30.0293	44.2594	30.0293	48.5135	30.0293	44.6953	30.0293	49.9924	30.0293	46.3486	30.0293	51.2542	30.0293	48.328	30.0293	52.2961	30.0293	50.1144	30.0293	53.1234	30.0293	51.57	30.0293	53.7403	30.0293	52.6904	30.0293	54.1467	30.0293	53.5015	30.0293	54.3376	30.0293	54.0313	30.0293	54.3038
31.4941	51.6061	31.4941	51.1484	31.4941	51.8988	31.4941	50.5391	31.4941	52.0177	31.4941	49.8058	31.4941	51.9544	31.4941	49.0089	31.4941	51.7016	31.4941	48.2717	31.4941	51.2572	31.4941	47.7978	31.4941	50.6377	31.4941	47.8093	31.4941	49.9074	31.4941	48.3818	31.4941	49.2295	31.4941	49.3701	31.4941	48.8956	31.4941	50.5423	31.4941	49.1873	31.4941	51.7196	31.4941	50.0927	31.4941	52.8025	31.4941	51.3144	31.4941	53.7433	31.4941	52.5555	31.4941	54.5198	31.4941	53.6494	31.4941	55.1204	31.4941	54.5288	31.4941	55.5365	31.4941	55.175	31.4941	55.7598	31.4941	55.5895	31.4941	55.7809
32.2266	51.9685	32.2266	51.4815	32.2266	52.2864	32.2266	50.8383	32.2266	52.427	32.2266	50.0671	32.2266	52.3823	32.2266	49.2325	32.2266	52.1447	32.2266	48.4698	32.2266	51.7103	32.2266	48.003	32.2266	51.0906	32.2266	48.0665	32.2266	50.3405	32.2266	48.717	32.2266	49.6095	32.2266	49.7744	32.2266	49.1856	32.2266	50.9903	32.2266	49.3843	32.2266	52.1881	32.2266	50.2424	32.2266	53.2754	32.2266	51.4682	32.2266	54.2101	32.2266	52.7404	32.2266	54.9738	32.2266	53.8736	32.2266	55.5568	32.2266	54.7921	32.2266	55.9516	32.2266	55.4747	32.2266	56.1505	32.2266	55.9225	32.2266	56.1442
33.6914	52.4332	33.6914	51.9337	33.6914	52.7479	33.6914	51.2597	33.6914	52.8708	33.6914	50.4356	33.6914	52.7929	33.6914	49.5245	33.6914	52.5038	33.6914	48.672	33.6914	51.9945	33.6914	48.1403	33.6914	51.2706	33.6914	48.2178	33.6914	50.3859	33.6914	48.9662	33.6914	49.5145	33.6914	50.1506	33.6914	49.0261	33.6914	51.4764	33.6914	49.3266	33.6914	52.7549	33.6914	50.403	33.6914	53.8976	33.6914	51.8347	33.6914	54.8694	33.6914	53.2491	33.6914	55.6574	33.6914	54.4699	33.6914	56.2556	33.6914	55.4408	33.6914	56.6588	33.6914	56.1545	33.6914	56.8602	33.6914	56.6202	33.6914	56.8511
34.4238	52.3637	34.4238	51.8576	34.4238	52.6852	34.4238	51.1849	34.4238	52.8113	34.4238	50.387	34.4238	52.7327	34.4238	49.5595	34.4238	52.4407	34.4238	48.8936	34.4238	51.9329	34.4238	48.6667	34.4238	51.2312	34.4238	49.0782	34.4238	50.426	34.4238	50.0515	34.4238	49.7521	34.4238	51.3181	34.4238	49.6043	34.4238	52.6379	34.4238	50.2557	34.4238	53.8758	34.4238	51.5215	34.4238	54.9714	34.4238	52.9885	34.4238	55.901	34.4238	54.3696	34.4238	56.6554	34.4238	55.5417	34.4238	57.2294	34.4238	56.4683	34.4238	57.6177	34.4238	57.1478	34.4238	57.8135	34.4238	57.5901	34.4238	57.8079
35.8887	54.2281	35.8887	53.813	35.8887	54.4995	35.8887	53.2797	35.8887	54.6126	35.8887	52.6746	35.8887	54.5575	35.8887	52.0825	35.8887	54.3296	35.8887	51.6394	35.8887	53.9347	35.8887	51.5118	35.8887	53.4034	35.8887	51.8135	35.8887	52.8198	35.8887	52.5192	35.8887	52.3577	35.8887	53.486	35.8887	52.2681	35.8887	54.5519	35.8887	52.7295	35.8887	55.5986	35.8887	53.6703	35.8887	56.5567	35.8887	54.8396	35.8887	57.3889	35.8887	56.0069	35.8887	58.0746	35.8887	57.0395	35.8887	58.6011	35.8887	57.8789	35.8887	58.9584	35.8887	58.5063	35.8887	59.1371	35.8887	58.9204	35.8887	59.1277
37.3535	55.0661	37.3535	54.646	37.3535	55.3403	37.3535	54.104	37.3535	55.4544	37.3535	53.4848	37.3535	55.3988	37.3535	52.8711	37.3535	55.1684	37.3535	52.3985	37.3535	54.7672	37.3535	52.2384	37.3535	54.2226	37.3535	52.5144	37.3535	53.614	37.3535	53.2082	37.3535	53.111	37.3535	54.1752	37.3535	52.9701	37.3535	55.2475	37.3535	53.389	37.3535	56.3021	37.3535	54.3118	37.3535	57.2672	37.3535	55.4837	37.3535	58.1043	37.3535	56.6633	37.3535	58.793	37.3535	57.7101	37.3535	59.3203	37.3535	58.5626	37.3535	59.6765	37.3535	59.201	37.3535	59.8523	37.3535	59.624	37.3535	59.838
38.8184	55.6426	38.8184	55.2549	38.8184	55.8934	38.8184	54.761	38.8184	55.9894	38.8184	54.2161	38.8184	55.9199	38.8184	53.7144	38.8184	55.6816	38.8184	53.3949	38.8184	55.2852	38.8184	53.4068	38.8184	54.7722	38.8184	53.8272	38.8184	54.246	38.8184	54.6023	38.8184	53.9018	38.8184	55.5903	38.8184	53.9847	38.8184	56.6478	38.8184	54.6155	38.8184	57.6738	38.8184	55.6639	38.8184	58.6088	38.8184	56.8758	38.8184	59.4199	38.8184	58.0476	38.8184	60.0886	38.8184	59.0694	38.8184	60.6024	38.8184	59.8946	38.8184	60.9515	38.8184	60.5095	38.8184	61.1264	38.8184	60.9148	38.8184	61.1173
39.5508	56.3229	39.5508	55.9645	39.5508	56.5564	39.5508	55.513	39.5508	56.6465	39.5508	55.0231	39.5508	56.5831	39.5508	54.5839	39.5508	56.365	39.5508	54.32	39.5508	56.0065	39.5508	54.3594	39.5508	55.5534	39.5508	54.766	39.5508	55.1093	39.5508	55.4947	39.5508	54.8534	39.5508	56.4245	39.5508	54.9929	39.5508	57.4281	39.5508	55.6173	39.5508	58.4107	39.5508	56.6093	39.5508	59.3136	39.5508	57.7498	39.5508	60.1024	39.5508	58.8578	39.5508	60.7565	39.5508	59.8295	39.5508	61.2621	39.5508	60.6177	39.5508	61.6084	39.5508	61.206	39.5508	61.7852	39.5508	61.5927	39.5508	61.7831
41.0156	57.7593	41.0156	57.4401	41.0156	57.9728	41.0156	57.0445	41.0156	58.0636	41.0156	56.6216	41.0156	58.0237	41.0156	56.2467	41.0156	57.8552	41.0156	56.0203	41.0156	57.5761	41.0156	56.0446	41.0156	57.2316	41.0156	56.3762	41.0156	56.9107	41.0156	56.9909	41.0156	56.7505	41.0156	57.7995	41.0156	56.8969	41.0156	58.6961	41.0156	57.4144	41.0156	59.5928	41.0156	58.2307	41.0156	60.4299	41.0156	59.1911	41.0156	61.1693	41.0156	60.1494	41.0156	61.7873	41.0156	61.0087	41.0156	62.2678	41.0156	61.7169	41.0156	62.599	41.0156	62.2508	41.0156	62.7708	41.0156	62.603	41.0156	62.7746
42.4805	58.8881	42.4805	58.5893	42.4805	59.0932	42.4805	58.2269	42.4805	59.1868	42.4805	57.8486	42.4805	59.1608	42.4805	57.5243	42.4805	59.0173	42.4805	57.3419	42.4805	58.7736	42.4805	57.3862	42.4805	58.4725	42.4805	57.7017	42.4805	58.1944	42.4805	58.2675	42.4805	58.0601	42.4805	59.0098	42.4805	58.1969	42.4805	59.8383	42.4805	58.6657	42.4805	60.6749	42.4805	59.4119	42.4805	61.4633	42.4805	60.3032	42.4805	62.1659	42.4805	61.2053	42.4805	62.7575	42.4805	62.0228	42.4805	63.2209	42.4805	62.7015	42.4805	63.5424	42.4805	63.2149	42.4805	63.7111	42.4805	63.5536	42.4805	63.7174
43.9453	60.0738	43.9453	59.7904	43.9453	60.2669	43.9453	59.4445	43.9453	60.353	43.9453	59.0794	43.9453	60.3242	43.9453	58.7582	43.9453	60.1816	43.9453	58.5607	43.9453	59.9407	43.9453	58.567	43.9453	59.6398	43.9453	58.8252	43.9453	59.3515	43.9453	59.3261	43.9453	59.187	43.9453	60.0081	43.9453	59.2692	43.9453	60.7877	43.9453	59.6676	43.9453	61.5877	43.9453	60.3457	43.9453	62.3496	43.9453	61.1845	43.9453	63.033	43.9453	62.0522	43.9453	63.6105	43.9453	62.8502	43.9453	64.0628	43.9453	63.5194	43.9453	64.3755	43.9453	64.0299	43.9453	64.5369	43.9453	64.3698	43.9453	64.5374
45.4102	61.0238	45.4102	60.7574	45.4102	61.2066	45.4102	60.4354	45.4102	61.289	45.4102	60.101	45.4102	61.2635	45.4102	59.8154	45.4102	61.1324	45.4102	59.6542	45.4102	60.9125	45.4102	59.6905	45.4102	60.6435	45.4102	59.9655	45.4102	60.3975	45.4102	60.468	45.4102	60.2797	45.4102	61.1396	45.4102	60.4008	45.4102	61.9024	45.4102	60.8179	45.4102	62.6841	45.4102	61.492	45.4102	63.4289	45.4102	62.3117	45.4102	64.0977	45.4102	63.1555	45.4102	64.6635	45.4102	63.9312	45.4102	65.1073	45.4102	64.5824	45.4102	65.4144	45.4102	65.0798	45.4102	65.5733	45.4102	65.4113	45.4102	65.5746
47.6074	62.7483	47.6074	62.5174	47.6074	62.9095	47.6074	62.2422	47.6074	62.9854	47.6074	61.9606	47.6074	62.9695	47.6074	61.7239	47.6074	62.8648	47.6074	61.5932	47.6074	62.6881	47.6074	61.6267	47.6074	62.476	47.6074	61.8595	47.6074	62.2909	47.6074	62.2876	47.6074	62.2191	47.6074	62.8699	47.6074	62.3474	47.6074	63.5448	47.6074	62.7211	47.6074	64.2502	47.6074	63.3124	47.6074	64.9341	47.6074	64.0351	47.6074	65.5573	47.6074	64.7881	47.6074	66.0913	47.6074	65.4885	47.6074	66.5151	47.6074	66.0815	47.6074	66.8127	47.6074	66.5361	47.6074	66.9715	47.6074	66.8377	47.6074	66.982
49.0723	63.7058	49.0723	63.4814	49.0723	63.8642	49.0723	63.2156	49.0723	63.9417	49.0723	62.9447	49.0723	63.932	49.0723	62.7174	49.0723	63.8384	49.0723	62.5915	49.0723	63.6772	49.0723	62.6218	49.0723	63.4835	49.0723	62.8419	49.0723	63.316	49.0723	63.2496	49.0723	63.2543	49.0723	63.8075	49.0723	63.3789	49.0723	64.458	49.0723	63.7324	49.0723	65.1417	49.0723	64.2918	49.0723	65.8077	49.0723	64.9792	49.0723	66.417	49.0723	65.7001	49.0723	66.9408	49.0723	66.3747	49.0723	67.3575	49.0723	66.9484	49.0723	67.6511	49.0723	67.3893	49.0723	67.8088	49.0723	67.6819	49.0723	67.8212
50.5371	64.6491	50.5371	64.4412	50.5371	64.7985	50.5371	64.1988	50.5371	64.8747	50.5371	63.957	50.5371	64.8719	50.5371	63.7618	50.5371	64.7944	50.5371	63.6662	50.5371	64.6591	50.5371	63.7189	50.5371	64.5007	50.5371	63.9483	50.5371	64.3751	50.5371	64.3512	50.5371	64.3548	50.5371	64.8928	50.5371	64.5095	50.5371	65.521	50.5371	64.8726	50.5371	66.1809	50.5371	65.4204	50.5371	66.8249	50.5371	66.0818	50.5371	67.4158	50.5371	66.7714	50.5371	67.9253	50.5371	67.4159	50.5371	68.3324	50.5371	67.9641	50.5371	68.6208	50.5371	68.3853	50.5371	68.7779	50.5371	68.6637	50.5371	68.7941
52.7344	66.3379	52.7344	66.1521	52.7344	66.4756	52.7344	65.9398	52.7344	66.5516	52.7344	65.7318	52.7344	66.5608	52.7344	65.5674	52.7344	66.5068	52.7344	65.4903	52.7344	66.4049	52.7344	65.5405	52.7344	66.2852	52.7344	65.7422	52.7344	66.1944	52.7344	66.0947	52.7344	66.1918	52.7344	66.5724	52.7344	66.3342	52.7344	67.1332	52.7344	66.6512	52.7344	67.7301	52.7344	67.1278	52.7344	68.32	52.7344	67.7094	52.7344	68.8672	52.7344	68.3243	52.7344	69.3435	52.7344	68.9068	52.7344	69.7271	52.7344	69.4076	52.7344	70.0008	52.7344	69.7951	52.7344	70.1518	52.7344	70.0517	52.7344	70.1706
54.1992	67.3003	54.1992	67.128	54.1992	67.4289	54.1992	66.9327	54.1992	67.5011	54.1992	66.743	54.1992	67.5118	54.1992	66.5951	54.1992	67.4645	54.1992	66.5286	54.1992	67.3735	54.1992	66.5798	54.1992	67.2671	54.1992	66.7707	54.1992	67.1884	54.1992	67.1017	54.1992	67.192	54.1992	67.5509	54.1992	67.3297	54.1992	68.0806	54.1992	67.6294	54.1992	68.6477	54.1992	68.0791	54.1992	69.2113	54.1992	68.6298	54.1992	69.7366	54.1992	69.2156	54.1992	70.1957	54.1992	69.7737	54.1992	70.5663	54.1992	70.256	54.1992	70.8313	54.1992	70.6306	54.1992	70.9775	54.1992	70.8796	54.1992	70.9953
56.3965	68.9047	56.3965	68.7492	56.3965	69.023	56.3965	68.5749	56.3965	69.0926	56.3965	68.4073	56.3965	69.1092	56.3965	68.2777	56.3965	69.0765	56.3965	68.2208	56.3965	69.0081	56.3965	68.268	56.3965	68.9294	56.3965	68.4393	56.3965	68.8784	56.3965	68.7372	56.3965	68.9016	56.3965	69.1446	56.3965	69.0426	56.3965	69.6303	56.3965	69.3245	56.3965	70.1561	56.3965	69.7374	56.3965	70.6844	56.3965	70.2405	56.3965	71.1818	56.3965	70.7766	56.3965	71.6204	56.3965	71.2894	56.3965	71.9779	56.3965	71.7338	56.3965	72.2367	56.3965	72.0789	56.3965	72.3833	56.3965	72.3065	56.3965	72.4082
58.5938	70.5399	58.5938	70.4024	58.5938	70.6482	58.5938	70.2524	58.5938	70.7169	58.5938	70.1123	58.5938	70.7422	58.5938	70.0092	58.5938	70.7276	58.5938	69.9721	58.5938	70.6852	58.5938	70.0269	58.5938	70.6376	58.5938	70.1903	58.5938	70.617	58.5938	70.4644	58.5938	70.6622	58.5938	70.8357	58.5938	70.8085	58.5938	71.2785	58.5938	71.0745	58.5938	71.7601	58.5938	71.4522	58.5938	72.2474	58.5938	71.908	58.5938	72.7094	58.5938	72.3935	58.5938	73.12	58.5938	72.8593	58.5938	73.4573	58.5938	73.2643	58.5938	73.7038	58.5938	73.579	58.5938	73.846	58.5938	73.7854	58.5938	73.8748
60.0586	71.6745	60.0586	71.5429	60.0586	71.7793	60.0586	71.3997	60.0586	71.8479	60.0586	71.2651	60.0586	71.8768	60.0586	71.1635	60.0586	71.8691	60.0586	71.1213	60.0586	71.8358	60.0586	71.1622	60.0586	71.797	60.0586	71.3024	60.0586	71.7814	60.0586	71.5457	60.0586	71.8234	60.0586	71.8819	60.0586	71.9548	60.0586	72.2888	60.0586	72.1935	60.0586	72.7371	60.0586	72.5344	60.0586	73.1955	60.0586	72.9491	60.0586	73.6343	60.0586	73.3947	60.0586	74.0274	60.0586	73.8255	60.0586	74.3529	60.0586	74.202	60.0586	74.5929	60.0586	74.4951	60.0586	74.7338	60.0586	74.6863	60.0586	74.7664
62.2559	73.138	62.2559	73.0115	62.2559	73.2408	62.2559	72.8749	62.2559	73.3111	62.2559	72.7465	62.2559	73.3457	62.2559	72.6483	62.2559	73.3475	62.2559	72.6041	62.2559	73.3261	62.2559	72.6356	62.2559	73.2994	62.2559	72.7583	62.2559	73.2928	62.2559	72.9769	62.2559	73.3364	62.2559	73.2837	62.2559	73.4585	62.2559	73.6596	62.2559	73.6755	62.2559	74.0785	62.2559	73.9847	62.2559	74.5111	62.2559	74.3624	62.2559	74.929	62.2559	74.7707	62.2559	75.3063	62.2559	75.1678	62.2559	75.6213	62.2559	75.5163	62.2559	75.8559	62.2559	75.7877	62.2559	75.9964	62.2559	75.9633	62.2559	76.0336
64.4531	74.6092	64.4531	74.4942	64.4531	74.7051	64.4531	74.3724	64.4531	74.7743	64.4531	74.2598	64.4531	74.8139	64.4531	74.1755	64.4531	74.8262	64.4531	74.14	64.4531	74.8201	64.4531	74.1721	64.4531	74.8108	64.4531	74.2853	64.4531	74.82	64.4531	74.4843	64.4531	74.8731	64.4531	74.7631	64.4531	74.9939	64.4531	75.1063	64.4531	75.1961	64.4531	75.4911	64.4531	75.478	64.4531	75.8915	64.4531	75.82	64.4531	76.2811	64.4531	76.1898	64.4531	76.6357	64.4531	76.5504	64.4531	76.9338	64.4531	76.8678	64.4531	77.1579	64.4531	77.1149	64.4531	77.2944	64.4531	77.2736	64.4531	77.3342
66.6504	76.2157	66.6504	76.1084	66.6504	76.3075	66.6504	75.9963	66.6504	76.3768	66.6504	75.8935	66.6504	76.4211	66.6504	75.8166	66.6504	76.4423	66.6504	75.7837	66.6504	76.448	66.6504	75.811	66.6504	76.4511	66.6504	75.9109	66.6504	76.4702	66.6504	76.0881	66.6504	76.5267	66.6504	76.3389	66.6504	76.6406	66.6504	76.6502	66.6504	76.8244	66.6504	77.0027	66.6504	77.0773	66.6504	77.3728	66.6504	77.3836	66.6504	77.7363	66.6504	77.7157	66.6504	78.0699	66.6504	78.0411	66.6504	78.3528	66.6504	78.3282	66.6504	78.5677	66.6504	78.5517	66.6504	78.7012	66.6504	78.6937	66.6504	78.7444
69.5801	78.1569	69.5801	78.0575	69.5801	78.2453	69.5801	77.9562	69.5801	78.3167	69.5801	77.865	69.5801	78.3687	69.5801	77.7979	69.5801	78.4028	69.5801	77.7696	69.5801	78.4247	69.5801	77.7939	69.5801	78.445	69.5801	77.8812	69.5801	78.4784	69.5801	78.0361	69.5801	78.5419	69.5801	78.2563	69.5801	78.6515	69.5801	78.5318	69.5801	78.8174	69.5801	78.8466	69.5801	79.0396	69.5801	79.1808	69.5801	79.3058	69.5801	79.5126	69.5801	79.5937	69.5801	79.8207	69.5801	79.8758	69.5801	80.0854	69.5801	80.1245	69.5801	80.2901	69.5801	80.3165	69.5801	80.4216	69.5801	80.4352	69.5801	80.4711
71.7773	79.6466	71.7773	79.5564	71.7773	79.7299	71.7773	79.4671	71.7773	79.8009	71.7773	79.3892	71.7773	79.8573	71.7773	79.3344	71.7773	79.9002	71.7773	79.3151	71.7773	79.9344	71.7773	79.3428	71.7773	79.9686	71.7773	79.4262	71.7773	80.0147	71.7773	79.5693	71.7773	80.0867	71.7773	79.7703	71.7773	80.1975	71.7773	80.0212	71.7773	80.3553	71.7773	80.3086	71.7773	80.5599	71.7773	80.6153	71.7773	80.8012	71.7773	80.9218	71.7773	81.0601	71.7773	81.2087	71.7773	81.3127	71.7773	81.4576	71.7773	81.5346	71.7773	81.6524	71.7773	81.7044	71.7773	81.7803	71.7773	81.8069	71.7773	81.833
73.9746	81.0374	73.9746	80.9523	73.9746	81.1174	73.9746	80.869	73.9746	81.1877	73.9746	80.7962	73.9746	81.2461	73.9746	80.744	73.9746	81.2935	73.9746	80.7229	73.9746	81.3334	73.9746	80.7429	73.9746	81.373	73.9746	80.8119	73.9746	81.4217	73.9746	80.9338	73.9746	81.4911	73.9746	81.1082	73.9746	81.5919	73.9746	81.3291	73.9746	81.7312	73.9746	81.5853	73.9746	81.9096	73.9746	81.8621	73.9746	82.1191	73.9746	82.1421	73.9746	82.3441	73.9746	82.4072	73.9746	82.564	73.9746	82.6399	73.9746	82.7569	73.9746	82.8247	73.9746	82.9035	73.9746	82.9493	73.9746	82.9892	73.9746	83.0052
76.9043	82.8102	76.9043	82.733	76.9043	82.8856	76.9043	82.6595	76.9043	82.9552	76.9043	82.5966	76.9043	83.0173	76.9043	82.5525	76.9043	83.0721	76.9043	82.5355	76.9043	83.1223	76.9043	82.5537	76.9043	83.173	76.9043	82.6135	76.9043	83.2314	76.9043	82.7188	76.9043	83.3059	76.9043	82.8696	76.9043	83.4046	76.9043	83.0618	76.9043	83.5327	76.9043	83.2869	76.9043	83.6907	76.9043	83.5327	76.9043	83.8721	76.9043	83.7845	76.9043	84.0645	76.9043	84.0261	76.9043	84.2506	76.9043	84.2416	76.9043	84.412	76.9043	84.4164	76.9043	84.5318	76.9043	84.5386	76.9043	84.597	76.9043	84.5999
79.834	84.3358	79.834	84.2654	79.834	84.4064	79.834	84.1996	79.834	84.4742	79.834	84.1435	79.834	84.5375	79.834	84.1034	79.834	84.5964	79.834	84.0857	79.834	84.6523	79.834	84.0968	79.834	84.7086	79.834	84.1421	79.834	84.7703	79.834	84.2252	79.834	84.8431	79.834	84.3472	79.834	84.9326	79.834	84.5055	79.834	85.0429	79.834	84.6944	79.834	85.1743	79.834	84.9044	79.834	85.3223	79.834	85.1233	79.834	85.4774	79.834	85.3374	79.834	85.6262	79.834	85.5323	79.834	85.7533	79.834	85.6943	79.834	85.8444	79.834	85.8122	79.834	85.8882	79.834	85.878
82.7637	85.4469	82.7637	85.3814	82.7637	85.5148	82.7637	85.3215	82.7637	85.5827	82.7637	85.2713	82.7637	85.6494	82.7637	85.2355	82.7637	85.7143	82.7637	85.2192	82.7637	85.7783	82.7637	85.2276	82.7637	85.8434	82.7637	85.2652	82.7637	85.9127	82.7637	85.3355	82.7637	85.9899	82.7637	85.44	82.7637	86.0786	82.7637	85.5774	82.7637	86.1816	82.7637	85.7436	82.7637	86.2987	82.7637	85.931	82.7637	86.4264	82.7637	86.1295	82.7637	86.557	82.7637	86.3267	82.7637	86.6796	82.7637	86.5095	82.7637	86.7814	82.7637	86.6651	82.7637	86.8503	82.7637	86.7826	82.7637	86.8766	82.7637	86.8543
85.6934	86.1226	85.6934	86.0612	85.6934	86.189	85.6934	86.0072	85.6934	86.2587	85.6934	85.9635	85.6934	86.3304	85.6934	85.9334	85.6934	86.4033	85.6934	85.9206	85.6934	86.4774	85.6934	85.929	85.6934	86.5533	85.6934	85.9623	85.6934	86.6321	85.6934	86.0235	85.6934	86.7156	85.6934	86.1141	85.6934	86.8056	85.6934	86.2337	85.6934	86.9031	85.6934	86.3795	85.6934	87.0077	85.6934	86.5458	85.6934	87.1164	85.6934	86.7241	85.6934	87.2233	85.6934	86.904	85.6934	87.32	85.6934	87.0739	85.6934	87.3963	85.6934	87.2223	85.6934	87.4425	85.6934	87.3389	85.6934	87.4507	85.6934	87.4163
88.623	86.3936	88.623	86.3348	88.623	86.46	88.623	86.2853	88.623	86.5327	88.623	86.247	88.623	86.6105	88.623	86.222	88.623	86.6923	88.623	86.2131	88.623	86.7773	88.623	86.2231	88.623	86.8646	88.623	86.2548	88.623	86.954	88.623	86.3106	88.623	87.0452	88.623	86.392	88.623	87.1383	88.623	86.499	88.623	87.233	88.623	86.6296	88.623	87.3284	88.623	86.7795	88.623	87.4219	88.623	86.9419	88.623	87.5091	88.623	87.1079	88.623	87.5834	88.623	87.2674	88.623	87.6374	88.623	87.41	88.623	87.6633	88.623	87.5263	88.623	87.655	88.623	87.6093
91.5527	86.2926	91.5527	86.24	91.5527	86.3565	91.5527	86.1998	91.5527	86.4307	91.5527	86.1727	91.5527	86.5139	91.5527	86.1597	91.5527	86.6046	91.5527	86.1621	91.5527	86.7007	91.5527	86.1813	91.5527	86.8004	91.5527	86.2186	91.5527	86.9015	91.5527	86.2754	91.5527	87.0022	91.5527	86.3527	91.5527	87.1008	91.5527	86.4505	91.5527	87.1958	91.5527	86.5676	91.5527	87.2858	91.5527	86.7009	91.5527	87.3683	91.5527	86.8454	91.5527	87.44	91.5527	86.9944	91.5527	87.4965	91.5527	87.1396	91.5527	87.5322	91.5527	87.2721	91.5527	87.5418	91.5527	87.3839	91.5527	87.5212	91.5527	87.4682
94.4824	86.1489	94.4824	86.1022	94.4824	86.2094	94.4824	86.069	94.4824	86.2829	94.4824	86.0492	94.4824	86.3684	94.4824	86.0423	94.4824	86.4637	94.4824	86.0481	94.4824	86.5663	94.4824	86.0666	94.4824	86.6726	94.4824	86.0984	94.4824	86.7791	94.4824	86.1442	94.4824	86.8821	94.4824	86.2049	94.4824	86.9784	94.4824	86.281	94.4824	87.0654	94.4824	86.3728	94.4824	87.1409	94.4824	86.4789	94.4824	87.203	94.4824	86.5967	94.4824	87.2497	94.4824	86.7217	94.4824	87.2784	94.4824	86.848	94.4824	87.2865	94.4824	86.9686	94.4824	87.2713	94.4824	87.0764	94.4824	87.2309	94.4824	87.1653
98.1445	85.9642	98.1445	85.9226	98.1445	86.0185	98.1445	85.8929	98.1445	86.0858	98.1445	85.8738	98.1445	86.1652	98.1445	85.8639	98.1445	86.2548	98.1445	85.8622	98.1445	86.3514	98.1445	85.8681	98.1445	86.4512	98.1445	85.8817	98.1445	86.5494	98.1445	85.904	98.1445	86.6415	98.1445	85.9364	98.1445	86.7233	98.1445	85.9808	98.1445	86.7914	98.1445	86.0386	98.1445	86.8435	98.1445	86.1108	98.1445	86.8784	98.1445	86.1968	98.1445	86.8954	98.1445	86.2943	98.1445	86.8939	98.1445	86.3989	98.1445	86.8735	98.1445	86.5052	98.1445	86.8339	98.1445	86.6071	98.1445	86.7751	98.1445	86.6985
101.807	85.6426	101.807	85.6098	101.807	85.6908	101.807	85.5906	101.807	85.7549	101.807	85.583	101.807	85.8344	101.807	85.5844	101.807	85.9269	101.807	85.5926	101.807	86.0288	101.807	85.606	101.807	86.1352	101.807	85.6238	101.807	86.2403	101.807	85.6462	101.807	86.3381	101.807	85.674	101.807	86.4232	101.807	85.7092	101.807	86.4912	101.807	85.7537	101.807	86.5393	101.807	85.8093	101.807	86.566	101.807	85.877	101.807	86.5715	101.807	85.956	101.807	86.5564	101.807	86.0443	101.807	86.5221	101.807	86.138	101.807	86.4701	101.807	86.2322	101.807	86.4025	101.807	86.322
105.469	85.3381	105.469	85.3084	105.469	85.3843	105.469	85.2932	105.469	85.448	105.469	85.2896	105.469	85.5287	105.469	85.2943	105.469	85.624	105.469	85.3045	105.469	85.7298	105.469	85.3179	105.469	85.8405	105.469	85.3332	105.469	85.9494	105.469	85.3501	105.469	86.0496	105.469	85.3693	105.469	86.1346	105.469	85.393	105.469	86.1992	105.469	85.4234	105.469	86.2401	105.469	85.4634	105.469	86.2559	105.469	85.5152	105.469	86.247	105.469	85.5795	105.469	86.2153	105.469	85.6559	105.469	86.1639	105.469	85.7419	105.469	86.096	105.469	85.8336	105.469	86.0154	105.469	85.9264
109.131	85.149	109.131	85.1351	109.131	85.1813	109.131	85.1364	109.131	85.2337	109.131	85.1489	109.131	85.3062	109.131	85.1685	109.131	85.3964	109.131	85.191	109.131	85.5001	109.131	85.2131	109.131	85.6111	109.131	85.2327	109.131	85.7219	109.131	85.2487	109.131	85.8246	109.131	85.2618	109.131	85.9117	109.131	85.2738	109.131	85.977	109.131	85.2878	109.131	86.0164	109.131	85.3076	109.131	86.0283	109.131	85.3368	109.131	86.0132	109.131	85.3783	109.131	85.9738	109.131	85.4336	109.131	85.9143	109.131	85.5022	109.131	85.8397	109.131	85.5815	109.131	85.7556	109.131	85.6677
112.793	85.0647	112.793	85.05	112.793	85.099	112.793	85.0513	112.793	85.1548	112.793	85.064	112.793	85.232	112.793	85.0832	112.793	85.3281	112.793	85.1039	112.793	85.4381	112.793	85.1224	112.793	85.555	112.793	85.1358	112.793	85.6704	112.793	85.1428	112.793	85.7755	112.793	85.1439	112.793	85.8617	112.793	85.1413	112.793	85.922	112.793	85.1388	112.793	85.9519	112.793	85.1411	112.793	85.9494	112.793	85.1535	112.793	85.9157	112.793	85.1806	112.793	85.8545	112.793	85.2257	112.793	85.7716	112.793	85.2898	112.793	85.6742	112.793	85.3714	112.793	85.57	112.793	85.4667
116.455	84.9388	116.455	84.9241	116.455	84.9743	116.455	84.9263	116.455	85.0327	116.455	84.9402	116.455	85.1136	116.455	84.9602	116.455	85.2142	116.455	84.9809	116.455	85.3289	116.455	84.9977	116.455	85.45	116.455	85.0071	116.455	85.5684	116.455	85.0077	116.455	85.6743	116.455	84.9997	116.455	85.7587	116.455	84.9855	116.455	85.8139	116.455	84.9694	116.455	85.8351	116.455	84.957	116.455	85.8205	116.455	84.9548	116.455	85.7717	116.455	84.9689	116.455	85.6932	116.455	85.0041	116.455	85.5922	116.455	85.0627	116.455	85.4776	116.455	85.1441	116.455	85.3587	116.455	85.2449
120.85	84.849	120.85	84.8344	120.85	84.8848	120.85	84.8369	120.85	84.9437	120.85	84.8514	120.85	85.0255	120.85	84.8717	120.85	85.1269	120.85	84.8922	120.85	85.2423	120.85	84.9077	120.85	85.3638	120.85	84.9144	120.85	85.4818	120.85	84.9104	120.85	85.5864	120.85	84.8958	120.85	85.668	120.85	84.873	120.85	85.7188	120.85	84.8464	120.85	85.7334	120.85	84.8222	120.85	85.7098	120.85	84.8077	120.85	85.6499	120.85	84.81	120.85	85.5589	120.85	84.8353	120.85	85.4448	120.85	84.8871	120.85	85.3179	120.85	84.9659	120.85	85.189	120.85	85.0687
125.244	84.7895	125.244	84.7738	125.244	84.8268	125.244	84.7757	125.244	84.8879	125.244	84.7898	125.244	84.9723	125.244	84.8101	125.244	85.077	125.244	84.8304	125.244	85.1961	125.244	84.8456	125.244	85.3216	125.244	84.8515	125.244	85.4436	125.244	84.8459	125.244	85.5513	125.244	84.8285	125.244	85.6345	125.244	84.8012	125.244	85.6846	125.244	84.7684	125.244	85.6957	125.244	84.7364	125.244	85.6654	125.244	84.7129	125.244	85.5955	125.244	84.7062	125.244	85.4919	125.244	84.7235	125.244	85.3639	125.244	84.7702	125.244	85.2232	125.244	84.8479	125.244	85.0826	125.244	84.9542
129.639	84.7712	129.639	84.7565	129.639	84.8063	129.639	84.7579	129.639	84.8642	129.639	84.7697	129.639	84.9449	129.639	84.7854	129.639	85.0454	129.639	84.7986	129.639	85.16	129.639	84.8038	129.639	85.2803	129.639	84.7965	129.639	85.3962	129.639	84.7742	129.639	85.4964	129.639	84.7365	129.639	85.5702	129.639	84.6858	129.639	85.6082	129.639	84.6269	129.639	85.604	129.639	84.5673	129.639	85.5549	129.639	84.5167	129.639	85.4628	129.639	84.4855	129.639	85.3344	129.639	84.4839	129.639	85.1803	129.639	84.5192	129.639	85.0145	129.639	84.5947	129.639	84.8522	129.639	84.7082
134.033	84.7357	134.033	84.73	134.033	84.7636	134.033	84.7411	134.033	84.8168	134.033	84.762	134.033	84.8958	134.033	84.7851	134.033	84.9978	134.033	84.8031	134.033	85.1167	134.033	84.8096	134.033	85.2438	134.033	84.7998	134.033	85.368	134.033	84.7712	134.033	85.4775	134.033	84.7241	134.033	85.5603	134.033	84.6617	134.033	85.6061	134.033	84.5902	134.033	85.6075	134.033	84.5188	134.033	85.561	134.033	84.4585	134.033	85.4681	134.033	84.4214	134.033	85.3351	134.033	84.4184	134.033	85.1729	134.033	84.4571	134.033	84.9962	134.033	84.5404	134.033	84.8214	134.033	84.6648
138.428	84.6628	138.428	84.6547	138.428	84.6968	138.428	84.6671	138.428	84.7595	138.428	84.693	138.428	84.8509	138.428	84.7246	138.428	84.9679	138.428	84.7541	138.428	85.1039	138.428	84.7748	138.428	85.2497	138.428	84.7814	138.428	85.3939	138.428	84.7709	138.428	85.5238	138.428	84.743	138.428	85.6269	138.428	84.7004	138.428	85.6922	138.428	84.6487	138.428	85.7113	138.428	84.5962	138.428	85.6803	138.428	84.5535	138.428	85.5999	138.428	84.5318	138.428	85.4761	138.428	84.5417	138.428	85.3198	138.428	84.5908	138.428	85.1458	138.428	84.6819	138.428	84.9709	138.428	84.8116
143.555	84.7656	143.555	84.7511	143.555	84.8046	143.555	84.7566	143.555	84.8699	143.555	84.7759	143.555	84.9608	143.555	84.8017	143.555	85.0738	143.555	84.8263	143.555	85.2024	143.555	84.8424	143.555	85.3379	143.555	84.8445	143.555	85.4697	143.555	84.8288	143.555	85.5857	143.555	84.7943	143.555	85.6742	143.555	84.7432	143.555	85.7244	143.555	84.6807	143.555	85.7284	143.555	84.6153	143.555	85.6824	143.555	84.5578	143.555	85.5874	143.555	84.5206	143.555	85.45	143.555	84.5155	143.555	85.2818	143.555	84.5517	143.555	85.0987	143.555	84.6335	143.555	84.9185	143.555	84.7586
148.682	84.9094	148.682	84.8859	148.682	84.9541	148.682	84.8796	148.682	85.0216	148.682	84.8847	148.682	85.1107	148.682	84.8942	148.682	85.2178	148.682	84.9006	148.682	85.3367	148.682	84.8968	148.682	85.4586	148.682	84.8773	148.682	85.573	148.682	84.8383	148.682	85.6682	148.682	84.779	148.682	85.7327	148.682	84.7018	148.682	85.756	148.682	84.6124	148.682	85.7308	148.682	84.52	148.682	85.6537	148.682	84.4367	148.682	85.5269	148.682	84.3762	148.682	85.358	148.682	84.352	148.682	85.1605	148.682	84.3753	148.682	84.9519	148.682	84.4519	148.682	84.7522	148.682	84.5804
153.809	85.0369	153.809	85.0196	153.809	85.0739	153.809	85.0178	153.809	85.1327	153.809	85.0256	153.809	85.2128	153.809	85.0357	153.809	85.3113	153.809	85.0405	153.809	85.4226	153.809	85.0328	153.809	85.5384	153.809	85.0067	153.809	85.6485	153.809	84.9586	153.809	85.7408	153.809	84.8876	153.809	85.8031	153.809	84.796	153.809	85.8242	153.809	84.69	153.809	85.7954	153.809	84.5795	153.809	85.7128	153.809	84.4777	153.809	85.5776	153.809	84.3998	153.809	85.3979	153.809	84.3611	153.809	85.1878	153.809	84.3743	153.809	84.9664	153.809	84.4465	153.809	84.7557	153.809	84.5768
159.668	85.1329	159.668	85.118	159.668	85.1668	159.668	85.1175	159.668	85.2221	159.668	85.125	159.668	85.2986	159.668	85.133	159.668	85.3936	159.668	85.1334	159.668	85.502	159.668	85.1187	159.668	85.6158	159.668	85.0831	159.668	85.7252	159.668	85.0232	159.668	85.8181	159.668	84.9386	159.668	85.8822	159.668	84.8326	159.668	85.9056	159.668	84.7125	159.668	85.8788	159.668	84.5896	159.668	85.7967	159.668	84.4784	159.668	85.6596	159.668	84.3954	159.668	85.4748	159.668	84.357	159.668	85.2558	159.668	84.3759	159.668	85.0222	159.668	84.4586	159.668	84.7969	159.668	84.6028
164.795	85.3293	164.795	85.3033	164.795	85.3732	164.795	85.2913	164.795	85.436	164.795	85.2875	164.795	85.5168	164.795	85.2843	164.795	85.6121	164.795	85.2733	164.795	85.7163	164.795	85.2468	164.795	85.8217	164.795	85.1982	164.795	85.9185	164.795	85.1239	164.795	85.9955	164.795	85.0234	164.795	86.0408	164.795	84.9003	164.795	86.0431	164.795	84.7625	164.795	85.9938	164.795	84.6219	164.795	85.8885	164.795	84.4943	164.795	85.7282	164.795	84.3972	164.795	85.521	164.795	84.348	164.795	85.2817	164.795	84.3604	164.795	85.0307	164.795	84.4415	164.795	84.792	164.795	84.5892
170.654	85.3299	170.654	85.3075	170.654	85.3698	170.654	85.2991	170.654	85.4283	170.654	85.2992	170.654	85.5049	170.654	85.3006	170.654	85.5967	170.654	85.2953	170.654	85.6987	170.654	85.2755	170.654	85.8039	170.654	85.2346	170.654	85.9026	170.654	85.1684	170.654	85.9835	170.654	85.0759	170.654	86.0338	170.654	84.96	170.654	86.0418	170.654	84.8278	170.654	85.9979	170.654	84.6906	170.654	85.897	170.654	84.5634	170.654	85.7402	170.654	84.4636	170.654	85.5358	170.654	84.4086	170.654	85.2992	170.654	84.4128	170.654	85.0521	170.654	84.4846	170.654	84.8189	170.654	84.6235
176.514	85.285	176.514	85.2592	176.514	85.3293	176.514	85.249	176.514	85.393	176.514	85.2492	176.514	85.4751	176.514	85.2527	176.514	85.5726	176.514	85.2514	176.514	85.6808	176.514	85.2372	176.514	85.7926	176.514	85.2029	176.514	85.8988	176.514	85.144	176.514	85.9876	176.514	85.0589	176.514	86.0462	176.514	84.9502	176.514	86.0623	176.514	84.8246	176.514	86.0254	176.514	84.6933	176.514	85.9298	176.514	84.5713	176.514	85.7762	176.514	84.4757	176.514	85.5727	176.514	84.4244	176.514	85.3351	176.514	84.432	176.514	85.0852	176.514	84.5071	176.514	84.8485	176.514	84.6495
183.105	85.3308	183.105	85.2965	183.105	85.381	183.105	85.2756	183.105	85.4478	183.105	85.2635	183.105	85.5299	183.105	85.2536	183.105	85.6248	183.105	85.2383	183.105	85.7281	183.105	85.2097	183.105	85.8335	183.105	85.1612	183.105	85.9324	183.105	85.0883	183.105	86.0139	183.105	84.99	183.105	86.0655	183.105	84.869	183.105	86.0745	183.105	84.7327	183.105	86.0304	183.105	84.5931	183.105	85.9268	183.105	84.4655	183.105	85.7639	183.105	84.3679	183.105	85.5493	183.105	84.3184	183.105	85.2988	183.105	84.3317	183.105	85.0349	183.105	84.4161	183.105	84.7835	183.105	84.5705
189.697	85.4643	189.697	85.4365	189.697	85.5072	189.697	85.4214	189.697	85.5654	189.697	85.4146	189.697	85.6377	189.697	85.4091	189.697	85.7219	189.697	85.3969	189.697	85.8143	189.697	85.3695	189.697	85.9099	189.697	85.3196	189.697	86.0008	189.697	85.2427	189.697	86.0769	189.697	85.1379	189.697	86.1259	189.697	85.0086	189.697	86.135	189.697	84.8631	189.697	86.0931	189.697	84.7143	189.697	85.9931	189.697	84.5786	189.697	85.8346	189.697	84.4745	189.697	85.6248	189.697	84.4201	189.697	85.3791	189.697	84.4298	189.697	85.1196	189.697	84.5113	189.697	84.8723	189.697	84.6627
196.289	85.533	196.289	85.5016	196.289	85.5756	196.289	85.4803	196.289	85.6288	196.289	85.466	196.289	85.6914	196.289	85.4535	196.289	85.7616	196.289	85.4354	196.289	85.8372	196.289	85.4041	196.289	85.9143	196.289	85.3523	196.289	85.987	196.289	85.2751	196.289	86.0463	196.289	85.1712	196.289	86.0807	196.289	85.0432	196.289	86.078	196.289	84.8988	196.289	86.0272	196.289	84.7497	196.289	85.9214	196.289	84.6115	196.289	85.7603	196.289	84.5019	196.289	85.5515	196.289	84.4382	196.289	85.3111	196.289	84.4349	196.289	85.0613	196.289	84.5004	196.289	84.8277	196.289	84.6346
202.881	85.6471	202.881	85.6126	202.881	85.6879	202.881	85.5841	202.881	85.7344	202.881	85.5594	202.881	85.7857	202.881	85.5344	202.881	85.8411	202.881	85.503	202.881	85.8998	202.881	85.4586	202.881	85.9598	202.881	85.3949	202.881	86.0166	202.881	85.308	202.881	86.0626	202.881	85.1968	202.881	86.087	202.881	85.0644	202.881	86.0773	202.881	84.9182	202.881	86.0219	202.881	84.7692	202.881	85.9132	202.881	84.632	202.881	85.7503	202.881	84.5228	202.881	85.5408	202.881	84.4577	202.881	85.3009	202.881	84.4506	202.881	85.0535	202.881	84.5102	202.881	84.8244	202.881	84.6375
210.205	85.6879	210.205	85.6562	210.205	85.7221	210.205	85.6257	210.205	85.7593	210.205	85.5932	210.205	85.7995	210.205	85.554	210.205	85.843	210.205	85.502	210.205	85.8903	210.205	85.431	210.205	85.9408	210.205	85.3365	210.205	85.9917	210.205	85.2164	210.205	86.0363	210.205	85.0728	210.205	86.0643	210.205	84.912	210.205	86.0627	210.205	84.7445	210.205	86.0181	210.205	84.5846	210.205	85.9205	210.205	84.4486	210.205	85.7664	210.205	84.353	210.205	85.5606	210.205	84.3123	210.205	85.3172	210.205	84.337	210.205	85.0577	210.205	84.4314	210.205	84.8077	210.205	84.5924
217.529	85.6999	217.529	85.6602	217.529	85.7443	217.529	85.6255	217.529	85.7913	217.529	85.5935	217.529	85.8388	217.529	85.5586	217.529	85.8852	217.529	85.5134	217.529	85.9296	217.529	85.4495	217.529	85.9714	217.529	85.3601	217.529	86.0084	217.529	85.2415	217.529	86.0355	217.529	85.0945	217.529	86.0438	217.529	84.9254	217.529	86.0218	217.529	84.7454	217.529	85.9576	217.529	84.5701	217.529	85.8425	217.529	84.4174	217.529	85.6738	217.529	84.3054	217.529	85.4575	217.529	84.2496	217.529	85.2082	217.529	84.2607	217.529	84.9479	217.529	84.3432	217.529	84.7018	217.529	84.4939
225.586	85.7469	225.586	85.6965	225.586	85.796	225.586	85.6471	225.586	85.84	225.586	85.5986	225.586	85.8761	225.586	85.5475	225.586	85.9031	225.586	85.4873	225.586	85.9217	225.586	85.4108	225.586	85.9337	225.586	85.3115	225.586	85.9396	225.586	85.1862	225.586	85.9372	225.586	85.0361	225.586	85.92	225.586	84.8678	225.586	85.8778	225.586	84.6925	225.586	85.7995	225.586	84.5249	225.586	85.6767	225.586	84.3811	225.586	85.5072	225.586	84.276	225.586	85.2972	225.586	84.2218	225.586	85.0618	225.586	84.2263	225.586	84.8223	225.586	84.2931	225.586	84.6019	225.586	84.4207
232.91	85.8923	232.91	85.8348	232.91	85.9454	232.91	85.7761	232.91	85.99	232.91	85.7166	232.91	86.0225	232.91	85.6531	232.91	86.042	232.91	85.579	232.91	86.0495	232.91	85.4865	232.91	86.0476	232.91	85.3685	232.91	86.0382	232.91	85.2214	232.91	86.0199	232.91	85.0466	232.91	85.987	232.91	84.8514	232.91	85.9291	232.91	84.6487	232.91	85.8343	232.91	84.4553	232.91	85.6929	232.91	84.2894	232.91	85.5017	232.91	84.1676	232.91	85.2673	232.91	84.1026	232.91	85.0062	232.91	84.1023	232.91	84.7423	232.91	84.1705	232.91	84.5014	232.91	84.3059
241.699	85.7062	241.699	85.6264	241.699	85.7848	241.699	85.5518	241.699	85.8544	241.699	85.485	241.699	85.9087	241.699	85.4233	241.699	85.9441	241.699	85.3591	241.699	85.9605	241.699	85.2819	241.699	85.96	241.699	85.1815	241.699	85.9452	241.699	85.0511	241.699	85.9157	241.699	84.8892	241.699	85.8675	241.699	84.7012	241.699	85.7917	241.699	84.4988	241.699	85.6776	241.699	84.2986	241.699	85.5162	241.699	84.1197	241.699	85.3052	241.699	83.9803	241.699	85.0519	241.699	83.8956	241.699	84.7742	241.699	83.8767	241.699	84.498	241.699	83.9299	241.699	84.2509	241.699	84.0566
249.756	85.9054	249.756	85.7848	249.756	86.0108	249.756	85.6563	249.756	86.0935	249.756	85.5252	249.756	86.1487	249.756	85.3927	249.756	86.175	249.756	85.2554	249.756	86.1748	249.756	85.1071	249.756	86.1527	249.756	84.9412	249.756	86.1132	249.756	84.7542	249.756	86.0582	249.756	84.5479	249.756	85.9847	249.756	84.3304	249.756	85.8845	249.756	84.1158	249.756	85.7466	249.756	83.9215	249.756	85.5611	249.756	83.7651	249.756	85.3243	249.756	83.661	249.756	85.0428	249.756	83.619	249.756	84.734	249.756	83.6448	249.756	84.4241	249.756	83.7414	249.756	84.1411	249.756	83.9087
258.545	85.8777	258.545	85.7758	258.545	85.9674	258.545	85.6684	258.545	86.0377	258.545	85.5591	258.545	86.0834	258.545	85.4464	258.545	86.1029	258.545	85.3243	258.545	86.0985	258.545	85.1841	258.545	86.0752	258.545	85.0179	258.545	86.0381	258.545	84.822	258.545	85.9895	258.545	84.5998	258.545	85.9263	258.545	84.3622	258.545	85.8397	258.545	84.1276	258.545	85.7173	258.545	83.9179	258.545	85.5476	258.545	83.7542	258.545	85.3259	258.545	83.6524	258.545	85.0575	258.545	83.6202	258.545	84.7594	258.545	83.6593	258.545	84.4569	258.545	83.768	258.545	84.1774	258.545	83.943
268.066	85.6153	268.066	85.4526	268.066	85.7649	268.066	85.2895	268.066	85.8898	268.066	85.1358	268.066	85.9822	268.066	84.995	268.066	86.0387	268.066	84.8623	268.066	86.0607	268.066	84.7263	268.066	86.0517	268.066	84.5724	268.066	86.016	268.066	84.3885	268.066	85.955	268.066	84.1689	268.066	85.8657	268.066	83.918	268.066	85.7399	268.066	83.6505	268.066	85.5663	268.066	83.3899	268.066	85.3348	268.066	83.1649	268.066	85.0416	268.066	83.0026	268.066	84.6937	268.066	82.9239	268.066	84.3107	268.066	82.9409	268.066	83.9231	268.066	83.0573	268.066	83.5656	268.066	83.2696
277.588	85.7924	277.588	85.6676	277.588	85.8832	277.588	85.5162	277.588	85.9359	277.588	85.3464	277.588	85.9512	277.588	85.1656	277.588	85.9347	277.588	84.9782	277.588	85.8971	277.588	84.7863	277.588	85.851	277.588	84.5901	277.588	85.8076	277.588	84.3911	277.588	85.772	277.588	84.1937	277.588	85.7394	277.588	84.0068	277.588	85.6954	277.588	83.8428	277.588	85.6205	277.588	83.7148	277.588	85.4962	277.588	83.6332	277.588	85.3129	277.588	83.6036	277.588	85.0742	277.588	83.6269	277.588	84.7975	277.588	83.7021	277.588	84.5098	277.588	83.8292	277.588	84.2398	277.588	84.0093
287.109	85.9254	287.109	85.8239	287.109	85.994	287.109	85.6958	287.109	86.0243	287.109	85.5456	287.109	86.0142	287.109	85.3748	287.109	85.9664	287.109	85.1821	287.109	85.8896	287.109	84.9646	287.109	85.7971	287.109	84.7204	287.109	85.7039	287.109	84.4525	287.109	85.6217	287.109	84.1703	287.109	85.5533	287.109	83.8911	287.109	85.4897	287.109	83.6382	287.109	85.4118	287.109	83.436	287.109	85.2974	287.109	83.3039	287.109	85.1291	287.109	83.2511	287.109	84.9022	287.109	83.277	287.109	84.6268	287.109	83.3752	287.109	84.3257	287.109	83.5383	287.109	84.0278	287.109	83.7593
297.363	85.8407	297.363	85.7257	297.363	85.9306	297.363	85.5955	297.363	85.9843	297.363	85.4548	297.363	85.9928	297.363	85.3012	297.363	85.953	297.363	85.126	297.363	85.8684	297.363	84.9183	297.363	85.7498	297.363	84.67	297.363	85.6127	297.363	84.3803	297.363	85.4733	297.363	84.0599	297.363	85.3431	297.363	83.7314	297.363	85.2239	297.363	83.4276	297.363	85.1065	297.363	83.1849	297.363	84.9751	297.363	83.0333	297.363	84.8147	297.363	82.9867	297.363	84.6173	297.363	83.0405	297.363	84.3852	297.363	83.1766	297.363	84.1294	297.363	83.3724	297.363	83.8649	297.363	83.6074
307.617	85.6576	307.617	85.5126	307.617	85.7782	307.617	85.3601	307.617	85.8587	307.617	85.2127	307.617	85.8885	307.617	85.0739	307.617	85.864	307.617	84.9365	307.617	85.789	307.617	84.7865	307.617	85.6731	307.617	84.6092	307.617	85.53	307.617	84.3965	307.617	85.3734	307.617	84.1519	307.617	85.2134	307.617	83.8928	307.617	85.0535	307.617	83.6474	307.617	84.8901	307.617	83.4483	307.617	84.7169	307.617	83.3213	307.617	84.5302	307.617	83.2761	307.617	84.3334	307.617	83.3041	307.617	84.136	307.617	83.385	307.617	83.9496	307.617	83.4982	307.617	83.7812	307.617	83.6313
318.604	85.6426	318.604	85.4958	318.604	85.7487	318.604	85.3231	318.604	85.802	318.604	85.138	318.604	85.7962	318.604	84.9481	318.604	85.7318	318.604	84.7528	318.604	85.617	318.604	84.5447	318.604	85.4662	318.604	84.3141	318.604	85.2971	318.604	84.0558	318.604	85.1259	318.604	83.7747	318.604	84.9613	318.604	83.4885	318.604	84.8006	318.604	83.2259	318.604	84.6313	318.604	83.0186	318.604	84.4378	318.604	82.8896	318.604	84.2123	318.604	82.843	318.604	83.9615	318.604	82.8639	318.604	83.7068	318.604	82.929	318.604	83.4748	318.604	83.0208	318.604	83.2839	318.604	83.136
329.59	85.6224	329.59	85.4691	329.59	85.7437	329.59	85.2999	329.59	85.8179	329.59	85.1263	329.59	85.8345	329.59	84.9512	329.59	85.7899	329.59	84.7671	329.59	85.6874	329.59	84.5597	329.59	85.5367	329.59	84.3139	329.59	85.3527	329.59	84.0221	329.59	85.1516	329.59	83.6902	329.59	84.9467	329.59	83.3406	329.59	84.7436	329.59	83.0104	329.59	84.5389	329.59	82.7422	329.59	84.323	329.59	82.5691	329.59	84.0879	329.59	82.5015	329.59	83.834	329.59	82.5252	329.59	83.5726	329.59	82.6136	329.59	83.3216	329.59	82.7435	329.59	83.0967	329.59	82.9044
341.309	85.2871	341.309	85.081	341.309	85.4479	341.309	84.8529	341.309	85.5456	341.309	84.6255	341.309	85.5711	341.309	84.4139	341.309	85.525	341.309	84.2194	341.309	85.4169	341.309	84.0302	341.309	85.2638	341.309	83.8281	341.309	85.0866	341.309	83.5985	341.309	84.9049	341.309	83.3392	341.309	84.73	341.309	83.0651	341.309	84.5607	341.309	82.8072	341.309	84.3843	341.309	82.6032	341.309	84.1852	341.309	82.4829	341.309	83.9551	341.309	82.4546	341.309	83.7014	341.309	82.5025	341.309	83.4453	341.309	82.5985	341.309	83.2118	341.309	82.7187	341.309	83.0157	341.309	82.8553
353.76	85.5168	353.76	85.3256	353.76	85.6517	353.76	85.0961	353.76	85.7167	353.76	84.8454	353.76	85.7046	353.76	84.5847	353.76	85.6164	353.76	84.3158	353.76	85.4609	353.76	84.0312	353.76	85.254	353.76	83.7202	353.76	85.0168	353.76	83.3769	353.76	84.7713	353.76	83.0087	353.76	84.5333	353.76	82.6402	353.76	84.3069	353.76	82.312	353.76	84.083	353.76	82.0683	353.76	83.8462	353.76	81.9387	353.76	83.586	353.76	81.9227	353.76	83.3068	353.76	81.9922	353.76	83.0284	353.76	82.1088	353.76	82.776	353.76	82.2447	353.76	82.5652	353.76	82.3931
366.211	85.4563	366.211	85.2644	366.211	85.5937	366.211	85.0384	366.211	85.6594	366.211	84.7951	366.211	85.6422	366.211	84.5427	366.211	85.5396	366.211	84.2788	366.211	85.3586	366.211	83.9923	366.211	85.1155	366.211	83.6721	366.211	84.835	366.211	83.3147	366.211	84.5473	366.211	82.9329	366.211	84.2796	366.211	82.5579	366.211	84.0474	366.211	82.2354	366.211	83.8472	366.211	82.011	366.211	83.6614	366.211	81.9104	366.211	83.4697	366.211	81.9263	366.211	83.2629	366.211	82.0247	366.211	83.047	366.211	82.165	366.211	82.8376	366.211	82.3188	366.211	82.6475	366.211	82.4775
378.662	85.5027	378.662	85.2772	378.662	85.6733	378.662	85.0214	378.662	85.7694	378.662	84.7578	378.662	85.7798	378.662	84.4986	378.662	85.7013	378.662	84.2405	378.662	85.5388	378.662	83.9662	378.662	85.3038	378.662	83.6554	378.662	85.014	378.662	83.2974	378.662	84.692	378.662	82.9025	378.662	84.3616	378.662	82.5087	378.662	84.0435	378.662	82.1763	378.662	83.7511	378.662	81.9682	378.662	83.4908	378.662	81.918	378.662	83.2663	378.662	82.0092	378.662	83.0825	378.662	82.1856	378.662	82.9432	378.662	82.382	378.662	82.8434	378.662	82.5512	378.662	82.7639	378.662	82.6754
392.578	85.0384	392.578	84.8166	392.578	85.2116	392.578	84.5713	392.578	85.3169	392.578	84.3268	392.578	85.3441	392.578	84.0963	392.578	85.292	392.578	83.8748	392.578	85.1667	392.578	83.6397	392.578	84.9801	392.578	83.3607	392.578	84.7469	392.578	83.0153	392.578	84.4813	392.578	82.602	392.578	84.1937	392.578	82.1508	392.578	83.8879	392.578	81.7244	392.578	83.5643	392.578	81.4033	392.578	83.2262	392.578	81.2502	392.578	82.8888	392.578	81.2727	392.578	82.5809	392.578	81.4188	392.578	82.3334	392.578	81.6117	392.578	82.1585	392.578	81.7896	392.578	82.037	392.578	81.927
405.762	85.0036	405.762	84.7577	405.762	85.1857	405.762	84.4779	405.762	85.2824	405.762	84.1943	405.762	85.2841	405.762	83.9259	405.762	85.1926	405.762	83.6716	405.762	85.0203	405.762	83.4111	405.762	84.7877	405.762	83.1153	405.762	84.5192	405.762	82.7625	405.762	84.237	405.762	82.3533	405.762	83.9529	405.762	81.9205	405.762	83.6634	405.762	81.5291	405.762	83.3541	405.762	81.2584	405.762	83.0158	405.762	81.1638	405.762	82.6626	405.762	81.2406	405.762	82.3386	405.762	81.4247	405.762	82.0986	405.762	81.6301	405.762	81.968	405.762	81.7895	405.762	81.9166	405.762	81.8774
420.41	84.9674	420.41	84.6879	420.41	85.1746	420.41	84.3681	420.41	85.2896	420.41	84.0455	420.41	85.3062	420.41	83.7498	420.41	85.2294	420.41	83.4884	420.41	85.0731	420.41	83.2423	420.41	84.857	420.41	82.9759	420.41	84.6026	420.41	82.6566	420.41	84.3269	420.41	82.273	420.41	84.0339	420.41	81.847	420.41	83.7104	420.41	81.4362	420.41	83.3304	420.41	81.1183	420.41	82.873	420.41	80.9538	420.41	82.3478	420.41	80.9452	420.41	81.8156	420.41	81.0308	420.41	81.3809	420.41	81.1227	420.41	81.1341	420.41	81.1554	420.41	81.0771	420.41	81.1203
435.059	84.7088	435.059	84.4484	435.059	84.8923	435.059	84.1417	435.059	84.9799	435.059	83.8234	435.059	84.9656	435.059	83.5208	435.059	84.8562	435.059	83.2408	435.059	84.6706	435.059	82.9661	435.059	84.4373	435.059	82.6646	435.059	84.19	435.059	82.3078	435.059	83.9579	435.059	81.8904	435.059	83.7505	435.059	81.4434	435.059	83.5488	435.059	81.0358	435.059	83.3097	435.059	80.7525	435.059	82.988	435.059	80.6476	435.059	82.5648	435.059	80.7029	435.059	82.0727	435.059	80.8377	435.059	81.599	435.059	80.9607	435.059	81.2498	435.059	81.0209	435.059	81.0764	435.059	81.0333
450.439	84.5606	450.439	84.2575	450.439	84.7695	450.439	83.9013	450.439	84.8599	450.439	83.5424	450.439	84.8249	450.439	83.2222	450.439	84.6728	450.439	82.9521	450.439	84.4256	450.439	82.7053	450.439	84.1187	450.439	82.4298	450.439	83.7973	450.439	82.0749	450.439	83.505	450.439	81.614	450.439	83.2617	450.439	81.0609	450.439	83.0453	450.439	80.4773	450.439	82.7941	450.439	79.964	450.439	82.4355	450.439	79.6195	450.439	81.9253	450.439	79.4765	450.439	81.281	450.439	79.4774	450.439	80.6005	450.439	79.5237	450.439	80.036	450.439	79.5508	450.439	79.7003	450.439	79.5765
466.553	84.1487	466.553	83.7653	466.553	84.4241	466.553	83.3283	466.553	84.5612	466.553	82.9085	466.553	84.5528	466.553	82.5686	466.553	84.4115	466.553	82.3313	466.553	84.1671	466.553	82.1647	466.553	83.8664	466.553	82.0027	466.553	83.5676	466.553	81.7805	466.553	83.3253	466.553	81.4635	466.553	83.1635	466.553	81.0585	466.553	83.0547	466.553	80.615	466.553	82.9278	466.553	80.2115	466.553	82.7029	466.553	79.9235	466.553	82.3298	466.553	79.7836	466.553	81.8143	466.553	79.7656	466.553	81.2261	466.553	79.8146	466.553	80.6788	466.553	79.8961	466.553	80.2718	466.553	80.0278
482.666	85.1706	482.666	84.7352	482.666	85.436	482.666	84.1628	482.666	85.5188	482.666	83.5115	482.666	85.4215	482.666	82.8628	482.666	85.1602	482.666	82.3011	482.666	84.7684	482.666	81.8768	482.666	84.306	482.666	81.582	482.666	83.8645	482.666	81.3642	482.666	83.5506	482.666	81.1681	482.666	83.4315	482.666	80.9668	482.666	83.4762	482.666	80.7695	482.666	83.5643	482.666	80.6079	482.666	83.5559	482.666	80.5115	482.666	83.3558	482.666	80.4869	482.666	82.9401	482.666	80.5155	482.666	82.3623	482.666	80.576	482.666	81.7416	482.666	80.6756	482.666	81.2159	482.666	80.866
500.244	86.6525	500.244	86.2346	500.244	86.9063	500.244	85.6908	500.244	86.9713	500.244	85.0706	500.244	86.8358	500.244	84.4244	500.244	86.4987	500.244	83.7884	500.244	85.9701	500.244	83.1745	500.244	85.2795	500.244	82.5758	500.244	84.4955	500.244	81.9905	500.244	83.7531	500.244	81.4499	500.244	83.2476	500.244	81.0322	500.244	83.1279	500.244	80.8377	500.244	83.3517	500.244	80.9225	500.244	83.7122	500.244	81.2463	500.244	84.0032	500.244	81.6969	500.244	84.1159	500.244	82.1619	500.244	84.0384	500.244	82.5755	500.244	83.8218	500.244	82.926	500.244	83.5382	500.244	83.2379
517.822	85.8781	517.822	85.5435	517.822	86.0467	517.822	85.0598	517.822	86.0467	517.822	84.4659	517.822	85.8841	517.822	83.8269	517.822	85.5713	517.822	83.2252	517.822	85.1283	517.822	82.7307	517.822	84.5891	517.822	82.3654	517.822	84.0122	517.822	82.096	517.822	83.4858	517.822	81.8673	517.822	83.1092	517.822	81.6478	517.822	82.9379	517.822	81.4529	517.822	82.9341	517.822	81.3372	517.822	82.9884	517.822	81.3561	517.822	82.9955	517.822	81.5175	517.822	82.912	517.822	81.7685	517.822	82.7637	517.822	82.0284	517.822	82.6096	517.822	82.2361	517.822	82.4864	517.822	82.3779
536.133	86.5265	536.133	86.1842	536.133	86.6778	536.133	85.6632	536.133	86.6302	536.133	84.9842	536.133	86.3785	536.133	84.1849	536.133	85.9214	536.133	83.3318	536.133	85.2669	536.133	82.5245	536.133	84.4478	536.133	81.8731	536.133	83.5528	536.133	81.4451	536.133	82.758	536.133	81.2284	536.133	82.2915	536.133	81.1596	536.133	82.2623	536.133	81.187	536.133	82.5312	536.133	81.2995	536.133	82.8451	536.133	81.5046	536.133	83.0292	536.133	81.7877	536.133	83.0425	536.133	82.0973	536.133	82.9428	536.133	82.3678	536.133	82.8216	536.133	82.556	536.133	82.7334	536.133	82.6633
554.443	86.2629	554.443	85.9702	554.443	86.4174	554.443	85.5424	554.443	86.4308	554.443	84.9854	554.443	86.2974	554.443	84.3139	554.443	86.0059	554.443	83.5606	554.443	85.5396	554.443	82.7839	554.443	84.8804	554.443	82.0623	554.443	84.0252	554.443	81.4678	554.443	83.022	554.443	81.0332	554.443	82.0346	554.443	80.7505	554.443	81.3763	554.443	80.6065	554.443	81.3263	554.443	80.6119	554.443	81.8003	554.443	80.787	554.443	82.4375	554.443	81.1212	554.443	82.9482	554.443	81.557	554.443	83.2188	554.443	82.0193	554.443	83.2521	554.443	82.451	554.443	83.1001	554.443	82.8198
574.219	86.2086	574.219	85.91	574.219	86.3597	574.219	85.4698	574.219	86.363	574.219	84.9004	574.219	86.2212	574.219	84.2217	574.219	85.9365	574.219	83.468	574.219	85.5071	574.219	82.6994	574.219	84.9286	574.219	82.0071	574.219	84.2007	574.219	81.4874	574.219	83.3455	574.219	81.185	574.219	82.4398	574.219	81.0666	574.219	81.6439	574.219	81.0649	574.219	81.1669	574.219	81.1438	574.219	81.1203	574.219	81.3143	574.219	81.4129	574.219	81.5942	574.219	81.8516	574.219	81.9604	574.219	82.2821	574.219	82.3411	574.219	82.6159	574.219	82.6484	574.219	82.8023	574.219	82.8134
594.727	86.0024	594.727	85.7756	594.727	86.0824	594.727	85.4049	594.727	86.0168	594.727	84.8958	594.727	85.8084	594.727	84.2533	594.727	85.4592	594.727	83.4819	594.727	84.9702	594.727	82.597	594.727	84.3464	594.727	81.6555	594.727	83.6103	594.727	80.7909	594.727	82.8206	594.727	80.1961	594.727	82.0813	594.727	80.0014	594.727	81.5092	594.727	80.1579	594.727	81.1619	594.727	80.5066	594.727	81.0111	594.727	80.92	594.727	81.0108	594.727	81.3382	594.727	81.1548	594.727	81.7279	594.727	81.4375	594.727	82.0452	594.727	81.7889	594.727	82.2356	594.727	82.0931	594.727	82.2553
615.234	85.7689	615.234	85.4514	615.234	85.947	615.234	85.0064	615.234	85.9776	615.234	84.4478	615.234	85.8525	615.234	83.785	615.234	85.5611	615.234	83.0179	615.234	85.09	615.234	82.1452	615.234	84.4268	615.234	81.1944	615.234	83.5749	615.234	80.2614	615.234	82.5879	615.234	79.5203	615.234	81.6266	615.234	79.1454	615.234	80.9678	615.234	79.1831	615.234	80.8179	615.234	79.5382	615.234	81.075	615.234	80.0783	615.234	81.4587	615.234	80.6966	615.234	81.7893	615.234	81.3046	615.234	82.0393	615.234	81.8211	615.234	82.2325	615.234	82.182	615.234	82.3564	615.234	82.3563
637.207	85.7067	637.207	85.422	637.207	85.8462	637.207	85.0036	637.207	85.8336	637.207	84.4638	637.207	85.6695	637.207	83.8155	637.207	85.36	637.207	83.0718	637.207	84.9098	637.207	82.2474	637.207	84.3139	637.207	81.3634	637.207	83.5561	637.207	80.4634	637.207	82.6227	637.207	79.64	637.207	81.5467	637.207	79.0446	637.207	80.4862	637.207	78.8383	637.207	79.7725	637.207	79.0829	637.207	79.7005	637.207	79.6827	637.207	80.1714	637.207	80.4498	637.207	80.8312	637.207	81.2012	637.207	81.4366	637.207	81.8051	637.207	81.9059	637.207	82.1858	637.207	82.211	637.207	82.3167
659.912	85.3821	659.912	85.1126	659.912	85.487	659.912	84.704	659.912	85.4246	659.912	84.1959	659.912	85.2095	659.912	83.6215	659.912	84.8619	659.912	82.991	659.912	84.3955	659.912	82.3013	659.912	83.8115	659.912	81.5658	659.912	83.104	659.912	80.8357	659.912	82.2797	659.912	80.1845	659.912	81.3899	659.912	79.6663	659.912	80.5572	659.912	79.3106	659.912	79.9501	659.912	79.1738	659.912	79.6804	659.912	79.3534	659.912	79.7372	659.912	79.8762	659.912	80.0511	659.912	80.596	659.912	80.5502	659.912	81.274	659.912	81.1212	659.912	81.7161	659.912	81.598	659.912	81.825
683.35	85.6227	683.35	85.3427	683.35	85.7232	683.35	84.8867	683.35	85.6591	683.35	84.282	683.35	85.4505	683.35	83.5692	683.35	85.1055	683.35	82.7775	683.35	84.6096	683.35	81.9103	683.35	83.9267	683.35	80.9736	683.35	83.0201	683.35	80.0437	683.35	81.8994	683.35	79.3017	683.35	80.7021	683.35	78.9273	683.35	79.7616	683.35	78.9211	683.35	79.4387	683.35	79.1409	683.35	79.7223	683.35	79.4868	683.35	80.2705	683.35	79.9382	683.35	80.7987	683.35	80.4591	683.35	81.1935	683.35	80.9537	683.35	81.44	683.35	81.3218	683.35	81.5494	683.35	81.5176
706.787	85.2906	706.787	85.0615	706.787	85.3263	706.787	84.6315	706.787	85.1917	706.787	84.0155	706.787	84.9187	706.787	83.2568	706.787	84.5373	706.787	82.4287	706.787	84.0617	706.787	81.6144	706.787	83.4744	706.787	80.8677	706.787	82.7191	706.787	80.1898	706.787	81.7171	706.787	79.5613	706.787	80.4327	706.787	78.9996	706.787	79.0266	706.787	78.5847	706.787	78.0406	706.787	78.4344	706.787	78.0484	706.787	78.6428	706.787	78.8237	706.787	79.2068	706.787	79.768	706.787	79.9907	706.787	80.599	706.787	80.7849	706.787	81.2429	706.787	81.396	706.787	81.634	706.787	81.6953
731.689	85.1777	731.689	85.0704	731.689	85.1064	731.689	84.764	731.689	84.8915	731.689	84.2536	731.689	84.5744	731.689	83.5446	731.689	84.1877	731.689	82.6531	731.689	83.7386	731.689	81.6224	731.689	83.199	731.689	80.5593	731.689	82.508	731.689	79.6538	731.689	81.5906	731.689	79.0942	731.689	80.4081	731.689	78.8922	731.689	79.0812	731.689	78.8776	731.689	78.081	731.689	78.9084	731.689	78.0086	731.689	79.0128	731.689	78.7158	731.689	79.3296	731.689	79.5433	731.689	79.9021	731.689	80.1809	731.689	80.5577	731.689	80.6596	731.689	81.0402	731.689	81.0264	731.689	81.1937
758.057	84.9571	758.057	84.8678	758.057	84.9072	758.057	84.6248	758.057	84.7396	758.057	84.212	758.057	84.4847	758.057	83.6026	758.057	84.1692	758.057	82.7592	758.057	83.7918	758.057	81.656	758.057	83.3031	758.057	80.3505	758.057	82.6043	758.057	79.1179	758.057	81.5702	758.057	78.4579	758.057	80.0992	758.057	78.5711	758.057	78.2795	758.057	79.0251	758.057	76.9004	758.057	79.3561	758.057	77.3005	758.057	79.4563	758.057	78.9108	758.057	79.5015	758.057	80.3261	758.057	79.7304	758.057	81.1234	758.057	80.1863	758.057	81.3995	758.057	80.7018	758.057	81.3546	758.057	81.1111
784.424	84.4605	784.424	84.5308	784.424	84.2341	784.424	84.4306	784.424	83.8845	784.424	84.1486	784.424	83.4678	784.424	83.6633	784.424	83.0435	784.424	82.9387	784.424	82.6364	784.424	81.934	784.424	82.2028	784.424	80.6527	784.424	81.6277	784.424	79.2798	784.424	80.7487	784.424	78.3577	784.424	79.397	784.424	78.4129	784.424	77.5269	784.424	79.1196	784.424	75.7645	784.424	79.7934	784.424	75.8502	784.424	80.1421	784.424	77.6222	784.424	80.2319	784.424	79.3039	784.424	80.2796	784.424	80.3365	784.424	80.4392	784.424	80.8141	784.424	80.6771	784.424	80.9425	784.424	80.872
812.256	83.6616	812.256	83.787	812.256	83.4695	812.256	83.8184	812.256	83.2519	812.256	83.7284	812.256	83.0526	812.256	83.4636	812.256	82.897	812.256	82.9331	812.256	82.7679	812.256	82.0245	812.256	82.5873	812.256	80.6525	812.256	82.2069	812.256	78.9079	812.256	81.4011	812.256	77.4611	812.256	79.8491	812.256	77.468	812.256	77.1684	812.256	78.6598	812.256	73.9892	812.256	79.8447	812.256	75.1647	812.256	80.5628	812.256	78.638	812.256	80.8792	812.256	80.9051	812.256	81.0369	812.256	82.0243	812.256	81.2627	812.256	82.3905	812.256	81.6188	812.256	82.3175	812.256	82.0137
840.82	84.0569	840.82	84.126	840.82	83.8845	840.82	84.1401	840.82	83.5785	840.82	84.091	840.82	83.1883	840.82	83.8843	840.82	82.8424	840.82	83.3728	840.82	82.6609	840.82	82.3987	840.82	82.6292	840.82	80.812	840.82	82.5577	840.82	78.545	840.82	82.1376	840.82	76.1711	840.82	80.9635	840.82	75.923	840.82	78.3716	840.82	77.9594	840.82	72.5904	840.82	79.9717	840.82	66.6518	840.82	81.2986	840.82	76.5132	840.82	82.0488	840.82	80.854	840.82	82.4571	840.82	82.896	840.82	82.7493	840.82	83.6785	840.82	83.0711	840.82	83.7318	840.82	83.4404
870.85	83.9238	870.85	84.1425	870.85	83.6027	870.85	84.359	870.85	83.123	870.85	84.5773	870.85	82.5806	870.85	84.6491	870.85	82.2337	870.85	84.354	870.85	82.3079	870.85	83.4991	870.85	82.7251	870.85	81.9499	870.85	83.1396	870.85	79.6729	870.85	83.1558	870.85	77.1969	870.85	82.3702	870.85	76.6929	870.85	80.1799	870.85	78.6657	870.85	74.9262	870.85	80.7789	870.85	58.5425	870.85	82.2598	870.85	76.5695	870.85	83.2093	870.85	81.8399	870.85	83.8675	870.85	84.3547	870.85	84.4394	870.85	85.4922	870.85	85.0135	870.85	85.7729	870.85	85.5237
901.611	83.7223	901.611	83.2966	901.611	83.6801	901.611	83.1725	901.611	82.7823	901.611	83.8527	901.611	80.9474	901.611	84.8015	901.611	78.6728	901.611	85.2784	901.611	78.0577	901.611	84.8973	901.611	80.0283	901.611	83.4104	901.611	82.3196	901.611	80.3973	901.611	83.8461	901.611	74.9806	901.611	84.3403	901.611	72.8209	901.611	83.5428	901.611	78.7451	901.611	80.9128	901.611	82.4012	901.611	76.1635	901.611	84.5294	901.611	78.498	901.611	85.856	901.611	83.7537	901.611	86.7797	901.611	86.7312	901.611	87.5257	901.611	88.2169	901.611	88.1694	901.611	88.7396	901.611	88.6372
933.105	87.0675	933.105	85.804	933.105	87.3724	933.105	83.6689	933.105	86.7936	933.105	81.7934	933.105	85.3714	933.105	82.384	933.105	83.0055	933.105	84.1367	933.105	79.3138	933.105	85.0684	933.105	74.8923	933.105	84.6665	933.105	77.3957	933.105	82.6304	933.105	81.7756	933.105	78.0043	933.105	84.301	933.105	64.007	933.105	85.1994	933.105	74.3454	933.105	84.454	933.105	80.9524	933.105	81.7883	933.105	84.3364	933.105	79.4594	933.105	86.5688	933.105	83.5285	933.105	88.2482	933.105	87.4948	933.105	89.5783	933.105	89.7973	933.105	90.5584	933.105	90.8803	933.105	91.0577
966.064	88.8196	966.064	87.7682	966.064	89.0469	966.064	85.7106	966.064	88.5593	966.064	82.4866	966.064	87.3901	966.064	79.4482	966.064	85.4655	966.064	80.8205	966.064	82.4992	966.064	83.3623	966.064	77.5009	966.064	84.4539	966.064	66.8747	966.064	83.9037	966.064	75.4816	966.064	81.4275	966.064	81.3536	966.064	75.473	966.064	84.0102	966.064	59.0756	966.064	84.7506	966.064	77.3125	966.064	83.8189	966.064	82.5707	966.064	81.8286	966.064	85.6519	966.064	82.5253	966.064	87.8203	966.064	86.0684	966.064	89.4027	966.064	88.812	966.064	90.425	966.064	90.3121	966.064	90.7827
999.756	89.32	999.756	88.6934	999.756	89.1737	999.756	87.1509	999.756	88.4616	999.756	84.5028	999.756	87.5096	999.756	80.708	999.756	86.534	999.756	78.4638	999.756	85.2664	999.756	80.7831	999.756	82.966	999.756	82.8905	999.756	78.2414	999.756	83.429	999.756	69.6141	999.756	82.3247	999.756	77.8621	999.756	78.9583	999.756	82.5381	999.756	69.996	999.756	84.3049	999.756	73.8792	999.756	84.205	999.756	81.1718	999.756	82.549	999.756	84.664	999.756	81.1667	999.756	86.8944	999.756	83.8222	999.756	88.6123	999.756	87.2556	999.756	89.8137	999.756	89.3875	999.756	90.1746
1,034.91	88.7457	1,034.91	88.811	1,034.91	88.1365	1,034.91	88.1043	1,034.91	87.2751	1,034.91	86.3697	1,034.91	86.4994	1,034.91	83.2434	1,034.91	85.9729	1,034.91	78.9667	1,034.91	85.4414	1,034.91	78.6309	1,034.91	84.2795	1,034.91	81.3044	1,034.91	81.4952	1,034.91	82.4083	1,034.91	74.454	1,034.91	81.7784	1,034.91	70.4123	1,034.91	79.2901	1,034.91	80.1715	1,034.91	73.2026	1,034.91	83.6562	1,034.91	68.0957	1,034.91	84.8307	1,034.91	78.6493	1,034.91	84.4421	1,034.91	83.2091	1,034.91	83.0827	1,034.91	85.7675	1,034.91	83.0819	1,034.91	87.3929	1,034.91	85.3602	1,034.91	88.3195	1,034.91	87.4221	1,034.91	88.3979
1,071.53	87.1714	1,071.53	87.961	1,071.53	86.3482	1,071.53	88.2327	1,071.53	85.8385	1,071.53	87.5705	1,071.53	85.5943	1,071.53	85.5651	1,071.53	85.4108	1,071.53	81.7735	1,071.53	85.1687	1,071.53	77.7735	1,071.53	84.639	1,071.53	79.7088	1,071.53	83.2578	1,071.53	82.036	1,071.53	80.0086	1,071.53	82.4585	1,071.53	72.5719	1,071.53	81.0752	1,071.53	74.4033	1,071.53	77.3306	1,071.53	81.1899	1,071.53	69.21	1,071.53	84.1147	1,071.53	73.6064	1,071.53	84.6918	1,071.53	79.6043	1,071.53	83.1696	1,071.53	82.8592	1,071.53	80.539	1,071.53	84.9686	1,071.53	81.6584	1,071.53	86.1891	1,071.53	84.7134	1,071.53	86.2367
1,109.62	86.1844	1,109.62	87.0265	1,109.62	85.2534	1,109.62	87.5111	1,109.62	84.4626	1,109.62	87.3075	1,109.62	84.0073	1,109.62	86.0546	1,109.62	83.9206	1,109.62	83.3797	1,109.62	83.9811	1,109.62	79.2688	1,109.62	83.7829	1,109.62	77.1332	1,109.62	82.7694	1,109.62	79.0869	1,109.62	80.0888	1,109.62	80.3653	1,109.62	73.9745	1,109.62	79.9773	1,109.62	71.9686	1,109.62	77.4702	1,109.62	79.0443	1,109.62	70.6594	1,109.62	82.0557	1,109.62	62.0271	1,109.62	82.618	1,109.62	75.2275	1,109.62	80.9369	1,109.62	80.0017	1,109.62	76.7725	1,109.62	82.7596	1,109.62	76.4344	1,109.62	84.048	1,109.62	81.1779	1,109.62	83.661
1,148.44	85.4063	1,148.44	86.522	1,148.44	84.1489	1,148.44	87.1583	1,148.44	83.1525	1,148.44	87.1022	1,148.44	82.6344	1,148.44	86.111	1,148.44	82.6121	1,148.44	83.8258	1,148.44	82.9242	1,148.44	79.9345	1,148.44	83.1568	1,148.44	76.3798	1,148.44	82.7654	1,148.44	78.0196	1,148.44	81.1962	1,148.44	80.0515	1,148.44	77.5281	1,148.44	80.3867	1,148.44	69.8476	1,148.44	78.8631	1,148.44	75.4811	1,148.44	74.4685	1,148.44	81.0114	1,148.44	57.2567	1,148.44	82.8303	1,148.44	73.0328	1,148.44	81.7932	1,148.44	78.9746	1,148.44	77.5732	1,148.44	81.5681	1,148.44	73.947	1,148.44	82.4191	1,148.44	78.8348	1,148.44	81.6825
1,189.45	85.1858	1,189.45	85.7277	1,189.45	84.3259	1,189.45	85.9683	1,189.45	83.2003	1,189.45	85.9349	1,189.45	81.861	1,189.45	85.3674	1,189.45	80.6745	1,189.45	83.8081	1,189.45	80.394	1,189.45	80.9283	1,189.45	81.0458	1,189.45	77.0759	1,189.45	81.4871	1,189.45	75.4785	1,189.45	80.6537	1,189.45	77.5469	1,189.45	77.8495	1,189.45	79.2177	1,189.45	71.6611	1,189.45	79.0383	1,189.45	70.8207	1,189.45	76.2708	1,189.45	77.8669	1,189.45	68.4567	1,189.45	80.6309	1,189.45	63.506	1,189.45	80.7032	1,189.45	74.1155	1,189.45	78.3641	1,189.45	77.862	1,189.45	72.9652	1,189.45	78.9824	1,189.45	72.9723	1,189.45	77.5893
1,231.2	85.6637	1,231.2	85.8108	1,231.2	85.295	1,231.2	85.696	1,231.2	84.4861	1,231.2	85.1584	1,231.2	83.1687	1,231.2	84.215	1,231.2	81.7163	1,231.2	82.9779	1,231.2	80.6685	1,231.2	81.3492	1,231.2	80.3514	1,231.2	79.0922	1,231.2	80.4765	1,231.2	76.7671	1,231.2	80.111	1,231.2	76.6277	1,231.2	78.5994	1,231.2	78.0226	1,231.2	75.8301	1,231.2	78.494	1,231.2	71.5919	1,231.2	77.3325	1,231.2	69.4974	1,231.2	74.3133	1,231.2	75.4984	1,231.2	69.5122	1,231.2	78.4496	1,231.2	69.5112	1,231.2	77.8181	1,231.2	73.41	1,231.2	73.1258	1,231.2	74.4889	1,231.2	63.2487	1,231.2	71.6733
1,274.41	85.6085	1,274.41	85.899	1,274.41	85.0262	1,274.41	85.9023	1,274.41	84.0461	1,274.41	85.3725	1,274.41	82.9525	1,274.41	84.196	1,274.41	82.186	1,274.41	82.4673	1,274.41	81.6369	1,274.41	80.4442	1,274.41	81.0721	1,274.41	78.871	1,274.41	80.4279	1,274.41	77.9224	1,274.41	79.2455	1,274.41	76.5563	1,274.41	77.3165	1,274.41	75.4203	1,274.41	75.6677	1,274.41	75.6465	1,274.41	74.636	1,274.41	75.3567	1,274.41	73.7295	1,274.41	73.8019	1,274.41	74.8523	1,274.41	71.7167	1,274.41	75.6514	1,274.41	71.9205	1,274.41	74.7	1,274.41	74.8703	1,274.41	72.3484	1,274.41	76.8085	1,274.41	73.1043	1,274.41	76.2478
1,319.82	85.5501	1,319.82	85.752	1,319.82	84.8037	1,319.82	85.4206	1,319.82	83.7733	1,319.82	84.5881	1,319.82	82.9417	1,319.82	83.1538	1,319.82	82.4205	1,319.82	81.0938	1,319.82	81.8167	1,319.82	78.9778	1,319.82	80.8611	1,319.82	78.1179	1,319.82	79.7106	1,319.82	78.3081	1,319.82	78.517	1,319.82	77.5203	1,319.82	76.9621	1,319.82	75.207	1,319.82	75.2483	1,319.82	73.9469	1,319.82	75.4151	1,319.82	74.1727	1,319.82	75.5041	1,319.82	73.5314	1,319.82	73.4276	1,319.82	72.2183	1,319.82	72.3099	1,319.82	72.5934	1,319.82	73.0336	1,319.82	75.2098	1,319.82	72.5146	1,319.82	76.9474	1,319.82	73.7096	1,319.82	76.369
1,365.97	85.2193	1,365.97	85.4422	1,365.97	84.4082	1,365.97	85.1385	1,365.97	83.3805	1,365.97	84.4169	1,365.97	82.5806	1,365.97	83.0191	1,365.97	82.0263	1,365.97	80.6393	1,365.97	81.3504	1,365.97	77.2992	1,365.97	80.126	1,365.97	74.6666	1,365.97	78.4211	1,365.97	76.0795	1,365.97	76.7199	1,365.97	77.0838	1,365.97	74.9444	1,365.97	75.1863	1,365.97	73.7251	1,365.97	71.6967	1,365.97	74.6992	1,365.97	71.2463	1,365.97	74.9433	1,365.97	73.0473	1,365.97	73.3363	1,365.97	73.8496	1,365.97	71.8707	1,365.97	73.6322	1,365.97	71.4035	1,365.97	74.9269	1,365.97	72.1115	1,365.97	76.211	1,365.97	73.4786	1,365.97	75.4115
1,414.31	84.8503	1,414.31	85.0089	1,414.31	84.2111	1,414.31	84.6899	1,414.31	83.251	1,414.31	83.9933	1,414.31	82.1751	1,414.31	82.8603	1,414.31	81.0387	1,414.31	80.8694	1,414.31	79.7412	1,414.31	77.2468	1,414.31	78.3749	1,414.31	71.7336	1,414.31	77.4858	1,414.31	71.4085	1,414.31	77.0158	1,414.31	72.7619	1,414.31	75.67	1,414.31	70.9068	1,414.31	72.661	1,414.31	68.4597	1,414.31	71.6192	1,414.31	70.6596	1,414.31	72.677	1,414.31	73.7103	1,414.31	72.141	1,414.31	74.6122	1,414.31	70.0784	1,414.31	73.9284	1,414.31	69.4404	1,414.31	73.9893	1,414.31	72.0834	1,414.31	74.7525	1,414.31	73.7576	1,414.31	74.5988
1,464.11	84.9494	1,464.11	84.7331	1,464.11	84.4682	1,464.11	84.0769	1,464.11	83.276	1,464.11	83.2649	1,464.11	81.5177	1,464.11	82.2668	1,464.11	79.5239	1,464.11	80.6994	1,464.11	77.9517	1,464.11	77.8728	1,464.11	77.1967	1,464.11	72.8815	1,464.11	76.9599	1,464.11	68.2508	1,464.11	76.3814	1,464.11	67.9994	1,464.11	74.7709	1,464.11	64.2059	1,464.11	71.6824	1,464.11	61.158	1,464.11	70.2221	1,464.11	67.7362	1,464.11	72.4723	1,464.11	73.0633	1,464.11	71.2919	1,464.11	74.965	1,464.11	64.4407	1,464.11	73.9363	1,464.11	67.5988	1,464.11	73.1902	1,464.11	72.5047	1,464.11	74.5149	1,464.11	74.5434	1,464.11	75.2625
1,515.38	85.0324	1,515.38	84.6483	1,515.38	84.5566	1,515.38	83.5986	1,515.38	83.2477	1,515.38	82.4599	1,515.38	80.9918	1,515.38	81.4784	1,515.38	77.9166	1,515.38	80.0297	1,515.38	75.6522	1,515.38	77.2242	1,515.38	76.1394	1,515.38	72.1068	1,515.38	77.4467	1,515.38	65.0778	1,515.38	77.1801	1,515.38	62.4	1,515.38	75.0848	1,515.38	64.4997	1,515.38	71.8222	1,515.38	64.8016	1,515.38	70.9384	1,515.38	49.7633	1,515.38	73.2609	1,515.38	71.4301	1,515.38	71.9498	1,515.38	75.2549	1,515.38	61.8773	1,515.38	74.7757	1,515.38	65.7287	1,515.38	73.7224	1,515.38	73.2103	1,515.38	74.9898	1,515.38	75.8172	1,515.38	76.2478
1,568.85	85.1277	1,568.85	84.6294	1,568.85	84.7277	1,568.85	83.4334	1,568.85	83.2523	1,568.85	81.959	1,568.85	80.6082	1,568.85	80.5306	1,568.85	77.1494	1,568.85	78.549	1,568.85	74.3097	1,568.85	75.2047	1,568.85	74.0605	1,568.85	70.0864	1,568.85	75.5525	1,568.85	65.6384	1,568.85	76.0283	1,568.85	67.691	1,568.85	74.3599	1,568.85	69.0609	1,568.85	69.7472	1,568.85	67.4992	1,568.85	66.9485	1,568.85	54.4741	1,568.85	72.1433	1,568.85	67.7212	1,568.85	73.1458	1,568.85	73.8014	1,568.85	69.6163	1,568.85	75.0123	1,568.85	52.167	1,568.85	74.8575	1,568.85	71.3747	1,568.85	75.832	1,568.85	76.2708	1,568.85	77.0226
1,624.51	84.8054	1,624.51	84.5334	1,624.51	84.3128	1,624.51	83.4253	1,624.51	82.8063	1,624.51	81.3757	1,624.51	79.9674	1,624.51	78.9824	1,624.51	75.9815	1,624.51	76.6346	1,624.51	73.0998	1,624.51	72.5937	1,624.51	72.937	1,624.51	64.5721	1,624.51	74.2742	1,624.51	60.2588	1,624.51	75.5439	1,624.51	61.19	1,624.51	75.1394	1,624.51	60.0768	1,624.51	71.7928	1,624.51	62.5872	1,624.51	65.2655	1,624.51	59.0675	1,624.51	70.7942	1,624.51	64.212	1,624.51	73.1838	1,624.51	71.6904	1,624.51	70.0165	1,624.51	72.9028	1,624.51	53.7163	1,624.51	72.9366	1,624.51	67.6789	1,624.51	74.7266	1,624.51	74.6194	1,624.51	76.2618
1,681.64	85.2353	1,681.64	85.2503	1,681.64	84.3322	1,681.64	84.143	1,681.64	82.3154	1,681.64	81.739	1,681.64	78.4265	1,681.64	78.6169	1,681.64	72.0685	1,681.64	75.6201	1,681.64	70.8809	1,681.64	71.7551	1,681.64	72.4441	1,681.64	63.6952	1,681.64	72.9906	1,681.64	52.6237	1,681.64	74.3902	1,681.64	54.3217	1,681.64	75.232	1,681.64	56.9423	1,681.64	73.0999	1,681.64	60.8264	1,681.64	64.4087	1,681.64	55.6325	1,681.64	67.4661	1,681.64	64.1792	1,681.64	72.3082	1,681.64	70.806	1,681.64	70.688	1,681.64	72.4888	1,681.64	58.5233	1,681.64	73.6341	1,681.64	66.6769	1,681.64	75.2516	1,681.64	73.4738	1,681.64	75.9015
1,740.97	85.6848	1,740.97	85.9511	1,740.97	84.2565	1,740.97	84.9462	1,740.97	81.2053	1,740.97	82.2011	1,740.97	75.1049	1,740.97	78.2614	1,740.97	66.3547	1,740.97	75.1477	1,740.97	71.4126	1,740.97	72.2956	1,740.97	72.1851	1,740.97	67.1839	1,740.97	72.7175	1,740.97	61.8375	1,740.97	75.2063	1,740.97	62.3864	1,740.97	76.294	1,740.97	59.7747	1,740.97	75.2887	1,740.97	44.7529	1,740.97	71.294	1,740.97	58.6183	1,740.97	63.4616	1,740.97	62.7618	1,740.97	71.4259	1,740.97	66.7559	1,740.97	72.0593	1,740.97	70.1223	1,740.97	65.6021	1,740.97	72.1792	1,740.97	65.0218	1,740.97	74.4118	1,740.97	73.7038	1,740.97	75.7514
1,802.49	86.2865	1,802.49	86.4739	1,802.49	84.185	1,802.49	85.1671	1,802.49	79.6791	1,802.49	82.3678	1,802.49	71.2901	1,802.49	77.8426	1,802.49	63.7705	1,802.49	73.5042	1,802.49	72.9582	1,802.49	71.4496	1,802.49	74.4472	1,802.49	68.2086	1,802.49	72.8103	1,802.49	67.003	1,802.49	73.9531	1,802.49	66.9548	1,802.49	75.785	1,802.49	58.8797	1,802.49	75.5903	1,802.49	60.7764	1,802.49	73.1443	1,802.49	63.1035	1,802.49	69.3218	1,802.49	59.8194	1,802.49	73.2342	1,802.49	61.7756	1,802.49	73.3012	1,802.49	68.6329	1,802.49	65.9291	1,802.49	72.2768	1,802.49	59.7998	1,802.49	74.3343	1,802.49	72.7016	1,802.49	75.7157
1,866.21	85.709	1,866.21	86.4733	1,866.21	83.2991	1,866.21	85.6521	1,866.21	78.4019	1,866.21	82.906	1,866.21	67.387	1,866.21	77.716	1,866.21	69.2493	1,866.21	69.6825	1,866.21	76.1993	1,866.21	65.3423	1,866.21	77.5276	1,866.21	60.2177	1,866.21	75.7964	1,866.21	65.0506	1,866.21	74.7511	1,866.21	66.0348	1,866.21	76.9553	1,866.21	61.4022	1,866.21	77.437	1,866.21	70.2155	1,866.21	74.7952	1,866.21	71.1699	1,866.21	70.6563	1,866.21	65.8876	1,866.21	73.2699	1,866.21	53.8073	1,866.21	73.6489	1,866.21	64.1165	1,866.21	68.0073	1,866.21	72.2011	1,866.21	60.4565	1,866.21	74.8131	1,866.21	71.6044	1,866.21	74.8277
1,932.13	85.0527	1,932.13	86.2309	1,932.13	82.1391	1,932.13	85.6369	1,932.13	76.8027	1,932.13	82.9314	1,932.13	65.8307	1,932.13	77.7924	1,932.13	73.9036	1,932.13	70.5366	1,932.13	78.4852	1,932.13	62.2855	1,932.13	79.4377	1,932.13	58.4047	1,932.13	77.8029	1,932.13	64.5563	1,932.13	74.6138	1,932.13	68.1364	1,932.13	75.0914	1,932.13	58.7288	1,932.13	76.3702	1,932.13	69.2257	1,932.13	74.6247	1,932.13	71.7978	1,932.13	70.2315	1,932.13	66.3398	1,932.13	73.365	1,932.13	56.8341	1,932.13	73.7332	1,932.13	67.4228	1,932.13	68.5371	1,932.13	71.6358	1,932.13	54.6665	1,932.13	73.2992	1,932.13	69.12	1,932.13	73.0059
2,000.24	86.469	2,000.24	86.9789	2,000.24	83.2447	2,000.24	85.5377	2,000.24	76.3349	2,000.24	82.7547	2,000.24	71.8933	2,000.24	79.1631	2,000.24	76.512	2,000.24	74.96	2,000.24	78.9488	2,000.24	71.6725	2,000.24	79.994	2,000.24	71.2853	2,000.24	79.395	2,000.24	71.6293	2,000.24	76.5546	2,000.24	72.3134	2,000.24	73.2409	2,000.24	67.8101	2,000.24	75.7546	2,000.24	64.5794	2,000.24	76.2523	2,000.24	70.6344	2,000.24	72.1937	2,000.24	69.7083	2,000.24	73.818	2,000.24	59.3416	2,000.24	73.5516	2,000.24	63.831	2,000.24	69.4329	2,000.24	71.8624	2,000.24	47.7229	2,000.24	74.8937	2,000.24	69.438	2,000.24	74.1006
2,070.56	88.0511	2,070.56	88.2894	2,070.56	84.0851	2,070.56	85.8889	2,070.56	75.9392	2,070.56	83.165	2,070.56	74.6904	2,070.56	80.959	2,070.56	79.6937	2,070.56	77.5221	2,070.56	81.0091	2,070.56	74.913	2,070.56	81.0636	2,070.56	74.2521	2,070.56	81.3766	2,070.56	71.9909	2,070.56	79.8521	2,070.56	72.8332	2,070.56	76.3462	2,070.56	74.9472	2,070.56	76.1486	2,070.56	71.1358	2,070.56	77.1407	2,070.56	66.1005	2,070.56	71.9554	2,070.56	70.034	2,070.56	74.7525	2,070.56	53.3835	2,070.56	74.0003	2,070.56	67.6451	2,070.56	70.3514	2,070.56	70.3769	2,070.56	54.9526	2,070.56	76.2807	2,070.56	71.4542	2,070.56	76.7641
2,143.8	87.6898	2,143.8	88.2536	2,143.8	84.4341	2,143.8	87.0601	2,143.8	76.7613	2,143.8	84.5379	2,143.8	78.6048	2,143.8	81.2944	2,143.8	81.1671	2,143.8	77.8438	2,143.8	82.5788	2,143.8	75.3995	2,143.8	82.8604	2,143.8	74.434	2,143.8	82.2563	2,143.8	73.0668	2,143.8	80.3875	2,143.8	71.0676	2,143.8	77.0537	2,143.8	74.3626	2,143.8	76.3231	2,143.8	75.4503	2,143.8	77.4071	2,143.8	66.3472	2,143.8	71.2075	2,143.8	69.3892	2,143.8	75.3348	2,143.8	66.1322	2,143.8	73.6237	2,143.8	69.8156	2,143.8	68.8547	2,143.8	72.0413	2,143.8	60.1065	2,143.8	74.5324	2,143.8	71.5103	2,143.8	76.3589
2,219.24	87.0357	2,219.24	87.9105	2,219.24	83.5018	2,219.24	87.2889	2,219.24	76.1143	2,219.24	84.8468	2,219.24	80.8725	2,219.24	81.426	2,219.24	83.0563	2,219.24	78.7928	2,219.24	82.9311	2,219.24	75.7317	2,219.24	82.5207	2,219.24	69.7408	2,219.24	81.9316	2,219.24	65.4685	2,219.24	80.575	2,219.24	68.7077	2,219.24	78.2429	2,219.24	68.5085	2,219.24	77.406	2,219.24	76.7458	2,219.24	78.5516	2,219.24	74.8716	2,219.24	73.9304	2,219.24	67.3833	2,219.24	73.0636	2,219.24	69.8178	2,219.24	74.8943	2,219.24	65.8876	2,219.24	70.8937	2,219.24	73.6876	2,219.24	62.9125	2,219.24	73.4762	2,219.24	71.3817	2,219.24	75.634
2,297.61	88.2061	2,297.61	88.4261	2,297.61	84.1598	2,297.61	86.5203	2,297.61	75.0221	2,297.61	84.5199	2,297.61	81.476	2,297.61	82.3617	2,297.61	84.1683	2,297.61	80.0982	2,297.61	84.1798	2,297.61	76.9372	2,297.61	83.5156	2,297.61	74.7824	2,297.61	82.1774	2,297.61	75.1578	2,297.61	80.3978	2,297.61	74.6449	2,297.61	78.1986	2,297.61	71.7414	2,297.61	74.9603	2,297.61	70.8534	2,297.61	75.6934	2,297.61	74.9629	2,297.61	74.226	2,297.61	68.1741	2,297.61	74.8329	2,297.61	71.2704	2,297.61	74.4584	2,297.61	56.167	2,297.61	70.0648	2,297.61	72.7506	2,297.61	60.9574	2,297.61	69.413	2,297.61	72.7088	2,297.61	73.7947
2,378.17	88.7857	2,378.17	89.0767	2,378.17	85.5164	2,378.17	87.5255	2,378.17	77.027	2,378.17	85.6079	2,378.17	81.4368	2,378.17	83.9142	2,378.17	84.8578	2,378.17	81.4397	2,378.17	85.4057	2,378.17	77.1413	2,378.17	83.7628	2,378.17	73.8149	2,378.17	79.8139	2,378.17	75.637	2,378.17	79.7904	2,378.17	76.1693	2,378.17	80.0439	2,378.17	75.2488	2,378.17	76.136	2,378.17	62.7692	2,378.17	74.8873	2,378.17	71.6857	2,378.17	71.0689	2,378.17	71.1271	2,378.17	76.9759	2,378.17	69.9949	2,378.17	75.5146	2,378.17	61.3809	2,378.17	66.5689	2,378.17	72.6694	2,378.17	60.9965	2,378.17	70.7389	2,378.17	71.8674	2,378.17	72.7631
2,462.4	88.5989	2,462.4	88.8566	2,462.4	86.3822	2,462.4	88.1407	2,462.4	81.05	2,462.4	86.8754	2,462.4	82.0356	2,462.4	82.781	2,462.4	85.084	2,462.4	79.0826	2,462.4	85.3682	2,462.4	79.9112	2,462.4	84.0896	2,462.4	75.6454	2,462.4	81.5585	2,462.4	73.0072	2,462.4	79.1959	2,462.4	76.1416	2,462.4	78.7777	2,462.4	73.2235	2,462.4	78.4396	2,462.4	69.1007	2,462.4	78.5877	2,462.4	69.1406	2,462.4	74.8967	2,462.4	70.5484	2,462.4	77.1925	2,462.4	66.815	2,462.4	75.6803	2,462.4	68.4421	2,462.4	68.5183	2,462.4	74.0488	2,462.4	60.2335	2,462.4	74.7902	2,462.4	68.5894	2,462.4	73.6237
2,548.83	88.2878	2,548.83	88.347	2,548.83	86.1627	2,548.83	88.5843	2,548.83	82.3839	2,548.83	86.8836	2,548.83	83.696	2,548.83	83.135	2,548.83	85.1923	2,548.83	81.4747	2,548.83	84.9335	2,548.83	79.1235	2,548.83	83.7445	2,548.83	77.5395	2,548.83	82.0151	2,548.83	74.9425	2,548.83	80.6325	2,548.83	70.8529	2,548.83	78.4913	2,548.83	74.4673	2,548.83	73.3419	2,548.83	74.1515	2,548.83	76.6937	2,548.83	67.0558	2,548.83	76.2665	2,548.83	71.5216	2,548.83	76.0437	2,548.83	69.1444	2,548.83	75.7672	2,548.83	69.6721	2,548.83	72.1494	2,548.83	74.2606	2,548.83	66.3653	2,548.83	73.6661	2,548.83	68.9197	2,548.83	74.5565
2,638.92	88.0697	2,638.92	88.9442	2,638.92	86.8681	2,638.92	88.4948	2,638.92	83.8163	2,638.92	86.0805	2,638.92	84.3881	2,638.92	84.4505	2,638.92	86.002	2,638.92	81.8575	2,638.92	85.249	2,638.92	78.2937	2,638.92	82.8542	2,638.92	76.9742	2,638.92	81.1433	2,638.92	76.1424	2,638.92	81.1161	2,638.92	76.9952	2,638.92	79.7011	2,638.92	74.576	2,638.92	74.9493	2,638.92	75.1172	2,638.92	71.5476	2,638.92	73.0718	2,638.92	74.1313	2,638.92	69.7435	2,638.92	75.5738	2,638.92	68.9171	2,638.92	74.0638	2,638.92	70.0977	2,638.92	66.3142	2,638.92	74.0029	2,638.92	59.0746	2,638.92	73.7782	2,638.92	72.6583	2,638.92	74.2647
2,731.93	87.1886	2,731.93	88.9312	2,731.93	86.1356	2,731.93	88.3714	2,731.93	84.8356	2,731.93	86.7985	2,731.93	84.7867	2,731.93	84.3823	2,731.93	85.9422	2,731.93	81.4931	2,731.93	85.6198	2,731.93	80.526	2,731.93	83.4079	2,731.93	78.7754	2,731.93	79.8276	2,731.93	77.555	2,731.93	78.4101	2,731.93	76.3075	2,731.93	77.3476	2,731.93	74.6752	2,731.93	68.6366	2,731.93	71.292	2,731.93	71.0987	2,731.93	71.2847	2,731.93	71.1018	2,731.93	70.8775	2,731.93	74.4422	2,731.93	68.9995	2,731.93	74.9336	2,731.93	69.9867	2,731.93	65.5802	2,731.93	74.0102	2,731.93	63.3935	2,731.93	74.6745	2,731.93	72.7262	2,731.93	73.0043
2,828.61	87.4134	2,828.61	88.6796	2,828.61	85.9553	2,828.61	88.5137	2,828.61	85.8951	2,828.61	87.2052	2,828.61	85.2992	2,828.61	83.7829	2,828.61	85.7477	2,828.61	81.4174	2,828.61	85.5675	2,828.61	79.1174	2,828.61	83.6644	2,828.61	78.9295	2,828.61	80.6104	2,828.61	77.4914	2,828.61	77.5952	2,828.61	73.7183	2,828.61	74.7156	2,828.61	73.7711	2,828.61	66.4817	2,828.61	70.8114	2,828.61	57.5603	2,828.61	71.5637	2,828.61	72.3152	2,828.61	70.5322	2,828.61	71.3478	2,828.61	69.8344	2,828.61	72.1575	2,828.61	69.7133	2,828.61	66.6716	2,828.61	72.6692	2,828.61	62.666	2,828.61	74.7225	2,828.61	72.6019	2,828.61	72.4762
2,928.22	86.7252	2,928.22	87.7663	2,928.22	85.4878	2,928.22	88.5309	2,928.22	86.1244	2,928.22	87.0221	2,928.22	86.0934	2,928.22	84.5314	2,928.22	85.4896	2,928.22	81.1666	2,928.22	84.5396	2,928.22	80.6402	2,928.22	83.2384	2,928.22	78.6637	2,928.22	80.0322	2,928.22	74.2857	2,928.22	74.2932	2,928.22	75.2679	2,928.22	66.5291	2,928.22	74.8395	2,928.22	72.0377	2,928.22	74.3156	2,928.22	72.1179	2,928.22	71.0422	2,928.22	72.0065	2,928.22	70.4635	2,928.22	69.2189	2,928.22	69.4273	2,928.22	69.154	2,928.22	70.5302	2,928.22	66.4261	2,928.22	72.5382	2,928.22	66.4932	2,928.22	74.4458	2,928.22	72.1076	2,928.22	72.7196
3,031.49	85.6472	3,031.49	87.3765	3,031.49	85.0978	3,031.49	87.9014	3,031.49	86.0709	3,031.49	87.1809	3,031.49	86.7198	3,031.49	84.7855	3,031.49	86.2391	3,031.49	82.2743	3,031.49	84.8225	3,031.49	79.6065	3,031.49	81.9852	3,031.49	76.0131	3,031.49	79.0712	3,031.49	77.7702	3,031.49	74.167	3,031.49	76.0894	3,031.49	70.7787	3,031.49	72.6085	3,031.49	72.5487	3,031.49	70.9478	3,031.49	73.0779	3,031.49	70.0335	3,031.49	73.8962	3,031.49	68.6469	3,031.49	67.3764	3,031.49	67.4967	3,031.49	70.0825	3,031.49	71.172	3,031.49	66.891	3,031.49	71.2717	3,031.49	65.9844	3,031.49	72.5152	3,031.49	72.112	3,031.49	71.3569
3,138.43	85.4021	3,138.43	87.0951	3,138.43	85.2678	3,138.43	88.0748	3,138.43	86.3958	3,138.43	86.6112	3,138.43	86.9217	3,138.43	84.2858	3,138.43	86.3319	3,138.43	82.03	3,138.43	85.1857	3,138.43	78.1882	3,138.43	82.1736	3,138.43	78.5964	3,138.43	77.8131	3,138.43	75.9272	3,138.43	72.6083	3,138.43	70.7518	3,138.43	74.4948	3,138.43	72.8015	3,138.43	74.3835	3,138.43	70.0709	3,138.43	71.5285	3,138.43	70.1109	3,138.43	69.2649	3,138.43	69.8588	3,138.43	68.7318	3,138.43	68.0654	3,138.43	71.1128	3,138.43	68.717	3,138.43	66.7404	3,138.43	71.6355	3,138.43	68.8664	3,138.43	72.3114	3,138.43	73.2022	3,138.43	71.7615
3,249.02	84.5491	3,249.02	87.2531	3,249.02	85.4414	3,249.02	88.3679	3,249.02	86.5259	3,249.02	86.3383	3,249.02	87.1323	3,249.02	83.9002	3,249.02	86.062	3,249.02	80.6512	3,249.02	84.8841	3,249.02	79.1442	3,249.02	82.6562	3,249.02	75.7572	3,249.02	79.6461	3,249.02	72.8559	3,249.02	76.3837	3,249.02	74.7425	3,249.02	75.166	3,249.02	72.3644	3,249.02	76.4682	3,249.02	71.9528	3,249.02	71.8434	3,249.02	68.5637	3,249.02	71.2883	3,249.02	68.442	3,249.02	69.5059	3,249.02	66.5473	3,249.02	70.3755	3,249.02	68.4091	3,249.02	67.9201	3,249.02	71.012	3,249.02	69.766	3,249.02	71.9364	3,249.02	72.4995	3,249.02	70.8985
3,363.28	82.962	3,363.28	87.3044	3,363.28	84.66	3,363.28	87.9407	3,363.28	86.6353	3,363.28	86.0666	3,363.28	86.8303	3,363.28	83.4044	3,363.28	85.8537	3,363.28	80.0141	3,363.28	84.1389	3,363.28	76.6095	3,363.28	82.3207	3,363.28	75.252	3,363.28	80.5859	3,363.28	77.6434	3,363.28	79.6604	3,363.28	74.5605	3,363.28	75.1741	3,363.28	72.0465	3,363.28	78.5055	3,363.28	71.698	3,363.28	74.0907	3,363.28	68.0576	3,363.28	74.0144	3,363.28	68.4701	3,363.28	70.5647	3,363.28	66.3513	3,363.28	67.5828	3,363.28	68.2073	3,363.28	66.5938	3,363.28	69.8121	3,363.28	69.5764	3,363.28	71.3096	3,363.28	72.621	3,363.28	70.3838
3,481.93	83.2617	3,481.93	87.5587	3,481.93	83.6142	3,481.93	87.6003	3,481.93	86.7094	3,481.93	86.0556	3,481.93	86.6827	3,481.93	82.6699	3,481.93	85.4827	3,481.93	80.3261	3,481.93	84.4198	3,481.93	78.1641	3,481.93	82.4919	3,481.93	79.1322	3,481.93	80.56	3,481.93	76.0698	3,481.93	80.1888	3,481.93	73.4894	3,481.93	76.2701	3,481.93	73.9216	3,481.93	77.9544	3,481.93	72.9099	3,481.93	75.228	3,481.93	69.9187	3,481.93	73.9512	3,481.93	69.4825	3,481.93	69.6991	3,481.93	67.3867	3,481.93	65.6101	3,481.93	67.4009	3,481.93	65.8905	3,481.93	70.6381	3,481.93	65.9823	3,481.93	70.7836	3,481.93	70.7124	3,481.93	70.3821
3,604.98	84.0051	3,604.98	87.6326	3,604.98	82.7854	3,604.98	87.4822	3,604.98	87.1563	3,604.98	85.7642	3,604.98	87.5013	3,604.98	82.2758	3,604.98	85.8794	3,604.98	79.3628	3,604.98	85.1259	3,604.98	80.3403	3,604.98	83.6636	3,604.98	78.2494	3,604.98	82.1477	3,604.98	76.8671	3,604.98	77.4128	3,604.98	76.2593	3,604.98	72.6588	3,604.98	73.5284	3,604.98	75.9037	3,604.98	72.1651	3,604.98	74.4604	3,604.98	69.8945	3,604.98	72.5748	3,604.98	68.936	3,604.98	66.71	3,604.98	67.7244	3,604.98	64.893	3,604.98	66.7086	3,604.98	67.3193	3,604.98	70.8993	3,604.98	63.7317	3,604.98	70.0869	3,604.98	70.0703	3,604.98	71.3301
3,732.42	84.474	3,732.42	86.9839	3,732.42	82.32	3,732.42	87.6592	3,732.42	87.3587	3,732.42	85.8033	3,732.42	88.0313	3,732.42	82.0967	3,732.42	85.3712	3,732.42	81.5485	3,732.42	84.7361	3,732.42	81.2827	3,732.42	83.5355	3,732.42	78.0439	3,732.42	82.3371	3,732.42	77.2922	3,732.42	77.5584	3,732.42	74.5424	3,732.42	61.2618	3,732.42	71.5093	3,732.42	72.8894	3,732.42	72.969	3,732.42	70.9971	3,732.42	67.9637	3,732.42	66.2925	3,732.42	68.3277	3,732.42	67.1661	3,732.42	67.5119	3,732.42	62.6676	3,732.42	67.7823	3,732.42	67.145	3,732.42	69.967	3,732.42	63.6728	3,732.42	69.4054	3,732.42	67.7795	3,732.42	67.9866
3,863.53	84.9641	3,863.53	87.4732	3,863.53	83.0079	3,863.53	87.5102	3,863.53	86.7702	3,863.53	85.733	3,863.53	87.6075	3,863.53	82.3296	3,863.53	85.085	3,863.53	82.9104	3,863.53	84.6581	3,863.53	80.5618	3,863.53	83.1482	3,863.53	78.8038	3,863.53	80.8885	3,863.53	75.0749	3,863.53	78.0992	3,863.53	70.4424	3,863.53	66.4045	3,863.53	70.5343	3,863.53	62.5402	3,863.53	70.2663	3,863.53	69.6812	3,863.53	68.3613	3,863.53	72.1542	3,863.53	68.2042	3,863.53	65.2454	3,863.53	66.7154	3,863.53	64.8655	3,863.53	66.2041	3,863.53	67.3243	3,863.53	69.9028	3,863.53	62.2497	3,863.53	70.3364	3,863.53	67.1983	3,863.53	68.55
3,999.76	86.3767	3,999.76	88.2987	3,999.76	83.5894	3,999.76	88.3551	3,999.76	87.2187	3,999.76	84.771	3,999.76	86.9134	3,999.76	83.5718	3,999.76	83.7373	3,999.76	82.3439	3,999.76	84.376	3,999.76	80.7272	3,999.76	83.7221	3,999.76	76.3109	3,999.76	79.0138	3,999.76	73.3323	3,999.76	71.8089	3,999.76	75.445	3,999.76	66.0644	3,999.76	70.3868	3,999.76	76.0685	3,999.76	70.7148	3,999.76	73.3146	3,999.76	67.4121	3,999.76	66.654	3,999.76	67.925	3,999.76	65.2798	3,999.76	66.0709	3,999.76	66.1326	3,999.76	67.0646	3,999.76	67.9342	3,999.76	68.5095	3,999.76	64.029	3,999.76	69.3201	3,999.76	66.1716	3,999.76	71.1003
4,141.11	86.1889	4,141.11	88.5931	4,141.11	84.5473	4,141.11	88.3294	4,141.11	87.4386	4,141.11	85.0745	4,141.11	86.8388	4,141.11	83.9803	4,141.11	82.5919	4,141.11	83.0281	4,141.11	84.2494	4,141.11	79.3689	4,141.11	83.1443	4,141.11	76.9789	4,141.11	78.4122	4,141.11	77.2209	4,141.11	70.025	4,141.11	71.1693	4,141.11	67.2066	4,141.11	70.6834	4,141.11	79.5661	4,141.11	70.0495	4,141.11	76.5467	4,141.11	68.5307	4,141.11	68.6746	4,141.11	67.3903	4,141.11	67.2661	4,141.11	67.9207	4,141.11	65.183	4,141.11	67.7348	4,141.11	68.5884	4,141.11	68.2903	4,141.11	64.353	4,141.11	69.709	4,141.11	63.0144	4,141.11	70.1103
4,286.87	87.7376	4,286.87	89.394	4,286.87	85.4133	4,286.87	87.8522	4,286.87	88.2477	4,286.87	84.8167	4,286.87	87.7173	4,286.87	84.6513	4,286.87	80.7713	4,286.87	82.7084	4,286.87	83.3372	4,286.87	79.9753	4,286.87	83.2321	4,286.87	78.6492	4,286.87	78.6964	4,286.87	73.0427	4,286.87	76.4398	4,286.87	75.2343	4,286.87	68.8175	4,286.87	71.9931	4,286.87	79.0644	4,286.87	68.7522	4,286.87	73.6229	4,286.87	67.3376	4,286.87	71.3363	4,286.87	66.1848	4,286.87	70.3991	4,286.87	65.9105	4,286.87	62.5841	4,286.87	69.1166	4,286.87	66.5592	4,286.87	66.1595	4,286.87	63.946	4,286.87	71.0778	4,286.87	61.8385	4,286.87	64.5459
4,438.48	87.9045	4,438.48	90.1177	4,438.48	86.6282	4,438.48	88.4032	4,438.48	87.7344	4,438.48	85.5072	4,438.48	88.2178	4,438.48	84.3719	4,438.48	78.8738	4,438.48	82.2516	4,438.48	81.2169	4,438.48	80.4772	4,438.48	81.4267	4,438.48	76.1633	4,438.48	75.9789	4,438.48	77.1977	4,438.48	79.367	4,438.48	72.2935	4,438.48	66.4095	4,438.48	69.4573	4,438.48	76.4593	4,438.48	70.3859	4,438.48	71.8838	4,438.48	65.8669	4,438.48	72.6132	4,438.48	67.7527	4,438.48	71.8216	4,438.48	61.3078	4,438.48	59.926	4,438.48	69.0868	4,438.48	66.3147	4,438.48	64.5823	4,438.48	65.4573	4,438.48	72.5802	4,438.48	64.397	4,438.48	71.2804
4,594.48	89.4439	4,594.48	90.5302	4,594.48	87.8019	4,594.48	87.3391	4,594.48	87.0136	4,594.48	86.1623	4,594.48	87.7141	4,594.48	84.1883	4,594.48	80.1423	4,594.48	82.2407	4,594.48	79.3428	4,594.48	79.1937	4,594.48	79.6352	4,594.48	78.253	4,594.48	78.3052	4,594.48	70.541	4,594.48	81.0291	4,594.48	70.0254	4,594.48	69.6086	4,594.48	69.6371	4,594.48	74.1071	4,594.48	61.9517	4,594.48	76.7363	4,594.48	67.762	4,594.48	72.5423	4,594.48	56.2183	4,594.48	70.875	4,594.48	67.1072	4,594.48	61.4576	4,594.48	65.1262	4,594.48	61.2114	4,594.48	64.5638	4,594.48	63.8461	4,594.48	66.9424	4,594.48	61.1338	4,594.48	71.9052
4,757.08	90.0724	4,757.08	90.532	4,757.08	89.0525	4,757.08	87.6001	4,757.08	88.3746	4,757.08	86.4698	4,757.08	86.7085	4,757.08	83.5919	4,757.08	81.6915	4,757.08	81.4116	4,757.08	77.8197	4,757.08	78.8677	4,757.08	79.7561	4,757.08	71.884	4,757.08	79.8492	4,757.08	73.8297	4,757.08	80.6652	4,757.08	69.4374	4,757.08	71.1864	4,757.08	66.4304	4,757.08	66.0867	4,757.08	68.1577	4,757.08	72.4608	4,757.08	62.7719	4,757.08	64.7067	4,757.08	60.8274	4,757.08	68.3985	4,757.08	62.6981	4,757.08	65.1919	4,757.08	63.8021	4,757.08	60.8032	4,757.08	65.447	4,757.08	65.9214	4,757.08	67.4623	4,757.08	55.8169	4,757.08	66.7691
4,924.8	90.0992	4,924.8	90.0167	4,924.8	89.2051	4,924.8	88.2556	4,924.8	89.336	4,924.8	85.887	4,924.8	86.7459	4,924.8	83.3288	4,924.8	79.6261	4,924.8	80.786	4,924.8	77.6991	4,924.8	76.977	4,924.8	80.6859	4,924.8	75.9066	4,924.8	82.1956	4,924.8	72.1824	4,924.8	78.6934	4,924.8	69.6089	4,924.8	71.4188	4,924.8	70.6848	4,924.8	74.9727	4,924.8	65.6785	4,924.8	70.5217	4,924.8	67.1966	4,924.8	62.7288	4,924.8	63.3809	4,924.8	64.1136	4,924.8	60.944	4,924.8	62.2226	4,924.8	67.1159	4,924.8	64.2381	4,924.8	61.1413	4,924.8	68.5786	4,924.8	70.9272	4,924.8	61.1646	4,924.8	69.0677
5,098.39	90.1964	5,098.39	89.6777	5,098.39	89.0483	5,098.39	87.6828	5,098.39	88.6415	5,098.39	85.2504	5,098.39	87.1051	5,098.39	82.7794	5,098.39	80.3628	5,098.39	79.9177	5,098.39	74.8488	5,098.39	76.9154	5,098.39	80.6941	5,098.39	73.8593	5,098.39	81.7895	5,098.39	74.3989	5,098.39	78.7109	5,098.39	71.8495	5,098.39	69.291	5,098.39	68.5867	5,098.39	71.5096	5,098.39	66.8083	5,098.39	70.1536	5,098.39	66.6443	5,098.39	65.295	5,098.39	63.3942	5,098.39	59.1699	5,098.39	62.5116	5,098.39	60.5023	5,098.39	62.8209	5,098.39	65.599	5,098.39	63.7174	5,098.39	65.7357	5,098.39	68.2762	5,098.39	57.9411	5,098.39	69.7729
5,277.83	89.5206	5,277.83	88.9623	5,277.83	89.5876	5,277.83	87.8613	5,277.83	88.4938	5,277.83	84.1758	5,277.83	86.6267	5,277.83	82.4765	5,277.83	81.3432	5,277.83	79.6271	5,277.83	75.5554	5,277.83	75.5145	5,277.83	81.1902	5,277.83	77.1317	5,277.83	80.5656	5,277.83	73.5254	5,277.83	76.6734	5,277.83	70.9642	5,277.83	72.6862	5,277.83	69.1703	5,277.83	64.8523	5,277.83	67.8706	5,277.83	70.0674	5,277.83	65.64	5,277.83	58.2773	5,277.83	62.9757	5,277.83	50.2132	5,277.83	62.704	5,277.83	55.8307	5,277.83	62.6092	5,277.83	63.8539	5,277.83	66.4207	5,277.83	64.6572	5,277.83	67.6013	5,277.83	57.9486	5,277.83	67.2328
5,463.87	89.1732	5,463.87	88.7994	5,463.87	89.7268	5,463.87	86.1625	5,463.87	88.5088	5,463.87	83.7933	5,463.87	85.9257	5,463.87	82.4338	5,463.87	82.4798	5,463.87	78.9939	5,463.87	75.7338	5,463.87	76.2357	5,463.87	81.4517	5,463.87	74.37	5,463.87	78.4054	5,463.87	74.3453	5,463.87	78.3751	5,463.87	72.9367	5,463.87	72.6464	5,463.87	68.3121	5,463.87	62.456	5,463.87	67.5462	5,463.87	70.8264	5,463.87	64.8666	5,463.87	54.2155	5,463.87	61.1441	5,463.87	57.9074	5,463.87	60.4585	5,463.87	59.2637	5,463.87	62.1048	5,463.87	63.2643	5,463.87	64.2757	5,463.87	60.0756	5,463.87	66.2974	5,463.87	56.3784	5,463.87	65.7969
5,656.49	88.8394	5,656.49	88.2491	5,656.49	89.0633	5,656.49	86.1526	5,656.49	87.7907	5,656.49	83.8071	5,656.49	85.1184	5,656.49	82.6153	5,656.49	82.8101	5,656.49	79.3935	5,656.49	78.0712	5,656.49	76.4113	5,656.49	79.3762	5,656.49	75.7932	5,656.49	78.2927	5,656.49	72.2451	5,656.49	77.7901	5,656.49	68.8401	5,656.49	70.7886	5,656.49	69.02	5,656.49	66.4155	5,656.49	66.3042	5,656.49	67.5015	5,656.49	66.4511	5,656.49	50.7336	5,656.49	61.9426	5,656.49	60.2031	5,656.49	59.1382	5,656.49	62.1336	5,656.49	61.1648	5,656.49	59.0839	5,656.49	62.7719	5,656.49	62.942	5,656.49	66.8222	5,656.49	56.5712	5,656.49	64.2902
5,856.45	88.4593	5,856.45	88.2448	5,856.45	89.0819	5,856.45	85.4642	5,856.45	87.5661	5,856.45	84.5437	5,856.45	84.1755	5,856.45	82.8775	5,856.45	82.6062	5,856.45	79.9881	5,856.45	77.4483	5,856.45	77.5579	5,856.45	78.8747	5,856.45	73.9566	5,856.45	78.9125	5,856.45	74.1984	5,856.45	75.1137	5,856.45	72.7516	5,856.45	70.2005	5,856.45	69.0126	5,856.45	66.895	5,856.45	67.8265	5,856.45	66.2602	5,856.45	66.5368	5,856.45	56.3995	5,856.45	63.9766	5,856.45	35.3721	5,856.45	62.1519	5,856.45	53.2738	5,856.45	61.8225	5,856.45	57.0416	5,856.45	63.0738	5,856.45	64.2618	5,856.45	63.1384	5,856.45	57.4001	5,856.45	65.9703
6,062.99	88.5492	6,062.99	88.7644	6,062.99	89.1853	6,062.99	86.126	6,062.99	87.077	6,062.99	84.9545	6,062.99	82.6834	6,062.99	82.6765	6,062.99	83.1985	6,062.99	81.632	6,062.99	79.6191	6,062.99	77.5779	6,062.99	80.086	6,062.99	76.0518	6,062.99	78.702	6,062.99	71.6794	6,062.99	76.2662	6,062.99	71.5274	6,062.99	71.6786	6,062.99	69.1788	6,062.99	68.365	6,062.99	66.1421	6,062.99	69.3438	6,062.99	66.8482	6,062.99	60.1433	6,062.99	63.5574	6,062.99	53.2636	6,062.99	61.5468	6,062.99	55.8498	6,062.99	63.6517	6,062.99	60.7778	6,062.99	61.8402	6,062.99	63.4279	6,062.99	66.257	6,062.99	47.9041	6,062.99	63.0995
6,276.86	89.8398	6,276.86	89.3566	6,276.86	89.178	6,276.86	85.9568	6,276.86	87.0297	6,276.86	84.3375	6,276.86	82.7567	6,276.86	82.7879	6,276.86	83.9596	6,276.86	81.1193	6,276.86	81.1441	6,276.86	78.8947	6,276.86	79.5221	6,276.86	76.8422	6,276.86	79.3629	6,276.86	73.6983	6,276.86	76.3226	6,276.86	69.8604	6,276.86	72.8079	6,276.86	67.2896	6,276.86	60.8146	6,276.86	65.4709	6,276.86	70.5268	6,276.86	65.2723	6,276.86	58.3427	6,276.86	60.5381	6,276.86	52.5021	6,276.86	62.2631	6,276.86	60.5389	6,276.86	62.4988	6,276.86	60.1534	6,276.86	61.4121	6,276.86	59.405	6,276.86	65.1553	6,276.86	42.4338	6,276.86	63.5294
6,498.05	90.0786	6,498.05	89.0389	6,498.05	89.5006	6,498.05	86.6302	6,498.05	87.4331	6,498.05	84.0683	6,498.05	82.1145	6,498.05	82.9716	6,498.05	83.9211	6,498.05	79.7713	6,498.05	80.7134	6,498.05	78.8324	6,498.05	77.6561	6,498.05	75.2999	6,498.05	78.6311	6,498.05	71.39	6,498.05	77.1928	6,498.05	68.2515	6,498.05	70.489	6,498.05	65.0917	6,498.05	60.8459	6,498.05	64.4047	6,498.05	66.1346	6,498.05	62.1667	6,498.05	54.846	6,498.05	61.4933	6,498.05	62.6317	6,498.05	61.7148	6,498.05	59.9062	6,498.05	55.3256	6,498.05	56.4209	6,498.05	60.5265	6,498.05	57.3052	6,498.05	64.3206	6,498.05	50.7249	6,498.05	61.4778
6,727.29	90.6293	6,727.29	89.9739	6,727.29	89.7676	6,727.29	86.9951	6,727.29	87.8221	6,727.29	84.4177	6,727.29	82.0862	6,727.29	82.8064	6,727.29	83.2045	6,727.29	79.7598	6,727.29	80.3265	6,727.29	76.9735	6,727.29	78.455	6,727.29	73.6681	6,727.29	78.1944	6,727.29	70.4518	6,727.29	74.9417	6,727.29	67.0004	6,727.29	67.4943	6,727.29	65.7862	6,727.29	68.0273	6,727.29	64.3056	6,727.29	43.3985	6,727.29	60.3612	6,727.29	59.5735	6,727.29	59.8851	6,727.29	57.4293	6,727.29	55.4105	6,727.29	59.6701	6,727.29	58.3678	6,727.29	59.7974	6,727.29	62.4802	6,727.29	59.3804	6,727.29	62.8343	6,727.29	53.3447	6,727.29	62.1293
6,964.6	90.9738	6,964.6	89.784	6,964.6	89.9741	6,964.6	86.7415	6,964.6	88.2042	6,964.6	85.1762	6,964.6	83.3243	6,964.6	82.1504	6,964.6	83.7419	6,964.6	80.2165	6,964.6	80.7523	6,964.6	74.454	6,964.6	77.8801	6,964.6	74.0892	6,964.6	76.4181	6,964.6	71.2515	6,964.6	70.2891	6,964.6	68.7863	6,964.6	70.2313	6,964.6	65.5152	6,964.6	67.6868	6,964.6	63.9865	6,964.6	57.4945	6,964.6	63.4994	6,964.6	59.7017	6,964.6	58.7981	6,964.6	56.3658	6,964.6	49.5948	6,964.6	53.5071	6,964.6	61.0777	6,964.6	61.3783	6,964.6	61.9958	6,964.6	59.7755	6,964.6	62.1011	6,964.6	49.7361	6,964.6	61.3847
7,209.96	90.6219	7,209.96	89.4214	7,209.96	89.7985	7,209.96	86.8062	7,209.96	88.0692	7,209.96	84.5595	7,209.96	84.7939	7,209.96	82.0741	7,209.96	83.2657	7,209.96	79.2571	7,209.96	79.821	7,209.96	76.0696	7,209.96	75.4046	7,209.96	73.5627	7,209.96	72.8473	7,209.96	70.524	7,209.96	67.4666	7,209.96	65.5631	7,209.96	66.1957	7,209.96	62.4764	7,209.96	56.0223	7,209.96	58.7243	7,209.96	59.1019	7,209.96	58.893	7,209.96	59.2774	7,209.96	55.2661	7,209.96	56.2469	7,209.96	54.6958	7,209.96	47.5527	7,209.96	58.6895	7,209.96	60.0605	7,209.96	58.9384	7,209.96	56.7463	7,209.96	59.5199	7,209.96	54.7464	7,209.96	59.3588
7,464.11	89.8812	7,464.11	88.6033	7,464.11	89.3479	7,464.11	86.2652	7,464.11	87.9929	7,464.11	83.9758	7,464.11	84.6395	7,464.11	82.0686	7,464.11	82.1534	7,464.11	78.779	7,464.11	77.8988	7,464.11	75.6783	7,464.11	74.0958	7,464.11	69.8366	7,464.11	70.6302	7,464.11	65.5545	7,464.11	74.0796	7,464.11	62.2467	7,464.11	68.1809	7,464.11	62.27	7,464.11	65.3421	7,464.11	61.9466	7,464.11	66.5526	7,464.11	59.0376	7,464.11	57.4418	7,464.11	54.4917	7,464.11	54.5991	7,464.11	56.3535	7,464.11	54.4891	7,464.11	56.1917	7,464.11	51.0206	7,464.11	54.1408	7,464.11	53.8188	7,464.11	58.4117	7,464.11	53.1496	7,464.11	57.5719
7,727.78	89.0359	7,727.78	87.8586	7,727.78	88.3512	7,727.78	85.7445	7,727.78	87.6212	7,727.78	83.6536	7,727.78	84.9653	7,727.78	82.3048	7,727.78	81.8405	7,727.78	78.3941	7,727.78	78.3182	7,727.78	73.1895	7,727.78	70.5116	7,727.78	68.9189	7,727.78	75.6735	7,727.78	67.4474	7,727.78	75.6013	7,727.78	65.9716	7,727.78	70.85	7,727.78	63.8271	7,727.78	66.6209	7,727.78	61.9138	7,727.78	66.4431	7,727.78	61.666	7,727.78	60.0696	7,727.78	58.8812	7,727.78	39.282	7,727.78	56.2133	7,727.78	55.1089	7,727.78	54.1175	7,727.78	46.4933	7,727.78	49.2971	7,727.78	52.717	7,727.78	54.4392	7,727.78	49.1945	7,727.78	54.5154
8,000.24	88.8371	8,000.24	88.2896	8,000.24	87.7133	8,000.24	85.9414	8,000.24	86.8253	8,000.24	84.2526	8,000.24	84.5096	8,000.24	82.0453	8,000.24	81.8212	8,000.24	78.351	8,000.24	78.1194	8,000.24	72.4312	8,000.24	69.9005	8,000.24	72.031	8,000.24	77.1748	8,000.24	67.5541	8,000.24	72.8515	8,000.24	66.3863	8,000.24	70.9795	8,000.24	62.9434	8,000.24	63.3201	8,000.24	61.3686	8,000.24	60.1607	8,000.24	60.2406	8,000.24	59.6713	8,000.24	59.1735	8,000.24	56.4	8,000.24	56.7599	8,000.24	56.8122	8,000.24	50.7954	8,000.24	58.2531	8,000.24	53.4662	8,000.24	55.7788	8,000.24	60.4067	8,000.24	42.2112	8,000.24	53.8804
8,282.23	89.8879	8,282.23	89.57	8,282.23	87.8086	8,282.23	86.508	8,282.23	86.2108	8,282.23	84.2804	8,282.23	84.2467	8,282.23	82.0929	8,282.23	80.1991	8,282.23	77.7044	8,282.23	78.8726	8,282.23	73.8975	8,282.23	73.4783	8,282.23	69.4279	8,282.23	76.8036	8,282.23	64.4739	8,282.23	67.9382	8,282.23	64.303	8,282.23	70.7905	8,282.23	61.6768	8,282.23	55.4043	8,282.23	62.6085	8,282.23	54.0293	8,282.23	58.534	8,282.23	58.7544	8,282.23	58.1328	8,282.23	52.2399	8,282.23	59.7763	8,282.23	49.3456	8,282.23	54.7578	8,282.23	57.0543	8,282.23	54.6229	8,282.23	51.7404	8,282.23	56.7137	8,282.23	50.2424	8,282.23	55.8043
8,574.46	90.9409	8,574.46	89.8993	8,574.46	88.8304	8,574.46	87.0474	8,574.46	86.1027	8,574.46	84.11	8,574.46	84.8719	8,574.46	82.2356	8,574.46	80.928	8,574.46	77.2084	8,574.46	78.8717	8,574.46	72.888	8,574.46	74.8251	8,574.46	69.981	8,574.46	74.1396	8,574.46	66.6475	8,574.46	64.7781	8,574.46	66.2803	8,574.46	69.5227	8,574.46	61.7682	8,574.46	61.4184	8,574.46	63.0373	8,574.46	64.9598	8,574.46	59.8945	8,574.46	57.916	8,574.46	59.0445	8,574.46	51.4259	8,574.46	60.3332	8,574.46	57.2597	8,574.46	57.0523	8,574.46	54.6236	8,574.46	55.8463	8,574.46	50.1134	8,574.46	58.816	8,574.46	46.5993	8,574.46	56.4934
8,876.22	90.7088	8,876.22	89.473	8,876.22	89.0365	8,876.22	87.1459	8,876.22	87.2552	8,876.22	84.1141	8,876.22	84.6676	8,876.22	81.7104	8,876.22	81.2166	8,876.22	77.0818	8,876.22	78.3391	8,876.22	72.8396	8,876.22	71.837	8,876.22	72.5623	8,876.22	71.0538	8,876.22	68.6043	8,876.22	70.1445	8,876.22	65.7689	8,876.22	66.5808	8,876.22	61.9711	8,876.22	60.8206	8,876.22	62.5882	8,876.22	65.6854	8,876.22	59.8501	8,876.22	57.5137	8,876.22	60.7203	8,876.22	54.4315	8,876.22	60.3727	8,876.22	55.6405	8,876.22	55.6075	8,876.22	57.5373	8,876.22	57.0832	8,876.22	51.3997	8,876.22	59.5631	8,876.22	54.3541	8,876.22	57.1058
9,189.7	89.5378	9,189.7	88.2906	9,189.7	88.4512	9,189.7	86.1657	9,189.7	87.3888	9,189.7	84.3377	9,189.7	84.8658	9,189.7	80.7804	9,189.7	81.0798	9,189.7	76.1188	9,189.7	77.6781	9,189.7	73.9982	9,189.7	69.2436	9,189.7	71.8308	9,189.7	70.7183	9,189.7	68.229	9,189.7	69.7281	9,189.7	63.7504	9,189.7	65.5322	9,189.7	60.379	9,189.7	60.524	9,189.7	60.294	9,189.7	62.1692	9,189.7	57.8386	9,189.7	50.6584	9,189.7	58.7796	9,189.7	53.5408	9,189.7	59.4239	9,189.7	52.4503	9,189.7	55.1064	9,189.7	54.3667	9,189.7	55.6635	9,189.7	41.0442	9,189.7	57	9,189.7	54.011	9,189.7	54.7643
9,513.43	87.9595	9,513.43	86.9767	9,513.43	87.4263	9,513.43	85.0118	9,513.43	86.7697	9,513.43	84.3419	9,513.43	84.6274	9,513.43	80.9118	9,513.43	81.0941	9,513.43	74.9432	9,513.43	78.1022	9,513.43	74.0066	9,513.43	70.4765	9,513.43	70.6803	9,513.43	69.9532	9,513.43	67.8475	9,513.43	70.4204	9,513.43	61.7345	9,513.43	64.7201	9,513.43	62.5119	9,513.43	59.3612	9,513.43	60.1498	9,513.43	48.9645	9,513.43	57.4057	9,513.43	42.0306	9,513.43	59.1398	9,513.43	52.667	9,513.43	58.762	9,513.43	56.2719	9,513.43	54.7041	9,513.43	56.7052	9,513.43	52.9559	9,513.43	52.6801	9,513.43	52.5677	9,513.43	54.3828	9,513.43	56.5502
9,848.88	87.5796	9,848.88	86.9402	9,848.88	86.7857	9,848.88	85.5769	9,848.88	86.1684	9,848.88	84.0243	9,848.88	84.3904	9,848.88	81.1462	9,848.88	81.0918	9,848.88	75.8975	9,848.88	78.7289	9,848.88	73.3159	9,848.88	70.2458	9,848.88	71.143	9,848.88	67.0129	9,848.88	66.5657	9,848.88	69.8989	9,848.88	62.2421	9,848.88	67.0472	9,848.88	60.7571	9,848.88	63.9238	9,848.88	57.2421	9,848.88	59.5759	9,848.88	57.4742	9,848.88	50.8189	9,848.88	57.8959	9,848.88	37.8201	9,848.88	58.9247	9,848.88	51.9695	9,848.88	54.8522	9,848.88	51.3132	9,848.88	52.4785	9,848.88	51.5248	9,848.88	51.2236	9,848.88	49.6447	9,848.88	54.5892
10,196.8	88.2428	10,196.8	87.9263	10,196.8	87.0584	10,196.8	86.5286	10,196.8	86.0085	10,196.8	83.6806	10,196.8	83.5915	10,196.8	80.5736	10,196.8	80.158	10,196.8	76.8884	10,196.8	79.0513	10,196.8	72.7939	10,196.8	70.8108	10,196.8	69.0274	10,196.8	66.2224	10,196.8	64.5116	10,196.8	67.8288	10,196.8	61.432	10,196.8	63.3222	10,196.8	57.0862	10,196.8	65.7743	10,196.8	56.0019	10,196.8	63.5371	10,196.8	54.6334	10,196.8	50.2225	10,196.8	59.0037	10,196.8	52.7457	10,196.8	57.8762	10,196.8	56.4767	10,196.8	51.9557	10,196.8	57.4716	10,196.8	49.7898	10,196.8	49.5499	10,196.8	50.4294	10,196.8	50.9875	10,196.8	54.6673
10,556.4	89.0174	10,556.4	88.4616	10,556.4	87.7432	10,556.4	86.4725	10,556.4	86.2066	10,556.4	83.1476	10,556.4	83.5278	10,556.4	79.3346	10,556.4	79.6664	10,556.4	77.189	10,556.4	78.1615	10,556.4	72.3036	10,556.4	71.8057	10,556.4	66.7419	10,556.4	65.425	10,556.4	64.1176	10,556.4	69.5917	10,556.4	58.2778	10,556.4	58.0617	10,556.4	57.9388	10,556.4	65.9762	10,556.4	55.7765	10,556.4	64.1352	10,556.4	55.4166	10,556.4	44.975	10,556.4	59.3584	10,556.4	50.1708	10,556.4	57.0374	10,556.4	55.3056	10,556.4	53.225	10,556.4	56.2698	10,556.4	50.5714	10,556.4	35.9458	10,556.4	54.3922	10,556.4	45.0599	10,556.4	54.3183
10,928.5	89.2126	10,928.5	87.9474	10,928.5	88.2839	10,928.5	85.8923	10,928.5	86.5233	10,928.5	82.3118	10,928.5	83.7796	10,928.5	78.9151	10,928.5	78.9128	10,928.5	75.8694	10,928.5	77.6057	10,928.5	72.632	10,928.5	70.2235	10,928.5	66.3609	10,928.5	63.5319	10,928.5	63.4345	10,928.5	69.9799	10,928.5	59.2951	10,928.5	61.4852	10,928.5	59.4257	10,928.5	65.2948	10,928.5	54.5009	10,928.5	63.3236	10,928.5	52.8596	10,928.5	44.9361	10,928.5	59.4909	10,928.5	51.0736	10,928.5	57.4502	10,928.5	51.3123	10,928.5	53.2939	10,928.5	53.3539	10,928.5	51.7687	10,928.5	39.9212	10,928.5	52.6991	10,928.5	49.4078	10,928.5	51.6241
11,313.7	89.0692	11,313.7	87.5655	11,313.7	88.8222	11,313.7	86.0951	11,313.7	86.4625	11,313.7	82.2397	11,313.7	84.0886	11,313.7	79.1556	11,313.7	78.3352	11,313.7	74.0591	11,313.7	77.2931	11,313.7	71.418	11,313.7	71.1473	11,313.7	67.0082	11,313.7	60.413	11,313.7	63.0765	11,313.7	67.2371	11,313.7	58.0054	11,313.7	57.431	11,313.7	57.1485	11,313.7	66.1285	11,313.7	52.2857	11,313.7	64.0127	11,313.7	49.7516	11,313.7	46.6206	11,313.7	57.429	11,313.7	47.4126	11,313.7	57.3522	11,313.7	52.1512	11,313.7	52.6795	11,313.7	53.7386	11,313.7	51.7287	11,313.7	46.0979	11,313.7	50.441	11,313.7	41.3369	11,313.7	49.5648
11,712.9	88.3244	11,712.9	88.1251	11,712.9	89.0079	11,712.9	86.7869	11,712.9	86.6784	11,712.9	82.5108	11,712.9	83.8162	11,712.9	78.8562	11,712.9	78.4205	11,712.9	74.0389	11,712.9	76.1102	11,712.9	69.6163	11,712.9	70.3683	11,712.9	66.5061	11,712.9	55.8681	11,712.9	61.1546	11,712.9	62.9071	11,712.9	58.7788	11,712.9	56.8763	11,712.9	58.2888	11,712.9	62.8361	11,712.9	50.6708	11,712.9	64.8231	11,712.9	50.0325	11,712.9	46.6017	11,712.9	57.6888	11,712.9	51.8248	11,712.9	56.5766	11,712.9	53.3062	11,712.9	52.0966	11,712.9	49.5077	11,712.9	51.0052	11,712.9	43.8131	11,712.9	46.2258	11,712.9	48.4967	11,712.9	54.3918
12,126	88.8813	12,126	88.9369	12,126	88.8044	12,126	86.6514	12,126	86.7313	12,126	82.2309	12,126	83.6099	12,126	77.7269	12,126	79.0211	12,126	72.2419	12,126	75.8088	12,126	68.7276	12,126	69.3606	12,126	63.7726	12,126	61.6997	12,126	61.2972	12,126	67.3681	12,126	57.211	12,126	63.229	12,126	57.9073	12,126	57.9872	12,126	48.4024	12,126	63.7927	12,126	52.0067	12,126	38.6004	12,126	57.2054	12,126	49.2079	12,126	53.6087	12,126	58.5016	12,126	49.5329	12,126	49.2116	12,126	49.2159	12,126	44.2009	12,126	49.981	12,126	51.0517	12,126	52.1524
12,553.7	89.9292	12,553.7	89.0865	12,553.7	89.3175	12,553.7	85.7675	12,553.7	87.1154	12,553.7	80.6682	12,553.7	83.5741	12,553.7	76.5677	12,553.7	78.6116	12,553.7	70.9287	12,553.7	75.8668	12,553.7	67.5669	12,553.7	67.9566	12,553.7	64.0786	12,553.7	67.2527	12,553.7	59.2943	12,553.7	65.2229	12,553.7	55.1036	12,553.7	61.5313	12,553.7	54.2345	12,553.7	47.0834	12,553.7	50.0169	12,553.7	58.9106	12,553.7	52.6773	12,553.7	49.6016	12,553.7	54.2259	12,553.7	51.793	12,553.7	49.6131	12,553.7	55.5682	12,553.7	51.6649	12,553.7	50.4335	12,553.7	50.5634	12,553.7	35.4496	12,553.7	51.644	12,553.7	50.9376	12,553.7	51.2214
12,996.1	90.153	12,996.1	88.69	12,996.1	90.0288	12,996.1	84.9703	12,996.1	87.3468	12,996.1	80.0454	12,996.1	84.3102	12,996.1	75.7868	12,996.1	79.4405	12,996.1	70.0766	12,996.1	77.7801	12,996.1	69.1144	12,996.1	69.7724	12,996.1	65.5743	12,996.1	70.2214	12,996.1	61.295	12,996.1	64.0566	12,996.1	56.9405	12,996.1	65.6932	12,996.1	56.2242	12,996.1	54.3474	12,996.1	51.3296	12,996.1	58.5533	12,996.1	53.3676	12,996.1	53.8317	12,996.1	54.3835	12,996.1	54.3952	12,996.1	51.7226	12,996.1	54.3894	12,996.1	50.7229	12,996.1	44.6486	12,996.1	51.8798	12,996.1	46.8197	12,996.1	50.648	12,996.1	51.754	12,996.1	52.803
13,454.6	88.7633	13,454.6	87.9528	13,454.6	89.5167	13,454.6	84.5447	13,454.6	87.3991	13,454.6	79.479	13,454.6	84.0274	13,454.6	75.7492	13,454.6	80.2362	13,454.6	71.1783	13,454.6	77.9907	13,454.6	68.5034	13,454.6	71.9161	13,454.6	65.8262	13,454.6	69.1395	13,454.6	56.8492	13,454.6	58.8728	13,454.6	57.5499	13,454.6	65.3944	13,454.6	55.1604	13,454.6	59.6594	13,454.6	52.5053	13,454.6	61.3207	13,454.6	51.1856	13,454.6	51.1515	13,454.6	52.5196	13,454.6	46.2236	13,454.6	54.5559	13,454.6	46.2037	13,454.6	52.5217	13,454.6	50.5422	13,454.6	49.2504	13,454.6	46.9526	13,454.6	46.9126	13,454.6	47.3976	13,454.6	53.2894
13,928.5	86.8318	13,928.5	86.5327	13,928.5	87.9883	13,928.5	83.7263	13,928.5	87.2165	13,928.5	80.004	13,928.5	83.1526	13,928.5	75.1499	13,928.5	79.8273	13,928.5	71.4165	13,928.5	75.6005	13,928.5	67.0526	13,928.5	72.3005	13,928.5	60.5184	13,928.5	65.5944	13,928.5	57.3925	13,928.5	62.2872	13,928.5	52.1452	13,928.5	62.3875	13,928.5	53.8848	13,928.5	63.0265	13,928.5	47.8152	13,928.5	65.0308	13,928.5	45.7857	13,928.5	47.5365	13,928.5	54.1224	13,928.5	36.5029	13,928.5	53.6589	13,928.5	49.7335	13,928.5	51.1794	13,928.5	51.557	13,928.5	47.7861	13,928.5	47.2916	13,928.5	47.218	13,928.5	33.7648	13,928.5	46.4408
14,419.9	85.5517	14,419.9	84.8224	14,419.9	85.5878	14,419.9	82.8922	14,419.9	85.6335	14,419.9	79.5356	14,419.9	82.2939	14,419.9	73.5361	14,419.9	78.3481	14,419.9	67.7213	14,419.9	72.8971	14,419.9	64.4231	14,419.9	70.3833	14,419.9	55.3978	14,419.9	63.419	14,419.9	54.5852	14,419.9	57.7506	14,419.9	52.6776	14,419.9	57.7829	14,419.9	50.8053	14,419.9	61.9963	14,419.9	44.8457	14,419.9	64.8415	14,419.9	46.3491	14,419.9	39.83	14,419.9	51.3241	14,419.9	42.1571	14,419.9	49.1209	14,419.9	45.9471	14,419.9	52.3128	14,419.9	48.147	14,419.9	31.6575	14,419.9	48.1209	14,419.9	46.4281	14,419.9	50.8432	14,419.9	48.3929
14,928.2	85.7599	14,928.2	84.4343	14,928.2	84.909	14,928.2	81.4736	14,928.2	83.4194	14,928.2	77.1894	14,928.2	80.2279	14,928.2	69.6368	14,928.2	74.6339	14,928.2	61.1538	14,928.2	69.4393	14,928.2	57.1192	14,928.2	64.2018	14,928.2	49.9265	14,928.2	58.4126	14,928.2	47.9605	14,928.2	41.3824	14,928.2	45.6465	14,928.2	51.3753	14,928.2	30.9783	14,928.2	53.2761	14,928.2	44.2151	14,928.2	57.4544	14,928.2	36.6068	14,928.2	37.9825	14,928.2	39.0659	14,928.2	33.8655	14,928.2	40.4942	14,928.2	44.7616	14,928.2	45.3339	14,928.2	33.4722	14,928.2	42.2238	14,928.2	45.7099	14,928.2	42.6338	14,928.2	51.337	14,928.2	41.5172
15,454.8	86.1421	15,454.8	84.8557	15,454.8	84.873	15,454.8	80.3028	15,454.8	81.1516	15,454.8	73.4215	15,454.8	76.737	15,454.8	62.4428	15,454.8	70.6804	15,454.8	54.1512	15,454.8	64.4329	15,454.8	54.4213	15,454.8	57.2897	15,454.8	51.1984	15,454.8	49.76	15,454.8	48.2705	15,454.8	48.5318	15,454.8	44.7892	15,454.8	19.6648	15,454.8	42.4827	15,454.8	52.0579	15,454.8	36.5486	15,454.8	42.7362	15,454.8	41.4774	15,454.8	36.1157	15,454.8	36.1226	15,454.8	35.3766	15,454.8	35.6074	15,454.8	34.0235	15,454.8	35.2469	15,454.8	41.2362	15,454.8	41.9763	15,454.8	45.054	15,454.8	18.9129	15,454.8	46.7674	15,454.8	28.2722
15,999.8	85.8972	15,999.8	84.7993	15,999.8	84.7617	15,999.8	79.5868	15,999.8	79.6368	15,999.8	70.8522	15,999.8	71.5685	15,999.8	59.4236	15,999.8	64.1619	15,999.8	57.9457	15,999.8	56.5917	15,999.8	57.8707	15,999.8	56.3853	15,999.8	54.0266	15,999.8	47.8242	15,999.8	49.9613	15,999.8	43.4345	15,999.8	46.0209	15,999.8	46.2601	15,999.8	42.6453	15,999.8	57.693	15,999.8	42.3483	15,999.8	54.3642	15,999.8	42.049	15,999.8	46.3996	15,999.8	44.1424	15,999.8	31.6469	15,999.8	41.233	15,999.8	39.1381	15,999.8	43.075	15,999.8	36.245	15,999.8	38.6038	15,999.8	47.7146	15,999.8	37.5735	15,999.8	49.1077	15,999.8	32.8936
16,564.5	85.6127	16,564.5	84.2383	16,564.5	84.1077	16,564.5	78.4402	16,564.5	78.6002	16,564.5	66.9025	16,564.5	64.9874	16,564.5	57.6478	16,564.5	61.5868	16,564.5	56.4062	16,564.5	62.9264	16,564.5	60.9525	16,564.5	61.2794	16,564.5	56.2242	16,564.5	54.2453	16,564.5	47.7907	16,564.5	50.4566	16,564.5	50.1844	16,564.5	51.2737	16,564.5	37.9544	16,564.5	58.5137	16,564.5	45.833	16,564.5	56.8109	16,564.5	44.1195	16,564.5	46.7462	16,564.5	42.0594	16,564.5	35.3501	16,564.5	36.0813	16,564.5	43.2219	16,564.5	46.6849	16,564.5	35.2891	16,564.5	34.0986	16,564.5	41.5196	16,564.5	39.0684	16,564.5	48.2431	16,564.5	36.0006
17,148.2	86.4242	17,148.2	84.6547	17,148.2	84.4113	17,148.2	76.8555	17,148.2	76.8617	17,148.2	66.1699	17,148.2	62.3802	17,148.2	69.6039	17,148.2	68.3508	17,148.2	66.8682	17,148.2	65.9502	17,148.2	61.635	17,148.2	65.6451	17,148.2	60.0285	17,148.2	56.6004	17,148.2	54.8192	17,148.2	54.286	17,148.2	52.9661	17,148.2	53.1253	17,148.2	47.141	17,148.2	62.8212	17,148.2	49.2878	17,148.2	61.2955	17,148.2	47.142	17,148.2	40.4081	17,148.2	46.9418	17,148.2	37.549	17,148.2	42.1955	17,148.2	44.1395	17,148.2	49.6365	17,148.2	30.1909	17,148.2	42.4904	17,148.2	40.1155	17,148.2	43.1587	17,148.2	48.0657	17,148.2	41.4986
17,753.2	87.4191	17,753.2	85.5742	17,753.2	86.0197	17,753.2	75.9731	17,753.2	76.9617	17,753.2	72.3568	17,753.2	69.7492	17,753.2	72.7587	17,753.2	72.2609	17,753.2	70.2475	17,753.2	69.6125	17,753.2	64.0197	17,753.2	65.3006	17,753.2	61.8206	17,753.2	59.559	17,753.2	55.5796	17,753.2	55.3198	17,753.2	48.7158	17,753.2	54.654	17,753.2	38.0968	17,753.2	67.1284	17,753.2	49.7062	17,753.2	66.1027	17,753.2	47.7588	17,753.2	46.3561	17,753.2	48.1395	17,753.2	46.9188	17,753.2	39.7153	17,753.2	47.0882	17,753.2	49.8401	17,753.2	37.152	17,753.2	44.4454	17,753.2	38.6974	17,753.2	44.5793	17,753.2	43.0956	17,753.2	40.9293
18,379.4	87.0192	18,379.4	85.4271	18,379.4	86.2259	18,379.4	78.0611	18,379.4	79.2818	18,379.4	77.2237	18,379.4	75.4864	18,379.4	75.0923	18,379.4	73.2753	18,379.4	70.8171	18,379.4	71.5661	18,379.4	67.6875	18,379.4	66.7204	18,379.4	62.9926	18,379.4	58.169	18,379.4	54.5264	18,379.4	56.9448	18,379.4	51.3009	18,379.4	54.2986	18,379.4	43.1291	18,379.4	69.9751	18,379.4	49.4378	18,379.4	69.2903	18,379.4	42.973	18,379.4	54.3922	18,379.4	43.8202	18,379.4	49.6682	18,379.4	45.964	18,379.4	51.8636	18,379.4	48.6353	18,379.4	45.2862	18,379.4	38.2667	18,379.4	28.4967	18,379.4	42.3972	18,379.4	48.0654	18,379.4	41.5369
19,027.6	86.4897	19,027.6	84.5755	19,027.6	84.9536	19,027.6	79.3934	19,027.6	80.1077	19,027.6	79.987	19,027.6	79.3854	19,027.6	77.3702	19,027.6	76.101	19,027.6	71.9614	19,027.6	72.7369	19,027.6	69.1759	19,027.6	67.1636	19,027.6	63.9982	19,027.6	53.2203	19,027.6	58.1679	19,027.6	56.2762	19,027.6	55.5917	19,027.6	51.1126	19,027.6	51.0315	19,027.6	71.1123	19,027.6	47.1041	19,027.6	70.5983	19,027.6	38.979	19,027.6	51.2272	19,027.6	45.5289	19,027.6	48.7205	19,027.6	51.817	19,027.6	53.2635	19,027.6	50.1433	19,027.6	42.728	19,027.6	47.8755	19,027.6	41.1685	19,027.6	40.0431	19,027.6	53.2092	19,027.6	22.1943
19,698.5	86.502	19,698.5	83.276	19,698.5	83.9371	19,698.5	79.4611	19,698.5	80.0601	19,698.5	80.9712	19,698.5	80.564	19,698.5	77.8514	19,698.5	77.4546	19,698.5	71.8661	19,698.5	72.8785	19,698.5	69.1603	19,698.5	69.3995	19,698.5	62.5195	19,698.5	59.4648	19,698.5	61.1953	19,698.5	60.9078	19,698.5	56.0385	19,698.5	53.9246	19,698.5	52.6742	19,698.5	71.9069	19,698.5	48.4191	19,698.5	72.2769	19,698.5	40.3145	19,698.5	48.6732	19,698.5	49.8317	19,698.5	46.0834	19,698.5	53.4175	19,698.5	56.1511	19,698.5	52.8493	19,698.5	40.0414	19,698.5	54.5396	19,698.5	46.8329	19,698.5	50.3414	19,698.5	45.9501	19,698.5	41.4928
19,999.5	86.0351	19,999.5	81.9556	19,999.5	83.3376	19,999.5	79.3366	19,999.5	80.2663	19,999.5	80.9175	19,999.5	80.384	19,999.5	77.3785	19,999.5	77.3713	19,999.5	71.2205	19,999.5	72.1426	19,999.5	67.9086	19,999.5	69.7089	19,999.5	61.7204	19,999.5	60.2651	19,999.5	62.1422	19,999.5	63.3358	19,999.5	54.5438	19,999.5	57.7679	19,999.5	53.4679	19,999.5	72.4853	19,999.5	47.7816	19,999.5	72.5578	19,999.5	40.7784	19,999.5	45.6585	19,999.5	47.0254	19,999.5	45.0612	19,999.5	56.5235	19,999.5	59.0601	19,999.5	51.876	19,999.5	43.2882	19,999.5	54.2438	19,999.5	51.3886	19,999.5	52.2231	19,999.5	50.5665	19,999.5	33.5373
