"SPL Horizontal"
"On-Axis"		"10°"		"-10°"		"20°"		"-20°"		"30°"		"-30°"		"40°"		"-40°"		"50°"		"-50°"		"60°"		"-60°"		"70°"		"-70°"		"80°"		"-80°"		"90°"		"-90°"		"100°"		"-100°"		"110°"		"-110°"		"120°"		"-120°"		"130°"		"-130°"		"140°"		"-140°"		"150°"		"-150°"		"160°"		"-160°"		"170°"		"-170°"		"180°"
"Frequency / Hz"	"Sound Pressure Level / dB (re 20 µPa/V)  [2.83V at 1m]"	"Frequency / Hz"	"Sound Pressure Level / dB (re 20 µPa/V)  [2.83V at 1m]"	"Frequency / Hz"	"Sound Pressure Level / dB (re 20 µPa/V)  [2.83V at 1m]"	"Frequency / Hz"	"Sound Pressure Level / dB (re 20 µPa/V)  [2.83V at 1m]"	"Frequency / Hz"	"Sound Pressure Level / dB (re 20 µPa/V)  [2.83V at 1m]"	"Frequency / Hz"	"Sound Pressure Level / dB (re 20 µPa/V)  [2.83V at 1m]"	"Frequency / Hz"	"Sound Pressure Level / dB (re 20 µPa/V)  [2.83V at 1m]"	"Frequency / Hz"	"Sound Pressure Level / dB (re 20 µPa/V)  [2.83V at 1m]"	"Frequency / Hz"	"Sound Pressure Level / dB (re 20 µPa/V)  [2.83V at 1m]"	"Frequency / Hz"	"Sound Pressure Level / dB (re 20 µPa/V)  [2.83V at 1m]"	"Frequency / Hz"	"Sound Pressure Level / dB (re 20 µPa/V)  [2.83V at 1m]"	"Frequency / Hz"	"Sound Pressure Level / dB (re 20 µPa/V)  [2.83V at 1m]"	"Frequency / Hz"	"Sound Pressure Level / dB (re 20 µPa/V)  [2.83V at 1m]"	"Frequency / Hz"	"Sound Pressure Level / dB (re 20 µPa/V)  [2.83V at 1m]"	"Frequency / Hz"	"Sound Pressure Level / dB (re 20 µPa/V)  [2.83V at 1m]"	"Frequency / Hz"	"Sound Pressure Level / dB (re 20 µPa/V)  [2.83V at 1m]"	"Frequency / Hz"	"Sound Pressure Level / dB (re 20 µPa/V)  [2.83V at 1m]"	"Frequency / Hz"	"Sound Pressure Level / dB (re 20 µPa/V)  [2.83V at 1m]"	"Frequency / Hz"	"Sound Pressure Level / dB (re 20 µPa/V)  [2.83V at 1m]"	"Frequency / Hz"	"Sound Pressure Level / dB (re 20 µPa/V)  [2.83V at 1m]"	"Frequency / Hz"	"Sound Pressure Level / dB (re 20 µPa/V)  [2.83V at 1m]"	"Frequency / Hz"	"Sound Pressure Level / dB (re 20 µPa/V)  [2.83V at 1m]"	"Frequency / Hz"	"Sound Pressure Level / dB (re 20 µPa/V)  [2.83V at 1m]"	"Frequency / Hz"	"Sound Pressure Level / dB (re 20 µPa/V)  [2.83V at 1m]"	"Frequency / Hz"	"Sound Pressure Level / dB (re 20 µPa/V)  [2.83V at 1m]"	"Frequency / Hz"	"Sound Pressure Level / dB (re 20 µPa/V)  [2.83V at 1m]"	"Frequency / Hz"	"Sound Pressure Level / dB (re 20 µPa/V)  [2.83V at 1m]"	"Frequency / Hz"	"Sound Pressure Level / dB (re 20 µPa/V)  [2.83V at 1m]"	"Frequency / Hz"	"Sound Pressure Level / dB (re 20 µPa/V)  [2.83V at 1m]"	"Frequency / Hz"	"Sound Pressure Level / dB (re 20 µPa/V)  [2.83V at 1m]"	"Frequency / Hz"	"Sound Pressure Level / dB (re 20 µPa/V)  [2.83V at 1m]"	"Frequency / Hz"	"Sound Pressure Level / dB (re 20 µPa/V)  [2.83V at 1m]"	"Frequency / Hz"	"Sound Pressure Level / dB (re 20 µPa/V)  [2.83V at 1m]"	"Frequency / Hz"	"Sound Pressure Level / dB (re 20 µPa/V)  [2.83V at 1m]"	"Frequency / Hz"	"Sound Pressure Level / dB (re 20 µPa/V)  [2.83V at 1m]"	"Frequency / Hz"	"Sound Pressure Level / dB (re 20 µPa/V)  [2.83V at 1m]"
20.5078	53.1667	20.5078	53.1283	20.5078	53.0933	20.5078	52.9827	20.5078	52.9105	20.5078	52.7425	20.5078	52.6293	20.5078	52.4326	20.5078	52.2738	20.5078	52.0967	20.5078	51.8891	20.5078	51.8026	20.5078	51.549	20.5078	51.6404	20.5078	51.3547	20.5078	51.6986	20.5078	51.408	20.5078	52.0237	20.5078	51.7598	20.5078	52.5897	20.5078	52.375	20.5078	53.313	20.5078	53.154	20.5078	54.0935	20.5078	53.9845	20.5078	54.8473	20.5078	54.7772	20.5078	55.5158	20.5078	55.4733	20.5078	56.0621	20.5078	56.0379	20.5078	56.4639	20.5078	56.4514	20.5078	56.7087	20.5078	56.7034	20.5078	56.7894
21.9727	52.5526	21.9727	52.4542	21.9727	52.4628	21.9727	52.1676	21.9727	52.1843	21.9727	51.6942	21.9727	51.7176	21.9727	51.0445	21.9727	51.0715	21.9727	50.2572	21.9727	50.2815	21.9727	49.4381	21.9727	49.4479	21.9727	48.8119	21.9727	48.79	21.9727	48.6988	21.9727	48.6334	21.9727	49.2829	21.9727	49.1836	21.9727	50.4049	21.9727	50.2956	21.9727	51.7391	21.9727	51.6375	21.9727	53.0427	21.9727	52.9557	21.9727	54.1953	21.9727	54.1244	21.9727	55.1503	21.9727	55.0948	21.9727	55.8927	21.9727	55.8519	21.9727	56.42	21.9727	56.3931	21.9727	56.7329	21.9727	56.7195	21.9727	56.8326
23.4375	54.0166	23.4375	53.9405	23.4375	53.9297	23.4375	53.7045	23.4375	53.6807	23.4375	53.319	23.4375	53.2773	23.4375	52.8094	23.4375	52.7419	23.4375	52.2341	23.4375	52.1294	23.4375	51.7079	23.4375	51.5539	23.4375	51.413	23.4375	51.206	23.4375	51.5402	23.4375	51.2967	23.4375	52.1526	23.4375	51.9059	23.4375	53.1252	23.4375	52.9037	23.4375	54.2521	23.4375	54.0676	23.4375	55.3671	23.4375	55.2195	23.4375	56.3723	23.4375	56.2573	23.4375	57.2193	23.4375	57.1322	23.4375	57.886	23.4375	57.8233	23.4375	58.3629	23.4375	58.3223	23.4375	58.6462	23.4375	58.6262	23.4375	58.7341
24.9023	54.5703	24.9023	54.4759	24.9023	54.4926	24.9023	54.2124	24.9023	54.2451	24.9023	53.7914	24.9023	53.8381	24.9023	53.2444	24.9023	53.3	24.9023	52.6442	24.9023	52.6982	24.9023	52.1355	24.9023	52.1687	24.9023	51.937	24.9023	51.9255	24.9023	52.2429	24.9023	52.1741	24.9023	53.0587	24.9023	52.9445	24.9023	54.1939	24.9023	54.0591	24.9023	55.4234	24.9023	55.2887	24.9023	56.594	24.9023	56.4713	24.9023	57.6261	24.9023	57.5209	24.9023	58.4843	24.9023	58.399	24.9023	59.1544	24.9023	59.0899	24.9023	59.6311	24.9023	59.588	24.9023	59.9131	24.9023	59.8914	24.9023	59.9998
26.3672	55.7047	26.3672	55.6134	26.3672	55.6405	26.3672	55.3719	26.3672	55.4243	26.3672	54.9971	26.3672	55.0698	26.3672	54.5288	26.3672	54.6113	26.3672	54.0478	26.3672	54.1202	26.3672	53.694	26.3672	53.7254	26.3672	53.6489	26.3672	53.6066	26.3672	54.0437	26.3672	53.9154	26.3672	54.8528	26.3672	54.6593	26.3672	55.9156	26.3672	55.6934	26.3672	57.0525	26.3672	56.832	26.3672	58.1369	26.3672	57.9362	26.3672	59.0979	26.3672	58.9262	26.3672	59.9007	26.3672	59.7619	26.3672	60.5292	26.3672	60.4246	26.3672	60.976	26.3672	60.9062	26.3672	61.2379	26.3672	61.2031	26.3672	61.3138
27.832	56.9565	27.832	56.8812	27.832	56.897	27.832	56.6795	27.832	56.7058	27.832	56.3751	27.832	56.3994	27.832	56.0159	27.832	56.016	27.832	55.6865	27.832	55.6296	27.832	55.5126	27.832	55.3605	27.832	55.6296	27.832	55.3582	27.832	56.1099	27.832	55.732	27.832	56.9085	27.832	56.4714	27.832	57.8961	27.832	57.4528	27.832	58.9357	27.832	58.5237	27.832	59.9269	27.832	59.5659	27.832	60.8089	27.832	60.5071	27.832	61.5484	27.832	61.3081	27.832	62.1279	27.832	61.9488	27.832	62.538	27.832	62.4193	27.832	62.774	27.832	62.7148	27.832	62.8332
29.2969	58.9007	29.2969	58.8561	29.2969	58.835	29.2969	58.7086	29.2969	58.6622	29.2969	58.4776	29.2969	58.3977	29.2969	58.2002	29.2969	58.0749	29.2969	57.9375	29.2969	57.7538	29.2969	57.7763	29.2969	57.5263	29.2969	57.8135	29.2969	57.5035	29.2969	58.117	29.2969	57.7723	29.2969	58.6861	29.2969	58.3426	29.2969	59.4499	29.2969	59.1382	29.2969	60.3072	29.2969	60.0433	29.2969	61.1656	29.2969	60.9531	29.2969	61.9577	29.2969	61.7933	29.2969	62.6406	29.2969	62.5183	29.2969	63.188	29.2969	63.1019	29.2969	63.5842	29.2969	63.5296	29.2969	63.8201	29.2969	63.7936	29.2969	63.8906
30.7617	59.3773	30.7617	59.3615	30.7617	59.3041	30.7617	59.2634	30.7617	59.1481	30.7617	59.1031	30.7617	58.9297	30.7617	58.9176	30.7617	58.6886	30.7617	58.7644	30.7617	58.4883	30.7617	58.7187	30.7617	58.4129	30.7617	58.856	30.7617	58.5471	30.7617	59.2218	30.7617	58.9382	30.7617	59.8063	30.7617	59.5676	30.7617	60.5481	30.7617	60.3605	30.7617	61.3641	30.7617	61.2232	30.7617	62.1769	30.7617	62.0741	30.7617	62.9284	30.7617	62.8546	30.7617	63.5788	30.7617	63.527	30.7617	64.103	30.7617	64.0679	30.7617	64.4852	30.7617	64.4634	30.7617	64.7159	30.7617	64.7055	30.7617	64.79
32.2266	62.0613	32.2266	62.0013	32.2266	62.0328	32.2266	61.856	32.2266	61.9209	32.2266	61.6378	32.2266	61.7394	32.2266	61.3719	32.2266	61.514	32.2266	61.1005	32.2266	61.2858	32.2266	60.8857	32.2266	61.1127	32.2266	60.8038	32.2266	61.0634	32.2266	60.9235	32.2266	61.1976	32.2266	61.2745	32.2266	61.5405	32.2266	61.829	32.2266	62.0677	32.2266	62.5153	32.2266	62.716	32.2266	63.2493	32.2266	63.4098	32.2266	63.9584	32.2266	64.0816	32.2266	64.59	32.2266	64.6808	32.2266	65.1093	32.2266	65.1728	32.2266	65.4949	32.2266	65.5349	32.2266	65.7342	32.2266	65.7535	32.2266	65.8208
33.6914	62.4946	33.6914	62.4255	33.6914	62.4771	33.6914	62.2735	33.6914	62.378	33.6914	62.0523	33.6914	62.2114	33.6914	61.7892	33.6914	62.0035	33.6914	61.5295	33.6914	61.7959	33.6914	61.3386	33.6914	61.6464	33.6914	61.2939	33.6914	61.6223	33.6914	61.4607	33.6914	61.781	33.6914	61.86	33.6914	62.1445	33.6914	62.4553	33.6914	62.6869	33.6914	63.1703	33.6914	63.3453	33.6914	63.921	33.6914	64.0455	33.6914	64.6376	33.6914	64.7219	33.6914	65.2705	33.6914	65.325	33.6914	65.7874	33.6914	65.8208	33.6914	66.1686	33.6914	66.1873	33.6914	66.4025	33.6914	66.4108	33.6914	66.4835
35.1562	60.3459	35.1562	60.2384	35.1562	60.3612	35.1562	60.0514	35.1562	60.2885	35.1562	59.8179	35.1562	60.1489	35.1562	59.5972	35.1562	59.984	35.1562	59.4763	35.1562	59.8594	35.1562	59.5546	35.1562	59.8597	35.1562	59.9041	35.1562	60.0668	35.1562	60.5271	35.1562	60.5229	35.1562	61.3536	35.1562	61.2047	35.1562	62.2817	35.1562	62.0371	35.1562	63.2183	35.1562	62.9293	35.1562	64.0966	35.1562	63.8033	35.1562	64.874	35.1562	64.6039	35.1562	65.525	35.1562	65.2956	35.1562	66.035	35.1562	65.8565	35.1562	66.3951	35.1562	66.2735	35.1562	66.6004	35.1562	66.539	35.1562	66.6485
36.6211	63.9285	36.6211	63.9178	36.6211	63.9133	36.6211	63.8877	36.6211	63.8751	36.6211	63.8545	36.6211	63.8268	36.6211	63.8432	36.6211	63.791	36.6211	63.8853	36.6211	63.7987	36.6211	64.0134	36.6211	63.8847	36.6211	64.2527	36.6211	64.0799	36.6211	64.6118	36.6211	64.4005	36.6211	65.0789	36.6211	64.8413	36.6211	65.6241	36.6211	65.376	36.6211	66.2079	36.6211	65.9649	36.6211	66.7895	36.6211	66.5646	36.6211	67.3329	36.6211	67.1356	36.6211	67.8086	36.6211	67.6454	36.6211	68.1945	36.6211	68.0694	36.6211	68.4746	36.6211	68.3901	36.6211	68.6381	36.6211	68.5955	36.6211	68.679
38.0859	65.3963	38.0859	65.3853	38.0859	65.3829	38.0859	65.3552	38.0859	65.3479	38.0859	65.3192	38.0859	65.3025	38.0859	65.2979	38.0859	65.2656	38.0859	65.318	38.0859	65.2631	38.0859	65.4081	38.0859	65.3246	38.0859	65.5923	38.0859	65.4773	38.0859	65.8825	38.0859	65.7377	38.0859	66.2735	38.0859	66.1057	38.0859	66.7434	38.0859	66.563	38.0859	67.259	38.0859	67.0774	38.0859	67.7832	38.0859	67.611	38.0859	68.2809	38.0859	68.1267	38.0859	68.7222	38.0859	68.5926	38.0859	69.0839	38.0859	68.9833	38.0859	69.3487	38.0859	69.2802	38.0859	69.505	38.0859	69.4703	38.0859	69.5461
39.5508	66.706	39.5508	66.6915	39.5508	66.6969	39.5508	66.6574	39.5508	66.6665	39.5508	66.6148	39.5508	66.6237	39.5508	66.5806	39.5508	66.5841	39.5508	66.5773	39.5508	66.5687	39.5508	66.6297	39.5508	66.6024	39.5508	66.7604	39.5508	66.7091	39.5508	66.9834	39.5508	66.9058	39.5508	67.2988	39.5508	67.1971	39.5508	67.692	39.5508	67.5721	39.5508	68.1363	39.5508	68.0067	39.5508	68.5988	39.5508	68.469	39.5508	69.0463	39.5508	68.925	39.5508	69.449	39.5508	69.3436	39.5508	69.7827	39.5508	69.699	39.5508	70.0291	39.5508	69.9712	39.5508	70.1757	39.5508	70.1461	39.5508	70.2153
41.0156	67.7193	41.0156	67.7061	41.0156	67.7124	41.0156	67.6766	41.0156	67.6874	41.0156	67.6405	41.0156	67.6522	41.0156	67.6134	41.0156	67.6205	41.0156	67.615	41.0156	67.611	41.0156	67.6673	41.0156	67.6456	41.0156	67.7903	41.0156	67.7454	41.0156	67.9965	41.0156	67.9261	41.0156	68.287	41.0156	68.1924	41.0156	68.6494	41.0156	68.536	41.0156	69.0604	41.0156	68.9364	41.0156	69.4904	41.0156	69.3649	41.0156	69.9087	41.0156	69.7904	41.0156	70.2868	41.0156	70.1834	41.0156	70.6014	41.0156	70.5189	41.0156	70.8342	41.0156	70.7769	41.0156	70.9727	41.0156	70.9433	41.0156	71.0097
42.4805	68.7505	42.4805	68.74	42.4805	68.7442	42.4805	68.7163	42.4805	68.7231	42.4805	68.6879	42.4805	68.6942	42.4805	68.6683	42.4805	68.6696	42.4805	68.6747	42.4805	68.6656	42.4805	68.7264	42.4805	68.7015	42.4805	68.8407	42.4805	68.7956	42.4805	69.0291	42.4805	68.9618	42.4805	69.2932	42.4805	69.205	42.4805	69.6232	42.4805	69.5186	42.4805	69.9992	42.4805	69.8851	42.4805	70.3949	42.4805	70.2795	42.4805	70.7823	42.4805	70.6733	42.4805	71.1346	42.4805	71.0392	42.4805	71.4291	42.4805	71.3528	42.4805	71.6479	42.4805	71.5948	42.4805	71.7785	42.4805	71.7513	42.4805	71.8137
43.9453	69.7552	43.9453	69.7484	43.9453	69.7497	43.9453	69.7323	43.9453	69.7335	43.9453	69.7144	43.9453	69.7124	43.9453	69.706	43.9453	69.697	43.9453	69.7219	43.9453	69.7009	43.9453	69.7781	43.9453	69.7405	43.9453	69.8888	43.9453	69.8312	43.9453	70.0638	43.9453	69.9849	43.9453	70.3046	43.9453	70.206	43.9453	70.6032	43.9453	70.4898	43.9453	70.9431	43.9453	70.8216	43.9453	71.3017	43.9453	71.1801	43.9453	71.6541	43.9453	71.54	43.9453	71.9758	43.9453	71.8763	43.9453	72.2457	43.9453	72.1662	43.9453	72.4465	43.9453	72.3913	43.9453	72.566	43.9453	72.5377	43.9453	72.597
45.4102	70.5675	45.4102	70.5646	45.4102	70.5629	45.4102	70.5569	45.4102	70.5523	45.4102	70.5509	45.4102	70.5411	45.4102	70.5566	45.4102	70.5384	45.4102	70.5864	45.4102	70.5561	45.4102	70.6538	45.4102	70.6081	45.4102	70.7708	45.4102	70.7074	45.4102	70.945	45.4102	70.8636	45.4102	71.1773	45.4102	71.0799	45.4102	71.4606	45.4102	71.3515	45.4102	71.7802	45.4102	71.6655	45.4102	72.1162	45.4102	72.0026	45.4102	72.446	45.4102	72.3403	45.4102	72.7475	45.4102	72.6556	45.4102	73.0007	45.4102	72.9275	45.4102	73.1895	45.4102	73.1387	45.4102	73.3021	45.4102	73.2761	45.4102	73.3316
46.875	71.5015	46.875	71.5027	46.875	71.4959	46.875	71.5017	46.875	71.4871	46.875	71.5037	46.875	71.4798	46.875	71.5168	46.875	71.4814	46.875	71.5512	46.875	71.5018	46.875	71.6177	46.875	71.5524	46.875	71.7261	46.875	71.6438	46.875	71.8828	46.875	71.7841	46.875	72.0889	46.875	71.9762	46.875	72.3389	46.875	72.2166	46.875	72.621	46.875	72.495	46.875	72.9185	46.875	72.7952	46.875	73.2118	46.875	73.0978	46.875	73.481	46.875	73.3823	46.875	73.7079	46.875	73.6293	46.875	73.8771	46.875	73.8226	46.875	73.9774	46.875	73.9495	46.875	74.0022
48.3398	72.4004	48.3398	72.404	48.3398	72.3915	48.3398	72.4036	48.3398	72.3784	48.3398	72.404	48.3398	72.3655	48.3398	72.412	48.3398	72.3599	48.3398	72.4368	48.3398	72.3707	48.3398	72.4882	48.3398	72.4083	48.3398	72.5757	48.3398	72.4831	48.3398	72.7059	48.3398	72.6028	48.3398	72.8814	48.3398	72.7709	48.3398	73.0987	48.3398	72.985	48.3398	73.3483	48.3398	73.236	48.3398	73.6157	48.3398	73.5095	48.3398	73.8829	48.3398	73.7874	48.3398	74.1312	48.3398	74.0502	48.3398	74.3427	48.3398	74.2792	48.3398	74.502	48.3398	74.4585	48.3398	74.5978	48.3398	74.5757	48.3398	74.6231
51.2695	73.6797	51.2695	73.6747	51.2695	73.6855	51.2695	73.6718	51.2695	73.6927	51.2695	73.6746	51.2695	73.7045	51.2695	73.6888	51.2695	73.7258	51.2695	73.7215	51.2695	73.7631	51.2695	73.7801	51.2695	73.8236	51.2695	73.8717	51.2695	73.9139	51.2695	74.001	51.2695	74.039	51.2695	74.1693	51.2695	74.2007	51.2695	74.3731	51.2695	74.3963	51.2695	74.6041	51.2695	74.6189	51.2695	74.85	51.2695	74.8569	51.2695	75.0954	51.2695	75.0961	51.2695	75.324	51.2695	75.3206	51.2695	75.5199	51.2695	75.5148	51.2695	75.6698	51.2695	75.6651	51.2695	75.7633	51.2695	75.7605	51.2695	75.7941
52.7344	74.3946	52.7344	74.395	52.7344	74.3985	52.7344	74.4009	52.7344	74.4071	52.7344	74.4152	52.7344	74.4232	52.7344	74.4426	52.7344	74.4507	52.7344	74.4886	52.7344	74.4949	52.7344	74.5593	52.7344	74.5616	52.7344	74.6598	52.7344	74.6563	52.7344	74.7934	52.7344	74.7826	52.7344	74.9605	52.7344	74.9418	52.7344	75.1575	52.7344	75.1311	52.7344	75.3768	52.7344	75.3441	52.7344	75.6073	52.7344	75.5707	52.7344	75.8353	52.7344	75.7978	52.7344	76.0463	52.7344	76.011	52.7344	76.226	52.7344	76.1963	52.7344	76.3621	52.7344	76.3407	52.7344	76.4453	52.7344	76.4341	52.7344	76.4698
54.1992	75.1642	54.1992	75.166	54.1992	75.1683	54.1992	75.1744	54.1992	75.1786	54.1992	75.192	54.1992	75.1971	54.1992	75.2223	54.1992	75.2272	54.1992	75.2698	54.1992	75.273	54.1992	75.3391	54.1992	75.3391	54.1992	75.4343	54.1992	75.4296	54.1992	75.5579	54.1992	75.5475	54.1992	75.7101	54.1992	75.6936	54.1992	75.8879	54.1992	75.8655	54.1992	76.0849	54.1992	76.0578	54.1992	76.2916	54.1992	76.2616	54.1992	76.4963	54.1992	76.4658	54.1992	76.6861	54.1992	76.6576	54.1992	76.8483	54.1992	76.8242	54.1992	76.9715	54.1992	76.9542	54.1992	77.0472	54.1992	77.0382	54.1992	77.07
55.6641	75.7863	55.6641	75.7885	55.6641	75.7908	55.6641	75.798	55.6641	75.8023	55.6641	75.8168	55.6641	75.8226	55.6641	75.8479	55.6641	75.8541	55.6641	75.8947	55.6641	75.9003	55.6641	75.961	55.6641	75.9648	55.6641	76.0501	55.6641	76.051	55.6641	76.1642	55.6641	76.1611	55.6641	76.3033	55.6641	76.2957	55.6641	76.4649	55.6641	76.4528	55.6641	76.6435	55.6641	76.6275	55.6641	76.8311	55.6641	76.8123	55.6641	77.0172	55.6641	76.9973	55.6641	77.1903	55.6641	77.1711	55.6641	77.3387	55.6641	77.3222	55.6641	77.452	55.6641	77.4399	55.6641	77.5221	55.6641	77.5157	55.6641	77.5438
58.5938	76.8531	58.5938	76.8553	58.5938	76.8592	58.5938	76.8665	58.5938	76.874	58.5938	76.8877	58.5938	76.8984	58.5938	76.9209	58.5938	76.934	58.5938	76.9684	58.5938	76.9829	58.5938	77.0325	58.5938	77.0473	58.5938	77.1153	58.5938	77.1292	58.5938	77.2179	58.5938	77.2299	58.5938	77.3403	58.5938	77.3495	58.5938	77.4803	58.5938	77.486	58.5938	77.6337	58.5938	77.6358	58.5938	77.794	58.5938	77.7928	58.5938	77.9529	58.5938	77.9492	58.5938	78.101	58.5938	78.0958	58.5938	78.2284	58.5938	78.223	58.5938	78.3262	58.5938	78.3219	58.5938	78.3875	58.5938	78.385	58.5938	78.4075
60.0586	77.3511	60.0586	77.353	60.0586	77.3584	60.0586	77.3644	60.0586	77.375	60.0586	77.3864	60.0586	77.4017	60.0586	77.4203	60.0586	77.4394	60.0586	77.4678	60.0586	77.4899	60.0586	77.5307	60.0586	77.5544	60.0586	77.6103	60.0586	77.6345	60.0586	77.7076	60.0586	77.7309	60.0586	77.8222	60.0586	77.8433	60.0586	77.9522	60.0586	77.97	60.0586	78.0937	60.0586	78.1077	60.0586	78.2411	60.0586	78.2512	60.0586	78.3871	60.0586	78.3935	60.0586	78.523	60.0586	78.5265	60.0586	78.6402	60.0586	78.6416	60.0586	78.7306	60.0586	78.7309	60.0586	78.7875	60.0586	78.7875	60.0586	78.8069
62.9883	78.3299	62.9883	78.3326	62.9883	78.3373	62.9883	78.3457	62.9883	78.3547	62.9883	78.3695	62.9883	78.3824	62.9883	78.4047	62.9883	78.4208	62.9883	78.452	62.9883	78.4703	62.9883	78.5121	62.9883	78.5315	62.9883	78.5855	62.9883	78.6048	62.9883	78.6722	62.9883	78.6904	62.9883	78.7716	62.9883	78.7875	62.9883	78.8819	62.9883	78.8949	62.9883	79.0002	62.9883	79.0098	62.9883	79.122	62.9883	79.1283	62.9883	79.2419	62.9883	79.2452	62.9883	79.3531	62.9883	79.3541	62.9883	79.4489	62.9883	79.4485	62.9883	79.5226	62.9883	79.5217	62.9883	79.5689	62.9883	79.5683	62.9883	79.5845
64.4531	78.7727	64.4531	78.7768	64.4531	78.7788	64.4531	78.7913	64.4531	78.7952	64.4531	78.8164	64.4531	78.8218	64.4531	78.8524	64.4531	78.8587	64.4531	78.8996	64.4531	78.9063	64.4531	78.9581	64.4531	78.9646	64.4531	79.0283	64.4531	79.0336	64.4531	79.1096	64.4531	79.1133	64.4531	79.2015	64.4531	79.203	64.4531	79.3023	64.4531	79.3013	64.4531	79.4093	64.4531	79.4058	64.4531	79.5189	64.4531	79.5132	64.4531	79.6261	64.4531	79.619	64.4531	79.7252	64.4531	79.7176	64.4531	79.8102	64.4531	79.8032	64.4531	79.8753	64.4531	79.8699	64.4531	79.9158	64.4531	79.9129	64.4531	79.9286
67.3828	79.5041	67.3828	79.5102	67.3828	79.5089	67.3828	79.527	67.3828	79.5244	67.3828	79.5544	67.3828	79.5505	67.3828	79.5919	67.3828	79.5868	67.3828	79.639	67.3828	79.6328	67.3828	79.6954	67.3828	79.6881	67.3828	79.7604	67.3828	79.752	67.3828	79.8331	67.3828	79.8238	67.3828	79.9127	67.3828	79.9024	67.3828	79.9977	67.3828	79.9866	67.3828	80.0861	67.3828	80.0745	67.3828	80.1751	67.3828	80.1634	67.3828	80.2614	67.3828	80.2499	67.3828	80.3406	67.3828	80.3302	67.3828	80.4082	67.3828	80.3995	67.3828	80.4598	67.3828	80.4536	67.3828	80.4917	67.3828	80.4884	67.3828	80.5015
68.8477	79.8377	68.8477	79.8432	68.8477	79.8432	68.8477	79.8597	68.8477	79.8597	68.8477	79.8866	68.8477	79.8867	68.8477	79.9235	68.8477	79.9238	68.8477	79.9697	68.8477	79.9701	68.8477	80.0241	68.8477	80.0247	68.8477	80.0861	68.8477	80.0868	68.8477	80.1545	68.8477	80.1553	68.8477	80.2284	68.8477	80.2291	68.8477	80.3064	68.8477	80.3067	68.8477	80.3866	68.8477	80.3865	68.8477	80.4669	68.8477	80.4663	68.8477	80.5443	68.8477	80.5432	68.8477	80.6153	68.8477	80.6138	68.8477	80.6759	68.8477	80.6744	68.8477	80.7225	68.8477	80.7212	68.8477	80.7517	68.8477	80.751	68.8477	80.7614
71.7773	80.5715	71.7773	80.5768	71.7773	80.5776	71.7773	80.5933	71.7773	80.5951	71.7773	80.6205	71.7773	80.6233	71.7773	80.6572	71.7773	80.6612	71.7773	80.7022	71.7773	80.7074	71.7773	80.7542	71.7773	80.7607	71.7773	80.8118	71.7773	80.8194	71.7773	80.8735	71.7773	80.882	71.7773	80.938	71.7773	80.9473	71.7773	81.0041	71.7773	81.0136	71.7773	81.0703	71.7773	81.0797	71.7773	81.1351	71.7773	81.1439	71.7773	81.1965	71.7773	81.2042	71.7773	81.2522	71.7773	81.2586	71.7773	81.2996	71.7773	81.3045	71.7773	81.3361	71.7773	81.3394	71.7773	81.3593	71.7773	81.361	71.7773	81.3678
74.707	81.2097	74.707	81.2151	74.707	81.2159	74.707	81.2317	74.707	81.2334	74.707	81.2587	74.707	81.2615	74.707	81.2947	74.707	81.2988	74.707	81.3381	74.707	81.3436	74.707	81.3869	74.707	81.3941	74.707	81.4394	74.707	81.4484	74.707	81.4939	74.707	81.5045	74.707	81.5488	74.707	81.5608	74.707	81.603	74.707	81.6159	74.707	81.6553	74.707	81.6686	74.707	81.7048	74.707	81.7179	74.707	81.7506	74.707	81.7626	74.707	81.7912	74.707	81.8017	74.707	81.8255	74.707	81.8338	74.707	81.8519	74.707	81.8576	74.707	81.8689	74.707	81.8719	74.707	81.8757
77.6367	81.663	77.6367	81.6685	77.6367	81.6691	77.6367	81.6852	77.6367	81.6865	77.6367	81.712	77.6367	81.7142	77.6367	81.7472	77.6367	81.7508	77.6367	81.7889	77.6367	81.7941	77.6367	81.8348	77.6367	81.8421	77.6367	81.8828	77.6367	81.8922	77.6367	81.9308	77.6367	81.9425	77.6367	81.9772	77.6367	81.991	77.6367	82.0208	77.6367	82.0362	77.6367	82.0608	77.6367	82.0772	77.6367	82.0968	77.6367	82.1133	77.6367	82.1285	77.6367	82.1442	77.6367	82.1558	77.6367	82.1697	77.6367	82.1782	77.6367	82.1895	77.6367	82.1954	77.6367	82.2034	77.6367	82.2069	77.6367	82.211	77.6367	82.2121
79.1016	81.8712	79.1016	81.8763	79.1016	81.8777	79.1016	81.8926	79.1016	81.8955	79.1016	81.919	79.1016	81.9237	79.1016	81.9537	79.1016	81.9605	79.1016	81.9946	79.1016	82.0037	79.1016	82.0392	79.1016	82.0511	79.1016	82.0853	79.1016	82.0999	79.1016	82.1307	79.1016	82.148	79.1016	82.1736	79.1016	82.1934	79.1016	82.2129	79.1016	82.2346	79.1016	82.2479	79.1016	82.2705	79.1016	82.2783	79.1016	82.3009	79.1016	82.3043	79.1016	82.3256	79.1016	82.326	79.1016	82.3449	79.1016	82.3436	79.1016	82.3589	79.1016	82.3572	79.1016	82.368	79.1016	82.3667	79.1016	82.3722	79.1016	82.3717
82.0312	82.3707	82.0312	82.3754	82.0312	82.3776	82.0312	82.3913	82.0312	82.3958	82.0312	82.417	82.0312	82.424	82.0312	82.4506	82.0312	82.4604	82.0312	82.4898	82.0312	82.5025	82.0312	82.5319	82.0312	82.5477	82.0312	82.5742	82.0312	82.5932	82.0312	82.6144	82.0312	82.6363	82.0312	82.6506	82.0312	82.675	82.0312	82.6815	82.0312	82.7078	82.0312	82.7067	82.0312	82.7338	82.0312	82.7262	82.0312	82.7531	82.0312	82.7408	82.0312	82.7661	82.0312	82.7515	82.0312	82.7737	82.0312	82.7594	82.0312	82.7773	82.0312	82.7653	82.0312	82.7779	82.0312	82.77	82.0312	82.7765	82.0312	82.7737
84.9609	82.8091	84.9609	82.814	84.9609	82.8157	84.9609	82.8298	84.9609	82.8334	84.9609	82.8553	84.9609	82.8608	84.9609	82.8882	84.9609	82.8961	84.9609	82.9262	84.9609	82.9367	84.9609	82.9662	84.9609	82.9796	84.9609	83.0055	84.9609	83.0219	84.9609	83.0415	84.9609	83.0608	84.9609	83.0722	84.9609	83.0941	84.9609	83.0964	84.9609	83.1203	84.9609	83.1135	84.9609	83.1385	84.9609	83.1241	84.9609	83.1491	84.9609	83.1292	84.9609	83.153	84.9609	83.1306	84.9609	83.1518	84.9609	83.1301	84.9609	83.1474	84.9609	83.1294	84.9609	83.1415	84.9609	83.1297	84.9609	83.136	84.9609	83.1319
87.8906	83.1177	87.8906	83.125	87.8906	83.1217	87.8906	83.1431	87.8906	83.1366	87.8906	83.1704	87.8906	83.1614	87.8906	83.2047	87.8906	83.1939	87.8906	83.2433	87.8906	83.2316	87.8906	83.283	87.8906	83.2714	87.8906	83.3209	87.8906	83.3102	87.8906	83.3542	87.8906	83.3452	87.8906	83.3806	87.8906	83.374	87.8906	83.3989	87.8906	83.3949	87.8906	83.4088	87.8906	83.4074	87.8906	83.4108	87.8906	83.4117	87.8906	83.4066	87.8906	83.4092	87.8906	83.3984	87.8906	83.4019	87.8906	83.3887	87.8906	83.3923	87.8906	83.38	87.8906	83.3829	87.8906	83.3743	87.8906	83.3759	87.8906	83.3728
90.8203	83.4632	90.8203	83.4699	90.8203	83.467	90.8203	83.4866	90.8203	83.481	90.8203	83.5117	90.8203	83.5039	90.8203	83.543	90.8203	83.5337	90.8203	83.5777	90.8203	83.5676	90.8203	83.6126	90.8203	83.6026	90.8203	83.6445	90.8203	83.6355	90.8203	83.6706	90.8203	83.6633	90.8203	83.6887	90.8203	83.6835	90.8203	83.6974	90.8203	83.6948	90.8203	83.6966	90.8203	83.6964	90.8203	83.6873	90.8203	83.6892	90.8203	83.6714	90.8203	83.6748	90.8203	83.6519	90.8203	83.6562	90.8203	83.6323	90.8203	83.6364	90.8203	83.6156	90.8203	83.6189	90.8203	83.6049	90.8203	83.6067	90.8203	83.6017
95.2148	83.8862	95.2148	83.8918	95.2148	83.8901	95.2148	83.9063	95.2148	83.9031	95.2148	83.9283	95.2148	83.9241	95.2148	83.9555	95.2148	83.9508	95.2148	83.9849	95.2148	83.9804	95.2148	84.0133	95.2148	84.0099	95.2148	84.0376	95.2148	84.0359	95.2148	84.0546	95.2148	84.0552	95.2148	84.0623	95.2148	84.0656	95.2148	84.0593	95.2148	84.0654	95.2148	84.0456	95.2148	84.0542	95.2148	84.0226	95.2148	84.0332	95.2148	83.993	95.2148	84.0046	95.2148	83.9606	95.2148	83.972	95.2148	83.9296	95.2148	83.9395	95.2148	83.9043	95.2148	83.9117	95.2148	83.8884	95.2148	83.8923	95.2148	83.8842
98.1445	84.0587	98.1445	84.0638	98.1445	84.0626	98.1445	84.0772	98.1445	84.0751	98.1445	84.0976	98.1445	84.0949	98.1445	84.1226	98.1445	84.1199	98.1445	84.1494	98.1445	84.1473	98.1445	84.1746	98.1445	84.1739	98.1445	84.1949	98.1445	84.1964	98.1445	84.2075	98.1445	84.2116	98.1445	84.2099	98.1445	84.2169	98.1445	84.201	98.1445	84.211	98.1445	84.1808	98.1445	84.1934	98.1445	84.1509	98.1445	84.1654	98.1445	84.1143	98.1445	84.1295	98.1445	84.075	98.1445	84.0897	98.1445	84.038	98.1445	84.0508	98.1445	84.0082	98.1445	84.0175	98.1445	83.9895	98.1445	83.9945	98.1445	83.9847
101.074	84.2469	101.074	84.2511	101.074	84.251	101.074	84.2629	101.074	84.263	101.074	84.281	101.074	84.2816	101.074	84.3031	101.074	84.3047	101.074	84.3263	101.074	84.3295	101.074	84.3474	101.074	84.3529	101.074	84.3632	101.074	84.3714	101.074	84.3706	101.074	84.3819	101.074	84.3673	101.074	84.3819	101.074	84.3521	101.074	84.3699	101.074	84.3252	101.074	84.3457	101.074	84.2884	101.074	84.3104	101.074	84.2449	101.074	84.2672	101.074	84.1992	101.074	84.2201	101.074	84.1567	101.074	84.1744	101.074	84.1227	101.074	84.1356	101.074	84.1018	101.074	84.1086	101.074	84.0968
105.469	84.5144	105.469	84.5187	105.469	84.5172	105.469	84.5294	105.469	84.5266	105.469	84.5452	105.469	84.5416	105.469	84.5638	105.469	84.56	105.469	84.5825	105.469	84.5793	105.469	84.5981	105.469	84.5962	105.469	84.6073	105.469	84.6076	105.469	84.6072	105.469	84.6103	105.469	84.5954	105.469	84.6018	105.469	84.5709	105.469	84.5807	105.469	84.5339	105.469	84.5469	105.469	84.4865	105.469	84.5019	105.469	84.4324	105.469	84.4489	105.469	84.3766	105.469	84.3928	105.469	84.3251	105.469	84.3393	105.469	84.2839	105.469	84.2945	105.469	84.2582	105.469	84.2638	105.469	84.2512
108.398	84.6274	108.398	84.6323	108.398	84.6292	108.398	84.6435	108.398	84.6376	108.398	84.6595	108.398	84.6512	108.398	84.6781	108.398	84.6682	108.398	84.6966	108.398	84.6859	108.398	84.7117	108.398	84.7012	108.398	84.7202	108.398	84.7109	108.398	84.719	108.398	84.7118	108.398	84.7057	108.398	84.7014	108.398	84.6793	108.398	84.6783	108.398	84.64	108.398	84.6424	108.398	84.5898	108.398	84.5952	108.398	84.5325	108.398	84.54	108.398	84.4734	108.398	84.4819	108.398	84.4186	108.398	84.4267	108.398	84.3745	108.398	84.3808	108.398	84.3464	108.398	84.3498	108.398	84.3378
112.793	84.7206	112.793	84.7251	112.793	84.7227	112.793	84.7355	112.793	84.7309	112.793	84.7506	112.793	84.7442	112.793	84.7683	112.793	84.7607	112.793	84.7859	112.793	84.7777	112.793	84.8003	112.793	84.7922	112.793	84.8082	112.793	84.801	112.793	84.8064	112.793	84.801	112.793	84.7925	112.793	84.7895	112.793	84.7653	112.793	84.7649	112.793	84.7248	112.793	84.7272	112.793	84.673	112.793	84.6779	112.793	84.6137	112.793	84.6204	112.793	84.5524	112.793	84.5598	112.793	84.4953	112.793	84.5023	112.793	84.4491	112.793	84.4546	112.793	84.4195	112.793	84.4225	112.793	84.4102
117.188	84.752	117.188	84.7559	117.188	84.7538	117.188	84.7648	117.188	84.761	117.188	84.7777	117.188	84.7725	117.188	84.7925	117.188	84.7868	117.188	84.8068	117.188	84.8014	117.188	84.8176	117.188	84.8135	117.188	84.8217	117.188	84.8198	117.188	84.816	117.188	84.8174	117.188	84.7983	117.188	84.8035	117.188	84.7672	117.188	84.7765	117.188	84.7231	117.188	84.7361	117.188	84.6679	117.188	84.6839	117.188	84.6055	117.188	84.6233	117.188	84.5417	117.188	84.5593	117.188	84.4828	117.188	84.4984	117.188	84.4358	117.188	84.4475	117.188	84.4063	117.188	84.4126	117.188	84.3982
120.117	84.8586	120.117	84.8645	120.117	84.857	120.117	84.8741	120.117	84.8595	120.117	84.8866	120.117	84.8654	120.117	84.9001	120.117	84.8731	120.117	84.9123	120.117	84.8807	120.117	84.9204	120.117	84.8857	120.117	84.9214	120.117	84.8854	120.117	84.9124	120.117	84.8769	120.117	84.8911	120.117	84.8579	120.117	84.8561	120.117	84.827	120.117	84.8079	120.117	84.7838	120.117	84.7484	120.117	84.73	120.117	84.6817	120.117	84.6689	120.117	84.6134	120.117	84.6055	120.117	84.5502	120.117	84.546	120.117	84.499	120.117	84.4972	120.117	84.4656	120.117	84.465	120.117	84.4539
124.512	85.0082	124.512	85.0106	124.512	85.009	124.512	85.0157	124.512	85.0125	124.512	85.0229	124.512	85.018	124.512	85.0307	124.512	85.0242	124.512	85.0372	124.512	85.0292	124.512	85.0399	124.512	85.0306	124.512	85.036	124.512	85.0259	124.512	85.0229	124.512	85.0124	124.512	84.9981	124.512	84.988	124.512	84.9604	124.512	84.9513	124.512	84.91	124.512	84.9026	124.512	84.8488	124.512	84.8433	124.512	84.7806	124.512	84.7772	124.512	84.7111	124.512	84.7094	124.512	84.6468	124.512	84.6464	124.512	84.5947	124.512	84.595	124.512	84.5609	124.512	84.5611	124.512	84.5492
128.906	85.0484	128.906	85.0469	128.906	85.0511	128.906	85.0465	128.906	85.0549	128.906	85.0466	128.906	85.0589	128.906	85.046	128.906	85.0622	128.906	85.0433	128.906	85.063	128.906	85.0362	128.906	85.0592	128.906	85.0225	128.906	85.0484	128.906	84.9997	128.906	85.0282	128.906	84.966	128.906	84.9966	128.906	84.9203	128.906	84.9523	128.906	84.863	128.906	84.8956	128.906	84.7962	128.906	84.8283	128.906	84.7239	128.906	84.7542	128.906	84.6517	128.906	84.6786	128.906	84.5863	128.906	84.6083	128.906	84.5347	128.906	84.5503	128.906	84.5027	128.906	84.5108	128.906	84.4943
133.301	85.0556	133.301	85.0537	133.301	85.0575	133.301	85.0517	133.301	85.0593	133.301	85.0488	133.301	85.0604	133.301	85.044	133.301	85.0598	133.301	85.0358	133.301	85.0557	133.301	85.022	133.301	85.0463	133.301	85.0004	133.301	85.029	133.301	84.9687	133.301	85.0016	133.301	84.9254	133.301	84.962	133.301	84.8694	133.301	84.9091	133.301	84.8017	133.301	84.8431	133.301	84.7246	133.301	84.7663	133.301	84.6426	133.301	84.6826	133.301	84.562	133.301	84.5979	133.301	84.4898	133.301	84.5193	133.301	84.4334	133.301	84.4545	133.301	84.3991	133.301	84.4101	133.301	84.3909
139.16	84.9773	139.16	84.9772	139.16	84.977	139.16	84.9766	139.16	84.9763	139.16	84.9748	139.16	84.9747	139.16	84.9711	139.16	84.9715	139.16	84.9639	139.16	84.9653	139.16	84.9515	139.16	84.9542	139.16	84.9316	139.16	84.9361	139.16	84.9019	139.16	84.9086	139.16	84.8606	139.16	84.8695	139.16	84.8069	139.16	84.8178	139.16	84.7412	139.16	84.7536	139.16	84.6658	139.16	84.679	139.16	84.585	139.16	84.5981	139.16	84.5046	139.16	84.5167	139.16	84.4318	139.16	84.4419	139.16	84.3739	139.16	84.3811	139.16	84.337	139.16	84.3408	139.16	84.3255
143.555	84.9372	143.555	84.9389	143.555	84.9342	143.555	84.9387	143.555	84.9297	143.555	84.9364	143.555	84.924	143.555	84.9312	143.555	84.9165	143.555	84.922	143.555	84.9067	143.555	84.9072	143.555	84.893	143.555	84.8849	143.555	84.8736	143.555	84.8532	143.555	84.8464	143.555	84.8104	143.555	84.8093	143.555	84.7557	143.555	84.7609	143.555	84.6898	143.555	84.7011	143.555	84.6151	143.555	84.6314	143.555	84.5358	143.555	84.5552	143.555	84.4578	143.555	84.478	143.555	84.3881	143.555	84.4064	143.555	84.3334	143.555	84.3473	143.555	84.2997	143.555	84.3071	143.555	84.2906
147.949	84.9668	147.949	84.9737	147.949	84.9558	147.949	84.9764	147.949	84.941	147.949	84.9748	147.949	84.9228	147.949	84.9686	147.949	84.9014	147.949	84.9573	147.949	84.8769	147.949	84.9399	147.949	84.8489	147.949	84.915	147.949	84.8168	147.949	84.8811	147.949	84.7793	147.949	84.8367	147.949	84.7355	147.949	84.7814	147.949	84.6845	147.949	84.7156	147.949	84.6267	147.949	84.6415	147.949	84.5634	147.949	84.563	147.949	84.4975	147.949	84.4854	147.949	84.4335	147.949	84.4148	147.949	84.3767	147.949	84.3574	147.949	84.3325	147.949	84.3182	147.949	84.306	147.949	84.3008
153.809	84.9829	153.809	84.979	153.809	84.9813	153.809	84.9698	153.809	84.9741	153.809	84.9556	153.809	84.961	153.809	84.9363	153.809	84.9419	153.809	84.9115	153.809	84.9163	153.809	84.8804	153.809	84.8833	153.809	84.8419	153.809	84.8419	153.809	84.7944	153.809	84.791	153.809	84.737	153.809	84.7298	153.809	84.6692	153.809	84.6583	153.809	84.5919	153.809	84.5779	153.809	84.5075	153.809	84.4913	153.809	84.4202	153.809	84.403	153.809	84.3354	153.809	84.3189	153.809	84.2595	153.809	84.2453	153.809	84.1988	153.809	84.1883	153.809	84.1587	153.809	84.1531	153.809	84.143
159.668	84.7923	159.668	84.7875	159.668	84.7924	159.668	84.7783	159.668	84.7876	159.668	84.7653	159.668	84.7778	159.668	84.7486	159.668	84.763	159.668	84.728	159.668	84.7429	159.668	84.7025	159.668	84.7166	159.668	84.6706	159.668	84.6827	159.668	84.6301	159.668	84.6395	159.668	84.5792	159.668	84.5854	159.668	84.5166	159.668	84.5196	159.668	84.4427	159.668	84.4426	159.668	84.3596	159.668	84.3568	159.668	84.2715	159.668	84.2667	159.668	84.1843	159.668	84.1785	159.668	84.1054	159.668	84.0996	159.668	84.0419	159.668	84.0373	159.668	84.0003	159.668	83.9978	159.668	83.985
165.527	84.5339	165.527	84.5219	165.527	84.535	165.527	84.4998	165.527	84.5256	165.527	84.4689	165.527	84.5069	165.527	84.4313	165.527	84.4807	165.527	84.389	165.527	84.4487	165.527	84.3438	165.527	84.4123	165.527	84.2963	165.527	84.372	165.527	84.2466	165.527	84.3275	165.527	84.1939	165.527	84.2778	165.527	84.1373	165.527	84.2218	165.527	84.0767	165.527	84.159	165.527	84.0128	165.527	84.0902	165.527	83.948	165.527	84.0176	165.527	83.8861	165.527	83.9453	165.527	83.8321	165.527	83.8786	165.527	83.7912	165.527	83.8232	165.527	83.7679	165.527	83.7842	165.527	83.7652
171.387	84.5019	171.387	84.4991	171.387	84.4905	171.387	84.4828	171.387	84.4651	171.387	84.454	171.387	84.4266	171.387	84.4143	171.387	84.3761	171.387	84.3654	171.387	84.3155	171.387	84.3085	171.387	84.2463	171.387	84.245	171.387	84.1701	171.387	84.1755	171.387	84.0886	171.387	84.1006	171.387	84.0033	171.387	84.0213	171.387	83.9162	171.387	83.9387	171.387	83.8297	171.387	83.855	171.387	83.7468	171.387	83.773	171.387	83.6711	171.387	83.6963	171.387	83.6062	171.387	83.6284	171.387	83.5555	171.387	83.5729	171.387	83.5216	171.387	83.5327	171.387	83.5063	171.387	83.5101
177.246	84.5316	177.246	84.5162	177.246	84.5294	177.246	84.4837	177.246	84.5101	177.246	84.4356	177.246	84.4751	177.246	84.3737	177.246	84.4263	177.246	84.3004	177.246	84.3658	177.246	84.2179	177.246	84.2955	177.246	84.1282	177.246	84.2168	177.246	84.0328	177.246	84.1303	177.246	83.9334	177.246	84.0366	177.246	83.8317	177.246	83.9363	177.246	83.7298	177.246	83.831	177.246	83.6306	177.246	83.7236	177.246	83.5377	177.246	83.6182	177.246	83.4552	177.246	83.5202	177.246	83.387	177.246	83.4353	177.246	83.3372	177.246	83.3687	177.246	83.3088	177.246	83.3243	177.246	83.3042
183.105	84.5499	183.105	84.5371	183.105	84.5458	183.105	84.5081	183.105	84.5248	183.105	84.4645	183.105	84.488	183.105	84.4082	183.105	84.4373	183.105	84.3415	183.105	84.3748	183.105	84.2659	183.105	84.3027	183.105	84.1829	183.105	84.2231	183.105	84.0932	183.105	84.1374	183.105	83.9977	183.105	84.0468	183.105	83.8978	183.105	83.9524	183.105	83.7957	183.105	83.8557	183.105	83.6949	183.105	83.7587	183.105	83.5999	183.105	83.6644	183.105	83.5158	183.105	83.5766	183.105	83.4477	183.105	83.4996	183.105	83.3996	183.105	83.4375	183.105	83.3742	183.105	83.3942	183.105	83.3725
188.965	84.4467	188.965	84.4314	188.965	84.4427	188.965	84.3978	188.965	84.4198	188.965	84.3484	188.965	84.3794	188.965	84.2862	188.965	84.3239	188.965	84.2146	188.965	84.2562	188.965	84.137	188.965	84.1792	188.965	84.0559	188.965	84.0957	188.965	83.9732	188.965	84.0076	188.965	83.8897	188.965	83.9169	188.965	83.8063	188.965	83.8254	188.965	83.7237	188.965	83.7349	188.965	83.6435	188.965	83.6479	188.965	83.5679	188.965	83.5674	188.965	83.4999	188.965	83.4965	188.965	83.4425	188.965	83.4382	188.965	83.3989	188.965	83.3951	188.965	83.3712	188.965	83.3691	188.965	83.3611
196.289	84.402	196.289	84.3848	196.289	84.3947	196.289	84.344	196.289	84.3636	196.289	84.2822	196.289	84.311	196.289	84.2031	196.289	84.2401	196.289	84.1113	196.289	84.1551	196.289	84.0118	196.289	84.0603	196.289	83.9094	196.289	83.96	196.289	83.8081	196.289	83.8577	196.289	83.7115	196.289	83.7567	196.289	83.6221	196.289	83.6598	196.289	83.5418	196.289	83.5698	196.289	83.4719	196.289	83.4893	196.289	83.413	196.289	83.4205	196.289	83.3655	196.289	83.3652	196.289	83.329	196.289	83.3241	196.289	83.3028	196.289	83.297	196.289	83.2863	196.289	83.2825	196.289	83.2794
203.613	84.2318	203.613	84.2157	203.613	84.2179	203.613	84.1699	203.613	84.1755	203.613	84.0967	203.613	84.1077	203.613	83.9999	203.613	84.0191	203.613	83.8851	203.613	83.9151	203.613	83.7583	203.613	83.8014	203.613	83.6264	203.613	83.6835	203.613	83.4959	203.613	83.5664	203.613	83.3733	203.613	83.4544	203.613	83.2642	203.613	83.3515	203.613	83.1729	203.613	83.2607	203.613	83.1025	203.613	83.1847	203.613	83.0534	203.613	83.125	203.613	83.0241	203.613	83.0815	203.613	83.0105	203.613	83.0526	203.613	83.0078	203.613	83.0348	203.613	83.0109	203.613	83.024	203.613	83.0166
210.938	84.3829	210.938	84.3703	210.938	84.3589	210.938	84.3214	210.938	84.2998	210.938	84.2383	210.938	84.2088	210.938	84.1247	210.938	84.0905	210.938	83.9855	210.938	83.9506	210.938	83.827	210.938	83.7958	210.938	83.656	210.938	83.6331	210.938	83.4801	210.938	83.4691	210.938	83.3067	210.938	83.3104	210.938	83.1435	210.938	83.1628	210.938	82.9973	210.938	83.0313	210.938	82.8739	210.938	82.9195	210.938	82.7773	210.938	82.8296	210.938	82.7087	210.938	82.7615	210.938	82.6661	210.938	82.7129	210.938	82.6451	210.938	82.68	210.938	82.6397	210.938	82.6584	210.938	82.6451
218.262	84.4615	218.262	84.4475	218.262	84.4452	218.262	84.4043	218.262	84.399	218.262	84.334	218.262	84.3245	218.262	84.2393	218.262	84.2246	218.262	84.1237	218.262	84.1033	218.262	83.9914	218.262	83.9652	218.262	83.8468	218.262	83.8158	218.262	83.6949	218.262	83.661	218.262	83.5413	218.262	83.5065	218.262	83.3923	218.262	83.3586	218.262	83.254	218.262	83.2229	218.262	83.1323	218.262	83.1046	218.262	83.0314	218.262	83.0074	218.262	82.9532	218.262	82.9332	218.262	82.8972	218.262	82.8814	218.262	82.8605	218.262	82.8494	218.262	82.8393	218.262	82.8335	218.262	82.8307
225.586	84.1567	225.586	84.1373	225.586	84.1419	225.586	84.0859	225.586	84.093	225.586	84.0064	225.586	84.0122	225.586	83.9042	225.586	83.9038	225.586	83.7858	225.586	83.7732	225.586	83.6575	225.586	83.6274	225.586	83.5253	225.586	83.4737	225.586	83.3945	225.586	83.3197	225.586	83.2695	225.586	83.1729	225.586	83.154	225.586	83.04	225.586	83.0511	225.586	82.9269	225.586	82.9631	225.586	82.8374	225.586	82.8912	225.586	82.773	225.586	82.8354	225.586	82.7326	225.586	82.7939	225.586	82.7125	225.586	82.7638	225.586	82.7078	225.586	82.7418	225.586	82.7133	225.586	82.7252
232.91	84.2967	232.91	84.27	232.91	84.2764	232.91	84.1971	232.91	84.2105	232.91	84.0807	232.91	84.1022	232.91	83.9254	232.91	83.9566	232.91	83.738	232.91	83.7804	232.91	83.5266	232.91	83.5816	232.91	83.3016	232.91	83.3693	232.91	83.0744	232.91	83.1537	232.91	82.8575	232.91	82.9451	232.91	82.6631	232.91	82.754	232.91	82.5012	232.91	82.5896	232.91	82.3781	232.91	82.4583	232.91	82.2949	232.91	82.3626	232.91	82.2473	232.91	82.3004	232.91	82.2271	232.91	82.2653	232.91	82.2241	232.91	82.2483	232.91	82.2288	232.91	82.2404	232.91	82.2349
241.699	84.2511	241.699	84.2396	241.699	84.2169	241.699	84.1843	241.699	84.1368	241.699	84.0883	241.699	84.0122	241.699	83.9557	241.699	83.8462	241.699	83.7914	241.699	83.644	241.699	83.6008	241.699	83.4124	241.699	83.3904	241.699	83.16	241.699	83.168	241.699	82.8971	241.699	82.9426	241.699	82.6357	241.699	82.7245	241.699	82.3897	241.699	82.5242	241.699	82.173	241.699	82.3504	241.699	81.9984	241.699	82.2082	241.699	81.8739	241.699	82.0974	241.699	81.8009	241.699	82.0136	241.699	81.7735	241.699	81.9492	241.699	81.7806	241.699	81.8962	241.699	81.8094	241.699	81.8498
250.488	84.1163	250.488	84.0769	250.488	84.1123	250.488	83.9963	250.488	84.0642	250.488	83.8788	250.488	83.9733	250.488	83.7299	250.488	83.8422	250.488	83.5559	250.488	83.6749	250.488	83.3633	250.488	83.4765	250.488	83.159	250.488	83.253	250.488	82.9498	250.488	83.0121	250.488	82.743	250.488	82.7635	250.488	82.5469	250.488	82.5192	250.488	82.3701	250.488	82.2933	250.488	82.2203	250.488	82.1002	250.488	82.1022	250.488	81.9518	250.488	82.0153	250.488	81.8541	250.488	81.954	250.488	81.805	250.488	81.9095	250.488	81.7952	250.488	81.8729	250.488	81.811	250.488	81.8396
259.277	84.4503	259.277	84.414	259.277	84.4398	259.277	84.3322	259.277	84.3831	259.277	84.2082	259.277	84.2824	259.277	84.0467	259.277	84.1416	259.277	83.8535	259.277	83.9659	259.277	83.6352	259.277	83.7609	259.277	83.3983	259.277	83.5331	259.277	83.1504	259.277	83.2895	259.277	82.8997	259.277	83.038	259.277	82.6561	259.277	82.788	259.277	82.431	259.277	82.5501	259.277	82.2358	259.277	82.3359	259.277	82.0793	259.277	82.156	259.277	81.9652	259.277	82.0173	259.277	81.8907	259.277	81.9211	259.277	81.8479	259.277	81.8625	259.277	81.8274	259.277	81.8326	259.277	81.8227
268.066	84.3703	268.066	84.3358	268.066	84.3614	268.066	84.2599	268.066	84.3102	268.066	84.1472	268.066	84.2199	268.066	84.0048	268.066	84.0962	268.066	83.8408	268.066	83.9459	268.066	83.664	268.066	83.7766	268.066	83.4828	268.066	83.5959	268.066	83.3043	268.066	83.4113	268.066	83.1347	268.066	83.23	268.066	82.9795	268.066	83.0594	268.066	82.8439	268.066	82.9071	268.066	82.7326	268.066	82.7796	268.066	82.6489	268.066	82.6814	268.066	82.5927	268.066	82.6135	268.066	82.5606	268.066	82.5726	268.066	82.546	268.066	82.5521	268.066	82.5414	268.066	82.5438	268.066	82.5412
276.855	83.9734	276.855	83.9295	276.855	83.9613	276.855	83.8318	276.855	83.8936	276.855	83.686	276.855	83.7741	276.855	83.5002	276.855	83.609	276.855	83.2851	276.855	83.4074	276.855	83.0527	276.855	83.1805	276.855	82.8161	276.855	82.9409	276.855	82.5878	276.855	82.7024	276.855	82.3799	276.855	82.4786	276.855	82.2028	276.855	82.2826	276.855	82.0648	276.855	82.1249	276.855	81.9711	276.855	82.0127	276.855	81.9217	276.855	81.9475	276.855	81.9105	276.855	81.9242	276.855	81.9257	276.855	81.9312	276.855	81.9519	276.855	81.9531	276.855	81.9745	276.855	81.9742	276.855	81.983
287.109	84.018	287.109	83.9843	287.109	83.9994	287.109	83.897	287.109	83.9331	287.109	83.7582	287.109	83.826	287.109	83.5742	287.109	83.6861	287.109	83.3547	287.109	83.5207	287.109	83.1125	287.109	83.3358	287.109	82.8619	287.109	83.1353	287.109	82.6172	287.109	82.9218	287.109	82.3909	287.109	82.6987	287.109	82.1917	287.109	82.4721	287.109	82.025	287.109	82.2526	287.109	81.8931	287.109	82.0543	287.109	81.7957	287.109	81.8914	287.109	81.7303	287.109	81.7735	287.109	81.6916	287.109	81.7012	287.109	81.6717	287.109	81.6663	287.109	81.662	287.109	81.6557	287.109	81.6566
297.363	84.0523	297.363	84.0362	297.363	84.0044	297.363	83.9598	297.363	83.8926	297.363	83.8298	297.363	83.7209	297.363	83.6551	297.363	83.4986	297.363	83.4465	297.363	83.2403	297.363	83.2164	297.363	82.965	297.363	82.978	297.363	82.6944	297.363	82.745	297.363	82.4492	297.363	82.5301	297.363	82.2449	297.363	82.3438	297.363	82.0888	297.363	82.1924	297.363	81.9796	297.363	82.0773	297.363	81.9104	297.363	81.9956	297.363	81.8716	297.363	81.9413	297.363	81.854	297.363	81.9076	297.363	81.8498	297.363	81.8875	297.363	81.8531	297.363	81.8753	297.363	81.8594	297.363	81.8668
307.617	83.7423	307.617	83.7115	307.617	83.7122	307.617	83.6231	307.617	83.6228	307.617	83.485	307.617	83.4799	307.617	83.309	307.617	83.2938	307.617	83.1101	307.617	83.0783	307.617	82.9051	307.617	82.8501	307.617	82.7109	307.617	82.6275	307.617	82.5429	307.617	82.4286	307.617	82.4133	307.617	82.2694	307.617	82.3297	307.617	82.1614	307.617	82.2943	307.617	82.1097	307.617	82.303	307.617	82.1122	307.617	82.3457	307.617	82.1599	307.617	82.4077	307.617	82.2387	307.617	82.4721	307.617	82.3318	307.617	82.5227	307.617	82.4221	307.617	82.5471	307.617	82.4945	307.617	82.538
319.336	83.6131	319.336	83.5581	319.336	83.5809	319.336	83.42	319.336	83.462	319.336	83.2079	319.336	83.2623	319.336	82.9368	319.336	82.9931	319.336	82.6277	319.336	82.6722	319.336	82.308	319.336	82.324	319.336	82.0102	319.336	81.9789	319.336	81.7672	319.336	81.6703	319.336	81.6062	319.336	81.4302	319.336	81.5407	319.336	81.2821	319.336	81.5668	319.336	81.2359	319.336	81.6642	319.336	81.2857	319.336	81.8031	319.336	81.4116	319.336	81.9517	319.336	81.5851	319.336	82.0819	319.336	81.7748	319.336	82.1716	319.336	81.9515	319.336	82.2065	319.336	82.0919	319.336	82.1797
329.59	84.0546	329.59	83.9839	329.59	84.027	329.59	83.8174	329.59	83.9014	329.59	83.5616	329.59	83.6814	329.59	83.2277	329.59	83.3741	329.59	82.8338	329.59	82.9916	329.59	82.4059	329.59	82.5537	329.59	81.9791	329.59	82.0899	329.59	81.5965	329.59	81.6408	329.59	81.3023	329.59	81.2553	329.59	81.1311	329.59	80.981	329.59	81.0948	329.59	80.8497	329.59	81.1767	329.59	80.8642	329.59	81.3376	329.59	80.9974	329.59	81.5295	329.59	81.2035	329.59	81.7083	329.59	81.4327	329.59	81.8406	329.59	81.6426	329.59	81.9056	329.59	81.8024	329.59	81.893
341.309	84.2213	341.309	84.1344	341.309	84.2146	341.309	83.955	341.309	84.1159	341.309	83.6873	341.309	83.9293	341.309	83.3394	341.309	83.6623	341.309	82.9258	341.309	83.3265	341.309	82.469	341.309	82.939	341.309	82.0018	341.309	82.5235	341.309	81.5674	341.309	82.1108	341.309	81.2141	341.309	81.7368	341.309	80.9839	341.309	81.4377	341.309	80.8978	341.309	81.2419	341.309	80.9462	341.309	81.1613	341.309	81.0926	341.309	81.1872	341.309	81.2869	341.309	81.2918	341.309	81.4805	341.309	81.4366	341.309	81.6353	341.309	81.5817	341.309	81.7274	341.309	81.693	341.309	81.746
353.027	84.414	353.027	84.3356	353.027	84.3882	353.027	84.1518	353.027	84.2601	353.027	83.8622	353.027	84.0321	353.027	83.4683	353.027	83.7085	353.027	82.976	353.027	83.2972	353.027	82.3995	353.027	82.8128	353.027	81.7678	353.027	82.2806	353.027	81.1327	353.027	81.7412	353.027	80.5724	353.027	81.2512	353.027	80.1793	353.027	80.8753	353.027	80.0244	353.027	80.6662	353.027	80.115	353.027	80.6402	353.027	80.3881	353.027	80.7686	353.027	80.7468	353.027	80.9914	353.027	81.1017	353.027	81.241	353.027	81.3901	353.027	81.4594	353.027	81.577	353.027	81.6041	353.027	81.648
366.211	84.7129	366.211	84.6832	366.211	84.6468	366.211	84.5569	366.211	84.487	366.211	84.3336	366.211	84.2366	366.211	84.015	366.211	83.9006	366.211	83.6052	366.211	83.4872	366.211	83.1133	366.211	83.0103	366.211	82.5575	366.211	82.4929	366.211	81.9696	366.211	81.9705	366.211	81.4006	366.211	81.4931	366.211	80.9195	366.211	81.1187	366.211	80.5989	366.211	80.8967	366.211	80.4844	366.211	80.8452	366.211	80.5679	366.211	80.9402	366.211	80.7893	366.211	81.1253	366.211	81.067	366.211	81.3345	366.211	81.3279	366.211	81.5107	366.211	81.5214	366.211	81.6135	366.211	81.6195
379.395	84.5315	379.395	84.4988	379.395	84.4694	379.395	84.3728	379.395	84.3111	379.395	84.155	379.395	84.0558	379.395	83.8472	379.395	83.7038	379.395	83.4524	379.395	83.2572	379.395	82.9777	379.395	82.7222	379.395	82.4384	379.395	82.1128	379.395	81.8636	379.395	81.4578	379.395	81.3019	379.395	80.8083	379.395	80.8203	379.395	80.2431	379.395	80.4902	379.395	79.8564	379.395	80.3577	379.395	79.7184	379.395	80.4167	379.395	79.8307	379.395	80.6082	379.395	80.1201	379.395	80.8486	379.395	80.4805	379.395	81.06	379.395	80.8167	379.395	81.1852	379.395	81.0647	379.395	81.1907
392.578	84.4432	392.578	84.3601	392.578	84.4272	392.578	84.1813	392.578	84.3093	392.578	83.9107	392.578	84.0874	392.578	83.5532	392.578	83.7603	392.578	83.1157	392.578	83.3292	392.578	82.6081	392.578	82.8006	392.578	82.0475	392.578	82.1903	392.578	81.464	392.578	81.5303	392.578	80.9073	392.578	80.8756	392.578	80.4472	392.578	80.306	392.578	80.1576	392.578	79.9111	392.578	80.082	392.578	79.7544	392.578	80.2033	392.578	79.8358	392.578	80.4487	392.578	80.089	392.578	80.7261	392.578	80.4176	392.578	80.9568	392.578	80.7329	392.578	81.0885	392.578	80.9711	392.578	81.0948
405.762	84.3579	405.762	84.2622	405.762	84.3603	405.762	84.0739	405.762	84.2682	405.762	83.7931	405.762	84.0791	405.762	83.4205	405.762	83.7899	405.762	82.9585	405.762	83.3975	405.762	82.4149	405.762	82.9008	405.762	81.8078	405.762	82.3054	405.762	81.1736	405.762	81.6314	405.762	80.5748	405.762	80.926	405.762	80.1	405.762	80.2759	405.762	79.8397	405.762	79.8023	405.762	79.8394	405.762	79.6143	405.762	80.0652	405.762	79.7351	405.762	80.4202	405.762	80.0782	405.762	80.7945	405.762	80.5062	405.762	81.1006	405.762	80.8992	405.762	81.283	405.762	81.1806	405.762	81.3125
420.41	84.7239	420.41	84.6391	420.41	84.7012	420.41	84.4445	420.41	84.5728	420.41	84.1376	420.41	84.3393	420.41	83.7165	420.41	83.9997	420.41	83.1814	420.41	83.5524	420.41	82.5377	420.41	82.9971	420.41	81.8018	420.41	82.3409	420.41	81.0107	420.41	81.6077	420.41	80.2356	420.41	80.8507	420.41	79.5877	420.41	80.1621	420.41	79.1942	420.41	79.6602	420.41	79.1303	420.41	79.4393	420.41	79.3596	420.41	79.5075	420.41	79.7557	420.41	79.7799	420.41	80.1788	420.41	80.1342	420.41	80.5262	420.41	80.4645	420.41	80.7405	420.41	80.6997	420.41	80.7982
435.059	84.6693	435.059	84.6105	435.059	84.6373	435.059	84.458	435.059	84.5154	435.059	84.2068	435.059	84.3017	435.059	83.8501	435.059	83.9922	435.059	83.3811	435.059	83.5818	435.059	82.7951	435.059	83.0661	435.059	82.095	435.059	82.4468	435.059	81.3024	435.059	81.74	435.059	80.4732	435.059	80.9886	435.059	79.716	435.059	80.2761	435.059	79.1839	435.059	79.7245	435.059	79.0063	435.059	79.453	435.059	79.1894	435.059	79.5011	435.059	79.6055	435.059	79.7926	435.059	80.0865	435.059	80.1864	435.059	80.5027	435.059	80.551	435.059	80.7787	435.059	80.7978	435.059	80.8794
451.172	84.2491	451.172	84.2163	451.172	84.1805	451.172	84.079	451.172	84.0131	451.172	83.8325	451.172	83.7497	451.172	83.4697	451.172	83.3923	451.172	82.9809	451.172	82.9415	451.172	82.3565	451.172	82.3955	451.172	81.5937	451.172	81.7515	451.172	80.7108	451.172	81.0128	451.172	79.7707	451.172	80.2032	451.172	78.9098	451.172	79.3926	451.172	78.3324	451.172	78.7193	451.172	78.206	451.172	78.3639	451.172	78.5133	451.172	78.4311	451.172	79.0628	451.172	78.8435	451.172	79.6421	451.172	79.4025	451.172	80.1086	451.172	79.9227	451.172	80.3889	451.172	80.2902	451.172	80.4514
465.82	84.616	465.82	84.5524	465.82	84.5636	465.82	84.3768	465.82	84.3915	465.82	84.0928	465.82	84.0968	465.82	83.7032	465.82	83.6766	465.82	83.2079	465.82	83.1283	465.82	82.6043	465.82	82.4501	465.82	81.889	465.82	81.6451	465.82	81.066	465.82	80.7308	465.82	80.1648	465.82	79.7573	465.82	79.2715	465.82	78.8332	465.82	78.5535	465.82	78.1336	465.82	78.213	465.82	77.8372	465.82	78.332	465.82	77.9905	465.82	78.7782	465.82	78.4589	465.82	79.3205	465.82	79.0372	465.82	79.7772	465.82	79.5615	465.82	80.0509	465.82	79.934	465.82	80.1042
483.398	84.5938	483.398	84.4776	483.398	84.62	483.398	84.2731	483.398	84.5524	483.398	83.9794	483.398	84.3838	483.398	83.5932	483.398	84.1036	483.398	83.1081	483.398	83.6974	483.398	82.5152	483.398	83.1496	483.398	81.8084	483.398	82.4473	483.398	80.9934	483.398	81.5885	483.398	80.1058	483.398	80.5988	483.398	79.2347	483.398	79.5591	483.398	78.5376	483.398	78.6397	483.398	78.1948	483.398	78.082	483.398	78.284	483.398	78.0454	483.398	78.6995	483.398	78.4445	483.398	79.2358	483.398	79.0289	483.398	79.7131	483.398	79.5745	483.398	80.021	483.398	79.9526	483.398	80.1062
499.512	84.7188	499.512	84.6559	499.512	84.689	499.512	84.4915	499.512	84.5727	499.512	84.2144	499.512	84.371	499.512	83.8123	499.512	84.0791	499.512	83.2718	499.512	83.6852	499.512	82.58	499.512	83.1717	499.512	81.7295	499.512	82.5202	499.512	80.7309	499.512	81.7193	499.512	79.6401	499.512	80.7814	499.512	78.6002	499.512	79.7713	499.512	77.86	499.512	78.8434	499.512	77.6568	499.512	78.2362	499.512	77.9901	499.512	78.1353	499.512	78.6157	499.512	78.4898	499.512	79.2688	499.512	79.0583	499.512	79.787	499.512	79.6072	499.512	80.0958	499.512	79.9975	499.512	80.1671
517.09	84.3792	517.09	84.3246	517.09	84.339	517.09	84.1771	517.09	84.2022	517.09	83.9359	517.09	83.9672	517.09	83.5967	517.09	83.6322	517.09	83.1499	517.09	83.1941	517.09	82.5819	517.09	82.6471	517.09	81.8782	517.09	81.984	517.09	81.0322	517.09	81.2022	517.09	80.064	517.09	80.3168	517.09	79.0545	517.09	79.3855	517.09	78.1867	517.09	78.5375	517.09	77.7191	517.09	77.9719	517.09	77.7995	517.09	77.8552	517.09	78.2967	517.09	78.1685	517.09	78.9275	517.09	78.7132	517.09	79.465	517.09	79.2662	517.09	79.7911	517.09	79.6757	517.09	79.8617
536.133	84.2972	536.133	84.2128	536.133	84.2808	536.133	84.0289	536.133	84.1617	536.133	83.7451	536.133	83.9364	536.133	83.3583	536.133	83.5985	536.133	82.8596	536.133	83.1372	536.133	82.2342	536.133	82.5375	536.133	81.4644	536.133	81.783	536.133	80.5395	536.133	80.8635	536.133	79.479	536.133	79.7959	536.133	78.3779	536.133	78.6654	536.133	77.464	536.133	77.6862	536.133	77.0605	536.133	77.1859	536.133	77.3193	536.133	77.3557	536.133	78.0275	536.133	78.0147	536.133	78.837	536.133	78.8094	536.133	79.5101	536.133	79.4855	536.133	79.9367	536.133	79.9229	536.133	80.077
555.176	84.3537	555.176	84.2867	555.176	84.3294	555.176	84.1255	555.176	84.2167	555.176	83.8663	555.176	84.0173	555.176	83.5021	555.176	83.7283	555.176	83.0202	555.176	83.3382	555.176	82.4021	555.176	82.8251	555.176	81.6269	555.176	82.1586	555.176	80.6818	555.176	81.3072	555.176	79.5845	555.176	80.2572	555.176	78.4296	555.176	79.0512	555.176	77.452	555.176	77.862	555.176	76.9976	555.176	77.0478	555.176	77.2374	555.176	76.9613	555.176	77.946	555.176	77.5403	555.176	78.7517	555.176	78.3799	555.176	79.4058	555.176	79.1408	555.176	79.7965	555.176	79.6613	555.176	79.8844
574.219	84.5297	574.219	84.4385	574.219	84.5144	574.219	84.2425	574.219	84.3896	574.219	83.9408	574.219	84.1509	574.219	83.5285	574.219	83.7924	574.219	82.9932	574.219	83.3051	574.219	82.313	574.219	82.6767	574.219	81.4562	574.219	81.8911	574.219	80.3876	574.219	80.9328	574.219	79.0917	574.219	79.8003	574.219	77.6356	574.219	78.5432	574.219	76.3021	574.219	77.339	574.219	75.6561	574.219	76.5543	574.219	76.0496	574.219	76.5438	574.219	77.0885	574.219	77.2194	574.219	78.188	574.219	78.1435	574.219	79.0443	574.219	78.9611	574.219	79.5585	574.219	79.5042	574.219	79.7104
594.727	84.9767	594.727	84.9293	594.727	84.95	594.727	84.8025	594.727	84.852	594.727	84.5878	594.727	84.6813	594.727	84.2708	594.727	84.4281	594.727	83.8295	594.727	84.0708	594.727	83.2342	594.727	83.575	594.727	82.4495	594.727	82.8974	594.727	81.4391	594.727	81.993	594.727	80.18	594.727	80.8297	594.727	78.7087	594.727	79.4231	594.727	77.2366	594.727	77.9204	594.727	76.2846	594.727	76.7323	594.727	76.3636	594.727	76.4169	594.727	77.2486	594.727	77.0252	594.727	78.3054	594.727	78.0145	594.727	79.1485	594.727	78.9143	594.727	79.6463	594.727	79.5207	594.727	79.7702
615.234	84.7933	615.234	84.7248	615.234	84.7584	615.234	84.5553	615.234	84.623	615.234	84.2904	615.234	84.3937	615.234	83.9324	615.234	84.0755	615.234	83.4721	615.234	83.6643	615.234	82.8831	615.234	83.1402	615.234	82.1204	615.234	82.4652	615.234	81.1274	615.234	81.5872	615.234	79.8531	615.234	80.4546	615.234	78.3005	615.234	79.0543	615.234	76.6705	615.234	77.5152	615.234	75.6027	615.234	76.2999	615.234	75.8286	615.234	76.103	615.234	77.0311	615.234	76.954	615.234	78.359	615.234	78.1532	615.234	79.3747	615.234	79.1817	615.234	79.9643	615.234	79.8532	615.234	80.1195
637.207	85.0792	637.207	85.0428	637.207	85.0531	637.207	84.9414	637.207	84.9658	637.207	84.7694	637.207	84.816	637.207	84.515	637.207	84.5955	637.207	84.1566	637.207	84.2849	637.207	83.661	637.207	83.8532	637.207	82.9856	637.207	83.2588	637.207	82.0821	637.207	82.4533	637.207	80.906	637.207	81.3876	637.207	79.443	637.207	80.0283	637.207	77.7879	637.207	78.415	637.207	76.3221	637.207	76.822	637.207	75.7516	637.207	75.9325	637.207	76.3326	637.207	76.2724	637.207	77.4379	637.207	77.344	637.207	78.4476	637.207	78.3965	637.207	79.1022	637.207	79.0857	637.207	79.3228
659.18	84.8762	659.18	84.8281	659.18	84.8402	659.18	84.7	659.18	84.7268	659.18	84.502	659.18	84.5489	659.18	84.2404	659.18	84.3161	659.18	83.9068	659.18	84.0216	659.18	83.4715	659.18	83.6346	659.18	82.8848	659.18	83.1027	659.18	82.0841	659.18	82.3625	659.18	81.0072	659.18	81.3578	659.18	79.6268	659.18	80.0696	659.18	78.0544	659.18	78.5878	659.18	76.7654	659.18	77.2608	659.18	76.5419	659.18	76.7187	659.18	77.4354	659.18	77.2321	659.18	78.6521	659.18	78.2855	659.18	79.6309	659.18	79.2993	659.18	80.1933	659.18	80.0049	659.18	80.3134
682.617	84.7529	682.617	84.7006	682.617	84.698	682.617	84.5422	682.617	84.5455	682.617	84.2864	682.617	84.3139	682.617	83.9419	682.617	84.0225	682.617	83.5075	682.617	83.6775	682.617	82.9617	682.617	83.2601	682.617	82.259	682.617	82.7225	682.617	81.3347	682.617	81.9951	682.617	80.1205	682.617	81.0052	682.617	78.5858	682.617	79.7136	682.617	76.8708	682.617	78.2081	682.617	75.5986	682.617	76.9056	682.617	75.7264	682.617	76.5677	682.617	77.0705	682.617	77.3894	682.617	78.6042	682.617	78.6542	682.617	79.7878	682.617	79.7523	682.617	80.4916	682.617	80.4571	682.617	80.7097
707.52	85.2503	707.52	85.2035	707.52	85.188	707.52	85.0544	707.52	85.0204	707.52	84.8174	707.52	84.759	707.52	84.5046	707.52	84.416	707.52	84.114	707.52	83.9944	707.52	83.6198	707.52	83.4812	707.52	82.9706	707.52	82.8441	707.52	82.0935	707.52	82.0323	707.52	80.9011	707.52	80.9783	707.52	79.3023	707.52	79.6036	707.52	77.2532	707.52	77.8594	707.52	75.0042	707.52	75.9068	707.52	73.7168	707.52	74.5642	707.52	74.5375	707.52	74.9241	707.52	76.2966	707.52	76.3957	707.52	77.7805	707.52	77.7958	707.52	78.6825	707.52	78.6823	707.52	78.9798
732.422	84.6209	732.422	84.5689	732.422	84.5926	732.422	84.4413	732.422	84.492	732.422	84.2504	732.422	84.333	732.422	84.0026	732.422	84.1217	732.422	83.6839	732.422	83.8415	732.422	83.2544	732.422	83.4473	732.422	82.6521	732.422	82.8692	732.422	81.8025	732.422	82.0232	732.422	80.6291	732.422	80.8245	732.422	79.079	732.422	79.212	732.422	77.2237	732.422	77.2364	732.422	75.5656	732.422	75.3582	732.422	75.1881	732.422	74.7326	732.422	76.2921	732.422	75.784	732.422	77.7903	732.422	77.3798	732.422	78.9809	732.422	78.706	732.422	79.6814	732.422	79.5451	732.422	79.8694
757.324	84.3224	757.324	84.2281	757.324	84.2768	757.324	84.0153	757.324	84.0966	757.324	83.7247	757.324	83.8148	757.324	83.3988	757.324	83.4817	757.324	83.0577	757.324	83.1405	757.324	82.6778	757.324	82.7946	757.324	82.1891	757.324	82.3895	757.324	81.4892	757.324	81.8228	757.324	80.4609	757.324	80.9714	757.324	78.9904	757.324	79.716	757.324	77.0321	757.324	77.9875	757.324	74.9218	757.324	75.9495	757.324	74.0268	757.324	74.5103	757.324	75.235	757.324	74.9369	757.324	77.0737	757.324	76.5484	757.324	78.4883	757.324	78.0626	757.324	79.2788	757.324	79.0523	757.324	79.4593
785.156	84.7159	785.156	84.6885	785.156	84.6292	785.156	84.5535	785.156	84.4384	785.156	84.3303	785.156	84.1653	785.156	84.0409	785.156	83.8325	785.156	83.6934	785.156	83.4495	785.156	83.2675	785.156	83.0015	785.156	82.7086	785.156	82.4457	785.156	81.9305	785.156	81.7147	785.156	80.8221	785.156	80.7242	785.156	79.2532	785.156	79.3817	785.156	77.0998	785.156	77.6196	785.156	74.4541	785.156	75.5576	785.156	72.5708	785.156	74.0116	785.156	73.4838	785.156	74.3194	785.156	75.6752	785.156	75.9411	785.156	77.434	785.156	77.4941	785.156	78.4674	785.156	78.4752	785.156	78.8037
811.523	84.409	811.523	84.2604	811.523	84.3654	811.523	83.9453	811.523	84.1414	811.523	83.5229	811.523	83.7858	811.523	83.0694	811.523	83.3724	811.523	82.6416	811.523	82.9674	811.523	82.2341	811.523	82.5826	811.523	81.7684	811.523	82.1535	811.523	81.1206	811.523	81.5612	811.523	80.1537	811.523	80.6706	811.523	78.7348	811.523	79.3547	811.523	76.7788	811.523	77.5329	811.523	74.5367	811.523	75.3612	811.523	73.4341	811.523	73.845	811.523	74.7229	811.523	74.4264	811.523	76.7575	811.523	76.2331	811.523	78.3001	811.523	77.8616	811.523	79.1503	811.523	78.9113	811.523	79.3424
840.82	84.4568	840.82	84.3537	840.82	84.3702	840.82	84.0771	840.82	84.1146	840.82	83.6805	840.82	83.7418	840.82	83.2417	840.82	83.3225	840.82	82.8265	840.82	82.9215	840.82	82.4413	840.82	82.5625	840.82	82.0154	840.82	82.1994	840.82	81.4279	840.82	81.72	840.82	80.5457	840.82	80.9765	840.82	79.2414	840.82	79.8168	840.82	77.4237	840.82	78.1246	840.82	75.2465	840.82	75.9809	840.82	73.8329	840.82	74.2723	840.82	74.7016	840.82	74.6487	840.82	76.6857	840.82	76.4735	840.82	78.3341	840.82	78.1571	840.82	79.3062	840.82	79.2125	840.82	79.5936
870.117	84.4621	870.117	84.3323	870.117	84.3954	870.117	84.0279	870.117	84.1432	870.117	83.5991	870.117	83.7495	870.117	83.1123	870.117	83.2823	870.117	82.6241	870.117	82.8038	870.117	82.1493	870.117	82.33	870.117	81.6431	870.117	81.8113	870.117	81.0127	870.117	81.1545	870.117	80.1414	870.117	80.2608	870.117	78.9102	870.117	79.054	870.117	77.2318	870.117	77.5181	870.117	75.2048	870.117	75.8349	870.117	73.6351	870.117	74.6886	870.117	73.9481	870.117	74.9423	870.117	75.6375	870.117	76.2166	870.117	77.2478	870.117	77.516	870.117	78.2637	870.117	78.3629	870.117	78.6264
900.879	84.1658	900.879	84.0736	900.879	84.0723	900.879	83.8134	900.879	83.8114	900.879	83.4328	900.879	83.4372	900.879	82.9923	900.879	83.0248	900.879	82.5341	900.879	82.6317	900.879	82.0472	900.879	82.2478	900.879	81.4578	900.879	81.7796	900.879	80.6525	900.879	81.0848	900.879	79.5127	900.879	80.0227	900.879	77.9455	900.879	78.4918	900.879	75.9657	900.879	76.5027	900.879	74.0272	900.879	74.4669	900.879	73.4564	900.879	73.6512	900.879	74.7597	900.879	74.7486	900.879	76.5681	900.879	76.4963	900.879	77.9978	900.879	77.9317	900.879	78.8528	900.879	78.8155	900.879	79.1224
933.105	84.3146	933.105	84.2169	933.105	84.1604	933.105	83.8932	933.105	83.7698	933.105	83.4066	933.105	83.203	933.105	82.8415	933.105	82.5599	933.105	82.261	933.105	81.9409	933.105	81.6549	933.105	81.3733	933.105	80.9291	933.105	80.767	933.105	79.952	933.105	79.9529	933.105	78.6159	933.105	78.7676	933.105	76.9059	933.105	77.1527	933.105	75.0687	933.105	75.3682	933.105	73.9377	933.105	74.3301	933.105	74.4239	933.105	74.8857	933.105	75.9872	933.105	76.377	933.105	77.6065	933.105	77.8725	933.105	78.8512	933.105	79.0112	933.105	79.6213	933.105	79.6968	933.105	79.9027
965.332	83.6679	965.332	83.5541	965.332	83.5211	965.332	83.2332	965.332	83.1432	965.332	82.8387	965.332	82.646	965.332	82.5345	965.332	82.1992	965.332	82.3836	965.332	81.9225	965.332	82.2487	965.332	81.7517	965.332	81.8614	965.332	81.4497	965.332	80.9374	965.332	80.7238	965.332	79.184	965.332	79.2589	965.332	76.1746	965.332	76.5969	965.332	71.1862	965.332	71.8132	965.332	68.0457	965.332	66.6853	965.332	73.3726	965.332	72.6223	965.332	77.2321	965.332	77.0257	965.332	79.5302	965.332	79.51	965.332	80.8888	965.332	80.92	965.332	81.6152	965.332	81.6412	965.332	81.8533
1000.49	85.7609	1000.49	85.457	1000.49	85.5936	1000.49	84.7167	1000.49	84.961	1000.49	83.6695	1000.49	83.9286	1000.49	82.6532	1000.49	82.7182	1000.49	82.1709	1000.49	81.8139	1000.49	82.3538	1000.49	81.6582	1000.49	82.7064	1000.49	82.0097	1000.49	82.6577	1000.49	82.2052	1000.49	81.8214	1000.49	81.7233	1000.49	79.8082	1000.49	80.1246	1000.49	75.7282	1000.49	76.5902	1000.49	64.725	1000.49	67.4333	1000.49	69.451	1000.49	68.0596	1000.49	77.4362	1000.49	77.2164	1000.49	81.0748	1000.49	81.0764	1000.49	83.0899	1000.49	83.1392	1000.49	84.1471	1000.49	84.1828	1000.49	84.4909
1035.64	86.8508	1035.64	86.5526	1035.64	86.7432	1035.64	85.8453	1035.64	86.2267	1035.64	84.7415	1035.64	85.3094	1035.64	83.3669	1035.64	84.0746	1035.64	82.1522	1035.64	82.8049	1035.64	81.7471	1035.64	82.0142	1035.64	82.1408	1035.64	81.9662	1035.64	82.5633	1035.64	82.2266	1035.64	82.3733	1035.64	82.1526	1035.64	81.1746	1035.64	81.2546	1035.64	78.4495	1035.64	78.9893	1035.64	72.6126	1035.64	74.0506	1035.64	62.5543	1035.64	63.5624	1035.64	74.8271	1035.64	74.1544	1035.64	79.7078	1035.64	79.4404	1035.64	82.2055	1035.64	82.0794	1035.64	83.4513	1035.64	83.3957	1035.64	83.8156
1072.27	87.2061	1072.27	86.9516	1072.27	87.0958	1072.27	86.3102	1072.27	86.621	1072.27	85.2651	1072.27	85.7635	1072.27	83.881	1072.27	84.5341	1072.27	82.4854	1072.27	83.1231	1072.27	81.7887	1072.27	82.1231	1072.27	82.1503	1072.27	82.142	1072.27	82.893	1072.27	82.7785	1072.27	83.2242	1072.27	83.1668	1072.27	82.7095	1072.27	82.7906	1072.27	81.0107	1072.27	81.321	1072.27	77.4766	1072.27	78.227	1072.27	70.0116	1072.27	72.1899	1072.27	69.6721	1072.27	70.0211	1072.27	77.0915	1072.27	76.8177	1072.27	80.5481	1072.27	80.3865	1072.27	82.2045	1072.27	82.1312	1072.27	82.684
1108.89	87.3432	1108.89	87.1232	1108.89	87.1969	1108.89	86.5212	1108.89	86.6843	1108.89	85.5082	1108.89	85.7959	1108.89	84.07	1108.89	84.5391	1108.89	82.3266	1108.89	83.0226	1108.89	80.8295	1108.89	81.6349	1108.89	80.4825	1108.89	81.0428	1108.89	81.1479	1108.89	81.3794	1108.89	81.7476	1108.89	81.9027	1108.89	81.5778	1108.89	81.8902	1108.89	80.2372	1108.89	80.8959	1108.89	77.103	1108.89	78.417	1108.89	69.9294	1108.89	73.166	1108.89	65.5533	1108.89	65.2103	1108.89	75.4904	1108.89	74.3147	1108.89	79.4552	1108.89	78.9509	1108.89	81.3019	1108.89	81.1137	1108.89	81.8111
1148.44	87.2191	1148.44	87.0314	1148.44	87.0809	1148.44	86.4879	1148.44	86.6077	1148.44	85.5315	1148.44	85.7537	1148.44	84.1152	1148.44	84.4602	1148.44	82.3197	1148.44	82.7448	1148.44	80.6693	1148.44	80.9826	1148.44	80.2121	1148.44	80.1839	1148.44	81.0082	1148.44	80.7698	1148.44	81.8966	1148.44	81.6869	1148.44	82.1021	1148.44	82.0614	1148.44	81.2679	1148.44	81.5267	1148.44	78.9807	1148.44	79.7379	1148.44	74.0462	1148.44	75.8354	1148.44	58.065	1148.44	66.1717	1148.44	72.0218	1148.44	70.2	1148.44	77.7523	1148.44	77.1051	1148.44	80.167	1148.44	79.9374	1148.44	80.8177
1189.45	86.6118	1189.45	86.4627	1189.45	86.4481	1189.45	85.9818	1189.45	85.963	1189.45	85.1237	1189.45	85.12	1189.45	83.8227	1189.45	83.8635	1189.45	82.0374	1189.45	82.1564	1189.45	79.9384	1189.45	80.1161	1189.45	78.3449	1189.45	78.3808	1189.45	78.2863	1189.45	78.0394	1189.45	79.1112	1189.45	78.8594	1189.45	79.5919	1189.45	79.5719	1189.45	79.129	1189.45	79.4337	1189.45	77.2608	1189.45	77.9873	1189.45	72.8756	1189.45	74.37	1189.45	59.2717	1189.45	64.4482	1189.45	69.6948	1189.45	67.0882	1189.45	75.813	1189.45	74.9803	1189.45	78.2803	1189.45	77.9708	1189.45	78.9065
1230.47	86.158	1230.47	85.979	1230.47	86.0133	1230.47	85.4606	1230.47	85.5328	1230.47	84.5566	1230.47	84.6758	1230.47	83.2022	1230.47	83.3731	1230.47	81.3833	1230.47	81.5644	1230.47	79.3764	1230.47	79.396	1230.47	78.1303	1230.47	77.7462	1230.47	78.3827	1230.47	77.7936	1230.47	79.1954	1230.47	78.762	1230.47	79.4762	1230.47	79.3015	1230.47	78.6833	1230.47	78.8166	1230.47	76.257	1230.47	76.8458	1230.47	70.5262	1230.47	72.1846	1230.47	58.8502	1230.47	55.3098	1230.47	72.5854	1230.47	70.0254	1230.47	77.1915	1230.47	75.9807	1230.47	79.132	1230.47	78.5756	1230.47	79.5187
1274.41	85.4513	1274.41	85.3488	1274.41	85.2986	1274.41	84.9447	1274.41	84.8951	1274.41	84.1647	1274.41	84.1868	1274.41	82.9085	1274.41	83.0596	1274.41	81.0581	1274.41	81.3617	1274.41	78.6101	1274.41	79.0053	1274.41	76.3335	1274.41	76.4611	1274.41	76.0703	1274.41	75.6016	1274.41	77.1843	1274.41	76.7456	1274.41	77.7277	1274.41	77.7276	1274.41	76.9696	1274.41	77.5469	1274.41	74.3243	1274.41	75.7376	1274.41	67.4659	1274.41	71.0916	1274.41	60.6283	1274.41	58.1925	1274.41	73.0974	1274.41	70.839	1274.41	77.4054	1274.41	76.398	1274.41	79.3486	1274.41	78.927	1274.41	79.8075
1319.82	84.8304	1319.82	84.7771	1319.82	84.7289	1319.82	84.5243	1319.82	84.4659	1319.82	83.9669	1319.82	83.984	1319.82	82.9391	1319.82	83.1574	1319.82	81.2244	1319.82	81.7761	1319.82	78.5876	1319.82	79.5678	1319.82	75.2358	1319.82	76.4562	1319.82	74.0761	1319.82	74.179	1319.82	76.271	1319.82	75.5137	1319.82	77.9794	1319.82	77.4555	1319.82	78.1529	1319.82	78.1797	1319.82	76.5725	1319.82	77.4175	1319.82	72.5976	1319.82	74.7317	1319.82	66.9168	1319.82	69.3006	1319.82	72.2413	1319.82	70.1328	1319.82	76.7979	1319.82	75.7419	1319.82	78.9852	1319.82	78.587	1319.82	79.5447
1366.7	85.1118	1366.7	85.0183	1366.7	85.0397	1366.7	84.7625	1366.7	84.7904	1366.7	84.3114	1366.7	84.3305	1366.7	83.559	1366.7	83.5698	1366.7	82.3155	1366.7	82.3511	1366.7	80.3351	1366.7	80.4706	1366.7	77.4683	1366.7	77.7426	1366.7	74.6617	1366.7	74.5878	1366.7	74.8692	1366.7	73.9061	1366.7	76.65	1366.7	75.9818	1366.7	77.4516	1366.7	77.4498	1366.7	76.6981	1366.7	77.3572	1366.7	73.8825	1366.7	75.2765	1366.7	68.3061	1366.7	70.056	1366.7	70.1222	1366.7	67.0405	1366.7	75.4079	1366.7	73.9419	1366.7	77.9258	1366.7	77.3615	1366.7	78.5149
1413.57	85.0859	1413.57	84.9814	1413.57	84.9425	1413.57	84.6513	1413.57	84.5679	1413.57	84.126	1413.57	83.9908	1413.57	83.3573	1413.57	83.2026	1413.57	82.1755	1413.57	82.104	1413.57	80.3384	1413.57	80.4743	1413.57	77.6452	1413.57	78.0187	1413.57	74.5251	1413.57	74.7954	1413.57	73.8061	1413.57	73.2345	1413.57	75.8582	1413.57	75.1115	1413.57	77.3921	1413.57	76.8557	1413.57	77.4084	1413.57	77.1281	1413.57	75.4631	1413.57	75.5322	1413.57	70.3022	1413.57	71.0184	1413.57	64.8019	1413.57	63.778	1413.57	72.6295	1413.57	71.4469	1413.57	76.1559	1413.57	75.6462	1413.57	76.9866
1463.38	84.2808	1463.38	84.1863	1463.38	84.1267	1463.38	83.8811	1463.38	83.7258	1463.38	83.3846	1463.38	83.1454	1463.38	82.6662	1463.38	82.4494	1463.38	81.6429	1463.38	81.5735	1463.38	80.1702	1463.38	80.2951	1463.38	78.0695	1463.38	78.3375	1463.38	75.5028	1463.38	75.6167	1463.38	74.2344	1463.38	73.2548	1463.38	75.463	1463.38	73.6781	1463.38	76.7152	1463.38	75.2574	1463.38	76.6543	1463.38	75.8034	1463.38	74.8193	1463.38	74.6168	1463.38	70.104	1463.38	70.8282	1463.38	61.7513	1463.38	64.3112	1463.38	70.0503	1463.38	69.7195	1463.38	74.1563	1463.38	73.9173	1463.38	75.1906
1516.11	84.1479	1516.11	83.9702	1516.11	83.9703	1516.11	83.4705	1516.11	83.4639	1516.11	82.7386	1516.11	82.6816	1516.11	81.8502	1516.11	81.6709	1516.11	80.7587	1516.11	80.4631	1516.11	79.2708	1516.11	79.036	1516.11	77.172	1516.11	77.2073	1516.11	74.558	1516.11	74.664	1516.11	72.703	1516.11	71.7525	1516.11	73.2443	1516.11	71.3273	1516.11	74.5633	1516.11	73.324	1516.11	74.8672	1516.11	74.6161	1516.11	73.3796	1516.11	74.2913	1516.11	68.8656	1516.11	71.5704	1516.11	52.3862	1516.11	63.3899	1516.11	67.1074	1516.11	64.962	1516.11	72.3128	1516.11	71.8238	1516.11	73.5872
1568.85	84.2093	1568.85	83.945	1568.85	84.0291	1568.85	83.3029	1568.85	83.4196	1568.85	82.4126	1568.85	82.4566	1568.85	81.3818	1568.85	81.2554	1568.85	80.1853	1568.85	79.9307	1568.85	78.6324	1568.85	78.4796	1568.85	76.4704	1568.85	76.7219	1568.85	73.706	1568.85	74.5378	1568.85	71.648	1568.85	72.4728	1568.85	72.2533	1568.85	72.0237	1568.85	73.6749	1568.85	73.0829	1568.85	73.9989	1568.85	73.8537	1568.85	72.4193	1568.85	73.2261	1568.85	67.2692	1568.85	70.1337	1568.85	48.5404	1568.85	59.8453	1568.85	68.6034	1568.85	64.118	1568.85	72.8382	1568.85	71.4419	1568.85	73.573
1624.51	84.5269	1624.51	84.2571	1624.51	84.351	1624.51	83.6054	1624.51	83.7177	1624.51	82.6504	1624.51	82.7135	1624.51	81.4762	1624.51	81.5118	1624.51	80.1503	1624.51	80.2198	1624.51	78.6388	1624.51	78.7131	1624.51	76.7568	1624.51	76.7764	1624.51	74.4773	1624.51	74.5354	1624.51	72.951	1624.51	72.911	1624.51	73.5443	1624.51	72.85	1624.51	74.5714	1624.51	73.6056	1624.51	74.5401	1624.51	73.8752	1624.51	72.7651	1624.51	72.7546	1624.51	67.535	1624.51	69.0389	1624.51	56.931	1624.51	57.164	1624.51	69.5992	1624.51	65.9242	1624.51	73.4643	1624.51	72.0461	1624.51	74.0599
1681.64	84.9947	1681.64	84.8054	1681.64	84.7584	1681.64	84.2172	1681.64	84.1414	1681.64	83.3372	1681.64	83.2369	1681.64	82.2957	1681.64	82.1339	1681.64	81.1081	1681.64	80.8282	1681.64	79.5743	1681.64	79.1866	1681.64	77.3424	1681.64	76.9787	1681.64	74.2279	1681.64	73.9714	1681.64	71.7614	1681.64	71.0333	1681.64	72.9974	1681.64	71.6413	1681.64	75.0449	1681.64	73.8018	1681.64	75.7043	1681.64	74.7837	1681.64	74.4179	1681.64	74.1594	1681.64	70.0413	1681.64	71.0178	1681.64	51.5836	1681.64	59.5972	1681.64	67.9471	1681.64	66.1797	1681.64	73.276	1681.64	72.8774	1681.64	74.5673
1741.7	84.9745	1741.7	84.7633	1741.7	84.6873	1741.7	84.1025	1741.7	83.9563	1741.7	83.1245	1741.7	82.9349	1741.7	82.0216	1741.7	81.8063	1741.7	80.9391	1741.7	80.6618	1741.7	79.7365	1741.7	79.4008	1741.7	77.9197	1741.7	77.6713	1741.7	74.8569	1741.7	74.8412	1741.7	70.6139	1741.7	70.252	1741.7	70.7035	1741.7	68.3521	1741.7	74.1317	1741.7	72.1557	1741.7	75.8094	1741.7	74.2086	1741.7	75.2223	1741.7	74.0007	1741.7	71.3294	1741.7	70.973	1741.7	53.5358	1741.7	60.8953	1741.7	69.5027	1741.7	67.715	1741.7	74.6756	1741.7	73.9482	1741.7	75.7666
1803.22	84.8661	1803.22	84.5454	1803.22	84.6476	1803.22	83.7394	1803.22	83.8938	1803.22	82.5578	1803.22	82.7089	1803.22	81.2208	1803.22	81.3513	1803.22	80.0097	1803.22	80.2147	1803.22	78.9433	1803.22	79.455	1803.22	77.603	1803.22	78.5845	1803.22	75.2909	1803.22	76.7863	1803.22	71.1229	1803.22	73.2144	1803.22	67.8635	1803.22	67.405	1803.22	71.9869	1803.22	68.332	1803.22	74.6853	1803.22	72.6509	1803.22	74.8967	1803.22	74.2065	1803.22	72.1466	1803.22	73.1295	1803.22	61.9271	1803.22	68.5377	1803.22	67.2632	1803.22	64.5535	1803.22	73.2981	1803.22	71.4975	1803.22	74.1852
1866.21	85.3865	1866.21	85.0844	1866.21	85.1522	1866.21	84.2524	1866.21	84.4244	1866.21	82.9773	1866.21	83.2897	1866.21	81.4585	1866.21	81.9244	1866.21	80.0108	1866.21	80.6485	1866.21	78.8857	1866.21	79.7367	1866.21	77.8882	1866.21	78.9766	1866.21	76.339	1866.21	77.7435	1866.21	73.256	1866.21	75.4088	1866.21	68.1098	1866.21	71.6098	1866.21	69.7657	1866.21	69.3666	1866.21	73.473	1866.21	72.3732	1866.21	74.1081	1866.21	74.5097	1866.21	71.7413	1866.21	74.0127	1866.21	63.3736	1866.21	69.4217	1866.21	62.9703	1866.21	49.1185	1866.21	71.3135	1866.21	69.4797	1866.21	72.7312
1932.13	85.4719	1932.13	85.2123	1932.13	85.2192	1932.13	84.46	1932.13	84.5117	1932.13	83.3305	1932.13	83.4256	1932.13	81.9622	1932.13	82.0643	1932.13	80.4909	1932.13	80.6307	1932.13	79.1982	1932.13	79.3755	1932.13	78.2923	1932.13	78.3379	1932.13	77.2207	1932.13	77.1853	1932.13	74.9716	1932.13	75.3145	1932.13	70.7286	1932.13	72.2819	1932.13	67.9808	1932.13	70.2877	1932.13	71.7936	1932.13	72.2972	1932.13	73.7318	1932.13	73.8587	1932.13	72.3864	1932.13	73.1587	1932.13	65.263	1932.13	68.7315	1932.13	61.7778	1932.13	46.7107	1932.13	70.8801	1932.13	68.8552	1932.13	72.2774
1999.51	84.9677	1999.51	84.6768	1999.51	84.6936	1999.51	83.8893	1999.51	83.9037	1999.51	82.743	1999.51	82.7348	1999.51	81.3957	1999.51	81.3271	1999.51	80.0216	1999.51	79.8255	1999.51	78.801	1999.51	78.4769	1999.51	77.7726	1999.51	77.4682	1999.51	76.5913	1999.51	76.4853	1999.51	74.5907	1999.51	74.8499	1999.51	71.3554	1999.51	71.967	1999.51	69.2889	1999.51	68.746	1999.51	71.4619	1999.51	70.1453	1999.51	73.1241	1999.51	72.5664	1999.51	72.1423	1999.51	72.5373	1999.51	66.0306	1999.51	68.7346	1999.51	60.6841	1999.51	54.382	1999.51	70.4004	1999.51	67.9576	1999.51	71.7272
2069.82	85.2377	2069.82	84.8628	2069.82	85.0386	2069.82	84.0017	2069.82	84.2732	2069.82	82.7524	2069.82	83.0895	2069.82	81.2034	2069.82	81.6797	2069.82	79.4952	2069.82	80.172	2069.82	77.9489	2069.82	78.6952	2069.82	76.8164	2069.82	77.4249	2069.82	75.6724	2069.82	76.3579	2069.82	73.9068	2069.82	75.1878	2069.82	70.9209	2069.82	73.2722	2069.82	67.0217	2069.82	69.9155	2069.82	69.8927	2069.82	68.602	2069.82	72.9352	2069.82	71.5671	2069.82	72.3633	2069.82	72.5235	2069.82	66.5825	2069.82	69.4812	2069.82	61.4285	2069.82	56.4786	2069.82	70.5537	2069.82	68.2021	2069.82	71.9926
2143.07	85.6775	2143.07	85.4107	2143.07	85.4915	2143.07	84.7257	2143.07	84.8397	2143.07	83.6381	2143.07	83.7876	2143.07	82.1937	2143.07	82.4424	2143.07	80.5535	2143.07	80.9378	2143.07	78.8952	2143.07	79.5347	2143.07	77.2468	2143.07	78.4545	2143.07	75.7712	2143.07	77.5002	2143.07	74.634	2143.07	76.3825	2143.07	73.2216	2143.07	74.9095	2143.07	70.1303	2143.07	72.5681	2143.07	67.3031	2143.07	70.2235	2143.07	70.6333	2143.07	71.0014	2143.07	71.2487	2143.07	71.7134	2143.07	65.8883	2143.07	69.0439	2143.07	59.9457	2143.07	58.6006	2143.07	70.3663	2143.07	68.038	2143.07	71.8678
2219.24	85.3183	2219.24	85.0561	2219.24	85.1656	2219.24	84.3461	2219.24	84.5761	2219.24	83.2871	2219.24	83.5375	2219.24	82.0029	2219.24	82.1902	2219.24	80.4614	2219.24	80.7058	2219.24	78.9115	2219.24	79.152	2219.24	77.4695	2219.24	77.6464	2219.24	75.4601	2219.24	76.2259	2219.24	73.4905	2219.24	74.7774	2219.24	73.031	2219.24	73.5616	2219.24	71.9673	2219.24	71.6564	2219.24	70.2626	2219.24	70.0782	2219.24	71.4586	2219.24	71.8383	2219.24	71.8823	2219.24	72.2053	2219.24	68.4643	2219.24	69.1722	2219.24	49.1326	2219.24	53.7013	2219.24	69.221	2219.24	67.3656	2219.24	71.6708
2296.88	84.7226	2296.88	84.4493	2296.88	84.5754	2296.88	83.7372	2296.88	84.044	2296.88	82.6592	2296.88	83.1965	2296.88	81.3238	2296.88	82.1057	2296.88	79.8508	2296.88	80.7822	2296.88	78.4189	2296.88	79.2977	2296.88	76.9923	2296.88	77.7137	2296.88	75.3431	2296.88	75.9259	2296.88	73.5379	2296.88	74.0499	2296.88	72.0793	2296.88	72.343	2296.88	70.5199	2296.88	70.5819	2296.88	69.5697	2296.88	68.4997	2296.88	71.6492	2296.88	69.7716	2296.88	72.539	2296.88	72.0207	2296.88	69.3334	2296.88	70.8117	2296.88	57.9103	2296.88	62.2258	2296.88	67.3547	2296.88	63.2116	2296.88	69.4175
2378.91	85.2784	2378.91	85.0102	2378.91	85.1856	2378.91	84.4257	2378.91	84.7495	2378.91	83.4971	2378.91	84.0533	2378.91	82.1857	2378.91	83.0593	2378.91	80.6021	2378.91	81.686	2378.91	79.0821	2378.91	80.1693	2378.91	77.6646	2378.91	78.8707	2378.91	75.8168	2378.91	77.448	2378.91	73.6206	2378.91	75.5601	2378.91	71.8351	2378.91	73.7226	2378.91	70.0667	2378.91	71.8144	2378.91	67.4254	2378.91	69.3829	2378.91	69.9945	2378.91	69.3998	2378.91	72.21	2378.91	72.1964	2378.91	69.655	2378.91	71.9561	2378.91	58.6662	2378.91	65.5649	2378.91	67.4237	2378.91	62.7963	2378.91	69.1254
2462.4	85.3146	2462.4	85.1681	2462.4	85.1183	2462.4	84.7091	2462.4	84.6831	2462.4	83.9918	2462.4	84.0114	2462.4	82.9035	2462.4	82.9162	2462.4	81.3028	2462.4	81.353	2462.4	79.5292	2462.4	79.5979	2462.4	78.262	2462.4	78.266	2462.4	77.0402	2462.4	77.2128	2462.4	75.1597	2462.4	75.3515	2462.4	73.0522	2462.4	73.3694	2462.4	71.2028	2462.4	72.3925	2462.4	68.0393	2462.4	70.21	2462.4	69.3826	2462.4	69.6552	2462.4	72.6294	2462.4	72.6213	2462.4	71.5941	2462.4	72.563	2462.4	63.2388	2462.4	67.1639	2462.4	66.1256	2462.4	62.4364	2462.4	68.539
2548.83	84.2693	2548.83	84.1187	2548.83	84.1133	2548.83	83.662	2548.83	83.7663	2548.83	83.0215	2548.83	83.2571	2548.83	82.1173	2548.83	82.4648	2548.83	80.6789	2548.83	81.1947	2548.83	78.7634	2548.83	79.3897	2548.83	77.1625	2548.83	77.5801	2548.83	76.1529	2548.83	76.4004	2548.83	74.9614	2548.83	74.95	2548.83	73.6357	2548.83	72.6297	2548.83	72.1855	2548.83	71.2881	2548.83	69.095	2548.83	69.8027	2548.83	68.1743	2548.83	67.1387	2548.83	71.44	2548.83	70.4322	2548.83	70.4917	2548.83	71.495	2548.83	64.7545	2548.83	67.0457	2548.83	68.2747	2548.83	64.8714	2548.83	69.7288
2639.65	84.291	2639.65	84.249	2639.65	84.2411	2639.65	83.9721	2639.65	84.0987	2639.65	83.5074	2639.65	83.7383	2639.65	82.8107	2639.65	83.0817	2639.65	81.5598	2639.65	81.9981	2639.65	79.6284	2639.65	80.3671	2639.65	77.5604	2639.65	78.4219	2639.65	75.7951	2639.65	76.7147	2639.65	73.7295	2639.65	75.0621	2639.65	72.2161	2639.65	73.2438	2639.65	71.5567	2639.65	72.1967	2639.65	68.6703	2639.65	70.6461	2639.65	66.6869	2639.65	68.0396	2639.65	70.5805	2639.65	70.3851	2639.65	69.6605	2639.65	71.443	2639.65	59.7086	2639.65	67.0313	2639.65	65.8292	2639.65	62.5694	2639.65	68.2222
2731.93	83.8668	2731.93	83.7573	2731.93	83.8942	2731.93	83.5545	2731.93	83.7509	2731.93	83.2319	2731.93	83.5148	2731.93	82.8102	2731.93	83.1195	2731.93	81.9798	2731.93	82.2353	2731.93	80.4696	2731.93	80.573	2731.93	78.5291	2731.93	78.3916	2731.93	76.7648	2731.93	76.5826	2731.93	74.8886	2731.93	74.8923	2731.93	73.2557	2731.93	72.8049	2731.93	73.0249	2731.93	72.2459	2731.93	70.9821	2731.93	71.4138	2731.93	65.9423	2731.93	67.4594	2731.93	70.505	2731.93	69.8639	2731.93	71.3849	2731.93	71.9298	2731.93	65.0304	2731.93	68.3502	2731.93	64.8299	2731.93	63.8355	2731.93	68.2991
2828.61	83.8417	2828.61	83.6746	2828.61	83.8135	2828.61	83.4382	2828.61	83.5745	2828.61	83.006	2828.61	83.28	2828.61	82.4565	2828.61	82.8199	2828.61	81.6808	2828.61	82.0687	2828.61	80.2267	2828.61	80.7056	2828.61	78.2182	2828.61	78.67	2828.61	76.5264	2828.61	76.834	2828.61	74.6186	2828.61	75.1156	2828.61	72.2539	2828.61	72.4296	2828.61	72.393	2828.61	71.3006	2828.61	71.9462	2828.61	71.7122	2828.61	68.3009	2828.61	68.6803	2828.61	70.4791	2828.61	68.2881	2828.61	71.3938	2828.61	71.6827	2828.61	65.4226	2828.61	68.8003	2828.61	64.7336	2828.61	62.3443	2828.61	67.7664
2928.22	82.9169	2928.22	82.8012	2928.22	83.0495	2928.22	82.7558	2928.22	83.2114	2928.22	82.5918	2928.22	83.2691	2928.22	82.1412	2928.22	82.8606	2928.22	81.3672	2928.22	82.1156	2928.22	80.0391	2928.22	80.8813	2928.22	77.963	2928.22	78.8917	2928.22	75.7386	2928.22	76.8311	2928.22	73.9721	2928.22	75.4203	2928.22	71.412	2928.22	72.9317	2928.22	70.8614	2928.22	70.0992	2928.22	71.4646	2928.22	71.2483	2928.22	68.357	2928.22	70.1239	2928.22	69.3226	2928.22	68.0858	2928.22	71.1856	2928.22	70.79	2928.22	66.8472	2928.22	68.936	2928.22	66.0079	2928.22	64.5546	2928.22	68.4057
3030.76	82.8615	3030.76	82.9287	3030.76	83.0435	3030.76	83.0685	3030.76	83.4349	3030.76	83.06	3030.76	83.6121	3030.76	82.7389	3030.76	83.2287	3030.76	81.9156	3030.76	82.3605	3030.76	80.511	3030.76	80.9952	3030.76	78.5094	3030.76	79.0644	3030.76	76.299	3030.76	76.9251	3030.76	74.4135	3030.76	74.9866	3030.76	71.6888	3030.76	72.753	3030.76	69.5526	3030.76	70.3302	3030.76	70.437	3030.76	70.7197	3030.76	68.3228	3030.76	70.0605	3030.76	69.1214	3030.76	68.6545	3030.76	70.9709	3030.76	70.9812	3030.76	66.206	3030.76	68.7797	3030.76	64.3288	3030.76	63.6012	3030.76	67.5944
3137.7	82.3371	3137.7	82.6574	3137.7	82.5476	3137.7	83.0606	3137.7	82.9857	3137.7	83.1324	3137.7	83.2342	3137.7	82.6549	3137.7	82.9666	3137.7	81.5704	3137.7	82.0013	3137.7	80.2626	3137.7	80.6245	3137.7	78.6304	3137.7	78.5303	3137.7	76.4424	3137.7	76.0745	3137.7	74.6652	3137.7	74.626	3137.7	72.7488	3137.7	73.1818	3137.7	70.5197	3137.7	70.4089	3137.7	70.8555	3137.7	70.1526	3137.7	68.5371	3137.7	70.1236	3137.7	68.6995	3137.7	67.2912	3137.7	71.1046	3137.7	69.834	3137.7	67.6016	3137.7	68.4844	3137.7	66.0246	3137.7	63.2785	3137.7	68.1578
3249.02	83.0859	3249.02	83.3039	3249.02	83.417	3249.02	83.7612	3249.02	83.8948	3249.02	83.6623	3249.02	84.1081	3249.02	82.8544	3249.02	83.5658	3249.02	81.5796	3249.02	82.4172	3249.02	80.0828	3249.02	80.9569	3249.02	77.9611	3249.02	78.9974	3249.02	75.2524	3249.02	76.4861	3249.02	73.389	3249.02	74.3697	3249.02	71.8261	3249.02	72.986	3249.02	69.4105	3249.02	70.6634	3249.02	70.1234	3249.02	69.8818	3249.02	69.0298	3249.02	70.9039	3249.02	68.0085	3249.02	68.8919	3249.02	70.6808	3249.02	70.5196	3249.02	66.5949	3249.02	69.7035	3249.02	63.9139	3249.02	63.6798	3249.02	66.7541
3363.28	82.2451	3363.28	82.5406	3363.28	82.7425	3363.28	83.3495	3363.28	83.6211	3363.28	83.5976	3363.28	84.0597	3363.28	83.0174	3363.28	83.5964	3363.28	81.7719	3363.28	82.3635	3363.28	80.0375	3363.28	80.6514	3363.28	78.219	3363.28	78.7384	3363.28	76.1906	3363.28	76.4559	3363.28	74.3382	3363.28	73.9194	3363.28	72.5009	3363.28	72.2502	3363.28	69.2176	3363.28	70.0349	3363.28	69.8521	3363.28	68.7041	3363.28	70.1665	3363.28	70.2315	3363.28	67.4334	3363.28	68.874	3363.28	69.6204	3363.28	69.8406	3363.28	67.1791	3363.28	69.0294	3363.28	65.8649	3363.28	65.1135	3363.28	68.3653
3481.93	82.8697	3481.93	82.9682	3481.93	83.3117	3481.93	83.3989	3481.93	84.0568	3481.93	83.6591	3481.93	84.4082	3481.93	83.0723	3481.93	84.0701	3481.93	81.4834	3481.93	82.8216	3481.93	79.3333	3481.93	81.0722	3481.93	77.1869	3481.93	79.4077	3481.93	74.6497	3481.93	77.1433	3481.93	72.7702	3481.93	74.7261	3481.93	71.8053	3481.93	73.0767	3481.93	68.2611	3481.93	70.8866	3481.93	68.2518	3481.93	68.2829	3481.93	70.0852	3481.93	70.325	3481.93	68.0023	3481.93	70.2712	3481.93	70.3883	3481.93	70.6005	3481.93	66.8348	3481.93	70.2319	3481.93	65.529	3481.93	65.0786	3481.93	68.2649
3604.98	82.9404	3604.98	83.1653	3604.98	83.3113	3604.98	83.6668	3604.98	83.9822	3604.98	83.8657	3604.98	84.3249	3604.98	83.3392	3604.98	83.8606	3604.98	81.8267	3604.98	82.2816	3604.98	79.862	3604.98	80.0343	3604.98	77.8498	3604.98	78.1452	3604.98	75.0615	3604.98	76.0855	3604.98	72.313	3604.98	73.3782	3604.98	71.6015	3604.98	72.501	3604.98	69.105	3604.98	70.6515	3604.98	64.9481	3604.98	66.9662	3604.98	69.1965	3604.98	69.4253	3604.98	68.1259	3604.98	69.6786	3604.98	70.0862	3604.98	69.6226	3604.98	68.1566	3604.98	70.0026	3604.98	63.3935	3604.98	65.4317	3604.98	68.1477
3732.42	83.0484	3732.42	83.2794	3732.42	83.494	3732.42	83.8186	3732.42	84.2817	3732.42	83.7777	3732.42	84.8648	3732.42	83.1631	3732.42	84.4084	3732.42	81.7824	3732.42	83.1893	3732.42	79.5417	3732.42	81.1925	3732.42	77.1434	3732.42	78.8037	3732.42	74.3795	3732.42	76.4956	3732.42	71.4765	3732.42	73.9184	3732.42	70.7795	3732.42	71.8122	3732.42	70.1699	3732.42	71.754	3732.42	64.4346	3732.42	68.0887	3732.42	69.6014	3732.42	69.1805	3732.42	68.8697	3732.42	70.7672	3732.42	69.3234	3732.42	69.7048	3732.42	68.2823	3732.42	70.1581	3732.42	66.3616	3732.42	65.8668	3732.42	69.5519
3864.26	82.4449	3864.26	82.8344	3864.26	82.8223	3864.26	83.6705	3864.26	83.7939	3864.26	84.0098	3864.26	84.3138	3864.26	83.3614	3864.26	83.9663	3864.26	81.8509	3864.26	82.6402	3864.26	79.9132	3864.26	80.7682	3864.26	77.6872	3864.26	78.6927	3864.26	75.3437	3864.26	76.4729	3864.26	73.0179	3864.26	74.1089	3864.26	70.1983	3864.26	71.0718	3864.26	70.4619	3864.26	70.3596	3864.26	67.2654	3864.26	69.0701	3864.26	66.3215	3864.26	66.1726	3864.26	69.1848	3864.26	70.278	3864.26	69.1871	3864.26	70.0181	3864.26	67.1817	3864.26	68.8565	3864.26	66.2346	3864.26	65.2823	3864.26	69.7721
4000.49	82.7142	4000.49	83.0705	4000.49	83.2572	4000.49	83.7114	4000.49	84.2551	4000.49	83.9978	4000.49	84.6516	4000.49	83.3043	4000.49	84.2477	4000.49	81.776	4000.49	83.1262	4000.49	79.8903	4000.49	81.4443	4000.49	77.5582	4000.49	79.3306	4000.49	74.7679	4000.49	77.0762	4000.49	72.3789	4000.49	74.9814	4000.49	70.1654	4000.49	73.0172	4000.49	69.1444	4000.49	70.3889	4000.49	68.3097	4000.49	69.002	4000.49	67.7133	4000.49	67.2338	4000.49	68.3141	4000.49	69.2589	4000.49	70.6536	4000.49	70.6045	4000.49	68.6899	4000.49	70.8246	4000.49	63.1618	4000.49	61.5503	4000.49	68.8433
4141.11	83.1132	4141.11	83.4354	4141.11	83.5287	4141.11	84.2173	4141.11	84.388	4141.11	84.3367	4141.11	84.6448	4141.11	83.3759	4141.11	84.0762	4141.11	81.94	4141.11	82.8109	4141.11	80.1503	4141.11	80.9834	4141.11	78.151	4141.11	79.148	4141.11	76.0816	4141.11	77.122	4141.11	73.3739	4141.11	74.2738	4141.11	71.0412	4141.11	72.2565	4141.11	68.7527	4141.11	70.0626	4141.11	67.3368	4141.11	69.392	4141.11	66.5151	4141.11	66.8502	4141.11	68.4337	4141.11	68.6475	4141.11	69.9902	4141.11	69.7551	4141.11	69.8917	4141.11	71.1446	4141.11	63.5845	4141.11	63.4352	4141.11	68.4431
4287.6	84.0148	4287.6	84.1692	4287.6	84.067	4287.6	84.4889	4287.6	84.5471	4287.6	84.2351	4287.6	84.786	4287.6	82.9617	4287.6	84.1862	4287.6	81.5502	4287.6	82.9064	4287.6	79.9997	4287.6	81.4007	4287.6	77.6553	4287.6	79.1203	4287.6	75.6305	4287.6	77.4694	4287.6	73.634	4287.6	75.4995	4287.6	71.7505	4287.6	73.2778	4287.6	69.1555	4287.6	70.101	4287.6	68.6949	4287.6	69.1744	4287.6	67.2022	4287.6	67.4166	4287.6	67.6602	4287.6	70.3721	4287.6	68.7813	4287.6	68.8238	4287.6	70.1824	4287.6	71.6419	4287.6	61.1389	4287.6	63.604	4287.6	67.386
4438.48	84.998	4438.48	84.9213	4438.48	85.0384	4438.48	84.845	4438.48	85.0223	4438.48	84.6666	4438.48	85.0979	4438.48	83.8093	4438.48	84.5315	4438.48	82.2247	4438.48	83.0734	4438.48	80.6723	4438.48	81.3657	4438.48	78.6438	4438.48	79.4766	4438.48	76.591	4438.48	77.5919	4438.48	74.5361	4438.48	75.1219	4438.48	72.0399	4438.48	73.1079	4438.48	70.0481	4438.48	71.5892	4438.48	68.2652	4438.48	68.4502	4438.48	67.2116	4438.48	66.3488	4438.48	69.3559	4438.48	70.0003	4438.48	67.2675	4438.48	68.3561	4438.48	70.1749	4438.48	72.0338	4438.48	60.2508	4438.48	66.0619	4438.48	66.733
4595.21	85.3652	4595.21	85.2917	4595.21	85.1956	4595.21	85.0579	4595.21	85.1661	4595.21	84.5342	4595.21	85.0106	4595.21	83.7535	4595.21	84.4014	4595.21	82.3795	4595.21	83.2782	4595.21	80.7415	4595.21	82.0328	4595.21	78.4532	4595.21	79.8221	4595.21	76.4024	4595.21	77.6227	4595.21	74.6711	4595.21	75.9026	4595.21	72.7455	4595.21	72.6483	4595.21	70.2234	4595.21	71.4097	4595.21	68.8686	4595.21	70.2917	4595.21	65.6814	4595.21	67.1184	4595.21	70.0825	4595.21	69.8566	4595.21	68.2674	4595.21	68.574	4595.21	72.0161	4595.21	71.721	4595.21	63.2101	4595.21	66.6974	4595.21	67.1577
4756.35	85.6754	4756.35	85.2592	4756.35	85.639	4756.35	84.9708	4756.35	85.3588	4756.35	84.7115	4756.35	85.0765	4756.35	83.8192	4756.35	84.4832	4756.35	82.4278	4756.35	83.4785	4756.35	81.2293	4756.35	81.9115	4756.35	78.8557	4756.35	80.1758	4756.35	76.4115	4756.35	77.5967	4756.35	74.5048	4756.35	75.6534	4756.35	71.8048	4756.35	73.1349	4756.35	70.6678	4756.35	72.0069	4756.35	67.9763	4756.35	68.9293	4756.35	66.3772	4756.35	66.3914	4756.35	68.8227	4756.35	69.0724	4756.35	66.7017	4756.35	68.1681	4756.35	70.5951	4756.35	70.3888	4756.35	64.5993	4756.35	66.7306	4756.35	66.8934
4924.8	85.7023	4924.8	85.3573	4924.8	85.3548	4924.8	84.8171	4924.8	84.8358	4924.8	84.0712	4924.8	84.3532	4924.8	83.3072	4924.8	83.9482	4924.8	82.3731	4924.8	83.4233	4924.8	81.1063	4924.8	81.8896	4924.8	79.0293	4924.8	80.2143	4924.8	75.6494	4924.8	77.458	4924.8	73.204	4924.8	75.1433	4924.8	70.2927	4924.8	71.8904	4924.8	70.1539	4924.8	71.4514	4924.8	66.1583	4924.8	69.1587	4924.8	66.3003	4924.8	67.5853	4924.8	68.5917	4924.8	67.1149	4924.8	66.423	4924.8	67.3541	4924.8	70.096	4924.8	70.4621	4924.8	58.4869	4924.8	65.8621	4924.8	64.1029
5097.66	85.9146	5097.66	85.1475	5097.66	85.5085	5097.66	84.112	5097.66	84.8885	5097.66	83.6469	5097.66	84.5973	5097.66	83.0219	5097.66	84.1913	5097.66	82.3404	5097.66	83.515	5097.66	80.8032	5097.66	82.0355	5097.66	78.1887	5097.66	80.0621	5097.66	75.9929	5097.66	77.2314	5097.66	73.7632	5097.66	74.6266	5097.66	70.0838	5097.66	72.2578	5097.66	70.5265	5097.66	70.306	5097.66	67.4576	5097.66	69.1899	5097.66	65.5904	5097.66	68.1253	5097.66	67.8451	5097.66	67.1753	5097.66	66.0252	5097.66	69.0347	5097.66	69.869	5097.66	69.4799	5097.66	64.2708	5097.66	66.7271	5097.66	65.4128
5277.83	85.7755	5277.83	84.7764	5277.83	85.3515	5277.83	83.5608	5277.83	84.2298	5277.83	83.1298	5277.83	83.8299	5277.83	82.7075	5277.83	83.5828	5277.83	82.0616	5277.83	83.2109	5277.83	80.7886	5277.83	81.5702	5277.83	78.3387	5277.83	79.4261	5277.83	76.4424	5277.83	77.3454	5277.83	73.0653	5277.83	74.286	5277.83	70.5499	5277.83	72.089	5277.83	69.1293	5277.83	69.4639	5277.83	67.5902	5277.83	68.2851	5277.83	65.4066	5277.83	65.8455	5277.83	67.5605	5277.83	66.963	5277.83	66.2739	5277.83	68.1064	5277.83	69.4268	5277.83	68.4846	5277.83	58.8796	5277.83	67.0382	5277.83	62.7702
5463.87	86.2171	5463.87	85.2129	5463.87	85.5552	5463.87	83.6543	5463.87	84.0392	5463.87	82.9472	5463.87	83.5503	5463.87	83.0318	5463.87	83.8	5463.87	82.5965	5463.87	83.4144	5463.87	80.9532	5463.87	82.0099	5463.87	78.0419	5463.87	79.5778	5463.87	75.3072	5463.87	76.7173	5463.87	73.2099	5463.87	73.8605	5463.87	70.8804	5463.87	71.8411	5463.87	67.254	5463.87	68.6361	5463.87	65.8489	5463.87	69.0831	5463.87	65.6731	5463.87	66.0647	5463.87	67.0847	5463.87	65.9761	5463.87	67.5283	5463.87	69.6419	5463.87	68.7125	5463.87	68.2174	5463.87	63.3049	5463.87	66.7739	5463.87	62.4322
5657.23	86.1897	5657.23	85.009	5657.23	85.5062	5657.23	83.1527	5657.23	83.9479	5657.23	82.7354	5657.23	83.364	5657.23	82.7112	5657.23	83.6611	5657.23	82.1721	5657.23	83.1568	5657.23	80.3507	5657.23	81.7218	5657.23	77.5515	5657.23	79.4797	5657.23	75.181	5657.23	76.7896	5657.23	71.7879	5657.23	74.0696	5657.23	71.0095	5657.23	71.7292	5657.23	67.596	5657.23	68.5464	5657.23	67.3079	5657.23	68.6375	5657.23	64.4417	5657.23	64.4118	5657.23	65.0752	5657.23	66.5451	5657.23	67.0974	5657.23	69.832	5657.23	69.1391	5657.23	67.5512	5657.23	62.8521	5657.23	66.3461	5657.23	62.2425
5856.45	86.4059	5856.45	85.2818	5856.45	85.7148	5856.45	83.5138	5856.45	84.022	5856.45	82.9758	5856.45	83.3644	5856.45	82.9836	5856.45	83.7811	5856.45	82.3698	5856.45	83.3633	5856.45	80.2133	5856.45	81.6295	5856.45	77.5647	5856.45	79.2009	5856.45	74.8817	5856.45	76.5084	5856.45	72.6299	5856.45	73.4034	5856.45	70.7331	5856.45	71.5374	5856.45	66.198	5856.45	68.2173	5856.45	67.4608	5856.45	66.8429	5856.45	61.4274	5856.45	62.261	5856.45	64.7298	5856.45	66.6908	5856.45	67.38	5856.45	68.6319	5856.45	68.2889	5856.45	67.372	5856.45	61.6031	5856.45	66.9067	5856.45	61.2357
6062.99	86.3688	6062.99	85.2797	6062.99	85.6677	6062.99	83.5614	6062.99	84.1539	6062.99	83.4651	6062.99	83.7922	6062.99	83.2147	6062.99	84.0553	6062.99	82.295	6062.99	83.2471	6062.99	80.2015	6062.99	81.3629	6062.99	77.6567	6062.99	79.2628	6062.99	75.1489	6062.99	76.6573	6062.99	71.8757	6062.99	73.9482	6062.99	68.514	6062.99	71.6092	6062.99	65.2911	6062.99	69.6609	6062.99	65.9481	6062.99	67.423	6062.99	59.7098	6062.99	61.6619	6062.99	64.872	6062.99	65.944	6062.99	67.3511	6062.99	68.2751	6062.99	66.5681	6062.99	67.7924	6062.99	63.1467	6062.99	66.1199	6062.99	59.0791
6276.86	86.6123	6276.86	85.6135	6276.86	86.0107	6276.86	84.273	6276.86	84.5344	6276.86	83.8512	6276.86	84.0393	6276.86	83.3127	6276.86	84.0789	6276.86	82.1513	6276.86	83.1419	6276.86	79.7451	6276.86	81.5936	6276.86	77.42	6276.86	79.0925	6276.86	74.5524	6276.86	76.7261	6276.86	71.8561	6276.86	73.6259	6276.86	69.9124	6276.86	71.0423	6276.86	67.8027	6276.86	69.1687	6276.86	66.0621	6276.86	65.9627	6276.86	58.1886	6276.86	64.5393	6276.86	63.8589	6276.86	66.3085	6276.86	66.0953	6276.86	66.8759	6276.86	68.1205	6276.86	66.1261	6276.86	63.5997	6276.86	67.6401	6276.86	56.4059
6498.05	86.8112	6498.05	86.0236	6498.05	86.3705	6498.05	84.7576	6498.05	85.2396	6498.05	84.3283	6498.05	84.7477	6498.05	83.5626	6498.05	84.4712	6498.05	82.1807	6498.05	83.2094	6498.05	79.9084	6498.05	81.2028	6498.05	77.4602	6498.05	79.1452	6498.05	74.9726	6498.05	76.3099	6498.05	72.3044	6498.05	73.9043	6498.05	69.4821	6498.05	71.4508	6498.05	67.1247	6498.05	68.5366	6498.05	64.0867	6498.05	63.9981	6498.05	63.6644	6498.05	66.5358	6498.05	65.614	6498.05	64.3203	6498.05	67.852	6498.05	67.6821	6498.05	65.7857	6498.05	66.1063	6498.05	64.7409	6498.05	67.0819	6498.05	59.979
6726.56	87.063	6726.56	86.3875	6726.56	86.7534	6726.56	85.3824	6726.56	85.9163	6726.56	84.4816	6726.56	85.1204	6726.56	83.5017	6726.56	84.3288	6726.56	81.9675	6726.56	82.9608	6726.56	79.7082	6726.56	81.5193	6726.56	77.3498	6726.56	78.7388	6726.56	74.3384	6726.56	76.1849	6726.56	71.9539	6726.56	73.3833	6726.56	69.9512	6726.56	70.6028	6726.56	66.4091	6726.56	67.2778	6726.56	62.7431	6726.56	65.8022	6726.56	61.7705	6726.56	64.8188	6726.56	65.2725	6726.56	63.8017	6726.56	65.7678	6726.56	66.4846	6726.56	66.1625	6726.56	64.7788	6726.56	64.4956	6726.56	66.4337	6726.56	56.4216
6963.87	86.8686	6963.87	86.561	6963.87	86.9446	6963.87	85.7281	6963.87	86.3729	6963.87	84.4795	6963.87	85.3139	6963.87	83.1438	6963.87	84.1726	6963.87	81.5309	6963.87	82.6819	6963.87	79.6539	6963.87	80.9396	6963.87	77.1106	6963.87	78.6271	6963.87	74.2722	6963.87	76.1942	6963.87	72.0991	6963.87	73.1249	6963.87	69.2265	6963.87	70.4092	6963.87	66.4507	6963.87	68.5911	6963.87	63.7797	6963.87	65.4762	6963.87	64.4446	6963.87	66.1892	6963.87	63.5999	6963.87	61.2148	6963.87	65.2417	6963.87	65.3144	6963.87	64.3643	6963.87	65.117	6963.87	62.7734	6963.87	67.4877	6963.87	57.5963
7209.96	87.0499	7209.96	86.8644	7209.96	87.0802	7209.96	86.0017	7209.96	86.4354	7209.96	84.2787	7209.96	85.2297	7209.96	82.6347	7209.96	83.7338	7209.96	81.4275	7209.96	82.5019	7209.96	79.736	7209.96	81.3963	7209.96	77.7355	7209.96	79.0043	7209.96	75.0837	7209.96	76.3194	7209.96	72.6037	7209.96	73.3122	7209.96	69.3209	7209.96	70.0546	7209.96	67.4421	7209.96	68.6464	7209.96	64.6631	7209.96	65.6659	7209.96	63.6727	7209.96	64.7685	7209.96	62.7016	7209.96	60.5605	7209.96	63.7934	7209.96	64.0403	7209.96	64.3168	7209.96	64.3913	7209.96	64.2914	7209.96	66.7906	7209.96	56.7711
7464.84	86.8586	7464.84	86.9418	7464.84	87.0554	7464.84	86.0125	7464.84	86.6232	7464.84	83.8128	7464.84	84.8433	7464.84	82.4512	7464.84	83.2659	7464.84	81.8202	7464.84	82.7491	7464.84	80.6013	7464.84	81.6778	7464.84	78.5328	7464.84	79.6306	7464.84	75.4149	7464.84	76.7622	7464.84	72.5093	7464.84	73.9002	7464.84	69.1162	7464.84	71.4992	7464.84	67.4619	7464.84	68.2884	7464.84	65.32	7464.84	65.5719	7464.84	63.5154	7464.84	65.3184	7464.84	62.3566	7464.84	60.1955	7464.84	64.2667	7464.84	63.5145	7464.84	62.4772	7464.84	65.2834	7464.84	63.6854	7464.84	66.9041	7464.84	58.2653
7727.05	86.3979	7727.05	86.7766	7727.05	86.9214	7727.05	85.8971	7727.05	86.5617	7727.05	83.2212	7727.05	84.3481	7727.05	82.5163	7727.05	83.1864	7727.05	82.1702	7727.05	83.2125	7727.05	80.8986	7727.05	82.143	7727.05	78.0172	7727.05	79.6495	7727.05	74.6031	7727.05	76.1858	7727.05	71.4962	7727.05	73.2535	7727.05	69.4248	7727.05	70.399	7727.05	66.5868	7727.05	67.7067	7727.05	61.5328	7727.05	65.1066	7727.05	62.4844	7727.05	63.77	7727.05	62.4944	7727.05	60.3874	7727.05	63.0682	7727.05	63.0376	7727.05	63.0177	7727.05	66.2753	7727.05	63.0727	7727.05	65.7085	7727.05	58.5938
7999.51	86.2997	7999.51	86.6622	7999.51	86.8763	7999.51	85.6823	7999.51	86.2807	7999.51	83.344	7999.51	84.3755	7999.51	83.0888	7999.51	83.6084	7999.51	82.3915	7999.51	83.4592	7999.51	80.2913	7999.51	81.9902	7999.51	77.1035	7999.51	79.0324	7999.51	73.2338	7999.51	75.6443	7999.51	70.7771	7999.51	72.7851	7999.51	67.4861	7999.51	69.8493	7999.51	63.2879	7999.51	66.3699	7999.51	61.5489	7999.51	63.811	7999.51	60.0392	7999.51	61.4859	7999.51	59.1857	7999.51	58.4469	7999.51	61.6619	7999.51	63.075	7999.51	61.558	7999.51	66.288	7999.51	63.0306	7999.51	65.3295	7999.51	54.4965
8282.23	86.476	8282.23	86.9186	8282.23	86.8664	8282.23	86.142	8282.23	86.6489	8282.23	84.3206	8282.23	85.1017	8282.23	83.6891	8282.23	84.1112	8282.23	82.1121	8282.23	83.2706	8282.23	79.3483	8282.23	81.0477	8282.23	76.0423	8282.23	78.0625	8282.23	72.2303	8282.23	75.1308	8282.23	70.2693	8282.23	72.0701	8282.23	67.1567	8282.23	69.0604	8282.23	64.1991	8282.23	65.8806	8282.23	60.694	8282.23	63.7854	8282.23	59.3479	8282.23	61.4652	8282.23	54.0765	8282.23	56.0676	8282.23	61.5333	8282.23	63.303	8282.23	62.2029	8282.23	65.6606	8282.23	62.6248	8282.23	63.7226	8282.23	54.7784
8573.73	86.5833	8573.73	87.1002	8573.73	87.0516	8573.73	86.4493	8573.73	87.118	8573.73	84.7474	8573.73	85.4077	8573.73	83.6004	8573.73	84.159	8573.73	81.6841	8573.73	82.9569	8573.73	79.007	8573.73	80.5606	8573.73	76.0096	8573.73	77.8809	8573.73	72.8753	8573.73	74.8949	8573.73	70.807	8573.73	72.0584	8573.73	67.5518	8573.73	68.8591	8573.73	63.5098	8573.73	66.1949	8573.73	61.012	8573.73	63.129	8573.73	58.8596	8573.73	61.7907	8573.73	55.187	8573.73	58.8057	8573.73	61.0721	8573.73	63.4296	8573.73	63.4366	8573.73	66.0292	8573.73	63.1149	8573.73	63.7609	8573.73	48.0877
8876.95	87.049	8876.95	87.1238	8876.95	87.164	8876.95	86.2886	8876.95	86.9938	8876.95	84.5376	8876.95	85.3132	8876.95	83.22	8876.95	83.9478	8876.95	80.9086	8876.95	82.547	8876.95	78.6231	8876.95	80.3401	8876.95	76.4906	8876.95	78.0508	8876.95	73.1873	8876.95	75.4894	8876.95	71.0274	8876.95	72.5006	8876.95	67.7411	8876.95	69.0901	8876.95	64.7463	8876.95	66.3488	8876.95	61.9799	8876.95	64.1397	8876.95	59.1202	8876.95	61.0253	8876.95	59.2486	8876.95	58.9043	8876.95	59.3032	8876.95	61.6287	8876.95	63.725	8876.95	65.7479	8876.95	60.7595	8876.95	62.4832	8876.95	51.5016
9188.96	87.6178	9188.96	87.1225	9188.96	87.3486	9188.96	85.9997	9188.96	86.6864	9188.96	84.4789	9188.96	85.1254	9188.96	82.5646	9188.96	83.4996	9188.96	80.386	9188.96	81.9471	9188.96	78.5627	9188.96	80.3343	9188.96	75.9237	9188.96	78.0287	9188.96	72.9307	9188.96	75.0452	9188.96	69.9493	9188.96	71.6279	9188.96	66.7951	9188.96	68.631	9188.96	64.3259	9188.96	66.5942	9188.96	62.2279	9188.96	64.1337	9188.96	57.2779	9188.96	58.4302	9188.96	57.6838	9188.96	59.7433	9188.96	57.5539	9188.96	60.7072	9188.96	62.7278	9188.96	64.6767	9188.96	59.9037	9188.96	62.0303	9188.96	53.0729
9514.16	87.4995	9514.16	87.0269	9514.16	87.2843	9514.16	86.1749	9514.16	86.8213	9514.16	84.2686	9514.16	85.1451	9514.16	81.9465	9514.16	83.1065	9514.16	80.5046	9514.16	81.9011	9514.16	79.1505	9514.16	80.5166	9514.16	75.9161	9514.16	77.9436	9514.16	72.512	9514.16	74.2364	9514.16	68.9514	9514.16	70.1242	9514.16	65.6577	9514.16	66.9277	9514.16	64.0155	9514.16	65.5836	9514.16	63.1551	9514.16	62.9034	9514.16	57.0508	9514.16	55.3835	9514.16	57.1638	9514.16	58.8144	9514.16	58.736	9514.16	58.71	9514.16	62.4724	9514.16	63.826	9514.16	60.0817	9514.16	61.3548	9514.16	48.5108
9849.61	87.5171	9849.61	86.9628	9849.61	87.4086	9849.61	86.5314	9849.61	87.191	9849.61	84.1875	9849.61	85.3393	9849.61	81.7199	9849.61	82.9849	9849.61	80.5347	9849.61	81.9071	9849.61	78.7853	9849.61	80.2779	9849.61	75.2156	9849.61	76.7099	9849.61	71.2172	9849.61	72.4886	9849.61	67.432	9849.61	68.497	9849.61	64.2566	9849.61	65.6426	9849.61	63.1524	9849.61	63.813	9849.61	61.3813	9849.61	60.2708	9849.61	55.3579	9849.61	55.7532	9849.61	54.8741	9849.61	54.8436	9849.61	58.0746	9849.61	59.1517	9849.61	62.7171	9849.61	62.9132	9849.61	57.1887	9849.61	58.7768	9849.61	47.2329
10196.8	87.8674	10196.8	87.4387	10196.8	87.7358	10196.8	86.8077	10196.8	87.4162	10196.8	84.4558	10196.8	85.3497	10196.8	82.0338	10196.8	82.9619	10196.8	80.3251	10196.8	81.4144	10196.8	77.3328	10196.8	79.1051	10196.8	73.2674	10196.8	74.7015	10196.8	69.8275	10196.8	70.3218	10196.8	66.0397	10196.8	67.9193	10196.8	63.8249	10196.8	64.5526	10196.8	61.6418	10196.8	62.0689	10196.8	59.7119	10196.8	59.8721	10196.8	57.5872	10196.8	59.5588	10196.8	48.6003	10196.8	47.5268	10196.8	57.1213	10196.8	56.4706	10196.8	62.3032	10196.8	59.3328	10196.8	55.304	10196.8	58.5938	10196.8	47.3198
10555.7	88.4594	10555.7	87.626	10555.7	88.0071	10555.7	86.8772	10555.7	87.4075	10555.7	84.6161	10555.7	85.4937	10555.7	82.0591	10555.7	83.0448	10555.7	79.6317	10555.7	80.9529	10555.7	76.3925	10555.7	78.1731	10555.7	71.8899	10555.7	74.0334	10555.7	69.267	10555.7	70.2846	10555.7	66.12	10555.7	67.8996	10555.7	63.6263	10555.7	65.0048	10555.7	61.2437	10555.7	61.2902	10555.7	60.0273	10555.7	59.6603	10555.7	55.9956	10555.7	56.7018	10555.7	51.0844	10555.7	52.8567	10555.7	54.6555	10555.7	54.934	10555.7	60.2677	10555.7	59.2931	10555.7	56.2102	10555.7	58.7731	10555.7	51.81
10927.7	88.6343	10927.7	87.7009	10927.7	88.0653	10927.7	86.7392	10927.7	87.4713	10927.7	84.3647	10927.7	85.5883	10927.7	81.7347	10927.7	82.9498	10927.7	78.7499	10927.7	80.3905	10927.7	75.6606	10927.7	77.3129	10927.7	71.5786	10927.7	73.9268	10927.7	68.6872	10927.7	70.432	10927.7	65.8652	10927.7	67.7672	10927.7	62.5892	10927.7	64.9326	10927.7	61.0872	10927.7	61.3013	10927.7	58.3274	10927.7	58.1386	10927.7	55.7299	10927.7	55.3442	10927.7	50.7536	10927.7	51.7286	10927.7	53.4867	10927.7	47.3779	10927.7	57.5117	10927.7	59.1445	10927.7	55.4774	10927.7	57.8817	10927.7	48.8845
11313	88.6933	11313	87.9264	11313	88.2147	11313	86.7253	11313	87.4133	11313	84.5117	11313	85.5254	11313	81.4501	11313	82.7854	11313	77.7998	11313	79.6314	11313	74.4519	11313	76.483	11313	70.6905	11313	73.4789	11313	67.368	11313	70.4508	11313	65.2019	11313	67.4139	11313	61.6027	11313	63.3589	11313	60.4461	11313	60.5882	11313	56.5064	11313	59.3497	11313	56.107	11313	55.9717	11313	42.9445	11313	52.3882	11313	49.9942	11313	39.5105	11313	58.1863	11313	56.926	11313	56.4459	11313	57.1691	11313	53.3738
11712.9	88.8147	11712.9	87.7696	11712.9	88.3304	11712.9	86.3585	11712.9	87.3481	11712.9	84.0319	11712.9	85.5409	11712.9	80.8087	11712.9	82.6648	11712.9	77.5998	11712.9	79.4261	11712.9	74.9654	11712.9	77.0017	11712.9	71.6269	11712.9	74.2102	11712.9	68.0358	11712.9	70.4644	11712.9	65.3579	11712.9	67.0364	11712.9	61.9346	11712.9	63.0015	11712.9	60.4053	11712.9	61.2433	11712.9	56.8251	11712.9	59.9255	11712.9	56.2318	11712.9	59.047	11712.9	49.1678	11712.9	52.0021	11712.9	47.415	11712.9	42.94	11712.9	53.3923	11712.9	51.2512	11712.9	55.9231	11712.9	59.5237	11712.9	55.046
12126	88.8118	12126	87.7139	12126	88.2301	12126	86.2217	12126	87.1439	12126	84.2275	12126	85.5265	12126	80.5754	12126	82.4136	12126	77.5447	12126	79.4458	12126	75.5531	12126	77.1424	12126	71.7549	12126	73.8397	12126	67.7938	12126	69.8786	12126	65.3703	12126	65.8812	12126	62.5921	12126	63.1598	12126	59.9041	12126	60.2502	12126	59.5628	12126	59.7939	12126	56.5606	12126	59.8402	12126	52.8995	12126	50.1572	12126	46.5693	12126	44.6874	12126	52.9808	12126	57.7902	12126	54.8662	12126	52.4009	12126	54.1112
12553.7	88.7469	12553.7	87.9765	12553.7	88.4181	12553.7	86.2689	12553.7	87.1693	12553.7	84.2545	12553.7	85.5896	12553.7	80.5249	12553.7	82.4646	12553.7	78.0956	12553.7	79.8505	12553.7	75.5054	12553.7	77.1642	12553.7	71.7916	12553.7	73.4711	12553.7	68.2184	12553.7	70.0518	12553.7	65.5631	12553.7	65.977	12553.7	63.1012	12553.7	62.9818	12553.7	59.5999	12553.7	61.4108	12553.7	58.7146	12553.7	59.9358	12553.7	55.9813	12553.7	57.7912	12553.7	53.432	12553.7	53.581	12553.7	48.4782	12553.7	32.8747	12553.7	53.5415	12553.7	57.8585	12553.7	50.9346	12553.7	52.9458	12553.7	53.0391
12996.1	89.0402	12996.1	88.0728	12996.1	88.5765	12996.1	86.2031	12996.1	87.2254	12996.1	84.0015	12996.1	85.4177	12996.1	80.3043	12996.1	82.3541	12996.1	77.7378	12996.1	79.8428	12996.1	74.5655	12996.1	76.1431	12996.1	71.7545	12996.1	72.4122	12996.1	68.4456	12996.1	69.5898	12996.1	64.8599	12996.1	66.1937	12996.1	62.4273	12996.1	62.9034	12996.1	59.5929	12996.1	61.1347	12996.1	59.1498	12996.1	59.419	12996.1	56.6633	12996.1	56.8954	12996.1	53.7368	12996.1	55.0843	12996.1	42.3987	12996.1	44.6533	12996.1	53.4054	12996.1	56.4406	12996.1	51.5088	12996.1	49.8392	12996.1	51.5404
13454.6	88.6339	13454.6	88.1449	13454.6	88.5185	13454.6	85.944	13454.6	86.9479	13454.6	83.317	13454.6	84.8603	13454.6	79.4	13454.6	81.8559	13454.6	76.7138	13454.6	78.9889	13454.6	74.4156	13454.6	74.956	13454.6	72.8727	13454.6	72.9512	13454.6	69.7817	13454.6	70.215	13454.6	66.409	13454.6	66.9829	13454.6	63.152	13454.6	62.9909	13454.6	58.6879	13454.6	61.0513	13454.6	59.0878	13454.6	59.2742	13454.6	56.9335	13454.6	58.6266	13454.6	53.2759	13454.6	55.4406	13454.6	35.8178	13454.6	47.1678	13454.6	52.8022	13454.6	55.444	13454.6	46.5736	13454.6	52.1495	13454.6	50.468
13929.2	88.9025	13929.2	88.0799	13929.2	88.6377	13929.2	85.5362	13929.2	86.8586	13929.2	82.7916	13929.2	84.7816	13929.2	79.31	13929.2	81.5538	13929.2	77.1038	13929.2	78.2753	13929.2	76.4373	13929.2	76.2625	13929.2	74.5351	13929.2	75.025	13929.2	70.9217	13929.2	71.8677	13929.2	67.2101	13929.2	67.3499	13929.2	64.0211	13929.2	64.038	13929.2	59.9394	13929.2	61.2434	13929.2	59.4337	13929.2	59.7952	13929.2	57.2423	13929.2	58.8444	13929.2	56.3944	13929.2	54.3253	13929.2	34.7789	13929.2	49.3669	13929.2	51.9903	13929.2	52.2563	13929.2	50.1877	13929.2	54.898	13929.2	51.4395
14419.9	89.0338	14419.9	88.0872	14419.9	88.774	14419.9	85.5073	14419.9	86.9078	14419.9	83.2741	14419.9	84.8581	14419.9	79.9523	14419.9	81.8793	14419.9	78.0431	14419.9	79.3182	14419.9	77.3937	14419.9	78.6594	14419.9	74.4319	14419.9	76.0095	14419.9	70.2445	14419.9	71.5061	14419.9	66.0027	14419.9	66.8434	14419.9	62.9267	14419.9	64.1079	14419.9	59.2362	14419.9	61.1326	14419.9	57.9564	14419.9	59.9841	14419.9	55.1369	14419.9	54.2825	14419.9	53.7366	14419.9	54.8462	14419.9	38.4241	14419.9	52.9078	14419.9	52.5043	14419.9	55.5489	14419.9	48.0245	14419.9	55.3768	14419.9	54.9357
14928.2	89.34	14928.2	88.2335	14928.2	88.9189	14928.2	85.6805	14928.2	87.2025	14928.2	83.1495	14928.2	84.677	14928.2	79.6294	14928.2	81.2839	14928.2	78.3655	14928.2	79.5654	14928.2	76.5748	14928.2	78.4265	14928.2	72.9035	14928.2	74.187	14928.2	68.7715	14928.2	69.5902	14928.2	64.2752	14928.2	64.9135	14928.2	62.3769	14928.2	62.7756	14928.2	58.301	14928.2	59.2239	14928.2	56.6636	14928.2	57.9179	14928.2	55.1483	14928.2	53.0696	14928.2	54.1268	14928.2	54.9528	14928.2	35.4565	14928.2	50.1872	14928.2	54.4649	14928.2	54.2232	14928.2	44.6599	14928.2	52.2798	14928.2	47.7151
15455.6	89.0011	15455.6	88.1337	15455.6	88.6357	15455.6	85.7238	15455.6	87.1617	15455.6	83.1894	15455.6	84.5657	15455.6	80.2202	15455.6	81.2863	15455.6	78.8952	15455.6	79.7623	15455.6	76.0999	15455.6	76.9887	15455.6	72.198	15455.6	71.5488	15455.6	68.2471	15455.6	66.8951	15455.6	64.6063	15455.6	64.4395	15455.6	60.8684	15455.6	60.5219	15455.6	57.7281	15455.6	56.8892	15455.6	55.7838	15455.6	54.5556	15455.6	56.3331	15455.6	54.1304	15455.6	54.1487	15455.6	50.7179	15455.6	43.0623	15455.6	45.6702	15455.6	50.6257	15455.6	53.9117	15455.6	47.9549	15455.6	54.871	15455.6	53.5648
16000.5	88.5909	16000.5	87.6116	16000.5	88.1761	16000.5	85.1394	16000.5	86.6056	16000.5	82.5511	16000.5	84.0507	16000.5	80.3762	16000.5	80.7472	16000.5	77.7511	16000.5	78.8394	16000.5	74.0933	16000.5	74.0506	16000.5	71.9287	16000.5	69.9431	16000.5	69.1232	16000.5	67.5156	16000.5	65.3475	16000.5	63.476	16000.5	61.1886	16000.5	61.7061	16000.5	59.186	16000.5	58.6324	16000.5	55.04	16000.5	55.7164	16000.5	56.0295	16000.5	51.9065	16000.5	55.3603	16000.5	51.03	16000.5	31.9547	16000.5	46.8689	16000.5	53.1194	16000.5	52.0672	16000.5	48.214	16000.5	51.5136	16000.5	46.9835
16564.5	86.6907	16564.5	85.6974	16564.5	86.0792	16564.5	83.6918	16564.5	85.3446	16564.5	81.3082	16564.5	82.7605	16564.5	80.4668	16564.5	80.7982	16564.5	75.9725	16564.5	76.9321	16564.5	73.1253	16564.5	71.3512	16564.5	73.6611	16564.5	72.5718	16564.5	70.3789	16564.5	70.1596	16564.5	66.5323	16564.5	65.9544	16564.5	63.2544	16564.5	62.5762	16564.5	59.5466	16564.5	59.7161	16564.5	55.0019	16564.5	57.0604	16564.5	58.2447	16564.5	52.18	16564.5	57.2938	16564.5	51.8403	16564.5	45.6402	16564.5	50.4393	16564.5	40.1598	16564.5	51.5261	16564.5	46.0622	16564.5	55.351	16564.5	56.3181
17148.9	85.5282	17148.9	85.0679	17148.9	85.5052	17148.9	82.3852	17148.9	84.1302	17148.9	80.8861	17148.9	81.573	17148.9	79.1087	17148.9	79.9243	17148.9	74.0565	17148.9	73.9697	17148.9	74.6084	17148.9	74.4911	17148.9	73.1973	17148.9	73.5575	17148.9	68.3782	17148.9	69.0147	17148.9	62.0375	17148.9	63.9277	17148.9	59.444	17148.9	59.8449	17148.9	58.5675	17148.9	58.1206	17148.9	56.3051	17148.9	57.3736	17148.9	51.627	17148.9	36.7747	17148.9	55.4552	17148.9	47.5996	17148.9	42.2455	17148.9	25.7354	17148.9	46.9633	17148.9	53.6625	17148.9	50.6081	17148.9	54.7907	17148.9	53.7015
17752.4	85.7456	17752.4	85.8636	17752.4	86.1763	17752.4	83.4535	17752.4	84.6147	17752.4	81.0707	17752.4	82.2585	17752.4	77.1536	17752.4	78.1558	17752.4	75.1086	17752.4	74.213	17752.4	72.8422	17752.4	73.5241	17752.4	69.7084	17752.4	70.2609	17752.4	65.6046	17752.4	66.1109	17752.4	60.1116	17752.4	61.3484	17752.4	56.8682	17752.4	58.5602	17752.4	54.5426	17752.4	56.1643	17752.4	51.1919	17752.4	57.4549	17752.4	50.6171	17752.4	48.0743	17752.4	51.9523	17752.4	52.0838	17752.4	47.1062	17752.4	42.2447	17752.4	44.8958	17752.4	43.9684	17752.4	48.9838	17752.4	50.8418	17752.4	51.0375
18379.4	86.4905	18379.4	85.8914	18379.4	86.2921	18379.4	83.7805	18379.4	85.0713	18379.4	80.6262	18379.4	81.7004	18379.4	77.6166	18379.4	77.6728	18379.4	74.0191	18379.4	73.5718	18379.4	70.3864	18379.4	72.3679	18379.4	68.1404	18379.4	68.9177	18379.4	63.9582	18379.4	65.1509	18379.4	58.6773	18379.4	60.1082	18379.4	54.9418	18379.4	56.8032	18379.4	54.4613	18379.4	54.4323	18379.4	50.2279	18379.4	52.7873	18379.4	46.8721	18379.4	50.3691	18379.4	49.9965	18379.4	50.9662	18379.4	44.5234	18379.4	43.0091	18379.4	37.9822	18379.4	45.7951	18379.4	50.3569	18379.4	50.7619	18379.4	47.224
19026.9	86.603	19026.9	86.178	19026.9	86.3646	19026.9	83.742	19026.9	84.9826	19026.9	80.4192	19026.9	81.4182	19026.9	76.8054	19026.9	76.8011	19026.9	72.0486	19026.9	71.6124	19026.9	68.5322	19026.9	70.6898	19026.9	65.8492	19026.9	66.8079	19026.9	60.6023	19026.9	62.8369	19026.9	55.9327	19026.9	58.384	19026.9	53.5931	19026.9	54.704	19026.9	51.2299	19026.9	52.0185	19026.9	47.3666	19026.9	51.626	19026.9	33.9048	19026.9	50.4239	19026.9	44.8448	19026.9	49.1323	19026.9	45.8351	19026.9	41.0582	19026.9	41.3896	19026.9	46.7414	19026.9	48.8921	19026.9	47.0014	19026.9	38.49
19697.8	86.8509	19697.8	86.187	19697.8	86.5173	19697.8	83.5248	19697.8	84.6121	19697.8	79.5861	19697.8	80.6276	19697.8	76.3631	19697.8	75.2659	19697.8	71.0355	19697.8	69.498	19697.8	65.0736	19697.8	68.0992	19697.8	60.5181	19697.8	65.9226	19697.8	59.2319	19697.8	63.1431	19697.8	55.1671	19697.8	59.6684	19697.8	54.5401	19697.8	51.8476	19697.8	50.9571	19697.8	51.5	19697.8	37.2151	19697.8	41.673	19697.8	42.726	19697.8	53.5813	19697.8	45.0145	19697.8	45.1566	19697.8	48.9242	19697.8	46.5242	19697.8	33.9018	19697.8	43.2591	19697.8	42.9535	19697.8	48.7058	19697.8	39.9509
19999.5	87.4477	19999.5	86.5427	19999.5	86.9527	19999.5	83.6621	19999.5	84.8635	19999.5	78.9909	19999.5	80.83	19999.5	75.6808	19999.5	74.2819	19999.5	67.9113	19999.5	67.6537	19999.5	60.7828	19999.5	66.404	19999.5	61.0084	19999.5	66.8403	19999.5	58.0403	19999.5	63.5327	19999.5	56.8855	19999.5	60.0202	19999.5	54.3203	19999.5	53.618	19999.5	52.0687	19999.5	45.2587	19999.5	36.1837	19999.5	44.2148	19999.5	48.5868	19999.5	57.1356	19999.5	48.3654	19999.5	49.9847	19999.5	45.6395	19999.5	47.5727	19999.5	44.4704	19999.5	51.8768	19999.5	51.4861	19999.5	50.3633	19999.5	50.1903
