"SPL Vertical"
"On-Axis"		"10°"		"-10°"		"20°"		"-20°"		"30°"		"-30°"		"40°"		"-40°"		"50°"		"-50°"		"60°"		"-60°"		"70°"		"-70°"		"80°"		"-80°"		"90°"		"-90°"		"100°"		"-100°"		"110°"		"-110°"		"120°"		"-120°"		"130°"		"-130°"		"140°"		"-140°"		"150°"		"-150°"		"160°"		"-160°"		"170°"		"-170°"		"180°"
"Frequency / Hz"	"Sound Pressure Level / dB (re 20 µPa/V)  [2.83V at 1m]"	"Frequency / Hz"	"Sound Pressure Level / dB (re 20 µPa/V)  [2.83V at 1m]"	"Frequency / Hz"	"Sound Pressure Level / dB (re 20 µPa/V)  [2.83V at 1m]"	"Frequency / Hz"	"Sound Pressure Level / dB (re 20 µPa/V)  [2.83V at 1m]"	"Frequency / Hz"	"Sound Pressure Level / dB (re 20 µPa/V)  [2.83V at 1m]"	"Frequency / Hz"	"Sound Pressure Level / dB (re 20 µPa/V)  [2.83V at 1m]"	"Frequency / Hz"	"Sound Pressure Level / dB (re 20 µPa/V)  [2.83V at 1m]"	"Frequency / Hz"	"Sound Pressure Level / dB (re 20 µPa/V)  [2.83V at 1m]"	"Frequency / Hz"	"Sound Pressure Level / dB (re 20 µPa/V)  [2.83V at 1m]"	"Frequency / Hz"	"Sound Pressure Level / dB (re 20 µPa/V)  [2.83V at 1m]"	"Frequency / Hz"	"Sound Pressure Level / dB (re 20 µPa/V)  [2.83V at 1m]"	"Frequency / Hz"	"Sound Pressure Level / dB (re 20 µPa/V)  [2.83V at 1m]"	"Frequency / Hz"	"Sound Pressure Level / dB (re 20 µPa/V)  [2.83V at 1m]"	"Frequency / Hz"	"Sound Pressure Level / dB (re 20 µPa/V)  [2.83V at 1m]"	"Frequency / Hz"	"Sound Pressure Level / dB (re 20 µPa/V)  [2.83V at 1m]"	"Frequency / Hz"	"Sound Pressure Level / dB (re 20 µPa/V)  [2.83V at 1m]"	"Frequency / Hz"	"Sound Pressure Level / dB (re 20 µPa/V)  [2.83V at 1m]"	"Frequency / Hz"	"Sound Pressure Level / dB (re 20 µPa/V)  [2.83V at 1m]"	"Frequency / Hz"	"Sound Pressure Level / dB (re 20 µPa/V)  [2.83V at 1m]"	"Frequency / Hz"	"Sound Pressure Level / dB (re 20 µPa/V)  [2.83V at 1m]"	"Frequency / Hz"	"Sound Pressure Level / dB (re 20 µPa/V)  [2.83V at 1m]"	"Frequency / Hz"	"Sound Pressure Level / dB (re 20 µPa/V)  [2.83V at 1m]"	"Frequency / Hz"	"Sound Pressure Level / dB (re 20 µPa/V)  [2.83V at 1m]"	"Frequency / Hz"	"Sound Pressure Level / dB (re 20 µPa/V)  [2.83V at 1m]"	"Frequency / Hz"	"Sound Pressure Level / dB (re 20 µPa/V)  [2.83V at 1m]"	"Frequency / Hz"	"Sound Pressure Level / dB (re 20 µPa/V)  [2.83V at 1m]"	"Frequency / Hz"	"Sound Pressure Level / dB (re 20 µPa/V)  [2.83V at 1m]"	"Frequency / Hz"	"Sound Pressure Level / dB (re 20 µPa/V)  [2.83V at 1m]"	"Frequency / Hz"	"Sound Pressure Level / dB (re 20 µPa/V)  [2.83V at 1m]"	"Frequency / Hz"	"Sound Pressure Level / dB (re 20 µPa/V)  [2.83V at 1m]"	"Frequency / Hz"	"Sound Pressure Level / dB (re 20 µPa/V)  [2.83V at 1m]"	"Frequency / Hz"	"Sound Pressure Level / dB (re 20 µPa/V)  [2.83V at 1m]"	"Frequency / Hz"	"Sound Pressure Level / dB (re 20 µPa/V)  [2.83V at 1m]"	"Frequency / Hz"	"Sound Pressure Level / dB (re 20 µPa/V)  [2.83V at 1m]"	"Frequency / Hz"	"Sound Pressure Level / dB (re 20 µPa/V)  [2.83V at 1m]"	"Frequency / Hz"	"Sound Pressure Level / dB (re 20 µPa/V)  [2.83V at 1m]"
20.5078	53.1667	20.5078	52.8957	20.5078	53.3356	20.5078	52.5421	20.5078	53.3901	20.5078	52.1362	20.5078	53.3238	20.5078	51.7235	20.5078	53.1388	20.5078	51.3694	20.5078	52.8507	20.5078	51.1549	20.5078	52.5	20.5078	51.1574	20.5078	52.1644	20.5078	51.4184	20.5078	51.9631	20.5078	51.9205	20.5078	52.0249	20.5078	52.5965	20.5078	52.4149	20.5078	53.3607	20.5078	53.0819	20.5078	54.1368	20.5078	53.8938	20.5078	54.8671	20.5078	54.7148	20.5078	55.5119	20.5078	55.4485	20.5078	56.0438	20.5078	56.0405	20.5078	56.4434	20.5078	56.4653	20.5078	56.6959	20.5078	56.7146	20.5078	56.7894
21.9727	52.5526	21.9727	52.1017	21.9727	52.8206	21.9727	51.4777	21.9727	52.8976	21.9727	50.7004	21.9727	52.774	21.9727	49.8197	21.9727	52.4389	21.9727	48.952	21.9727	51.8861	21.9727	48.3201	21.9727	51.1306	21.9727	48.2114	21.9727	50.2504	21.9727	48.7669	21.9727	49.4643	21.9727	49.8298	21.9727	49.1695	21.9727	51.111	21.9727	49.686	21.9727	52.3931	21.9727	50.867	21.9727	53.5638	21.9727	52.2853	21.9727	54.5758	21.9727	53.6293	21.9727	55.4102	21.9727	54.7634	21.9727	56.0593	21.9727	55.6478	21.9727	56.5174	21.9727	56.2802	21.9727	56.7779	21.9727	56.6708	21.9727	56.8326
23.4375	54.0166	23.4375	53.6246	23.4375	54.2539	23.4375	53.0975	23.4375	54.3235	23.4375	52.4716	23.4375	54.2161	23.4375	51.8159	23.4375	53.9266	23.4375	51.2516	23.4375	53.4623	23.4375	50.9524	23.4375	52.8606	23.4375	51.0789	23.4375	52.226	23.4375	51.6651	23.4375	51.7707	23.4375	52.5891	23.4375	51.7778	23.4375	53.6702	23.4375	52.3926	23.4375	54.7636	23.4375	53.4619	23.4375	55.7814	23.4375	54.6937	23.4375	56.6774	23.4375	55.8674	23.4375	57.4275	23.4375	56.8717	23.4375	58.018	23.4375	57.6643	23.4375	58.4387	23.4375	58.2355	23.4375	58.6806	23.4375	58.5892	23.4375	58.7341
24.9023	54.5703	24.9023	54.1608	24.9023	54.8183	24.9023	53.614	24.9023	54.8895	24.9023	52.9755	24.9023	54.7731	24.9023	52.3322	24.9023	54.4637	24.9023	51.8325	24.9023	53.9695	24.9023	51.6696	24.9023	53.3354	24.9023	51.9844	24.9023	52.6878	24.9023	52.7517	24.9023	52.2816	24.9023	53.8035	24.9023	52.4316	24.9023	54.9551	24.9023	53.2406	24.9023	56.0786	24.9023	54.475	24.9023	57.1037	24.9023	55.8129	24.9023	57.9954	24.9023	57.0468	24.9023	58.7361	24.9023	58.0846	24.9023	59.3153	24.9023	58.8969	24.9023	59.7249	24.9023	59.4812	24.9023	59.9562	24.9023	59.8453	24.9023	59.9998
26.3672	55.7047	26.3672	55.3445	26.3672	55.9216	26.3672	54.87	26.3672	55.9782	26.3672	54.332	26.3672	55.8645	26.3672	53.8179	26.3672	55.5795	26.3672	53.4607	26.3672	55.141	26.3672	53.4131	26.3672	54.6079	26.3672	53.7702	26.3672	54.1163	26.3672	54.4995	26.3672	53.8981	26.3672	55.468	26.3672	54.1869	26.3672	56.5282	26.3672	55.016	26.3672	57.5717	26.3672	56.1776	26.3672	58.5336	26.3672	57.415	26.3672	59.378	26.3672	58.5579	26.3672	60.0849	26.3672	59.5246	26.3672	60.6417	26.3672	60.2848	26.3672	61.0384	26.3672	60.8326	26.3672	61.2657	26.3672	61.1727	26.3672	61.3138
27.832	56.9565	27.832	56.6444	27.832	57.1473	27.832	56.2444	27.832	57.1975	27.832	55.8117	27.832	57.0982	27.832	55.4329	27.832	56.8533	27.832	55.2241	27.832	56.4893	27.832	55.3002	27.832	56.0755	27.832	55.7167	27.832	55.7488	27.832	56.4326	27.832	55.7067	27.832	57.3397	27.832	56.1112	27.832	58.3221	27.832	56.9505	27.832	59.2911	27.832	58.0464	27.832	60.1899	27.832	59.1947	27.832	60.9844	27.832	60.2558	27.832	61.6538	27.832	61.1574	27.832	62.1841	27.832	61.8695	27.832	62.5641	27.832	62.3839	27.832	62.7837	27.832	62.7029	27.832	62.8332
29.2969	58.9007	29.2969	58.6178	29.2969	59.084	29.2969	58.2629	29.2969	59.1521	29.2969	57.88	29.2969	59.0988	29.2969	57.5351	29.2969	58.9299	29.2969	57.3149	29.2969	58.6697	29.2969	57.3096	29.2969	58.3729	29.2969	57.5764	29.2969	58.1369	29.2969	58.108	29.2969	58.0948	29.2969	58.8375	29.2969	58.3631	29.2969	59.673	29.2969	58.9628	29.2969	60.5316	29.2969	59.7997	29.2969	61.3519	29.2969	60.7287	29.2969	62.0928	29.2969	61.6255	29.2969	62.7275	29.2969	62.4106	29.2969	63.2373	29.2969	63.0419	29.2969	63.6085	29.2969	63.5011	29.2969	63.8296	29.2969	63.7832	29.2969	63.8906
30.7617	59.3773	30.7617	59.145	30.7617	59.5346	30.7617	58.8701	30.7617	59.5977	30.7617	58.6006	30.7617	59.5598	30.7617	58.401	30.7617	59.4278	30.7617	58.344	30.7617	59.2292	30.7617	58.4906	30.7617	59.0212	30.7617	58.8648	30.7617	58.8965	30.7617	59.4413	30.7617	58.9695	30.7617	60.1592	30.7617	59.3257	30.7617	60.9467	30.7617	59.965	30.7617	61.741	30.7617	60.7977	30.7617	62.4944	30.7617	61.6995	30.7617	63.1732	30.7617	62.5645	30.7617	63.7538	30.7617	63.3232	30.7617	64.2187	30.7617	63.9372	30.7617	64.5539	30.7617	64.3886	30.7617	64.7477	30.7617	64.6723	30.7617	64.79
32.2266	62.0613	32.2266	61.8357	32.2266	62.2073	32.2266	61.5518	32.2266	62.2611	32.2266	61.241	32.2266	62.2176	32.2266	60.9482	32.2266	62.0809	32.2266	60.7308	32.2266	61.8689	32.2266	60.6513	32.2266	61.6203	32.2266	60.7597	32.2266	61.4016	32.2266	61.0735	32.2266	61.3042	32.2266	61.5688	32.2266	61.4186	32.2266	62.1907	32.2266	61.7878	32.2266	62.874	32.2266	62.376	32.2266	63.5597	32.2266	63.0892	32.2266	64.2012	32.2266	63.8228	32.2266	64.7645	32.2266	64.4942	32.2266	65.2246	32.2266	65.0509	32.2266	65.5629	32.2266	65.4642	32.2266	65.7653	32.2266	65.7217	32.2266	65.8208
33.6914	62.4946	33.6914	62.2635	33.6914	62.6477	33.6914	61.9765	33.6914	62.7102	33.6914	61.6667	33.6914	62.6775	33.6914	61.3815	33.6914	62.5547	33.6914	61.181	33.6914	62.3614	33.6914	61.129	33.6914	62.1377	33.6914	61.2738	33.6914	61.9503	33.6914	61.6276	33.6914	61.8881	33.6914	62.16	33.6914	62.0358	33.6914	62.8119	33.6914	62.4294	33.6914	63.5167	33.6914	63.0306	33.6914	64.2162	33.6914	63.748	33.6914	64.8656	33.6914	64.4813	33.6914	65.4325	33.6914	65.1516	33.6914	65.8932	33.6914	65.708	33.6914	66.2305	33.6914	66.1223	33.6914	66.4307	33.6914	66.3818	33.6914	66.4835
35.1562	60.3459	35.1562	60.086	35.1562	60.5291	35.1562	59.7886	35.1562	60.6146	35.1562	59.5142	35.1562	60.5973	35.1562	59.3442	35.1562	60.4898	35.1562	59.3661	35.1562	60.3292	35.1562	59.6411	35.1562	60.1859	35.1562	60.1728	35.1562	60.1646	35.1562	60.9061	35.1562	60.3772	35.1562	61.7567	35.1562	60.8847	35.1562	62.6444	35.1562	61.6525	35.1562	63.5078	35.1562	62.572	35.1562	64.3058	35.1562	63.522	35.1562	65.0112	35.1562	64.4093	35.1562	65.6063	35.1562	65.1764	35.1562	66.0776	35.1562	65.7928	35.1562	66.4146	35.1562	66.2449	35.1562	66.6078	35.1562	66.5294	35.1562	66.6485
36.6211	63.9285	36.6211	63.8168	36.6211	64.0229	36.6211	63.7091	36.6211	64.0869	36.6211	63.6339	36.6211	64.1171	36.6211	63.6229	36.6211	64.1214	36.6211	63.7061	36.6211	64.1202	36.6211	63.9041	36.6211	64.1474	36.6211	64.2224	36.6211	64.2457	36.6211	64.649	36.6211	64.457	36.6211	65.1583	36.6211	64.8053	36.6211	65.7173	36.6211	65.2848	36.6211	66.292	36.6211	65.8588	36.6211	66.8513	36.6211	66.4735	36.6211	67.3688	36.6211	67.0735	36.6211	67.8224	36.6211	67.6131	36.6211	68.194	36.6211	68.0593	36.6211	68.4684	36.6211	68.3916	36.6211	68.6333	36.6211	68.5992	36.6211	68.679
38.0859	65.3963	38.0859	65.2856	38.0859	65.4901	38.0859	65.176	38.0859	65.5561	38.0859	65.0913	38.0859	65.5914	38.0859	65.0587	38.0859	65.602	38.0859	65.1048	38.0859	65.6044	38.0859	65.2502	38.0859	65.6255	38.0859	65.5037	38.0859	65.7004	38.0859	65.8597	38.0859	65.8646	38.0859	66.2991	38.0859	66.1424	38.0859	66.7942	38.0859	66.535	38.0859	67.3138	38.0859	67.018	38.0859	67.8278	38.0859	67.5488	38.0859	68.3092	38.0859	68.0788	38.0859	68.7349	38.0859	68.5644	38.0859	69.0856	38.0859	68.9719	38.0859	69.3456	38.0859	69.2788	38.0859	69.5022	38.0859	69.4719	38.0859	69.5461
39.5508	66.706	39.5508	66.6033	39.5508	66.7914	39.5508	66.4983	39.5508	66.85	39.5508	66.4107	39.5508	66.879	39.5508	66.3633	39.5508	66.883	39.5508	66.3788	39.5508	66.8753	39.5508	66.4761	39.5508	66.8784	39.5508	66.6657	39.5508	66.922	39.5508	66.947	39.5508	67.0379	39.5508	67.3078	39.5508	67.2505	39.5508	67.7267	39.5508	67.5664	39.5508	68.1776	39.5508	67.9697	39.5508	68.6329	39.5508	68.4261	39.5508	69.0665	39.5508	68.8923	39.5508	69.4554	39.5508	69.3267	39.5508	69.7797	39.5508	69.6954	39.5508	70.0226	39.5508	69.9746	39.5508	70.1711	39.5508	70.15	39.5508	70.2153
41.0156	67.7193	41.0156	67.6248	41.0156	67.7992	41.0156	67.5287	41.0156	67.8561	41.0156	67.4486	41.0156	67.8878	41.0156	67.4045	41.0156	67.8986	41.0156	67.4168	41.0156	67.9007	41.0156	67.5026	41.0156	67.9137	41.0156	67.6722	41.0156	67.9639	41.0156	67.9265	41.0156	68.0785	41.0156	68.2558	41.0156	68.2786	41.0156	68.6421	41.0156	68.5704	41.0156	69.0618	41.0156	68.9407	41.0156	69.4893	41.0156	69.3598	41.0156	69.8998	41.0156	69.7893	41.0156	70.2705	41.0156	70.1909	41.0156	70.5818	41.0156	70.5327	41.0156	70.817	41.0156	70.7914	41.0156	70.9628	41.0156	70.9526	41.0156	71.0097
42.4805	68.7505	42.4805	68.6609	42.4805	68.8282	42.4805	68.5712	42.4805	68.8867	42.4805	68.4968	42.4805	68.9238	42.4805	68.4554	42.4805	68.9434	42.4805	68.4648	42.4805	68.956	42.4805	68.5404	42.4805	68.9787	42.4805	68.6919	42.4805	69.0338	42.4805	68.921	42.4805	69.145	42.4805	69.2201	42.4805	69.3306	42.4805	69.574	42.4805	69.5964	42.4805	69.9619	42.4805	69.9321	42.4805	70.3603	42.4805	70.3124	42.4805	70.746	42.4805	70.7035	42.4805	71.0971	42.4805	71.0706	42.4805	71.3941	42.4805	71.3836	42.4805	71.6207	42.4805	71.6201	42.4805	71.7637	42.4805	71.7657	42.4805	71.8137
43.9453	69.7552	43.9453	69.6715	43.9453	69.8307	43.9453	69.5899	43.9453	69.8916	43.9453	69.5237	43.9453	69.9359	43.9453	69.4879	43.9453	69.9668	43.9453	69.4979	43.9453	69.9932	43.9453	69.5669	43.9453	70.0294	43.9453	69.7033	43.9453	70.0938	43.9453	69.9092	43.9453	70.206	43.9453	70.1788	43.9453	70.3808	43.9453	70.4995	43.9453	70.6234	43.9453	70.8535	43.9453	70.9253	43.9453	71.2201	43.9453	71.2654	43.9453	71.5778	43.9453	71.6151	43.9453	71.9062	43.9453	71.9435	43.9453	72.1867	43.9453	72.2233	43.9453	72.4033	43.9453	72.4335	43.9453	72.5431	43.9453	72.5603	43.9453	72.597
45.4102	70.5675	45.4102	70.4948	45.4102	70.6362	45.4102	70.4271	45.4102	70.6954	45.4102	70.376	45.4102	70.7435	45.4102	70.3545	45.4102	70.7836	45.4102	70.3756	45.4102	70.8235	45.4102	70.4504	45.4102	70.8756	45.4102	70.5861	45.4102	70.9557	45.4102	70.7841	45.4102	71.0795	45.4102	71.0394	45.4102	71.2588	45.4102	71.3412	45.4102	71.4967	45.4102	71.6736	45.4102	71.7849	45.4102	72.0183	45.4102	72.1047	45.4102	72.3556	45.4102	72.4305	45.4102	72.6665	45.4102	72.7351	45.4102	72.9333	45.4102	72.9936	45.4102	73.1408	45.4102	73.1867	45.4102	73.2765	45.4102	73.3015	45.4102	73.3316
46.875	71.5015	46.875	71.4322	46.875	71.5695	46.875	71.3692	46.875	71.6313	46.875	71.3223	46.875	71.6854	46.875	71.3024	46.875	71.7339	46.875	71.3205	46.875	71.7829	46.875	71.3858	46.875	71.8423	46.875	71.5047	46.875	71.9242	46.875	71.6787	46.875	72.0413	46.875	71.9043	46.875	72.2029	46.875	72.1727	46.875	72.412	46.875	72.4706	46.875	72.6627	46.875	72.7819	46.875	72.9403	46.875	73.0891	46.875	73.2237	46.875	73.3746	46.875	73.4894	46.875	73.6218	46.875	73.7153	46.875	73.8162	46.875	73.8833	46.875	73.9458	46.875	73.9811	46.875	74.0022
48.3398	72.4004	48.3398	72.3293	48.3398	72.4689	48.3398	72.2626	48.3398	72.5303	48.3398	72.2093	48.3398	72.5829	48.3398	72.1793	48.3398	72.6284	48.3398	72.1828	48.3398	72.6722	48.3398	72.229	48.3398	72.7227	48.3398	72.3243	48.3398	72.7912	48.3398	72.4712	48.3398	72.8894	48.3398	72.6676	48.3398	73.0268	48.3398	72.9064	48.3398	73.2073	48.3398	73.1761	48.3398	73.4268	48.3398	73.462	48.3398	73.673	48.3398	73.7476	48.3398	73.927	48.3398	74.016	48.3398	74.1668	48.3398	74.2509	48.3398	74.3713	48.3398	74.4378	48.3398	74.5227	48.3398	74.5647	48.3398	74.6088	48.3398	74.6231
51.2695	73.6797	51.2695	73.6169	51.2695	73.7455	51.2695	73.5625	51.2695	73.8107	51.2695	73.5235	51.2695	73.8736	51.2695	73.5076	51.2695	73.9354	51.2695	73.5224	51.2695	73.9997	51.2695	73.5747	51.2695	74.0723	51.2695	73.6692	51.2695	74.1609	51.2695	73.8077	51.2695	74.2732	51.2695	73.9883	51.2695	74.4149	51.2695	74.2053	51.2695	74.588	51.2695	74.4494	51.2695	74.7885	51.2695	74.7084	51.2695	75.0063	51.2695	74.9683	51.2695	75.2263	51.2695	75.2143	51.2695	75.4309	51.2695	75.4319	51.2695	75.6027	51.2695	75.608	51.2695	75.7267	51.2695	75.7313	51.2695	75.7924	51.2695	75.7941
52.7344	74.3946	52.7344	74.3381	52.7344	74.4574	52.7344	74.2924	52.7344	74.5232	52.7344	74.2635	52.7344	74.5907	52.7344	74.2577	52.7344	74.6603	52.7344	74.2812	52.7344	74.735	52.7344	74.3395	52.7344	74.8193	52.7344	74.4363	52.7344	74.919	52.7344	74.5727	52.7344	75.0398	52.7344	74.7469	52.7344	75.1859	52.7344	74.9538	52.7344	75.3578	52.7344	75.185	52.7344	75.5515	52.7344	75.4298	52.7344	75.7576	52.7344	75.6756	52.7344	75.9626	52.7344	75.9089	52.7344	76.151	52.7344	76.1162	52.7344	76.3072	52.7344	76.2853	52.7344	76.418	52.7344	76.4057	52.7344	76.4738	52.7344	76.4698
54.1992	75.1642	54.1992	75.1092	54.1992	75.2268	54.1992	75.0657	54.1992	75.294	54.1992	75.0386	54.1992	75.3644	54.1992	75.0331	54.1992	75.4382	54.1992	75.0545	54.1992	75.5172	54.1992	75.1072	54.1992	75.6049	54.1992	75.1941	54.1992	75.7054	54.1992	75.3165	54.1992	75.823	54.1992	75.4728	54.1992	75.9606	54.1992	75.6589	54.1992	76.1184	54.1992	75.8678	54.1992	76.2925	54.1992	76.0903	54.1992	76.475	54.1992	76.3154	54.1992	76.6545	54.1992	76.5309	54.1992	76.8174	54.1992	76.7247	54.1992	76.9503	54.1992	76.8853	54.1992	77.0415	54.1992	77.0028	54.1992	77.0829	54.1992	77.07
55.6641	75.7863	55.6641	75.7335	55.6641	75.8472	55.6641	75.6923	55.6641	75.9137	55.6641	75.6666	55.6641	75.9846	55.6641	75.6609	55.6641	76.0599	55.6641	75.6796	55.6641	76.1406	55.6641	75.7264	55.6641	76.2294	55.6641	75.8042	55.6641	76.3291	55.6641	75.9139	55.6641	76.4429	55.6641	76.0547	55.6641	76.5727	55.6641	76.2231	55.6641	76.7182	55.6641	76.4133	55.6641	76.876	55.6641	76.6174	55.6641	77.0393	55.6641	76.8253	55.6641	77.1982	55.6641	77.026	55.6641	77.341	55.6641	77.2082	55.6641	77.4557	55.6641	77.3611	55.6641	77.5322	55.6641	77.4753	55.6641	77.5628	55.6641	77.5438
58.5938	76.8531	58.5938	76.8016	58.5938	76.9142	58.5938	76.7624	58.5938	76.983	58.5938	76.7383	58.5938	77.058	58.5938	76.7327	58.5938	77.1387	58.5938	76.7487	58.5938	77.2252	58.5938	76.7889	58.5938	77.3184	58.5938	76.8555	58.5938	77.4195	58.5938	76.9493	58.5938	77.5297	58.5938	77.0696	58.5938	77.6496	58.5938	77.2141	58.5938	77.7783	58.5938	77.3783	58.5938	77.9128	58.5938	77.5559	58.5938	78.0476	58.5938	77.7389	58.5938	78.1753	58.5938	77.918	58.5938	78.2867	58.5938	78.0833	58.5938	78.3727	58.5938	78.2253	58.5938	78.4249	58.5938	78.3356	58.5938	78.4375	58.5938	78.4075
60.0586	77.3511	60.0586	77.3003	60.0586	77.4122	60.0586	77.2621	60.0586	77.4818	60.0586	77.239	60.0586	77.5586	60.0586	77.2335	60.0586	77.6417	60.0586	77.2482	60.0586	77.7308	60.0586	77.2854	60.0586	77.8259	60.0586	77.3466	60.0586	77.9276	60.0586	77.4328	60.0586	78.0363	60.0586	77.5433	60.0586	78.1517	60.0586	77.6763	60.0586	78.2726	60.0586	77.8279	60.0586	78.3961	60.0586	77.9925	60.0586	78.5176	60.0586	78.1632	60.0586	78.6303	60.0586	78.3315	60.0586	78.7266	60.0586	78.4884	60.0586	78.7985	60.0586	78.625	60.0586	78.8388	60.0586	78.7332	60.0586	78.8424	60.0586	78.8069
62.9883	78.3299	62.9883	78.2795	62.9883	78.3915	62.9883	78.2418	62.9883	78.4627	62.9883	78.2186	62.9883	78.542	62.9883	78.2116	62.9883	78.6281	62.9883	78.2225	62.9883	78.7198	62.9883	78.2526	62.9883	78.8161	62.9883	78.303	62.9883	78.9159	62.9883	78.3744	62.9883	79.0185	62.9883	78.4664	62.9883	79.1227	62.9883	78.5777	62.9883	79.2267	62.9883	78.7056	62.9883	79.3282	62.9883	78.8459	62.9883	79.4236	62.9883	78.9931	62.9883	79.5081	62.9883	79.1405	62.9883	79.5762	62.9883	79.2806	62.9883	79.6222	62.9883	79.4058	62.9883	79.641	62.9883	79.5089	62.9883	79.6289	62.9883	79.5845
64.4531	78.7727	64.4531	78.7233	64.4531	78.8333	64.4531	78.6866	64.4531	78.9036	64.4531	78.6637	64.4531	78.9823	64.4531	78.6562	64.4531	79.0679	64.4531	78.6652	64.4531	79.1589	64.4531	78.6919	64.4531	79.2537	64.4531	78.7371	64.4531	79.3512	64.4531	78.8014	64.4531	79.4498	64.4531	78.8845	64.4531	79.548	64.4531	78.9854	64.4531	79.6442	64.4531	79.1018	64.4531	79.7359	64.4531	79.2302	64.4531	79.82	64.4531	79.3659	64.4531	79.8925	64.4531	79.5029	64.4531	79.9489	64.4531	79.6343	64.4531	79.9843	64.4531	79.7533	64.4531	79.9943	64.4531	79.8532	64.4531	79.9761	64.4531	79.9286
67.3828	79.5041	67.3828	79.4563	67.3828	79.5637	67.3828	79.421	67.3828	79.6338	67.3828	79.3992	67.3828	79.7129	67.3828	79.3915	67.3828	79.7993	67.3828	79.3982	67.3828	79.8909	67.3828	79.4201	67.3828	79.9854	67.3828	79.4574	67.3828	80.0807	67.3828	79.5104	67.3828	80.1744	67.3828	79.5789	67.3828	80.2644	67.3828	79.6624	67.3828	80.3485	67.3828	79.7595	67.3828	80.4245	67.3828	79.8678	67.3828	80.49	67.3828	79.9839	67.3828	80.542	67.3828	80.1031	67.3828	80.5775	67.3828	80.2202	67.3828	80.5933	67.3828	80.3294	67.3828	80.5867	67.3828	80.4248	67.3828	80.5561	67.3828	80.5015
68.8477	79.8377	68.8477	79.7896	68.8477	79.8977	68.8477	79.7541	68.8477	79.9685	68.8477	79.7319	68.8477	80.0486	68.8477	79.7231	68.8477	80.1361	68.8477	79.728	68.8477	80.2286	68.8477	79.747	68.8477	80.3236	68.8477	79.7801	68.8477	80.4184	68.8477	79.8275	68.8477	80.5103	68.8477	79.8892	68.8477	80.5969	68.8477	79.9647	68.8477	80.6756	68.8477	80.0531	68.8477	80.7444	68.8477	80.1524	68.8477	80.801	68.8477	80.2599	68.8477	80.843	68.8477	80.3717	68.8477	80.868	68.8477	80.483	68.8477	80.8736	68.8477	80.5885	68.8477	80.8581	68.8477	80.6829	68.8477	80.8205	68.8477	80.7614
71.7773	80.5715	71.7773	80.5231	71.7773	80.6322	71.7773	80.4875	71.7773	80.7042	71.7773	80.4647	71.7773	80.7861	71.7773	80.4546	71.7773	80.8755	71.7773	80.4568	71.7773	80.9698	71.7773	80.4713	71.7773	81.0657	71.7773	80.4977	71.7773	81.1599	71.7773	80.536	71.7773	81.2489	71.7773	80.5862	71.7773	81.3295	71.7773	80.6482	71.7773	81.399	71.7773	80.7216	71.7773	81.4552	71.7773	80.8053	71.7773	81.4962	71.7773	80.8976	71.7773	81.5206	71.7773	80.9957	71.7773	81.5272	71.7773	81.0962	71.7773	81.5151	71.7773	81.1947	71.7773	81.4841	71.7773	81.2867	71.7773	81.4345	71.7773	81.3678
74.707	81.2097	74.707	81.1609	74.707	81.2709	74.707	81.1247	74.707	81.3436	74.707	81.1008	74.707	81.4263	74.707	81.0887	74.707	81.5165	74.707	81.0876	74.707	81.6111	74.707	81.0969	74.707	81.7064	74.707	81.1162	74.707	81.7985	74.707	81.1453	74.707	81.8833	74.707	81.1842	74.707	81.9572	74.707	81.233	74.707	82.0171	74.707	81.2917	74.707	82.0608	74.707	81.3602	74.707	82.0869	74.707	81.4376	74.707	82.0946	74.707	81.5224	74.707	82.0839	74.707	81.612	74.707	82.0553	74.707	81.7033	74.707	82.0099	74.707	81.7926	74.707	81.9492	74.707	81.8757
77.6367	81.663	77.6367	81.6134	77.6367	81.725	77.6367	81.5762	77.6367	81.7987	77.6367	81.551	77.6367	81.8823	77.6367	81.5367	77.6367	81.9733	77.6367	81.5324	77.6367	82.0682	77.6367	81.5371	77.6367	82.163	77.6367	81.5501	77.6367	82.2532	77.6367	81.571	77.6367	82.3342	77.6367	81.5999	77.6367	82.4021	77.6367	81.637	77.6367	82.4535	77.6367	81.6829	77.6367	82.486	77.6367	81.738	77.6367	82.4987	77.6367	81.8022	77.6367	82.4914	77.6367	81.8751	77.6367	82.4651	77.6367	81.9551	77.6367	82.4214	77.6367	82.0401	77.6367	82.3628	77.6367	82.127	77.6367	82.2919	77.6367	82.2121
79.1016	81.8712	79.1016	81.8215	79.1016	81.9333	79.1016	81.7842	79.1016	82.0073	79.1016	81.7586	79.1016	82.0912	79.1016	81.7438	79.1016	82.1826	79.1016	81.7384	79.1016	82.2777	79.1016	81.7414	79.1016	82.3724	79.1016	81.752	79.1016	82.462	79.1016	81.7697	79.1016	82.5417	79.1016	81.7945	79.1016	82.6073	79.1016	81.8268	79.1016	82.6552	79.1016	81.8672	79.1016	82.6832	79.1016	81.9165	79.1016	82.6903	79.1016	81.9749	79.1016	82.6767	79.1016	82.0425	79.1016	82.6438	79.1016	82.1182	79.1016	82.5937	79.1016	82.2002	79.1016	82.5294	79.1016	82.2858	79.1016	82.4542	79.1016	82.3717
82.0312	82.3707	82.0312	82.3202	82.0312	82.4337	82.0312	82.2819	82.0312	82.5085	82.0312	82.2549	82.0312	82.5932	82.0312	82.2381	82.0312	82.6852	82.0312	82.2299	82.0312	82.7805	82.0312	82.229	82.0312	82.8747	82.0312	82.2343	82.0312	82.9626	82.0312	82.2453	82.0312	83.0391	82.0312	82.262	82.0312	83.0997	82.0312	82.2847	82.0312	83.1406	82.0312	82.3146	82.0312	83.1595	82.0312	82.3528	82.0312	83.1555	82.0312	82.4003	82.0312	83.1295	82.0312	82.458	82.0312	83.0835	82.0312	82.5257	82.0312	83.0208	82.0312	82.6024	82.0312	82.9454	82.0312	82.6861	82.0312	82.8615	82.0312	82.7737
84.9609	82.8091	84.9609	82.7581	84.9609	82.8726	84.9609	82.7191	84.9609	82.9478	84.9609	82.6911	84.9609	83.033	84.9609	82.6727	84.9609	83.1253	84.9609	82.6622	84.9609	83.2208	84.9609	82.658	84.9609	83.3147	84.9609	82.659	84.9609	83.4016	84.9609	82.6644	84.9609	83.476	84.9609	82.6743	84.9609	83.5329	84.9609	82.6892	84.9609	83.5685	84.9609	82.7103	84.9609	83.5803	84.9609	82.7392	84.9609	83.5675	84.9609	82.7777	84.9609	83.5313	84.9609	82.8271	84.9609	83.4744	84.9609	82.8881	84.9609	83.401	84.9609	82.9604	84.9609	83.316	84.9609	83.0425	84.9609	83.2245	84.9609	83.1319
87.8906	83.1177	87.8906	83.069	87.8906	83.1787	87.8906	83.0322	87.8906	83.2516	87.8906	83.0061	87.8906	83.3346	87.8906	82.9888	87.8906	83.4251	87.8906	82.9786	87.8906	83.5189	87.8906	82.9736	87.8906	83.6111	87.8906	82.9724	87.8906	83.6962	87.8906	82.9741	87.8906	83.7685	87.8906	82.9786	87.8906	83.8227	87.8906	82.9866	87.8906	83.8547	87.8906	82.9995	87.8906	83.8617	87.8906	83.0192	87.8906	83.843	87.8906	83.048	87.8906	83.7998	87.8906	83.0879	87.8906	83.7355	87.8906	83.1405	87.8906	83.6547	87.8906	83.2063	87.8906	83.5633	87.8906	83.2845	87.8906	83.4674	87.8906	83.3728
90.8203	83.4632	90.8203	83.4135	90.8203	83.5246	90.8203	83.375	90.8203	83.5971	90.8203	83.3465	90.8203	83.6791	90.8203	83.3261	90.8203	83.7676	90.8203	83.3118	90.8203	83.8586	90.8203	83.3016	90.8203	83.9471	90.8203	83.2941	90.8203	84.0274	90.8203	83.2881	90.8203	84.0937	90.8203	83.2835	90.8203	84.1407	90.8203	83.2811	90.8203	84.164	90.8203	83.2824	90.8203	84.161	90.8203	83.29	90.8203	84.131	90.8203	83.3066	90.8203	84.0757	90.8203	83.3353	90.8203	83.9989	90.8203	83.3785	90.8203	83.9063	90.8203	83.4377	90.8203	83.8045	90.8203	83.5127	90.8203	83.7008	90.8203	83.6017
95.2148	83.8862	95.2148	83.8342	95.2148	83.9489	95.2148	83.7926	95.2148	84.0219	95.2148	83.7601	95.2148	84.1034	95.2148	83.7347	95.2148	84.1903	95.2148	83.7144	95.2148	84.2785	95.2148	83.6971	95.2148	84.3629	95.2148	83.681	95.2148	84.4378	95.2148	83.6651	95.2148	84.4971	95.2148	83.6492	95.2148	84.5354	95.2148	83.6342	95.2148	84.5482	95.2148	83.6221	95.2148	84.5328	95.2148	83.6157	95.2148	84.4889	95.2148	83.6188	95.2148	84.4184	95.2148	83.6352	95.2148	84.3261	95.2148	83.6684	95.2148	84.2185	95.2148	83.7209	95.2148	84.1036	95.2148	83.7933	95.2148	83.9896	95.2148	83.8842
98.1445	84.0587	98.1445	84.0053	98.1445	84.1224	98.1445	83.9618	98.1445	84.1959	98.1445	83.927	98.1445	84.2773	98.1445	83.8989	98.1445	84.3636	98.1445	83.8754	98.1445	84.4507	98.1445	83.8542	98.1445	84.5334	98.1445	83.8336	98.1445	84.6059	98.1445	83.8126	98.1445	84.6622	98.1445	83.7908	98.1445	84.6965	98.1445	83.7693	98.1445	84.7044	98.1445	83.7502	98.1445	84.683	98.1445	83.7366	98.1445	84.6319	98.1445	83.7327	98.1445	84.5536	98.1445	83.7429	98.1445	84.4528	98.1445	83.7711	98.1445	84.3368	98.1445	83.8205	98.1445	84.2143	98.1445	83.8921	98.1445	84.0942	98.1445	83.9847
101.074	84.2469	101.074	84.1924	101.074	84.3112	101.074	84.1471	101.074	84.3845	101.074	84.11	101.074	84.4651	101.074	84.079	101.074	84.55	101.074	84.052	101.074	84.635	101.074	84.0268	101.074	84.715	101.074	84.0016	101.074	84.7842	101.074	83.9752	101.074	84.8365	101.074	83.9475	101.074	84.8662	101.074	83.9194	101.074	84.8686	101.074	83.8932	101.074	84.8409	101.074	83.8723	101.074	84.7828	101.074	83.8613	101.074	84.6966	101.074	83.8648	101.074	84.5878	101.074	83.8877	101.074	84.4642	101.074	83.9334	101.074	84.3349	101.074	84.0034	101.074	84.2095	101.074	84.0968
105.469	84.5144	105.469	84.4606	105.469	84.5768	105.469	84.4151	105.469	84.6471	105.469	84.3766	105.469	84.7236	105.469	84.3431	105.469	84.8035	105.469	84.3126	105.469	84.8826	105.469	84.2828	105.469	84.956	105.469	84.2517	105.469	85.0179	105.469	84.2182	105.469	85.0625	105.469	84.1821	105.469	85.0839	105.469	84.1445	105.469	85.0776	105.469	84.1078	105.469	85.0407	105.469	84.0757	105.469	84.9731	105.469	84.0532	105.469	84.8776	105.469	84.0456	105.469	84.7599	105.469	84.0585	105.469	84.6285	105.469	84.096	105.469	84.4932	105.469	84.1604	105.469	84.3644	105.469	84.2512
108.398	84.6274	108.398	84.5736	108.398	84.6898	108.398	84.528	108.398	84.7602	108.398	84.4895	108.398	84.8367	108.398	84.4561	108.398	84.9164	108.398	84.4254	108.398	84.9951	108.398	84.3953	108.398	85.068	108.398	84.3635	108.398	85.1292	108.398	84.3289	108.398	85.1727	108.398	84.2911	108.398	85.1928	108.398	84.2512	108.398	85.1847	108.398	84.2117	108.398	85.1457	108.398	84.1763	108.398	85.0755	108.398	84.1502	108.398	84.9769	108.398	84.1392	108.398	84.8559	108.398	84.1489	108.398	84.7213	108.398	84.1841	108.398	84.5831	108.398	84.2472	108.398	84.4521	108.398	84.3378
112.793	84.7206	112.793	84.664	112.793	84.786	112.793	84.6158	112.793	84.8591	112.793	84.575	112.793	84.938	112.793	84.5398	112.793	85.0196	112.793	84.5078	112.793	85.0999	112.793	84.4766	112.793	85.1739	112.793	84.4439	112.793	85.2359	112.793	84.4083	112.793	85.2798	112.793	84.3693	112.793	85.2997	112.793	84.3278	112.793	85.2909	112.793	84.2863	112.793	85.2502	112.793	84.2488	112.793	85.1773	112.793	84.2205	112.793	85.075	112.793	84.2077	112.793	84.9493	112.793	84.2165	112.793	84.8092	112.793	84.2518	112.793	84.6653	112.793	84.3165	112.793	84.529	112.793	84.4102
117.188	84.752	117.188	84.6883	117.188	84.8237	117.188	84.6326	117.188	84.9022	117.188	84.5841	117.188	84.9853	117.188	84.5415	117.188	85.0702	117.188	84.5025	117.188	85.1527	117.188	84.4648	117.188	85.2281	117.188	84.4265	117.188	85.2906	117.188	84.3859	117.188	85.3342	117.188	84.3427	117.188	85.3529	117.188	84.2978	117.188	85.3417	117.188	84.2537	117.188	85.2972	117.188	84.2146	117.188	85.219	117.188	84.186	117.188	85.1098	117.188	84.1742	117.188	84.9758	117.188	84.1857	117.188	84.8263	117.188	84.2255	117.188	84.6725	117.188	84.2965	117.188	84.5262	117.188	84.3982
120.117	84.8586	120.117	84.7969	120.117	84.9265	120.117	84.7416	120.117	84.9998	120.117	84.6921	120.117	85.0765	120.117	84.6471	120.117	85.1543	120.117	84.6047	120.117	85.2295	120.117	84.5631	120.117	85.2979	120.117	84.5204	120.117	85.3542	120.117	84.4755	120.117	85.3925	120.117	84.4281	120.117	85.407	120.117	84.3793	120.117	85.3925	120.117	84.3317	120.117	85.3459	120.117	84.2894	120.117	85.2663	120.117	84.2577	120.117	85.1565	120.117	84.243	120.117	85.0228	120.117	84.2513	120.117	84.8743	120.117	84.2879	120.117	84.7224	120.117	84.3556	120.117	84.5788	120.117	84.4539
124.512	85.0082	124.512	84.9472	124.512	85.0747	124.512	84.892	124.512	85.1455	124.512	84.8422	124.512	85.2186	124.512	84.7967	124.512	85.2914	124.512	84.7537	124.512	85.3607	124.512	84.7112	124.512	85.4226	124.512	84.6672	124.512	85.4721	124.512	84.6203	124.512	85.504	124.512	84.5702	124.512	85.5128	124.512	84.5178	124.512	85.4937	124.512	84.4656	124.512	85.4434	124.512	84.4179	124.512	85.3611	124.512	84.3802	124.512	85.2494	124.512	84.3591	124.512	85.1144	124.512	84.3612	124.512	84.9654	124.512	84.392	124.512	84.8138	124.512	84.4547	124.512	84.6716	124.512	84.5492
128.906	85.0484	128.906	84.9824	128.906	85.1181	128.906	84.9209	128.906	85.1902	128.906	84.8639	128.906	85.2626	128.906	84.8106	128.906	85.3328	128.906	84.7595	128.906	85.3978	128.906	84.7088	128.906	85.4539	128.906	84.6568	128.906	85.4968	128.906	84.6021	128.906	85.5215	128.906	84.5445	128.906	85.5228	128.906	84.4849	128.906	85.496	128.906	84.4261	128.906	85.4378	128.906	84.3723	128.906	85.3476	128.906	84.3295	128.906	85.2278	128.906	84.3043	128.906	85.0847	128.906	84.3037	128.906	84.928	128.906	84.3335	128.906	84.7694	128.906	84.3971	128.906	84.6211	128.906	84.4943
133.301	85.0556	133.301	84.9851	133.301	85.1288	133.301	84.9182	133.301	85.2031	133.301	84.8551	133.301	85.2761	133.301	84.7953	133.301	85.3453	133.301	84.7373	133.301	85.4074	133.301	84.6794	133.301	85.459	133.301	84.6198	133.301	85.4956	133.301	84.5573	133.301	85.5124	133.301	84.4915	133.301	85.5045	133.301	84.4235	133.301	85.4673	133.301	84.3562	133.301	85.3979	133.301	84.2941	133.301	85.2959	133.301	84.2434	133.301	85.1644	133.301	84.2112	133.301	85.0101	133.301	84.2049	133.301	84.8431	133.301	84.2307	133.301	84.676	133.301	84.2927	133.301	84.5214	133.301	84.3909
139.16	84.9773	139.16	84.9023	139.16	85.0549	139.16	84.8312	139.16	85.1333	139.16	84.7646	139.16	85.2101	139.16	84.7019	139.16	85.2828	139.16	84.6419	139.16	85.3483	139.16	84.5829	139.16	85.403	139.16	84.5231	139.16	85.4426	139.16	84.461	139.16	85.4623	139.16	84.3962	139.16	85.4569	139.16	84.3297	139.16	85.4217	139.16	84.2642	139.16	85.3534	139.16	84.2044	139.16	85.2514	139.16	84.1563	139.16	85.1188	139.16	84.1274	139.16	84.9622	139.16	84.125	139.16	84.7919	139.16	84.1553	139.16	84.6205	139.16	84.2221	139.16	84.4611	139.16	84.3255
143.555	84.9372	143.555	84.8596	143.555	85.0165	143.555	84.785	143.555	85.0954	143.555	84.7141	143.555	85.1719	143.555	84.647	143.555	85.2437	143.555	84.5828	143.555	85.3082	143.555	84.52	143.555	85.3623	143.555	84.4571	143.555	85.402	143.555	84.3929	143.555	85.4227	143.555	84.327	143.555	85.4192	143.555	84.2606	143.555	85.3864	143.555	84.1964	143.555	85.3208	143.555	84.1391	143.555	85.2214	143.555	84.0948	143.555	85.0907	143.555	84.0706	143.555	84.9353	143.555	84.0736	143.555	84.765	143.555	84.1097	143.555	84.5923	143.555	84.1822	143.555	84.4302	143.555	84.2906
147.949	84.9668	147.949	84.8918	147.949	85.0407	147.949	84.8175	147.949	85.1119	147.949	84.7449	147.949	85.1786	147.949	84.6746	147.949	85.2391	147.949	84.6063	147.949	85.2919	147.949	84.5391	147.949	85.335	147.949	84.4721	147.949	85.3654	147.949	84.4045	147.949	85.3795	147.949	84.3364	147.949	85.3724	147.949	84.269	147.949	85.3394	147.949	84.2052	147.949	85.2766	147.949	84.1494	147.949	85.1826	147.949	84.1072	147.949	85.0594	147.949	84.0853	147.949	84.9126	147.949	84.0898	147.949	84.7516	147.949	84.1261	147.949	84.588	147.949	84.1966	147.949	84.434	147.949	84.3008
153.809	84.9829	153.809	84.9058	153.809	85.0576	153.809	84.8282	153.809	85.1277	153.809	84.7513	153.809	85.1912	153.809	84.6756	153.809	85.2461	153.809	84.6006	153.809	85.2906	153.809	84.5256	153.809	85.3225	153.809	84.4491	153.809	85.3394	153.809	84.3705	153.809	85.3379	153.809	84.2898	153.809	85.314	153.809	84.2084	153.809	85.2636	153.809	84.1295	153.809	85.1836	153.809	84.058	153.809	85.0732	153.809	84.0003	153.809	84.935	153.809	83.9636	153.809	84.7752	153.809	83.9551	153.809	84.6039	153.809	83.9804	153.809	84.4331	153.809	84.0431	153.809	84.2757	153.809	84.143
159.668	84.7923	159.668	84.7193	159.668	84.8643	159.668	84.6474	159.668	84.9333	159.668	84.5776	159.668	84.997	159.668	84.5101	159.668	85.0535	159.668	84.444	159.668	85.1008	159.668	84.3778	159.668	85.1367	159.668	84.3096	159.668	85.1583	159.668	84.238	159.668	85.1617	159.668	84.1625	159.668	85.1422	159.668	84.0842	159.668	85.0953	159.668	84.0062	159.668	85.0174	159.668	83.9334	159.668	84.9079	159.668	83.8723	159.668	84.7695	159.668	83.8306	159.668	84.6093	159.668	83.8158	159.668	84.4379	159.668	83.8346	159.668	84.2683	159.668	83.8908	159.668	84.1135	159.668	83.985
165.527	84.5339	165.527	84.4498	165.527	84.6143	165.527	84.3652	165.527	84.6884	165.527	84.2826	165.527	84.7538	165.527	84.2035	165.527	84.8091	165.527	84.1283	165.527	84.8535	165.527	84.0563	165.527	84.8861	165.527	83.9858	165.527	84.9055	165.527	83.9154	165.527	84.9087	165.527	83.8441	165.527	84.8917	165.527	83.7727	165.527	84.8498	165.527	83.7037	165.527	84.779	165.527	83.6415	165.527	84.6773	165.527	83.5924	165.527	84.5467	165.527	83.5637	165.527	84.393	165.527	83.5623	165.527	84.2258	165.527	83.5939	165.527	84.0572	165.527	83.6618	165.527	83.8999	165.527	83.7652
171.387	84.5019	171.387	84.4155	171.387	84.5805	171.387	84.3245	171.387	84.648	171.387	84.2318	171.387	84.702	171.387	84.1394	171.387	84.7409	171.387	84.0483	171.387	84.7641	171.387	83.9586	171.387	84.7714	171.387	83.8697	171.387	84.7625	171.387	83.7811	171.387	84.7362	171.387	83.6928	171.387	84.6902	171.387	83.6062	171.387	84.6217	171.387	83.5241	171.387	84.5281	171.387	83.4508	171.387	84.409	171.387	83.392	171.387	84.2669	171.387	83.354	171.387	84.108	171.387	83.3429	171.387	83.9417	171.387	83.3638	171.387	83.7794	171.387	83.4195	171.387	83.6323	171.387	83.5101
177.246	84.5316	177.246	84.4354	177.246	84.6165	177.246	84.3318	177.246	84.6867	177.246	84.2245	177.246	84.7396	177.246	84.116	177.246	84.7737	177.246	84.0078	177.246	84.7888	177.246	83.9002	177.246	84.7851	177.246	83.7929	177.246	84.7627	177.246	83.6853	177.246	84.7206	177.246	83.5778	177.246	84.6567	177.246	83.472	177.246	84.5684	177.246	83.3711	177.246	84.4534	177.246	83.2804	177.246	84.3118	177.246	83.2062	177.246	84.1468	177.246	83.1557	177.246	83.9655	177.246	83.1359	177.246	83.7785	177.246	83.1523	177.246	83.598	177.246	83.2083	177.246	83.4364	177.246	83.3042
183.105	84.5499	183.105	84.4551	183.105	84.634	183.105	84.3539	183.105	84.7036	183.105	84.2501	183.105	84.7557	183.105	84.1464	183.105	84.7888	183.105	84.0441	183.105	84.8027	183.105	83.9432	183.105	84.7979	183.105	83.8428	183.105	84.7748	183.105	83.7421	183.105	84.733	183.105	83.6408	183.105	84.6708	183.105	83.5402	183.105	84.5859	183.105	83.4435	183.105	84.4758	183.105	83.3557	183.105	84.3403	183.105	83.2833	183.105	84.1823	183.105	83.2334	183.105	84.0083	183.105	83.2131	183.105	83.8285	183.105	83.2278	183.105	83.6549	183.105	83.2808	183.105	83.4995	183.105	83.3725
188.965	84.4467	188.965	84.3366	188.965	84.5447	188.965	84.2196	188.965	84.6259	188.965	84.1008	188.965	84.6873	188.965	83.9841	188.965	84.7273	188.965	83.872	188.965	84.746	188.965	83.7654	188.965	84.7446	188.965	83.6639	188.965	84.7242	188.965	83.5671	188.965	84.685	188.965	83.4746	188.965	84.6261	188.965	83.3873	188.965	84.5452	188.965	83.3078	188.965	84.4402	188.965	83.2402	188.965	84.3106	188.965	83.1896	188.965	84.159	188.965	83.1617	188.965	83.9914	188.965	83.1619	188.965	83.8171	188.965	83.1942	188.965	83.647	188.965	83.2607	188.965	83.492	188.965	83.3611
196.289	84.402	196.289	84.2801	196.289	84.5088	196.289	84.1495	196.289	84.5954	196.289	84.0163	196.289	84.658	196.289	83.8855	196.289	84.6954	196.289	83.7604	196.289	84.708	196.289	83.6425	196.289	84.6977	196.289	83.5318	196.289	84.6669	196.289	83.4279	196.289	84.6171	196.289	83.3307	196.289	84.5483	196.289	83.2415	196.289	84.4597	196.289	83.1633	196.289	84.3498	196.289	83.1003	196.289	84.2185	196.289	83.0577	196.289	84.068	196.289	83.0405	196.289	83.9037	196.289	83.0526	196.289	83.7334	196.289	83.0966	196.289	83.5667	196.289	83.1728	196.289	83.4127	196.289	83.2794
203.613	84.2318	203.613	84.0943	203.613	84.3473	203.613	83.9419	203.613	84.435	203.613	83.7828	203.613	84.4921	203.613	83.6241	203.613	84.5185	203.613	83.4718	203.613	84.5163	203.613	83.3295	203.613	84.4896	203.613	83.1988	203.613	84.4423	203.613	83.0804	203.613	84.3773	203.613	82.9747	203.613	84.296	203.613	82.883	203.613	84.1978	203.613	82.8081	203.613	84.0816	203.613	82.7536	203.613	83.9473	203.613	82.724	203.613	83.797	203.613	82.7228	203.613	83.6354	203.613	82.7523	203.613	83.4693	203.613	82.8125	203.613	83.3061	203.613	82.9016	203.613	83.1531	203.613	83.0166
210.938	84.3829	210.938	84.239	210.938	84.4954	210.938	84.0715	210.938	84.5713	210.938	83.8886	210.938	84.6077	210.938	83.699	210.938	84.6047	210.938	83.51	210.938	84.5651	210.938	83.3273	210.938	84.4938	210.938	83.1546	210.938	84.3963	210.938	82.9943	210.938	84.278	210.938	82.8481	210.938	84.1425	210.938	82.7182	210.938	83.992	210.938	82.6075	210.938	83.8277	210.938	82.5198	210.938	83.6515	210.938	82.4596	210.938	83.4668	210.938	82.4304	210.938	83.2794	210.938	82.4347	210.938	83.0967	210.938	82.4729	210.938	82.9259	210.938	82.5438	210.938	82.7737	210.938	82.6451
218.262	84.4615	218.262	84.3154	218.262	84.5796	218.262	84.1486	218.262	84.6646	218.262	83.9689	218.262	84.7133	218.262	83.7844	218.262	84.7251	218.262	83.6023	218.262	84.7018	218.262	83.428	218.262	84.6466	218.262	83.2657	218.262	84.5636	218.262	83.1179	218.262	84.4565	218.262	82.9862	218.262	84.3279	218.262	82.8723	218.262	84.1797	218.262	82.7779	218.262	84.0134	218.262	82.7055	218.262	83.8322	218.262	82.6574	218.262	83.6413	218.262	82.6358	218.262	83.4488	218.262	82.6419	218.262	83.264	218.262	82.6764	218.262	83.0955	218.262	82.7394	218.262	82.9499	218.262	82.8307
225.586	84.1567	225.586	84.0072	225.586	84.2779	225.586	83.8361	225.586	84.3663	225.586	83.6513	225.586	84.4198	225.586	83.4612	225.586	84.4388	225.586	83.2738	225.586	84.4256	225.586	83.096	225.586	84.3839	225.586	82.9335	225.586	84.3173	225.586	82.7903	225.586	84.2287	225.586	82.6697	225.586	84.1198	225.586	82.5739	225.586	83.9913	225.586	82.5044	225.586	83.8439	225.586	82.462	225.586	83.6801	225.586	82.4467	225.586	83.5046	225.586	82.4571	225.586	83.3251	225.586	82.4916	225.586	83.1503	225.586	82.5482	225.586	82.9888	225.586	82.626	225.586	82.8461	225.586	82.7252
232.91	84.2967	232.91	84.1337	232.91	84.4176	232.91	83.9353	232.91	84.4923	232.91	83.7101	232.91	84.5198	232.91	83.4674	232.91	84.5018	232.91	83.217	232.91	84.4426	232.91	82.9682	232.91	84.3477	232.91	82.7294	232.91	84.2228	232.91	82.5087	232.91	84.0728	232.91	82.3134	232.91	83.9016	232.91	82.1505	232.91	83.7126	232.91	82.026	232.91	83.5101	232.91	81.9439	232.91	83.2997	232.91	81.9056	232.91	83.0887	232.91	81.9094	232.91	82.8849	232.91	81.9504	232.91	82.6949	232.91	82.0222	232.91	82.5228	232.91	82.1185	232.91	82.3696	232.91	82.2349
241.699	84.2511	241.699	84.1121	241.699	84.3516	241.699	83.9392	241.699	84.4111	241.699	83.7381	241.699	84.4295	241.699	83.5149	241.699	84.4091	241.699	83.2756	241.699	84.3539	241.699	83.0262	241.699	84.2681	241.699	82.7727	241.699	84.1543	241.699	82.5222	241.699	84.0132	241.699	82.2835	241.699	83.8432	241.699	82.0666	241.699	83.6426	241.699	81.8826	241.699	83.4125	241.699	81.7413	241.699	83.1584	241.699	81.6492	241.699	82.8919	241.699	81.6076	241.699	82.6286	241.699	81.613	241.699	82.3843	241.699	81.6588	241.699	82.1708	241.699	81.7387	241.699	81.9928	241.699	81.8498
250.488	84.1163	250.488	83.984	250.488	84.2072	250.488	83.817	250.488	84.2525	250.488	83.6235	250.488	84.2525	250.488	83.4113	250.488	84.2119	250.488	83.1869	250.488	84.1393	250.488	82.9551	250.488	84.0454	250.488	82.7194	250.488	83.9395	250.488	82.4837	250.488	83.8262	250.488	82.2534	250.488	83.7038	250.488	82.0364	250.488	83.5651	250.488	81.8435	250.488	83.4016	250.488	81.6867	250.488	83.2077	250.488	81.5771	250.488	82.9844	250.488	81.5226	250.488	82.7402	250.488	81.5253	250.488	82.4894	250.488	81.5827	250.488	82.2474	250.488	81.6895	250.488	82.0277	250.488	81.8396
259.277	84.4503	259.277	84.315	259.277	84.5382	259.277	84.1395	259.277	84.5746	259.277	83.9325	259.277	84.5594	259.277	83.703	259.277	84.4968	259.277	83.459	259.277	84.3952	259.277	83.2069	259.277	84.2649	259.277	82.9515	259.277	84.1161	259.277	82.6971	259.277	83.9558	259.277	82.4486	259.277	83.7861	259.277	82.2125	259.277	83.6044	259.277	81.9979	259.277	83.4062	259.277	81.8159	259.277	83.188	259.277	81.6776	259.277	82.951	259.277	81.5925	259.277	82.702	259.277	81.566	259.277	82.4522	259.277	81.5983	259.277	82.2148	259.277	81.6859	259.277	82.0016	259.277	81.8227
268.066	84.3703	268.066	84.2446	268.066	84.455	268.066	84.0874	268.066	84.4926	268.066	83.909	268.066	84.4813	268.066	83.7191	268.066	84.425	268.066	83.5254	268.066	84.3329	268.066	83.3331	268.066	84.2179	268.066	83.1456	268.066	84.0933	268.066	82.966	268.066	83.9688	268.066	82.7976	268.066	83.8476	268.066	82.6454	268.066	83.7262	268.066	82.5158	268.066	83.5977	268.066	82.4155	268.066	83.4557	268.066	82.3498	268.066	83.299	268.066	82.3215	268.066	83.1322	268.066	82.33	268.066	82.9643	268.066	82.372	268.066	82.8052	268.066	82.4436	268.066	82.6626	268.066	82.5412
276.855	83.9734	276.855	83.7999	276.855	84.0968	276.855	83.5889	276.855	84.1612	276.855	83.3548	276.855	84.1633	276.855	83.1118	276.855	84.1059	276.855	82.8718	276.855	83.9984	276.855	82.6428	276.855	83.8553	276.855	82.4294	276.855	83.694	276.855	82.2334	276.855	83.53	276.855	82.0568	276.855	83.3733	276.855	81.9028	276.855	83.2258	276.855	81.7771	276.855	83.0826	276.855	81.6869	276.855	82.9361	276.855	81.6386	276.855	82.7812	276.855	81.6351	276.855	82.6175	276.855	81.6745	276.855	82.4496	276.855	81.7508	276.855	82.284	276.855	81.8559	276.855	82.127	276.855	81.983
287.109	84.018	287.109	83.8429	287.109	84.1407	287.109	83.6268	287.109	84.204	287.109	83.3832	287.109	84.2055	287.109	83.1258	287.109	84.1485	287.109	82.8666	287.109	84.0413	287.109	82.6141	287.109	83.8963	287.109	82.3737	287.109	83.728	287.109	82.1482	287.109	83.5501	287.109	81.9403	287.109	83.372	287.109	81.7539	287.109	83.1964	287.109	81.5947	287.109	83.0199	287.109	81.4701	287.109	82.8362	287.109	81.387	287.109	82.6407	287.109	81.3506	287.109	82.4339	287.109	81.3624	287.109	82.2222	287.109	81.4203	287.109	82.0154	287.109	81.5202	287.109	81.8239	287.109	81.6566
297.363	84.0523	297.363	83.8921	297.363	84.1543	297.363	83.6832	297.363	84.1935	297.363	83.4387	297.363	84.1713	297.363	83.1735	297.363	84.0954	297.363	82.9019	297.363	83.978	297.363	82.6362	297.363	83.8343	297.363	82.3853	297.363	83.6786	297.363	82.1553	297.363	83.5217	297.363	81.95	297.363	83.3689	297.363	81.7735	297.363	83.22	297.363	81.6308	297.363	83.0712	297.363	81.5281	297.363	82.9176	297.363	81.4715	297.363	82.7552	297.363	81.4644	297.363	82.5829	297.363	81.5062	297.363	82.4023	297.363	81.5925	297.363	82.2182	297.363	81.7156	297.363	82.0372	297.363	81.8668
307.617	83.7423	307.617	83.578	307.617	83.8502	307.617	83.3725	307.617	83.8929	307.617	83.1439	307.617	83.8695	307.617	82.9102	307.617	83.7881	307.617	82.6869	307.617	83.6649	307.617	82.4844	307.617	83.5218	307.617	82.3092	307.617	83.3811	307.617	82.1647	307.617	83.2599	307.617	82.0534	307.617	83.1656	307.617	81.9782	307.617	83.0955	307.617	81.9423	307.617	83.0403	307.617	81.948	307.617	82.9894	307.617	81.9945	307.617	82.9349	307.617	82.0766	307.617	82.8734	307.617	82.1842	307.617	82.8039	307.617	82.3046	307.617	82.7261	307.617	82.4255	307.617	82.6381	307.617	82.538
319.336	83.6131	319.336	83.4136	319.336	83.7307	319.336	83.1492	319.336	83.7576	319.336	82.8429	319.336	83.6945	319.336	82.5217	319.336	83.5517	319.336	82.2117	319.336	83.3497	319.336	81.935	319.336	83.1165	319.336	81.7059	319.336	82.8838	319.336	81.5313	319.336	82.6802	319.336	81.412	319.336	82.5243	319.336	81.3471	319.336	82.4221	319.336	81.3354	319.336	82.3678	319.336	81.3755	319.336	82.3484	319.336	81.4639	319.336	82.3487	319.336	81.592	319.336	82.3536	319.336	81.7456	319.336	82.3495	319.336	81.9064	319.336	82.3246	319.336	82.056	319.336	82.2696	319.336	82.1797
329.59	84.0546	329.59	83.8305	329.59	84.1784	329.59	83.5225	329.59	84.1921	329.59	83.1533	329.59	84.0941	329.59	82.7501	329.59	83.8921	329.59	82.3427	329.59	83.6047	329.59	81.9603	329.59	83.2621	329.59	81.628	329.59	82.9034	329.59	81.3631	329.59	82.5703	329.59	81.1742	329.59	82.2981	329.59	81.0627	329.59	82.1066	329.59	81.0251	329.59	81.9973	329.59	81.055	329.59	81.9568	329.59	81.1436	329.59	81.9628	329.59	81.2778	329.59	81.99	329.59	81.4405	329.59	82.014	329.59	81.6109	329.59	82.0141	329.59	81.7676	329.59	81.976	329.59	81.893
341.309	84.2213	341.309	83.9904	341.309	84.3561	341.309	83.6787	341.309	84.3862	341.309	83.3066	341.309	84.3103	341.309	82.899	341.309	84.1354	341.309	82.4826	341.309	83.8779	341.309	82.0844	341.309	83.5629	341.309	81.7281	341.309	83.2222	341.309	81.4322	341.309	82.8896	341.309	81.2088	341.309	82.5941	341.309	81.0635	341.309	82.3542	341.309	80.9963	341.309	82.1757	341.309	81.0022	341.309	82.0543	341.309	81.0713	341.309	81.9794	341.309	81.1885	341.309	81.9365	341.309	81.3348	341.309	81.9088	341.309	81.489	341.309	81.8779	341.309	81.631	341.309	81.8274	341.309	81.746
353.027	84.414	353.027	84.1563	353.027	84.5567	353.027	83.7967	353.027	84.577	353.027	83.354	353.027	84.4743	353.027	82.8533	353.027	84.2548	353.027	82.3259	353.027	83.9336	353.027	81.8082	353.027	83.5351	353.027	81.3384	353.027	83.0937	353.027	80.9513	353.027	82.651	353.027	80.6722	353.027	82.2506	353.027	80.5132	353.027	81.93	353.027	80.4725	353.027	81.7124	353.027	80.5371	353.027	81.6014	353.027	80.6851	353.027	81.5805	353.027	80.8885	353.027	81.6182	353.027	81.1156	353.027	81.6758	353.027	81.3349	353.027	81.7168	353.027	81.519	353.027	81.7129	353.027	81.648
366.211	84.7129	366.211	84.4813	366.211	84.8368	366.211	84.1543	366.211	84.8456	366.211	83.748	366.211	84.7376	366.211	83.2817	366.211	84.5185	366.211	82.778	366.211	84.2019	366.211	82.2639	366.211	83.8103	366.211	81.7703	366.211	83.3742	366.211	81.3318	366.211	82.9296	366.211	80.9818	366.211	82.5131	366.211	80.7466	366.211	82.1571	366.211	80.638	366.211	81.8846	366.211	80.6501	366.211	81.7065	366.211	80.7607	366.211	81.6199	366.211	80.9373	366.211	81.6063	366.211	81.1432	366.211	81.6345	366.211	81.3433	366.211	81.6669	366.211	81.5085	366.211	81.6696	366.211	81.6195
379.395	84.5315	379.395	84.298	379.395	84.6562	379.395	83.9668	379.395	84.6659	379.395	83.5534	379.395	84.5604	379.395	83.0772	379.395	84.3457	379.395	82.5608	379.395	84.0345	379.395	82.0299	379.395	83.6458	379.395	81.5135	379.395	83.2044	379.395	81.0434	379.395	82.7384	379.395	80.6531	379.395	82.2776	379.395	80.3739	379.395	81.8522	379.395	80.2272	379.395	81.4928	379.395	80.2166	379.395	81.2281	379.395	80.3239	379.395	81.077	379.395	80.512	379.395	81.037	379.395	80.7342	379.395	81.0778	379.395	80.944	379.395	81.1495	379.395	81.1039	379.395	81.2001	379.395	81.1907
392.578	84.4432	392.578	84.2207	392.578	84.5514	392.578	83.8961	392.578	84.5378	392.578	83.4849	392.578	84.4009	392.578	83.0058	392.578	84.1467	392.578	82.4803	392.578	83.7906	392.578	81.9327	392.578	83.3583	392.578	81.3914	392.578	82.885	392.578	80.8895	392.578	82.4112	392.578	80.4639	392.578	81.9766	392.578	80.151	392.578	81.6131	392.578	79.9783	392.578	81.3408	392.578	79.9545	392.578	81.1673	392.578	80.0637	392.578	81.0866	392.578	80.268	392.578	81.0792	392.578	80.5174	392.578	81.1131	392.578	80.7621	392.578	81.1501	392.578	80.9625	392.578	81.1532	392.578	81.0948
405.762	84.3579	405.762	84.1093	405.762	84.5063	405.762	83.7738	405.762	84.5439	405.762	83.3659	405.762	84.4646	405.762	82.9004	405.762	84.2685	405.762	82.392	405.762	83.9639	405.762	81.8574	405.762	83.5685	405.762	81.3174	405.762	83.1085	405.762	80.8012	405.762	82.6168	405.762	80.3485	405.762	82.1293	405.762	80.0073	405.762	81.6835	405.762	79.8225	405.762	81.3182	405.762	79.8183	405.762	81.071	405.762	79.9829	405.762	80.966	405.762	80.2687	405.762	80.9956	405.762	80.607	405.762	81.1134	405.762	80.928	405.762	81.2482	405.762	81.175	405.762	81.3306	405.762	81.3125
420.41	84.7239	420.41	84.4732	420.41	84.8477	420.41	84.1062	420.41	84.838	420.41	83.6367	420.41	84.6929	420.41	83.0822	420.41	84.4172	420.41	82.4665	420.41	84.0236	420.41	81.821	420.41	83.5343	420.41	81.1864	420.41	82.9808	420.41	80.6109	420.41	82.401	420.41	80.1432	420.41	81.8357	420.41	79.8221	420.41	81.3253	420.41	79.6657	420.41	80.9093	420.41	79.6671	420.41	80.6238	420.41	79.7975	420.41	80.4904	420.41	80.0137	420.41	80.4988	420.41	80.2667	420.41	80.6002	420.41	80.5082	420.41	80.7236	420.41	80.6956	420.41	80.8034	420.41	80.7982
435.059	84.6693	435.059	84.4414	435.059	84.7832	435.059	84.1103	435.059	84.7753	435.059	83.6884	435.059	84.6413	435.059	83.1893	435.059	84.3825	435.059	82.6286	435.059	84.0072	435.059	82.0259	435.059	83.5332	435.059	81.4084	435.059	82.9893	435.059	80.8145	435.059	82.4143	435.059	80.2933	435.059	81.8533	435.059	79.8986	435.059	81.3512	435.059	79.6739	435.059	80.9479	435.059	79.6362	435.059	80.6744	435.059	79.7654	435.059	80.5461	435.059	80.01	435.059	80.5524	435.059	80.3022	435.059	80.6517	435.059	80.5759	435.059	80.7803	435.059	80.7787	435.059	80.8724	435.059	80.8794
451.172	84.2491	451.172	84.0131	451.172	84.367	451.172	83.6689	451.172	84.3627	451.172	83.2322	451.172	84.2377	451.172	82.722	451.172	83.9983	451.172	82.1586	451.172	83.6538	451.172	81.5616	451.172	83.2166	451.172	80.952	451.172	82.7022	451.172	80.3575	451.172	82.1295	451.172	79.82	451.172	81.5222	451.172	79.3974	451.172	80.9126	451.172	79.151	451.172	80.3491	451.172	79.1181	451.172	79.9022	451.172	79.2846	451.172	79.6507	451.172	79.5849	451.172	79.637	451.172	79.9281	451.172	79.8213	451.172	80.2269	451.172	80.0936	451.172	80.4144	451.172	80.3322	451.172	80.4514
465.82	84.616	465.82	84.3713	465.82	84.7237	465.82	84.0021	465.82	84.687	465.82	83.5237	465.82	84.506	465.82	82.9532	465.82	84.1908	465.82	82.31	465.82	83.7619	465.82	81.6176	465.82	83.2495	465.82	80.9074	465.82	82.6895	465.82	80.2223	465.82	82.1167	465.82	79.6178	465.82	81.5588	465.82	79.1553	465.82	81.0362	465.82	78.8871	465.82	80.5682	465.82	78.8342	465.82	80.1837	465.82	78.9727	465.82	79.9215	465.82	79.2394	465.82	79.8108	465.82	79.5528	465.82	79.8412	465.82	79.8352	465.82	79.9539	465.82	80.0288	465.82	80.0656	465.82	80.1042
483.398	84.5938	483.398	84.3421	483.398	84.7118	483.398	83.9666	483.398	84.69	483.398	83.4806	483.398	84.5272	483.398	82.9005	483.398	84.2275	483.398	82.2454	483.398	83.8039	483.398	81.5378	483.398	83.2795	483.398	80.8057	483.398	82.6885	483.398	80.0869	483.398	82.0723	483.398	79.434	483.398	81.472	483.398	78.914	483.398	80.9219	483.398	78.5968	483.398	80.449	483.398	78.5269	483.398	80.08	483.398	78.6926	483.398	79.8446	483.398	79.0217	483.398	79.7623	483.398	79.4108	483.398	79.818	483.398	79.7618	483.398	79.9505	483.398	80.0047	483.398	80.0727	483.398	80.1062
499.512	84.7188	499.512	84.5115	499.512	84.7992	499.512	84.1879	499.512	84.7434	499.512	83.7567	499.512	84.5463	499.512	83.2233	499.512	84.2094	499.512	82.5915	499.512	83.7416	499.512	81.8688	499.512	83.1597	499.512	81.0735	499.512	82.4889	499.512	80.2441	499.512	81.7641	499.512	79.4486	499.512	81.032	499.512	78.787	499.512	80.3538	499.512	78.3716	499.512	79.8041	499.512	78.2753	499.512	79.4566	499.512	78.4796	499.512	79.3513	499.512	78.8795	499.512	79.4626	499.512	79.341	499.512	79.7013	499.512	79.7519	499.512	79.9554	499.512	80.0393	499.512	80.1306	499.512	80.1671
517.09	84.3792	517.09	84.1619	517.09	84.466	517.09	83.8286	517.09	84.4148	517.09	83.3976	517.09	84.2261	517.09	82.8879	517.09	83.9091	517.09	82.3159	517.09	83.4806	517.09	81.6941	517.09	82.9647	517.09	81.0339	517.09	82.39	517.09	80.3518	517.09	81.7861	517.09	79.6796	517.09	81.1793	517.09	79.0741	517.09	80.5928	517.09	78.6181	517.09	80.0561	517.09	78.3969	517.09	79.6181	517.09	78.4482	517.09	79.3449	517.09	78.7251	517.09	79.2822	517.09	79.1141	517.09	79.406	517.09	79.4899	517.09	79.6189	517.09	79.7562	517.09	79.8013	517.09	79.8617
536.133	84.2972	536.133	84.0388	536.133	84.4145	536.133	83.6625	536.133	84.3753	536.133	83.1943	536.133	84.1748	536.133	82.6575	536.133	83.8199	536.133	82.0679	536.133	83.3297	536.133	81.4338	536.133	82.7347	536.133	80.762	536.133	82.0754	536.133	80.0675	536.133	81.3964	536.133	79.3882	536.133	80.7375	536.133	78.7962	536.133	80.1283	536.133	78.3942	536.133	79.5968	536.133	78.2758	536.133	79.1891	536.133	78.4597	536.133	78.9761	536.133	78.8615	536.133	79.0124	536.133	79.3388	536.133	79.2687	536.133	79.7561	536.133	79.6232	536.133	80.0186	536.133	79.9286	536.133	80.077
555.176	84.3537	555.176	84.13	555.176	84.4404	555.176	83.7858	555.176	84.3807	555.176	83.3412	555.176	84.1744	555.176	82.8146	555.176	83.8298	555.176	82.2175	555.176	83.3624	555.176	81.5541	555.176	82.7939	555.176	80.827	555.176	82.1504	555.176	80.0486	555.176	81.4593	555.176	79.2573	555.176	80.7459	555.176	78.5337	555.176	80.0359	555.176	78.0023	555.176	79.3721	555.176	77.7915	555.176	78.8406	555.176	77.9479	555.176	78.568	555.176	78.3857	555.176	78.6363	555.176	78.9368	555.176	78.9795	555.176	79.4381	555.176	79.4118	555.176	79.7751	555.176	79.7503	555.176	79.8844
574.219	84.5297	574.219	84.1968	574.219	84.6797	574.219	83.7109	574.219	84.6299	574.219	83.1099	574.219	84.3783	574.219	82.4337	574.219	83.9395	574.219	81.718	574.219	83.3479	574.219	80.9916	574.219	82.6601	574.219	80.2782	574.219	81.9537	574.219	79.601	574.219	81.3082	574.219	78.9893	574.219	80.7691	574.219	78.4867	574.219	80.3193	574.219	78.1571	574.219	79.8963	574.219	78.0705	574.219	79.4541	574.219	78.256	574.219	79.0288	574.219	78.6552	574.219	78.7555	574.219	79.1326	574.219	78.7732	574.219	79.5356	574.219	79.0647	574.219	79.7472	574.219	79.4445	574.219	79.7104
594.727	84.9767	594.727	84.7514	594.727	85.0308	594.727	84.371	594.727	84.9056	594.727	83.8587	594.727	84.6004	594.727	83.2398	594.727	84.1206	594.727	82.5342	594.727	83.4784	594.727	81.7537	594.727	82.6978	594.727	80.9058	594.727	81.8237	594.727	80.0092	594.727	80.9307	594.727	79.116	594.727	80.1191	594.727	78.3298	594.727	79.4832	594.727	77.7989	594.727	79.066	594.727	77.6501	594.727	78.8504	594.727	77.8903	594.727	78.8	594.727	78.3854	594.727	78.8935	594.727	78.9457	594.727	79.1096	594.727	79.4151	594.727	79.3917	594.727	79.7006	594.727	79.6448	594.727	79.7702
615.234	84.7933	615.234	84.4846	615.234	84.918	615.234	84.0186	615.234	84.8417	615.234	83.4292	615.234	84.5589	615.234	82.753	615.234	84.0755	615.234	82.022	615.234	83.4093	615.234	81.2569	615.234	82.5919	615.234	80.4641	615.234	81.6722	615.234	79.6432	615.234	80.7226	615.234	78.8083	615.234	79.8368	615.234	78.0228	615.234	79.1105	615.234	77.4305	615.234	78.6092	615.234	77.2256	615.234	78.3552	615.234	77.509	615.234	78.3529	615.234	78.1613	615.234	78.5975	615.234	78.9292	615.234	79.0358	615.234	79.5881	615.234	79.5379	615.234	80.0036	615.234	79.9419	615.234	80.1195
637.207	85.0792	637.207	84.8049	637.207	85.1853	637.207	84.3792	637.207	85.1157	637.207	83.8281	637.207	84.8694	637.207	83.1829	637.207	84.4501	637.207	82.4721	637.207	83.8659	637.207	81.7135	637.207	83.1323	637.207	80.9106	637.207	82.279	637.207	80.0588	637.207	81.3559	637.207	79.1596	637.207	80.4344	637.207	78.2472	637.207	79.5988	637.207	77.4228	637.207	78.928	637.207	76.8772	637.207	78.4796	637.207	76.8129	637.207	78.282	637.207	77.2497	637.207	78.3324	637.207	77.9611	637.207	78.5842	637.207	78.6563	637.207	78.9313	637.207	79.1375	637.207	79.2246	637.207	79.3228
659.18	84.8762	659.18	84.6296	659.18	84.9673	659.18	84.2522	659.18	84.8851	659.18	83.7689	659.18	84.6218	659.18	83.1997	659.18	84.1801	659.18	82.5581	659.18	83.5739	659.18	81.8554	659.18	82.8296	659.18	81.1079	659.18	81.9906	659.18	80.3405	659.18	81.1206	659.18	79.5856	659.18	80.2971	659.18	78.8838	659.18	79.5943	659.18	78.2983	659.18	79.0694	659.18	77.934	659.18	78.7718	659.18	77.9153	659.18	78.7502	659.18	78.2831	659.18	79.0109	659.18	78.911	659.18	79.461	659.18	79.5744	659.18	79.9297	659.18	80.0785	659.18	80.2502	659.18	80.3134
682.617	84.7529	682.617	84.3969	682.617	84.909	682.617	83.8696	682.617	84.8549	682.617	83.2193	682.617	84.5937	682.617	82.5056	682.617	84.1384	682.617	81.7822	682.617	83.5106	682.617	81.0805	682.617	82.7433	682.617	80.4074	682.617	81.8842	682.617	79.7595	682.617	80.9946	682.617	79.1422	682.617	80.1382	682.617	78.5845	682.617	79.3686	682.617	78.1524	682.617	78.7377	682.617	77.9532	682.617	78.3317	682.617	78.0963	682.617	78.2821	682.617	78.5946	682.617	78.6601	682.617	79.307	682.617	79.3365	682.617	80.0122	682.617	80.0415	682.617	80.5189	682.617	80.5408	682.617	80.7097
707.52	85.2503	707.52	84.9971	707.52	85.3139	707.52	84.5661	707.52	85.1826	707.52	83.9723	707.52	84.8569	707.52	83.2305	707.52	84.3404	707.52	82.355	707.52	83.6384	707.52	81.3659	707.52	82.7634	707.52	80.3011	707.52	81.7497	707.52	79.2267	707.52	80.6751	707.52	78.2345	707.52	79.6666	707.52	77.4212	707.52	78.854	707.52	76.8659	707.52	78.2797	707.52	76.6299	707.52	77.8757	707.52	76.7547	707.52	77.5808	707.52	77.2146	707.52	77.4664	707.52	77.8681	707.52	77.674	707.52	78.4994	707.52	78.1696	707.52	78.9104	707.52	78.6923	707.52	78.9798
732.422	84.6209	732.422	84.4093	732.422	84.6696	732.422	84.0349	732.422	84.5596	732.422	83.5117	732.422	84.2884	732.422	82.8687	732.422	83.8431	732.422	82.1385	732.422	83.2074	732.422	81.3434	732.422	82.3744	732.422	80.4928	732.422	81.3652	732.422	79.5987	732.422	80.2504	732.422	78.6965	732.422	79.1703	732.422	77.8581	732.422	78.3247	732.422	77.1983	732.422	77.8812	732.422	76.8703	732.422	77.8444	732.422	77.0063	732.422	78.0761	732.422	77.5849	732.422	78.4505	732.422	78.3906	732.422	78.9082	732.422	79.1515	732.422	79.3805	732.422	79.6734	732.422	79.7446	732.422	79.8694
757.324	84.3224	757.324	84.1477	757.324	84.3011	757.324	83.778	757.324	84.0982	757.324	83.2336	757.324	83.7361	757.324	82.5515	757.324	83.2352	757.324	81.7773	757.324	82.6081	757.324	80.9552	757.324	81.8596	757.324	80.1213	757.324	80.9909	757.324	79.3063	757.324	80.0065	757.324	78.5394	757.324	78.926	757.324	77.8517	757.324	77.8203	757.324	77.2861	757.324	76.8777	757.324	76.927	757.324	76.4015	757.324	76.9049	757.324	76.5754	757.324	77.2952	757.324	77.2388	757.324	77.9836	757.324	78.0675	757.324	78.7133	757.324	78.8072	757.324	79.2499	757.324	79.3013	757.324	79.4593
785.156	84.7159	785.156	84.4904	785.156	84.7617	785.156	84.0844	785.156	84.627	785.156	83.5045	785.156	84.3051	785.156	82.7721	785.156	83.7868	785.156	81.926	785.156	83.071	785.156	81.0159	785.156	82.1769	785.156	80.0888	785.156	81.1502	785.156	79.1804	785.156	80.0552	785.156	78.3149	785.156	78.9531	785.156	77.5086	785.156	77.8963	785.156	76.78	785.156	76.9654	785.156	76.1998	785.156	76.3065	785.156	75.9621	785.156	76.0822	785.156	76.2888	785.156	76.3537	785.156	77.1044	785.156	77.0153	785.156	78.0114	785.156	77.8238	785.156	78.6377	785.156	78.4945	785.156	78.8037
811.523	84.409	811.523	84.2241	811.523	84.3499	811.523	83.8102	811.523	84.0632	811.523	83.2114	811.523	83.5832	811.523	82.4819	811.523	82.942	811.523	81.6595	811.523	82.1536	811.523	80.7625	811.523	81.2139	811.523	79.8221	811.523	80.1227	811.523	78.9231	811.523	78.9169	811.523	78.1908	811.523	77.7032	811.523	77.7041	811.523	76.6664	811.523	77.4274	811.523	76.0076	811.523	77.2767	811.523	75.8218	811.523	77.2519	811.523	76.0707	811.523	77.4655	811.523	76.6809	811.523	77.9823	811.523	77.5364	811.523	78.6464	811.523	78.4172	811.523	79.1725	811.523	79.0747	811.523	79.3424
840.82	84.4568	840.82	84.314	840.82	84.3947	840.82	83.9512	840.82	84.1608	840.82	83.3719	840.82	83.7878	840.82	82.5887	840.82	83.2855	840.82	81.6172	840.82	82.6335	840.82	80.4851	840.82	81.7927	840.82	79.2624	840.82	80.7244	840.82	78.1018	840.82	79.4092	840.82	77.2395	840.82	77.8797	840.82	76.8528	840.82	76.3218	840.82	76.8768	840.82	75.2331	840.82	77.0912	840.82	75.1453	840.82	77.3684	840.82	75.8575	840.82	77.7511	840.82	76.8082	840.82	78.3094	840.82	77.7593	840.82	78.9532	840.82	78.6383	840.82	79.4501	840.82	79.3029	840.82	79.5936
870.117	84.4621	870.117	84.381	870.117	84.2997	870.117	84.0443	870.117	83.9439	870.117	83.4762	870.117	83.4592	870.117	82.711	870.117	82.8903	870.117	81.7632	870.117	82.2396	870.117	80.6296	870.117	81.4693	870.117	79.3357	870.117	80.5194	870.117	78.0106	870.117	79.327	870.117	76.9281	870.117	77.8529	870.117	76.373	870.117	76.1832	870.117	76.3553	870.117	74.7964	870.117	76.6198	870.117	74.5199	870.117	76.9488	870.117	75.3308	870.117	77.3015	870.117	76.3834	870.117	77.7251	870.117	77.2468	870.117	78.1902	870.117	77.9086	870.117	78.5435	870.117	78.3923	870.117	78.6264
900.879	84.1658	900.879	84.1363	900.879	83.9306	900.879	83.8433	900.879	83.4844	900.879	83.3175	900.879	82.9295	900.879	82.5777	900.879	82.3709	900.879	81.604	900.879	81.8535	900.879	80.3522	900.879	81.328	900.879	78.818	900.879	80.6683	900.879	77.1631	900.879	79.7084	900.879	75.8672	900.879	78.2641	900.879	75.5021	900.879	76.1932	900.879	75.9778	900.879	73.8327	900.879	76.6973	900.879	73.1191	900.879	77.287	900.879	74.86	900.879	77.7014	900.879	76.8105	900.879	78.0593	900.879	78.1034	900.879	78.4611	900.879	78.8188	900.879	78.8624	900.879	79.1283	900.879	79.1224
933.105	84.3146	933.105	84.4258	933.105	83.8712	933.105	84.1972	933.105	83.1758	933.105	83.6875	933.105	82.3627	933.105	82.9776	933.105	81.5764	933.105	82.0917	933.105	80.9093	933.105	80.9466	933.105	80.3513	933.105	79.3877	933.105	79.7733	933.105	77.3061	933.105	78.9389	933.105	74.9313	933.105	77.516	933.105	73.4808	933.105	75.0954	933.105	74.1672	933.105	71.7046	933.105	75.8122	933.105	71.1754	933.105	77.2562	933.105	74.5669	933.105	78.281	933.105	77.2407	933.105	78.9671	933.105	78.7698	933.105	79.4311	933.105	79.5444	933.105	79.7426	933.105	79.8654	933.105	79.9027
965.332	83.6679	965.332	83.6885	965.332	83.3681	965.332	83.5081	965.332	82.792	965.332	83.2302	965.332	82.0251	965.332	82.8787	965.332	81.2251	965.332	82.3488	965.332	80.5983	965.332	81.4652	965.332	80.3002	965.332	80.0439	965.332	80.2635	965.332	77.904	965.332	80.1583	965.332	74.9661	965.332	79.516	965.332	72.2059	965.332	77.7461	965.332	72.7269	965.332	73.6928	965.332	75.3089	965.332	61.3807	965.332	77.5008	965.332	69.7857	965.332	79.0562	965.332	76.6283	965.332	80.1607	965.332	79.6881	965.332	80.9674	965.332	81.1861	965.332	81.5405	965.332	81.7987	965.332	81.8533
1000.49	85.7609	1000.49	85.4821	1000.49	85.5117	1000.49	84.7537	1000.49	84.7429	1000.49	83.8257	1000.49	83.5032	1000.49	83.0971	1000.49	81.891	1000.49	82.746	1000.49	80.1613	1000.49	82.4618	1000.49	78.967	1000.49	81.7837	1000.49	79.0588	1000.49	80.3709	1000.49	80.0306	1000.49	77.9307	1000.49	80.7976	1000.49	74.157	1000.49	80.6337	1000.49	70.6223	1000.49	78.9443	1000.49	73.3875	1000.49	74.4367	1000.49	77.4013	1000.49	63.0177	1000.49	80.269	1000.49	74.4073	1000.49	82.2593	1000.49	79.9278	1000.49	83.5833	1000.49	82.6409	1000.49	84.3259	1000.49	83.9986	1000.49	84.4909
1035.64	86.8508	1035.64	86.5901	1035.64	86.5313	1035.64	85.735	1035.64	85.7143	1035.64	84.4402	1035.64	84.5021	1035.64	83.1471	1035.64	82.9867	1035.64	82.3625	1035.64	81.2453	1035.64	82.0127	1035.64	79.4665	1035.64	81.5548	1035.64	78.3686	1035.64	80.5694	1035.64	78.9058	1035.64	78.8374	1035.64	80.3835	1035.64	76.26	1035.64	81.4263	1035.64	73.3172	1035.64	81.3133	1035.64	72.8479	1035.64	79.4747	1035.64	75.7128	1035.64	74.4364	1035.64	78.7782	1035.64	62.0399	1035.64	81.1488	1035.64	75.6943	1035.64	82.7857	1035.64	80.6957	1035.64	83.6943	1035.64	82.9654	1035.64	83.8156
1072.27	87.2061	1072.27	87.0835	1072.27	86.7687	1072.27	86.2975	1072.27	85.9041	1072.27	84.8402	1072.27	84.7417	1072.27	82.9869	1072.27	83.3606	1072.27	81.5573	1072.27	81.7242	1072.27	81.2432	1072.27	79.6732	1072.27	81.4253	1072.27	77.2287	1072.27	81.196	1072.27	75.7407	1072.27	80.1055	1072.27	76.9309	1072.27	77.8639	1072.27	78.742	1072.27	74.1596	1072.27	79.449	1072.27	70.7629	1072.27	78.4621	1072.27	73.7675	1072.27	74.7681	1072.27	77.6064	1072.27	62.624	1072.27	80.1867	1072.27	72.2581	1072.27	81.8324	1072.27	78.7226	1072.27	82.6903	1072.27	81.5558	1072.27	82.684
1108.89	87.3432	1108.89	87.2842	1108.89	86.8119	1108.89	86.5609	1108.89	85.8188	1108.89	85.1394	1108.89	84.5544	1108.89	83.0748	1108.89	83.2112	1108.89	80.7367	1108.89	81.8523	1108.89	79.0765	1108.89	80.3402	1108.89	78.6566	1108.89	78.4984	1108.89	78.612	1108.89	76.6959	1108.89	78.0657	1108.89	76.3989	1108.89	76.6623	1108.89	77.6048	1108.89	74.304	1108.89	78.4525	1108.89	72.0132	1108.89	77.9345	1108.89	73.4919	1108.89	75.2413	1108.89	77.0042	1108.89	67.3076	1108.89	79.6994	1108.89	68.2776	1108.89	81.3436	1108.89	76.8007	1108.89	82.0562	1108.89	80.3214	1108.89	81.8111
1148.44	87.2191	1148.44	87.2103	1148.44	86.7065	1148.44	86.6035	1148.44	85.7998	1148.44	85.3604	1148.44	84.6734	1148.44	83.5176	1148.44	83.4683	1148.44	81.3395	1148.44	82.1784	1148.44	79.5344	1148.44	80.6474	1148.44	78.7625	1148.44	78.689	1148.44	78.5919	1148.44	76.4263	1148.44	78.1786	1148.44	75.1896	1148.44	76.9956	1148.44	76.0835	1148.44	74.5454	1148.44	77.1873	1148.44	70.1078	1148.44	76.9982	1148.44	68.7728	1148.44	74.7548	1148.44	74.395	1148.44	68.8437	1148.44	78.0563	1148.44	68.6426	1148.44	80.028	1148.44	76.0202	1148.44	80.9034	1148.44	79.458	1148.44	80.8177
1189.45	86.6118	1189.45	86.7903	1189.45	85.8936	1189.45	86.3533	1189.45	84.8209	1189.45	85.3027	1189.45	83.652	1189.45	83.6872	1189.45	82.5784	1189.45	81.644	1189.45	81.586	1189.45	79.5742	1189.45	80.4673	1189.45	78.1487	1189.45	78.9414	1189.45	77.5167	1189.45	76.8566	1189.45	77.0993	1189.45	74.7911	1189.45	76.4854	1189.45	74.4466	1189.45	75.4594	1189.45	75.4701	1189.45	73.478	1189.45	75.8748	1189.45	70.0234	1189.45	74.6601	1189.45	70.9292	1189.45	70.7585	1189.45	75.8199	1189.45	65.3137	1189.45	78.5914	1189.45	72.352	1189.45	79.4783	1189.45	76.8272	1189.45	78.9065
1230.47	86.158	1230.47	86.4475	1230.47	85.3826	1230.47	86.1368	1230.47	84.2871	1230.47	85.169	1230.47	83.089	1230.47	83.5784	1230.47	81.9841	1230.47	81.5733	1230.47	81.0023	1230.47	79.6386	1230.47	79.9922	1230.47	78.295	1230.47	78.7413	1230.47	77.4604	1230.47	77.1582	1230.47	76.7087	1230.47	75.6695	1230.47	76.0248	1230.47	75.1073	1230.47	75.6187	1230.47	75.0334	1230.47	75.1192	1230.47	74.0826	1230.47	74.0432	1230.47	71.1955	1230.47	74.0844	1230.47	66.1279	1230.47	76.6973	1230.47	69.5909	1230.47	78.975	1230.47	74.9904	1230.47	79.8649	1230.47	78.0123	1230.47	79.5187
1274.41	85.4513	1274.41	86.1126	1274.41	84.4023	1274.41	86.1063	1274.41	83.3226	1274.41	85.3138	1274.41	82.4488	1274.41	83.7862	1274.41	81.7655	1274.41	81.7714	1274.41	81.0758	1274.41	79.7593	1274.41	80.1192	1274.41	78.2171	1274.41	78.6145	1274.41	76.9401	1274.41	76.3652	1274.41	75.2236	1274.41	74.2537	1274.41	72.9673	1274.41	74.8269	1274.41	72.0876	1274.41	76.2764	1274.41	73.1003	1274.41	75.9588	1274.41	73.416	1274.41	72.7475	1274.41	73.7766	1274.41	62.8237	1274.41	76.5301	1274.41	66.6076	1274.41	79.1956	1274.41	74.3588	1274.41	80.2726	1274.41	77.9493	1274.41	79.8075
1319.82	84.8304	1319.82	85.6102	1319.82	83.5975	1319.82	85.7876	1319.82	82.1894	1319.82	85.2533	1319.82	81.0402	1319.82	83.902	1319.82	80.4826	1319.82	81.7065	1319.82	80.3692	1319.82	79.1099	1319.82	80.1676	1319.82	77.5184	1319.82	79.3267	1319.82	77.2706	1319.82	77.3894	1319.82	76.764	1319.82	74.2961	1319.82	75.1237	1319.82	72.9143	1319.82	72.6056	1319.82	75.1292	1319.82	71.0002	1319.82	76.4609	1319.82	70.946	1319.82	75.5122	1319.82	72.1275	1319.82	71.13	1319.82	75.6372	1319.82	59.6987	1319.82	78.6971	1319.82	72.0725	1319.82	79.9954	1319.82	77.2643	1319.82	79.5447
1366.7	85.1118	1366.7	85.6921	1366.7	83.9126	1366.7	85.6227	1366.7	82.31	1366.7	84.9174	1366.7	80.7684	1366.7	83.5497	1366.7	79.7113	1366.7	81.4547	1366.7	79.1434	1366.7	78.7517	1366.7	78.8529	1366.7	76.4394	1366.7	78.5138	1366.7	75.7711	1366.7	77.4959	1366.7	75.5408	1366.7	75.0833	1366.7	74.3793	1366.7	71.7623	1366.7	72.5675	1366.7	72.5518	1366.7	71.9133	1366.7	75.0897	1366.7	71.8535	1366.7	75.5719	1366.7	71.0028	1366.7	73.1151	1366.7	73.2227	1366.7	62.5305	1366.7	76.8742	1366.7	68.8827	1366.7	78.6808	1366.7	76.0684	1366.7	78.5149
1413.57	85.0859	1413.57	85.4032	1413.57	83.9715	1413.57	85.1126	1413.57	82.2058	1413.57	84.3915	1413.57	80.4487	1413.57	83.1538	1413.57	79.4548	1413.57	81.1624	1413.57	79.111	1413.57	78.4695	1413.57	78.6112	1413.57	75.9729	1413.57	77.6135	1413.57	74.6827	1413.57	76.4428	1413.57	73.6189	1413.57	74.9884	1413.57	70.9537	1413.57	72.828	1413.57	65.184	1413.57	72.2233	1413.57	67.8687	1413.57	73.8619	1413.57	71.9835	1413.57	74.1831	1413.57	71.9471	1413.57	71.9177	1413.57	71.7011	1413.57	63.1822	1413.57	75.1575	1413.57	65.9143	1413.57	77.2806	1413.57	74.1138	1413.57	76.9866
1463.38	84.2808	1463.38	84.8846	1463.38	83.1202	1463.38	84.9718	1463.38	81.4921	1463.38	84.4641	1463.38	79.8176	1463.38	83.1439	1463.38	78.574	1463.38	80.757	1463.38	78.0806	1463.38	77.244	1463.38	78.1425	1463.38	73.6314	1463.38	77.9304	1463.38	72.8986	1463.38	77.0294	1463.38	73.9998	1463.38	75.6649	1463.38	74.0063	1463.38	74.0826	1463.38	71.2936	1463.38	72.7675	1463.38	62.5245	1463.38	72.6842	1463.38	67.6052	1463.38	72.5446	1463.38	71.4882	1463.38	70.4033	1463.38	71.7731	1463.38	63.3305	1463.38	73.6596	1463.38	60.9366	1463.38	75.6203	1463.38	71.6497	1463.38	75.1906
1516.11	84.1479	1516.11	84.917	1516.11	82.7439	1516.11	84.9394	1516.11	80.9837	1516.11	84.2513	1516.11	79.3969	1516.11	82.9609	1516.11	78.5012	1516.11	81.0466	1516.11	78.125	1516.11	78.2578	1516.11	77.7914	1516.11	74.3721	1516.11	77.2817	1516.11	71.3184	1516.11	76.4722	1516.11	73.0229	1516.11	75.1303	1516.11	74.9232	1516.11	73.3802	1516.11	74.4047	1516.11	72.8618	1516.11	69.6647	1516.11	73.4011	1516.11	63.044	1516.11	72.6055	1516.11	70.1439	1516.11	70.3662	1516.11	71.1171	1516.11	66.5126	1516.11	72.1936	1516.11	53.1668	1516.11	74.3214	1516.11	68.1106	1516.11	73.5872
1568.85	84.2093	1568.85	84.8646	1568.85	82.8269	1568.85	84.8011	1568.85	80.891	1568.85	84.0935	1568.85	79.1283	1568.85	82.8513	1568.85	78.3552	1568.85	81.0906	1568.85	78.2292	1568.85	78.66	1568.85	78.1674	1568.85	75.3871	1568.85	77.8549	1568.85	72.1312	1568.85	77.0796	1568.85	72.6024	1568.85	75.8473	1568.85	75.0231	1568.85	74.3401	1568.85	75.821	1568.85	73.1484	1568.85	73.6765	1568.85	72.7551	1568.85	67.4758	1568.85	72.0236	1568.85	67.9575	1568.85	70.138	1568.85	70.3421	1568.85	67.0424	1568.85	71.7931	1568.85	61.1467	1568.85	74.1134	1568.85	68.308	1568.85	73.573
1624.51	84.5269	1624.51	85.0551	1624.51	82.8694	1624.51	84.729	1624.51	80.4464	1624.51	83.9322	1624.51	78.8668	1624.51	82.818	1624.51	79.0175	1624.51	81.1957	1624.51	79.4033	1624.51	78.8104	1624.51	79.1654	1624.51	75.619	1624.51	78.7272	1624.51	71.3939	1624.51	78.3219	1624.51	66.5124	1624.51	77.0279	1624.51	69.8731	1624.51	74.5253	1624.51	73.7496	1624.51	73.8319	1624.51	74.2677	1624.51	74.5993	1624.51	72.377	1624.51	73.2576	1624.51	71.6735	1624.51	69.7905	1624.51	71.7458	1624.51	65.3681	1624.51	72.2259	1624.51	61.9184	1624.51	74.3649	1624.51	69.5468	1624.51	74.0599
1681.64	84.9947	1681.64	85.67	1681.64	83.1642	1681.64	85.3955	1681.64	80.7199	1681.64	84.446	1681.64	79.5476	1681.64	83.084	1681.64	79.7544	1681.64	81.4708	1681.64	79.8583	1681.64	79.4268	1681.64	79.5366	1681.64	76.8695	1681.64	79.1585	1681.64	74.2826	1681.64	78.9721	1681.64	71.5342	1681.64	78.1994	1681.64	67.9774	1681.64	75.9258	1681.64	68.6184	1681.64	74.0504	1681.64	70.6598	1681.64	75.1653	1681.64	70.9903	1681.64	74.862	1681.64	72.6021	1681.64	71.8678	1681.64	73.0895	1681.64	66.038	1681.64	72.5618	1681.64	59.7264	1681.64	74.421	1681.64	70.3791	1681.64	74.5673
1741.7	84.9745	1741.7	85.8426	1741.7	82.9395	1741.7	85.6898	1741.7	80.4998	1741.7	84.7372	1741.7	79.851	1741.7	83.1795	1741.7	80.5411	1741.7	81.1271	1741.7	80.7253	1741.7	78.4595	1741.7	79.9319	1741.7	75.2999	1741.7	78.7488	1741.7	72.9106	1741.7	78.3891	1741.7	71.8788	1741.7	77.9639	1741.7	70.2323	1741.7	75.7344	1741.7	67.9299	1741.7	73.5271	1741.7	68.4294	1741.7	75.3208	1741.7	69.6147	1741.7	76.0681	1741.7	72.011	1741.7	74.6379	1741.7	72.7664	1741.7	71.1005	1741.7	72.0298	1741.7	60.0798	1741.7	74.7024	1741.7	70.9185	1741.7	75.7666
1803.22	84.8661	1803.22	85.9953	1803.22	82.6116	1803.22	86.0369	1803.22	80.2279	1803.22	85.1084	1803.22	80.0488	1803.22	83.3574	1803.22	81.0739	1803.22	81.1902	1803.22	81.5442	1803.22	78.809	1803.22	81.0668	1803.22	75.5928	1803.22	79.6385	1803.22	72.5992	1803.22	78.2926	1803.22	72.8179	1803.22	78.1019	1803.22	72.4248	1803.22	76.8245	1803.22	68.1374	1803.22	72.3943	1803.22	60.4595	1803.22	72.1437	1803.22	65.9584	1803.22	74.9882	1803.22	71.0531	1803.22	74.8365	1803.22	73.4977	1803.22	72.2358	1803.22	72.6711	1803.22	65.0031	1803.22	73.6171	1803.22	67.1967	1803.22	74.1852
1866.21	85.3865	1866.21	86.1117	1866.21	83.4397	1866.21	86.2044	1866.21	80.79	1866.21	85.8082	1866.21	80.0283	1866.21	84.4342	1866.21	81.0269	1866.21	81.7128	1866.21	81.7815	1866.21	77.8668	1866.21	81.4936	1866.21	73.0875	1866.21	80.3879	1866.21	66.9802	1866.21	79.3243	1866.21	66.5472	1866.21	78.5105	1866.21	70.0987	1866.21	77.1756	1866.21	69.7738	1866.21	74.2645	1866.21	64.7408	1866.21	72.2947	1866.21	57.4301	1866.21	74.3234	1866.21	65.6913	1866.21	75.3668	1866.21	70.6236	1866.21	74.0319	1866.21	71.5004	1866.21	68.0964	1866.21	72.347	1866.21	67.3082	1866.21	72.7312
1932.13	85.4719	1932.13	86.4939	1932.13	83.332	1932.13	86.6416	1932.13	80.4187	1932.13	85.6848	1932.13	80.2355	1932.13	83.4128	1932.13	81.4952	1932.13	80.008	1932.13	81.9958	1932.13	76.8065	1932.13	81.5704	1932.13	74.6251	1932.13	80.4762	1932.13	71.1015	1932.13	79.493	1932.13	66.2887	1932.13	78.4824	1932.13	71.2558	1932.13	77.4112	1932.13	72.878	1932.13	75.9072	1932.13	70.1085	1932.13	73.5354	1932.13	65.8952	1932.13	73.5254	1932.13	64.7318	1932.13	74.6937	1932.13	68.1402	1932.13	74.2567	1932.13	70.7415	1932.13	69.954	1932.13	72.0786	1932.13	67.0404	1932.13	72.2774
1999.51	84.9677	1999.51	86.9285	1999.51	81.6733	1999.51	86.9249	1999.51	78.8759	1999.51	85.0106	1999.51	79.8515	1999.51	82.1436	1999.51	81.5848	1999.51	79.8097	1999.51	82.2525	1999.51	78.3989	1999.51	81.9135	1999.51	76.6665	1999.51	80.4257	1999.51	72.4114	1999.51	78.9193	1999.51	64.2331	1999.51	78.3918	1999.51	70.2581	1999.51	77.2439	1999.51	72.3574	1999.51	75.2474	1999.51	69.4547	1999.51	73.2348	1999.51	68.4632	1999.51	72.6653	1999.51	69.814	1999.51	73.4465	1999.51	68.6909	1999.51	73.6407	1999.51	69.2354	1999.51	71.196	1999.51	71.5201	1999.51	68.2263	1999.51	71.7272
2069.82	85.2377	2069.82	86.6564	2069.82	82.1145	2069.82	86.3002	2069.82	78.7026	2069.82	84.5075	2069.82	79.3372	2069.82	82.0005	2069.82	81.698	2069.82	79.1929	2069.82	82.64	2069.82	76.6468	2069.82	82.2337	2069.82	74.7234	2069.82	80.8337	2069.82	70.734	2069.82	79.0573	2069.82	56.7967	2069.82	77.7309	2069.82	65.9406	2069.82	76.5186	2069.82	69.4801	2069.82	75.6566	2069.82	64.0209	2069.82	74.5149	2069.82	64.2779	2069.82	72.9537	2069.82	70.2737	2069.82	72.3269	2069.82	70.8269	2069.82	72.4812	2069.82	67.6343	2069.82	71.0212	2069.82	69.6636	2069.82	69.8542	2069.82	71.9926
2143.07	85.6775	2143.07	86.3034	2143.07	82.7979	2143.07	85.4719	2143.07	78.3542	2143.07	83.9953	2143.07	79.0607	2143.07	82.0105	2143.07	81.8046	2143.07	78.937	2143.07	83.0044	2143.07	74.3853	2143.07	82.7391	2143.07	70.5894	2143.07	81.1007	2143.07	69.4264	2143.07	79.197	2143.07	67.8838	2143.07	78.3382	2143.07	63.7613	2143.07	76.8173	2143.07	50.0976	2143.07	75.1926	2143.07	53.6578	2143.07	74.6568	2143.07	51.5592	2143.07	73.6204	2143.07	64.5533	2143.07	71.7312	2143.07	70.2442	2143.07	70.3527	2143.07	70.0562	2143.07	69.7827	2143.07	68.5341	2143.07	70.6488	2143.07	71.8678
2219.24	85.3183	2219.24	86.3204	2219.24	81.6962	2219.24	85.6466	2219.24	75.9567	2219.24	84.1163	2219.24	78.3106	2219.24	81.6248	2219.24	81.7802	2219.24	77.4365	2219.24	82.7883	2219.24	70.3415	2219.24	82.5895	2219.24	60.5254	2219.24	81.1248	2219.24	58.7386	2219.24	78.4941	2219.24	49.9791	2219.24	77.484	2219.24	60.9001	2219.24	77.0619	2219.24	63.917	2219.24	76.6497	2219.24	62.6888	2219.24	75.1897	2219.24	54.0445	2219.24	73.5505	2219.24	61.2103	2219.24	71.6635	2219.24	68.9098	2219.24	67.2089	2219.24	69.631	2219.24	66.4424	2219.24	67.332	2219.24	71.2612	2219.24	71.6708
2296.88	84.7226	2296.88	85.9024	2296.88	80.5827	2296.88	85.2902	2296.88	73.9602	2296.88	83.3477	2296.88	78.3874	2296.88	79.5445	2296.88	82.2059	2296.88	73.9417	2296.88	82.9567	2296.88	69.8118	2296.88	82.5464	2296.88	67.7733	2296.88	80.8737	2296.88	55.4416	2296.88	78.5237	2296.88	62.6623	2296.88	77.3865	2296.88	61.1592	2296.88	75.3159	2296.88	64.7752	2296.88	75.5787	2296.88	67.5217	2296.88	75.4944	2296.88	64.87	2296.88	74.7019	2296.88	43.2712	2296.88	73.3021	2296.88	67.6962	2296.88	70.4201	2296.88	69.4487	2296.88	60.5121	2296.88	66.5546	2296.88	68.2581	2296.88	69.4175
2378.91	85.2784	2378.91	85.8601	2378.91	81.6366	2378.91	84.9318	2378.91	74.2046	2378.91	82.06	2378.91	78.7363	2378.91	77.3502	2378.91	82.5291	2378.91	74.3438	2378.91	83.6608	2378.91	72.1879	2378.91	83.1788	2378.91	68.8647	2378.91	81.4582	2378.91	62.1873	2378.91	77.9538	2378.91	67.7685	2378.91	77.6815	2378.91	69.1421	2378.91	76.377	2378.91	58.4521	2378.91	75.0263	2378.91	62.3783	2378.91	75.1101	2378.91	66.6303	2378.91	73.9644	2378.91	57.45	2378.91	72.5396	2378.91	63.1925	2378.91	69.9393	2378.91	68.4734	2378.91	62.7902	2378.91	66.7907	2378.91	67.7431	2378.91	69.1254
2462.4	85.3146	2462.4	85.8563	2462.4	81.5124	2462.4	83.9412	2462.4	72.4191	2462.4	81.1293	2462.4	78.7444	2462.4	79.0984	2462.4	82.1729	2462.4	75.5737	2462.4	83.3471	2462.4	69.4144	2462.4	83.2023	2462.4	64.7664	2462.4	81.4895	2462.4	63.442	2462.4	78.1154	2462.4	63.6235	2462.4	76.3523	2462.4	59.3581	2462.4	75.813	2462.4	63.4964	2462.4	75.6632	2462.4	65.5037	2462.4	75.3038	2462.4	64.7338	2462.4	73.631	2462.4	60.2099	2462.4	71.9559	2462.4	57.729	2462.4	70.4309	2462.4	66.2999	2462.4	58.8814	2462.4	68.1421	2462.4	67.3338	2462.4	68.539
2548.83	84.2693	2548.83	84.8546	2548.83	80.0192	2548.83	83.4533	2548.83	66.5613	2548.83	81.1716	2548.83	79.4764	2548.83	77.0696	2548.83	82.8401	2548.83	69.7135	2548.83	83.1532	2548.83	68.6109	2548.83	82.7583	2548.83	70.5002	2548.83	81.0726	2548.83	69.3634	2548.83	77.7195	2548.83	68.5795	2548.83	75.0575	2548.83	72.3044	2548.83	70.305	2548.83	69.3366	2548.83	71.905	2548.83	64.4173	2548.83	74.3463	2548.83	68.3146	2548.83	73.8183	2548.83	62.169	2548.83	71.3136	2548.83	54.6743	2548.83	70.9171	2548.83	62.0723	2548.83	61.8749	2548.83	65.6842	2548.83	67.6346	2548.83	69.7288
2639.65	84.291	2639.65	84.3568	2639.65	80.2433	2639.65	83.4994	2639.65	66.716	2639.65	81.2837	2639.65	80.012	2639.65	73.3828	2639.65	83.3465	2639.65	61.146	2639.65	83.0223	2639.65	67.823	2639.65	82.462	2639.65	66.8312	2639.65	80.7328	2639.65	69.7781	2639.65	78.0282	2639.65	72.2779	2639.65	77.0312	2639.65	68.8028	2639.65	75.0714	2639.65	72.0812	2639.65	70.0327	2639.65	68.6697	2639.65	71.8771	2639.65	65.1322	2639.65	72.8927	2639.65	64.5448	2639.65	71.4363	2639.65	37.8144	2639.65	71.0306	2639.65	61.1487	2639.65	59.4663	2639.65	66.148	2639.65	69.4251	2639.65	68.2222
2731.93	83.8668	2731.93	84.7438	2731.93	80.0148	2731.93	83.6618	2731.93	54.6087	2731.93	79.1413	2731.93	79.0751	2731.93	70.6323	2731.93	83.4112	2731.93	65.1649	2731.93	83.3238	2731.93	70.0531	2731.93	81.9126	2731.93	73.3813	2731.93	79.9232	2731.93	74.7821	2731.93	76.0912	2731.93	73.1732	2731.93	75.4028	2731.93	71.4178	2731.93	74.0101	2731.93	69.2411	2731.93	70.8604	2731.93	70.0686	2731.93	71.4883	2731.93	66.3642	2731.93	72.5434	2731.93	64.5594	2731.93	70.3978	2731.93	54.9058	2731.93	70.0612	2731.93	63.1294	2731.93	57.0512	2731.93	66.6948	2731.93	68.3358	2731.93	68.2991
2828.61	83.8417	2828.61	84.9169	2828.61	78.9029	2828.61	83.5318	2828.61	65.8593	2828.61	79.2909	2828.61	79.3052	2828.61	69.9986	2828.61	83.0191	2828.61	69.2612	2828.61	83.3427	2828.61	73.9707	2828.61	81.8801	2828.61	73.4028	2828.61	79.4291	2828.61	71.1301	2828.61	74.7033	2828.61	72.3298	2828.61	75.1437	2828.61	71.3707	2828.61	72.9971	2828.61	66.6826	2828.61	70.4017	2828.61	70.5627	2828.61	71.9759	2828.61	67.933	2828.61	73.6457	2828.61	65.9754	2828.61	70.4789	2828.61	59.1306	2828.61	68.4426	2828.61	57.4391	2828.61	58.8612	2828.61	67.8035	2828.61	69.5716	2828.61	67.7664
2928.22	82.9169	2928.22	84.2651	2928.22	79.0451	2928.22	83.5344	2928.22	68.3484	2928.22	78.7183	2928.22	79.8528	2928.22	70.8399	2928.22	82.9643	2928.22	73.6474	2928.22	83.0485	2928.22	76.0819	2928.22	81.4374	2928.22	75.9265	2928.22	78.9863	2928.22	74.4581	2928.22	74.2275	2928.22	73.6115	2928.22	75.1725	2928.22	72.9858	2928.22	74.9084	2928.22	72.007	2928.22	71.1989	2928.22	70.0308	2928.22	70.344	2928.22	70.7707	2928.22	72.7232	2928.22	65.2682	2928.22	69.9964	2928.22	61.6594	2928.22	68.4486	2928.22	57.6532	2928.22	64.7911	2928.22	65.1599	2928.22	67.6555	2928.22	68.4057
3030.76	82.8615	3030.76	85.1445	3030.76	78.2454	3030.76	83.2501	3030.76	71.31	3030.76	77.8649	3030.76	80.1294	3030.76	72.7188	3030.76	83.0734	3030.76	75.7801	3030.76	83.0873	3030.76	76.1671	3030.76	81.5336	3030.76	74.0161	3030.76	78.9812	3030.76	73.751	3030.76	73.3374	3030.76	73.9163	3030.76	74.2392	3030.76	72.4338	3030.76	73.8012	3030.76	70.798	3030.76	72.9517	3030.76	70.0152	3030.76	71.3272	3030.76	69.2531	3030.76	72.3594	3030.76	66.6647	3030.76	69.6168	3030.76	63.3662	3030.76	68.5285	3030.76	56.0654	3030.76	65.154	3030.76	66.4102	3030.76	69.0313	3030.76	67.5944
3137.7	82.3371	3137.7	84.8471	3137.7	76.6248	3137.7	83.174	3137.7	74.4999	3137.7	77.8514	3137.7	79.2126	3137.7	75.3629	3137.7	83.343	3137.7	76.1116	3137.7	83.4833	3137.7	76.1615	3137.7	81.7857	3137.7	76.448	3137.7	78.7541	3137.7	74.57	3137.7	73.3476	3137.7	72.5713	3137.7	73.8255	3137.7	70.1199	3137.7	73.366	3137.7	69.787	3137.7	72.1979	3137.7	69.5721	3137.7	71.341	3137.7	69.7035	3137.7	71.9904	3137.7	66.972	3137.7	69.2437	3137.7	62.722	3137.7	65.9493	3137.7	58.2478	3137.7	65.4047	3137.7	66.2228	3137.7	69.0222	3137.7	68.1578
3249.02	83.0859	3249.02	84.5941	3249.02	76.1421	3249.02	82.6831	3249.02	76.9865	3249.02	78.7293	3249.02	79.4423	3249.02	76.9112	3249.02	82.3043	3249.02	75.8893	3249.02	83.5024	3249.02	77.1032	3249.02	81.9576	3249.02	76.6128	3249.02	78.8434	3249.02	74.1869	3249.02	72.9031	3249.02	73.9585	3249.02	75.3193	3249.02	75.0912	3249.02	74.4394	3249.02	70.8165	3249.02	73.0021	3249.02	70.9102	3249.02	71.8249	3249.02	70.331	3249.02	71.6153	3249.02	68.636	3249.02	69.7969	3249.02	62.8973	3249.02	66.3188	3249.02	60.8651	3249.02	65.8647	3249.02	65.1805	3249.02	69.9975	3249.02	66.7541
3363.28	82.2451	3363.28	84.787	3363.28	76.6419	3363.28	83.002	3363.28	75.8969	3363.28	79.7517	3363.28	80.6049	3363.28	76.5488	3363.28	81.9174	3363.28	78.0451	3363.28	82.8051	3363.28	78.3301	3363.28	82.3372	3363.28	77.6314	3363.28	79.7656	3363.28	77.3947	3363.28	75.4261	3363.28	76.5077	3363.28	76.8744	3363.28	74.6414	3363.28	76.8278	3363.28	70.8848	3363.28	71.5579	3363.28	69.4817	3363.28	70.7546	3363.28	71.2213	3363.28	71.1546	3363.28	68.8464	3363.28	70.0294	3363.28	65.3214	3363.28	64.2953	3363.28	62.626	3363.28	66.6404	3363.28	64.2431	3363.28	69.8809	3363.28	68.3653
3481.93	82.8697	3481.93	84.2979	3481.93	76.5304	3481.93	82.9249	3481.93	77.6933	3481.93	80.0665	3481.93	80.1227	3481.93	78.1935	3481.93	82.2437	3481.93	79.496	3481.93	82.5958	3481.93	79.1006	3481.93	82.1924	3481.93	78.5098	3481.93	79.8001	3481.93	76.2827	3481.93	77.7484	3481.93	74.207	3481.93	78.4695	3481.93	72.0857	3481.93	76.5375	3481.93	71.4404	3481.93	69.5657	3481.93	70.1326	3481.93	67.958	3481.93	70.9159	3481.93	70.3379	3481.93	69.5812	3481.93	69.9828	3481.93	64.8248	3481.93	61.3442	3481.93	61.3482	3481.93	66.9673	3481.93	64.133	3481.93	70.4113	3481.93	68.2649
3604.98	82.9404	3604.98	84.3675	3604.98	75.8476	3604.98	83.4227	3604.98	79.3127	3604.98	79.6862	3604.98	80.9894	3604.98	79.3876	3604.98	81.8581	3604.98	80.0242	3604.98	82.4069	3604.98	80.0456	3604.98	82.4086	3604.98	78.7426	3604.98	79.6523	3604.98	76.0656	3604.98	77.3463	3604.98	74.4033	3604.98	78.6362	3604.98	73.4811	3604.98	74.6695	3604.98	71.4913	3604.98	67.4043	3604.98	69.4778	3604.98	67.6371	3604.98	70.4815	3604.98	69.9813	3604.98	70.2422	3604.98	69.0221	3604.98	66.5006	3604.98	53.3884	3604.98	63.7533	3604.98	69.1592	3604.98	63.8037	3604.98	70.0776	3604.98	68.1477
3732.42	83.0484	3732.42	84.3988	3732.42	78.253	3732.42	83.7093	3732.42	79.5431	3732.42	80.1227	3732.42	82.1399	3732.42	80.3345	3732.42	81.9724	3732.42	82.1743	3732.42	81.7368	3732.42	80.4986	3732.42	82.5164	3732.42	78.5277	3732.42	79.7789	3732.42	77.6522	3732.42	77.248	3732.42	75.6245	3732.42	77.5417	3732.42	73.0029	3732.42	71.3511	3732.42	71.5415	3732.42	61.3666	3732.42	68.1499	3732.42	70.5781	3732.42	70.3847	3732.42	70.5557	3732.42	69.4452	3732.42	69.8403	3732.42	67.0656	3732.42	48.8666	3732.42	61.6092	3732.42	68.1322	3732.42	64.2455	3732.42	68.6571	3732.42	69.5519
3864.26	82.4449	3864.26	85.1936	3864.26	78.2452	3864.26	83.6317	3864.26	80.6531	3864.26	79.5691	3864.26	83.0964	3864.26	82.0086	3864.26	82.2306	3864.26	81.5346	3864.26	81.5202	3864.26	80.1435	3864.26	82.4165	3864.26	78.9001	3864.26	80.5079	3864.26	75.497	3864.26	75.8444	3864.26	73.1008	3864.26	74.4966	3864.26	73.3606	3864.26	63.6044	3864.26	71.6115	3864.26	59.3712	3864.26	68.9115	3864.26	70.8778	3864.26	69.565	3864.26	69.3944	3864.26	68.5376	3864.26	68.518	3864.26	67.3391	3864.26	57.7532	3864.26	62.8341	3864.26	68.7278	3864.26	61.845	3864.26	71.0416	3864.26	69.7721
4000.49	82.7142	4000.49	85.5457	4000.49	79.9016	4000.49	83.0854	4000.49	80.3067	4000.49	81.3605	4000.49	84.4207	4000.49	81.9882	4000.49	81.4955	4000.49	82.6879	4000.49	82.0388	4000.49	81.3889	4000.49	82.334	4000.49	78.608	4000.49	80.9244	4000.49	77.485	4000.49	76.9925	4000.49	75.3206	4000.49	76.726	4000.49	73.3263	4000.49	75.3637	4000.49	71.872	4000.49	70.3551	4000.49	66.9267	4000.49	70.1377	4000.49	69.2922	4000.49	67.9672	4000.49	69.1965	4000.49	66.5855	4000.49	65.75	4000.49	56.5266	4000.49	63.5699	4000.49	68.6536	4000.49	60.4946	4000.49	69.7972	4000.49	68.8433
4141.11	83.1132	4141.11	85.6085	4141.11	80.0821	4141.11	82.5963	4141.11	81.0452	4141.11	81.779	4141.11	84.9325	4141.11	82.5794	4141.11	81.8034	4141.11	82.0658	4141.11	81.7034	4141.11	80.6512	4141.11	81.6535	4141.11	78.1616	4141.11	79.962	4141.11	75.9727	4141.11	75.0085	4141.11	72.7034	4141.11	74.4603	4141.11	70.59	4141.11	73.8169	4141.11	70.17	4141.11	74.4625	4141.11	67.1781	4141.11	68.4903	4141.11	66.761	4141.11	67.1842	4141.11	67.6014	4141.11	66.5638	4141.11	65.2161	4141.11	57.2228	4141.11	60.0145	4141.11	66.2958	4141.11	62.4284	4141.11	68.7303	4141.11	68.4431
4287.6	84.0148	4287.6	85.2968	4287.6	79.97	4287.6	82.5222	4287.6	82.393	4287.6	82.3415	4287.6	84.9392	4287.6	82.7752	4287.6	81.9692	4287.6	82.6302	4287.6	80.7963	4287.6	79.8346	4287.6	82.2654	4287.6	76.6436	4287.6	80.1583	4287.6	72.6517	4287.6	73.7681	4287.6	73.5975	4287.6	73.6873	4287.6	72.0774	4287.6	70.6404	4287.6	69.6451	4287.6	72.5268	4287.6	68.0017	4287.6	67.575	4287.6	65.0721	4287.6	68.7119	4287.6	66.5354	4287.6	69.3646	4287.6	61.9475	4287.6	56.4742	4287.6	59.6772	4287.6	68.3594	4287.6	62.3865	4287.6	68.3666	4287.6	67.386
4438.48	84.998	4438.48	85.1406	4438.48	80.3856	4438.48	83.2125	4438.48	82.7901	4438.48	82.2481	4438.48	85.3437	4438.48	83.2253	4438.48	82.385	4438.48	81.536	4438.48	79.6773	4438.48	79.1124	4438.48	81.9344	4438.48	76.0794	4438.48	80.6463	4438.48	75.7806	4438.48	76.072	4438.48	72.4736	4438.48	76.8534	4438.48	68.9766	4438.48	66.7362	4438.48	70.7442	4438.48	71.4639	4438.48	67.7577	4438.48	71.2824	4438.48	65.0145	4438.48	69.2933	4438.48	65.993	4438.48	69.8613	4438.48	64.1877	4438.48	65.6874	4438.48	58.0779	4438.48	67.7806	4438.48	61.4998	4438.48	66.8342	4438.48	66.733
4595.21	85.3652	4595.21	84.7434	4595.21	80.9267	4595.21	83.379	4595.21	84.4678	4595.21	82.6594	4595.21	84.6456	4595.21	83.6702	4595.21	83.0242	4595.21	81.0704	4595.21	79.2748	4595.21	77.9083	4595.21	80.9944	4595.21	75.9507	4595.21	80.9079	4595.21	73.7136	4595.21	78.7698	4595.21	74.4156	4595.21	78.5185	4595.21	72.9126	4595.21	67.4277	4595.21	69.3929	4595.21	69.7886	4595.21	66.8841	4595.21	72.1572	4595.21	65.9812	4595.21	71.2554	4595.21	66.3479	4595.21	68.4568	4595.21	62.5859	4595.21	62.9849	4595.21	56.8244	4595.21	66.9512	4595.21	60.332	4595.21	66.4995	4595.21	67.1577
4756.35	85.6754	4756.35	85.1601	4756.35	81.8803	4756.35	83.4013	4756.35	84.4362	4756.35	83.2685	4756.35	85.3071	4756.35	83.3681	4756.35	81.9059	4756.35	80.5762	4756.35	80.7721	4756.35	78.5447	4756.35	81.6052	4756.35	77.8199	4756.35	82.3689	4756.35	76.4524	4756.35	79.5216	4756.35	72.2379	4756.35	77.7138	4756.35	70.9159	4756.35	69.5357	4756.35	71.5627	4756.35	65.7304	4756.35	68.2466	4756.35	68.332	4756.35	66.5947	4756.35	69.1927	4756.35	65.5509	4756.35	66.1348	4756.35	64.6356	4756.35	60.6986	4756.35	57.3477	4756.35	65.6236	4756.35	60.911	4756.35	68.25	4756.35	66.8934
4924.8	85.7023	4924.8	85.4634	4924.8	82.7837	4924.8	83.1332	4924.8	85.1318	4924.8	83.9412	4924.8	84.966	4924.8	82.5969	4924.8	82.4785	4924.8	80.5938	4924.8	79.4389	4924.8	79.2705	4924.8	81.3865	4924.8	76.3462	4924.8	82.1002	4924.8	72.918	4924.8	78.4478	4924.8	72.0673	4924.8	76.5033	4924.8	68.5637	4924.8	63.7922	4924.8	66.8034	4924.8	62.2662	4924.8	66.5108	4924.8	55.2059	4924.8	64.1249	4924.8	68.4504	4924.8	64.7648	4924.8	64.4386	4924.8	63.1835	4924.8	65.0191	4924.8	47.003	4924.8	60.0874	4924.8	60.8381	4924.8	66.3205	4924.8	64.1029
5097.66	85.9146	5097.66	85.5579	5097.66	84.2361	5097.66	83.5186	5097.66	85.2211	5097.66	84.1963	5097.66	84.877	5097.66	82.2494	5097.66	82.9107	5097.66	80.8945	5097.66	75.5899	5097.66	77.8482	5097.66	81.9595	5097.66	74.9904	5097.66	80.5821	5097.66	72.3536	5097.66	78.3898	5097.66	69.9352	5097.66	75.4633	5097.66	70.0892	5097.66	65.6483	5097.66	68.553	5097.66	60.1749	5097.66	68.0358	5097.66	64.2441	5097.66	62.691	5097.66	68.4704	5097.66	64.2208	5097.66	65.567	5097.66	63.591	5097.66	65.0694	5097.66	56.575	5097.66	65.4462	5097.66	57.6967	5097.66	68.2816	5097.66	65.4128
5277.83	85.7755	5277.83	85.741	5277.83	85.0358	5277.83	84.7105	5277.83	85.1997	5277.83	84.0549	5277.83	85.2344	5277.83	82.5543	5277.83	82.6804	5277.83	80.6066	5277.83	75.53	5277.83	76.547	5277.83	81.216	5277.83	74.2541	5277.83	79.4039	5277.83	74.3505	5277.83	78.564	5277.83	72.2466	5277.83	72.065	5277.83	70.4555	5277.83	67.9699	5277.83	70.4379	5277.83	60.7086	5277.83	67.5921	5277.83	61.7972	5277.83	65.5361	5277.83	66.5666	5277.83	65.9603	5277.83	66.1582	5277.83	65.2367	5277.83	66.7322	5277.83	61.2182	5277.83	62.6362	5277.83	58.8924	5277.83	63.5776	5277.83	62.7702
5463.87	86.2171	5463.87	85.8069	5463.87	85.3683	5463.87	85.1913	5463.87	85.2518	5463.87	83.7952	5463.87	85.542	5463.87	83.2779	5463.87	81.5576	5463.87	79.8603	5463.87	76.7021	5463.87	77.5385	5463.87	79.5615	5463.87	77.2234	5463.87	78.6099	5463.87	74.8684	5463.87	76.0254	5463.87	72.0249	5463.87	74.491	5463.87	71.9906	5463.87	61.5573	5463.87	68.6544	5463.87	58.595	5463.87	67.8225	5463.87	66.7864	5463.87	66.5842	5463.87	69.4989	5463.87	67.8365	5463.87	65.8853	5463.87	66.0531	5463.87	64.2874	5463.87	62.4812	5463.87	60.4413	5463.87	54.5506	5463.87	68.1278	5463.87	62.4322
5657.23	86.1897	5657.23	86.0029	5657.23	85.3248	5657.23	85.0785	5657.23	85.8983	5657.23	84.0063	5657.23	85.1598	5657.23	83.3589	5657.23	81.7973	5657.23	79.302	5657.23	76.9885	5657.23	79.2241	5657.23	77.9931	5657.23	76.8081	5657.23	78.9416	5657.23	75.2683	5657.23	74.4911	5657.23	72.7589	5657.23	74.1994	5657.23	70.7862	5657.23	67.491	5657.23	69.2321	5657.23	49.5234	5657.23	68.7434	5657.23	64.1869	5657.23	65.9904	5657.23	67.3841	5657.23	67.0994	5657.23	59.4465	5657.23	66.8867	5657.23	65.7998	5657.23	62.3589	5657.23	60.3931	5657.23	51.8119	5657.23	65.5131	5657.23	62.2425
5856.45	86.4059	5856.45	86.3775	5856.45	85.7062	5856.45	84.7566	5856.45	85.7986	5856.45	84.5773	5856.45	85.2939	5856.45	82.3833	5856.45	81.3748	5856.45	80.1855	5856.45	78.9647	5856.45	79.234	5856.45	75.576	5856.45	76.6173	5856.45	79.0546	5856.45	72.8078	5856.45	75.4829	5856.45	70.925	5856.45	73.9118	5856.45	69.5881	5856.45	67.2787	5856.45	67.1746	5856.45	54.4823	5856.45	67.5737	5856.45	61.7345	5856.45	63.9287	5856.45	62.8205	5856.45	66.3847	5856.45	57.9566	5856.45	66.2794	5856.45	66.6507	5856.45	62.3589	5856.45	60.6028	5856.45	50.1187	5856.45	65.4929	5856.45	61.2357
6062.99	86.3688	6062.99	86.9658	6062.99	85.7188	6062.99	84.3392	6062.99	86.3751	6062.99	85.1914	6062.99	84.4165	6062.99	81.505	6062.99	82.9695	6062.99	81.0907	6062.99	78.3183	6062.99	78.0732	6062.99	75.2612	6062.99	75.3502	6062.99	77.9708	6062.99	73.4119	6062.99	76.4387	6062.99	71.6567	6062.99	76.3358	6062.99	69.7595	6062.99	71.4305	6062.99	68.1427	6062.99	54.2815	6062.99	67.2562	6062.99	65.3985	6062.99	62.9816	6062.99	66.6921	6062.99	65.4385	6062.99	59.5417	6062.99	66.4717	6062.99	65.6938	6062.99	64.2211	6062.99	60.8123	6062.99	49.6919	6062.99	64.6483	6062.99	59.0791
6276.86	86.6123	6276.86	86.9531	6276.86	86.0859	6276.86	84.7195	6276.86	86.6034	6276.86	85.0997	6276.86	84.1715	6276.86	81.7762	6276.86	83.1578	6276.86	80.8285	6276.86	77.8452	6276.86	78.3619	6276.86	77.9336	6276.86	75.9486	6276.86	77.5987	6276.86	74.685	6276.86	75.1597	6276.86	71.024	6276.86	74.1776	6276.86	70.282	6276.86	69.5376	6276.86	69.0408	6276.86	61.1109	6276.86	67.29	6276.86	62.4394	6276.86	64.6874	6276.86	68.6399	6276.86	65.5961	6276.86	60.6215	6276.86	66.5494	6276.86	65.8134	6276.86	66.2474	6276.86	60.4252	6276.86	54.1413	6276.86	65.3556	6276.86	56.4059
6498.05	86.8112	6498.05	86.6893	6498.05	86.2466	6498.05	85.4463	6498.05	86.6217	6498.05	84.0212	6498.05	83.919	6498.05	82.6009	6498.05	83.9654	6498.05	80.8957	6498.05	78.6552	6498.05	79.2564	6498.05	77.3999	6498.05	78.065	6498.05	79.2415	6498.05	74.3374	6498.05	76.2377	6498.05	72.0973	6498.05	70.3289	6498.05	69.3504	6498.05	62.3559	6498.05	67.5791	6498.05	63.592	6498.05	66.5233	6498.05	65.2667	6498.05	64.071	6498.05	67.2069	6498.05	64.3995	6498.05	59.3585	6498.05	66.1534	6498.05	64.9754	6498.05	66.0572	6498.05	48.9091	6498.05	50.9877	6498.05	63.5219	6498.05	59.979
6726.56	87.063	6726.56	86.0673	6726.56	85.7553	6726.56	85.7515	6726.56	86.5999	6726.56	83.3183	6726.56	84.1804	6726.56	82.5405	6726.56	83.2694	6726.56	81.0513	6726.56	80.1012	6726.56	79.799	6726.56	76.7192	6726.56	76.2717	6726.56	79.3314	6726.56	73.5964	6726.56	78.1518	6726.56	69.4381	6726.56	72.637	6726.56	68.065	6726.56	63.3526	6726.56	66.7373	6726.56	61.5497	6726.56	64.1703	6726.56	65.709	6726.56	63.2604	6726.56	65.6967	6726.56	63.483	6726.56	55.4272	6726.56	65.3529	6726.56	65.8505	6726.56	65.821	6726.56	58.1982	6726.56	57.9205	6726.56	64.6003	6726.56	56.4216
6963.87	86.8686	6963.87	85.8682	6963.87	85.4529	6963.87	85.4762	6963.87	86.4296	6963.87	83.2208	6963.87	84.2256	6963.87	82.3424	6963.87	83.5887	6963.87	81.8985	6963.87	80.1936	6963.87	78.1452	6963.87	75.2433	6963.87	74.4448	6963.87	79.3195	6963.87	72.0567	6963.87	77.6879	6963.87	70.2523	6963.87	73.5691	6963.87	68.3446	6963.87	67.6281	6963.87	67.7575	6963.87	59.9204	6963.87	64.4423	6963.87	65.1658	6963.87	63.8742	6963.87	62.7281	6963.87	62.7443	6963.87	45.2186	6963.87	64.9788	6963.87	64.6272	6963.87	65.2643	6963.87	56.6048	6963.87	60.5049	6963.87	61.3275	6963.87	57.5963
7209.96	87.0499	7209.96	86.0882	7209.96	85.3601	7209.96	84.2993	7209.96	86.2698	7209.96	83.5556	7209.96	84.1526	7209.96	82.6485	7209.96	83.4872	7209.96	81.3291	7209.96	81.2783	7209.96	77.3862	7209.96	74.4557	7209.96	76.2225	7209.96	79.4637	7209.96	72.6213	7209.96	78.2558	7209.96	70.1645	7209.96	75.4477	7209.96	67.0413	7209.96	72.6818	7209.96	67.7118	7209.96	58.9031	7209.96	65.1196	7209.96	58.7068	7209.96	64.856	7209.96	60.3471	7209.96	62.4047	7209.96	59.6571	7209.96	64.5718	7209.96	65.4718	7209.96	65.8449	7209.96	54.1063	7209.96	60.2542	7209.96	63.6633	7209.96	56.7711
7464.84	86.8586	7464.84	86.0894	7464.84	85.375	7464.84	83.1081	7464.84	85.8854	7464.84	83.7792	7464.84	84.1549	7464.84	83.1825	7464.84	83.5033	7464.84	79.8879	7464.84	81.6338	7464.84	78.7863	7464.84	73.0474	7464.84	75.1593	7464.84	78.718	7464.84	71.6697	7464.84	77.463	7464.84	68.2053	7464.84	76.1241	7464.84	67.3808	7464.84	74.5687	7464.84	65.4617	7464.84	48.011	7464.84	62.0764	7464.84	63.1452	7464.84	65.016	7464.84	60.7029	7464.84	63.4163	7464.84	63.0313	7464.84	64.2904	7464.84	66.0698	7464.84	65.9152	7464.84	57.2958	7464.84	60.8469	7464.84	60.7274	7464.84	58.2653
7727.05	86.3979	7727.05	85.338	7727.05	85.4427	7727.05	83.3463	7727.05	85.7325	7727.05	83.6912	7727.05	83.6836	7727.05	82.8851	7727.05	83.9975	7727.05	80.5237	7727.05	81.4936	7727.05	77.2379	7727.05	74.7895	7727.05	73.939	7727.05	76.5101	7727.05	70.9948	7727.05	76.2944	7727.05	68.3821	7727.05	74.4463	7727.05	66.5887	7727.05	73.3562	7727.05	64.1308	7727.05	58.2568	7727.05	61.0338	7727.05	63.8008	7727.05	63.1069	7727.05	58.2845	7727.05	63.4914	7727.05	63.244	7727.05	63.4246	7727.05	62.916	7727.05	65.945	7727.05	51.7536	7727.05	61.5885	7727.05	60.029	7727.05	58.5938
7999.51	86.2997	7999.51	84.4316	7999.51	85.9122	7999.51	83.8796	7999.51	85.5309	7999.51	83.6508	7999.51	83.6318	7999.51	82.3115	7999.51	83.8728	7999.51	80.6423	7999.51	81.8961	7999.51	75.9	7999.51	74.9324	7999.51	74.1657	7999.51	74.4702	7999.51	70.0885	7999.51	73.6191	7999.51	67.1444	7999.51	73.3938	7999.51	65.2377	7999.51	70.0873	7999.51	63.6919	7999.51	60.6513	7999.51	61.1284	7999.51	66.4034	7999.51	61.4908	7999.51	64.8186	7999.51	61.9027	7999.51	53.1681	7999.51	64.7065	7999.51	61.0362	7999.51	65.668	7999.51	56.3957	7999.51	62.527	7999.51	63.2266	7999.51	54.4965
8282.23	86.476	8282.23	84.8859	8282.23	86.4816	8282.23	84.0387	8282.23	85.1349	8282.23	83.7197	8282.23	83.8588	8282.23	82.9117	8282.23	83.5939	8282.23	79.1665	8282.23	81.4362	8282.23	76.9847	8282.23	75.4414	8282.23	72.8747	8282.23	74.4025	8282.23	69.3216	8282.23	70.2065	8282.23	66.5093	8282.23	65.9477	8282.23	66.2895	8282.23	69.4358	8282.23	63.563	8282.23	61.2125	8282.23	62.6182	8282.23	63.5243	8282.23	61.9244	8282.23	60.6343	8282.23	61.932	8282.23	58.4426	8282.23	65.5105	8282.23	61.6196	8282.23	65.3215	8282.23	55.5656	8282.23	62.5298	8282.23	60.4163	8282.23	54.7784
8573.73	86.5833	8573.73	85.1911	8573.73	86.2992	8573.73	84.2252	8573.73	84.5173	8573.73	83.7893	8573.73	84.2419	8573.73	82.5961	8573.73	82.9387	8573.73	79.5339	8573.73	81.6133	8573.73	76.0431	8573.73	74.9713	8573.73	74.1053	8573.73	74.9051	8573.73	71.7926	8573.73	71.0382	8573.73	68.0054	8573.73	69.9201	8573.73	67.1966	8573.73	68.3789	8573.73	64.5343	8573.73	57.6842	8573.73	62.488	8573.73	65.735	8573.73	63.0163	8573.73	59.4245	8573.73	62.6253	8573.73	57.4931	8573.73	65.4094	8573.73	62.3197	8573.73	66.3886	8573.73	53.5725	8573.73	62.9176	8573.73	60.4097	8573.73	48.0877
8876.95	87.049	8876.95	85.2114	8876.95	85.9539	8876.95	84.5274	8876.95	84.286	8876.95	83.9789	8876.95	84.3759	8876.95	81.4296	8876.95	82.8066	8876.95	79.5663	8876.95	81.7313	8876.95	75.9886	8876.95	75.537	8876.95	75.0917	8876.95	75.2339	8876.95	71.0373	8876.95	72.9167	8876.95	67.8499	8876.95	69.8034	8876.95	65.7227	8876.95	65.0918	8876.95	64.2106	8876.95	52.6133	8876.95	61.853	8876.95	64.326	8876.95	61.8151	8876.95	57.0681	8876.95	61.2599	8876.95	45.1385	8876.95	63.8843	8876.95	56.5852	8876.95	65.4952	8876.95	58.152	8876.95	62.6219	8876.95	58.582	8876.95	51.5016
9188.96	87.6178	9188.96	85.9169	9188.96	85.9688	9188.96	84.9794	9188.96	84.5367	9188.96	83.4438	9188.96	84.8141	9188.96	81.4478	9188.96	82.5137	9188.96	77.5785	9188.96	81.1748	9188.96	77.2297	9188.96	75.4371	9188.96	73.8349	9188.96	72.609	9188.96	69.4582	9188.96	72.2162	9188.96	67.0439	9188.96	68.9206	9188.96	65.2285	9188.96	63.5944	9188.96	64.2275	9188.96	60.1436	9188.96	62.0553	9188.96	62.0234	9188.96	61.0379	9188.96	59.1641	9188.96	59.5824	9188.96	56.1823	9188.96	63.8343	9188.96	45.4516	9188.96	65.1794	9188.96	51.5456	9188.96	62.3689	9188.96	59.2213	9188.96	53.0729
9514.16	87.4995	9514.16	86.7199	9514.16	86.2316	9514.16	85.5384	9514.16	85.3005	9514.16	82.665	9514.16	85.1486	9514.16	80.9289	9514.16	82.0744	9514.16	77.9919	9514.16	80.7674	9514.16	75.8819	9514.16	74.2618	9514.16	73.8909	9514.16	68.3612	9514.16	69.7238	9514.16	70.285	9514.16	66.9529	9514.16	65.3794	9514.16	63.136	9514.16	62.9645	9514.16	64.0064	9514.16	56.2227	9514.16	61.2765	9514.16	57.4695	9514.16	59.5419	9514.16	56.8389	9514.16	58.8504	9514.16	54.1223	9514.16	62.6772	9514.16	54.3281	9514.16	63.982	9514.16	52.0746	9514.16	61.6751	9514.16	60.0813	9514.16	48.5108
9849.61	87.5171	9849.61	87.2432	9849.61	86.7991	9849.61	86.0059	9849.61	86.242	9849.61	83.4629	9849.61	84.8603	9849.61	79.5104	9849.61	81.4464	9849.61	78.1025	9849.61	80.0392	9849.61	74.8893	9849.61	73.83	9849.61	72.3058	9849.61	66.2904	9849.61	66.4402	9849.61	71.0555	9849.61	62.8447	9849.61	58.929	9849.61	60.3041	9849.61	59.6115	9849.61	60.9356	9849.61	52.8843	9849.61	57.8708	9849.61	60.5306	9849.61	57.0797	9849.61	59.3028	9849.61	56.6556	9849.61	56.4067	9849.61	57.9735	9849.61	39.6205	9849.61	62.7831	9849.61	55.1611	9849.61	60.2038	9849.61	57.9148	9849.61	47.2329
10196.8	87.8674	10196.8	87.5413	10196.8	87.5046	10196.8	86.3927	10196.8	86.7089	10196.8	83.4437	10196.8	84.4691	10196.8	80.404	10196.8	80.7683	10196.8	77.4244	10196.8	79.4378	10196.8	75.339	10196.8	73.4006	10196.8	70.8504	10196.8	68.0117	10196.8	64.8161	10196.8	68.3315	10196.8	61.5752	10196.8	61.9237	10196.8	62.2807	10196.8	49.8093	10196.8	55.6558	10196.8	59.5416	10196.8	57.7796	10196.8	57.2426	10196.8	57.1155	10196.8	58.6671	10196.8	56.2774	10196.8	54.22	10196.8	57.9987	10196.8	49.4086	10196.8	61.3519	10196.8	53.7277	10196.8	58.1578	10196.8	58.1337	10196.8	47.3198
10555.7	88.4594	10555.7	87.9116	10555.7	88.2583	10555.7	86.9261	10555.7	86.8704	10555.7	83.4185	10555.7	84.5858	10555.7	80.882	10555.7	80.5802	10555.7	78.0344	10555.7	78.4654	10555.7	73.2932	10555.7	72.4541	10555.7	69.5507	10555.7	66.3529	10555.7	64.0506	10555.7	66.6074	10555.7	60.633	10555.7	63.6722	10555.7	60.7419	10555.7	55.0174	10555.7	54.4654	10555.7	59.5108	10555.7	56.4008	10555.7	46.038	10555.7	56.4016	10555.7	53.7011	10555.7	56.7921	10555.7	53.8766	10555.7	56.4742	10555.7	50.1654	10555.7	59.4095	10555.7	54.4286	10555.7	58.206	10555.7	56.4706	10555.7	51.81
10927.7	88.6343	10927.7	88.0657	10927.7	88.3416	10927.7	87.0865	10927.7	87.1232	10927.7	83.6969	10927.7	84.5797	10927.7	80.5818	10927.7	80.4372	10927.7	77.6391	10927.7	77.8977	10927.7	72.6186	10927.7	73.2352	10927.7	67.4825	10927.7	66.8212	10927.7	64.5203	10927.7	62.1733	10927.7	60.5468	10927.7	63.0864	10927.7	58.7554	10927.7	58.3045	10927.7	57.3235	10927.7	53.1419	10927.7	53.9218	10927.7	51.7126	10927.7	54.4688	10927.7	55.1675	10927.7	55.7341	10927.7	48.046	10927.7	54.3341	10927.7	51.877	10927.7	57.3496	10927.7	49.3349	10927.7	59.0701	10927.7	56.4451	10927.7	48.8845
11313	88.6933	11313	88.3162	11313	88.3545	11313	86.8559	11313	87.1383	11313	83.8633	11313	84.1436	11313	80.7813	11313	80.6937	11313	76.1657	11313	76.8442	11313	71.952	11313	72.6585	11313	67.8782	11313	68.0837	11313	65.4038	11313	57.0472	11313	60.7526	11313	63.0298	11313	59.6998	11313	61.486	11313	58.1848	11313	56.2115	11313	53.8064	11313	57.6965	11313	54.2276	11313	52.1591	11313	53.1056	11313	44.3976	11313	49.35	11313	54.7086	11313	54.3083	11313	53.4323	11313	58.026	11313	54.0511	11313	53.3738
11712.9	88.8147	11712.9	88.5158	11712.9	88.2781	11712.9	86.8567	11712.9	87.0596	11712.9	83.6941	11712.9	83.8587	11712.9	80.9226	11712.9	80.6293	11712.9	76.2682	11712.9	76.4988	11712.9	72.5202	11712.9	73.3447	11712.9	69.2258	11712.9	69.0985	11712.9	67.3892	11712.9	63.9065	11712.9	63.2146	11712.9	63.695	11712.9	60.0799	11712.9	58.7495	11712.9	59.4699	11712.9	58.0842	11712.9	56.1709	11712.9	52.6035	11712.9	57.2527	11712.9	50.6622	11712.9	56.4098	11712.9	53.0784	11712.9	55.3218	11712.9	49.9504	11712.9	58.8686	11712.9	54.0953	11712.9	60.7291	11712.9	52.8153	11712.9	55.046
12126	88.8118	12126	88.6773	12126	88.4636	12126	86.6505	12126	86.8446	12126	83.7228	12126	83.4947	12126	80.5815	12126	80.6205	12126	76.4757	12126	75.4475	12126	73.9211	12126	71.9563	12126	71.4699	12126	68.8216	12126	67.6505	12126	64.0868	12126	64.472	12126	62.3063	12126	59.1896	12126	54.5517	12126	59.6832	12126	52.9995	12126	56.5205	12126	50.4692	12126	58.8676	12126	50.5096	12126	58.6622	12126	48.2019	12126	56.7001	12126	47.9551	12126	58.6329	12126	50.2517	12126	60.1504	12126	47.2868	12126	54.1112
12553.7	88.7469	12553.7	88.6308	12553.7	88.5502	12553.7	86.4012	12553.7	86.7125	12553.7	83.2598	12553.7	83.5138	12553.7	80.0387	12553.7	79.3933	12553.7	76.617	12553.7	75.0143	12553.7	74.6467	12553.7	72.0722	12553.7	71.0145	12553.7	67.6125	12553.7	66.7919	12553.7	65.7708	12553.7	63.6298	12553.7	62.7275	12553.7	58.7084	12553.7	50.157	12553.7	57.7198	12553.7	54.4973	12553.7	56.8318	12553.7	43.5526	12553.7	56.4928	12553.7	47.1473	12553.7	57.6642	12553.7	48.614	12553.7	53.6992	12553.7	52.0699	12553.7	56.8344	12553.7	50.2157	12553.7	59.097	12553.7	51.3372	12553.7	53.0391
12996.1	89.0402	12996.1	88.5358	12996.1	88.4621	12996.1	86.3824	12996.1	86.4678	12996.1	83.239	12996.1	83.2395	12996.1	79.4939	12996.1	78.2546	12996.1	76.198	12996.1	75.0664	12996.1	73.9667	12996.1	73.6343	12996.1	69.7849	12996.1	66.4657	12996.1	65.451	12996.1	64.7461	12996.1	62.2049	12996.1	62.3494	12996.1	58.3029	12996.1	49.0101	12996.1	58.5692	12996.1	55.6785	12996.1	54.8131	12996.1	40.1731	12996.1	56.5842	12996.1	50.7245	12996.1	57.1478	12996.1	51.1301	12996.1	52.453	12996.1	48.1646	12996.1	54.2039	12996.1	48.1961	12996.1	58.0726	12996.1	51.1863	12996.1	51.5404
13454.6	88.6339	13454.6	88.3137	13454.6	88.2332	13454.6	86.2916	13454.6	85.9808	13454.6	83.2261	13454.6	82.9977	13454.6	78.7856	13454.6	77.3768	13454.6	77.0418	13454.6	74.1218	13454.6	74.6497	13454.6	72.9374	13454.6	70.0197	13454.6	64.3742	13454.6	66.2965	13454.6	64.1135	13454.6	63.2933	13454.6	58.6098	13454.6	57.5671	13454.6	47.6369	13454.6	58.579	13454.6	56.9597	13454.6	55.7604	13454.6	48.1212	13454.6	56.4489	13454.6	45.7436	13454.6	56.2997	13454.6	49.5453	13454.6	54.9829	13454.6	47.8182	13454.6	54.3692	13454.6	47.9571	13454.6	57.8376	13454.6	50.7806	13454.6	50.468
13929.2	88.9025	13929.2	88.0346	13929.2	88.3864	13929.2	86.038	13929.2	85.85	13929.2	82.851	13929.2	82.1916	13929.2	78.3384	13929.2	76.8746	13929.2	76.3876	13929.2	73.3201	13929.2	72.5937	13929.2	71.6205	13929.2	66.3446	13929.2	53.1259	13929.2	60.5984	13929.2	64.8935	13929.2	59.5639	13929.2	57.4101	13929.2	53.959	13929.2	54.2973	13929.2	54.3802	13929.2	56.6587	13929.2	50.4251	13929.2	46.0613	13929.2	52.7418	13929.2	49.7801	13929.2	53.459	13929.2	51.5275	13929.2	54.2982	13929.2	48.8305	13929.2	48.8919	13929.2	53.345	13929.2	54.5993	13929.2	50.3669	13929.2	51.4395
14419.9	89.0338	14419.9	88.1732	14419.9	87.9454	14419.9	86.4417	14419.9	85.3997	14419.9	82.9217	14419.9	81.6263	14419.9	79.0227	14419.9	77.4644	14419.9	75.2875	14419.9	73.1504	14419.9	70.6527	14419.9	70.9733	14419.9	66.0135	14419.9	58.9808	14419.9	64.932	14419.9	65.1304	14419.9	60.9984	14419.9	56.4448	14419.9	56.9695	14419.9	48.2473	14419.9	57.9115	14419.9	54.2372	14419.9	54.5006	14419.9	47.0675	14419.9	52.1183	14419.9	45.0751	14419.9	55.1956	14419.9	45.2987	14419.9	57.6244	14419.9	42.1256	14419.9	53.0592	14419.9	47.9576	14419.9	54.3682	14419.9	48.2707	14419.9	54.9357
14928.2	89.34	14928.2	88.3934	14928.2	87.7826	14928.2	86.3952	14928.2	85.2119	14928.2	82.5081	14928.2	80.8078	14928.2	79.4435	14928.2	77.1503	14928.2	75.3634	14928.2	74.7099	14928.2	73.7688	14928.2	72.4584	14928.2	70.5376	14928.2	67.0496	14928.2	66.7923	14928.2	67.9517	14928.2	63.503	14928.2	59.9298	14928.2	58.0997	14928.2	49.1504	14928.2	57.5565	14928.2	55.5198	14928.2	57.3632	14928.2	43.3009	14928.2	55.9019	14928.2	50.5655	14928.2	57.4925	14928.2	51.4768	14928.2	57.949	14928.2	35.9799	14928.2	53.5265	14928.2	44.1469	14928.2	50.7667	14928.2	53.4201	14928.2	47.7151
15455.6	89.0011	15455.6	88.3924	15455.6	87.6413	15455.6	86.9266	15455.6	84.951	15455.6	82.614	15455.6	79.751	15455.6	79.2697	15455.6	77.1329	15455.6	76.4836	15455.6	74.8049	15455.6	74.939	15455.6	71.7816	15455.6	72.3079	15455.6	66.3667	15455.6	67.2229	15455.6	67.0493	15455.6	63.7966	15455.6	60.151	15455.6	59.2783	15455.6	56.0303	15455.6	57.6513	15455.6	56.233	15455.6	56.4912	15455.6	41.707	15455.6	55.8617	15455.6	48.4108	15455.6	57.639	15455.6	46.8916	15455.6	58.5365	15455.6	41.4801	15455.6	57.0948	15455.6	49.6193	15455.6	55.9577	15455.6	52.5584	15455.6	53.5648
16000.5	88.5909	16000.5	87.6237	16000.5	86.8785	16000.5	86.4003	16000.5	84.4445	16000.5	82.5268	16000.5	79.6906	16000.5	78.3886	16000.5	76.4789	16000.5	75.5758	16000.5	74.2252	16000.5	74.9628	16000.5	70.6702	16000.5	71.1807	16000.5	69.1072	16000.5	66.0086	16000.5	63.3116	16000.5	62.6626	16000.5	57.6037	16000.5	57.5934	16000.5	55.5083	16000.5	56.5474	16000.5	50.5322	16000.5	54.924	16000.5	39.8738	16000.5	54.1365	16000.5	41.4251	16000.5	56.4129	16000.5	42.0257	16000.5	57.1694	16000.5	41.0656	16000.5	55.6133	16000.5	49.101	16000.5	54.8885	16000.5	51.2851	16000.5	46.9835
16564.5	86.6907	16564.5	86.3156	16564.5	84.7495	16564.5	85.1944	16564.5	81.7617	16564.5	81.9347	16564.5	78.6533	16564.5	77.65	16564.5	74.5201	16564.5	76.6504	16564.5	71.7335	16564.5	74.2624	16564.5	67.7707	16564.5	69.021	16564.5	64.7257	16564.5	64.3368	16564.5	54.3057	16564.5	61.6696	16564.5	58.5801	16564.5	54.624	16564.5	60.1597	16564.5	55.2112	16564.5	49.6267	16564.5	57.1157	16564.5	46.1808	16564.5	49.6218	16564.5	44.038	16564.5	54.2952	16564.5	44.1764	16564.5	55.4077	16564.5	43.0207	16564.5	56.8652	16564.5	54.5193	16564.5	55.9291	16564.5	51.9274	16564.5	56.3181
17148.9	85.5282	17148.9	85.4469	17148.9	84.3372	17148.9	84.3164	17148.9	81.5471	17148.9	81.6244	17148.9	80.359	17148.9	77.9733	17148.9	75.2399	17148.9	75.1719	17148.9	69.6118	17148.9	72.0684	17148.9	62.5368	17148.9	67.0041	17148.9	62.229	17148.9	63.0445	17148.9	55.2343	17148.9	60.2393	17148.9	47.2001	17148.9	54.1113	17148.9	47.2137	17148.9	51.7418	17148.9	48.5866	17148.9	54.7049	17148.9	39.5573	17148.9	54.0258	17148.9	42.5872	17148.9	54.0409	17148.9	50.9466	17148.9	50.9093	17148.9	51.4818	17148.9	51.6564	17148.9	51.1227	17148.9	54.6614	17148.9	53.9861	17148.9	53.7015
17752.4	85.7456	17752.4	86.3207	17752.4	85.4526	17752.4	84.7182	17752.4	83.3226	17752.4	82.2512	17752.4	80.428	17752.4	77.7525	17752.4	76.234	17752.4	73.9683	17752.4	71.2288	17752.4	70.4373	17752.4	68.9013	17752.4	66.195	17752.4	65.8038	17752.4	61.7527	17752.4	58.1227	17752.4	57.7112	17752.4	53.7705	17752.4	53.3256	17752.4	48.9242	17752.4	52.0821	17752.4	52.8894	17752.4	50.7571	17752.4	34.3847	17752.4	54.0854	17752.4	19.6495	17752.4	52.7101	17752.4	45.8539	17752.4	53.3211	17752.4	40.5494	17752.4	53.2465	17752.4	47.0536	17752.4	52.9476	17752.4	51.2309	17752.4	51.0375
18379.4	86.4905	18379.4	86.3685	18379.4	85.8233	18379.4	84.1852	18379.4	83.2929	18379.4	81.5304	18379.4	79.9502	18379.4	76.3493	18379.4	75.7039	18379.4	72.0386	18379.4	68.7205	18379.4	68.8908	18379.4	68.1572	18379.4	64.6344	18379.4	63.0888	18379.4	59.2611	18379.4	56.1565	18379.4	55.7218	18379.4	51.061	18379.4	48.7895	18379.4	49.5831	18379.4	51.6138	18379.4	50.8644	18379.4	40.343	18379.4	39.1555	18379.4	48.7855	18379.4	39.9775	18379.4	51.0381	18379.4	25.2902	18379.4	51.7377	18379.4	46.5471	18379.4	50.3291	18379.4	48.8826	18379.4	52.149	18379.4	49.4355	18379.4	47.224
19026.9	86.603	19026.9	86.4635	19026.9	85.7652	19026.9	84.0342	19026.9	82.9037	19026.9	80.4829	19026.9	79.4134	19026.9	75.0764	19026.9	74.0619	19026.9	69.8539	19026.9	66.0441	19026.9	66.1177	19026.9	66.5568	19026.9	60.7917	19026.9	59.8664	19026.9	54.5942	19026.9	54.2113	19026.9	50.4951	19026.9	45.0219	19026.9	43.8512	19026.9	48.922	19026.9	43.4189	19026.9	54.8627	19026.9	40.1328	19026.9	29.3095	19026.9	46.2451	19026.9	26.0312	19026.9	48.7804	19026.9	41.545	19026.9	48.7365	19026.9	51.3733	19026.9	45.0469	19026.9	46.7591	19026.9	50.0581	19026.9	49.2614	19026.9	38.49
19697.8	86.8509	19697.8	86.16	19697.8	86.4234	19697.8	83.8916	19697.8	82.8985	19697.8	79.7707	19697.8	78.2856	19697.8	73.7608	19697.8	70.964	19697.8	67.0563	19697.8	68.7664	19697.8	65.6811	19697.8	69.8762	19697.8	59.2208	19697.8	64.1227	19697.8	54.7619	19697.8	55.7579	19697.8	49.3674	19697.8	50.7524	19697.8	47.1103	19697.8	53.5748	19697.8	47.1758	19697.8	51.7655	19697.8	42.9976	19697.8	37.5102	19697.8	44.9628	19697.8	36.6036	19697.8	51.006	19697.8	36.8371	19697.8	50.1187	19697.8	48.7455	19697.8	34.5805	19697.8	32.3486	19697.8	34.7023	19697.8	40.3891	19697.8	39.9509
19999.5	87.4477	19999.5	86.4132	19999.5	86.5528	19999.5	83.401	19999.5	83.0121	19999.5	78.6091	19999.5	76.8292	19999.5	72.5284	19999.5	69.8365	19999.5	67.4733	19999.5	67.9508	19999.5	66.4849	19999.5	67.9272	19999.5	57.0077	19999.5	61.069	19999.5	53.8594	19999.5	53.4021	19999.5	47.938	19999.5	50.3222	19999.5	48.0007	19999.5	54.4869	19999.5	43.8436	19999.5	48.5886	19999.5	49.2475	19999.5	50.4903	19999.5	50.8343	19999.5	49.308	19999.5	54.2651	19999.5	48.0885	19999.5	53.9197	19999.5	49.4336	19999.5	43.2745	19999.5	43.5976	19999.5	44.1106	19999.5	43.8345	19999.5	50.1903
