Freq[Hz]     dBSPL  Phase[Deg]
5.00000     31.473    -2.858
5.07273     31.484    -2.939
5.14651     31.492    -3.027
5.22137     31.498    -3.135
5.29732     31.503    -3.244
5.37437     31.508    -3.352
5.45254     31.513    -3.461
5.53185     31.516    -3.562
5.61231     31.515    -3.656
5.69394     31.515    -3.750
5.77676     31.514    -3.844
5.86079     31.514    -3.937
5.94604     31.513    -3.978
6.03252     31.512    -4.018
6.12027     31.511    -4.058
6.20929     31.510    -4.098
6.29961     31.518    -4.103
6.39124     31.527    -4.100
6.48420     31.536    -4.097
6.57851     31.546    -4.094
6.67420     31.568    -4.115
6.77128     31.592    -4.141
6.86977     31.617    -4.166
6.96969     31.642    -4.204
7.07107     31.674    -4.340
7.17392     31.707    -4.476
7.27827     31.739    -4.611
7.38413     31.768    -4.814
7.49154     31.793    -5.068
7.60050     31.819    -5.322
7.71105     31.841    -5.580
7.82321     31.849    -5.856
7.93701     31.857    -6.132
8.05245     31.865    -6.407
8.16958     31.864    -6.570
8.28841     31.862    -6.729
8.40896     31.861    -6.887
8.53128     31.880    -6.914
8.65537     31.901    -6.925
8.78126     31.922    -6.935
8.90899     31.992    -7.006
9.03857     32.066    -7.082
9.17004     32.144    -7.209
9.30342     32.262    -7.741
9.43874     32.381    -8.273
9.57603     32.492    -9.097
9.71532     32.595   -10.369
9.85663     32.697   -11.641
10.0000     32.675   -13.468
10.1455     32.618   -15.451
10.2930     32.499   -17.524
10.4427     32.208   -19.847
10.5946     31.917   -22.170
10.7487     31.410   -24.127
10.9051     30.860   -26.012
11.0637     30.170   -26.936
11.2246     29.334   -26.844
11.3879     28.490   -25.778
11.5535     27.621   -21.157
11.7216     26.766   -16.469
11.8921     26.732    -7.837
12.0650     26.698     0.794
12.2405     27.517     6.329
12.4186     28.445    11.465
12.5992     29.436    12.178
12.7825     30.439    11.909
12.9684     31.202     9.143
13.1570     31.907     5.794
13.3484     32.316     1.189
13.5426     32.676    -3.621
13.7395     32.707    -8.975
13.9394     32.685   -14.344
14.1421     32.359   -19.661
14.3478     31.916   -24.753
14.5565     31.220   -29.364
14.7683     30.284   -32.993
14.9831     29.164   -35.864
15.2010     27.655   -35.336
15.4221     26.068   -32.635
15.6464     24.437   -22.937
15.8740     23.713    -8.978
16.1049     23.715     8.385
16.3392     25.310    18.950
16.5768     26.968    25.946
16.8179     28.629    28.127
17.0626     29.945    27.034
17.3107     31.080    24.931
17.5625     32.007    21.935
17.8180     32.694    18.464
18.0771     33.271    14.915
18.3401     33.743    11.322
18.6068     34.100     7.733
18.8775     34.376     4.100
19.1521     34.568     0.424
19.4306     34.665    -3.282
19.7133     34.593    -6.824
20.0000     34.352    -9.710
20.2909     33.974   -11.421
20.5860     33.522   -11.393
20.8855     33.115    -9.056
21.1893     33.121    -4.328
21.4975     33.638    -0.070
21.8102     34.454     2.028
22.1274     35.322     1.513
22.4492     36.017    -1.124
22.7758     36.401    -4.735
23.1071     36.445    -7.925
23.4432     36.228    -9.218
23.7841     36.025    -7.261
24.1301     36.246    -3.013
24.4811     37.019     0.632
24.8372     38.083     1.494
25.1984     39.092    -0.530
25.5649     39.835    -4.285
25.9368     40.256    -8.339
26.3141     40.421   -11.455
26.6968     40.483   -12.878
27.0851     40.633   -12.675
27.4791     41.005   -11.779
27.8788     41.567   -11.336
28.2843     42.198   -11.727
28.6957     42.821   -12.737
29.1131     43.420   -14.073
29.5365     43.997   -15.624
29.9661     44.545   -17.374
30.4020     45.047   -19.197
30.8442     45.495   -20.734
31.2929     45.956   -21.796
31.7480     46.493   -22.565
32.2098     47.123   -23.527
32.6783     47.794   -25.177
33.1536     48.420   -27.341
33.6359     48.977   -29.585
34.1251     49.499   -31.547
34.6215     50.050   -33.281
35.1250     50.640   -35.108
35.6359     51.235   -37.244
36.1543     51.803   -39.522
36.6802     52.350   -41.717
37.2137     52.910   -43.804
37.7550     53.492   -45.973
38.3041     54.078   -48.358
38.8613     54.645   -50.840
39.4265     55.205   -53.297
40.0000     55.776   -55.791
40.5818     56.353   -58.484
41.1721     56.902   -61.382
41.7710     57.413   -64.287
42.3785     57.903   -67.023
42.9949     58.396   -69.641
43.6203     58.898   -72.211
44.2548     59.412   -74.727
44.8985     59.952   -77.270
45.5515     60.509   -80.043
46.2141     61.046   -83.059
46.8863     61.551   -86.048
47.5683     62.070   -88.899
48.2602     62.618   -91.982
48.9621     63.136   -95.436
49.6743     63.586   -98.842
50.3968     64.028  -101.894
51.1299     64.514  -104.897
51.8736     65.012  -108.170
52.6281     65.482  -111.568
53.3936     65.945  -114.949
54.1702     66.407  -118.433
54.9581     66.851  -122.045
55.7575     67.276  -125.697
56.5685     67.684  -129.420
57.3914     68.061  -133.197
58.2261     68.403  -136.900
59.0730     68.724  -140.442
59.9323     69.034  -143.782
60.8040     69.361  -146.933
61.6884     69.718  -150.105
62.5857     70.077  -153.429
63.4960     70.422  -156.791
64.4196     70.765  -160.160
65.3566     71.097  -163.638
66.3073     71.395  -167.073
67.2717     71.685  -170.232
68.2502     72.010  -173.287
69.2429     72.355  -176.465
70.2501     72.701  -179.723
71.2719     73.051   176.965
72.3086     73.409   173.523
73.3603     73.757   169.883
74.4274     74.072   166.156
75.5099     74.367   162.499
76.6083     74.648   158.875
77.7226     74.920   155.429
78.8531     75.224   152.079
80.0000     75.547   148.571
81.1636     75.876   144.923
82.3442     76.205   141.064
83.5419     76.511   137.006
84.7570     76.785   132.860
85.9899     77.039   128.723
87.2406     77.276   124.547
88.5096     77.506   120.354
89.7970     77.716   115.824
91.1031     77.807   111.235
92.4282     77.836   107.480
93.7726     77.929   104.253
95.1366     78.066   101.039
96.5204     78.230    98.019
97.9243     78.477    94.930
99.3486     78.746    91.329
100.794     78.990    87.410
102.260     79.201    83.478
103.747     79.423    79.366
105.256     79.590    75.119
106.787     79.738    71.088
108.340     79.914    67.103
109.916     80.100    62.852
111.515     80.253    58.263
113.137     80.341    53.792
114.783     80.421    49.360
116.452     80.474    45.040
118.146     80.517    40.849
119.865     80.569    36.732
121.608     80.626    32.542
123.377     80.665    28.269
125.171     80.682    23.980
126.992     80.679    19.806
128.839     80.681    15.721
130.713     80.684    11.558
132.615     80.655     7.262
134.543     80.586     3.209
136.500     80.544    -0.739
138.486     80.498    -4.279
140.500     80.481    -7.867
142.544     80.513   -12.266
144.617     80.423   -16.552
146.721     80.328   -19.901
148.855     80.336   -23.559
151.020     80.392   -28.093
153.217     80.230   -33.544
155.445     79.869   -37.020
157.706     79.712   -39.590
160.000     79.614   -42.552
162.327     79.562   -45.323
164.688     79.632   -47.844
167.084     79.823   -51.978
169.514     79.752   -57.665
171.980     79.482   -62.140
174.481     79.328   -65.058
177.019     79.280   -69.017
179.594     78.959   -73.554
182.206     78.540   -75.788
184.856     78.531   -77.284
187.545     78.583   -80.606
190.273     78.399   -84.351
193.041     78.298   -86.493
195.849     78.314   -89.674
198.697     78.198   -93.591
201.587     77.963   -96.177
204.520     77.918   -98.148
207.494     77.986  -100.450
210.512     78.160  -104.106
213.574     78.024  -109.276
216.681     77.728  -111.250
219.833     77.755  -113.292
223.030     77.845  -116.127
226.274     77.927  -120.209
229.565     77.831  -124.229
232.905     77.618  -128.208
236.292     77.270  -130.085
239.729     77.333  -130.970
243.216     77.523  -133.654
246.754     77.699  -137.467
250.343     77.581  -142.271
253.984     77.462  -145.135
257.678     77.302  -149.206
261.426     77.012  -151.553
265.229     76.994  -152.879
269.087     77.023  -156.139
273.001     76.917  -159.234
276.972     76.693  -161.228
281.000     76.649  -161.950
285.088     76.915  -163.443
289.234     77.239  -166.859
293.441     77.401  -172.315
297.709     77.111  -177.363
302.040     76.865   179.497
306.433     76.530   177.242
310.890     76.358   174.285
315.412     76.203   173.276
320.000     76.222   171.208
324.655     76.287   169.081
329.377     76.443   166.117
334.168     76.453   161.822
339.028     76.420   156.882
343.959     75.932   153.214
348.962     75.784   151.127
354.038     75.681   149.416
359.188     75.773   146.111
364.412     75.636   142.151
369.713     75.381   139.091
375.090     75.362   136.759
380.546     75.248   133.298
386.081     75.191   130.180
391.697     75.014   126.801
397.394     74.902   123.155
403.175     74.637   119.800
409.039     74.463   116.875
414.989     74.291   114.221
421.025     74.152   111.033
427.149     73.905   107.895
433.362     73.697   105.381
439.665     73.459   102.448
446.060     73.179    99.497
452.548     72.891    97.345
459.131     72.637    95.365
465.809     72.433    93.708
472.584     72.242    92.233
479.458     72.105    90.872
486.432     71.980    89.662
493.507     71.916    88.437
500.686     71.843    87.045
507.968     71.801    85.910
515.357     71.821    84.884
522.853     71.890    83.830
530.458     71.990    82.642
538.174     72.106    81.342
546.002     72.236    79.962
553.943     72.373    78.443
562.001     72.507    76.812
570.175     72.634    75.061
578.469     72.747    73.138
586.883     72.838    71.102
595.419     72.907    68.986
604.080     72.952    66.775
612.866     72.972    64.498
621.780     72.966    62.189
630.824     72.933    59.881
640.000     72.876    57.651
649.309     72.797    55.525
658.753     72.700    53.488
668.335     72.584    51.528
678.056     72.460    49.738
687.919     72.332    48.093
697.925     72.206    46.588
708.077     72.091    45.234
718.376     71.991    43.973
728.825     71.912    42.762
739.426     71.856    41.546
750.181     71.823    40.261
761.093     71.812    38.844
772.163     71.815    37.265
783.394     71.826    35.458
794.789     71.835    33.357
806.349     71.831    31.017
818.078     71.805    28.404
829.977     71.747    25.538
842.050     71.647    22.445
854.298     71.497    19.165
866.724     71.295    15.795
879.330     71.027    12.290
892.120     70.691     8.762
905.097     70.286     5.282
918.262     69.808     1.928
931.618     69.260    -1.214
945.169     68.646    -4.056
958.917     67.973    -6.505
972.864     67.257    -8.483
987.015     66.516    -9.936
1001.37     65.761   -10.869
1015.94     65.034   -11.337
1030.71     64.368   -11.504
1045.71     63.755   -11.624
1060.92     63.191   -11.985
1076.35     62.666   -12.851
1092.00     62.134   -14.426
1107.89     61.541   -16.872
1124.00     60.845   -20.246
1140.35     59.999   -24.618
1156.94     58.941   -30.171
1173.77     57.627   -37.130
1190.84     56.004   -46.090
1208.16     54.042   -58.289
1225.73     51.830   -76.396
1243.56     50.036  -103.453
1261.65     49.962  -135.787
1280.00     51.585  -162.379
1298.62     53.648  -179.949
1317.51     55.517   168.316
1336.67     57.081   159.891
1356.11     58.359   153.457
1375.84     59.409   148.238
1395.85     60.271   143.874
1416.15     60.963   140.232
1436.75     61.514   137.244
1457.65     61.952   134.907
1478.85     62.304   133.286
1500.36     62.605   132.451
1522.19     62.903   132.388
1544.33     63.248   132.981
1566.79     63.683   133.965
1589.58     64.228   134.954
1612.70     64.867   135.547
1636.16     65.570   135.450
1659.95     66.286   134.524
1684.10     66.971   132.771
1708.60     67.584   130.304
1733.45     68.094   127.315
1758.66     68.491   123.966
1784.24     68.763   120.503
1810.19     68.913   117.185
1836.52     68.956   114.195
1863.24     68.920   111.752
1890.34     68.849   109.968
1917.83     68.793   108.788
1945.73     68.795   107.978
1974.03     68.868   107.158
2002.74     68.989   105.975
2031.87     69.108   104.237
2061.43     69.173   101.985
2091.41     69.143    99.428
2121.83     69.010    96.871
2152.69     68.796    94.602
2184.01     68.541    92.682
2215.77     68.285    90.941
2248.00     68.040    89.009
2280.70     67.764    86.494
2313.87     67.372    83.177
2347.53     66.764    79.157
2381.68     65.840    74.832
2416.32     64.496    70.815
2451.46     62.614    68.088
2487.12     60.043    68.406
2523.30     56.623    75.878
2560.00     52.986   100.434
2597.24     52.710   141.227
2635.01     55.831   167.224
2673.34     58.863   177.423
2712.23     61.215  -178.725
2751.68     63.064  -177.531
2791.70     64.550  -177.618
2832.31     65.775  -178.343
2873.50     66.814  -179.407
2915.30     67.716   179.278
2957.70     68.507   177.696
3000.72     69.183   175.884
3044.37     69.735   173.990
3088.65     70.175   172.254
3133.58     70.531   170.904
3179.16     70.852   170.005
3225.40     71.176   169.438
3272.31     71.518   169.011
3319.91     71.879   168.570
3368.20     72.251   168.029
3417.19     72.625   167.322
3466.89     72.989   166.423
3517.32     73.335   165.383
3568.48     73.668   164.273
3620.39     74.003   163.023
3673.05     74.335   161.438
3726.47     74.626   159.428
3780.67     74.837   157.156
3835.67     74.963   154.911
3891.46     75.029   152.868
3948.06     75.059   151.027
4005.49     75.059   149.318
4063.75     75.025   147.732
4122.86     74.956   146.345
4182.82     74.862   145.196
4243.66     74.752   144.264
4305.39     74.626   143.545
4368.01     74.483   143.106
4431.55     74.339   143.017
4496.01     74.217   143.248
4561.40     74.131   143.747
4627.75     74.111   144.376
4695.06     74.154   144.711
4763.35     74.182   144.554
4832.64     74.143   144.451
4902.93     74.127   144.765
4974.24     74.192   144.875
5046.60     74.256   144.310
5120.00     74.248   143.355
5194.47     74.155   142.232
5270.03     73.948   141.227
5346.68     73.649   140.839
5424.45     73.317   141.205
5503.35     72.990   142.414
5583.40     72.748   144.354
5664.61     72.597   146.440
5747.01     72.482   148.703
5830.60     72.438   151.374
5915.41     72.525   154.292
6001.45     72.780   156.749
6088.74     73.080   158.051
6177.30     73.313   158.906
6267.15     73.560   159.735
6358.31     73.851   160.009
6450.80     74.080   159.371
6544.62     74.149   158.750
6639.82     74.222   158.691
6736.40     74.283   158.186
6834.38     74.235   158.011
6933.79     74.216   158.376
7034.64     74.231   158.720
7136.96     74.229   158.924
7240.77     74.204   159.593
7346.09     74.297   160.323
7452.94     74.397   160.377
7561.35     74.459   160.191
7671.33     74.471   159.894
7782.91     74.444   159.579
7896.12     74.337   159.234
8010.97     74.098   159.639
8127.49     73.988   161.603
8245.71     74.083   162.517
8365.65     74.073   162.525
8487.33     73.959   162.321
8610.78     73.743   162.038
8736.03     73.387   162.206
8863.09     73.022   162.897
8992.01     72.629   164.011
9122.80     72.160   165.428
9255.50     71.815   168.866
9390.12     71.760   171.610
9526.70     71.813   173.698
9665.27     71.929   174.818
9805.86     72.046   175.049
9948.49     72.054   174.740
10093.2     71.930   175.150
10240.0     71.968   176.639
10388.9     72.030   176.854
10540.1     71.943   177.898
10693.4     71.934   179.626
10848.9     71.963  -178.636
11006.7     71.989  -176.403
11166.8     72.142  -173.040
11329.2     72.715  -169.714
11494.0     73.529  -168.993
11661.2     74.250  -171.347
11830.8     74.592  -174.935
12002.9     74.607  -178.199
12177.5     74.431  -179.865
12354.6     74.351   179.709
12534.3     74.350   178.950
12716.6     74.293   177.976
12901.6     74.174   177.460
13089.2     74.154   177.218
13279.6     74.122   176.256
13472.8     74.006   175.503
13668.8     73.917   174.442
13867.6     73.670   173.406
14069.3     73.374   172.988
14273.9     72.988   173.302
14481.5     72.629   175.292
14692.2     72.592   177.970
14905.9     72.714   178.870
15122.7     72.662   178.806
15342.7     72.493   179.175
15565.8     72.287  -179.834
15792.2     72.134  -178.688
16021.9     71.947  -177.654
16255.0     71.691  -176.177
16491.4     71.522  -174.001
16731.3     71.404  -172.399
16974.7     71.218  -170.904
17221.6     70.971  -169.400
17472.1     70.649  -167.095
17726.2     70.458  -164.123
17984.0     70.327  -161.614
18245.6     70.152  -159.446
18511.0     69.927  -157.107
18780.2     69.681  -154.693
19053.4     69.409  -152.214
19330.5     69.060  -149.496
19611.7     68.736  -146.282
19897.0     68.457  -143.323
20186.4     68.047  -140.842
20480.0     67.297  -138.605
20777.9     66.373  -130.793
21080.1     66.218  -121.588
21386.7     66.473  -116.173
21697.8     66.424  -112.127
22013.4     66.363  -108.581
22333.6     66.011  -105.862
22658.4     65.486  -100.931
22988.0     65.222   -95.466
23322.4     64.876   -90.936
23661.6     64.525   -85.606
24005.8     64.224   -80.550
24355.0     63.939   -75.824
24709.2     63.655   -72.171
25068.6     63.100   -69.615
25433.2     62.164   -65.831
25803.2     61.299   -59.170
26178.5     60.832   -52.084
26559.3     60.549   -47.399
26945.6     59.814   -44.290
27337.5     58.784   -37.690
27735.2     58.259   -29.139
28138.6     58.107   -23.674
28547.9     57.548   -21.981
28963.1     56.300   -20.402
29384.4     54.539   -17.094
29811.8     52.076    -9.425
30245.4     50.230     6.689
30685.3     49.766    17.673
31131.7     47.906    14.779
31584.5     42.980    23.519
32043.9     38.856    57.890
32510.0     38.782    95.512
32982.8     40.265   112.245
33462.6     39.874   115.334
33949.3     37.430   118.078
34443.1     31.858   122.967
34944.1     23.700  -175.918
35452.4     28.159  -100.548
35968.0     33.159   -90.849
36491.2     32.925   -86.040
37022.0     31.683   -60.563
37560.5     32.502   -33.917
38106.8     33.495   -14.432
38661.1     34.349     7.695
39223.4     36.045    22.485
39793.9     36.660    28.308
