Freq[Hz]     dBSPL  Phase[Deg]
5.00000     33.636     0.365
5.07273     33.644     0.329
5.14651     33.651     0.286
5.22137     33.654     0.225
5.29732     33.658     0.164
5.37437     33.661     0.103
5.45254     33.664     0.041
5.53185     33.665    -0.011
5.61231     33.662    -0.055
5.69394     33.659    -0.099
5.77676     33.656    -0.143
5.86079     33.653    -0.186
5.94604     33.649    -0.173
6.03252     33.646    -0.161
6.12027     33.642    -0.148
6.20929     33.639    -0.136
6.29961     33.643    -0.085
6.39124     33.649    -0.027
6.48420     33.656     0.032
6.57851     33.662     0.090
6.67420     33.681     0.126
6.77128     33.702     0.159
6.86977     33.723     0.192
6.96969     33.744     0.212
7.07107     33.773     0.137
7.17392     33.802     0.061
7.27827     33.831    -0.014
7.38413     33.856    -0.154
7.49154     33.878    -0.346
7.60050     33.899    -0.537
7.71105     33.918    -0.732
7.82321     33.921    -0.942
7.93701     33.924    -1.153
8.05245     33.928    -1.364
8.16958     33.922    -1.459
8.28841     33.916    -1.550
8.40896     33.910    -1.642
8.53128     33.923    -1.600
8.65537     33.939    -1.540
8.78126     33.955    -1.481
8.90899     34.020    -1.482
9.03857     34.088    -1.486
9.17004     34.162    -1.541
9.30342     34.274    -2.000
9.43874     34.386    -2.459
9.57603     34.492    -3.210
9.71532     34.588    -4.406
9.85663     34.684    -5.603
10.0000     34.655    -7.355
10.1455     34.591    -9.261
10.2930     34.465   -11.256
10.4427     34.167   -13.501
10.5946     33.869   -15.747
10.7487     33.354   -17.625
10.9051     32.797   -19.430
11.0637     32.100   -20.274
11.2246     31.255   -20.101
11.3879     30.403   -18.953
11.5535     29.526   -14.251
11.7216     28.662    -9.481
11.8921     28.619    -0.766
12.0650     28.576     7.949
12.2405     29.386    13.568
12.4186     30.305    18.788
12.5992     31.285    19.585
12.7825     32.279    19.401
12.9684     33.031    16.720
13.1570     33.727    13.457
13.3484     34.125     8.938
13.5426     34.474     4.215
13.7395     34.494    -1.053
13.9394     34.462    -6.334
14.1421     34.124   -11.564
14.3478     33.669   -16.569
14.5565     32.961   -21.092
14.7683     32.013   -24.633
14.9831     30.880   -27.416
15.2010     29.357   -26.801
15.4221     27.758   -24.012
15.6464     26.113   -14.226
15.8740     25.377    -0.179
16.1049     25.365    17.272
16.3392     26.946    27.925
16.5768     28.589    35.009
16.8179     30.236    37.278
17.0626     31.537    36.272
17.3107     32.657    34.256
17.5625     33.568    31.347
17.8180     34.239    27.962
18.0771     34.799    24.499
18.3401     35.255    20.992
18.6068     35.596    17.488
18.8775     35.855    13.940
19.1521     36.030    10.349
19.4306     36.109     6.726
19.7133     36.020     3.266
20.0000     35.761     0.463
20.2909     35.364    -1.167
20.5860     34.893    -1.058
20.8855     34.467     1.359
21.1893     34.454     6.166
21.4975     34.952    10.501
21.8102     35.748    12.676
22.1274     36.597    12.237
22.4492     37.271     9.675
22.7758     37.634     6.138
23.1071     37.656     3.019
23.4432     37.418     1.797
23.7841     37.194     3.824
24.1301     37.394     8.141
24.4811     38.146    11.852
24.8372     39.187    12.780
25.1984     40.173    10.820
25.5649     40.893     7.127
25.9368     41.292     3.134
26.3141     41.434     0.077
26.6968     41.472    -1.288
27.0851     41.599    -1.030
27.4791     41.947    -0.080
27.8788     42.485     0.415
28.2843     43.092     0.074
28.6957     43.692    -0.888
29.1131     44.265    -2.178
29.5365     44.817    -3.684
29.9661     45.341    -5.392
30.4020     45.816    -7.175
30.8442     46.241    -8.674
31.2929     46.676    -9.700
31.7480     47.186   -10.436
32.2098     47.792   -11.366
32.6783     48.436   -12.987
33.1536     49.037   -15.124
33.6359     49.568   -17.343
34.1251     50.065   -19.282
34.6215     50.589   -20.996
35.1250     51.153   -22.805
35.6359     51.722   -24.925
36.1543     52.263   -27.190
36.6802     52.783   -29.374
37.2137     53.317   -31.453
37.7550     53.873   -33.616
38.3041     54.432   -35.996
38.8613     54.974   -38.477
39.4265     55.507   -40.935
40.0000     56.052   -43.432
40.5818     56.602   -46.130
41.1721     57.125   -49.036
41.7710     57.610   -51.950
42.3785     58.074   -54.699
42.9949     58.541   -57.331
43.6203     59.017   -59.917
44.2548     59.504   -62.452
44.8985     60.019   -65.017
45.5515     60.549   -67.813
46.2141     61.061   -70.854
46.8863     61.540   -73.870
47.5683     62.034   -76.751
48.2602     62.557   -79.866
48.9621     63.050   -83.353
49.6743     63.474   -86.795
50.3968     63.892   -89.884
51.1299     64.354   -92.926
51.8736     64.827   -96.240
52.6281     65.274   -99.681
53.3936     65.712  -103.106
54.1702     66.150  -106.636
54.9581     66.571  -110.296
55.7575     66.972  -113.997
56.5685     67.357  -117.772
57.3914     67.711  -121.601
58.2261     68.029  -125.357
59.0730     68.328  -128.955
59.9323     68.616  -132.352
60.8040     68.921  -135.560
61.6884     69.256  -138.792
62.5857     69.593  -142.176
63.4960     69.916  -145.599
64.4196     70.237  -149.031
65.3566     70.548  -152.572
66.3073     70.826  -156.072
67.2717     71.096  -159.296
68.2502     71.400  -162.418
69.2429     71.725  -165.663
70.2501     72.050  -168.989
71.2719     72.381  -172.369
72.3086     72.720  -175.881
73.3603     73.049  -179.591
74.4274     73.344   176.611
75.5099     73.622   172.884
76.6083     73.884   169.188
77.7226     74.137   165.670
78.8531     74.423   162.248
80.0000     74.728   158.666
81.1636     75.040   154.945
82.3442     75.351   151.013
83.5419     75.640   146.882
84.7570     75.898   142.661
85.9899     76.134   138.451
87.2406     76.355   134.201
88.5096     76.569   129.933
89.7970     76.762   125.329
91.1031     76.837   120.667
92.4282     76.850   116.837
93.7726     76.928   113.536
95.1366     77.050   110.248
96.5204     77.198   107.153
97.9243     77.430   103.991
99.3486     77.683   100.316
100.794     77.912    96.324
102.260     78.109    92.318
103.747     78.317    88.133
105.256     78.468    83.813
106.787     78.602    79.710
108.340     78.765    75.652
109.916     78.937    71.329
111.515     79.075    66.668
113.137     79.150    62.125
114.783     79.215    57.622
116.452     79.254    53.232
118.146     79.284    48.970
119.865     79.323    44.783
121.608     79.365    40.523
123.377     79.392    36.180
125.171     79.395    31.822
126.992     79.379    27.579
128.839     79.367    23.426
130.713     79.356    19.193
132.615     79.314    14.830
134.543     79.232    10.707
136.500     79.176     6.690
138.486     79.117     3.088
140.500     79.087    -0.567
142.544     79.103    -5.038
144.617     79.000    -9.388
146.721     78.892   -12.801
148.855     78.886   -16.527
151.020     78.927   -21.128
153.217     78.751   -26.645
155.445     78.377   -30.187
157.706     78.206   -32.822
160.000     78.093   -35.852
162.327     78.026   -38.691
164.688     78.082   -41.273
167.084     78.257   -45.474
169.514     78.171   -51.232
171.980     77.885   -55.777
174.481     77.716   -58.759
177.019     77.652   -62.782
179.594     77.315   -67.387
182.206     76.879   -69.694
184.856     76.853   -71.262
187.545     76.888   -74.652
190.273     76.687   -78.469
193.041     76.568   -80.683
195.849     76.566   -83.935
198.697     76.431   -87.930
201.587     76.176   -90.593
204.520     76.111   -92.642
207.494     76.159   -95.021
210.512     76.312   -98.761
213.574     76.154  -104.016
216.681     75.838  -106.070
219.833     75.842  -108.198
223.030     75.908  -111.127
226.274     75.966  -115.303
229.565     75.845  -119.418
232.905     75.607  -123.494
236.292     75.233  -125.471
239.729     75.268  -126.463
243.216     75.430  -129.256
246.754     75.577  -133.182
250.343     75.428  -138.107
253.984     75.277  -141.095
257.678     75.085  -145.295
261.426     74.759  -147.780
265.229     74.705  -149.249
269.087     74.697  -152.657
273.001     74.552  -155.906
276.972     74.290  -158.058
281.000     74.204  -158.952
285.088     74.424  -160.632
289.234     74.700  -164.242
293.441     74.813  -169.901
297.709     74.472  -175.160
302.040     74.174  -178.520
306.433     73.782   178.986
310.890     73.547   175.767
315.412     73.328   174.485
320.000     73.280   172.131
324.655     73.273   169.705
329.377     73.355   166.427
334.168     73.281   161.775
339.028     73.158   156.462
343.959     72.575   152.400
348.962     72.328   149.900
354.038     72.119   147.756
359.188     72.093   143.979
364.412     71.826   139.507
369.713     71.432   135.910
375.090     71.262   133.016
380.546     70.979   128.949
386.081     70.739   125.200
391.697     70.356   121.148
397.394     70.011   116.788
403.175     69.497   112.730
409.039     69.040   109.080
414.989     68.545   105.697
421.025     68.045   101.820
427.149     67.399    98.068
433.362     66.744    95.063
439.665     65.978    91.813
446.060     65.113    88.846
452.548     64.178    87.117
459.131     63.202    86.191
465.809     62.214    86.493
472.584     61.231    88.069
479.458     60.357    91.022
486.432     59.614    95.488
493.507     59.152   100.990
500.686     58.966   106.643
507.968     59.080   111.842
515.357     59.433   115.887
522.853     59.923   118.584
530.458     60.452   119.906
538.174     60.946   120.050
546.002     61.378   119.336
553.943     61.734   117.929
562.001     62.002   116.009
570.175     62.171   113.686
578.469     62.233   110.996
586.883     62.182   108.088
595.419     62.017   105.052
604.080     61.727   101.902
612.866     61.298    98.716
621.780     60.710    95.591
630.824     59.937    92.653
640.000     58.965    90.134
649.309     57.753    88.291
658.753     56.214    87.577
668.335     54.202    89.071
678.056     51.694    95.053
687.919     48.860   111.030
697.925     47.409   141.366
708.077     49.097   170.280
718.376     51.921  -174.858
728.825     54.385  -169.036
739.426     56.336  -167.288
750.181     57.872  -167.454
761.093     59.093  -168.542
772.163     60.054  -170.023
783.394     60.830  -171.630
794.789     61.466  -173.206
806.349     61.977  -174.579
818.078     62.401  -175.698
829.977     62.766  -176.529
842.050     63.095  -177.074
854.298     63.410  -177.384
866.724     63.722  -177.541
879.330     64.048  -177.657
892.120     64.385  -177.846
905.097     64.724  -178.205
918.262     65.054  -178.797
931.618     65.357  -179.645
945.169     65.618   179.277
958.917     65.821   178.033
972.864     65.954   176.725
987.015     66.011   175.482
1001.37     65.986   174.451
1015.94     65.889   173.826
1030.71     65.741   173.787
1045.71     65.568   174.492
1060.92     65.417   176.042
1076.35     65.347   178.335
1092.00     65.407  -178.879
1107.89     65.627  -176.003
1124.00     65.995  -173.555
1140.35     66.466  -171.912
1156.94     66.986  -171.236
1173.77     67.488  -171.525
1190.84     67.928  -172.630
1208.16     68.275  -174.337
1225.73     68.514  -176.440
1243.56     68.637  -178.710
1261.65     68.642   179.105
1280.00     68.543   177.216
1298.62     68.364   175.806
1317.51     68.134   174.994
1336.67     67.894   174.828
1356.11     67.689   175.215
1375.84     67.549   175.923
1395.85     67.482   176.623
1416.15     67.470   176.996
1436.75     67.470   176.858
1457.65     67.432   176.180
1478.85     67.308   175.091
1500.36     67.067   173.852
1522.19     66.690   172.795
1544.33     66.183   172.316
1566.79     65.578   172.831
1589.58     64.949   174.656
1612.70     64.403   177.793
1636.16     64.040  -178.186
1659.95     63.902  -174.138
1684.10     63.939  -170.930
1708.60     64.036  -169.012
1733.45     64.070  -168.341
1758.66     63.952  -168.527
1784.24     63.622  -169.025
1810.19     63.057  -169.189
1836.52     62.253  -168.257
1863.24     61.264  -165.325
1890.34     60.233  -159.437
1917.83     59.438  -150.211
1945.73     59.210  -138.861
1974.03     59.645  -128.093
2002.74     60.495  -120.127
2031.87     61.440  -115.184
2061.43     62.289  -112.397
2091.41     62.993  -110.765
2121.83     63.579  -109.557
2152.69     64.112  -108.430
2184.01     64.675  -107.458
2215.77     65.305  -107.077
2248.00     65.973  -107.795
2280.70     66.606  -109.860
2313.87     67.123  -113.209
2347.53     67.462  -117.499
2381.68     67.595  -122.237
2416.32     67.528  -126.966
2451.46     67.300  -131.283
2487.12     66.968  -134.963
2523.30     66.596  -138.005
2560.00     66.227  -140.598
2597.24     65.877  -142.947
2635.01     65.541  -145.164
2673.34     65.221  -147.218
2712.23     64.942  -149.088
2751.68     64.728  -150.892
2791.70     64.590  -152.827
2832.31     64.511  -155.020
2873.50     64.474  -157.415
2915.30     64.489  -159.887
2957.70     64.585  -162.472
3000.72     64.774  -165.422
3044.37     65.023  -169.044
3088.65     65.262  -173.436
3133.58     65.424  -178.342
3179.16     65.472   176.655
3225.40     65.411   171.992
3272.31     65.275   167.954
3319.91     65.097   164.570
3368.20     64.888   161.763
3417.19     64.632   159.568
3466.89     64.326   158.236
3517.32     64.018   158.064
3568.48     63.800   158.939
3620.39     63.709   160.252
3673.05     63.692   161.566
3726.47     63.701   163.051
3780.67     63.780   164.896
3835.67     63.979   166.607
3891.46     64.231   167.583
3948.06     64.431   168.005
4005.49     64.578   168.384
4063.75     64.713   168.697
4122.86     64.806   168.806
4182.82     64.840   169.120
4243.66     64.911   169.755
4305.39     65.037   169.883
4368.01     65.067   169.305
4431.55     64.950   169.152
4496.01     64.855   169.898
4561.40     64.846   170.657
4627.75     64.836   171.382
4695.06     64.914   172.509
4763.35     65.162   172.927
4832.64     65.395   171.920
4902.93     65.510   170.387
4974.24     65.573   168.753
5046.60     65.604   166.985
5120.00     65.662   164.936
5194.47     65.678   161.534
5270.03     65.350   157.513
5346.68     64.775   155.588
5424.45     64.365   155.287
5503.35     64.041   154.816
5583.40     63.751   154.724
5664.61     63.498   154.184
5747.01     63.130   154.367
5830.60     63.031   155.060
5915.41     62.814   153.226
6001.45     62.188   153.778
6088.74     62.061   155.870
6177.30     61.797   155.033
6267.15     61.253   157.174
6358.31     61.182   160.211
6450.80     61.252   162.036
6544.62     61.478   162.104
6639.82     61.445   160.244
6736.40     61.233   158.225
6834.38     60.638   156.056
6933.79     59.974   156.977
7034.64     59.476   157.343
7136.96     58.782   159.047
7240.77     58.306   161.688
7346.09     57.888   164.799
7452.94     57.735   167.465
7561.35     57.400   168.293
7671.33     56.726   171.981
7782.91     56.672   177.635
7896.12     56.668  -179.034
8010.97     56.633  -175.751
8127.49     56.543  -170.199
8245.71     57.133  -166.670
8365.65     57.247  -164.862
8487.33     57.463  -162.564
8610.78     57.721  -159.671
8736.03     58.080  -158.796
8863.09     58.508  -157.402
8992.01     59.078  -159.266
9122.80     59.342  -163.241
9255.50     59.352  -168.001
9390.12     58.888  -173.866
9526.70     57.823  -176.532
9665.27     57.311  -172.298
9805.86     57.524  -173.345
9948.49     57.405  -175.185
10093.2     57.026  -176.297
10240.0     56.761  -175.614
10388.9     57.023  -173.172
10540.1     57.273  -175.882
10693.4     57.022  -177.659
10848.9     56.627  -177.345
11006.7     56.283  -175.687
11166.8     56.003  -171.780
11329.2     56.171  -165.846
11494.0     57.029  -162.586
11661.2     57.883  -162.214
11830.8     58.651  -164.255
12002.9     59.225  -168.183
12177.5     59.502  -173.960
12354.6     59.281   179.587
12534.3     58.690   174.693
12716.6     58.141   170.027
12901.6     57.128   162.160
13089.2     54.749   155.883
13279.6     51.749   161.044
13472.8     49.611   172.115
13668.8     47.765  -166.882
13867.6     48.616  -149.204
14069.3     49.431  -143.499
14273.9     48.875  -140.441
14481.5     48.380  -132.127
14692.2     47.472  -126.028
14905.9     46.006  -107.413
15122.7     47.734   -89.193
15342.7     49.154   -88.698
15565.8     49.013   -90.800
15792.2     47.655   -88.187
16021.9     46.318   -77.497
16255.0     45.436   -62.275
16491.4     45.700   -46.320
16731.3     45.977   -35.414
16974.7     45.968   -23.286
17221.6     46.388   -10.828
17472.1     46.982     0.692
17726.2     47.717     9.444
17984.0     48.185    16.443
18245.6     48.342    23.093
18511.0     48.569    32.013
18780.2     49.054    38.705
19053.4     49.247    43.289
19330.5     48.978    48.317
19611.7     48.587    56.119
19897.0     48.444    64.623
20186.4     48.204    71.457
20480.0     47.810    78.003
20777.9     46.668    84.935
21080.1     45.559   100.178
21386.7     45.540   113.855
21697.8     45.077   126.980
22013.4     45.230   144.860
22333.6     46.329   155.687
22658.4     46.496   161.853
22988.0     46.346   170.946
23322.4     46.449   179.927
23661.6     46.331  -174.031
24005.8     45.489  -167.878
24355.0     43.921  -156.815
24709.2     42.999  -136.500
25068.6     43.513  -118.191
25433.2     44.214  -104.664
25803.2     44.996   -95.008
26178.5     45.541   -87.732
26559.3     45.734   -83.032
26945.6     45.368   -77.173
27337.5     44.944   -69.409
27735.2     44.551   -60.378
28138.6     44.306   -50.753
28547.9     44.038   -42.637
28963.1     43.648   -35.030
29384.4     42.887   -28.129
29811.8     42.094   -20.135
30245.4     40.911   -11.869
30685.3     39.621    -1.925
31131.7     38.124    10.454
31584.5     37.292    22.892
32043.9     36.042    34.713
32510.0     34.911    47.441
32982.8     34.302    58.219
33462.6     32.884    66.948
33949.3     31.487    80.163
34443.1     30.070    86.666
34944.1     28.617    95.349
35452.4     27.211   104.941
35968.0     25.497   109.745
36491.2     23.654   112.467
37022.0     21.196   112.898
37560.5     19.036   110.130
38106.8     17.476   101.405
38661.1     16.760    87.902
39223.4     14.214    82.968
39793.9     12.635   111.128
