Freq[Hz]     dBSPL  Phase[Deg]
5.00000     30.888    25.759
5.07273     30.895    26.084
5.14651     30.902    26.410
5.22137     30.904    26.738
5.29732     30.907    27.065
5.37437     30.909    27.392
5.45254     30.912    27.719
5.53185     30.911    28.068
5.61231     30.907    28.439
5.69394     30.903    28.811
5.77676     30.899    29.182
5.86079     30.895    29.555
5.94604     30.890    30.009
6.03252     30.886    30.463
6.12027     30.881    30.918
6.20929     30.877    31.372
6.29961     30.880    31.886
6.39124     30.885    32.413
6.48420     30.890    32.940
6.57851     30.895    33.467
6.67420     30.913    33.995
6.77128     30.933    34.522
6.86977     30.953    35.050
6.96969     30.973    35.568
7.07107     31.000    36.015
7.17392     31.028    36.461
7.27827     31.055    36.908
7.38413     31.078    37.304
7.49154     31.098    37.661
7.60050     31.119    38.018
7.71105     31.135    38.376
7.82321     31.137    38.740
7.93701     31.138    39.104
8.05245     31.140    39.468
8.16958     31.132    39.973
8.28841     31.124    40.483
8.40896     31.116    40.993
8.53128     31.127    41.659
8.65537     31.141    42.346
8.78126     31.155    43.033
8.90899     31.218    43.685
9.03857     31.284    44.335
9.17004     31.355    44.937
9.30342     31.465    45.158
9.43874     31.575    45.380
9.57603     31.678    45.320
9.71532     31.771    44.830
9.85663     31.865    44.340
10.0000     31.833    43.316
10.1455     31.766    42.143
10.2930     31.638    40.888
10.4427     31.336    39.402
10.5946     31.035    37.916
10.7487     30.517    36.819
10.9051     29.956    35.800
11.0637     29.256    35.755
11.2246     28.408    36.739
11.3879     27.552    38.704
11.5535     26.671    44.245
11.7216     25.804    49.853
11.8921     25.757    59.432
12.0650     25.710    69.011
12.2405     26.516    75.517
12.4186     27.432    81.627
12.5992     28.408    83.336
12.7825     29.397    84.068
12.9684     30.145    82.325
13.1570     30.836    80.004
13.3484     31.230    76.449
13.5426     31.574    72.694
13.7395     31.589    68.420
13.9394     31.551    64.135
14.1421     31.209    59.926
14.3478     30.749    55.949
14.5565     30.035    52.472
14.7683     29.082    49.991
14.9831     27.943    48.279
15.2010     26.414    49.988
15.4221     24.809    53.879
15.6464     23.158    64.788
15.8740     22.415    79.973
16.1049     22.398    98.572
16.3392     23.971   110.398
16.5768     25.607   118.667
16.8179     27.248   122.136
17.0626     28.542   122.352
17.3107     29.655   121.572
17.5625     30.558   119.913
17.8180     31.221   117.803
18.0771     31.774   115.629
18.3401     32.222   113.427
18.6068     32.555   111.249
18.8775     32.806   109.047
19.1521     32.972   106.818
19.4306     33.042   104.575
19.7133     32.944   102.517
20.0000     32.676   101.136
20.2909     32.271   100.947
20.5860     31.790   102.516
20.8855     31.355   106.411
21.1893     31.332   112.721
21.4975     31.819   118.581
21.8102     32.605   122.300
22.1274     33.443   123.426
22.4492     34.106   122.450
22.7758     34.459   120.521
23.1071     34.470   119.033
23.4432     34.220   119.464
23.7841     33.984   123.169
24.1301     34.173   129.185
24.4811     34.912   134.621
24.8372     35.941   137.296
25.1984     36.915   137.107
25.5649     37.623   135.210
25.9368     38.008   133.037
26.3141     38.137   131.826
26.6968     38.162   132.331
27.0851     38.274   134.486
27.4791     38.609   137.358
27.8788     39.134   139.804
28.2843     39.726   141.440
28.6957     40.310   142.481
29.1131     40.869   143.222
29.5365     41.406   143.774
29.9661     41.914   144.152
30.4020     42.375   144.483
30.8442     42.783   145.129
31.2929     43.203   146.278
31.7480     43.697   147.746
32.2098     44.285   149.047
32.6783     44.914   149.692
33.1536     45.497   149.851
33.6359     46.011   149.957
34.1251     46.491   150.376
34.6215     46.998   151.054
35.1250     47.544   151.667
35.6359     48.094   152.004
36.1543     48.618   152.229
36.6802     49.120   152.568
37.2137     49.635   153.049
37.7550     50.173   153.479
38.3041     50.713   153.728
38.8613     51.235   153.912
39.4265     51.749   154.156
40.0000     52.275   154.397
40.5818     52.806   154.475
41.1721     53.309   154.384
41.7710     53.774   154.321
42.3785     54.219   154.465
42.9949     54.665   154.764
43.6203     55.121   155.148
44.2548     55.589   155.627
44.8985     56.082   156.117
45.5515     56.594   156.417
46.2141     57.085   156.514
46.8863     57.544   156.678
47.5683     58.017   157.023
48.2602     58.520   157.179
48.9621     58.991   157.008
49.6743     59.395   156.928
50.3968     59.792   157.246
51.1299     60.234   157.659
51.8736     60.686   157.848
52.6281     61.112   157.958
53.3936     61.529   158.134
54.1702     61.948   158.254
54.9581     62.348   158.296
55.7575     62.728   158.349
56.5685     63.092   158.381
57.3914     63.426   158.410
58.2261     63.726   158.566
59.0730     64.004   158.937
59.9323     64.271   159.564
60.8040     64.557   160.435
61.6884     64.872   161.341
62.5857     65.189   162.152
63.4960     65.493   162.985
64.4196     65.796   163.867
65.3566     66.088   164.702
66.3073     66.347   165.639
67.2717     66.598   166.916
68.2502     66.884   168.359
69.2429     67.191   169.742
70.2501     67.499   171.111
71.2719     67.812   172.493
72.3086     68.134   173.812
73.3603     68.445   174.999
74.4274     68.725   176.170
75.5099     68.985   177.482
76.6083     69.232   178.898
77.7226     69.469  -179.436
78.8531     69.741  -177.598
80.0000     70.031  -175.845
81.1636     70.327  -174.155
82.3442     70.624  -172.598
83.5419     70.900  -171.161
84.7570     71.144  -169.733
85.9899     71.368  -168.214
87.2406     71.575  -166.651
88.5096     71.777  -165.022
89.7970     71.959  -163.644
91.1031     72.023  -162.238
92.4282     72.025  -159.911
93.7726     72.093  -156.968
95.1366     72.204  -153.919
96.5204     72.343  -150.585
97.9243     72.567  -147.226
99.3486     72.812  -144.285
100.794     73.032  -141.565
102.260     73.223  -138.761
103.747     73.424  -136.036
105.256     73.569  -133.347
106.787     73.697  -130.338
108.340     73.855  -127.180
109.916     74.022  -124.183
111.515     74.157  -121.416
113.137     74.228  -118.423
114.783     74.291  -115.279
116.452     74.328  -111.913
118.146     74.357  -108.303
119.865     74.395  -104.504
121.608     74.437  -100.661
123.377     74.465   -96.783
125.171     74.469   -92.800
126.992     74.455   -88.579
128.839     74.446   -84.145
130.713     74.440   -79.664
132.615     74.402   -75.187
134.543     74.324   -70.157
136.500     74.275   -64.807
138.486     74.222   -59.892
140.500     74.200   -54.178
142.544     74.226   -48.427
144.617     74.132   -43.406
146.721     74.033   -37.446
148.855     74.039   -30.947
151.020     74.093   -25.322
153.217     73.930   -20.611
155.445     73.569   -13.924
157.706     73.413    -6.329
160.000     73.317     1.724
162.327     73.267     9.970
164.688     73.341    17.621
167.084     73.535    24.508
169.514     73.470    30.691
171.980     73.207    38.089
174.481     73.060    46.198
177.019     73.020    53.268
179.594     72.708    60.609
182.206     72.300    71.104
184.856     72.303    82.339
187.545     72.366    90.901
190.273     72.196    99.889
193.041     72.109   110.483
195.849     72.141   120.039
198.697     72.042   129.710
201.587     71.825   140.712
204.520     71.799   152.331
207.494     71.888   163.620
210.512     72.084   174.405
213.574     71.972  -176.325
216.681     71.698  -164.705
219.833     71.750  -152.305
223.030     71.868  -139.848
226.274     71.979  -128.638
229.565     71.912  -117.366
232.905     71.730  -106.054
236.292     71.413   -92.640
239.729     71.511   -77.387
243.216     71.736   -63.933
246.754     71.947   -51.611
250.343     71.870   -39.433
253.984     71.790   -25.317
257.678     71.672   -12.413
261.426     71.427     3.062
265.229     71.454    19.552
269.087     71.530    34.103
273.001     71.471    48.813
276.972     71.297    64.619
281.000     71.306    82.538
285.088     71.628   100.524
289.234     72.009   116.577
293.441     72.230   130.579
297.709     71.999   144.978
302.040     71.815   161.273
306.433     71.544   179.284
310.890     71.441  -162.581
315.412     71.357  -142.514
320.000     71.448  -123.527
324.655     71.584  -104.620
329.377     71.814   -86.574
334.168     71.906   -68.206
339.028     71.954   -50.513
343.959     71.549   -31.584
348.962     71.485   -11.109
354.038     71.466     9.703
359.188     71.646    29.709
364.412     71.599    49.841
369.713     71.435    70.817
375.090     71.505    92.458
380.546     71.483   113.729
386.081     71.514   135.265
391.697     71.425   157.277
397.394     71.398   179.742
403.175     71.210  -158.420
409.039     71.106  -135.452
414.989     70.996  -111.527
421.025     70.903   -88.271
427.149     70.685   -65.100
433.362     70.483   -41.446
439.665     70.223   -16.775
446.060     69.888     7.732
452.548     69.500    32.905
459.131     69.094    58.915
465.809     68.673    85.942
472.584     68.195   113.116
479.458     67.694   140.434
486.432     67.110   168.793
493.507     66.479  -161.864
500.686     65.720  -131.548
507.968     64.885  -100.469
515.357     64.005   -68.608
522.853     63.046   -35.044
530.458     61.991     0.456
538.174     60.875    37.443
546.002     59.748    76.385
553.943     58.680   118.694
562.001     57.852   164.648
570.175     57.507  -146.412
578.469     57.777   -96.414
586.883     58.550   -48.383
595.419     59.582    -3.076
604.080     60.702    40.652
612.866     61.799    83.285
621.780     62.822   125.300
630.824     63.755   167.094
640.000     64.579  -151.866
649.309     65.303  -111.348
658.753     65.950   -70.394
668.335     66.536   -28.110
678.056     67.044    13.983
687.919     67.489    56.741
697.925     67.878   100.210
708.077     68.207   143.635
718.376     68.489  -172.165
728.825     68.724  -127.164
739.426     68.916   -81.345
750.181     69.068   -34.689
761.093     69.181    12.818
772.163     69.256    60.396
783.394     69.296   108.845
794.789     69.304   158.972
806.349     69.280  -150.809
818.078     69.225   -99.695
829.977     69.140   -47.681
842.050     69.026     5.239
854.298     68.883    59.069
866.724     68.713   113.008
879.330     68.510   168.675
892.120     68.277  -134.728
905.097     68.012   -77.187
918.262     67.713   -18.688
931.618     67.380    40.791
945.169     67.010   101.276
958.917     66.604   162.801
972.864     66.159  -134.591
987.015     65.676   -70.848
1001.37     65.147    -5.074
1015.94     64.586    61.978
1030.71     64.011   129.540
1045.71     63.417  -160.615
1060.92     62.825   -88.402
1076.35     62.274   -15.500
1092.00     61.788    58.929
1107.89     61.395   135.667
1124.00     61.128  -146.359
1140.35     61.004   -67.423
1156.94     61.018    13.062
1173.77     61.153    93.944
1190.84     61.377   175.048
1208.16     61.652  -103.703
1225.73     61.951   -21.459
1243.56     62.244    61.821
1261.65     62.508   145.363
1280.00     62.725  -130.724
1298.62     62.883   -46.327
1317.51     62.974    39.507
1336.67     62.992   126.904
1356.11     62.934  -144.826
1375.84     62.803   -54.695
1395.85     62.608    37.466
1416.15     62.369   130.983
1436.75     62.119  -134.020
1457.65     61.898   -36.640
1478.85     61.757    63.050
1500.36     61.740   163.946
1522.19     61.870   -93.475
1544.33     62.140    10.372
1566.79     62.516   115.157
1589.58     62.949  -139.287
1612.70     63.389   -33.810
1636.16     63.806    72.509
1659.95     64.176   179.787
1684.10     64.487   -71.867
1708.60     64.731    37.636
1733.45     64.904   147.539
1758.66     65.000  -100.493
1784.24     65.011    12.747
1810.19     64.923   126.482
1836.52     64.719  -117.621
1863.24     64.379    -0.276
1890.34     63.878   118.670
1917.83     63.194  -120.545
1945.73     62.307     2.436
1974.03     61.204   128.958
2002.74     59.916  -101.026
2031.87     58.553    33.408
2061.43     57.363   172.887
2091.41     56.698   -42.525
2121.83     56.747   104.412
2152.69     57.304  -110.730
2184.01     58.023    33.084
2215.77     58.666   176.503
2248.00     59.129   -40.418
2280.70     59.387   103.037
2313.87     59.439  -111.852
2347.53     59.288    35.253
2381.68     58.936  -176.160
2416.32     58.377   -24.978
2451.46     57.613   129.200
2487.12     56.662   -73.118
2523.30     55.583    88.644
2560.00     54.496  -105.123
2597.24     53.563    64.550
2635.01     52.874  -122.490
2673.34     52.369    52.608
2712.23     51.860  -130.484
2751.68     51.176    49.930
2791.70     50.296  -125.225
2832.31     49.468    65.864
2873.50     49.202   -97.021
2915.30     49.804   102.492
2957.70     50.965   -58.246
3000.72     52.207   139.631
3044.37     53.296   -22.558
3088.65     54.184   177.165
3133.58     54.873    18.675
3179.16     55.380  -136.732
3225.40     55.730    71.339
3272.31     55.969   -77.664
3319.91     56.151   137.061
3368.20     56.289    -4.791
3417.19     56.329  -144.274
3466.89     56.182    79.728
3517.32     55.810   -51.062
3568.48     55.321  -177.326
3620.39     54.935    61.778
3673.05     54.771   -54.358
3726.47     54.658  -167.911
3780.67     54.336    81.727
3835.67     53.779   -23.386
3891.46     53.310  -121.181
3948.06     53.259   145.730
4005.49     53.469    54.773
4063.75     53.578   -31.965
4122.86     53.576  -114.082
4182.82     53.783   168.764
4243.66     54.316    96.121
4305.39     54.872    25.038
4368.01     55.210   -42.120
4431.55     55.489  -103.342
4496.01     56.109  -159.270
4561.40     57.075   146.887
4627.75     57.898    94.071
4695.06     58.268    45.719
4763.35     58.458     3.808
4832.64     59.000   -33.140
4902.93     59.699   -68.567
4974.24     59.791  -102.213
5046.60     58.950  -129.645
5120.00     57.888  -144.646
5194.47     57.825  -151.148
5270.03     58.254  -158.543
5346.68     58.121  -163.707
5424.45     57.594  -160.939
5503.35     57.116  -152.091
5583.40     56.378  -138.286
5664.61     55.460  -114.880
5747.01     55.234   -85.231
5830.60     54.986   -56.636
5915.41     53.296   -21.964
6001.45     50.739    31.150
6088.74     50.429   100.305
6177.30     51.904   165.679
6267.15     52.952  -132.456
6358.31     53.141   -67.399
6450.80     52.722     4.981
6544.62     52.021    85.259
6639.82     51.133   176.070
6736.40     51.040   -82.720
6834.38     51.657    18.251
6933.79     51.552   120.859
7034.64     50.777  -128.355
7136.96     49.762    -9.494
7240.77     48.889   120.708
7346.09     49.077  -103.941
7452.94     48.711    25.688
7561.35     45.781   165.390
7671.33     43.785   -25.799
7782.91     44.113   132.395
7896.12     40.183   -56.480
8010.97     42.531   151.233
8127.49     46.049   -43.195
8245.71     45.189   130.186
8365.65     44.162   -28.923
8487.33     45.290  -176.971
8610.78     46.607    34.669
8736.03     47.240  -105.758
8863.09     47.275   119.958
8992.01     45.599     0.039
9122.80     44.166   -97.192
9255.50     44.930   178.959
9390.12     45.785    87.404
9526.70     43.816    16.919
9665.27     45.576   -31.593
9805.86     48.341   -97.990
9948.49     47.048  -159.226
10093.2     45.572   172.320
10240.0     46.207   152.441
10388.9     46.062   135.022
10540.1     45.580   139.094
10693.4     46.627   146.021
10848.9     46.422   163.899
11006.7     47.069  -167.810
11166.8     46.749  -134.158
11329.2     45.662   -81.229
11494.0     46.169   -15.222
11661.2     46.057    55.035
11830.8     45.303   140.219
12002.9     45.438  -119.290
12177.5     44.938   -18.658
12354.6     42.531   104.328
12534.3     41.950  -104.445
12716.6     42.968    46.469
12901.6     43.987  -160.885
13089.2     41.536     5.164
13279.6     39.418  -159.568
13472.8     39.205    61.052
13668.8     40.678   -79.987
13867.6     41.138   150.455
14069.3     42.600    32.861
14273.9     43.308   -76.095
14481.5     44.277  -170.721
14692.2     44.990   103.084
14905.9     44.635    28.347
15122.7     43.021   -29.030
15342.7     41.211   -64.205
15565.8     38.814   -78.578
15792.2     37.406   -77.736
16021.9     34.519   -47.468
16255.0     35.897    -1.228
16491.4     35.763    52.782
16731.3     37.272   126.041
16974.7     39.027  -153.206
17221.6     40.787   -65.722
17472.1     40.761    31.540
17726.2     39.300   152.837
17984.0     37.817   -66.944
18245.6     35.832    97.673
18511.0     33.877   -83.961
18780.2     31.358   118.351
19053.4     28.006   -14.944
19330.5     25.445  -144.891
19611.7     14.681   -24.242
19897.0     23.138   146.367
20186.4     23.474    94.871
20480.0     26.262    71.291
20777.9     28.759    58.359
21080.1     31.193    57.051
21386.7     32.787    75.492
21697.8     33.833   117.112
22013.4     34.975   178.700
22333.6     36.647  -104.241
22658.4     36.990    -8.598
22988.0     36.428   110.371
23322.4     35.584  -105.222
23661.6     35.222    59.561
24005.8     31.487  -112.820
24355.0     28.198   113.705
24709.2     25.482     9.414
25068.6     23.509   -65.405
25433.2     22.615  -109.683
25803.2     23.957  -138.243
26178.5     24.168  -155.325
26559.3     23.794  -141.883
26945.6     21.842  -110.636
27337.5     19.686   -21.602
27735.2     21.394    79.953
28138.6     21.642  -161.475
28547.9     21.925    -6.067
28963.1     20.026   163.156
29384.4     16.466    42.652
29811.8     19.781   -74.971
30245.4     19.431  -169.681
30685.3     21.933   130.682
31131.7     20.897    91.284
31584.5     19.344    86.441
32043.9     18.788   124.274
32510.0     19.832  -178.863
32982.8     18.345  -107.095
33462.6     17.913     6.094
33949.3     12.851   130.328
34443.1     10.429   -34.828
34944.1      6.884   130.681
35452.4      7.647    22.589
35968.0      7.048   -81.311
36491.2      8.279  -130.953
37022.0      9.904   -98.028
37560.5      8.769   -79.276
38106.8      2.941   -25.191
38661.1      1.126    78.266
39223.4      2.701   135.169
39793.9      2.727  -162.118
