Freq[Hz]     dBSPL  Phase[Deg]
5.00000     29.283    -4.813
5.07273     29.295    -4.920
5.14651     29.305    -5.034
5.22137     29.312    -5.171
5.29732     29.319    -5.308
5.37437     29.326    -5.444
5.45254     29.332    -5.581
5.53185     29.337    -5.711
5.61231     29.338    -5.834
5.69394     29.339    -5.958
5.77676     29.340    -6.081
5.86079     29.341    -6.204
5.94604     29.342    -6.275
6.03252     29.343    -6.347
6.12027     29.344    -6.418
6.20929     29.345    -6.489
6.29961     29.354    -6.526
6.39124     29.366    -6.555
6.48420     29.377    -6.585
6.57851     29.388    -6.614
6.67420     29.413    -6.669
6.77128     29.439    -6.728
6.86977     29.466    -6.787
6.96969     29.493    -6.860
7.07107     29.528    -7.030
7.17392     29.563    -7.201
7.27827     29.598    -7.371
7.38413     29.629    -7.609
7.49154     29.657    -7.900
7.60050     29.686    -8.190
7.71105     29.711    -8.484
7.82321     29.722    -8.797
7.93701     29.733    -9.110
8.05245     29.744    -9.423
8.16958     29.746    -9.624
8.28841     29.747    -9.821
8.40896     29.749   -10.018
8.53128     29.771   -10.084
8.65537     29.795   -10.133
8.78126     29.819   -10.182
8.90899     29.894   -10.294
9.03857     29.971   -10.410
9.17004     30.054   -10.577
9.30342     30.175   -11.149
9.43874     30.297   -11.722
9.57603     30.413   -12.588
9.71532     30.520   -13.901
9.85663     30.627   -15.214
10.0000     30.609   -17.084
10.1455     30.556   -19.108
10.2930     30.441   -21.223
10.4427     30.155   -23.589
10.5946     29.869   -25.955
10.7487     29.366   -27.955
10.9051     28.821   -29.882
11.0637     28.137   -30.850
11.2246     27.305   -30.801
11.3879     26.467   -29.778
11.5535     25.604   -25.201
11.7216     24.755   -20.557
11.8921     24.725   -11.970
12.0650     24.696    -3.382
12.2405     25.521     2.109
12.4186     26.456     7.201
12.5992     27.452     7.869
12.7825     28.462     7.557
12.9684     29.231     4.746
13.1570     29.943     1.353
13.3484     30.358    -3.297
13.5426     30.724    -8.151
13.7395     30.762   -13.549
13.9394     30.747   -18.962
14.1421     30.428   -24.322
14.3478     29.992   -29.459
14.5565     29.303   -34.113
14.7683     28.375   -37.786
14.9831     27.262   -40.700
15.2010     25.760   -40.216
15.4221     24.181   -37.558
15.6464     22.557   -27.904
15.8740     21.842   -13.987
16.1049     21.853     3.333
16.3392     23.455    13.856
16.5768     25.121    20.811
16.8179     26.791    22.950
17.0626     28.116    21.816
17.3107     29.260    19.672
17.5625     30.195    16.635
17.8180     30.890    13.124
18.0771     31.475     9.535
18.3401     31.957     5.903
18.6068     32.324     2.275
18.8775     32.608    -1.396
19.1521     32.810    -5.110
19.4306     32.916    -8.853
19.7133     32.854   -12.433
20.0000     32.623   -15.355
20.2909     32.255   -17.102
20.5860     31.812   -17.108
20.8855     31.416   -14.807
21.1893     31.432   -10.113
21.4975     31.959    -5.888
21.8102     32.785    -3.823
22.1274     33.663    -4.370
22.4492     34.368    -7.038
22.7758     34.762   -10.680
23.1071     34.816   -13.901
23.4432     34.610   -15.224
23.7841     34.417   -13.295
24.1301     34.650    -9.075
24.4811     35.433    -5.458
24.8372     36.508    -4.623
25.1984     37.528    -6.673
25.5649     38.282   -10.453
25.9368     38.714   -14.531
26.3141     38.889   -17.671
26.6968     38.962   -19.117
27.0851     39.123   -18.937
27.4791     39.506   -18.062
27.8788     40.079   -17.640
28.2843     40.721   -18.051
28.6957     41.355   -19.080
29.1131     41.964   -20.435
29.5365     42.552   -22.004
29.9661     43.112   -23.772
30.4020     43.624   -25.611
30.8442     44.083   -27.164
31.2929     44.555   -28.241
31.7480     45.102   -29.025
32.2098     45.743   -30.001
32.6783     46.425   -31.665
33.1536     47.062   -33.841
33.6359     47.629   -36.098
34.1251     48.163   -38.071
34.6215     48.725   -39.816
35.1250     49.325   -41.653
35.6359     49.930   -43.800
36.1543     50.508   -46.087
36.6802     51.065   -48.292
37.2137     51.635   -50.387
37.7550     52.229   -52.564
38.3041     52.824   -54.957
38.8613     53.401   -57.446
39.4265     53.971   -59.911
40.0000     54.553   -62.411
40.5818     55.139   -65.111
41.1721     55.698   -68.015
41.7710     56.218   -70.925
42.3785     56.718   -73.667
42.9949     57.221   -76.290
43.6203     57.732   -78.866
44.2548     58.254   -81.386
44.8985     58.804   -83.935
45.5515     59.370   -86.713
46.2141     59.916   -89.733
46.8863     60.430   -92.727
47.5683     60.957   -95.584
48.2602     61.515   -98.672
48.9621     62.041  -102.131
49.6743     62.499  -105.542
50.3968     62.950  -108.599
51.1299     63.445  -111.607
51.8736     63.950  -114.886
52.6281     64.429  -118.290
53.3936     64.900  -121.677
54.1702     65.371  -125.167
54.9581     65.823  -128.785
55.7575     66.254  -132.444
56.5685     66.670  -136.175
57.3914     67.055  -139.959
58.2261     67.404  -143.670
59.0730     67.733  -147.221
59.9323     68.051  -150.570
60.8040     68.384  -153.730
61.6884     68.749  -156.913
62.5857     69.114  -160.247
63.4960     69.466  -163.620
64.4196     69.816  -167.001
65.3566     70.155  -170.492
66.3073     70.460  -173.940
67.2717     70.757  -177.112
68.2502     71.088   179.818
69.2429     71.440   176.625
70.2501     71.791   173.350
71.2719     72.148   170.022
72.3086     72.513   166.562
73.3603     72.867   162.903
74.4274     73.188   159.157
75.5099     73.489   155.480
76.6083     73.776   151.834
77.7226     74.054   148.366
78.8531     74.364   144.993
80.0000     74.694   141.460
81.1636     75.028   137.787
82.3442     75.362   133.902
83.5419     75.674   129.817
84.7570     75.955   125.642
85.9899     76.214   121.476
87.2406     76.456   117.270
88.5096     76.693   113.045
89.7970     76.908   108.482
91.1031     77.004   103.859
92.4282     77.039   100.069
93.7726     77.138    96.805
95.1366     77.281    93.553
96.5204     77.450    90.494
97.9243     77.703    87.365
99.3486     77.978    83.722
100.794     78.226    79.760
102.260     78.444    75.784
103.747     78.672    71.626
105.256     78.844    67.331
106.787     78.998    63.252
108.340     79.180    59.217
109.916     79.371    54.914
111.515     79.529    50.272
113.137     79.625    45.746
114.783     79.710    41.258
116.452     79.768    36.880
118.146     79.818    32.630
119.865     79.876    28.452
121.608     79.939    24.200
123.377     79.985    19.862
125.171     80.008    15.507
126.992     80.012    11.266
128.839     80.019     7.112
130.713     80.029     2.877
132.615     80.006    -1.492
134.543     79.945    -5.622
136.500     79.910    -9.648
138.486     79.870   -13.260
140.500     79.861   -16.929
142.544     79.900   -21.416
144.617     79.817   -25.784
146.721     79.729   -29.215
148.855     79.746   -32.964
151.020     79.809   -37.590
153.217     79.655   -43.133
155.445     79.303   -46.702
157.706     79.154   -49.366
160.000     79.065   -52.430
162.327     79.022   -55.304
164.688     79.101   -57.921
167.084     79.300   -62.160
169.514     79.239   -67.960
171.980     78.980   -72.550
174.481     78.835   -75.575
177.019     78.797   -79.641
179.594     78.486   -84.294
182.206     78.079   -86.654
184.856     78.081   -88.276
187.545     78.144   -91.717
190.273     77.972   -95.591
193.041     77.883   -97.861
195.849     77.912  -101.171
198.697     77.808  -105.228
201.587     77.587  -107.954
204.520     77.554  -110.065
207.494     77.637  -112.509
210.512     77.825  -116.317
213.574     77.705  -121.640
216.681     77.423  -123.758
219.833     77.466  -125.954
223.030     77.572  -128.954
226.274     77.671  -133.201
229.565     77.592  -137.387
232.905     77.397  -141.534
236.292     77.066  -143.580
239.729     77.149  -144.644
243.216     77.358  -147.508
246.754     77.553  -151.504
250.343     77.457  -156.500
253.984     77.358  -159.558
257.678     77.221  -163.826
261.426     76.954  -166.380
265.229     76.959  -167.915
269.087     77.013  -171.387
273.001     76.931  -174.696
276.972     76.733  -176.906
281.000     76.715  -177.856
285.088     77.009  -179.590
289.234     77.362   176.750
293.441     77.554   171.046
297.709     77.293   165.747
302.040     77.079   162.352
306.433     76.776   159.829
310.890     76.638   156.586
315.412     76.518   155.287
320.000     76.573   152.923
324.655     76.674   150.496
329.377     76.867   147.224
334.168     76.918   142.589
339.028     76.926   137.302
343.959     76.479   133.277
348.962     76.374   130.825
354.038     76.315   128.738
359.188     76.451   125.031
364.412     76.361   120.641
369.713     76.154   117.138
375.090     76.183   114.345
380.546     76.118   110.392
386.081     76.109   106.760
391.697     75.982   102.830
397.394     75.920    98.591
403.175     75.702    94.637
409.039     75.574    91.067
414.989     75.447    87.722
421.025     75.347    83.814
427.149     75.135    79.931
433.362     74.955    76.649
439.665     74.739    72.884
446.060     74.472    69.091
452.548     74.185    66.100
459.131     73.920    63.274
465.809     73.692    60.788
472.584     73.464    58.547
479.458     73.280    56.509
486.432     73.098    54.715
493.507     72.971    53.025
500.686     72.834    51.305
507.968     72.735    49.990
515.357     72.711    48.916
522.853     72.751    47.921
530.458     72.841    46.877
538.174     72.970    45.767
546.002     73.133    44.594
553.943     73.325    43.273
562.001     73.536    41.808
570.175     73.758    40.172
578.469     73.982    38.296
586.883     74.199    36.229
595.419     74.402    34.001
604.080     74.592    31.589
612.866     74.766    29.019
621.780     74.922    26.318
630.824     75.057    23.515
640.000     75.168    20.697
649.309     75.256    17.892
658.753     75.324    15.073
668.335     75.373    12.211
678.056     75.405     9.440
687.919     75.422     6.728
697.925     75.429     4.093
708.077     75.429     1.592
718.376     75.428    -0.819
728.825     75.429    -3.141
739.426     75.438    -5.387
750.181     75.459    -7.578
761.093     75.496    -9.743
772.163     75.548   -11.883
783.394     75.617   -14.071
794.789     75.702   -16.381
806.349     75.798   -18.775
818.078     75.902   -21.315
829.977     76.006   -24.016
842.050     76.107   -26.887
854.298     76.196   -29.923
866.724     76.269   -33.063
879.330     76.320   -36.378
892.120     76.346   -39.792
905.097     76.342   -43.270
918.262     76.307   -46.772
931.618     76.239   -50.254
945.169     76.140   -53.672
958.917     76.011   -56.980
972.864     75.856   -60.138
987.015     75.680   -63.105
1001.37     75.483   -65.886
1015.94     75.281   -68.421
1030.71     75.085   -70.677
1045.71     74.899   -72.719
1060.92     74.731   -74.570
1076.35     74.595   -76.228
1092.00     74.491   -77.772
1107.89     74.423   -79.281
1124.00     74.390   -80.798
1140.35     74.391   -82.377
1156.94     74.420   -84.082
1173.77     74.471   -85.928
1190.84     74.539   -87.935
1208.16     74.616   -90.111
1225.73     74.697   -92.484
1243.56     74.775   -95.044
1261.65     74.846   -97.750
1280.00     74.902  -100.571
1298.62     74.942  -103.469
1317.51     74.963  -106.429
1336.67     74.967  -109.403
1356.11     74.957  -112.320
1375.84     74.940  -115.174
1395.85     74.923  -117.956
1416.15     74.916  -120.658
1436.75     74.926  -123.334
1457.65     74.955  -126.081
1478.85     74.997  -128.976
1500.36     75.043  -132.057
1522.19     75.077  -135.373
1544.33     75.081  -138.896
1566.79     75.040  -142.545
1589.58     74.943  -146.188
1612.70     74.789  -149.633
1636.16     74.588  -152.728
1659.95     74.361  -155.324
1684.10     74.143  -157.331
1708.60     73.975  -158.787
1733.45     73.893  -159.859
1758.66     73.915  -160.846
1784.24     74.034  -162.039
1810.19     74.221  -163.644
1836.52     74.444  -165.773
1863.24     74.670  -168.389
1890.34     74.878  -171.406
1917.83     75.056  -174.715
1945.73     75.200  -178.224
1974.03     75.308   178.119
2002.74     75.380   174.402
2031.87     75.419   170.684
2061.43     75.428   167.021
2091.41     75.415   163.429
2121.83     75.390   159.916
2152.69     75.360   156.489
2184.01     75.327   153.050
2215.77     75.284   149.556
2248.00     75.220   146.037
2280.70     75.131   142.554
2313.87     75.019   139.167
2347.53     74.897   135.905
2381.68     74.779   132.720
2416.32     74.662   129.454
2451.46     74.525   126.002
2487.12     74.333   122.397
2523.30     74.058   118.856
2560.00     73.700   115.701
2597.24     73.294   113.209
2635.01     72.888   111.416
2673.34     72.516   110.166
2712.23     72.180   109.290
2751.68     71.869   108.816
2791.70     71.609   108.899
2832.31     71.462   109.461
2873.50     71.466   109.981
2915.30     71.578   109.863
2957.70     71.703   108.986
3000.72     71.781   107.751
3044.37     71.836   106.570
3088.65     71.920   105.391
3133.58     72.034   103.836
3179.16     72.108   101.772
3225.40     72.087    99.622
3272.31     72.007    97.949
3319.91     71.959    96.787
3368.20     71.983    95.605
3417.19     72.019    94.023
3466.89     71.998    92.286
3517.32     71.936    90.854
3568.48     71.898    89.759
3620.39     71.896    88.660
3673.05     71.890    87.480
3726.47     71.876    86.485
3780.67     71.899    85.706
3835.67     71.975    84.805
3891.46     72.058    83.620
3948.06     72.121    82.359
4005.49     72.183    81.148
4063.75     72.251    79.887
4122.86     72.305    78.604
4182.82     72.350    77.478
4243.66     72.417    76.568
4305.39     72.534    75.770
4368.01     72.721    74.798
4431.55     72.943    73.285
4496.01     73.126    71.273
4561.40     73.255    69.213
4627.75     73.379    67.168
4695.06     73.479    64.942
4763.35     73.541    62.935
4832.64     73.683    61.145
4902.93     73.903    58.336
4974.24     73.957    54.289
5046.60     73.750    50.673
5120.00     73.478    48.398
5194.47     73.258    46.683
5270.03     73.019    45.278
5346.68     72.781    44.634
5424.45     72.611    44.698
5503.35     72.561    45.408
5583.40     72.735    46.206
5664.61     73.090    45.730
5747.01     73.393    43.698
5830.60     73.538    41.312
5915.41     73.647    39.299
6001.45     73.789    37.059
6088.74     73.891    34.431
6177.30     73.966    31.640
6267.15     73.999    28.368
6358.31     73.914    24.868
6450.80     73.720    21.589
6544.62     73.450    18.810
6639.82     73.165    16.366
6736.40     72.760    14.013
6834.38     72.247    13.484
6933.79     72.020    14.385
7034.64     71.975    14.220
7136.96     71.915    13.761
7240.77     71.937    12.958
7346.09     71.946    11.346
7452.94     71.897     9.250
7561.35     71.768     6.611
7671.33     71.447     3.566
7782.91     70.905     1.287
7896.12     70.211    -0.029
8010.97     69.307     0.769
8127.49     68.513     5.048
8245.71     68.180    11.197
8365.65     68.268    17.384
8487.33     68.853    22.191
8610.78     69.592    23.538
8736.03     70.221    22.176
8863.09     70.591    19.329
8992.01     70.770    15.403
9122.80     70.573    11.501
9255.50     70.333     9.297
9390.12     70.114     7.292
9526.70     70.034     6.273
9665.27     70.095     4.338
9805.86     70.257     1.802
9948.49     70.341    -1.973
10093.2     70.354    -5.926
10240.0     70.297    -9.877
10388.9     70.219   -14.440
10540.1     69.925   -19.232
10693.4     69.386   -23.376
10848.9     68.812   -24.437
11006.7     68.662   -24.804
11166.8     68.814   -26.516
11329.2     69.090   -30.743
11494.0     69.155   -38.489
11661.2     68.674   -47.030
11830.8     67.981   -55.158
12002.9     66.913   -64.999
12177.5     65.221   -74.144
12354.6     62.882   -81.404
12534.3     60.048   -82.734
12716.6     57.523   -79.109
12901.6     55.590   -73.316
13089.2     53.428   -78.038
13279.6     45.403   -86.813
13472.8     38.460    40.841
13668.8     52.587    67.067
13867.6     57.734    52.956
14069.3     60.260    39.999
14273.9     61.649    28.109
14481.5     62.472    17.926
14692.2     62.959     6.502
14905.9     62.621    -4.911
15122.7     61.713   -13.293
15342.7     60.370   -16.715
15565.8     59.971   -15.697
15792.2     59.792   -21.826
16021.9     58.440   -31.135
16255.0     55.911   -31.895
16491.4     54.005   -23.042
16731.3     53.294   -10.237
16974.7     54.130     3.652
17221.6     56.882     3.846
17472.1     58.383   -13.511
17726.2     57.958   -35.928
17984.0     55.827   -57.389
18245.6     52.626   -80.120
18511.0     48.133  -110.069
18780.2     44.796  -163.436
19053.4     46.621   136.996
19330.5     49.532   106.503
19611.7     51.515    87.235
19897.0     52.228    73.932
20186.4     52.374    66.438
20480.0     52.449    62.716
20777.9     52.841    58.223
21080.1     52.607    51.324
21386.7     51.808    45.418
21697.8     49.782    43.328
22013.4     48.177    56.939
22333.6     48.676    72.880
22658.4     50.426    81.730
22988.0     52.380    83.247
23322.4     53.869    79.352
23661.6     55.487    74.769
24005.8     56.738    63.238
24355.0     57.207    50.823
24709.2     57.216    39.421
25068.6     57.243    28.818
25433.2     57.269    16.544
25803.2     57.313     2.259
26178.5     57.016   -16.939
26559.3     56.104   -35.793
26945.6     55.297   -57.397
27337.5     53.642   -83.950
27735.2     50.998  -106.355
28138.6     49.305  -126.114
28547.9     47.855  -149.752
28963.1     46.629  -177.914
29384.4     44.137   160.704
29811.8     44.149   159.678
30245.4     46.890   135.944
30685.3     47.138   104.451
31131.7     46.955    78.043
31584.5     46.770    45.712
32043.9     45.639     4.554
32510.0     42.385   -44.287
32982.8     37.146   -94.847
33462.6     30.018  -158.405
33949.3     27.501   102.439
34443.1     32.713    13.361
34944.1     35.379   -45.958
35452.4     36.090   -93.973
35968.0     33.740  -140.890
36491.2     23.078   143.444
37022.0     24.551   -40.710
37560.5     30.435   -72.250
38106.8     32.676   -94.246
38661.1     33.220  -114.210
39223.4     32.009  -131.032
39793.9     30.883  -133.379
