"SPL Vertical"																																																																							
"On-Axis"		"10°"		"-10°"		"20°"		"-20°"		"30°"		"-30°"		"40°"		"-40°"		"50°"		"-50°"		"60°"		"-60°"		"70°"		"-70°"		"80°"		"-80°"		"90°"		"-90°"		"100°"		"-100°"		"110°"		"-110°"		"120°"		"-120°"		"130°"		"-130°"		"140°"		"-140°"		"150°"		"-150°"		"160°"		"-160°"		"170°"		"-170°"		"180°"	
"Frequency [Hz]"	"Sound Pessure Level [dB]  / [2.83V 1m] "	"Frequency [Hz]"	"Sound Pessure Level [dB]  / [2.83V 1m] "	"Frequency [Hz]"	"Sound Pessure Level [dB]  / [2.83V 1m] "	"Frequency [Hz]"	"Sound Pessure Level [dB]  / [2.83V 1m] "	"Frequency [Hz]"	"Sound Pessure Level [dB]  / [2.83V 1m] "	"Frequency [Hz]"	"Sound Pessure Level [dB]  / [2.83V 1m] "	"Frequency [Hz]"	"Sound Pessure Level [dB]  / [2.83V 1m] "	"Frequency [Hz]"	"Sound Pessure Level [dB]  / [2.83V 1m] "	"Frequency [Hz]"	"Sound Pessure Level [dB]  / [2.83V 1m] "	"Frequency [Hz]"	"Sound Pessure Level [dB]  / [2.83V 1m] "	"Frequency [Hz]"	"Sound Pessure Level [dB]  / [2.83V 1m] "	"Frequency [Hz]"	"Sound Pessure Level [dB]  / [2.83V 1m] "	"Frequency [Hz]"	"Sound Pessure Level [dB]  / [2.83V 1m] "	"Frequency [Hz]"	"Sound Pessure Level [dB]  / [2.83V 1m] "	"Frequency [Hz]"	"Sound Pessure Level [dB]  / [2.83V 1m] "	"Frequency [Hz]"	"Sound Pessure Level [dB]  / [2.83V 1m] "	"Frequency [Hz]"	"Sound Pessure Level [dB]  / [2.83V 1m] "	"Frequency [Hz]"	"Sound Pessure Level [dB]  / [2.83V 1m] "	"Frequency [Hz]"	"Sound Pessure Level [dB]  / [2.83V 1m] "	"Frequency [Hz]"	"Sound Pessure Level [dB]  / [2.83V 1m] "	"Frequency [Hz]"	"Sound Pessure Level [dB]  / [2.83V 1m] "	"Frequency [Hz]"	"Sound Pessure Level [dB]  / [2.83V 1m] "	"Frequency [Hz]"	"Sound Pessure Level [dB]  / [2.83V 1m] "	"Frequency [Hz]"	"Sound Pessure Level [dB]  / [2.83V 1m] "	"Frequency [Hz]"	"Sound Pessure Level [dB]  / [2.83V 1m] "	"Frequency [Hz]"	"Sound Pessure Level [dB]  / [2.83V 1m] "	"Frequency [Hz]"	"Sound Pessure Level [dB]  / [2.83V 1m] "	"Frequency [Hz]"	"Sound Pessure Level [dB]  / [2.83V 1m] "	"Frequency [Hz]"	"Sound Pessure Level [dB]  / [2.83V 1m] "	"Frequency [Hz]"	"Sound Pessure Level [dB]  / [2.83V 1m] "	"Frequency [Hz]"	"Sound Pessure Level [dB]  / [2.83V 1m] "	"Frequency [Hz]"	"Sound Pessure Level [dB]  / [2.83V 1m] "	"Frequency [Hz]"	"Sound Pessure Level [dB]  / [2.83V 1m] "	"Frequency [Hz]"	"Sound Pessure Level [dB]  / [2.83V 1m] "	"Frequency [Hz]"	"Sound Pessure Level [dB]  / [2.83V 1m] "	"Frequency [Hz]"	"Sound Pessure Level [dB]  / [2.83V 1m] "
20.5078	59.3516	20.5078	59.0854	20.5078	59.6407	20.5078	58.8515	20.5078	59.9397	20.5078	58.6547	20.5078	60.2333	20.5078	58.4946	20.5078	60.5061	20.5078	58.3666	20.5078	60.7429	20.5078	58.2629	20.5078	60.9303	20.5078	58.175	20.5078	61.0568	20.5078	58.0952	20.5078	61.1137	20.5078	58.0183	20.5078	61.095	20.5078	57.9429	20.5078	60.9979	20.5078	57.8718	20.5078	60.8235	20.5078	57.8126	20.5078	60.5768	20.5078	57.7771	20.5078	60.2676	20.5078	57.7798	20.5078	59.9103	20.5078	57.8363	20.5078	59.524	20.5078	57.9597	20.5078	59.1317	20.5078	58.1571	20.5078	58.7581	20.5078	58.4269
21.2402	60.5946	21.2402	60.3311	21.2402	60.8766	21.2402	60.0949	21.2402	61.1656	21.2402	59.8909	21.2402	61.4481	21.2402	59.7198	21.2402	61.71	21.2402	59.5786	21.2402	61.9377	21.2402	59.4621	21.2402	62.1191	21.2402	59.3639	21.2402	62.2435	21.2402	59.2787	21.2402	62.3029	21.2402	59.2032	21.2402	62.2918	21.2402	59.1375	21.2402	62.2078	21.2402	59.085	21.2402	62.0519	21.2402	59.0529	21.2402	61.829	21.2402	59.0511	21.2402	61.5479	21.2402	59.0911	21.2402	61.2215	21.2402	59.1837	21.2402	60.8664	21.2402	59.3366	21.2402	60.5019	21.2402	59.5523	21.2402	60.1487	21.2402	59.8267
21.9727	61.1668	21.9727	60.9028	21.9727	61.4492	21.9727	60.6654	21.9727	61.7385	21.9727	60.4593	21.9727	62.0215	21.9727	60.2852	21.9727	62.2844	21.9727	60.14	21.9727	62.5138	21.9727	60.0185	21.9727	62.6975	21.9727	59.915	21.9727	62.8252	21.9727	59.8244	21.9727	62.8885	21.9727	59.744	21.9727	62.8821	21.9727	59.6746	21.9727	62.8034	21.9727	59.6203	21.9727	62.6531	21.9727	59.5892	21.9727	62.4355	21.9727	59.5918	21.9727	62.159	21.9727	59.6395	21.9727	61.8357	21.9727	59.7429	21.9727	61.4813	21.9727	59.9086	21.9727	61.1144	21.9727	60.1376	21.9727	60.7553	21.9727	60.4239
22.7051	61.9528	22.7051	61.6863	22.7051	62.2347	22.7051	61.4432	22.7051	62.5212	22.7051	61.2283	22.7051	62.7997	22.7051	61.043	22.7051	63.0574	22.7051	60.8851	22.7051	63.2816	22.7051	60.7508	22.7051	63.4606	22.7051	60.6353	22.7051	63.5845	22.7051	60.535	22.7051	63.6455	22.7051	60.4481	22.7051	63.6381	22.7051	60.3759	22.7051	63.5598	22.7051	60.323	22.7051	63.4111	22.7051	60.2973	22.7051	63.1964	22.7051	60.3086	22.7051	62.9233	22.7051	60.3674	22.7051	62.6034	22.7051	60.4829	22.7051	62.2518	22.7051	60.66	22.7051	61.8864	22.7051	60.8985	22.7051	61.5265	22.7051	61.1915
23.4375	62.4967	23.4375	62.2452	23.4375	62.7629	23.4375	62.0155	23.4375	63.0337	23.4375	61.8119	23.4375	63.2973	23.4375	61.6348	23.4375	63.5413	23.4375	61.4821	23.4375	63.7534	23.4375	61.3497	23.4375	63.9221	23.4375	61.233	23.4375	64.0378	23.4375	61.1286	23.4375	64.0925	23.4375	61.035	23.4375	64.0809	23.4375	60.9538	23.4375	64.0004	23.4375	60.8901	23.4375	63.8516	23.4375	60.8521	23.4375	63.6384	23.4375	60.8503	23.4375	63.3686	23.4375	60.8957	23.4375	63.0536	23.4375	60.9979	23.4375	62.7081	23.4375	61.1626	23.4375	62.3499	23.4375	61.3897	23.4375	61.9982	23.4375	61.6725
24.1699	63.0437	24.1699	62.8002	24.1699	63.3011	24.1699	62.5777	24.1699	63.5627	24.1699	62.38	24.1699	63.817	24.1699	62.2076	24.1699	64.052	24.1699	62.0585	24.1699	64.2555	24.1699	61.9286	24.1699	64.4164	24.1699	61.8136	24.1699	64.525	24.1699	61.7101	24.1699	64.5736	24.1699	61.6167	24.1699	64.5571	24.1699	61.5347	24.1699	64.473	24.1699	61.4691	24.1699	64.322	24.1699	61.4276	24.1699	64.1086	24.1699	61.4204	24.1699	63.8405	24.1699	61.4582	24.1699	63.5295	24.1699	61.5505	24.1699	63.1904	24.1699	61.7035	24.1699	62.841	24.1699	61.9176	24.1699	62.5003	24.1699	62.1871
25.6348	64.3182	25.6348	64.0851	25.6348	64.5624	25.6348	63.8696	25.6348	64.8091	25.6348	63.6754	25.6348	65.048	25.6348	63.5033	25.6348	65.2681	25.6348	63.3521	25.6348	65.4582	25.6348	63.2187	25.6348	65.6083	25.6348	63.1003	25.6348	65.7094	25.6348	62.9943	25.6348	65.7543	25.6348	62.9005	25.6348	65.7382	25.6348	62.8209	25.6348	65.6589	25.6348	62.7605	25.6348	65.5172	25.6348	62.7267	25.6348	65.3169	25.6348	62.7285	25.6348	65.0656	25.6348	62.7751	25.6348	64.7737	25.6348	62.8743	25.6348	64.4551	25.6348	63.03	25.6348	64.1256	25.6348	63.2416	25.6348	63.8025	25.6348	63.5029
26.3672	65.0481	26.3672	64.8272	26.3672	65.2785	26.3672	64.6216	26.3672	65.5102	26.3672	64.435	26.3672	65.7337	26.3672	64.2683	26.3672	65.9385	26.3672	64.1206	26.3672	66.1144	26.3672	63.9896	26.3672	66.2516	26.3672	63.8725	26.3672	66.3418	26.3672	63.7677	26.3672	66.3782	26.3672	63.6749	26.3672	66.3563	26.3672	63.5961	26.3672	66.2743	26.3672	63.5358	26.3672	66.1331	26.3672	63.5009	26.3672	65.9369	26.3672	63.4996	26.3672	65.6932	26.3672	63.5403	26.3672	65.4126	26.3672	63.63	26.3672	65.1084	26.3672	63.7728	26.3672	64.796	26.3672	63.9683	26.3672	64.4917	26.3672	64.2112
27.0996	65.6322	27.0996	65.4133	27.0996	65.8591	27.0996	65.2083	27.0996	66.0862	27.0996	65.0208	27.0996	66.3043	27.0996	64.852	27.0996	66.5036	27.0996	64.7014	27.0996	66.6741	27.0996	64.5672	27.0996	66.8068	27.0996	64.4475	27.0996	66.8934	27.0996	64.3409	27.0996	66.9276	27.0996	64.2476	27.0996	66.9052	27.0996	64.1698	27.0996	66.8243	27.0996	64.1123	27.0996	66.6861	27.0996	64.0815	27.0996	66.4947	27.0996	64.0851	27.0996	66.2571	27.0996	64.1309	27.0996	65.9837	27.0996	64.2251	27.0996	65.6871	27.0996	64.3707	27.0996	65.3821	27.0996	64.5668	27.0996	65.0839	27.0996	64.8078
27.832	66.1398	27.832	65.9153	27.832	66.371	27.832	65.7037	27.832	66.6014	27.832	65.5086	27.832	66.822	27.832	65.3319	27.832	67.0231	27.832	65.1735	27.832	67.1951	27.832	65.032	27.832	67.3292	27.832	64.9062	27.832	67.4173	27.832	64.7952	27.832	67.4534	27.832	64.6996	27.832	67.4331	27.832	64.6222	27.832	67.3548	27.832	64.5676	27.832	67.2191	27.832	64.5424	27.832	67.03	27.832	64.5542	27.832	66.7943	27.832	64.61	27.832	66.5217	27.832	64.7154	27.832	66.2243	27.832	64.8725	27.832	65.9165	27.832	65.0795	27.832	65.6134	27.832	65.3299
29.2969	67.2762	29.2969	67.0571	29.2969	67.5007	29.2969	66.8493	29.2969	67.7233	29.2969	66.6569	29.2969	67.9355	29.2969	66.4819	29.2969	68.1284	29.2969	66.3251	29.2969	68.2931	29.2969	66.1861	29.2969	68.4213	29.2969	66.0642	29.2969	68.5057	29.2969	65.9593	29.2969	68.5405	29.2969	65.8723	29.2969	68.5221	29.2969	65.8059	29.2969	68.4489	29.2969	65.7641	29.2969	68.3219	29.2969	65.7523	29.2969	68.1449	29.2969	65.7766	29.2969	67.9245	29.2969	65.8424	29.2969	67.6696	29.2969	65.9535	29.2969	67.3917	29.2969	66.1108	29.2969	67.1037	29.2969	66.3121	29.2969	66.8191	29.2969	66.5513
30.0293	67.6651	30.0293	67.4495	30.0293	67.8855	30.0293	67.2443	30.0293	68.1034	30.0293	67.0533	30.0293	68.3108	30.0293	66.8788	30.0293	68.4989	30.0293	66.7213	30.0293	68.659	30.0293	66.5805	30.0293	68.783	30.0293	66.4561	30.0293	68.8638	30.0293	66.3481	30.0293	68.8957	30.0293	66.2576	30.0293	68.8751	30.0293	66.1875	30.0293	68.8006	30.0293	66.1421	30.0293	68.6731	30.0293	66.1272	30.0293	68.4964	30.0293	66.1487	30.0293	68.2769	30.0293	66.2121	30.0293	68.0237	30.0293	66.3211	30.0293	67.7477	30.0293	66.4767	30.0293	67.4619	30.0293	66.6763	30.0293	67.1794	30.0293	66.9136
31.4941	68.742	31.4941	68.5338	31.4941	68.9536	31.4941	68.3344	31.4941	69.1618	31.4941	68.1477	31.4941	69.3592	31.4941	67.9762	31.4941	69.5378	31.4941	67.8212	31.4941	69.6898	31.4941	67.6833	31.4941	69.8076	31.4941	67.5628	31.4941	69.885	31.4941	67.4604	31.4941	69.9169	31.4941	67.3777	31.4941	69.8999	31.4941	67.3176	31.4941	69.8329	31.4941	67.2841	31.4941	69.7169	31.4941	67.2817	31.4941	69.5553	31.4941	67.3154	31.4941	69.354	31.4941	67.389	31.4941	69.121	31.4941	67.5046	31.4941	68.8662	31.4941	67.6619	31.4941	68.6009	31.4941	67.8576	31.4941	68.3367	31.4941	68.0854
32.2266	69.1627	32.2266	68.9525	32.2266	69.3752	32.2266	68.7499	32.2266	69.5833	32.2266	68.559	32.2266	69.7798	32.2266	68.3826	32.2266	69.9568	32.2266	68.2225	32.2266	70.1068	32.2266	68.0794	32.2266	70.2227	32.2266	67.9543	32.2266	70.2983	32.2266	67.8482	32.2266	70.3288	32.2266	67.7633	32.2266	70.3109	32.2266	67.7025	32.2266	70.2437	32.2266	67.6699	32.2266	70.128	32.2266	67.6702	32.2266	69.9674	32.2266	67.7078	32.2266	69.7674	32.2266	67.7862	32.2266	69.5358	32.2266	67.907	32.2266	69.2822	32.2266	68.0692	32.2266	69.0173	32.2266	68.269	32.2266	68.7527	32.2266	68.4998
33.6914	69.9603	33.6914	69.7563	33.6914	70.1646	33.6914	69.5577	33.6914	70.3631	33.6914	69.3684	33.6914	70.5489	33.6914	69.1911	33.6914	70.7147	33.6914	69.0275	33.6914	70.8534	33.6914	68.8788	33.6914	70.9583	33.6914	68.746	33.6914	71.0235	33.6914	68.6306	33.6914	71.0445	33.6914	68.5351	33.6914	71.0184	33.6914	68.4631	33.6914	70.9441	33.6914	68.4191	33.6914	70.8229	33.6914	68.4081	33.6914	70.658	33.6914	68.4352	33.6914	70.4553	33.6914	68.5041	33.6914	70.2223	33.6914	68.6167	33.6914	69.9685	33.6914	68.772	33.6914	69.7047	33.6914	68.9661	33.6914	69.4423	33.6914	69.1926
34.4238	70.4507	34.4238	70.2477	34.4238	70.6537	34.4238	70.0496	34.4238	70.8505	34.4238	69.8604	34.4238	71.0344	34.4238	69.6831	34.4238	71.1984	34.4238	69.5196	34.4238	71.3356	34.4238	69.3713	34.4238	71.4395	34.4238	69.2397	34.4238	71.5045	34.4238	69.1265	34.4238	71.5262	34.4238	69.0342	34.4238	71.5019	34.4238	68.9665	34.4238	71.4306	34.4238	68.9277	34.4238	71.3135	34.4238	68.9224	34.4238	71.1538	34.4238	68.9552	34.4238	70.957	34.4238	69.0292	34.4238	70.7305	34.4238	69.1455	34.4238	70.4832	34.4238	69.303	34.4238	70.2254	34.4238	69.4973	34.4238	69.968	34.4238	69.7219
35.8887	71.3551	35.8887	71.1577	35.8887	71.5512	35.8887	70.964	35.8887	71.7403	35.8887	70.778	35.8887	71.916	35.8887	70.6026	35.8887	72.0716	35.8887	70.44	35.8887	72.2006	35.8887	70.2919	35.8887	72.2969	35.8887	70.16	35.8887	72.3552	35.8887	70.046	35.8887	72.3715	35.8887	69.9528	35.8887	72.3431	35.8887	69.8836	35.8887	72.2692	35.8887	69.8426	35.8887	72.1511	35.8887	69.8344	35.8887	71.9921	35.8887	69.863	35.8887	71.7976	35.8887	69.9317	35.8887	71.5749	35.8887	70.0415	35.8887	71.3329	35.8887	70.1913	35.8887	71.0816	35.8887	70.3775	35.8887	70.8317	35.8887	70.5937
37.3535	72.1038	37.3535	71.9122	37.3535	72.2937	37.3535	71.7235	37.3535	72.4762	37.3535	71.5418	37.3535	72.6453	37.3535	71.37	37.3535	72.7947	37.3535	71.2106	37.3535	72.9184	37.3535	71.0655	37.3535	73.0104	37.3535	70.9364	37.3535	73.0661	37.3535	70.8257	37.3535	73.0815	37.3535	70.7361	37.3535	73.0543	37.3535	70.6711	37.3535	72.9839	37.3535	70.6346	37.3535	72.8714	37.3535	70.6308	37.3535	72.7202	37.3535	70.6633	37.3535	72.5353	37.3535	70.7345	37.3535	72.3235	37.3535	70.8451	37.3535	72.093	37.3535	70.9934	37.3535	71.8532	37.3535	71.1754	37.3535	71.6139	37.3535	71.3849
38.8184	72.9179	38.8184	72.7364	38.8184	73.0961	38.8184	72.5561	38.8184	73.2661	38.8184	72.3809	38.8184	73.4221	38.8184	72.2138	38.8184	73.5587	38.8184	72.0573	38.8184	73.6703	38.8184	71.9139	38.8184	73.7519	38.8184	71.7857	38.8184	73.799	38.8184	71.6753	38.8184	73.8084	38.8184	71.5859	38.8184	73.7782	38.8184	71.521	38.8184	73.7081	38.8184	71.4846	38.8184	73.5995	38.8184	71.4806	38.8184	73.4553	38.8184	71.5122	38.8184	73.2804	38.8184	71.5812	38.8184	73.0811	38.8184	71.6876	38.8184	72.8649	38.8184	71.8294	38.8184	72.6401	38.8184	72.0022	38.8184	72.4155	38.8184	72.2001
39.5508	73.3645	39.5508	73.1914	39.5508	73.5331	39.5508	73.0181	39.5508	73.6924	39.5508	72.8481	39.5508	73.8372	39.5508	72.6844	39.5508	73.9624	39.5508	72.5296	39.5508	74.0627	39.5508	72.3859	39.5508	74.1333	39.5508	72.2557	39.5508	74.1705	39.5508	72.1415	39.5508	74.1711	39.5508	72.0467	39.5508	74.1336	39.5508	71.9749	39.5508	74.0578	39.5508	71.9303	39.5508	73.9453	39.5508	71.9169	39.5508	73.7994	39.5508	71.9383	39.5508	73.6248	39.5508	71.9964	39.5508	73.4278	39.5508	72.0918	39.5508	73.2157	39.5508	72.2226	39.5508	72.9969	39.5508	72.385	39.5508	72.7798	39.5508	72.5731
41.0156	74.819	41.0156	74.6379	41.0156	74.9956	41.0156	74.4569	41.0156	75.1628	41.0156	74.2802	41.0156	75.3155	41.0156	74.1113	41.0156	75.4485	41.0156	73.9534	41.0156	75.5568	41.0156	73.8096	41.0156	75.6358	41.0156	73.6826	41.0156	75.6818	41.0156	73.5755	41.0156	75.6917	41.0156	73.4912	41.0156	75.6639	41.0156	73.4333	41.0156	75.5981	41.0156	73.4052	41.0156	75.4954	41.0156	73.4098	41.0156	75.3586	41.0156	73.4495	41.0156	75.1921	41.0156	73.5253	41.0156	75.0017	41.0156	73.6366	41.0156	74.7942	41.0156	73.7808	41.0156	74.5774	41.0156	73.9536	41.0156	74.3595	41.0156	74.1489
42.4805	74.9623	42.4805	74.7846	42.4805	75.1355	42.4805	74.607	42.4805	75.2996	42.4805	74.4334	42.4805	75.4495	42.4805	74.2673	42.4805	75.5801	42.4805	74.1118	42.4805	75.6866	42.4805	73.9699	42.4805	75.7644	42.4805	73.8444	42.4805	75.8099	42.4805	73.7384	42.4805	75.8203	42.4805	73.6551	42.4805	75.7937	42.4805	73.5981	42.4805	75.73	42.4805	73.5709	42.4805	75.6303	42.4805	73.5764	42.4805	75.4974	42.4805	73.617	42.4805	75.3353	42.4805	73.6934	42.4805	75.1496	42.4805	73.8049	42.4805	74.9468	42.4805	73.9486	42.4805	74.7345	42.4805	74.1201	42.4805	74.5206	42.4805	74.3131
43.9453	75.6723	43.9453	75.4985	43.9453	75.8403	43.9453	75.3232	43.9453	75.9979	43.9453	75.1503	43.9453	76.1404	43.9453	74.9834	43.9453	76.2632	43.9453	74.8259	43.9453	76.3616	43.9453	74.6808	43.9453	76.4316	43.9453	74.5515	43.9453	76.4699	43.9453	74.4412	43.9453	76.4739	43.9453	74.3535	43.9453	76.4421	43.9453	74.292	43.9453	76.3746	43.9453	74.2603	43.9453	76.2725	43.9453	74.2617	43.9453	76.1387	43.9453	74.2981	43.9453	75.9771	43.9453	74.3704	43.9453	75.7932	43.9453	74.4776	43.9453	75.5934	43.9453	74.617	43.9453	75.3848	43.9453	74.7839	43.9453	75.1751	43.9453	74.9723
45.4102	76.3578	45.4102	76.188	45.4102	76.5206	45.4102	76.0156	45.4102	76.6722	45.4102	75.8445	45.4102	76.808	45.4102	75.6783	45.4102	76.9236	45.4102	75.5208	45.4102	77.0148	45.4102	75.3751	45.4102	77.0779	45.4102	75.2448	45.4102	77.1099	45.4102	75.1335	45.4102	77.1087	45.4102	75.0448	45.4102	77.073	45.4102	74.9823	45.4102	77.003	45.4102	74.9498	45.4102	76.9004	45.4102	74.9499	45.4102	76.7677	45.4102	74.9846	45.4102	76.6092	45.4102	75.0545	45.4102	76.4299	45.4102	75.1583	45.4102	76.236	45.4102	75.293	45.4102	76.0342	45.4102	75.4542	45.4102	75.8317	45.4102	75.636
47.6074	77.5444	47.6074	77.3859	47.6074	77.6948	47.6074	77.2234	47.6074	77.8331	47.6074	77.0608	47.6074	77.9554	47.6074	76.9018	47.6074	78.0577	47.6074	76.7502	47.6074	78.1367	47.6074	76.6097	47.6074	78.1891	47.6074	76.4841	47.6074	78.2127	47.6074	76.3771	47.6074	78.2059	47.6074	76.2925	47.6074	78.168	47.6074	76.234	47.6074	78.0996	47.6074	76.2046	47.6074	78.0023	47.6074	76.2068	47.6074	77.8789	47.6074	76.2416	47.6074	77.7331	47.6074	76.309	47.6074	77.5695	47.6074	76.4072	47.6074	77.3933	47.6074	76.5329	47.6074	77.2103	47.6074	76.6818	47.6074	77.0266	47.6074	76.8483
49.0723	78.3339	49.0723	78.1866	49.0723	78.4727	49.0723	78.0345	49.0723	78.5995	49.0723	77.8814	49.0723	78.7104	49.0723	77.7309	49.0723	78.8023	49.0723	77.5867	49.0723	78.8719	49.0723	77.4525	49.0723	78.9167	49.0723	77.332	49.0723	78.9348	49.0723	77.2291	49.0723	78.9248	49.0723	77.1475	49.0723	78.8865	49.0723	77.0908	49.0723	78.8205	49.0723	77.0618	49.0723	78.7286	49.0723	77.063	49.0723	78.6131	49.0723	77.0952	49.0723	78.4777	49.0723	77.1581	49.0723	78.3263	49.0723	77.2499	49.0723	78.1637	49.0723	77.3671	49.0723	77.9948	49.0723	77.5056	49.0723	77.8251	49.0723	77.6601
50.5371	78.9767	50.5371	78.8305	50.5371	79.1136	50.5371	78.6785	50.5371	79.2374	50.5371	78.5245	50.5371	79.3448	50.5371	78.3723	50.5371	79.4326	50.5371	78.2257	50.5371	79.498	50.5371	78.0888	50.5371	79.5387	50.5371	77.9654	50.5371	79.553	50.5371	77.8597	50.5371	79.54	50.5371	77.7756	50.5371	79.4995	50.5371	77.717	50.5371	79.4323	50.5371	77.6869	50.5371	79.3402	50.5371	77.6875	50.5371	79.2256	50.5371	77.7198	50.5371	79.0918	50.5371	77.7832	50.5371	78.9428	50.5371	77.8755	50.5371	78.7827	50.5371	77.9931	50.5371	78.6163	50.5371	78.1314	50.5371	78.4486	50.5371	78.2852
52.7344	79.8263	52.7344	79.6824	52.7344	79.9596	52.7344	79.5316	52.7344	80.0789	52.7344	79.3778	52.7344	80.1807	52.7344	79.2251	52.7344	80.2623	52.7344	79.0775	52.7344	80.3211	52.7344	78.9394	52.7344	80.3552	52.7344	78.8149	52.7344	80.3633	52.7344	78.7084	52.7344	80.3447	52.7344	78.6238	52.7344	80.3	52.7344	78.565	52.7344	80.23	52.7344	78.5348	52.7344	80.1369	52.7344	78.5352	52.7344	80.0232	52.7344	78.5668	52.7344	79.8921	52.7344	78.6287	52.7344	79.7472	52.7344	78.7184	52.7344	79.5926	52.7344	78.8324	52.7344	79.4324	52.7344	78.966	52.7344	79.2713	52.7344	79.1141
54.1992	80.5145	54.1992	80.3779	54.1992	80.6398	54.1992	80.2337	54.1992	80.7505	54.1992	80.0859	54.1992	80.8436	54.1992	79.9384	54.1992	80.9164	54.1992	79.7956	54.1992	80.9667	54.1992	79.6617	54.1992	80.993	54.1992	79.541	54.1992	80.9944	54.1992	79.4378	54.1992	80.9707	54.1992	79.3561	54.1992	80.9227	54.1992	79.2994	54.1992	80.8518	54.1992	79.2703	54.1992	80.7602	54.1992	79.2703	54.1992	80.6507	54.1992	79.2998	54.1992	80.5263	54.1992	79.3575	54.1992	80.3906	54.1992	79.4409	54.1992	80.2469	54.1992	79.5465	54.1992	80.0989	54.1992	79.6698	54.1992	79.9506	54.1992	79.8061
56.3965	81.3465	56.3965	81.2115	56.3965	81.4699	56.3965	81.0685	56.3965	81.5783	56.3965	80.9216	56.3965	81.6686	56.3965	80.7751	56.3965	81.7386	56.3965	80.6337	56.3965	81.7862	56.3965	80.5019	56.3965	81.8103	56.3965	80.3845	56.3965	81.8102	56.3965	80.2858	56.3965	81.7863	56.3965	80.21	56.3965	81.7396	56.3965	80.1602	56.3965	81.6718	56.3965	80.1387	56.3965	81.5852	56.3965	80.1466	56.3965	81.4825	56.3965	80.1831	56.3965	81.3667	56.3965	80.2465	56.3965	81.2406	56.3965	80.3335	56.3965	81.1072	56.3965	80.4399	56.3965	80.9693	56.3965	80.5612	56.3965	80.83	56.3965	80.6927
58.5938	82.1331	58.5938	81.9984	58.5938	82.2554	58.5938	81.8552	58.5938	82.362	58.5938	81.7076	58.5938	82.45	58.5938	81.5602	58.5938	82.5172	58.5938	81.4178	58.5938	82.562	58.5938	81.2853	58.5938	82.5832	58.5938	81.1678	58.5938	82.5808	58.5938	81.0699	58.5938	82.5553	58.5938	80.9957	58.5938	82.5079	58.5938	80.9486	58.5938	82.4408	58.5938	80.9306	58.5938	82.3563	58.5938	80.9424	58.5938	82.2572	58.5938	80.9831	58.5938	82.1462	58.5938	81.0502	58.5938	82.0258	58.5938	81.14	58.5938	81.8985	58.5938	81.2479	58.5938	81.7665	58.5938	81.369	58.5938	81.6322	58.5938	81.4985
60.0586	82.5305	60.0586	82.3926	60.0586	82.6554	60.0586	82.2457	60.0586	82.7639	60.0586	82.0943	60.0586	82.8531	60.0586	81.9432	60.0586	82.9207	60.0586	81.7974	60.0586	82.9651	60.0586	81.6622	60.0586	82.9854	60.0586	81.5429	60.0586	82.9816	60.0586	81.4442	60.0586	82.9542	60.0586	81.3704	60.0586	82.905	60.0586	81.3247	60.0586	82.836	60.0586	81.3092	60.0586	82.75	60.0586	81.324	60.0586	82.6499	60.0586	81.368	60.0586	82.5385	60.0586	81.4383	60.0586	82.4183	60.0586	81.5309	60.0586	82.2915	60.0586	81.6408	60.0586	82.1602	60.0586	81.7631	60.0586	82.0265	60.0586	81.893
62.2559	83.113	62.2559	82.9696	62.2559	83.242	62.2559	82.8158	62.2559	83.3531	62.2559	82.6563	62.2559	83.4434	62.2559	82.4961	62.2559	83.5109	62.2559	82.3407	62.2559	83.5539	62.2559	82.196	62.2559	83.5719	62.2559	82.0676	62.2559	83.565	62.2559	81.9611	62.2559	83.5342	62.2559	81.8811	62.2559	83.4811	62.2559	81.8314	62.2559	83.4083	62.2559	81.8141	62.2559	83.3185	62.2559	81.8297	62.2559	83.2147	62.2559	81.8767	62.2559	83.0997	62.2559	81.9517	62.2559	82.9759	62.2559	82.0502	62.2559	82.8454	62.2559	82.1668	62.2559	82.7098	62.2559	82.2958	62.2559	82.5712	62.2559	82.432
64.4531	83.6929	64.4531	83.55	64.4531	83.8202	64.4531	83.3958	64.4531	83.9286	64.4531	83.235	64.4531	84.0154	64.4531	83.0727	64.4531	84.0784	64.4531	82.9147	64.4531	84.1164	64.4531	82.767	64.4531	84.129	64.4531	82.6355	64.4531	84.1165	64.4531	82.5258	64.4531	84.0803	64.4531	82.443	64.4531	84.0225	64.4531	82.3908	64.4531	83.9459	64.4531	82.3715	64.4531	83.8534	64.4531	82.3853	64.4531	83.7483	64.4531	82.4308	64.4531	83.6334	64.4531	82.5046	64.4531	83.5109	64.4531	82.6017	64.4531	83.3825	64.4531	82.7167	64.4531	83.2496	64.4531	82.8437	64.4531	83.1139	64.4531	82.9775
66.6504	84.1858	66.6504	84.0392	66.6504	84.316	66.6504	83.8805	66.6504	84.4263	66.6504	83.7147	66.6504	84.5137	66.6504	83.5471	66.6504	84.5762	66.6504	83.384	66.6504	84.6126	66.6504	83.2314	66.6504	84.6225	66.6504	83.0956	66.6504	84.6066	66.6504	82.9824	66.6504	84.5662	66.6504	82.8969	66.6504	84.5038	66.6504	82.843	66.6504	84.4225	66.6504	82.8228	66.6504	84.3257	66.6504	82.8365	66.6504	84.2166	66.6504	82.8825	66.6504	84.0985	66.6504	82.9571	66.6504	83.9734	66.6504	83.0553	66.6504	83.8431	66.6504	83.1715	66.6504	83.7089	66.6504	83.2997	66.6504	83.572	66.6504	83.4346
69.5801	84.7197	69.5801	84.5679	69.5801	84.8549	69.5801	84.404	69.5801	84.9697	69.5801	84.2335	69.5801	85.0613	69.5801	84.0623	69.5801	85.1275	69.5801	83.8969	69.5801	85.1672	69.5801	83.7442	69.5801	85.1802	69.5801	83.6106	69.5801	85.1673	69.5801	83.5025	69.5801	85.1302	69.5801	83.4248	69.5801	85.0717	69.5801	83.3812	69.5801	84.995	69.5801	83.3732	69.5801	84.9035	69.5801	83.4003	69.5801	84.8008	69.5801	83.4597	69.5801	84.6895	69.5801	83.5467	69.5801	84.5714	69.5801	83.6555	69.5801	84.4478	69.5801	83.7796	69.5801	84.319	69.5801	83.9127	69.5801	84.1857	69.5801	84.0494
71.7773	85.1356	71.7773	84.9848	71.7773	85.2687	71.7773	84.8208	71.7773	85.3802	71.7773	84.6493	71.7773	85.4674	71.7773	84.4762	71.7773	85.5283	71.7773	84.3085	71.7773	85.562	71.7773	84.1532	71.7773	85.5685	71.7773	84.0172	71.7773	85.5491	71.7773	83.9071	71.7773	85.5061	71.7773	83.828	71.7773	85.4425	71.7773	83.7837	71.7773	85.362	71.7773	83.7758	71.7773	85.2688	71.7773	83.8035	71.7773	85.1664	71.7773	83.8636	71.7773	85.0576	71.7773	83.9511	71.7773	84.9439	71.7773	84.0597	71.7773	84.8259	71.7773	84.1824	71.7773	84.7033	71.7773	84.3127	71.7773	84.5762	71.7773	84.4453
73.9746	85.5506	73.9746	85.3998	73.9746	85.6831	73.9746	85.2353	73.9746	85.7934	73.9746	85.0629	73.9746	85.8787	73.9746	84.8888	73.9746	85.9369	73.9746	84.7202	73.9746	85.9674	73.9746	84.5642	73.9746	85.9702	73.9746	84.428	73.9746	85.947	73.9746	84.3181	73.9746	85.9	73.9746	84.2399	73.9746	85.8329	73.9746	84.1969	73.9746	85.7498	73.9746	84.1905	73.9746	85.6549	73.9746	84.2197	73.9746	85.5524	73.9746	84.2809	73.9746	85.4449	73.9746	84.3688	73.9746	85.334	73.9746	84.4768	73.9746	85.2199	73.9746	84.5977	73.9746	85.1022	73.9746	84.7252	73.9746	84.98	73.9746	84.8538
76.9043	86.0192	76.9043	85.8669	76.9043	86.1523	76.9043	85.7003	76.9043	86.2622	76.9043	85.5253	76.9043	86.346	76.9043	85.3486	76.9043	86.402	76.9043	85.1776	76.9043	86.4293	76.9043	85.0199	76.9043	86.4286	76.9043	84.883	76.9043	86.4014	76.9043	84.7737	76.9043	86.3507	76.9043	84.6973	76.9043	86.2805	76.9043	84.6574	76.9043	86.1953	76.9043	84.655	76.9043	86.0999	76.9043	84.6885	76.9043	85.9985	76.9043	84.754	76.9043	85.894	76.9043	84.8455	76.9043	85.7876	76.9043	84.9556	76.9043	85.679	76.9043	85.0772	76.9043	85.5672	76.9043	85.2033	76.9043	85.4506	76.9043	85.3289
79.834	86.4781	79.834	86.3202	79.834	86.6154	79.834	86.147	79.834	86.7281	79.834	85.9648	79.834	86.8132	79.834	85.7806	79.834	86.8687	79.834	85.6023	79.834	86.8942	79.834	85.438	79.834	86.89	79.834	85.2957	79.834	86.8582	79.834	85.1826	79.834	86.8021	79.834	85.1044	79.834	86.726	79.834	85.0647	79.834	86.6352	79.834	85.0644	79.834	86.535	79.834	85.1015	79.834	86.43	79.834	85.1714	79.834	86.3234	79.834	85.2675	79.834	86.2165	79.834	85.382	79.834	86.1087	79.834	85.507	79.834	85.9981	79.834	85.6352	79.834	85.8827	79.834	85.7615
82.7637	86.8233	82.7637	86.6612	82.7637	86.964	82.7637	86.483	82.7637	87.0789	82.7637	86.295	82.7637	87.1651	82.7637	86.1048	82.7637	87.2206	82.7637	85.9205	82.7637	87.2449	82.7637	85.7505	82.7637	87.2386	82.7637	85.6033	82.7637	87.2038	82.7637	85.4865	82.7637	87.144	82.7637	85.4058	82.7637	87.0637	82.7637	85.3651	82.7637	86.9686	82.7637	85.3652	82.7637	86.8644	82.7637	85.404	82.7637	86.7559	82.7637	85.4764	82.7637	86.6466	82.7637	85.5754	82.7637	86.5377	82.7637	85.6929	82.7637	86.4287	82.7637	85.8205	82.7637	86.3172	82.7637	85.9509	82.7637	86.201	82.7637	86.0787
85.6934	87.0759	85.6934	86.9101	85.6934	87.2199	85.6934	86.7281	85.6934	87.3377	85.6934	86.5367	85.6934	87.4261	85.6934	86.3439	85.6934	87.4834	85.6934	86.1584	85.6934	87.5089	85.6934	85.9891	85.6934	87.5037	85.6934	85.8449	85.6934	87.4702	85.6934	85.7336	85.6934	87.4122	85.6934	85.661	85.6934	87.3347	85.6934	85.6306	85.6934	87.2438	85.6934	85.6425	85.6934	87.1453	85.6934	85.6937	85.6934	87.0441	85.6934	85.7784	85.6934	86.9434	85.6934	85.8885	85.6934	86.8437	85.6934	86.0149	85.6934	86.7435	85.6934	86.1488	85.6934	86.6398	85.6934	86.2823	85.6934	86.5294	85.6934	86.4102
88.623	87.3792	88.623	87.2102	88.623	87.525	88.623	87.0238	88.623	87.6431	88.623	86.8272	88.623	87.7304	88.623	86.6285	88.623	87.7852	88.623	86.437	88.623	87.8072	88.623	86.2623	88.623	87.7975	88.623	86.1138	88.623	87.759	88.623	85.9998	88.623	87.6959	88.623	85.9266	88.623	87.6138	88.623	85.8978	88.623	87.5193	88.623	85.9132	88.623	87.4188	88.623	85.9695	88.623	87.3175	88.623	86.06	88.623	87.2187	88.623	86.1758	88.623	87.1227	88.623	86.3071	88.623	87.0273	88.623	86.4442	88.623	86.9285	88.623	86.579	88.623	86.8223	88.623	86.7059
91.5527	87.606	91.5527	87.4334	91.5527	87.7539	91.5527	87.242	91.5527	87.8725	91.5527	87.0392	91.5527	87.9587	91.5527	86.8335	91.5527	88.011	91.5527	86.6346	91.5527	88.0291	91.5527	86.4526	91.5527	88.0145	91.5527	86.2977	91.5527	87.9703	91.5527	86.1786	91.5527	87.9011	91.5527	86.1022	91.5527	87.8133	91.5527	86.0722	91.5527	87.7137	91.5527	86.0886	91.5527	87.6095	91.5527	86.1476	91.5527	87.5063	91.5527	86.242	91.5527	87.4073	91.5527	86.3623	91.5527	87.3125	91.5527	86.4977	91.5527	87.2192	91.5527	86.6383	91.5527	87.1228	91.5527	86.7752	91.5527	87.0184	91.5527	86.9028
94.4824	87.8001	94.4824	87.6238	94.4824	87.9495	94.4824	87.4268	94.4824	88.0676	94.4824	87.2167	94.4824	88.1512	94.4824	87.0022	94.4824	88.1989	94.4824	86.7936	94.4824	88.2106	94.4824	86.6014	94.4824	88.1881	94.4824	86.4365	94.4824	88.1348	94.4824	86.3084	94.4824	88.0561	94.4824	86.2246	94.4824	87.9589	94.4824	86.1894	94.4824	87.851	94.4824	86.2031	94.4824	87.7402	94.4824	86.2619	94.4824	87.6327	94.4824	86.358	94.4824	87.5318	94.4824	86.4814	94.4824	87.4372	94.4824	86.6206	94.4824	87.3454	94.4824	86.7645	94.4824	87.2509	94.4824	86.9039	94.4824	87.148	94.4824	87.0326
98.1445	88.0084	98.1445	87.8305	98.1445	88.1587	98.1445	87.6313	98.1445	88.2766	98.1445	87.4186	98.1445	88.3587	98.1445	87.2018	98.1445	88.4035	98.1445	86.9912	98.1445	88.4108	98.1445	86.7976	98.1445	88.3825	98.1445	86.6318	98.1445	88.3222	98.1445	86.5035	98.1445	88.2355	98.1445	86.4197	98.1445	88.1301	98.1445	86.3845	98.1445	88.0143	98.1445	86.3977	98.1445	87.8969	98.1445	86.4553	98.1445	87.7846	98.1445	86.5493	98.1445	87.6813	98.1445	86.6694	98.1445	87.5868	98.1445	86.8045	98.1445	87.4974	98.1445	86.9434	98.1445	87.4071	98.1445	87.0772	98.1445	87.3095	98.1445	87.2
101.807	88.1199	101.807	87.9374	101.807	88.2725	101.807	87.7317	101.807	88.3905	101.807	87.511	101.807	88.4705	101.807	87.2852	101.807	88.511	101.807	87.0654	101.807	88.5121	101.807	86.8633	101.807	88.4761	101.807	86.6907	101.807	88.4072	101.807	86.5582	101.807	88.3118	101.807	86.4736	101.807	88.1984	101.807	86.4411	101.807	88.0768	101.807	86.4604	101.807	87.9563	101.807	86.5264	101.807	87.8448	101.807	86.6301	101.807	87.7459	101.807	86.7597	101.807	87.6589	101.807	86.9026	101.807	87.5787	101.807	87.0468	101.807	87.4976	101.807	87.1826	101.807	87.4079	101.807	87.3036
105.469	88.2991	105.469	88.1138	105.469	88.453	105.469	87.9041	105.469	88.5705	105.469	87.6786	105.469	88.648	105.469	87.4476	105.469	88.6839	105.469	87.2225	105.469	88.6783	105.469	87.0157	105.469	88.6336	105.469	86.8391	105.469	88.5543	105.469	86.7034	105.469	88.4472	105.469	86.6166	105.469	88.3217	105.469	86.5828	105.469	88.1885	105.469	86.6011	105.469	88.0583	105.469	86.6661	105.469	87.9398	105.469	86.7684	105.469	87.8375	105.469	86.8959	105.469	87.7508	105.469	87.0355	105.469	87.6741	105.469	87.175	105.469	87.5988	105.469	87.3049	105.469	87.5161	105.469	87.4191
109.131	88.4939	109.131	88.3033	109.131	88.6516	109.131	88.0869	109.131	88.771	109.131	87.8539	109.131	88.8485	109.131	87.6151	109.131	88.8824	109.131	87.3829	109.131	88.8732	109.131	87.1704	109.131	88.8232	109.131	86.9905	109.131	88.7374	109.131	86.8544	109.131	88.6235	109.131	86.7705	109.131	88.4913	109.131	86.7426	109.131	88.3528	109.131	86.7691	109.131	88.2196	109.131	86.8437	109.131	88.1012	109.131	86.9554	109.131	88.0023	109.131	87.091	109.131	87.9218	109.131	87.2366	109.131	87.8531	109.131	87.3793	109.131	87.7864	109.131	87.5092	109.131	87.7114	109.131	87.6203
112.793	88.6697	112.793	88.4709	112.793	88.8335	112.793	88.2447	112.793	88.9569	112.793	88.0005	112.793	89.0364	112.793	87.7497	112.793	89.0703	112.793	87.5054	112.793	89.059	112.793	87.2818	112.793	89.005	112.793	87.0929	112.793	88.9135	112.793	86.951	112.793	88.7927	112.793	86.8653	112.793	88.6534	112.793	86.8399	112.793	88.5081	112.793	86.873	112.793	88.3698	112.793	86.9573	112.793	88.2487	112.793	87.0806	112.793	88.15	112.793	87.2281	112.793	88.0723	112.793	87.3845	112.793	88.008	112.793	87.5357	112.793	87.946	112.793	87.671	112.793	87.8744	112.793	87.7842
116.455	88.8049	116.455	88.6075	116.455	88.9651	116.455	88.3802	116.455	89.0826	116.455	88.1327	116.455	89.1539	116.455	87.8764	116.455	89.1774	116.455	87.6248	116.455	89.1537	116.455	87.3926	116.455	89.0858	116.455	87.1944	116.455	88.9792	116.455	87.0436	116.455	88.8429	116.455	86.9503	116.455	88.689	116.455	86.9194	116.455	88.5315	116.455	86.9495	116.455	88.385	116.455	87.0331	116.455	88.261	116.455	87.1573	116.455	88.1651	116.455	87.3064	116.455	88.0952	116.455	87.4635	116.455	88.042	116.455	87.6138	116.455	87.9924	116.455	87.7455	116.455	87.9325	116.455	87.852
120.85	88.9666	120.85	88.7677	120.85	89.1274	120.85	88.5384	120.85	89.2444	120.85	88.2885	120.85	89.3137	120.85	88.0295	120.85	89.3334	120.85	87.7748	120.85	89.3034	120.85	87.5389	120.85	89.2261	120.85	87.3364	120.85	89.1068	120.85	87.1803	120.85	88.954	120.85	87.0803	120.85	88.7799	120.85	87.041	120.85	88.5996	120.85	87.061	120.85	88.4292	120.85	87.1327	120.85	88.2827	120.85	87.2432	120.85	88.1683	120.85	87.377	120.85	88.086	120.85	87.5179	120.85	88.0276	120.85	87.6515	120.85	87.9796	120.85	87.7669	120.85	87.9273	120.85	87.8587
125.244	89.0243	125.244	88.8155	125.244	89.1943	125.244	88.5759	125.244	89.3193	125.244	88.3161	125.244	89.3952	125.244	88.0486	125.244	89.42	125.244	87.7876	125.244	89.3936	125.244	87.5486	125.244	89.3185	125.244	87.347	125.244	89.2002	125.244	87.1961	125.244	89.0477	125.244	87.1055	125.244	88.8734	125.244	87.079	125.244	88.6931	125.244	87.1139	125.244	88.5236	125.244	87.201	125.244	88.3792	125.244	87.3262	125.244	88.2682	125.244	87.4727	125.244	88.1904	125.244	87.6236	125.244	88.1368	125.244	87.7643	125.244	88.0933	125.244	87.8837	125.244	88.0441	125.244	87.9767
129.639	89.025	129.639	88.8124	129.639	89.1971	129.639	88.5681	129.639	89.3225	129.639	88.3027	129.639	89.3971	129.639	88.0296	129.639	89.4188	129.639	87.7641	129.639	89.388	129.639	87.5224	129.639	89.3073	129.639	87.3208	129.639	89.1826	129.639	87.1733	129.639	89.0235	129.639	87.0894	129.639	88.8435	129.639	87.0724	129.639	88.6595	129.639	87.1183	129.639	88.4891	129.639	87.2166	129.639	88.3477	129.639	87.3518	129.639	88.2438	129.639	87.5061	129.639	88.1762	129.639	87.6616	129.639	88.1348	129.639	87.8034	129.639	88.1037	129.639	87.9203	129.639	88.0658	129.639	88.0074
134.033	89.0112	134.033	88.7903	134.033	89.1897	134.033	88.5358	134.033	89.3194	134.033	88.2593	134.033	89.396	134.033	87.9749	134.033	89.4174	134.033	87.6991	134.033	89.3841	134.033	87.4495	134.033	89.2987	134.033	87.2438	134.033	89.1675	134.033	87.097	134.033	89.0007	134.033	87.0192	134.033	88.8126	134.033	87.0131	134.033	88.6212	134.033	87.0735	134.033	88.446	134.033	87.1878	134.033	88.3035	134.033	87.3384	134.033	88.2029	134.033	87.5054	134.033	88.143	134.033	87.6701	134.033	88.1122	134.033	87.8163	134.033	88.0928	134.033	87.9332	134.033	88.0658	134.033	88.0156
138.428	88.989	138.428	88.759	138.428	89.1741	138.428	88.4934	138.428	89.3077	138.428	88.204	138.428	89.3856	138.428	87.9059	138.428	89.4058	138.428	87.6164	138.428	89.3685	138.428	87.3549	138.428	89.2769	138.428	87.1405	138.428	89.1373	138.428	86.9895	138.428	88.9604	138.428	86.9126	138.428	88.7613	138.428	86.9126	138.428	88.5595	138.428	86.983	138.428	88.3757	138.428	87.1094	138.428	88.2281	138.428	87.2723	138.428	88.1268	138.428	87.4501	138.428	88.0702	138.428	87.6227	138.428	88.046	138.428	87.7734	138.428	88.0344	138.428	87.8908	138.428	88.0149	138.428	87.9704
143.555	88.9689	143.555	88.7243	143.555	89.165	143.555	88.4406	143.555	89.3061	143.555	88.1302	143.555	89.388	143.555	87.8089	143.555	89.4089	143.555	87.4958	143.555	89.3694	143.555	87.2121	143.555	89.2726	143.555	86.9792	143.555	89.1252	143.555	86.8158	143.555	88.9382	143.555	86.7341	143.555	88.7275	143.555	86.7368	143.555	88.5132	143.555	86.8164	143.555	88.3175	143.555	86.9564	143.555	88.1597	143.555	87.1345	143.555	88.0508	143.555	87.3272	143.555	87.9895	143.555	87.5126	143.555	87.9628	143.555	87.6734	143.555	87.9499	143.555	87.798	143.555	87.9291	143.555	87.8821
148.682	89.0281	148.682	88.7767	148.682	89.2261	148.682	88.4806	148.682	89.3645	148.682	88.1524	148.682	89.4399	148.682	87.8081	148.682	89.451	148.682	87.4677	148.682	89.3989	148.682	87.1546	148.682	89.2875	148.682	86.8932	148.682	89.1241	148.682	86.7056	148.682	88.9207	148.682	86.6074	148.682	88.6948	148.682	86.6034	148.682	88.4682	148.682	86.686	148.682	88.2648	148.682	86.837	148.682	88.1049	148.682	87.0313	148.682	87.9992	148.682	87.2424	148.682	87.9448	148.682	87.4459	148.682	87.9257	148.682	87.6223	148.682	87.9188	148.682	87.759	148.682	87.9001	148.682	87.8506
153.809	88.9293	153.809	88.6789	153.809	89.1224	153.809	88.3795	153.809	89.2525	153.809	88.0431	153.809	89.3164	153.809	87.6852	153.809	89.313	153.809	87.326	153.809	89.2433	153.809	86.9889	153.809	89.1113	153.809	86.6998	153.809	88.9247	153.809	86.4829	153.809	88.6959	153.809	86.3566	153.809	88.4432	153.809	86.3285	153.809	88.1904	153.809	86.3927	153.809	87.9636	153.809	86.5314	153.809	87.7855	153.809	86.7187	153.809	87.6683	153.809	86.9264	153.809	87.609	153.809	87.1283	153.809	87.5903	153.809	87.3036	153.809	87.5868	153.809	87.4384	153.809	87.5726	153.809	87.5271
159.668	89.0418	159.668	88.7846	159.668	89.2397	159.668	88.4763	159.668	89.373	159.668	88.1284	159.668	89.4386	159.668	87.7569	159.668	89.4355	159.668	87.3822	159.668	89.3649	159.668	87.0292	159.668	89.2305	159.668	86.7258	159.668	89.0401	159.668	86.4987	159.668	88.8064	159.668	86.3684	159.668	88.5483	159.668	86.3435	159.668	88.2908	159.668	86.4177	159.668	88.0614	159.668	86.5711	159.668	87.8842	159.668	86.7757	159.668	87.7714	159.668	87.0009	159.668	87.7189	159.668	87.2189	159.668	87.7072	159.668	87.4078	159.668	87.7088	159.668	87.5531	159.668	87.6963	159.668	87.6484
164.795	89.1244	164.795	88.8753	164.795	89.3145	164.795	88.5748	164.795	89.4405	164.795	88.2337	164.795	89.4993	164.795	87.8667	164.795	89.4895	164.795	87.493	164.795	89.412	164.795	87.1366	164.795	89.2704	164.795	86.8252	164.795	89.0725	164.795	86.5867	164.795	88.8313	164.795	86.4442	164.795	88.5672	164.795	86.4095	164.795	88.3067	164.795	86.479	164.795	88.0798	164.795	86.6342	164.795	87.9115	164.795	86.8461	164.795	87.8141	164.795	87.0824	164.795	87.7809	164.795	87.3125	164.795	87.7889	164.795	87.5122	164.795	87.807	164.795	87.6647	164.795	87.8054	164.795	87.7619
170.654	89.0933	170.654	88.8379	170.654	89.2895	170.654	88.5319	170.654	89.4203	170.654	88.187	170.654	89.4816	170.654	87.8185	170.654	89.4713	170.654	87.4464	170.654	89.3894	170.654	87.0947	170.654	89.2388	170.654	86.7914	170.654	89.027	170.654	86.5641	170.654	88.7678	170.654	86.4354	170.654	88.4829	170.654	86.4159	170.654	88.2024	170.654	86.5007	170.654	87.9605	170.654	86.6698	170.654	87.7876	170.654	86.8927	170.654	87.6985	170.654	87.1356	170.654	87.6857	170.654	87.3671	170.654	87.7224	170.654	87.5619	170.654	87.772	170.654	87.7028	170.654	87.8001	170.654	87.7816
176.514	88.9359	176.514	88.6722	176.514	89.1382	176.514	88.3561	176.514	89.2727	176.514	87.9997	176.514	89.335	176.514	87.6189	176.514	89.3228	176.514	87.2346	176.514	89.2359	176.514	86.872	176.514	89.0771	176.514	86.5602	176.514	88.8538	176.514	86.3285	176.514	88.5796	176.514	86.2006	176.514	88.277	176.514	86.1872	176.514	87.9775	176.514	86.2824	176.514	87.7184	176.514	86.4638	176.514	87.5333	176.514	86.6983	176.514	87.4396	176.514	86.95	176.514	87.431	176.514	87.1859	176.514	87.4787	176.514	87.3799	176.514	87.5433	176.514	87.5148	176.514	87.5873	176.514	87.5829
183.105	88.7978	183.105	88.5142	183.105	89.0152	183.105	88.1734	183.105	89.1603	183.105	87.7876	183.105	89.2289	183.105	87.3734	183.105	89.2188	183.105	86.9525	183.105	89.1302	183.105	86.5524	183.105	88.966	183.105	86.2053	183.105	88.7336	183.105	85.9446	183.105	88.4468	183.105	85.7977	183.105	88.1287	183.105	85.7781	183.105	87.8117	183.105	85.8792	183.105	87.5344	183.105	86.0758	183.105	87.3322	183.105	86.3309	183.105	87.2238	183.105	86.6048	183.105	87.2029	183.105	86.8621	183.105	87.24	183.105	87.0755	183.105	87.2943	183.105	87.2274	183.105	87.3272	183.105	87.3101
189.697	88.824	189.697	88.5528	189.697	89.0266	189.697	88.2219	189.697	89.1542	189.697	87.8433	189.697	89.2027	189.697	87.4326	189.697	89.1701	189.697	87.0101	189.697	89.0567	189.697	86.6011	189.697	88.866	189.697	86.2357	189.697	88.6066	189.697	85.9462	189.697	88.2942	189.697	85.762	189.697	87.9546	189.697	85.7011	189.697	87.6239	189.697	85.7639	189.697	87.344	189.697	85.9311	189.697	87.151	189.697	86.1692	189.697	87.0609	189.697	86.4384	189.697	87.0608	189.697	86.701	189.697	87.115	189.697	86.926	189.697	87.1785	189.697	87.0918	189.697	87.2115	189.697	87.187
196.289	88.8949	196.289	88.6338	196.289	89.0865	196.289	88.3135	196.289	89.2009	196.289	87.9477	196.289	89.2333	196.289	87.5546	196.289	89.1807	196.289	87.1568	196.289	89.0431	196.289	86.7818	196.289	88.8239	196.289	86.4606	196.289	88.5325	196.289	86.2241	196.289	88.1874	196.289	86.0965	196.289	87.8194	196.289	86.0889	196.289	87.4725	196.289	86.194	196.289	87.1976	196.289	86.3877	196.289	87.0371	196.289	86.6347	196.289	87.0058	196.289	86.8967	196.289	87.0822	196.289	87.1385	196.289	87.2185	196.289	87.3315	196.289	87.3606	196.289	87.4556	196.289	87.4639	196.289	87.4998
202.881	88.6193	202.881	88.3319	202.881	88.8321	202.881	87.9829	202.881	88.961	202.881	87.5895	202.881	88.9996	202.881	87.1743	202.881	88.944	202.881	86.7652	202.881	88.7929	202.881	86.395	202.881	88.5491	202.881	86.0983	202.881	88.2214	202.881	85.9059	202.881	87.8286	202.881	85.8369	202.881	87.4044	202.881	85.8923	202.881	86.9997	202.881	86.0536	202.881	86.6773	202.881	86.2875	202.881	86.4929	202.881	86.5545	202.881	86.4697	202.881	86.8157	202.881	86.5844	202.881	87.0381	202.881	86.7794	202.881	87.1965	202.881	86.9894	202.881	87.2737	202.881	87.1612	202.881	87.2613
210.205	88.4452	210.205	88.1325	210.205	88.6745	210.205	87.7478	210.205	88.8123	210.205	87.3066	210.205	88.853	210.205	86.8304	210.205	88.793	210.205	86.3482	210.205	88.6309	210.205	85.8977	210.205	88.3682	210.205	85.5238	210.205	88.0122	210.205	85.2719	210.205	87.5803	210.205	85.1754	210.205	87.1067	210.205	85.2425	210.205	86.6475	210.205	85.451	210.205	86.2767	210.205	85.7553	210.205	86.0656	210.205	86.1007	210.205	86.0472	210.205	86.436	210.205	86.1949	210.205	86.7199	210.205	86.4374	210.205	86.9223	210.205	86.6935	210.205	87.0239	210.205	86.8992	210.205	87.0154
217.529	88.5282	217.529	88.1775	217.529	88.7861	217.529	87.7465	217.529	88.9431	217.529	87.2532	217.529	88.994	217.529	86.7232	217.529	88.9359	217.529	86.1909	217.529	88.7678	217.529	85.7	217.529	88.4912	217.529	85.3004	217.529	88.1126	217.529	85.0392	217.529	87.648	217.529	84.9472	217.529	87.1301	217.529	85.0261	217.529	86.6152	217.529	85.2473	217.529	86.1822	217.529	85.5611	217.529	85.9124	217.529	85.9119	217.529	85.8506	217.529	86.2491	217.529	85.976	217.529	86.5325	217.529	86.2137	217.529	86.7325	217.529	86.4753	217.529	86.8297	217.529	86.69	217.529	86.8147
225.586	88.7994	225.586	88.4378	225.586	89.0531	225.586	87.9763	225.586	89.1938	225.586	87.429	225.586	89.2187	225.586	86.8184	225.586	89.1257	225.586	86.1803	225.586	88.9133	225.586	85.5682	225.586	88.5813	225.586	85.0538	225.586	88.134	225.586	84.7153	225.586	87.5855	225.586	84.6111	225.586	86.9709	225.586	84.7499	225.586	86.3586	225.586	85.0847	225.586	85.8541	225.586	85.5349	225.586	85.5738	225.586	86.017	225.586	85.5806	225.586	86.4633	225.586	85.8354	225.586	86.8247	225.586	86.2228	225.586	87.0683	225.586	86.6199	225.586	87.1734	225.586	86.9384	225.586	87.1295
232.91	89.1729	232.91	88.8464	232.91	89.3939	232.91	88.4191	232.91	89.5067	232.91	87.8992	232.91	89.5089	232.91	87.3009	232.91	89.3979	232.91	86.6482	232.91	89.17	232.91	85.9799	232.91	88.8208	232.91	85.3546	232.91	88.3467	232.91	84.8486	232.91	87.7501	232.91	84.5401	232.91	87.048	232.91	84.4769	232.91	86.2879	232.91	84.6483	232.91	85.564	232.91	84.9878	232.91	85.0163	232.91	85.4034	232.91	84.7764	232.91	85.8088	232.91	84.8759	232.91	86.137	232.91	85.2164	232.91	86.3424	232.91	85.6429	232.91	86.397	232.91	86.0263	232.91	86.2893
241.699	88.8996	241.699	88.5511	241.699	89.1533	241.699	88.1142	241.699	89.3074	241.699	87.5985	241.699	89.3578	241.699	87.0191	241.699	89.3003	241.699	86.4005	241.699	89.1303	241.699	85.781	241.699	88.8426	241.699	85.2162	241.699	88.4327	241.699	84.7756	241.699	87.9003	241.699	84.5249	241.699	87.2564	241.699	84.4977	241.699	86.5347	241.699	84.6741	241.699	85.8061	241.699	84.988	241.699	85.1845	241.699	85.3542	241.699	84.7987	241.699	85.6943	241.699	84.7221	241.699	85.949	241.699	84.9161	241.699	86.0795	241.699	85.2586	241.699	86.0657	241.699	85.6195	241.699	85.9056
249.756	89.1071	249.756	88.7202	249.756	89.3851	249.756	88.229	249.756	89.5515	249.756	87.6417	249.756	89.6049	249.756	86.9725	249.756	89.5441	249.756	86.246	249.756	89.3678	249.756	85.5046	249.756	89.0744	249.756	84.8149	249.756	88.663	249.756	84.2669	249.756	88.1365	249.756	83.9517	249.756	87.5082	249.756	83.918	249.756	86.8114	249.756	84.1382	249.756	86.1106	249.756	84.5219	249.756	85.5036	249.756	84.9604	249.756	85.0975	249.756	85.363	249.756	84.9546	249.756	85.6686	249.756	85.0493	249.756	85.8431	249.756	85.2861	249.756	85.8743	249.756	85.5549	249.756	85.769
258.545	88.9728	258.545	88.6352	258.545	89.2113	258.545	88.2021	258.545	89.3485	258.545	87.6799	258.545	89.3831	258.545	87.0795	258.545	89.3141	258.545	86.4212	258.545	89.1399	258.545	85.7403	258.545	88.859	258.545	85.094	258.545	88.4705	258.545	84.5624	258.545	87.9786	258.545	84.2321	258.545	87.3982	258.545	84.159	258.545	86.7656	258.545	84.3332	258.545	86.1466	258.545	84.6811	258.545	85.6348	258.545	85.102	258.545	85.3221	258.545	85.5054	258.545	85.2491	258.545	85.8272	258.545	85.3766	258.545	86.0295	258.545	85.6111	258.545	86.0966	258.545	85.8539	258.545	86.0308
268.066	88.6306	268.066	88.2251	268.066	88.9164	268.066	87.7019	268.066	89.0828	268.066	87.0663	268.066	89.1313	268.066	86.331	268.066	89.0636	268.066	85.5217	268.066	88.8809	268.066	84.6891	268.066	88.5837	268.066	83.9211	268.066	88.1734	268.066	83.3441	268.066	87.6555	268.066	83.0851	268.066	87.0474	268.066	83.1956	268.066	86.3891	268.066	83.6081	268.066	85.7538	268.066	84.1815	268.066	85.2447	268.066	84.7777	268.066	84.9606	268.066	85.2994	268.066	84.9388	268.066	85.6909	268.066	85.127	268.066	85.9259	268.066	85.4188	268.066	85.9981	268.066	85.708	268.066	85.917
277.588	88.8449	277.588	88.5581	277.588	89.0176	277.588	88.1558	277.588	89.0773	277.588	87.6368	277.588	89.0255	277.588	87.001	277.588	88.8641	277.588	86.2538	277.588	88.5957	277.588	85.4148	277.588	88.2241	277.588	84.5339	277.588	87.7563	277.588	83.7104	277.588	87.2079	277.588	83.0975	277.588	86.6112	277.588	82.8502	277.588	86.0232	277.588	83.0184	277.588	85.5257	277.588	83.4996	277.588	85.2021	277.588	84.1184	277.588	85.0957	277.588	84.7249	277.588	85.1805	277.588	85.2286	277.588	85.3778	277.588	85.5875	277.588	85.5982	277.588	85.7905	277.588	85.7701	277.588	85.8448
287.109	88.6893	287.109	88.4007	287.109	88.8578	287.109	87.994	287.109	88.9047	287.109	87.4714	287.109	88.8286	287.109	86.8365	287.109	88.6278	287.109	86.0986	287.109	88.2994	287.109	85.2806	287.109	87.8394	287.109	84.4347	287.109	87.2455	287.109	83.6597	287.109	86.5252	287.109	83.1028	287.109	85.7125	287.109	82.9072	287.109	84.8948	287.109	83.114	287.109	84.2304	287.109	83.6228	287.109	83.9059	287.109	84.2661	287.109	84.0049	287.109	84.8984	287.109	84.4245	287.109	85.427	287.109	84.9658	287.109	85.8017	287.109	85.4632	287.109	85.998	287.109	85.8231	287.109	86.0055
297.363	89.2168	297.363	88.8852	297.363	89.4214	297.363	88.4278	297.363	89.498	297.363	87.8451	297.363	89.4458	297.363	87.1373	297.363	89.2629	297.363	86.3066	297.363	88.9449	297.363	85.3647	297.363	88.4829	297.363	84.3483	297.363	87.8642	297.363	83.3465	297.363	87.0757	297.363	82.5251	297.363	86.1165	297.363	82.0967	297.363	85.0262	297.363	82.1843	297.363	83.9344	297.363	82.7	297.363	83.1019	297.363	83.4212	297.363	82.8198	297.363	84.1445	297.363	83.1324	297.363	84.7428	297.363	83.7769	297.363	85.1499	297.363	84.4507	297.363	85.3328	297.363	84.9747	297.363	85.2754
307.617	89.3201	307.617	89.0843	307.617	89.444	307.617	88.7361	307.617	89.4569	307.617	88.2748	307.617	89.3597	307.617	87.6994	307.617	89.1525	307.617	87.0113	307.617	88.8329	307.617	86.22	307.617	88.3949	307.617	85.3548	307.617	87.8281	307.617	84.4825	307.617	87.1217	307.617	83.7243	307.617	86.2742	307.617	83.2433	307.617	85.3145	307.617	83.1654	307.617	84.3381	307.617	83.4776	307.617	83.5406	307.617	84.0295	307.617	83.1701	307.617	84.6359	307.617	83.3352	307.617	85.1535	307.617	83.8816	307.617	85.4939	307.617	84.541	307.617	85.609	307.617	85.1091	307.617	85.479
318.604	89.4821	318.604	89.2739	318.604	89.5736	318.604	88.9499	318.604	89.5478	318.604	88.511	318.604	89.4052	318.604	87.9571	318.604	89.1462	318.604	87.2894	318.604	88.7692	318.604	86.5155	318.604	88.2681	318.604	85.6614	318.604	87.6316	318.604	84.7891	318.604	86.8455	318.604	84.0148	318.604	85.9013	318.604	83.4995	318.604	84.8157	318.604	83.3721	318.604	83.6687	318.604	83.6238	318.604	82.6548	318.604	84.1021	318.604	82.0739	318.604	84.6149	318.604	82.1322	318.604	85.0136	318.604	82.7161	318.604	85.2078	318.604	83.514	318.604	85.152	318.604	84.2664	318.604	84.8326
329.59	89.5616	329.59	89.4139	329.59	89.6009	329.59	89.1567	329.59	89.5341	329.59	88.7894	329.59	89.3653	329.59	88.3108	329.59	89.099	329.59	87.7205	329.59	88.7367	329.59	87.0238	329.59	88.2741	329.59	86.2414	329.59	87.6991	329.59	85.424	329.59	86.9945	329.59	84.6663	329.59	86.1456	329.59	84.1016	329.59	85.1562	329.59	83.8481	329.59	84.0776	329.59	83.923	329.59	83.0494	329.59	84.218	329.59	82.3145	329.59	84.5685	329.59	82.1086	329.59	84.8319	329.59	82.4461	329.59	84.9156	329.59	83.1001	329.59	84.7724	329.59	83.8069	329.59	84.393
341.309	88.7243	341.309	88.5839	341.309	88.7671	341.309	88.3423	341.309	88.7159	341.309	87.9962	341.309	88.5738	341.309	87.5432	341.309	88.342	341.309	86.9863	341.309	88.0165	341.309	86.3421	341.309	87.5866	341.309	85.6549	341.309	87.0359	341.309	85.0101	341.309	86.3472	341.309	84.5339	341.309	85.516	341.309	84.3491	341.309	84.5731	341.309	84.4953	341.309	83.6213	341.309	84.8903	341.309	82.8641	341.309	85.3824	341.309	82.5514	341.309	85.8267	341.309	82.7929	341.309	86.121	341.309	83.4476	341.309	86.2045	341.309	84.2626	341.309	86.0489	341.309	85.0365	341.309	85.6517
353.76	89.1012	353.76	88.8991	353.76	89.2025	353.76	88.5924	353.76	89.203	353.76	88.1724	353.76	89.1014	353.76	87.6249	353.76	88.8943	353.76	86.9349	353.76	88.5744	353.76	86.0969	353.76	88.129	353.76	85.1356	353.76	87.5389	353.76	84.1394	353.76	86.7823	353.76	83.2954	353.76	85.8441	353.76	82.8575	353.76	84.7355	353.76	82.9652	353.76	83.5296	353.76	83.4893	353.76	82.409	353.76	84.1522	353.76	81.6687	353.76	84.7229	353.76	81.5539	353.76	85.0706	353.76	82.0284	353.76	85.1372	353.76	82.8255	353.76	84.9089	353.76	83.6763	353.76	84.4043
366.211	88.7802	366.211	88.5586	366.211	88.9052	366.211	88.245	366.211	88.9281	366.211	87.8383	366.211	88.8449	366.211	87.3289	366.211	88.6523	366.211	86.7002	366.211	88.3443	366.211	85.939	366.211	87.9091	366.211	85.0533	366.211	87.3282	366.211	84.1012	366.211	86.5807	366.211	83.2254	366.211	85.6552	366.211	82.6509	366.211	84.5713	366.211	82.5631	366.211	83.4154	366.211	82.9291	366.211	82.3774	366.211	83.5174	366.211	81.7238	366.211	84.0832	366.211	81.6324	366.211	84.4684	366.211	82.0365	366.211	84.5968	366.211	82.7079	366.211	84.4474	366.211	83.4266	366.211	84.0389
378.662	88.9796	378.662	88.7128	378.662	89.1509	378.662	88.3608	378.662	89.2161	378.662	87.9267	378.662	89.1683	378.662	87.4012	378.662	89.0027	378.662	86.7636	378.662	88.713	378.662	85.9921	378.662	88.286	378.662	85.082	378.662	87.6993	378.662	84.076	378.662	86.9232	378.662	83.1038	378.662	85.9309	378.662	82.3996	378.662	84.7207	378.662	82.1964	378.662	83.3644	378.662	82.5097	378.662	82.0848	378.662	83.1071	378.662	81.2722	378.662	83.7164	378.662	81.2166	378.662	84.1598	378.662	81.7751	378.662	84.3532	378.662	82.5718	378.662	84.2705	378.662	83.3317	378.662	83.9193
392.578	87.9293	392.578	87.674	392.578	88.0743	392.578	87.3203	392.578	88.1041	392.578	86.8803	392.578	88.0216	392.578	86.3582	392.578	87.8341	392.578	85.7463	392.578	87.5463	392.578	85.0322	392.578	87.1547	392.578	84.2161	392.578	86.6453	392.578	83.3384	392.578	85.9969	392.578	82.5108	392.578	85.1891	392.578	81.9205	392.578	84.2162	392.578	81.7435	392.578	83.1076	392.578	81.9913	392.578	81.9607	392.578	82.4851	392.578	80.9786	392.578	82.9948	392.578	80.4487	392.578	83.348	392.578	80.5561	392.578	83.4452	392.578	81.1797	392.578	83.2416	392.578	82	392.578	82.7392
405.762	87.5443	405.762	87.2676	405.762	87.6987	405.762	86.8785	405.762	87.7257	405.762	86.3855	405.762	87.626	405.762	85.7889	405.762	87.4033	405.762	85.0798	405.762	87.0568	405.762	84.2501	405.762	86.5772	405.762	83.3177	405.762	85.9452	405.762	82.366	405.762	85.1381	405.762	81.583	405.762	84.1451	405.762	81.2254	405.762	82.9958	405.762	81.4297	405.762	81.8057	405.762	82.0587	405.762	80.8134	405.762	82.831	405.762	80.3181	405.762	83.5142	405.762	80.4595	405.762	83.9727	405.762	81.0969	405.762	84.1396	405.762	81.9635	405.762	83.9909	405.762	82.8295	405.762	83.5377
420.41	87.8429	420.41	87.5877	420.41	87.9819	420.41	87.2176	420.41	88.0056	420.41	86.7304	420.41	87.9178	420.41	86.1127	420.41	87.7221	420.41	85.3381	420.41	87.4157	420.41	84.3717	420.41	86.9852	420.41	83.1876	420.41	86.4059	420.41	81.8062	420.41	85.6449	420.41	80.3786	420.41	84.6685	420.41	79.3029	420.41	83.4528	420.41	79.0925	420.41	82.0026	420.41	79.7718	420.41	80.3898	420.41	80.8161	420.41	78.8442	420.41	81.7575	420.41	77.8713	420.41	82.3703	420.41	78.0051	420.41	82.5626	420.41	79.085	420.41	82.2968	420.41	80.4334	420.41	81.5691
435.059	87.2173	435.059	87.0371	435.059	87.3079	435.059	86.7762	435.059	87.2987	435.059	86.4319	435.059	87.1841	435.059	85.9842	435.059	86.9627	435.059	85.3985	435.059	86.6329	435.059	84.6392	435.059	86.1886	435.059	83.6904	435.059	85.6191	435.059	82.5891	435.059	84.9159	435.059	81.4792	435.059	84.0861	435.059	80.6575	435.059	83.1676	435.059	80.4551	435.059	82.2333	435.059	80.9044	435.059	81.3693	435.059	81.6788	435.059	80.6477	435.059	82.4148	435.059	80.1489	435.059	82.8883	435.059	80.0199	435.059	82.9916	435.059	80.3942	435.059	82.6928	435.059	81.1716	435.059	82.0349
450.439	86.9381	450.439	86.667	450.439	87.101	450.439	86.3258	450.439	87.1291	450.439	85.9436	450.439	87.0138	450.439	85.5161	450.439	86.7585	450.439	84.9986	450.439	86.367	450.439	84.3237	450.439	85.8345	450.439	83.4322	450.439	85.1459	450.439	82.3104	450.439	84.2839	450.439	81.053	450.439	83.2472	450.439	79.9654	450.439	82.0738	450.439	79.5432	450.439	80.8552	450.439	79.998	450.439	79.7151	450.439	80.9381	450.439	78.7692	450.439	81.8525	450.439	78.1663	450.439	82.4477	450.439	78.179	450.439	82.5958	450.439	78.9682	450.439	82.2484	450.439	80.2177	450.439	81.4169
466.553	87.0477	466.553	86.6968	466.553	87.2445	466.553	86.2338	466.553	87.2668	466.553	85.7052	466.553	87.1159	466.553	85.134	466.553	86.8049	466.553	84.5007	466.553	86.3442	466.553	83.7517	466.553	85.7296	466.553	82.8341	466.553	84.9385	466.553	81.7427	466.553	83.9406	466.553	80.5856	466.553	82.7254	466.553	79.6548	466.553	81.3563	466.553	79.3407	466.553	80.0307	466.553	79.739	466.553	79.0405	466.553	80.5006	466.553	78.523	466.553	81.2098	466.553	78.3419	466.553	81.6175	466.553	78.3787	466.553	81.6138	466.553	78.7278	466.553	81.1791	466.553	79.4656	466.553	80.3909
482.666	86.7456	482.666	86.4284	482.666	86.9047	482.666	85.9998	482.666	86.8893	482.666	85.5163	482.666	86.711	482.666	85.0062	482.666	86.3943	482.666	84.4403	482.666	85.9577	482.666	83.7407	482.666	85.4003	482.666	82.8195	482.666	84.7016	482.666	81.6255	482.666	83.8348	482.666	80.2127	482.666	82.7905	482.666	78.8769	482.666	81.6012	482.666	78.2331	482.666	80.3453	482.666	78.6639	482.666	79.0992	482.666	79.7179	482.666	77.8771	482.666	80.7452	482.666	76.7413	482.666	81.3978	482.666	76.1614	482.666	81.5307	482.666	76.8359	482.666	81.074	482.666	78.4331	482.666	80.006
500.244	86.6945	500.244	86.3265	500.244	86.8644	500.244	85.7931	500.244	86.8387	500.244	85.1564	500.244	86.6436	500.244	84.4778	500.244	86.3074	500.244	83.775	500.244	85.8397	500.244	83.0038	500.244	85.2203	500.244	82.0856	500.244	84.4052	500.244	80.962	500.244	83.3505	500.244	79.6628	500.244	82.0637	500.244	78.4064	500.244	80.6969	500.244	77.6536	500.244	79.6079	500.244	77.7636	500.244	79.0988	500.244	78.4859	500.244	78.9659	500.244	79.2629	500.244	78.7253	500.244	79.7106	500.244	78.1434	500.244	79.6517	500.244	77.4739	500.244	79.0566	500.244	77.3846	500.244	78.1134
517.822	85.9094	517.822	85.5931	517.822	86.0468	517.822	85.1197	517.822	86.0166	517.822	84.5415	517.822	85.8499	517.822	83.9159	517.822	85.5765	517.822	83.2678	517.822	85.2058	517.822	82.569	517.822	84.7186	517.822	81.7587	517.822	84.0708	517.822	80.7926	517.822	83.2061	517.822	79.7015	517.822	82.0745	517.822	78.6613	517.822	80.6603	517.822	78.0153	517.822	79.0284	517.822	78.0512	517.822	77.3804	517.822	78.6508	517.822	76.0616	517.822	79.4068	517.822	75.4382	517.822	79.9758	517.822	75.7035	517.822	80.1685	517.822	76.7103	517.822	79.8982	517.822	78.0064	517.822	79.1505
536.133	86.2755	536.133	85.9711	536.133	86.2945	536.133	85.3839	536.133	86.0508	536.133	84.5664	536.133	85.5733	536.133	83.6356	536.133	84.8844	536.133	82.7439	536.133	83.995	536.133	81.9802	536.133	82.9078	536.133	81.2872	536.133	81.6489	536.133	80.5071	536.133	80.3538	536.133	79.507	536.133	79.3721	536.133	78.3039	536.133	79.0694	536.133	77.2396	536.133	79.261	536.133	77.0066	536.133	79.3089	536.133	77.8515	536.133	78.6844	536.133	79.1138	536.133	77.1589	536.133	80.1326	536.133	75.2469	536.133	80.598	536.133	75.202	536.133	80.3553	536.133	77.3209	536.133	79.2762
554.443	86.1101	554.443	85.8299	554.443	86.1604	554.443	85.3025	554.443	86.0138	554.443	84.5491	554.443	85.6982	554.443	83.6451	554.443	85.22	554.443	82.7089	554.443	84.5543	554.443	81.8445	554.443	83.6408	554.443	81.0688	554.443	82.3855	554.443	80.3086	554.443	80.6878	554.443	79.4872	554.443	78.5622	554.443	78.6364	554.443	76.5502	554.443	77.9806	554.443	75.8978	554.443	77.8533	554.443	76.5173	554.443	78.3215	554.443	76.9524	554.443	79.0299	554.443	76.4769	554.443	79.5444	554.443	75.1785	554.443	79.5713	554.443	74.3245	554.443	78.9234	554.443	75.511	554.443	77.4951
574.219	86.8146	574.219	86.4215	574.219	86.9008	574.219	85.7059	574.219	86.7216	574.219	84.7066	574.219	86.3226	574.219	83.5441	574.219	85.7381	574.219	82.4063	574.219	84.979	574.219	81.4353	574.219	84.0233	574.219	80.5862	574.219	82.8111	574.219	79.6514	574.219	81.2623	574.219	78.424	574.219	79.36	574.219	76.8653	574.219	77.391	574.219	75.3963	574.219	76.1444	574.219	75.0944	574.219	75.9212	574.219	76.268	574.219	75.731	574.219	77.7988	574.219	74.6208	574.219	78.8813	574.219	72.4756	574.219	79.238	574.219	71.7317	574.219	78.7236	574.219	74.4536	574.219	77.166
594.727	86.6109	594.727	86.2915	594.727	86.6231	594.727	85.6251	594.727	86.393	594.727	84.6333	594.727	85.9836	594.727	83.4392	594.727	85.4379	594.727	82.2664	594.727	84.769	594.727	81.305	594.727	83.9529	594.727	80.5112	594.727	82.924	594.727	79.6309	594.727	81.5827	594.727	78.409	594.727	79.837	594.727	76.7583	594.727	77.7334	594.727	75.0322	594.727	75.7701	594.727	74.4021	594.727	74.8929	594.727	75.4794	594.727	75.1025	594.727	77.0621	594.727	75.4826	594.727	78.2173	594.727	75.7151	594.727	78.7107	594.727	76.1057	594.727	78.5528	594.727	76.904	594.727	77.8613
615.234	86.7507	615.234	86.6782	615.234	86.4866	615.234	86.232	615.234	85.9528	615.234	85.4155	615.234	85.2351	615.234	84.2967	615.234	84.411	615.234	83.0369	615.234	83.5086	615.234	81.8642	615.234	82.4855	615.234	80.919	615.234	81.2629	615.234	80.0962	615.234	79.8236	615.234	79.1181	615.234	78.3812	615.234	77.7111	615.234	77.4507	615.234	75.7144	615.234	77.2635	615.234	73.3898	615.234	77.2346	615.234	72.3499	615.234	76.6402	615.234	73.7368	615.234	75.106	615.234	75.5431	615.234	72.8088	615.234	76.5155	615.234	71.5918	615.234	76.4248	615.234	73.182	615.234	75.253
637.207	87.9048	637.207	87.6421	637.207	87.8278	637.207	86.9928	637.207	87.4587	637.207	85.9183	637.207	86.8501	637.207	84.4326	637.207	86.0551	637.207	82.7103	637.207	85.1024	637.207	81.2154	637.207	83.9667	637.207	80.452	637.207	82.5646	637.207	80.2755	637.207	80.8131	637.207	80.0653	637.207	78.8183	637.207	79.3698	637.207	77.2148	637.207	78.0187	637.207	76.7157	637.207	76.2686	637.207	76.6491	637.207	75.4972	637.207	75.8312	637.207	76.8943	637.207	73.8871	637.207	78.8961	637.207	72.8387	637.207	80.2399	637.207	75.4064	637.207	80.6423	637.207	78.2986	637.207	80.032
659.912	87.2458	659.912	87.293	659.912	86.8885	659.912	86.9687	659.912	86.2982	659.912	86.219	659.912	85.5795	659.912	85.0162	659.912	84.8453	659.912	83.422	659.912	84.1528	659.912	81.7099	659.912	83.4488	659.912	80.4056	659.912	82.5875	659.912	79.8218	659.912	81.3902	659.912	79.5921	659.912	79.6925	659.912	79.1667	659.912	77.4209	659.912	78.2784	659.912	74.9077	659.912	77.0148	659.912	73.4379	659.912	75.9675	659.912	73.6691	659.912	75.9446	659.912	74.1327	659.912	76.6696	659.912	73.9027	659.912	77.1325	659.912	73.362	659.912	76.7528	659.912	73.8651	659.912	75.4568
683.35	87.8409	683.35	88.1589	683.35	87.1978	683.35	88.0527	683.35	86.3679	683.35	87.4519	683.35	85.5233	683.35	86.3216	683.35	84.7992	683.35	84.7013	683.35	84.1889	683.35	82.7902	683.35	83.5464	683.35	81.0205	683.35	82.7023	683.35	79.805	683.35	81.5652	683.35	79.0222	683.35	80.1858	683.35	78.2028	683.35	78.8093	683.35	77.1354	683.35	77.7612	683.35	76.2205	683.35	77.0513	683.35	76.3555	683.35	76.2557	683.35	77.5413	683.35	74.8412	683.35	78.7303	683.35	72.4416	683.35	79.1786	683.35	70.5267	683.35	78.5319	683.35	73.1195	683.35	76.5345
706.787	88.3325	706.787	88.5288	706.787	87.8491	706.787	88.3362	706.787	87.2151	706.787	87.6935	706.787	86.5472	706.787	86.5665	706.787	85.8756	706.787	84.957	706.787	85.1426	706.787	82.9815	706.787	84.2627	706.787	81.0425	706.787	83.1765	706.787	79.7924	706.787	81.8755	706.787	79.3465	706.787	80.4061	706.787	79.0207	706.787	78.8257	706.787	78.1752	706.787	77.1703	706.787	76.5846	706.787	75.7199	706.787	74.9455	706.787	75.2297	706.787	75.4507	706.787	75.6015	706.787	77.6218	706.787	75.7888	706.787	79.2142	706.787	75.8789	706.787	79.5621	706.787	76.9943	706.787	78.6596
731.689	87.8728	731.689	88.1926	731.689	87.3328	731.689	88.1837	731.689	86.6944	731.689	87.7678	731.689	86.0354	731.689	86.8848	731.689	85.3455	731.689	85.4961	731.689	84.5533	731.689	83.6372	731.689	83.5848	731.689	81.5697	731.689	82.4182	731.689	79.9479	731.689	81.1451	731.689	79.3061	731.689	79.9643	731.689	79.1771	731.689	78.9025	731.689	78.7562	731.689	77.5082	731.689	77.6725	731.689	75.153	731.689	76.2905	731.689	72.2459	731.689	76.1147	731.689	71.861	731.689	77.4661	731.689	72.927	731.689	78.5582	731.689	73.1775	731.689	78.4014	731.689	74.3633	731.689	76.7915
758.057	87.7282	758.057	88.1255	758.057	87.0962	758.057	88.1376	758.057	86.4402	758.057	87.6954	758.057	85.9018	758.057	86.7764	758.057	85.4432	758.057	85.388	758.057	84.9118	758.057	83.6145	758.057	84.1685	758.057	81.7519	758.057	83.1471	758.057	80.3642	758.057	81.8781	758.057	79.7512	758.057	80.4871	758.057	79.4252	758.057	79.0532	758.057	78.7125	758.057	77.4038	758.057	77.3426	758.057	75.4395	758.057	75.9422	758.057	74.1923	758.057	76.1489	758.057	74.4414	758.057	77.5483	758.057	74.2677	758.057	78.3571	758.057	72.6823	758.057	77.8188	758.057	72.6341	758.057	75.6557
784.424	87.6245	784.424	88.0442	784.424	87.0841	784.424	88.1697	784.424	86.5854	784.424	87.8788	784.424	86.1703	784.424	87.0943	784.424	85.7486	784.424	85.7744	784.424	85.1941	784.424	83.9619	784.424	84.413	784.424	81.9552	784.424	83.3595	784.424	80.4788	784.424	82.054	784.424	80.0313	784.424	80.5845	784.424	80.0215	784.424	78.9544	784.424	79.6424	784.424	76.811	784.424	78.5465	784.424	73.6489	784.424	76.9432	784.424	71.0543	784.424	76.0562	784.424	72.2009	784.424	76.8884	784.424	72.9091	784.424	78.003	784.424	71.9752	784.424	78.0018	784.424	73.2	784.424	76.3168
812.256	87.9854	812.256	88.231	812.256	87.5246	812.256	88.1383	812.256	86.998	812.256	87.6499	812.256	86.5002	812.256	86.7474	812.256	86.0141	812.256	85.3991	812.256	85.4271	812.256	83.5715	812.256	84.6138	812.256	81.4334	812.256	83.5393	812.256	79.8083	812.256	82.3454	812.256	79.6672	812.256	81.3107	812.256	80.2837	812.256	80.4419	812.256	80.4454	812.256	79.09	812.256	79.6524	812.256	76.1671	812.256	77.9469	812.256	70.8382	812.256	76.4458	812.256	70.7687	812.256	76.857	812.256	73.9693	812.256	77.7901	812.256	74.0917	812.256	77.4117	812.256	73.338	812.256	75.3193
840.82	87.6957	840.82	88.0533	840.82	87.2086	840.82	88.1361	840.82	86.7486	840.82	87.8436	840.82	86.3839	840.82	87.1003	840.82	86.0252	840.82	85.8272	840.82	85.5183	840.82	83.9491	840.82	84.7985	840.82	81.512	840.82	83.9453	840.82	79.1007	840.82	83.0855	840.82	78.0717	840.82	82.1655	840.82	78.4208	840.82	80.7827	840.82	78.6363	840.82	78.263	840.82	77.9542	840.82	74.284	840.82	76.4625	840.82	72.9768	840.82	75.4578	840.82	75.2182	840.82	76.2874	840.82	75.4076	840.82	77.3803	840.82	73.1152	840.82	77.1981	840.82	72.084	840.82	75.1752
870.85	87.6281	870.85	87.7589	870.85	87.3215	870.85	87.6893	870.85	86.9139	870.85	87.4007	870.85	86.4714	870.85	86.7892	870.85	85.9328	870.85	85.6326	870.85	85.1065	870.85	83.6353	870.85	83.8476	870.85	80.4928	870.85	82.3402	870.85	76.5459	870.85	81.3998	870.85	75.8038	870.85	81.6653	870.85	78.2391	870.85	82.1783	870.85	79.6656	870.85	81.6055	870.85	79.5638	870.85	78.8975	870.85	78.1947	870.85	72.8194	870.85	76.6693	870.85	71.6214	870.85	76.9526	870.85	74.9834	870.85	77.944	870.85	73.7753	870.85	77.4378	870.85	70.1639	870.85	74.2241
901.611	87.8576	901.611	87.8755	901.611	87.5367	901.611	87.497	901.611	87.131	901.611	86.8272	901.611	86.8159	901.611	86.0909	901.611	86.521	901.611	85.3059	901.611	85.988	901.611	84.1231	901.611	85.0124	901.611	82.0586	901.611	83.5463	901.611	78.6373	901.611	81.6985	901.611	74.1077	901.611	79.8279	901.611	73.7323	901.611	78.594	901.611	76.3071	901.611	78.1393	901.611	77.2103	901.611	77.5577	901.611	76.3941	901.611	76.1123	901.611	74.8125	901.611	74.4713	901.611	74.6932	901.611	74.2083	901.611	75.6961	901.611	73.8003	901.611	75.3148	901.611	72.1645	901.611	73.0241
933.105	88.071	933.105	88.3644	933.105	87.655	933.105	88.1524	933.105	87.3395	933.105	87.2308	933.105	86.979	933.105	85.7031	933.105	86.3315	933.105	83.9904	933.105	85.2957	933.105	82.5001	933.105	83.9089	933.105	81.0601	933.105	82.3751	933.105	79.0968	933.105	81.109	933.105	76.2935	933.105	80.3203	933.105	73.9655	933.105	79.4709	933.105	74.8461	933.105	77.7525	933.105	76.4495	933.105	74.9201	933.105	76.7815	933.105	72.4344	933.105	76.1146	933.105	72.1459	933.105	75.8587	933.105	72.4059	933.105	76.3888	933.105	71.9464	933.105	76.0873	933.105	71.8534	933.105	74.1097
966.064	87.9356	966.064	88.2529	966.064	87.6076	966.064	88.0689	966.064	87.4628	966.064	87.0833	966.064	87.2452	966.064	85.3866	966.064	86.6955	966.064	83.4928	966.064	85.7583	966.064	81.8991	966.064	84.5151	966.064	80.2988	966.064	83.1594	966.064	77.8852	966.064	81.9211	966.064	74.3155	966.064	80.7398	966.064	72.8825	966.064	79.1785	966.064	75.6216	966.064	77.2312	966.064	77.3986	966.064	76.1728	966.064	77.1602	966.064	75.587	966.064	75.1683	966.064	73.6808	966.064	73.9462	966.064	73.3422	966.064	75.0545	966.064	74.633	966.064	74.53	966.064	73.2184	966.064	71.9693
999.756	87.8236	999.756	88.116	999.756	87.6705	999.756	88.1538	999.756	87.618	999.756	87.5032	999.756	87.3603	999.756	86.0141	999.756	86.6849	999.756	83.9348	999.756	85.5314	999.756	81.9048	999.756	83.9493	999.756	80.3018	999.756	82.1507	999.756	78.503	999.756	80.5984	999.756	75.4922	999.756	79.6564	999.756	71.5284	999.756	78.8206	999.756	72.8451	999.756	77.0676	999.756	76.0498	999.756	73.7952	999.756	77.22	999.756	70.2226	999.756	76.7897	999.756	70.8159	999.756	76.0628	999.756	73.1755	999.756	75.9075	999.756	73.6033	999.756	74.9933	999.756	71.9538	999.756	72.4865
1,034.91	87.4993	1,034.91	87.88	1,034.91	87.3453	1,034.91	88.0393	1,034.91	87.3774	1,034.91	87.4905	1,034.91	87.2089	1,034.91	86.0745	1,034.91	86.5815	1,034.91	84.1491	1,034.91	85.493	1,034.91	82.5024	1,034.91	84.0791	1,034.91	81.2779	1,034.91	82.5374	1,034.91	79.4692	1,034.91	81.0999	1,034.91	75.6341	1,034.91	79.8332	1,034.91	67.2784	1,034.91	78.6412	1,034.91	71.0914	1,034.91	78.036	1,034.91	76.1603	1,034.91	78.1576	1,034.91	77.3379	1,034.91	76.8797	1,034.91	76.2441	1,034.91	71.9683	1,034.91	74.9439	1,034.91	71.5387	1,034.91	75.1279	1,034.91	74.5511	1,034.91	73.805	1,034.91	71.8931	1,034.91	68.7046
1,071.53	87.223	1,071.53	87.4413	1,071.53	87.3411	1,071.53	87.6073	1,071.53	87.6254	1,071.53	87.2488	1,071.53	87.6008	1,071.53	86.0817	1,071.53	87.046	1,071.53	84.1238	1,071.53	85.9642	1,071.53	82.005	1,071.53	84.3455	1,071.53	80.863	1,071.53	82.1635	1,071.53	80.4982	1,071.53	79.6943	1,071.53	79.5521	1,071.53	77.9321	1,071.53	77.0715	1,071.53	77.2695	1,071.53	72.3474	1,071.53	76.3466	1,071.53	68.6693	1,071.53	74.6331	1,071.53	72.076	1,071.53	72.8771	1,071.53	74.2888	1,071.53	71.5101	1,071.53	75.1072	1,071.53	72.306	1,071.53	75.0904	1,071.53	73.2999	1,071.53	73.7212	1,071.53	71.8194	1,071.53	71.1277
1,109.62	86.8552	1,109.62	87.0667	1,109.62	87.1197	1,109.62	87.42	1,109.62	87.3948	1,109.62	87.2127	1,109.62	87.2298	1,109.62	86.0481	1,109.62	86.5545	1,109.62	83.8945	1,109.62	85.4443	1,109.62	81.2192	1,109.62	84.0161	1,109.62	79.1983	1,109.62	82.4557	1,109.62	78.2989	1,109.62	80.803	1,109.62	77.2856	1,109.62	78.4723	1,109.62	75.4238	1,109.62	74.055	1,109.62	73.8989	1,109.62	71.946	1,109.62	74.4137	1,109.62	76.6637	1,109.62	75.2122	1,109.62	77.2398	1,109.62	75.0392	1,109.62	72.3281	1,109.62	74.5047	1,109.62	69.3557	1,109.62	74.2092	1,109.62	73.8863	1,109.62	72.3207	1,109.62	71.6744	1,109.62	67.184
1,148.44	87.0914	1,148.44	86.7786	1,148.44	87.5178	1,148.44	86.8452	1,148.44	87.6362	1,148.44	86.791	1,148.44	87.3143	1,148.44	85.9575	1,148.44	86.5345	1,148.44	84.115	1,148.44	85.2905	1,148.44	81.5431	1,148.44	83.6799	1,148.44	79.1801	1,148.44	81.9299	1,148.44	77.9051	1,148.44	80.1715	1,148.44	77.0457	1,148.44	78.0359	1,148.44	75.6084	1,148.44	74.51	1,148.44	73.4234	1,148.44	71.1529	1,148.44	71.257	1,148.44	73.8347	1,148.44	70.5381	1,148.44	74.3208	1,148.44	71.6199	1,148.44	70.9173	1,148.44	73.4439	1,148.44	71.7248	1,148.44	74.4561	1,148.44	73.5486	1,148.44	73.457	1,148.44	71.1082	1,148.44	70.1328
1,189.45	87.2845	1,189.45	86.6669	1,189.45	87.6221	1,189.45	86.1866	1,189.45	87.6092	1,189.45	85.8551	1,189.45	87.2509	1,189.45	85.0143	1,189.45	86.3986	1,189.45	83.2532	1,189.45	85.0193	1,189.45	80.704	1,189.45	83.3492	1,189.45	78.0721	1,189.45	81.717	1,189.45	76.4504	1,189.45	80.2792	1,189.45	75.9375	1,189.45	78.5461	1,189.45	75.928	1,189.45	74.4614	1,189.45	76.2127	1,189.45	57.3527	1,189.45	76.2552	1,189.45	73.1914	1,189.45	75.2886	1,189.45	76.0249	1,189.45	73.4805	1,189.45	72.5895	1,189.45	73.3782	1,189.45	71.0503	1,189.45	74.3149	1,189.45	74.6524	1,189.45	72.4913	1,189.45	72.5708	1,189.45	67.2071
1,231.2	87.7376	1,231.2	87.5896	1,231.2	87.7195	1,231.2	87.2134	1,231.2	87.6825	1,231.2	86.7642	1,231.2	87.2826	1,231.2	85.8794	1,231.2	86.2313	1,231.2	84.0429	1,231.2	84.6887	1,231.2	81.2598	1,231.2	83.0295	1,231.2	78.276	1,231.2	81.6384	1,231.2	76.1266	1,231.2	80.8276	1,231.2	74.3173	1,231.2	80.0838	1,231.2	71.6545	1,231.2	77.7164	1,231.2	70.3383	1,231.2	70.1631	1,231.2	72.6967	1,231.2	66.2642	1,231.2	74.3487	1,231.2	72.2306	1,231.2	74.5035	1,231.2	68.3794	1,231.2	74.1591	1,231.2	69.2691	1,231.2	73.919	1,231.2	72.6122	1,231.2	72.5631	1,231.2	69.1735	1,231.2	67.8748
1,274.41	87.4239	1,274.41	87.2644	1,274.41	87.5282	1,274.41	86.6347	1,274.41	87.7929	1,274.41	85.9776	1,274.41	87.6254	1,274.41	85.3581	1,274.41	86.7908	1,274.41	84.0573	1,274.41	85.4782	1,274.41	81.7502	1,274.41	83.7927	1,274.41	78.7532	1,274.41	81.727	1,274.41	76.1926	1,274.41	79.493	1,274.41	74.7623	1,274.41	77.6293	1,274.41	73.0927	1,274.41	75.9199	1,274.41	70.9591	1,274.41	72.5351	1,274.41	70.8764	1,274.41	65.9392	1,274.41	72.2689	1,274.41	68.3829	1,274.41	73.0199	1,274.41	70.5957	1,274.41	73.0685	1,274.41	69.4394	1,274.41	71.7202	1,274.41	69.5781	1,274.41	66.7828	1,274.41	70.0955	1,274.41	66.3128
1,319.82	87.6486	1,319.82	87.5652	1,319.82	88.1945	1,319.82	87.3373	1,319.82	88.4126	1,319.82	86.2582	1,319.82	87.8429	1,319.82	84.8147	1,319.82	86.733	1,319.82	83.715	1,319.82	85.3245	1,319.82	82.6399	1,319.82	83.5952	1,319.82	80.7532	1,319.82	81.4219	1,319.82	77.2149	1,319.82	79.2151	1,319.82	72.2164	1,319.82	78.1114	1,319.82	72.9716	1,319.82	76.8778	1,319.82	75.6267	1,319.82	72.4477	1,319.82	76.0807	1,319.82	71.8945	1,319.82	74.9088	1,319.82	75.6361	1,319.82	73.5397	1,319.82	73.1124	1,319.82	74.0326	1,319.82	66.8773	1,319.82	74.5206	1,319.82	72.7294	1,319.82	72.0052	1,319.82	71.6363	1,319.82	66.003
1,365.97	87.6005	1,365.97	87.4586	1,365.97	88.0808	1,365.97	87.4484	1,365.97	88.123	1,365.97	86.8834	1,365.97	87.4416	1,365.97	85.7191	1,365.97	86.3414	1,365.97	84.2637	1,365.97	85.0748	1,365.97	82.7966	1,365.97	83.7034	1,365.97	81.3673	1,365.97	82.2463	1,365.97	79.6178	1,365.97	80.7595	1,365.97	76.7361	1,365.97	78.9837	1,365.97	71.0201	1,365.97	75.4695	1,365.97	60.899	1,365.97	66.0438	1,365.97	71.1223	1,365.97	68.9016	1,365.97	75.0612	1,365.97	71.6212	1,365.97	76.2633	1,365.97	69.8517	1,365.97	75.8483	1,365.97	71.3396	1,365.97	73.2822	1,365.97	71.0651	1,365.97	67.9379	1,365.97	70.225	1,365.97	69.1269
1,414.31	87.5001	1,414.31	87.1647	1,414.31	88.0056	1,414.31	87.2904	1,414.31	88.0426	1,414.31	87.0547	1,414.31	87.5239	1,414.31	85.7474	1,414.31	86.7043	1,414.31	83.4032	1,414.31	85.7162	1,414.31	80.9082	1,414.31	84.2823	1,414.31	79.6438	1,414.31	82.1315	1,414.31	79.3931	1,414.31	79.6888	1,414.31	78.697	1,414.31	78.3273	1,414.31	76.6299	1,414.31	77.8751	1,414.31	72.6803	1,414.31	75.4927	1,414.31	67.8012	1,414.31	65.9933	1,414.31	69.4924	1,414.31	66.0825	1,414.31	73.5237	1,414.31	71.0528	1,414.31	75.7	1,414.31	68.1799	1,414.31	75.1064	1,414.31	69.345	1,414.31	70.3831	1,414.31	71.8329	1,414.31	68.6652
1,464.11	87.6377	1,464.11	86.7181	1,464.11	88.2389	1,464.11	86.721	1,464.11	87.8786	1,464.11	86.7253	1,464.11	87.2816	1,464.11	85.6165	1,464.11	86.8765	1,464.11	83.4827	1,464.11	86.0002	1,464.11	80.9973	1,464.11	84.3018	1,464.11	78.9785	1,464.11	82.0615	1,464.11	77.8282	1,464.11	79.6486	1,464.11	77.1124	1,464.11	77.5547	1,464.11	76.5817	1,464.11	76.003	1,464.11	75.9016	1,464.11	73.3537	1,464.11	73.9603	1,464.11	69.2133	1,464.11	69.1341	1,464.11	67.6845	1,464.11	64.6992	1,464.11	66.9714	1,464.11	71.7599	1,464.11	68.2568	1,464.11	73.7747	1,464.11	69.9361	1,464.11	70.8694	1,464.11	70.3169	1,464.11	67.8885
1,515.38	87.0277	1,515.38	86.323	1,515.38	87.4288	1,515.38	85.9186	1,515.38	87.2508	1,515.38	86.2094	1,515.38	86.7697	1,515.38	86.2748	1,515.38	86.1901	1,515.38	85.2563	1,515.38	85.0727	1,515.38	82.9198	1,515.38	83.2546	1,515.38	79.4803	1,515.38	80.783	1,515.38	76.4276	1,515.38	77.8426	1,515.38	74.935	1,515.38	75.9315	1,515.38	74.2179	1,515.38	75.5669	1,515.38	74.4255	1,515.38	74.6626	1,515.38	74.5882	1,515.38	73.8333	1,515.38	73.1928	1,515.38	71.6147	1,515.38	71.1513	1,515.38	56.4829	1,515.38	73.005	1,515.38	67.0639	1,515.38	72.9587	1,515.38	68.9081	1,515.38	65.1095	1,515.38	70.1489	1,515.38	68.0771
1,568.85	86.6652	1,568.85	86.1383	1,568.85	86.8232	1,568.85	85.0834	1,568.85	86.6283	1,568.85	84.9158	1,568.85	86.1	1,568.85	85.3831	1,568.85	85.5224	1,568.85	84.6745	1,568.85	84.4465	1,568.85	82.4356	1,568.85	82.5933	1,568.85	79.34	1,568.85	80.2898	1,568.85	76.8836	1,568.85	78.1684	1,568.85	74.6345	1,568.85	77.0966	1,568.85	71.0005	1,568.85	76.3977	1,568.85	70.1952	1,568.85	73.6833	1,568.85	73.6299	1,568.85	70.5122	1,568.85	74.7236	1,568.85	68.9628	1,568.85	73.4263	1,568.85	54.4526	1,568.85	73.0881	1,568.85	66.5527	1,568.85	72.8461	1,568.85	66.8735	1,568.85	67.0512	1,568.85	69.5853	1,568.85	68.2709
1,624.51	86.8907	1,624.51	86.7209	1,624.51	86.8434	1,624.51	86.1424	1,624.51	86.3441	1,624.51	85.2396	1,624.51	85.9419	1,624.51	84.6161	1,624.51	85.5803	1,624.51	83.7479	1,624.51	84.3218	1,624.51	81.9282	1,624.51	81.944	1,624.51	79.1442	1,624.51	78.8562	1,624.51	76.1371	1,624.51	76.4851	1,624.51	73.8756	1,624.51	76.9246	1,624.51	72.8237	1,624.51	77.6304	1,624.51	73.2744	1,624.51	74.7964	1,624.51	73.6542	1,624.51	69.2738	1,624.51	72.3504	1,624.51	71.0282	1,624.51	70.4014	1,624.51	66.6551	1,624.51	71.2533	1,624.51	63.5459	1,624.51	71.0893	1,624.51	58.6151	1,624.51	64.5721	1,624.51	67.1952	1,624.51	67.2731
1,681.64	86.4573	1,681.64	86.097	1,681.64	86.5867	1,681.64	85.8144	1,681.64	86.1442	1,681.64	85.2667	1,681.64	86.1235	1,681.64	84.6287	1,681.64	85.9249	1,681.64	83.4972	1,681.64	84.5761	1,681.64	81.2674	1,681.64	82.2593	1,681.64	78.1055	1,681.64	79.0097	1,681.64	75.0103	1,681.64	75.2318	1,681.64	71.8803	1,681.64	75.3836	1,681.64	66.7712	1,681.64	76.7829	1,681.64	64.9029	1,681.64	73.0947	1,681.64	70.466	1,681.64	67.537	1,681.64	72.3524	1,681.64	73.0271	1,681.64	72.1084	1,681.64	67.4171	1,681.64	71.3293	1,681.64	65.658	1,681.64	68.7158	1,681.64	66.6747	1,681.64	61.2023	1,681.64	61.8399	1,681.64	66.0787
1,740.97	86.4889	1,740.97	86.0768	1,740.97	86.4776	1,740.97	85.8245	1,740.97	86.1012	1,740.97	85.4449	1,740.97	86.1339	1,740.97	84.5296	1,740.97	85.8657	1,740.97	82.8183	1,740.97	84.5805	1,740.97	80.2932	1,740.97	82.3246	1,740.97	77.5004	1,740.97	79.3782	1,740.97	75.225	1,740.97	76.0613	1,740.97	73.0217	1,740.97	74.3482	1,740.97	69.3551	1,740.97	74.2938	1,740.97	64.1927	1,740.97	68.1671	1,740.97	65.5224	1,740.97	66.527	1,740.97	68.8333	1,740.97	72.4644	1,740.97	71.2965	1,740.97	64.3288	1,740.97	72.722	1,740.97	65.7918	1,740.97	70.5938	1,740.97	66.1984	1,740.97	55.5189	1,740.97	62.8588	1,740.97	66.5895
1,802.49	86.6828	1,802.49	86.2421	1,802.49	86.1133	1,802.49	85.6694	1,802.49	85.4992	1,802.49	85.3114	1,802.49	85.7456	1,802.49	84.448	1,802.49	85.4561	1,802.49	82.7726	1,802.49	84.1082	1,802.49	80.3928	1,802.49	81.815	1,802.49	77.5377	1,802.49	78.6356	1,802.49	74.6508	1,802.49	74.958	1,802.49	72.7144	1,802.49	72.8897	1,802.49	71.8923	1,802.49	73.1923	1,802.49	70.7973	1,802.49	68.4731	1,802.49	67.9352	1,802.49	62.2059	1,802.49	65.6028	1,802.49	70.7913	1,802.49	68.9831	1,802.49	64.7554	1,802.49	70.6428	1,802.49	61.0096	1,802.49	68.3852	1,802.49	62.8388	1,802.49	56.5287	1,802.49	61.8096	1,802.49	64.5782
1,866.21	86.378	1,866.21	86.8058	1,866.21	85.4852	1,866.21	85.8062	1,866.21	85.3868	1,866.21	84.6639	1,866.21	85.4818	1,866.21	83.7081	1,866.21	85.103	1,866.21	81.6424	1,866.21	83.6973	1,866.21	78.8482	1,866.21	81.1875	1,866.21	76.5776	1,866.21	77.8605	1,866.21	74.288	1,866.21	73.8451	1,866.21	70.05	1,866.21	71.356	1,866.21	67.9987	1,866.21	72.0034	1,866.21	71.2658	1,866.21	67.9477	1,866.21	71.5001	1,866.21	58.46	1,866.21	67.7948	1,866.21	68.6776	1,866.21	66.6091	1,866.21	63.1449	1,866.21	70.2339	1,866.21	62.8457	1,866.21	68.7158	1,866.21	62.0062	1,866.21	60.0222	1,866.21	56.3551	1,866.21	62.5242
1,932.13	85.3186	1,932.13	85.9241	1,932.13	84.772	1,932.13	85.7472	1,932.13	84.6408	1,932.13	84.6368	1,932.13	85.0262	1,932.13	83.385	1,932.13	84.6421	1,932.13	81.5941	1,932.13	83.0432	1,932.13	78.7385	1,932.13	80.5461	1,932.13	75.4651	1,932.13	77.2174	1,932.13	73.2579	1,932.13	73.3203	1,932.13	71.0749	1,932.13	71.1031	1,932.13	66.7765	1,932.13	72.0912	1,932.13	63.2197	1,932.13	69.3072	1,932.13	66.6634	1,932.13	52.5693	1,932.13	69.6671	1,932.13	62.7368	1,932.13	69.9886	1,932.13	51.8417	1,932.13	67.4012	1,932.13	62.8086	1,932.13	62.08	1,932.13	59.9591	1,932.13	56.1702	1,932.13	50.0807	1,932.13	51.2211
2,000.24	85.3274	2,000.24	85.5697	2,000.24	84.5939	2,000.24	85.4041	2,000.24	84.5547	2,000.24	84.3441	2,000.24	84.9476	2,000.24	82.7855	2,000.24	84.2991	2,000.24	81.0234	2,000.24	82.9757	2,000.24	78.4648	2,000.24	80.8556	2,000.24	75.3178	2,000.24	77.55	2,000.24	72.5655	2,000.24	73.3571	2,000.24	70.2075	2,000.24	71.0376	2,000.24	66.6832	2,000.24	72.6627	2,000.24	63.8798	2,000.24	70.8594	2,000.24	65.9546	2,000.24	55.9562	2,000.24	67.9181	2,000.24	62.1435	2,000.24	68.1447	2,000.24	54.2744	2,000.24	66.3732	2,000.24	59.0222	2,000.24	60.7981	2,000.24	58.4168	2,000.24	54.6265	2,000.24	59.961	2,000.24	57.4128
2,070.56	86.1443	2,070.56	86.4112	2,070.56	85.009	2,070.56	85.529	2,070.56	84.9896	2,070.56	84.0698	2,070.56	85.0968	2,070.56	81.8688	2,070.56	84.5897	2,070.56	79.3918	2,070.56	83.2166	2,070.56	76.8214	2,070.56	80.239	2,070.56	73.3636	2,070.56	75.4266	2,070.56	68.6107	2,070.56	69.1898	2,070.56	65.0017	2,070.56	68.3213	2,070.56	64.8472	2,070.56	70.9688	2,070.56	64.3622	2,070.56	67.8385	2,070.56	63.5083	2,070.56	39.6619	2,070.56	65.8772	2,070.56	61.6758	2,070.56	67.6443	2,070.56	42.7356	2,070.56	65.1742	2,070.56	57.9502	2,070.56	57.4693	2,070.56	40.7557	2,070.56	56.8242	2,070.56	59.3994	2,070.56	50.6776
2,143.8	85.9777	2,143.8	87.0829	2,143.8	84.4955	2,143.8	86.1967	2,143.8	84.3372	2,143.8	83.8779	2,143.8	84.5991	2,143.8	81.139	2,143.8	84.1278	2,143.8	77.6805	2,143.8	82.3508	2,143.8	74.351	2,143.8	78.6724	2,143.8	72.0632	2,143.8	71.6797	2,143.8	69.0741	2,143.8	59.7367	2,143.8	64.7971	2,143.8	62.2964	2,143.8	64.5994	2,143.8	68.7562	2,143.8	65.6202	2,143.8	68.0823	2,143.8	63.3933	2,143.8	56.0513	2,143.8	62.7707	2,143.8	62.5084	2,143.8	65.3437	2,143.8	58.593	2,143.8	63.8799	2,143.8	58.0311	2,143.8	55.9987	2,143.8	43.2682	2,143.8	58.6815	2,143.8	61.4569	2,143.8	52.0603
2,219.24	85.2959	2,219.24	86.5877	2,219.24	84.1456	2,219.24	86.4892	2,219.24	83.839	2,219.24	83.9627	2,219.24	84.3874	2,219.24	80.2661	2,219.24	83.6494	2,219.24	76.1396	2,219.24	81.3681	2,219.24	71.5831	2,219.24	75.931	2,219.24	68.8444	2,219.24	59.4678	2,219.24	66.3192	2,219.24	62.55	2,219.24	61.4432	2,219.24	58.6885	2,219.24	60.0391	2,219.24	71.9403	2,219.24	62.8368	2,219.24	73.1235	2,219.24	62.2905	2,219.24	62.5699	2,219.24	61.3756	2,219.24	66.2922	2,219.24	62.7699	2,219.24	65.0609	2,219.24	61.7338	2,219.24	50.9054	2,219.24	50.7256	2,219.24	55.7714	2,219.24	60.2197	2,219.24	62.1133	2,219.24	44.5071
2,297.61	86.6602	2,297.61	86.7869	2,297.61	85.1123	2,297.61	86.2348	2,297.61	84.5789	2,297.61	83.7088	2,297.61	85.1715	2,297.61	78.727	2,297.61	84.1942	2,297.61	72.8703	2,297.61	81.5947	2,297.61	66.0718	2,297.61	74.5353	2,297.61	61.811	2,297.61	66.9291	2,297.61	60.7294	2,297.61	72.0315	2,297.61	58.4928	2,297.61	63.2095	2,297.61	57.6566	2,297.61	73.416	2,297.61	57.7408	2,297.61	75.6046	2,297.61	58.7326	2,297.61	65.0371	2,297.61	61.3495	2,297.61	69.2257	2,297.61	62.1453	2,297.61	68.2402	2,297.61	61.5012	2,297.61	48.8027	2,297.61	48.4479	2,297.61	61.1969	2,297.61	60.3262	2,297.61	62.9892	2,297.61	54.905
2,378.17	87.8851	2,378.17	88.3476	2,378.17	85.5777	2,378.17	86.4692	2,378.17	84.8486	2,378.17	82.7936	2,378.17	85.465	2,378.17	77.013	2,378.17	84.8396	2,378.17	68.769	2,378.17	82.2496	2,378.17	66.6739	2,378.17	74.6162	2,378.17	69.7988	2,378.17	73.0324	2,378.17	67.1255	2,378.17	77.0235	2,378.17	60.8598	2,378.17	69.3771	2,378.17	60.7234	2,378.17	73.7824	2,378.17	63.5164	2,378.17	77.5055	2,378.17	57.1548	2,378.17	66.2576	2,378.17	63.3061	2,378.17	73.0994	2,378.17	65.6087	2,378.17	71.3986	2,378.17	65.0386	2,378.17	59.178	2,378.17	52.218	2,378.17	65.0258	2,378.17	63.2888	2,378.17	64.9602	2,378.17	57.7875
2,462.4	87.3295	2,462.4	88.3974	2,462.4	85.0989	2,462.4	86.9345	2,462.4	83.5441	2,462.4	81.9362	2,462.4	85.008	2,462.4	76.613	2,462.4	84.7825	2,462.4	71.8044	2,462.4	82.3298	2,462.4	70.2977	2,462.4	73.8951	2,462.4	72.0973	2,462.4	76.2546	2,462.4	70.229	2,462.4	79.5232	2,462.4	64.9828	2,462.4	73.1081	2,462.4	65.2996	2,462.4	73.6445	2,462.4	68.3865	2,462.4	78.6526	2,462.4	65.2746	2,462.4	68.5075	2,462.4	65.2386	2,462.4	74.7019	2,462.4	67.34	2,462.4	73.2757	2,462.4	67.0778	2,462.4	57.0243	2,462.4	51.3964	2,462.4	64.2489	2,462.4	66.047	2,462.4	66.7439	2,462.4	58.4101
2,548.83	86.957	2,548.83	87.2878	2,548.83	84.1407	2,548.83	85.9648	2,548.83	81.2659	2,548.83	80.5378	2,548.83	83.7971	2,548.83	74.358	2,548.83	83.9715	2,548.83	73.4811	2,548.83	81.3809	2,548.83	74.0679	2,548.83	72.2167	2,548.83	75.2065	2,548.83	77.1629	2,548.83	73.1453	2,548.83	80.2863	2,548.83	68.9472	2,548.83	74.05	2,548.83	67.9674	2,548.83	74.0095	2,548.83	69.2457	2,548.83	79.4748	2,548.83	67.3521	2,548.83	70.0478	2,548.83	68.5557	2,548.83	74.8177	2,548.83	68.6474	2,548.83	72.344	2,548.83	65.6586	2,548.83	65.6983	2,548.83	56.9664	2,548.83	68.412	2,548.83	65.3924	2,548.83	67.18	2,548.83	60.6745
2,638.92	86.5129	2,638.92	86.603	2,638.92	82.4999	2,638.92	84.3638	2,638.92	77.5858	2,638.92	78.0475	2,638.92	82.5231	2,638.92	73.1381	2,638.92	83.1069	2,638.92	75.0742	2,638.92	80.4172	2,638.92	77.2335	2,638.92	71.4468	2,638.92	78.7342	2,638.92	77.0877	2,638.92	76.9365	2,638.92	80.1211	2,638.92	73.5675	2,638.92	72.8567	2,638.92	71.8102	2,638.92	74.9598	2,638.92	70.7449	2,638.92	79.5382	2,638.92	68.1262	2,638.92	71.7057	2,638.92	70.7536	2,638.92	73.9054	2,638.92	70.1232	2,638.92	71.2394	2,638.92	64.7541	2,638.92	63.9521	2,638.92	56.1603	2,638.92	65.406	2,638.92	65.4087	2,638.92	66.7103	2,638.92	61.6735
2,731.93	85.6021	2,731.93	85.9081	2,731.93	80.3528	2,731.93	82.8871	2,731.93	73.6742	2,731.93	73.5876	2,731.93	81.5472	2,731.93	74.4406	2,731.93	82.2131	2,731.93	77.4937	2,731.93	79.8686	2,731.93	79.2792	2,731.93	68.5695	2,731.93	80.1523	2,731.93	76.3509	2,731.93	78.2325	2,731.93	79.8131	2,731.93	74.8056	2,731.93	73.7648	2,731.93	72.1109	2,731.93	74.4471	2,731.93	69.5166	2,731.93	79.5891	2,731.93	66.3918	2,731.93	73.3604	2,731.93	70.4781	2,731.93	72.0376	2,731.93	70.1335	2,731.93	71.4955	2,731.93	61.2667	2,731.93	59.0627	2,731.93	52.3673	2,731.93	66.1162	2,731.93	60.9553	2,731.93	66.4615	2,731.93	61.7267
2,828.61	84.9204	2,828.61	85.3013	2,828.61	78.5509	2,828.61	81.9486	2,828.61	72.2441	2,828.61	68.4162	2,828.61	81.0195	2,828.61	75.4687	2,828.61	81.9239	2,828.61	78.8874	2,828.61	79.2675	2,828.61	80.1536	2,828.61	61.4166	2,828.61	80.3279	2,828.61	78.0133	2,828.61	77.8652	2,828.61	81.0464	2,828.61	73.8466	2,828.61	75.3929	2,828.61	70.3672	2,828.61	73.965	2,828.61	67.8948	2,828.61	79.4651	2,828.61	66.4158	2,828.61	73.4118	2,828.61	69.9273	2,828.61	70.274	2,828.61	69.741	2,828.61	71.1208	2,828.61	59.1701	2,828.61	56.6063	2,828.61	50.3704	2,828.61	64.2755	2,828.61	56.0559	2,828.61	64.4997	2,828.61	61.204
2,928.22	84.1701	2,928.22	84.7956	2,928.22	76.9636	2,928.22	81.0493	2,928.22	74.6789	2,928.22	62.6944	2,928.22	80.927	2,928.22	77.2617	2,928.22	81.7354	2,928.22	80.7497	2,928.22	78.744	2,928.22	80.9487	2,928.22	55.8561	2,928.22	79.4067	2,928.22	78.3135	2,928.22	75.9823	2,928.22	80.7931	2,928.22	73.2396	2,928.22	75.573	2,928.22	71.6143	2,928.22	72.9169	2,928.22	68.5892	2,928.22	77.725	2,928.22	66.3803	2,928.22	71.7955	2,928.22	69.1881	2,928.22	69.6005	2,928.22	68.1826	2,928.22	71.6264	2,928.22	61.1095	2,928.22	52.2351	2,928.22	56.7844	2,928.22	64.067	2,928.22	54.1251	2,928.22	61.7998	2,928.22	58.7015
3,031.49	82.5968	3,031.49	83.9584	3,031.49	74.027	3,031.49	79.941	3,031.49	77.5622	3,031.49	58.6792	3,031.49	82.126	3,031.49	78.7747	3,031.49	82.4738	3,031.49	81.402	3,031.49	78.8656	3,031.49	80.2483	3,031.49	62.4004	3,031.49	78.1892	3,031.49	77.7536	3,031.49	75.9609	3,031.49	79.7451	3,031.49	74.2001	3,031.49	74.5639	3,031.49	71.7778	3,031.49	70.2671	3,031.49	66.0755	3,031.49	76.7113	3,031.49	62.6604	3,031.49	72.0082	3,031.49	67.6144	3,031.49	66.8056	3,031.49	66.6934	3,031.49	69.4159	3,031.49	62.2394	3,031.49	59.5395	3,031.49	58.2556	3,031.49	63.0066	3,031.49	58.7884	3,031.49	60.9557	3,031.49	56.8239
3,138.43	83.1143	3,138.43	84.6926	3,138.43	74.0108	3,138.43	80.5778	3,138.43	78.7589	3,138.43	68.2246	3,138.43	83.0491	3,138.43	79.7501	3,138.43	83.1444	3,138.43	81.051	3,138.43	79.0747	3,138.43	79.1236	3,138.43	68.3349	3,138.43	77.1088	3,138.43	77.6826	3,138.43	73.2731	3,138.43	79.5294	3,138.43	70.0056	3,138.43	75.4549	3,138.43	69.1485	3,138.43	71.7519	3,138.43	65.5955	3,138.43	76.1156	3,138.43	62.5061	3,138.43	69.7286	3,138.43	66.8488	3,138.43	68.723	3,138.43	66.6708	3,138.43	68.9832	3,138.43	62.8387	3,138.43	62.8529	3,138.43	59.4384	3,138.43	65.3096	3,138.43	61.3732	3,138.43	60.7275	3,138.43	52.0032
3,249.02	83.381	3,249.02	84.9412	3,249.02	75.3207	3,249.02	80.6388	3,249.02	79.1243	3,249.02	69.7025	3,249.02	83.2827	3,249.02	80.7045	3,249.02	83.1525	3,249.02	81.9198	3,249.02	78.8515	3,249.02	79.5131	3,249.02	71.5656	3,249.02	77.0494	3,249.02	78.9683	3,249.02	74.96	3,249.02	80.8912	3,249.02	74.7264	3,249.02	77.9852	3,249.02	73.6961	3,249.02	71.1062	3,249.02	69.1061	3,249.02	74.6711	3,249.02	65.6052	3,249.02	67.0365	3,249.02	68.5325	3,249.02	70.6982	3,249.02	66.2127	3,249.02	68.2054	3,249.02	65.4263	3,249.02	65.1142	3,249.02	61.3718	3,249.02	65.5323	3,249.02	64.8612	3,249.02	62.5785	3,249.02	55.2593
3,363.28	83.6668	3,363.28	84.9986	3,363.28	76.7815	3,363.28	80.0478	3,363.28	79.6375	3,363.28	72.7286	3,363.28	83.5069	3,363.28	82.0632	3,363.28	83.1586	3,363.28	82.4778	3,363.28	78.892	3,363.28	80.1728	3,363.28	73.8265	3,363.28	79.8469	3,363.28	79.8806	3,363.28	77.8074	3,363.28	82.1174	3,363.28	75.3234	3,363.28	79.7371	3,363.28	73.269	3,363.28	65.4788	3,363.28	68.6265	3,363.28	73.2528	3,363.28	65.5926	3,363.28	65.9164	3,363.28	69.3662	3,363.28	71.0237	3,363.28	67.5817	3,363.28	68.5526	3,363.28	66.4309	3,363.28	62.8626	3,363.28	64.008	3,363.28	64.6673	3,363.28	64.4572	3,363.28	62.1746	3,363.28	57.1543
3,481.93	84.0276	3,481.93	84.5418	3,481.93	78.465	3,481.93	78.3949	3,481.93	79.8539	3,481.93	76.1479	3,481.93	83.6763	3,481.93	83.0123	3,481.93	83.2722	3,481.93	83.0676	3,481.93	78.5451	3,481.93	81.8384	3,481.93	74.0935	3,481.93	80.4119	3,481.93	80.8708	3,481.93	75.6841	3,481.93	83.1547	3,481.93	74.422	3,481.93	79.668	3,481.93	74.4974	3,481.93	59.4699	3,481.93	70.6657	3,481.93	75.6437	3,481.93	66.9045	3,481.93	68.6032	3,481.93	69.3649	3,481.93	71.8854	3,481.93	68.4454	3,481.93	69.5677	3,481.93	67.5944	3,481.93	61.9066	3,481.93	65.7994	3,481.93	66.4083	3,481.93	65.5205	3,481.93	61.4374	3,481.93	59.7893
3,604.98	84.055	3,604.98	84.0398	3,604.98	80.1977	3,604.98	77.5419	3,604.98	81.1124	3,604.98	78.7398	3,604.98	83.9168	3,604.98	83.9135	3,604.98	83.0569	3,604.98	83.903	3,604.98	79.1445	3,604.98	81.6507	3,604.98	75.591	3,604.98	79.3414	3,604.98	80.5186	3,604.98	76.512	3,604.98	82.4751	3,604.98	75.6565	3,604.98	78.6367	3,604.98	73.6358	3,604.98	68.7619	3,604.98	67.1638	3,604.98	75.9441	3,604.98	64.9107	3,604.98	66.7771	3,604.98	69.5522	3,604.98	72.1353	3,604.98	67.0488	3,604.98	69.7456	3,604.98	68.1718	3,604.98	61.7628	3,604.98	65.5061	3,604.98	66.2807	3,604.98	66.1331	3,604.98	62.0012	3,604.98	56.9482
3,732.42	83.3549	3,732.42	83.2543	3,732.42	80.3659	3,732.42	77.9389	3,732.42	81.7451	3,732.42	80.9943	3,732.42	84.0164	3,732.42	84.5583	3,732.42	83.1686	3,732.42	83.2973	3,732.42	79.7203	3,732.42	80.6959	3,732.42	76.2085	3,732.42	79.4512	3,732.42	79.7585	3,732.42	75.6742	3,732.42	80.9065	3,732.42	73.9734	3,732.42	74.9512	3,732.42	72.7818	3,732.42	70.9811	3,732.42	67.673	3,732.42	75.7404	3,732.42	65.2575	3,732.42	66.644	3,732.42	68.8402	3,732.42	70.9821	3,732.42	65.6395	3,732.42	68.3577	3,732.42	67.0609	3,732.42	59.8367	3,732.42	65.4865	3,732.42	65.7391	3,732.42	64.7594	3,732.42	59.503	3,732.42	58.7414
3,863.53	83.4977	3,863.53	82.9903	3,863.53	80.8866	3,863.53	79.2681	3,863.53	81.6054	3,863.53	82.0877	3,863.53	83.9492	3,863.53	84.4119	3,863.53	83.4945	3,863.53	82.9406	3,863.53	80.354	3,863.53	80.5929	3,863.53	76.4413	3,863.53	78.4893	3,863.53	78.7129	3,863.53	75.7807	3,863.53	80.2351	3,863.53	75.6833	3,863.53	75.4491	3,863.53	73.6867	3,863.53	56.3882	3,863.53	66.679	3,863.53	69.8906	3,863.53	63.3655	3,863.53	66.5814	3,863.53	68.5519	3,863.53	68.5352	3,863.53	65.8761	3,863.53	66.4066	3,863.53	67.3887	3,863.53	60.0831	3,863.53	64.9183	3,863.53	65.6156	3,863.53	63.745	3,863.53	57.7088	3,863.53	57.2992
3,999.76	83.9338	3,999.76	83.5723	3,999.76	82.0445	3,999.76	81.0615	3,999.76	82.3587	3,999.76	82.8722	3,999.76	83.7481	3,999.76	84.443	3,999.76	82.9138	3,999.76	82.514	3,999.76	79.806	3,999.76	80.5281	3,999.76	76.5218	3,999.76	79.797	3,999.76	77.7476	3,999.76	76.3985	3,999.76	78.3823	3,999.76	73.805	3,999.76	74.0876	3,999.76	71.9531	3,999.76	67.6008	3,999.76	67.9978	3,999.76	71.0615	3,999.76	65.7105	3,999.76	66.8568	3,999.76	69.7748	3,999.76	65.3868	3,999.76	66.5437	3,999.76	65.4643	3,999.76	66.8233	3,999.76	60.8708	3,999.76	65.2392	3,999.76	64.734	3,999.76	63.8395	3,999.76	55.9436	3,999.76	55.2086
4,141.11	83.8004	4,141.11	83.4267	4,141.11	82.0248	4,141.11	81.6448	4,141.11	82.5153	4,141.11	83.5765	4,141.11	84.1908	4,141.11	84.2535	4,141.11	83.5478	4,141.11	82.1053	4,141.11	80.0839	4,141.11	81.5429	4,141.11	75.3827	4,141.11	79.7523	4,141.11	76.0505	4,141.11	75.7307	4,141.11	76.8735	4,141.11	75.5888	4,141.11	71.7886	4,141.11	74.2268	4,141.11	65.2337	4,141.11	68.753	4,141.11	73.579	4,141.11	64.0718	4,141.11	69.5957	4,141.11	68.6391	4,141.11	66.8814	4,141.11	65.6938	4,141.11	67.902	4,141.11	67.7271	4,141.11	60.3247	4,141.11	65.1743	4,141.11	64.198	4,141.11	65.0422	4,141.11	58.83	4,141.11	55.7998
4,286.87	83.9129	4,286.87	83.5328	4,286.87	82.6919	4,286.87	82.809	4,286.87	82.7916	4,286.87	84.2334	4,286.87	83.9558	4,286.87	84.1576	4,286.87	82.9609	4,286.87	81.6643	4,286.87	79.1297	4,286.87	81.0007	4,286.87	75.1696	4,286.87	79.1839	4,286.87	74.7428	4,286.87	74.6185	4,286.87	75.1357	4,286.87	72.0146	4,286.87	72.6623	4,286.87	69.9212	4,286.87	63.5499	4,286.87	66.9864	4,286.87	68.8597	4,286.87	64.6998	4,286.87	63.5124	4,286.87	66.9313	4,286.87	67.2219	4,286.87	64.9848	4,286.87	66.8611	4,286.87	65.3225	4,286.87	58.2362	4,286.87	64.2936	4,286.87	62.2171	4,286.87	61.8305	4,286.87	60.1581	4,286.87	51.5654
4,438.48	83.8804	4,438.48	83.7728	4,438.48	83.226	4,438.48	83.9167	4,438.48	83.3266	4,438.48	84.4287	4,438.48	83.7155	4,438.48	83.4065	4,438.48	82.2078	4,438.48	82.0278	4,438.48	78.9882	4,438.48	81.3385	4,438.48	75.9531	4,438.48	76.8439	4,438.48	74.7713	4,438.48	74.9346	4,438.48	75.1556	4,438.48	73.736	4,438.48	74.1329	4,438.48	70.1488	4,438.48	67.3622	4,438.48	66.3705	4,438.48	65.4517	4,438.48	64.9242	4,438.48	58.6946	4,438.48	67.9884	4,438.48	67.8286	4,438.48	64.8698	4,438.48	66.7554	4,438.48	65.9424	4,438.48	60.8447	4,438.48	64.4878	4,438.48	63.8987	4,438.48	62.561	4,438.48	59.4886	4,438.48	56.7142
4,594.48	83.6595	4,594.48	84.3453	4,594.48	83.0697	4,594.48	84.3196	4,594.48	83.7948	4,594.48	84.1594	4,594.48	84.1745	4,594.48	83.6361	4,594.48	82.4126	4,594.48	82.3943	4,594.48	79.3926	4,594.48	80.9143	4,594.48	76.8121	4,594.48	78.8016	4,594.48	74.9565	4,594.48	76.0888	4,594.48	75.409	4,594.48	71.4487	4,594.48	75.7425	4,594.48	68.2427	4,594.48	72.4582	4,594.48	69.6941	4,594.48	68.4008	4,594.48	67.4318	4,594.48	52.373	4,594.48	66.7558	4,594.48	65.9473	4,594.48	63.8419	4,594.48	60.7528	4,594.48	63.139	4,594.48	60.9492	4,594.48	64.0269	4,594.48	60.4017	4,594.48	59.6356	4,594.48	56.0234	4,594.48	54.8741
4,757.08	84.3763	4,757.08	84.9419	4,757.08	83.3102	4,757.08	84.0975	4,757.08	83.7078	4,757.08	83.4026	4,757.08	84.0314	4,757.08	83.2994	4,757.08	82.4748	4,757.08	82.4381	4,757.08	80.058	4,757.08	80.9691	4,757.08	77.9337	4,757.08	79.402	4,757.08	77.1577	4,757.08	77.5853	4,757.08	77.7603	4,757.08	73.5388	4,757.08	75.913	4,757.08	69.2474	4,757.08	70.0594	4,757.08	68.7137	4,757.08	67.3672	4,757.08	66.0272	4,757.08	59.149	4,757.08	67.3538	4,757.08	66.6676	4,757.08	63.734	4,757.08	61.9946	4,757.08	63.5244	4,757.08	57.3755	4,757.08	63.7975	4,757.08	58.8634	4,757.08	62.5612	4,757.08	56.5112	4,757.08	59.5729
4,924.8	84.5624	4,924.8	85.0443	4,924.8	83.6819	4,924.8	83.9626	4,924.8	84.27	4,924.8	83.3385	4,924.8	84.4366	4,924.8	83.0644	4,924.8	82.7018	4,924.8	81.4669	4,924.8	80.2246	4,924.8	81.0719	4,924.8	78.3484	4,924.8	80.0327	4,924.8	77.9804	4,924.8	76.6558	4,924.8	77.2558	4,924.8	72.7092	4,924.8	72.5773	4,924.8	69.1476	4,924.8	64.709	4,924.8	69.2239	4,924.8	69.4027	4,924.8	65.166	4,924.8	64.4827	4,924.8	65.6013	4,924.8	65.482	4,924.8	64.2773	4,924.8	62.9792	4,924.8	63.3746	4,924.8	58.1384	4,924.8	65.0216	4,924.8	57.4473	4,924.8	62.5186	4,924.8	54.5586	4,924.8	59.9477
5,098.39	84.5961	5,098.39	84.3487	5,098.39	83.9524	5,098.39	83.2085	5,098.39	83.9771	5,098.39	82.9505	5,098.39	84.0388	5,098.39	82.266	5,098.39	82.8535	5,098.39	80.8936	5,098.39	80.9567	5,098.39	81.0524	5,098.39	78.7393	5,098.39	79.1435	5,098.39	77.2837	5,098.39	76.6103	5,098.39	76.0914	5,098.39	72.9774	5,098.39	71.8074	5,098.39	67.4055	5,098.39	59.3104	5,098.39	68.4353	5,098.39	65.0904	5,098.39	66.2913	5,098.39	65.3229	5,098.39	65.9317	5,098.39	63.0731	5,098.39	64.9787	5,098.39	63.6103	5,098.39	61.3139	5,098.39	50.1403	5,098.39	64.4221	5,098.39	59.2211	5,098.39	62.8612	5,098.39	58.1252	5,098.39	59.5307
5,277.83	84.3341	5,277.83	83.965	5,277.83	84.236	5,277.83	83.336	5,277.83	84.1689	5,277.83	82.765	5,277.83	83.6892	5,277.83	81.149	5,277.83	82.543	5,277.83	80.2236	5,277.83	81.12	5,277.83	80.6344	5,277.83	79.1966	5,277.83	78.7357	5,277.83	77.3445	5,277.83	77.3955	5,277.83	74.7624	5,277.83	73.8643	5,277.83	69.9563	5,277.83	67.2677	5,277.83	62.7952	5,277.83	68.2252	5,277.83	63.4372	5,277.83	65.8755	5,277.83	63.8204	5,277.83	62.8122	5,277.83	60.1847	5,277.83	64.4263	5,277.83	65.0666	5,277.83	57.3512	5,277.83	51.217	5,277.83	62.746	5,277.83	59.609	5,277.83	60.5758	5,277.83	56.768	5,277.83	59.8844
5,463.87	84.2227	5,463.87	83.7617	5,463.87	84.2533	5,463.87	83.0688	5,463.87	83.9701	5,463.87	82.1284	5,463.87	83.4053	5,463.87	80.8662	5,463.87	82.442	5,463.87	80.6131	5,463.87	80.8504	5,463.87	80.2409	5,463.87	79.0077	5,463.87	78.5732	5,463.87	76.5917	5,463.87	76.843	5,463.87	72.0037	5,463.87	72.5831	5,463.87	67.4727	5,463.87	67.1115	5,463.87	65.4534	5,463.87	67.5463	5,463.87	64.9059	5,463.87	66.823	5,463.87	59.4182	5,463.87	58.7583	5,463.87	61.3261	5,463.87	61.2568	5,463.87	63.6621	5,463.87	54.299	5,463.87	47.5691	5,463.87	60.1772	5,463.87	55.9128	5,463.87	60.5218	5,463.87	52.4073	5,463.87	59.3285
5,656.49	83.89	5,656.49	83.6469	5,656.49	83.8359	5,656.49	82.9231	5,656.49	83.6543	5,656.49	81.9944	5,656.49	83.2114	5,656.49	81.3294	5,656.49	82.3786	5,656.49	80.7897	5,656.49	80.8581	5,656.49	79.5273	5,656.49	78.7303	5,656.49	77.8511	5,656.49	75.223	5,656.49	76.2709	5,656.49	69.4768	5,656.49	72.7427	5,656.49	67.0503	5,656.49	68.2196	5,656.49	62.2413	5,656.49	66.8316	5,656.49	64.2015	5,656.49	65.1931	5,656.49	55.7397	5,656.49	58.9391	5,656.49	61.7626	5,656.49	61.4713	5,656.49	62.2675	5,656.49	49.1981	5,656.49	54.5501	5,656.49	58.0633	5,656.49	50.7593	5,656.49	59.6688	5,656.49	50.3008	5,656.49	59.741
5,856.45	84.2101	5,856.45	84.004	5,856.45	83.4408	5,856.45	82.9453	5,856.45	83.0142	5,856.45	82.5565	5,856.45	83.0517	5,856.45	82.357	5,856.45	82.2363	5,856.45	81.1136	5,856.45	80.1639	5,856.45	79.722	5,856.45	77.9902	5,856.45	77.8133	5,856.45	74.865	5,856.45	75.7289	5,856.45	70.9801	5,856.45	73.1105	5,856.45	68.546	5,856.45	69.5054	5,856.45	62.4038	5,856.45	66.9171	5,856.45	59.4898	5,856.45	64.2287	5,856.45	58.36	5,856.45	61.3553	5,856.45	62.0959	5,856.45	58.4429	5,856.45	60.4481	5,856.45	55.2471	5,856.45	51.528	5,856.45	56.7361	5,856.45	46.6711	5,856.45	60.7644	5,856.45	53.6559	5,856.45	58.2915
6,062.99	85.3144	6,062.99	84.808	6,062.99	84.0499	6,062.99	83.5421	6,062.99	82.8328	6,062.99	83.318	6,062.99	82.745	6,062.99	82.5253	6,062.99	81.8502	6,062.99	81.1778	6,062.99	80.1424	6,062.99	80.6261	6,062.99	78.1419	6,062.99	78.0939	6,062.99	73.7347	6,062.99	75.5358	6,062.99	69.556	6,062.99	72.2512	6,062.99	68.4179	6,062.99	69.4387	6,062.99	66.367	6,062.99	69.6273	6,062.99	64.4979	6,062.99	64.555	6,062.99	64.7878	6,062.99	62.925	6,062.99	60.2477	6,062.99	59.7255	6,062.99	57.7022	6,062.99	58.9749	6,062.99	53.155	6,062.99	53.8409	6,062.99	52.017	6,062.99	61.8082	6,062.99	53.0139	6,062.99	56.9979
6,276.86	85.6056	6,276.86	84.9508	6,276.86	84.5356	6,276.86	83.6806	6,276.86	83.0158	6,276.86	82.8828	6,276.86	82.4328	6,276.86	81.7406	6,276.86	81.5782	6,276.86	81.643	6,276.86	80.1796	6,276.86	81.0354	6,276.86	78.0574	6,276.86	78.5494	6,276.86	74.2399	6,276.86	76.6881	6,276.86	70.9905	6,276.86	71.4024	6,276.86	68.0367	6,276.86	66.5544	6,276.86	66.3668	6,276.86	68.5414	6,276.86	65.1466	6,276.86	63.6072	6,276.86	64.2078	6,276.86	61.4339	6,276.86	56.0452	6,276.86	58.1263	6,276.86	57.9596	6,276.86	57.0254	6,276.86	55.7953	6,276.86	50.5291	6,276.86	54.9055	6,276.86	59.8225	6,276.86	54.8771	6,276.86	52.8628
6,498.05	85.9737	6,498.05	85.5003	6,498.05	85.0968	6,498.05	84.0412	6,498.05	83.6292	6,498.05	82.4532	6,498.05	82.1435	6,498.05	81.4456	6,498.05	80.5899	6,498.05	81.3701	6,498.05	79.6901	6,498.05	80.0319	6,498.05	78.3683	6,498.05	77.5394	6,498.05	75.6787	6,498.05	75.6435	6,498.05	72.5291	6,498.05	71.8201	6,498.05	69.2079	6,498.05	66.3525	6,498.05	67.0534	6,498.05	67.5735	6,498.05	65.7036	6,498.05	63.7147	6,498.05	58.187	6,498.05	56.933	6,498.05	56.0053	6,498.05	59.1603	6,498.05	56.5344	6,498.05	51.0385	6,498.05	56.9694	6,498.05	50.8587	6,498.05	54.0895	6,498.05	59.4254	6,498.05	53.2272	6,498.05	58.0892
6,727.29	86.8855	6,727.29	86.0621	6,727.29	85.935	6,727.29	84.1476	6,727.29	84.0924	6,727.29	82.7388	6,727.29	82.2433	6,727.29	81.6393	6,727.29	80.76	6,727.29	80.6502	6,727.29	79.7927	6,727.29	78.881	6,727.29	77.839	6,727.29	76.9138	6,727.29	75.5285	6,727.29	76.0286	6,727.29	72.5163	6,727.29	71.6731	6,727.29	67.664	6,727.29	65.0362	6,727.29	66.0215	6,727.29	65.6472	6,727.29	66.0133	6,727.29	64.1603	6,727.29	58.6257	6,727.29	51.2189	6,727.29	55.1919	6,727.29	57.0946	6,727.29	57.783	6,727.29	52.882	6,727.29	58.471	6,727.29	45.3773	6,727.29	54.4382	6,727.29	60.2005	6,727.29	56.9552	6,727.29	56.6586
6,964.6	86.7903	6,964.6	85.7661	6,964.6	86.2891	6,964.6	84.2833	6,964.6	84.4989	6,964.6	83.0347	6,964.6	82.3106	6,964.6	81.5738	6,964.6	80.5053	6,964.6	80.3663	6,964.6	79.0816	6,964.6	78.5429	6,964.6	77.7455	6,964.6	77.3579	6,964.6	75.6529	6,964.6	75.8919	6,964.6	69.8447	6,964.6	71.7887	6,964.6	62.895	6,964.6	66.5358	6,964.6	64.8781	6,964.6	65.2905	6,964.6	66.6695	6,964.6	64.1013	6,964.6	53.9942	6,964.6	42.4823	6,964.6	51.0464	6,964.6	56.1439	6,964.6	56.3268	6,964.6	49.5745	6,964.6	56.5694	6,964.6	49.6773	6,964.6	55.3647	6,964.6	56.3622	6,964.6	53.9892	6,964.6	56.7938
7,209.96	86.8486	7,209.96	85.839	7,209.96	86.3106	7,209.96	84.2707	7,209.96	84.5109	7,209.96	83.0955	7,209.96	82.3597	7,209.96	81.6439	7,209.96	80.4981	7,209.96	79.8755	7,209.96	78.8387	7,209.96	77.9539	7,209.96	77.5654	7,209.96	76.3877	7,209.96	74.6514	7,209.96	74.0436	7,209.96	64.7731	7,209.96	70.4335	7,209.96	62.2695	7,209.96	65.755	7,209.96	62.6779	7,209.96	63.2563	7,209.96	69.3028	7,209.96	62.6063	7,209.96	61.6975	7,209.96	48.2213	7,209.96	56.2009	7,209.96	55.5818	7,209.96	45.3562	7,209.96	53.7862	7,209.96	54.5397	7,209.96	52.0741	7,209.96	55.7202	7,209.96	57.9065	7,209.96	55.9963	7,209.96	57.3677
7,464.11	86.1697	7,464.11	84.8848	7,464.11	85.9769	7,464.11	83.7012	7,464.11	84.4281	7,464.11	82.8786	7,464.11	82.6375	7,464.11	81.0463	7,464.11	80.7475	7,464.11	79.5396	7,464.11	78.8315	7,464.11	77.6689	7,464.11	77.511	7,464.11	75.0711	7,464.11	73.2394	7,464.11	73.8755	7,464.11	68.8364	7,464.11	70.9882	7,464.11	68.4324	7,464.11	65.8496	7,464.11	58.1492	7,464.11	62.2477	7,464.11	66.8687	7,464.11	61.4	7,464.11	59.0453	7,464.11	50.9909	7,464.11	57.3743	7,464.11	50.4343	7,464.11	42.886	7,464.11	56.4669	7,464.11	51.7802	7,464.11	52.9393	7,464.11	56.5516	7,464.11	57.4979	7,464.11	55.6663	7,464.11	57.063
7,727.78	84.9611	7,727.78	83.998	7,727.78	85.1812	7,727.78	83.4146	7,727.78	84.183	7,727.78	82.2429	7,727.78	82.71	7,727.78	80.7726	7,727.78	80.8251	7,727.78	79.7083	7,727.78	79.1588	7,727.78	76.6678	7,727.78	77.756	7,727.78	74.9967	7,727.78	73.6848	7,727.78	72.7993	7,727.78	71.3272	7,727.78	68.538	7,727.78	68.7683	7,727.78	64.0651	7,727.78	59.1779	7,727.78	60.8015	7,727.78	66.1559	7,727.78	58.8441	7,727.78	53.4244	7,727.78	51.3726	7,727.78	58.1269	7,727.78	50.9499	7,727.78	48.0754	7,727.78	56.2164	7,727.78	48.912	7,727.78	55.1957	7,727.78	58.2133	7,727.78	56.7232	7,727.78	57.2381	7,727.78	56.6562
8,000.24	84.8255	8,000.24	84.3662	8,000.24	84.78	8,000.24	83.5572	8,000.24	84.0339	8,000.24	82.3756	8,000.24	82.7198	8,000.24	81.038	8,000.24	80.5733	8,000.24	78.7672	8,000.24	78.6673	8,000.24	76.5529	8,000.24	76.9311	8,000.24	74.7242	8,000.24	73.5409	8,000.24	72.0912	8,000.24	71.4035	8,000.24	69.3163	8,000.24	67.2848	8,000.24	62.8136	8,000.24	55.0207	8,000.24	60.3158	8,000.24	65.2271	8,000.24	59.0931	8,000.24	56.9171	8,000.24	52.4444	8,000.24	58.8972	8,000.24	53.2887	8,000.24	53.755	8,000.24	57.4921	8,000.24	49.3481	8,000.24	55.9867	8,000.24	55.362	8,000.24	57.876	8,000.24	57.0939	8,000.24	55.2835
8,282.23	86.0452	8,282.23	85.5933	8,282.23	85.2427	8,282.23	84.1715	8,282.23	83.672	8,282.23	82.5384	8,282.23	82.0021	8,282.23	80.6556	8,282.23	80.2252	8,282.23	78.6018	8,282.23	78.6247	8,282.23	76.07	8,282.23	76.5372	8,282.23	72.8182	8,282.23	73.2003	8,282.23	72.1249	8,282.23	69.0939	8,282.23	68.7498	8,282.23	64.6684	8,282.23	62.7941	8,282.23	54.9379	8,282.23	60.8854	8,282.23	63.9899	8,282.23	60.1503	8,282.23	59.1056	8,282.23	50.3722	8,282.23	55.0144	8,282.23	53.8889	8,282.23	54.8376	8,282.23	55.6509	8,282.23	51.3553	8,282.23	52.3837	8,282.23	53.7668	8,282.23	58.2593	8,282.23	56.6577	8,282.23	56.3934
8,574.46	87.2826	8,574.46	86.4249	8,574.46	86.249	8,574.46	84.5478	8,574.46	83.9971	8,574.46	82.6286	8,574.46	81.8371	8,574.46	80.3504	8,574.46	79.5139	8,574.46	77.6757	8,574.46	77.5296	8,574.46	74.1898	8,574.46	75.723	8,574.46	73.0136	8,574.46	72.0573	8,574.46	71.3459	8,574.46	67.1416	8,574.46	67.8778	8,574.46	64.3985	8,574.46	62.5054	8,574.46	58.9883	8,574.46	58.6924	8,574.46	67.6889	8,574.46	59.8214	8,574.46	57.9549	8,574.46	45.9881	8,574.46	58.9434	8,574.46	53.9126	8,574.46	45.2141	8,574.46	58.2131	8,574.46	57.4877	8,574.46	59.3506	8,574.46	58.155	8,574.46	56.1491	8,574.46	59.8384	8,574.46	56.9991
8,876.22	87.0533	8,876.22	86.1026	8,876.22	86.5678	8,876.22	84.4913	8,876.22	84.8112	8,876.22	82.4619	8,876.22	82.3139	8,876.22	79.885	8,876.22	79.4124	8,876.22	76.4933	8,876.22	77.1354	8,876.22	73.578	8,876.22	74.6797	8,876.22	72.1915	8,876.22	70.7742	8,876.22	70.6506	8,876.22	67.5414	8,876.22	68.6526	8,876.22	65.6677	8,876.22	63.0782	8,876.22	55.5009	8,876.22	58.0573	8,876.22	67.6027	8,876.22	60.5425	8,876.22	59.7069	8,876.22	41.1472	8,876.22	58.6622	8,876.22	55.0473	8,876.22	48.8441	8,876.22	58.2452	8,876.22	55.3237	8,876.22	59.2193	8,876.22	56.6424	8,876.22	54.7851	8,876.22	59.3073	8,876.22	54.2554
9,189.7	86.1419	9,189.7	85.0759	9,189.7	85.9852	9,189.7	83.8617	9,189.7	84.6286	9,189.7	82.1588	9,189.7	82.3303	9,189.7	79.1164	9,189.7	79.4034	9,189.7	75.4664	9,189.7	76.7745	9,189.7	73.1359	9,189.7	73.7092	9,189.7	71.935	9,189.7	68.7448	9,189.7	70.0253	9,189.7	66.3579	9,189.7	67.4556	9,189.7	65.8833	9,189.7	62.9133	9,189.7	43.8246	9,189.7	57.3363	9,189.7	64.9992	9,189.7	59.6584	9,189.7	57.4651	9,189.7	30.5017	9,189.7	57.7685	9,189.7	49.1147	9,189.7	52.6614	9,189.7	57.2618	9,189.7	47.8273	9,189.7	55.6969	9,189.7	53.6196	9,189.7	53.8788	9,189.7	58.323	9,189.7	50.9426
9,513.43	84.3712	9,513.43	83.7243	9,513.43	84.8692	9,513.43	83.1121	9,513.43	84.1446	9,513.43	81.3222	9,513.43	82.1057	9,513.43	78.5075	9,513.43	79.5915	9,513.43	75.3588	9,513.43	76.6006	9,513.43	73.8943	9,513.43	72.5491	9,513.43	70.9306	9,513.43	67.8547	9,513.43	70.5338	9,513.43	68.5909	9,513.43	67.3231	9,513.43	65.2479	9,513.43	61.4245	9,513.43	53.0761	9,513.43	57.8594	9,513.43	63.3298	9,513.43	57.8157	9,513.43	58.5356	9,513.43	47.7727	9,513.43	52.1862	9,513.43	35.9538	9,513.43	53.693	9,513.43	58.8291	9,513.43	43.9906	9,513.43	52.1302	9,513.43	40.0918	9,513.43	53.9273	9,513.43	56.1138	9,513.43	51.6027
9,848.88	83.8297	9,848.88	83.8624	9,848.88	84.1885	9,848.88	83.4897	9,848.88	83.6313	9,848.88	81.1136	9,848.88	81.7724	9,848.88	77.843	9,848.88	79.4024	9,848.88	75.7739	9,848.88	76.283	9,848.88	73.2223	9,848.88	73.3808	9,848.88	70.8493	9,848.88	71.1192	9,848.88	69.6192	9,848.88	68.5842	9,848.88	65.3631	9,848.88	62.9666	9,848.88	60.4715	9,848.88	40.694	9,848.88	56.1143	9,848.88	57.1923	9,848.88	55.7134	9,848.88	50.487	9,848.88	48.9952	9,848.88	51.6598	9,848.88	45.387	9,848.88	50.9309	9,848.88	57.3073	9,848.88	46.5091	9,848.88	54.1497	9,848.88	52.7621	9,848.88	51.7398	9,848.88	56.0211	9,848.88	54.7649
10,196.8	84.382	10,196.8	84.7789	10,196.8	83.9876	10,196.8	83.6285	10,196.8	83.0109	10,196.8	80.4811	10,196.8	81.1148	10,196.8	78.1398	10,196.8	78.9536	10,196.8	75.3559	10,196.8	75.9007	10,196.8	72.2153	10,196.8	73.6364	10,196.8	69.8442	10,196.8	69.8913	10,196.8	68.9526	10,196.8	65.5149	10,196.8	65.7672	10,196.8	61.5153	10,196.8	61.034	10,196.8	47.0588	10,196.8	54.4121	10,196.8	55.9684	10,196.8	56.2843	10,196.8	49.6953	10,196.8	47.8793	10,196.8	48.5794	10,196.8	38.5482	10,196.8	46.9833	10,196.8	57.6144	10,196.8	46.7271	10,196.8	54.1732	10,196.8	55.3197	10,196.8	53.2182	10,196.8	58.947	10,196.8	57.1616
10,556.4	84.7807	10,556.4	85.0163	10,556.4	84.0078	10,556.4	83.1549	10,556.4	82.7641	10,556.4	79.5437	10,556.4	80.5921	10,556.4	77.1872	10,556.4	78.2062	10,556.4	74.0912	10,556.4	75.1033	10,556.4	71.3802	10,556.4	72.6516	10,556.4	69.1104	10,556.4	66.5004	10,556.4	68.1195	10,556.4	64.8759	10,556.4	65.0502	10,556.4	60.9771	10,556.4	61.0442	10,556.4	52.7514	10,556.4	52.0803	10,556.4	60.6644	10,556.4	54.1884	10,556.4	51.8676	10,556.4	44.9434	10,556.4	49.1711	10,556.4	46.9902	10,556.4	45.9856	10,556.4	58.0184	10,556.4	51.2948	10,556.4	54.7367	10,556.4	55.5519	10,556.4	54.0274	10,556.4	60.6137	10,556.4	60.2421
10,928.5	84.6668	10,928.5	84.2147	10,928.5	84.0921	10,928.5	81.6761	10,928.5	82.6384	10,928.5	78.4631	10,928.5	80.1168	10,928.5	76.5519	10,928.5	77.3847	10,928.5	73.255	10,928.5	74.1743	10,928.5	70.4492	10,928.5	70.811	10,928.5	67.525	10,928.5	65.9121	10,928.5	67.1658	10,928.5	65.9369	10,928.5	64.9455	10,928.5	59.4928	10,928.5	60.9161	10,928.5	56.0078	10,928.5	48.4651	10,928.5	56.4863	10,928.5	53.3721	10,928.5	52.5687	10,928.5	47.3033	10,928.5	50.0107	10,928.5	51.4778	10,928.5	34.4065	10,928.5	57.8777	10,928.5	49.8404	10,928.5	55.3584	10,928.5	50.367	10,928.5	56.15	10,928.5	60.2924	10,928.5	62.8829
11,313.7	83.963	11,313.7	83.2407	11,313.7	83.5452	11,313.7	80.6748	11,313.7	82.101	11,313.7	77.9121	11,313.7	79.457	11,313.7	75.8808	11,313.7	76.6699	11,313.7	72.1991	11,313.7	72.8873	11,313.7	68.3452	11,313.7	69.8055	11,313.7	66.9812	11,313.7	67.0272	11,313.7	66.2608	11,313.7	65.2503	11,313.7	64.9393	11,313.7	60.58	11,313.7	60.3654	11,313.7	52.2145	11,313.7	45.1135	11,313.7	58.4861	11,313.7	52.3766	11,313.7	54.8954	11,313.7	43.6599	11,313.7	50.8431	11,313.7	53.9826	11,313.7	40.131	11,313.7	55.2078	11,313.7	46.6126	11,313.7	54.8667	11,313.7	47.8175	11,313.7	59.4481	11,313.7	55.1842	11,313.7	64.2274
11,712.9	83.2304	11,712.9	82.9465	11,712.9	82.5792	11,712.9	80.4828	11,712.9	81.2995	11,712.9	77.9621	11,712.9	78.5989	11,712.9	75.4972	11,712.9	75.7823	11,712.9	71.2543	11,712.9	72.0673	11,712.9	68.2121	11,712.9	71.0558	11,712.9	66.4657	11,712.9	67.4447	11,712.9	66.6746	11,712.9	63.5775	11,712.9	65.8128	11,712.9	60.1206	11,712.9	60.7832	11,712.9	50.5089	11,712.9	43.0733	11,712.9	60.8901	11,712.9	53.3692	11,712.9	54.4085	11,712.9	48.6933	11,712.9	55.6219	11,712.9	56.726	11,712.9	40.8031	11,712.9	56.2973	11,712.9	50.2611	11,712.9	56.9602	11,712.9	57.5479	11,712.9	61.7982	11,712.9	47.9057	11,712.9	65.0376
12,126	83.0811	12,126	82.8955	12,126	81.973	12,126	80.0938	12,126	80.631	12,126	78.3219	12,126	77.9565	12,126	74.7758	12,126	75.9237	12,126	71.9897	12,126	72.981	12,126	67.5066	12,126	72.3052	12,126	68.4913	12,126	66.8263	12,126	67.1924	12,126	66.4487	12,126	67.0297	12,126	63.1361	12,126	59.6265	12,126	53.8271	12,126	47.1691	12,126	66.1779	12,126	56.9283	12,126	61.2999	12,126	52.7582	12,126	60.326	12,126	58.7764	12,126	52.4834	12,126	60.1653	12,126	57.5149	12,126	60.8013	12,126	60.4661	12,126	63.6097	12,126	58.8762	12,126	64.8555
12,553.7	83.6569	12,553.7	82.7044	12,553.7	82.4871	12,553.7	80.0432	12,553.7	80.8764	12,553.7	78.6416	12,553.7	78.4058	12,553.7	74.2982	12,553.7	76.5711	12,553.7	73.2097	12,553.7	73.3536	12,553.7	67.3641	12,553.7	73.3986	12,553.7	69.6567	12,553.7	66.7786	12,553.7	67.5866	12,553.7	67.429	12,553.7	66.6298	12,553.7	63.6298	12,553.7	61.0184	12,553.7	58.796	12,553.7	48.6041	12,553.7	67.9685	12,553.7	59.1442	12,553.7	64.7946	12,553.7	56.2867	12,553.7	61.5289	12,553.7	59.5903	12,553.7	57.6132	12,553.7	62.6801	12,553.7	58.2513	12,553.7	61.1886	12,553.7	58.7227	12,553.7	64.5646	12,553.7	62.4129	12,553.7	63.8538
12,996.1	83.9686	12,996.1	82.6755	12,996.1	83.0586	12,996.1	81.1659	12,996.1	81.6713	12,996.1	79.004	12,996.1	79.2757	12,996.1	74.9882	12,996.1	76.6519	12,996.1	73.8802	12,996.1	73.5753	12,996.1	68.55	12,996.1	72.5663	12,996.1	68.5078	12,996.1	63.0377	12,996.1	66.9708	12,996.1	68.0391	12,996.1	66.4722	12,996.1	62.7273	12,996.1	63.4459	12,996.1	60.3988	12,996.1	50.296	12,996.1	66.7668	12,996.1	59.5026	12,996.1	64.7209	12,996.1	57.9248	12,996.1	60.7755	12,996.1	59.3259	12,996.1	57.5816	12,996.1	62.4716	12,996.1	58.2236	12,996.1	59.3091	12,996.1	52.9376	12,996.1	64.5944	12,996.1	62.2734	12,996.1	63.9419
13,454.6	83.9654	13,454.6	82.9241	13,454.6	83.3073	13,454.6	82.0473	13,454.6	82.2815	13,454.6	78.954	13,454.6	79.5843	13,454.6	75.9896	13,454.6	76.7649	13,454.6	74.0163	13,454.6	73.6161	13,454.6	68.4135	13,454.6	71.9386	13,454.6	66.7115	13,454.6	63.7667	13,454.6	66.5699	13,454.6	67.3703	13,454.6	66.6841	13,454.6	58.2909	13,454.6	65.1059	13,454.6	58.8236	13,454.6	52.3291	13,454.6	65.852	13,454.6	59.0236	13,454.6	64.4875	13,454.6	58.7057	13,454.6	58.0512	13,454.6	58.9086	13,454.6	54.233	13,454.6	61.9143	13,454.6	56.6187	13,454.6	60.1786	13,454.6	57.738	13,454.6	64.7296	13,454.6	62.2823	13,454.6	65.6475
13,928.5	83.6885	13,928.5	83.1376	13,928.5	83.1775	13,928.5	82.133	13,928.5	82.4153	13,928.5	78.4389	13,928.5	79.6117	13,928.5	75.963	13,928.5	77.0438	13,928.5	73.1742	13,928.5	73.2492	13,928.5	67.11	13,928.5	71.8607	13,928.5	65.6194	13,928.5	63.2196	13,928.5	65.314	13,928.5	65.5833	13,928.5	67.2217	13,928.5	59.9407	13,928.5	63.842	13,928.5	55.8445	13,928.5	55.4189	13,928.5	68.7577	13,928.5	59.696	13,928.5	64.9163	13,928.5	58.0741	13,928.5	61.635	13,928.5	60.7363	13,928.5	50.9198	13,928.5	62.705	13,928.5	57.3832	13,928.5	64.1442	13,928.5	62.1471	13,928.5	64.7916	13,928.5	63.0659	13,928.5	66.9787
14,419.9	83.1306	14,419.9	83.0871	14,419.9	82.3395	14,419.9	81.4681	14,419.9	81.7854	14,419.9	77.9788	14,419.9	78.9644	14,419.9	74.9302	14,419.9	76.7528	14,419.9	72.246	14,419.9	72.4764	14,419.9	64.333	14,419.9	71.6572	14,419.9	65.822	14,419.9	60.6388	14,419.9	63.9412	14,419.9	66.4749	14,419.9	67.2166	14,419.9	61.3204	14,419.9	63.5037	14,419.9	59.763	14,419.9	57.3737	14,419.9	70.5308	14,419.9	60.7864	14,419.9	66.7055	14,419.9	59.0791	14,419.9	63.3121	14,419.9	62.7436	14,419.9	52.8041	14,419.9	64.3358	14,419.9	60.9826	14,419.9	65.9958	14,419.9	62.3774	14,419.9	65.3305	14,419.9	65.0791	14,419.9	66.8833
14,928.2	83.6894	14,928.2	83.238	14,928.2	82.7861	14,928.2	81.1103	14,928.2	82.1181	14,928.2	77.9676	14,928.2	79.2902	14,928.2	74.3776	14,928.2	76.7008	14,928.2	72.1077	14,928.2	72.0237	14,928.2	63.1063	14,928.2	72.0188	14,928.2	65.6556	14,928.2	61.6541	14,928.2	63.4351	14,928.2	66.6598	14,928.2	66.9316	14,928.2	61.7127	14,928.2	64.9377	14,928.2	60.9465	14,928.2	58.8349	14,928.2	71.2927	14,928.2	61.6404	14,928.2	67.4224	14,928.2	60.1008	14,928.2	64.5528	14,928.2	63.1178	14,928.2	55.5805	14,928.2	65.3112	14,928.2	62.1995	14,928.2	66.9067	14,928.2	61.5915	14,928.2	65.0933	14,928.2	65.8846	14,928.2	66.678
15,454.8	84.2776	15,454.8	83.3087	15,454.8	83.6074	15,454.8	81.1359	15,454.8	82.6409	15,454.8	78.0399	15,454.8	79.6269	15,454.8	73.9414	15,454.8	76.5183	15,454.8	71.6624	15,454.8	71.9211	15,454.8	63.5076	15,454.8	71.5926	15,454.8	64.0401	15,454.8	59.9923	15,454.8	61.9776	15,454.8	65.1317	15,454.8	66.2937	15,454.8	62.5332	15,454.8	64.4212	15,454.8	61.1643	15,454.8	58.3612	15,454.8	71.196	15,454.8	60.9862	15,454.8	67.4139	15,454.8	59.3192	15,454.8	63.4794	15,454.8	62.4475	15,454.8	51.7017	15,454.8	65.604	15,454.8	62.4979	15,454.8	66.9971	15,454.8	62.0393	15,454.8	64.7683	15,454.8	66.0242	15,454.8	66.5321
15,999.8	83.6423	15,999.8	82.4913	15,999.8	83.1268	15,999.8	80.5994	15,999.8	82.1737	15,999.8	77.559	15,999.8	78.9426	15,999.8	72.6196	15,999.8	75.41	15,999.8	70.8001	15,999.8	70.5926	15,999.8	63.7921	15,999.8	69.7222	15,999.8	61.6522	15,999.8	59.5041	15,999.8	60.2744	15,999.8	65.3866	15,999.8	64.6349	15,999.8	60.6061	15,999.8	63.3368	15,999.8	61.0238	15,999.8	57.795	15,999.8	70.5156	15,999.8	60.0059	15,999.8	66.907	15,999.8	58.6206	15,999.8	62.2272	15,999.8	61.529	15,999.8	48.8316	15,999.8	65.6313	15,999.8	61.6154	15,999.8	66.4831	15,999.8	62.5247	15,999.8	64.8469	15,999.8	65.8653	15,999.8	66.3006
16,564.5	85.1895	16,564.5	84.2905	16,564.5	84.6422	16,564.5	82.2429	16,564.5	83.3494	16,564.5	78.737	16,564.5	79.6674	16,564.5	73.0828	16,564.5	76.1455	16,564.5	71.6699	16,564.5	70.7815	16,564.5	65.0754	16,564.5	70.6928	16,564.5	60.9805	16,564.5	62.9251	16,564.5	58.1108	16,564.5	64.8845	16,564.5	63.7277	16,564.5	58.8544	16,564.5	62.8162	16,564.5	60.7089	16,564.5	57.2929	16,564.5	70.1953	16,564.5	59.7062	16,564.5	66.6845	16,564.5	59.4678	16,564.5	63.3364	16,564.5	62.092	16,564.5	51.4849	16,564.5	66.247	16,564.5	62.3918	16,564.5	66.2295	16,564.5	62.4034	16,564.5	66.3224	16,564.5	66.5166	16,564.5	66.7714
17,148.2	86.351	17,148.2	85.2051	17,148.2	85.3967	17,148.2	82.4597	17,148.2	83.2513	17,148.2	78.3321	17,148.2	79.2662	17,148.2	72.2575	17,148.2	75.0016	17,148.2	71.1217	17,148.2	68.6175	17,148.2	64.741	17,148.2	69.9533	17,148.2	58.3168	17,148.2	59.4033	17,148.2	56.429	17,148.2	63.5951	17,148.2	61.8877	17,148.2	55.7434	17,148.2	62.198	17,148.2	57.7618	17,148.2	55.9115	17,148.2	68.8585	17,148.2	58.2746	17,148.2	65.8502	17,148.2	59.1564	17,148.2	62.2999	17,148.2	60.6388	17,148.2	52.714	17,148.2	65.878	17,148.2	61.4598	17,148.2	64.5529	17,148.2	60.8619	17,148.2	66.5435	17,148.2	65.7103	17,148.2	66.7386
17,753.2	87.3832	17,753.2	85.5537	17,753.2	86.0894	17,753.2	81.9996	17,753.2	82.9232	17,753.2	77.6052	17,753.2	78.2848	17,753.2	71.7539	17,753.2	72.1272	17,753.2	69.4141	17,753.2	66.0112	17,753.2	64.2686	17,753.2	65.8886	17,753.2	54.7075	17,753.2	54.5595	17,753.2	55.1919	17,753.2	61.1325	17,753.2	60.3864	17,753.2	55.1985	17,753.2	59.1928	17,753.2	51.3329	17,753.2	53.7159	17,753.2	67.1052	17,753.2	55.1964	17,753.2	63.4647	17,753.2	58.5404	17,753.2	59.7391	17,753.2	60.067	17,753.2	53.0248	17,753.2	64.1802	17,753.2	59.1484	17,753.2	62.0121	17,753.2	60.0336	17,753.2	66.5017	17,753.2	62.783	17,753.2	67.4048
18,379.4	87.3249	18,379.4	85.0488	18,379.4	85.9843	18,379.4	81.4308	18,379.4	82.3158	18,379.4	77.0226	18,379.4	77.0096	18,379.4	71.4718	18,379.4	70.063	18,379.4	67.156	18,379.4	64.1737	18,379.4	64.5295	18,379.4	64.8579	18,379.4	55.4718	18,379.4	54.9244	18,379.4	52.2266	18,379.4	59.2884	18,379.4	59.9193	18,379.4	56.2087	18,379.4	55.9677	18,379.4	49.8173	18,379.4	55.0036	18,379.4	67.6301	18,379.4	55.4538	18,379.4	61.7344	18,379.4	57.549	18,379.4	60.3832	18,379.4	61.3334	18,379.4	51.8915	18,379.4	62.8354	18,379.4	59.3703	18,379.4	62.5135	18,379.4	62.5683	18,379.4	66.7961	18,379.4	61.523	18,379.4	68.0465
19,027.6	86.2335	19,027.6	84.1821	19,027.6	84.8127	19,027.6	80.4324	19,027.6	80.8021	19,027.6	75.7535	19,027.6	75.1377	19,027.6	69.9986	19,027.6	67.924	19,027.6	64.7324	19,027.6	60.9012	19,027.6	63.3217	19,027.6	63.6134	19,027.6	55.1737	19,027.6	53.8798	19,027.6	48.2021	19,027.6	58.0697	19,027.6	58.4215	19,027.6	53.8007	19,027.6	53.8679	19,027.6	50.681	19,027.6	54.8285	19,027.6	66.6411	19,027.6	53.6581	19,027.6	60.235	19,027.6	55.9198	19,027.6	60.3168	19,027.6	60.1869	19,027.6	49.6353	19,027.6	61.1433	19,027.6	58.7068	19,027.6	60.6309	19,027.6	62.1365	19,027.6	66.1787	19,027.6	61.734	19,027.6	66.919
19,698.5	86.5841	19,698.5	84.1798	19,698.5	84.5929	19,698.5	79.0537	19,698.5	79.1293	19,698.5	74.0135	19,698.5	72.4185	19,698.5	68.0613	19,698.5	62.5799	19,698.5	60.917	19,698.5	55.4436	19,698.5	61.0925	19,698.5	61.5604	19,698.5	51.6222	19,698.5	50.9296	19,698.5	47.9802	19,698.5	55.6742	19,698.5	56.5947	19,698.5	53.1152	19,698.5	51.7544	19,698.5	46.2774	19,698.5	53.2805	19,698.5	64.02	19,698.5	51.601	19,698.5	56.625	19,698.5	54.3728	19,698.5	57.6926	19,698.5	58.9389	19,698.5	50.3693	19,698.5	58.2598	19,698.5	56.2548	19,698.5	58.6449	19,698.5	60.2376	19,698.5	65.476	19,698.5	59.1676	19,698.5	66.9909
19,999.5	86.7558	19,999.5	83.8659	19,999.5	84.6622	19,999.5	78.2633	19,999.5	78.4752	19,999.5	73.0681	19,999.5	71.1981	19,999.5	67.531	19,999.5	59.4709	19,999.5	58.496	19,999.5	54.8661	19,999.5	61.246	19,999.5	60.9348	19,999.5	52.8902	19,999.5	55.2598	19,999.5	50.1511	19,999.5	56.2654	19,999.5	57.1391	19,999.5	56.8812	19,999.5	50.435	19,999.5	50.0092	19,999.5	55.3706	19,999.5	65.4225	19,999.5	51.0345	19,999.5	56.3219	19,999.5	53.2329	19,999.5	58.9041	19,999.5	59.6862	19,999.5	50.817	19,999.5	56.6735	19,999.5	57.0839	19,999.5	60.1964	19,999.5	60.3223	19,999.5	65.3829	19,999.5	56.1407	19,999.5	67.5527
