"Vertical Reflections"					
"Floor Reflection"		"Ceiling Reflection"		"Total Vertical Reflection"	
"Frequency [Hz]"	"Sound Pessure Level [dB]  / [2.83V 1m] "	"Frequency [Hz]"	"Sound Pessure Level [dB]  / [2.83V 1m] "	"Frequency [Hz]"	"Sound Pessure Level [dB]  / [2.83V 1m] "
20.5078	60.2325	20.5078	58.3757	20.5078	59.4026
21.2402	61.4469	21.2402	59.5881	21.2402	60.6162
21.9727	62.0205	21.9727	60.1493	21.9727	61.1849
22.7051	62.7983	22.7051	60.8946	22.7051	61.9499
23.4375	63.2957	23.4375	61.4904	23.4375	62.4862
24.1699	63.8152	24.1699	62.0664	24.1699	63.0282
25.6348	65.0458	25.6348	63.3596	25.6348	64.284
26.3672	65.731	26.3672	64.1277	26.3672	65.0029
27.0996	66.3013	27.0996	64.7084	27.0996	65.5775
27.832	66.8189	27.832	65.1809	27.832	66.0767
29.2969	67.9322	29.2969	66.3327	29.2969	67.2057
30.0293	68.3074	30.0293	66.7286	30.0293	67.5893
31.4941	69.3557	31.4941	67.8286	31.4941	68.6589
32.2266	69.776	32.2266	68.2299	32.2266	69.0714
33.6914	70.5446	33.6914	69.0343	33.6914	69.8548
34.4238	71.0301	34.4238	69.5265	34.4238	70.343
35.8887	71.9114	35.8887	70.4467	35.8887	71.2405
37.3535	72.6407	37.3535	71.2171	37.3535	71.987
38.8184	73.4173	38.8184	72.0634	38.8184	72.7929
39.5508	73.8321	39.5508	72.535	39.5508	73.2318
41.0156	75.3105	41.0156	73.9598	41.0156	74.6875
42.4805	75.4446	42.4805	74.118	42.4805	74.8317
43.9453	76.1352	43.9453	74.8318	43.9453	75.5322
45.4102	76.8025	45.4102	75.5265	45.4102	76.2112
47.6074	77.9497	47.6074	76.7555	47.6074	77.3935
49.0723	78.7048	49.0723	77.5915	49.0723	78.1838
50.5371	79.339	50.5371	78.2305	50.5371	78.82
52.7344	80.1746	52.7344	79.0822	52.7344	79.6627
54.1992	80.8374	54.1992	79.8	54.1992	80.3496
56.3965	81.6623	56.3965	80.6383	56.3965	81.1804
58.5938	82.4436	58.5938	81.4225	58.5938	81.963
60.0586	82.8464	60.0586	81.8024	60.0586	82.3557
62.2559	83.4363	62.2559	82.346	62.2559	82.9253
64.4531	84.0079	64.4531	82.9199	64.4531	83.4979
66.6504	84.5058	66.6504	83.3894	66.6504	83.9834
69.5801	85.0533	69.5801	83.9031	69.5801	84.5162
71.7773	85.4591	71.7773	84.3147	71.7773	84.9245
73.9746	85.8701	73.9746	84.7264	73.9746	85.3358
76.9043	86.3371	76.9043	85.1841	76.9043	85.7988
79.834	86.8037	79.834	85.6092	79.834	86.2474
82.7637	87.1552	82.7637	85.9277	82.7637	86.5847
85.6934	87.4161	85.6934	86.1662	85.6934	86.836
88.623	87.72	88.623	86.4452	88.623	87.1292
91.5527	87.9477	91.5527	86.643	91.5527	87.3442
94.4824	88.1396	94.4824	86.8022	94.4824	87.5221
98.1445	88.3466	98.1445	87	98.1445	87.7253
101.807	88.4576	101.807	87.0747	101.807	87.821
105.469	88.6344	105.469	87.2322	105.469	87.9896
109.131	88.8342	109.131	87.3933	109.131	88.1732
112.793	89.0215	112.793	87.5165	112.793	88.3339
116.455	89.1381	116.455	87.6358	116.455	88.4516
120.85	89.2973	120.85	87.7857	120.85	88.607
125.244	89.3784	125.244	87.7997	125.244	88.6604
129.639	89.3796	129.639	87.777	129.639	88.6518
134.033	89.3778	134.033	87.7131	134.033	88.6247
138.428	89.3666	138.428	87.6316	138.428	88.5851
143.555	89.3679	143.555	87.5125	143.555	88.5385
148.682	89.4187	148.682	87.485	148.682	88.5586
153.809	89.2941	153.809	87.3427	153.809	88.4271
159.668	89.4158	159.668	87.3996	159.668	88.5237
164.795	89.4765	164.795	87.509	164.795	88.6032
170.654	89.4578	170.654	87.4633	170.654	88.5741
176.514	89.3102	176.514	87.2525	176.514	88.4021
183.105	89.2028	183.105	86.9724	183.105	88.2292
189.697	89.1758	189.697	87.0279	189.697	88.2333
196.289	89.205	196.289	87.1758	196.289	88.3079
202.881	88.9683	202.881	86.7898	202.881	88.0142
210.205	88.8195	210.205	86.3755	210.205	87.7672
217.529	88.9577	217.529	86.2248	217.529	87.8028
225.586	89.1796	225.586	86.2189	225.586	87.9468
232.91	89.4714	232.91	86.6764	232.91	88.295
241.699	89.3219	241.699	86.4295	241.699	88.1122
249.756	89.5669	249.756	86.2823	249.756	88.228
258.545	89.3486	258.545	86.448	258.545	88.1361
268.066	89.0927	268.066	85.5654	268.066	87.6777
277.588	88.9899	277.588	86.2712	277.588	87.8399
287.109	88.7886	287.109	86.1182	287.109	87.6555
297.363	89.4034	297.363	86.3294	297.363	88.1329
307.617	89.3249	307.617	87.0187	307.617	88.3231
318.604	89.3695	318.604	87.2937	318.604	88.4545
329.59	89.3365	329.59	87.7167	329.59	88.6017
341.309	88.5466	341.309	86.9848	341.309	87.8356
353.76	89.0681	353.76	86.9301	353.76	88.1294
366.211	88.8099	366.211	86.6929	366.211	87.8792
378.662	89.13	378.662	86.7569	378.662	88.1036
392.578	87.9881	392.578	85.7458	392.578	87.0101
405.762	87.5871	405.762	85.0848	405.762	86.5137
420.41	87.8834	420.41	85.332	420.41	86.7924
435.059	87.1507	435.059	85.3752	435.059	86.3531
450.439	86.9699	450.439	84.9734	450.439	86.0853
466.553	87.0667	466.553	84.4987	466.553	85.9698
482.666	86.6697	482.666	84.4263	482.666	85.6913
500.244	86.6021	500.244	83.7937	500.244	85.4211
517.822	85.8181	517.822	83.2856	517.822	84.7339
536.133	85.529	536.133	82.8393	536.133	84.3891
554.443	85.6562	554.443	82.7951	554.443	84.4571
574.219	86.2794	574.219	82.5475	574.219	84.8025
594.727	85.9557	594.727	82.4248	594.727	84.5396
615.234	85.245	615.234	83.1792	615.234	84.3338
637.207	86.8256	637.207	82.9845	637.207	85.3166
659.912	85.6147	659.912	83.5891	659.912	84.719
683.35	85.6108	683.35	84.8384	683.35	85.2418
706.787	86.5803	706.787	85.0757	706.787	85.8928
731.689	86.0599	731.689	85.5373	731.689	85.8065
758.057	85.9475	758.057	85.4476	758.057	85.7048
784.424	86.1815	784.424	85.7946	784.424	85.9924
812.256	86.5227	812.256	85.4287	812.256	86.0101
840.82	86.3959	840.82	85.812	840.82	86.1138
870.85	86.4578	870.85	85.5397	870.85	86.0229
901.611	86.8298	901.611	85.2472	901.611	86.1102
933.105	86.9031	933.105	84.2611	933.105	85.78
966.064	87.1463	966.064	83.8263	966.064	85.7961
999.756	87.2386	999.756	84.27	999.756	86.0032
1,034.91	87.0692	1,034.91	84.4865	1,034.91	85.9671
1,071.53	87.4322	1,071.53	84.3817	1,071.53	86.1694
1,109.62	87.0746	1,109.62	84.1504	1,109.62	85.8541
1,148.44	87.1859	1,148.44	84.2315	1,148.44	85.9552
1,189.45	87.1153	1,189.45	83.3336	1,189.45	85.6237
1,231.2	87.1075	1,231.2	84.1192	1,231.2	85.8655
1,274.41	87.4247	1,274.41	83.9652	1,274.41	86.0307
1,319.82	87.7175	1,319.82	83.8136	1,319.82	86.1902
1,365.97	87.3629	1,365.97	84.4221	1,365.97	86.1368
1,414.31	87.4581	1,414.31	83.7889	1,414.31	86
1,464.11	87.3652	1,464.11	83.7612	1,464.11	85.9268
1,515.38	86.7584	1,515.38	85.0308	1,515.38	85.98
1,568.85	86.107	1,568.85	84.335	1,568.85	85.3107
1,624.51	85.9667	1,624.51	83.5691	1,624.51	84.9313
1,681.64	86.0653	1,681.64	83.344	1,681.64	84.9144
1,740.97	86.0352	1,740.97	82.8788	1,740.97	84.7377
1,802.49	85.5689	1,802.49	82.8428	1,802.49	84.4163
1,866.21	85.3268	1,866.21	81.833	1,866.21	83.9222
1,932.13	84.7735	1,932.13	81.6352	1,932.13	83.4819
2,000.24	84.6087	2,000.24	81.1026	2,000.24	83.2002
2,070.56	84.8975	2,070.56	79.8348	2,070.56	83.0655
2,143.8	84.359	2,143.8	78.5701	2,143.8	82.3651
2,219.24	83.97	2,219.24	77.3193	2,219.24	81.8099
2,297.61	84.667	2,297.61	75.1413	2,297.61	82.1159
2,378.17	85.0611	2,378.17	73.1842	2,378.17	82.3239
2,462.4	84.4909	2,462.4	73.7844	2,462.4	81.8349
2,548.83	83.1744	2,548.83	73.9842	2,548.83	80.6582
2,638.92	81.6695	2,638.92	75.4676	2,638.92	79.5927
2,731.93	80.4475	2,731.93	77.4989	2,731.93	79.2188
2,828.61	79.9849	2,828.61	78.5779	2,828.61	79.3381
2,928.22	80.033	2,928.22	79.9489	2,928.22	79.9911
3,031.49	81.2162	3,031.49	80.2722	3,031.49	80.7698
3,138.43	82.0702	3,138.43	80.0506	3,138.43	81.1767
3,249.02	82.2301	3,249.02	80.823	3,249.02	81.5833
3,363.28	82.4152	3,363.28	81.681	3,363.28	82.0636
3,481.93	82.5709	3,481.93	82.6752	3,481.93	82.6234
3,604.98	82.8463	3,604.98	83.2778	3,604.98	83.0674
3,732.42	83.0751	3,732.42	83.1294	3,732.42	83.1024
3,863.53	83.1287	3,863.53	82.9197	3,863.53	83.0255
3,999.76	83.0447	3,999.76	82.7837	3,999.76	82.9162
4,141.11	83.4718	4,141.11	82.7976	4,141.11	83.1478
4,286.87	83.2672	4,286.87	82.4967	4,286.87	82.899
4,438.48	83.129	4,438.48	82.3444	4,438.48	82.7544
4,594.48	83.5242	4,594.48	82.455	4,594.48	83.0224
4,757.08	83.4547	4,757.08	82.339	4,757.08	82.9326
4,924.8	83.87	4,924.8	81.9561	4,924.8	83.0176
5,098.39	83.6562	5,098.39	81.4485	5,098.39	82.6912
5,277.83	83.5192	5,277.83	80.6855	5,277.83	82.3295
5,463.87	83.3175	5,463.87	80.581	5,463.87	82.1613
5,656.49	83.1131	5,656.49	80.6125	5,656.49	82.0404
5,856.45	82.7833	5,856.45	81.1958	5,856.45	82.0617
6,062.99	82.4981	6,062.99	81.5181	6,062.99	82.0357
6,276.86	82.3819	6,276.86	81.484	6,276.86	81.9561
6,498.05	82.2959	6,498.05	80.9959	6,498.05	81.6944
6,727.29	82.5795	6,727.29	80.5345	6,727.29	81.6763
6,964.6	82.7442	6,964.6	80.3339	6,964.6	81.7042
7,209.96	82.7637	7,209.96	80.0806	7,209.96	81.6261
7,464.11	82.8596	7,464.11	79.6323	7,464.11	81.5391
7,727.78	82.7842	7,727.78	79.3685	7,727.78	81.4038
8,000.24	82.6664	8,000.24	79.1645	8,000.24	81.2593
8,282.23	82.1907	8,282.23	78.8314	8,282.23	80.828
8,574.46	82.158	8,574.46	78.0888	8,574.46	80.5835
8,876.22	82.7145	8,876.22	77.3978	8,876.22	80.8235
9,189.7	82.6205	9,189.7	76.6082	9,189.7	80.5809
9,513.43	82.3309	9,513.43	76.3608	9,513.43	80.2999
9,848.88	81.9339	9,848.88	76.0078	9,848.88	79.9118
10,196.8	81.3341	10,196.8	75.8785	10,196.8	79.412
10,556.4	80.9078	10,556.4	74.8534	10,556.4	78.8599
10,928.5	80.5573	10,928.5	74.1192	10,928.5	78.4357
11,313.7	79.9551	11,313.7	73.1637	11,313.7	77.7703
11,712.9	79.1235	11,712.9	72.6664	11,712.9	76.9984
12,126	78.5978	12,126	72.3448	12,126	76.5111
12,553.7	78.977	12,553.7	72.4956	12,553.7	76.8475
12,996.1	79.6666	12,996.1	73.2314	12,996.1	77.5456
13,454.6	80.1066	13,454.6	73.7942	13,454.6	78.0086
13,928.5	80.2321	13,928.5	73.3834	13,928.5	78.0374
14,419.9	79.6532	14,419.9	72.2706	14,419.9	77.3717
14,928.2	79.9206	14,928.2	71.8272	14,928.2	77.5365
15,454.8	80.2846	15,454.8	71.4289	15,454.8	77.8056
15,999.8	79.6708	15,999.8	70.3738	15,999.8	77.1433
16,564.5	80.67	16,564.5	71.0543	16,564.5	78.11
17,148.2	80.3809	17,148.2	70.38	17,148.2	77.7844
17,753.2	79.696	17,753.2	69.4425	17,753.2	77.0772
18,379.4	78.8615	18,379.4	68.6661	18,379.4	76.2478
19,027.6	77.2462	19,027.6	67.024	19,027.6	74.6301
19,698.5	75.2762	19,698.5	64.7326	19,698.5	72.6331
19,999.5	74.4949	19,999.5	64.0955	19,999.5	71.8637
