"SPL Horizontal"																																																																							
"On-Axis"		"10°"		"-10°"		"20°"		"-20°"		"30°"		"-30°"		"40°"		"-40°"		"50°"		"-50°"		"60°"		"-60°"		"70°"		"-70°"		"80°"		"-80°"		"90°"		"-90°"		"100°"		"-100°"		"110°"		"-110°"		"120°"		"-120°"		"130°"		"-130°"		"140°"		"-140°"		"150°"		"-150°"		"160°"		"-160°"		"170°"		"-170°"		"180°"	
"Frequency [Hz]"	"Sound Pessure Level [dB]  / [2.83V 1m] "	"Frequency [Hz]"	"Sound Pessure Level [dB]  / [2.83V 1m] "	"Frequency [Hz]"	"Sound Pessure Level [dB]  / [2.83V 1m] "	"Frequency [Hz]"	"Sound Pessure Level [dB]  / [2.83V 1m] "	"Frequency [Hz]"	"Sound Pessure Level [dB]  / [2.83V 1m] "	"Frequency [Hz]"	"Sound Pessure Level [dB]  / [2.83V 1m] "	"Frequency [Hz]"	"Sound Pessure Level [dB]  / [2.83V 1m] "	"Frequency [Hz]"	"Sound Pessure Level [dB]  / [2.83V 1m] "	"Frequency [Hz]"	"Sound Pessure Level [dB]  / [2.83V 1m] "	"Frequency [Hz]"	"Sound Pessure Level [dB]  / [2.83V 1m] "	"Frequency [Hz]"	"Sound Pessure Level [dB]  / [2.83V 1m] "	"Frequency [Hz]"	"Sound Pessure Level [dB]  / [2.83V 1m] "	"Frequency [Hz]"	"Sound Pessure Level [dB]  / [2.83V 1m] "	"Frequency [Hz]"	"Sound Pessure Level [dB]  / [2.83V 1m] "	"Frequency [Hz]"	"Sound Pessure Level [dB]  / [2.83V 1m] "	"Frequency [Hz]"	"Sound Pessure Level [dB]  / [2.83V 1m] "	"Frequency [Hz]"	"Sound Pessure Level [dB]  / [2.83V 1m] "	"Frequency [Hz]"	"Sound Pessure Level [dB]  / [2.83V 1m] "	"Frequency [Hz]"	"Sound Pessure Level [dB]  / [2.83V 1m] "	"Frequency [Hz]"	"Sound Pessure Level [dB]  / [2.83V 1m] "	"Frequency [Hz]"	"Sound Pessure Level [dB]  / [2.83V 1m] "	"Frequency [Hz]"	"Sound Pessure Level [dB]  / [2.83V 1m] "	"Frequency [Hz]"	"Sound Pessure Level [dB]  / [2.83V 1m] "	"Frequency [Hz]"	"Sound Pessure Level [dB]  / [2.83V 1m] "	"Frequency [Hz]"	"Sound Pessure Level [dB]  / [2.83V 1m] "	"Frequency [Hz]"	"Sound Pessure Level [dB]  / [2.83V 1m] "	"Frequency [Hz]"	"Sound Pessure Level [dB]  / [2.83V 1m] "	"Frequency [Hz]"	"Sound Pessure Level [dB]  / [2.83V 1m] "	"Frequency [Hz]"	"Sound Pessure Level [dB]  / [2.83V 1m] "	"Frequency [Hz]"	"Sound Pessure Level [dB]  / [2.83V 1m] "	"Frequency [Hz]"	"Sound Pessure Level [dB]  / [2.83V 1m] "	"Frequency [Hz]"	"Sound Pessure Level [dB]  / [2.83V 1m] "	"Frequency [Hz]"	"Sound Pessure Level [dB]  / [2.83V 1m] "	"Frequency [Hz]"	"Sound Pessure Level [dB]  / [2.83V 1m] "	"Frequency [Hz]"	"Sound Pessure Level [dB]  / [2.83V 1m] "	"Frequency [Hz]"	"Sound Pessure Level [dB]  / [2.83V 1m] "
20.5078	55.0272	20.5078	54.8067	20.5078	55.1042	20.5078	54.4548	20.5078	55.0332	20.5078	54.002	20.5078	54.8135	20.5078	53.5177	20.5078	54.4495	20.5078	53.138	20.5078	53.9587	20.5078	53.0682	20.5078	53.3907	20.5078	53.4939	20.5078	52.861	20.5078	54.4277	20.5078	52.5829	20.5078	55.6913	20.5078	52.8147	20.5078	57.0619	20.5078	53.6629	20.5078	58.3795	20.5078	54.9639	20.5078	59.5546	20.5078	56.4407	20.5078	60.5422	20.5078	57.8824	20.5078	61.3196	20.5078	59.1744	20.5078	61.8745	20.5078	60.2634	20.5078	62.1993	20.5078	61.1263	20.5078	62.2893	20.5078	61.7533	20.5078	62.1411
21.2402	53.3936	21.2402	53.2481	21.2402	53.3918	21.2402	52.9962	21.2402	53.2294	21.2402	52.7255	21.2402	52.9153	21.2402	52.5922	21.2402	52.4926	21.2402	52.8056	21.2402	52.0681	21.2402	53.5167	21.2402	51.8491	21.2402	54.6894	21.2402	52.1108	21.2402	56.1333	21.2402	53.0065	21.2402	57.6481	21.2402	54.4084	21.2402	59.0997	21.2402	56.0396	21.2402	60.4159	21.2402	57.6765	21.2402	61.5609	21.2402	59.1969	21.2402	62.5166	21.2402	60.545	21.2402	63.2732	21.2402	61.6972	21.2402	63.824	21.2402	62.6432	21.2402	64.1646	21.2402	63.3779	21.2402	64.2916	21.2402	63.8984	21.2402	64.2031
21.9727	53.9251	21.9727	53.7482	21.9727	53.9656	21.9727	53.4854	21.9727	53.8525	21.9727	53.2413	21.9727	53.5941	21.9727	53.1918	21.9727	53.2322	21.9727	53.5439	21.9727	52.8682	21.9727	54.4042	21.9727	52.6931	21.9727	55.6814	21.9727	52.9577	21.9727	57.1701	21.9727	53.8113	21.9727	58.6867	21.9727	55.1547	21.9727	60.1174	21.9727	56.7395	21.9727	61.4032	21.9727	58.35	21.9727	62.5146	21.9727	59.861	21.9727	63.4366	21.9727	61.2119	21.9727	64.1601	21.9727	62.3752	21.9727	64.679	21.9727	63.3382	21.9727	64.9888	21.9727	64.0939	21.9727	65.0863	21.9727	64.6386	21.9727	64.9697
22.7051	56.6053	22.7051	56.5573	22.7051	56.6055	22.7051	56.4973	22.7051	56.5483	22.7051	56.4907	22.7051	56.4492	22.7051	56.6283	22.7051	56.3514	22.7051	57.003	22.7051	56.329	22.7051	57.666	22.7051	56.4812	22.7051	58.5938	22.7051	56.9011	22.7051	59.701	22.7051	57.6272	22.7051	60.8835	22.7051	58.6169	22.7051	62.0527	22.7051	59.7713	22.7051	63.1452	22.7051	60.983	22.7051	64.1191	22.7051	62.1658	22.7051	64.947	22.7051	63.2601	22.7051	65.6106	22.7051	64.2272	22.7051	66.0972	22.7051	65.0415	22.7051	66.3981	22.7051	65.6863	22.7051	66.5082	22.7051	66.15	22.7051	66.4253
23.4375	57.3447	23.4375	57.2493	23.4375	57.3714	23.4375	57.1214	23.4375	57.3187	23.4375	57.0294	23.4375	57.1987	23.4375	57.0754	23.4375	57.0492	23.4375	57.3731	23.4375	56.9403	23.4375	57.9955	23.4375	56.9761	23.4375	58.9257	23.4375	57.272	23.4375	60.0665	23.4375	57.9004	23.4375	61.2958	23.4375	58.8419	23.4375	62.5116	23.4375	59.9964	23.4375	63.6439	23.4375	61.2402	23.4375	64.6485	23.4375	62.4701	23.4375	65.4977	23.4375	63.6153	23.4375	66.1737	23.4375	64.6307	23.4375	66.6646	23.4375	65.4882	23.4375	66.9625	23.4375	66.1698	23.4375	67.0625	23.4375	66.6637	23.4375	66.9626
24.1699	58.8858	24.1699	58.8478	24.1699	58.8904	24.1699	58.8092	24.1699	58.8516	24.1699	58.8276	24.1699	58.7815	24.1699	58.9803	24.1699	58.7157	24.1699	59.3449	24.1699	58.7151	24.1699	59.9646	24.1699	58.8607	24.1699	60.8227	24.1699	59.2318	24.1699	61.8497	24.1699	59.8698	24.1699	62.9557	24.1699	60.7525	24.1699	64.0592	24.1699	61.8047	24.1699	65.0983	24.1699	62.9329	24.1699	66.03	24.1699	64.0541	24.1699	66.8247	24.1699	65.1061	24.1699	67.4623	24.1699	66.0459	24.1699	67.9286	24.1699	66.8442	24.1699	68.2139	24.1699	67.4812	24.1699	68.3125	24.1699	67.9433	24.1699	68.2219
25.6348	62.0343	25.6348	62.0173	25.6348	62.0389	25.6348	62.0116	25.6348	62.0242	25.6348	62.0567	25.6348	61.9995	25.6348	62.2054	25.6348	61.9902	25.6348	62.5111	25.6348	62.0381	25.6348	63.0091	25.6348	62.1963	25.6348	63.6988	25.6348	62.5174	25.6348	64.5416	25.6348	63.0336	25.6348	65.4752	25.6348	63.7409	25.6348	66.4332	25.6348	64.5979	25.6348	67.3574	25.6348	65.5412	25.6348	68.2023	25.6348	66.5042	25.6348	68.9342	25.6348	67.429	25.6348	69.5285	25.6348	68.2704	25.6348	69.9675	25.6348	68.9947	25.6348	70.2394	25.6348	69.5777	25.6348	70.337	25.6348	70.0023	25.6348	70.2574
26.3672	63.3377	26.3672	63.3359	26.3672	63.3354	26.3672	63.3512	26.3672	63.3228	26.3672	63.4189	26.3672	63.3081	26.3672	63.5842	26.3672	63.3144	26.3672	63.8926	26.3672	63.3787	26.3672	64.3738	26.3672	63.5479	26.3672	65.028	26.3672	63.8674	26.3672	65.8228	26.3672	64.3656	26.3672	66.7047	26.3672	65.0392	26.3672	67.6138	26.3672	65.853	26.3672	68.496	26.3672	66.7506	26.3672	69.3069	26.3672	67.6708	26.3672	70.0125	26.3672	68.5588	26.3672	70.5877	26.3672	69.3701	26.3672	71.0139	26.3672	70.0708	26.3672	71.2785	26.3672	70.6362	26.3672	71.3737	26.3672	71.0487	26.3672	71.2966
27.0996	64.9347	27.0996	64.9367	27.0996	64.9324	27.0996	64.9557	27.0996	64.925	27.0996	65.0207	27.0996	64.9197	27.0996	65.1696	27.0996	64.9364	27.0996	65.4412	27.0996	65.006	27.0996	65.8637	27.0996	65.1672	27.0996	66.4424	27.0996	65.4584	27.0996	67.1551	27.0996	65.9049	27.0996	67.9584	27.0996	66.5078	27.0996	68.7993	27.0996	67.241	27.0996	69.6262	27.0996	68.0586	27.0996	70.3949	27.0996	68.9067	27.0996	71.0697	27.0996	69.7337	27.0996	71.6238	27.0996	70.4958	27.0996	72.0372	27.0996	71.1584	27.0996	72.296	27.0996	71.6951	27.0996	72.3919	27.0996	72.0871	27.0996	72.3217
27.832	66.2075	27.832	66.2048	27.832	66.2101	27.832	66.2177	27.832	66.2084	27.832	66.2723	27.832	66.209	27.832	66.4033	27.832	66.2295	27.832	66.647	27.832	66.2975	27.832	67.0316	27.832	66.4477	27.832	67.5653	27.832	66.7153	27.832	68.2312	27.832	67.1249	27.832	68.9908	27.832	67.6811	27.832	69.7945	27.832	68.3635	27.832	70.5917	27.832	69.132	27.832	71.3379	27.832	69.9368	27.832	71.9967	27.832	70.7281	27.832	72.54	27.832	71.4622	27.832	72.9469	27.832	72.1034	27.832	73.2029	27.832	72.6245	27.832	73.2993	27.832	73.0054	27.832	73.2328
29.2969	68.5159	29.2969	68.5213	29.2969	68.5178	29.2969	68.5472	29.2969	68.5232	29.2969	68.6152	29.2969	68.5374	29.2969	68.7532	29.2969	68.5745	29.2969	68.9906	29.2969	68.657	29.2969	69.3499	29.2969	68.8125	29.2969	69.8387	29.2969	69.0692	29.2969	70.4445	29.2969	69.4477	29.2969	71.1367	29.2969	69.9531	29.2969	71.8736	29.2969	70.571	29.2969	72.6104	29.2969	71.2696	29.2969	73.3054	29.2969	72.0068	29.2969	73.9232	29.2969	72.738	29.2969	74.4355	29.2969	73.4219	29.2969	74.8207	29.2969	74.0236	29.2969	75.0638	29.2969	74.5152	29.2969	75.1554	29.2969	74.8761	29.2969	75.0921
30.0293	69.5452	30.0293	69.5512	30.0293	69.5483	30.0293	69.5784	30.0293	69.5567	30.0293	69.6469	30.0293	69.5751	30.0293	69.7823	30.0293	69.6164	30.0293	70.0118	30.0293	69.7007	30.0293	70.3564	30.0293	69.8532	30.0293	70.8238	30.0293	70.0997	30.0293	71.4033	30.0293	70.4595	30.0293	72.0672	30.0293	70.9385	30.0293	72.7765	30.0293	71.525	30.0293	73.4883	30.0293	72.1909	30.0293	74.1622	30.0293	72.8974	30.0293	74.7627	30.0293	73.6021	30.0293	75.2616	30.0293	74.2647	30.0293	75.637	30.0293	74.8503	30.0293	75.8734	30.0293	75.3308	30.0293	75.9615	30.0293	75.6849	30.0293	75.8979
31.4941	71.6635	31.4941	71.6875	31.4941	71.6577	31.4941	71.7392	31.4941	71.6668	31.4941	71.8342	31.4941	71.6947	31.4941	71.9922	31.4941	71.7519	31.4941	72.2328	31.4941	71.8543	31.4941	72.5713	31.4941	72.0217	31.4941	73.0124	31.4941	72.2737	31.4941	73.5476	31.4941	72.6246	31.4941	74.1549	31.4941	73.0785	31.4941	74.8026	31.4941	73.6252	31.4941	75.4547	31.4941	74.2416	31.4941	76.0751	31.4941	74.8949	31.4941	76.6314	31.4941	75.5479	31.4941	77.0959	31.4941	76.1642	31.4941	77.4472	31.4941	76.7109	31.4941	77.6693	31.4941	77.1609	31.4941	77.7526	31.4941	77.4931	31.4941	77.6931
32.2266	72.8922	32.2266	72.9183	32.2266	72.886	32.2266	72.9724	32.2266	72.8971	32.2266	73.0677	32.2266	72.9291	32.2266	73.2209	32.2266	72.991	32.2266	73.4491	32.2266	73.0966	32.2266	73.7657	32.2266	73.2629	32.2266	74.1756	32.2266	73.5064	32.2266	74.6727	32.2266	73.8395	32.2266	75.2384	32.2266	74.2658	32.2266	75.8451	32.2266	74.7772	32.2266	76.4599	32.2266	75.3537	32.2266	77.0486	32.2266	75.9662	32.2266	77.5797	32.2266	76.5807	32.2266	78.0259	32.2266	77.1627	32.2266	78.3653	32.2266	77.6806	32.2266	78.5817	32.2266	78.1076	32.2266	78.6651	32.2266	78.4228	32.2266	78.6114
33.6914	75.0603	33.6914	75.0888	33.6914	75.0525	33.6914	75.1442	33.6914	75.0635	33.6914	75.237	33.6914	75.096	33.6914	75.3801	33.6914	75.1573	33.6914	75.5873	33.6914	75.2583	33.6914	75.8698	33.6914	75.4125	33.6914	76.2329	33.6914	75.6331	33.6914	76.6728	33.6914	75.9309	33.6914	77.1761	33.6914	76.3096	33.6914	77.7201	33.6914	76.7641	33.6914	78.2766	33.6914	77.279	33.6914	78.8147	33.6914	77.8303	33.6914	79.3044	33.6914	78.3885	33.6914	79.7188	33.6914	78.9218	33.6914	80.0358	33.6914	79.4001	33.6914	80.2388	33.6914	79.7969	33.6914	80.3175	33.6914	80.091	33.6914	80.2675
34.4238	75.9823	34.4238	76.0115	34.4238	75.9744	34.4238	76.0675	34.4238	75.986	34.4238	76.1599	34.4238	76.0196	34.4238	76.3002	34.4238	76.0815	34.4238	76.5009	34.4238	76.1815	34.4238	76.7723	34.4238	76.3316	34.4238	77.1192	34.4238	76.544	34.4238	77.5387	34.4238	76.8284	34.4238	78.0188	34.4238	77.1888	34.4238	78.5389	34.4238	77.6211	34.4238	79.0724	34.4238	78.1118	34.4238	79.5899	34.4238	78.6389	34.4238	80.0622	34.4238	79.1745	34.4238	80.4629	34.4238	79.6882	34.4238	80.7699	34.4238	80.1506	34.4238	80.9667	34.4238	80.5354	34.4238	81.0426	34.4238	80.8214	34.4238	80.9934
35.8887	77.5705	35.8887	77.5992	35.8887	77.5646	35.8887	77.6555	35.8887	77.5801	35.8887	77.7469	35.8887	77.6189	35.8887	77.8832	35.8887	77.6863	35.8887	78.0745	35.8887	77.7901	35.8887	78.3295	35.8887	77.9399	35.8887	78.6523	35.8887	78.1457	35.8887	79.0409	35.8887	78.4154	35.8887	79.4853	35.8887	78.7523	35.8887	79.9678	35.8887	79.1531	35.8887	80.4647	35.8887	79.6066	35.8887	80.9492	35.8887	80.0938	35.8887	81.3937	35.8887	80.5901	35.8887	81.7728	35.8887	81.0675	35.8887	82.065	35.8887	81.4985	35.8887	82.2537	35.8887	81.8579	35.8887	82.3284	35.8887	82.125	35.8887	82.2847
37.3535	78.8606	37.3535	78.894	37.3535	78.8517	37.3535	78.9556	37.3535	78.866	37.3535	79.0515	37.3535	78.905	37.3535	79.1893	37.3535	78.973	37.3535	79.3771	37.3535	79.0761	37.3535	79.6216	37.3535	79.2222	37.3535	79.9261	37.3535	79.4193	37.3535	80.2888	37.3535	79.6739	37.3535	80.7013	37.3535	79.9889	37.3535	81.1483	37.3535	80.3617	37.3535	81.6091	37.3535	80.783	37.3535	82.0594	37.3535	81.2363	37.3535	82.4737	37.3535	81.6996	37.3535	82.8279	37.3535	82.1474	37.3535	83.1011	37.3535	82.5536	37.3535	83.2771	37.3535	82.894	37.3535	83.3454	37.3535	83.1483	37.3535	83.3017
38.8184	79.7641	38.8184	79.7994	38.8184	79.7559	38.8184	79.8646	38.8184	79.7738	38.8184	79.9645	38.8184	79.8189	38.8184	80.1047	38.8184	79.8944	38.8184	80.2912	38.8184	80.0048	38.8184	80.5287	38.8184	80.1559	38.8184	80.8196	38.8184	80.3534	38.8184	81.1617	38.8184	80.6019	38.8184	81.5477	38.8184	80.9031	38.8184	81.9645	38.8184	81.2544	38.8184	82.3938	38.8184	81.6477	38.8184	82.814	38.8184	82.0687	38.8184	83.2016	38.8184	82.4982	38.8184	83.5342	38.8184	82.9135	38.8184	83.7918	38.8184	83.2907	38.8184	83.9587	38.8184	83.6072	38.8184	84.0248	38.8184	83.8436	38.8184	83.9857
39.5508	80.0763	39.5508	80.1128	39.5508	80.068	39.5508	80.1801	39.5508	80.0872	39.5508	80.282	39.5508	80.1346	39.5508	80.4234	39.5508	80.2128	39.5508	80.6092	39.5508	80.3256	39.5508	80.8434	39.5508	80.4778	39.5508	81.1275	39.5508	80.674	39.5508	81.4594	39.5508	80.9181	39.5508	81.8322	39.5508	81.2113	39.5508	82.2337	39.5508	81.551	39.5508	82.6469	39.5508	81.9297	39.5508	83.0513	39.5508	82.3344	39.5508	83.4248	39.5508	82.7472	39.5508	83.7454	39.5508	83.1466	39.5508	83.994	39.5508	83.5099	39.5508	84.1552	39.5508	83.8151	39.5508	84.2188	39.5508	84.0435	39.5508	84.1809
41.0156	80.5717	41.0156	80.6113	41.0156	80.5603	41.0156	80.6808	41.0156	80.5765	41.0156	80.783	41.0156	80.6208	41.0156	80.9212	41.0156	80.695	41.0156	81.0989	41.0156	80.8016	41.0156	81.3187	41.0156	80.9441	41.0156	81.5815	41.0156	81.1259	41.0156	81.8853	41.0156	81.3498	41.0156	82.2243	41.0156	81.6168	41.0156	82.5883	41.0156	81.9249	41.0156	82.9628	41.0156	82.2682	41.0156	83.3295	41.0156	82.6359	41.0156	83.6687	41.0156	83.0125	41.0156	83.96	41.0156	83.3792	41.0156	84.1854	41.0156	83.7149	41.0156	84.3302	41.0156	83.9991	41.0156	84.3847	41.0156	84.2139	41.0156	84.3452
42.4805	80.8569	42.4805	80.8933	42.4805	80.8476	42.4805	80.9581	42.4805	80.8649	42.4805	81.0534	42.4805	80.9089	42.4805	81.1816	42.4805	80.9808	42.4805	81.3452	42.4805	81.0825	42.4805	81.5463	42.4805	81.2161	42.4805	81.7854	42.4805	81.3844	42.4805	82.0609	42.4805	81.5892	42.4805	82.3681	42.4805	81.8316	42.4805	82.6983	42.4805	82.11	42.4805	83.039	42.4805	82.4198	42.4805	83.3742	42.4805	82.752	42.4805	83.6855	42.4805	83.0934	42.4805	83.9543	42.4805	83.4271	42.4805	84.1632	42.4805	83.7341	42.4805	84.298	42.4805	83.995	42.4805	84.3494	42.4805	84.1926	42.4805	84.3135
43.9453	80.8939	43.9453	80.9362	43.9453	80.8793	43.9453	81.0069	43.9453	80.8921	43.9453	81.1072	43.9453	80.9325	43.9453	81.2385	43.9453	81.0014	43.9453	81.4023	43.9453	81.0999	43.9453	81.5994	43.9453	81.2297	43.9453	81.83	43.9453	81.3923	43.9453	82.0922	43.9453	81.5891	43.9453	82.3817	43.9453	81.8205	43.9453	82.6908	43.9453	82.0849	43.9453	83.0085	43.9453	82.3781	43.9453	83.3203	43.9453	82.6922	43.9453	83.6096	43.9453	83.0151	43.9453	83.859	43.9453	83.3315	43.9453	84.052	43.9453	83.6235	43.9453	84.1753	43.9453	83.873	43.9453	84.2197	43.9453	84.0634	43.9453	84.1816
45.4102	80.975	45.4102	81.0175	45.4102	80.9605	45.4102	81.0884	45.4102	80.974	45.4102	81.1883	45.4102	81.0154	45.4102	81.3177	45.4102	81.085	45.4102	81.4773	45.4102	81.1835	45.4102	81.6673	45.4102	81.3115	45.4102	81.8871	45.4102	81.4697	45.4102	82.1348	45.4102	81.6587	45.4102	82.4063	45.4102	81.8784	45.4102	82.6949	45.4102	82.1271	45.4102	82.9908	45.4102	82.4011	45.4102	83.2809	45.4102	82.6934	45.4102	83.5501	45.4102	82.9935	45.4102	83.7822	45.4102	83.2876	45.4102	83.9621	45.4102	83.5596	45.4102	84.0768	45.4102	83.7925	45.4102	84.1178	45.4102	83.9706	45.4102	84.0817
47.6074	81.1124	47.6074	81.1565	47.6074	81.0962	47.6074	81.2281	47.6074	81.1078	47.6074	81.327	47.6074	81.1472	47.6074	81.4528	47.6074	81.2141	47.6074	81.6048	47.6074	81.3083	47.6074	81.7823	47.6074	81.4295	47.6074	81.9839	47.6074	81.5773	47.6074	82.2077	47.6074	81.7515	47.6074	82.4499	47.6074	81.9511	47.6074	82.7052	47.6074	82.1747	47.6074	82.9655	47.6074	82.4189	47.6074	83.2202	47.6074	82.6782	47.6074	83.4563	47.6074	82.9441	47.6074	83.66	47.6074	83.2051	47.6074	83.8175	47.6074	83.4472	47.6074	83.9173	47.6074	83.6555	47.6074	83.9515	47.6074	83.8159	47.6074	83.917
49.0723	81.1688	49.0723	81.2123	49.0723	81.1532	49.0723	81.2832	49.0723	81.1656	49.0723	81.3807	49.0723	81.2059	49.0723	81.5039	49.0723	81.2735	49.0723	81.6515	49.0723	81.3676	49.0723	81.8224	49.0723	81.4873	49.0723	82.0149	49.0723	81.6318	49.0723	82.2266	49.0723	81.8	49.0723	82.4543	49.0723	81.9907	49.0723	82.6929	49.0723	82.202	49.0723	82.9354	49.0723	82.4309	49.0723	83.1722	49.0723	82.6725	49.0723	83.3918	49.0723	82.9193	49.0723	83.5812	49.0723	83.1611	49.0723	83.7278	49.0723	83.3853	49.0723	83.8209	49.0723	83.5784	49.0723	83.8529	49.0723	83.7272	49.0723	83.821
50.5371	81.2693	50.5371	81.3134	50.5371	81.2532	50.5371	81.3846	50.5371	81.2653	50.5371	81.4819	50.5371	81.3053	50.5371	81.6038	50.5371	81.3723	50.5371	81.7485	50.5371	81.4653	50.5371	81.9143	50.5371	81.5827	50.5371	82.0989	50.5371	81.7231	50.5371	82.3001	50.5371	81.885	50.5371	82.5144	50.5371	82.0666	50.5371	82.7373	50.5371	82.266	50.5371	82.9625	50.5371	82.4804	50.5371	83.1814	50.5371	82.7054	50.5371	83.3838	50.5371	82.9344	50.5371	83.558	50.5371	83.1586	50.5371	83.6924	50.5371	83.3667	50.5371	83.777	50.5371	83.5463	50.5371	83.8051	50.5371	83.6854	50.5371	83.7738
52.7344	81.482	52.7344	81.5257	52.7344	81.4657	52.7344	81.5958	52.7344	81.4773	52.7344	81.6907	52.7344	81.5163	52.7344	81.8082	52.7344	81.5815	52.7344	81.9461	52.7344	81.6714	52.7344	82.1018	52.7344	81.7837	52.7344	82.2727	52.7344	81.9164	52.7344	82.4561	52.7344	82.0672	52.7344	82.649	52.7344	82.2339	52.7344	82.8473	52.7344	82.4145	52.7344	83.0458	52.7344	82.6062	52.7344	83.2376	52.7344	82.8055	52.7344	83.4141	52.7344	83.0072	52.7344	83.5654	52.7344	83.2042	52.7344	83.6818	52.7344	83.3872	52.7344	83.7544	52.7344	83.5456	52.7344	83.7773	52.7344	83.669	52.7344	83.7482
54.1992	81.6495	54.1992	81.6939	54.1992	81.6319	54.1992	81.7638	54.1992	81.6415	54.1992	81.8572	54.1992	81.6779	54.1992	81.9718	54.1992	81.7399	54.1992	82.1048	54.1992	81.8256	54.1992	82.2534	54.1992	81.9327	54.1992	82.4147	54.1992	82.0586	54.1992	82.5859	54.1992	82.2008	54.1992	82.7641	54.1992	82.357	54.1992	82.9456	54.1992	82.5248	54.1992	83.1261	54.1992	82.7019	54.1992	83.2995	54.1992	82.885	54.1992	83.4584	54.1992	83.0698	54.1992	83.5942	54.1992	83.25	54.1992	83.6979	54.1992	83.4177	54.1992	83.7618	54.1992	83.5633	54.1992	83.7804	54.1992	83.6774	54.1992	83.7516
56.3965	81.8842	56.3965	81.9279	56.3965	81.8669	56.3965	81.9964	56.3965	81.8765	56.3965	82.0876	56.3965	81.9126	56.3965	82.1985	56.3965	81.9736	56.3965	82.3259	56.3965	82.0573	56.3965	82.4664	56.3965	82.1609	56.3965	82.6169	56.3965	82.2813	56.3965	82.7742	56.3965	82.4154	56.3965	82.9355	56.3965	82.5603	56.3965	83.0976	56.3965	82.7135	56.3965	83.2568	56.3965	82.8727	56.3965	83.4082	56.3965	83.0351	56.3965	83.5459	56.3965	83.1974	56.3965	83.6628	56.3965	83.3547	56.3965	83.7515	56.3965	83.5007	56.3965	83.8055	56.3965	83.6278	56.3965	83.82	56.3965	83.7277	56.3965	83.7935
58.5938	82.1661	58.5938	82.2066	58.5938	82.1507	58.5938	82.2709	58.5938	82.161	58.5938	82.3563	58.5938	82.1963	58.5938	82.4599	58.5938	82.255	58.5938	82.578	58.5938	82.3346	58.5938	82.7071	58.5938	82.432	58.5938	82.8438	58.5938	82.5436	58.5938	82.9848	58.5938	82.6661	58.5938	83.1273	58.5938	82.7965	58.5938	83.2686	58.5938	82.9322	58.5938	83.4057	58.5938	83.0711	58.5938	83.5349	58.5938	83.211	58.5938	83.6515	58.5938	83.3495	58.5938	83.7501	58.5938	83.4832	58.5938	83.8245	58.5938	83.6071	58.5938	83.8692	58.5938	83.7151	58.5938	83.8805	58.5938	83.8005	58.5938	83.8571
60.0586	82.3522	60.0586	82.3921	60.0586	82.3373	60.0586	82.4556	60.0586	82.3479	60.0586	82.5398	60.0586	82.3836	60.0586	82.6416	60.0586	82.4423	60.0586	82.7573	60.0586	82.5216	60.0586	82.8828	60.0586	82.6181	60.0586	83.0147	60.0586	82.7281	60.0586	83.1494	60.0586	82.8479	60.0586	83.2843	60.0586	82.9742	60.0586	83.4165	60.0586	83.1043	60.0586	83.5435	60.0586	83.2358	60.0586	83.6623	60.0586	83.3667	60.0586	83.7688	60.0586	83.4949	60.0586	83.8584	60.0586	83.6175	60.0586	83.9259	60.0586	83.7302	60.0586	83.9666	60.0586	83.828	60.0586	83.977	60.0586	83.9051	60.0586	83.956
62.2559	82.6626	62.2559	82.7	62.2559	82.6495	62.2559	82.76	62.2559	82.6614	62.2559	82.8399	62.2559	82.6974	62.2559	82.9361	62.2559	82.7557	62.2559	83.0446	62.2559	82.8334	62.2559	83.1613	62.2559	82.9267	62.2559	83.2821	62.2559	83.0316	62.2559	83.4037	62.2559	83.144	62.2559	83.5231	62.2559	83.26	62.2559	83.6379	62.2559	83.3767	62.2559	83.7459	62.2559	83.4916	62.2559	83.8451	62.2559	83.603	62.2559	83.9327	62.2559	83.7096	62.2559	84.0053	62.2559	83.8096	62.2559	84.0595	62.2559	83.9005	62.2559	84.0916	62.2559	83.979	62.2559	84.0994	62.2559	84.0408	62.2559	84.082
64.4531	82.9004	64.4531	82.9389	64.4531	82.8849	64.4531	82.9986	64.4531	82.8932	64.4531	83.0766	64.4531	82.9246	64.4531	83.1692	64.4531	82.9771	64.4531	83.272	64.4531	83.0478	64.4531	83.3807	64.4531	83.1329	64.4531	83.4912	64.4531	83.2282	64.4531	83.5996	64.4531	83.3293	64.4531	83.7032	64.4531	83.4324	64.4531	83.7997	64.4531	83.5341	64.4531	83.8875	64.4531	83.6324	64.4531	83.9652	64.4531	83.7258	64.4531	84.0314	64.4531	83.8137	64.4531	84.0843	64.4531	83.8952	64.4531	84.1216	64.4531	83.9692	64.4531	84.1412	64.4531	84.0338	64.4531	84.1416	64.4531	84.086	64.4531	84.1228
66.6504	83.2833	66.6504	83.3194	66.6504	83.2674	66.6504	83.374	66.6504	83.2725	66.6504	83.4441	66.6504	83.2979	66.6504	83.5259	66.6504	83.342	66.6504	83.6152	66.6504	83.4019	66.6504	83.7078	66.6504	83.4739	66.6504	83.7995	66.6504	83.5537	66.6504	83.8867	66.6504	83.6374	66.6504	83.9668	66.6504	83.7208	66.6504	84.038	66.6504	83.8011	66.6504	84.0995	66.6504	83.8762	66.6504	84.1509	66.6504	83.9451	66.6504	84.1922	66.6504	84.0079	66.6504	84.2229	66.6504	84.0649	66.6504	84.2424	66.6504	84.1163	66.6504	84.25	66.6504	84.1615	66.6504	84.245	66.6504	84.1993	66.6504	84.2277
69.5801	83.6304	69.5801	83.6522	69.5801	83.6274	69.5801	83.6912	69.5801	83.6435	69.5801	83.7446	69.5801	83.6779	69.5801	83.8089	69.5801	83.7285	69.5801	83.8802	69.5801	83.7921	69.5801	83.9541	69.5801	83.8647	69.5801	84.0269	69.5801	83.9417	69.5801	84.0951	69.5801	84.0188	69.5801	84.1567	69.5801	84.0919	69.5801	84.2103	69.5801	84.1579	69.5801	84.2558	69.5801	84.2148	69.5801	84.2939	69.5801	84.2621	69.5801	84.3254	69.5801	84.3002	69.5801	84.351	69.5801	84.3304	69.5801	84.3707	69.5801	84.3541	69.5801	84.3842	69.5801	84.3721	69.5801	84.3911	69.5801	84.3846	69.5801	84.3911
71.7773	83.8063	71.7773	83.8327	71.7773	83.8015	71.7773	83.8787	71.7773	83.8188	71.7773	83.9413	71.7773	83.8574	71.7773	84.0163	71.7773	83.915	71.7773	84.0991	71.7773	83.9881	71.7773	84.1851	71.7773	84.0721	71.7773	84.2696	71.7773	84.1618	71.7773	84.3487	71.7773	84.2522	71.7773	84.4197	71.7773	84.3383	71.7773	84.481	71.7773	84.4161	71.7773	84.5321	71.7773	84.4831	71.7773	84.5736	71.7773	84.538	71.7773	84.6065	71.7773	84.5812	71.7773	84.632	71.7773	84.6138	71.7773	84.6508	71.7773	84.6378	71.7773	84.6634	71.7773	84.6546	71.7773	84.6699	71.7773	84.6654	71.7773	84.6705
73.9746	84.0563	73.9746	84.0875	73.9746	84.0457	73.9746	84.1371	73.9746	84.0565	73.9746	84.2016	73.9746	84.0881	73.9746	84.277	73.9746	84.1385	73.9746	84.3583	73.9746	84.2043	73.9746	84.4406	73.9746	84.281	73.9746	84.5192	73.9746	84.3635	73.9746	84.5901	73.9746	84.4464	73.9746	84.6503	73.9746	84.5245	73.9746	84.6983	73.9746	84.5936	73.9746	84.7339	73.9746	84.651	73.9746	84.7583	73.9746	84.6953	73.9746	84.7734	73.9746	84.7272	73.9746	84.7815	73.9746	84.7485	73.9746	84.7847	73.9746	84.7619	73.9746	84.7847	73.9746	84.7702	73.9746	84.7828	73.9746	84.7758	73.9746	84.7798
76.9043	84.3787	76.9043	84.4099	76.9043	84.3667	76.9043	84.4582	76.9043	84.375	76.9043	84.5203	76.9043	84.4028	76.9043	84.5919	76.9043	84.4484	76.9043	84.6682	76.9043	84.5083	76.9043	84.7442	76.9043	84.5783	76.9043	84.815	76.9043	84.6532	76.9043	84.8764	76.9043	84.7275	76.9043	84.9256	76.9043	84.7961	76.9043	84.9609	76.9043	84.8548	76.9043	84.9825	76.9043	84.9006	76.9043	84.9918	76.9043	84.9325	76.9043	84.9917	76.9043	84.9513	76.9043	84.9854	76.9043	84.9595	76.9043	84.9763	76.9043	84.9605	76.9043	84.9672	76.9043	84.9584	76.9043	84.9602	76.9043	84.9563	76.9043	84.9565
79.834	84.5791	79.834	84.6128	79.834	84.5645	79.834	84.6635	79.834	84.57	79.834	84.7277	79.834	84.5953	79.834	84.8012	79.834	84.6385	79.834	84.8791	79.834	84.6965	79.834	84.9563	79.834	84.7652	79.834	85.0276	79.834	84.8392	79.834	85.0888	79.834	84.9131	79.834	85.1364	79.834	84.9814	79.834	85.1687	79.834	85.0396	79.834	85.1857	79.834	85.0844	79.834	85.189	79.834	85.1145	79.834	85.1817	79.834	85.1305	79.834	85.1676	79.834	85.1349	79.834	85.1511	79.834	85.1318	79.834	85.1359	79.834	85.1256	79.834	85.125	79.834	85.1206	79.834	85.1199
82.7637	84.9883	82.7637	85.0284	82.7637	84.9631	82.7637	85.0809	82.7637	84.9542	82.7637	85.1424	82.7637	84.9617	82.7637	85.2085	82.7637	84.9846	82.7637	85.2746	82.7637	85.0202	82.7637	85.3356	82.7637	85.065	82.7637	85.3867	82.7637	85.1144	82.7637	85.4235	82.7637	85.1631	82.7637	85.4431	82.7637	85.2059	82.7637	85.444	82.7637	85.2384	82.7637	85.4268	82.7637	85.2573	82.7637	85.3942	82.7637	85.2617	82.7637	85.3505	82.7637	85.2526	82.7637	85.3018	82.7637	85.2337	82.7637	85.2543	82.7637	85.2102	82.7637	85.2142	82.7637	85.1884	82.7637	85.1861	82.7637	85.1744	82.7637	85.1728
85.6934	85.4218	85.6934	85.4634	85.6934	85.3928	85.6934	85.5153	85.6934	85.3775	85.6934	85.5738	85.6934	85.3758	85.6934	85.6346	85.6934	85.3863	85.6934	85.6925	85.6934	85.4062	85.6934	85.7421	85.6934	85.4318	85.6934	85.7783	85.6934	85.4586	85.6934	85.7965	85.6934	85.4818	85.6934	85.7938	85.6934	85.4968	85.6934	85.7689	85.6934	85.5	85.6934	85.7231	85.6934	85.4893	85.6934	85.6598	85.6934	85.4648	85.6934	85.5848	85.6934	85.4291	85.6934	85.5057	85.6934	85.3873	85.6934	85.4305	85.6934	85.3461	85.6934	85.3669	85.6934	85.313	85.6934	85.3211	85.6934	85.2949	85.6934	85.2968
88.623	85.2973	88.623	85.323	88.623	85.2906	88.623	85.3657	88.623	85.3035	88.623	85.4222	88.623	85.3353	88.623	85.4882	88.623	85.3836	88.623	85.5584	88.623	85.445	88.623	85.6273	88.623	85.5146	88.623	85.6894	88.623	85.5869	88.623	85.7394	88.623	85.6556	88.623	85.7738	88.623	85.715	88.623	85.7904	88.623	85.7602	88.623	85.7893	88.623	85.7877	88.623	85.7729	88.623	85.7962	88.623	85.7457	88.623	85.7871	88.623	85.7137	88.623	85.764	88.623	85.6834	88.623	85.7326	88.623	85.6607	88.623	85.6996	88.623	85.6502	88.623	85.6716	88.623	85.654
91.5527	85.3077	91.5527	85.3245	91.5527	85.3111	91.5527	85.3596	91.5527	85.3351	91.5527	85.4103	91.5527	85.3793	91.5527	85.4725	91.5527	85.4416	91.5527	85.5418	91.5527	85.5186	91.5527	85.6127	91.5527	85.6056	91.5527	85.6798	91.5527	85.6966	91.5527	85.7379	91.5527	85.785	91.5527	85.783	91.5527	85.864	91.5527	85.8127	91.5527	85.9276	91.5527	85.8265	91.5527	85.9713	91.5527	85.8266	91.5527	85.9925	91.5527	85.8169	91.5527	85.9915	91.5527	85.8034	91.5527	85.9712	91.5527	85.7923	91.5527	85.9369	91.5527	85.7894	91.5527	85.8956	91.5527	85.7984	91.5527	85.8547	91.5527	85.8208
94.4824	85.892	94.4824	85.9335	94.4824	85.8593	94.4824	85.9813	94.4824	85.8375	94.4824	86.032	94.4824	85.8278	94.4824	86.0819	94.4824	85.8303	94.4824	86.1267	94.4824	85.8438	94.4824	86.162	94.4824	85.866	94.4824	86.1834	94.4824	85.893	94.4824	86.1872	94.4824	85.92	94.4824	86.1709	94.4824	85.9416	94.4824	86.1336	94.4824	85.9527	94.4824	86.0768	94.4824	85.9491	94.4824	86.0046	94.4824	85.9289	94.4824	85.9236	94.4824	85.8926	94.4824	85.8421	94.4824	85.844	94.4824	85.7695	94.4824	85.7895	94.4824	85.7142	94.4824	85.7377	94.4824	85.6826	94.4824	85.6977	94.4824	85.6776
98.1445	86.1318	98.1445	86.1619	98.1445	86.1108	98.1445	86.1994	98.1445	86.0997	98.1445	86.2417	98.1445	86.0982	98.1445	86.2855	98.1445	86.1052	98.1445	86.3263	98.1445	86.1184	98.1445	86.3591	98.1445	86.1346	98.1445	86.3787	98.1445	86.1494	98.1445	86.3802	98.1445	86.1582	98.1445	86.3597	98.1445	86.1561	98.1445	86.3154	98.1445	86.139	98.1445	86.2478	98.1445	86.1046	98.1445	86.1605	98.1445	86.0527	98.1445	86.0604	98.1445	85.9864	98.1445	85.9568	98.1445	85.9115	98.1445	85.8607	98.1445	85.8369	98.1445	85.783	98.1445	85.7727	98.1445	85.7324	98.1445	85.7292	98.1445	85.7143
101.807	86.2736	101.807	86.3043	101.807	86.2508	101.807	86.3412	101.807	86.2371	101.807	86.3818	101.807	86.2329	101.807	86.4228	101.807	86.2377	101.807	86.4603	101.807	86.2501	101.807	86.4897	101.807	86.2673	101.807	86.5064	101.807	86.2856	101.807	86.5058	101.807	86.3002	101.807	86.4846	101.807	86.306	101.807	86.441	101.807	86.2984	101.807	86.376	101.807	86.2741	101.807	86.2933	101.807	86.232	101.807	86.1996	101.807	86.1741	101.807	86.1042	101.807	86.1055	101.807	86.0176	101.807	86.034	101.807	85.9501	101.807	85.9695	101.807	85.9097	101.807	85.9222	101.807	85.9006
105.469	86.506	105.469	86.5322	105.469	86.4857	105.469	86.5623	105.469	86.4723	105.469	86.5941	105.469	86.4665	105.469	86.6244	105.469	86.4678	105.469	86.6496	105.469	86.4751	105.469	86.6655	105.469	86.4859	105.469	86.6677	105.469	86.4968	105.469	86.6523	105.469	86.5033	105.469	86.6165	105.469	86.5007	105.469	86.5594	105.469	86.4846	105.469	86.4824	105.469	86.4516	105.469	86.3899	105.469	86.4008	105.469	86.2894	105.469	86.3337	105.469	86.1905	105.469	86.2553	105.469	86.1041	105.469	86.1733	105.469	86.0403	105.469	86.0978	105.469	86.0067	105.469	86.0392	105.469	86.0069
109.131	86.6943	109.131	86.7236	109.131	86.671	109.131	86.7572	109.131	86.6549	109.131	86.7928	109.131	86.6464	109.131	86.8274	109.131	86.6455	109.131	86.8572	109.131	86.651	109.131	86.8779	109.131	86.6606	109.131	86.8849	109.131	86.6708	109.131	86.8739	109.131	86.6771	109.131	86.8416	109.131	86.6748	109.131	86.7867	109.131	86.6592	109.131	86.7103	109.131	86.6271	109.131	86.6167	109.131	86.5772	109.131	86.5132	109.131	86.5113	109.131	86.4098	109.131	86.4345	109.131	86.3176	109.131	86.3549	109.131	86.2472	109.131	86.2825	109.131	86.2071	109.131	86.2281	109.131	86.201
112.793	86.7993	112.793	86.8231	112.793	86.7804	112.793	86.8503	112.793	86.7671	112.793	86.8791	112.793	86.7601	112.793	86.9069	112.793	86.7592	112.793	86.9305	112.793	86.7636	112.793	86.9457	112.793	86.771	112.793	86.9481	112.793	86.7784	112.793	86.9335	112.793	86.7815	112.793	86.8985	112.793	86.7755	112.793	86.8416	112.793	86.7559	112.793	86.7638	112.793	86.7194	112.793	86.6693	112.793	86.6648	112.793	86.5654	112.793	86.594	112.793	86.462	112.793	86.5121	112.793	86.3703	112.793	86.4274	112.793	86.3013	112.793	86.3501	112.793	86.2633	112.793	86.2912	112.793	86.2603
116.455	86.8546	116.455	86.8709	116.455	86.8415	116.455	86.8892	116.455	86.8324	116.455	86.9082	116.455	86.828	116.455	86.9261	116.455	86.8285	116.455	86.94	116.455	86.8336	116.455	86.9467	116.455	86.8418	116.455	86.9422	116.455	86.8504	116.455	86.9229	116.455	86.8555	116.455	86.8858	116.455	86.8527	116.455	86.8296	116.455	86.8372	116.455	86.7556	116.455	86.8054	116.455	86.6678	116.455	86.7556	116.455	86.5734	116.455	86.6887	116.455	86.4821	116.455	86.6091	116.455	86.4043	116.455	86.524	116.455	86.35	116.455	86.4432	116.455	86.3264	116.455	86.3774	116.455	86.3362
120.85	87.0025	120.85	87.0092	120.85	86.9957	120.85	87.015	120.85	86.9894	120.85	87.0192	120.85	86.9846	120.85	87.0207	120.85	86.9818	120.85	87.0179	120.85	86.9811	120.85	87.0082	120.85	86.9817	120.85	86.9888	120.85	86.9817	120.85	86.9566	120.85	86.9777	120.85	86.9091	120.85	86.9655	120.85	86.8456	120.85	86.9411	120.85	86.7671	120.85	86.9008	120.85	86.6779	120.85	86.843	120.85	86.5849	120.85	86.7685	120.85	86.4971	120.85	86.6815	120.85	86.4248	120.85	86.5892	120.85	86.3773	120.85	86.501	120.85	86.3612	120.85	86.4277	120.85	86.3788
125.244	87.0223	125.244	87.0232	125.244	87.0181	125.244	87.0196	125.244	87.0118	125.244	87.0104	125.244	87.0049	125.244	86.9945	125.244	86.9987	125.244	86.9706	125.244	86.9938	125.244	86.9367	125.244	86.9896	125.244	86.8909	125.244	86.9845	125.244	86.8314	125.244	86.975	125.244	86.7573	125.244	86.9568	125.244	86.6695	125.244	86.9253	125.244	86.5708	125.244	86.8764	125.244	86.4669	125.244	86.8078	125.244	86.3661	125.244	86.7201	125.244	86.2782	125.244	86.6168	125.244	86.2134	125.244	86.5052	125.244	86.1803	125.244	86.3951	125.244	86.1839	125.244	86.2979	125.244	86.2246
129.639	86.9641	129.639	86.99	129.639	86.9338	129.639	87.0103	129.639	86.9006	129.639	87.0233	129.639	86.8658	129.639	87.0268	129.639	86.8306	129.639	87.0182	129.639	86.7957	129.639	86.9941	129.639	86.7609	129.639	86.9508	129.639	86.725	129.639	86.885	129.639	86.6854	129.639	86.7947	129.639	86.6386	129.639	86.6803	129.639	86.5807	129.639	86.5449	129.639	86.5086	129.639	86.3955	129.639	86.4207	129.639	86.2425	129.639	86.3183	129.639	86.099	129.639	86.2062	129.639	85.9786	129.639	86.0925	129.639	85.8939	129.639	85.9884	129.639	85.8529	129.639	85.9063	129.639	85.8582
134.033	86.7096	134.033	86.7414	134.033	86.6763	134.033	86.7709	134.033	86.6424	134.033	86.7975	134.033	86.6091	134.033	86.8198	134.033	86.5776	134.033	86.8356	134.033	86.5488	134.033	86.8418	134.033	86.523	134.033	86.8344	134.033	86.499	134.033	86.809	134.033	86.4743	134.033	86.7623	134.033	86.4456	134.033	86.6922	134.033	86.409	134.033	86.5995	134.033	86.3614	134.033	86.4882	134.033	86.3017	134.033	86.3657	134.033	86.2312	134.033	86.2423	134.033	86.1544	134.033	86.1298	134.033	86.0789	134.033	86.0397	134.033	86.0145	134.033	85.981	134.033	85.9714	134.033	85.9584
138.428	86.6117	138.428	86.6241	138.428	86.5938	138.428	86.6316	138.428	86.5708	138.428	86.6349	138.428	86.5438	138.428	86.6346	138.428	86.5146	138.428	86.6306	138.428	86.485	138.428	86.6215	138.428	86.4567	138.428	86.6051	138.428	86.43	138.428	86.5784	138.428	86.404	138.428	86.5386	138.428	86.3767	138.428	86.484	138.428	86.345	138.428	86.4147	138.428	86.3064	138.428	86.3336	138.428	86.2594	138.428	86.2459	138.428	86.2043	138.428	86.1592	138.428	86.144	138.428	86.082	138.428	86.084	138.428	86.0223	138.428	86.0313	138.428	85.9864	138.428	85.9934	138.428	85.977
143.555	86.6228	143.555	86.6164	143.555	86.6181	143.555	86.5996	143.555	86.6028	143.555	86.5734	143.555	86.5781	143.555	86.5393	143.555	86.5461	143.555	86.498	143.555	86.5089	143.555	86.4497	143.555	86.4683	143.555	86.3937	143.555	86.4252	143.555	86.3288	143.555	86.3789	143.555	86.254	143.555	86.3278	143.555	86.1693	143.555	86.2696	143.555	86.0762	143.555	86.2024	143.555	85.9786	143.555	86.1252	143.555	85.8825	143.555	86.0395	143.555	85.7954	143.555	85.9488	143.555	85.7251	143.555	85.8592	143.555	85.6786	143.555	85.7781	143.555	85.6606	143.555	85.7137	143.555	85.673
148.682	86.5185	148.682	86.513	148.682	86.5091	148.682	86.4925	148.682	86.4855	148.682	86.4581	148.682	86.45	148.682	86.411	148.682	86.4054	148.682	86.3521	148.682	86.3549	148.682	86.2823	148.682	86.3016	148.682	86.2016	148.682	86.2471	148.682	86.11	148.682	86.1919	148.682	86.0083	148.682	86.1347	148.682	85.8981	148.682	86.073	148.682	85.7835	148.682	86.0044	148.682	85.6703	148.682	85.9268	148.682	85.5662	148.682	85.8403	148.682	85.4796	148.682	85.7468	148.682	85.4181	148.682	85.651	148.682	85.3869	148.682	85.5596	148.682	85.3882	148.682	85.4802	148.682	85.4208
153.809	86.572	153.809	86.5641	153.809	86.5607	153.809	86.5375	153.809	86.5311	153.809	86.4932	153.809	86.4846	153.809	86.4324	153.809	86.424	153.809	86.356	153.809	86.3522	153.809	86.2645	153.809	86.2721	153.809	86.1579	153.809	86.186	153.809	86.0362	153.809	86.0948	153.809	85.9002	153.809	85.9984	153.809	85.7524	153.809	85.8958	153.809	85.5977	153.809	85.7859	153.809	85.4434	153.809	85.6685	153.809	85.2993	153.809	85.5452	153.809	85.1759	153.809	85.4197	153.809	85.0829	153.809	85.2982	153.809	85.0273	153.809	85.1883	153.809	85.0126	153.809	85.0987	153.809	85.0378
159.668	86.6115	159.668	86.6094	159.668	86.5944	159.668	86.5881	159.668	86.5586	159.668	86.5483	159.668	86.5059	159.668	86.4909	159.668	86.4391	159.668	86.4166	159.668	86.3611	159.668	86.3255	159.668	86.2748	159.668	86.2176	159.668	86.1823	159.668	86.0927	159.668	86.0849	159.668	85.9518	159.668	85.9823	159.668	85.7974	159.668	85.8738	159.668	85.6347	159.668	85.7585	159.668	85.4714	159.668	85.6366	159.668	85.3176	159.668	85.51	159.668	85.1841	159.668	85.3827	159.668	85.0812	159.668	85.261	159.668	85.0164	159.668	85.1529	159.668	84.9932	159.668	85.0669	159.668	85.0114
164.795	86.3784	164.795	86.3863	164.795	86.354	164.795	86.3779	164.795	86.3135	164.795	86.354	164.795	86.2587	164.795	86.3154	164.795	86.1923	164.795	86.2625	164.795	86.1173	164.795	86.1948	164.795	86.0365	164.795	86.1112	164.795	85.9519	164.795	86.0105	164.795	85.8645	164.795	85.8923	164.795	85.7739	164.795	85.7581	164.795	85.6791	164.795	85.612	164.795	85.5791	164.795	85.4609	164.795	85.474	164.795	85.3142	164.795	85.3656	164.795	85.1825	164.795	85.2579	164.795	85.076	164.795	85.1567	164.795	85.0025	164.795	85.0695	164.795	84.9662	164.795	85.0041	164.795	84.9678
170.654	86.09	170.654	86.0771	170.654	86.0839	170.654	86.0467	170.654	86.0592	170.654	86.0013	170.654	86.0178	170.654	85.9441	170.654	85.9632	170.654	85.8782	170.654	85.8992	170.654	85.8057	170.654	85.8301	170.654	85.7277	170.654	85.7589	170.654	85.6446	170.654	85.6874	170.654	85.5562	170.654	85.6159	170.654	85.4629	170.654	85.5434	170.654	85.3666	170.654	85.4688	170.654	85.2709	170.654	85.3913	170.654	85.1812	170.654	85.3116	170.654	85.1035	170.654	85.2321	170.654	85.0435	170.654	85.1566	170.654	85.0058	170.654	85.09	170.654	84.9926	170.654	85.0375	170.654	85.0038
176.514	86.024	176.514	86.0153	176.514	86.0054	176.514	85.979	176.514	85.9615	176.514	85.9164	176.514	85.8965	176.514	85.8304	176.514	85.8161	176.514	85.7246	176.514	85.7272	176.514	85.6031	176.514	85.6365	176.514	85.4708	176.514	85.5498	176.514	85.3331	176.514	85.4709	176.514	85.1961	176.514	85.401	176.514	85.0668	176.514	85.339	176.514	84.9527	176.514	85.2822	176.514	84.8608	176.514	85.2275	176.514	84.7963	176.514	85.1719	176.514	84.7616	176.514	85.1137	176.514	84.756	176.514	85.0527	176.514	84.7754	176.514	84.9895	176.514	84.8143	176.514	84.9264	176.514	84.8665
183.105	85.9573	183.105	85.98	183.105	85.9028	183.105	85.9712	183.105	85.8178	183.105	85.9323	183.105	85.7055	183.105	85.8653	183.105	85.5714	183.105	85.7724	183.105	85.4227	183.105	85.6557	183.105	85.2681	183.105	85.5178	183.105	85.1164	183.105	85.362	183.105	84.9756	183.105	85.1937	183.105	84.8519	183.105	85.0203	183.105	84.7485	183.105	84.8516	183.105	84.666	183.105	84.6988	183.105	84.6024	183.105	84.5722	183.105	84.554	183.105	84.4789	183.105	84.5164	183.105	84.4209	183.105	84.485	183.105	84.3948	183.105	84.4568	183.105	84.3933	183.105	84.4305	183.105	84.4077
189.697	86.0585	189.697	86.06	189.697	86.0236	189.697	86.031	189.697	85.9539	189.697	85.9751	189.697	85.8494	189.697	85.8958	189.697	85.7122	189.697	85.7959	189.697	85.5464	189.697	85.6772	189.697	85.358	189.697	85.541	189.697	85.1544	189.697	85.3883	189.697	84.9445	189.697	85.2213	189.697	84.7382	189.697	85.0443	189.697	84.5458	189.697	84.8644	189.697	84.3768	189.697	84.6903	189.697	84.2393	189.697	84.5314	189.697	84.1378	189.697	84.3951	189.697	84.0733	189.697	84.285	189.697	84.0424	189.697	84.2	189.697	84.0389	189.697	84.1362	189.697	84.0561	189.697	84.089
196.289	86.1154	196.289	86.0761	196.289	86.1179	196.289	86.0036	196.289	86.0822	196.289	85.9035	196.289	86.0092	196.289	85.7826	196.289	85.9022	196.289	85.6478	196.289	85.7659	196.289	85.5057	196.289	85.6064	196.289	85.3615	196.289	85.4305	196.289	85.2193	196.289	85.2456	196.289	85.0819	196.289	85.0593	196.289	84.952	196.289	84.8796	196.289	84.8321	196.289	84.7148	196.289	84.7247	196.289	84.573	196.289	84.6316	196.289	84.461	196.289	84.5536	196.289	84.3828	196.289	84.4894	196.289	84.3383	196.289	84.4366	196.289	84.3238	196.289	84.3927	196.289	84.3324	196.289	84.3572
202.881	86.2659	202.881	86.2146	202.881	86.2724	202.881	86.1205	202.881	86.234	202.881	85.9877	202.881	86.1531	202.881	85.8221	202.881	86.0337	202.881	85.6313	202.881	85.8816	202.881	85.4243	202.881	85.7039	202.881	85.2109	202.881	85.5087	202.881	85.0021	202.881	85.3046	202.881	84.8089	202.881	85.1009	202.881	84.6419	202.881	84.9075	202.881	84.5095	202.881	84.7338	202.881	84.416	202.881	84.5886	202.881	84.3606	202.881	84.478	202.881	84.3366	202.881	84.4038	202.881	84.3336	202.881	84.3627	202.881	84.3399	202.881	84.3468	202.881	84.3459	202.881	84.3451	202.881	84.3472
210.205	86.4128	210.205	86.3671	210.205	86.4129	210.205	86.2757	210.205	86.3692	210.205	86.14	210.205	86.2852	210.205	85.9629	210.205	86.1658	210.205	85.7491	210.205	86.0165	210.205	85.5052	210.205	85.8437	210.205	85.2405	210.205	85.6536	210.205	84.9675	210.205	85.4524	210.205	84.7021	210.205	85.2467	210.205	84.4631	210.205	85.0437	210.205	84.2688	210.205	84.8515	210.205	84.1328	210.205	84.6789	210.205	84.0594	210.205	84.5337	210.205	84.0419	210.205	84.4205	210.205	84.0645	210.205	84.3388	210.205	84.108	210.205	84.282	210.205	84.1562	210.205	84.2395	210.205	84.2
217.529	86.3648	217.529	86.341	217.529	86.3405	217.529	86.2682	217.529	86.2708	217.529	86.1475	217.529	86.1609	217.529	85.9814	217.529	86.0179	217.529	85.774	217.529	85.8509	217.529	85.5311	217.529	85.6697	217.529	85.2611	217.529	85.484	217.529	84.9762	217.529	85.3025	217.529	84.6933	217.529	85.1319	217.529	84.4332	217.529	84.9772	217.529	84.2188	217.529	84.8414	217.529	84.0691	217.529	84.7259	217.529	83.9936	217.529	84.6304	217.529	83.9883	217.529	84.5527	217.529	84.037	217.529	84.4876	217.529	84.117	217.529	84.4277	217.529	84.2068	217.529	84.3645	217.529	84.2914
225.586	86.7809	225.586	86.7915	225.586	86.7148	225.586	86.747	225.586	86.594	225.586	86.6483	225.586	86.4213	225.586	86.4967	225.586	86.2016	225.586	86.2938	225.586	85.9433	225.586	86.0426	225.586	85.6577	225.586	85.7484	225.586	85.3599	225.586	85.4216	225.586	85.0676	225.586	85.0794	225.586	84.8004	225.586	84.7468	225.586	84.5767	225.586	84.4549	225.586	84.4106	225.586	84.2339	225.586	84.3083	225.586	84.1034	225.586	84.2654	225.586	84.0641	225.586	84.2676	225.586	84.0964	225.586	84.2938	225.586	84.1679	225.586	84.3204	225.586	84.2451	225.586	84.3274	225.586	84.3025
232.91	86.944	232.91	86.9477	232.91	86.8893	232.91	86.9043	232.91	86.7795	232.91	86.8174	232.91	86.6124	232.91	86.6893	232.91	86.3872	232.91	86.5206	232.91	86.1064	232.91	86.3108	232.91	85.7759	232.91	86.06	232.91	85.407	232.91	85.7711	232.91	85.0174	232.91	85.4531	232.91	84.6321	232.91	85.1235	232.91	84.2829	232.91	84.8081	232.91	84.0034	232.91	84.537	232.91	83.8209	232.91	84.3361	232.91	83.7455	232.91	84.2153	232.91	83.7652	232.91	84.1637	232.91	83.8486	232.91	84.1526	232.91	83.9567	232.91	84.1473	232.91	84.0542	232.91	84.1192
241.699	86.8231	241.699	86.7436	241.699	86.8523	241.699	86.6174	241.699	86.8287	241.699	86.4495	241.699	86.7507	241.699	86.2452	241.699	86.6177	241.699	86.0101	241.699	86.4297	241.699	85.7496	241.699	86.1871	241.699	85.4696	241.699	85.8918	241.699	85.177	241.699	85.5483	241.699	84.8819	241.699	85.1664	241.699	84.5982	241.699	84.7637	241.699	84.3432	241.699	84.3673	241.699	84.1335	241.699	84.0126	241.699	83.9797	241.699	83.7361	241.699	83.8799	241.699	83.5631	241.699	83.8195	241.699	83.4967	241.699	83.7754	241.699	83.515	241.699	83.7259	241.699	83.5813	241.699	83.6594
249.756	86.929	249.756	86.8795	249.756	86.9229	249.756	86.7763	249.756	86.8615	249.756	86.6222	249.756	86.7465	249.756	86.4214	249.756	86.5809	249.756	86.1783	249.756	86.369	249.756	85.8978	249.756	86.1157	249.756	85.586	249.756	85.8264	249.756	85.2511	249.756	85.5079	249.756	84.906	249.756	85.1695	249.756	84.5692	249.756	84.8248	249.756	84.2642	249.756	84.4926	249.756	84.0153	249.756	84.1962	249.756	83.8396	249.756	83.9584	249.756	83.7393	249.756	83.7948	249.756	83.6995	249.756	83.706	249.756	83.6945	249.756	83.6768	249.756	83.6978	249.756	83.6812	249.756	83.6935
258.545	87.0231	258.545	86.9671	258.545	87.0238	258.545	86.856	258.545	86.9698	258.545	86.6904	258.545	86.8626	258.545	86.4718	258.545	86.7043	258.545	86.2026	258.545	86.4979	258.545	85.8874	258.545	86.2472	258.545	85.5343	258.545	85.9574	258.545	85.1579	258.545	85.6365	258.545	84.7805	258.545	85.2964	258.545	84.4326	258.545	84.9549	258.545	84.1481	258.545	84.6351	258.545	83.9549	258.545	84.3633	258.545	83.8632	258.545	84.1624	258.545	83.8594	258.545	84.0435	258.545	83.9107	258.545	83.9997	258.545	83.9779	258.545	84.007	258.545	84.0288	258.545	84.0328	258.545	84.0464
268.066	86.6771	268.066	86.6372	268.066	86.6634	268.066	86.5452	268.066	86.5947	268.066	86.4026	268.066	86.4705	268.066	86.2103	268.066	86.2905	268.066	85.9686	268.066	86.0546	268.066	85.6784	268.066	85.7636	268.066	85.3426	268.066	85.4198	268.066	84.9698	268.066	85.0296	268.066	84.5779	268.066	84.6066	268.066	84.196	268.066	84.1751	268.066	83.8623	268.066	83.7714	268.066	83.6143	268.066	83.4401	268.066	83.4731	268.066	83.2211	268.066	83.4311	268.066	83.1324	268.066	83.4533	268.066	83.1588	268.066	83.4918	268.066	83.2572	268.066	83.5037	268.066	83.3741	268.066	83.4645
277.588	86.658	277.588	86.6288	277.588	86.6218	277.588	86.532	277.588	86.5252	277.588	86.3681	277.588	86.3769	277.588	86.1385	277.588	86.1877	277.588	85.8453	277.588	85.9684	277.588	85.4914	277.588	85.7274	277.588	85.0823	277.588	85.469	277.588	84.6302	277.588	85.1934	277.588	84.1587	277.588	84.9006	277.588	83.7067	277.588	84.5942	277.588	83.3271	277.588	84.2869	277.588	83.0723	277.588	84.0018	277.588	82.9717	277.588	83.7684	277.588	83.0123	277.588	83.6109	277.588	83.143	277.588	83.5343	277.588	83.2989	277.588	83.5174	277.588	83.4265	277.588	83.52	277.588	83.4992
287.109	86.7774	287.109	86.7433	287.109	86.7526	287.109	86.6545	287.109	86.6646	287.109	86.5126	287.109	86.5107	287.109	86.3156	287.109	86.2917	287.109	86.058	287.109	86.013	287.109	85.7331	287.109	85.6852	287.109	85.3365	287.109	85.3229	287.109	84.8728	287.109	84.944	287.109	84.3621	287.109	84.5676	287.109	83.8466	287.109	84.2138	287.109	83.3901	287.109	83.9026	287.109	83.0623	287.109	83.6537	287.109	82.9079	287.109	83.4821	287.109	82.9194	287.109	83.3923	287.109	83.0401	287.109	83.372	287.109	83.1958	287.109	83.3921	287.109	83.3257	287.109	83.4132	287.109	83.3987
297.363	86.5576	297.363	86.5259	297.363	86.5352	297.363	86.4459	297.363	86.4535	297.363	86.323	297.363	86.3077	297.363	86.1601	297.363	86.093	297.363	85.9551	297.363	85.8039	297.363	85.7004	297.363	85.4351	297.363	85.3842	297.363	84.984	297.363	84.9958	297.363	84.4549	297.363	84.5326	297.363	83.8663	297.363	84.0106	297.363	83.258	297.363	83.4725	297.363	82.6953	297.363	82.989	297.363	82.2604	297.363	82.6392	297.363	82.0214	297.363	82.4698	297.363	81.9935	297.363	82.4611	297.363	82.1249	297.363	82.5365	297.363	82.3242	297.363	82.6058	297.363	82.5031	297.363	82.603
307.617	86.5741	307.617	86.4663	307.617	86.6184	307.617	86.3014	307.617	86.5969	307.617	86.089	307.617	86.5111	307.617	85.8389	307.617	86.3645	307.617	85.5594	307.617	86.1604	307.617	85.2543	307.617	85.8999	307.617	84.9238	307.617	85.5808	307.617	84.5665	307.617	85.1994	307.617	84.1858	307.617	84.7539	307.617	83.7954	307.617	84.2516	307.617	83.4233	307.617	83.7166	307.617	83.1086	307.617	83.1961	307.617	82.8871	307.617	82.7579	307.617	82.7709	307.617	82.4692	307.617	82.737	307.617	82.36	307.617	82.7353	307.617	82.401	307.617	82.713	307.617	82.5193	307.617	82.639
318.604	86.4809	318.604	86.4043	318.604	86.4864	318.604	86.26	318.604	86.4202	318.604	86.0532	318.604	86.2848	318.604	85.789	318.604	86.086	318.604	85.4714	318.604	85.8312	318.604	85.1022	318.604	85.5286	318.604	84.6823	318.604	85.1855	318.604	84.2147	318.604	84.8077	318.604	83.7102	318.604	84.401	318.604	83.1949	318.604	83.974	318.604	82.7137	318.604	83.5433	318.604	82.3258	318.604	83.1358	318.604	82.0826	318.604	82.7877	318.604	81.9991	318.604	82.5324	318.604	82.0402	318.604	82.3839	318.604	82.1402	318.604	82.3246	318.604	82.2359	318.604	82.3106	318.604	82.2922
329.59	86.3837	329.59	86.3111	329.59	86.3852	329.59	86.169	329.59	86.3189	329.59	85.9626	329.59	86.1926	329.59	85.6992	329.59	86.0177	329.59	85.3858	329.59	85.8058	329.59	85.0276	329.59	85.5662	329.59	84.6287	329.59	85.3031	329.59	84.1953	329.59	85.0159	329.59	83.7416	329.59	84.7013	329.59	83.2958	329.59	84.3592	329.59	82.903	329.59	83.9985	329.59	82.6156	329.59	83.6421	329.59	82.4713	329.59	83.325	329.59	82.4689	329.59	83.0841	329.59	82.5643	329.59	82.94	329.59	82.6926	329.59	82.8819	329.59	82.7982	329.59	82.8701	329.59	82.8546
341.309	86.6328	341.309	86.6043	341.309	86.5622	341.309	86.488	341.309	86.3838	341.309	86.2966	341.309	86.0935	341.309	86.0421	341.309	85.6942	341.309	85.734	341.309	85.1987	341.309	85.3787	341.309	84.6354	341.309	84.9801	341.309	84.0527	341.309	84.5438	341.309	83.5195	341.309	84.0835	341.309	83.1141	341.309	83.6286	341.309	82.8955	341.309	83.2282	341.309	82.8747	341.309	82.9433	341.309	83.0091	341.309	82.8231	341.309	83.2267	341.309	82.8756	341.309	83.4567	341.309	83.0586	341.309	83.6454	341.309	83.3004	341.309	83.7588	341.309	83.5309	341.309	83.7786	341.309	83.6996
353.76	87.1719	353.76	87.031	353.76	87.2328	353.76	86.8189	353.76	87.2051	353.76	86.5442	353.76	87.0789	353.76	86.2149	353.76	86.8428	353.76	85.8374	353.76	86.483	353.76	85.416	353.76	85.9847	353.76	84.9549	353.76	85.3352	353.76	84.4635	353.76	84.5318	353.76	83.9641	353.76	83.5973	353.76	83.5001	353.76	82.6084	353.76	83.1355	353.76	81.7284	353.76	82.9355	353.76	81.1932	353.76	82.9299	353.76	81.1686	353.76	83.0854	353.76	81.5865	353.76	83.3166	353.76	82.2092	353.76	83.5229	353.76	82.8156	353.76	83.6191	353.76	83.2786	353.76	83.5474
366.211	87.4011	366.211	87.2328	366.211	87.4941	366.211	86.9818	366.211	87.5163	366.211	86.6394	366.211	87.468	366.211	86.1967	366.211	87.3442	366.211	85.6474	366.211	87.1334	366.211	84.9908	366.211	86.8181	366.211	84.2404	366.211	86.377	366.211	83.435	366.211	85.7885	366.211	82.6537	366.211	85.0376	366.211	82.0199	366.211	84.1283	366.211	81.6648	366.211	83.1082	366.211	81.646	366.211	82.1043	366.211	81.8954	366.211	81.3403	366.211	82.2641	366.211	81.0421	366.211	82.6051	366.211	81.238	366.211	82.8147	366.211	81.7222	366.211	82.8334	366.211	82.2434	366.211	82.638
378.662	87.191	378.662	87.1522	378.662	87.1731	378.662	87.0532	378.662	87.1037	378.662	86.89	378.662	86.989	378.662	86.6544	378.662	86.8334	378.662	86.3319	378.662	86.636	378.662	85.9012	378.662	86.3885	378.662	85.3386	378.662	86.0758	378.662	84.6267	378.662	85.681	378.662	83.771	378.662	85.1928	378.662	82.8293	378.662	84.6157	378.662	81.9505	378.662	83.9826	378.662	81.3725	378.662	83.3661	378.662	81.2838	378.662	82.8738	378.662	81.6315	378.662	82.6074	378.662	82.1662	378.662	82.5936	378.662	82.6507	378.662	82.7532	378.662	82.9548	378.662	82.9467	378.662	83.0428
392.578	86.6307	392.578	86.6118	392.578	86.5827	392.578	86.5302	392.578	86.4673	392.578	86.3898	392.578	86.2869	392.578	86.1905	392.578	86.0452	392.578	85.9236	392.578	85.7433	392.578	85.5711	392.578	85.3763	392.578	85.1085	392.578	84.9337	392.578	84.5123	392.578	84.4041	392.578	83.7743	392.578	83.7849	392.578	82.9243	392.578	83.0989	392.578	82.0643	392.578	82.4151	392.578	81.3888	392.578	81.8596	392.578	81.1148	392.578	81.5787	392.578	81.2999	392.578	81.6393	392.578	81.7703	392.578	81.9572	392.578	82.2759	392.578	82.3535	392.578	82.6375	392.578	82.6603	392.578	82.77
405.762	86.7591	405.762	86.6704	405.762	86.7441	405.762	86.4884	405.762	86.6212	405.762	86.2274	405.762	86.3938	405.762	85.8997	405.762	86.0703	405.762	85.5105	405.762	85.6614	405.762	85.0548	405.762	85.1752	405.762	84.5191	405.762	84.6155	405.762	83.8897	405.762	83.9845	405.762	83.1692	405.762	83.2927	405.762	82.4009	405.762	82.5776	405.762	81.6973	405.762	81.9256	405.762	81.2375	405.762	81.4748	405.762	81.1747	405.762	81.3557	405.762	81.4951	405.762	81.5836	405.762	82.0153	405.762	82.0275	405.762	82.5216	405.762	82.4989	405.762	82.867	405.762	82.846	405.762	82.98
420.41	86.7637	420.41	86.641	420.41	86.8417	420.41	86.4769	420.41	86.874	420.41	86.2744	420.41	86.8595	420.41	86.0307	420.41	86.7917	420.41	85.7305	420.41	86.6543	420.41	85.3447	420.41	86.4186	420.41	84.8335	420.41	86.046	420.41	84.1569	420.41	85.4912	420.41	83.2907	420.41	84.7084	420.41	82.2578	420.41	83.66	420.41	81.183	420.41	82.3405	420.41	80.3415	420.41	80.8425	420.41	80.0512	420.41	79.4896	420.41	80.347	420.41	78.8549	420.41	80.9152	420.41	79.2018	420.41	81.4076	420.41	80.0754	420.41	81.6185	420.41	80.919	420.41	81.4597
435.059	86.4004	435.059	86.3946	435.059	86.322	435.059	86.3051	435.059	86.1688	435.059	86.1392	435.059	85.9602	435.059	85.9045	435.059	85.719	435.059	85.6016	435.059	85.4627	435.059	85.2185	435.059	85.1924	435.059	84.7305	435.059	84.8886	435.059	84.1057	435.059	84.5161	435.059	83.3191	435.059	84.0371	435.059	82.3789	435.059	83.4301	435.059	81.3755	435.059	82.7148	435.059	80.539	435.059	81.9818	435.059	80.1906	435.059	81.4064	435.059	80.4564	435.059	81.1796	435.059	81.0917	435.059	81.3458	435.059	81.7381	435.059	81.7381	435.059	82.1657	435.059	82.1134	435.059	82.2873
450.439	86.341	450.439	86.2439	450.439	86.3475	450.439	86.0742	450.439	86.2624	450.439	85.8594	450.439	86.101	450.439	85.6225	450.439	85.8867	450.439	85.3664	450.439	85.6374	450.439	85.065	450.439	85.3503	450.439	84.6664	450.439	84.9948	450.439	84.106	450.439	84.5173	450.439	83.3259	450.439	83.8542	450.439	82.303	450.439	82.9511	450.439	81.1104	450.439	81.7963	450.439	80.0273	450.439	80.5001	450.439	79.5491	450.439	79.433	450.439	79.9274	450.439	79.1642	450.439	80.7858	450.439	79.807	450.439	81.5981	450.439	80.8106	450.439	82.0705	450.439	81.6512	450.439	82.0936
466.553	86.3592	466.553	86.232	466.553	86.3904	466.553	86.0278	466.553	86.3226	466.553	85.7767	466.553	86.1683	466.553	85.5068	466.553	85.9481	466.553	85.2292	466.553	85.6799	466.553	84.9273	466.553	85.3684	466.553	84.5586	466.553	84.9978	466.553	84.0676	466.553	84.5348	466.553	83.405	466.553	83.9375	466.553	82.5527	466.553	83.1703	466.553	81.5657	466.553	82.2276	466.553	80.6325	466.553	81.1754	466.553	80.0737	466.553	80.214	466.553	80.1042	466.553	79.6731	466.553	80.5602	466.553	79.7635	466.553	81.0702	466.553	80.3042	466.553	81.3578	466.553	80.9117	466.553	81.3041
482.666	86.5996	482.666	86.4996	482.666	86.5618	482.666	86.2775	482.666	86.3898	482.666	85.9634	482.666	86.1061	482.666	85.5919	482.666	85.7469	482.666	85.186	482.666	85.3505	482.666	84.7424	482.666	84.94	482.666	84.2244	482.666	84.5085	482.666	83.5694	482.666	84.0158	482.666	82.7076	482.666	83.4011	482.666	81.5926	482.666	82.6058	482.666	80.2653	482.666	81.6104	482.666	78.9889	482.666	80.5009	482.666	78.3354	482.666	79.5668	482.666	78.6931	482.666	79.2457	482.666	79.6615	482.666	79.6665	482.666	80.6145	482.666	80.4332	482.666	81.2221	482.666	81.0867	482.666	81.3794
500.244	86.299	500.244	86.2115	500.244	86.304	500.244	86.0566	500.244	86.2242	500.244	85.8545	500.244	86.0729	500.244	85.6171	500.244	85.8729	500.244	85.3371	500.244	85.643	500.244	84.982	500.244	85.3806	500.244	84.4982	500.244	85.0517	500.244	83.8221	500.244	84.5935	500.244	82.8964	500.244	83.9281	500.244	81.7012	500.244	82.9801	500.244	80.33	500.244	81.7046	500.244	79.1368	500.244	80.1578	500.244	78.7199	500.244	78.6732	500.244	79.2615	500.244	77.9818	500.244	80.2102	500.244	78.4968	500.244	81.0022	500.244	79.6204	500.244	81.3789	500.244	80.6447	500.244	81.2598
517.822	86.2308	517.822	86.0813	517.822	86.1977	517.822	85.7815	517.822	85.9857	517.822	85.4034	517.822	85.6354	517.822	85.0504	517.822	85.2286	517.822	84.8138	517.822	84.8768	517.822	84.7036	517.822	84.669	517.822	84.6198	517.822	84.5982	517.822	84.3998	517.822	84.5461	517.822	83.8812	517.822	84.3427	517.822	82.9325	517.822	83.829	517.822	81.4814	517.822	82.8807	517.822	79.6457	517.822	81.4295	517.822	78.1305	517.822	79.5795	517.822	78.122	517.822	77.988	517.822	79.3412	517.822	77.8683	517.822	80.5487	517.822	79.0819	517.822	81.1821	517.822	80.3725	517.822	81.1209
536.133	86.629	536.133	86.4112	536.133	86.6488	536.133	86.0172	536.133	86.4623	536.133	85.4932	536.133	86.0724	536.133	84.921	536.133	85.5016	536.133	84.4068	536.133	84.8069	536.133	84.0258	536.133	84.0892	536.133	83.7498	536.133	83.4651	536.133	83.4362	536.133	82.987	536.133	82.891	536.133	82.5758	536.133	81.9334	536.133	82.0539	536.133	80.4476	536.133	81.2443	536.133	78.5497	536.133	80.0727	536.133	77.1175	536.133	78.7411	536.133	77.5298	536.133	77.9779	536.133	79.1455	536.133	78.4872	536.133	80.5784	536.133	79.7476	536.133	81.3643	536.133	80.8697	536.133	81.449
554.443	86.2863	554.443	86.1041	554.443	86.2816	554.443	85.7407	554.443	86.1042	554.443	85.2285	554.443	85.7891	554.443	84.6368	554.443	85.3947	554.443	84.0681	554.443	84.9975	554.443	83.6137	554.443	84.6628	554.443	83.2776	554.443	84.3993	554.443	82.9432	554.443	84.1339	554.443	82.4269	554.443	83.731	554.443	81.5574	554.443	83.0321	554.443	80.2412	554.443	81.8777	554.443	78.5969	554.443	80.1213	554.443	77.2762	554.443	77.7353	554.443	77.2706	554.443	75.4227	554.443	78.3368	554.443	75.2842	554.443	79.4077	554.443	77.1057	554.443	79.9363	554.443	78.8068	554.443	79.7581
574.219	87.0956	574.219	86.8562	574.219	87.1038	574.219	86.4061	574.219	86.8733	574.219	85.7995	574.219	86.4071	574.219	85.1559	574.219	85.7379	574.219	84.6596	574.219	84.9656	574.219	84.4511	574.219	84.2838	574.219	84.4645	574.219	83.9034	574.219	84.4345	574.219	83.8464	574.219	84.0509	574.219	83.8711	574.219	83.0336	574.219	83.6491	574.219	81.0914	574.219	82.9103	574.219	77.888	574.219	81.4525	574.219	74.0398	574.219	79.1841	574.219	74.8724	574.219	76.682	574.219	78.264	574.219	76.3381	574.219	80.4191	574.219	78.348	574.219	81.3429	574.219	80.2359	574.219	81.2555
594.727	87.2686	594.727	87.0183	594.727	87.2661	594.727	86.4931	594.727	87.0168	594.727	85.6699	594.727	86.5136	594.727	84.5689	594.727	85.7573	594.727	83.359	594.727	84.8102	594.727	82.4806	594.727	83.8802	594.727	82.3877	594.727	83.3232	594.727	82.8807	594.727	83.3293	594.727	83.302	594.727	83.6126	594.727	83.1595	594.727	83.6817	594.727	82.1836	594.727	83.1585	594.727	80.2309	594.727	81.7759	594.727	77.6122	594.727	79.3199	594.727	76.5221	594.727	76.1	594.727	78.2819	594.727	75.2767	594.727	80.1994	594.727	77.8211	594.727	81.1705	594.727	80.0278	594.727	81.1217
615.234	87.1531	615.234	86.9719	615.234	87.1441	615.234	86.5922	615.234	86.9443	615.234	86.0028	615.234	86.5431	615.234	85.2074	615.234	85.9248	615.234	84.2643	615.234	85.0893	615.234	83.3437	615.234	84.1044	615.234	82.7124	615.234	83.1839	615.234	82.4967	615.234	82.6548	615.234	82.4515	615.234	82.6202	615.234	82.1262	615.234	82.7315	615.234	81.1023	615.234	82.4953	615.234	78.9861	615.234	81.5341	615.234	75.3627	615.234	79.5704	615.234	71.632	615.234	76.5286	615.234	73.919	615.234	74.031	615.234	77.1168	615.234	75.3935	615.234	78.6829	615.234	77.6799	615.234	78.832
637.207	87.6975	637.207	87.5125	637.207	87.6999	637.207	87.117	637.207	87.5237	637.207	86.4631	637.207	87.1476	637.207	85.4999	637.207	86.5292	637.207	84.2278	637.207	85.6232	637.207	82.8366	637.207	84.4383	637.207	81.8627	637.207	83.165	637.207	81.7842	637.207	82.2878	637.207	82.2086	637.207	82.1932	637.207	82.3497	637.207	82.5112	637.207	81.6978	637.207	82.5324	637.207	79.9537	637.207	81.7754	637.207	77.0291	637.207	79.963	637.207	74.6011	637.207	77.1285	637.207	76.2167	637.207	75.1924	637.207	78.719	637.207	76.8437	637.207	80.0565	637.207	79.0512	637.207	80.1574
659.912	87.022	659.912	86.8848	659.912	87.0162	659.912	86.5937	659.912	86.8656	659.912	86.1248	659.912	86.56	659.912	85.4509	659.912	86.0837	659.912	84.5723	659.912	85.4241	659.912	83.5716	659.912	84.5965	659.912	82.6599	659.912	83.6985	659.912	82.0787	659.912	82.9518	659.912	81.8103	659.912	82.5791	659.912	81.5008	659.912	82.5043	659.912	80.7202	659.912	82.3258	659.912	79.1194	659.912	81.5939	659.912	76.4809	659.912	79.9232	659.912	73.4947	659.912	76.9547	659.912	73.5164	659.912	73.0552	659.912	75.7855	659.912	72.8555	659.912	77.2057	659.912	75.6558	659.912	77.2067
683.35	87.1547	683.35	87.0191	683.35	87.1445	683.35	86.7261	683.35	86.9799	683.35	86.2454	683.35	86.6325	683.35	85.5342	683.35	86.0586	683.35	84.5624	683.35	85.213	683.35	83.3869	683.35	84.0876	683.35	82.2812	683.35	82.8015	683.35	81.7073	683.35	81.7351	683.35	81.7613	683.35	81.3733	683.35	81.8959	683.35	81.6268	683.35	81.5022	683.35	81.8345	683.35	80.208	683.35	81.4341	683.35	77.8677	683.35	80.1122	683.35	75.1779	683.35	77.7842	683.35	74.9333	683.35	75.3221	683.35	76.8119	683.35	75.3898	683.35	78.1259	683.35	77.1635	683.35	78.2464
706.787	87.1357	706.787	86.9796	706.787	87.1247	706.787	86.6478	706.787	86.9475	706.787	86.1108	706.787	86.6005	706.787	85.3141	706.787	86.0636	706.787	84.2076	706.787	85.2894	706.787	82.8482	706.787	84.2257	706.787	81.6006	706.787	82.9108	706.787	81.0997	706.787	81.6546	706.787	81.3758	706.787	81.0209	706.787	81.6438	706.787	81.1038	706.787	81.2271	706.787	81.2435	706.787	79.7793	706.787	80.7934	706.787	77.2163	706.787	79.395	706.787	74.6027	706.787	76.9413	706.787	74.9918	706.787	74.3932	706.787	76.9715	706.787	74.7235	706.787	78.1118	706.787	76.7695	706.787	78.0415
731.689	86.7812	731.689	86.6889	731.689	86.7462	731.689	86.4662	731.689	86.5728	731.689	86.0925	731.689	86.2348	731.689	85.5258	731.689	85.6926	731.689	84.7142	731.689	84.9032	731.689	83.6471	731.689	83.8501	731.689	82.4663	731.689	82.6172	731.689	81.5454	731.689	81.5139	731.689	81.1794	731.689	81.0101	731.689	81.0544	731.689	81.1379	731.689	80.4968	731.689	81.2842	731.689	78.9315	731.689	80.8001	731.689	75.9443	731.689	79.2335	731.689	72.4792	731.689	76.255	731.689	73.6431	731.689	72.7104	731.689	76.4908	731.689	73.4883	731.689	77.8882	731.689	76.3004	731.689	77.8139
758.057	86.5791	758.057	86.4116	758.057	86.5861	758.057	86.0777	758.057	86.4431	758.057	85.5651	758.057	86.1559	758.057	84.8305	758.057	85.6988	758.057	83.7912	758.057	84.992	758.057	82.3884	758.057	83.9128	758.057	80.8286	758.057	82.3663	758.057	79.9225	758.057	80.5026	758.057	80.2546	758.057	79.1657	758.057	80.9364	758.057	79.2984	758.057	80.9611	758.057	80.0691	758.057	79.889	758.057	80.2471	758.057	77.5643	758.057	79.3384	758.057	74.5823	758.057	77.2883	758.057	74.0204	758.057	74.8888	758.057	75.9006	758.057	74.5699	758.057	77.1613	758.057	76.099	758.057	77.1914
784.424	86.2582	784.424	86.1055	784.424	86.2704	784.424	85.8377	784.424	86.1222	784.424	85.4557	784.424	85.8164	784.424	84.9127	784.424	85.371	784.424	84.1234	784.424	84.7843	784.424	83.0156	784.424	83.9967	784.424	81.632	784.424	82.9093	784.424	80.2976	784.424	81.519	784.424	79.5991	784.424	80.1901	784.424	79.6132	784.424	79.6307	784.424	79.5585	784.424	79.7801	784.424	78.6223	784.424	79.6325	784.424	76.3	784.424	78.333	784.424	73.0592	784.424	75.2426	784.424	73.2514	784.424	70.6614	784.424	76.0484	784.424	72.0998	784.424	77.6268	784.424	75.8573	784.424	77.6048
812.256	86.2942	812.256	86.131	812.256	86.3009	812.256	85.8138	812.256	86.1632	812.256	85.344	812.256	85.897	812.256	84.6886	812.256	85.4924	812.256	83.7515	812.256	84.8889	812.256	82.386	812.256	83.9679	812.256	80.5446	812.256	82.5732	812.256	78.8121	812.256	80.6471	812.256	78.6001	812.256	78.772	812.256	79.5384	812.256	78.4741	812.256	79.9231	812.256	79.4388	812.256	78.9871	812.256	79.8658	812.256	76.5476	812.256	78.9349	812.256	73.6002	812.256	76.2864	812.256	74.0469	812.256	72.2365	812.256	76.3564	812.256	72.183	812.256	77.5616	812.256	75.4664	812.256	77.3083
840.82	85.8549	840.82	85.6259	840.82	85.8905	840.82	85.248	840.82	85.7275	840.82	84.7826	840.82	85.4002	840.82	84.2509	840.82	84.9609	840.82	83.5705	840.82	84.4236	840.82	82.5711	840.82	83.7066	840.82	81.1366	840.82	82.6498	840.82	79.5084	840.82	81.136	840.82	78.568	840.82	79.3868	840.82	78.7396	840.82	78.3639	840.82	78.9514	840.82	78.6597	840.82	78.1285	840.82	79.1097	840.82	75.6324	840.82	78.5672	840.82	71.3893	840.82	76.4582	840.82	70.5509	840.82	72.6588	840.82	73.7669	840.82	70.8792	840.82	75.4663	840.82	73.6263	840.82	75.4125
870.85	86.3479	870.85	86.0947	870.85	86.3668	870.85	85.6583	870.85	86.1472	870.85	85.1024	870.85	85.7418	870.85	84.4476	870.85	85.2327	870.85	83.6281	870.85	84.6605	870.85	82.5082	870.85	83.9495	870.85	80.9919	870.85	82.9082	870.85	79.283	870.85	81.3459	870.85	78.2053	870.85	79.4032	870.85	78.2998	870.85	78.1557	870.85	78.5877	870.85	78.4582	870.85	77.9632	870.85	78.9323	870.85	75.8689	870.85	78.2642	870.85	72.6262	870.85	75.9013	870.85	72.414	870.85	72.1602	870.85	75.208	870.85	71.9914	870.85	76.828	870.85	75.0612	870.85	76.7844
901.611	85.7914	901.611	85.5289	901.611	85.7778	901.611	85.0327	901.611	85.5258	901.611	84.4374	901.611	85.1313	901.611	83.8931	901.611	84.7064	901.611	83.3713	901.611	84.2899	901.611	82.5859	901.611	83.7625	901.611	81.165	901.611	82.8741	901.611	78.9812	901.611	81.3776	901.611	77.0926	901.611	79.2974	901.611	77.4745	901.611	77.6326	901.611	78.5536	901.611	77.8671	901.611	78.3645	901.611	78.8078	901.611	76.246	901.611	78.7693	901.611	71.8537	901.611	77.0868	901.611	69.9347	901.611	73.5056	901.611	73.6541	901.611	70.6858	901.611	75.5677	901.611	73.212	901.611	75.3608
933.105	85.8379	933.105	85.5614	933.105	85.8598	933.105	85.0815	933.105	85.6012	933.105	84.4561	933.105	85.0952	933.105	83.7287	933.105	84.4483	933.105	82.8823	933.105	83.781	933.105	81.8082	933.105	83.1038	933.105	80.3537	933.105	82.2474	933.105	78.5316	933.105	80.9426	933.105	77.1135	933.105	79.1249	933.105	77.3642	933.105	77.7151	933.105	78.3388	933.105	78.0962	933.105	78.3393	933.105	78.9783	933.105	76.552	933.105	78.7167	933.105	72.4562	933.105	76.6896	933.105	69.231	933.105	72.6221	933.105	72.8445	933.105	69.8844	933.105	75.1685	933.105	73.0455	933.105	75.1922
966.064	85.9639	966.064	85.6688	966.064	85.9514	966.064	85.0934	966.064	85.6368	966.064	84.3288	966.064	85.0714	966.064	83.5692	966.064	84.3832	966.064	82.9883	966.064	83.7581	966.064	82.4404	966.064	83.287	966.064	81.4698	966.064	82.7828	966.064	79.6524	966.064	81.8439	966.064	77.1018	966.064	80.0932	966.064	75.8403	966.064	77.6324	966.064	76.9359	966.064	76.3223	966.064	77.4525	966.064	77.2667	966.064	75.9745	966.064	77.7746	966.064	72.2034	966.064	76.4165	966.064	69.6846	966.064	72.6917	966.064	72.9677	966.064	69.8059	966.064	75.2813	966.064	73.3342	966.064	75.475
999.756	86.3668	999.756	85.9639	999.756	86.391	999.756	85.2213	999.756	86.0069	999.756	84.2284	999.756	85.2333	999.756	83.2117	999.756	84.2244	999.756	82.4934	999.756	83.271	999.756	82.0942	999.756	82.5781	999.756	81.5151	999.756	82.0479	999.756	80.171	999.756	81.3285	999.756	77.9292	999.756	79.958	999.756	76.2302	999.756	77.7835	999.756	76.9948	999.756	76.3279	999.756	77.8931	999.756	77.2485	999.756	76.991	999.756	78.0882	999.756	73.6093	999.756	77.2024	999.756	69.5818	999.756	74.1085	999.756	72.4243	999.756	70.6459	999.756	74.9831	999.756	72.9499	999.756	75.1385
1,034.91	85.9387	1,034.91	85.6382	1,034.91	85.9094	1,034.91	84.991	1,034.91	85.559	1,034.91	84.0283	1,034.91	84.8916	1,034.91	82.9142	1,034.91	83.9633	1,034.91	81.9461	1,034.91	82.9363	1,034.91	81.2508	1,034.91	82.0265	1,034.91	80.4988	1,034.91	81.2817	1,034.91	79.2038	1,034.91	80.4217	1,034.91	77.2726	1,034.91	79.0119	1,034.91	75.9267	1,034.91	76.9244	1,034.91	76.4802	1,034.91	75.4771	1,034.91	76.9419	1,034.91	76.2788	1,034.91	75.5389	1,034.91	77.101	1,034.91	71.3287	1,034.91	76.1536	1,034.91	67.6417	1,034.91	72.7837	1,034.91	72.3164	1,034.91	69.134	1,034.91	74.8925	1,034.91	72.3748	1,034.91	74.8838
1,071.53	85.5525	1,071.53	85.2397	1,071.53	85.5568	1,071.53	84.565	1,071.53	85.2518	1,071.53	83.491	1,071.53	84.5764	1,071.53	82.1211	1,071.53	83.4909	1,071.53	80.8138	1,071.53	82.1321	1,071.53	79.9595	1,071.53	80.8877	1,071.53	79.3579	1,071.53	80.0273	1,071.53	78.2909	1,071.53	79.2763	1,071.53	76.2968	1,071.53	78.1485	1,071.53	74.4335	1,071.53	76.3405	1,071.53	75.2524	1,071.53	74.4593	1,071.53	76.7409	1,071.53	74.8306	1,071.53	76.5004	1,071.53	76.3529	1,071.53	73.5431	1,071.53	76.3148	1,071.53	68.2761	1,071.53	73.847	1,071.53	71.3821	1,071.53	69.989	1,071.53	74.3404	1,071.53	71.577	1,071.53	74.2144
1,109.62	85.3563	1,109.62	85.1127	1,109.62	85.3488	1,109.62	84.5576	1,109.62	85.1035	1,109.62	83.6092	1,109.62	84.5599	1,109.62	82.2548	1,109.62	83.5962	1,109.62	80.7325	1,109.62	82.1917	1,109.62	79.5249	1,109.62	80.7072	1,109.62	78.7209	1,109.62	79.7278	1,109.62	77.7219	1,109.62	79.1377	1,109.62	76.0257	1,109.62	78.1905	1,109.62	74.3085	1,109.62	76.3291	1,109.62	74.6386	1,109.62	74.0867	1,109.62	75.7376	1,109.62	74.0865	1,109.62	75.203	1,109.62	75.2278	1,109.62	72.1851	1,109.62	74.7282	1,109.62	68.4943	1,109.62	71.795	1,109.62	70.9712	1,109.62	68.0367	1,109.62	73.2276	1,109.62	70.4522	1,109.62	73.039
1,148.44	85.3194	1,148.44	85.0195	1,148.44	85.3303	1,148.44	84.4712	1,148.44	85.0119	1,148.44	83.6137	1,148.44	84.3947	1,148.44	82.3067	1,148.44	83.5112	1,148.44	80.5364	1,148.44	82.3157	1,148.44	78.7264	1,148.44	80.8313	1,148.44	77.5212	1,148.44	79.4297	1,148.44	76.6885	1,148.44	78.5236	1,148.44	75.3102	1,148.44	77.6369	1,148.44	73.2146	1,148.44	75.7966	1,148.44	73.2075	1,148.44	73.0236	1,148.44	75.2615	1,148.44	72.5657	1,148.44	75.4784	1,148.44	74.4572	1,148.44	72.7937	1,148.44	74.9131	1,148.44	68.6163	1,148.44	72.8998	1,148.44	70.0395	1,148.44	69.6502	1,148.44	72.155	1,148.44	70.5869	1,148.44	72.2953
1,189.45	85.989	1,189.45	85.6703	1,189.45	85.9537	1,189.45	84.9967	1,189.45	85.6083	1,189.45	83.9665	1,189.45	85.0326	1,189.45	82.5873	1,189.45	84.2123	1,189.45	80.9333	1,189.45	82.9672	1,189.45	79.256	1,189.45	81.1813	1,189.45	77.9365	1,189.45	79.3307	1,189.45	76.9091	1,189.45	78.3582	1,189.45	75.5321	1,189.45	77.781	1,189.45	73.3655	1,189.45	76.2383	1,189.45	72.3	1,189.45	73.6551	1,189.45	73.9705	1,189.45	73.1931	1,189.45	74.4889	1,189.45	75.1243	1,189.45	72.0672	1,189.45	75.5266	1,189.45	67.3948	1,189.45	73.416	1,189.45	70.2997	1,189.45	70.3586	1,189.45	73.341	1,189.45	71.6189	1,189.45	73.5495
1,231.2	86.1354	1,231.2	85.7697	1,231.2	86.1923	1,231.2	85.1576	1,231.2	85.9287	1,231.2	84.3355	1,231.2	85.3554	1,231.2	83.2073	1,231.2	84.4529	1,231.2	81.637	1,231.2	83.1518	1,231.2	79.7483	1,231.2	81.4354	1,231.2	78.0864	1,231.2	79.5809	1,231.2	76.9323	1,231.2	78.1232	1,231.2	75.5929	1,231.2	77.1268	1,231.2	73.4015	1,231.2	75.9916	1,231.2	71.9349	1,231.2	74.3346	1,231.2	73.4092	1,231.2	73.3899	1,231.2	74.2792	1,231.2	74.2896	1,231.2	72.3121	1,231.2	74.2287	1,231.2	67.8672	1,231.2	71.5991	1,231.2	71.1289	1,231.2	69.0916	1,231.2	74.3769	1,231.2	72.1743	1,231.2	74.5335
1,274.41	86.3867	1,274.41	86.0776	1,274.41	86.3171	1,274.41	85.4259	1,274.41	85.9029	1,274.41	84.5125	1,274.41	85.2113	1,274.41	83.3894	1,274.41	84.2922	1,274.41	82.0221	1,274.41	83.1139	1,274.41	80.3589	1,274.41	81.5719	1,274.41	78.6358	1,274.41	79.7886	1,274.41	77.4336	1,274.41	78.4347	1,274.41	76.5038	1,274.41	77.7712	1,274.41	74.6191	1,274.41	76.7284	1,274.41	72.1208	1,274.41	74.2638	1,274.41	72.9213	1,274.41	71.5986	1,274.41	74.5839	1,274.41	73.1505	1,274.41	73.7877	1,274.41	74.2537	1,274.41	70.1203	1,274.41	72.2384	1,274.41	69.2876	1,274.41	67.8769	1,274.41	72.491	1,274.41	70.2448	1,274.41	72.9996
1,319.82	86.0094	1,319.82	85.7476	1,319.82	85.948	1,319.82	85.0997	1,319.82	85.5723	1,319.82	84.1218	1,319.82	84.8233	1,319.82	82.9561	1,319.82	83.7525	1,319.82	81.5815	1,319.82	82.5076	1,319.82	79.8992	1,319.82	81.0605	1,319.82	78.2531	1,319.82	79.2659	1,319.82	77.231	1,319.82	77.422	1,319.82	76.3952	1,319.82	76.1754	1,319.82	74.7037	1,319.82	75.103	1,319.82	72.1533	1,319.82	73.2762	1,319.82	71.8147	1,319.82	71.2275	1,319.82	72.9415	1,319.82	71.8386	1,319.82	71.7362	1,319.82	73.3102	1,319.82	68.8373	1,319.82	72.3067	1,319.82	70.1017	1,319.82	69.006	1,319.82	72.6314	1,319.82	70.7955	1,319.82	73.0629
1,365.97	85.2824	1,365.97	84.9564	1,365.97	85.3156	1,365.97	84.3364	1,365.97	84.9683	1,365.97	83.4191	1,365.97	84.1463	1,365.97	82.301	1,365.97	82.9469	1,365.97	81.1041	1,365.97	81.6753	1,365.97	79.7608	1,365.97	80.4447	1,365.97	78.1614	1,365.97	78.8793	1,365.97	76.4858	1,365.97	76.7342	1,365.97	74.7929	1,365.97	74.7535	1,365.97	72.8689	1,365.97	73.5204	1,365.97	71.3286	1,365.97	72.2401	1,365.97	71.6454	1,365.97	70.5551	1,365.97	72.863	1,365.97	70.5342	1,365.97	72.2896	1,365.97	72.0163	1,365.97	69.4352	1,365.97	71.2118	1,365.97	70.0705	1,365.97	68.2151	1,365.97	73.2123	1,365.97	71.0187	1,365.97	73.714
1,414.31	85.2748	1,414.31	84.7936	1,414.31	85.2835	1,414.31	83.9683	1,414.31	84.8171	1,414.31	82.8756	1,414.31	84.0158	1,414.31	81.5177	1,414.31	83.0262	1,414.31	80.0487	1,414.31	81.8263	1,414.31	78.6638	1,414.31	80.3148	1,414.31	77.2027	1,414.31	78.5838	1,414.31	75.6829	1,414.31	76.7757	1,414.31	74.474	1,414.31	75.0739	1,414.31	73.0294	1,414.31	73.9269	1,414.31	70.9185	1,414.31	72.9268	1,414.31	70.7709	1,414.31	70.9092	1,414.31	72.2523	1,414.31	69.9106	1,414.31	71.4053	1,414.31	70.8223	1,414.31	67.4458	1,414.31	69.4108	1,414.31	69.4155	1,414.31	64.5336	1,414.31	72.5523	1,414.31	67.7689	1,414.31	72.0085
1,464.11	85.7722	1,464.11	85.248	1,464.11	85.823	1,464.11	84.4387	1,464.11	85.3543	1,464.11	83.4035	1,464.11	84.4912	1,464.11	81.9551	1,464.11	83.3095	1,464.11	79.94	1,464.11	81.7612	1,464.11	77.7345	1,464.11	79.9041	1,464.11	75.964	1,464.11	78.0774	1,464.11	74.3046	1,464.11	76.7072	1,464.11	72.8415	1,464.11	75.6784	1,464.11	72.1204	1,464.11	74.2646	1,464.11	70.7461	1,464.11	72.2312	1,464.11	69.3404	1,464.11	70.1211	1,464.11	69.9118	1,464.11	69.3931	1,464.11	69.1645	1,464.11	70.7254	1,464.11	67.5134	1,464.11	70.1202	1,464.11	68.6019	1,464.11	65.7106	1,464.11	71.024	1,464.11	68.0248	1,464.11	71.3976
1,515.38	85.9907	1,515.38	85.4486	1,515.38	86.0201	1,515.38	84.5618	1,515.38	85.5273	1,515.38	83.4926	1,515.38	84.6293	1,515.38	82.2312	1,515.38	83.4369	1,515.38	80.5566	1,515.38	82.0243	1,515.38	78.386	1,515.38	80.377	1,515.38	76.2398	1,515.38	78.3714	1,515.38	74.639	1,515.38	76.314	1,515.38	73.3667	1,515.38	75.1688	1,515.38	72.3647	1,515.38	74.3467	1,515.38	70.7748	1,515.38	72.496	1,515.38	68.9434	1,515.38	70.4919	1,515.38	69.7446	1,515.38	70.3491	1,515.38	69.4211	1,515.38	71.4953	1,515.38	66.5168	1,515.38	70.7994	1,515.38	69.1657	1,515.38	66.2888	1,515.38	72.0594	1,515.38	68.1978	1,515.38	71.7289
1,568.85	85.9537	1,568.85	85.4629	1,568.85	85.8683	1,568.85	84.5565	1,568.85	85.2513	1,568.85	83.401	1,568.85	84.3284	1,568.85	82.0487	1,568.85	83.2652	1,568.85	80.4872	1,568.85	82.0323	1,568.85	78.7583	1,568.85	80.4238	1,568.85	77.1441	1,568.85	78.1741	1,568.85	75.8078	1,568.85	75.5827	1,568.85	74.18	1,568.85	74.0399	1,568.85	72.2517	1,568.85	73.7491	1,568.85	70.2173	1,568.85	72.7366	1,568.85	68.5851	1,568.85	70.6157	1,568.85	69.979	1,568.85	69.7361	1,568.85	69.9528	1,568.85	70.6094	1,568.85	65.7808	1,568.85	69.5078	1,568.85	68.9312	1,568.85	64.0216	1,568.85	72.9274	1,568.85	66.6572	1,568.85	72.1436
1,624.51	85.3837	1,624.51	85.0149	1,624.51	85.2679	1,624.51	84.0929	1,624.51	84.7069	1,624.51	82.708	1,624.51	83.7079	1,624.51	81.248	1,624.51	82.3235	1,624.51	80.1281	1,624.51	80.6331	1,624.51	78.944	1,624.51	78.786	1,624.51	76.9855	1,624.51	77.1006	1,624.51	74.9589	1,624.51	75.5839	1,624.51	73.7027	1,624.51	73.7941	1,624.51	72.6446	1,624.51	72.9182	1,624.51	71.2247	1,624.51	72.0558	1,624.51	69.5471	1,624.51	68.9518	1,624.51	70.3354	1,624.51	66.9714	1,624.51	70.3649	1,624.51	70.3862	1,624.51	65.1502	1,624.51	70.5365	1,624.51	66.8316	1,624.51	65.4099	1,624.51	71.3843	1,624.51	66.5452	1,624.51	71.3001
1,681.64	85.6176	1,681.64	85.1547	1,681.64	85.5475	1,681.64	84.0806	1,681.64	85.0847	1,681.64	82.426	1,681.64	84.2003	1,681.64	80.5645	1,681.64	82.6887	1,681.64	79.2166	1,681.64	80.7105	1,681.64	78.0467	1,681.64	78.9488	1,681.64	76.1405	1,681.64	77.7453	1,681.64	74.345	1,681.64	76.2867	1,681.64	73.3435	1,681.64	73.5291	1,681.64	71.5231	1,681.64	70.3724	1,681.64	69.5853	1,681.64	69.3411	1,681.64	68.0692	1,681.64	68.3589	1,681.64	68.9739	1,681.64	65.6046	1,681.64	69.676	1,681.64	69.1967	1,681.64	65.6558	1,681.64	70.5029	1,681.64	67.7069	1,681.64	64.6153	1,681.64	71.8397	1,681.64	66.7362	1,681.64	72.1082
1,740.97	85.9715	1,740.97	85.4206	1,740.97	86.0841	1,740.97	84.5341	1,740.97	85.6251	1,740.97	83.0648	1,740.97	84.6298	1,740.97	80.8389	1,740.97	83.2125	1,740.97	78.8851	1,740.97	81.4465	1,740.97	77.7748	1,740.97	79.6083	1,740.97	75.939	1,740.97	77.9352	1,740.97	74.0262	1,740.97	76.2747	1,740.97	72.996	1,740.97	74.7757	1,740.97	70.7216	1,740.97	73.0619	1,740.97	67.8735	1,740.97	70.8919	1,740.97	67.2641	1,740.97	69.6531	1,740.97	68.5307	1,740.97	68.4749	1,740.97	68.072	1,740.97	68.331	1,740.97	60.9295	1,740.97	68.7917	1,740.97	65.0404	1,740.97	64.902	1,740.97	71.5929	1,740.97	62.0561	1,740.97	70.9999
1,802.49	86.3544	1,802.49	85.8885	1,802.49	86.1145	1,802.49	84.9027	1,802.49	85.4862	1,802.49	83.6192	1,802.49	84.6037	1,802.49	81.9753	1,802.49	83.1443	1,802.49	79.991	1,802.49	81.1942	1,802.49	77.8648	1,802.49	79.195	1,802.49	75.784	1,802.49	77.5107	1,802.49	74.2633	1,802.49	76.1554	1,802.49	73.7762	1,802.49	74.6578	1,802.49	72.1981	1,802.49	73.2211	1,802.49	69.1029	1,802.49	71.5409	1,802.49	66.3306	1,802.49	69.4931	1,802.49	66.3437	1,802.49	67.5368	1,802.49	68.7925	1,802.49	68.7447	1,802.49	62.5625	1,802.49	69.5602	1,802.49	63.4639	1,802.49	62.5943	1,802.49	70	1,802.49	65.7355	1,802.49	70.3536
1,866.21	85.539	1,866.21	85.0919	1,866.21	85.5109	1,866.21	84.3524	1,866.21	84.9024	1,866.21	83.1675	1,866.21	83.912	1,866.21	81.5683	1,866.21	82.5501	1,866.21	79.9277	1,866.21	80.6898	1,866.21	78.3485	1,866.21	78.6599	1,866.21	76.4044	1,866.21	76.7678	1,866.21	74.603	1,866.21	74.6118	1,866.21	74.2386	1,866.21	72.4648	1,866.21	72.8227	1,866.21	71.8437	1,866.21	69.5489	1,866.21	71.2486	1,866.21	68.011	1,866.21	68.9882	1,866.21	68.3485	1,866.21	66.3034	1,866.21	70.8403	1,866.21	66.284	1,866.21	67.9476	1,866.21	69.2899	1,866.21	60.6871	1,866.21	65.0108	1,866.21	69.2501	1,866.21	59.7045	1,866.21	68.6435
1,932.13	84.7358	1,932.13	84.2138	1,932.13	84.8445	1,932.13	83.2215	1,932.13	84.4269	1,932.13	82.0334	1,932.13	83.3117	1,932.13	80.746	1,932.13	81.9543	1,932.13	78.915	1,932.13	80.4189	1,932.13	77.0208	1,932.13	78.417	1,932.13	75.7714	1,932.13	76.4982	1,932.13	74.3693	1,932.13	74.1985	1,932.13	73.6036	1,932.13	71.9129	1,932.13	72.7945	1,932.13	71.1552	1,932.13	71.2632	1,932.13	69.8103	1,932.13	68.5664	1,932.13	67.5264	1,932.13	67.9317	1,932.13	65.3265	1,932.13	69.4314	1,932.13	66.1282	1,932.13	65.4838	1,932.13	68.2108	1,932.13	62.9844	1,932.13	66.0508	1,932.13	69.4669	1,932.13	54.4174	1,932.13	68.9095
2,000.24	85.5026	2,000.24	84.9193	2,000.24	85.6078	2,000.24	83.8639	2,000.24	85.0178	2,000.24	82.405	2,000.24	84.0243	2,000.24	81.0114	2,000.24	82.8736	2,000.24	79.1856	2,000.24	81.3972	2,000.24	76.9694	2,000.24	79.6826	2,000.24	75.346	2,000.24	78.1397	2,000.24	72.4013	2,000.24	76.5422	2,000.24	69.9497	2,000.24	73.9199	2,000.24	69.926	2,000.24	71.9168	2,000.24	69.7118	2,000.24	71.1372	2,000.24	68.4287	2,000.24	69.6075	2,000.24	60.7676	2,000.24	67.5073	2,000.24	66.9138	2,000.24	65.0718	2,000.24	60.7098	2,000.24	67.5574	2,000.24	65.5557	2,000.24	61.857	2,000.24	70.4716	2,000.24	61.4918	2,000.24	69.0818
2,070.56	86.0898	2,070.56	85.7181	2,070.56	86.142	2,070.56	84.9823	2,070.56	85.6333	2,070.56	83.6594	2,070.56	84.5354	2,070.56	82.1001	2,070.56	82.9369	2,070.56	80.3819	2,070.56	81.5046	2,070.56	78.3808	2,070.56	80.2349	2,070.56	76.7209	2,070.56	78.4029	2,070.56	74.5939	2,070.56	76.6393	2,070.56	72.1221	2,070.56	74.6522	2,070.56	70.2779	2,070.56	73.0452	2,070.56	67.6152	2,070.56	71.6728	2,070.56	67.8253	2,070.56	69.429	2,070.56	64.2587	2,070.56	68.2217	2,070.56	67.3058	2,070.56	66.4302	2,070.56	67.2427	2,070.56	68.8488	2,070.56	57.0271	2,070.56	66.9781	2,070.56	65.9857	2,070.56	55.8727	2,070.56	66.7392
2,143.8	85.5632	2,143.8	85.3008	2,143.8	85.4758	2,143.8	84.546	2,143.8	84.8178	2,143.8	83.3724	2,143.8	83.4853	2,143.8	82.0716	2,143.8	81.8573	2,143.8	80.674	2,143.8	80.4125	2,143.8	79.1536	2,143.8	78.9854	2,143.8	77.5659	2,143.8	76.9454	2,143.8	75.3772	2,143.8	75.4411	2,143.8	73.6814	2,143.8	73.7649	2,143.8	73.3024	2,143.8	71.5183	2,143.8	70.7767	2,143.8	69.8443	2,143.8	69.4471	2,143.8	67.7373	2,143.8	64.5331	2,143.8	69.5351	2,143.8	65.5582	2,143.8	65.4214	2,143.8	69.6473	2,143.8	67.5551	2,143.8	61.4983	2,143.8	65.4424	2,143.8	67.6523	2,143.8	57.1666	2,143.8	67.8981
2,219.24	84.6924	2,219.24	84.4664	2,219.24	84.1581	2,219.24	83.2325	2,219.24	83.6628	2,219.24	82.0425	2,219.24	83.0576	2,219.24	81.087	2,219.24	81.753	2,219.24	79.7024	2,219.24	80.1481	2,219.24	77.7949	2,219.24	79.2219	2,219.24	76.0134	2,219.24	77.2375	2,219.24	74.2484	2,219.24	74.7851	2,219.24	72.9232	2,219.24	73.2178	2,219.24	73.7864	2,219.24	70.4604	2,219.24	70.3827	2,219.24	70.8522	2,219.24	68.7804	2,219.24	67.6991	2,219.24	66.8559	2,219.24	66.3498	2,219.24	65.1431	2,219.24	66.2212	2,219.24	66.463	2,219.24	66.9363	2,219.24	62.2978	2,219.24	68.0217	2,219.24	62.5127	2,219.24	39.2063	2,219.24	63.9045
2,297.61	86.1203	2,297.61	85.4359	2,297.61	86.3288	2,297.61	84.6676	2,297.61	85.948	2,297.61	83.6417	2,297.61	84.9435	2,297.61	81.8047	2,297.61	83.8532	2,297.61	79.7345	2,297.61	82.7443	2,297.61	77.479	2,297.61	80.8002	2,297.61	75.3239	2,297.61	78.686	2,297.61	73.6826	2,297.61	77.0696	2,297.61	70.5569	2,297.61	75.0103	2,297.61	70.683	2,297.61	71.2493	2,297.61	69.026	2,297.61	70.9458	2,297.61	67.3198	2,297.61	72.2401	2,297.61	69.4341	2,297.61	67.7298	2,297.61	67.3661	2,297.61	67.8332	2,297.61	64.5877	2,297.61	67.2075	2,297.61	59.9045	2,297.61	68.9306	2,297.61	70.0946	2,297.61	57.1661	2,297.61	68.1574
2,378.17	86.4251	2,378.17	85.9027	2,378.17	86.4248	2,378.17	85.2722	2,378.17	85.9243	2,378.17	84.484	2,378.17	85.0182	2,378.17	82.7121	2,378.17	84.0776	2,378.17	81.024	2,378.17	82.5444	2,378.17	79.2885	2,378.17	80.5577	2,378.17	76.3657	2,378.17	78.9742	2,378.17	75.6152	2,378.17	76.9103	2,378.17	73.2491	2,378.17	74.8005	2,378.17	68.9965	2,378.17	71.9901	2,378.17	70.572	2,378.17	71.3192	2,378.17	68.5519	2,378.17	72.2834	2,378.17	68.7531	2,378.17	68.9654	2,378.17	68.7445	2,378.17	68.8099	2,378.17	68.6526	2,378.17	68.4213	2,378.17	54.1185	2,378.17	68.8423	2,378.17	64.0541	2,378.17	59.0389	2,378.17	66.0843
2,462.4	85.5803	2,462.4	85.3183	2,462.4	85.5201	2,462.4	84.7281	2,462.4	85.1109	2,462.4	84.1285	2,462.4	84.6144	2,462.4	83.0542	2,462.4	83.7142	2,462.4	81.1128	2,462.4	82.0454	2,462.4	79.5824	2,462.4	80.1898	2,462.4	77.4154	2,462.4	78.6845	2,462.4	75.5635	2,462.4	76.4308	2,462.4	74.2007	2,462.4	74.2132	2,462.4	71.1118	2,462.4	72.9555	2,462.4	71.7728	2,462.4	70.1219	2,462.4	69.4638	2,462.4	70.8568	2,462.4	69.4612	2,462.4	68.6285	2,462.4	67.7613	2,462.4	68.3358	2,462.4	69.2211	2,462.4	66.0969	2,462.4	59.8265	2,462.4	67.8886	2,462.4	67.2078	2,462.4	58.1472	2,462.4	66.4008
2,548.83	85.7413	2,548.83	85.4737	2,548.83	85.5866	2,548.83	84.7894	2,548.83	85.3824	2,548.83	83.9318	2,548.83	84.97	2,548.83	82.8318	2,548.83	83.9829	2,548.83	80.6822	2,548.83	82.9499	2,548.83	78.4775	2,548.83	81.2477	2,548.83	76.6505	2,548.83	78.8624	2,548.83	74.5407	2,548.83	76.524	2,548.83	73.6356	2,548.83	74.6058	2,548.83	71.1277	2,548.83	73.4624	2,548.83	69.8826	2,548.83	71.1383	2,548.83	67.4209	2,548.83	70.6085	2,548.83	69.3512	2,548.83	69.0501	2,548.83	68.2108	2,548.83	68.8096	2,548.83	68.2751	2,548.83	67.7142	2,548.83	55.7573	2,548.83	66.0734	2,548.83	66.3988	2,548.83	61.5648	2,548.83	62.1948
2,638.92	86.01	2,638.92	85.943	2,638.92	85.9481	2,638.92	85.5673	2,638.92	85.8916	2,638.92	84.5815	2,638.92	85.5308	2,638.92	83.3109	2,638.92	84.5235	2,638.92	81.6231	2,638.92	83.3302	2,638.92	79.3687	2,638.92	81.5451	2,638.92	77.2642	2,638.92	79.2361	2,638.92	74.3718	2,638.92	76.9264	2,638.92	72.6589	2,638.92	74.433	2,638.92	69.6506	2,638.92	73.3051	2,638.92	69.9882	2,638.92	70.8168	2,638.92	68.1849	2,638.92	70.7738	2,638.92	67.5863	2,638.92	69.1046	2,638.92	66.4496	2,638.92	68.1384	2,638.92	67.4906	2,638.92	66.9925	2,638.92	58.2167	2,638.92	68.1255	2,638.92	65.2082	2,638.92	58.6144	2,638.92	65.3758
2,731.93	85.9056	2,731.93	85.8251	2,731.93	85.8598	2,731.93	85.5307	2,731.93	85.7839	2,731.93	84.6411	2,731.93	85.366	2,731.93	83.2047	2,731.93	84.4219	2,731.93	81.706	2,731.93	83.1619	2,731.93	79.439	2,731.93	81.3586	2,731.93	77.2502	2,731.93	78.7127	2,731.93	74.9702	2,731.93	76.4968	2,731.93	72.7852	2,731.93	74.0535	2,731.93	70.8384	2,731.93	72.0633	2,731.93	69.3773	2,731.93	69.6418	2,731.93	67.8778	2,731.93	68.5563	2,731.93	68.1705	2,731.93	66.3823	2,731.93	67.0931	2,731.93	66.8774	2,731.93	66.9526	2,731.93	65.0881	2,731.93	58.5511	2,731.93	66.3081	2,731.93	64.649	2,731.93	60.5689	2,731.93	64.2583
2,828.61	86.2798	2,828.61	86.0186	2,828.61	86.2566	2,828.61	85.7478	2,828.61	86.0863	2,828.61	85.0385	2,828.61	85.703	2,828.61	83.4965	2,828.61	84.8718	2,828.61	81.4955	2,828.61	83.5288	2,828.61	79.0558	2,828.61	81.5656	2,828.61	76.7126	2,828.61	78.8435	2,828.61	73.9878	2,828.61	76.6988	2,828.61	71.8256	2,828.61	74.5327	2,828.61	69.3953	2,828.61	72.6063	2,828.61	69.1602	2,828.61	70.2744	2,828.61	68.125	2,828.61	69.7361	2,828.61	64.612	2,828.61	69.0893	2,828.61	65.4238	2,828.61	65.2371	2,828.61	66.3051	2,828.61	66.2474	2,828.61	62.4903	2,828.61	66.5088	2,828.61	64.0287	2,828.61	60.441	2,828.61	66.4634
2,928.22	86.0894	2,928.22	85.8756	2,928.22	86.1566	2,928.22	85.654	2,928.22	85.8906	2,928.22	84.9522	2,928.22	85.4707	2,928.22	83.4376	2,928.22	84.7373	2,928.22	81.4791	2,928.22	83.1437	2,928.22	79.0591	2,928.22	80.9805	2,928.22	76.425	2,928.22	78.3122	2,928.22	74.0472	2,928.22	76.199	2,928.22	72.0659	2,928.22	74.1159	2,928.22	70.0589	2,928.22	71.7682	2,928.22	67.2729	2,928.22	69.4768	2,928.22	66.8767	2,928.22	66.1033	2,928.22	66.4557	2,928.22	66.1282	2,928.22	65.1584	2,928.22	65.0616	2,928.22	65.4436	2,928.22	66.5568	2,928.22	61.7026	2,928.22	64.7123	2,928.22	63.8493	2,928.22	60.561	2,928.22	63.1334
3,031.49	85.8545	3,031.49	85.7753	3,031.49	85.8869	3,031.49	85.5351	3,031.49	85.8308	3,031.49	84.5952	3,031.49	85.4394	3,031.49	82.8178	3,031.49	84.4728	3,031.49	80.5346	3,031.49	82.5799	3,031.49	77.9357	3,031.49	80.2384	3,031.49	75.3128	3,031.49	77.7855	3,031.49	72.0803	3,031.49	75.3155	3,031.49	70.5117	3,031.49	72.4234	3,031.49	69.631	3,031.49	69.8256	3,031.49	66.5506	3,031.49	68.7121	3,031.49	67.3971	3,031.49	66.544	3,031.49	64.8757	3,031.49	67.7568	3,031.49	64.4993	3,031.49	63.9467	3,031.49	64.2478	3,031.49	65.2658	3,031.49	61.7287	3,031.49	63.3738	3,031.49	62.782	3,031.49	59.3521	3,031.49	59.8728
3,138.43	86.1512	3,138.43	86.073	3,138.43	85.974	3,138.43	85.6467	3,138.43	85.9849	3,138.43	84.6608	3,138.43	85.6883	3,138.43	82.9512	3,138.43	84.523	3,138.43	80.7441	3,138.43	82.697	3,138.43	78.145	3,138.43	80.279	3,138.43	75.2829	3,138.43	77.6934	3,138.43	72.8621	3,138.43	75.1267	3,138.43	70.2628	3,138.43	72.6131	3,138.43	69.1432	3,138.43	70.3345	3,138.43	67.4147	3,138.43	68.801	3,138.43	64.9132	3,138.43	67.6803	3,138.43	63.9287	3,138.43	65.7632	3,138.43	64.5695	3,138.43	62.1065	3,138.43	62.5851	3,138.43	63.5402	3,138.43	58.0218	3,138.43	63.7056	3,138.43	57.7584	3,138.43	59.5797	3,138.43	59.116
3,249.02	85.8567	3,249.02	85.852	3,249.02	85.8555	3,249.02	85.2942	3,249.02	85.8502	3,249.02	84.1217	3,249.02	85.2222	3,249.02	82.3444	3,249.02	83.9031	3,249.02	80.0804	3,249.02	81.9454	3,249.02	77.7506	3,249.02	79.61	3,249.02	74.8221	3,249.02	77.3131	3,249.02	72.2356	3,249.02	74.8794	3,249.02	69.5411	3,249.02	72.4517	3,249.02	68.1316	3,249.02	69.6317	3,249.02	66.6358	3,249.02	68.3285	3,249.02	65.4501	3,249.02	65.74	3,249.02	62.4584	3,249.02	65.8755	3,249.02	61.8825	3,249.02	63.4965	3,249.02	61.6967	3,249.02	62.0987	3,249.02	58.7454	3,249.02	62.0442	3,249.02	63.1101	3,249.02	57.9067	3,249.02	60.7131
3,363.28	85.7102	3,363.28	85.5673	3,363.28	85.7481	3,363.28	85.0375	3,363.28	85.497	3,363.28	83.6677	3,363.28	84.8588	3,363.28	81.8398	3,363.28	83.6052	3,363.28	79.4776	3,363.28	81.4966	3,363.28	76.7439	3,363.28	79.0957	3,363.28	74.4643	3,363.28	76.7268	3,363.28	72.0783	3,363.28	74.2697	3,363.28	70.0897	3,363.28	71.5314	3,363.28	67.8575	3,363.28	69.0843	3,363.28	66.5725	3,363.28	66.9635	3,363.28	65.7415	3,363.28	65.0781	3,363.28	61.032	3,363.28	64.8281	3,363.28	61.248	3,363.28	61.4826	3,363.28	60.2919	3,363.28	62.7693	3,363.28	59.4487	3,363.28	59.6656	3,363.28	58.1413	3,363.28	59.7691	3,363.28	57.81
3,481.93	86.3837	3,481.93	86.1215	3,481.93	86.3281	3,481.93	85.5153	3,481.93	85.9897	3,481.93	83.9899	3,481.93	85.5244	3,481.93	81.8686	3,481.93	84.068	3,481.93	79.1151	3,481.93	82.2022	3,481.93	76.2318	3,481.93	79.751	3,481.93	73.477	3,481.93	77.1408	3,481.93	71.5292	3,481.93	74.4443	3,481.93	69.8755	3,481.93	71.917	3,481.93	68.2945	3,481.93	69.4522	3,481.93	65.3743	3,481.93	67.6596	3,481.93	64.131	3,481.93	67.0807	3,481.93	63.2311	3,481.93	65.4742	3,481.93	62.6597	3,481.93	62.5501	3,481.93	59.0847	3,481.93	63.492	3,481.93	61.1651	3,481.93	60.1486	3,481.93	56.7497	3,481.93	59.4917	3,481.93	56.1264
3,604.98	86.254	3,604.98	86.1472	3,604.98	85.9574	3,604.98	85.3841	3,604.98	86.0102	3,604.98	84.152	3,604.98	85.3037	3,604.98	81.6457	3,604.98	83.6685	3,604.98	79.5073	3,604.98	81.4234	3,604.98	77.2326	3,604.98	78.9854	3,604.98	74.4582	3,604.98	76.4615	3,604.98	71.7275	3,604.98	73.6219	3,604.98	68.1699	3,604.98	71.4016	3,604.98	67.6302	3,604.98	68.7176	3,604.98	66.8515	3,604.98	67.5675	3,604.98	64.7033	3,604.98	66.1969	3,604.98	63.7031	3,604.98	64.5313	3,604.98	63.4827	3,604.98	63.7871	3,604.98	60.4202	3,604.98	59.6098	3,604.98	58.829	3,604.98	58.3836	3,604.98	59.291	3,604.98	56.395	3,604.98	57.6035
3,732.42	86.3242	3,732.42	86.1697	3,732.42	86.476	3,732.42	85.1758	3,732.42	86.3476	3,732.42	83.5424	3,732.42	85.3475	3,732.42	81.4361	3,732.42	83.9141	3,732.42	78.7962	3,732.42	81.8118	3,732.42	76.6964	3,732.42	79.2095	3,732.42	74.5348	3,732.42	76.7784	3,732.42	71.6559	3,732.42	74.2514	3,732.42	68.9314	3,732.42	71.4742	3,732.42	66.2052	3,732.42	69.1927	3,732.42	66.0268	3,732.42	67.1219	3,732.42	63.4355	3,732.42	65.5007	3,732.42	62.6304	3,732.42	62.2481	3,732.42	63.6529	3,732.42	63.0464	3,732.42	60.7798	3,732.42	63.1163	3,732.42	57.9619	3,732.42	61.4935	3,732.42	41.4689	3,732.42	58.7271	3,732.42	50.8008
3,863.53	86.7678	3,863.53	86.4137	3,863.53	86.8862	3,863.53	85.6585	3,863.53	86.1699	3,863.53	83.8775	3,863.53	85.4412	3,863.53	81.8422	3,863.53	83.8104	3,863.53	78.9344	3,863.53	81.8307	3,863.53	76.1776	3,863.53	79.2491	3,863.53	73.9188	3,863.53	76.2076	3,863.53	71.1379	3,863.53	74.1095	3,863.53	69.7621	3,863.53	70.9646	3,863.53	67.8235	3,863.53	68.7275	3,863.53	66.2372	3,863.53	67.0123	3,863.53	63.9167	3,863.53	66.7591	3,863.53	60.2305	3,863.53	64.852	3,863.53	63.2534	3,863.53	60.7193	3,863.53	61.1376	3,863.53	63.2029	3,863.53	61.2949	3,863.53	62.4047	3,863.53	46.3805	3,863.53	57.7166	3,863.53	56.4086
3,999.76	86.9821	3,999.76	86.6224	3,999.76	86.777	3,999.76	85.7349	3,999.76	86.4102	3,999.76	84.3172	3,999.76	85.6317	3,999.76	81.696	3,999.76	84.0722	3,999.76	79.1424	3,999.76	81.6857	3,999.76	75.7603	3,999.76	78.7804	3,999.76	72.2366	3,999.76	76.1474	3,999.76	69.2829	3,999.76	73.3514	3,999.76	66.9401	3,999.76	70.9475	3,999.76	66.0837	3,999.76	68.2677	3,999.76	65.4395	3,999.76	66.1191	3,999.76	64.3682	3,999.76	66.1293	3,999.76	62.4319	3,999.76	65.3003	3,999.76	63.1297	3,999.76	62.7195	3,999.76	62.6115	3,999.76	62.029	3,999.76	61.4106	3,999.76	61.0052	3,999.76	49.2022	3,999.76	57.7356	3,999.76	52.8999
4,141.11	86.9874	4,141.11	86.6691	4,141.11	87.0612	4,141.11	85.6233	4,141.11	86.5969	4,141.11	83.8628	4,141.11	85.4718	4,141.11	81.9243	4,141.11	83.7749	4,141.11	79.0023	4,141.11	81.395	4,141.11	75.6104	4,141.11	78.5989	4,141.11	72.6738	4,141.11	75.1403	4,141.11	69.7878	4,141.11	71.7529	4,141.11	66.7299	4,141.11	69.5277	4,141.11	63.1229	4,141.11	67.0961	4,141.11	63.2329	4,141.11	64.5359	4,141.11	63.5732	4,141.11	62.7646	4,141.11	59.1569	4,141.11	62.9935	4,141.11	61.8577	4,141.11	61.2196	4,141.11	60.7298	4,141.11	60.1505	4,141.11	61.5174	4,141.11	59.6494	4,141.11	37.0212	4,141.11	60.9521	4,141.11	51.5585
4,286.87	87.5564	4,286.87	87.0641	4,286.87	87.6518	4,286.87	85.9276	4,286.87	86.8346	4,286.87	83.702	4,286.87	85.6316	4,286.87	81.0418	4,286.87	83.8747	4,286.87	78.0942	4,286.87	81.7257	4,286.87	74.3525	4,286.87	78.4448	4,286.87	70.0376	4,286.87	74.7952	4,286.87	67.9507	4,286.87	71.8912	4,286.87	65.4143	4,286.87	68.9613	4,286.87	63.7943	4,286.87	65.7707	4,286.87	62.4685	4,286.87	63.2894	4,286.87	64.6652	4,286.87	63.2617	4,286.87	59.494	4,286.87	61.5002	4,286.87	60.8959	4,286.87	59.0099	4,286.87	58.6825	4,286.87	60.3195	4,286.87	59.6909	4,286.87	59.6508	4,286.87	49.1302	4,286.87	59.7098	4,286.87	35.2323
4,438.48	87.2261	4,438.48	86.7667	4,438.48	87.0114	4,438.48	85.4681	4,438.48	86.6294	4,438.48	83.9276	4,438.48	85.3731	4,438.48	81.3928	4,438.48	83.1797	4,438.48	78.7934	4,438.48	80.426	4,438.48	75.5646	4,438.48	77.7032	4,438.48	72.2763	4,438.48	74.5071	4,438.48	68.6906	4,438.48	70.73	4,438.48	66.7525	4,438.48	67.4432	4,438.48	63.5414	4,438.48	65.7744	4,438.48	61.6379	4,438.48	62.3798	4,438.48	62.1865	4,438.48	60.8414	4,438.48	59.687	4,438.48	61.345	4,438.48	58.6493	4,438.48	60.7924	4,438.48	58.6015	4,438.48	58.3856	4,438.48	59.7997	4,438.48	59.8314	4,438.48	46.9947	4,438.48	58.1979	4,438.48	50.081
4,594.48	87.1641	4,594.48	86.5815	4,594.48	87.3713	4,594.48	85.4392	4,594.48	86.5092	4,594.48	83.2034	4,594.48	85.2736	4,594.48	81.077	4,594.48	83.5209	4,594.48	77.7244	4,594.48	81.2871	4,594.48	74.4235	4,594.48	78.2819	4,594.48	70.6766	4,594.48	75.0028	4,594.48	67.5588	4,594.48	71.7746	4,594.48	64.9076	4,594.48	67.7616	4,594.48	62.6485	4,594.48	65.4652	4,594.48	61.1631	4,594.48	63.6829	4,594.48	60.7913	4,594.48	61.0218	4,594.48	63.5035	4,594.48	59.7714	4,594.48	59.9351	4,594.48	60.1591	4,594.48	60.6567	4,594.48	57.3569	4,594.48	58.9892	4,594.48	60.3061	4,594.48	39.9975	4,594.48	59.4087	4,594.48	43.8321
4,757.08	87.452	4,757.08	86.8165	4,757.08	87.4068	4,757.08	85.4753	4,757.08	86.7132	4,757.08	83.7405	4,757.08	85.4017	4,757.08	81.1026	4,757.08	83.508	4,757.08	78.4295	4,757.08	80.9735	4,757.08	74.4965	4,757.08	77.9407	4,757.08	71.3692	4,757.08	74.5833	4,757.08	69.0362	4,757.08	70.7924	4,757.08	66.4723	4,757.08	67.7265	4,757.08	63.3433	4,757.08	65.9298	4,757.08	61.8596	4,757.08	63.2029	4,757.08	59.8647	4,757.08	61.5652	4,757.08	59.5776	4,757.08	60.0183	4,757.08	59.5053	4,757.08	61.6715	4,757.08	59.501	4,757.08	58.8443	4,757.08	58.0476	4,757.08	58.1646	4,757.08	32.3293	4,757.08	56.3628	4,757.08	49.4458
4,924.8	87.8131	4,924.8	87.0039	4,924.8	87.8109	4,924.8	85.7002	4,924.8	86.9291	4,924.8	83.757	4,924.8	85.5349	4,924.8	81.3859	4,924.8	83.4871	4,924.8	77.3976	4,924.8	80.9459	4,924.8	73.9775	4,924.8	77.9334	4,924.8	70.2562	4,924.8	74.1345	4,924.8	66.6817	4,924.8	70.4904	4,924.8	64.4018	4,924.8	67.0364	4,924.8	63.0763	4,924.8	64.748	4,924.8	61.9913	4,924.8	63.3923	4,924.8	60.7719	4,924.8	61.9966	4,924.8	58.2685	4,924.8	61.7726	4,924.8	59.931	4,924.8	60.1486	4,924.8	59.9618	4,924.8	57.8278	4,924.8	60.1492	4,924.8	60.4979	4,924.8	47.3307	4,924.8	58.053	4,924.8	44.0331
5,098.39	87.8819	5,098.39	87.0526	5,098.39	88.0756	5,098.39	85.5298	5,098.39	87.1476	5,098.39	83.451	5,098.39	85.7199	5,098.39	80.6507	5,098.39	84.0023	5,098.39	77.3002	5,098.39	81.4572	5,098.39	73.0954	5,098.39	77.6694	5,098.39	70.0701	5,098.39	73.7736	5,098.39	68.3454	5,098.39	70.7649	5,098.39	66.1082	5,098.39	68.3831	5,098.39	64.4137	5,098.39	66.0186	5,098.39	61.8402	5,098.39	63.9515	5,098.39	60.4984	5,098.39	61.4696	5,098.39	62.0354	5,098.39	60.4879	5,098.39	57.8503	5,098.39	62.6752	5,098.39	60.7228	5,098.39	59.3218	5,098.39	56.8161	5,098.39	61.6072	5,098.39	23.6315	5,098.39	59.104	5,098.39	49.4997
5,277.83	87.4803	5,277.83	86.7726	5,277.83	87.3831	5,277.83	85.5326	5,277.83	86.5364	5,277.83	83.9657	5,277.83	85.0694	5,277.83	81.5779	5,277.83	83.3796	5,277.83	77.8116	5,277.83	80.6282	5,277.83	74.6312	5,277.83	77.3945	5,277.83	71.4031	5,277.83	73.7125	5,277.83	68.7953	5,277.83	70.3436	5,277.83	66.4114	5,277.83	67.5381	5,277.83	64.2105	5,277.83	65.7052	5,277.83	62.3106	5,277.83	64.4921	5,277.83	60.8843	5,277.83	62.7596	5,277.83	59.8596	5,277.83	60.9223	5,277.83	55.4715	5,277.83	61.2361	5,277.83	60.1305	5,277.83	56.8659	5,277.83	57.1691	5,277.83	60.5314	5,277.83	40.9979	5,277.83	59.336	5,277.83	44.5746
5,463.87	87.7394	5,463.87	86.8167	5,463.87	87.8267	5,463.87	85.6321	5,463.87	86.6559	5,463.87	83.7248	5,463.87	85.2958	5,463.87	80.7822	5,463.87	83.6235	5,463.87	77.2546	5,463.87	80.9371	5,463.87	73.7042	5,463.87	77.0623	5,463.87	70.031	5,463.87	74.0011	5,463.87	68.0707	5,463.87	71.5076	5,463.87	65.7128	5,463.87	68.8398	5,463.87	64.3077	5,463.87	65.7105	5,463.87	63.8005	5,463.87	65.0843	5,463.87	61.2045	5,463.87	63.2336	5,463.87	62.793	5,463.87	60.3767	5,463.87	59.8589	5,463.87	61.6693	5,463.87	61.1775	5,463.87	58.6412	5,463.87	58.5486	5,463.87	62.0242	5,463.87	38.3027	5,463.87	60.525	5,463.87	28.3866
5,656.49	87.0503	5,656.49	86.0044	5,656.49	87.0047	5,656.49	84.7775	5,656.49	86.0253	5,656.49	83.3113	5,656.49	84.7134	5,656.49	80.5788	5,656.49	83.2537	5,656.49	77.2651	5,656.49	80.3496	5,656.49	74.3978	5,656.49	76.9747	5,656.49	72.2962	5,656.49	74.3249	5,656.49	69.9915	5,656.49	71.7977	5,656.49	67.6296	5,656.49	69.3273	5,656.49	65.5248	5,656.49	66.5199	5,656.49	63.8703	5,656.49	65.102	5,656.49	61.5317	5,656.49	63.6923	5,656.49	60.0318	5,656.49	60.6349	5,656.49	56.8535	5,656.49	60.6943	5,656.49	61.7071	5,656.49	58.0808	5,656.49	57.9044	5,656.49	60.828	5,656.49	45.7845	5,656.49	60.1951	5,656.49	50.3218
5,856.45	86.9528	5,856.45	85.904	5,856.45	87.0308	5,856.45	85.0444	5,856.45	85.7078	5,856.45	83.4136	5,856.45	84.6453	5,856.45	80.8742	5,856.45	83.0698	5,856.45	77.6492	5,856.45	80.3151	5,856.45	74.8612	5,856.45	77.1214	5,856.45	72.4243	5,856.45	74.8404	5,856.45	69.903	5,856.45	71.9145	5,856.45	66.2055	5,856.45	69.1401	5,856.45	63.8663	5,856.45	67.0079	5,856.45	62.4994	5,856.45	63.5233	5,856.45	60.9701	5,856.45	62.9741	5,856.45	60.2379	5,856.45	60.6479	5,856.45	59.2742	5,856.45	59.5489	5,856.45	61.4179	5,856.45	58.1638	5,856.45	54.9487	5,856.45	60.9878	5,856.45	45.9531	5,856.45	58.9313	5,856.45	49.7832
6,062.99	87.0934	6,062.99	86.1198	6,062.99	87.0467	6,062.99	85.0813	6,062.99	85.9307	6,062.99	83.3956	6,062.99	84.6817	6,062.99	80.4387	6,062.99	82.8795	6,062.99	77.3248	6,062.99	79.9759	6,062.99	74.66	6,062.99	77.18	6,062.99	72.015	6,062.99	74.3965	6,062.99	68.7855	6,062.99	71.8247	6,062.99	66.5005	6,062.99	69.3626	6,062.99	64.9981	6,062.99	66.0988	6,062.99	63.7991	6,062.99	64.5139	6,062.99	62.2455	6,062.99	63.0002	6,062.99	58.9318	6,062.99	60.6949	6,062.99	59.2403	6,062.99	59.5765	6,062.99	61.4416	6,062.99	59.6378	6,062.99	58.8394	6,062.99	60.7332	6,062.99	41.4056	6,062.99	58.2693	6,062.99	47.3109
6,276.86	87.2302	6,276.86	86.2475	6,276.86	87.3339	6,276.86	84.8587	6,276.86	86.3161	6,276.86	82.8859	6,276.86	84.9277	6,276.86	79.9688	6,276.86	83.112	6,276.86	77.5346	6,276.86	80.4253	6,276.86	75.1748	6,276.86	77.8196	6,276.86	72.3518	6,276.86	75.5486	6,276.86	69.7881	6,276.86	72.3367	6,276.86	66.6402	6,276.86	69.2379	6,276.86	64.4473	6,276.86	66.8043	6,276.86	62.6805	6,276.86	63.7486	6,276.86	61.9107	6,276.86	62.8447	6,276.86	59.6222	6,276.86	62.0566	6,276.86	58.3818	6,276.86	59.7969	6,276.86	60.4058	6,276.86	59.364	6,276.86	56.8311	6,276.86	60.9205	6,276.86	36.837	6,276.86	59.1853	6,276.86	48.8579
6,498.05	87.267	6,498.05	86.2393	6,498.05	87.3557	6,498.05	85.0642	6,498.05	86.4157	6,498.05	82.8982	6,498.05	85.2412	6,498.05	80.519	6,498.05	83.0229	6,498.05	78.0682	6,498.05	80.5406	6,498.05	75.4379	6,498.05	78.4178	6,498.05	72.9785	6,498.05	75.9683	6,498.05	69.6813	6,498.05	72.7078	6,498.05	67.0504	6,498.05	69.4805	6,498.05	64.1592	6,498.05	66.9152	6,498.05	62.5318	6,498.05	64.8375	6,498.05	60.9725	6,498.05	62.9796	6,498.05	58.9043	6,498.05	62.2993	6,498.05	59.2612	6,498.05	59.4688	6,498.05	60.5147	6,498.05	60.9866	6,498.05	56.5051	6,498.05	60.5731	6,498.05	38.9677	6,498.05	59.9527	6,498.05	45.8729
6,727.29	87.3753	6,727.29	86.842	6,727.29	87.2359	6,727.29	85.3075	6,727.29	86.7516	6,727.29	83.2237	6,727.29	85.2188	6,727.29	81.1412	6,727.29	83.1191	6,727.29	79.0187	6,727.29	80.7316	6,727.29	75.9835	6,727.29	78.479	6,727.29	73.0308	6,727.29	76.1529	6,727.29	69.9386	6,727.29	72.7085	6,727.29	66.4977	6,727.29	69.8644	6,727.29	64.9171	6,727.29	66.823	6,727.29	62.5715	6,727.29	64.3364	6,727.29	60.6615	6,727.29	62.8502	6,727.29	59.4257	6,727.29	61.2475	6,727.29	59.9464	6,727.29	56.4528	6,727.29	58.9314	6,727.29	61.5398	6,727.29	55.1077	6,727.29	61.1026	6,727.29	3.86235	6,727.29	58.7452	6,727.29	49.214
6,964.6	87.2649	6,964.6	86.593	6,964.6	87.395	6,964.6	85.1731	6,964.6	86.621	6,964.6	82.8372	6,964.6	85.014	6,964.6	81.24	6,964.6	82.6953	6,964.6	79.0654	6,964.6	80.9202	6,964.6	76.1041	6,964.6	78.9783	6,964.6	72.9475	6,964.6	76.366	6,964.6	70.6119	6,964.6	73.1984	6,964.6	68.1611	6,964.6	70.6646	6,964.6	65.9521	6,964.6	68.1678	6,964.6	63.988	6,964.6	65.8783	6,964.6	61.3898	6,964.6	64.081	6,964.6	59.8817	6,964.6	61.7669	6,964.6	60.9678	6,964.6	58.2775	6,964.6	60.4464	6,964.6	59.8067	6,964.6	54.8342	6,964.6	61.2349	6,964.6	45.7713	6,964.6	60.1016	6,964.6	47.2213
7,209.96	86.535	7,209.96	86.2397	7,209.96	86.5137	7,209.96	84.4171	7,209.96	86.2197	7,209.96	82.6567	7,209.96	84.2979	7,209.96	81.3014	7,209.96	82.372	7,209.96	79.2042	7,209.96	81.0175	7,209.96	76.6578	7,209.96	78.7121	7,209.96	74.3228	7,209.96	76.6196	7,209.96	70.8626	7,209.96	73.5546	7,209.96	67.5481	7,209.96	70.8062	7,209.96	66.0686	7,209.96	67.0225	7,209.96	62.5778	7,209.96	64.3461	7,209.96	61.3979	7,209.96	63.4702	7,209.96	58.7534	7,209.96	61.7119	7,209.96	60.3923	7,209.96	59.7907	7,209.96	58.8205	7,209.96	61.148	7,209.96	55.4091	7,209.96	60.3043	7,209.96	46.4844	7,209.96	58.9156	7,209.96	46.9901
7,464.11	86.07	7,464.11	85.7159	7,464.11	86.0823	7,464.11	83.8074	7,464.11	85.7519	7,464.11	82.2237	7,464.11	83.6986	7,464.11	81.2369	7,464.11	81.9441	7,464.11	78.6003	7,464.11	80.7952	7,464.11	76.6591	7,464.11	78.4194	7,464.11	74.3707	7,464.11	76.717	7,464.11	70.6045	7,464.11	73.3935	7,464.11	67.7545	7,464.11	70.1908	7,464.11	65.9774	7,464.11	67.3611	7,464.11	63.3336	7,464.11	65.1393	7,464.11	60.2461	7,464.11	62.8336	7,464.11	60.0373	7,464.11	62.0291	7,464.11	60.1911	7,464.11	58.2905	7,464.11	58.2732	7,464.11	60.064	7,464.11	56.3239	7,464.11	60.7378	7,464.11	51.5623	7,464.11	59.7744	7,464.11	51.5911
7,727.78	85.7658	7,727.78	85.4446	7,727.78	85.7168	7,727.78	82.9934	7,727.78	85.454	7,727.78	81.8694	7,727.78	83.1792	7,727.78	80.603	7,727.78	81.9292	7,727.78	78.6457	7,727.78	80.2713	7,727.78	76.729	7,727.78	78.3781	7,727.78	73.7401	7,727.78	76.5788	7,727.78	70.5048	7,727.78	73.0179	7,727.78	66.5574	7,727.78	70.5274	7,727.78	64.6922	7,727.78	67.3781	7,727.78	62.7492	7,727.78	64.6367	7,727.78	60.2402	7,727.78	61.8486	7,727.78	61.3339	7,727.78	60.1479	7,727.78	59.3873	7,727.78	56.3405	7,727.78	57.4826	7,727.78	60.2716	7,727.78	54.7461	7,727.78	59.7735	7,727.78	49.9414	7,727.78	58.0381	7,727.78	48.9024
8,000.24	85.8441	8,000.24	85.4514	8,000.24	85.812	8,000.24	83.2841	8,000.24	85.4757	8,000.24	82.1497	8,000.24	83.1859	8,000.24	80.4984	8,000.24	82.0321	8,000.24	79.2251	8,000.24	80.4177	8,000.24	77.2178	8,000.24	78.7969	8,000.24	73.4018	8,000.24	76.6905	8,000.24	69.2692	8,000.24	73.0679	8,000.24	66.3188	8,000.24	69.3492	8,000.24	63.808	8,000.24	65.4992	8,000.24	60.2295	8,000.24	63.3589	8,000.24	58.8443	8,000.24	61.0783	8,000.24	60.3919	8,000.24	59.4103	8,000.24	57.818	8,000.24	58.2549	8,000.24	56.9687	8,000.24	59.7344	8,000.24	54.6565	8,000.24	58.9501	8,000.24	44.6709	8,000.24	57.5593	8,000.24	51.5454
8,282.23	87.0111	8,282.23	85.8729	8,282.23	87.1061	8,282.23	83.7058	8,282.23	85.8343	8,282.23	82.2792	8,282.23	83.3431	8,282.23	80.8448	8,282.23	81.9768	8,282.23	79.6104	8,282.23	80.5331	8,282.23	76.7612	8,282.23	79.0441	8,282.23	73.0109	8,282.23	76.8039	8,282.23	68.7511	8,282.23	72.6322	8,282.23	65.2945	8,282.23	68.3511	8,282.23	63.2998	8,282.23	64.7233	8,282.23	60.3595	8,282.23	63.0855	8,282.23	59.0522	8,282.23	60.7509	8,282.23	58.5392	8,282.23	58.6155	8,282.23	57.8758	8,282.23	58.5475	8,282.23	54.5815	8,282.23	58.162	8,282.23	54.6589	8,282.23	56.5067	8,282.23	47.1084	8,282.23	55.5781	8,282.23	49.6523
8,574.46	87.5823	8,574.46	86.1606	8,574.46	87.5878	8,574.46	83.6831	8,574.46	86.2313	8,574.46	82.0945	8,574.46	83.8232	8,574.46	80.7341	8,574.46	82.1658	8,574.46	79.3827	8,574.46	80.4451	8,574.46	75.8891	8,574.46	78.8203	8,574.46	71.8326	8,574.46	75.9371	8,574.46	68.3972	8,574.46	71.3447	8,574.46	64.4622	8,574.46	67.9358	8,574.46	62.3158	8,574.46	64.6932	8,574.46	60.1376	8,574.46	62.3323	8,574.46	59.3262	8,574.46	60.3387	8,574.46	57.8913	8,574.46	58.3375	8,574.46	57.4643	8,574.46	57.5677	8,574.46	53.664	8,574.46	57.2133	8,574.46	53.9877	8,574.46	56.0334	8,574.46	46.9247	8,574.46	56.5827	8,574.46	49.4237
8,876.22	87.4882	8,876.22	85.9107	8,876.22	87.4876	8,876.22	83.723	8,876.22	85.8888	8,876.22	81.9552	8,876.22	83.735	8,876.22	80.71	8,876.22	81.88	8,876.22	78.9552	8,876.22	80.4135	8,876.22	75.0446	8,876.22	78.43	8,876.22	71.2173	8,876.22	74.8382	8,876.22	67.282	8,876.22	70.6156	8,876.22	64.9759	8,876.22	67.2189	8,876.22	61.9044	8,876.22	64.3825	8,876.22	59.2665	8,876.22	62.0859	8,876.22	59.5406	8,876.22	59.3077	8,876.22	58.0381	8,876.22	57.1842	8,876.22	55.1741	8,876.22	57.9007	8,876.22	51.9633	8,876.22	56.4264	8,876.22	57.4255	8,876.22	53.1165	8,876.22	34.8699	8,876.22	56.3171	8,876.22	48.9313
9,189.7	86.8599	9,189.7	85.0888	9,189.7	86.9676	9,189.7	83.4288	9,189.7	85.1973	9,189.7	81.6163	9,189.7	83.215	9,189.7	80.4231	9,189.7	81.2421	9,189.7	78.1771	9,189.7	80.1553	9,189.7	74.1918	9,189.7	77.55	9,189.7	71.2879	9,189.7	74.1698	9,189.7	66.97	9,189.7	70.1068	9,189.7	64.4428	9,189.7	66.2836	9,189.7	61.5944	9,189.7	63.4644	9,189.7	58.7047	9,189.7	61.3317	9,189.7	58.3514	9,189.7	59.0266	9,189.7	56.89	9,189.7	56.8544	9,189.7	53.4674	9,189.7	56.7958	9,189.7	52.6521	9,189.7	54.9548	9,189.7	57.6795	9,189.7	51.9318	9,189.7	43.7526	9,189.7	56.4244	9,189.7	49.4717
9,513.43	86.4524	9,513.43	84.7845	9,513.43	86.623	9,513.43	83.0957	9,513.43	84.9618	9,513.43	81.2673	9,513.43	83.1079	9,513.43	80.0988	9,513.43	81.0867	9,513.43	77.5027	9,513.43	79.8577	9,513.43	73.7369	9,513.43	76.806	9,513.43	70.7385	9,513.43	73.6575	9,513.43	66.681	9,513.43	69.6617	9,513.43	63.2603	9,513.43	66.3003	9,513.43	60.1457	9,513.43	62.6813	9,513.43	59.0612	9,513.43	60.3976	9,513.43	56.7398	9,513.43	59.2619	9,513.43	54.9847	9,513.43	56.1596	9,513.43	53.2147	9,513.43	55.8886	9,513.43	53.1323	9,513.43	53.3771	9,513.43	57.4346	9,513.43	50.8957	9,513.43	46.1694	9,513.43	54.6888	9,513.43	51.5396
9,848.88	86.6069	9,848.88	85.1323	9,848.88	86.7512	9,848.88	83.3315	9,848.88	85.3287	9,848.88	81.615	9,848.88	83.5563	9,848.88	80.089	9,848.88	81.6666	9,848.88	77.3897	9,848.88	79.9143	9,848.88	73.4124	9,848.88	76.819	9,848.88	69.9591	9,848.88	73.5416	9,848.88	65.2417	9,848.88	69.0497	9,848.88	62.0264	9,848.88	65.465	9,848.88	58.429	9,848.88	62.4063	9,848.88	58.2145	9,848.88	59.2613	9,848.88	56.0004	9,848.88	58.2442	9,848.88	53.4747	9,848.88	55.0682	9,848.88	51.5209	9,848.88	55.3627	9,848.88	51.9512	9,848.88	52.1231	9,848.88	55.5595	9,848.88	50.4661	9,848.88	43.3659	9,848.88	51.9292	9,848.88	48.8236
10,196.8	86.7102	10,196.8	85.3573	10,196.8	86.8801	10,196.8	83.7813	10,196.8	85.6392	10,196.8	82.2887	10,196.8	84.0764	10,196.8	80.2976	10,196.8	82.456	10,196.8	77.7289	10,196.8	80.3581	10,196.8	73.6155	10,196.8	77.468	10,196.8	69.9059	10,196.8	73.706	10,196.8	65.4495	10,196.8	69.2196	10,196.8	62.2771	10,196.8	65.2539	10,196.8	59.1308	10,196.8	62.3982	10,196.8	58.0201	10,196.8	59.3825	10,196.8	56.854	10,196.8	58.633	10,196.8	52.0394	10,196.8	55.7357	10,196.8	51.6208	10,196.8	55.5071	10,196.8	51.3076	10,196.8	52.3104	10,196.8	55.5509	10,196.8	51.4888	10,196.8	44.5906	10,196.8	51.7186	10,196.8	50.0404
10,556.4	86.295	10,556.4	85.1197	10,556.4	86.5458	10,556.4	83.7833	10,556.4	85.5081	10,556.4	82.5793	10,556.4	84.2078	10,556.4	80.2731	10,556.4	83.0068	10,556.4	78.072	10,556.4	80.6242	10,556.4	73.9451	10,556.4	78.0144	10,556.4	70.1797	10,556.4	74.2964	10,556.4	66.7788	10,556.4	70.0809	10,556.4	63.1084	10,556.4	67.2422	10,556.4	60.7704	10,556.4	63.3755	10,556.4	58.4512	10,556.4	60.6068	10,556.4	57.3526	10,556.4	59.5765	10,556.4	53.2692	10,556.4	56.1497	10,556.4	52.368	10,556.4	56.5276	10,556.4	51.5482	10,556.4	51.9376	10,556.4	56.0893	10,556.4	52.0947	10,556.4	48.0536	10,556.4	51.398	10,556.4	52.9507
10,928.5	85.8137	10,928.5	84.9258	10,928.5	86.1146	10,928.5	83.495	10,928.5	85.2606	10,928.5	82.5142	10,928.5	84.087	10,928.5	80.0395	10,928.5	82.926	10,928.5	77.9635	10,928.5	80.1396	10,928.5	74.1487	10,928.5	77.9986	10,928.5	70.6282	10,928.5	74.7523	10,928.5	66.6658	10,928.5	70.6535	10,928.5	63.1537	10,928.5	67.7652	10,928.5	60.6593	10,928.5	63.5114	10,928.5	57.8228	10,928.5	61.244	10,928.5	56.3732	10,928.5	58.8584	10,928.5	54.1503	10,928.5	55.5107	10,928.5	50.9268	10,928.5	56.8509	10,928.5	50.4139	10,928.5	50.1299	10,928.5	55.963	10,928.5	51.477	10,928.5	50.6412	10,928.5	52.5191	10,928.5	53.1189
11,313.7	85.6049	11,313.7	84.6254	11,313.7	85.9048	11,313.7	83.4359	11,313.7	84.9403	11,313.7	82.0688	11,313.7	83.8358	11,313.7	79.6218	11,313.7	82.3532	11,313.7	77.3639	11,313.7	79.5803	11,313.7	74.1867	11,313.7	77.5316	11,313.7	70.2416	11,313.7	74.7133	11,313.7	65.4409	11,313.7	70.1809	11,313.7	62.4898	11,313.7	67.0118	11,313.7	59.1396	11,313.7	62.7384	11,313.7	57.5584	11,313.7	60.7476	11,313.7	54.6519	11,313.7	58.5377	11,313.7	52.7569	11,313.7	55.6901	11,313.7	49.9103	11,313.7	56.0107	11,313.7	49.1511	11,313.7	49.0898	11,313.7	53.5573	11,313.7	48.4619	11,313.7	50.3895	11,313.7	51.5466	11,313.7	53.1668
11,712.9	85.1213	11,712.9	84.2295	11,712.9	85.4189	11,712.9	82.9486	11,712.9	84.6036	11,712.9	81.3309	11,712.9	83.5557	11,712.9	79.2727	11,712.9	81.6284	11,712.9	76.6059	11,712.9	78.9984	11,712.9	73.3958	11,712.9	76.5825	11,712.9	68.8497	11,712.9	73.7453	11,712.9	63.5288	11,712.9	69.0797	11,712.9	61.6356	11,712.9	65.5399	11,712.9	57.7493	11,712.9	61.7576	11,712.9	56.5062	11,712.9	59.288	11,712.9	54.7059	11,712.9	56.7711	11,712.9	50.9741	11,712.9	55.1025	11,712.9	46.1051	11,712.9	55.4475	11,712.9	47.7317	11,712.9	47.274	11,712.9	51.5873	11,712.9	44.6923	11,712.9	47.0381	11,712.9	51.4328	11,712.9	50.8485
12,126	85.2696	12,126	84.2284	12,126	85.5841	12,126	82.9126	12,126	84.821	12,126	81.2074	12,126	83.6094	12,126	79.1322	12,126	81.4578	12,126	76.3615	12,126	78.943	12,126	72.7763	12,126	76.5274	12,126	68.2756	12,126	73.2661	12,126	62.706	12,126	68.959	12,126	60.9034	12,126	64.368	12,126	57.216	12,126	61.3527	12,126	57.3171	12,126	57.9414	12,126	53.0363	12,126	56.6899	12,126	47.7754	12,126	55.263	12,126	43.7676	12,126	54.3181	12,126	46.333	12,126	44.6926	12,126	49.3058	12,126	42.2935	12,126	47.5311	12,126	50.6517	12,126	49.2543
12,553.7	85.52	12,553.7	84.3482	12,553.7	85.7562	12,553.7	83.1376	12,553.7	84.8943	12,553.7	81.4901	12,553.7	83.6681	12,553.7	79.3191	12,553.7	81.6643	12,553.7	76.7629	12,553.7	79.3807	12,553.7	72.423	12,553.7	77.3427	12,553.7	68.3881	12,553.7	73.5932	12,553.7	64.2541	12,553.7	70.1207	12,553.7	60.8046	12,553.7	65.4467	12,553.7	57.9575	12,553.7	62.5903	12,553.7	57.8894	12,553.7	58.8376	12,553.7	52.59	12,553.7	58.322	12,553.7	46.6202	12,553.7	54.9362	12,553.7	43.0841	12,553.7	55.2897	12,553.7	44.288	12,553.7	36.6045	12,553.7	48.0053	12,553.7	38.3182	12,553.7	46.6899	12,553.7	48.9053	12,553.7	50.0993
12,996.1	85.3496	12,996.1	84.3811	12,996.1	85.5208	12,996.1	83.3332	12,996.1	84.6274	12,996.1	82.0745	12,996.1	83.5138	12,996.1	79.8852	12,996.1	81.8559	12,996.1	77.2738	12,996.1	79.3894	12,996.1	72.9953	12,996.1	77.5418	12,996.1	69.4974	12,996.1	73.6321	12,996.1	65.2878	12,996.1	70.4616	12,996.1	61.3475	12,996.1	66.0286	12,996.1	59.1296	12,996.1	62.3884	12,996.1	57.8811	12,996.1	59.433	12,996.1	52.0036	12,996.1	58.6335	12,996.1	48.2774	12,996.1	54.4527	12,996.1	40.6364	12,996.1	54.2206	12,996.1	49.7088	12,996.1	33.9867	12,996.1	45.9061	12,996.1	37.0998	12,996.1	45.8352	12,996.1	48.9315	12,996.1	49.8686
13,454.6	85.1061	13,454.6	84.4556	13,454.6	85.1953	13,454.6	83.6127	13,454.6	84.2736	13,454.6	82.5166	13,454.6	83.258	13,454.6	79.9639	13,454.6	81.6942	13,454.6	76.9271	13,454.6	79.3518	13,454.6	73.5319	13,454.6	77.4402	13,454.6	69.5527	13,454.6	73.9823	13,454.6	65.5022	13,454.6	70.4333	13,454.6	61.259	13,454.6	65.5973	13,454.6	59.6915	13,454.6	62.1001	13,454.6	56.7528	13,454.6	59.1952	13,454.6	51.0517	13,454.6	57.8703	13,454.6	47.9956	13,454.6	53.8731	13,454.6	36.6107	13,454.6	53.6116	13,454.6	51.4138	13,454.6	28.8565	13,454.6	45.2084	13,454.6	42.7064	13,454.6	43.881	13,454.6	46.827	13,454.6	45.7409
13,928.5	84.8363	13,928.5	84.6761	13,928.5	84.7584	13,928.5	83.8001	13,928.5	84.1642	13,928.5	82.3192	13,928.5	83.2023	13,928.5	79.2776	13,928.5	81.4264	13,928.5	75.972	13,928.5	78.8036	13,928.5	73.6508	13,928.5	76.8686	13,928.5	69.3815	13,928.5	73.7057	13,928.5	65.6952	13,928.5	70.0132	13,928.5	61.4578	13,928.5	65.1232	13,928.5	59.4813	13,928.5	62.1456	13,928.5	56.3879	13,928.5	59.1688	13,928.5	51.7173	13,928.5	56.9574	13,928.5	47.9118	13,928.5	53.7663	13,928.5	39.0373	13,928.5	52.3142	13,928.5	49.7279	13,928.5	37.6558	13,928.5	45.3832	13,928.5	42.5169	13,928.5	44.0848	13,928.5	47.5204	13,928.5	40.6004
14,419.9	84.8356	14,419.9	84.7888	14,419.9	84.7054	14,419.9	83.3313	14,419.9	84.3536	14,419.9	81.1413	14,419.9	83.2269	14,419.9	77.9761	14,419.9	81.2528	14,419.9	75.9991	14,419.9	78.8102	14,419.9	73.9265	14,419.9	77.4543	14,419.9	69.7945	14,419.9	74.0048	14,419.9	65.6598	14,419.9	70.7918	14,419.9	61.021	14,419.9	65.3235	14,419.9	59.3823	14,419.9	62.3447	14,419.9	55.7581	14,419.9	58.8248	14,419.9	51.6354	14,419.9	56.955	14,419.9	46.2037	14,419.9	54.2179	14,419.9	33.5724	14,419.9	52.8282	14,419.9	48.834	14,419.9	42.424	14,419.9	43.0914	14,419.9	40.7799	14,419.9	43.2239	14,419.9	46.1722	14,419.9	31.1401
14,928.2	84.9433	14,928.2	84.8786	14,928.2	84.8842	14,928.2	82.6584	14,928.2	84.7739	14,928.2	80.4265	14,928.2	83.1593	14,928.2	78.0377	14,928.2	81.2561	14,928.2	76.4509	14,928.2	78.9391	14,928.2	73.6452	14,928.2	77.4821	14,928.2	68.7466	14,928.2	73.6238	14,928.2	64.0747	14,928.2	70.0589	14,928.2	59.1957	14,928.2	64.3032	14,928.2	58.2785	14,928.2	60.9985	14,928.2	53.0572	14,928.2	57.5874	14,928.2	49.0232	14,928.2	56.7338	14,928.2	45.9245	14,928.2	53.1186	14,928.2	40.5521	14,928.2	50.7273	14,928.2	45.3899	14,928.2	44.9116	14,928.2	41.3778	14,928.2	43.0388	14,928.2	46.8365	14,928.2	41.7168	14,928.2	40.1163
15,454.8	84.3456	15,454.8	84.226	15,454.8	84.2787	15,454.8	82.1482	15,454.8	84.1882	15,454.8	80.9178	15,454.8	82.6742	15,454.8	78.3644	15,454.8	81.3864	15,454.8	76.2797	15,454.8	78.5343	15,454.8	73.4222	15,454.8	76.6765	15,454.8	67.5314	15,454.8	72.9065	15,454.8	63.1195	15,454.8	68.3636	15,454.8	59.2084	15,454.8	63.2284	15,454.8	58.2643	15,454.8	59.5456	15,454.8	50.4047	15,454.8	56.9528	15,454.8	48.2098	15,454.8	55.6379	15,454.8	44.3283	15,454.8	51.7072	15,454.8	40.516	15,454.8	49.9905	15,454.8	39.3517	15,454.8	47.803	15,454.8	45.322	15,454.8	43.2285	15,454.8	50.0068	15,454.8	42.9698	15,454.8	46.2068
15,999.8	83.0607	15,999.8	83.465	15,999.8	82.9727	15,999.8	81.7698	15,999.8	83.4509	15,999.8	80.6953	15,999.8	82.2829	15,999.8	78.2546	15,999.8	80.9574	15,999.8	76.7476	15,999.8	78.0227	15,999.8	73.3594	15,999.8	76.831	15,999.8	68.3234	15,999.8	72.8806	15,999.8	63.7222	15,999.8	68.5297	15,999.8	60.8504	15,999.8	64.0422	15,999.8	58.7003	15,999.8	60.733	15,999.8	48.8386	15,999.8	57.9111	15,999.8	50.5093	15,999.8	55.5884	15,999.8	42.3135	15,999.8	50.7965	15,999.8	43.078	15,999.8	49.5876	15,999.8	40.361	15,999.8	49.2081	15,999.8	49.0612	15,999.8	45.8396	15,999.8	53.7492	15,999.8	32.7938	15,999.8	50.5455
16,564.5	83.1656	16,564.5	83.3871	16,564.5	83.0676	16,564.5	81.6788	16,564.5	83.3749	16,564.5	80.4131	16,564.5	82.2057	16,564.5	78.3277	16,564.5	80.535	16,564.5	76.5204	16,564.5	78.0369	16,564.5	72.774	16,564.5	76.7865	16,564.5	68.6365	16,564.5	72.411	16,564.5	63.7798	16,564.5	69.0823	16,564.5	60.7078	16,564.5	63.8424	16,564.5	57.4758	16,564.5	60.845	16,564.5	44.2014	16,564.5	57.4553	16,564.5	50.8161	16,564.5	55.0615	16,564.5	43.6058	16,564.5	50.3444	16,564.5	44.3361	16,564.5	48.3435	16,564.5	40.8367	16,564.5	48.7965	16,564.5	51.2773	16,564.5	47.4969	16,564.5	56.1481	16,564.5	44.0373	16,564.5	53.2068
17,148.2	83.6644	17,148.2	83.6236	17,148.2	83.6228	17,148.2	82.007	17,148.2	83.5794	17,148.2	80.578	17,148.2	82.4088	17,148.2	78.4603	17,148.2	80.5229	17,148.2	75.8483	17,148.2	78.3444	17,148.2	72.7458	17,148.2	76.451	17,148.2	68.1783	17,148.2	72.4982	17,148.2	62.3814	17,148.2	68.7208	17,148.2	60.2304	17,148.2	63.304	17,148.2	56.8345	17,148.2	59.8514	17,148.2	37.7201	17,148.2	56.5383	17,148.2	48.9554	17,148.2	54.5405	17,148.2	44.5258	17,148.2	48.6118	17,148.2	46.0486	17,148.2	47.3148	17,148.2	41.1661	17,148.2	48.1843	17,148.2	52.9368	17,148.2	47.8345	17,148.2	56.6513	17,148.2	51.6736	17,148.2	54.2449
17,753.2	83.8027	17,753.2	83.5583	17,753.2	83.6554	17,753.2	82.0815	17,753.2	83.4069	17,753.2	80.307	17,753.2	82.3574	17,753.2	78.4329	17,753.2	80.4611	17,753.2	75.368	17,753.2	78.6422	17,753.2	72.87	17,753.2	76.2062	17,753.2	67.8287	17,753.2	72.9398	17,753.2	61.151	17,753.2	68.0986	17,753.2	59.9155	17,753.2	62.6402	17,753.2	54.9078	17,753.2	59.327	17,753.2	40.6366	17,753.2	56.0285	17,753.2	48.6559	17,753.2	52.4515	17,753.2	46.1216	17,753.2	47.2341	17,753.2	44.1016	17,753.2	46.0299	17,753.2	46.0405	17,753.2	48.4881	17,753.2	54.503	17,753.2	49.0924	17,753.2	56.5766	17,753.2	55.0019	17,753.2	54.62
18,379.4	83.0489	18,379.4	82.7253	18,379.4	82.8822	18,379.4	81.3193	18,379.4	82.5798	18,379.4	79.7449	18,379.4	81.7482	18,379.4	78.0021	18,379.4	79.9722	18,379.4	74.88	18,379.4	77.9355	18,379.4	71.759	18,379.4	75.3565	18,379.4	66.5656	18,379.4	71.4892	18,379.4	58.6163	18,379.4	66.5083	18,379.4	58.8746	18,379.4	59.7621	18,379.4	51.4921	18,379.4	58.302	18,379.4	45.2656	18,379.4	53.6575	18,379.4	50.2722	18,379.4	50.3236	18,379.4	47.5652	18,379.4	43.2873	18,379.4	44.6253	18,379.4	46.2421	18,379.4	46.73	18,379.4	48.2824	18,379.4	56.5657	18,379.4	50.1664	18,379.4	57.7296	18,379.4	56.2706	18,379.4	55.3604
19,027.6	82.612	19,027.6	82.0496	19,027.6	82.512	19,027.6	80.5798	19,027.6	81.9591	19,027.6	79.2897	19,027.6	81.2543	19,027.6	77.0099	19,027.6	79.7029	19,027.6	73.866	19,027.6	77.1182	19,027.6	69.5217	19,027.6	74.1747	19,027.6	64.2822	19,027.6	69.5752	19,027.6	58.8738	19,027.6	64.4371	19,027.6	58.1485	19,027.6	57.2508	19,027.6	48.5165	19,027.6	57.2579	19,027.6	48.0956	19,027.6	52.348	19,027.6	50.4615	19,027.6	51.2447	19,027.6	48.4198	19,027.6	46.5506	19,027.6	44.5125	19,027.6	42.2445	19,027.6	45.0503	19,027.6	48.4726	19,027.6	57.851	19,027.6	50.2563	19,027.6	57.2487	19,027.6	56.6102	19,027.6	55.0743
19,698.5	82.6088	19,698.5	81.5838	19,698.5	82.3114	19,698.5	79.7108	19,698.5	81.1719	19,698.5	79.007	19,698.5	80.5979	19,698.5	76.1289	19,698.5	79.6808	19,698.5	72.7857	19,698.5	76.415	19,698.5	68.2547	19,698.5	73.233	19,698.5	65.735	19,698.5	69.3993	19,698.5	61.7402	19,698.5	65.8582	19,698.5	57.4899	19,698.5	58.6326	19,698.5	47.2544	19,698.5	57.631	19,698.5	49.9974	19,698.5	53.7591	19,698.5	48.6614	19,698.5	53.852	19,698.5	48.6455	19,698.5	48.5065	19,698.5	47.6166	19,698.5	44.8046	19,698.5	44.8018	19,698.5	49.8028	19,698.5	57.4931	19,698.5	50.591	19,698.5	56.4696	19,698.5	56.4901	19,698.5	54.8877
19,999.5	82.653	19,999.5	81.2655	19,999.5	82.1	19,999.5	79.1668	19,999.5	80.8669	19,999.5	78.734	19,999.5	80.1157	19,999.5	75.729	19,999.5	79.4485	19,999.5	71.8725	19,999.5	75.7304	19,999.5	67.6909	19,999.5	72.7006	19,999.5	66.5168	19,999.5	68.7458	19,999.5	61.5823	19,999.5	66.3479	19,999.5	56.8547	19,999.5	59.5499	19,999.5	47.6588	19,999.5	57.1902	19,999.5	50.3987	19,999.5	53.536	19,999.5	51.3952	19,999.5	56.454	19,999.5	48.8477	19,999.5	48.9538	19,999.5	48.8363	19,999.5	47.7742	19,999.5	47.8691	19,999.5	49.6734	19,999.5	58.0047	19,999.5	52.327	19,999.5	56.3844	19,999.5	56.3295	19,999.5	54.6104
