"SPL Vertical"																																																																							
"On-Axis"		"10°"		"-10°"		"20°"		"-20°"		"30°"		"-30°"		"40°"		"-40°"		"50°"		"-50°"		"60°"		"-60°"		"70°"		"-70°"		"80°"		"-80°"		"90°"		"-90°"		"100°"		"-100°"		"110°"		"-110°"		"120°"		"-120°"		"130°"		"-130°"		"140°"		"-140°"		"150°"		"-150°"		"160°"		"-160°"		"170°"		"-170°"		"180°"	
"Frequency [Hz]"	"Sound Pessure Level [dB]  / [2.83V 1m] "	"Frequency [Hz]"	"Sound Pessure Level [dB]  / [2.83V 1m] "	"Frequency [Hz]"	"Sound Pessure Level [dB]  / [2.83V 1m] "	"Frequency [Hz]"	"Sound Pessure Level [dB]  / [2.83V 1m] "	"Frequency [Hz]"	"Sound Pessure Level [dB]  / [2.83V 1m] "	"Frequency [Hz]"	"Sound Pessure Level [dB]  / [2.83V 1m] "	"Frequency [Hz]"	"Sound Pessure Level [dB]  / [2.83V 1m] "	"Frequency [Hz]"	"Sound Pessure Level [dB]  / [2.83V 1m] "	"Frequency [Hz]"	"Sound Pessure Level [dB]  / [2.83V 1m] "	"Frequency [Hz]"	"Sound Pessure Level [dB]  / [2.83V 1m] "	"Frequency [Hz]"	"Sound Pessure Level [dB]  / [2.83V 1m] "	"Frequency [Hz]"	"Sound Pessure Level [dB]  / [2.83V 1m] "	"Frequency [Hz]"	"Sound Pessure Level [dB]  / [2.83V 1m] "	"Frequency [Hz]"	"Sound Pessure Level [dB]  / [2.83V 1m] "	"Frequency [Hz]"	"Sound Pessure Level [dB]  / [2.83V 1m] "	"Frequency [Hz]"	"Sound Pessure Level [dB]  / [2.83V 1m] "	"Frequency [Hz]"	"Sound Pessure Level [dB]  / [2.83V 1m] "	"Frequency [Hz]"	"Sound Pessure Level [dB]  / [2.83V 1m] "	"Frequency [Hz]"	"Sound Pessure Level [dB]  / [2.83V 1m] "	"Frequency [Hz]"	"Sound Pessure Level [dB]  / [2.83V 1m] "	"Frequency [Hz]"	"Sound Pessure Level [dB]  / [2.83V 1m] "	"Frequency [Hz]"	"Sound Pessure Level [dB]  / [2.83V 1m] "	"Frequency [Hz]"	"Sound Pessure Level [dB]  / [2.83V 1m] "	"Frequency [Hz]"	"Sound Pessure Level [dB]  / [2.83V 1m] "	"Frequency [Hz]"	"Sound Pessure Level [dB]  / [2.83V 1m] "	"Frequency [Hz]"	"Sound Pessure Level [dB]  / [2.83V 1m] "	"Frequency [Hz]"	"Sound Pessure Level [dB]  / [2.83V 1m] "	"Frequency [Hz]"	"Sound Pessure Level [dB]  / [2.83V 1m] "	"Frequency [Hz]"	"Sound Pessure Level [dB]  / [2.83V 1m] "	"Frequency [Hz]"	"Sound Pessure Level [dB]  / [2.83V 1m] "	"Frequency [Hz]"	"Sound Pessure Level [dB]  / [2.83V 1m] "	"Frequency [Hz]"	"Sound Pessure Level [dB]  / [2.83V 1m] "	"Frequency [Hz]"	"Sound Pessure Level [dB]  / [2.83V 1m] "	"Frequency [Hz]"	"Sound Pessure Level [dB]  / [2.83V 1m] "	"Frequency [Hz]"	"Sound Pessure Level [dB]  / [2.83V 1m] "	"Frequency [Hz]"	"Sound Pessure Level [dB]  / [2.83V 1m] "
20.5078	55.0272	20.5078	54.4472	20.5078	55.4683	20.5078	53.7616	20.5078	55.7536	20.5078	53.04	20.5078	55.8718	20.5078	52.4172	20.5078	55.8138	20.5078	52.104	20.5078	55.5747	20.5078	52.3077	20.5078	55.1638	20.5078	53.0711	20.5078	54.6301	20.5078	54.2303	20.5078	54.1112	20.5078	55.5599	20.5078	53.88	20.5078	56.8943	20.5078	54.2501	20.5078	58.1416	20.5078	55.2785	20.5078	59.2559	20.5078	56.6857	20.5078	60.2133	20.5078	58.1411	20.5078	60.9981	20.5078	59.4453	20.5078	61.5971	20.5078	60.5128	20.5078	61.9967	20.5078	61.317	20.5078	62.1829	20.5078	61.8568	20.5078	62.1411
21.2402	53.3936	21.2402	52.8943	21.2402	53.7982	21.2402	52.4118	21.2402	54.0477	21.2402	52.1274	21.2402	54.1103	21.2402	52.2551	21.2402	53.9722	21.2402	52.9113	21.2402	53.6443	21.2402	54.0148	21.2402	53.1941	21.2402	55.3659	21.2402	52.8135	21.2402	56.7848	21.2402	52.865	21.2402	58.1615	21.2402	53.6842	21.2402	59.4403	21.2402	55.195	21.2402	60.5947	21.2402	56.9979	21.2402	61.6111	21.2402	58.7595	21.2402	62.4792	21.2402	60.3189	21.2402	63.1893	21.2402	61.6199	21.2402	63.73	21.2402	62.6507	21.2402	64.0886	21.2402	63.4169	21.2402	64.2511	21.2402	63.9299	21.2402	64.2031
21.9727	53.9251	21.9727	53.4563	21.9727	54.3096	21.9727	53.0233	21.9727	54.5435	21.9727	52.8129	21.9727	54.5918	21.9727	53.0285	21.9727	54.4413	21.9727	53.7586	21.9727	54.1076	21.9727	54.9017	21.9727	53.6714	21.9727	56.2613	21.9727	53.3473	21.9727	57.6706	21.9727	53.5097	21.9727	59.0302	21.9727	54.4508	21.9727	60.29	21.9727	56.0317	21.9727	61.4262	21.9727	57.8494	21.9727	62.4259	21.9727	59.5989	21.9727	63.2796	21.9727	61.1388	21.9727	63.9775	21.9727	62.421	21.9727	64.5086	21.9727	63.4369	21.9727	64.8602	21.9727	64.1925	21.9727	65.0186	21.9727	64.699	21.9727	64.9697
22.7051	56.6053	22.7051	56.4354	22.7051	56.7703	22.7051	56.3346	22.7051	56.8797	22.7051	56.3915	22.7051	56.9066	22.7051	56.684	22.7051	56.8492	22.7051	57.2457	22.7051	56.7393	22.7051	58.0484	22.7051	56.6581	22.7051	59.0197	22.7051	56.746	22.7051	60.0772	22.7051	57.1676	22.7051	61.1514	22.7051	58.0093	22.7051	62.1923	22.7051	59.1992	22.7051	63.1653	22.7051	60.5608	22.7051	64.046	22.7051	61.923	22.7051	64.815	22.7051	63.1713	22.7051	65.4557	22.7051	64.2436	22.7051	65.9522	22.7051	65.111	22.7051	66.2889	22.7051	65.7628	22.7051	66.4512	22.7051	66.199	22.7051	66.4253
23.4375	57.3447	23.4375	57.0878	23.4375	57.5704	23.4375	56.8763	23.4375	57.716	23.4375	56.8114	23.4375	57.7559	23.4375	56.9957	23.4375	57.687	23.4375	57.4883	23.4375	57.5368	23.4375	58.2712	23.4375	57.3811	23.4375	59.2626	23.4375	57.3628	23.4375	60.362	23.4375	57.67	23.4375	61.4851	23.4375	58.4292	23.4375	62.5727	23.4375	59.5902	23.4375	63.5867	23.4375	60.9639	23.4375	64.5013	23.4375	62.3558	23.4375	65.2975	23.4375	63.6359	23.4375	65.9592	23.4375	64.7353	23.4375	66.4712	23.4375	65.623	23.4375	66.8186	23.4375	66.2889	23.4375	66.9869	23.4375	66.7332	23.4375	66.9626
24.1699	58.8858	24.1699	58.7287	24.1699	59.0436	24.1699	58.6352	24.1699	59.1594	24.1699	58.6809	24.1699	59.2115	24.1699	58.9343	24.1699	59.202	24.1699	59.4298	24.1699	59.1624	24.1699	60.1511	24.1699	59.164	24.1699	61.0408	24.1699	59.3195	24.1699	62.0268	24.1699	59.7523	24.1699	63.0436	24.1699	60.5259	24.1699	64.0406	24.1699	61.5903	24.1699	64.9816	24.1699	62.8119	24.1699	65.8398	24.1699	64.0495	24.1699	66.5942	24.1699	65.198	24.1699	67.2268	24.1699	66.1941	24.1699	67.7211	24.1699	67.0042	24.1699	68.0612	24.1699	67.6134	24.1699	68.2326	24.1699	68.0182	24.1699	68.2219
25.6348	62.0343	25.6348	61.9327	25.6348	62.1479	25.6348	61.8868	25.6348	62.2428	25.6348	61.9471	25.6348	62.3033	25.6348	62.16	25.6348	62.3314	25.6348	62.5529	25.6348	62.3509	25.6348	63.1236	25.6348	62.4118	25.6348	63.842	25.6348	62.5893	25.6348	64.6609	25.6348	62.9654	25.6348	65.5299	25.6348	63.5901	25.6348	66.4042	25.6348	64.446	25.6348	67.2469	25.6348	65.4525	25.6348	68.0285	25.6348	66.5045	25.6348	68.7247	25.6348	67.5091	25.6348	69.3144	25.6348	68.3999	25.6348	69.7786	25.6348	69.1363	25.6348	70.1004	25.6348	69.6959	25.6348	70.2643	25.6348	70.0698	25.6348	70.2574
26.3672	63.3377	26.3672	63.2568	26.3672	63.4357	26.3672	63.2315	26.3672	63.5237	26.3672	63.3055	26.3672	63.588	26.3672	63.5185	26.3672	63.6311	26.3672	63.8945	26.3672	63.6753	26.3672	64.4327	26.3672	63.7658	26.3672	65.1085	26.3672	63.968	26.3672	65.8815	26.3672	64.3512	26.3672	66.7068	26.3672	64.9567	26.3672	67.5425	26.3672	65.7692	26.3672	68.3532	26.3672	66.7194	26.3672	69.1093	26.3672	67.7146	26.3672	69.7861	26.3672	68.6691	26.3672	70.3618	26.3672	69.5194	26.3672	70.8171	26.3672	70.2245	26.3672	71.1345	26.3672	70.7612	26.3672	71.2986	26.3672	71.1191	26.3672	71.2966
27.0996	64.9347	27.0996	64.8595	27.0996	65.0274	27.0996	64.8338	27.0996	65.1149	27.0996	64.8944	27.0996	65.1857	27.0996	65.0755	27.0996	65.2423	27.0996	65.3999	27.0996	65.3032	27.0996	65.8714	27.0996	65.4057	27.0996	66.4732	27.0996	65.603	27.0996	67.1731	27.0996	65.9524	27.0996	67.9323	27.0996	66.491	27.0996	68.7119	27.0996	67.2128	27.0996	69.4769	27.0996	68.0657	27.0996	70.1972	27.0996	68.9716	27.0996	70.8468	27.0996	69.8526	27.0996	71.403	27.0996	70.6463	27.0996	71.8453	27.0996	71.3099	27.0996	72.1558	27.0996	71.8173	27.0996	72.3188	27.0996	72.1557	27.0996	72.3217
27.832	66.2075	27.832	66.1348	27.832	66.2959	27.832	66.1066	27.832	66.3797	27.832	66.1561	27.832	66.4487	27.832	66.3152	27.832	66.5049	27.832	66.6064	27.832	66.5653	27.832	67.0363	27.832	66.6631	27.832	67.5927	27.832	66.8465	27.832	68.2483	27.832	67.1682	27.832	68.9677	27.832	67.6646	27.832	69.7136	27.832	68.335	27.832	70.4515	27.832	69.1353	27.832	71.1506	27.832	69.9946	27.832	71.7841	27.832	70.8381	27.832	72.3285	27.832	71.6036	27.832	72.7626	27.832	72.2472	27.832	73.0681	27.832	72.7411	27.832	73.229	27.832	73.0712	27.832	73.2328
29.2969	68.5159	29.2969	68.4591	29.2969	68.5921	29.2969	68.4451	29.2969	68.6709	29.2969	68.5008	29.2969	68.7443	29.2969	68.6522	29.2969	68.8146	29.2969	68.918	29.2969	68.8961	29.2969	69.3048	29.2969	69.0166	29.2969	69.8049	29.2969	69.2148	29.2969	70.3973	29.2969	69.5322	29.2969	71.0532	29.2969	69.9974	29.2969	71.7403	29.2969	70.6102	29.2969	72.4269	29.2969	71.3362	29.2969	73.0836	29.2969	72.117	29.2969	73.6838	29.2969	72.888	29.2969	74.2037	29.2969	73.592	29.2969	74.6218	29.2969	74.1865	29.2969	74.9193	29.2969	74.6434	29.2969	75.0802	29.2969	74.9472	29.2969	75.0921
30.0293	69.5452	30.0293	69.4968	30.0293	69.6134	30.0293	69.4892	30.0293	69.6864	30.0293	69.5467	30.0293	69.7569	30.0293	69.6928	30.0293	69.8274	30.0293	69.9451	30.0293	69.9116	30.0293	70.3104	30.0293	70.0349	30.0293	70.7828	30.0293	70.233	30.0293	71.3448	30.0293	70.5436	30.0293	71.9701	30.0293	70.9929	30.0293	72.629	30.0293	71.5811	30.0293	73.2911	30.0293	72.277	30.0293	73.9275	30.0293	73.0266	30.0293	74.5119	30.0293	73.7686	30.0293	75.0201	30.0293	74.4482	30.0293	75.4303	30.0293	75.0232	30.0293	75.7234	30.0293	75.4656	30.0293	75.8835	30.0293	75.7592	30.0293	75.8979
31.4941	71.6635	31.4941	71.6326	31.4941	71.7205	31.4941	71.6439	31.4941	71.792	31.4941	71.7161	31.4941	71.8728	31.4941	71.8672	31.4941	71.9657	31.4941	72.1105	31.4941	72.082	31.4941	72.4516	31.4941	72.2418	31.4941	72.8864	31.4941	72.4714	31.4941	73.4012	31.4941	72.7975	31.4941	73.9752	31.4941	73.2368	31.4941	74.5833	31.4941	73.787	31.4941	75.1987	31.4941	74.423	31.4941	75.7948	31.4941	75.1016	31.4941	76.3464	31.4941	75.7723	31.4941	76.8298	31.4941	76.3876	31.4941	77.2236	31.4941	76.9092	31.4941	77.5087	31.4941	77.31	31.4941	77.6692	31.4941	77.5737	31.4941	77.6931
32.2266	72.8922	32.2266	72.8651	32.2266	72.9458	32.2266	72.8786	32.2266	73.0159	32.2266	72.9488	32.2266	73.0981	32.2266	73.0912	32.2266	73.1947	32.2266	73.318	32.2266	73.3154	32.2266	73.6345	32.2266	73.4773	32.2266	74.0379	32.2266	73.7028	32.2266	74.5173	32.2266	74.0145	32.2266	75.0544	32.2266	74.4271	32.2266	75.6269	32.2266	74.9398	32.2266	76.2097	32.2266	75.5317	32.2266	76.7776	32.2266	76.165	32.2266	77.3058	32.2266	76.7941	32.2266	77.771	32.2266	77.3744	32.2266	78.1515	32.2266	77.8685	32.2266	78.4283	32.2266	78.2491	32.2266	78.5855	32.2266	78.4993	32.2266	78.6114
33.6914	75.0603	33.6914	75.0331	33.6914	75.1133	33.6914	75.0426	33.6914	75.1842	33.6914	75.102	33.6914	75.2694	33.6914	75.2238	33.6914	75.3709	33.6914	75.4185	33.6914	75.4961	33.6914	75.6917	33.6914	75.6582	33.6914	76.0427	33.6914	75.8745	33.6914	76.4641	33.6914	76.1626	33.6914	76.9421	33.6914	76.5345	33.6914	77.4579	33.6914	76.9905	33.6914	77.9896	33.6914	77.5149	33.6914	78.5139	33.6914	78.0776	33.6914	79.007	33.6914	78.6396	33.6914	79.4458	33.6914	79.161	33.6914	79.8087	33.6914	79.6066	33.6914	80.0766	33.6914	79.9496	33.6914	80.2334	33.6914	80.1727	33.6914	80.2675
34.4238	75.9823	34.4238	75.9537	34.4238	76.0368	34.4238	75.9611	34.4238	76.1098	34.4238	76.0162	34.4238	76.1983	34.4238	76.1307	34.4238	76.3037	34.4238	76.3142	34.4238	76.4325	34.4238	76.5723	34.4238	76.5963	34.4238	76.905	34.4238	76.8101	34.4238	77.3056	34.4238	77.0895	34.4238	77.7619	34.4238	77.4455	34.4238	78.2565	34.4238	77.8786	34.4238	78.7686	34.4238	78.3754	34.4238	79.2758	34.4238	78.9087	34.4238	79.7547	34.4238	79.4427	34.4238	80.1824	34.4238	79.9395	34.4238	80.5376	34.4238	80.3649	34.4238	80.801	34.4238	80.6927	34.4238	80.9567	34.4238	80.9051	34.4238	80.9934
35.8887	77.5705	35.8887	77.5507	35.8887	77.6169	35.8887	77.5659	35.8887	77.684	35.8887	77.6255	35.8887	77.7692	35.8887	77.7389	35.8887	77.8736	35.8887	77.9141	35.8887	78.0026	35.8887	78.1556	35.8887	78.1653	35.8887	78.4637	35.8887	78.3742	35.8887	78.8334	35.8887	78.6418	35.8887	79.2543	35.8887	78.9772	35.8887	79.712	35.8887	79.381	35.8887	80.1879	35.8887	79.8417	35.8887	80.6615	35.8887	80.3362	35.8887	81.1109	35.8887	80.8325	35.8887	81.5142	35.8887	81.2958	35.8887	81.8503	35.8887	81.6943	35.8887	82.1005	35.8887	82.0022	35.8887	82.249	35.8887	82.202	35.8887	82.2847
37.3535	78.8606	37.3535	78.8455	37.3535	78.903	37.3535	78.8639	37.3535	78.9679	37.3535	78.9236	37.3535	79.0534	37.3535	79.032	37.3535	79.1604	37.3535	79.1958	37.3535	79.2932	37.3535	79.419	37.3535	79.4593	37.3535	79.702	37.3535	79.6681	37.3535	80.0414	37.3535	79.9295	37.3535	80.4289	37.3535	80.25	37.3535	80.8522	37.3535	80.6296	37.3535	81.2952	37.3535	81.0583	37.3535	81.7391	37.3535	81.5157	37.3535	82.1634	37.3535	81.9738	37.3535	82.5471	37.3535	82.4011	37.3535	82.8697	37.3535	82.7681	37.3535	83.1126	37.3535	83.0505	37.3535	83.2603	37.3535	83.2313	37.3535	83.3017
38.8184	79.7641	38.8184	79.7508	38.8184	79.8061	38.8184	79.7711	38.8184	79.8733	38.8184	79.831	38.8184	79.9643	38.8184	79.9364	38.8184	80.0798	38.8184	80.0923	38.8184	80.223	38.8184	80.3019	38.8184	80.3993	38.8184	80.5659	38.8184	80.6155	38.8184	80.8814	38.8184	80.8781	38.8184	81.2416	38.8184	81.191	38.8184	81.6359	38.8184	81.5527	38.8184	82.0505	38.8184	81.9538	38.8184	82.4683	38.8184	82.3766	38.8184	82.8705	38.8184	82.7966	38.8184	83.2371	38.8184	83.1863	38.8184	83.5484	38.8184	83.519	38.8184	83.7863	38.8184	83.7724	38.8184	83.9357	38.8184	83.9308	38.8184	83.9857
39.5508	80.0763	39.5508	80.0646	39.5508	80.1175	39.5508	80.0866	39.5508	80.1851	39.5508	80.1475	39.5508	80.278	39.5508	80.2523	39.5508	80.3966	39.5508	80.4053	39.5508	80.5435	39.5508	80.6093	39.5508	80.7232	39.5508	80.8648	39.5508	80.941	39.5508	81.169	39.5508	81.2021	39.5508	81.5159	39.5508	81.5093	39.5508	81.8957	39.5508	81.8605	39.5508	82.2955	39.5508	82.2469	39.5508	82.6991	39.5508	82.6521	39.5508	83.0886	39.5508	83.0534	39.5508	83.4447	39.5508	83.425	39.5508	83.7481	39.5508	83.7418	39.5508	83.9812	39.5508	83.9825	39.5508	84.129	39.5508	84.1316	39.5508	84.1809
41.0156	80.5717	41.0156	80.5637	41.0156	80.6088	41.0156	80.5876	41.0156	80.6729	41.0156	80.6469	41.0156	80.7632	41.0156	80.7452	41.0156	80.8801	41.0156	80.8855	41.0156	81.0253	41.0156	81.07	41.0156	81.2015	41.0156	81.2992	41.0156	81.4121	41.0156	81.5714	41.0156	81.6602	41.0156	81.8821	41.0156	81.9469	41.0156	82.2236	41.0156	82.2698	41.0156	82.5853	41.0156	82.621	41.0156	82.9533	41.0156	82.9866	41.0156	83.3113	41.0156	83.3473	41.0156	83.6414	41.0156	83.6805	41.0156	83.9256	41.0156	83.9638	41.0156	84.1466	41.0156	84.1775	41.0156	84.2899	41.0156	84.3073	41.0156	84.3452
42.4805	80.8569	42.4805	80.839	42.4805	80.9025	42.4805	80.8511	42.4805	80.9739	42.4805	80.8961	42.4805	81.0703	42.4805	80.9771	42.4805	81.1916	42.4805	81.0969	42.4805	81.3383	42.4805	81.2576	42.4805	81.5118	42.4805	81.4602	42.4805	81.7139	42.4805	81.7037	42.4805	81.9459	42.4805	81.9846	42.4805	82.2083	42.4805	82.2966	42.4805	82.4989	42.4805	82.6302	42.4805	82.8113	42.4805	82.9728	42.4805	83.1345	42.4805	83.3091	42.4805	83.4524	42.4805	83.6221	42.4805	83.7457	42.4805	83.8942	42.4805	83.9942	42.4805	84.1088	42.4805	84.1799	42.4805	84.2519	42.4805	84.289	42.4805	84.3135
43.9453	80.8939	43.9453	80.8779	43.9453	80.938	43.9453	80.8916	43.9453	81.0087	43.9453	80.9373	43.9453	81.1053	43.9453	81.0172	43.9453	81.2273	43.9453	81.1332	43.9453	81.3747	43.9453	81.287	43.9453	81.5477	43.9453	81.4791	43.9453	81.7471	43.9453	81.7087	43.9453	81.973	43.9453	81.9727	43.9453	82.225	43.9453	82.2657	43.9453	82.5006	43.9453	82.5791	43.9453	82.7942	43.9453	82.9016	43.9453	83.0958	43.9453	83.2193	43.9453	83.3912	43.9453	83.516	43.9453	83.6631	43.9453	83.7752	43.9453	83.8929	43.9453	83.9809	43.9453	84.0637	43.9453	84.1196	43.9453	84.1625	43.9453	84.1816
45.4102	80.975	45.4102	80.9598	45.4102	81.0185	45.4102	80.974	45.4102	81.0891	45.4102	81.0191	45.4102	81.1861	45.4102	81.0965	45.4102	81.3086	45.4102	81.2076	45.4102	81.4561	45.4102	81.3534	45.4102	81.628	45.4102	81.534	45.4102	81.8238	45.4102	81.7486	45.4102	82.0429	45.4102	81.9947	45.4102	82.284	45.4102	82.2674	45.4102	82.5444	45.4102	82.5596	45.4102	82.8187	45.4102	82.8611	45.4102	83.0982	45.4102	83.1592	45.4102	83.3704	45.4102	83.4392	45.4102	83.6195	45.4102	83.6854	45.4102	83.8289	45.4102	83.8827	45.4102	83.983	45.4102	84.0179	45.4102	84.0696	45.4102	84.0817
47.6074	81.1124	47.6074	81.0956	47.6074	81.1567	47.6074	81.1069	47.6074	81.2281	47.6074	81.1466	47.6074	81.3258	47.6074	81.2153	47.6074	81.449	47.6074	81.3134	47.6074	81.5962	47.6074	81.4415	47.6074	81.766	47.6074	81.5996	47.6074	81.9563	47.6074	81.7872	47.6074	82.1651	47.6074	82.0025	47.6074	82.3897	47.6074	82.2422	47.6074	82.6269	47.6074	82.5007	47.6074	82.8714	47.6074	82.7699	47.6074	83.1158	47.6074	83.0391	47.6074	83.3498	47.6074	83.2953	47.6074	83.5606	47.6074	83.5243	47.6074	83.7344	47.6074	83.712	47.6074	83.8579	47.6074	83.8459	47.6074	83.9208	47.6074	83.917
49.0723	81.1688	49.0723	81.1504	49.0723	81.2148	49.0723	81.1596	49.0723	81.2879	49.0723	81.1964	49.0723	81.3876	49.0723	81.2608	49.0723	81.5127	49.0723	81.353	49.0723	81.6613	49.0723	81.4729	49.0723	81.8313	49.0723	81.6205	49.0723	82.0198	49.0723	81.7952	49.0723	82.224	49.0723	81.9956	49.0723	82.4406	49.0723	82.2189	49.0723	82.6658	49.0723	82.4604	49.0723	82.8947	49.0723	82.713	49.0723	83.1204	49.0723	82.9669	49.0723	83.3338	49.0723	83.2104	49.0723	83.5236	49.0723	83.43	49.0723	83.6777	49.0723	83.6124	49.0723	83.7841	49.0723	83.7457	49.0723	83.8336	49.0723	83.821
50.5371	81.2693	50.5371	81.2497	50.5371	81.3165	50.5371	81.2572	50.5371	81.3909	50.5371	81.2915	50.5371	81.4919	50.5371	81.3522	50.5371	81.6182	50.5371	81.439	50.5371	81.7676	50.5371	81.5514	50.5371	81.9373	50.5371	81.6893	50.5371	82.1237	50.5371	81.852	50.5371	82.3234	50.5371	82.0384	50.5371	82.5323	50.5371	82.246	50.5371	82.7463	50.5371	82.4711	50.5371	82.9605	50.5371	82.7072	50.5371	83.1685	50.5371	82.946	50.5371	83.3624	50.5371	83.1765	50.5371	83.5323	50.5371	83.3864	50.5371	83.6676	50.5371	83.563	50.5371	83.7578	50.5371	83.6951	50.5371	83.7947	50.5371	83.7738
52.7344	81.482	52.7344	81.4624	52.7344	81.5284	52.7344	81.4689	52.7344	81.6017	52.7344	81.5008	52.7344	81.7014	52.7344	81.5568	52.7344	81.8257	52.7344	81.6361	52.7344	81.9723	52.7344	81.7379	52.7344	82.1374	52.7344	81.8615	52.7344	82.317	52.7344	82.0063	52.7344	82.5065	52.7344	82.1713	52.7344	82.7014	52.7344	82.3548	52.7344	82.8969	52.7344	82.5538	52.7344	83.0883	52.7344	82.7636	52.7344	83.2702	52.7344	82.9771	52.7344	83.4361	52.7344	83.1851	52.7344	83.5782	52.7344	83.377	52.7344	83.6878	52.7344	83.5414	52.7344	83.7565	52.7344	83.6678	52.7344	83.7779	52.7344	83.7482
54.1992	81.6495	54.1992	81.6299	54.1992	81.6951	54.1992	81.6357	54.1992	81.7672	54.1992	81.6654	54.1992	81.865	54.1992	81.7178	54.1992	81.9868	54.1992	81.7916	54.1992	82.13	54.1992	81.8856	54.1992	82.2906	54.1992	81.9992	54.1992	82.464	54.1992	82.1315	54.1992	82.6455	54.1992	82.2818	54.1992	82.8301	54.1992	82.4487	54.1992	83.013	54.1992	82.6301	54.1992	83.1895	54.1992	82.8219	54.1992	83.3547	54.1992	83.0183	54.1992	83.5029	54.1992	83.2113	54.1992	83.6273	54.1992	83.3912	54.1992	83.7207	54.1992	83.5474	54.1992	83.7758	54.1992	83.6702	54.1992	83.7871	54.1992	83.7516
56.3965	81.8842	56.3965	81.8612	56.3965	81.9329	56.3965	81.8627	56.3965	82.0076	56.3965	81.8871	56.3965	82.1078	56.3965	81.9328	56.3965	82.2314	56.3965	81.9979	56.3965	82.3753	56.3965	82.081	56.3965	82.5353	56.3965	82.181	56.3965	82.706	56.3965	82.2972	56.3965	82.882	56.3965	82.4289	56.3965	83.0574	56.3965	82.5755	56.3965	83.2272	56.3965	82.7355	56.3965	83.3863	56.3965	82.9063	56.3965	83.5301	56.3965	83.0835	56.3965	83.6539	56.3965	83.2606	56.3965	83.7523	56.3965	83.4293	56.3965	83.8199	56.3965	83.5802	56.3965	83.8515	56.3965	83.7042	56.3965	83.8431	56.3965	83.7935
58.5938	82.1661	58.5938	82.1408	58.5938	82.2159	58.5938	82.1388	58.5938	82.2906	58.5938	82.1583	58.5938	82.3894	58.5938	82.1973	58.5938	82.5104	58.5938	82.2536	58.5938	82.6499	58.5938	82.3257	58.5938	82.8033	58.5938	82.4122	58.5938	82.9651	58.5938	82.5122	58.5938	83.1293	58.5938	82.6255	58.5938	83.2899	58.5938	82.7516	58.5938	83.4417	58.5938	82.8899	58.5938	83.58	58.5938	83.0387	58.5938	83.7009	58.5938	83.1949	58.5938	83.8007	58.5938	83.3533	58.5938	83.8756	58.5938	83.5068	58.5938	83.9218	58.5938	83.6474	58.5938	83.9355	58.5938	83.7665	58.5938	83.9141	58.5938	83.8571
60.0586	82.3522	60.0586	82.3258	60.0586	82.403	60.0586	82.3225	60.0586	82.4785	60.0586	82.3406	60.0586	82.5779	60.0586	82.3776	60.0586	82.699	60.0586	82.4314	60.0586	82.8381	60.0586	82.5	60.0586	82.9902	60.0586	82.582	60.0586	83.1497	60.0586	82.6763	60.0586	83.3104	60.0586	82.7823	60.0586	83.4661	60.0586	82.9	60.0586	83.6116	60.0586	83.0288	60.0586	83.742	60.0586	83.1677	60.0586	83.8537	60.0586	83.314	60.0586	83.9431	60.0586	83.4636	60.0586	84.0071	60.0586	83.6101	60.0586	84.0426	60.0586	83.7461	60.0586	84.0468	60.0586	83.8637	60.0586	84.0179	60.0586	83.956
62.2559	82.6626	62.2559	82.6323	62.2559	82.7166	62.2559	82.6246	62.2559	82.7948	62.2559	82.6372	62.2559	82.8963	62.2559	82.6676	62.2559	83.0185	62.2559	82.7135	62.2559	83.1576	62.2559	82.7724	62.2559	83.3082	62.2559	82.8426	62.2559	83.4642	62.2559	82.9229	62.2559	83.6189	62.2559	83.0129	62.2559	83.7656	62.2559	83.1126	62.2559	83.8985	62.2559	83.2221	62.2559	84.0126	62.2559	83.3412	62.2559	84.1043	62.2559	83.4688	62.2559	84.1709	62.2559	83.6022	62.2559	84.2106	62.2559	83.7366	62.2559	84.2219	62.2559	83.8659	62.2559	84.2038	62.2559	83.9832	62.2559	84.1567	62.2559	84.082
64.4531	82.9004	64.4531	82.8666	64.4531	82.9565	64.4531	82.8539	64.4531	83.0355	64.4531	82.86	64.4531	83.1363	64.4531	82.8822	64.4531	83.2565	64.4531	82.9179	64.4531	83.3922	64.4531	82.9646	64.4531	83.538	64.4531	83.0205	64.4531	83.6876	64.4531	83.0844	64.4531	83.8341	64.4531	83.156	64.4531	83.9704	64.4531	83.2358	64.4531	84.0904	64.4531	83.3246	64.4531	84.189	64.4531	83.4234	64.4531	84.2625	64.4531	83.5324	64.4531	84.3086	64.4531	83.6502	64.4531	84.3262	64.4531	83.7737	64.4531	84.315	64.4531	83.8979	64.4531	84.276	64.4531	84.0164	64.4531	84.2109	64.4531	84.1228
66.6504	83.2833	66.6504	83.2461	66.6504	83.34	66.6504	83.2269	66.6504	83.4168	66.6504	83.2234	66.6504	83.5129	66.6504	83.233	66.6504	83.6261	66.6504	83.2531	66.6504	83.7528	66.6504	83.2812	66.6504	83.8877	66.6504	83.3157	66.6504	84.0246	66.6504	83.3557	66.6504	84.1564	66.6504	83.4014	66.6504	84.276	66.6504	83.454	66.6504	84.377	66.6504	83.5153	66.6504	84.4541	66.6504	83.5877	66.6504	84.5037	66.6504	83.6726	66.6504	84.5239	66.6504	83.7704	66.6504	84.5148	66.6504	83.8795	66.6504	84.4775	66.6504	83.996	66.6504	84.4146	66.6504	84.1143	66.6504	84.3298	66.6504	84.2277
69.5801	83.6304	69.5801	83.5885	69.5801	83.6908	69.5801	83.5635	69.5801	83.7701	69.5801	83.5532	69.5801	83.8673	69.5801	83.5548	69.5801	83.9799	69.5801	83.5655	69.5801	84.1038	69.5801	83.583	69.5801	84.2334	69.5801	83.6054	69.5801	84.3619	69.5801	83.6321	69.5801	84.4822	69.5801	83.6635	69.5801	84.5872	69.5801	83.7009	69.5801	84.6706	69.5801	83.7466	69.5801	84.7278	69.5801	83.8034	69.5801	84.756	69.5801	83.8735	69.5801	84.7546	69.5801	83.9579	69.5801	84.725	69.5801	84.0557	69.5801	84.6698	69.5801	84.1639	69.5801	84.5926	69.5801	84.2777	69.5801	84.498	69.5801	84.3911
71.7773	83.8063	71.7773	83.766	71.7773	83.8677	71.7773	83.7452	71.7773	83.9505	71.7773	83.7415	71.7773	84.0534	71.7773	83.7519	71.7773	84.1736	71.7773	83.7732	71.7773	84.3064	71.7773	83.8023	71.7773	84.446	71.7773	83.8369	71.7773	84.5853	71.7773	83.8756	71.7773	84.7167	71.7773	83.9179	71.7773	84.8325	71.7773	83.9647	71.7773	84.926	71.7773	84.0178	71.7773	84.9922	71.7773	84.0796	71.7773	85.0277	71.7773	84.1525	71.7773	85.0317	71.7773	84.2379	71.7773	85.0052	71.7773	84.3355	71.7773	84.9512	71.7773	84.4432	71.7773	84.8739	71.7773	84.5567	71.7773	84.7784	71.7773	84.6705
73.9746	84.0563	73.9746	84.0157	73.9746	84.1166	73.9746	83.9934	73.9746	84.1969	73.9746	83.987	73.9746	84.2959	73.9746	83.9935	73.9746	84.4111	73.9746	84.0096	73.9746	84.538	73.9746	84.0322	73.9746	84.671	73.9746	84.0588	73.9746	84.8034	73.9746	84.0878	73.9746	84.9275	73.9746	84.1187	73.9746	85.0356	73.9746	84.1524	73.9746	85.1209	73.9746	84.1911	73.9746	85.1777	73.9746	84.2377	73.9746	85.2027	73.9746	84.2954	73.9746	85.1949	73.9746	84.3669	73.9746	85.1557	73.9746	84.4533	73.9746	85.0887	73.9746	84.5534	73.9746	84.9993	73.9746	84.6641	73.9746	84.894	73.9746	84.7798
76.9043	84.3787	76.9043	84.3354	76.9043	84.4408	76.9043	84.3097	76.9043	84.5217	76.9043	84.2992	76.9043	84.6203	76.9043	84.3008	76.9043	84.7336	76.9043	84.3111	76.9043	84.8573	76.9043	84.327	76.9043	84.9856	76.9043	84.3456	76.9043	85.1117	76.9043	84.3651	76.9043	85.2281	76.9043	84.385	76.9043	85.3269	76.9043	84.406	76.9043	85.4013	76.9043	84.4306	76.9043	85.4458	76.9043	84.4622	76.9043	85.4569	76.9043	84.505	76.9043	85.4341	76.9043	84.5628	76.9043	85.3793	76.9043	84.6379	76.9043	85.2971	76.9043	84.7307	76.9043	85.194	76.9043	84.8385	76.9043	85.0777	76.9043	84.9565
79.834	84.5791	79.834	84.534	79.834	84.6429	79.834	84.5063	79.834	84.7257	79.834	84.4936	79.834	84.826	79.834	84.4929	79.834	84.9412	79.834	84.5007	79.834	85.0671	79.834	84.5136	79.834	85.1982	79.834	84.5287	79.834	85.3275	79.834	84.544	79.834	85.4472	79.834	84.5588	79.834	85.5494	79.834	84.5742	79.834	85.6262	79.834	84.5927	79.834	85.6714	79.834	84.6182	79.834	85.6809	79.834	84.6557	79.834	85.6534	79.834	84.7097	79.834	85.5908	79.834	84.7838	79.834	85.4979	79.834	84.8787	79.834	85.3822	79.834	84.9925	79.834	85.2529	79.834	85.1199
82.7637	84.9883	82.7637	84.9405	82.7637	85.0508	82.7637	84.9062	82.7637	85.1278	82.7637	84.8833	82.7637	85.218	82.7637	84.8691	82.7637	85.3189	82.7637	84.8603	82.7637	85.4268	82.7637	84.8537	82.7637	85.5365	82.7637	84.8464	82.7637	85.6419	82.7637	84.8365	82.7637	85.7358	82.7637	84.8237	82.7637	85.8106	82.7637	84.8091	82.7637	85.8592	82.7637	84.796	82.7637	85.8755	82.7637	84.7893	82.7637	85.8559	82.7637	84.7951	82.7637	85.7996	82.7637	84.8198	82.7637	85.7095	82.7637	84.8688	82.7637	85.5918	82.7637	84.945	82.7637	85.4557	82.7637	85.0478	82.7637	85.3123	82.7637	85.1728
85.6934	85.4218	85.6934	85.3722	85.6934	85.4834	85.6934	85.3335	85.6934	85.5571	85.6934	85.3033	85.6934	85.6416	85.6934	85.2788	85.6934	85.7344	85.6934	85.2565	85.6934	85.8314	85.6934	85.233	85.6934	85.9274	85.6934	85.2057	85.6934	86.016	85.6934	85.1729	85.6934	86.0901	85.6934	85.1343	85.6934	86.142	85.6934	85.0918	85.6934	86.165	85.6934	85.0493	85.6934	86.1537	85.6934	85.0129	85.6934	86.1051	85.6934	84.9899	85.6934	86.0197	85.6934	84.9887	85.6934	85.9018	85.6934	85.0162	85.6934	85.7591	85.6934	85.077	85.6934	85.6024	85.6934	85.1718	85.6934	85.4441	85.6934	85.2968
88.623	85.2973	88.623	85.2475	88.623	85.3661	88.623	85.2154	88.623	85.4539	88.623	85.1983	88.623	85.5592	88.623	85.1927	88.623	85.679	88.623	85.1944	88.623	85.8087	88.623	85.1995	88.623	85.9424	88.623	85.2043	88.623	86.0726	88.623	85.2064	88.623	86.1909	88.623	85.2049	88.623	86.2884	88.623	85.2009	88.623	86.3566	88.623	85.1974	88.623	86.3883	88.623	85.1998	88.623	86.3789	88.623	85.2147	88.623	86.3272	88.623	85.249	88.623	86.236	88.623	85.3087	88.623	86.1121	88.623	85.3972	88.623	85.9655	88.623	85.5139	88.623	85.8084	88.623	85.654
91.5527	85.3077	91.5527	85.2523	91.5527	85.3832	91.5527	85.2165	91.5527	85.4777	91.5527	85.1986	91.5527	85.5892	91.5527	85.1959	91.5527	85.7146	91.5527	85.2044	91.5527	85.8497	91.5527	85.2202	91.5527	85.9892	91.5527	85.239	91.5527	86.1264	91.5527	85.2577	91.5527	86.2535	91.5527	85.2744	91.5527	86.3618	91.5527	85.2892	91.5527	86.4427	91.5527	85.3041	91.5527	86.4884	91.5527	85.3233	91.5527	86.4935	91.5527	85.3527	91.5527	86.4557	91.5527	85.3987	91.5527	86.377	91.5527	85.4671	91.5527	86.2634	91.5527	85.5612	91.5527	86.1245	91.5527	85.6807	91.5527	85.9727	91.5527	85.8208
94.4824	85.892	94.4824	85.8293	94.4824	85.9631	94.4824	85.7751	94.4824	86.0422	94.4824	85.7285	94.4824	86.1279	94.4824	85.6876	94.4824	86.2182	94.4824	85.6502	94.4824	86.3106	94.4824	85.6134	94.4824	86.4014	94.4824	85.5749	94.4824	86.4859	94.4824	85.5328	94.4824	86.558	94.4824	85.4868	94.4824	86.6106	94.4824	85.4383	94.4824	86.6359	94.4824	85.3909	94.4824	86.627	94.4824	85.3507	94.4824	86.5788	94.4824	85.3256	94.4824	86.4897	94.4824	85.3245	94.4824	86.3624	94.4824	85.3557	94.4824	86.2045	94.4824	85.425	94.4824	86.0276	94.4824	85.5338	94.4824	85.8468	94.4824	85.6776
98.1445	86.1318	98.1445	86.0707	98.1445	86.2018	98.1445	86.0181	98.1445	86.2799	98.1445	85.9725	98.1445	86.3646	98.1445	85.9314	98.1445	86.4533	98.1445	85.8915	98.1445	86.543	98.1445	85.8493	98.1445	86.6292	98.1445	85.8016	98.1445	86.7069	98.1445	85.7462	98.1445	86.7695	98.1445	85.6826	98.1445	86.8096	98.1445	85.6126	98.1445	86.8195	98.1445	85.5408	98.1445	86.7925	98.1445	85.4744	98.1445	86.7239	98.1445	85.4233	98.1445	86.6129	98.1445	85.3985	98.1445	86.4631	98.1445	85.4102	98.1445	86.2836	98.1445	85.4662	98.1445	86.0878	98.1445	85.5689	98.1445	85.8923	98.1445	85.7143
101.807	86.2736	101.807	86.2139	101.807	86.3418	101.807	86.1629	101.807	86.4174	101.807	86.1197	101.807	86.4983	101.807	86.0823	101.807	86.5823	101.807	86.0474	101.807	86.6664	101.807	86.0116	101.807	86.7469	101.807	85.9715	101.807	86.8195	101.807	85.9243	101.807	86.8786	101.807	85.8693	101.807	86.9173	101.807	85.8074	101.807	86.9286	101.807	85.7428	101.807	86.9057	101.807	85.682	101.807	86.8438	101.807	85.6341	101.807	86.7417	101.807	85.6098	101.807	86.6025	101.807	85.6192	101.807	86.4346	101.807	85.67	101.807	86.2509	101.807	85.7649	101.807	86.0674	101.807	85.9006
105.469	86.506	105.469	86.4441	105.469	86.5747	105.469	86.3898	105.469	86.6483	105.469	86.3429	105.469	86.7242	105.469	86.3017	105.469	86.7997	105.469	86.2633	105.469	86.8717	105.469	86.2243	105.469	86.9371	105.469	86.181	105.469	86.992	105.469	86.1307	105.469	87.0319	105.469	86.072	105.469	87.0514	105.469	86.0056	105.469	87.0447	105.469	85.9352	105.469	87.0062	105.469	85.8669	105.469	86.9324	105.469	85.8097	105.469	86.8224	105.469	85.7738	105.469	86.6799	105.469	85.7699	105.469	86.5133	105.469	85.8059	105.469	86.3353	105.469	85.8856	105.469	86.1612	105.469	86.0069
109.131	86.6943	109.131	86.6158	109.131	86.7797	109.131	86.5458	109.131	86.8696	109.131	86.4845	109.131	86.9612	109.131	86.4305	109.131	87.0512	109.131	86.3816	109.131	87.1366	109.131	86.3341	109.131	87.2139	109.131	86.2847	109.131	87.279	109.131	86.2305	109.131	87.327	109.131	86.1699	109.131	87.352	109.131	86.104	109.131	87.3478	109.131	86.0362	109.131	87.3083	109.131	85.9731	109.131	87.2294	109.131	85.9235	109.131	87.1101	109.131	85.8982	109.131	86.9543	109.131	85.9077	109.131	86.7707	109.131	85.9601	109.131	86.5728	109.131	86.0588	109.131	86.3772	109.131	86.201
112.793	86.7993	112.793	86.7155	112.793	86.8883	112.793	86.6386	112.793	86.98	112.793	86.5693	112.793	87.0716	112.793	86.507	112.793	87.1603	112.793	86.4493	112.793	87.2436	112.793	86.3935	112.793	87.3187	112.793	86.3361	112.793	87.3821	112.793	86.2745	112.793	87.4293	112.793	86.2075	112.793	87.4543	112.793	86.1363	112.793	87.4506	112.793	86.0646	112.793	87.4114	112.793	85.9992	112.793	87.3319	112.793	85.9495	112.793	87.2104	112.793	85.9264	112.793	87.0501	112.793	85.9406	112.793	86.8598	112.793	86	112.793	86.6531	112.793	86.1078	112.793	86.4473	112.793	86.2603
116.455	86.8546	116.455	86.7745	116.455	86.9381	116.455	86.6999	116.455	87.0223	116.455	86.6321	116.455	87.1046	116.455	86.5707	116.455	87.1825	116.455	86.5142	116.455	87.2544	116.455	86.4599	116.455	87.3185	116.455	86.4046	116.455	87.3725	116.455	86.3459	116.455	87.413	116.455	86.2825	116.455	87.4351	116.455	86.2153	116.455	87.4326	116.455	86.148	116.455	87.3987	116.455	86.087	116.455	87.3281	116.455	86.0408	116.455	87.2184	116.455	86.0199	116.455	87.0718	116.455	86.0341	116.455	86.8961	116.455	86.0907	116.455	86.7039	116.455	86.1926	116.455	86.5116	116.455	86.3362
120.85	87.0025	120.85	86.917	120.85	87.0898	120.85	86.8364	120.85	87.1752	120.85	86.7629	120.85	87.2553	120.85	86.697	120.85	87.3274	120.85	86.6374	120.85	87.3896	120.85	86.5816	120.85	87.4405	120.85	86.5262	120.85	87.4786	120.85	86.4684	120.85	87.5015	120.85	86.4061	120.85	87.5055	120.85	86.3395	120.85	87.4856	120.85	86.2713	120.85	87.4364	120.85	86.2071	120.85	87.3534	120.85	86.1548	120.85	87.235	120.85	86.1243	120.85	87.0842	120.85	86.1255	120.85	86.909	120.85	86.1666	120.85	86.7223	120.85	86.2516	120.85	86.5402	120.85	86.3788
125.244	87.0223	125.244	86.9223	125.244	87.1198	125.244	86.8236	125.244	87.2108	125.244	86.7293	125.244	87.2921	125.244	86.6408	125.244	87.3613	125.244	86.5582	125.244	87.4171	125.244	86.4798	125.244	87.4589	125.244	86.4034	125.244	87.486	125.244	86.3268	125.244	87.4968	125.244	86.2485	125.244	87.4881	125.244	86.1691	125.244	87.4553	125.244	86.0916	125.244	87.3927	125.244	86.0214	125.244	87.2956	125.244	85.9667	125.244	87.1622	125.244	85.937	125.244	86.9952	125.244	85.9421	125.244	86.8031	125.244	85.99	125.244	86.5994	125.244	86.0848	125.244	86.4008	125.244	86.2246
129.639	86.9641	129.639	86.8661	129.639	87.0573	129.639	86.7665	129.639	87.1426	129.639	86.6673	129.639	87.217	129.639	86.5692	129.639	87.2784	129.639	86.4716	129.639	87.3257	129.639	86.3723	129.639	87.358	129.639	86.2693	129.639	87.3745	129.639	86.1607	129.639	87.3733	129.639	86.0465	129.639	87.3508	129.639	85.9288	129.639	87.3016	129.639	85.8127	129.639	87.2198	129.639	85.7063	129.639	87.1002	129.639	85.6201	129.639	86.9408	129.639	85.5663	129.639	86.7448	129.639	85.5567	129.639	86.5216	129.639	85.6006	129.639	86.2864	129.639	85.7021	129.639	86.0586	129.639	85.8582
134.033	86.7096	134.033	86.6025	134.033	86.8164	134.033	86.4992	134.033	86.9184	134.033	86.4025	134.033	87.0117	134.033	86.3135	134.033	87.0938	134.033	86.2309	134.033	87.1632	134.033	86.1519	134.033	87.2196	134.033	86.0732	134.033	87.2624	134.033	85.9918	134.033	87.2898	134.033	85.9064	134.033	87.2982	134.033	85.8185	134.033	87.2812	134.033	85.7327	134.033	87.2316	134.033	85.6564	134.033	87.1424	134.033	85.6002	134.033	87.0098	134.033	85.5756	134.033	86.835	134.033	85.5938	134.033	86.6262	134.033	85.663	134.033	86.3976	134.033	85.786	134.033	86.1682	134.033	85.9584
138.428	86.6117	138.428	86.4811	138.428	86.7383	138.428	86.353	138.428	86.8548	138.428	86.2325	138.428	86.9563	138.428	86.123	138.428	87.0403	138.428	86.0252	138.428	87.1063	138.428	85.9376	138.428	87.1555	138.428	85.8575	138.428	87.1896	138.428	85.782	138.428	87.2096	138.428	85.7097	138.428	87.214	138.428	85.6415	138.428	87.1984	138.428	85.581	138.428	87.156	138.428	85.5345	138.428	87.0794	138.428	85.5104	138.428	86.9635	138.428	85.518	138.428	86.8076	138.428	85.5657	138.428	86.6172	138.428	85.6587	138.428	86.4041	138.428	85.7978	138.428	86.1846	138.428	85.977
143.555	86.6228	143.555	86.4741	143.555	86.7614	143.555	86.3233	143.555	86.8831	143.555	86.1772	143.555	86.9825	143.555	86.0411	143.555	87.0569	143.555	85.9173	143.555	87.106	143.555	85.8056	143.555	87.1314	143.555	85.704	143.555	87.1357	143.555	85.6098	143.555	87.1208	143.555	85.5213	143.555	87.0871	143.555	85.4388	143.555	87.0321	143.555	85.3655	143.555	86.9514	143.555	85.307	143.555	86.8399	143.555	85.271	143.555	86.6944	143.555	85.2663	143.555	86.5158	143.555	85.3008	143.555	86.3108	143.555	85.38	143.555	86.0912	143.555	85.5054	143.555	85.873	143.555	85.673
148.682	86.5185	148.682	86.3557	148.682	86.6648	148.682	86.1844	148.682	86.7877	148.682	86.0128	148.682	86.8828	148.682	85.8475	148.682	86.9483	148.682	85.6928	148.682	86.9855	148.682	85.5505	148.682	86.9977	148.682	85.4203	148.682	86.9889	148.682	85.3013	148.682	86.9625	148.682	85.1932	148.682	86.9193	148.682	85.0976	148.682	86.857	148.682	85.0182	148.682	86.7704	148.682	84.9609	148.682	86.6536	148.682	84.9328	148.682	86.5021	148.682	84.9414	148.682	86.3159	148.682	84.9929	148.682	86.1011	148.682	85.0909	148.682	85.8696	148.682	85.2353	148.682	85.6372	148.682	85.4208
153.809	86.572	153.809	86.3969	153.809	86.7235	153.809	86.2065	153.809	86.8452	153.809	86.0089	153.809	86.933	153.809	85.8114	153.809	86.9858	153.809	85.6192	153.809	87.0054	153.809	85.4353	153.809	86.9957	153.809	85.2609	153.809	86.9614	153.809	85.0967	153.809	86.9064	153.809	84.9441	153.809	86.8322	153.809	84.8064	153.809	86.7369	153.809	84.6891	153.809	86.6158	153.809	84.5999	153.809	86.4633	153.809	84.5474	153.809	86.2753	153.809	84.5398	153.809	86.0527	153.809	84.5838	153.809	85.8025	153.809	84.6827	153.809	85.5382	153.809	84.836	153.809	85.2771	153.809	85.0378
159.668	86.6115	159.668	86.4288	159.668	86.769	159.668	86.2287	159.668	86.895	159.668	86.0192	159.668	86.9856	159.668	85.8075	159.668	87.0401	159.668	85.5989	159.668	87.0606	159.668	85.3963	159.668	87.0518	159.668	85.2015	159.668	87.0188	159.668	85.0161	159.668	86.9663	159.668	84.8429	159.668	86.896	159.668	84.6868	159.668	86.8058	159.668	84.5553	159.668	86.6899	159.668	84.4581	159.668	86.5406	159.668	84.4054	159.668	86.3519	159.668	84.4066	159.668	86.1226	159.668	84.4681	159.668	85.8584	159.668	84.5923	159.668	85.5724	159.668	84.7763	159.668	85.2831	159.668	85.0114
164.795	86.3784	164.795	86.1895	164.795	86.5437	164.795	85.9857	164.795	86.6778	164.795	85.7763	164.795	86.7762	164.795	85.5688	164.795	86.8376	164.795	85.3684	164.795	86.8641	164.795	85.1778	164.795	86.8604	164.795	84.9977	164.795	86.8324	164.795	84.829	164.795	86.7853	164.795	84.6736	164.795	86.7217	164.795	84.5359	164.795	86.6401	164.795	84.4232	164.795	86.5354	164.795	84.3449	164.795	86.4003	164.795	84.311	164.795	86.2287	164.795	84.33	164.795	86.0185	164.795	84.4072	164.795	85.7741	164.795	84.5433	164.795	85.5063	164.795	84.7335	164.795	85.2314	164.795	84.9678
170.654	86.09	170.654	85.8991	170.654	86.2549	170.654	85.6926	170.654	86.3861	170.654	85.4812	170.654	86.4796	170.654	85.2746	170.654	86.5355	170.654	85.0799	170.654	86.5578	170.654	84.901	170.654	86.5535	170.654	84.7396	170.654	86.5308	170.654	84.5962	170.654	86.4964	170.654	84.4726	170.654	86.4536	170.654	84.3721	170.654	86.4005	170.654	84.3007	170.654	86.3302	170.654	84.2653	170.654	86.2335	170.654	84.273	170.654	86.102	170.654	84.3286	170.654	85.9319	170.654	84.4337	170.654	85.7258	170.654	84.5859	170.654	85.4927	170.654	84.7792	170.654	85.2467	170.654	85.0038
176.514	86.024	176.514	85.8134	176.514	86.199	176.514	85.5784	176.514	86.3299	176.514	85.3322	176.514	86.4131	176.514	85.0872	176.514	86.4494	176.514	84.8539	176.514	86.4446	176.514	84.6395	176.514	86.4082	176.514	84.4488	176.514	86.3514	176.514	84.2851	176.514	86.2851	176.514	84.1519	176.514	86.2164	176.514	84.0541	176.514	86.1464	176.514	83.9974	176.514	86.07	176.514	83.9876	176.514	85.9782	176.514	84.0285	176.514	85.861	176.514	84.1201	176.514	85.7123	176.514	84.2583	176.514	85.5313	176.514	84.4355	176.514	85.3232	176.514	84.6419	176.514	85.0976	176.514	84.8665
183.105	85.9573	183.105	85.723	183.105	86.1478	183.105	85.4566	183.105	86.2861	183.105	85.1719	183.105	86.3689	183.105	84.8825	183.105	86.3977	183.105	84.5999	183.105	86.3787	183.105	84.3332	183.105	86.3224	183.105	84.0886	183.105	86.2411	183.105	83.8714	183.105	86.1465	183.105	83.6878	183.105	86.047	183.105	83.5456	183.105	85.9448	183.105	83.4543	183.105	85.8357	183.105	83.4227	183.105	85.7109	183.105	83.4565	183.105	85.5611	183.105	83.5551	183.105	85.3799	183.105	83.7118	183.105	85.1668	183.105	83.9153	183.105	84.9271	183.105	84.1517	183.105	84.6703	183.105	84.4077
189.697	86.0585	189.697	85.8252	189.697	86.2419	189.697	85.5537	189.697	86.3675	189.697	85.2577	189.697	86.4321	189.697	84.9507	189.697	86.4378	189.697	84.6444	189.697	86.392	189.697	84.3475	189.697	86.3058	189.697	84.0665	189.697	86.1929	189.697	83.8069	189.697	86.0664	189.697	83.576	189.697	85.9354	189.697	83.3837	189.697	85.803	189.697	83.2425	189.697	85.6651	189.697	83.1656	189.697	85.5129	189.697	83.1627	189.697	85.3372	189.697	83.2362	189.697	85.1321	189.697	83.38	189.697	84.8974	189.697	83.5809	189.697	84.6386	189.697	83.8227	189.697	84.3652	189.697	84.089
196.289	86.1154	196.289	85.8878	196.289	86.2883	196.289	85.6189	196.289	86.3979	196.289	85.3249	196.289	86.4415	196.289	85.0227	196.289	86.4228	196.289	84.7269	196.289	86.3516	196.289	84.4483	196.289	86.2426	196.289	84.1942	196.289	86.1134	196.289	83.9692	196.289	85.9808	196.289	83.778	196.289	85.8569	196.289	83.6268	196.289	85.7449	196.289	83.524	196.289	85.639	196.289	83.4782	196.289	85.5274	196.289	83.4958	196.289	85.3966	196.289	83.5775	196.289	85.2376	196.289	83.7172	196.289	85.048	196.289	83.9033	196.289	84.8319	196.289	84.1213	196.289	84.598	196.289	84.3572
202.881	86.2659	202.881	86.0254	202.881	86.4393	202.881	85.7317	202.881	86.5372	202.881	85.4024	202.881	86.5573	202.881	85.0569	202.881	86.5039	202.881	84.7139	202.881	86.3878	202.881	84.3896	202.881	86.2259	202.881	84.0968	202.881	86.0388	202.881	83.8454	202.881	85.8483	202.881	83.6437	202.881	85.6723	202.881	83.4997	202.881	85.5206	202.881	83.4203	202.881	85.392	202.881	83.4099	202.881	85.277	202.881	83.4673	202.881	85.162	202.881	83.5845	202.881	85.0352	202.881	83.7475	202.881	84.8901	202.881	83.939	202.881	84.7253	202.881	84.1431	202.881	84.5431	202.881	84.3472
210.205	86.4128	210.205	86.1843	210.205	86.5698	210.205	85.8957	210.205	86.6484	210.205	85.5619	210.205	86.6478	210.205	85.1996	210.205	86.573	210.205	84.825	210.205	86.4357	210.205	84.4534	210.205	86.253	210.205	84.0984	210.205	86.046	210.205	83.7739	210.205	85.8371	210.205	83.4949	210.205	85.6448	210.205	83.2783	210.205	85.4793	210.205	83.1412	210.205	85.3397	210.205	83.0964	210.205	85.216	210.205	83.1465	210.205	85.0936	210.205	83.2813	210.205	84.9593	210.205	83.4791	210.205	84.8046	210.205	83.7135	210.205	84.6262	210.205	83.9597	210.205	84.4239	210.205	84.2
217.529	86.3648	217.529	86.1373	217.529	86.5173	217.529	85.8484	217.529	86.5867	217.529	85.5157	217.529	86.5716	217.529	85.1582	217.529	86.4779	217.529	84.7943	217.529	86.3192	217.529	84.4395	217.529	86.1156	217.529	84.1067	217.529	85.8922	217.529	83.8075	217.529	85.6752	217.529	83.5542	217.529	85.4859	217.529	83.3608	217.529	85.335	217.529	83.2425	217.529	85.22	217.529	83.2109	217.529	85.1271	217.529	83.269	217.529	85.0386	217.529	83.407	217.529	84.9384	217.529	83.6038	217.529	84.8166	217.529	83.8324	217.529	84.6686	217.529	84.0677	217.529	84.4932	217.529	84.2914
225.586	86.7809	225.586	86.5658	225.586	86.9079	225.586	86.2759	225.586	86.9388	225.586	85.9279	225.586	86.8718	225.586	85.5403	225.586	86.7126	225.586	85.131	225.586	86.4746	225.586	84.7169	225.586	86.1794	225.586	84.3138	225.586	85.8564	225.586	83.9382	225.586	85.5397	225.586	83.6098	225.586	85.2623	225.586	83.3523	225.586	85.0473	225.586	83.1901	225.586	84.9013	225.586	83.1414	225.586	84.8131	225.586	83.2085	225.586	84.7603	225.586	83.3736	225.586	84.7177	225.586	83.6024	225.586	84.6641	225.586	83.8546	225.586	84.5835	225.586	84.0956	225.586	84.4652	225.586	84.3025
232.91	86.944	232.91	86.735	232.91	87.0673	232.91	86.4545	232.91	87.0953	232.91	86.1195	232.91	87.0247	232.91	85.7471	232.91	86.8593	232.91	85.3523	232.91	86.6103	232.91	84.9468	232.91	86.297	232.91	84.5406	232.91	85.9457	232.91	84.1446	232.91	85.5884	232.91	83.7751	232.91	85.2578	232.91	83.4569	232.91	84.9809	232.91	83.2217	232.91	84.7721	232.91	83.1002	232.91	84.6298	232.91	83.1083	232.91	84.5394	232.91	83.2355	232.91	84.4795	232.91	83.4457	232.91	84.4274	232.91	83.69	232.91	84.3618	232.91	83.9243	232.91	84.2637	232.91	84.1192
241.699	86.8231	241.699	86.5944	241.699	86.966	241.699	86.2969	241.699	87.0119	241.699	85.9519	241.699	86.9569	241.699	85.581	241.699	86.8044	241.699	85.2024	241.699	86.565	241.699	84.8288	241.699	86.256	241.699	84.4668	241.699	85.9005	241.699	84.1202	241.699	85.5258	241.699	83.7946	241.699	85.1606	241.699	83.5024	241.699	84.83	241.699	83.2638	241.699	84.5516	241.699	83.1035	241.699	84.3316	241.699	83.0404	241.699	84.1664	241.699	83.0762	241.699	84.0447	241.699	83.191	241.699	83.9512	241.699	83.3493	241.699	83.8676	241.699	83.5141	241.699	83.7754	241.699	83.6594
249.756	86.929	249.756	86.7005	249.756	87.0575	249.756	86.386	249.756	87.0793	249.756	86.005	249.756	86.9959	249.756	85.5797	249.756	86.8167	249.756	85.1321	249.756	86.5591	249.756	84.6809	249.756	86.2468	249.756	84.2412	249.756	85.908	249.756	83.8264	249.756	85.571	249.756	83.4521	249.756	85.2593	249.756	83.139	249.756	84.9867	249.756	82.913	249.756	84.7555	249.756	82.7977	249.756	84.5594	249.756	82.8028	249.756	84.3895	249.756	82.9147	249.756	84.2387	249.756	83.0986	249.756	84.1023	249.756	83.3111	249.756	83.9739	249.756	83.5159	249.756	83.8425	249.756	83.6935
258.545	87.0231	258.545	86.8397	258.545	87.1092	258.545	86.5742	258.545	87.0894	258.545	86.2465	258.545	86.9633	258.545	85.8781	258.545	86.7388	258.545	85.4877	258.545	86.4319	258.545	85.0893	258.545	86.0665	258.545	84.6918	258.545	85.6725	258.545	84.3023	258.545	85.2838	258.545	83.9319	258.545	84.9332	258.545	83.6005	258.545	84.6469	258.545	83.3388	258.545	84.4386	258.545	83.1817	258.545	84.3079	258.545	83.1534	258.545	84.242	258.545	83.2506	258.545	84.2196	258.545	83.4392	258.545	84.2152	258.545	83.6662	258.545	84.2012	258.545	83.8802	258.545	84.1514	258.545	84.0464
268.066	86.6771	268.066	86.4731	268.066	86.7732	268.066	86.1782	268.066	86.7534	268.066	85.8167	268.066	86.6189	268.066	85.4164	268.066	86.3805	268.066	85.003	268.066	86.057	268.066	84.5958	268.066	85.6742	268.066	84.2045	268.066	85.2619	268.066	83.8323	268.066	84.851	268.066	83.4818	268.066	84.4697	268.066	83.1637	268.066	84.1398	268.066	82.9017	268.066	83.8757	268.066	82.7297	268.066	83.6854	268.066	82.6776	268.066	83.5704	268.066	82.7512	268.066	83.5234	268.066	82.9212	268.066	83.5243	268.066	83.1327	268.066	83.5399	268.066	83.3273	268.066	83.5309	268.066	83.4645
277.588	86.658	277.588	86.5534	277.588	86.6442	277.588	86.3393	277.588	86.5114	277.588	86.031	277.588	86.2694	277.588	85.6483	277.588	85.9391	277.588	85.2125	277.588	85.552	277.588	84.7453	277.588	85.1477	277.588	84.2685	277.588	84.7668	277.588	83.806	277.588	84.4413	277.588	83.3866	277.588	84.185	277.588	83.0454	277.588	83.9907	277.588	82.8193	277.588	83.8382	277.588	82.7336	277.588	83.7085	277.588	82.7866	277.588	83.5963	277.588	82.9421	277.588	83.512	277.588	83.1413	277.588	83.4705	277.588	83.3237	277.588	83.4726	277.588	83.4474	277.588	83.4953	277.588	83.4992
287.109	86.7774	287.109	86.7025	287.109	86.7275	287.109	86.5195	287.109	86.544	287.109	86.2486	287.109	86.229	287.109	85.9098	287.109	85.7978	287.109	85.5182	287.109	85.2815	287.109	85.0826	287.109	84.7281	287.109	84.6067	287.109	84.1994	287.109	84.0953	287.109	83.7601	287.109	83.5629	287.109	83.4581	287.109	83.0448	287.109	83.3054	287.109	82.6023	287.109	83.2743	287.109	82.3131	287.109	83.316	287.109	82.2354	287.109	83.3844	287.109	82.3663	287.109	83.4506	287.109	82.6356	287.109	83.5	287.109	82.9449	287.109	83.5211	287.109	83.2134	287.109	83.4954	287.109	83.3987
297.363	86.5576	297.363	86.4434	297.363	86.5429	297.363	86.2251	297.363	86.3846	297.363	85.9337	297.363	86.0808	297.363	85.5997	297.363	85.6439	297.363	85.2451	297.363	85.1022	297.363	84.8788	297.363	84.5008	297.363	84.4956	297.363	83.8999	297.363	84.0829	297.363	83.3668	297.363	83.6305	297.363	82.9585	297.363	83.1431	297.363	82.7003	297.363	82.6521	297.363	82.5778	297.363	82.2216	297.363	82.5506	297.363	81.9344	297.363	82.5767	297.363	81.8499	297.363	82.6263	297.363	81.9589	297.363	82.6792	297.363	82.1829	297.363	82.7128	297.363	82.422	297.363	82.697	297.363	82.603
307.617	86.5741	307.617	86.4803	307.617	86.5284	307.617	86.2733	307.617	86.3285	307.617	85.9875	307.617	85.9725	307.617	85.6593	307.617	85.4727	307.617	85.319	307.617	84.8573	307.617	84.9835	307.617	84.1718	307.617	84.6539	307.617	83.4797	307.617	84.3208	307.617	82.8563	307.617	83.9731	307.617	82.3722	307.617	83.6098	307.617	82.0684	307.617	83.2478	307.617	81.9404	307.617	82.9235	307.617	81.9471	307.617	82.6828	307.617	82.0377	307.617	82.5568	307.617	82.1719	307.617	82.5393	307.617	82.3229	307.617	82.5852	307.617	82.4677	307.617	82.6342	307.617	82.5808	307.617	82.639
318.604	86.4809	318.604	86.3845	318.604	86.4197	318.604	86.1592	318.604	86.1858	318.604	85.8435	318.604	85.7778	318.604	85.4805	318.604	85.2099	318.604	85.108	318.604	84.5134	318.604	84.7491	318.604	83.7394	318.604	84.4078	318.604	82.9599	318.604	84.0732	318.604	82.2617	318.604	83.7304	318.604	81.727	318.604	83.3737	318.604	81.4026	318.604	83.0162	318.604	81.281	318.604	82.6922	318.604	81.3126	318.604	82.4469	318.604	81.4389	318.604	82.312	318.604	81.6167	318.604	82.2808	318.604	81.8181	318.604	82.3066	318.604	82.0177	318.604	82.3266	318.604	82.1853	318.604	82.2922
329.59	86.3837	329.59	86.2679	329.59	86.3306	329.59	86.0137	329.59	86.0937	329.59	85.666	329.59	85.6746	329.59	85.2786	329.59	85.0914	329.59	84.9025	329.59	84.3814	329.59	84.5723	329.59	83.6036	329.59	84.2969	329.59	82.8389	329.59	84.0626	329.59	82.1814	329.59	83.8463	329.59	81.7134	329.59	83.6314	329.59	81.4723	329.59	83.4179	329.59	81.4352	329.59	83.2238	329.59	81.5414	329.59	83.0767	329.59	81.7301	329.59	82.9951	329.59	81.9624	329.59	82.9714	329.59	82.2159	329.59	82.97	329.59	82.4688	329.59	82.9435	329.59	82.6916	329.59	82.8546
341.309	86.6328	341.309	86.4947	341.309	86.5726	341.309	86.1837	341.309	86.3023	341.309	85.7404	341.309	85.8226	341.309	85.22	341.309	85.1475	341.309	84.688	341.309	84.3077	341.309	84.2069	341.309	83.3572	341.309	83.8206	341.309	82.3846	341.309	83.5444	341.309	81.5201	341.309	83.3692	341.309	80.918	341.309	83.2766	341.309	80.6903	341.309	83.2527	341.309	80.8318	341.309	83.2912	341.309	81.2288	341.309	83.3862	341.309	81.7425	341.309	83.5206	341.309	82.2718	341.309	83.6612	341.309	82.7598	341.309	83.7638	341.309	83.1745	341.309	83.7862	341.309	83.4935	341.309	83.6996
353.76	87.1719	353.76	87.0448	353.76	87.0997	353.76	86.7393	353.76	86.8176	353.76	86.2866	353.76	86.3254	353.76	85.7261	353.76	85.6343	353.76	85.1022	353.76	84.7685	353.76	84.4596	353.76	83.7685	353.76	83.8385	353.76	82.6984	353.76	83.2751	353.76	81.6543	353.76	82.8065	353.76	80.7695	353.76	82.4753	353.76	80.193	353.76	82.3256	353.76	80.0264	353.76	82.3802	353.76	80.2595	353.76	82.6152	353.76	80.7814	353.76	82.9551	353.76	81.4498	353.76	83.2988	353.76	82.1415	353.76	83.5521	353.76	82.7628	353.76	83.6471	353.76	83.2461	353.76	83.5474
366.211	87.4011	366.211	87.2789	366.211	87.318	366.211	86.972	366.211	87.0198	366.211	86.5111	366.211	86.5081	366.211	85.9335	366.211	85.7975	366.211	85.2793	366.211	84.9164	366.211	84.585	366.211	83.9102	366.211	83.8803	366.211	82.8436	366.211	83.1905	366.211	81.8025	366.211	82.5466	366.211	80.8902	366.211	81.9999	366.211	80.2112	366.211	81.6257	366.211	79.8418	366.211	81.4975	366.211	79.8056	366.211	81.6313	366.211	80.0716	366.211	81.9525	366.211	80.5656	366.211	82.3266	366.211	81.1819	366.211	82.6204	366.211	81.8004	366.211	82.7399	366.211	82.3119	366.211	82.638
378.662	87.191	378.662	87.0246	378.662	87.1585	378.662	86.6904	378.662	86.9117	378.662	86.2336	378.662	86.4504	378.662	85.7079	378.662	85.7892	378.662	85.1632	378.662	84.9584	378.662	84.6317	378.662	84.0058	378.662	84.1199	378.662	82.9996	378.662	83.6154	378.662	82.0308	378.662	83.1052	378.662	81.2098	378.662	82.5993	378.662	80.6486	378.662	82.1504	378.662	80.4219	378.662	81.8534	378.662	80.5308	378.662	81.8011	378.662	80.9038	378.662	82.0064	378.662	81.4318	378.662	82.3708	378.662	82.0011	378.662	82.7424	378.662	82.5095	378.662	82.9913	378.662	82.8752	378.662	83.0428
392.578	86.6307	392.578	86.4805	392.578	86.5586	392.578	86.1308	392.578	86.2577	392.578	85.6216	392.578	85.7355	392.578	85.0105	392.578	85.0138	392.578	84.366	392.578	84.13	392.578	83.7532	392.578	83.1379	392.578	83.2152	392.578	82.1078	392.578	82.7639	392.578	81.123	392.578	82.3895	392.578	80.2733	392.578	82.0849	392.578	79.6475	392.578	81.8658	392.578	79.3261	392.578	81.7735	392.578	79.3659	392.578	81.8471	392.578	79.7643	392.578	82.0791	392.578	80.4289	392.578	82.3956	392.578	81.2006	392.578	82.6829	392.578	81.9174	392.578	82.8327	392.578	82.4611	392.578	82.77
405.762	86.7591	405.762	86.6627	405.762	86.5966	405.762	86.3263	405.762	86.1676	405.762	85.7806	405.762	85.4768	405.762	85.0685	405.762	84.5446	405.762	84.244	405.762	83.4126	405.762	83.3679	405.762	82.1528	405.762	82.5019	405.762	80.8748	405.762	81.705	405.762	79.7246	405.762	81.0389	405.762	78.8567	405.762	80.58	405.762	78.3804	405.762	80.4161	405.762	78.3224	405.762	80.6002	405.762	78.6465	405.762	81.0874	405.762	79.2878	405.762	81.7332	405.762	80.1471	405.762	82.3628	405.762	81.0829	405.762	82.834	405.762	81.9415	405.762	83.0553	405.762	82.5989	405.762	82.98
420.41	86.7637	420.41	86.6498	420.41	86.6665	420.41	86.3527	420.41	86.3444	420.41	85.9109	420.41	85.7986	420.41	85.3673	420.41	85.0463	420.41	84.7594	420.41	84.1211	420.41	84.109	420.41	83.072	420.41	83.4175	420.41	81.9595	420.41	82.6704	420.41	80.847	420.41	81.8529	420.41	79.7917	420.41	80.9803	420.41	78.8481	420.41	80.143	420.41	78.0981	420.41	79.5421	420.41	77.694	420.41	79.4126	420.41	77.8159	420.41	79.7937	420.41	78.4812	420.41	80.4471	420.41	79.4482	420.41	81.0646	420.41	80.3969	420.41	81.4365	420.41	81.1035	420.41	81.4597
435.059	86.4004	435.059	86.3446	435.059	86.2058	435.059	86.0723	435.059	85.7454	435.059	85.6333	435.059	85.0243	435.059	85.0867	435.059	84.0719	435.059	84.4885	435.059	82.9498	435.059	83.8751	435.059	81.7583	435.059	83.2542	435.059	80.6328	435.059	82.6105	435.059	79.7118	435.059	81.9275	435.059	79.0779	435.059	81.2216	435.059	78.7215	435.059	80.5846	435.059	78.5802	435.059	80.2006	435.059	78.6263	435.059	80.253	435.059	78.9115	435.059	80.7317	435.059	79.4975	435.059	81.4029	435.059	80.3233	435.059	81.9924	435.059	81.1925	435.059	82.3161	435.059	81.8935	435.059	82.2873
450.439	86.341	450.439	86.1885	450.439	86.2035	450.439	85.7923	450.439	85.754	450.439	85.2252	450.439	84.9938	450.439	84.5811	450.439	83.9512	450.439	83.9535	450.439	82.6931	450.439	83.3994	450.439	81.3417	450.439	82.9134	450.439	80.0793	450.439	82.437	450.439	79.102	450.439	81.8957	450.439	78.5094	450.439	81.2404	450.439	78.2419	450.439	80.4962	450.439	78.1729	450.439	79.8243	450.439	78.2592	450.439	79.5315	450.439	78.593	450.439	79.84	450.439	79.2728	450.439	80.5901	450.439	80.2068	450.439	81.3915	450.439	81.1342	450.439	81.9414	450.439	81.8098	450.439	82.0936
466.553	86.3592	466.553	86.0966	466.553	86.3144	466.553	85.5731	466.553	85.9388	466.553	84.8651	466.553	85.2269	466.553	84.081	466.553	84.1916	466.553	83.3419	466.553	82.8708	466.553	82.7355	466.553	81.3432	466.553	82.272	466.553	79.7537	466.553	81.8874	466.553	78.329	466.553	81.4896	466.553	77.3274	466.553	81.0098	466.553	76.8906	466.553	80.4435	466.553	76.9517	466.553	79.8928	466.553	77.3481	466.553	79.5755	466.553	77.9691	466.553	79.6898	466.553	78.7579	466.553	80.1854	466.553	79.6295	466.553	80.7825	466.553	80.4399	466.553	81.2063	466.553	81.0348	466.553	81.3041
482.666	86.5996	482.666	86.3767	482.666	86.4717	482.666	85.8275	482.666	85.9879	482.666	85.0058	482.666	85.1592	482.666	84.0098	482.666	84.0154	482.666	82.9921	482.666	82.6133	482.666	82.1327	482.666	81.0491	482.666	81.5524	482.666	79.4693	482.666	81.2304	482.666	78.0553	482.666	81.0301	482.666	76.964	482.666	80.7993	482.666	76.263	482.666	80.4492	482.666	75.9652	482.666	80.0023	482.666	76.138	482.666	79.6279	482.666	76.872	482.666	79.5873	482.666	78.0587	482.666	79.9895	482.666	79.3617	482.666	80.6265	482.666	80.4539	482.666	81.1683	482.666	81.1483	482.666	81.3794
500.244	86.299	500.244	86.052	500.244	86.2128	500.244	85.5007	500.244	85.7776	500.244	84.6934	500.244	84.9882	500.244	83.706	500.244	83.8519	500.244	82.6488	500.244	82.3954	500.244	81.6568	500.244	80.6813	500.244	80.8498	500.244	78.8364	500.244	80.276	500.244	77.0853	500.244	79.8929	500.244	75.7371	500.244	79.6158	500.244	75.0462	500.244	79.394	500.244	75.0461	500.244	79.2615	500.244	75.6078	500.244	79.3261	500.244	76.5901	500.244	79.6685	500.244	77.8298	500.244	80.2252	500.244	79.102	500.244	80.8026	500.244	80.1837	500.244	81.1953	500.244	80.9247	500.244	81.2598
517.822	86.2308	517.822	86.1203	517.822	85.9726	517.822	85.6681	517.822	85.3383	517.822	84.9214	517.822	84.3453	517.822	83.953	517.822	83.0507	517.822	82.8667	517.822	81.5727	517.822	81.7958	517.822	80.0973	517.822	80.8793	517.822	78.8229	517.822	80.2098	517.822	77.8366	517.822	79.7838	517.822	77.0546	517.822	79.5114	517.822	76.3201	517.822	79.2861	517.822	75.593	517.822	79.0665	517.822	75.1868	517.822	78.9306	517.822	75.7194	517.822	79.0492	517.822	77.2025	517.822	79.52	517.822	78.8809	517.822	80.2067	517.822	80.1877	517.822	80.8246	517.822	80.9357	517.822	81.1209
536.133	86.629	536.133	86.4845	536.133	86.3491	536.133	85.96	536.133	85.6112	536.133	85.1145	536.133	84.3942	536.133	84.0308	536.133	82.7062	536.133	82.8259	536.133	80.6385	536.133	81.6524	536.133	78.4877	536.133	80.6688	536.133	76.8306	536.133	79.966	536.133	76.0774	536.133	79.5096	536.133	75.9127	536.133	79.1746	536.133	75.7887	536.133	78.8512	536.133	75.4678	536.133	78.549	536.133	75.1348	536.133	78.4505	536.133	75.4322	536.133	78.7999	536.133	76.7776	536.133	79.5964	536.133	78.5882	536.133	80.5206	536.133	80.1328	536.133	81.2146	536.133	81.1042	536.133	81.449
554.443	86.2863	554.443	86.1895	554.443	85.9827	554.443	85.7251	554.443	85.2555	554.443	84.942	554.443	84.0872	554.443	83.9121	554.443	82.4674	554.443	82.7379	554.443	80.4136	554.443	81.5541	554.443	78.0431	554.443	80.5154	554.443	75.7384	554.443	79.7523	554.443	74.196	554.443	79.3057	554.443	73.7386	554.443	79.0977	554.443	73.8514	554.443	78.9838	554.443	73.9883	554.443	78.8483	554.443	74.0303	554.443	78.6841	554.443	74.2832	554.443	78.6197	554.443	75.219	554.443	78.8183	554.443	76.7516	554.443	79.2568	554.443	78.2641	554.443	79.6725	554.443	79.31	554.443	79.7581
574.219	87.0956	574.219	86.9359	574.219	86.8217	574.219	86.3736	574.219	86.092	574.219	85.4564	574.219	84.8874	574.219	84.258	574.219	83.1882	574.219	82.8899	574.219	80.9795	574.219	81.5074	574.219	78.2957	574.219	80.2885	574.219	75.3896	574.219	79.3634	574.219	73.063	574.219	78.7349	574.219	72.2102	574.219	78.2901	574.219	72.3785	574.219	77.9145	574.219	72.6779	574.219	77.6247	574.219	72.9475	574.219	77.6348	574.219	73.7099	574.219	78.1948	574.219	75.4496	574.219	79.2219	574.219	77.6577	574.219	80.3061	574.219	79.5486	574.219	81.0606	574.219	80.7687	574.219	81.2555
594.727	87.2686	594.727	87.1318	594.727	86.9383	594.727	86.5637	594.727	86.1172	594.727	85.611	594.727	84.8004	594.727	84.335	594.727	83.0154	594.727	82.8278	594.727	80.8472	594.727	81.2408	594.727	78.4702	594.727	79.8033	594.727	76.1466	594.727	78.7528	594.727	74.125	594.727	78.1464	594.727	72.5079	594.727	77.7859	594.727	71.3104	594.727	77.4087	594.727	70.6923	594.727	76.9349	594.727	71.0952	594.727	76.6575	594.727	72.798	594.727	77.1365	594.727	75.2595	594.727	78.4074	594.727	77.6628	594.727	79.813	594.727	79.5378	594.727	80.7976	594.727	80.7063	594.727	81.1217
615.234	87.1531	615.234	86.9748	615.234	86.8684	615.234	86.39	615.234	86.0725	615.234	85.4644	615.234	84.7281	615.234	84.2772	615.234	82.8187	615.234	82.9286	615.234	80.3829	615.234	81.5505	615.234	77.6135	615.234	80.3076	615.234	75.0588	615.234	79.3585	615.234	73.5434	615.234	78.7587	615.234	73.1798	615.234	78.3907	615.234	73.2106	615.234	78.0216	615.234	73.0014	615.234	77.4336	615.234	72.2394	615.234	76.5701	615.234	71.0767	615.234	75.7827	615.234	71.257	615.234	75.8965	615.234	73.9326	615.234	77.0545	615.234	76.6952	615.234	78.2893	615.234	78.352	615.234	78.832
637.207	87.6975	637.207	87.4282	637.207	87.4997	637.207	86.7275	637.207	86.7979	637.207	85.6324	637.207	85.552	637.207	84.1875	637.207	83.7156	637.207	82.4644	637.207	81.2329	637.207	80.6071	637.207	78.0687	637.207	78.9072	637.207	74.4731	637.207	77.7931	637.207	71.9765	637.207	77.4905	637.207	72.2491	637.207	77.7106	637.207	73.4721	637.207	77.9655	637.207	74.1993	637.207	77.9335	637.207	74.2127	637.207	77.5473	637.207	73.8537	637.207	77.1056	637.207	74.3478	637.207	77.2943	637.207	76.3661	637.207	78.3482	637.207	78.5325	637.207	79.5424	637.207	79.857	637.207	80.1574
659.912	87.022	659.912	86.803	659.912	86.8082	659.912	86.1813	659.912	86.1438	659.912	85.2039	659.912	85.0159	659.912	83.9336	659.912	83.4093	659.912	82.4466	659.912	81.3073	659.912	80.83	659.912	78.7158	659.912	79.1871	659.912	75.7637	659.912	77.6548	659.912	73.0061	659.912	76.4235	659.912	71.6112	659.912	75.7006	659.912	71.8777	659.912	75.5437	659.912	72.6674	659.912	75.72	659.912	73.2074	659.912	75.861	659.912	73.3973	659.912	75.7694	659.912	73.6426	659.912	75.6449	659.912	74.5469	659.912	75.9635	659.912	75.9257	659.912	76.7032	659.912	76.9656	659.912	77.2067
683.35	87.1547	683.35	86.9349	683.35	86.8972	683.35	86.2717	683.35	86.1404	683.35	85.2074	683.35	84.8757	683.35	83.7911	683.35	83.1049	683.35	82.0894	683.35	80.8308	683.35	80.2195	683.35	78.0493	683.35	78.4017	683.35	74.8225	683.35	76.9472	683.35	71.7617	683.35	76.0521	683.35	70.6158	683.35	75.62	683.35	71.3862	683.35	75.4725	683.35	72.1419	683.35	75.5546	683.35	72.1816	683.35	75.813	683.35	71.7725	683.35	76.144	683.35	72.0787	683.35	76.5858	683.35	73.9586	683.35	77.256	683.35	76.2034	683.35	77.9655	683.35	77.7112	683.35	78.2464
706.787	87.1357	706.787	86.8055	706.787	86.9869	706.787	86.0403	706.787	86.3311	706.787	84.8979	706.787	85.1534	706.787	83.4477	706.787	83.4482	706.787	81.7725	706.787	81.2297	706.787	79.9809	706.787	78.587	706.787	78.2347	706.787	75.8002	706.787	76.7617	706.787	73.395	706.787	75.7623	706.787	71.9151	706.787	75.2395	706.787	71.5975	706.787	75.0426	706.787	72.095	706.787	75.072	706.787	72.6751	706.787	75.2711	706.787	72.9631	706.787	75.5642	706.787	73.3325	706.787	76.0082	706.787	74.5504	706.787	76.7547	706.787	76.3209	706.787	77.6094	706.787	77.637	706.787	78.0415
731.689	86.7812	731.689	86.3922	731.689	86.718	731.689	85.5811	731.689	86.1955	731.689	84.4051	731.689	85.2162	731.689	82.9518	731.689	83.7669	731.689	81.3424	731.689	81.798	731.689	79.7301	731.689	79.2709	731.689	78.2786	731.689	76.4044	731.689	77.0909	731.689	74.1392	731.689	76.1127	731.689	73.3661	731.689	75.1721	731.689	73.3365	731.689	74.2914	731.689	73.2809	731.689	73.9774	731.689	73.2139	731.689	74.5032	731.689	73.4141	731.689	75.1794	731.689	74.1967	731.689	75.5305	731.689	75.6077	731.689	75.9752	731.689	77.0794	731.689	76.9305	731.689	77.9199	731.689	77.8139
758.057	86.5791	758.057	86.3418	758.057	86.3579	758.057	85.6368	758.057	85.6919	758.057	84.4683	758.057	84.5912	758.057	82.8652	758.057	83.0497	758.057	80.899	758.057	81.0337	758.057	78.7208	758.057	78.5016	758.057	76.6599	758.057	75.5563	758.057	75.2928	758.057	72.9681	758.057	74.89	758.057	72.1487	758.057	74.8063	758.057	72.614	758.057	74.3068	758.057	72.8562	758.057	73.455	758.057	72.3887	758.057	73.4213	758.057	71.5331	758.057	74.7117	758.057	71.4698	758.057	76.0783	758.057	73.0943	758.057	76.8651	758.057	75.1998	758.057	77.1954	758.057	76.6222	758.057	77.1914
784.424	86.2582	784.424	85.9182	784.424	86.1266	784.424	85.124	784.424	85.5404	784.424	83.9279	784.424	84.5543	784.424	82.4189	784.424	83.2417	784.424	80.7072	784.424	81.6252	784.424	78.8844	784.424	79.6081	784.424	77.038	784.424	77.0221	784.424	75.4565	784.424	73.936	784.424	74.6452	784.424	71.6349	784.424	74.507	784.424	71.9043	784.424	74.383	784.424	73.0467	784.424	74.1157	784.424	73.4045	784.424	74.0397	784.424	72.8521	784.424	74.2539	784.424	72.5169	784.424	74.7203	784.424	73.9633	784.424	75.6609	784.424	76.0737	784.424	76.8601	784.424	77.3942	784.424	77.6048
812.256	86.2942	812.256	85.8427	812.256	86.1953	812.256	84.9107	812.256	85.5464	812.256	83.647	812.256	84.4271	812.256	82.2628	812.256	83.006	812.256	80.9324	812.256	81.4738	812.256	79.6541	812.256	79.886	812.256	78.2475	812.256	78.1166	812.256	76.5652	812.256	76.0302	812.256	74.8148	812.256	73.7546	812.256	73.6061	812.256	72.0092	812.256	73.0148	812.256	71.6207	812.256	72.3479	812.256	72.1188	812.256	71.8504	812.256	72.7947	812.256	73.0579	812.256	73.7217	812.256	75.1862	812.256	75.0192	812.256	76.6279	812.256	76.2782	812.256	77.2134	812.256	77.0511	812.256	77.3083
840.82	85.8549	840.82	85.4052	840.82	85.7833	840.82	84.4965	840.82	85.196	840.82	83.2676	840.82	84.1445	840.82	81.8907	840.82	82.7001	840.82	80.4877	840.82	80.9109	840.82	79.125	840.82	78.8322	840.82	77.9525	840.82	76.7858	840.82	77.2203	840.82	75.4637	840.82	76.8896	840.82	75.0269	840.82	76.4878	840.82	74.8571	840.82	75.6075	840.82	74.4409	840.82	74.2579	840.82	73.4474	840.82	72.7927	840.82	71.8027	840.82	71.7496	840.82	70.5737	840.82	72.0553	840.82	71.7246	840.82	73.5581	840.82	73.8187	840.82	74.8678	840.82	75.1082	840.82	75.4125
870.85	86.3479	870.85	85.9163	870.85	86.1503	870.85	84.9592	870.85	85.3443	870.85	83.6743	870.85	84.0841	870.85	82.2567	870.85	82.6262	870.85	80.7688	870.85	81.1584	870.85	79.1189	870.85	79.589	870.85	77.2968	870.85	77.6799	870.85	75.9087	870.85	75.5043	870.85	75.8974	870.85	73.9815	870.85	76.5379	870.85	74.0718	870.85	76.3975	870.85	74.835	870.85	74.8313	870.85	75.105	870.85	72.6663	870.85	74.652	870.85	73.4466	870.85	74.1384	870.85	75.6152	870.85	74.867	870.85	76.546	870.85	76.3385	870.85	76.5862	870.85	77.0141	870.85	76.7844
901.611	85.7914	901.611	85.268	901.611	85.7621	901.611	84.3423	901.611	85.1082	901.611	83.2095	901.611	83.8624	901.611	82.0182	901.611	82.2517	901.611	80.7739	901.611	80.7019	901.611	79.3245	901.611	79.3871	901.611	77.4755	901.611	77.9136	901.611	75.2565	901.611	75.9161	901.611	73.4782	901.611	73.8801	901.611	73.4731	901.611	73.2429	901.611	74.481	901.611	73.7416	901.611	74.7684	901.611	73.8656	901.611	73.4728	901.611	73.1654	901.611	71.4099	901.611	72.4021	901.611	72.8632	901.611	72.9659	901.611	75.3716	901.611	73.9818	901.611	76.0712	901.611	74.5431	901.611	75.3608
933.105	85.8379	933.105	85.241	933.105	85.9254	933.105	84.3627	933.105	85.3063	933.105	83.3123	933.105	83.9368	933.105	82.1115	933.105	82.0785	933.105	80.8234	933.105	80.4339	933.105	79.4295	933.105	79.3757	933.105	77.638	933.105	78.2025	933.105	75.1205	933.105	76.3292	933.105	72.7357	933.105	74.2865	933.105	73.1524	933.105	73.8425	933.105	74.6222	933.105	74.9122	933.105	74.6667	933.105	75.4487	933.105	72.7402	933.105	74.5052	933.105	70.4175	933.105	72.876	933.105	72.4383	933.105	73.6226	933.105	74.8021	933.105	75.0828	933.105	75.4204	933.105	75.2771	933.105	75.1922
966.064	85.9639	966.064	85.6847	966.064	86.0314	966.064	85.0697	966.064	85.703	966.064	83.9226	966.064	84.6411	966.064	82.2018	966.064	82.7604	966.064	80.0966	966.064	80.6639	966.064	78.0704	966.064	79.3076	966.064	76.5885	966.064	78.351	966.064	75.4541	966.064	77.0035	966.064	74.0176	966.064	75.4308	966.064	72.2938	966.064	74.3417	966.064	72.0061	966.064	74.16	966.064	73.3232	966.064	74.4731	966.064	73.6642	966.064	74.1769	966.064	71.7737	966.064	73.0178	966.064	70.2705	966.064	72.7992	966.064	73.7231	966.064	73.5822	966.064	75.806	966.064	74.2563	966.064	75.475
999.756	86.3668	999.756	86.2975	999.756	86.2006	999.756	85.7624	999.756	85.9134	999.756	84.6421	999.756	85.2468	999.756	82.9671	999.756	83.856	999.756	80.9155	999.756	81.9364	999.756	78.7318	999.756	80.3802	999.756	76.553	999.756	79.3642	999.756	74.3673	999.756	78.0434	999.756	72.5352	999.756	76.2065	999.756	72.3854	999.756	74.7739	999.756	74.0762	999.756	75.148	999.756	75.5191	999.756	75.9831	999.756	75.1709	999.756	75.1628	999.756	72.7024	999.756	72.5058	999.756	71.7655	999.756	71.872	999.756	74.0781	999.756	73.9247	999.756	75.128	999.756	74.9316	999.756	75.1385
1,034.91	85.9387	1,034.91	86.0113	1,034.91	85.688	1,034.91	85.5521	1,034.91	85.4286	1,034.91	84.3477	1,034.91	84.8307	1,034.91	82.4598	1,034.91	83.3454	1,034.91	80.2961	1,034.91	81.0636	1,034.91	78.4943	1,034.91	79.5913	1,034.91	77.3061	1,034.91	79.2182	1,034.91	76.0174	1,034.91	78.0325	1,034.91	73.2121	1,034.91	76.2451	1,034.91	66.7266	1,034.91	75.7654	1,034.91	66.46	1,034.91	75.9509	1,034.91	72.7096	1,034.91	75.9896	1,034.91	74.7282	1,034.91	75.5857	1,034.91	73.5904	1,034.91	74.0577	1,034.91	70.1828	1,034.91	72.766	1,034.91	72.4774	1,034.91	73.1089	1,034.91	75.2924	1,034.91	73.386	1,034.91	74.8838
1,071.53	85.5525	1,071.53	85.7055	1,071.53	85.0582	1,071.53	85.1585	1,071.53	84.5656	1,071.53	83.7968	1,071.53	84.0956	1,071.53	81.9441	1,071.53	83.3028	1,071.53	80.2882	1,071.53	81.9048	1,071.53	79.225	1,071.53	80.1421	1,071.53	78.4127	1,071.53	78.6553	1,071.53	77.3311	1,071.53	77.4177	1,071.53	75.8163	1,071.53	75.7698	1,071.53	73.744	1,071.53	74.0356	1,071.53	70.7883	1,071.53	74.1479	1,071.53	69.3624	1,071.53	75.5038	1,071.53	71.7774	1,071.53	75.8289	1,071.53	72.8676	1,071.53	73.9622	1,071.53	72.07	1,071.53	70.8709	1,071.53	73.139	1,071.53	71.0886	1,071.53	74.9533	1,071.53	72.0739	1,071.53	74.2144
1,109.62	85.3563	1,109.62	85.658	1,109.62	84.6078	1,109.62	85.0717	1,109.62	84.1411	1,109.62	83.6911	1,109.62	84.039	1,109.62	81.9521	1,109.62	83.4981	1,109.62	80.2131	1,109.62	81.8826	1,109.62	78.6338	1,109.62	79.7876	1,109.62	77.3831	1,109.62	78.8464	1,109.62	76.5932	1,109.62	78.0797	1,109.62	75.9985	1,109.62	75.795	1,109.62	74.9804	1,109.62	72.8496	1,109.62	73.2983	1,109.62	72.0313	1,109.62	71.6801	1,109.62	73.5347	1,109.62	71.658	1,109.62	75.5498	1,109.62	72.7512	1,109.62	75.7892	1,109.62	72.7965	1,109.62	73.8111	1,109.62	73.0291	1,109.62	71.3284	1,109.62	74.266	1,109.62	70.0525	1,109.62	73.039
1,148.44	85.3194	1,148.44	85.5496	1,148.44	84.5071	1,148.44	85.0247	1,148.44	83.8061	1,148.44	83.9046	1,148.44	83.5791	1,148.44	82.3581	1,148.44	83.1674	1,148.44	80.5392	1,148.44	81.8993	1,148.44	78.6751	1,148.44	79.8905	1,148.44	76.8444	1,148.44	78.1742	1,148.44	75.1779	1,148.44	76.9414	1,148.44	74.9621	1,148.44	74.9314	1,148.44	75.8986	1,148.44	72.5315	1,148.44	75.485	1,148.44	73.0586	1,148.44	73.1576	1,148.44	75.2636	1,148.44	72.2621	1,148.44	75.9324	1,148.44	72.5821	1,148.44	74.1258	1,148.44	71.3933	1,148.44	71.7921	1,148.44	71.2402	1,148.44	69.5151	1,148.44	72.7756	1,148.44	68.6369	1,148.44	72.2953
1,189.45	85.989	1,189.45	86.0381	1,189.45	84.9024	1,189.45	85.1587	1,189.45	83.6293	1,189.45	83.7573	1,189.45	83.4132	1,189.45	82.176	1,189.45	83.4085	1,189.45	80.6256	1,189.45	82.4083	1,189.45	79.1546	1,189.45	80.346	1,189.45	77.4972	1,189.45	78.2775	1,189.45	75.2509	1,189.45	77.2317	1,189.45	73.2591	1,189.45	75.6079	1,189.45	73.6384	1,189.45	71.9732	1,189.45	74.4031	1,189.45	69.3025	1,189.45	74.4176	1,189.45	71.2601	1,189.45	74.0493	1,189.45	73.1626	1,189.45	72.4992	1,189.45	73.2427	1,189.45	72.3411	1,189.45	70.732	1,189.45	73.7179	1,189.45	65.6038	1,189.45	74.0128	1,189.45	69.8032	1,189.45	73.5495
1,231.2	86.1354	1,231.2	86.3097	1,231.2	85.1739	1,231.2	85.5175	1,231.2	83.8104	1,231.2	83.9035	1,231.2	82.8412	1,231.2	81.9255	1,231.2	82.5698	1,231.2	79.9988	1,231.2	81.8584	1,231.2	78.3783	1,231.2	80.1437	1,231.2	77.3411	1,231.2	78.384	1,231.2	76.196	1,231.2	77.3925	1,231.2	73.3564	1,231.2	76.295	1,231.2	69.2925	1,231.2	74.3928	1,231.2	70.5798	1,231.2	71.2024	1,231.2	71.8027	1,231.2	71.4893	1,231.2	73.4773	1,231.2	74.4886	1,231.2	73.8291	1,231.2	72.8728	1,231.2	71.182	1,231.2	69.3142	1,231.2	71.8171	1,231.2	68.3933	1,231.2	74.1803	1,231.2	71.9339	1,231.2	74.5335
1,274.41	86.3867	1,274.41	86.6685	1,274.41	85.1331	1,274.41	85.7435	1,274.41	83.6794	1,274.41	83.9524	1,274.41	82.7287	1,274.41	81.9511	1,274.41	82.4048	1,274.41	80.1586	1,274.41	82.0233	1,274.41	78.437	1,274.41	80.509	1,274.41	76.771	1,274.41	77.7961	1,274.41	75.7796	1,274.41	75.8327	1,274.41	75.2814	1,274.41	74.6559	1,274.41	74.4838	1,274.41	72.7834	1,274.41	73.6013	1,274.41	71.9554	1,274.41	71.691	1,274.41	72.0502	1,274.41	70.9138	1,274.41	72.5237	1,274.41	72.2294	1,274.41	70.9067	1,274.41	70.0464	1,274.41	66.7581	1,274.41	71.4404	1,274.41	66.7892	1,274.41	74.043	1,274.41	70.1137	1,274.41	72.9996
1,319.82	86.0094	1,319.82	86.3604	1,319.82	84.8826	1,319.82	85.7098	1,319.82	83.6431	1,319.82	84.3141	1,319.82	82.8596	1,319.82	82.5689	1,319.82	82.5338	1,319.82	80.6803	1,319.82	81.9938	1,319.82	78.9142	1,319.82	80.3683	1,319.82	77.6807	1,319.82	77.7496	1,319.82	76.5978	1,319.82	76.1961	1,319.82	73.9958	1,319.82	75.4933	1,319.82	69.1465	1,319.82	73.7351	1,319.82	70.8025	1,319.82	71.3165	1,319.82	71.5225	1,319.82	70.8264	1,319.82	69.9889	1,319.82	74.4519	1,319.82	72.3571	1,319.82	74.2986	1,319.82	71.9136	1,319.82	69.2037	1,319.82	71.2955	1,319.82	65.4578	1,319.82	73.8441	1,319.82	67.8157	1,319.82	73.0629
1,365.97	85.2824	1,365.97	85.8463	1,365.97	84.1434	1,365.97	85.3301	1,365.97	83.251	1,365.97	83.9875	1,365.97	82.5221	1,365.97	82.2782	1,365.97	81.6839	1,365.97	80.3154	1,365.97	81.1545	1,365.97	78.3243	1,365.97	80.5742	1,365.97	76.9704	1,365.97	78.6386	1,365.97	77.056	1,365.97	75.3959	1,365.97	77.3086	1,365.97	74.1588	1,365.97	75.6096	1,365.97	73.4264	1,365.97	73.1071	1,365.97	70.257	1,365.97	71.8275	1,365.97	69.9757	1,365.97	68.6071	1,365.97	72.7219	1,365.97	71.6072	1,365.97	70.5174	1,365.97	72.1428	1,365.97	63.277	1,365.97	70.268	1,365.97	60.344	1,365.97	73.5124	1,365.97	68.1415	1,365.97	73.714
1,414.31	85.2748	1,414.31	85.7514	1,414.31	83.6394	1,414.31	85.0769	1,414.31	82.5759	1,414.31	83.7323	1,414.31	82.7174	1,414.31	81.8009	1,414.31	82.1799	1,414.31	79.7146	1,414.31	81.2098	1,414.31	78.6099	1,414.31	80.4185	1,414.31	77.7723	1,414.31	78.5184	1,414.31	76.5954	1,414.31	75.4549	1,414.31	77.1178	1,414.31	75.368	1,414.31	76.5368	1,414.31	75.7275	1,414.31	73.5068	1,414.31	73.743	1,414.31	73.2826	1,414.31	67.8836	1,414.31	70.4803	1,414.31	69.3953	1,414.31	69.0092	1,414.31	71.5054	1,414.31	72.8628	1,414.31	65.1537	1,414.31	69.7906	1,414.31	57.5654	1,414.31	71.8284	1,414.31	66.5595	1,414.31	72.0085
1,464.11	85.7722	1,464.11	85.7005	1,464.11	84.1588	1,464.11	84.7674	1,464.11	82.0971	1,464.11	83.3471	1,464.11	82.2396	1,464.11	81.4601	1,464.11	82.1961	1,464.11	80.0486	1,464.11	81.2777	1,464.11	79.3841	1,464.11	79.9308	1,464.11	78.9156	1,464.11	77.6194	1,464.11	77.085	1,464.11	75.0686	1,464.11	74.1496	1,464.11	72.6971	1,464.11	73.7304	1,464.11	72.4716	1,464.11	74.0699	1,464.11	74.0479	1,464.11	74.7988	1,464.11	69.4301	1,464.11	73.8543	1,464.11	70.4237	1,464.11	70.4977	1,464.11	71.847	1,464.11	72.1719	1,464.11	61.7184	1,464.11	69.9649	1,464.11	53.1046	1,464.11	71.2546	1,464.11	61.869	1,464.11	71.3976
1,515.38	85.9907	1,515.38	85.9329	1,515.38	84.4417	1,515.38	84.4934	1,515.38	81.9968	1,515.38	82.6887	1,515.38	81.4449	1,515.38	81.6446	1,515.38	82.1172	1,515.38	80.8698	1,515.38	81.1908	1,515.38	79.243	1,515.38	79.0335	1,515.38	77.8595	1,515.38	77.1638	1,515.38	76.823	1,515.38	74.4621	1,515.38	73.5848	1,515.38	71.5747	1,515.38	70.2187	1,515.38	72.3196	1,515.38	70.7206	1,515.38	73.3701	1,515.38	72.7701	1,515.38	72.3216	1,515.38	74.537	1,515.38	69.3669	1,515.38	70.7548	1,515.38	68.7639	1,515.38	71.4435	1,515.38	63.8663	1,515.38	72.3465	1,515.38	55.198	1,515.38	71.5088	1,515.38	65.4434	1,515.38	71.7289
1,568.85	85.9537	1,568.85	85.8028	1,568.85	84.781	1,568.85	84.8137	1,568.85	82.2268	1,568.85	83.1123	1,568.85	81.0924	1,568.85	81.662	1,568.85	81.4289	1,568.85	81.0809	1,568.85	80.6895	1,568.85	79.7138	1,568.85	79.6219	1,568.85	76.6837	1,568.85	77.9325	1,568.85	74.8533	1,568.85	74.1084	1,568.85	75.1654	1,568.85	71.3726	1,568.85	74.5231	1,568.85	69.7057	1,568.85	71.1059	1,568.85	70.8011	1,568.85	69.276	1,568.85	72.82	1,568.85	73.1499	1,568.85	65.9002	1,568.85	70.9822	1,568.85	68.9723	1,568.85	70.33	1,568.85	64.1527	1,568.85	71.7959	1,568.85	49.1761	1,568.85	71.0235	1,568.85	66.6464	1,568.85	72.1436
1,624.51	85.3837	1,624.51	85.7318	1,624.51	84.4649	1,624.51	85.147	1,624.51	82.6377	1,624.51	83.3921	1,624.51	81.4543	1,624.51	82.2451	1,624.51	81.422	1,624.51	81.6162	1,624.51	80.6551	1,624.51	79.9344	1,624.51	79.4101	1,624.51	76.5518	1,624.51	78.149	1,624.51	74.3385	1,624.51	75.7792	1,624.51	74.1785	1,624.51	70.8577	1,624.51	72.292	1,624.51	67.6317	1,624.51	73.3309	1,624.51	72.01	1,624.51	71.614	1,624.51	71.9547	1,624.51	70.7775	1,624.51	66.1591	1,624.51	72.4118	1,624.51	70.2161	1,624.51	70.2095	1,624.51	67.071	1,624.51	71.2007	1,624.51	58.05	1,624.51	69.845	1,624.51	66.7477	1,624.51	71.3001
1,681.64	85.6176	1,681.64	85.6148	1,681.64	84.2736	1,681.64	84.3409	1,681.64	82.3121	1,681.64	83.6406	1,681.64	81.2902	1,681.64	83.3325	1,681.64	81.684	1,681.64	81.2958	1,681.64	81.6376	1,681.64	78.6775	1,681.64	80.5856	1,681.64	76.3439	1,681.64	78.6284	1,681.64	73.5501	1,681.64	76.2757	1,681.64	74.3477	1,681.64	74.2991	1,681.64	74.9434	1,681.64	71.1209	1,681.64	72.6675	1,681.64	70.9314	1,681.64	71.5931	1,681.64	72.8841	1,681.64	68.9576	1,681.64	70.1899	1,681.64	68.3976	1,681.64	71.5746	1,681.64	68.3858	1,681.64	66.7523	1,681.64	70.3851	1,681.64	53.7013	1,681.64	70.7042	1,681.64	67.5553	1,681.64	72.1082
1,740.97	85.9715	1,740.97	85.2736	1,740.97	84.4652	1,740.97	84.1874	1,740.97	81.896	1,740.97	83.9988	1,740.97	81.5989	1,740.97	82.9342	1,740.97	82.2439	1,740.97	80.8283	1,740.97	82.3335	1,740.97	79.7033	1,740.97	80.7565	1,740.97	79.2287	1,740.97	77.6031	1,740.97	76.562	1,740.97	75.3717	1,740.97	73.4612	1,740.97	73.235	1,740.97	72.51	1,740.97	68.6865	1,740.97	71.1646	1,740.97	69.274	1,740.97	72.8509	1,740.97	72.6951	1,740.97	70.7531	1,740.97	71.5216	1,740.97	69.169	1,740.97	68.8627	1,740.97	70.11	1,740.97	66.789	1,740.97	70.4528	1,740.97	57.7471	1,740.97	68.2587	1,740.97	63.386	1,740.97	70.9999
1,802.49	86.3544	1,802.49	85.5576	1,802.49	85.3771	1,802.49	84.3654	1,802.49	82.2772	1,802.49	83.5669	1,802.49	80.8587	1,802.49	82.7927	1,802.49	82.4376	1,802.49	81.0919	1,802.49	82.5275	1,802.49	78.4908	1,802.49	80.5089	1,802.49	77.6626	1,802.49	77.9771	1,802.49	76.7986	1,802.49	76.6673	1,802.49	73.2535	1,802.49	74.0688	1,802.49	70.865	1,802.49	71.7015	1,802.49	66.593	1,802.49	69.3014	1,802.49	70.7605	1,802.49	69.6497	1,802.49	71.0992	1,802.49	70.8287	1,802.49	67.0845	1,802.49	69.3697	1,802.49	68.2879	1,802.49	67.5923	1,802.49	71.2314	1,802.49	57.5039	1,802.49	70.7246	1,802.49	61.5506	1,802.49	70.3536
1,866.21	85.539	1,866.21	84.9026	1,866.21	85.2644	1,866.21	84.6579	1,866.21	83.135	1,866.21	84.1836	1,866.21	80.5583	1,866.21	82.7013	1,866.21	82.1778	1,866.21	81.3994	1,866.21	82.9576	1,866.21	79.4413	1,866.21	80.9002	1,866.21	75.4253	1,866.21	77.6361	1,866.21	72.578	1,866.21	76.0952	1,866.21	72.2551	1,866.21	76.7451	1,866.21	73.5651	1,866.21	74.7779	1,866.21	72.8606	1,866.21	69.9305	1,866.21	64.2482	1,866.21	72.382	1,866.21	70.7841	1,866.21	68.7263	1,866.21	71.7122	1,866.21	71.197	1,866.21	66.3313	1,866.21	67.9417	1,866.21	70.6833	1,866.21	56.9485	1,866.21	71.2451	1,866.21	65.1139	1,866.21	68.6435
1,932.13	84.7358	1,932.13	84.6285	1,932.13	84.6294	1,932.13	84.7345	1,932.13	83.4715	1,932.13	84.3282	1,932.13	81.8977	1,932.13	83.3863	1,932.13	82.2951	1,932.13	81.9362	1,932.13	82.8622	1,932.13	79.7315	1,932.13	81.5507	1,932.13	77.7267	1,932.13	78.3415	1,932.13	76.1292	1,932.13	74.3897	1,932.13	73.8239	1,932.13	74.1503	1,932.13	71.8343	1,932.13	74.4519	1,932.13	72.6711	1,932.13	70.2752	1,932.13	71.6149	1,932.13	72.0108	1,932.13	68.2157	1,932.13	70.8709	1,932.13	72.3296	1,932.13	72.5098	1,932.13	71.1753	1,932.13	70.7747	1,932.13	70.3603	1,932.13	47.2924	1,932.13	68.6021	1,932.13	62.9107	1,932.13	68.9095
2,000.24	85.5026	2,000.24	85.3524	2,000.24	85.0557	2,000.24	84.9173	2,000.24	83.6402	2,000.24	84.1684	2,000.24	82.0622	2,000.24	83.1861	2,000.24	82.2098	2,000.24	81.4883	2,000.24	82.705	2,000.24	79.2824	2,000.24	81.6995	2,000.24	77.6763	2,000.24	78.5449	2,000.24	76.4852	2,000.24	73.9242	2,000.24	74.9733	2,000.24	70.9828	2,000.24	73.36	2,000.24	72.4715	2,000.24	73.9487	2,000.24	71.8547	2,000.24	74.16	2,000.24	71.7261	2,000.24	70.0399	2,000.24	69.0263	2,000.24	69.4401	2,000.24	70.8354	2,000.24	70.8667	2,000.24	64.529	2,000.24	69.5365	2,000.24	61.8816	2,000.24	69.481	2,000.24	65.8064	2,000.24	69.0818
2,070.56	86.0898	2,070.56	85.9019	2,070.56	85.8463	2,070.56	85.214	2,070.56	84.173	2,070.56	84.3095	2,070.56	82.1214	2,070.56	83.5546	2,070.56	82.014	2,070.56	81.7924	2,070.56	82.4823	2,070.56	79.5214	2,070.56	81.3217	2,070.56	76.4375	2,070.56	78.1622	2,070.56	73.9976	2,070.56	74.5342	2,070.56	72.0701	2,070.56	72.1451	2,070.56	70.4725	2,070.56	73.4518	2,070.56	66.817	2,070.56	70.3155	2,070.56	68.5553	2,070.56	71.3682	2,070.56	73.6192	2,070.56	67.9055	2,070.56	70.13	2,070.56	69.4001	2,070.56	70.0422	2,070.56	63.1575	2,070.56	70.5343	2,070.56	62.8206	2,070.56	69.8881	2,070.56	64.7002	2,070.56	66.7392
2,143.8	85.5632	2,143.8	85.906	2,143.8	85.4789	2,143.8	85.5568	2,143.8	84.6861	2,143.8	84.7749	2,143.8	82.6806	2,143.8	82.839	2,143.8	82.4007	2,143.8	81.3863	2,143.8	82.68	2,143.8	80.7265	2,143.8	81.1811	2,143.8	78.5997	2,143.8	77.3485	2,143.8	75.2292	2,143.8	73.885	2,143.8	72.67	2,143.8	72.6385	2,143.8	69.6265	2,143.8	72.8398	2,143.8	71.1905	2,143.8	70.7277	2,143.8	68.7627	2,143.8	68.3573	2,143.8	66.338	2,143.8	68.1244	2,143.8	71.8078	2,143.8	66.6213	2,143.8	70.6987	2,143.8	56.809	2,143.8	68.3079	2,143.8	66.6022	2,143.8	70.0539	2,143.8	64.7372	2,143.8	67.8981
2,219.24	84.6924	2,219.24	85.0691	2,219.24	84.6412	2,219.24	85.094	2,219.24	84.9615	2,219.24	84.8756	2,219.24	83.1193	2,219.24	84.1153	2,219.24	82.4189	2,219.24	83.0599	2,219.24	82.6219	2,219.24	80.6395	2,219.24	80.7677	2,219.24	76.1855	2,219.24	78.3682	2,219.24	73.1871	2,219.24	73.664	2,219.24	72.5791	2,219.24	71.9583	2,219.24	69.6771	2,219.24	66.6884	2,219.24	71.8326	2,219.24	66.756	2,219.24	72.6006	2,219.24	70.072	2,219.24	68.1973	2,219.24	68.9962	2,219.24	67.9886	2,219.24	58.6452	2,219.24	69.6468	2,219.24	61.0295	2,219.24	67.5201	2,219.24	69.1059	2,219.24	70.1577	2,219.24	61.1203	2,219.24	63.9045
2,297.61	86.1203	2,297.61	85.8498	2,297.61	85.3205	2,297.61	85.4168	2,297.61	84.6165	2,297.61	84.9636	2,297.61	83.649	2,297.61	84.4654	2,297.61	82.8603	2,297.61	83.0478	2,297.61	82.9165	2,297.61	79.3334	2,297.61	82.0217	2,297.61	76.8794	2,297.61	80.1573	2,297.61	75.0054	2,297.61	75.4767	2,297.61	72.2204	2,297.61	67.5452	2,297.61	70.7627	2,297.61	67.078	2,297.61	70.3427	2,297.61	65.8909	2,297.61	72.7331	2,297.61	68.0363	2,297.61	72.2827	2,297.61	63.7458	2,297.61	69.7227	2,297.61	62.0405	2,297.61	70.4594	2,297.61	66.5509	2,297.61	70.0951	2,297.61	65.1646	2,297.61	68.2474	2,297.61	64.4796	2,297.61	68.1574
2,378.17	86.4251	2,378.17	86.5104	2,378.17	86.6184	2,378.17	86.2087	2,378.17	85.4773	2,378.17	84.8124	2,378.17	83.6526	2,378.17	84.2122	2,378.17	82.9809	2,378.17	82.4876	2,378.17	82.8092	2,378.17	79.9164	2,378.17	81.5906	2,378.17	78.2828	2,378.17	79.0304	2,378.17	75.9478	2,378.17	74.3703	2,378.17	71.9581	2,378.17	70.3293	2,378.17	69.246	2,378.17	68.6266	2,378.17	67.5822	2,378.17	70.3304	2,378.17	63.419	2,378.17	71.2845	2,378.17	69.8202	2,378.17	69.2207	2,378.17	69.4474	2,378.17	66.822	2,378.17	69.7373	2,378.17	65.5535	2,378.17	70.6898	2,378.17	60.2317	2,378.17	71.5059	2,378.17	57.7999	2,378.17	66.0843
2,462.4	85.5803	2,462.4	86.3401	2,462.4	85.5832	2,462.4	86.1149	2,462.4	86.0163	2,462.4	85.6647	2,462.4	84.4244	2,462.4	83.9191	2,462.4	82.5731	2,462.4	82.8414	2,462.4	82.5203	2,462.4	80.7853	2,462.4	81.4039	2,462.4	77.2932	2,462.4	78.1755	2,462.4	75.2521	2,462.4	72.0369	2,462.4	72.8844	2,462.4	68.9657	2,462.4	69.1971	2,462.4	70.651	2,462.4	68.7123	2,462.4	68.1915	2,462.4	68.4516	2,462.4	70.1041	2,462.4	68.4736	2,462.4	70.0155	2,462.4	68.8788	2,462.4	66.0166	2,462.4	69.3047	2,462.4	56.674	2,462.4	69.5863	2,462.4	66.2558	2,462.4	70.7846	2,462.4	61.4171	2,462.4	66.4008
2,548.83	85.7413	2,548.83	85.786	2,548.83	85.3074	2,548.83	85.8087	2,548.83	85.819	2,548.83	85.6603	2,548.83	84.9324	2,548.83	84.5095	2,548.83	82.66	2,548.83	82.2903	2,548.83	82.2728	2,548.83	79.8987	2,548.83	80.8906	2,548.83	77.7592	2,548.83	78.5892	2,548.83	74.0951	2,548.83	74.6121	2,548.83	71.4604	2,548.83	68.0356	2,548.83	70.0781	2,548.83	70.8728	2,548.83	69.5608	2,548.83	64.451	2,548.83	67.9433	2,548.83	68.6081	2,548.83	67.5084	2,548.83	68.4139	2,548.83	69.0924	2,548.83	63.3124	2,548.83	69.7259	2,548.83	62.7624	2,548.83	69.6494	2,548.83	66.4608	2,548.83	69.1217	2,548.83	55.6071	2,548.83	62.1948
2,638.92	86.01	2,638.92	85.9422	2,638.92	85.8342	2,638.92	85.5057	2,638.92	85.8012	2,638.92	85.3064	2,638.92	85.053	2,638.92	84.7924	2,638.92	82.9202	2,638.92	82.7169	2,638.92	81.946	2,638.92	80.5267	2,638.92	80.4755	2,638.92	78.6607	2,638.92	77.6274	2,638.92	75.1564	2,638.92	74.23	2,638.92	72.805	2,638.92	63.279	2,638.92	70.3429	2,638.92	70.5192	2,638.92	67.3342	2,638.92	69.8709	2,638.92	67.9261	2,638.92	68.9042	2,638.92	67.0443	2,638.92	68.4678	2,638.92	69.0537	2,638.92	65.591	2,638.92	69.3458	2,638.92	62.1659	2,638.92	69.4987	2,638.92	63.0726	2,638.92	69.0155	2,638.92	55.169	2,638.92	65.3758
2,731.93	85.9056	2,731.93	86.036	2,731.93	85.8786	2,731.93	85.6863	2,731.93	86.4439	2,731.93	85.2959	2,731.93	85.0244	2,731.93	84.0375	2,731.93	83.1749	2,731.93	82.7674	2,731.93	82.3049	2,731.93	79.7638	2,731.93	80.3633	2,731.93	76.9844	2,731.93	77.1653	2,731.93	74.574	2,731.93	74.3278	2,731.93	70.4076	2,731.93	67.2284	2,731.93	68.54	2,731.93	62.6025	2,731.93	66.1923	2,731.93	66.6277	2,731.93	67.6521	2,731.93	69.6828	2,731.93	66.3135	2,731.93	68.4175	2,731.93	68.4954	2,731.93	63.6559	2,731.93	68.7329	2,731.93	59.8257	2,731.93	69.4868	2,731.93	65.8749	2,731.93	68.8268	2,731.93	55.1496	2,731.93	64.2583
2,828.61	86.2798	2,828.61	85.7549	2,828.61	85.8392	2,828.61	85.9588	2,828.61	86.55	2,828.61	85.4154	2,828.61	85.4764	2,828.61	84.019	2,828.61	82.3554	2,828.61	82.2395	2,828.61	82.3923	2,828.61	80.3821	2,828.61	81.3014	2,828.61	77.0859	2,828.61	78.1837	2,828.61	73.9574	2,828.61	74.0969	2,828.61	71.8493	2,828.61	68.0451	2,828.61	71.2047	2,828.61	65.6109	2,828.61	67.055	2,828.61	67.1734	2,828.61	67.4923	2,828.61	68.4529	2,828.61	65.7914	2,828.61	68.2325	2,828.61	69.127	2,828.61	65.5576	2,828.61	68.4783	2,828.61	62.9059	2,828.61	69.2456	2,828.61	64.1192	2,828.61	67.8304	2,828.61	57.5581	2,828.61	66.4634
2,928.22	86.0894	2,928.22	85.3468	2,928.22	86.0372	2,928.22	85.6399	2,928.22	86.3456	2,928.22	85.2318	2,928.22	85.9834	2,928.22	83.9495	2,928.22	82.448	2,928.22	82.4852	2,928.22	81.7994	2,928.22	80.1316	2,928.22	81.6455	2,928.22	76.8698	2,928.22	79.5278	2,928.22	75.2104	2,928.22	74.4375	2,928.22	71.8727	2,928.22	67.0933	2,928.22	67.4424	2,928.22	68.578	2,928.22	65.7042	2,928.22	69.0302	2,928.22	64.0939	2,928.22	68.0363	2,928.22	63.8722	2,928.22	67.9332	2,928.22	66.297	2,928.22	65.0005	2,928.22	67.6741	2,928.22	58.3198	2,928.22	69.1987	2,928.22	65.0059	2,928.22	67.2433	2,928.22	56.1213	2,928.22	63.1334
3,031.49	85.8545	3,031.49	85.2149	3,031.49	85.9328	3,031.49	85.2888	3,031.49	85.9855	3,031.49	84.6865	3,031.49	85.7888	3,031.49	84.229	3,031.49	82.5314	3,031.49	82.1909	3,031.49	81.4278	3,031.49	79.0683	3,031.49	81.7321	3,031.49	77.7914	3,031.49	79.6255	3,031.49	73.106	3,031.49	75.6532	3,031.49	70.5006	3,031.49	70.1451	3,031.49	69.5939	3,031.49	69.9969	3,031.49	68.419	3,031.49	68.4073	3,031.49	65.4404	3,031.49	68.569	3,031.49	64.7214	3,031.49	65.8497	3,031.49	65.8741	3,031.49	63.6406	3,031.49	67.6032	3,031.49	58.8803	3,031.49	68.3704	3,031.49	65.9707	3,031.49	66.4772	3,031.49	51.6498	3,031.49	59.8728
3,138.43	86.1512	3,138.43	85.5545	3,138.43	86.3552	3,138.43	85.3762	3,138.43	85.6637	3,138.43	84.4001	3,138.43	85.4055	3,138.43	84.0623	3,138.43	82.2885	3,138.43	81.6565	3,138.43	81.3248	3,138.43	79.9235	3,138.43	82.0488	3,138.43	76.3582	3,138.43	79.6705	3,138.43	75.6208	3,138.43	76.1048	3,138.43	73.4342	3,138.43	73.6847	3,138.43	69.4928	3,138.43	72.1818	3,138.43	68.2448	3,138.43	69.6464	3,138.43	65.3649	3,138.43	67.1741	3,138.43	66.102	3,138.43	63.8594	3,138.43	65.4048	3,138.43	62.5611	3,138.43	67.1653	3,138.43	59.2698	3,138.43	67.6932	3,138.43	65.5793	3,138.43	67.5798	3,138.43	53.6461	3,138.43	59.116
3,249.02	85.8567	3,249.02	85.5255	3,249.02	86.6159	3,249.02	85.0041	3,249.02	85.617	3,249.02	84.8665	3,249.02	85.2818	3,249.02	83.3543	3,249.02	81.8879	3,249.02	81.7935	3,249.02	80.9725	3,249.02	79.5245	3,249.02	82.0744	3,249.02	77.7073	3,249.02	80.2811	3,249.02	74.0273	3,249.02	77.4379	3,249.02	66.6402	3,249.02	74.1599	3,249.02	65.9425	3,249.02	72.7771	3,249.02	65.5421	3,249.02	71.6365	3,249.02	64.0711	3,249.02	64.1259	3,249.02	63.5255	3,249.02	63.122	3,249.02	64.4987	3,249.02	62.2812	3,249.02	66.281	3,249.02	53.497	3,249.02	67.3549	3,249.02	63.7099	3,249.02	65.1028	3,249.02	57.2136	3,249.02	60.7131
3,363.28	85.7102	3,363.28	85.6399	3,363.28	86.3025	3,363.28	84.6802	3,363.28	85.4382	3,363.28	84.9349	3,363.28	85.4155	3,363.28	83.208	3,363.28	82.5911	3,363.28	81.8139	3,363.28	80.6101	3,363.28	78.7675	3,363.28	82.1574	3,363.28	76.0787	3,363.28	79.4942	3,363.28	71.9416	3,363.28	78.0635	3,363.28	71.4061	3,363.28	74.7319	3,363.28	68.5947	3,363.28	72.9871	3,363.28	65.1168	3,363.28	68.993	3,363.28	64.4447	3,363.28	65.1465	3,363.28	63.161	3,363.28	60.4533	3,363.28	63.3581	3,363.28	59.5816	3,363.28	66.0992	3,363.28	54.2396	3,363.28	66.9627	3,363.28	62.1395	3,363.28	64.7962	3,363.28	55.3164	3,363.28	57.81
3,481.93	86.3837	3,481.93	85.4606	3,481.93	85.9459	3,481.93	85.0345	3,481.93	84.9516	3,481.93	84.3636	3,481.93	84.9843	3,481.93	83.4157	3,481.93	83.4126	3,481.93	81.1164	3,481.93	79.9027	3,481.93	78.3726	3,481.93	82.0779	3,481.93	75.7445	3,481.93	79.6308	3,481.93	76.1395	3,481.93	77.3054	3,481.93	69.0577	3,481.93	72.5873	3,481.93	67.0624	3,481.93	70.0638	3,481.93	66.0368	3,481.93	66.411	3,481.93	61.9487	3,481.93	68.2453	3,481.93	63.2386	3,481.93	58.1334	3,481.93	62.1583	3,481.93	63.1179	3,481.93	64.6735	3,481.93	55.8776	3,481.93	66.6417	3,481.93	61.7154	3,481.93	64.6067	3,481.93	56.834	3,481.93	56.1264
3,604.98	86.254	3,604.98	85.8753	3,604.98	86.4681	3,604.98	84.851	3,604.98	84.5779	3,604.98	84.6205	3,604.98	84.0072	3,604.98	83.0395	3,604.98	83.3765	3,604.98	81.0808	3,604.98	80.5323	3,604.98	78.5006	3,604.98	82.0149	3,604.98	76.8936	3,604.98	78.9839	3,604.98	71.8469	3,604.98	73.043	3,604.98	70.2363	3,604.98	71.0864	3,604.98	67.9228	3,604.98	64.2877	3,604.98	64.5745	3,604.98	56.4673	3,604.98	63.1151	3,604.98	66.8388	3,604.98	62.7867	3,604.98	61.4209	3,604.98	64.4197	3,604.98	65.1775	3,604.98	64.4657	3,604.98	59.5072	3,604.98	65.9803	3,604.98	60.9144	3,604.98	63.7308	3,604.98	58.4942	3,604.98	57.6035
3,732.42	86.3242	3,732.42	85.7888	3,732.42	86.1341	3,732.42	85.1776	3,732.42	85.0336	3,732.42	84.224	3,732.42	83.5923	3,732.42	83.2222	3,732.42	83.091	3,732.42	80.6676	3,732.42	80.2024	3,732.42	78.6167	3,732.42	81.1634	3,732.42	75.0008	3,732.42	78.9016	3,732.42	74.0171	3,732.42	73.3196	3,732.42	70.5163	3,732.42	65.8805	3,732.42	64.9215	3,732.42	51.1454	3,732.42	65.3612	3,732.42	57.1514	3,732.42	61.2693	3,732.42	63.9801	3,732.42	61.4914	3,732.42	64.3895	3,732.42	60.2138	3,732.42	60.908	3,732.42	64.4119	3,732.42	57.072	3,732.42	66.087	3,732.42	60.0396	3,732.42	63.7192	3,732.42	58.8251	3,732.42	50.8008
3,863.53	86.7678	3,863.53	86.3249	3,863.53	86.0238	3,863.53	84.69	3,863.53	84.7778	3,863.53	84.1291	3,863.53	83.6587	3,863.53	83.0483	3,863.53	83.1489	3,863.53	80.9001	3,863.53	80.1648	3,863.53	77.5947	3,863.53	79.1998	3,863.53	75.2944	3,863.53	77.3771	3,863.53	72.5165	3,863.53	71.8819	3,863.53	66.7823	3,863.53	64.1658	3,863.53	66.5818	3,863.53	62.0797	3,863.53	64.7107	3,863.53	50.5614	3,863.53	63.0625	3,863.53	62.2182	3,863.53	57.7565	3,863.53	59.1724	3,863.53	57.4706	3,863.53	59.913	3,863.53	64.3051	3,863.53	55.27	3,863.53	64.9673	3,863.53	59.1726	3,863.53	63.1793	3,863.53	58.8198	3,863.53	56.4086
3,999.76	86.9821	3,999.76	86.4231	3,999.76	86.1448	3,999.76	85.2354	3,999.76	84.8646	3,999.76	83.9874	3,999.76	83.0937	3,999.76	82.78	3,999.76	82.0602	3,999.76	79.9632	3,999.76	79.7839	3,999.76	76.9864	3,999.76	79.004	3,999.76	74.0398	3,999.76	76.0843	3,999.76	70.188	3,999.76	67.2164	3,999.76	69.7031	3,999.76	60.8397	3,999.76	65.7139	3,999.76	63.3835	3,999.76	63.3532	3,999.76	61.7606	3,999.76	61.377	3,999.76	59.7191	3,999.76	62.4772	3,999.76	56.1229	3,999.76	58.1284	3,999.76	57.6335	3,999.76	60.3615	3,999.76	52.7667	3,999.76	64.2592	3,999.76	54.5297	3,999.76	62.0262	3,999.76	59.3589	3,999.76	52.8999
4,141.11	86.9874	4,141.11	86.4178	4,141.11	86.132	4,141.11	85.2127	4,141.11	85.0038	4,141.11	84.1236	4,141.11	83.1629	4,141.11	82.2098	4,141.11	81.936	4,141.11	79.723	4,141.11	77.9865	4,141.11	76.3259	4,141.11	78.2411	4,141.11	73.758	4,141.11	75.319	4,141.11	72.6512	4,141.11	66.8115	4,141.11	60.4743	4,141.11	63.1121	4,141.11	63.0678	4,141.11	62.6817	4,141.11	62.3802	4,141.11	62.6976	4,141.11	59.7912	4,141.11	62.7974	4,141.11	57.8224	4,141.11	54.613	4,141.11	60.1963	4,141.11	51.0357	4,141.11	59.8446	4,141.11	43.1811	4,141.11	63.7467	4,141.11	47.749	4,141.11	62.4596	4,141.11	54.8865	4,141.11	51.5585
4,286.87	87.5564	4,286.87	87.0593	4,286.87	86.5446	4,286.87	85.3325	4,286.87	85.2799	4,286.87	83.3759	4,286.87	83.0646	4,286.87	81.8679	4,286.87	81.4353	4,286.87	79.1508	4,286.87	77.5565	4,286.87	75.9631	4,286.87	76.8163	4,286.87	72.8016	4,286.87	73.3272	4,286.87	67.4229	4,286.87	68.3016	4,286.87	69.6303	4,286.87	68.6444	4,286.87	63.7474	4,286.87	52.0251	4,286.87	60.6568	4,286.87	57.1953	4,286.87	58.1431	4,286.87	62.181	4,286.87	56.4404	4,286.87	51.8045	4,286.87	58.6281	4,286.87	53.7742	4,286.87	59.3309	4,286.87	54.5952	4,286.87	61.7411	4,286.87	55.9466	4,286.87	60.1541	4,286.87	53.0222	4,286.87	35.2323
4,438.48	87.2261	4,438.48	86.7687	4,438.48	86.2252	4,438.48	85.5752	4,438.48	85.4989	4,438.48	83.423	4,438.48	83.2195	4,438.48	81.6721	4,438.48	81.2364	4,438.48	79.1129	4,438.48	76.87	4,438.48	75.0336	4,438.48	73.8028	4,438.48	71.8152	4,438.48	73.6583	4,438.48	69.4698	4,438.48	70.8012	4,438.48	62.2079	4,438.48	66.8455	4,438.48	59.3024	4,438.48	62.9913	4,438.48	61.3983	4,438.48	57.1758	4,438.48	58.936	4,438.48	58.7517	4,438.48	55.6868	4,438.48	56.0467	4,438.48	54.6989	4,438.48	51.845	4,438.48	58.9516	4,438.48	56.089	4,438.48	61.7922	4,438.48	53.5741	4,438.48	60.6004	4,438.48	55.8207	4,438.48	50.081
4,594.48	87.1641	4,594.48	86.6555	4,594.48	86.4873	4,594.48	84.9681	4,594.48	85.4556	4,594.48	83.3348	4,594.48	83.646	4,594.48	81.5665	4,594.48	80.87	4,594.48	78.8584	4,594.48	76.8371	4,594.48	75.7061	4,594.48	74.5289	4,594.48	71.5961	4,594.48	75.14	4,594.48	67.4327	4,594.48	74.1221	4,594.48	68.0645	4,594.48	66.1914	4,594.48	60.3049	4,594.48	59.8645	4,594.48	59.3774	4,594.48	64.0583	4,594.48	58.9846	4,594.48	48.8899	4,594.48	53.9775	4,594.48	55.4689	4,594.48	53.4588	4,594.48	53.4883	4,594.48	58.59	4,594.48	55.9814	4,594.48	61.1763	4,594.48	54.5837	4,594.48	58.063	4,594.48	49.1732	4,594.48	43.8321
4,757.08	87.452	4,757.08	87.1177	4,757.08	86.9505	4,757.08	85.4361	4,757.08	86.2561	4,757.08	83.2561	4,757.08	83.8736	4,757.08	81.0039	4,757.08	81.0278	4,757.08	78.4491	4,757.08	77.715	4,757.08	74.3333	4,757.08	73.2688	4,757.08	70.7786	4,757.08	74.704	4,757.08	67.9136	4,757.08	73.7201	4,757.08	63.6703	4,757.08	67.1949	4,757.08	62.8371	4,757.08	60.7835	4,757.08	61.1071	4,757.08	54.6865	4,757.08	54.3609	4,757.08	55.245	4,757.08	56.1219	4,757.08	57.3468	4,757.08	53.8603	4,757.08	54.7733	4,757.08	57.8874	4,757.08	55.0192	4,757.08	60.0197	4,757.08	54.09	4,757.08	59.2937	4,757.08	52.035	4,757.08	49.4458
4,924.8	87.8131	4,924.8	87.1677	4,924.8	87.2772	4,924.8	85.4884	4,924.8	86.4542	4,924.8	83.784	4,924.8	84.5571	4,924.8	81.1105	4,924.8	80.7231	4,924.8	78.0174	4,924.8	77.6925	4,924.8	73.9693	4,924.8	75.0248	4,924.8	70.9309	4,924.8	74.1308	4,924.8	68.9174	4,924.8	73.3371	4,924.8	66.3063	4,924.8	68.8593	4,924.8	59.0421	4,924.8	63.3833	4,924.8	59.9762	4,924.8	58.4508	4,924.8	60.4292	4,924.8	56.8787	4,924.8	52.2405	4,924.8	52.7506	4,924.8	50.137	4,924.8	44.102	4,924.8	59.2185	4,924.8	51.2691	4,924.8	60.9455	4,924.8	45.7819	4,924.8	58.0113	4,924.8	49.1751	4,924.8	44.0331
5,098.39	87.8819	5,098.39	87.2223	5,098.39	87.2444	5,098.39	85.7408	5,098.39	86.5292	5,098.39	83.44	5,098.39	84.6094	5,098.39	81.1573	5,098.39	80.9368	5,098.39	77.5274	5,098.39	75.9203	5,098.39	74.7721	5,098.39	75.1969	5,098.39	72.1552	5,098.39	75.9567	5,098.39	66.4592	5,098.39	73.5	5,098.39	65.2963	5,098.39	64.6106	5,098.39	62.1743	5,098.39	62.4275	5,098.39	59.9901	5,098.39	61.2131	5,098.39	54.8974	5,098.39	59.7656	5,098.39	55.3394	5,098.39	51.5587	5,098.39	52.9528	5,098.39	45.2625	5,098.39	57.4149	5,098.39	49.5367	5,098.39	59.558	5,098.39	50.5318	5,098.39	56.6334	5,098.39	53.5525	5,098.39	49.4997
5,277.83	87.4803	5,277.83	87.0934	5,277.83	87.318	5,277.83	85.7869	5,277.83	86.4311	5,277.83	83.6707	5,277.83	84.5057	5,277.83	81.1868	5,277.83	81.7048	5,277.83	77.7754	5,277.83	76.5972	5,277.83	74.8326	5,277.83	74.5896	5,277.83	70.9567	5,277.83	75.5146	5,277.83	68.6371	5,277.83	71.9999	5,277.83	65.8517	5,277.83	65.1083	5,277.83	62.2097	5,277.83	57.7146	5,277.83	60.3031	5,277.83	59.3491	5,277.83	60.1355	5,277.83	57.3697	5,277.83	55.4944	5,277.83	54.4595	5,277.83	53.2334	5,277.83	36.3964	5,277.83	57.6695	5,277.83	50.0054	5,277.83	60.1914	5,277.83	46.2356	5,277.83	58.4215	5,277.83	50.8759	5,277.83	44.5746
5,463.87	87.7394	5,463.87	87.2949	5,463.87	87.2066	5,463.87	85.6675	5,463.87	86.1814	5,463.87	83.7851	5,463.87	84.2759	5,463.87	80.8655	5,463.87	82.2187	5,463.87	78.2839	5,463.87	77.5899	5,463.87	73.7053	5,463.87	73.2741	5,463.87	72.8696	5,463.87	74.6295	5,463.87	68.3848	5,463.87	70.4943	5,463.87	67.6251	5,463.87	69.6322	5,463.87	61.6931	5,463.87	61.2569	5,463.87	61.8289	5,463.87	58.4267	5,463.87	60.0536	5,463.87	56.6806	5,463.87	54.2954	5,463.87	54.8974	5,463.87	53.6806	5,463.87	55.1898	5,463.87	55.896	5,463.87	54.1192	5,463.87	60.9924	5,463.87	41.5506	5,463.87	56.6946	5,463.87	52.7554	5,463.87	28.3866
5,656.49	87.0503	5,656.49	86.9234	5,656.49	87.0788	5,656.49	85.9924	5,656.49	85.8036	5,656.49	83.6758	5,656.49	83.9709	5,656.49	81.0142	5,656.49	82.2347	5,656.49	77.7825	5,656.49	77.4342	5,656.49	74.8916	5,656.49	70.4906	5,656.49	72.0022	5,656.49	71.7628	5,656.49	67.1023	5,656.49	70.0837	5,656.49	63.6284	5,656.49	69.4799	5,656.49	62.4414	5,656.49	62.1549	5,656.49	58.3098	5,656.49	58.8487	5,656.49	54.9277	5,656.49	55.642	5,656.49	52.5654	5,656.49	57.7764	5,656.49	54.4386	5,656.49	53.5441	5,656.49	56.1168	5,656.49	55.277	5,656.49	59.7717	5,656.49	46.2003	5,656.49	55.6278	5,656.49	48.7518	5,656.49	50.3218
5,856.45	86.9528	5,856.45	87.2799	5,856.45	86.9188	5,856.45	86.1451	5,856.45	85.8481	5,856.45	83.5389	5,856.45	83.6995	5,856.45	81.4418	5,856.45	82.0179	5,856.45	77.9685	5,856.45	77.2287	5,856.45	75.3507	5,856.45	70.0314	5,856.45	70.936	5,856.45	71.652	5,856.45	69.3627	5,856.45	71.3452	5,856.45	64.7858	5,856.45	68.2855	5,856.45	64.3025	5,856.45	56.3345	5,856.45	61.2106	5,856.45	51.5293	5,856.45	58.1151	5,856.45	47.4342	5,856.45	56.4162	5,856.45	53.0118	5,856.45	54.9083	5,856.45	55.249	5,856.45	54.7397	5,856.45	50.8374	5,856.45	59.9081	5,856.45	48.4136	5,856.45	54.4832	5,856.45	49.6622	5,856.45	49.7832
6,062.99	87.0934	6,062.99	87.083	6,062.99	87.0809	6,062.99	86.0669	6,062.99	85.5263	6,062.99	83.7262	6,062.99	83.3528	6,062.99	80.8251	6,062.99	82.3088	6,062.99	78.2103	6,062.99	78.0647	6,062.99	74.6351	6,062.99	72.6996	6,062.99	73.1988	6,062.99	72.6469	6,062.99	70.3323	6,062.99	70.083	6,062.99	67.7955	6,062.99	69.331	6,062.99	64.4366	6,062.99	63.8456	6,062.99	56.8091	6,062.99	52.1913	6,062.99	59.8259	6,062.99	49.1779	6,062.99	52.5512	6,062.99	57.3672	6,062.99	55.0294	6,062.99	54.3146	6,062.99	54.4211	6,062.99	53.7088	6,062.99	61.0491	6,062.99	43.3973	6,062.99	54.1204	6,062.99	53.0531	6,062.99	47.3109
6,276.86	87.2302	6,276.86	87.1457	6,276.86	87.3013	6,276.86	85.6893	6,276.86	85.605	6,276.86	83.603	6,276.86	83.6104	6,276.86	80.7958	6,276.86	81.8771	6,276.86	77.7257	6,276.86	79.3147	6,276.86	76.0223	6,276.86	75.0904	6,276.86	73.2318	6,276.86	73.8068	6,276.86	69.5412	6,276.86	71.1938	6,276.86	62.0168	6,276.86	65.8441	6,276.86	61.6313	6,276.86	65.9654	6,276.86	59.2617	6,276.86	59.3581	6,276.86	56.6568	6,276.86	55.1367	6,276.86	56.1303	6,276.86	60.5355	6,276.86	55.9314	6,276.86	54.8415	6,276.86	56.6439	6,276.86	51.885	6,276.86	60.8805	6,276.86	49.6347	6,276.86	50.8204	6,276.86	54.9729	6,276.86	48.8579
6,498.05	87.267	6,498.05	86.866	6,498.05	87.309	6,498.05	85.6277	6,498.05	85.9429	6,498.05	83.3173	6,498.05	83.1994	6,498.05	80.376	6,498.05	81.3966	6,498.05	77.4508	6,498.05	80.1212	6,498.05	76.4019	6,498.05	75.7539	6,498.05	71.7586	6,498.05	72.6628	6,498.05	70.0843	6,498.05	68.0612	6,498.05	64.8445	6,498.05	62.8974	6,498.05	62.0815	6,498.05	67.0461	6,498.05	58.8985	6,498.05	65.0399	6,498.05	59.8425	6,498.05	58.9149	6,498.05	57.7476	6,498.05	57.657	6,498.05	56.8618	6,498.05	53.5252	6,498.05	55.6976	6,498.05	55.921	6,498.05	60.7281	6,498.05	47.0176	6,498.05	52.1166	6,498.05	51.5736	6,498.05	45.8729
6,727.29	87.3753	6,727.29	86.8592	6,727.29	87.3402	6,727.29	85.5508	6,727.29	86.2855	6,727.29	83.223	6,727.29	83.4958	6,727.29	80.0956	6,727.29	80.6307	6,727.29	78.7046	6,727.29	79.664	6,727.29	76.1303	6,727.29	74.7849	6,727.29	73.3955	6,727.29	67.449	6,727.29	69.2452	6,727.29	63.3845	6,727.29	65.7398	6,727.29	62.6313	6,727.29	61.8131	6,727.29	62.9557	6,727.29	57.7666	6,727.29	62.5693	6,727.29	56.4432	6,727.29	52.24	6,727.29	60.4084	6,727.29	50.2013	6,727.29	56.7585	6,727.29	55.8201	6,727.29	55.3202	6,727.29	54.1117	6,727.29	60.7873	6,727.29	48.2459	6,727.29	50.0839	6,727.29	54.8404	6,727.29	49.214
6,964.6	87.2649	6,964.6	86.5838	6,964.6	86.9604	6,964.6	85.5517	6,964.6	86.1559	6,964.6	83.1926	6,964.6	83.7684	6,964.6	80.644	6,964.6	80.2631	6,964.6	78.614	6,964.6	78.4523	6,964.6	76.8373	6,964.6	74.3921	6,964.6	72.9027	6,964.6	68.9728	6,964.6	69.2084	6,964.6	70.4492	6,964.6	65.9971	6,964.6	67.0621	6,964.6	61.1409	6,964.6	55.4795	6,964.6	57.9321	6,964.6	64.8506	6,964.6	57.6693	6,964.6	60.0216	6,964.6	61.7659	6,964.6	50.3558	6,964.6	56.0231	6,964.6	45.2376	6,964.6	52.8086	6,964.6	46.8642	6,964.6	60.2621	6,964.6	41.8468	6,964.6	53.9004	6,964.6	53.0925	6,964.6	47.2213
7,209.96	86.535	7,209.96	86.2192	7,209.96	86.5628	7,209.96	85.3698	7,209.96	85.9352	7,209.96	83.2173	7,209.96	83.8592	7,209.96	80.7893	7,209.96	81.2311	7,209.96	78.8246	7,209.96	79.5401	7,209.96	77.004	7,209.96	75.3449	7,209.96	73.9091	7,209.96	72.49	7,209.96	70.204	7,209.96	73.9314	7,209.96	66.3781	7,209.96	69.3258	7,209.96	63.8065	7,209.96	55.1021	7,209.96	57.7573	7,209.96	61.1849	7,209.96	59.3741	7,209.96	60.6191	7,209.96	61.5218	7,209.96	49.6786	7,209.96	54.2265	7,209.96	55.7731	7,209.96	48.0792	7,209.96	53.1173	7,209.96	58.6594	7,209.96	36.0858	7,209.96	50.1619	7,209.96	50.1268	7,209.96	46.9901
7,464.11	86.07	7,464.11	85.638	7,464.11	85.8231	7,464.11	84.8185	7,464.11	85.2219	7,464.11	83.1361	7,464.11	83.3442	7,464.11	81.0587	7,464.11	81.2842	7,464.11	78.9501	7,464.11	80.1346	7,464.11	76.5843	7,464.11	76.9311	7,464.11	74.7732	7,464.11	75.2293	7,464.11	70.347	7,464.11	74.9005	7,464.11	66.6068	7,464.11	66.955	7,464.11	60.8882	7,464.11	61.5513	7,464.11	56.5066	7,464.11	58.1007	7,464.11	60.9994	7,464.11	52.6794	7,464.11	61.0086	7,464.11	48.0358	7,464.11	52.6575	7,464.11	54.4454	7,464.11	47.1875	7,464.11	54.2954	7,464.11	59.0692	7,464.11	49.603	7,464.11	52.4294	7,464.11	52.7451	7,464.11	51.5911
7,727.78	85.7658	7,727.78	85.1751	7,727.78	85.5139	7,727.78	84.3918	7,727.78	84.8304	7,727.78	82.953	7,727.78	82.9276	7,727.78	81.2566	7,727.78	80.5631	7,727.78	78.2968	7,727.78	79.6602	7,727.78	76.9695	7,727.78	77.9204	7,727.78	74.2513	7,727.78	75.4427	7,727.78	69.4763	7,727.78	72.5844	7,727.78	66.3707	7,727.78	64.8106	7,727.78	61.4182	7,727.78	63.4299	7,727.78	55.6234	7,727.78	53.9507	7,727.78	58.6408	7,727.78	52.6778	7,727.78	58.8155	7,727.78	51.4396	7,727.78	49.7736	7,727.78	56.8866	7,727.78	36.6477	7,727.78	52.1269	7,727.78	57.0222	7,727.78	46.0943	7,727.78	52.4075	7,727.78	48.757	7,727.78	48.9024
8,000.24	85.8441	8,000.24	85.5211	8,000.24	85.6156	8,000.24	84.0625	8,000.24	84.2567	8,000.24	82.5864	8,000.24	82.3567	8,000.24	80.7073	8,000.24	80.5963	8,000.24	78.5233	8,000.24	79.8569	8,000.24	76.9636	8,000.24	78.9517	8,000.24	74.0369	8,000.24	74.0194	8,000.24	68.9124	8,000.24	69.1345	8,000.24	65.7706	8,000.24	65.0686	8,000.24	61.824	8,000.24	63.0442	8,000.24	56.0252	8,000.24	61.3858	8,000.24	60.0882	8,000.24	48.2306	8,000.24	58.9034	8,000.24	49.9857	8,000.24	48.4	8,000.24	53.6746	8,000.24	43.3375	8,000.24	51.2403	8,000.24	58.8977	8,000.24	46.7765	8,000.24	55.2277	8,000.24	44.4639	8,000.24	51.5454
8,282.23	87.0111	8,282.23	86.1499	8,282.23	86.1252	8,282.23	83.8059	8,282.23	84.0773	8,282.23	81.8358	8,282.23	82.4287	8,282.23	79.9569	8,282.23	79.8766	8,282.23	77.7471	8,282.23	79.4993	8,282.23	76.3359	8,282.23	78.7733	8,282.23	73.1146	8,282.23	70.781	8,282.23	67.8239	8,282.23	64.3199	8,282.23	64.7558	8,282.23	62.3802	8,282.23	60.0126	8,282.23	57.5082	8,282.23	56.8386	8,282.23	58.6283	8,282.23	57.8867	8,282.23	47.1027	8,282.23	56.9209	8,282.23	49.9175	8,282.23	45.7751	8,282.23	52.7749	8,282.23	43.6778	8,282.23	46.2529	8,282.23	57.3923	8,282.23	49.8806	8,282.23	54.1998	8,282.23	45.5647	8,282.23	49.6523
8,574.46	87.5823	8,574.46	86.5041	8,574.46	86.857	8,574.46	83.9316	8,574.46	84.443	8,574.46	81.4255	8,574.46	82.5397	8,574.46	78.973	8,574.46	80.2511	8,574.46	76.6817	8,574.46	79.0354	8,574.46	75.1031	8,574.46	77.0859	8,574.46	71.0858	8,574.46	67.0482	8,574.46	66.2509	8,574.46	66.2089	8,574.46	60.662	8,574.46	61.2169	8,574.46	58.2915	8,574.46	56.5185	8,574.46	55.8573	8,574.46	61.1937	8,574.46	55.666	8,574.46	50.1217	8,574.46	55.7923	8,574.46	47.244	8,574.46	39.7555	8,574.46	47.5279	8,574.46	45.0967	8,574.46	50.3895	8,574.46	55.9065	8,574.46	40.7774	8,574.46	53.122	8,574.46	42.1814	8,574.46	49.4237
8,876.22	87.4882	8,876.22	86.3042	8,876.22	86.8595	8,876.22	84.11	8,876.22	84.6779	8,876.22	81.729	8,876.22	82.7112	8,876.22	79.3158	8,876.22	80.2428	8,876.22	76.2709	8,876.22	78.4918	8,876.22	74.2984	8,876.22	75.2953	8,876.22	70.4454	8,876.22	68.153	8,876.22	64.8105	8,876.22	70.3963	8,876.22	59.8094	8,876.22	58.3608	8,876.22	55.9784	8,876.22	52.5077	8,876.22	52.3952	8,876.22	62.8986	8,876.22	53.9217	8,876.22	55.3427	8,876.22	55.4777	8,876.22	35.0948	8,876.22	43.5595	8,876.22	44.5353	8,876.22	45.63	8,876.22	48.0231	8,876.22	55.1875	8,876.22	38.4608	8,876.22	51.8114	8,876.22	34.9959	8,876.22	48.9313
9,189.7	86.8599	9,189.7	85.5871	9,189.7	86.3268	9,189.7	84.181	9,189.7	84.3903	9,189.7	82.1552	9,189.7	82.4977	9,189.7	79.9445	9,189.7	80.4348	9,189.7	76.4599	9,189.7	78.4313	9,189.7	73.9012	9,189.7	74.7044	9,189.7	70.4603	9,189.7	70.9052	9,189.7	64.677	9,189.7	70.323	9,189.7	60.8983	9,189.7	61.2032	9,189.7	56.2233	9,189.7	52.0131	9,189.7	54.4571	9,189.7	63.1758	9,189.7	53.1234	9,189.7	54.7267	9,189.7	56.1027	9,189.7	41.2545	9,189.7	40.4079	9,189.7	50.3269	9,189.7	42.5301	9,189.7	49.2742	9,189.7	54.1026	9,189.7	44.847	9,189.7	51.5745	9,189.7	43.8941	9,189.7	49.4717
9,513.43	86.4524	9,513.43	85.295	9,513.43	85.8726	9,513.43	84.178	9,513.43	84.1807	9,513.43	82.2956	9,513.43	82.2772	9,513.43	80.3607	9,513.43	80.4504	9,513.43	76.4911	9,513.43	77.9428	9,513.43	73.6878	9,513.43	75.1719	9,513.43	70.4834	9,513.43	70.59	9,513.43	65.2036	9,513.43	68.8531	9,513.43	60.2379	9,513.43	59.0569	9,513.43	56.2096	9,513.43	58.8638	9,513.43	55.2995	9,513.43	61.2065	9,513.43	50.2014	9,513.43	55.8491	9,513.43	54.4727	9,513.43	49.3615	9,513.43	30.8489	9,513.43	50.7892	9,513.43	39.1364	9,513.43	47.2754	9,513.43	50.8251	9,513.43	47.449	9,513.43	48.63	9,513.43	40.2256	9,513.43	51.5396
9,848.88	86.6069	9,848.88	85.6455	9,848.88	85.8893	9,848.88	84.1592	9,848.88	84.2027	9,848.88	82.0004	9,848.88	82.1878	9,848.88	80.235	9,848.88	80.2234	9,848.88	76.2001	9,848.88	77.7522	9,848.88	73.8529	9,848.88	74.2494	9,848.88	69.6947	9,848.88	67.5214	9,848.88	64.5226	9,848.88	67.9328	9,848.88	59.643	9,848.88	58.0728	9,848.88	55.8697	9,848.88	59.5815	9,848.88	53.1433	9,848.88	62.6417	9,848.88	50.0274	9,848.88	58.9334	9,848.88	54.522	9,848.88	53.474	9,848.88	34.8142	9,848.88	49.544	9,848.88	40.962	9,848.88	45.166	9,848.88	47.9098	9,848.88	44.1788	9,848.88	47.5942	9,848.88	41.0663	9,848.88	48.8236
10,196.8	86.7102	10,196.8	85.87	10,196.8	85.9147	10,196.8	84.1342	10,196.8	84.2712	10,196.8	81.9368	10,196.8	82.5363	10,196.8	79.8909	10,196.8	80.5237	10,196.8	76.1284	10,196.8	77.4264	10,196.8	73.5062	10,196.8	73.3261	10,196.8	68.8592	10,196.8	69.0191	10,196.8	63.7317	10,196.8	69.0967	10,196.8	58.7213	10,196.8	55.7475	10,196.8	55.0697	10,196.8	60.0218	10,196.8	49.0051	10,196.8	65.2576	10,196.8	50.7189	10,196.8	59.5061	10,196.8	54.7881	10,196.8	46.7641	10,196.8	39.5183	10,196.8	50.7445	10,196.8	42.7055	10,196.8	45.802	10,196.8	46.5174	10,196.8	46.6482	10,196.8	49.3792	10,196.8	44.3531	10,196.8	50.0404
10,556.4	86.295	10,556.4	85.4848	10,556.4	85.6487	10,556.4	83.8713	10,556.4	84.2946	10,556.4	82.1002	10,556.4	82.9716	10,556.4	79.7967	10,556.4	80.3436	10,556.4	76.0533	10,556.4	78.1298	10,556.4	73.742	10,556.4	74.6001	10,556.4	68.644	10,556.4	71.2305	10,556.4	63.3124	10,556.4	68.6772	10,556.4	58.6887	10,556.4	57.7541	10,556.4	53.6819	10,556.4	60.4273	10,556.4	51.5095	10,556.4	66.9104	10,556.4	50.4606	10,556.4	61.7474	10,556.4	54.9671	10,556.4	49.9407	10,556.4	34.718	10,556.4	47.606	10,556.4	41.467	10,556.4	44.8775	10,556.4	43.6217	10,556.4	46.9254	10,556.4	50.574	10,556.4	46.2763	10,556.4	52.9507
10,928.5	85.8137	10,928.5	84.9812	10,928.5	85.5232	10,928.5	83.7016	10,928.5	84.3066	10,928.5	82.2389	10,928.5	83.0873	10,928.5	79.6121	10,928.5	80.0251	10,928.5	75.5246	10,928.5	77.4509	10,928.5	73.3058	10,928.5	75.2198	10,928.5	68.5664	10,928.5	70.7432	10,928.5	63.6919	10,928.5	66.9097	10,928.5	57.551	10,928.5	56.3023	10,928.5	52.7589	10,928.5	56.3849	10,928.5	52.9723	10,928.5	68.1732	10,928.5	47.9188	10,928.5	61.8447	10,928.5	54.166	10,928.5	54.0699	10,928.5	43.6994	10,928.5	48.5547	10,928.5	34.9118	10,928.5	48.4497	10,928.5	39.9163	10,928.5	47.2768	10,928.5	49.1721	10,928.5	47.6589	10,928.5	53.1189
11,313.7	85.6049	11,313.7	84.8298	11,313.7	85.6407	11,313.7	83.819	11,313.7	84.3926	11,313.7	82.2782	11,313.7	82.9405	11,313.7	79.294	11,313.7	80.3231	11,313.7	75.2559	11,313.7	76.7612	11,313.7	73.3526	11,313.7	73.4717	11,313.7	68.6416	11,313.7	69.3046	11,313.7	63.9966	11,313.7	68.7857	11,313.7	58.1039	11,313.7	52.3012	11,313.7	54.5599	11,313.7	60.5921	11,313.7	51.4737	11,313.7	69.4359	11,313.7	47.8129	11,313.7	60.6538	11,313.7	53.0371	11,313.7	53.9364	11,313.7	47.4928	11,313.7	51.4793	11,313.7	37.466	11,313.7	40.4019	11,313.7	36.071	11,313.7	48.4297	11,313.7	46.657	11,313.7	46.8706	11,313.7	53.1668
11,712.9	85.1213	11,712.9	84.814	11,712.9	85.3359	11,712.9	83.806	11,712.9	84.3706	11,712.9	82.0687	11,712.9	82.789	11,712.9	78.824	11,712.9	80.2842	11,712.9	74.8603	11,712.9	76.5553	11,712.9	71.879	11,712.9	71.128	11,712.9	67.6875	11,712.9	70.1973	11,712.9	62.0511	11,712.9	69.667	11,712.9	56.5473	11,712.9	54.1492	11,712.9	53.8145	11,712.9	59.6789	11,712.9	50.4056	11,712.9	68.6715	11,712.9	44.2958	11,712.9	60.4075	11,712.9	49.143	11,712.9	53.3538	11,712.9	49.3661	11,712.9	50.065	11,712.9	41.3574	11,712.9	44.5407	11,712.9	37.5446	11,712.9	45.2352	11,712.9	44.6015	11,712.9	44.3304	11,712.9	50.8485
12,126	85.2696	12,126	84.7045	12,126	85.031	12,126	83.2705	12,126	84.2478	12,126	81.4625	12,126	82.3139	12,126	78.0736	12,126	79.3964	12,126	73.6093	12,126	76.6189	12,126	70.7802	12,126	70.768	12,126	66.5366	12,126	71.9875	12,126	60.966	12,126	68.5117	12,126	55.5483	12,126	57.5856	12,126	54.0278	12,126	59.5095	12,126	48.2736	12,126	67.1695	12,126	43.3767	12,126	59.8579	12,126	42.9422	12,126	55.8559	12,126	50.121	12,126	53.8489	12,126	43.0262	12,126	47.2661	12,126	37.8188	12,126	44.3962	12,126	43.3274	12,126	45.6046	12,126	49.2543
12,553.7	85.52	12,553.7	84.5215	12,553.7	84.8268	12,553.7	83.2352	12,553.7	83.5432	12,553.7	80.9066	12,553.7	81.3929	12,553.7	77.5266	12,553.7	78.7873	12,553.7	72.5907	12,553.7	75.5529	12,553.7	70.1705	12,553.7	71.7981	12,553.7	65.9425	12,553.7	70.2499	12,553.7	59.57	12,553.7	66.9545	12,553.7	56.5108	12,553.7	55.1743	12,553.7	54.8207	12,553.7	62.0774	12,553.7	46.7374	12,553.7	68.2414	12,553.7	42.0879	12,553.7	60.4662	12,553.7	31.8751	12,553.7	56.3761	12,553.7	51.4722	12,553.7	54.5882	12,553.7	45.1056	12,553.7	40.2209	12,553.7	42.9661	12,553.7	45.4439	12,553.7	42.0781	12,553.7	45.8723	12,553.7	50.0993
12,996.1	85.3496	12,996.1	84.6523	12,996.1	84.4598	12,996.1	83.4813	12,996.1	82.9257	12,996.1	80.4853	12,996.1	80.7631	12,996.1	76.9761	12,996.1	78.5791	12,996.1	73.9343	12,996.1	76.201	12,996.1	70.6773	12,996.1	72.6644	12,996.1	67.3392	12,996.1	69.7508	12,996.1	60.3559	12,996.1	65.9687	12,996.1	58.9589	12,996.1	49.7557	12,996.1	53.9359	12,996.1	62.1603	12,996.1	46.3566	12,996.1	69.3456	12,996.1	46.4235	12,996.1	62.3425	12,996.1	46.0721	12,996.1	56.6423	12,996.1	52.6355	12,996.1	54.9242	12,996.1	43.75	12,996.1	45.3683	12,996.1	42.043	12,996.1	43.1577	12,996.1	40.9208	12,996.1	45.4392	12,996.1	49.8686
13,454.6	85.1061	13,454.6	84.5673	13,454.6	84.3584	13,454.6	83.3415	13,454.6	82.877	13,454.6	80.2726	13,454.6	80.6415	13,454.6	76.7302	13,454.6	78.1415	13,454.6	74.5082	13,454.6	75.0358	13,454.6	70.785	13,454.6	71.3508	13,454.6	67.6858	13,454.6	69.1496	13,454.6	60.7838	13,454.6	64.9161	13,454.6	58.0809	13,454.6	55.8143	13,454.6	53.2635	13,454.6	61.0549	13,454.6	44.2414	13,454.6	69.5378	13,454.6	45.2531	13,454.6	62.9458	13,454.6	41.1794	13,454.6	56.2337	13,454.6	51.9227	13,454.6	51.5328	13,454.6	38.7865	13,454.6	48.9619	13,454.6	37.1304	13,454.6	38.0676	13,454.6	42.3476	13,454.6	46.5381	13,454.6	45.7409
13,928.5	84.8363	13,928.5	84.3702	13,928.5	84.2614	13,928.5	83.3476	13,928.5	83.2099	13,928.5	80.6002	13,928.5	81.0678	13,928.5	76.693	13,928.5	78.2471	13,928.5	73.6933	13,928.5	74.4383	13,928.5	70.3855	13,928.5	70.5152	13,928.5	67.6084	13,928.5	68.4728	13,928.5	59.9837	13,928.5	64.6611	13,928.5	56.6631	13,928.5	54.1934	13,928.5	51.7625	13,928.5	60.6412	13,928.5	41.1186	13,928.5	69.8262	13,928.5	47.1539	13,928.5	62.4666	13,928.5	39.3773	13,928.5	54.9784	13,928.5	50.9453	13,928.5	52.0789	13,928.5	46.4799	13,928.5	50.2896	13,928.5	40.9311	13,928.5	37.7652	13,928.5	43.2876	13,928.5	47.9617	13,928.5	40.6004
14,419.9	84.8356	14,419.9	84.2844	14,419.9	84.3025	14,419.9	83.0402	14,419.9	83.2003	14,419.9	80.3503	14,419.9	80.9442	14,419.9	76.5937	14,419.9	78.0511	14,419.9	74.4258	14,419.9	75.075	14,419.9	71.0702	14,419.9	72.1645	14,419.9	68.0454	14,419.9	68.771	14,419.9	58.9747	14,419.9	63.7787	14,419.9	57.5764	14,419.9	55.105	14,419.9	49.5714	14,419.9	61.7058	14,419.9	42.8448	14,419.9	69.7031	14,419.9	49.4466	14,419.9	63.0641	14,419.9	45.6325	14,419.9	54.7329	14,419.9	49.6533	14,419.9	53.7059	14,419.9	50.4486	14,419.9	49.9942	14,419.9	47.3145	14,419.9	39.3496	14,419.9	44.485	14,419.9	47.6766	14,419.9	31.1401
14,928.2	84.9433	14,928.2	84.3989	14,928.2	84.9422	14,928.2	82.9867	14,928.2	83.3551	14,928.2	80.3473	14,928.2	80.5945	14,928.2	77.2414	14,928.2	77.6496	14,928.2	74.5626	14,928.2	74.9209	14,928.2	70.5008	14,928.2	71.4246	14,928.2	67.0917	14,928.2	68.3813	14,928.2	56.9638	14,928.2	63.9892	14,928.2	56.3133	14,928.2	50.4435	14,928.2	48.6684	14,928.2	61.9513	14,928.2	43.4748	14,928.2	70.2322	14,928.2	49.381	14,928.2	63.5757	14,928.2	47.396	14,928.2	52.6536	14,928.2	48.5488	14,928.2	52.3877	14,928.2	51.0953	14,928.2	50.4318	14,928.2	50.8615	14,928.2	40.9533	14,928.2	38.6206	14,928.2	48.4761	14,928.2	40.1163
15,454.8	84.3456	15,454.8	83.8386	15,454.8	84.4267	15,454.8	82.6108	15,454.8	82.9484	15,454.8	80.682	15,454.8	80.5273	15,454.8	77.3332	15,454.8	77.9509	15,454.8	73.4709	15,454.8	74.5356	15,454.8	69.5224	15,454.8	69.7832	15,454.8	66.1282	15,454.8	66.9808	15,454.8	57.6868	15,454.8	62.5067	15,454.8	56.6423	15,454.8	47.0953	15,454.8	45.2642	15,454.8	61.0765	15,454.8	42.4331	15,454.8	69.2592	15,454.8	50.2547	15,454.8	62.2313	15,454.8	52.5558	15,454.8	48.82	15,454.8	47.963	15,454.8	45.9141	15,454.8	51.7146	15,454.8	51.0615	15,454.8	54.4982	15,454.8	47.8206	15,454.8	36.6518	15,454.8	50.8971	15,454.8	46.2068
15,999.8	83.0607	15,999.8	83.2355	15,999.8	83.5807	15,999.8	82.5098	15,999.8	82.6809	15,999.8	80.4938	15,999.8	80.7462	15,999.8	76.5937	15,999.8	77.6518	15,999.8	73.1806	15,999.8	75.3451	15,999.8	69.739	15,999.8	70.8214	15,999.8	66.5847	15,999.8	66.2276	15,999.8	60.0445	15,999.8	57.9551	15,999.8	56.3726	15,999.8	46.7409	15,999.8	41.9793	15,999.8	60.5299	15,999.8	47.671	15,999.8	69.153	15,999.8	52.0371	15,999.8	61.1937	15,999.8	56.8048	15,999.8	45.1278	15,999.8	48.0849	15,999.8	45.4038	15,999.8	53.2613	15,999.8	53.7206	15,999.8	56.7684	15,999.8	50.9782	15,999.8	44.591	15,999.8	52.8212	15,999.8	50.5455
16,564.5	83.1656	16,564.5	83.4823	16,564.5	83.431	16,564.5	82.3251	16,564.5	82.3293	16,564.5	79.8841	16,564.5	80.4806	16,564.5	75.6854	16,564.5	77.0616	16,564.5	72.886	16,564.5	75.4416	16,564.5	69.814	16,564.5	69.1892	16,564.5	66.9781	16,564.5	63.747	16,564.5	61.2133	16,564.5	62.7589	16,564.5	55.6915	16,564.5	50.6572	16,564.5	42.5711	16,564.5	59.9887	16,564.5	49.5686	16,564.5	69.6839	16,564.5	55.2114	16,564.5	60.3973	16,564.5	59.8926	16,564.5	42.3349	16,564.5	46.9547	16,564.5	48.0534	16,564.5	55.486	16,564.5	55.7497	16,564.5	57.8175	16,564.5	52.3568	16,564.5	48.599	16,564.5	54.679	16,564.5	53.2068
17,148.2	83.6644	17,148.2	83.7849	17,148.2	83.484	17,148.2	81.8348	17,148.2	82.0295	17,148.2	79.1356	17,148.2	79.9825	17,148.2	74.7645	17,148.2	76.8341	17,148.2	72.4015	17,148.2	75.0495	17,148.2	69.1996	17,148.2	65.93	17,148.2	66.9961	17,148.2	63.7609	17,148.2	62.0883	17,148.2	62.8887	17,148.2	54.2474	17,148.2	45.2935	17,148.2	47.5163	17,148.2	59.9055	17,148.2	51.9932	17,148.2	69.6103	17,148.2	55.8951	17,148.2	59.5925	17,148.2	60.8325	17,148.2	36.1948	17,148.2	45.4886	17,148.2	47.4089	17,148.2	56.5981	17,148.2	55.383	17,148.2	56.998	17,148.2	51.6933	17,148.2	50.5746	17,148.2	55.1639	17,148.2	54.2449
17,753.2	83.8027	17,753.2	83.8926	17,753.2	83.034	17,753.2	81.5245	17,753.2	81.9369	17,753.2	78.6577	17,753.2	79.6321	17,753.2	74.5545	17,753.2	77.1664	17,753.2	71.4347	17,753.2	74.2786	17,753.2	68.699	17,753.2	63.5807	17,753.2	66.7729	17,753.2	61.6504	17,753.2	62.3266	17,753.2	59.6164	17,753.2	53.4004	17,753.2	41.7698	17,753.2	51.0415	17,753.2	59.1334	17,753.2	52.2165	17,753.2	70.2962	17,753.2	57.0063	17,753.2	59.6221	17,753.2	61.4338	17,753.2	39.1978	17,753.2	46.8328	17,753.2	47.4289	17,753.2	57.7225	17,753.2	54.4129	17,753.2	56.9835	17,753.2	50.9652	17,753.2	53.1411	17,753.2	54.1342	17,753.2	54.62
18,379.4	83.0489	18,379.4	83.3933	18,379.4	81.6038	18,379.4	80.9608	18,379.4	81.2238	18,379.4	77.8725	18,379.4	78.8227	18,379.4	74.794	18,379.4	77.2703	18,379.4	69.7596	18,379.4	73.8691	18,379.4	67.9108	18,379.4	67.6453	18,379.4	65.9557	18,379.4	61.1426	18,379.4	63.2449	18,379.4	60.2059	18,379.4	54.3018	18,379.4	45.1871	18,379.4	53.4608	18,379.4	56.9246	18,379.4	53.7094	18,379.4	70.0344	18,379.4	57.9523	18,379.4	56.4561	18,379.4	62.4928	18,379.4	51.5681	18,379.4	50.4861	18,379.4	50.1873	18,379.4	59.4914	18,379.4	56.5886	18,379.4	59.4523	18,379.4	52.3029	18,379.4	54.6654	18,379.4	55.3822	18,379.4	55.3604
19,027.6	82.612	19,027.6	82.666	19,027.6	80.8001	19,027.6	80.0661	19,027.6	80.3387	19,027.6	76.5298	19,027.6	77.9661	19,027.6	74.4477	19,027.6	76.9375	19,027.6	68.6663	19,027.6	72.6768	19,027.6	66.1189	19,027.6	64.7215	19,027.6	64.0642	19,027.6	56.646	19,027.6	64.2056	19,027.6	58.7967	19,027.6	56.5691	19,027.6	50.0466	19,027.6	55.317	19,027.6	57.4554	19,027.6	53.4166	19,027.6	69.6139	19,027.6	57.8396	19,027.6	55.5567	19,027.6	62.9943	19,027.6	52.2334	19,027.6	52.3882	19,027.6	50.6613	19,027.6	60.122	19,027.6	57.8151	19,027.6	60.3362	19,027.6	52.4357	19,027.6	54.6582	19,027.6	55.7311	19,027.6	55.0743
19,698.5	82.6088	19,698.5	81.7517	19,698.5	79.9699	19,698.5	78.672	19,698.5	79.1873	19,698.5	74.6801	19,698.5	77.1892	19,698.5	73.7018	19,698.5	76.5609	19,698.5	68.0279	19,698.5	71.2024	19,698.5	63.2294	19,698.5	64.4664	19,698.5	60.8646	19,698.5	56.7569	19,698.5	64.7842	19,698.5	59.0247	19,698.5	57.2127	19,698.5	48.465	19,698.5	55.2947	19,698.5	56.5366	19,698.5	52.5566	19,698.5	69.0412	19,698.5	57.52	19,698.5	51.273	19,698.5	62.9127	19,698.5	55.7309	19,698.5	51.6738	19,698.5	54.1761	19,698.5	59.2239	19,698.5	57.5804	19,698.5	60.975	19,698.5	53.2983	19,698.5	54.7373	19,698.5	55.6314	19,698.5	54.8877
19,999.5	82.653	19,999.5	81.2957	19,999.5	79.3548	19,999.5	77.8486	19,999.5	78.6839	19,999.5	74.1707	19,999.5	77.2527	19,999.5	73.3219	19,999.5	76.3824	19,999.5	67.3367	19,999.5	71.7971	19,999.5	61.7008	19,999.5	65.5513	19,999.5	60.2162	19,999.5	62.0792	19,999.5	65.1489	19,999.5	60.2425	19,999.5	57.8701	19,999.5	47.9453	19,999.5	55.3901	19,999.5	58.1252	19,999.5	52.6356	19,999.5	68.9357	19,999.5	56.9666	19,999.5	50.8492	19,999.5	62.2276	19,999.5	54.6779	19,999.5	52.9374	19,999.5	54.9092	19,999.5	58.3306	19,999.5	56.5721	19,999.5	61.4331	19,999.5	55.8986	19,999.5	55.2557	19,999.5	56.2203	19,999.5	54.6104
