"SPL Horizontal"
"On-Axis"		"10°"		"-10°"		"20°"		"-20°"		"30°"		"-30°"		"40°"		"-40°"		"50°"		"-50°"		"60°"		"-60°"		"70°"		"-70°"		"80°"		"-80°"		"90°"		"-90°"		"100°"		"-100°"		"110°"		"-110°"		"120°"		"-120°"		"130°"		"-130°"		"140°"		"-140°"		"150°"		"-150°"		"160°"		"-160°"		"170°"		"-170°"		"180°"
"Frequency / Hz"	"Sound Pressure Level / dB (re 20 µPa/V)  [2.83  V @ 1. m]"	"Frequency / Hz"	"Sound Pressure Level / dB (re 20 µPa/V)  [2.83  V @ 1. m]"	"Frequency / Hz"	"Sound Pressure Level / dB (re 20 µPa/V)  [2.83  V @ 1. m]"	"Frequency / Hz"	"Sound Pressure Level / dB (re 20 µPa/V)  [2.83  V @ 1. m]"	"Frequency / Hz"	"Sound Pressure Level / dB (re 20 µPa/V)  [2.83  V @ 1. m]"	"Frequency / Hz"	"Sound Pressure Level / dB (re 20 µPa/V)  [2.83  V @ 1. m]"	"Frequency / Hz"	"Sound Pressure Level / dB (re 20 µPa/V)  [2.83  V @ 1. m]"	"Frequency / Hz"	"Sound Pressure Level / dB (re 20 µPa/V)  [2.83  V @ 1. m]"	"Frequency / Hz"	"Sound Pressure Level / dB (re 20 µPa/V)  [2.83  V @ 1. m]"	"Frequency / Hz"	"Sound Pressure Level / dB (re 20 µPa/V)  [2.83  V @ 1. m]"	"Frequency / Hz"	"Sound Pressure Level / dB (re 20 µPa/V)  [2.83  V @ 1. m]"	"Frequency / Hz"	"Sound Pressure Level / dB (re 20 µPa/V)  [2.83  V @ 1. m]"	"Frequency / Hz"	"Sound Pressure Level / dB (re 20 µPa/V)  [2.83  V @ 1. m]"	"Frequency / Hz"	"Sound Pressure Level / dB (re 20 µPa/V)  [2.83  V @ 1. m]"	"Frequency / Hz"	"Sound Pressure Level / dB (re 20 µPa/V)  [2.83  V @ 1. m]"	"Frequency / Hz"	"Sound Pressure Level / dB (re 20 µPa/V)  [2.83  V @ 1. m]"	"Frequency / Hz"	"Sound Pressure Level / dB (re 20 µPa/V)  [2.83  V @ 1. m]"	"Frequency / Hz"	"Sound Pressure Level / dB (re 20 µPa/V)  [2.83  V @ 1. m]"	"Frequency / Hz"	"Sound Pressure Level / dB (re 20 µPa/V)  [2.83  V @ 1. m]"	"Frequency / Hz"	"Sound Pressure Level / dB (re 20 µPa/V)  [2.83  V @ 1. m]"	"Frequency / Hz"	"Sound Pressure Level / dB (re 20 µPa/V)  [2.83  V @ 1. m]"	"Frequency / Hz"	"Sound Pressure Level / dB (re 20 µPa/V)  [2.83  V @ 1. m]"	"Frequency / Hz"	"Sound Pressure Level / dB (re 20 µPa/V)  [2.83  V @ 1. m]"	"Frequency / Hz"	"Sound Pressure Level / dB (re 20 µPa/V)  [2.83  V @ 1. m]"	"Frequency / Hz"	"Sound Pressure Level / dB (re 20 µPa/V)  [2.83  V @ 1. m]"	"Frequency / Hz"	"Sound Pressure Level / dB (re 20 µPa/V)  [2.83  V @ 1. m]"	"Frequency / Hz"	"Sound Pressure Level / dB (re 20 µPa/V)  [2.83  V @ 1. m]"	"Frequency / Hz"	"Sound Pressure Level / dB (re 20 µPa/V)  [2.83  V @ 1. m]"	"Frequency / Hz"	"Sound Pressure Level / dB (re 20 µPa/V)  [2.83  V @ 1. m]"	"Frequency / Hz"	"Sound Pressure Level / dB (re 20 µPa/V)  [2.83  V @ 1. m]"	"Frequency / Hz"	"Sound Pressure Level / dB (re 20 µPa/V)  [2.83  V @ 1. m]"	"Frequency / Hz"	"Sound Pressure Level / dB (re 20 µPa/V)  [2.83  V @ 1. m]"	"Frequency / Hz"	"Sound Pressure Level / dB (re 20 µPa/V)  [2.83  V @ 1. m]"	"Frequency / Hz"	"Sound Pressure Level / dB (re 20 µPa/V)  [2.83  V @ 1. m]"	"Frequency / Hz"	"Sound Pressure Level / dB (re 20 µPa/V)  [2.83  V @ 1. m]"	"Frequency / Hz"	"Sound Pressure Level / dB (re 20 µPa/V)  [2.83  V @ 1. m]"
20.5078	56.832	20.5078	56.7469	20.5078	56.7717	20.5078	56.5227	20.5078	56.571	20.5078	56.1818	20.5078	56.249	20.5078	55.778	20.5078	55.8516	20.5078	55.4211	20.5078	55.4734	20.5078	55.2937	20.5078	55.278	20.5078	55.6023	20.5078	55.4699	20.5078	56.436	20.5078	56.173	20.5078	57.6807	20.5078	57.3196	20.5078	59.1189	20.5078	58.7096	20.5078	60.5656	20.5078	60.1495	20.5078	61.9074	20.5078	61.5128	20.5078	63.0838	20.5078	62.7299	20.5078	64.0633	20.5078	63.7639	20.5078	64.8284	20.5078	64.5941	20.5078	65.3687	20.5078	65.2078	20.5078	65.6781	20.5078	65.5963	20.5078	65.754
21.9727	58.7916	21.9727	58.6638	21.9727	58.8523	21.9727	58.4848	21.9727	58.8512	21.9727	58.2973	21.9727	58.8136	21.9727	58.1786	21.9727	58.7867	21.9727	58.2384	21.9727	58.8407	21.9727	58.5875	21.9727	59.0594	21.9727	59.2796	21.9727	59.5139	21.9727	60.2719	21.9727	60.228	21.9727	61.4528	21.9727	61.1629	21.9727	62.7002	21.9727	62.2376	21.9727	63.9187	21.9727	63.3625	21.9727	65.0437	21.9727	64.4618	21.9727	66.0335	21.9727	65.4789	21.9727	66.8603	21.9727	66.373	21.9727	67.5047	21.9727	67.1145	21.9727	67.9529	21.9727	67.6813	21.9727	68.1962	21.9727	68.057	21.9727	68.2306
23.4375	61.0283	23.4375	60.9729	23.4375	61.0384	23.4375	60.8869	23.4375	61.0057	23.4375	60.8042	23.4375	60.9491	23.4375	60.7798	23.4375	60.906	23.4375	60.8863	23.4375	60.9322	23.4375	61.1958	23.4375	61.0957	23.4375	61.7507	23.4375	61.4584	23.4375	62.5392	23.4375	62.0498	23.4375	63.5002	23.4375	62.8506	23.4375	64.5497	23.4375	63.8005	23.4375	65.6077	23.4375	64.8225	23.4375	66.61	23.4375	65.8445	23.4375	67.5086	23.4375	66.8076	23.4375	68.2685	23.4375	67.6673	23.4375	68.8639	23.4375	68.3895	23.4375	69.2763	23.4375	68.9488	23.4375	69.4938	23.4375	69.3267	23.4375	69.5105
24.9023	63.0793	24.9023	63.0525	24.9023	63.0793	24.9023	63.0125	24.9023	63.0532	24.9023	62.988	24.9023	63.0157	24.9023	63.0229	24.9023	62.996	24.9023	63.1717	24.9023	63.0378	24.9023	63.4871	24.9023	63.1941	24.9023	64.0001	24.9023	63.5147	24.9023	64.7044	24.9023	64.0283	24.9023	65.557	24.9023	64.7285	24.9023	66.4939	24.9023	65.574	24.9023	67.4482	24.9023	66.5035	24.9023	68.3615	24.9023	67.4523	24.9023	69.187	24.9023	68.3626	24.9023	69.8882	24.9023	69.187	24.9023	70.4378	24.9023	69.8883	24.9023	70.8155	24.9023	70.4382	24.9023	71.0078	24.9023	70.816	24.9023	71.008
26.3672	65.4916	26.3672	65.4889	26.3672	65.481	26.3672	65.4815	26.3672	65.46	26.3672	65.4898	26.3672	65.443	26.3672	65.5457	26.3672	65.4558	26.3672	65.6891	26.3672	65.5343	26.3672	65.9608	26.3672	65.7194	26.3672	66.3889	26.3672	66.0472	26.3672	66.9779	26.3672	66.5362	26.3672	67.7037	26.3672	67.1787	26.3672	68.5208	26.3672	67.9414	26.3672	69.3742	26.3672	68.7751	26.3672	70.2101	26.3672	69.626	26.3672	70.9811	26.3672	70.4436	26.3672	71.6486	26.3672	71.1849	26.3672	72.1821	26.3672	71.8143	26.3672	72.5589	26.3672	72.3041	26.3672	72.7638	26.3672	72.6335	26.3672	72.7889
27.832	67.6973	27.832	67.6872	27.832	67.7015	27.832	67.6792	27.832	67.7012	27.832	67.6908	27.832	67.707	27.832	67.7485	27.832	67.7384	27.832	67.8851	27.832	67.8227	27.832	68.1339	27.832	67.9913	27.832	68.5189	27.832	68.2739	27.832	69.0455	27.832	68.689	27.832	69.6966	27.832	69.2369	27.832	70.4353	27.832	69.8973	27.832	71.2144	27.832	70.6334	27.832	71.9845	27.832	71.3997	27.832	72.7003	27.832	72.1497	27.832	73.3231	27.832	72.8404	27.832	73.8218	27.832	73.4349	27.832	74.173	27.832	73.903	27.832	74.3608	27.832	74.2222	27.832	74.3773
29.2969	69.4175	29.2969	69.421	29.2969	69.4202	29.2969	69.4378	29.2969	69.4306	29.2969	69.4828	29.2969	69.4579	29.2969	69.5781	29.2969	69.519	29.2969	69.7498	29.2969	69.6368	29.2969	70.0232	29.2969	69.8368	29.2969	70.4154	29.2969	70.1413	29.2969	70.9289	29.2969	70.5634	29.2969	71.5481	29.2969	71.1006	29.2969	72.2426	29.2969	71.7345	29.2969	72.9722	29.2969	72.4329	29.2969	73.6941	29.2969	73.1563	29.2969	74.3673	29.2969	73.8632	29.2969	74.9555	29.2969	74.5145	29.2969	75.4288	29.2969	75.0755	29.2969	75.7637	29.2969	75.5173	29.2969	75.9445	29.2969	75.818	29.2969	75.9628
30.7617	71.5607	30.7617	71.5751	30.7617	71.5648	30.7617	71.6131	30.7617	71.5884	30.7617	71.6855	30.7617	71.6387	30.7617	71.808	30.7617	71.7277	30.7617	71.9985	30.7617	71.8714	30.7617	72.2742	30.7617	72.0868	30.7617	72.6461	30.7617	72.3885	30.7617	73.1155	30.7617	72.7841	30.7617	73.6713	30.7617	73.2716	30.7617	74.2906	30.7617	73.8374	30.7617	74.9422	30.7617	74.458	30.7617	75.5904	30.7617	75.1026	30.7617	76.199	30.7617	75.737	30.7617	76.7344	30.7617	76.3262	30.7617	77.1674	30.7617	76.8379	30.7617	77.475	30.7617	77.2438	30.7617	77.6409	30.7617	77.5219	30.7617	77.6567
32.2266	73.7851	32.2266	73.8002	32.2266	73.79	32.2266	73.8392	32.2266	73.8154	32.2266	73.91	32.2266	73.8661	32.2266	74.0241	32.2266	73.9506	32.2266	74.1946	32.2266	74.0801	32.2266	74.4342	32.2266	74.2674	32.2266	74.7519	32.2266	74.5237	32.2266	75.1501	32.2266	74.8564	32.2266	75.6219	32.2266	75.2661	32.2266	76.1513	32.2266	75.745	32.2266	76.7138	32.2266	76.2762	32.2266	77.2796	32.2266	76.8354	32.2266	77.8169	32.2266	77.3932	32.2266	78.2941	32.2266	77.9176	32.2266	78.683	32.2266	78.3778	32.2266	78.9607	32.2266	78.746	32.2266	79.1105	32.2266	78.9998	32.2266	79.1238
33.6914	75.6316	33.6914	75.6496	33.6914	75.6345	33.6914	75.6913	33.6914	75.6587	33.6914	75.7631	33.6914	75.708	33.6914	75.8737	33.6914	75.7894	33.6914	76.0336	33.6914	75.9118	33.6914	76.253	33.6914	76.0856	33.6914	76.5396	33.6914	76.3199	33.6914	76.8959	33.6914	76.6213	33.6914	77.3178	33.6914	76.9909	33.6914	77.7929	33.6914	77.423	33.6914	78.3012	33.6914	77.904	33.6914	78.817	33.6914	78.4134	33.6914	79.3111	33.6914	78.9248	33.6914	79.7535	33.6914	79.409	33.6914	80.1167	33.6914	79.8363	33.6914	80.3776	33.6914	80.1797	33.6914	80.5193	33.6914	80.417	33.6914	80.5327
35.1562	77.3678	35.1562	77.3867	35.1562	77.3719	35.1562	77.4307	35.1562	77.3993	35.1562	77.5046	35.1562	77.4529	35.1562	77.6149	35.1562	77.5377	35.1562	77.7694	35.1562	77.6603	35.1562	77.9758	35.1562	77.8283	35.1562	78.2399	35.1562	78.0486	35.1562	78.5641	35.1562	78.326	35.1562	78.9453	35.1562	78.6616	35.1562	79.374	35.1562	79.0512	35.1562	79.8338	35.1562	79.4842	35.1562	80.3026	35.1562	79.9437	35.1562	80.7543	35.1562	80.4072	35.1562	81.1611	35.1562	80.8485	35.1562	81.4968	35.1562	81.2403	35.1562	81.7387	35.1562	81.5566	35.1562	81.8706	35.1562	81.7761	35.1562	81.8833
36.6211	79.0044	36.6211	79.024	36.6211	79.0079	36.6211	79.0684	36.6211	79.0345	36.6211	79.1409	36.6211	79.0863	36.6211	79.2466	36.6211	79.167	36.6211	79.391	36.6211	79.2812	36.6211	79.58	36.6211	79.4347	36.6211	79.818	36.6211	79.6326	36.6211	80.107	36.6211	79.879	36.6211	80.4448	36.6211	80.1753	36.6211	80.824	36.6211	80.5185	36.6211	81.2317	36.6211	80.901	36.6211	81.6491	36.6211	81.3089	36.6211	82.0535	36.6211	81.7234	36.6211	82.4196	36.6211	82.1213	36.6211	82.7229	36.6211	82.4772	36.6211	82.9418	36.6211	82.767	36.6211	83.0604	36.6211	82.9695	36.6211	83.0699
38.0859	80.1299	38.0859	80.1499	38.0859	80.1339	38.0859	80.1954	38.0859	80.1619	38.0859	80.2692	38.0859	80.2154	38.0859	80.3754	38.0859	80.2971	38.0859	80.5185	38.0859	80.4111	38.0859	80.7031	38.0859	80.5616	38.0859	80.9329	38.0859	80.7531	38.0859	81.2093	38.0859	80.9888	38.0859	81.5304	38.0859	81.2699	38.0859	81.8902	38.0859	81.5943	38.0859	82.2774	38.0859	81.9556	38.0859	82.6754	38.0859	82.3422	38.0859	83.0633	38.0859	82.7375	38.0859	83.4169	38.0859	83.1199	38.0859	83.7117	38.0859	83.4652	38.0859	83.9253	38.0859	83.7488	38.0859	84.0409	38.0859	83.9487	38.0859	84.0489
39.5508	81.0814	39.5508	81.1054	39.5508	81.0821	39.5508	81.1549	39.5508	81.1073	39.5508	81.232	39.5508	81.158	39.5508	81.3391	39.5508	81.2361	39.5508	81.4793	39.5508	81.3442	39.5508	81.6554	39.5508	81.4854	39.5508	81.87	39.5508	81.6627	39.5508	82.1236	39.5508	81.8785	39.5508	82.415	39.5508	82.1338	39.5508	82.739	39.5508	82.4271	39.5508	83.0866	39.5508	82.7532	39.5508	83.4438	39.5508	83.1026	39.5508	83.7924	39.5508	83.4612	39.5508	84.1108	39.5508	83.8101	39.5508	84.3762	39.5508	84.1272	39.5508	84.568	39.5508	84.3897	39.5508	84.6699	39.5508	84.5768	39.5508	84.673
41.0156	81.7653	41.0156	81.7953	41.0156	81.7597	41.0156	81.8502	41.0156	81.7787	41.0156	81.931	41.0156	81.8231	41.0156	82.0392	41.0156	81.8941	41.0156	82.1766	41.0156	81.9936	41.0156	82.345	41.0156	82.1237	41.0156	82.5457	41.0156	82.2867	41.0156	82.7792	41.0156	82.4842	41.0156	83.0441	41.0156	82.7168	41.0156	83.3364	41.0156	82.9833	41.0156	83.6484	41.0156	83.2795	41.0156	83.9683	41.0156	83.5975	41.0156	84.2802	41.0156	83.9249	41.0156	84.5649	41.0156	84.2452	41.0156	84.8016	41.0156	84.5385	41.0156	84.9711	41.0156	84.7835	41.0156	85.0583	41.0156	84.9606	41.0156	85.0549
42.4805	82.1776	42.4805	82.2081	42.4805	82.1712	42.4805	82.2629	42.4805	82.1891	42.4805	82.3425	42.4805	82.2316	42.4805	82.4476	42.4805	82.2997	42.4805	82.5793	42.4805	82.3943	42.4805	82.7383	42.4805	82.517	42.4805	82.9255	42.4805	82.6689	42.4805	83.1407	42.4805	82.8512	42.4805	83.3824	42.4805	83.064	42.4805	83.6474	42.4805	83.3063	42.4805	83.929	42.4805	83.5745	42.4805	84.2174	42.4805	83.8623	42.4805	84.4987	42.4805	84.1591	42.4805	84.7558	42.4805	84.4504	42.4805	84.9699	42.4805	84.7185	42.4805	85.123	42.4805	84.9436	42.4805	85.201	42.4805	85.1075	42.4805	85.1959
43.9453	82.4474	43.9453	82.4789	43.9453	82.4398	43.9453	82.534	43.9453	82.4561	43.9453	82.6128	43.9453	82.4967	43.9453	82.7151	43.9453	82.5622	43.9453	82.8412	43.9453	82.653	43.9453	82.9911	43.9453	82.7698	43.9453	83.1649	43.9453	82.913	43.9453	83.3621	43.9453	83.0831	43.9453	83.5813	43.9453	83.2798	43.9453	83.8198	43.9453	83.5017	43.9453	84.0725	43.9453	83.7459	43.9453	84.3312	43.9453	84.0068	43.9453	84.5841	43.9453	84.2755	43.9453	84.816	43.9453	84.5393	43.9453	85.0101	43.9453	84.7824	43.9453	85.1495	43.9453	84.9869	43.9453	85.2208	43.9453	85.1361	43.9453	85.2164
45.4102	82.7266	45.4102	82.757	45.4102	82.7187	45.4102	82.8097	45.4102	82.7336	45.4102	82.8841	45.4102	82.7716	45.4102	82.9797	45.4102	82.8325	45.4102	83.0962	45.4102	82.9165	45.4102	83.2329	45.4102	83.0236	45.4102	83.3895	45.4102	83.1536	45.4102	83.5651	45.4102	83.3064	45.4102	83.7586	45.4102	83.4814	45.4102	83.9678	45.4102	83.6776	45.4102	84.1888	45.4102	83.8925	45.4102	84.4149	45.4102	84.1217	45.4102	84.6364	45.4102	84.358	45.4102	84.8404	45.4102	84.5908	45.4102	85.0116	45.4102	84.8062	45.4102	85.135	45.4102	84.9883	45.4102	85.1982	45.4102	85.1216	45.4102	85.1938
46.875	82.8399	46.875	82.8683	46.875	82.8324	46.875	82.9172	46.875	82.8462	46.875	82.9859	46.875	82.8812	46.875	83.0735	46.875	82.9373	46.875	83.1793	46.875	83.014	46.875	83.3024	46.875	83.1111	46.875	83.4421	46.875	83.228	46.875	83.5976	46.875	83.3642	46.875	83.768	46.875	83.5191	46.875	83.9515	46.875	83.6918	46.875	84.1451	46.875	83.8804	46.875	84.3435	46.875	84.0816	46.875	84.5384	46.875	84.2894	46.875	84.7185	46.875	84.4948	46.875	84.8703	46.875	84.6858	46.875	84.98	46.875	84.8479	46.875	85.0361	46.875	84.9671	46.875	85.0319
48.3398	82.8599	48.3398	82.8849	48.3398	82.8559	48.3398	82.9305	48.3398	82.8731	48.3398	82.9959	48.3398	82.9111	48.3398	83.0799	48.3398	82.9694	48.3398	83.1815	48.3398	83.047	48.3398	83.2994	48.3398	83.1431	48.3398	83.4323	48.3398	83.2567	48.3398	83.5793	48.3398	83.3869	48.3398	83.7392	48.3398	83.533	48.3398	83.9104	48.3398	83.6938	48.3398	84.0902	48.3398	83.8679	48.3398	84.2742	48.3398	84.0524	48.3398	84.455	48.3398	84.2423	48.3398	84.6225	48.3398	84.4299	48.3398	84.7644	48.3398	84.6042	48.3398	84.8676	48.3398	84.7523	48.3398	84.9214	48.3398	84.8609	48.3398	84.9193
51.2695	82.7354	51.2695	82.7737	51.2695	82.7222	51.2695	82.8361	51.2695	82.7344	51.2695	82.9208	51.2695	82.7714	51.2695	83.0256	51.2695	82.832	51.2695	83.1478	51.2695	82.9143	51.2695	83.2844	51.2695	83.0161	51.2695	83.4326	51.2695	83.135	51.2695	83.5896	51.2695	83.2688	51.2695	83.7525	51.2695	83.4153	51.2695	83.9186	51.2695	83.5723	51.2695	84.0844	51.2695	83.7379	51.2695	84.2457	51.2695	83.9092	51.2695	84.3969	51.2695	84.0826	51.2695	84.5304	51.2695	84.2525	51.2695	84.6374	51.2695	84.411	51.2695	84.7089	51.2695	84.5482	51.2695	84.7373	51.2695	84.6538	51.2695	84.7187
52.7344	82.6901	52.7344	82.7298	52.7344	82.674	52.7344	82.7918	52.7344	82.6821	52.7344	82.874	52.7344	82.7139	52.7344	82.9736	52.7344	82.7682	52.7344	83.0875	52.7344	82.8429	52.7344	83.2122	52.7344	82.9356	52.7344	83.3444	52.7344	83.0435	52.7344	83.4807	52.7344	83.1637	52.7344	83.6184	52.7344	83.2935	52.7344	83.7549	52.7344	83.4306	52.7344	83.888	52.7344	83.5725	52.7344	84.0151	52.7344	83.7171	52.7344	84.1329	52.7344	83.8615	52.7344	84.2365	52.7344	84.0015	52.7344	84.3197	52.7344	84.1312	52.7344	84.3754	52.7344	84.2431	52.7344	84.3973	52.7344	84.329	52.7344	84.3818
54.1992	82.8086	54.1992	82.8461	54.1992	82.7905	54.1992	82.9015	54.1992	82.7923	54.1992	82.9726	54.1992	82.8136	54.1992	83.0568	54.1992	82.8533	54.1992	83.1508	54.1992	82.9094	54.1992	83.2512	54.1992	82.9796	54.1992	83.3547	54.1992	83.0613	54.1992	83.4582	54.1992	83.1516	54.1992	83.5594	54.1992	83.2482	54.1992	83.6567	54.1992	83.3491	54.1992	83.7491	54.1992	83.4528	54.1992	83.8356	54.1992	83.5583	54.1992	83.9151	54.1992	83.6642	54.1992	83.9847	54.1992	83.7685	54.1992	84.0401	54.1992	83.8671	54.1992	84.0758	54.1992	83.9545	54.1992	84.0865	54.1992	84.0239	54.1992	84.0691
55.6641	82.9124	55.6641	82.9458	55.6641	82.8973	55.6641	82.9964	55.6641	82.9009	55.6641	83.0623	55.6641	82.9224	55.6641	83.1408	55.6641	82.9605	55.6641	83.2288	55.6641	83.0134	55.6641	83.3227	55.6641	83.0784	55.6641	83.419	55.6641	83.1532	55.6641	83.5143	55.6641	83.235	55.6641	83.606	55.6641	83.3217	55.6641	83.6923	55.6641	83.4114	55.6641	83.7723	55.6641	83.503	55.6641	83.8456	55.6641	83.5955	55.6641	83.9116	55.6641	83.6879	55.6641	83.9687	55.6641	83.7783	55.6641	84.0138	55.6641	83.8634	55.6641	84.0427	55.6641	83.9384	55.6641	84.0512	55.6641	83.9977	55.6641	84.0362
58.5938	82.8009	58.5938	82.8105	58.5938	82.8088	58.5938	82.8369	58.5938	82.8336	58.5938	82.8788	58.5938	82.8739	58.5938	82.9338	58.5938	82.9274	58.5938	82.9989	58.5938	82.9913	58.5938	83.0705	58.5938	83.0622	58.5938	83.1452	58.5938	83.1366	58.5938	83.2196	58.5938	83.2113	58.5938	83.2911	58.5938	83.2836	58.5938	83.3581	58.5938	83.3514	58.5938	83.4198	58.5938	83.4137	58.5938	83.4766	58.5938	83.4703	58.5938	83.5288	58.5938	83.5216	58.5938	83.5761	58.5938	83.5679	58.5938	83.6172	58.5938	83.6086	58.5938	83.6492	58.5938	83.6419	58.5938	83.6691	58.5938	83.6648	58.5938	83.6744
60.0586	82.7179	60.0586	82.7233	60.0586	82.7307	60.0586	82.7464	60.0586	82.7612	60.0586	82.7856	60.0586	82.808	60.0586	82.8385	60.0586	82.8688	60.0586	82.902	60.0586	82.9405	60.0586	82.9727	60.0586	83.0197	60.0586	83.047	60.0586	83.1026	60.0586	83.1217	60.0586	83.1857	60.0586	83.1943	60.0586	83.2657	60.0586	83.2632	60.0586	83.3401	60.0586	83.3278	60.0586	83.4074	60.0586	83.3886	60.0586	83.4668	60.0586	83.446	60.0586	83.5181	60.0586	83.4997	60.0586	83.5615	60.0586	83.5484	60.0586	83.5965	60.0586	83.5891	60.0586	83.6217	60.0586	83.6187	60.0586	83.635	60.0586	83.6343
62.9883	82.4459	62.9883	82.4659	62.9883	82.4473	62.9883	82.5062	62.9883	82.4699	62.9883	82.5648	62.9883	82.5124	62.9883	82.6386	62.9883	82.5722	62.9883	82.7235	62.9883	82.6461	62.9883	82.8152	62.9883	82.73	62.9883	82.909	62.9883	82.8197	62.9883	83.0004	62.9883	82.9108	62.9883	83.0857	62.9883	82.9992	62.9883	83.162	62.9883	83.0817	62.9883	83.2279	62.9883	83.1558	62.9883	83.283	62.9883	83.2204	62.9883	83.3281	62.9883	83.2754	62.9883	83.3641	62.9883	83.3212	62.9883	83.3916	62.9883	83.3586	62.9883	83.4105	62.9883	83.3878	62.9883	83.4199	62.9883	83.4083	62.9883	83.4192
64.4531	82.3817	64.4531	82.3977	64.4531	82.3872	64.4531	82.4344	64.4531	82.4139	64.4531	82.4896	64.4531	82.4603	64.4531	82.5604	64.4531	82.5238	64.4531	82.6426	64.4531	82.6008	64.4531	82.7316	64.4531	82.6873	64.4531	82.8225	64.4531	82.7786	64.4531	82.9106	64.4531	82.8699	64.4531	82.9917	64.4531	82.9571	64.4531	83.0628	64.4531	83.0362	64.4531	83.1224	64.4531	83.1046	64.4531	83.1702	64.4531	83.1609	64.4531	83.2074	64.4531	83.205	64.4531	83.236	64.4531	83.2379	64.4531	83.2575	64.4531	83.2613	64.4531	83.2732	64.4531	83.2767	64.4531	83.2831	64.4531	83.2852	64.4531	83.2872
67.3828	82.2541	67.3828	82.2677	67.3828	82.26	67.3828	82.3	67.3828	82.2851	67.3828	82.3492	67.3828	82.328	67.3828	82.4122	67.3828	82.3863	67.3828	82.4852	67.3828	82.4564	67.3828	82.5635	67.3828	82.5344	67.3828	82.6421	67.3828	82.6154	67.3828	82.7161	67.3828	82.6945	67.3828	82.781	67.3828	82.7671	67.3828	82.8336	67.3828	82.8291	67.3828	82.8719	67.3828	82.8774	67.3828	82.8963	67.3828	82.9109	67.3828	82.9088	67.3828	82.9299	67.3828	82.9127	67.3828	82.9367	67.3828	82.9122	67.3828	82.9348	67.3828	82.9108	67.3828	82.9282	67.3828	82.9111	67.3828	82.9205	67.3828	82.9144
68.8477	82.1979	68.8477	82.2094	68.8477	82.2048	68.8477	82.2385	68.8477	82.2299	68.8477	82.2832	68.8477	82.2717	68.8477	82.3406	68.8477	82.3279	68.8477	82.4068	68.8477	82.3949	68.8477	82.4771	68.8477	82.4687	68.8477	82.5466	68.8477	82.5444	68.8477	82.6103	68.8477	82.6168	68.8477	82.6638	68.8477	82.6812	68.8477	82.7039	68.8477	82.7332	68.8477	82.7292	68.8477	82.77	68.8477	82.7401	68.8477	82.7903	68.8477	82.7394	68.8477	82.7948	68.8477	82.7314	68.8477	82.7864	68.8477	82.7212	68.8477	82.7696	68.8477	82.7135	68.8477	82.7495	68.8477	82.7117	68.8477	82.7309	68.8477	82.7176
71.7773	82.0882	71.7773	82.0931	71.7773	82.1007	71.7773	82.1147	71.7773	82.1304	71.7773	82.151	71.7773	82.1759	71.7773	82.199	71.7773	82.2347	71.7773	82.2549	71.7773	82.3032	71.7773	82.314	71.7773	82.3769	71.7773	82.3713	71.7773	82.4507	71.7773	82.4218	71.7773	82.519	71.7773	82.4612	71.7773	82.5764	71.7773	82.4863	71.7773	82.6183	71.7773	82.4958	71.7773	82.6413	71.7773	82.4909	71.7773	82.644	71.7773	82.4752	71.7773	82.6275	71.7773	82.4542	71.7773	82.5955	71.7773	82.4347	71.7773	82.5537	71.7773	82.423	71.7773	82.5092	71.7773	82.4239	71.7773	82.4692	71.7773	82.4395
74.707	82.0521	74.707	82.0647	74.707	82.0563	74.707	82.093	74.707	82.0773	74.707	82.1349	74.707	82.1139	74.707	82.1871	74.707	82.1638	74.707	82.2456	74.707	82.2236	74.707	82.3054	74.707	82.2889	74.707	82.3611	74.707	82.3542	74.707	82.4074	74.707	82.4139	74.707	82.4395	74.707	82.4621	74.707	82.4537	74.707	82.4941	74.707	82.4485	74.707	82.5061	74.707	82.4251	74.707	82.4969	74.707	82.3876	74.707	82.4679	74.707	82.3426	74.707	82.4235	74.707	82.2988	74.707	82.3709	74.707	82.2648	74.707	82.3191	74.707	82.2478	74.707	82.277	74.707	82.2519
77.6367	81.9847	77.6367	82.0003	77.6367	81.9853	77.6367	82.031	77.6367	82.0021	77.6367	82.0746	77.6367	82.034	77.6367	82.128	77.6367	82.0788	77.6367	82.187	77.6367	82.1335	77.6367	82.2467	77.6367	82.1934	77.6367	82.3013	77.6367	82.2533	77.6367	82.3452	77.6367	82.3074	77.6367	82.3729	77.6367	82.3497	77.6367	82.3805	77.6367	82.375	77.6367	82.3661	77.6367	82.3796	77.6367	82.3307	77.6367	82.362	77.6367	82.2788	77.6367	82.3237	77.6367	82.218	77.6367	82.2698	77.6367	82.1581	77.6367	82.2082	77.6367	82.1097	77.6367	82.1494	77.6367	82.0818	77.6367	82.1037	77.6367	82.0796
79.1016	81.9642	79.1016	81.9807	79.1016	81.9629	79.1016	82.0111	79.1016	81.9769	79.1016	82.0533	79.1016	82.0053	79.1016	82.1043	79.1016	82.0462	79.1016	82.1599	79.1016	82.0964	79.1016	82.2153	79.1016	82.1518	79.1016	82.2649	79.1016	82.207	79.1016	82.303	79.1016	82.2561	79.1016	82.3243	79.1016	82.2932	79.1016	82.325	79.1016	82.3129	79.1016	82.3031	79.1016	82.3112	79.1016	82.2597	79.1016	82.2866	79.1016	82.1994	79.1016	82.2409	79.1016	82.1302	79.1016	82.1794	79.1016	82.0624	79.1016	82.1107	79.1016	82.0075	79.1016	82.046	79.1016	81.9751	79.1016	81.9964	79.1016	81.9712
82.0312	81.9942	82.0312	82.0176	82.0312	81.9841	82.0312	82.053	82.0312	81.9877	82.0312	82.0982	82.0312	82.0045	82.0312	82.1499	82.0312	82.0328	82.0312	82.204	82.0312	82.0698	82.0312	82.2555	82.0312	82.1115	82.0312	82.2986	82.0312	82.1528	82.0312	82.3274	82.0312	82.1879	82.0312	82.3365	82.0312	82.2106	82.0312	82.3218	82.0312	82.2157	82.0312	82.2814	82.0312	82.1991	82.0312	82.2165	82.0312	82.1596	82.0312	82.1323	82.0312	82.0993	82.0312	82.0379	82.0312	82.0244	82.0312	81.9454	82.0312	81.9448	82.0312	81.868	82.0312	81.8731	82.0312	81.8176	82.0312	81.822	82.0312	81.8018
84.9609	82.2335	84.9609	82.2829	84.9609	82.1879	84.9609	82.335	84.9609	82.1468	84.9609	82.3877	84.9609	82.1105	84.9609	82.4384	84.9609	82.0785	84.9609	82.4833	84.9609	82.0496	84.9609	82.5176	84.9609	82.0219	84.9609	82.5357	84.9609	81.9924	84.9609	82.5316	84.9609	81.9573	84.9609	82.4995	84.9609	81.9123	84.9609	82.435	84.9609	81.8537	84.9609	82.3357	84.9609	81.7792	84.9609	82.203	84.9609	81.6891	84.9609	82.0428	84.9609	81.5876	84.9609	81.8661	84.9609	81.4838	84.9609	81.6882	84.9609	81.3905	84.9609	81.5273	84.9609	81.3234	84.9609	81.4008	84.9609	81.2972	84.9609	81.3221
87.8906	81.7097	87.8906	81.6985	87.8906	81.7485	87.8906	81.7146	87.8906	81.8131	87.8906	81.7556	87.8906	81.9	87.8906	81.8171	87.8906	82.0038	87.8906	81.8931	87.8906	82.1176	87.8906	81.976	87.8906	82.2334	87.8906	82.0577	87.8906	82.3428	87.8906	82.13	87.8906	82.4372	87.8906	82.1856	87.8906	82.5092	87.8906	82.2196	87.8906	82.5529	87.8906	82.2295	87.8906	82.5647	87.8906	82.2168	87.8906	82.5442	87.8906	82.1866	87.8906	82.4944	87.8906	82.1478	87.8906	82.4219	87.8906	82.1115	87.8906	82.3365	87.8906	82.0892	87.8906	82.2497	87.8906	82.0899	87.8906	82.1736	87.8906	82.1183
90.8203	81.9799	90.8203	82.0066	90.8203	81.9598	90.8203	82.0391	90.8203	81.9474	90.8203	82.0769	90.8203	81.9437	90.8203	82.1191	90.8203	81.9501	90.8203	82.1641	90.8203	81.9668	90.8203	82.209	90.8203	81.9931	90.8203	82.2497	90.8203	82.0264	90.8203	82.2809	90.8203	82.0622	90.8203	82.2971	90.8203	82.0948	90.8203	82.2931	90.8203	82.1177	90.8203	82.2657	90.8203	82.1249	90.8203	82.2148	90.8203	82.1123	90.8203	82.1441	90.8203	82.0793	90.8203	82.0619	90.8203	82.0292	90.8203	81.9796	90.8203	81.9697	90.8203	81.9102	90.8203	81.9121	90.8203	81.8651	90.8203	81.869	90.8203	81.8513
95.2148	82.5201	95.2148	82.5357	95.2148	82.5107	95.2148	82.5566	95.2148	82.5079	95.2148	82.5811	95.2148	82.5114	95.2148	82.6068	95.2148	82.52	95.2148	82.6301	95.2148	82.5316	95.2148	82.6463	95.2148	82.543	95.2148	82.6498	95.2148	82.5497	95.2148	82.6348	95.2148	82.5462	95.2148	82.5958	95.2148	82.5265	95.2148	82.5285	95.2148	82.4851	95.2148	82.4317	95.2148	82.4179	95.2148	82.3078	95.2148	82.3239	95.2148	82.1642	95.2148	82.2058	95.2148	82.0133	95.2148	82.0716	95.2148	81.8721	95.2148	81.9344	95.2148	81.759	95.2148	81.8113	95.2148	81.6908	95.2148	81.7205	95.2148	81.6776
98.1445	82.1222	98.1445	82.1346	98.1445	82.1206	98.1445	82.1577	98.1445	82.1294	98.1445	82.1906	98.1445	82.1477	98.1445	82.2314	98.1445	82.174	98.1445	82.2768	98.1445	82.2061	98.1445	82.322	98.1445	82.2406	98.1445	82.3609	98.1445	82.2731	98.1445	82.3865	98.1445	82.2981	98.1445	82.3921	98.1445	82.3099	98.1445	82.372	98.1445	82.3026	98.1445	82.323	98.1445	82.2719	98.1445	82.2456	98.1445	82.2161	98.1445	82.1454	98.1445	82.1371	98.1445	82.0325	98.1445	82.0414	98.1445	81.9216	98.1445	81.9402	98.1445	81.829	98.1445	81.8485	98.1445	81.7697	98.1445	81.7819	98.1445	81.7535
101.074	82.0793	101.074	82.0943	101.074	82.0713	101.074	82.1157	101.074	82.0707	101.074	82.1424	101.074	82.0777	101.074	82.173	101.074	82.0919	101.074	82.2048	101.074	82.1116	101.074	82.2342	101.074	82.1342	101.074	82.2562	101.074	82.1553	101.074	82.265	101.074	82.1696	101.074	82.2545	101.074	82.1709	101.074	82.2197	101.074	82.1535	101.074	82.1578	101.074	82.1128	101.074	82.0694	101.074	82.0471	101.074	81.9597	101.074	81.9585	101.074	81.8391	101.074	81.854	101.074	81.722	101.074	81.7451	101.074	81.6249	101.074	81.6472	101.074	81.563	101.074	81.5765	101.074	81.5462
105.469	82.727	105.469	82.7449	105.469	82.707	105.469	82.76	105.469	82.686	105.469	82.7719	105.469	82.6649	105.469	82.7794	105.469	82.6449	105.469	82.781	105.469	82.6263	105.469	82.7738	105.469	82.6083	105.469	82.7534	105.469	82.5884	105.469	82.7149	105.469	82.5621	105.469	82.6526	105.469	82.5237	105.469	82.5621	105.469	82.4668	105.469	82.4415	105.469	82.3862	105.469	82.2929	105.469	82.2793	105.469	82.1239	105.469	82.1477	105.469	81.9483	105.469	81.9991	105.469	81.7849	105.469	81.8469	105.469	81.6546	105.469	81.7098	105.469	81.576	105.469	81.6084	105.469	81.5604
108.398	82.9316	108.398	82.9484	108.398	82.9134	108.398	82.9638	108.398	82.8941	108.398	82.9773	108.398	82.8738	108.398	82.988	108.398	82.8528	108.398	82.9937	108.398	82.8307	108.398	82.9908	108.398	82.8063	108.398	82.9743	108.398	82.7771	108.398	82.9383	108.398	82.7393	108.398	82.8768	108.398	82.6877	108.398	82.7847	108.398	82.6172	108.398	82.6599	108.398	82.5236	108.398	82.5046	108.398	82.4053	108.398	82.3264	108.398	82.2651	108.398	82.1393	108.398	82.1112	108.398	81.9624	108.398	81.9581	108.398	81.8175	108.398	81.8245	108.398	81.7239	108.398	81.7309	108.398	81.6944
112.793	83.2143	112.793	83.2212	112.793	83.2048	112.793	83.226	112.793	83.1922	112.793	83.229	112.793	83.176	112.793	83.2297	112.793	83.1558	112.793	83.2264	112.793	83.1305	112.793	83.2157	112.793	83.0982	112.793	83.1927	112.793	83.0559	112.793	83.1511	112.793	82.9994	112.793	83.0842	112.793	82.9244	112.793	82.9862	112.793	82.8264	112.793	82.854	112.793	82.703	112.793	82.6891	112.793	82.5547	112.793	82.4986	112.793	82.3869	112.793	82.2963	112.793	82.2104	112.793	82.1019	112.793	82.0417	112.793	81.9381	112.793	81.901	112.793	81.8264	112.793	81.8091	112.793	81.7819
117.188	82.8502	117.188	82.8377	117.188	82.8644	117.188	82.8272	117.188	82.8794	117.188	82.8191	117.188	82.8946	117.188	82.8127	117.188	82.9089	117.188	82.806	117.188	82.9206	117.188	82.7953	117.188	82.9265	117.188	82.7754	117.188	82.9222	117.188	82.7397	117.188	82.9019	117.188	82.6814	117.188	82.8588	117.188	82.5949	117.188	82.7867	117.188	82.4776	117.188	82.6811	117.188	82.3312	117.188	82.5412	117.188	82.1634	117.188	82.3713	117.188	81.9884	117.188	82.1823	117.188	81.8261	117.188	81.9913	117.188	81.6988	117.188	81.82	117.188	81.6269	117.188	81.6912	117.188	81.6236
120.117	82.8823	120.117	82.8661	120.117	82.8996	120.117	82.8518	120.117	82.9173	120.117	82.8402	120.117	82.9349	120.117	82.8312	120.117	82.9517	120.117	82.8238	120.117	82.9666	120.117	82.8148	120.117	82.9772	120.117	82.7997	120.117	82.9795	120.117	82.7722	120.117	82.9681	120.117	82.7258	120.117	82.937	120.117	82.6552	120.117	82.88	120.117	82.5575	120.117	82.7928	120.117	82.4346	120.117	82.6743	120.117	82.2936	120.117	82.5283	120.117	82.1474	120.117	82.3641	120.117	82.0134	120.117	82.1966	120.117	81.911	120.117	82.0446	120.117	81.8572	120.117	81.9278	120.117	81.8625
124.512	83.1912	124.512	83.1897	124.512	83.1905	124.512	83.1855	124.512	83.1878	124.512	83.1784	124.512	83.1838	124.512	83.1678	124.512	83.1784	124.512	83.1517	124.512	83.1708	124.512	83.1271	124.512	83.1587	124.512	83.0892	124.512	83.1379	124.512	83.0322	124.512	83.1031	124.512	82.9503	124.512	83.0478	124.512	82.839	124.512	82.9661	124.512	82.6974	124.512	82.854	124.512	82.5294	124.512	82.711	124.512	82.3448	124.512	82.5412	124.512	82.1595	124.512	82.3549	124.512	81.9936	124.512	82.168	124.512	81.8684	124.512	82.0002	124.512	81.8015	124.512	81.8727	124.512	81.803
128.906	83.2184	128.906	83.2213	128.906	83.2106	128.906	83.2191	128.906	83.1987	128.906	83.2122	128.906	83.1842	128.906	83.2006	128.906	83.1684	128.906	83.1838	128.906	83.1523	128.906	83.1593	128.906	83.135	128.906	83.1231	128.906	83.1138	128.906	83.0696	128.906	83.0837	128.906	82.9931	128.906	83.0384	128.906	82.8891	128.906	82.9711	128.906	82.7561	128.906	82.8765	128.906	82.5978	128.906	82.7526	128.906	82.4236	128.906	82.6023	128.906	82.2489	128.906	82.4342	128.906	82.0932	128.906	82.2628	128.906	81.9768	128.906	82.107	128.906	81.916	128.906	81.9869	128.906	81.9197
133.301	83.268	133.301	83.2852	133.301	83.2424	133.301	83.2939	133.301	83.2093	133.301	83.2944	133.301	83.1705	133.301	83.2873	133.301	83.1284	133.301	83.2718	133.301	83.0846	133.301	83.2457	133.301	83.0399	133.301	83.205	133.301	82.9927	133.301	83.1442	133.301	82.9395	133.301	83.0576	133.301	82.8749	133.301	82.9407	133.301	82.7933	133.301	82.7925	133.301	82.69	133.301	82.6171	133.301	82.5635	133.301	82.4247	133.301	82.4169	133.301	82.2312	133.301	82.2588	133.301	82.0566	133.301	82.1028	133.301	81.9209	133.301	81.9665	133.301	81.8401	133.301	81.8679	133.301	81.8227
139.16	83.282	139.16	83.2883	139.16	83.2667	139.16	83.2867	139.16	83.2417	139.16	83.279	139.16	83.2077	139.16	83.2664	139.16	83.1652	139.16	83.2485	139.16	83.1149	139.16	83.2229	139.16	83.0562	139.16	83.1843	139.16	82.9869	139.16	83.1256	139.16	82.9033	139.16	83.039	139.16	82.801	139.16	82.918	139.16	82.6756	139.16	82.76	139.16	82.5253	139.16	82.5676	139.16	82.3523	139.16	82.3508	139.16	82.1642	139.16	82.1258	139.16	81.9743	139.16	81.9138	139.16	81.8005	139.16	81.7372	139.16	81.6624	139.16	81.6152	139.16	81.5783	139.16	81.5609
143.555	83.0996	143.555	83.0919	143.555	83.0973	143.555	83.0758	143.555	83.0851	143.555	83.0535	143.555	83.0639	143.555	83.0272	143.555	83.0354	143.555	82.9979	143.555	83.0007	143.555	82.9643	143.555	82.9595	143.555	82.9223	143.555	82.9092	143.555	82.8652	143.555	82.845	143.555	82.7853	143.555	82.7607	143.555	82.6757	143.555	82.6503	143.555	82.5331	143.555	82.5102	143.555	82.3598	143.555	82.3418	143.555	82.1646	143.555	82.1522	143.555	81.963	143.555	81.9557	143.555	81.7749	143.555	81.7712	143.555	81.6216	143.555	81.6199	143.555	81.5211	143.555	81.5205	143.555	81.4861
147.949	83.0251	147.949	83.0102	147.949	83.0261	147.949	82.9825	147.949	83.0135	147.949	82.9447	147.949	82.9894	147.949	82.9001	147.949	82.9565	147.949	82.851	147.949	82.9173	147.949	82.7979	147.949	82.8727	147.949	82.7384	147.949	82.8213	147.949	82.6674	147.949	82.7591	147.949	82.5783	147.949	82.68	147.949	82.4653	147.949	82.5778	147.949	82.3256	147.949	82.448	147.949	82.1616	147.949	82.2905	147.949	81.9825	147.949	82.1112	147.949	81.8028	147.949	81.9222	147.949	81.641	147.949	81.7411	147.949	81.5155	147.949	81.5875	147.949	81.4416	147.949	81.4792	147.949	81.4287
153.809	83.1345	153.809	83.1167	153.809	83.1329	153.809	83.0814	153.809	83.1118	153.809	83.0323	153.809	83.073	153.809	82.9733	153.809	83.0197	153.809	82.9076	153.809	82.9553	153.809	82.8363	153.809	82.8824	153.809	82.7572	153.809	82.8013	153.809	82.6654	153.809	82.7096	153.809	82.5546	153.809	82.6028	153.809	82.4187	153.809	82.4756	153.809	82.2555	153.809	82.3242	153.809	82.0683	153.809	82.1489	153.809	81.8672	153.809	81.9555	153.809	81.6685	153.809	81.7564	153.809	81.4915	153.809	81.569	153.809	81.3551	153.809	81.4126	153.809	81.2739	153.809	81.3044	153.809	81.2565
159.668	83.4881	159.668	83.4778	159.668	83.4763	159.668	83.446	159.668	83.4435	159.668	83.3948	159.668	83.3931	159.668	83.3273	159.668	83.3292	159.668	83.2463	159.668	83.2562	159.668	83.1535	159.668	83.1772	159.668	83.048	159.668	83.0933	159.668	82.9276	159.668	83.0025	159.668	82.7886	159.668	82.9006	159.668	82.6288	159.668	82.7827	159.668	82.4495	159.668	82.6454	159.668	82.2575	159.668	82.4886	159.668	82.0652	159.668	82.3171	159.668	81.8899	159.668	82.1402	159.668	81.7489	159.668	81.9707	159.668	81.656	159.668	81.8223	159.668	81.6186	159.668	81.7077	159.668	81.6372
165.527	83.5694	165.527	83.5662	165.527	83.5472	165.527	83.5397	165.527	83.4996	165.527	83.4937	165.527	83.4288	165.527	83.4328	165.527	83.3385	165.527	83.3608	165.527	83.2334	165.527	83.2794	165.527	83.1178	165.527	83.1875	165.527	82.9943	165.527	83.0809	165.527	82.8635	165.527	82.9542	165.527	82.7242	165.527	82.803	165.527	82.5744	165.527	82.6268	165.527	82.4138	165.527	82.4311	165.527	82.2457	165.527	82.2277	165.527	82.0779	165.527	82.0333	165.527	81.9217	165.527	81.865	165.527	81.7895	165.527	81.7363	165.527	81.6913	165.527	81.6544	165.527	81.6338	165.527	81.6206
171.387	83.617	171.387	83.5862	171.387	83.6224	171.387	83.531	171.387	83.603	171.387	83.4544	171.387	83.5609	171.387	83.3603	171.387	83.4988	171.387	83.2529	171.387	83.4191	171.387	83.1354	171.387	83.3228	171.387	83.0088	171.387	83.209	171.387	82.8719	171.387	83.0746	171.387	82.7219	171.387	82.916	171.387	82.5565	171.387	82.7305	171.387	82.3765	171.387	82.5193	171.387	82.187	171.387	82.2901	171.387	81.9977	171.387	82.0572	171.387	81.8214	171.387	81.8403	171.387	81.67	171.387	81.6599	171.387	81.5526	171.387	81.5306	171.387	81.4751	171.387	81.4587	171.387	81.442
177.246	83.5333	177.246	83.5211	177.246	83.5185	177.246	83.4817	177.246	83.479	177.246	83.4167	177.246	83.4192	177.246	83.3289	177.246	83.3442	177.246	83.221	177.246	83.259	177.246	83.0947	177.246	83.1663	177.246	82.9496	177.246	83.0656	177.246	82.7843	177.246	82.9529	177.246	82.5968	177.246	82.8216	177.246	82.3878	177.246	82.6652	177.246	82.1628	177.246	82.4803	177.246	81.9336	177.246	82.27	177.246	81.717	177.246	82.0451	177.246	81.5313	177.246	81.8228	177.246	81.3909	177.246	81.6227	177.246	81.3028	177.246	81.4611	177.246	81.2674	177.246	81.3468	177.246	81.2823
183.105	83.4651	183.105	83.4582	183.105	83.4395	183.105	83.4206	183.105	83.3821	183.105	83.356	183.105	83.2965	183.105	83.2689	183.105	83.1884	183.105	83.1632	183.105	83.0648	183.105	83.041	183.105	82.9325	183.105	82.9022	183.105	82.7961	183.105	82.7446	183.105	82.6569	183.105	82.5663	183.105	82.5133	183.105	82.368	183.105	82.3622	183.105	82.156	183.105	82.2024	183.105	81.9434	183.105	82.0369	183.105	81.7483	183.105	81.8735	183.105	81.5886	183.105	81.7236	183.105	81.476	183.105	81.5978	183.105	81.4117	183.105	81.5021	183.105	81.3891	183.105	81.4367	183.105	81.3991
188.965	83.563	188.965	83.5364	188.965	83.5499	188.965	83.4727	188.965	83.4965	188.965	83.376	188.965	83.4041	188.965	83.2519	188.965	83.2754	188.965	83.106	188.965	83.114	188.965	82.9425	188.965	82.9238	188.965	82.7634	188.965	82.7091	188.965	82.568	188.965	82.4742	188.965	82.3549	188.965	82.2244	188.965	82.1248	188.965	81.9671	188.965	81.8835	188.965	81.7135	188.965	81.6444	188.965	81.4787	188.965	81.4266	188.965	81.2798	188.965	81.2493	188.965	81.1308	188.965	81.1234	188.965	81.0367	188.965	81.0463	188.965	80.9907	188.965	81.0051	188.965	80.9781	188.965	80.9847
196.289	83.6191	196.289	83.5912	196.289	83.6099	196.289	83.5268	196.289	83.5646	196.289	83.4284	196.289	83.4854	196.289	83.2992	196.289	83.375	196.289	83.1428	196.289	83.2351	196.289	82.9615	196.289	83.0655	196.289	82.7561	196.289	82.8641	196.289	82.5269	196.289	82.6274	196.289	82.2747	196.289	82.3533	196.289	82.0044	196.289	82.0449	196.289	81.7269	196.289	81.7142	196.289	81.4593	196.289	81.3845	196.289	81.2213	196.289	81.0877	196.289	81.029	196.289	80.8556	196.289	80.8875	196.289	80.7075	196.289	80.7893	196.289	80.6413	196.289	80.72	196.289	80.6368	196.289	80.6687
203.613	83.4425	203.613	83.4007	203.613	83.4413	203.613	83.3161	203.613	83.3995	203.613	83.1914	203.613	83.3213	203.613	83.0303	203.613	83.2118	203.613	82.8371	203.613	83.0749	203.613	82.6144	203.613	82.9108	203.613	82.3636	203.613	82.7152	203.613	82.0846	203.613	82.48	203.613	81.7781	203.613	82.1966	203.613	81.4498	203.613	81.8611	203.613	81.1138	203.613	81.4811	203.613	80.7937	203.613	81.0801	203.613	80.5184	203.613	80.6979	203.613	80.3111	203.613	80.3806	203.613	80.1772	203.613	80.1628	203.613	80.1013	203.613	80.0498	203.613	80.0578	203.613	80.0173	203.613	80.0287
210.938	83.6037	210.938	83.5764	210.938	83.5921	210.938	83.5111	210.938	83.5429	210.938	83.4096	210.938	83.4594	210.938	83.2737	210.938	83.3459	210.938	83.103	210.938	83.2065	210.938	82.8947	210.938	83.0419	210.938	82.6435	210.938	82.8482	210.938	82.344	210.938	82.6169	210.938	81.9942	210.938	82.3371	210.938	81.6	210.938	82.0008	210.938	81.1798	210.938	81.6098	210.938	80.7652	210.938	81.1822	210.938	80.3968	210.938	80.7542	210.938	80.1106	210.938	80.3737	210.938	79.922	210.938	80.0829	210.938	79.8201	210.938	79.8985	210.938	79.7778	210.938	79.8056	210.938	79.773
218.262	83.3366	218.262	83.3201	218.262	83.3129	218.262	83.2639	218.262	83.2524	218.262	83.1714	218.262	83.162	218.262	83.0469	218.262	83.051	218.262	82.8932	218.262	82.9278	218.262	82.7102	218.262	82.7968	218.262	82.4942	218.262	82.6551	218.262	82.2396	218.262	82.4924	218.262	81.9434	218.262	82.2937	218.262	81.6092	218.262	82.0457	218.262	81.2528	218.262	81.7438	218.262	80.9021	218.262	81.3991	218.262	80.593	218.262	81.0405	218.262	80.3563	218.262	80.7092	218.262	80.2048	218.262	80.4441	218.262	80.1284	218.262	80.2644	218.262	80.1045	218.262	80.1626	218.262	80.1157
225.586	83.3877	225.586	83.395	225.586	83.325	225.586	83.3514	225.586	83.2065	225.586	83.2636	225.586	83.0366	225.586	83.1375	225.586	82.8243	225.586	82.9765	225.586	82.5818	225.586	82.7788	225.586	82.3214	225.586	82.5384	225.586	82.0525	225.586	82.2483	225.586	81.7781	225.586	81.9056	225.586	81.4963	225.586	81.5195	225.586	81.2048	225.586	81.1163	225.586	80.9086	225.586	80.739	225.586	80.6257	225.586	80.4367	225.586	80.3864	225.586	80.2434	225.586	80.2206	225.586	80.1587	225.586	80.1406	225.586	80.1485	225.586	80.1301	225.586	80.1646	225.586	80.1521	225.586	80.1695
232.91	83.7156	232.91	83.6565	232.91	83.7175	232.91	83.5497	232.91	83.6567	232.91	83.4059	232.91	83.5311	232.91	83.2347	232.91	83.3423	232.91	83.0405	232.91	83.0939	232.91	82.8192	232.91	82.7892	232.91	82.5578	232.91	82.4299	232.91	82.2383	232.91	82.0143	232.91	81.8456	232.91	81.5392	232.91	81.3783	232.91	81.0057	232.91	80.8592	232.91	80.4294	232.91	80.3407	232.91	79.853	232.91	79.8941	232.91	79.3504	232.91	79.5788	232.91	79.0061	232.91	79.4041	232.91	78.8673	232.91	79.323	232.91	78.9057	232.91	79.2631	232.91	79.0358	232.91	79.1703
241.699	83.6284	241.699	83.5544	241.699	83.6585	241.699	83.4439	241.699	83.6424	241.699	83.3075	241.699	83.5816	241.699	83.1559	241.699	83.4799	241.699	82.9953	241.699	83.3407	241.699	82.8224	241.699	83.1633	241.699	82.6222	241.699	82.9408	241.699	82.371	241.699	82.6597	241.699	82.0447	241.699	82.3029	241.699	81.6301	241.699	81.8558	241.699	81.1368	241.699	81.3164	241.699	80.6055	241.699	80.7072	241.699	80.1041	241.699	80.0856	241.699	79.7024	241.699	79.5417	241.699	79.4336	241.699	79.166	241.699	79.2738	241.699	78.9962	241.699	79.1662	241.699	78.9915	241.699	79.0692
250.488	84.0596	250.488	83.9819	250.488	84.0813	250.488	83.8554	250.488	84.0446	250.488	83.6911	250.488	83.9517	250.488	83.5019	250.488	83.8077	250.488	83.2981	250.488	83.6193	250.488	83.0813	250.488	83.3922	250.488	82.8415	250.488	83.1286	250.488	82.5574	250.488	82.8252	250.488	82.2046	250.488	82.4738	250.488	81.7677	250.488	82.0647	250.488	81.2545	250.488	81.594	250.488	80.7061	250.488	81.0744	250.488	80.1954	250.488	80.5446	250.488	79.8009	250.488	80.0691	250.488	79.5632	250.488	79.7148	250.488	79.4598	250.488	79.5124	250.488	79.4293	250.488	79.4348	250.488	79.4221
259.277	83.7573	259.277	83.678	259.277	83.7933	259.277	83.5609	259.277	83.7863	259.277	83.4166	259.277	83.7405	259.277	83.2585	259.277	83.6617	259.277	83.0965	259.277	83.5528	259.277	82.9312	259.277	83.4107	259.277	82.7486	259.277	83.224	259.277	82.5221	259.277	82.9743	259.277	82.2214	259.277	82.6415	259.277	81.827	259.277	82.2119	259.277	81.3449	259.277	81.6886	259.277	80.8187	259.277	81.1029	259.277	80.3258	259.277	80.5209	259.277	79.9492	259.277	80.0324	259.277	79.7297	259.277	79.712	259.277	79.6397	259.277	79.572	259.277	79.6104	259.277	79.5561	259.277	79.5851
268.066	83.6885	268.066	83.572	268.066	83.754	268.066	83.4056	268.066	83.7711	268.066	83.1964	268.066	83.7449	268.066	82.9576	268.066	83.6806	268.066	82.7063	268.066	83.5813	268.066	82.4568	268.066	83.4446	268.066	82.2118	268.066	83.261	268.066	81.9565	268.066	83.014	268.066	81.6627	268.066	82.6827	268.066	81.3039	268.066	82.2492	268.066	80.8759	268.066	81.7082	268.066	80.4124	268.066	81.0799	268.066	79.9843	268.066	80.4235	268.066	79.6679	268.066	79.8383	268.066	79.4938	268.066	79.4305	268.066	79.4225	268.066	79.2484	268.066	79.3793	268.066	79.244	268.066	79.3147
276.855	83.7574	276.855	83.7191	276.855	83.7588	276.855	83.6412	276.855	83.7319	276.855	83.5265	276.855	83.6889	276.855	83.3805	276.855	83.6404	276.855	83.2078	276.855	83.5887	276.855	83.0071	276.855	83.5223	276.855	82.7685	276.855	83.4157	276.855	82.473	276.855	83.2352	276.855	82.0983	276.855	82.9485	276.855	81.6294	276.855	82.5351	276.855	81.0744	276.855	81.9976	276.855	80.4807	276.855	81.3714	276.855	79.9394	276.855	80.7307	276.855	79.5567	276.855	80.1769	276.855	79.3869	276.855	79.7971	276.855	79.3884	276.855	79.6084	276.855	79.4592	276.855	79.5465	276.855	79.5164
287.109	83.4761	287.109	83.4291	287.109	83.4499	287.109	83.3138	287.109	83.3574	287.109	83.1449	287.109	83.2189	287.109	82.9443	287.109	83.0665	287.109	82.7355	287.109	82.9365	287.109	82.5362	287.109	82.853	287.109	82.3477	287.109	82.8097	287.109	82.1504	287.109	82.7643	287.109	81.9087	287.109	82.6525	287.109	81.587	287.109	82.4135	287.109	81.1713	287.109	82.0147	287.109	80.6898	287.109	81.4683	287.109	80.2196	287.109	80.8426	287.109	79.8585	287.109	80.2548	287.109	79.663	287.109	79.8271	287.109	79.6045	287.109	79.6137	287.109	79.6003	287.109	79.5667	287.109	79.5866
297.363	83.9048	297.363	83.8342	297.363	83.89	297.363	83.6871	297.363	83.7886	297.363	83.4813	297.363	83.6068	297.363	83.2414	297.363	83.3574	297.363	82.9938	297.363	83.0598	297.363	82.7573	297.363	82.7371	297.363	82.5319	297.363	82.4101	297.363	82.2961	297.363	82.0852	297.363	82.0148	297.363	81.7467	297.363	81.6567	297.363	81.3606	297.363	81.2139	297.363	80.8968	297.363	80.7188	297.363	80.3602	297.363	80.2484	297.363	79.8164	297.363	79.8966	297.363	79.386	297.363	79.7128	297.363	79.1805	297.363	79.6562	297.363	79.2104	297.363	79.6256	297.363	79.3725	297.363	79.5356
307.617	84.0094	307.617	83.8867	307.617	84.0506	307.617	83.6795	307.617	84.0225	307.617	83.3953	307.617	83.9436	307.617	83.0542	307.617	83.8348	307.617	82.6874	307.617	83.7137	307.617	82.332	307.617	83.5867	307.617	82.0169	307.617	83.4433	307.617	81.7473	307.617	83.2542	307.617	81.4975	307.617	82.9776	307.617	81.2236	307.617	82.5701	307.617	80.8892	307.617	82.0027	307.617	80.493	307.617	81.2803	307.617	80.0814	307.617	80.4656	307.617	79.7317	307.617	79.6967	307.617	79.5004	307.617	79.1525	307.617	79.3719	307.617	78.9366	307.617	79.2716	307.617	78.9851	307.617	79.1368
319.336	84.4156	319.336	84.3787	319.336	84.3371	319.336	84.2274	319.336	84.1506	319.336	83.9681	319.336	83.8755	319.336	83.6099	319.336	83.5471	319.336	83.1634	319.336	83.2155	319.336	82.639	319.336	82.9344	319.336	82.0468	319.336	82.7381	319.336	81.4002	319.336	82.6178	319.336	80.725	319.336	82.5192	319.336	80.0717	319.336	82.3648	319.336	79.5199	319.336	82.0875	319.336	79.1553	319.336	81.6577	319.336	79.02	319.336	81.1025	319.336	79.0803	319.336	80.5137	319.336	79.2459	319.336	80.0226	319.336	79.4202	319.336	79.726	319.336	79.5379	319.336	79.6135	319.336	79.5855
329.59	84.53	329.59	84.4689	329.59	84.4827	329.59	84.3029	329.59	84.331	329.59	84.0432	329.59	84.0883	329.59	83.7077	329.59	83.7786	329.59	83.3184	329.59	83.4365	329.59	82.8962	329.59	83.1021	329.59	82.4528	329.59	82.8071	329.59	81.9864	329.59	82.5578	329.59	81.4858	329.59	82.3263	329.59	80.946	329.59	82.0621	329.59	80.3893	329.59	81.7177	329.59	79.8802	329.59	81.2774	329.59	79.5132	329.59	80.7768	329.59	79.358	329.59	80.3029	329.59	79.3989	329.59	79.957	329.59	79.5393	329.59	79.786	329.59	79.6701	329.59	79.7445	329.59	79.7329
341.309	84.4894	341.309	84.5163	341.309	84.3498	341.309	84.4382	341.309	84.0939	341.309	84.2634	341.309	83.7275	341.309	84	341.309	83.2738	341.309	83.6539	341.309	82.7807	341.309	83.2264	341.309	82.3225	341.309	82.7107	341.309	81.98	341.309	82.0914	341.309	81.7978	341.309	81.3553	341.309	81.7485	341.309	80.5179	341.309	81.7465	341.309	79.6667	341.309	81.6997	341.309	78.9886	341.309	81.5553	341.309	78.6982	341.309	81.3173	341.309	78.8497	341.309	81.0395	341.309	79.2735	341.309	80.7934	341.309	79.7417	341.309	80.62	341.309	80.1139	341.309	80.4971	341.309	80.3534
353.027	84.6479	353.027	84.5676	353.027	84.6272	353.027	84.3958	353.027	84.4973	353.027	84.143	353.027	84.2499	353.027	83.8222	353.027	83.8778	353.027	83.4482	353.027	83.3765	353.027	83.0338	353.027	82.7492	353.027	82.5837	353.027	82.0145	353.027	82.0888	353.027	81.2166	353.027	81.529	353.027	80.4322	353.027	80.8907	353.027	79.7609	353.027	80.1987	353.027	79.2942	353.027	79.5491	353.027	79.0803	353.027	79.1049	353.027	79.1111	353.027	79.0025	353.027	79.3303	353.027	79.2234	353.027	79.6455	353.027	79.6001	353.027	79.9465	353.027	79.9453	353.027	80.1328	353.027	80.138
366.211	84.7837	366.211	84.6043	366.211	84.8627	366.211	84.3359	366.211	84.8359	366.211	83.9919	366.211	84.7039	366.211	83.5816	366.211	84.4717	366.211	83.1062	366.211	84.1442	366.211	82.5599	366.211	83.7196	366.211	81.939	366.211	83.1842	366.211	81.2529	366.211	82.5105	366.211	80.5315	366.211	81.6642	366.211	79.8289	366.211	80.6243	366.211	79.2265	366.211	79.4268	366.211	78.8323	366.211	78.2413	366.211	78.7407	366.211	77.4214	366.211	78.9453	366.211	77.3046	366.211	79.3057	366.211	77.817	366.211	79.6296	366.211	78.5638	366.211	79.7665	366.211	79.2209	366.211	79.6365
379.395	84.3336	379.395	84.2515	379.395	84.3577	379.395	84.1206	379.395	84.3226	379.395	83.956	379.395	84.234	379.395	83.7688	379.395	84.1002	379.395	83.5521	379.395	83.9265	379.395	83.2675	379.395	83.7097	379.395	82.8456	379.395	83.4324	379.395	82.2042	379.395	83.0636	379.395	81.2796	379.395	82.5643	379.395	80.0764	379.395	81.904	379.395	78.7529	379.395	81.0847	379.395	77.7087	379.395	80.1786	379.395	77.3993	379.395	79.3625	379.395	77.8139	379.395	78.8793	379.395	78.5152	379.395	78.8514	379.395	79.1401	379.395	79.1374	379.395	79.527	379.395	79.466	379.395	79.629
392.578	84.0637	392.578	83.9284	392.578	84.0715	392.578	83.6829	392.578	83.9549	392.578	83.3649	392.578	83.7353	392.578	83.0267	392.578	83.4487	392.578	82.716	392.578	83.1357	392.578	82.4447	392.578	82.8231	392.578	82.1653	392.578	82.5055	392.578	81.7793	392.578	82.1383	392.578	81.1752	392.578	81.6525	392.578	80.2821	392.578	80.9868	392.578	79.1531	392.578	80.1349	392.578	78.1031	392.578	79.2148	392.578	77.7012	392.578	78.5254	392.578	78.1748	392.578	78.4077	392.578	79.0613	392.578	78.8677	392.578	79.8495	392.578	79.5529	392.578	80.3131	392.578	80.1226	392.578	80.3991
405.762	84.0672	405.762	83.9637	405.762	84.0399	405.762	83.7293	405.762	83.8926	405.762	83.3776	405.762	83.6451	405.762	82.9409	405.762	83.3256	405.762	82.467	405.762	82.9655	405.762	82.0001	405.762	82.5871	405.762	81.5456	405.762	82.1866	405.762	81.0471	405.762	81.725	405.762	80.4026	405.762	81.1349	405.762	79.5224	405.762	80.3471	405.762	78.4267	405.762	79.3391	405.762	77.4032	405.762	78.2288	405.762	77.0423	405.762	77.395	405.762	77.6187	405.762	77.3269	405.762	78.6354	405.762	78.0161	405.762	79.5191	405.762	78.9458	405.762	80.0167	405.762	79.6916	405.762	80.0696
420.41	84.2335	420.41	84.1977	420.41	84.1831	420.41	84.0817	420.41	84.0629	420.41	83.9071	420.41	83.9111	420.41	83.6976	420.41	83.7753	420.41	83.4607	420.41	83.687	420.41	83.1688	420.41	83.6316	420.41	82.7527	420.41	83.5368	420.41	82.1093	420.41	83.2878	420.41	81.1178	420.41	82.7514	420.41	79.6618	420.41	81.7912	420.41	77.6945	420.41	80.273	420.41	75.5293	420.41	78.1018	420.41	74.4541	420.41	75.4969	420.41	75.4217	420.41	73.9423	420.41	77.0911	420.41	74.993	420.41	78.3746	420.41	76.9058	420.41	79.0244	420.41	78.3155	420.41	79.0127
435.059	83.7191	435.059	83.624	435.059	83.6354	435.059	83.3767	435.059	83.3636	435.059	83.0235	435.059	82.9182	435.059	82.6343	435.059	82.3553	435.059	82.2934	435.059	81.7958	435.059	82.0566	435.059	81.4138	435.059	81.8936	435.059	81.33	435.059	81.6745	435.059	81.4772	435.059	81.2215	435.059	81.6263	435.059	80.3741	435.059	81.5372	435.059	79.0483	435.059	81.0495	435.059	77.3672	435.059	80.1067	435.059	75.9634	435.059	78.8122	435.059	75.8127	435.059	77.5775	435.059	76.7577	435.059	77.0758	435.059	77.805	435.059	77.4641	435.059	78.4347	435.059	78.131	435.059	78.5287
451.172	84.4015	451.172	84.2378	451.172	84.3939	451.172	83.9247	451.172	84.2139	451.172	83.5062	451.172	83.8837	451.172	83.0531	451.172	83.4536	451.172	82.6516	451.172	82.9964	451.172	82.3562	451.172	82.5784	451.172	82.125	451.172	82.2137	451.172	81.805	451.172	81.8353	451.172	81.1859	451.172	81.3133	451.172	80.0586	451.172	80.4962	451.172	78.2664	451.172	79.2498	451.172	75.9189	451.172	77.5296	451.172	74.2536	451.172	75.6622	451.172	75.0899	451.172	74.8408	451.172	77.0351	451.172	75.847	451.172	78.525	451.172	77.4702	451.172	79.2794	451.172	78.7143	451.172	79.3303
465.82	84.2309	465.82	84.0581	465.82	84.2385	465.82	83.7375	465.82	84.0765	465.82	83.3052	465.82	83.7542	465.82	82.8237	465.82	83.3064	465.82	82.3781	465.82	82.8092	465.82	82.044	465.82	82.3763	465.82	81.8299	465.82	82.0961	465.82	81.6417	465.82	81.9354	465.82	81.3123	465.82	81.7213	465.82	80.6613	465.82	81.2264	465.82	79.5451	465.82	80.2473	465.82	77.9341	465.82	78.6432	465.82	76.1665	465.82	76.457	465.82	75.2865	465.82	74.4421	465.82	75.9005	465.82	74.274	465.82	77.0008	465.82	75.6802	465.82	77.6978	465.82	77.0266	465.82	77.7231
483.398	84.1128	483.398	83.9057	483.398	84.0916	483.398	83.4883	483.398	83.8424	483.398	82.9046	483.398	83.3861	483.398	82.2404	483.398	82.7752	483.398	81.6234	483.398	82.1122	483.398	81.166	483.398	81.5519	483.398	80.8556	483.398	81.2355	483.398	80.5174	483.398	81.1533	483.398	79.9044	483.398	81.0983	483.398	78.8027	483.398	80.7863	483.398	77.1287	483.398	79.9793	483.398	75.2428	483.398	78.5423	483.398	74.5024	483.398	76.5894	483.398	75.647	483.398	75.0003	483.398	77.2681	483.398	75.2129	483.398	78.4143	483.398	76.6703	483.398	78.911	483.398	78.0053	483.398	78.7702
499.512	83.8965	499.512	83.6493	499.512	83.966	499.512	83.2351	499.512	83.8433	499.512	82.6734	499.512	83.5155	499.512	82.0206	499.512	82.9893	499.512	81.398	499.512	82.3182	499.512	80.9579	499.512	81.6253	499.512	80.742	499.512	81.0716	499.512	80.5736	499.512	80.7274	499.512	80.1461	499.512	80.4581	499.512	79.1629	499.512	79.9846	499.512	77.3844	499.512	79.0179	499.512	74.7401	499.512	77.3236	499.512	72.2807	499.512	74.8469	499.512	72.8802	499.512	72.5361	499.512	75.1858	499.512	72.9279	499.512	76.8996	499.512	75.0731	499.512	77.7054	499.512	76.7908	499.512	77.6638
517.09	84.1114	517.09	83.9691	517.09	84.0395	517.09	83.6108	517.09	83.7612	517.09	83.0535	517.09	83.2918	517.09	82.3562	517.09	82.6712	517.09	81.6482	517.09	81.9957	517.09	81.1111	517.09	81.4295	517.09	80.8419	517.09	81.1245	517.09	80.6969	517.09	81.0593	517.09	80.3429	517.09	81.006	517.09	79.4191	517.09	80.6688	517.09	77.601	517.09	79.7868	517.09	74.7138	517.09	78.1466	517.09	72.0858	517.09	75.6833	517.09	73.3923	517.09	73.3189	517.09	76.0694	517.09	73.7134	517.09	77.8144	517.09	75.9162	517.09	78.5848	517.09	77.6496	517.09	78.5236
536.133	84.3622	536.133	84.164	536.133	84.3262	536.133	83.7299	536.133	84.0538	536.133	83.0659	536.133	83.5424	536.133	82.22	536.133	82.8025	536.133	81.3403	536.133	81.8909	536.133	80.692	536.133	80.9727	536.133	80.4746	536.133	80.3477	536.133	80.5415	536.133	80.239	536.133	80.4773	536.133	80.4555	536.133	79.8691	536.133	80.5128	536.133	78.3666	536.133	79.9768	536.133	75.614	536.133	78.5354	536.133	71.7308	536.133	75.9678	536.133	71.143	536.133	72.7251	536.133	74.5034	536.133	72.2508	536.133	76.9032	536.133	74.8419	536.133	77.984	536.133	76.9481	536.133	77.9772
555.176	84.3709	555.176	84.1805	555.176	84.3367	555.176	83.7541	555.176	84.0961	555.176	83.0986	555.176	83.6676	555.176	82.2614	555.176	83.0697	555.176	81.3779	555.176	82.3384	555.176	80.7011	555.176	81.5669	555.176	80.4522	555.176	80.9377	555.176	80.5194	555.176	80.637	555.176	80.4852	555.176	80.6217	555.176	79.9247	555.176	80.5488	555.176	78.499	555.176	79.9766	555.176	75.8734	555.176	78.483	555.176	71.9441	555.176	75.5928	555.176	70.1846	555.176	71.0672	555.176	73.3662	555.176	70.0825	555.176	76.0331	555.176	73.9969	555.176	77.3517	555.176	76.5048	555.176	77.5169
574.219	84.5996	574.219	84.3716	574.219	84.5645	574.219	83.8665	574.219	84.2626	574.219	83.0512	574.219	83.6822	574.219	81.8993	574.219	82.8165	574.219	80.4915	574.219	81.7006	574.219	79.2554	574.219	80.5218	574.219	78.9642	574.219	79.7663	574.219	79.6392	574.219	79.9138	574.219	80.3299	574.219	80.6676	574.219	80.2902	574.219	81.2727	574.219	79.1288	574.219	81.1986	574.219	76.5389	574.219	80.1109	574.219	72.7489	574.219	77.6378	574.219	72.1314	574.219	73.2862	574.219	75.1737	574.219	69.852	574.219	77.2873	574.219	73.5196	574.219	78.1454	574.219	76.5475	574.219	77.9353
594.727	84.7325	594.727	84.5663	594.727	84.7041	594.727	84.1785	594.727	84.4744	594.727	83.514	594.727	84.0028	594.727	82.5022	594.727	83.2227	594.727	81.0949	594.727	82.0653	594.727	79.4056	594.727	80.535	594.727	78.0478	594.727	78.9397	594.727	77.9385	594.727	78.1379	594.727	78.6986	594.727	78.5856	594.727	79.1239	594.727	79.3665	594.727	78.5361	594.727	79.5552	594.727	76.6307	594.727	78.7292	594.727	73.46	594.727	76.6317	594.727	71.5263	594.727	73.2291	594.727	73.7258	594.727	71.0778	594.727	76.0971	594.727	73.4884	594.727	77.2552	594.727	76.0037	594.727	77.2296
615.234	85.0527	615.234	84.8821	615.234	85.0748	615.234	84.5482	615.234	84.9411	615.234	84.012	615.234	84.6137	615.234	83.2067	615.234	84.0179	615.234	82.0735	615.234	83.0569	615.234	80.682	615.234	81.66	615.234	79.4477	615.234	79.9282	615.234	78.9846	615.234	78.4763	615.234	79.129	615.234	78.2725	615.234	78.9744	615.234	78.9983	615.234	77.7478	615.234	79.4409	615.234	74.7065	615.234	78.8992	615.234	68.4978	615.234	76.9889	615.234	67.2971	615.234	73.2264	615.234	73.306	615.234	68.1066	615.234	76.0643	615.234	70.2461	615.234	76.8885	615.234	74.2223	615.234	76.292
637.207	85.076	637.207	84.9473	637.207	85.0486	637.207	84.6537	637.207	84.8707	637.207	84.1605	637.207	84.5442	637.207	83.374	637.207	84.0396	637.207	82.1329	637.207	83.2672	637.207	80.2989	637.207	82.0876	637.207	78.1838	637.207	80.4164	637.207	77.3593	637.207	78.593	637.207	78.4922	637.207	77.8702	637.207	79.6392	637.207	78.6767	637.207	79.6326	637.207	79.4665	637.207	77.9849	637.207	79.1552	637.207	73.9569	637.207	77.2323	637.207	68.0914	637.207	73.1358	637.207	72.5444	637.207	68.9608	637.207	76.5114	637.207	72.9125	637.207	78.0558	637.207	76.3891	637.207	77.9699
659.18	84.2157	659.18	84.1901	659.18	84.1243	659.18	84.0314	659.18	83.9163	659.18	83.6823	659.18	83.5917	659.18	83.0451	659.18	83.1384	659.18	82.0201	659.18	82.5002	659.18	80.5729	659.18	81.571	659.18	78.9085	659.18	80.2815	659.18	77.81	659.18	78.8604	659.18	78.0499	659.18	78.1377	659.18	78.8426	659.18	78.6347	659.18	78.9929	659.18	79.4015	659.18	77.8561	659.18	79.3627	659.18	74.8918	659.18	77.8738	659.18	69.7139	659.18	74.1413	659.18	69.7632	659.18	66.5646	659.18	74.1056	659.18	68.7266	659.18	76.1057	659.18	74.0322	659.18	76.0932
682.617	85.0719	682.617	84.9905	682.617	84.987	682.617	84.7443	682.617	84.7501	682.617	84.3416	682.617	84.379	682.617	83.7513	682.617	83.8729	682.617	82.8445	682.617	83.1795	682.617	81.3954	682.617	82.1647	682.617	79.2446	682.617	80.6301	682.617	77.0144	682.617	78.4999	682.617	76.8293	682.617	76.6523	682.617	78.2355	682.617	77.0993	682.617	78.9431	682.617	78.6772	682.617	78.1339	682.617	79.3026	682.617	75.3505	682.617	78.3269	682.617	70.2553	682.617	75.3265	682.617	70.0299	682.617	69.9573	682.617	74.2964	682.617	70.0049	682.617	76.3031	682.617	74.3632	682.617	76.3308
707.52	84.8619	707.52	84.8224	707.52	84.7726	707.52	84.6588	707.52	84.5651	707.52	84.3493	707.52	84.2731	707.52	83.8239	707.52	83.9016	707.52	82.9824	707.52	83.3636	707.52	81.7326	707.52	82.4869	707.52	80.0633	707.52	81.0955	707.52	78.2638	707.52	79.1638	707.52	77.1785	707.52	77.2476	707.52	77.2567	707.52	76.718	707.52	77.53	707.52	77.5003	707.52	76.9895	707.52	78.013	707.52	75.1487	707.52	77.4212	707.52	72.2206	707.52	75.3773	707.52	71.4771	707.52	71.9089	707.52	73.868	707.52	70.4748	707.52	75.4082	707.52	73.2736	707.52	75.2326
732.422	85.3417	732.422	85.2396	732.422	85.2574	732.422	84.9539	732.422	84.9902	732.422	84.489	732.422	84.5481	732.422	83.8213	732.422	83.9397	732.422	82.8541	732.422	83.1567	732.422	81.419	732.422	82.1423	732.422	79.4481	732.422	80.7633	732.422	77.6116	732.422	78.8742	732.422	77.4081	732.422	76.812	732.422	78.1142	732.422	76.2617	732.422	77.952	732.422	77.4242	732.422	76.4423	732.422	78.0927	732.422	74.3439	732.422	77.2665	732.422	73.5291	732.422	74.7196	732.422	74.1997	732.422	71.473	732.422	75.2935	732.422	72.3217	732.422	76.1953	732.422	74.9814	732.422	76.2613
757.324	85.3782	757.324	85.4259	757.324	85.0631	757.324	85.2174	757.324	84.6234	757.324	84.8815	757.324	84.2423	757.324	84.5027	757.324	83.9551	757.324	83.9256	757.324	83.6099	757.324	82.7383	757.324	82.9796	757.324	80.4831	757.324	81.8161	757.324	77.4883	757.324	79.861	757.324	77.0397	757.324	77.1325	757.324	78.939	757.324	75.3067	757.324	79.7786	757.324	76.3121	757.324	78.8421	757.324	77.3976	757.324	76.026	757.324	76.5948	757.324	73.4885	757.324	72.6302	757.324	75.597	757.324	62.744	757.324	77.963	757.324	71.7943	757.324	79.002	757.324	76.8105	757.324	78.7516
785.156	85.0563	785.156	85.1725	785.156	84.7943	785.156	85.0457	785.156	84.5196	785.156	84.715	785.156	84.3587	785.156	84.3619	785.156	84.3863	785.156	84.056	785.156	84.488	785.156	83.517	785.156	84.3459	785.156	82.3	785.156	83.6376	785.156	80.103	785.156	82.2427	785.156	77.2738	785.156	80.5007	785.156	75.9796	785.156	79.4106	785.156	76.6258	785.156	79.448	785.156	76.4219	785.156	79.669	785.156	74.0583	785.156	79.2025	785.156	68.3044	785.156	77.5346	785.156	64.5728	785.156	73.8946	785.156	71.3141	785.156	66.9824	785.156	73.9077	785.156	68.7971	785.156	73.2399
811.523	86.0105	811.523	85.9896	811.523	85.6825	811.523	85.732	811.523	85.0639	811.523	85.4793	811.523	84.3684	811.523	85.4069	811.523	83.9156	811.523	85.4112	811.523	83.8281	811.523	85.1306	811.523	83.7416	811.523	84.1029	811.523	83.1251	811.523	81.912	811.523	81.62	811.523	78.9737	811.523	79.1516	811.523	78.5044	811.523	76.7209	811.523	80.0212	811.523	77.0621	811.523	80.313	811.523	78.981	811.523	78.7983	811.523	79.7284	811.523	75.7921	811.523	78.2443	811.523	74.1596	811.523	73.1483	811.523	76.0073	811.523	66.6037	811.523	77.5917	811.523	74.4331	811.523	77.4027
840.82	83.4151	840.82	83.2183	840.82	83.2887	840.82	82.6513	840.82	82.8587	840.82	81.9582	840.82	82.1025	840.82	81.7445	840.82	81.2941	840.82	82.2151	840.82	81.0541	840.82	82.7323	840.82	81.4791	840.82	82.5054	840.82	81.9015	840.82	80.9116	840.82	81.7134	840.82	77.4906	840.82	80.6998	840.82	74.177	840.82	79.265	840.82	76.4164	840.82	78.8913	840.82	78.4911	840.82	80.2806	840.82	78.2585	840.82	81.6804	840.82	75.9229	840.82	81.7489	840.82	73.5299	840.82	79.7915	840.82	74.7837	840.82	74.8261	840.82	76.1576	840.82	70.3309	840.82	74.8389
870.117	85.922	870.117	85.5996	870.117	85.722	870.117	84.8125	870.117	84.9727	870.117	83.619	870.117	83.6676	870.117	82.2824	870.117	81.781	870.117	81.7575	870.117	79.3771	870.117	82.473	870.117	77.2001	870.117	83.026	870.117	76.6285	870.117	82.1953	870.117	76.7293	870.117	79.1533	870.117	75.2756	870.117	72.0919	870.117	69.0594	870.117	68.7725	870.117	64.5767	870.117	75.3461	870.117	76.0154	870.117	77.0691	870.117	79.4378	870.117	76.9155	870.117	79.858	870.117	77.4361	870.117	78.4093	870.117	79.0327	870.117	77.9572	870.117	80.444	870.117	79.8832	870.117	80.9179
900.879	82.3863	900.879	82.5759	900.879	81.884	900.879	82.3201	900.879	81.2136	900.879	81.6266	900.879	80.3628	900.879	80.6325	900.879	79.2274	900.879	79.6366	900.879	77.9087	900.879	79.3017	900.879	77.0156	900.879	79.8676	900.879	77.4712	900.879	80.1207	900.879	78.8835	900.879	78.8328	900.879	79.8031	900.879	75.263	900.879	79.4633	900.879	67.8463	900.879	77.3825	900.879	57.0203	900.879	72.2529	900.879	71.8571	900.879	55.6817	900.879	76.5253	900.879	66.3712	900.879	78.7064	900.879	71.6713	900.879	79.9073	900.879	74.9131	900.879	80.2063	900.879	77.5162	900.879	79.3718
933.105	87.2738	933.105	87.3624	933.105	86.8877	933.105	86.83	933.105	86.3684	933.105	85.4136	933.105	85.6084	933.105	82.9885	933.105	84.4199	933.105	80.0144	933.105	82.6256	933.105	79.2433	933.105	80.1171	933.105	81.3305	933.105	78.2328	933.105	82.9675	933.105	79.8744	933.105	83.1629	933.105	82.2475	933.105	81.8142	933.105	83.1081	933.105	78.6271	933.105	82.1537	933.105	72.4144	933.105	79.6161	933.105	60.3022	933.105	76.6797	933.105	69.5119	933.105	74.6705	933.105	74.7425	933.105	73.0829	933.105	77.7846	933.105	74.1228	933.105	79.3516	933.105	77.471	933.105	79.3445
965.332	85.0085	965.332	84.9206	965.332	85.1809	965.332	84.9453	965.332	85.1968	965.332	84.783	965.332	84.8694	965.332	84.07	965.332	84.066	965.332	82.544	965.332	82.6443	965.332	79.8695	965.332	80.3515	965.332	75.044	965.332	76.356	965.332	69.4387	965.332	66.3754	965.332	75.6919	965.332	69.5386	965.332	79.0336	965.332	77.3923	965.332	79.5557	965.332	80.2515	965.332	78.3735	965.332	80.6564	965.332	76.5115	965.332	79.1748	965.332	74.6562	965.332	76.9837	965.332	72.3384	965.332	75.5881	965.332	70.3443	965.332	73.835	965.332	70.3393	965.332	71.5422	965.332	70.8425
1,000.49	84.3894	1,000.49	84.5936	1,000.49	83.8027	1,000.49	84.5239	1,000.49	82.9907	1,000.49	84.4543	1,000.49	82.3522	1,000.49	84.5557	1,000.49	82.2585	1,000.49	84.6138	1,000.49	82.5024	1,000.49	84.1634	1,000.49	82.5573	1,000.49	82.7009	1,000.49	82.0778	1,000.49	79.6746	1,000.49	80.6139	1,000.49	75.5958	1,000.49	77.3616	1,000.49	76.0029	1,000.49	72.991	1,000.49	78.2864	1,000.49	74.7573	1,000.49	78.468	1,000.49	77.2418	1,000.49	76.1219	1,000.49	77.7263	1,000.49	71.0348	1,000.49	76.5827	1,000.49	68.0435	1,000.49	73.2467	1,000.49	70.611	1,000.49	65.9128	1,000.49	72.1775	1,000.49	68.1253	1,000.49	71.9743
1,035.64	83.4425	1,035.64	83.5784	1,035.64	83.462	1,035.64	83.6043	1,035.64	83.3381	1,035.64	83.1205	1,035.64	82.6174	1,035.64	82.0988	1,035.64	81.3412	1,035.64	80.9793	1,035.64	80.238	1,035.64	80.4516	1,035.64	79.7407	1,035.64	80.4094	1,035.64	79.1693	1,035.64	79.656	1,035.64	77.8623	1,035.64	77.087	1,035.64	75.684	1,035.64	72.3063	1,035.64	73.1077	1,035.64	69.9417	1,035.64	72.9506	1,035.64	70.9044	1,035.64	75.3835	1,035.64	68.5908	1,035.64	76.8435	1,035.64	61.3616	1,035.64	76.705	1,035.64	65.5348	1,035.64	74.9356	1,035.64	71.1352	1,035.64	70.5159	1,035.64	72.7568	1,035.64	62.6572	1,035.64	69.7838
1,072.27	85.2795	1,072.27	85.3204	1,072.27	84.8057	1,072.27	85.1839	1,072.27	83.7986	1,072.27	84.7793	1,072.27	82.5777	1,072.27	83.8591	1,072.27	81.3714	1,072.27	82.5619	1,072.27	79.9713	1,072.27	81.3163	1,072.27	78.5159	1,072.27	80.0832	1,072.27	77.6587	1,072.27	78.8271	1,072.27	77.0056	1,072.27	77.5401	1,072.27	75.4691	1,072.27	75.1722	1,072.27	73.2179	1,072.27	73.2535	1,072.27	72.8011	1,072.27	72.8384	1,072.27	73.0798	1,072.27	69.1701	1,072.27	72.627	1,072.27	52.2957	1,072.27	71.4815	1,072.27	69.3168	1,072.27	67.0537	1,072.27	73.3127	1,072.27	55.3987	1,072.27	74.5938	1,072.27	70.2813	1,072.27	74.0787
1,108.89	83.2245	1,108.89	83.0304	1,108.89	83.3509	1,108.89	82.8836	1,108.89	83.2042	1,108.89	82.659	1,108.89	82.5084	1,108.89	82.0219	1,108.89	81.0912	1,108.89	80.8552	1,108.89	79.2967	1,108.89	79.5112	1,108.89	78.2271	1,108.89	78.712	1,108.89	78.4205	1,108.89	78.3529	1,108.89	78.6677	1,108.89	77.3883	1,108.89	77.9797	1,108.89	75.4461	1,108.89	76.4803	1,108.89	73.6199	1,108.89	75.879	1,108.89	73.1292	1,108.89	77.1974	1,108.89	70.8686	1,108.89	78.1389	1,108.89	60.1829	1,108.89	78.226	1,108.89	66.6197	1,108.89	77.3389	1,108.89	72.0295	1,108.89	73.7437	1,108.89	72.4547	1,108.89	65.1376	1,108.89	68.703
1,148.44	84.3631	1,148.44	84.0986	1,148.44	84.0255	1,148.44	83.4596	1,148.44	83.1261	1,148.44	82.7326	1,148.44	82.0994	1,148.44	81.9176	1,148.44	81.2848	1,148.44	80.4142	1,148.44	80.4683	1,148.44	77.6835	1,148.44	79.4283	1,148.44	75.5205	1,148.44	78.4216	1,148.44	76.6646	1,148.44	77.7306	1,148.44	77.9067	1,148.44	77.0834	1,148.44	77.3602	1,148.44	75.9443	1,148.44	75.1245	1,148.44	74.6524	1,148.44	74.9143	1,148.44	75.4999	1,148.44	76.4327	1,148.44	76.972	1,148.44	75.3612	1,148.44	76.9947	1,148.44	68.511	1,148.44	75.5242	1,148.44	57.5086	1,148.44	72.4595	1,148.44	66.3402	1,148.44	67.4618	1,148.44	64.737
1,189.45	84.2304	1,189.45	84.4372	1,189.45	83.8407	1,189.45	84.1023	1,189.45	83.4547	1,189.45	83.4063	1,189.45	83.0835	1,189.45	83.0765	1,189.45	82.6873	1,189.45	82.7852	1,189.45	81.9179	1,189.45	81.1846	1,189.45	80.4417	1,189.45	78.2807	1,189.45	78.6556	1,189.45	76.5581	1,189.45	77.2215	1,189.45	76.3774	1,189.45	75.8146	1,189.45	75.9134	1,189.45	74.4247	1,189.45	75.0342	1,189.45	73.7863	1,189.45	76.0182	1,189.45	75.4384	1,189.45	75.7092	1,189.45	77.2423	1,189.45	71.6946	1,189.45	77.7889	1,189.45	64.419	1,189.45	77.0321	1,189.45	69.1299	1,189.45	75.2354	1,189.45	72.9321	1,189.45	73.6336	1,189.45	73.4611
1,230.47	84.993	1,230.47	85.3405	1,230.47	84.4514	1,230.47	85.4481	1,230.47	83.8042	1,230.47	85.127	1,230.47	83.3646	1,230.47	84.5541	1,230.47	83.0366	1,230.47	84.1043	1,230.47	82.1426	1,230.47	82.9374	1,230.47	80.3746	1,230.47	80.1949	1,230.47	78.4632	1,230.47	77.5461	1,230.47	77.3935	1,230.47	77.4215	1,230.47	75.4258	1,230.47	77.0473	1,230.47	71.3259	1,230.47	74.3632	1,230.47	66.3306	1,230.47	72.3257	1,230.47	65.974	1,230.47	73.6776	1,230.47	68.3338	1,230.47	71.6643	1,230.47	70.7266	1,230.47	58.0632	1,230.47	70.5176	1,230.47	68.8152	1,230.47	68.2382	1,230.47	73.5928	1,230.47	71.8156	1,230.47	74.2478
1,274.41	85.1699	1,274.41	85.3442	1,274.41	84.873	1,274.41	85.2072	1,274.41	84.3375	1,274.41	84.4894	1,274.41	83.4712	1,274.41	83.0847	1,274.41	82.6947	1,274.41	81.9597	1,274.41	82.0065	1,274.41	81.1522	1,274.41	81.0304	1,274.41	78.7087	1,274.41	79.7844	1,274.41	75.538	1,274.41	78.6742	1,274.41	76.9996	1,274.41	77.1062	1,274.41	78.2846	1,274.41	74.1597	1,274.41	75.8298	1,274.41	71.4529	1,274.41	72.6048	1,274.41	69.747	1,274.41	75.9206	1,274.41	69.0418	1,274.41	75.2592	1,274.41	70.0937	1,274.41	67.3239	1,274.41	70.3807	1,274.41	69.7644	1,274.41	65.9792	1,274.41	71.5584	1,274.41	59.7448	1,274.41	68.9473
1,319.82	84.601	1,319.82	85.0192	1,319.82	84.0132	1,319.82	84.9195	1,319.82	83.3393	1,319.82	84.105	1,319.82	82.2847	1,319.82	82.542	1,319.82	81.1563	1,319.82	80.7472	1,319.82	80.7526	1,319.82	79.7842	1,319.82	80.3063	1,319.82	78.8134	1,319.82	78.3567	1,319.82	76.4398	1,319.82	76.7347	1,319.82	73.9931	1,319.82	77.0651	1,319.82	73.2034	1,319.82	75.1959	1,319.82	71.8774	1,319.82	71.0911	1,319.82	72.0621	1,319.82	68.7767	1,319.82	74.1778	1,319.82	69.46	1,319.82	73.2044	1,319.82	70.4814	1,319.82	62.3632	1,319.82	72.4724	1,319.82	67.0013	1,319.82	71.8189	1,319.82	69.3384	1,319.82	63.5677	1,319.82	61.5869
1,366.7	82.9595	1,366.7	83.053	1,366.7	82.7146	1,366.7	83.3555	1,366.7	82.1225	1,366.7	83.4071	1,366.7	81.699	1,366.7	82.2903	1,366.7	81.8188	1,366.7	80.0911	1,366.7	82.0487	1,366.7	78.7114	1,366.7	81.8864	1,366.7	77.4209	1,366.7	80.4875	1,366.7	74.1199	1,366.7	78.9616	1,366.7	72.6137	1,366.7	79.2453	1,366.7	74.2619	1,366.7	78.0258	1,366.7	74.439	1,366.7	74.8498	1,366.7	72.436	1,366.7	72.999	1,366.7	73.783	1,366.7	72.1929	1,366.7	73.8606	1,366.7	67.5329	1,366.7	69.6607	1,366.7	70.5291	1,366.7	63.2831	1,366.7	72.0738	1,366.7	65.6503	1,366.7	69.4192	1,366.7	68.2527
1,413.57	82.9213	1,413.57	82.9643	1,413.57	82.6442	1,413.57	82.4356	1,413.57	82.3818	1,413.57	81.8697	1,413.57	81.9103	1,413.57	80.9032	1,413.57	81.4531	1,413.57	78.9148	1,413.57	81.606	1,413.57	77.6408	1,413.57	82.2072	1,413.57	77.8396	1,413.57	81.7749	1,413.57	75.9325	1,413.57	80.2176	1,413.57	72.9765	1,413.57	80.9033	1,413.57	74.8502	1,413.57	81.2034	1,413.57	74.9789	1,413.57	78.8186	1,413.57	72.9831	1,413.57	76.7772	1,413.57	74.0469	1,413.57	77.6133	1,413.57	75.2974	1,413.57	76.2163	1,413.57	71.2529	1,413.57	75.5062	1,413.57	64.6581	1,413.57	76.9875	1,413.57	69.1597	1,413.57	73.4556	1,413.57	70.2593
1,463.38	84.5474	1,463.38	84.0411	1,463.38	85.0033	1,463.38	83.6997	1,463.38	84.8219	1,463.38	82.9515	1,463.38	83.994	1,463.38	82.0845	1,463.38	82.9055	1,463.38	81.738	1,463.38	82.1818	1,463.38	80.8277	1,463.38	81.6536	1,463.38	79.3375	1,463.38	80.1724	1,463.38	77.7969	1,463.38	78.263	1,463.38	75.4309	1,463.38	78.0622	1,463.38	73.6945	1,463.38	78.6968	1,463.38	72.798	1,463.38	76.4798	1,463.38	71.6853	1,463.38	74.3449	1,463.38	73.3932	1,463.38	76.861	1,463.38	70.1956	1,463.38	76.4692	1,463.38	67.238	1,463.38	71.9032	1,463.38	75.3136	1,463.38	71.8931	1,463.38	77.8839	1,463.38	75.6595	1,463.38	77.806
1,516.11	84.9225	1,516.11	85.0096	1,516.11	84.5873	1,516.11	84.5861	1,516.11	84.2214	1,516.11	83.7595	1,516.11	83.7956	1,516.11	82.5622	1,516.11	83.2895	1,516.11	81.3802	1,516.11	81.8584	1,516.11	80.446	1,516.11	80.1546	1,516.11	79.3283	1,516.11	79.8372	1,516.11	77.7748	1,516.11	78.3212	1,516.11	74.9706	1,516.11	74.8513	1,516.11	74.4145	1,516.11	75.2832	1,516.11	75.3536	1,516.11	76.863	1,516.11	72.2682	1,516.11	76.5697	1,516.11	73.4868	1,516.11	77.2924	1,516.11	75.8939	1,516.11	78.3005	1,516.11	72.1767	1,516.11	77.3528	1,516.11	68.2237	1,516.11	72.9227	1,516.11	75.4315	1,516.11	70.7784	1,516.11	75.9402
1,568.85	83.1164	1,568.85	83.3165	1,568.85	82.8664	1,568.85	83.7577	1,568.85	82.7368	1,568.85	83.7235	1,568.85	83.1448	1,568.85	82.984	1,568.85	83.4693	1,568.85	81.9428	1,568.85	83.0009	1,568.85	80.7761	1,568.85	82.058	1,568.85	79.7167	1,568.85	80.5092	1,568.85	78.585	1,568.85	78.4051	1,568.85	77.3954	1,568.85	76.5007	1,568.85	74.4422	1,568.85	74.236	1,568.85	72.5227	1,568.85	70.838	1,568.85	71.8557	1,568.85	72.7236	1,568.85	73.7087	1,568.85	71.8652	1,568.85	76.2318	1,568.85	74.9007	1,568.85	72.4649	1,568.85	76.8067	1,568.85	68.3309	1,568.85	73.3333	1,568.85	73.8651	1,568.85	60.1673	1,568.85	72.2167
1,624.51	81.6339	1,624.51	81.3679	1,624.51	81.9403	1,624.51	81.9138	1,624.51	82.6664	1,624.51	82.4198	1,624.51	83.809	1,624.51	82.38	1,624.51	83.8273	1,624.51	81.629	1,624.51	82.9739	1,624.51	80.2759	1,624.51	82.2487	1,624.51	79.3028	1,624.51	81.8193	1,624.51	78.4748	1,624.51	80.0228	1,624.51	78.1453	1,624.51	76.5821	1,624.51	75.5353	1,624.51	75.8925	1,624.51	72.9402	1,624.51	69.7131	1,624.51	71.785	1,624.51	70.5583	1,624.51	70.9051	1,624.51	72.2715	1,624.51	71.622	1,624.51	63.6619	1,624.51	67.5494	1,624.51	73.0501	1,624.51	71.3423	1,624.51	72.8784	1,624.51	72.1616	1,624.51	53.9351	1,624.51	68.0454
1,681.64	82.3783	1,681.64	80.9181	1,681.64	83.2739	1,681.64	79.913	1,681.64	83.4517	1,681.64	80.35	1,681.64	83.5353	1,681.64	81.2244	1,681.64	83.3338	1,681.64	80.9528	1,681.64	83.2843	1,681.64	79.2747	1,681.64	82.604	1,681.64	78.3019	1,681.64	81.858	1,681.64	77.1038	1,681.64	81.2955	1,681.64	74.6039	1,681.64	78.7848	1,681.64	75.3432	1,681.64	76.9093	1,681.64	74.4071	1,681.64	75.352	1,681.64	70.4344	1,681.64	71.063	1,681.64	72.0204	1,681.64	74.2122	1,681.64	71.6719	1,681.64	72.0223	1,681.64	64.266	1,681.64	72.911	1,681.64	70.4926	1,681.64	75.0514	1,681.64	72.9432	1,681.64	71.6165	1,681.64	65.0922
1,741.7	84.4973	1,741.7	84.0682	1,741.7	85.0807	1,741.7	83.6355	1,741.7	85.1028	1,741.7	82.5964	1,741.7	85.0029	1,741.7	82.6151	1,741.7	85.0787	1,741.7	82.641	1,741.7	84.6045	1,741.7	81.5023	1,741.7	83.509	1,741.7	79.6429	1,741.7	82.714	1,741.7	77.5268	1,741.7	82.4072	1,741.7	75.2705	1,741.7	79.9374	1,741.7	73.6298	1,741.7	77.6041	1,741.7	74.0031	1,741.7	76.1822	1,741.7	64.2756	1,741.7	66.4592	1,741.7	68.6609	1,741.7	71.8558	1,741.7	72.3147	1,741.7	68.1166	1,741.7	36.2796	1,741.7	74.2288	1,741.7	73.4374	1,741.7	75.6635	1,741.7	75.6576	1,741.7	74.0332	1,741.7	73.3981
1,803.22	83.8868	1,803.22	84.4354	1,803.22	83.8798	1,803.22	84.1741	1,803.22	84.4321	1,803.22	83.6796	1,803.22	84.8913	1,803.22	83.6297	1,803.22	85.3302	1,803.22	83.5325	1,803.22	85.1419	1,803.22	82.8947	1,803.22	83.753	1,803.22	80.2005	1,803.22	81.5089	1,803.22	78.0038	1,803.22	80.8391	1,803.22	77.7807	1,803.22	78.6624	1,803.22	74.0149	1,803.22	76.3742	1,803.22	71.9564	1,803.22	76.0328	1,803.22	72.0823	1,803.22	71.5977	1,803.22	61.325	1,803.22	74.6861	1,803.22	75.1741	1,803.22	72.7181	1,803.22	69.4444	1,803.22	72.8361	1,803.22	70.6613	1,803.22	76.044	1,803.22	75.1338	1,803.22	73.399	1,803.22	72.481
1,866.21	82.9951	1,866.21	83.7566	1,866.21	83.1031	1,866.21	83.7583	1,866.21	83.6044	1,866.21	83.6777	1,866.21	83.9176	1,866.21	83.4484	1,866.21	84.6476	1,866.21	82.1834	1,866.21	84.4475	1,866.21	82.3988	1,866.21	82.8798	1,866.21	81.1164	1,866.21	80.7458	1,866.21	76.9445	1,866.21	79.2565	1,866.21	77.5993	1,866.21	77.852	1,866.21	76.71	1,866.21	74.2322	1,866.21	73.1886	1,866.21	75.154	1,866.21	75.5832	1,866.21	70.8671	1,866.21	70.2103	1,866.21	71.6842	1,866.21	69.1966	1,866.21	72.1668	1,866.21	69.5884	1,866.21	63.9786	1,866.21	65.7098	1,866.21	67.366	1,866.21	73.2628	1,866.21	59.5302	1,866.21	71.2954
1,932.13	84.118	1,932.13	83.8143	1,932.13	83.6957	1,932.13	83.0522	1,932.13	84.1152	1,932.13	82.9922	1,932.13	83.8851	1,932.13	82.8042	1,932.13	83.2813	1,932.13	82.762	1,932.13	83.5419	1,932.13	81.601	1,932.13	83.122	1,932.13	80.6661	1,932.13	81.7756	1,932.13	77.3138	1,932.13	80.1828	1,932.13	75.9794	1,932.13	79.0566	1,932.13	77.0027	1,932.13	77.1966	1,932.13	72.8978	1,932.13	77.435	1,932.13	76.6556	1,932.13	73.4091	1,932.13	71.3457	1,932.13	69.7252	1,932.13	68.8419	1,932.13	73.7822	1,932.13	68.6369	1,932.13	73.8027	1,932.13	59.6269	1,932.13	72.8712	1,932.13	68.6974	1,932.13	66.4612	1,932.13	67.1738
1,999.51	83.3279	1,999.51	83.772	1,999.51	83.6572	1,999.51	84.2524	1,999.51	84.2519	1,999.51	83.9355	1,999.51	84.6399	1,999.51	82.9624	1,999.51	84.4295	1,999.51	82.4235	1,999.51	83.7276	1,999.51	81.7013	1,999.51	83.1258	1,999.51	79.5493	1,999.51	81.9961	1,999.51	77.457	1,999.51	79.7451	1,999.51	73.9113	1,999.51	78.7452	1,999.51	74.3132	1,999.51	76.3289	1,999.51	70.6685	1,999.51	74.6612	1,999.51	72.8268	1,999.51	73.1369	1,999.51	70.357	1,999.51	70.471	1,999.51	70.5488	1,999.51	71.568	1,999.51	71.7632	1,999.51	73.914	1,999.51	63.0067	1,999.51	74.8866	1,999.51	69.8657	1,999.51	69.5354	1,999.51	67.4178
2,069.82	83.2752	2,069.82	83.4043	2,069.82	84.0545	2,069.82	84.3855	2,069.82	84.9795	2,069.82	85.2386	2,069.82	85.5065	2,069.82	84.8193	2,069.82	85.1815	2,069.82	83.1528	2,069.82	84.0641	2,069.82	82.206	2,069.82	82.9266	2,069.82	80.8186	2,069.82	81.8832	2,069.82	78.2274	2,069.82	79.631	2,069.82	76.163	2,069.82	78.087	2,069.82	73.7456	2,069.82	76.533	2,069.82	72.0913	2,069.82	74.7639	2,069.82	69.8235	2,069.82	73.4571	2,069.82	68.2181	2,069.82	70.5667	2,069.82	70.0195	2,069.82	71.5401	2,069.82	70.962	2,069.82	72.0808	2,069.82	64.8265	2,069.82	73.4578	2,069.82	70.3602	2,069.82	67.3614	2,069.82	68.6986
2,143.07	82.6965	2,143.07	82.8981	2,143.07	83.1036	2,143.07	83.5932	2,143.07	83.8732	2,143.07	84.4973	2,143.07	84.3509	2,143.07	84.7729	2,143.07	84.2517	2,143.07	83.837	2,143.07	83.2531	2,143.07	82.4939	2,143.07	81.6841	2,143.07	81.2242	2,143.07	80.2464	2,143.07	79.0607	2,143.07	78.0873	2,143.07	77.2107	2,143.07	76.8561	2,143.07	74.8286	2,143.07	74.9755	2,143.07	72.7464	2,143.07	73.3395	2,143.07	72.7773	2,143.07	72.6564	2,143.07	69.4351	2,143.07	70.0249	2,143.07	70.5017	2,143.07	70.5337	2,143.07	71.1261	2,143.07	71.4816	2,143.07	64.5796	2,143.07	73.3031	2,143.07	69.4763	2,143.07	68.5778	2,143.07	65.4744
2,219.24	81.779	2,219.24	81.9989	2,219.24	82.2848	2,219.24	82.6393	2,219.24	82.9589	2,219.24	83.398	2,219.24	83.3862	2,219.24	83.676	2,219.24	83.4233	2,219.24	83.1503	2,219.24	82.8902	2,219.24	81.6211	2,219.24	81.3117	2,219.24	80.077	2,219.24	79.5612	2,219.24	78.0915	2,219.24	77.9011	2,219.24	76.4427	2,219.24	75.2401	2,219.24	74.5537	2,219.24	73.9924	2,219.24	72.9483	2,219.24	71.2869	2,219.24	71.9228	2,219.24	71.7795	2,219.24	70.0261	2,219.24	68.6459	2,219.24	71.202	2,219.24	70.1049	2,219.24	71.5846	2,219.24	69.2701	2,219.24	66.1066	2,219.24	72.8272	2,219.24	67.9603	2,219.24	69.3011	2,219.24	63.8578
2,296.88	82.627	2,296.88	82.8171	2,296.88	83.1053	2,296.88	83.3373	2,296.88	83.7546	2,296.88	83.6639	2,296.88	84.1479	2,296.88	83.8389	2,296.88	83.9975	2,296.88	83.0699	2,296.88	83.2094	2,296.88	81.4204	2,296.88	81.959	2,296.88	79.4341	2,296.88	80.1969	2,296.88	77.1024	2,296.88	78.3765	2,296.88	75.0027	2,296.88	75.9155	2,296.88	72.4611	2,296.88	75.0839	2,296.88	71.4705	2,296.88	71.7749	2,296.88	70.3197	2,296.88	72.8336	2,296.88	68.8519	2,296.88	68.9039	2,296.88	70.4321	2,296.88	71.4334	2,296.88	72.5356	2,296.88	71.6098	2,296.88	65.0806	2,296.88	72.9843	2,296.88	66.3291	2,296.88	69.5068	2,296.88	66.4391
2,378.91	82.4462	2,378.91	82.6697	2,378.91	82.9985	2,378.91	83.3608	2,378.91	83.5753	2,378.91	83.9122	2,378.91	83.8408	2,378.91	84.0542	2,378.91	83.4163	2,378.91	83.5523	2,378.91	82.6075	2,378.91	82.0057	2,378.91	81.2868	2,378.91	80.441	2,378.91	79.4896	2,378.91	77.9591	2,378.91	77.9086	2,378.91	75.4217	2,378.91	75.538	2,378.91	72.917	2,378.91	73.9163	2,378.91	71.8088	2,378.91	71.1589	2,378.91	71.3962	2,378.91	71.4644	2,378.91	69.9019	2,378.91	68.734	2,378.91	67.9518	2,378.91	70.5045	2,378.91	72.2166	2,378.91	70.8445	2,378.91	68.3049	2,378.91	73.1687	2,378.91	67.3691	2,378.91	70.8035	2,378.91	63.1622
2,462.4	82.04	2,462.4	82.1889	2,462.4	82.3605	2,462.4	82.9365	2,462.4	82.9712	2,462.4	83.3276	2,462.4	83.3254	2,462.4	83.5197	2,462.4	83.2189	2,462.4	83.1722	2,462.4	82.495	2,462.4	81.4856	2,462.4	81.112	2,462.4	79.841	2,462.4	79.5724	2,462.4	77.6115	2,462.4	77.9443	2,462.4	75.5048	2,462.4	75.349	2,462.4	73.7598	2,462.4	73.1522	2,462.4	72.4691	2,462.4	71.8171	2,462.4	70.7421	2,462.4	68.7582	2,462.4	70.3985	2,462.4	69.3053	2,462.4	69.5964	2,462.4	68.4984	2,462.4	73.8111	2,462.4	69.1724	2,462.4	67.6167	2,462.4	72.0831	2,462.4	69.3193	2,462.4	69.9572	2,462.4	64.7955
2,548.83	82.6972	2,548.83	82.7234	2,548.83	83.1043	2,548.83	83.3228	2,548.83	83.7527	2,548.83	83.8735	2,548.83	83.9044	2,548.83	83.5345	2,548.83	83.6963	2,548.83	82.927	2,548.83	83.1535	2,548.83	81.6925	2,548.83	82.0732	2,548.83	79.1779	2,548.83	80.5111	2,548.83	77.2251	2,548.83	78.7617	2,548.83	74.8265	2,548.83	76.7778	2,548.83	72.4402	2,548.83	74.6296	2,548.83	70.5768	2,548.83	72.262	2,548.83	69.4256	2,548.83	70.9132	2,548.83	71.0109	2,548.83	70.7437	2,548.83	69.5822	2,548.83	69.4117	2,548.83	71.7483	2,548.83	70.5847	2,548.83	67.3799	2,548.83	72.1847	2,548.83	67.5003	2,548.83	71.1954	2,548.83	65.7575
2,639.65	82.9534	2,639.65	83.0313	2,639.65	83.2878	2,639.65	83.5956	2,639.65	83.8125	2,639.65	84.179	2,639.65	83.8704	2,639.65	84.0224	2,639.65	83.5231	2,639.65	83.1298	2,639.65	82.8031	2,639.65	82.1055	2,639.65	81.7839	2,639.65	79.5914	2,639.65	80.318	2,639.65	77.3754	2,639.65	78.2017	2,639.65	74.4089	2,639.65	76.5339	2,639.65	71.9568	2,639.65	73.935	2,639.65	70.1156	2,639.65	72.0324	2,639.65	69.5787	2,639.65	70.6455	2,639.65	69.8821	2,639.65	70.0139	2,639.65	69.4345	2,639.65	70.7011	2,639.65	71.0383	2,639.65	71.8135	2,639.65	68.7876	2,639.65	71.199	2,639.65	67.9905	2,639.65	70.9193	2,639.65	67.5429
2,731.93	82.1993	2,731.93	82.1849	2,731.93	82.637	2,731.93	82.7356	2,731.93	83.013	2,731.93	83.5686	2,731.93	83.2658	2,731.93	83.3333	2,731.93	83.1159	2,731.93	82.5751	2,731.93	82.4766	2,731.93	81.5877	2,731.93	81.3473	2,731.93	79.2104	2,731.93	79.794	2,731.93	77.4132	2,731.93	77.8694	2,731.93	74.4698	2,731.93	76.2466	2,731.93	72.7691	2,731.93	73.4624	2,731.93	69.3781	2,731.93	71.0689	2,731.93	69.5593	2,731.93	68.811	2,731.93	69.8346	2,731.93	69.6851	2,731.93	68.5172	2,731.93	66.4792	2,731.93	71.7795	2,731.93	71.1064	2,731.93	69.1631	2,731.93	71.7997	2,731.93	65.6926	2,731.93	71.7656	2,731.93	64.4688
2,828.61	83.0118	2,828.61	82.9748	2,828.61	83.353	2,828.61	83.512	2,828.61	83.7527	2,828.61	83.8399	2,828.61	84.046	2,828.61	83.7594	2,828.61	83.9707	2,828.61	82.9492	2,828.61	83.5134	2,828.61	81.483	2,828.61	82.6372	2,828.61	79.5854	2,828.61	81.2517	2,828.61	77.384	2,828.61	79.5979	2,828.61	73.9351	2,828.61	77.3488	2,828.61	71.8449	2,828.61	74.6896	2,828.61	68.9186	2,828.61	73.1549	2,828.61	69.893	2,828.61	69.0516	2,828.61	68.4823	2,828.61	71.4385	2,828.61	70.6338	2,828.61	69.0782	2,828.61	73.181	2,828.61	71.7159	2,828.61	66.8556	2,828.61	71.5327	2,828.61	69.5214	2,828.61	70.881	2,828.61	65.8946
2,928.22	83.0456	2,928.22	83.3652	2,928.22	83.14	2,928.22	83.6341	2,928.22	83.6404	2,928.22	83.7709	2,928.22	83.6721	2,928.22	83.7243	2,928.22	83.5708	2,928.22	83.371	2,928.22	83.1152	2,928.22	81.7804	2,928.22	82.3863	2,928.22	80.0667	2,928.22	80.9696	2,928.22	77.784	2,928.22	79.4032	2,928.22	74.6912	2,928.22	76.4358	2,928.22	72.6191	2,928.22	74.5009	2,928.22	69.8829	2,928.22	72.2297	2,928.22	70.6222	2,928.22	69.2895	2,928.22	68.7907	2,928.22	70.4167	2,928.22	69.4645	2,928.22	68.8783	2,928.22	72.1507	2,928.22	70.7674	2,928.22	69.4062	2,928.22	71.9042	2,928.22	66.4138	2,928.22	71.0831	2,928.22	64.4715
3,030.76	83.6265	3,030.76	83.4232	3,030.76	83.469	3,030.76	83.2526	3,030.76	83.2252	3,030.76	83.62	3,030.76	83.4193	3,030.76	83.4503	3,030.76	83.389	3,030.76	82.6846	3,030.76	83.2887	3,030.76	81.3195	3,030.76	82.6357	3,030.76	79.6299	3,030.76	81.0304	3,030.76	76.7585	3,030.76	79.3552	3,030.76	74.2942	3,030.76	76.8371	3,030.76	71.4815	3,030.76	74.3416	3,030.76	69.7317	3,030.76	71.226	3,030.76	69.3387	3,030.76	70.1182	3,030.76	68.0063	3,030.76	69.9858	3,030.76	69.9227	3,030.76	68.1213	3,030.76	70.5798	3,030.76	71.4184	3,030.76	68.6897	3,030.76	70.73	3,030.76	68.0326	3,030.76	71.672	3,030.76	66.6074
3,137.7	84.516	3,137.7	84.0985	3,137.7	84.076	3,137.7	83.9868	3,137.7	83.6881	3,137.7	84.2132	3,137.7	83.7515	3,137.7	84.1721	3,137.7	84.0471	3,137.7	83.5003	3,137.7	84.0945	3,137.7	82.1473	3,137.7	83.5542	3,137.7	80.1933	3,137.7	82.1346	3,137.7	77.6042	3,137.7	80.1225	3,137.7	75.1451	3,137.7	77.8143	3,137.7	71.7724	3,137.7	75.663	3,137.7	68.7948	3,137.7	72.2366	3,137.7	68.1977	3,137.7	70.4704	3,137.7	66.9083	3,137.7	70.0655	3,137.7	69.8671	3,137.7	69.5378	3,137.7	71.7798	3,137.7	72.7145	3,137.7	69.5547	3,137.7	72.3233	3,137.7	67.4666	3,137.7	73.2933	3,137.7	66.3927
3,249.02	84.2984	3,249.02	84.2972	3,249.02	83.7971	3,249.02	84.021	3,249.02	83.5193	3,249.02	84.0091	3,249.02	83.6115	3,249.02	84.294	3,249.02	84.0306	3,249.02	83.703	3,249.02	84.2936	3,249.02	82.6217	3,249.02	83.7128	3,249.02	80.973	3,249.02	82.3614	3,249.02	78.3472	3,249.02	80.4807	3,249.02	75.4657	3,249.02	78.1	3,249.02	72.1844	3,249.02	75.633	3,249.02	70.0969	3,249.02	72.2661	3,249.02	68.455	3,249.02	70.6956	3,249.02	68.7921	3,249.02	69.4192	3,249.02	70.7966	3,249.02	68.6799	3,249.02	72.2034	3,249.02	71.867	3,249.02	70.643	3,249.02	71.5767	3,249.02	67.3766	3,249.02	72.8337	3,249.02	65.3264
3,363.28	83.8007	3,363.28	83.8212	3,363.28	83.2724	3,363.28	83.5796	3,363.28	83.0174	3,363.28	83.7329	3,363.28	83.1691	3,363.28	83.7237	3,363.28	83.8201	3,363.28	83.7718	3,363.28	83.9968	3,363.28	82.7	3,363.28	83.2205	3,363.28	80.8731	3,363.28	82.0482	3,363.28	78.4649	3,363.28	80.0075	3,363.28	75.5732	3,363.28	77.629	3,363.28	72.3197	3,363.28	75.2826	3,363.28	70.019	3,363.28	72.0458	3,363.28	68.4524	3,363.28	69.3575	3,363.28	69.3091	3,363.28	66.9088	3,363.28	71.1307	3,363.28	68.5419	3,363.28	71.6882	3,363.28	71.8866	3,363.28	71.0491	3,363.28	70.8237	3,363.28	67.1124	3,363.28	72.5139	3,363.28	65.2599
3,481.93	84.7911	3,481.93	84.2776	3,481.93	84.1238	3,481.93	83.9481	3,481.93	83.456	3,481.93	84.0019	3,481.93	83.826	3,481.93	84.0795	3,481.93	84.3287	3,481.93	83.6357	3,481.93	84.6068	3,481.93	82.883	3,481.93	83.991	3,481.93	80.6256	3,481.93	82.728	3,481.93	77.8839	3,481.93	80.3731	3,481.93	75.6268	3,481.93	78.2865	3,481.93	72.1475	3,481.93	75.4079	3,481.93	69.8699	3,481.93	72.8482	3,481.93	67.394	3,481.93	70.4623	3,481.93	67.956	3,481.93	69.2356	3,481.93	70.3226	3,481.93	69.8536	3,481.93	71.5015	3,481.93	71.6773	3,481.93	70.3499	3,481.93	71.8616	3,481.93	66.6718	3,481.93	73.4468	3,481.93	65.8574
3,604.98	84.4961	3,604.98	84.2873	3,604.98	83.6987	3,604.98	83.4843	3,604.98	82.8693	3,604.98	83.4765	3,604.98	83.0332	3,604.98	84.1138	3,604.98	83.8553	3,604.98	84.2397	3,604.98	84.0426	3,604.98	82.9323	3,604.98	83.282	3,604.98	81.4967	3,604.98	81.9803	3,604.98	79.5454	3,604.98	80.4666	3,604.98	76.7032	3,604.98	78.5258	3,604.98	73.3245	3,604.98	75.4567	3,604.98	70.2548	3,604.98	72.2507	3,604.98	67.8833	3,604.98	69.068	3,604.98	70.4369	3,604.98	67.7481	3,604.98	71.071	3,604.98	66.9809	3,604.98	72.0107	3,604.98	69.9095	3,604.98	72.0214	3,604.98	71.4258	3,604.98	65.7938	3,604.98	73.1023	3,604.98	64.5383
3,732.42	84.7305	3,732.42	84.4063	3,732.42	83.6742	3,732.42	83.4711	3,732.42	83.2923	3,732.42	83.6093	3,732.42	83.2746	3,732.42	83.4	3,732.42	84.2408	3,732.42	83.7635	3,732.42	84.3625	3,732.42	83.3798	3,732.42	83.9835	3,732.42	81.5881	3,732.42	82.5467	3,732.42	78.8125	3,732.42	80.3973	3,732.42	75.0066	3,732.42	78.2607	3,732.42	73.0888	3,732.42	75.1281	3,732.42	69.6763	3,732.42	72.8462	3,732.42	67.6081	3,732.42	68.8879	3,732.42	69.0842	3,732.42	68.0663	3,732.42	70.5685	3,732.42	68.9188	3,732.42	72.078	3,732.42	70.1424	3,732.42	71.464	3,732.42	71.4714	3,732.42	65.3515	3,732.42	72.8814	3,732.42	66.6444
3,864.26	84.6602	3,864.26	84.4274	3,864.26	84.218	3,864.26	83.6312	3,864.26	83.1024	3,864.26	82.8557	3,864.26	83.6492	3,864.26	84.0958	3,864.26	84.0303	3,864.26	84.0932	3,864.26	84.4709	3,864.26	83.5128	3,864.26	83.654	3,864.26	81.0402	3,864.26	82.5227	3,864.26	79.2815	3,864.26	80.8723	3,864.26	76.4092	3,864.26	77.7715	3,864.26	73.4024	3,864.26	75.5855	3,864.26	70.6582	3,864.26	72.088	3,864.26	67.9212	3,864.26	69.5966	3,864.26	68.6026	3,864.26	66.5677	3,864.26	70.1894	3,864.26	67.8999	3,864.26	71.3008	3,864.26	70.6553	3,864.26	72.0677	3,864.26	71.4678	3,864.26	64.5474	3,864.26	73.043	3,864.26	64.552
4,000.49	84.661	4,000.49	84.6886	4,000.49	83.4895	4,000.49	83.2701	4,000.49	83.5942	4,000.49	83.3558	4,000.49	83.6472	4,000.49	83.6634	4,000.49	84.3615	4,000.49	84.3625	4,000.49	84.1908	4,000.49	83.3998	4,000.49	83.6792	4,000.49	82.1393	4,000.49	82.3274	4,000.49	79.3648	4,000.49	79.9512	4,000.49	75.9807	4,000.49	78.6433	4,000.49	73.6125	4,000.49	75.0568	4,000.49	69.5499	4,000.49	72.7453	4,000.49	68.2452	4,000.49	68.5892	4,000.49	68.4578	4,000.49	65.6426	4,000.49	69.7289	4,000.49	68.14	4,000.49	71.7712	4,000.49	69.6518	4,000.49	71.5575	4,000.49	71.8988	4,000.49	62.9486	4,000.49	72.0842	4,000.49	64.8673
4,141.11	84.4997	4,141.11	83.8083	4,141.11	84.4518	4,141.11	83.4626	4,141.11	83.2102	4,141.11	82.9792	4,141.11	83.4886	4,141.11	83.3421	4,141.11	83.5528	4,141.11	83.4736	4,141.11	83.9951	4,141.11	83.6063	4,141.11	83.5502	4,141.11	81.4537	4,141.11	81.8902	4,141.11	78.8617	4,141.11	80.361	4,141.11	76.1026	4,141.11	77.7704	4,141.11	72.4798	4,141.11	75.2249	4,141.11	69.3374	4,141.11	71.3624	4,141.11	65.7667	4,141.11	69.5162	4,141.11	68.3064	4,141.11	65.772	4,141.11	69.6259	4,141.11	67.1858	4,141.11	71.4508	4,141.11	69.9343	4,141.11	72.1529	4,141.11	70.4883	4,141.11	65.042	4,141.11	71.8206	4,141.11	65.6498
4,287.6	84.7304	4,287.6	85.216	4,287.6	84.4374	4,287.6	83.6966	4,287.6	84.6402	4,287.6	83.2272	4,287.6	84.0765	4,287.6	83.8059	4,287.6	84.4728	4,287.6	84.7036	4,287.6	83.8294	4,287.6	82.4815	4,287.6	83.2722	4,287.6	81.549	4,287.6	82.6666	4,287.6	78.4925	4,287.6	80.8375	4,287.6	75.471	4,287.6	79.197	4,287.6	72.9133	4,287.6	76.1213	4,287.6	68.2163	4,287.6	73.2341	4,287.6	66.1636	4,287.6	68.4421	4,287.6	68.5208	4,287.6	66.2908	4,287.6	69.1414	4,287.6	65.6886	4,287.6	71.3322	4,287.6	68.7867	4,287.6	71.5066	4,287.6	72.1124	4,287.6	63.8736	4,287.6	71.3442	4,287.6	65.8255
4,438.48	84.6431	4,438.48	83.486	4,438.48	84.7423	4,438.48	83.7464	4,438.48	83.8547	4,438.48	83.1009	4,438.48	83.6091	4,438.48	83.3769	4,438.48	83.0441	4,438.48	83.0343	4,438.48	84.0521	4,438.48	83.4517	4,438.48	83.9952	4,438.48	81.454	4,438.48	82.356	4,438.48	79.7114	4,438.48	80.8552	4,438.48	77.0032	4,438.48	78.1376	4,438.48	72.3253	4,438.48	75.7261	4,438.48	69.1077	4,438.48	71.9565	4,438.48	63.3416	4,438.48	69.4046	4,438.48	66.3292	4,438.48	64.0959	4,438.48	68.745	4,438.48	66.585	4,438.48	71.2975	4,438.48	67.4243	4,438.48	71.714	4,438.48	71.3202	4,438.48	62.3044	4,438.48	71.231	4,438.48	65.0317
4,595.21	85.2234	4,595.21	85.7435	4,595.21	85.3064	4,595.21	84.287	4,595.21	85.2454	4,595.21	83.7942	4,595.21	84.3666	4,595.21	84.292	4,595.21	84.3587	4,595.21	84.8979	4,595.21	84.3057	4,595.21	82.8904	4,595.21	83.7389	4,595.21	81.0864	4,595.21	83.2135	4,595.21	77.8624	4,595.21	81.2477	4,595.21	74.2273	4,595.21	79.2428	4,595.21	72.0679	4,595.21	76.1797	4,595.21	67.9664	4,595.21	72.9477	4,595.21	66.0082	4,595.21	69.8462	4,595.21	68.0195	4,595.21	65.4541	4,595.21	67.777	4,595.21	64.4456	4,595.21	70.3353	4,595.21	68.1007	4,595.21	71.1152	4,595.21	72.97	4,595.21	60.7658	4,595.21	70.6506	4,595.21	64.806
4,756.35	84.7525	4,756.35	84.1668	4,756.35	85.7679	4,756.35	84.4591	4,756.35	84.9138	4,756.35	83.6134	4,756.35	83.8921	4,756.35	83.4351	4,756.35	83.3308	4,756.35	83.3611	4,756.35	83.9963	4,756.35	83.2611	4,756.35	84.3289	4,756.35	81.4896	4,756.35	82.7583	4,756.35	79.4447	4,756.35	81.139	4,756.35	77.214	4,756.35	78.6326	4,756.35	73.0743	4,756.35	76.0255	4,756.35	70.394	4,756.35	73.1116	4,756.35	66.4737	4,756.35	69.1067	4,756.35	65.374	4,756.35	66.1085	4,756.35	68.2034	4,756.35	66.4031	4,756.35	70.9693	4,756.35	67.6356	4,756.35	71.8074	4,756.35	70.9423	4,756.35	61.8837	4,756.35	70.6965	4,756.35	65.1394
4,924.8	85.5127	4,924.8	86.1446	4,924.8	85.8241	4,924.8	85.4987	4,924.8	85.9256	4,924.8	84.2319	4,924.8	84.8011	4,924.8	83.9019	4,924.8	84.5617	4,924.8	84.3118	4,924.8	84.7915	4,924.8	83.4414	4,924.8	84.1406	4,924.8	82.0743	4,924.8	83.3274	4,924.8	79.2897	4,924.8	80.7042	4,924.8	76.5251	4,924.8	79.0969	4,924.8	72.739	4,924.8	76.1303	4,924.8	69.1407	4,924.8	73.1876	4,924.8	66.3104	4,924.8	70.7192	4,924.8	63.8846	4,924.8	61.5138	4,924.8	67.7152	4,924.8	64.076	4,924.8	70.3911	4,924.8	66.4004	4,924.8	71.0823	4,924.8	73.2419	4,924.8	58.3471	4,924.8	70.5483	4,924.8	65.4976
5,097.66	85.1612	5,097.66	84.9043	5,097.66	86.5264	5,097.66	85.3519	5,097.66	85.5582	5,097.66	83.9789	5,097.66	84.2185	5,097.66	83.4129	5,097.66	83.4346	5,097.66	83.6459	5,097.66	84.1999	5,097.66	82.7424	5,097.66	84.3492	5,097.66	80.9553	5,097.66	82.4369	5,097.66	79.016	5,097.66	80.985	5,097.66	77.0785	5,097.66	78.4812	5,097.66	73.3379	5,097.66	75.9846	5,097.66	70.6692	5,097.66	72.5784	5,097.66	66.0553	5,097.66	67.5407	5,097.66	65.144	5,097.66	68.4547	5,097.66	69.3436	5,097.66	62.9659	5,097.66	70.8636	5,097.66	66.6525	5,097.66	71.0425	5,097.66	71.9615	5,097.66	60.1588	5,097.66	70.5612	5,097.66	66.27
5,277.83	85.3573	5,277.83	85.77	5,277.83	85.8277	5,277.83	85.4666	5,277.83	85.8022	5,277.83	83.9936	5,277.83	84.6553	5,277.83	83.5278	5,277.83	84.3004	5,277.83	84.1703	5,277.83	84.1434	5,277.83	83.6909	5,277.83	83.3748	5,277.83	82.2392	5,277.83	82.6309	5,277.83	80.5054	5,277.83	80.8832	5,277.83	77.0372	5,277.83	78.5287	5,277.83	74.1026	5,277.83	75.5429	5,277.83	68.6451	5,277.83	72.0887	5,277.83	62.1658	5,277.83	70.003	5,277.83	63.5979	5,277.83	60.4667	5,277.83	66	5,277.83	61.4958	5,277.83	70.5978	5,277.83	64.5164	5,277.83	71.7457	5,277.83	72.4256	5,277.83	59.2474	5,277.83	70.5851	5,277.83	66.4332
5,463.87	85.284	5,463.87	85.1365	5,463.87	86.4074	5,463.87	85.4915	5,463.87	85.4902	5,463.87	84.0639	5,463.87	84.268	5,463.87	82.7977	5,463.87	83.2436	5,463.87	83.4483	5,463.87	83.3663	5,463.87	83.1695	5,463.87	83.1825	5,463.87	81.2234	5,463.87	81.954	5,463.87	78.3804	5,463.87	79.9451	5,463.87	75.2995	5,463.87	77.5491	5,463.87	71.475	5,463.87	75.3298	5,463.87	68.4489	5,463.87	72.6913	5,463.87	64.9765	5,463.87	69.4642	5,463.87	61.5932	5,463.87	65.3862	5,463.87	68.0289	5,463.87	57.1229	5,463.87	69.5905	5,463.87	62.3614	5,463.87	68.7691	5,463.87	71.0218	5,463.87	53.6011	5,463.87	70.2525	5,463.87	64.6178
5,657.23	85.8419	5,657.23	85.764	5,657.23	86.1887	5,657.23	85.1935	5,657.23	86.0944	5,657.23	83.7117	5,657.23	85.1479	5,657.23	82.2544	5,657.23	83.9473	5,657.23	82.6027	5,657.23	83.5384	5,657.23	82.9863	5,657.23	83.3602	5,657.23	81.895	5,657.23	81.9598	5,657.23	79.0415	5,657.23	80.3065	5,657.23	75.6875	5,657.23	78.2471	5,657.23	73.9463	5,657.23	75.4392	5,657.23	70.6873	5,657.23	72.853	5,657.23	64.2506	5,657.23	69.5103	5,657.23	59.4747	5,657.23	63.592	5,657.23	65.4486	5,657.23	57.4968	5,657.23	69.5663	5,657.23	64.1806	5,657.23	69.9726	5,657.23	71.4301	5,657.23	58.4444	5,657.23	69.1321	5,657.23	66.1391
5,856.45	85.6338	5,856.45	85.2448	5,856.45	85.7362	5,856.45	85.1487	5,856.45	85.7946	5,856.45	83.6749	5,856.45	85.242	5,856.45	82.5458	5,856.45	83.7491	5,856.45	82.7428	5,856.45	83.1058	5,856.45	82.3614	5,856.45	83.2	5,856.45	80.2555	5,856.45	82.265	5,856.45	78.072	5,856.45	79.5868	5,856.45	74.9282	5,856.45	77.6876	5,856.45	71.2739	5,856.45	74.8101	5,856.45	68.7539	5,856.45	72.2624	5,856.45	64.5665	5,856.45	69.3827	5,856.45	57.5095	5,856.45	61.7853	5,856.45	64.8373	5,856.45	54.5126	5,856.45	67.4493	5,856.45	64.0641	5,856.45	68.003	5,856.45	70.0232	5,856.45	55.4804	5,856.45	69.1213	5,856.45	65.0359
6,062.99	85.4964	6,062.99	85.3202	6,062.99	85.7879	6,062.99	85.2314	6,062.99	85.4689	6,062.99	84.0884	6,062.99	85.3405	6,062.99	82.6609	6,062.99	83.5135	6,062.99	82.5189	6,062.99	82.6876	6,062.99	81.9463	6,062.99	82.639	6,062.99	80.444	6,062.99	81.3808	6,062.99	77.369	6,062.99	79.1241	6,062.99	74.2016	6,062.99	77.2849	6,062.99	71.566	6,062.99	74.2557	6,062.99	69.3641	6,062.99	72.5181	6,062.99	64.5944	6,062.99	68.7629	6,062.99	59.6382	6,062.99	64.7717	6,062.99	63.969	6,062.99	54.8445	6,062.99	67.5055	6,062.99	61.9112	6,062.99	67.7398	6,062.99	69.0262	6,062.99	57.342	6,062.99	68.2907	6,062.99	64.4445
6,276.86	86.2359	6,276.86	85.8369	6,276.86	85.8079	6,276.86	85.0098	6,276.86	86.066	6,276.86	84.0997	6,276.86	85.4718	6,276.86	82.5351	6,276.86	83.5119	6,276.86	81.931	6,276.86	82.9853	6,276.86	81.3521	6,276.86	82.5836	6,276.86	79.8598	6,276.86	81.4913	6,276.86	77.0444	6,276.86	78.8225	6,276.86	74.9256	6,276.86	76.7293	6,276.86	71.1393	6,276.86	73.953	6,276.86	68.5134	6,276.86	71.7525	6,276.86	62.3199	6,276.86	67.6668	6,276.86	58.581	6,276.86	64.8907	6,276.86	65.0619	6,276.86	54.9438	6,276.86	68.5766	6,276.86	62.4912	6,276.86	67.0525	6,276.86	68.3355	6,276.86	55.5106	6,276.86	68.1257	6,276.86	63.5828
6,498.05	85.6537	6,498.05	85.3023	6,498.05	85.3449	6,498.05	84.4366	6,498.05	85.4704	6,498.05	83.9938	6,498.05	84.9402	6,498.05	82.1943	6,498.05	83.3713	6,498.05	81.1201	6,498.05	82.2621	6,498.05	80.7566	6,498.05	82.3291	6,498.05	78.7722	6,498.05	81.2713	6,498.05	76.7868	6,498.05	78.6561	6,498.05	73.7376	6,498.05	76.2702	6,498.05	70.3038	6,498.05	73.5174	6,498.05	66.7955	6,498.05	70.8501	6,498.05	61.1655	6,498.05	67.8148	6,498.05	55.372	6,498.05	65.6555	6,498.05	63.0058	6,498.05	57.1004	6,498.05	66.577	6,498.05	60.6679	6,498.05	66.4193	6,498.05	67.4357	6,498.05	58.157	6,498.05	67.7634	6,498.05	60.6514
6,726.56	85.2911	6,726.56	84.8874	6,726.56	85.1425	6,726.56	84.2914	6,726.56	85.1015	6,726.56	84.0212	6,726.56	84.6924	6,726.56	82.0935	6,726.56	83.3668	6,726.56	81.2769	6,726.56	82.1033	6,726.56	81.0288	6,726.56	81.9147	6,726.56	79.16	6,726.56	80.9512	6,726.56	76.9499	6,726.56	79.1258	6,726.56	72.9961	6,726.56	76.37	6,726.56	70.8672	6,726.56	73.6384	6,726.56	66.7409	6,726.56	70.7005	6,726.56	61.3596	6,726.56	68.0291	6,726.56	53.9244	6,726.56	64.3448	6,726.56	61.9417	6,726.56	54.9321	6,726.56	67.043	6,726.56	57.3179	6,726.56	66.0615	6,726.56	65.7902	6,726.56	58.8368	6,726.56	67.5153	6,726.56	62.6991
6,963.87	85.1737	6,963.87	85.1932	6,963.87	85.1872	6,963.87	84.334	6,963.87	85.0649	6,963.87	83.9815	6,963.87	84.8036	6,963.87	82.2711	6,963.87	83.8478	6,963.87	80.9145	6,963.87	82.5788	6,963.87	81.133	6,963.87	81.925	6,963.87	79.4036	6,963.87	80.9268	6,963.87	76.3517	6,963.87	79.1447	6,963.87	73.0041	6,963.87	76.5638	6,963.87	70.014	6,963.87	73.9687	6,963.87	67.1123	6,963.87	71.0314	6,963.87	63.7624	6,963.87	69.2965	6,963.87	50.7579	6,963.87	64.4918	6,963.87	60.1125	6,963.87	55.6089	6,963.87	66.5099	6,963.87	58.6848	6,963.87	65.3349	6,963.87	65.3548	6,963.87	58.1284	6,963.87	67.0313	6,963.87	60.1652
7,209.96	85.0917	7,209.96	84.6793	7,209.96	85.0528	7,209.96	83.9913	7,209.96	84.4947	7,209.96	83.6817	7,209.96	84.4842	7,209.96	82.1056	7,209.96	83.5835	7,209.96	80.1785	7,209.96	82.2832	7,209.96	80.9682	7,209.96	81.8602	7,209.96	79.6366	7,209.96	80.9778	7,209.96	76.6133	7,209.96	78.4922	7,209.96	73.5014	7,209.96	75.8491	7,209.96	70.2462	7,209.96	73.3465	7,209.96	67.6504	7,209.96	71.0502	7,209.96	63.5958	7,209.96	68.651	7,209.96	56.3808	7,209.96	65.1283	7,209.96	58.6165	7,209.96	54.4843	7,209.96	65.6629	7,209.96	55.889	7,209.96	64.5222	7,209.96	65.3622	7,209.96	61.1222	7,209.96	67.1806	7,209.96	60.0968
7,464.84	84.2946	7,464.84	84.3568	7,464.84	84.6409	7,464.84	83.6673	7,464.84	84.0459	7,464.84	83.3918	7,464.84	84.1221	7,464.84	82.2753	7,464.84	83.2522	7,464.84	80.7044	7,464.84	81.8577	7,464.84	80.8563	7,464.84	81.6498	7,464.84	79.6289	7,464.84	80.9206	7,464.84	76.5818	7,464.84	78.3853	7,464.84	73.5334	7,464.84	75.5848	7,464.84	69.9181	7,464.84	72.2921	7,464.84	67.7883	7,464.84	70.2043	7,464.84	62.7607	7,464.84	67.9248	7,464.84	57.4699	7,464.84	65.5178	7,464.84	60.3435	7,464.84	52.7135	7,464.84	64.7981	7,464.84	51.415	7,464.84	63.6803	7,464.84	64.4773	7,464.84	60.6943	7,464.84	66.5616	7,464.84	58.3528
7,727.05	84.0376	7,727.05	84.3072	7,727.05	84.4037	7,727.05	83.9887	7,727.05	83.7425	7,727.05	83.4236	7,727.05	83.7632	7,727.05	82.8388	7,727.05	83.0029	7,727.05	81.128	7,727.05	81.3848	7,727.05	80.6359	7,727.05	81.2544	7,727.05	79.4945	7,727.05	80.4457	7,727.05	76.5882	7,727.05	77.8526	7,727.05	73.2355	7,727.05	75.0834	7,727.05	69.3435	7,727.05	71.4698	7,727.05	67.0829	7,727.05	69.0428	7,727.05	62.8729	7,727.05	67.4162	7,727.05	56.2619	7,727.05	63.0583	7,727.05	60.1414	7,727.05	57.0652	7,727.05	64.0739	7,727.05	51.4317	7,727.05	62.6993	7,727.05	62.5168	7,727.05	57.7567	7,727.05	66.1778	7,727.05	58.4398
7,999.51	83.9859	7,999.51	84.225	7,999.51	84.2298	7,999.51	83.7651	7,999.51	83.7953	7,999.51	83.1724	7,999.51	83.2297	7,999.51	82.7552	7,999.51	82.6066	7,999.51	80.8028	7,999.51	81.0674	7,999.51	79.9706	7,999.51	80.3148	7,999.51	78.4838	7,999.51	79.2043	7,999.51	75.8945	7,999.51	76.8792	7,999.51	71.4923	7,999.51	73.8328	7,999.51	68.8103	7,999.51	70.1926	7,999.51	65.3392	7,999.51	66.567	7,999.51	61.5062	7,999.51	65.2747	7,999.51	57.0932	7,999.51	61.6741	7,999.51	57.696	7,999.51	54.1	7,999.51	62.7058	7,999.51	50.1002	7,999.51	60.8826	7,999.51	59.5376	7,999.51	57.7448	7,999.51	64.4752	7,999.51	56.5482
8,282.23	84.0034	8,282.23	83.9558	8,282.23	84.1813	8,282.23	83.5069	8,282.23	83.646	8,282.23	82.6734	8,282.23	82.785	8,282.23	82.1142	8,282.23	81.9621	8,282.23	80.0941	8,282.23	80.4567	8,282.23	79.0315	8,282.23	78.8395	8,282.23	77.2667	8,282.23	77.3499	8,282.23	74.0329	8,282.23	75.0627	8,282.23	70.3242	8,282.23	71.8176	8,282.23	66.4236	8,282.23	67.8034	8,282.23	63.6316	8,282.23	65.3748	8,282.23	62.6371	8,282.23	64.1638	8,282.23	56.3229	8,282.23	59.1144	8,282.23	53.7804	8,282.23	55.4799	8,282.23	60.1788	8,282.23	50.4442	8,282.23	58.3514	8,282.23	55.8268	8,282.23	56.5204	8,282.23	61.7701	8,282.23	55.0013
8,573.73	83.6041	8,573.73	83.3901	8,573.73	83.831	8,573.73	82.9274	8,573.73	83.4314	8,573.73	82.1086	8,573.73	82.2984	8,573.73	81.5497	8,573.73	81.3457	8,573.73	79.2344	8,573.73	79.4013	8,573.73	77.8346	8,573.73	77.8445	8,573.73	76.1422	8,573.73	76.1923	8,573.73	72.8325	8,573.73	72.9417	8,573.73	68.8029	8,573.73	69.7806	8,573.73	65.2078	8,573.73	65.7164	8,573.73	62.1049	8,573.73	64.195	8,573.73	61.3806	8,573.73	62.0352	8,573.73	53.1709	8,573.73	57.9546	8,573.73	51.0856	8,573.73	55.4511	8,573.73	57.8135	8,573.73	52.5616	8,573.73	55.6475	8,573.73	53.2214	8,573.73	55.5014	8,573.73	59.7789	8,573.73	52.5307
8,876.95	83.4431	8,876.95	82.8336	8,876.95	83.7167	8,876.95	82.3217	8,876.95	83.0574	8,876.95	81.3046	8,876.95	81.7623	8,876.95	80.3896	8,876.95	80.6353	8,876.95	78.023	8,876.95	78.4413	8,876.95	76.3946	8,876.95	76.9248	8,876.95	74.5821	8,876.95	74.7687	8,876.95	71.2753	8,876.95	71.7601	8,876.95	67.0058	8,876.95	68.4791	8,876.95	63.5883	8,876.95	63.8585	8,876.95	61.7591	8,876.95	61.7454	8,876.95	59.4678	8,876.95	59.3424	8,876.95	52.2134	8,876.95	55.0748	8,876.95	49.8003	8,876.95	55.2689	8,876.95	54.8393	8,876.95	49.7463	8,876.95	52.1014	8,876.95	49.8364	8,876.95	52.6394	8,876.95	57.8112	8,876.95	50.276
9,188.96	83.6986	9,188.96	82.9028	9,188.96	83.9185	9,188.96	82.1083	9,188.96	83.2237	9,188.96	80.8545	9,188.96	81.7006	9,188.96	79.5647	9,188.96	80.4078	9,188.96	77.2218	9,188.96	77.9114	9,188.96	75.1699	9,188.96	76.0264	9,188.96	72.8063	9,188.96	73.5402	9,188.96	69.4932	9,188.96	70.3369	9,188.96	65.3	9,188.96	66.7363	9,188.96	61.434	9,188.96	62.5143	9,188.96	59.1782	9,188.96	59.7574	9,188.96	56.8118	9,188.96	56.581	9,188.96	51.1071	9,188.96	55.5889	9,188.96	47.3541	9,188.96	54.1238	9,188.96	53.5657	9,188.96	47.0531	9,188.96	47.5298	9,188.96	48.1713	9,188.96	50.8953	9,188.96	55.5502	9,188.96	47.1327
9,514.16	84.4136	9,514.16	83.5155	9,514.16	84.5353	9,514.16	82.5907	9,514.16	83.7319	9,514.16	81.0205	9,514.16	82.2299	9,514.16	79.6895	9,514.16	80.608	9,514.16	76.8482	9,514.16	77.9875	9,514.16	74.5013	9,514.16	75.7871	9,514.16	71.3605	9,514.16	73.0189	9,514.16	68.0946	9,514.16	70.2264	9,514.16	63.0411	9,514.16	66.3251	9,514.16	59.1253	9,514.16	62.2755	9,514.16	57.2484	9,514.16	59.1254	9,514.16	55.2498	9,514.16	55.9607	9,514.16	46.8801	9,514.16	55.1296	9,514.16	42.5989	9,514.16	54.9122	9,514.16	51.2118	9,514.16	49.0845	9,514.16	43.1331	9,514.16	45.6894	9,514.16	48.9792	9,514.16	54.0931	9,514.16	45.2654
9,849.61	84.9414	9,849.61	84.0368	9,849.61	84.918	9,849.61	82.9215	9,849.61	84.0162	9,849.61	81.1731	9,849.61	82.5516	9,849.61	79.5817	9,849.61	80.8301	9,849.61	76.2246	9,849.61	77.9775	9,849.61	73.5568	9,849.61	75.6091	9,849.61	70.3939	9,849.61	73.0202	9,849.61	66.6419	9,849.61	69.781	9,849.61	62.083	9,849.61	66.1594	9,849.61	58.8826	9,849.61	62.1316	9,849.61	56.1557	9,849.61	58.6524	9,849.61	54.0083	9,849.61	56.5137	9,849.61	41.761	9,849.61	55.1093	9,849.61	38.3904	9,849.61	55.6182	9,849.61	47.6846	9,849.61	50.3997	9,849.61	42.1701	9,849.61	46.2722	9,849.61	47.0447	9,849.61	52.847	9,849.61	43.0544
10,196.8	85.0849	10,196.8	84.2503	10,196.8	84.8425	10,196.8	82.926	10,196.8	83.9647	10,196.8	80.9514	10,196.8	82.6308	10,196.8	79.1383	10,196.8	80.7428	10,196.8	75.4139	10,196.8	77.5216	10,196.8	72.6528	10,196.8	75.2222	10,196.8	69.3751	10,196.8	72.8433	10,196.8	65.6044	10,196.8	69.4932	10,196.8	61.4339	10,196.8	65.2972	10,196.8	58.0675	10,196.8	60.7605	10,196.8	55.0064	10,196.8	57.3603	10,196.8	52.3583	10,196.8	54.4734	10,196.8	35.208	10,196.8	54.5755	10,196.8	38.1388	10,196.8	55.017	10,196.8	42.1861	10,196.8	49.0855	10,196.8	39.9531	10,196.8	45.8583	10,196.8	46.4888	10,196.8	52.3089	10,196.8	39.7117
10,555.7	84.9078	10,555.7	84.2512	10,555.7	84.309	10,555.7	82.5654	10,555.7	83.7156	10,555.7	80.4474	10,555.7	82.2759	10,555.7	78.3874	10,555.7	80.2221	10,555.7	74.6237	10,555.7	76.8668	10,555.7	71.7324	10,555.7	74.6656	10,555.7	68.6508	10,555.7	71.9606	10,555.7	64.2712	10,555.7	68.2115	10,555.7	60.4915	10,555.7	63.5679	10,555.7	55.7398	10,555.7	59.3279	10,555.7	53.3931	10,555.7	55.2542	10,555.7	50.3804	10,555.7	52.1483	10,555.7	37.6001	10,555.7	53.7319	10,555.7	39.3447	10,555.7	52.9115	10,555.7	38.7847	10,555.7	48.8059	10,555.7	40.7948	10,555.7	39.8131	10,555.7	46.2535	10,555.7	49.9933	10,555.7	37.8914
10,927.7	84.3526	10,927.7	83.9502	10,927.7	83.8059	10,927.7	82.0377	10,927.7	83.2621	10,927.7	79.7792	10,927.7	81.5757	10,927.7	77.5912	10,927.7	79.2412	10,927.7	73.9403	10,927.7	75.9928	10,927.7	70.679	10,927.7	73.4425	10,927.7	66.7976	10,927.7	69.8747	10,927.7	61.8873	10,927.7	65.8524	10,927.7	58.0511	10,927.7	61.2506	10,927.7	52.9194	10,927.7	56.6142	10,927.7	50.584	10,927.7	53.2485	10,927.7	46.2922	10,927.7	49.3678	10,927.7	34.9392	10,927.7	51.5314	10,927.7	37.7492	10,927.7	51.3933	10,927.7	42.5437	10,927.7	47.5535	10,927.7	41.6413	10,927.7	35.64	10,927.7	45.5601	10,927.7	48.0601	10,927.7	35.2534
11,313	83.8884	11,313	83.5433	11,313	83.5082	11,313	81.7698	11,313	82.8937	11,313	79.1932	11,313	80.847	11,313	76.803	11,313	78.5885	11,313	73.0698	11,313	75.3316	11,313	69.2578	11,313	71.9682	11,313	65.0873	11,313	68.1763	11,313	60.0586	11,313	63.7224	11,313	56.1175	11,313	60.0014	11,313	51.6032	11,313	56.54	11,313	47.3231	11,313	51.8635	11,313	43.4916	11,313	48.8431	11,313	41.8307	11,313	50.9272	11,313	35.4296	11,313	49.6276	11,313	40.4373	11,313	44.9158	11,313	41.1183	11,313	26.7543	11,313	43.8742	11,313	45.0678	11,313	31.3065
11,712.9	84.1392	11,712.9	83.6212	11,712.9	83.9153	11,712.9	81.8134	11,712.9	83.0425	11,712.9	78.9863	11,712.9	80.8359	11,712.9	76.54	11,712.9	78.5372	11,712.9	72.4346	11,712.9	74.9491	11,712.9	68.0778	11,712.9	70.8466	11,712.9	63.3074	11,712.9	67.2426	11,712.9	58.8674	11,712.9	63.0863	11,712.9	53.9506	11,712.9	58.9192	11,712.9	50.9719	11,712.9	55.4725	11,712.9	46.667	11,712.9	51.0694	11,712.9	44.0273	11,712.9	48.3011	11,712.9	42.1172	11,712.9	49.8238	11,712.9	33.4172	11,712.9	47.2175	11,712.9	36.3662	11,712.9	43.63	11,712.9	39.7962	11,712.9	24.6918	11,712.9	42.1341	11,712.9	43.3439	11,712.9	23.3734
12,126	84.6952	12,126	84.1188	12,126	84.4829	12,126	82.196	12,126	83.4421	12,126	79.2259	12,126	81.1426	12,126	76.337	12,126	78.6763	12,126	71.7165	12,126	74.7005	12,126	67.14	12,126	70.48	12,126	62.3406	12,126	66.4411	12,126	56.8396	12,126	61.9585	12,126	53.5522	12,126	57.6364	12,126	49.0714	12,126	53.9478	12,126	46.3119	12,126	50.5523	12,126	40.8161	12,126	48.6528	12,126	42.7992	12,126	47.2654	12,126	33.9363	12,126	46.2148	12,126	31.3419	12,126	41.8592	12,126	40.4712	12,126	28.7041	12,126	41.0082	12,126	40.4934	12,126	28.7786
12,553.7	85.0421	12,553.7	84.2934	12,553.7	84.9379	12,553.7	82.3614	12,553.7	83.7613	12,553.7	79.3602	12,553.7	81.4293	12,553.7	76.2454	12,553.7	78.6129	12,553.7	71.2869	12,553.7	74.2443	12,553.7	66.1907	12,553.7	69.8851	12,553.7	61.4053	12,553.7	65.9799	12,553.7	55.9949	12,553.7	60.3558	12,553.7	53.4345	12,553.7	56.731	12,553.7	51.0152	12,553.7	52.6347	12,553.7	45.8171	12,553.7	49.4733	12,553.7	39.5791	12,553.7	46.4079	12,553.7	42.8546	12,553.7	42.3054	12,553.7	36.2072	12,553.7	44.2778	12,553.7	34.3115	12,553.7	42.3789	12,553.7	42.5767	12,553.7	24.1507	12,553.7	42.5753	12,553.7	41.2348	12,553.7	31.4991
12,996.1	85.0767	12,996.1	84.2194	12,996.1	84.9215	12,996.1	82.303	12,996.1	83.6686	12,996.1	79.2032	12,996.1	81.2626	12,996.1	75.8769	12,996.1	78.3054	12,996.1	70.7698	12,996.1	73.6668	12,996.1	65.2733	12,996.1	69.0443	12,996.1	60.449	12,996.1	64.2586	12,996.1	56.5424	12,996.1	58.3388	12,996.1	52.0779	12,996.1	52.2532	12,996.1	51.2979	12,996.1	50.3473	12,996.1	45.5262	12,996.1	44.8923	12,996.1	39.0897	12,996.1	42.5537	12,996.1	42.5738	12,996.1	41.9913	12,996.1	36.7855	12,996.1	40.2292	12,996.1	36.3529	12,996.1	41.092	12,996.1	40.3354	12,996.1	29.9754	12,996.1	42.5465	12,996.1	38.7643	12,996.1	30.5329
13,454.6	84.7864	13,454.6	83.8328	13,454.6	84.5847	13,454.6	81.8542	13,454.6	83.2931	13,454.6	78.7021	13,454.6	80.6846	13,454.6	75.1558	13,454.6	77.3673	13,454.6	69.3983	13,454.6	72.4779	13,454.6	63.0935	13,454.6	66.8859	13,454.6	55.856	13,454.6	59.4734	13,454.6	53.0077	13,454.6	49.0048	13,454.6	49.7372	13,454.6	44.8405	13,454.6	47.8705	13,454.6	43.1561	13,454.6	40.3884	13,454.6	39.5061	13,454.6	35.3057	13,454.6	39.6266	13,454.6	37.4408	13,454.6	36.8758	13,454.6	35.5012	13,454.6	36.5848	13,454.6	32.7223	13,454.6	32.6494	13,454.6	37.9922	13,454.6	30.8862	13,454.6	41.7877	13,454.6	35.9868	13,454.6	29.2778
13,929.2	84.7814	13,929.2	83.7272	13,929.2	84.5145	13,929.2	81.4857	13,929.2	83.1285	13,929.2	77.9242	13,929.2	80.2671	13,929.2	73.7751	13,929.2	76.4271	13,929.2	66.898	13,929.2	70.6114	13,929.2	58.0951	13,929.2	63.7473	13,929.2	50.609	13,929.2	51.5684	13,929.2	51.4025	13,929.2	49.1935	13,929.2	50.2679	13,929.2	51.4498	13,929.2	46.2334	13,929.2	47.0545	13,929.2	39.732	13,929.2	45.7153	13,929.2	31.9072	13,929.2	41.993	13,929.2	30.0378	13,929.2	34.9176	13,929.2	29.3985	13,929.2	35.8337	13,929.2	32.6829	13,929.2	34.9678	13,929.2	37.187	13,929.2	29.5935	13,929.2	39.9584	13,929.2	33.7912	13,929.2	30.6172
14,419.9	84.8412	14,419.9	83.688	14,419.9	84.5555	14,419.9	81.2021	14,419.9	83.1249	14,419.9	77.2529	14,419.9	79.9772	14,419.9	72.491	14,419.9	75.7362	14,419.9	63.6768	14,419.9	69.0177	14,419.9	50.3581	14,419.9	59.6412	14,419.9	55.7594	14,419.9	49.3222	14,419.9	55.9014	14,419.9	56.961	14,419.9	52.3938	14,419.9	55.8267	14,419.9	48.876	14,419.9	50.4907	14,419.9	42.8218	14,419.9	48.7926	14,419.9	34.6016	14,419.9	45.5236	14,419.9	33.7208	14,419.9	38.3773	14,419.9	30.04	14,419.9	37.8728	14,419.9	32.6026	14,419.9	38.9941	14,419.9	36.9255	14,419.9	32.74	14,419.9	40.657	14,419.9	34.9545	14,419.9	33.5264
14,928.2	84.709	14,928.2	83.434	14,928.2	84.442	14,928.2	80.7135	14,928.2	82.9238	14,928.2	76.4233	14,928.2	79.5993	14,928.2	70.7414	14,928.2	74.8265	14,928.2	60.1191	14,928.2	67.1893	14,928.2	51.9608	14,928.2	53.5756	14,928.2	59.1258	14,928.2	56.8629	14,928.2	57.6752	14,928.2	59.6003	14,928.2	53.9694	14,928.2	57.9383	14,928.2	49.751	14,928.2	53.0164	14,928.2	45.4313	14,928.2	51.3634	14,928.2	38.5095	14,928.2	47.7836	14,928.2	37.9797	14,928.2	38.7849	14,928.2	30.93	14,928.2	39.325	14,928.2	28.4413	14,928.2	41.3404	14,928.2	36.3501	14,928.2	35.6235	14,928.2	39.4301	14,928.2	34.9171	14,928.2	31.7688
15,455.6	84.5815	15,455.6	83.1302	15,455.6	84.3525	15,455.6	80.2137	15,455.6	82.7185	15,455.6	75.4111	15,455.6	79.1231	15,455.6	68.5608	15,455.6	74.0123	15,455.6	54.6256	15,455.6	65.0638	15,455.6	56.2377	15,455.6	50.1422	15,455.6	60.7847	15,455.6	58.5508	15,455.6	58.7188	15,455.6	60.5265	15,455.6	55.1015	15,455.6	58.8542	15,455.6	50.8057	15,455.6	53.9882	15,455.6	44.8111	15,455.6	51.5634	15,455.6	38.9244	15,455.6	48.1875	15,455.6	35.0483	15,455.6	36.7367	15,455.6	29.5408	15,455.6	39.2852	15,455.6	18.8101	15,455.6	40.9095	15,455.6	35.6293	15,455.6	34.8873	15,455.6	38.6774	15,455.6	35.671	15,455.6	31.0706
16,000.5	84.5679	16,000.5	82.9455	16,000.5	84.3185	16,000.5	79.7692	16,000.5	82.6823	16,000.5	74.4464	16,000.5	78.7172	16,000.5	67.1751	16,000.5	73.3879	16,000.5	52.1477	16,000.5	63.7384	16,000.5	57.5088	16,000.5	51.8764	16,000.5	59.937	16,000.5	60.0974	16,000.5	58.3577	16,000.5	60.8856	16,000.5	54.1313	16,000.5	58.5692	16,000.5	49.797	16,000.5	52.9633	16,000.5	44.173	16,000.5	51.0015	16,000.5	34.7727	16,000.5	47.3867	16,000.5	36.903	16,000.5	37.6544	16,000.5	23.3854	16,000.5	37.1927	16,000.5	16.8204	16,000.5	40.3365	16,000.5	24.9278	16,000.5	34.2309	16,000.5	36.2647	16,000.5	34.5534	16,000.5	29.2176
16,564.5	84.7211	16,564.5	83.029	16,564.5	84.467	16,564.5	79.6123	16,564.5	82.7122	16,564.5	74.0588	16,564.5	78.6021	16,564.5	66.1195	16,564.5	72.673	16,564.5	46.1077	16,564.5	61.6647	16,564.5	55.1881	16,564.5	49.6672	16,564.5	57.3126	16,564.5	59.0135	16,564.5	55.3228	16,564.5	59.4866	16,564.5	51.3229	16,564.5	57.607	16,564.5	45.7665	16,564.5	51.9099	16,564.5	39.3211	16,564.5	50.0128	16,564.5	36.5431	16,564.5	46.2052	16,564.5	36.7545	16,564.5	31.7657	16,564.5	28.4092	16,564.5	35.8295	16,564.5	18.5129	16,564.5	37.7923	16,564.5	21.7398	16,564.5	35.2654	16,564.5	35.1697	16,564.5	34.5404	16,564.5	18.3407
17,148.9	84.7405	17,148.9	82.9222	17,148.9	84.4219	17,148.9	79.2189	17,148.9	82.4838	17,148.9	73.0273	17,148.9	77.8901	17,148.9	63.9811	17,148.9	71.1902	17,148.9	53.4286	17,148.9	55.7036	17,148.9	57.5022	17,148.9	58.2282	17,148.9	57.868	17,148.9	61.3255	17,148.9	55.3934	17,148.9	60.9505	17,148.9	51.437	17,148.9	58.0445	17,148.9	43.447	17,148.9	52.9613	17,148.9	40.3218	17,148.9	50.0064	17,148.9	37.5613	17,148.9	45.7886	17,148.9	37.7803	17,148.9	34.3914	17,148.9	22.2408	17,148.9	34.0422	17,148.9	27.6508	17,148.9	35.8989	17,148.9	26.8966	17,148.9	25.0132	17,148.9	36.9977	17,148.9	35.9815	17,148.9	19.1916
17,752.4	84.1928	17,752.4	82.3007	17,752.4	83.8609	17,752.4	78.1078	17,752.4	81.6583	17,752.4	70.7602	17,752.4	76.4214	17,752.4	60.7037	17,752.4	68.0282	17,752.4	61.5297	17,752.4	55.1348	17,752.4	63.0275	17,752.4	63.7104	17,752.4	61.9651	17,752.4	64.6869	17,752.4	59.4841	17,752.4	63.1437	17,752.4	54.8984	17,752.4	59.7615	17,752.4	47.9565	17,752.4	54.5823	17,752.4	46.2731	17,752.4	51.5424	17,752.4	41.9169	17,752.4	46.7432	17,752.4	41.7282	17,752.4	41.0791	17,752.4	25.5605	17,752.4	36.1368	17,752.4	31.702	17,752.4	39.4898	17,752.4	27.0154	17,752.4	24.0163	17,752.4	35.2571	17,752.4	35.3752	17,752.4	20.5852
18,379.4	83.7256	18,379.4	81.6108	18,379.4	83.2665	18,379.4	76.7688	18,379.4	80.7542	18,379.4	67.7487	18,379.4	74.7339	18,379.4	59.768	18,379.4	63.4967	18,379.4	64.1882	18,379.4	61.6772	18,379.4	65.1012	18,379.4	66.0373	18,379.4	63.9013	18,379.4	65.5658	18,379.4	61.0209	18,379.4	64.0243	18,379.4	56.0699	18,379.4	60.3977	18,379.4	49.4408	18,379.4	55.2759	18,379.4	46.6239	18,379.4	52.4935	18,379.4	42.0614	18,379.4	48.0057	18,379.4	44.1328	18,379.4	40.7963	18,379.4	27.4703	18,379.4	36.4953	18,379.4	31.4091	18,379.4	40.4349	18,379.4	33.728	18,379.4	20.1914	18,379.4	32.7852	18,379.4	33.0781	18,379.4	24.5266
19,026.9	83.3812	19,026.9	81.037	19,026.9	82.9898	19,026.9	75.4798	19,026.9	80.0732	19,026.9	64.3998	19,026.9	73.1764	19,026.9	62.3751	19,026.9	56.3268	19,026.9	66.0461	19,026.9	64.6646	19,026.9	65.6441	19,026.9	67.0136	19,026.9	63.6128	19,026.9	65.9447	19,026.9	60.557	19,026.9	63.6423	19,026.9	54.84	19,026.9	60.1825	19,026.9	49.4525	19,026.9	55.3619	19,026.9	44.9246	19,026.9	52.219	19,026.9	39.759	19,026.9	45.8296	19,026.9	42.9926	19,026.9	41.5709	19,026.9	32.2341	19,026.9	34.6956	19,026.9	32.7886	19,026.9	38.4182	19,026.9	33.2484	19,026.9	25.1266	19,026.9	32.6128	19,026.9	27.8195	19,026.9	19.9102
19,697.8	83.0289	19,697.8	80.3943	19,697.8	82.5379	19,697.8	74.0962	19,697.8	79.3467	19,697.8	59.1163	19,697.8	71.3449	19,697.8	64.3637	19,697.8	44.6225	19,697.8	66.3218	19,697.8	65.5599	19,697.8	65.1061	19,697.8	66.5311	19,697.8	62.3165	19,697.8	64.6725	19,697.8	58.8918	19,697.8	62.0399	19,697.8	53.4989	19,697.8	58.2168	19,697.8	47.5054	19,697.8	53.0766	19,697.8	40.452	19,697.8	49.7675	19,697.8	38.0086	19,697.8	43.2571	19,697.8	41.2682	19,697.8	42.7143	19,697.8	28.8704	19,697.8	32.972	19,697.8	33.7968	19,697.8	33.9067	19,697.8	24.8802	19,697.8	33.0382	19,697.8	36.8861	19,697.8	27.052	19,697.8	25.6768
19,999.5	82.7309	19,999.5	80.0572	19,999.5	82.3825	19,999.5	73.5662	19,999.5	79.0241	19,999.5	56.7254	19,999.5	70.6557	19,999.5	64.3452	19,999.5	43.8905	19,999.5	65.7667	19,999.5	66.0191	19,999.5	64.5504	19,999.5	65.8693	19,999.5	60.2795	19,999.5	63.9674	19,999.5	58.3657	19,999.5	59.9239	19,999.5	53.2456	19,999.5	57.0708	19,999.5	47.0308	19,999.5	50.5756	19,999.5	36.9659	19,999.5	49.3781	19,999.5	45.8261	19,999.5	44.278	19,999.5	46.4799	19,999.5	46.3014	19,999.5	46.704	19,999.5	27.9193	19,999.5	47.3359	19,999.5	47.0156	19,999.5	23.3376	19,999.5	45.0945	19,999.5	45.5761	19,999.5	39.1685	19,999.5	34.8698
