"SPL Vertical"
"On-Axis"		"10°"		"-10°"		"20°"		"-20°"		"30°"		"-30°"		"40°"		"-40°"		"50°"		"-50°"		"60°"		"-60°"		"70°"		"-70°"		"80°"		"-80°"		"90°"		"-90°"		"100°"		"-100°"		"110°"		"-110°"		"120°"		"-120°"		"130°"		"-130°"		"140°"		"-140°"		"150°"		"-150°"		"160°"		"-160°"		"170°"		"-170°"		"180°"
"Frequency / Hz"	"Sound Pressure Level / dB (re 20 µPa/V)  [2.83  V @ 1. m]"	"Frequency / Hz"	"Sound Pressure Level / dB (re 20 µPa/V)  [2.83  V @ 1. m]"	"Frequency / Hz"	"Sound Pressure Level / dB (re 20 µPa/V)  [2.83  V @ 1. m]"	"Frequency / Hz"	"Sound Pressure Level / dB (re 20 µPa/V)  [2.83  V @ 1. m]"	"Frequency / Hz"	"Sound Pressure Level / dB (re 20 µPa/V)  [2.83  V @ 1. m]"	"Frequency / Hz"	"Sound Pressure Level / dB (re 20 µPa/V)  [2.83  V @ 1. m]"	"Frequency / Hz"	"Sound Pressure Level / dB (re 20 µPa/V)  [2.83  V @ 1. m]"	"Frequency / Hz"	"Sound Pressure Level / dB (re 20 µPa/V)  [2.83  V @ 1. m]"	"Frequency / Hz"	"Sound Pressure Level / dB (re 20 µPa/V)  [2.83  V @ 1. m]"	"Frequency / Hz"	"Sound Pressure Level / dB (re 20 µPa/V)  [2.83  V @ 1. m]"	"Frequency / Hz"	"Sound Pressure Level / dB (re 20 µPa/V)  [2.83  V @ 1. m]"	"Frequency / Hz"	"Sound Pressure Level / dB (re 20 µPa/V)  [2.83  V @ 1. m]"	"Frequency / Hz"	"Sound Pressure Level / dB (re 20 µPa/V)  [2.83  V @ 1. m]"	"Frequency / Hz"	"Sound Pressure Level / dB (re 20 µPa/V)  [2.83  V @ 1. m]"	"Frequency / Hz"	"Sound Pressure Level / dB (re 20 µPa/V)  [2.83  V @ 1. m]"	"Frequency / Hz"	"Sound Pressure Level / dB (re 20 µPa/V)  [2.83  V @ 1. m]"	"Frequency / Hz"	"Sound Pressure Level / dB (re 20 µPa/V)  [2.83  V @ 1. m]"	"Frequency / Hz"	"Sound Pressure Level / dB (re 20 µPa/V)  [2.83  V @ 1. m]"	"Frequency / Hz"	"Sound Pressure Level / dB (re 20 µPa/V)  [2.83  V @ 1. m]"	"Frequency / Hz"	"Sound Pressure Level / dB (re 20 µPa/V)  [2.83  V @ 1. m]"	"Frequency / Hz"	"Sound Pressure Level / dB (re 20 µPa/V)  [2.83  V @ 1. m]"	"Frequency / Hz"	"Sound Pressure Level / dB (re 20 µPa/V)  [2.83  V @ 1. m]"	"Frequency / Hz"	"Sound Pressure Level / dB (re 20 µPa/V)  [2.83  V @ 1. m]"	"Frequency / Hz"	"Sound Pressure Level / dB (re 20 µPa/V)  [2.83  V @ 1. m]"	"Frequency / Hz"	"Sound Pressure Level / dB (re 20 µPa/V)  [2.83  V @ 1. m]"	"Frequency / Hz"	"Sound Pressure Level / dB (re 20 µPa/V)  [2.83  V @ 1. m]"	"Frequency / Hz"	"Sound Pressure Level / dB (re 20 µPa/V)  [2.83  V @ 1. m]"	"Frequency / Hz"	"Sound Pressure Level / dB (re 20 µPa/V)  [2.83  V @ 1. m]"	"Frequency / Hz"	"Sound Pressure Level / dB (re 20 µPa/V)  [2.83  V @ 1. m]"	"Frequency / Hz"	"Sound Pressure Level / dB (re 20 µPa/V)  [2.83  V @ 1. m]"	"Frequency / Hz"	"Sound Pressure Level / dB (re 20 µPa/V)  [2.83  V @ 1. m]"	"Frequency / Hz"	"Sound Pressure Level / dB (re 20 µPa/V)  [2.83  V @ 1. m]"	"Frequency / Hz"	"Sound Pressure Level / dB (re 20 µPa/V)  [2.83  V @ 1. m]"	"Frequency / Hz"	"Sound Pressure Level / dB (re 20 µPa/V)  [2.83  V @ 1. m]"	"Frequency / Hz"	"Sound Pressure Level / dB (re 20 µPa/V)  [2.83  V @ 1. m]"	"Frequency / Hz"	"Sound Pressure Level / dB (re 20 µPa/V)  [2.83  V @ 1. m]"
20.5078	56.832	20.5078	56.2293	20.5078	57.3709	20.5078	55.655	20.5078	57.7835	20.5078	55.2399	20.5078	58.0234	20.5078	55.1334	20.5078	58.0496	20.5078	55.4373	20.5078	57.8242	20.5078	56.1394	20.5078	57.3207	20.5078	57.127	20.5078	56.5657	20.5078	58.2629	20.5078	55.7606	20.5078	59.4397	20.5078	55.4663	20.5078	60.5899	20.5078	56.3174	20.5078	61.6744	20.5078	58.1087	20.5078	62.6692	20.5078	60.1108	20.5078	63.5571	20.5078	61.8933	20.5078	64.3216	20.5078	63.3272	20.5078	64.9452	20.5078	64.4025	20.5078	65.4077	20.5078	65.1438	20.5078	65.6859	20.5078	65.5835	20.5078	65.754
21.9727	58.7916	21.9727	58.5175	21.9727	59.0883	21.9727	58.3466	21.9727	59.3408	21.9727	58.3615	21.9727	59.4983	21.9727	58.6216	21.9727	59.5249	21.9727	59.1387	21.9727	59.4034	21.9727	59.8737	21.9727	59.1534	21.9727	60.7589	21.9727	58.8707	21.9727	61.7246	21.9727	58.7803	21.9727	62.7146	21.9727	59.1957	21.9727	63.6886	21.9727	60.2608	21.9727	64.6184	21.9727	61.7668	21.9727	65.483	21.9727	63.3718	21.9727	66.2642	21.9727	64.8399	21.9727	66.9443	21.9727	66.0631	21.9727	67.5036	21.9727	67.0071	21.9727	67.9206	21.9727	67.6719	21.9727	68.1714	21.9727	68.0724	21.9727	68.2306
23.4375	61.0283	23.4375	60.7939	23.4375	61.2886	23.4375	60.6485	23.4375	61.5211	23.4375	60.6556	23.4375	61.684	23.4375	60.8621	23.4375	61.7489	23.4375	61.2826	23.4375	61.7047	23.4375	61.8952	23.4375	61.5708	23.4375	62.6522	23.4375	61.4208	23.4375	63.4988	23.4375	61.408	23.4375	64.3856	23.4375	61.7398	23.4375	65.2733	23.4375	62.5418	23.4375	66.1321	23.4375	63.7266	23.4375	66.9382	23.4375	65.0661	23.4375	67.6713	23.4375	66.3524	23.4375	68.3116	23.4375	67.4618	23.4375	68.8383	23.4375	68.3387	23.4375	69.2294	23.4375	68.9674	23.4375	69.4615	23.4375	69.3528	23.4375	69.5105
24.9023	63.0793	24.9023	62.9263	24.9023	63.2632	24.9023	62.852	24.9023	63.4352	24.9023	62.9015	24.9023	63.5601	24.9023	63.1078	24.9023	63.614	24.9023	63.4826	24.9023	63.5894	24.9023	64.0139	24.9023	63.5066	24.9023	64.6712	24.9023	63.4318	24.9023	65.4154	24.9023	63.4913	24.9023	66.2078	24.9023	63.8447	24.9023	67.0141	24.9023	64.5854	24.9023	67.8056	24.9023	65.6501	24.9023	68.5578	24.9023	66.8611	24.9023	69.2487	24.9023	68.0412	24.9023	69.8567	24.9023	69.0732	24.9023	70.36	24.9023	69.8976	24.9023	70.7355	24.9023	70.4927	24.9023	70.9595	24.9023	70.8588	24.9023	71.008
26.3672	65.4916	26.3672	65.3753	26.3672	65.6368	26.3672	65.3238	26.3672	65.7778	26.3672	65.372	26.3672	65.8883	26.3672	65.5466	26.3672	65.9515	26.3672	65.8603	26.3672	65.9654	26.3672	66.3092	26.3672	65.9517	26.3672	66.8741	26.3672	65.967	26.3672	67.5266	26.3672	66.1068	26.3672	68.2352	26.3672	66.4811	26.3672	68.9693	26.3672	67.1504	26.3672	69.7012	26.3672	68.0713	26.3672	70.4063	26.3672	69.1177	26.3672	71.0613	26.3672	70.1507	26.3672	71.6438	26.3672	71.0668	26.3672	72.1312	26.3672	71.8057	26.3672	72.5001	26.3672	72.3404	26.3672	72.7269	26.3672	72.6654	26.3672	72.7889
27.832	67.6973	27.832	67.5976	27.832	67.822	27.832	67.5514	27.832	67.9462	27.832	67.5864	27.832	68.0498	27.832	67.7256	27.832	68.1211	27.832	67.9826	27.832	68.1609	27.832	68.359	27.832	68.1893	27.832	68.8437	27.832	68.2525	27.832	69.4165	27.832	68.4238	27.832	70.0517	27.832	68.7838	27.832	70.7222	27.832	69.3775	27.832	71.4015	27.832	70.1772	27.832	72.0645	27.832	71.09	27.832	72.6873	27.832	72.0035	27.832	73.2464	27.832	72.8249	27.832	73.7184	27.832	73.494	27.832	74.0795	27.832	73.98	27.832	74.3065	27.832	74.273	27.832	74.3773
29.2969	69.4175	29.2969	69.3369	29.2969	69.5296	29.2969	69.3121	29.2969	69.6515	29.2969	69.3662	29.2969	69.7666	29.2969	69.518	29.2969	69.8661	29.2969	69.778	29.2969	69.9528	29.2969	70.1465	29.2969	70.0462	29.2969	70.6135	29.2969	70.1856	29.2969	71.1612	29.2969	70.4279	29.2969	71.7671	29.2969	70.8299	29.2969	72.4071	29.2969	71.4181	29.2969	73.0572	29.2969	72.1655	29.2969	73.6938	29.2969	72.9984	29.2969	74.2944	29.2969	73.8264	29.2969	74.8363	29.2969	74.5712	29.2969	75.2966	29.2969	75.1785	29.2969	75.6526	29.2969	75.6182	29.2969	75.8816	29.2969	75.8789	29.2969	75.9628
30.7617	71.5607	30.7617	71.5132	30.7617	71.6455	30.7617	71.5199	30.7617	71.7519	30.7617	71.5967	30.7617	71.8677	30.7617	71.7558	30.7617	71.9868	30.7617	72.0036	30.7617	72.1117	30.7617	72.34	30.7617	72.2571	30.7617	72.7579	30.7617	72.451	30.7617	73.2448	30.7617	72.7314	30.7617	73.7842	30.7617	73.1346	30.7617	74.3572	30.7617	73.6762	30.7617	74.944	30.7617	74.3365	30.7617	75.5242	30.7617	75.0624	30.7617	76.0767	30.7617	75.7848	30.7617	76.5799	30.7617	76.4387	30.7617	77.0115	30.7617	76.975	30.7617	77.3492	30.7617	77.3635	30.7617	77.5709	30.7617	77.5907	30.7617	77.6567
32.2266	73.7851	32.2266	73.7393	32.2266	73.8628	32.2266	73.7374	32.2266	73.9616	32.2266	73.7912	32.2266	74.0736	32.2266	73.9108	32.2266	74.1953	32.2266	74.103	32.2266	74.3296	32.2266	74.3702	32.2266	74.4875	32.2266	74.7101	32.2266	74.6882	32.2266	75.1153	32.2266	74.9571	32.2266	75.5745	32.2266	75.3177	32.2266	76.0728	32.2266	75.7804	32.2266	76.5931	32.2266	76.3326	32.2266	77.1162	32.2266	76.9376	32.2266	77.6219	32.2266	77.5439	32.2266	78.0884	32.2266	78.0982	32.2266	78.4936	32.2266	78.5563	32.2266	78.815	32.2266	78.8883	32.2266	79.0313	32.2266	79.0784	32.2266	79.1238
33.6914	75.6316	33.6914	75.5741	33.6914	75.7198	33.6914	75.5575	33.6914	75.8296	33.6914	75.592	33.6914	75.9539	33.6914	75.6866	33.6914	76.0895	33.6914	75.8477	33.6914	76.2375	33.6914	76.0785	33.6914	76.4054	33.6914	76.378	33.6914	76.6073	33.6914	76.7407	33.6914	76.862	33.6914	77.1573	33.6914	77.1882	33.6914	77.6151	33.6914	77.5959	33.6914	78.0984	33.6914	78.0781	33.6914	78.5893	33.6914	78.6075	33.6914	79.0681	33.6914	79.1417	33.6914	79.5139	33.6914	79.634	33.6914	79.9045	33.6914	80.0427	33.6914	80.218	33.6914	80.3379	33.6914	80.4334	33.6914	80.5027	33.6914	80.5327
35.1562	77.3678	35.1562	77.3113	35.1562	77.4548	35.1562	77.2934	35.1562	77.5651	35.1562	77.3222	35.1562	77.6932	35.1562	77.4048	35.1562	77.8361	35.1562	77.5467	35.1562	77.9944	35.1562	77.7507	35.1562	78.1732	35.1562	78.0167	35.1562	78.382	35.1562	78.3409	35.1562	78.634	35.1562	78.716	35.1562	78.9423	35.1562	79.1316	35.1562	79.314	35.1562	79.5743	35.1562	79.7437	35.1562	80.0281	35.1562	80.2104	35.1562	80.4747	35.1562	80.6801	35.1562	80.8942	35.1562	81.1131	35.1562	81.2655	35.1562	81.4724	35.1562	81.5671	35.1562	81.7297	35.1562	81.7788	35.1562	81.8684	35.1562	81.8833
36.6211	79.0044	36.6211	78.9458	36.6211	79.0919	36.6211	78.9221	36.6211	79.2026	36.6211	78.9396	36.6211	79.3322	36.6211	79.0041	36.6211	79.4784	36.6211	79.1201	36.6211	79.6408	36.6211	79.2906	36.6211	79.8226	36.6211	79.5165	36.6211	80.0298	36.6211	79.7956	36.6211	80.2711	36.6211	80.1232	36.6211	80.5553	36.6211	80.4912	36.6211	80.8873	36.6211	80.8886	36.6211	81.2629	36.6211	81.3015	36.6211	81.6663	36.6211	81.7133	36.6211	82.0703	36.6211	82.1052	36.6211	82.442	36.6211	82.4568	36.6211	82.7488	36.6211	82.7474	36.6211	82.9647	36.6211	82.9573	36.6211	83.0736	36.6211	83.0699
38.0859	80.1299	38.0859	80.0719	38.0859	80.2173	38.0859	80.0487	38.0859	80.329	38.0859	80.0657	38.0859	80.461	38.0859	80.1278	38.0859	80.6105	38.0859	80.239	38.0859	80.7766	38.0859	80.4019	38.0859	80.9609	38.0859	80.6173	38.0859	81.1677	38.0859	80.8839	38.0859	81.403	38.0859	81.1974	38.0859	81.6734	38.0859	81.5508	38.0859	81.9829	38.0859	81.9342	38.0859	82.3295	38.0859	82.334	38.0859	82.7016	38.0859	82.7343	38.0859	83.0777	38.0859	83.1161	38.0859	83.4286	38.0859	83.4589	38.0859	83.7236	38.0859	83.7413	38.0859	83.9359	38.0859	83.9435	38.0859	84.047	38.0859	84.0489
39.5508	81.0814	39.5508	81.0232	39.5508	81.1687	39.5508	80.9979	39.5508	81.2811	39.5508	81.0094	39.5508	81.4153	39.5508	81.0616	39.5508	81.5688	39.5508	81.1574	39.5508	81.74	39.5508	81.2991	39.5508	81.929	39.5508	81.4878	39.5508	82.1374	39.5508	81.723	39.5508	82.3682	39.5508	82.0017	39.5508	82.6249	39.5508	82.3189	39.5508	82.9095	39.5508	82.6663	39.5508	83.2199	39.5508	83.0327	39.5508	83.5471	39.5508	83.4034	39.5508	83.8738	39.5508	83.7613	39.5508	84.176	39.5508	84.0867	39.5508	84.4272	39.5508	84.3594	39.5508	84.6036	39.5508	84.5601	39.5508	84.6881	39.5508	84.673
41.0156	81.7653	41.0156	81.7026	41.0156	81.8561	41.0156	81.6711	41.0156	81.972	41.0156	81.6739	41.0156	82.1101	41.0156	81.7138	41.0156	82.2678	41.0156	81.7935	41.0156	82.4431	41.0156	81.9151	41.0156	82.6348	41.0156	82.0797	41.0156	82.8424	41.0156	82.2874	41.0156	83.0668	41.0156	82.5364	41.0156	83.309	41.0156	82.8228	41.0156	83.5696	41.0156	83.1397	41.0156	83.8466	41.0156	83.4773	41.0156	84.1328	41.0156	83.8228	41.0156	84.4146	41.0156	84.1599	41.0156	84.6723	41.0156	84.4703	41.0156	84.8833	41.0156	84.7347	41.0156	85.0264	41.0156	84.9346	41.0156	85.086	41.0156	85.0549
42.4805	82.1776	42.4805	82.1108	42.4805	82.2715	42.4805	82.0736	42.4805	82.3901	42.4805	82.0682	42.4805	82.5307	42.4805	82.097	42.4805	82.6908	42.4805	82.1621	42.4805	82.868	42.4805	82.2654	42.4805	83.0603	42.4805	82.4082	42.4805	83.2658	42.4805	82.5909	42.4805	83.4837	42.4805	82.8126	42.4805	83.7134	42.4805	83.0705	42.4805	83.9543	42.4805	83.3591	42.4805	84.2039	42.4805	83.6703	42.4805	84.4564	42.4805	83.9924	42.4805	84.7005	42.4805	84.3108	42.4805	84.92	42.4805	84.6083	42.4805	85.0952	42.4805	84.8663	42.4805	85.2076	42.4805	85.0671	42.4805	85.2434	42.4805	85.1959
43.9453	82.4474	43.9453	82.3783	43.9453	82.5432	43.9453	82.3374	43.9453	82.6635	43.9453	82.3267	43.9453	82.8061	43.9453	82.3476	43.9453	82.9684	43.9453	82.4017	43.9453	83.1476	43.9453	82.4906	43.9453	83.3406	43.9453	82.6154	43.9453	83.5445	43.9453	82.7767	43.9453	83.7567	43.9453	82.9741	43.9453	83.9752	43.9453	83.2058	43.9453	84.1981	43.9453	83.4675	43.9453	84.4229	43.9453	83.7526	43.9453	84.6444	43.9453	84.051	43.9453	84.8538	43.9453	84.3495	43.9453	85.0376	43.9453	84.6323	43.9453	85.1796	43.9453	84.8819	43.9453	85.2638	43.9453	85.0814	43.9453	85.2779	43.9453	85.2164
45.4102	82.7266	45.4102	82.655	45.4102	82.8232	45.4102	82.6097	45.4102	82.9435	45.4102	82.5918	45.4102	83.0854	45.4102	82.6021	45.4102	83.2463	45.4102	82.6419	45.4102	83.4232	45.4102	82.7123	45.4102	83.6121	45.4102	82.8146	45.4102	83.8093	45.4102	82.9496	45.4102	84.0108	45.4102	83.1178	45.4102	84.2134	45.4102	83.3182	45.4102	84.4143	45.4102	83.5484	45.4102	84.6107	45.4102	83.803	45.4102	84.7985	45.4102	84.0738	45.4102	84.9709	45.4102	84.3494	45.4102	85.1172	45.4102	84.6152	45.4102	85.2243	45.4102	84.8549	45.4102	85.2787	45.4102	85.0524	45.4102	85.27	45.4102	85.1938
46.875	82.8399	46.875	82.7649	46.875	82.9382	46.875	82.714	46.875	83.0588	46.875	82.6877	46.875	83.1999	46.875	82.6865	46.875	83.359	46.875	82.7113	46.875	83.5327	46.875	82.7633	46.875	83.7165	46.875	82.8439	46.875	83.9057	46.875	82.9546	46.875	84.0956	46.875	83.0963	46.875	84.282	46.875	83.2693	46.875	84.4618	46.875	83.4722	46.875	84.6321	46.875	83.7009	46.875	84.7898	46.875	83.9488	46.875	84.9296	46.875	84.2053	46.875	85.0434	46.875	84.4572	46.875	85.1203	46.875	84.6889	46.875	85.1491	46.875	84.885	46.875	85.1209	46.875	85.0319
48.3398	82.8599	48.3398	82.7796	48.3398	82.9631	48.3398	82.7227	48.3398	83.0885	48.3398	82.6893	48.3398	83.2344	48.3398	82.6798	48.3398	83.3982	48.3398	82.695	48.3398	83.5762	48.3398	82.7359	48.3398	83.7634	48.3398	82.804	48.3398	83.9545	48.3398	82.9012	48.3398	84.1437	48.3398	83.0289	48.3398	84.3261	48.3398	83.1878	48.3398	84.4976	48.3398	83.3772	48.3398	84.6551	48.3398	83.5939	48.3398	84.7956	48.3398	83.8318	48.3398	84.9148	48.3398	84.0813	48.3398	85.006	48.3398	84.3297	48.3398	85.0602	48.3398	84.5619	48.3398	85.0681	48.3398	84.7629	48.3398	85.0221	48.3398	84.9193
51.2695	82.7354	51.2695	82.643	51.2695	82.8546	51.2695	82.5782	51.2695	82.999	51.2695	82.541	51.2695	83.1661	51.2695	82.5313	51.2695	83.3522	51.2695	82.5488	51.2695	83.5523	51.2695	82.5932	51.2695	83.7603	51.2695	82.6646	51.2695	83.9695	51.2695	82.7629	51.2695	84.1727	51.2695	82.8884	51.2695	84.3631	51.2695	83.041	51.2695	84.5345	51.2695	83.2198	51.2695	84.6823	51.2695	83.4223	51.2695	84.8025	51.2695	83.6443	51.2695	84.8914	51.2695	83.8786	51.2695	84.9449	51.2695	84.1154	51.2695	84.9581	51.2695	84.3427	51.2695	84.9263	51.2695	84.5478	51.2695	84.8464	51.2695	84.7187
52.7344	82.6901	52.7344	82.614	52.7344	82.7913	52.7344	82.5625	52.7344	82.9178	52.7344	82.5343	52.7344	83.0681	52.7344	82.5282	52.7344	83.2395	52.7344	82.5431	52.7344	83.4274	52.7344	82.5783	52.7344	83.6253	52.7344	82.6336	52.7344	83.8255	52.7344	82.7093	52.7344	84.0193	52.7344	82.8062	52.7344	84.1984	52.7344	82.9252	52.7344	84.3553	52.7344	83.0668	52.7344	84.4843	52.7344	83.2306	52.7344	84.5816	52.7344	83.4143	52.7344	84.6446	52.7344	83.6133	52.7344	84.6714	52.7344	83.8202	52.7344	84.6597	52.7344	84.0247	52.7344	84.6076	52.7344	84.2156	52.7344	84.5143	52.7344	84.3818
54.1992	82.8086	54.1992	82.7241	54.1992	82.9145	54.1992	82.6603	54.1992	83.0415	54.1992	82.6159	54.1992	83.1882	54.1992	82.5896	54.1992	83.3514	54.1992	82.5804	54.1992	83.5262	54.1992	82.5878	54.1992	83.7061	54.1992	82.6116	54.1992	83.8831	54.1992	82.6529	54.1992	84.0486	54.1992	82.7129	54.1992	84.1943	54.1992	82.7937	54.1992	84.3133	54.1992	82.8968	54.1992	84.401	54.1992	83.0235	54.1992	84.4547	54.1992	83.1732	54.1992	84.474	54.1992	83.3429	54.1992	84.4592	54.1992	83.5267	54.1992	84.4107	54.1992	83.716	54.1992	84.3286	54.1992	83.9002	54.1992	84.2138	54.1992	84.0691
55.6641	82.9124	55.6641	82.8248	55.6641	83.0205	55.6641	82.757	55.6641	83.149	55.6641	82.7077	55.6641	83.2962	55.6641	82.6752	55.6641	83.459	55.6641	82.6585	55.6641	83.6321	55.6641	82.6568	55.6641	83.8086	55.6641	82.6702	55.6641	83.9806	55.6641	82.6994	55.6641	84.1392	55.6641	82.7462	55.6641	84.2763	55.6641	82.8129	55.6641	84.3851	55.6641	82.9018	55.6641	84.4609	55.6641	83.0149	55.6641	84.5014	55.6641	83.1524	55.6641	84.5063	55.6641	83.3123	55.6641	84.4765	55.6641	83.4896	55.6641	84.413	55.6641	83.6762	55.6641	84.3169	55.6641	83.8619	55.6641	84.19	55.6641	84.0362
58.5938	82.8009	58.5938	82.7026	58.5938	82.9196	58.5938	82.6236	58.5938	83.0582	58.5938	82.5623	58.5938	83.2147	58.5938	82.5168	58.5938	83.385	58.5938	82.4854	58.5938	83.5631	58.5938	82.467	58.5938	83.7411	58.5938	82.4615	58.5938	83.9101	58.5938	82.4697	58.5938	84.0607	58.5938	82.4936	58.5938	84.1841	58.5938	82.5362	58.5938	84.2733	58.5938	82.6008	58.5938	84.3236	58.5938	82.6905	58.5938	84.3333	58.5938	82.807	58.5938	84.3031	58.5938	82.9499	58.5938	84.2358	58.5938	83.1158	58.5938	84.1351	58.5938	83.298	58.5938	84.0048	58.5938	83.4875	58.5938	83.8494	58.5938	83.6744
60.0586	82.7179	60.0586	82.6147	60.0586	82.842	60.0586	82.5319	60.0586	82.9867	60.0586	82.4679	60.0586	83.1494	60.0586	82.4208	60.0586	83.3262	60.0586	82.389	60.0586	83.5109	60.0586	82.3713	60.0586	83.6956	60.0586	82.3674	60.0586	83.8714	60.0586	82.378	60.0586	84.0291	60.0586	82.405	60.0586	84.1595	60.0586	82.4511	60.0586	84.2554	60.0586	82.5193	60.0586	84.3112	60.0586	82.6128	60.0586	84.3246	60.0586	82.7334	60.0586	84.2955	60.0586	82.8809	60.0586	84.2264	60.0586	83.0522	60.0586	84.1207	60.0586	83.241	60.0586	83.9831	60.0586	83.4384	60.0586	83.8187	60.0586	83.6343
62.9883	82.4459	62.9883	82.3419	62.9883	82.5741	62.9883	82.2609	62.9883	82.7258	62.9883	82.2012	62.9883	82.8989	62.9883	82.1603	62.9883	83.0889	62.9883	82.1359	62.9883	83.2893	62.9883	82.1261	62.9883	83.4917	62.9883	82.1297	62.9883	83.6865	62.9883	82.1468	62.9883	83.8633	62.9883	82.1783	62.9883	84.0116	62.9883	82.2265	62.9883	84.1223	62.9883	82.2942	62.9883	84.1881	62.9883	82.3849	62.9883	84.2047	62.9883	82.5014	62.9883	84.1712	62.9883	82.6449	62.9883	84.0901	62.9883	82.8142	62.9883	83.9665	62.9883	83.0051	62.9883	83.8076	62.9883	83.21	62.9883	83.6219	62.9883	83.4192
64.4531	82.3817	64.4531	82.2764	64.4531	82.5114	64.4531	82.1945	64.4531	82.6648	64.4531	82.1341	64.4531	82.8395	64.4531	82.0925	64.4531	83.031	64.4531	82.0672	64.4531	83.2327	64.4531	82.0561	64.4531	83.4361	64.4531	82.0576	64.4531	83.6314	64.4531	82.0715	64.4531	83.8079	64.4531	82.0983	64.4531	83.955	64.4531	82.1402	64.4531	84.063	64.4531	82.2003	64.4531	84.1242	64.4531	82.282	64.4531	84.134	64.4531	82.3889	64.4531	84.0913	64.4531	82.5233	64.4531	83.9991	64.4531	82.6852	64.4531	83.8634	64.4531	82.8712	64.4531	83.6926	64.4531	83.075	64.4531	83.4969	64.4531	83.2872
67.3828	82.2541	67.3828	82.1449	67.3828	82.3864	67.3828	82.0579	67.3828	82.5412	67.3828	81.991	67.3828	82.7159	67.3828	81.9414	67.3828	82.9057	67.3828	81.9062	67.3828	83.1038	67.3828	81.883	67.3828	83.3018	67.3828	81.8699	67.3828	83.4896	67.3828	81.8663	67.3828	83.6565	67.3828	81.8728	67.3828	83.7917	67.3828	81.8918	67.3828	83.8851	67.3828	81.9267	67.3828	83.9285	67.3828	81.9822	67.3828	83.9166	67.3828	82.0633	67.3828	83.8484	67.3828	82.1743	67.3828	83.7273	67.3828	82.3177	67.3828	83.5613	67.3828	82.4926	67.3828	83.3615	67.3828	82.6943	67.3828	83.1412	67.3828	82.9144
68.8477	82.1979	68.8477	82.0878	68.8477	82.3301	68.8477	81.9988	68.8477	82.4837	68.8477	81.9289	68.8477	82.6561	68.8477	81.8753	68.8477	82.8423	68.8477	81.8349	68.8477	83.0358	68.8477	81.8051	68.8477	83.228	68.8477	81.7841	68.8477	83.409	68.8477	81.7712	68.8477	83.5682	68.8477	81.767	68.8477	83.6948	68.8477	81.7737	68.8477	83.7785	68.8477	81.7952	68.8477	83.811	68.8477	81.8365	68.8477	83.7869	68.8477	81.9034	68.8477	83.7054	68.8477	82.0011	68.8477	83.5704	68.8477	82.133	68.8477	83.3908	68.8477	82.2996	68.8477	83.179	68.8477	82.4971	68.8477	82.9496	68.8477	82.7176
71.7773	82.0882	71.7773	81.9765	71.7773	82.221	71.7773	81.8852	71.7773	82.3742	71.7773	81.812	71.7773	82.5448	71.7773	81.7542	71.7773	82.7281	71.7773	81.7084	71.7773	82.9172	71.7773	81.6718	71.7773	83.1039	71.7773	81.6422	71.7773	83.2784	71.7773	81.6186	71.7773	83.4303	71.7773	81.6015	71.7773	83.5485	71.7773	81.5932	71.7773	83.6226	71.7773	81.5977	71.7773	83.6437	71.7773	81.6207	71.7773	83.6059	71.7773	81.6687	71.7773	83.5082	71.7773	81.7486	71.7773	83.3549	71.7773	81.8657	71.7773	83.1561	71.7773	82.0221	71.7773	82.9259	71.7773	82.2158	71.7773	82.6814	71.7773	82.4395
74.707	82.0521	74.707	81.937	74.707	82.1879	74.707	81.8419	74.707	82.3433	74.707	81.7644	74.707	82.5154	74.707	81.7017	74.707	82.6991	74.707	81.6502	74.707	82.8875	74.707	81.6068	74.707	83.0721	74.707	81.5689	74.707	83.2432	74.707	81.5354	74.707	83.39	74.707	81.5066	74.707	83.5014	74.707	81.4846	74.707	83.5667	74.707	81.4738	74.707	83.5766	74.707	81.4802	74.707	83.5248	74.707	81.5117	74.707	83.4102	74.707	81.5762	74.707	83.2376	74.707	81.6809	74.707	83.0181	74.707	81.8298	74.707	82.7679	74.707	82.0224	74.707	82.5061	74.707	82.2519
77.6367	81.9847	77.6367	81.8643	77.6367	82.1261	77.6367	81.7642	77.6367	82.2869	77.6367	81.6822	77.6367	82.4639	77.6367	81.6151	77.6367	82.6515	77.6367	81.5592	77.6367	82.8427	77.6367	81.5109	77.6367	83.0288	77.6367	81.4674	77.6367	83.2	77.6367	81.4269	77.6367	83.3455	77.6367	81.3896	77.6367	83.454	77.6367	81.3577	77.6367	83.5145	77.6367	81.3354	77.6367	83.517	77.6367	81.3296	77.6367	83.455	77.6367	81.3489	77.6367	83.3267	77.6367	81.4027	77.6367	83.1372	77.6367	81.4997	77.6367	82.8986	77.6367	81.6457	77.6367	82.6285	77.6367	81.841	77.6367	82.3483	77.6367	82.0796
79.1016	81.9642	79.1016	81.8402	79.1016	82.1084	79.1016	81.7359	79.1016	82.271	79.1016	81.6494	79.1016	82.4487	79.1016	81.5773	79.1016	82.6358	79.1016	81.5161	79.1016	82.8254	79.1016	81.4621	79.1016	83.0088	79.1016	81.4122	79.1016	83.1765	79.1016	81.3649	79.1016	83.3179	79.1016	81.32	79.1016	83.422	79.1016	81.2799	79.1016	83.4774	79.1016	81.2492	79.1016	83.4742	79.1016	81.2348	79.1016	83.4053	79.1016	81.2461	79.1016	83.2688	79.1016	81.2932	79.1016	83.0696	79.1016	81.3857	79.1016	82.8201	79.1016	81.53	79.1016	82.5388	79.1016	81.7272	79.1016	82.2483	79.1016	81.9712
82.0312	81.9942	82.0312	81.8684	82.0312	82.1381	82.0312	81.7604	82.0312	82.2985	82.0312	81.6682	82.0312	82.472	82.0312	81.5886	82.0312	82.6533	82.0312	81.5181	82.0312	82.8354	82.0312	81.4528	82.0312	83.0103	82.0312	81.3898	82.0312	83.1686	82.0312	81.3274	82.0312	83.3002	82.0312	81.2658	82.0312	83.3938	82.0312	81.2073	82.0312	83.4379	82.0312	81.1571	82.0312	83.4219	82.0312	81.1229	82.0312	83.3382	82.0312	81.1149	82.0312	83.1846	82.0312	81.1446	82.0312	82.9665	82.0312	81.2231	82.0312	82.697	82.0312	81.3586	82.0312	82.3967	82.0312	81.5533	82.0312	82.09	82.0312	81.8018
84.9609	82.2335	84.9609	82.0965	84.9609	82.3811	84.9609	81.9702	84.9609	82.5375	84.9609	81.8531	84.9609	82.699	84.9609	81.7422	84.9609	82.8601	84.9609	81.6342	84.9609	83.0141	84.9609	81.5259	84.9609	83.1532	84.9609	81.4146	84.9609	83.2688	84.9609	81.299	84.9609	83.3515	84.9609	81.18	84.9609	83.3909	84.9609	81.0609	84.9609	83.3767	84.9609	80.9481	84.9609	83.2993	84.9609	80.8509	84.9609	83.1522	84.9609	80.7822	84.9609	82.9347	84.9609	80.7566	84.9609	82.654	84.9609	80.7891	84.9609	82.3264	84.9609	80.8919	84.9609	81.976	84.9609	81.0708	84.9609	81.6317	84.9609	81.3221
87.8906	81.7097	87.8906	81.5874	87.8906	81.8604	87.8906	81.492	87.8906	82.0387	87.8906	81.4204	87.8906	82.2415	87.8906	81.3678	87.8906	82.4635	87.8906	81.3293	87.8906	82.6973	87.8906	81.2998	87.8906	82.9337	87.8906	81.2754	87.8906	83.1614	87.8906	81.2534	87.8906	83.3671	87.8906	81.2333	87.8906	83.5352	87.8906	81.2169	87.8906	83.6493	87.8906	81.2086	87.8906	83.6941	87.8906	81.2158	87.8906	83.6583	87.8906	81.2483	87.8906	83.5375	87.8906	81.3176	87.8906	83.3366	87.8906	81.4347	87.8906	83.0699	87.8906	81.6075	87.8906	82.7599	87.8906	81.8376	87.8906	82.4336	87.8906	82.1183
90.8203	81.9799	90.8203	81.8383	90.8203	82.1369	90.8203	81.714	90.8203	82.3058	90.8203	81.607	90.8203	82.4815	90.8203	81.5158	90.8203	82.6584	90.8203	81.4374	90.8203	82.8308	90.8203	81.3683	90.8203	82.993	90.8203	81.3056	90.8203	83.1395	90.8203	81.2469	90.8203	83.2638	90.8203	81.1918	90.8203	83.3581	90.8203	81.1421	90.8203	83.4122	90.8203	81.1024	90.8203	83.4143	90.8203	81.0801	90.8203	83.3535	90.8203	81.0852	90.8203	83.2229	90.8203	81.1291	90.8203	83.0231	90.8203	81.2231	90.8203	82.7642	90.8203	81.3751	90.8203	82.4655	90.8203	81.5868	90.8203	82.1521	90.8203	81.8513
95.2148	82.5201	95.2148	82.39	95.2148	82.6638	95.2148	82.2734	95.2148	82.8193	95.2148	82.1682	95.2148	82.9826	95.2148	82.0705	95.2148	83.1483	95.2148	81.9759	95.2148	83.3096	95.2148	81.8798	95.2148	83.459	95.2148	81.7785	95.2148	83.5881	95.2148	81.6697	95.2148	83.6875	95.2148	81.5536	95.2148	83.7462	95.2148	81.4334	95.2148	83.7523	95.2148	81.3157	95.2148	83.6936	95.2148	81.2108	95.2148	83.561	95.2148	81.133	95.2148	83.3509	95.2148	81.0989	95.2148	83.0694	95.2148	81.1258	95.2148	82.7327	95.2148	81.2283	95.2148	82.367	95.2148	81.4135	95.2148	82.0044	95.2148	81.6776
98.1445	82.1222	98.1445	81.9868	98.1445	82.2756	98.1445	81.8698	98.1445	82.4444	98.1445	81.7695	98.1445	82.6237	98.1445	81.6825	98.1445	82.8076	98.1445	81.6042	98.1445	82.9892	98.1445	81.5301	98.1445	83.1612	98.1445	81.4563	98.1445	83.3159	98.1445	81.3803	98.1445	83.4447	98.1445	81.3021	98.1445	83.5369	98.1445	81.2242	98.1445	83.5803	98.1445	81.1523	98.1445	83.5618	98.1445	81.0953	98.1445	83.4708	98.1445	81.0654	98.1445	83.3021	98.1445	81.0768	98.1445	83.0596	98.1445	81.1436	98.1445	82.7574	98.1445	81.2773	98.1445	82.4191	98.1445	81.4823	98.1445	82.0743	98.1445	81.7535
101.074	82.0793	101.074	81.9203	101.074	82.2525	101.074	81.7777	101.074	82.4355	101.074	81.6513	101.074	82.6224	101.074	81.5389	101.074	82.8064	101.074	81.4367	101.074	82.9811	101.074	81.3408	101.074	83.1404	101.074	81.2475	101.074	83.2786	101.074	81.1547	101.074	83.3894	101.074	81.0624	101.074	83.4643	101.074	80.9734	101.074	83.4924	101.074	80.8939	101.074	83.4608	101.074	80.833	101.074	83.358	101.074	80.8031	101.074	83.1775	101.074	80.8184	101.074	82.9218	101.074	80.8931	101.074	82.6043	101.074	81.0383	101.074	82.2487	101.074	81.258	101.074	81.8855	101.074	81.5462
105.469	82.727	105.469	82.5635	105.469	82.8965	105.469	82.4091	105.469	83.0674	105.469	82.2644	105.469	83.2336	105.469	82.1284	105.469	83.3888	105.469	81.9982	105.469	83.5271	105.469	81.8702	105.469	83.6432	105.469	81.7412	105.469	83.7325	105.469	81.6089	105.469	83.7901	105.469	81.4732	105.469	83.8095	105.469	81.3369	105.469	83.7817	105.469	81.2061	105.469	83.6957	105.469	81.0911	105.469	83.5413	105.469	81.0058	105.469	83.313	105.469	80.9669	105.469	83.0146	105.469	80.9921	105.469	82.6611	105.469	81.0961	105.469	82.2786	105.469	81.2867	105.469	81.9003	105.469	81.5604
108.398	82.9316	108.398	82.7705	108.398	83.0997	108.398	82.6189	108.398	83.2702	108.398	82.4771	108.398	83.4372	108.398	82.3434	108.398	83.594	108.398	82.2146	108.398	83.7343	108.398	82.0867	108.398	83.8522	108.398	81.9562	108.398	83.9423	108.398	81.8208	108.398	83.999	108.398	81.6803	108.398	84.0151	108.398	81.5376	108.398	83.9814	108.398	81.3991	108.398	83.8868	108.398	81.275	108.398	83.7217	108.398	81.1798	108.398	83.4816	108.398	81.1306	108.398	83.1713	108.398	81.1457	108.398	82.8074	108.398	81.2408	108.398	82.4171	108.398	81.4245	108.398	82.0346	108.398	81.6944
112.793	83.2143	112.793	83.0613	112.793	83.3726	112.793	82.9159	112.793	83.5323	112.793	82.778	112.793	83.6881	112.793	82.6455	112.793	83.8344	112.793	82.515	112.793	83.9654	112.793	82.3822	112.793	84.0761	112.793	82.2433	112.793	84.1614	112.793	82.0959	112.793	84.2151	112.793	81.9396	112.793	84.2286	112.793	81.7777	112.793	84.1907	112.793	81.617	112.793	84.0884	112.793	81.4686	112.793	83.9107	112.793	81.3479	112.793	83.653	112.793	81.2737	112.793	83.3215	112.793	81.2661	112.793	82.9352	112.793	81.3428	112.793	82.5249	112.793	81.515	112.793	82.1282	112.793	81.7819
117.188	82.8502	117.188	82.6994	117.188	83.01	117.188	82.5593	117.188	83.1749	117.188	82.4291	117.188	83.3394	117.188	82.3057	117.188	83.4974	117.188	82.1848	117.188	83.6431	117.188	82.0614	117.188	83.7715	117.188	81.9313	117.188	83.8776	117.188	81.792	117.188	83.9557	117.188	81.6436	117.188	83.997	117.188	81.4896	117.188	83.9887	117.188	81.3376	117.188	83.9157	117.188	81.1994	117.188	83.7637	117.188	81.091	117.188	83.5254	117.188	81.0319	117.188	83.2046	117.188	81.0422	117.188	82.8198	117.188	81.1397	117.188	82.4018	117.188	81.3343	117.188	81.99	117.188	81.6236
120.117	82.8823	120.117	82.7096	120.117	83.066	120.117	82.5517	120.117	83.2544	120.117	82.4094	120.117	83.4399	120.117	82.2808	120.117	83.6146	120.117	82.1619	120.117	83.7715	120.117	82.0478	120.117	83.9053	120.117	81.9336	120.117	84.0122	120.117	81.8162	120.117	84.088	120.117	81.6947	120.117	84.1263	120.117	81.5716	120.117	84.1169	120.117	81.4528	120.117	84.0462	120.117	81.3485	120.117	83.9013	120.117	81.2725	120.117	83.6747	120.117	81.2417	120.117	83.37	120.117	81.2735	120.117	83.0042	120.117	81.3835	120.117	82.6067	120.117	81.5804	120.117	82.214	120.117	81.8625
124.512	83.1912	124.512	83.0131	124.512	83.3772	124.512	82.8471	124.512	83.5645	124.512	82.6946	124.512	83.7454	124.512	82.5538	124.512	83.912	124.512	82.4209	124.512	84.058	124.512	82.2905	124.512	84.1783	124.512	82.1577	124.512	84.269	124.512	82.0189	124.512	84.3253	124.512	81.8729	124.512	84.34	124.512	81.7221	124.512	84.3021	124.512	81.573	124.512	84.1979	124.512	81.4364	124.512	84.0148	124.512	81.3271	124.512	83.7473	124.512	81.2634	124.512	83.4017	124.512	81.2647	124.512	82.9987	124.512	81.349	124.512	82.5715	124.512	81.5281	124.512	82.1602	124.512	81.803
128.906	83.2184	128.906	83.0333	128.906	83.4097	128.906	82.8598	128.906	83.5997	128.906	82.7003	128.906	83.7805	128.906	82.5541	128.906	83.9446	128.906	82.4179	128.906	84.0867	128.906	82.2868	128.906	84.2034	128.906	82.1558	128.906	84.2927	128.906	82.0212	128.906	84.3518	128.906	81.882	128.906	84.3745	128.906	81.7402	128.906	84.3496	128.906	81.6023	128.906	84.2617	128.906	81.4786	128.906	84.0962	128.906	81.3836	128.906	83.8449	128.906	81.3346	128.906	83.5121	128.906	81.3502	128.906	83.1174	128.906	81.4473	128.906	82.6937	128.906	81.637	128.906	82.2816	128.906	81.9197
133.301	83.268	133.301	83.0726	133.301	83.4659	133.301	82.8857	133.301	83.6581	133.301	82.7109	133.301	83.8364	133.301	82.5484	133.301	83.9939	133.301	82.3956	133.301	84.1258	133.301	82.2482	133.301	84.2296	133.301	82.1017	133.301	84.3046	133.301	81.9527	133.301	84.3488	133.301	81.8005	133.301	84.3569	133.301	81.6478	133.301	84.3183	133.301	81.5016	133.301	84.2176	133.301	81.3726	133.301	84.04	133.301	81.2755	133.301	83.7776	133.301	81.2271	133.301	83.435	133.301	81.2452	133.301	83.0322	133.301	81.3454	133.301	82.6028	133.301	81.5378	133.301	82.1869	133.301	81.8227
139.16	83.282	139.16	83.0911	139.16	83.4741	139.16	82.9069	139.16	83.6599	139.16	82.7322	139.16	83.8316	139.16	82.5666	139.16	83.9825	139.16	82.4064	139.16	84.1082	139.16	82.2467	139.16	84.2065	139.16	82.0822	139.16	84.2764	139.16	81.9092	139.16	84.3159	139.16	81.7274	139.16	84.3185	139.16	81.5406	139.16	84.2716	139.16	81.3574	139.16	84.1581	139.16	81.1914	139.16	83.9611	139.16	81.06	139.16	83.6722	139.16	80.9831	139.16	83.297	139.16	80.981	139.16	82.8583	139.16	81.071	139.16	82.3935	139.16	81.2642	139.16	81.9473	139.16	81.5609
143.555	83.0996	143.555	82.8909	143.555	83.3108	143.555	82.6925	143.555	83.5154	143.555	82.5086	143.555	83.7037	143.555	82.3395	143.555	83.8681	143.555	82.1821	143.555	84.0037	143.555	82.0311	143.555	84.1089	143.555	81.8805	143.555	84.1837	143.555	81.7257	143.555	84.227	143.555	81.5649	143.555	84.2331	143.555	81.4006	143.555	84.1894	143.555	81.2396	143.555	84.0778	143.555	81.0939	143.555	83.8812	143.555	80.9793	143.555	83.5908	143.555	80.9142	143.555	83.2132	143.555	80.9179	143.555	82.7727	143.555	81.0078	143.555	82.3085	143.555	81.1963	143.555	81.866	143.555	81.4861
147.949	83.0251	147.949	82.7931	147.949	83.2563	147.949	82.5697	147.949	83.4759	147.949	82.3615	147.949	83.674	147.949	82.1706	147.949	83.8432	147.949	81.9954	147.949	83.98	147.949	81.8311	147.949	84.0844	147.949	81.6721	147.949	84.1584	147.949	81.5137	147.949	84.2024	147.949	81.3543	147.949	84.2112	147.949	81.1964	147.949	84.1715	147.949	81.0469	147.949	84.0639	147.949	80.9176	147.949	83.8692	147.949	80.8234	147.949	83.5774	147.949	80.7811	147.949	83.1949	147.949	80.8079	147.949	82.7467	147.949	80.9188	147.949	82.2731	147.949	81.1248	147.949	81.8203	147.949	81.4287
153.809	83.1345	153.809	82.8731	153.809	83.3882	153.809	82.6144	153.809	83.6229	153.809	82.3665	153.809	83.8289	153.809	82.1334	153.809	83.9995	153.809	81.9153	153.809	84.1322	153.809	81.7089	153.809	84.2285	153.809	81.5096	153.809	84.2918	153.809	81.3139	153.809	84.3243	153.809	81.121	153.809	84.3214	153.809	80.9347	153.809	84.2696	153.809	80.7636	153.809	84.1475	153.809	80.6211	153.809	83.9339	153.809	80.5238	153.809	83.6165	153.809	80.4891	153.809	83.2005	153.809	80.5338	153.809	82.7117	153.809	80.6717	153.809	82.1926	153.809	80.9121	153.809	81.6929	153.809	81.2565
159.668	83.4881	159.668	83.2496	159.668	83.7114	159.668	83.0052	159.668	83.9099	159.668	82.7623	159.668	84.0756	159.668	82.5249	159.668	84.2044	159.668	82.2939	159.668	84.2968	159.668	82.0677	159.668	84.3584	159.668	81.8436	159.668	84.3973	159.668	81.6207	159.668	84.4197	159.668	81.4012	159.668	84.4236	159.668	81.1918	159.668	84.3951	159.668	81.0049	159.668	84.3099	159.668	80.8568	159.668	84.1418	159.668	80.7663	159.668	83.8735	159.668	80.7512	159.668	83.505	159.668	80.8258	159.668	83.0569	159.668	80.9985	159.668	82.5666	159.668	81.2711	159.668	82.0793	159.668	81.6372
165.527	83.5694	165.527	83.3434	165.527	83.7795	165.527	83.1119	165.527	83.9625	165.527	82.8829	165.527	84.1091	165.527	82.6603	165.527	84.2139	165.527	82.444	165.527	84.2766	165.527	82.2309	165.527	84.3028	165.527	82.0172	165.527	84.3015	165.527	81.8006	165.527	84.2813	165.527	81.5828	165.527	84.2439	165.527	81.3708	165.527	84.1796	165.527	81.1774	165.527	84.068	165.527	81.0201	165.527	83.8861	165.527	80.9179	165.527	83.6192	165.527	80.8879	165.527	83.2694	165.527	80.9414	165.527	82.8584	165.527	81.083	165.527	82.4215	165.527	81.3115	165.527	81.998	165.527	81.6206
171.387	83.617	171.387	83.3897	171.387	83.8254	171.387	83.1545	171.387	84.0039	171.387	82.9203	171.387	84.1435	171.387	82.6919	171.387	84.2395	171.387	82.4699	171.387	84.2925	171.387	82.2512	171.387	84.3079	171.387	82.0314	171.387	84.2947	171.387	81.8077	171.387	84.2604	171.387	81.581	171.387	84.2054	171.387	81.3582	171.387	84.1187	171.387	81.1523	171.387	83.9794	171.387	80.9808	171.387	83.7654	171.387	80.8629	171.387	83.4647	171.387	80.8151	171.387	83.0847	171.387	80.8473	171.387	82.6528	171.387	80.9633	171.387	82.2098	171.387	81.1623	171.387	81.7963	171.387	81.442
177.246	83.5333	177.246	83.3203	177.246	83.7256	177.246	83.097	177.246	83.8867	177.246	82.8717	177.246	84.0088	177.246	82.6489	177.246	84.0886	177.246	82.4286	177.246	84.1292	177.246	82.2081	177.246	84.1389	177.246	81.9833	177.246	84.1289	177.246	81.752	177.246	84.1068	177.246	81.5159	177.246	84.0699	177.246	81.2829	177.246	84.0013	177.246	81.0668	177.246	83.8737	177.246	80.8857	177.246	83.661	177.246	80.7589	177.246	83.3509	177.246	80.702	177.246	82.9542	177.246	80.724	177.246	82.5044	177.246	80.8279	177.246	82.0485	177.246	81.0139	177.246	81.6313	177.246	81.2823
183.105	83.4651	183.105	83.2524	183.105	83.6528	183.105	83.027	183.105	83.8038	183.105	82.7982	183.105	83.909	183.105	82.5711	183.105	83.9651	183.105	82.3459	183.105	83.9765	183.105	82.1192	183.105	83.9554	183.105	81.887	183.105	83.9197	183.105	81.6479	183.105	83.8859	183.105	81.406	183.105	83.8585	183.105	81.1724	183.105	83.8222	183.105	80.965	183.105	83.7445	183.105	80.8052	183.105	83.5895	183.105	80.7129	183.105	83.3353	183.105	80.6998	183.105	82.9861	183.105	80.7675	183.105	82.5731	183.105	80.9102	183.105	82.1437	183.105	81.1214	183.105	81.743	183.105	81.3991
188.965	83.563	188.965	83.3363	188.965	83.7611	188.965	83.0946	188.965	83.9169	188.965	82.8481	188.965	84.0196	188.965	82.6019	188.965	84.0633	188.965	82.3551	188.965	84.0491	188.965	82.1021	188.965	83.9861	188.965	81.8358	188.965	83.8896	188.965	81.5516	188.965	83.7769	188.965	81.2519	188.965	83.6592	188.965	80.9488	188.965	83.5333	188.965	80.6656	188.965	83.3806	188.965	80.4337	188.965	83.1751	188.965	80.2844	188.965	82.8974	188.965	80.2387	188.965	82.5472	188.965	80.3	188.965	82.1464	188.965	80.4559	188.965	81.7308	188.965	80.6886	188.965	81.3358	188.965	80.9847
196.289	83.6191	196.289	83.4328	196.289	83.7705	196.289	83.2247	196.289	83.8751	196.289	83.0058	196.289	83.9252	196.289	82.7822	196.289	83.9203	196.289	82.5539	196.289	83.8673	196.289	82.3155	196.289	83.7811	196.289	82.0597	196.289	83.6803	196.289	81.7808	196.289	83.5799	196.289	81.4787	196.289	83.4809	196.289	81.1628	196.289	83.3647	196.289	80.8529	196.289	83.1981	196.289	80.5776	196.289	82.9491	196.289	80.3685	196.289	82.6062	196.289	80.2498	196.289	82.1882	196.289	80.2303	196.289	81.7409	196.289	80.3023	196.289	81.3176	196.289	80.4514	196.289	80.9562	196.289	80.6687
203.613	83.4425	203.613	83.2268	203.613	83.6206	203.613	82.988	203.613	83.7475	203.613	82.7384	203.613	83.813	203.613	82.4854	203.613	83.8136	203.613	82.2294	203.613	83.7534	203.613	81.9653	203.613	83.6458	203.613	81.6848	203.613	83.5111	203.613	81.3812	203.613	83.3696	203.613	81.0539	203.613	83.2296	203.613	80.7119	203.613	83.0765	203.613	80.376	203.613	82.8748	203.613	80.0766	203.613	82.5856	203.613	79.8461	203.613	82.1895	203.613	79.7078	203.613	81.7045	203.613	79.6673	203.613	81.1854	203.613	79.7139	203.613	80.7038	203.613	79.8343	203.613	80.3135	203.613	80.0287
210.938	83.6037	210.938	83.4104	210.938	83.7587	210.938	83.1905	210.938	83.8639	210.938	82.953	210.938	83.9105	210.938	82.702	210.938	83.895	210.938	82.4359	210.938	83.8209	210.938	82.1487	210.938	83.6995	210.938	81.8325	210.938	83.5483	210.938	81.4817	210.938	83.3851	210.938	81.0972	210.938	83.2177	210.938	80.6904	210.938	83.0345	210.938	80.2854	210.938	82.8047	210.938	79.9176	210.938	82.4925	210.938	79.6266	210.938	82.078	210.938	79.4427	210.938	81.5751	210.938	79.3762	210.938	81.0332	210.938	79.4175	210.938	80.5208	210.938	79.5511	210.938	80.0938	210.938	79.773
218.262	83.3366	218.262	83.1568	218.262	83.487	218.262	82.9629	218.262	83.5927	218.262	82.7663	218.262	83.6429	218.262	82.5709	218.262	83.6345	218.262	82.3719	218.262	83.5748	218.262	82.1585	218.262	83.4814	218.262	81.9177	218.262	83.3784	218.262	81.6396	218.262	83.2866	218.262	81.3222	218.262	83.208	218.262	80.9747	218.262	83.1168	218.262	80.6194	218.262	82.9659	218.262	80.29	218.262	82.7087	218.262	80.0241	218.262	82.325	218.262	79.8512	218.262	81.8364	218.262	79.7825	218.262	81.3048	218.262	79.8104	218.262	80.8086	218.262	79.9219	218.262	80.4067	218.262	80.1157
225.586	83.3877	225.586	83.1617	225.586	83.5718	225.586	82.9147	225.586	83.6944	225.586	82.6638	225.586	83.7408	225.586	82.4178	225.586	83.7047	225.586	82.1754	225.586	83.5912	225.586	81.9269	225.586	83.4188	225.586	81.6593	225.586	83.219	225.586	81.3626	225.586	83.0278	225.586	81.0361	225.586	82.8679	225.586	80.6923	225.586	82.7298	225.586	80.3588	225.586	82.5698	225.586	80.0734	225.586	82.3351	225.586	79.8736	225.586	81.9967	225.586	79.7801	225.586	81.5718	225.586	79.7877	225.586	81.1201	225.586	79.8699	225.586	80.7144	225.586	79.9997	225.586	80.3983	225.586	80.1695
232.91	83.7156	232.91	83.4653	232.91	83.9198	232.91	83.1901	232.91	84.0583	232.91	82.9077	232.91	84.1157	232.91	82.6271	232.91	84.0841	232.91	82.3461	232.91	83.9641	232.91	82.0524	232.91	83.7668	232.91	81.7284	232.91	83.5136	232.91	81.359	232.91	83.2313	232.91	80.9389	232.91	82.9388	232.91	80.4789	232.91	82.6317	232.91	80.0108	232.91	82.2777	232.91	79.5844	232.91	81.8357	232.91	79.2548	232.91	81.2892	232.91	79.0579	232.91	80.6757	232.91	78.9898	232.91	80.0869	232.91	79.0107	232.91	79.6244	232.91	79.0755	232.91	79.3311	232.91	79.1703
241.699	83.6284	241.699	83.3784	241.699	83.8351	241.699	83.1096	241.699	83.9777	241.699	82.8434	241.699	84.0426	241.699	82.592	241.699	84.0265	241.699	82.3539	241.699	83.9373	241.699	82.1151	241.699	83.7947	241.699	81.8543	241.699	83.6256	241.699	81.5515	241.699	83.454	241.699	81.1952	241.699	83.2837	241.699	80.7892	241.699	83.0855	241.699	80.3553	241.699	82.8025	241.699	79.9326	241.699	82.3759	241.699	79.5679	241.699	81.7796	241.699	79.2972	241.699	81.0499	241.699	79.1286	241.699	80.296	241.699	79.0428	241.699	79.6653	241.699	79.0186	241.699	79.2589	241.699	79.0692
250.488	84.0596	250.488	83.7782	250.488	84.2753	250.488	83.4541	250.488	84.407	250.488	83.1102	250.488	84.4444	250.488	82.7637	250.488	84.3873	250.488	82.4205	250.488	84.2474	250.488	82.0745	250.488	84.0504	250.488	81.7116	250.488	83.835	250.488	81.3174	250.488	83.6429	250.488	80.8862	250.488	83.4963	250.488	80.4294	250.488	83.374	250.488	79.9796	250.488	83.2081	250.488	79.5873	250.488	82.9137	250.488	79.3035	250.488	82.432	250.488	79.1534	250.488	81.7658	250.488	79.1208	250.488	80.9991	250.488	79.1639	250.488	80.279	250.488	79.2556	250.488	79.7415	250.488	79.4221
259.277	83.7573	259.277	83.5562	259.277	83.9085	259.277	83.3271	259.277	83.9918	259.277	83.0895	259.277	83.9975	259.277	82.8535	259.277	83.9263	259.277	82.6147	259.277	83.7912	259.277	82.3563	259.277	83.6176	259.277	82.0545	259.277	83.4405	259.277	81.6882	259.277	83.2937	259.277	81.2476	259.277	83.1897	259.277	80.7425	259.277	83.1016	259.277	80.2093	259.277	82.9651	259.277	79.7122	259.277	82.7059	259.277	79.3295	259.277	82.2781	259.277	79.1193	259.277	81.6929	259.277	79.0855	259.277	81.0291	259.277	79.181	259.277	80.4066	259.277	79.3518	259.277	79.9207	259.277	79.5851
268.066	83.6885	268.066	83.4297	268.066	83.8835	268.066	83.1371	268.066	83.991	268.066	82.8405	268.066	83.9986	268.066	82.5597	268.066	83.9072	268.066	82.2972	268.066	83.7329	268.066	82.0378	268.066	83.5092	268.066	81.7559	268.066	83.2853	268.066	81.4258	268.066	83.1131	268.066	81.0334	268.066	83.0175	268.066	80.5846	268.066	82.9664	268.066	80.1113	268.066	82.8723	268.066	79.671	268.066	82.6326	268.066	79.331	268.066	82.1804	268.066	79.1358	268.066	81.5236	268.066	79.079	268.066	80.7628	268.066	79.1109	268.066	80.0671	268.066	79.1858	268.066	79.5791	268.066	79.3147
276.855	83.7574	276.855	83.5174	276.855	83.9227	276.855	83.2355	276.855	83.9917	276.855	82.9467	276.855	83.9575	276.855	82.6756	276.855	83.829	276.855	82.4246	276.855	83.632	276.855	82.172	276.855	83.409	276.855	81.8821	276.855	83.2135	276.855	81.5207	276.855	83.0932	276.855	81.0699	276.855	83.0608	276.855	80.5413	276.855	83.0723	276.855	79.9846	276.855	83.0363	276.855	79.4865	276.855	82.8533	276.855	79.1428	276.855	82.4577	276.855	79.004	276.855	81.8492	276.855	79.0381	276.855	81.1109	276.855	79.1622	276.855	80.3959	276.855	79.3161	276.855	79.8513	276.855	79.5164
287.109	83.4761	287.109	83.2871	287.109	83.5935	287.109	83.0614	287.109	83.6115	287.109	82.8318	287.109	83.514	287.109	82.6186	287.109	83.3005	287.109	82.4193	287.109	82.9935	287.109	82.2084	287.109	82.6494	287.109	81.9456	287.109	82.3633	287.109	81.5892	287.109	82.2432	287.109	81.1104	287.109	82.3387	287.109	80.5071	287.109	82.5807	287.109	79.8211	287.109	82.8112	287.109	79.1522	287.109	82.8721	287.109	78.6488	287.109	82.6676	287.109	78.4366	287.109	82.1867	287.109	78.5245	287.109	81.5044	287.109	78.8064	287.109	80.7625	287.109	79.1703	287.109	80.1041	287.109	79.5866
297.363	83.9048	297.363	83.5981	297.363	84.1068	297.363	83.2413	297.363	84.1635	297.363	82.8937	297.363	84.0504	297.363	82.6009	297.363	83.7593	297.363	82.3747	297.363	83.3021	297.363	82.187	297.363	82.7222	297.363	81.9831	297.363	82.1146	297.363	81.7043	297.363	81.6364	297.363	81.307	297.363	81.4511	297.363	80.7762	297.363	81.5888	297.363	80.1392	297.363	81.8823	297.363	79.4797	297.363	82.0895	297.363	78.9367	297.363	82.0422	297.363	78.6499	297.363	81.6972	297.363	78.6611	297.363	81.131	297.363	78.8828	297.363	80.5006	297.363	79.1916	297.363	79.9545	297.363	79.5356
307.617	84.0094	307.617	83.6478	307.617	84.2647	307.617	83.2417	307.617	84.3752	307.617	82.8674	307.617	84.3225	307.617	82.5887	307.617	84.103	307.617	82.4224	307.617	83.7249	307.617	82.3249	307.617	83.2107	307.617	82.2138	307.617	82.6084	307.617	82.004	307.617	82.0103	307.617	81.632	307.617	81.5544	307.617	81.0684	307.617	81.3608	307.617	80.3287	307.617	81.4149	307.617	79.4932	307.617	81.547	307.617	78.7243	307.617	81.5547	307.617	78.2279	307.617	81.3216	307.617	78.1192	307.617	80.8522	307.617	78.3272	307.617	80.2508	307.617	78.6959	307.617	79.6534	307.617	79.1368
319.336	84.4156	319.336	84.0158	319.336	84.6507	319.336	83.5011	319.336	84.6958	319.336	82.951	319.336	84.5433	319.336	82.4638	319.336	84.199	319.336	82.121	319.336	83.6821	319.336	81.94	319.336	83.0309	319.336	81.8604	319.336	82.3149	319.336	81.781	319.336	81.6482	319.336	81.6081	319.336	81.1784	319.336	81.2835	319.336	81.0095	319.336	80.7959	319.336	81.098	319.336	80.1897	319.336	81.2635	319.336	79.5748	319.336	81.3175	319.336	79.1083	319.336	81.1642	319.336	78.916	319.336	80.8218	319.336	78.9999	319.336	80.3871	319.336	79.2558	319.336	79.9614	319.336	79.5855
329.59	84.53	329.59	84.0956	329.59	84.7968	329.59	83.5387	329.59	84.8758	329.59	82.9373	329.59	84.763	329.59	82.3971	329.59	84.4645	329.59	82.0159	329.59	83.9942	329.59	81.8269	329.59	83.3755	329.59	81.7741	329.59	82.6492	329.59	81.7482	329.59	81.8907	329.59	81.6441	329.59	81.2282	329.59	81.395	329.59	80.8173	329.59	80.9831	329.59	80.7294	329.59	80.4458	329.59	80.8545	329.59	79.8814	329.59	80.9803	329.59	79.4341	329.59	80.9492	329.59	79.2238	329.59	80.7305	329.59	79.2623	329.59	80.3967	329.59	79.4616	329.59	80.0468	329.59	79.7329
341.309	84.4894	341.309	84.081	341.309	84.7013	341.309	83.5056	341.309	84.7092	341.309	82.8241	341.309	84.5213	341.309	82.1357	341.309	84.159	341.309	81.5625	341.309	83.6553	341.309	81.1964	341.309	83.0518	341.309	81.039	341.309	82.393	341.309	81.0011	341.309	81.7227	341.309	80.9654	341.309	81.0907	341.309	80.8462	341.309	80.5725	341.309	80.6145	341.309	80.2671	341.309	80.3026	341.309	80.2276	341.309	79.996	341.309	80.3793	341.309	79.8017	341.309	80.563	341.309	79.7859	341.309	80.6578	341.309	79.9271	341.309	80.6354	341.309	80.1419	341.309	80.5241	341.309	80.3534
353.027	84.6479	353.027	84.263	353.027	84.8173	353.027	83.685	353.027	84.7669	353.027	82.9615	353.027	84.5074	353.027	82.1743	353.027	84.0649	353.027	81.4383	353.027	83.4831	353.027	80.8688	353.027	82.8224	353.027	80.519	353.027	82.1541	353.027	80.3432	353.027	81.5435	353.027	80.2331	353.027	81.0283	353.027	80.0885	353.027	80.6106	353.027	79.8642	353.027	80.2789	353.027	79.588	353.027	80.0398	353.027	79.3545	353.027	79.9178	353.027	79.2792	353.027	79.9186	353.027	79.411	353.027	80.0066	353.027	79.6818	353.027	80.118	353.027	79.9593	353.027	80.1821	353.027	80.138
366.211	84.7837	366.211	84.4286	366.211	84.9237	366.211	83.8777	366.211	84.8425	366.211	83.1695	366.211	84.5455	366.211	82.3703	366.211	84.0499	366.211	81.5782	366.211	83.3894	366.211	80.9056	366.211	82.6199	366.211	80.4274	366.211	81.825	366.211	80.1302	366.211	81.1085	366.211	79.9214	366.211	80.5625	366.211	79.6941	366.211	80.2153	366.211	79.3884	366.211	80.0114	366.211	79.0249	366.211	79.8584	366.211	78.7122	366.211	79.7035	366.211	78.5992	366.211	79.5708	366.211	78.7568	366.211	79.526	366.211	79.0955	366.211	79.5847	366.211	79.4355	366.211	79.6629	366.211	79.6365
379.395	84.3336	379.395	83.9406	379.395	84.5244	379.395	83.3752	379.395	84.4997	379.395	82.6887	379.395	84.2596	379.395	81.9576	379.395	83.8176	379.395	81.2768	379.395	83.2024	379.395	80.734	379.395	82.4599	379.395	80.3676	379.395	81.6546	379.395	80.1443	379.395	80.8682	379.395	79.98	379.395	80.1956	379.395	79.788	379.395	79.7294	379.395	79.5188	379.395	79.5223	379.395	79.1857	379.395	79.5417	379.395	78.8748	379.395	79.6754	379.395	78.7165	379.395	79.8033	379.395	78.7937	379.395	79.8636	379.395	79.0594	379.395	79.854	379.395	79.3762	379.395	79.7818	379.395	79.629
392.578	84.0637	392.578	83.7406	392.578	84.1318	392.578	83.1845	392.578	83.943	392.578	82.4405	392.578	83.517	392.578	81.5855	392.578	82.8994	392.578	80.7339	392.578	82.1606	392.578	80.0222	392.578	81.3836	392.578	79.5524	392.578	80.6337	392.578	79.3282	392.578	79.9277	392.578	79.2573	392.578	79.2399	392.578	79.2231	392.578	78.5713	392.578	79.1561	392.578	78.0492	392.578	79.0649	392.578	77.9198	392.578	79.0293	392.578	78.2905	392.578	79.1468	392.578	78.9544	392.578	79.4454	392.578	79.6183	392.578	79.8425	392.578	80.1125	392.578	80.1995	392.578	80.3767	392.578	80.3991
405.762	84.0672	405.762	83.7703	405.762	84.0751	405.762	83.2112	405.762	83.7821	405.762	82.4332	405.762	83.1959	405.762	81.5036	405.762	82.3533	405.762	80.5248	405.762	81.3353	405.762	79.6326	405.762	80.2784	405.762	78.9577	405.762	79.3516	405.762	78.5507	405.762	78.6637	405.762	78.3489	405.762	78.1647	405.762	78.2362	405.762	77.6834	405.762	78.1367	405.762	77.1036	405.762	78.0686	405.762	76.5643	405.762	78.1344	405.762	76.5009	405.762	78.4333	405.762	77.1734	405.762	78.9431	405.762	78.2372	405.762	79.5066	405.762	79.2066	405.762	79.931	405.762	79.8373	405.762	80.0696
420.41	84.2335	420.41	84.0196	420.41	84.1967	420.41	83.5746	420.41	83.9052	420.41	82.9319	420.41	83.3738	420.41	82.1408	420.41	82.6406	420.41	81.273	420.41	81.7702	420.41	80.4237	420.41	80.8524	420.41	79.6904	420.41	79.9832	420.41	79.1198	420.41	79.2219	420.41	78.6667	420.41	78.5495	420.41	78.2195	420.41	77.8719	420.41	77.6847	420.41	77.0891	420.41	77.0862	420.41	76.2217	420.41	76.6463	420.41	75.5834	420.41	76.7023	420.41	75.7123	420.41	77.3247	420.41	76.6616	420.41	78.164	420.41	77.8255	420.41	78.8083	420.41	78.6785	420.41	79.0127
435.059	83.7191	435.059	83.5204	435.059	83.6109	435.059	83.0594	435.059	83.1712	435.059	82.3989	435.059	82.4026	435.059	81.6199	435.059	81.3593	435.059	80.8215	435.059	80.1924	435.059	80.1114	435.059	79.1779	435.059	79.5772	435.059	78.5901	435.059	79.243	435.059	78.4272	435.059	79.0463	435.059	78.3951	435.059	78.8697	435.059	78.17	435.059	78.6034	435.059	77.5543	435.059	78.2042	435.059	76.5633	435.059	77.7463	435.059	75.6294	435.059	77.4375	435.059	75.5558	435.059	77.4941	435.059	76.4483	435.059	77.8897	435.059	77.5374	435.059	78.337	435.059	78.2793	435.059	78.5287
451.172	84.4015	451.172	84.0806	451.172	84.3987	451.172	83.4862	451.172	84.0282	451.172	82.6726	451.172	83.2565	451.172	81.7003	451.172	82.0704	451.172	80.6455	451.172	80.5066	451.172	79.6161	451.172	78.7248	451.172	78.7527	451.172	77.127	451.172	78.176	451.172	76.2767	451.172	77.8927	451.172	76.304	451.172	77.7782	451.172	76.7075	451.172	77.6805	451.172	76.966	451.172	77.5409	451.172	76.8546	451.172	77.453	451.172	76.4928	451.172	77.6077	451.172	76.3891	451.172	78.0893	451.172	77.008	451.172	78.7264	451.172	78.0573	451.172	79.2204	451.172	78.9326	451.172	79.3303
465.82	84.2309	465.82	83.9038	465.82	84.2251	465.82	83.3127	465.82	83.8417	465.82	82.5449	465.82	83.0608	465.82	81.6902	465.82	81.8947	465.82	80.8177	465.82	80.4134	465.82	79.967	465.82	78.8018	465.82	79.1668	465.82	77.3989	465.82	78.4606	465.82	76.5299	465.82	77.8973	465.82	76.1617	465.82	77.4787	465.82	75.9516	465.82	77.1299	465.82	75.6181	465.82	76.7562	465.82	75.1439	465.82	76.3577	465.82	74.8374	465.82	76.1098	465.82	75.1251	465.82	76.2587	465.82	75.9844	465.82	76.799	465.82	76.9366	465.82	77.4033	465.82	77.5727	465.82	77.7231
483.398	84.1128	483.398	83.7091	483.398	84.1091	483.398	82.9487	483.398	83.6636	483.398	81.9182	483.398	82.7486	483.398	80.7661	483.398	81.3479	483.398	79.7087	483.398	79.5058	483.398	78.9566	483.398	77.4945	483.398	78.5742	483.398	76.0544	483.398	78.4405	483.398	75.8444	483.398	78.3713	483.398	76.3428	483.398	78.2326	483.398	76.6592	483.398	77.972	483.398	76.316	483.398	77.6227	483.398	75.151	483.398	77.316	483.398	73.59	483.398	77.254	483.398	73.4307	483.398	77.5592	483.398	75.2664	483.398	78.1115	483.398	77.1817	483.398	78.6139	483.398	78.3499	483.398	78.7702
499.512	83.8965	499.512	83.5838	499.512	83.8882	499.512	82.9703	499.512	83.5329	499.512	82.0763	499.512	82.791	499.512	80.93	499.512	81.6019	499.512	79.582	499.512	79.8862	499.512	78.1418	499.512	77.5979	499.512	76.8386	499.512	75.008	499.512	76.0193	499.512	73.4581	499.512	75.894	499.512	74.186	499.512	76.2583	499.512	75.7147	499.512	76.7049	499.512	76.7078	499.512	76.9584	499.512	76.7814	499.512	76.9625	499.512	75.9163	499.512	76.8625	499.512	74.6653	499.512	76.9177	499.512	74.5295	499.512	77.2439	499.512	75.8125	499.512	77.62	499.512	77.0768	499.512	77.6638
517.09	84.1114	517.09	83.7135	517.09	84.1353	517.09	82.9845	517.09	83.7664	517.09	81.9996	517.09	83.0067	517.09	80.873	517.09	81.8792	517.09	79.7475	517.09	80.4323	517.09	78.7446	517.09	78.7539	517.09	77.9013	517.09	77.0052	517.09	77.1682	517.09	75.4917	517.09	76.498	517.09	74.6647	517.09	75.9379	517.09	74.7362	517.09	75.6337	517.09	75.2934	517.09	75.7058	517.09	75.7558	517.09	76.1223	517.09	75.9127	517.09	76.7418	517.09	76.0272	517.09	77.4222	517.09	76.5323	517.09	78.0382	517.09	77.391	517.09	78.4527	517.09	78.1551	517.09	78.5236
536.133	84.3622	536.133	84.0146	536.133	84.3478	536.133	83.3317	536.133	83.9534	536.133	82.3584	536.133	83.1598	536.133	81.1715	536.133	81.9368	536.133	79.8952	536.133	80.2497	536.133	78.6975	536.133	78.1303	536.133	77.7243	536.133	75.9478	536.133	76.996	536.133	74.7614	536.133	76.4035	536.133	75.1201	536.133	75.8317	536.133	75.9131	536.133	75.2702	536.133	76.2086	536.133	74.8369	536.133	75.8217	536.133	74.7196	536.133	75.143	536.133	75.0555	536.133	75.0949	536.133	75.8068	536.133	76.0333	536.133	76.7406	536.133	77.1698	536.133	77.5484	536.133	77.8695	536.133	77.9772
555.176	84.3709	555.176	84.055	555.176	84.3372	555.176	83.4115	555.176	83.9521	555.176	82.5028	555.176	83.2168	555.176	81.4504	555.176	82.1212	555.176	80.4278	555.176	80.6378	555.176	79.5844	555.176	78.748	555.176	78.9306	555.176	76.5896	555.176	78.3305	555.176	74.8417	555.176	77.6341	555.176	74.4597	555.176	76.8084	555.176	74.893	555.176	75.9892	555.176	74.8439	555.176	75.4023	555.176	73.7517	555.176	75.1568	555.176	72.2024	555.176	75.1995	555.176	72.6599	555.176	75.5186	555.176	74.9572	555.176	76.1474	555.176	76.7573	555.176	76.9301	555.176	77.5543	555.176	77.5169
574.219	84.5996	574.219	84.1983	574.219	84.6528	574.219	83.4459	574.219	84.362	574.219	82.3496	574.219	83.731	574.219	80.9614	574.219	82.7511	574.219	79.4576	574.219	81.3742	574.219	78.1979	574.219	79.4883	574.219	77.5104	574.219	76.9992	574.219	77.2812	574.219	74.448	574.219	77.0963	574.219	73.9425	574.219	76.6952	574.219	75.3148	574.219	76.116	574.219	76.1651	574.219	75.6155	574.219	75.67	574.219	75.4115	574.219	73.9046	574.219	75.4859	574.219	72.765	574.219	75.7959	574.219	74.6518	574.219	76.4242	574.219	76.8587	574.219	77.2771	574.219	77.9204	574.219	77.9353
594.727	84.7325	594.727	84.427	594.727	84.6661	594.727	83.7415	594.727	84.244	594.727	82.66	594.727	83.5078	594.727	81.1617	594.727	82.527	594.727	79.2842	594.727	81.3596	594.727	77.3282	594.727	79.9616	594.727	76.0822	594.727	78.1204	594.727	76.058	594.727	75.5856	594.727	76.545	594.727	72.9803	594.727	76.7344	594.727	73.0943	594.727	76.3852	594.727	75.0379	594.727	75.7053	594.727	76.0237	594.727	75.2797	594.727	75.4718	594.727	75.592	594.727	73.7824	594.727	76.3733	594.727	73.0966	594.727	77.0763	594.727	74.6992	594.727	77.4091	594.727	76.3645	594.727	77.2296
615.234	85.0527	615.234	84.7745	615.234	84.9909	615.234	84.1943	615.234	84.5533	615.234	83.3298	615.234	83.7299	615.234	82.1682	615.234	82.5522	615.234	80.6907	615.234	81.0965	615.234	78.9558	615.234	79.4729	615.234	77.2594	615.234	77.7994	615.234	76.1452	615.234	76.1976	615.234	75.7842	615.234	74.935	615.234	75.6248	615.234	74.5303	615.234	75.1276	615.234	74.9705	615.234	74.2511	615.234	75.2989	615.234	73.5344	615.234	74.745	615.234	73.6371	615.234	73.6043	615.234	74.3864	615.234	73.6571	615.234	75.2249	615.234	75.0595	615.234	75.91	615.234	76.0903	615.234	76.292
637.207	85.076	637.207	84.687	637.207	85.1514	637.207	84.0263	637.207	84.8817	637.207	83.1236	637.207	84.2575	637.207	81.98	637.207	83.2863	637.207	80.5858	637.207	81.9924	637.207	78.9957	637.207	80.4526	637.207	77.4646	637.207	78.8501	637.207	76.4563	637.207	77.4246	637.207	76.156	637.207	76.2931	637.207	76.1272	637.207	75.466	637.207	75.823	637.207	74.997	637.207	74.9548	637.207	74.7438	637.207	73.5873	637.207	74.3968	637.207	72.6133	637.207	74.3809	637.207	73.4851	637.207	75.5035	637.207	75.4764	637.207	77.022	637.207	77.1256	637.207	77.9346	637.207	77.9699
659.18	84.2157	659.18	83.8208	659.18	84.3297	659.18	83.185	659.18	84.1554	659.18	82.3629	659.18	83.71	659.18	81.3923	659.18	83.0018	659.18	80.282	659.18	81.9985	659.18	79.0473	659.18	80.6363	659.18	77.7931	659.18	78.9067	659.18	76.768	659.18	77.0768	659.18	76.2156	659.18	75.9698	659.18	76.0953	659.18	76.2831	659.18	76.1324	659.18	77.2587	659.18	76.0565	659.18	77.675	659.18	75.6448	659.18	76.7718	659.18	74.7741	659.18	74.346	659.18	73.7861	659.18	72.547	659.18	73.8045	659.18	74.2939	659.18	75.0425	659.18	75.9526	659.18	76.0932
682.617	85.0719	682.617	84.6105	682.617	85.1795	682.617	83.92	682.617	84.8557	682.617	83.104	682.617	84.1091	682.617	82.1801	682.617	83.0275	682.617	81.0509	682.617	81.7289	682.617	79.5563	682.617	80.3172	682.617	77.6946	682.617	78.8755	682.617	76.1618	682.617	77.4773	682.617	76.0735	682.617	76.3387	682.617	76.676	682.617	76.1728	682.617	76.5401	682.617	77.2207	682.617	75.3029	682.617	78.1865	682.617	73.7955	682.617	78.011	682.617	73.4921	682.617	76.7051	682.617	73.9386	682.617	75.7331	682.617	74.3503	682.617	76.3011	682.617	75.1858	682.617	76.8306	682.617	76.3308
707.52	84.8619	707.52	84.2091	707.52	85.1863	707.52	83.3224	707.52	85.1271	707.52	82.3184	707.52	84.6699	707.52	81.3026	707.52	83.8195	707.52	80.336	707.52	82.5599	707.52	79.4151	707.52	80.8445	707.52	78.4728	707.52	78.739	707.52	77.4274	707.52	76.8199	707.52	76.3337	707.52	75.9511	707.52	75.563	707.52	75.7413	707.52	75.4681	707.52	75.622	707.52	75.652	707.52	75.9151	707.52	75.4136	707.52	76.3495	707.52	74.4716	707.52	76.3585	707.52	73.1743	707.52	76.1169	707.52	72.7237	707.52	76.0737	707.52	73.8203	707.52	75.9756	707.52	75.2326
732.422	85.3417	732.422	84.4774	732.422	85.7687	732.422	83.3926	732.422	85.6232	732.422	82.2842	732.422	84.9183	732.422	81.2391	732.422	83.8513	732.422	80.2225	732.422	82.7243	732.422	79.135	732.422	81.6203	732.422	77.987	732.422	80.1652	732.422	77.196	732.422	77.9637	732.422	77.2611	732.422	76.0465	732.422	77.586	732.422	76.449	732.422	77.0863	732.422	77.467	732.422	75.5911	732.422	78.1208	732.422	74.9169	732.422	78.7952	732.422	75.9689	732.422	79.2038	732.422	76.4268	732.422	79.0476	732.422	75.6834	732.422	78.5427	732.422	75.1775	732.422	77.6731	732.422	76.2613
757.324	85.3782	757.324	85.2685	757.324	85.1945	757.324	84.7347	757.324	85.042	757.324	83.7184	757.324	85.0657	757.324	82.1674	757.324	84.9235	757.324	80.148	757.324	84.321	757.324	77.9682	757.324	83.2341	757.324	76.1096	757.324	81.5752	757.324	74.8182	757.324	79.2636	757.324	74.3166	757.324	77.3505	757.324	74.9374	757.324	77.5236	757.324	75.8428	757.324	78.5253	757.324	75.8343	757.324	79.1983	757.324	74.243	757.324	79.2304	757.324	72.6844	757.324	78.5345	757.324	74.9873	757.324	78.3149	757.324	77.0911	757.324	79.1795	757.324	77.9043	757.324	79.4845	757.324	78.7516
785.156	85.0563	785.156	84.4877	785.156	85.3139	785.156	83.6587	785.156	85.1444	785.156	82.4799	785.156	84.6575	785.156	80.9253	785.156	84.1068	785.156	79.2744	785.156	83.5533	785.156	78.3853	785.156	82.9098	785.156	78.8609	785.156	81.8354	785.156	79.935	785.156	79.6393	785.156	80.9838	785.156	76.0661	785.156	81.9774	785.156	73.5712	785.156	82.672	785.156	72.4924	785.156	82.4456	785.156	72.4096	785.156	80.7737	785.156	77.1099	785.156	78.1193	785.156	79.9618	785.156	76.8815	785.156	80.3866	785.156	76.5209	785.156	78.8106	785.156	74.8153	785.156	75.62	785.156	73.2399
811.523	86.0105	811.523	86.3884	811.523	85.0817	811.523	86.0666	811.523	84.2325	811.523	84.9954	811.523	84.1905	811.523	83.0493	811.523	84.5634	811.523	80.2809	811.523	84.6434	811.523	77.9248	811.523	84.3623	811.523	77.8506	811.523	83.8392	811.523	78.5724	811.523	82.6758	811.523	78.9017	811.523	80.0297	811.523	79.62	811.523	76.0819	811.523	80.796	811.523	75.6211	811.523	81.0216	811.523	76.6828	811.523	79.4539	811.523	77.2759	811.523	76.614	811.523	78.5559	811.523	75.2934	811.523	79.1832	811.523	75.8403	811.523	79.0695	811.523	76.4053	811.523	78.536	811.523	77.4027
840.82	83.4151	840.82	85.9513	840.82	83.9383	840.82	88.0655	840.82	86.8335	840.82	88.9148	840.82	88.4156	840.82	88.3129	840.82	88.1615	840.82	86.0041	840.82	86.6074	840.82	81.2728	840.82	84.7623	840.82	71.5737	840.82	83.1919	840.82	73.599	840.82	81.4303	840.82	78.8142	840.82	79.1983	840.82	80.7548	840.82	78.0549	840.82	81.8328	840.82	77.4797	840.82	82.5107	840.82	72.6791	840.82	81.8313	840.82	74.3777	840.82	79.5586	840.82	80.9183	840.82	78.2977	840.82	82.3427	840.82	78.2023	840.82	80.5673	840.82	76.5579	840.82	76.8936	840.82	74.8389
870.117	85.922	870.117	83.8228	870.117	87.4627	870.117	83.8736	870.117	87.5396	870.117	86.1646	870.117	85.8888	870.117	87.8766	870.117	82.506	870.117	88.1512	870.117	78.4026	870.117	86.7337	870.117	76.3306	870.117	82.9005	870.117	77.2848	870.117	73.1373	870.117	78.9037	870.117	73.1177	870.117	77.1592	870.117	79.4461	870.117	64.2389	870.117	80.4973	870.117	76.92	870.117	80.1691	870.117	80.5139	870.117	79.8672	870.117	77.3704	870.117	79.0549	870.117	69.0408	870.117	76.2412	870.117	78.5175	870.117	74.5737	870.117	81.5097	870.117	78.4949	870.117	81.8648	870.117	80.9179
900.879	82.3863	900.879	81.4176	900.879	85.0462	900.879	83.1801	900.879	86.8821	900.879	85.2599	900.879	87.1556	900.879	86.4701	900.879	86.0158	900.879	86.5869	900.879	83.9925	900.879	85.4949	900.879	81.4721	900.879	82.8564	900.879	78.3525	900.879	78.05	900.879	76.4701	900.879	76.2579	900.879	77.2583	900.879	80.4637	900.879	74.943	900.879	82.0923	900.879	73.0884	900.879	81.5037	900.879	80.2732	900.879	79.9071	900.879	81.4859	900.879	78.7119	900.879	75.5185	900.879	78.1337	900.879	71.053	900.879	77.3094	900.879	80.2989	900.879	77.4975	900.879	81.1883	900.879	79.3718
933.105	87.2738	933.105	85.3498	933.105	88.0023	933.105	81.9091	933.105	87.1614	933.105	79.1167	933.105	84.5878	933.105	83.1165	933.105	81.9071	933.105	86.5607	933.105	80.607	933.105	88.0857	933.105	80.3466	933.105	88.1152	933.105	81.3458	933.105	86.8139	933.105	81.4787	933.105	84.1006	933.105	80.5248	933.105	79.7819	933.105	79.0553	933.105	74.3483	933.105	74.0672	933.105	73.855	933.105	66.1322	933.105	77.1473	933.105	78.8947	933.105	79.308	933.105	80.6024	933.105	80.5136	933.105	76.4065	933.105	80.487	933.105	70.2907	933.105	79.755	933.105	77.4025	933.105	79.3445
965.332	85.0085	965.332	85.8547	965.332	83.7413	965.332	85.4629	965.332	83.0942	965.332	83.0286	965.332	84.3142	965.332	76.4597	965.332	85.8232	965.332	73.4819	965.332	85.4931	965.332	82.0552	965.332	82.8867	965.332	85.3841	965.332	79.7096	965.332	86.551	965.332	79.4864	965.332	86.3979	965.332	79.9374	965.332	84.9964	965.332	80.6086	965.332	81.9828	965.332	80.9163	965.332	78.5363	965.332	77.7531	965.332	78.9384	965.332	74.0903	965.332	79.4043	965.332	79.4921	965.332	78.297	965.332	79.8616	965.332	76.1012	965.332	74.5279	965.332	73.3349	965.332	49.4547	965.332	70.8425
1,000.49	84.3894	1,000.49	84.4073	1,000.49	84.0342	1,000.49	84.4184	1,000.49	82.9343	1,000.49	84.358	1,000.49	81.4811	1,000.49	83.8392	1,000.49	81.3231	1,000.49	82.328	1,000.49	82.6608	1,000.49	79.7147	1,000.49	83.4473	1,000.49	77.6923	1,000.49	82.3204	1,000.49	78.0976	1,000.49	79.3773	1,000.49	78.8145	1,000.49	76.7192	1,000.49	78.2722	1,000.49	74.0228	1,000.49	75.609	1,000.49	73.0164	1,000.49	72.5626	1,000.49	76.1781	1,000.49	72.0652	1,000.49	75.2343	1,000.49	69.9699	1,000.49	68.2535	1,000.49	69.7195	1,000.49	53.2636	1,000.49	71.6497	1,000.49	67.7477	1,000.49	72.981	1,000.49	70.3426	1,000.49	71.9743
1,035.64	83.4425	1,035.64	84.4706	1,035.64	83.279	1,035.64	85.2438	1,035.64	83.8454	1,035.64	85.1665	1,035.64	84.3385	1,035.64	84.3648	1,035.64	84.2207	1,035.64	82.9988	1,035.64	83.2075	1,035.64	80.9777	1,035.64	81.6347	1,035.64	78.4314	1,035.64	80.214	1,035.64	75.6557	1,035.64	79.0515	1,035.64	71.62	1,035.64	78.1081	1,035.64	67.7425	1,035.64	77.8168	1,035.64	71.6534	1,035.64	77.5409	1,035.64	75.1373	1,035.64	76.4396	1,035.64	76.976	1,035.64	75.3148	1,035.64	77.783	1,035.64	74.6074	1,035.64	77.4301	1,035.64	72.5739	1,035.64	75.8002	1,035.64	70.4442	1,035.64	73.1163	1,035.64	68.8513	1,035.64	69.7838
1,072.27	85.2795	1,072.27	86.0662	1,072.27	83.2284	1,072.27	85.3571	1,072.27	81.2744	1,072.27	83.916	1,072.27	82.3857	1,072.27	83.2445	1,072.27	84.7653	1,072.27	83.5922	1,072.27	84.9528	1,072.27	83.7105	1,072.27	83.6356	1,072.27	83.1274	1,072.27	82.0142	1,072.27	81.9262	1,072.27	79.1398	1,072.27	79.8605	1,072.27	75.1624	1,072.27	76.0151	1,072.27	74.7435	1,072.27	68.0007	1,072.27	74.2757	1,072.27	66.2403	1,072.27	72.0917	1,072.27	70.9532	1,072.27	73.6221	1,072.27	74.4189	1,072.27	75.7491	1,072.27	76.8844	1,072.27	72.5517	1,072.27	77.3762	1,072.27	61.2741	1,072.27	76.8046	1,072.27	70.8742	1,072.27	74.0787
1,108.89	83.2245	1,108.89	84.5066	1,108.89	83.0047	1,108.89	85.8291	1,108.89	83.6963	1,108.89	86.2385	1,108.89	84.0866	1,108.89	85.2238	1,108.89	83.3504	1,108.89	82.7494	1,108.89	82.1571	1,108.89	79.4979	1,108.89	81.2137	1,108.89	76.7702	1,108.89	80.104	1,108.89	75.8773	1,108.89	80.3366	1,108.89	76.3776	1,108.89	79.8127	1,108.89	76.5955	1,108.89	77.7272	1,108.89	76.0971	1,108.89	78.1225	1,108.89	76.0563	1,108.89	77.8303	1,108.89	75.9906	1,108.89	74.7049	1,108.89	75.3737	1,108.89	70.8039	1,108.89	77.1126	1,108.89	71.8819	1,108.89	77.2737	1,108.89	69.3169	1,108.89	74.3794	1,108.89	64.8592	1,108.89	68.703
1,148.44	84.3631	1,148.44	86.1478	1,148.44	81.8405	1,148.44	86.0026	1,148.44	82.312	1,148.44	83.945	1,148.44	84.5745	1,148.44	81.5572	1,148.44	85.3535	1,148.44	81.691	1,148.44	83.7478	1,148.44	82.8793	1,148.44	80.0169	1,148.44	83.3266	1,148.44	75.6585	1,148.44	82.62	1,148.44	73.385	1,148.44	81.2742	1,148.44	73.9348	1,148.44	80.4932	1,148.44	75.5337	1,148.44	79.7562	1,148.44	79.2735	1,148.44	78.257	1,148.44	80.4643	1,148.44	78.6851	1,148.44	75.7113	1,148.44	79.4944	1,148.44	68.8528	1,148.44	78.3153	1,148.44	75.6811	1,148.44	75.8248	1,148.44	73.6757	1,148.44	70.5455	1,148.44	68.4535	1,148.44	64.737
1,189.45	84.2304	1,189.45	83.9475	1,189.45	84.9109	1,189.45	84.9393	1,189.45	84.458	1,189.45	85.993	1,189.45	82.1273	1,189.45	85.649	1,189.45	80.9807	1,189.45	83.2452	1,189.45	83.5107	1,189.45	78.4246	1,189.45	84.8588	1,189.45	77.1523	1,189.45	83.2569	1,189.45	80.0462	1,189.45	80.0938	1,189.45	80.6338	1,189.45	79.2415	1,189.45	81.652	1,189.45	75.3159	1,189.45	82.4948	1,189.45	70.5504	1,189.45	81.1194	1,189.45	79.2321	1,189.45	79.0756	1,189.45	80.456	1,189.45	75.4173	1,189.45	77.1107	1,189.45	71.8329	1,189.45	59.977	1,189.45	71.7371	1,189.45	70.8133	1,189.45	73.9078	1,189.45	72.7093	1,189.45	73.4611
1,230.47	84.993	1,230.47	85.0514	1,230.47	83.8818	1,230.47	84.5723	1,230.47	81.66	1,230.47	84.1656	1,230.47	81.767	1,230.47	84.6002	1,230.47	84.7881	1,230.47	85.0246	1,230.47	85.2785	1,230.47	83.4697	1,230.47	83.5095	1,230.47	78.64	1,230.47	81.6735	1,230.47	73.8125	1,230.47	80.2253	1,230.47	73.5658	1,230.47	80.8275	1,230.47	76.3887	1,230.47	81.7364	1,230.47	80.1931	1,230.47	78.8611	1,230.47	78.4341	1,230.47	69.7299	1,230.47	73.8318	1,230.47	72.3052	1,230.47	59.6638	1,230.47	79.9456	1,230.47	68.526	1,230.47	77.0969	1,230.47	73.9786	1,230.47	62.866	1,230.47	77.8193	1,230.47	70.088	1,230.47	74.2478
1,274.41	85.1699	1,274.41	86.1929	1,274.41	82.8374	1,274.41	85.0891	1,274.41	81.6785	1,274.41	83.1417	1,274.41	84.7744	1,274.41	82.9036	1,274.41	86.1776	1,274.41	83.6943	1,274.41	84.7556	1,274.41	83.3515	1,274.41	81.9418	1,274.41	80.1328	1,274.41	79.5879	1,274.41	73.4602	1,274.41	77.3627	1,274.41	73.0803	1,274.41	79.1526	1,274.41	69.1689	1,274.41	81.3291	1,274.41	73.0647	1,274.41	79.9824	1,274.41	68.6944	1,274.41	77.4305	1,274.41	58.7686	1,274.41	64.1298	1,274.41	69.9676	1,274.41	75.2279	1,274.41	73.9672	1,274.41	76.5175	1,274.41	75.8301	1,274.41	67.6106	1,274.41	76.2046	1,274.41	60.8644	1,274.41	68.9473
1,319.82	84.601	1,319.82	85.7121	1,319.82	82.3479	1,319.82	85.5844	1,319.82	81.1807	1,319.82	84.8134	1,319.82	83.5519	1,319.82	83.8786	1,319.82	85.3835	1,319.82	83.18	1,319.82	84.5505	1,319.82	82.559	1,319.82	81.9864	1,319.82	80.1571	1,319.82	79.4273	1,319.82	73.2426	1,319.82	76.9053	1,319.82	71.0406	1,319.82	77.0668	1,319.82	73.8337	1,319.82	79.0155	1,319.82	73.1698	1,319.82	79.0952	1,319.82	69.16	1,319.82	78.8685	1,319.82	68.3142	1,319.82	73.052	1,319.82	73.5348	1,319.82	72.2093	1,319.82	74.2193	1,319.82	74.3876	1,319.82	70.0823	1,319.82	66.5899	1,319.82	72.5529	1,319.82	64.346	1,319.82	61.5869
1,366.7	82.9595	1,366.7	84.8764	1,366.7	80.1786	1,366.7	84.9221	1,366.7	81.319	1,366.7	84.4503	1,366.7	84.4726	1,366.7	84.2547	1,366.7	85.3017	1,366.7	83.5979	1,366.7	83.3183	1,366.7	82.1574	1,366.7	80.1191	1,366.7	79.428	1,366.7	77.0489	1,366.7	73.1339	1,366.7	71.5534	1,366.7	57.163	1,366.7	66.0234	1,366.7	67.427	1,366.7	74.5424	1,366.7	71.6566	1,366.7	77.0656	1,366.7	60.0092	1,366.7	79.0001	1,366.7	68.9155	1,366.7	72.8952	1,366.7	74.0299	1,366.7	72.5129	1,366.7	75.8071	1,366.7	77.085	1,366.7	72.0106	1,366.7	72.0007	1,366.7	71.9836	1,366.7	70.3808	1,366.7	68.2527
1,413.57	82.9213	1,413.57	85.6306	1,413.57	78.1322	1,413.57	84.1043	1,413.57	81.4712	1,413.57	81.8943	1,413.57	85.214	1,413.57	84.2601	1,413.57	84.3596	1,413.57	85.9929	1,413.57	76.2494	1,413.57	85.5127	1,413.57	76.6526	1,413.57	84.076	1,413.57	81.3115	1,413.57	81.2445	1,413.57	82.4608	1,413.57	77.9274	1,413.57	78.4873	1,413.57	78.1914	1,413.57	67.9386	1,413.57	79.2709	1,413.57	74.2031	1,413.57	74.3853	1,413.57	82.2081	1,413.57	79.1035	1,413.57	81.6089	1,413.57	78.5366	1,413.57	72.8477	1,413.57	80.596	1,413.57	77.3665	1,413.57	77.3558	1,413.57	76.1201	1,413.57	71.5131	1,413.57	76.4037	1,413.57	70.2593
1,463.38	84.5474	1,463.38	84.506	1,463.38	83.4386	1,463.38	85.1905	1,463.38	80.5442	1,463.38	85.6787	1,463.38	77.8691	1,463.38	84.5	1,463.38	81.6687	1,463.38	81.6357	1,463.38	84.4049	1,463.38	78.2273	1,463.38	83.7607	1,463.38	77.5484	1,463.38	80.101	1,463.38	79.9566	1,463.38	77.7562	1,463.38	79.3411	1,463.38	76.2359	1,463.38	76.4914	1,463.38	74.9645	1,463.38	76.2704	1,463.38	80.5279	1,463.38	79.2731	1,463.38	79.0517	1,463.38	80.9806	1,463.38	63.1287	1,463.38	77.8507	1,463.38	71.9155	1,463.38	73.1889	1,463.38	68.6729	1,463.38	74.7669	1,463.38	65.1395	1,463.38	78.0653	1,463.38	68.8494	1,463.38	77.806
1,516.11	84.9225	1,516.11	85.5507	1,516.11	82.5915	1,516.11	84.5719	1,516.11	81.5263	1,516.11	83.461	1,516.11	82.3908	1,516.11	83.1172	1,516.11	82.3918	1,516.11	83.2714	1,516.11	82.1508	1,516.11	82.7253	1,516.11	82.3503	1,516.11	79.7084	1,516.11	81.418	1,516.11	72.3309	1,516.11	79.61	1,516.11	62.6752	1,516.11	78.5422	1,516.11	57.7651	1,516.11	77.9976	1,516.11	60.6085	1,516.11	77.1129	1,516.11	70.0937	1,516.11	75.2873	1,516.11	75.4493	1,516.11	74.632	1,516.11	75.5925	1,516.11	72.3517	1,516.11	74.0514	1,516.11	66.6408	1,516.11	72.7799	1,516.11	66.5701	1,516.11	76.6012	1,516.11	67.1154	1,516.11	75.9402
1,568.85	83.1164	1,568.85	84.4491	1,568.85	82.0701	1,568.85	84.7955	1,568.85	81.8303	1,568.85	83.0383	1,568.85	82.1154	1,568.85	79.9238	1,568.85	82.5456	1,568.85	81.5367	1,568.85	84.2142	1,568.85	82.6059	1,568.85	84.2693	1,568.85	79.9353	1,568.85	82.4804	1,568.85	73.9067	1,568.85	79.6298	1,568.85	67.4602	1,568.85	78.1689	1,568.85	70.0009	1,568.85	77.1854	1,568.85	73.0448	1,568.85	77.9472	1,568.85	66.3738	1,568.85	73.7464	1,568.85	74.2078	1,568.85	70.6581	1,568.85	75.6617	1,568.85	76.3238	1,568.85	75.1665	1,568.85	73.2947	1,568.85	68.0209	1,568.85	67.7976	1,568.85	72.8865	1,568.85	69.5984	1,568.85	72.2167
1,624.51	81.6339	1,624.51	82.0553	1,624.51	80.6188	1,624.51	83.2507	1,624.51	79.6872	1,624.51	83.7221	1,624.51	81.6569	1,624.51	82.4988	1,624.51	83.3242	1,624.51	80.6249	1,624.51	82.5847	1,624.51	77.5092	1,624.51	80.9397	1,624.51	75.2393	1,624.51	79.5075	1,624.51	77.9716	1,624.51	78.8739	1,624.51	79.0009	1,624.51	75.7378	1,624.51	80.6371	1,624.51	66.2214	1,624.51	80.9283	1,624.51	78.2113	1,624.51	77.5996	1,624.51	81.6288	1,624.51	77.6613	1,624.51	77.3789	1,624.51	72.2022	1,624.51	68.8022	1,624.51	66.0189	1,624.51	75.0018	1,624.51	67.3536	1,624.51	72.2759	1,624.51	70.9176	1,624.51	65.0776	1,624.51	68.0454
1,681.64	82.3783	1,681.64	82.6958	1,681.64	81.8119	1,681.64	81.8016	1,681.64	79.6323	1,681.64	81.0231	1,681.64	80.0655	1,681.64	81.8192	1,681.64	81.7566	1,681.64	81.9685	1,681.64	84.3037	1,681.64	78.9681	1,681.64	84.2628	1,681.64	70.4709	1,681.64	81.3494	1,681.64	61.4751	1,681.64	78.8877	1,681.64	71.4157	1,681.64	80.4098	1,681.64	75.2927	1,681.64	77.264	1,681.64	78.0772	1,681.64	67.359	1,681.64	75.9167	1,681.64	76.8204	1,681.64	74.2218	1,681.64	80.1396	1,681.64	64.6475	1,681.64	70.0911	1,681.64	63.9084	1,681.64	70.865	1,681.64	66.1186	1,681.64	71.4458	1,681.64	66.4519	1,681.64	70.5298	1,681.64	65.0922
1,741.7	84.4973	1,741.7	82.3589	1,741.7	84.2378	1,741.7	81.6231	1,741.7	79.7589	1,741.7	82.0893	1,741.7	78.9167	1,741.7	79.4514	1,741.7	82.8717	1,741.7	69.0051	1,741.7	82.5561	1,741.7	74.7877	1,741.7	79.5685	1,741.7	78.7927	1,741.7	77.8402	1,741.7	78.1291	1,741.7	74.6675	1,741.7	75.7802	1,741.7	70.9034	1,741.7	72.5294	1,741.7	66.6843	1,741.7	72.7242	1,741.7	77.2453	1,741.7	74.4924	1,741.7	79.2838	1,741.7	74.3881	1,741.7	73.1134	1,741.7	71.1174	1,741.7	70.9732	1,741.7	74.2633	1,741.7	73.3	1,741.7	62.2659	1,741.7	59.2159	1,741.7	52.2318	1,741.7	68.9481	1,741.7	73.3981
1,803.22	83.8868	1,803.22	83.2962	1,803.22	83.735	1,803.22	81.6163	1,803.22	82.619	1,803.22	80.6887	1,803.22	79.0543	1,803.22	81.194	1,803.22	77.058	1,803.22	79.7533	1,803.22	80.8438	1,803.22	76.2715	1,803.22	81.6679	1,803.22	70.3309	1,803.22	77.8139	1,803.22	68.5229	1,803.22	73.4997	1,803.22	67.2519	1,803.22	70.2324	1,803.22	65.5127	1,803.22	66.582	1,803.22	71.0508	1,803.22	63.4544	1,803.22	73.4647	1,803.22	75.1099	1,803.22	72.6824	1,803.22	75.7608	1,803.22	70.2472	1,803.22	55.1223	1,803.22	71.4666	1,803.22	70.0842	1,803.22	65.6111	1,803.22	70.7554	1,803.22	54.3302	1,803.22	73.6008	1,803.22	72.481
1,866.21	82.9951	1,866.21	82.4916	1,866.21	83.8091	1,866.21	82.6764	1,866.21	82.211	1,866.21	80.0942	1,866.21	79.441	1,866.21	77.5262	1,866.21	76.6094	1,866.21	76.9153	1,866.21	78.1298	1,866.21	74.8546	1,866.21	81.0822	1,866.21	62.4811	1,866.21	77.4476	1,866.21	74.4227	1,866.21	56.9024	1,866.21	76.503	1,866.21	67.1886	1,866.21	70.5453	1,866.21	70.6129	1,866.21	72.3794	1,866.21	71.5251	1,866.21	76.1199	1,866.21	63.8464	1,866.21	76.347	1,866.21	77.7582	1,866.21	70.0568	1,866.21	71.6206	1,866.21	66.6815	1,866.21	70.1321	1,866.21	63.9534	1,866.21	72.639	1,866.21	64.188	1,866.21	72.5111	1,866.21	71.2954
1,932.13	84.118	1,932.13	82.0981	1,932.13	82.9763	1,932.13	81.3191	1,932.13	78.4448	1,932.13	79.5854	1,932.13	77.6986	1,932.13	73.8205	1,932.13	75.7024	1,932.13	75.3951	1,932.13	73.6119	1,932.13	78.6244	1,932.13	80.7132	1,932.13	77.8135	1,932.13	80.674	1,932.13	73.9998	1,932.13	78.9998	1,932.13	71.8753	1,932.13	77.5786	1,932.13	75.5187	1,932.13	76.9615	1,932.13	74.5418	1,932.13	74.3282	1,932.13	76.2181	1,932.13	62.8339	1,932.13	76.3015	1,932.13	75.7174	1,932.13	70.3667	1,932.13	71.7507	1,932.13	64.0778	1,932.13	63.3366	1,932.13	72.861	1,932.13	69.2583	1,932.13	70.1463	1,932.13	71.3485	1,932.13	67.1738
1,999.51	83.3279	1,999.51	82.0926	1,999.51	82.2304	1,999.51	80.5565	1,999.51	78.0711	1,999.51	78.2616	1,999.51	74.3893	1,999.51	73.4752	1,999.51	71.3642	1,999.51	72.7699	1,999.51	75.4649	1,999.51	74.3012	1,999.51	78.2281	1,999.51	73.3083	1,999.51	79.6674	1,999.51	70.6905	1,999.51	77.8568	1,999.51	67.7816	1,999.51	73.4351	1,999.51	65.0588	1,999.51	71.6753	1,999.51	68.5154	1,999.51	65.9702	1,999.51	69.0895	1,999.51	63.0224	1,999.51	70.5575	1,999.51	67.5218	1,999.51	71.0795	1,999.51	64.5025	1,999.51	68.4075	1,999.51	65.8118	1,999.51	70.0005	1,999.51	68.0575	1,999.51	67.2097	1,999.51	70.9003	1,999.51	67.4178
2,069.82	83.2752	2,069.82	82.1506	2,069.82	82.7982	2,069.82	79.1909	2,069.82	77.6096	2,069.82	74.8815	2,069.82	67.4925	2,069.82	70.4735	2,069.82	66.1458	2,069.82	68.5162	2,069.82	76.6509	2,069.82	72.2678	2,069.82	79.3164	2,069.82	74.1179	2,069.82	77.764	2,069.82	73.1064	2,069.82	76.1451	2,069.82	72.7258	2,069.82	72.5541	2,069.82	71.5154	2,069.82	70.149	2,069.82	68.323	2,069.82	67.7635	2,069.82	70.7648	2,069.82	65.2272	2,069.82	68.6447	2,069.82	58.2314	2,069.82	69.669	2,069.82	63.231	2,069.82	68.7021	2,069.82	59.2606	2,069.82	65.8087	2,069.82	65.7645	2,069.82	63.3731	2,069.82	71.4909	2,069.82	68.6986
2,143.07	82.6965	2,143.07	82.5074	2,143.07	82.4712	2,143.07	79.3029	2,143.07	78.8046	2,143.07	72.0111	2,143.07	63.3905	2,143.07	64.3676	2,143.07	53.3425	2,143.07	70.2065	2,143.07	75.2421	2,143.07	74.8902	2,143.07	79.8537	2,143.07	75.0598	2,143.07	77.9121	2,143.07	73.0657	2,143.07	76.204	2,143.07	72.2048	2,143.07	72.2695	2,143.07	71.6172	2,143.07	70.0793	2,143.07	69.992	2,143.07	67.957	2,143.07	69.5383	2,143.07	69.5531	2,143.07	69.5103	2,143.07	57.2652	2,143.07	68.8333	2,143.07	56.2171	2,143.07	68.1526	2,143.07	52.9207	2,143.07	64.4452	2,143.07	63.6206	2,143.07	58.4479	2,143.07	69.0691	2,143.07	65.4744
2,219.24	81.779	2,219.24	81.7584	2,219.24	81.092	2,219.24	78.7191	2,219.24	77.7973	2,219.24	73.3766	2,219.24	64.546	2,219.24	48.0372	2,219.24	61.454	2,219.24	74.0622	2,219.24	74.5901	2,219.24	76.068	2,219.24	79.6203	2,219.24	75.8205	2,219.24	78.8318	2,219.24	75.192	2,219.24	75.6324	2,219.24	72.2184	2,219.24	69.7594	2,219.24	71.16	2,219.24	67.9746	2,219.24	71.5607	2,219.24	68.5085	2,219.24	70.1587	2,219.24	69.0364	2,219.24	69.9778	2,219.24	61.1548	2,219.24	68.7338	2,219.24	61.8909	2,219.24	67.1435	2,219.24	52.5227	2,219.24	63.5117	2,219.24	63.4519	2,219.24	43.8263	2,219.24	68.1835	2,219.24	63.8578
2,296.88	82.627	2,296.88	81.554	2,296.88	80.8893	2,296.88	78.4577	2,296.88	76.6471	2,296.88	73.4533	2,296.88	64.4522	2,296.88	66.1505	2,296.88	68.9559	2,296.88	74.8158	2,296.88	73.5123	2,296.88	76.2653	2,296.88	79.6959	2,296.88	76.0714	2,296.88	79.9332	2,296.88	74.2325	2,296.88	76.5087	2,296.88	73.5819	2,296.88	72.3037	2,296.88	71.2246	2,296.88	68.5216	2,296.88	70.0762	2,296.88	70.5825	2,296.88	70.6916	2,296.88	70.2562	2,296.88	69.1652	2,296.88	65.1426	2,296.88	70.1532	2,296.88	63.8997	2,296.88	69.0005	2,296.88	59.2982	2,296.88	63.8893	2,296.88	61.7796	2,296.88	53.057	2,296.88	69.6141	2,296.88	66.4391
2,378.91	82.4462	2,378.91	81.9865	2,378.91	81.0292	2,378.91	79.4302	2,378.91	76.6278	2,378.91	72.8662	2,378.91	63.1221	2,378.91	69.2541	2,378.91	70.4682	2,378.91	76.0749	2,378.91	74.8845	2,378.91	77.0072	2,378.91	80.7016	2,378.91	76.447	2,378.91	80.9277	2,378.91	75.9897	2,378.91	79.1219	2,378.91	74.0964	2,378.91	75.7588	2,378.91	71.6189	2,378.91	71.8944	2,378.91	69.8818	2,378.91	64.1522	2,378.91	70.8667	2,378.91	72.8831	2,378.91	70.13	2,378.91	65.5658	2,378.91	70.4345	2,378.91	62.5436	2,378.91	68.7954	2,378.91	56.5868	2,378.91	64.6664	2,378.91	61.9168	2,378.91	56.5956	2,378.91	68.5615	2,378.91	63.1622
2,462.4	82.04	2,462.4	82.2088	2,462.4	80.5272	2,462.4	80.2216	2,462.4	77.1654	2,462.4	74.7683	2,462.4	66.6458	2,462.4	73.5876	2,462.4	71.5119	2,462.4	77.5667	2,462.4	75.343	2,462.4	78.56	2,462.4	81.5412	2,462.4	76.9846	2,462.4	81.6505	2,462.4	73.4631	2,462.4	78.8514	2,462.4	72.0005	2,462.4	76.1927	2,462.4	73.0577	2,462.4	72.2787	2,462.4	70.3406	2,462.4	61.4913	2,462.4	69.9408	2,462.4	71.1837	2,462.4	68.3617	2,462.4	67.0857	2,462.4	69.8883	2,462.4	45.6731	2,462.4	69.7483	2,462.4	50.1228	2,462.4	66.7616	2,462.4	63.1252	2,462.4	60.5946	2,462.4	67.4166	2,462.4	64.7955
2,548.83	82.6972	2,548.83	82.2726	2,548.83	80.6764	2,548.83	80.5382	2,548.83	76.9047	2,548.83	75.7608	2,548.83	72.1257	2,548.83	77.7234	2,548.83	73.8571	2,548.83	78.9474	2,548.83	76.4765	2,548.83	77.5854	2,548.83	81.8935	2,548.83	77.6618	2,548.83	81.8879	2,548.83	76.3391	2,548.83	79.4309	2,548.83	74.289	2,548.83	78.7026	2,548.83	72.6717	2,548.83	73.5922	2,548.83	68.8235	2,548.83	66.55	2,548.83	71.2209	2,548.83	64.2771	2,548.83	68.0005	2,548.83	66.0593	2,548.83	70.4546	2,548.83	55.8195	2,548.83	69.623	2,548.83	53.2127	2,548.83	65.9487	2,548.83	64.9527	2,548.83	64.4653	2,548.83	66.7826	2,548.83	65.7575
2,639.65	82.9534	2,639.65	82.544	2,639.65	81.0746	2,639.65	80.6054	2,639.65	77.0946	2,639.65	76.2054	2,639.65	74.7201	2,639.65	78.7095	2,639.65	75.7012	2,639.65	78.4899	2,639.65	76.1504	2,639.65	79.3462	2,639.65	82.7426	2,639.65	78.2963	2,639.65	82.9154	2,639.65	78.5809	2,639.65	79.7229	2,639.65	77.1847	2,639.65	78.1798	2,639.65	74.2263	2,639.65	74.4667	2,639.65	72.2618	2,639.65	60.7208	2,639.65	71.5443	2,639.65	65.127	2,639.65	70.3538	2,639.65	64.9257	2,639.65	69.6479	2,639.65	63.9219	2,639.65	69.1353	2,639.65	58.4973	2,639.65	66.4186	2,639.65	60.8237	2,639.65	64.1773	2,639.65	68.9708	2,639.65	67.5429
2,731.93	82.1993	2,731.93	82.7208	2,731.93	80.7993	2,731.93	80.3628	2,731.93	76.8488	2,731.93	78.1774	2,731.93	75.0264	2,731.93	79.0823	2,731.93	78.3395	2,731.93	79.9929	2,731.93	76.6818	2,731.93	80.6599	2,731.93	82.1995	2,731.93	79.7437	2,731.93	82.4382	2,731.93	77.2672	2,731.93	78.964	2,731.93	74.8693	2,731.93	76.1623	2,731.93	72.2355	2,731.93	74.2598	2,731.93	71.9623	2,731.93	67.3533	2,731.93	68.9803	2,731.93	61.4857	2,731.93	69.5866	2,731.93	63.1032	2,731.93	68.6886	2,731.93	63.6951	2,731.93	70.6794	2,731.93	55.0099	2,731.93	67.9891	2,731.93	59.2582	2,731.93	62.5822	2,731.93	68.0682	2,731.93	64.4688
2,828.61	83.0118	2,828.61	83.2885	2,828.61	81.46	2,828.61	80.8213	2,828.61	77.4822	2,828.61	79.1283	2,828.61	75.256	2,828.61	79.5044	2,828.61	79.7494	2,828.61	80.1744	2,828.61	78.8948	2,828.61	79.874	2,828.61	81.4926	2,828.61	78.8516	2,828.61	82.3473	2,828.61	75.5139	2,828.61	80.2911	2,828.61	72.6566	2,828.61	76.7197	2,828.61	71.5244	2,828.61	64.6575	2,828.61	71.2695	2,828.61	59.4739	2,828.61	69.7101	2,828.61	62.0503	2,828.61	69.5209	2,828.61	59.6599	2,828.61	69.6646	2,828.61	62.9704	2,828.61	70.1513	2,828.61	58.2672	2,828.61	68.2549	2,828.61	61.6389	2,828.61	61.4703	2,828.61	67.2756	2,828.61	65.8946
2,928.22	83.0456	2,928.22	83.4594	2,928.22	81.9632	2,928.22	80.6521	2,928.22	79.6118	2,928.22	80.4897	2,928.22	75.394	2,928.22	80.2388	2,928.22	80.6065	2,928.22	80.949	2,928.22	79.8167	2,928.22	80.3321	2,928.22	81.2061	2,928.22	78.6574	2,928.22	81.7419	2,928.22	77.8412	2,928.22	79.3701	2,928.22	75.5516	2,928.22	72.9301	2,928.22	72.5904	2,928.22	68.2937	2,928.22	70.6718	2,928.22	69.2961	2,928.22	68.8038	2,928.22	67.5412	2,928.22	69.4087	2,928.22	61.3997	2,928.22	68.5999	2,928.22	65.1359	2,928.22	69.3933	2,928.22	61.0572	2,928.22	66.1952	2,928.22	61.2287	2,928.22	64.9453	2,928.22	67.7293	2,928.22	64.4715
3,030.76	83.6265	3,030.76	82.9557	3,030.76	81.0496	3,030.76	81.4027	3,030.76	80.4528	3,030.76	80.7515	3,030.76	78.3687	3,030.76	80.3727	3,030.76	80.558	3,030.76	80.7763	3,030.76	79.7971	3,030.76	79.0832	3,030.76	81.6193	3,030.76	78.8098	3,030.76	83.2233	3,030.76	76.2615	3,030.76	79.8469	3,030.76	73.627	3,030.76	70.8318	3,030.76	72.681	3,030.76	69.5276	3,030.76	71.222	3,030.76	72.7882	3,030.76	69.0012	3,030.76	63.5592	3,030.76	67.6732	3,030.76	63.6319	3,030.76	66.9624	3,030.76	60.8036	3,030.76	69.9109	3,030.76	43.8274	3,030.76	68.518	3,030.76	59.522	3,030.76	62.8257	3,030.76	66.4448	3,030.76	66.6074
3,137.7	84.516	3,137.7	83.3349	3,137.7	82.136	3,137.7	82.6314	3,137.7	80.3322	3,137.7	81.1062	3,137.7	78.5289	3,137.7	81.5755	3,137.7	81.6712	3,137.7	80.605	3,137.7	80.8885	3,137.7	80.6421	3,137.7	81.472	3,137.7	78.7323	3,137.7	83.1276	3,137.7	79.1363	3,137.7	80.5932	3,137.7	78.001	3,137.7	77.3565	3,137.7	74.4792	3,137.7	74.0941	3,137.7	73.0423	3,137.7	69.0565	3,137.7	70.0704	3,137.7	61.475	3,137.7	69.1214	3,137.7	58.8541	3,137.7	67.0129	3,137.7	65.1931	3,137.7	70.8024	3,137.7	53.6338	3,137.7	69.297	3,137.7	58.9977	3,137.7	63.1148	3,137.7	66.4233	3,137.7	66.3927
3,249.02	84.2984	3,249.02	83.4532	3,249.02	83.0507	3,249.02	82.9702	3,249.02	81.1298	3,249.02	81.5273	3,249.02	79.7416	3,249.02	81.6855	3,249.02	81.851	3,249.02	81.6328	3,249.02	81.7266	3,249.02	81.3457	3,249.02	81.9669	3,249.02	80.4377	3,249.02	83.9084	3,249.02	77.4829	3,249.02	81.6959	3,249.02	73.8084	3,249.02	79.0444	3,249.02	73.064	3,249.02	75.5797	3,249.02	70.4666	3,249.02	69.8206	3,249.02	69.4828	3,249.02	59.9982	3,249.02	68.8855	3,249.02	62.1715	3,249.02	67.3411	3,249.02	62.6789	3,249.02	69.9987	3,249.02	46.5214	3,249.02	68.3418	3,249.02	51.8677	3,249.02	65.7167	3,249.02	67.0595	3,249.02	65.3264
3,363.28	83.8007	3,363.28	84.0675	3,363.28	83.2333	3,363.28	83.075	3,363.28	82.1001	3,363.28	82.3701	3,363.28	81.5429	3,363.28	82.303	3,363.28	81.6468	3,363.28	81.725	3,363.28	81.9557	3,363.28	81.3507	3,363.28	81.1212	3,363.28	79.7554	3,363.28	83.5171	3,363.28	77.3875	3,363.28	80.6984	3,363.28	77.1421	3,363.28	78.8417	3,363.28	73.9183	3,363.28	77.2009	3,363.28	71.9166	3,363.28	61.97	3,363.28	69.331	3,363.28	59.7486	3,363.28	70.1324	3,363.28	61.8492	3,363.28	68.4473	3,363.28	58.1646	3,363.28	69.4477	3,363.28	58.8466	3,363.28	68.5038	3,363.28	56.8196	3,363.28	64.9092	3,363.28	64.7916	3,363.28	65.2599
3,481.93	84.7911	3,481.93	84.4831	3,481.93	83.7931	3,481.93	83.5031	3,481.93	82.1849	3,481.93	83.1177	3,481.93	82.6125	3,481.93	82.1027	3,481.93	82.3329	3,481.93	82.5442	3,481.93	81.9591	3,481.93	81.2154	3,481.93	81.4438	3,481.93	79.7411	3,481.93	83.0892	3,481.93	78.269	3,481.93	81.2842	3,481.93	73.8964	3,481.93	78.4353	3,481.93	73.7183	3,481.93	73.4118	3,481.93	70.8323	3,481.93	67.897	3,481.93	68.6706	3,481.93	64.6395	3,481.93	67.4879	3,481.93	61.2558	3,481.93	67.3867	3,481.93	56.2369	3,481.93	69.6474	3,481.93	59.3918	3,481.93	69.2236	3,481.93	53.9866	3,481.93	64.2167	3,481.93	65.3138	3,481.93	65.8574
3,604.98	84.4961	3,604.98	84.6353	3,604.98	84.017	3,604.98	84.0398	3,604.98	82.7435	3,604.98	83.3038	3,604.98	82.6279	3,604.98	82.9623	3,604.98	82.6749	3,604.98	82.5259	3,604.98	82.4847	3,604.98	81.4989	3,604.98	81.4139	3,604.98	79.7945	3,604.98	83.2547	3,604.98	76.59	3,604.98	79.6562	3,604.98	76.1064	3,604.98	75.7606	3,604.98	73.1896	3,604.98	74.0241	3,604.98	71.9338	3,604.98	70.1683	3,604.98	69.2369	3,604.98	67.1085	3,604.98	68.6669	3,604.98	57.4119	3,604.98	66.2336	3,604.98	52.1611	3,604.98	69.5011	3,604.98	57.0323	3,604.98	67.9698	3,604.98	54.2835	3,604.98	66.7296	3,604.98	64.8188	3,604.98	64.5383
3,732.42	84.7305	3,732.42	84.7115	3,732.42	84.0248	3,732.42	84.5826	3,732.42	83.3341	3,732.42	83.6114	3,732.42	83.7384	3,732.42	83.8213	3,732.42	83.1761	3,732.42	82.6019	3,732.42	83.4165	3,732.42	81.2861	3,732.42	81.5656	3,732.42	78.7416	3,732.42	83.0842	3,732.42	78.7377	3,732.42	79.5657	3,732.42	73.9221	3,732.42	75.0272	3,732.42	73.7767	3,732.42	70.2133	3,732.42	71.4949	3,732.42	69.3339	3,732.42	69.5836	3,732.42	69.7302	3,732.42	67.4611	3,732.42	65.9635	3,732.42	66.9031	3,732.42	61.9103	3,732.42	70.1092	3,732.42	59.2197	3,732.42	68.2349	3,732.42	52.4005	3,732.42	66.0889	3,732.42	63.5503	3,732.42	66.6444
3,864.26	84.6602	3,864.26	85.376	3,864.26	84.6359	3,864.26	84.3987	3,864.26	83.8465	3,864.26	83.8998	3,864.26	84.583	3,864.26	84.188	3,864.26	83.7316	3,864.26	82.8929	3,864.26	83.8828	3,864.26	81.2902	3,864.26	81.7793	3,864.26	79.6418	3,864.26	83.2489	3,864.26	77.3313	3,864.26	78.0378	3,864.26	76.3812	3,864.26	72.2989	3,864.26	73.674	3,864.26	67.4537	3,864.26	71.0793	3,864.26	66.3357	3,864.26	69.8453	3,864.26	60.5042	3,864.26	68.4846	3,864.26	61.8121	3,864.26	66.3124	3,864.26	59.0491	3,864.26	68.477	3,864.26	60.2962	3,864.26	68.6711	3,864.26	55.0787	3,864.26	65.2946	3,864.26	62.1708	3,864.26	64.552
4,000.49	84.661	4,000.49	84.98	4,000.49	84.2551	4,000.49	84.9383	4,000.49	84.0473	4,000.49	84.9724	4,000.49	85.0598	4,000.49	84.1779	4,000.49	83.7754	4,000.49	83.0067	4,000.49	83.1711	4,000.49	81.5669	4,000.49	80.8804	4,000.49	79.8482	4,000.49	80.9526	4,000.49	77.9518	4,000.49	77.9344	4,000.49	74.8716	4,000.49	73.3296	4,000.49	74.0355	4,000.49	65.8885	4,000.49	71.493	4,000.49	64.7462	4,000.49	70.1932	4,000.49	64.0096	4,000.49	66.3897	4,000.49	61.062	4,000.49	67.5126	4,000.49	50.2105	4,000.49	68.7479	4,000.49	55.4948	4,000.49	69.71	4,000.49	49.4849	4,000.49	66.4709	4,000.49	62.8009	4,000.49	64.8673
4,141.11	84.4997	4,141.11	85.3341	4,141.11	84.5931	4,141.11	84.2715	4,141.11	84.4834	4,141.11	85.008	4,141.11	84.8371	4,141.11	84.3752	4,141.11	83.7842	4,141.11	82.9921	4,141.11	82.0049	4,141.11	82.1258	4,141.11	79.2635	4,141.11	80.0175	4,141.11	76.9162	4,141.11	79.5604	4,141.11	78.4672	4,141.11	78.5506	4,141.11	77.1535	4,141.11	74.843	4,141.11	71.7646	4,141.11	72.9792	4,141.11	64.9617	4,141.11	70.416	4,141.11	65.3017	4,141.11	67.7319	4,141.11	57.3872	4,141.11	67.7321	4,141.11	62.6947	4,141.11	68.2567	4,141.11	55.3481	4,141.11	69.3971	4,141.11	41.6713	4,141.11	66.7551	4,141.11	62.3276	4,141.11	65.6498
4,287.6	84.7304	4,287.6	85.0425	4,287.6	84.5224	4,287.6	85.3229	4,287.6	84.8136	4,287.6	85.6438	4,287.6	85.2265	4,287.6	84.5271	4,287.6	83.4665	4,287.6	83.5753	4,287.6	81.4529	4,287.6	82.0936	4,287.6	76.5867	4,287.6	80.6806	4,287.6	73.9452	4,287.6	77.9087	4,287.6	79.8774	4,287.6	75.1316	4,287.6	78.0849	4,287.6	74.6097	4,287.6	72.804	4,287.6	71.8233	4,287.6	65.976	4,287.6	70.2964	4,287.6	62.1845	4,287.6	67.5581	4,287.6	65.5306	4,287.6	67.1049	4,287.6	61.1033	4,287.6	67.5937	4,287.6	58.4153	4,287.6	70.6443	4,287.6	40.1812	4,287.6	66.9383	4,287.6	58.8512	4,287.6	65.8255
4,438.48	84.6431	4,438.48	84.6828	4,438.48	84.5365	4,438.48	84.6954	4,438.48	84.676	4,438.48	85.1518	4,438.48	85.2354	4,438.48	84.6353	4,438.48	83.8234	4,438.48	83.4147	4,438.48	82.7734	4,438.48	82.693	4,438.48	77.6856	4,438.48	79.4691	4,438.48	81.4692	4,438.48	78.4743	4,438.48	82.7212	4,438.48	72.9287	4,438.48	76.7295	4,438.48	72.9924	4,438.48	70.7337	4,438.48	71.1039	4,438.48	68.3007	4,438.48	69.3447	4,438.48	61.3848	4,438.48	66.1978	4,438.48	60.7012	4,438.48	66.341	4,438.48	52.6216	4,438.48	66.9259	4,438.48	61.3591	4,438.48	66.937	4,438.48	36.4218	4,438.48	65.9585	4,438.48	60.5053	4,438.48	65.0317
4,595.21	85.2234	4,595.21	84.7607	4,595.21	85.0479	4,595.21	85.6521	4,595.21	85.5108	4,595.21	85.6172	4,595.21	84.406	4,595.21	85.0017	4,595.21	83.4884	4,595.21	84.6142	4,595.21	82.2212	4,595.21	81.8915	4,595.21	80.8871	4,595.21	78.7843	4,595.21	84.4708	4,595.21	77.8162	4,595.21	83.0037	4,595.21	78.0126	4,595.21	75.39	4,595.21	74.0502	4,595.21	71.2311	4,595.21	72.0646	4,595.21	69.9367	4,595.21	70.2949	4,595.21	66.1323	4,595.21	67.043	4,595.21	62.2086	4,595.21	66.6531	4,595.21	62.1295	4,595.21	65.8523	4,595.21	58.6639	4,595.21	69.8137	4,595.21	53.8154	4,595.21	65.9352	4,595.21	62.8772	4,595.21	64.806
4,756.35	84.7525	4,756.35	84.1566	4,756.35	84.5176	4,756.35	85.0829	4,756.35	85.4005	4,756.35	84.9395	4,756.35	85.1778	4,756.35	85.4564	4,756.35	82.1069	4,756.35	84.0227	4,756.35	82.0956	4,756.35	81.4401	4,756.35	81.0441	4,756.35	80.6015	4,756.35	84.7288	4,756.35	78.2749	4,756.35	82.8272	4,756.35	75.6722	4,756.35	75.689	4,756.35	74.4688	4,756.35	72.1568	4,756.35	71.9021	4,756.35	67.2923	4,756.35	68.7528	4,756.35	66.4554	4,756.35	68.214	4,756.35	59.813	4,756.35	64.4428	4,756.35	62.264	4,756.35	65.5652	4,756.35	63.3168	4,756.35	69.1127	4,756.35	43.6142	4,756.35	64.7915	4,756.35	62.5427	4,756.35	65.1394
4,924.8	85.5127	4,924.8	85.0736	4,924.8	85.6458	4,924.8	85.3224	4,924.8	85.3083	4,924.8	85.3032	4,924.8	85.6195	4,924.8	85.6793	4,924.8	83.6868	4,924.8	83.7912	4,924.8	82.8092	4,924.8	82.2126	4,924.8	80.9721	4,924.8	79.9562	4,924.8	83.3273	4,924.8	77.7279	4,924.8	81.0709	4,924.8	75.878	4,924.8	73.6648	4,924.8	72.5923	4,924.8	66.5515	4,924.8	71.8834	4,924.8	67.5939	4,924.8	69.4408	4,924.8	67.9429	4,924.8	68.0324	4,924.8	58.8068	4,924.8	64.3082	4,924.8	54.1603	4,924.8	65.2681	4,924.8	58.2961	4,924.8	68.8348	4,924.8	54.6439	4,924.8	65.5716	4,924.8	62.4741	4,924.8	65.4976
5,097.66	85.1612	5,097.66	84.4623	5,097.66	85.2355	5,097.66	84.8639	5,097.66	85.4815	5,097.66	85.8345	5,097.66	85.0664	5,097.66	85.5632	5,097.66	83.1536	5,097.66	84.0586	5,097.66	83.2376	5,097.66	82.3376	5,097.66	81.3374	5,097.66	79.5939	5,097.66	80.4148	5,097.66	77.6884	5,097.66	79.4406	5,097.66	76.3049	5,097.66	71.5554	5,097.66	73.9195	5,097.66	66.0387	5,097.66	72.2867	5,097.66	69.5088	5,097.66	69.0431	5,097.66	66.2639	5,097.66	66.8948	5,097.66	58.3036	5,097.66	64.4377	5,097.66	51.1116	5,097.66	64.6089	5,097.66	56.9594	5,097.66	68.3613	5,097.66	56.1613	5,097.66	65.864	5,097.66	61.9894	5,097.66	66.27
5,277.83	85.3573	5,277.83	85.4303	5,277.83	85.8719	5,277.83	84.6122	5,277.83	85.2202	5,277.83	85.5978	5,277.83	85.6112	5,277.83	84.9412	5,277.83	83.4071	5,277.83	84.4611	5,277.83	83.2545	5,277.83	81.9844	5,277.83	82.4479	5,277.83	80.4672	5,277.83	77.2483	5,277.83	76.4235	5,277.83	79.8361	5,277.83	75.8773	5,277.83	74.1563	5,277.83	73.1329	5,277.83	70.1771	5,277.83	71.8993	5,277.83	66.8531	5,277.83	69.5845	5,277.83	63.2808	5,277.83	66.9326	5,277.83	59.7303	5,277.83	64.6235	5,277.83	51.6851	5,277.83	62.8439	5,277.83	58.2792	5,277.83	67.9157	5,277.83	56.4965	5,277.83	64.711	5,277.83	59.772	5,277.83	66.4332
5,463.87	85.284	5,463.87	84.9501	5,463.87	85.5358	5,463.87	84.278	5,463.87	84.5241	5,463.87	85.7947	5,463.87	84.5881	5,463.87	85.0971	5,463.87	83.1454	5,463.87	84.2882	5,463.87	83.0092	5,463.87	82.0385	5,463.87	81.5863	5,463.87	78.8717	5,463.87	78.7699	5,463.87	77.1251	5,463.87	79.7429	5,463.87	75.5119	5,463.87	75.5718	5,463.87	73.2389	5,463.87	72.9697	5,463.87	70.8815	5,463.87	67.1109	5,463.87	69.4134	5,463.87	62.9626	5,463.87	66.1404	5,463.87	63.156	5,463.87	65.2429	5,463.87	52.469	5,463.87	62.4135	5,463.87	50.7568	5,463.87	67.9826	5,463.87	60.4431	5,463.87	64.5143	5,463.87	62.0691	5,463.87	64.6178
5,657.23	85.8419	5,657.23	84.8356	5,657.23	85.5807	5,657.23	84.6405	5,657.23	84.47	5,657.23	85.036	5,657.23	84.118	5,657.23	85.1205	5,657.23	82.2831	5,657.23	84.0533	5,657.23	83.5072	5,657.23	81.7024	5,657.23	81.5981	5,657.23	79.8664	5,657.23	79.1897	5,657.23	77.9654	5,657.23	78.9849	5,657.23	74.5412	5,657.23	72.7775	5,657.23	73.1236	5,657.23	69.6534	5,657.23	71.2481	5,657.23	59.4706	5,657.23	68.8653	5,657.23	59.4751	5,657.23	66.8765	5,657.23	64.5644	5,657.23	64.9789	5,657.23	61.4883	5,657.23	62.4357	5,657.23	53.3107	5,657.23	66.0094	5,657.23	63.3259	5,657.23	63.931	5,657.23	60.6465	5,657.23	66.1391
5,856.45	85.6338	5,856.45	85.233	5,856.45	85.1307	5,856.45	84.4106	5,856.45	84.4171	5,856.45	84.424	5,856.45	83.526	5,856.45	84.6546	5,856.45	83.1847	5,856.45	83.4117	5,856.45	82.5303	5,856.45	81.6866	5,856.45	81.0678	5,856.45	79.2153	5,856.45	79.7671	5,856.45	76.5135	5,856.45	80.8756	5,856.45	74.8551	5,856.45	74.6116	5,856.45	72.1629	5,856.45	67.9655	5,856.45	69.9178	5,856.45	63.9971	5,856.45	68.4296	5,856.45	58.2242	5,856.45	66.419	5,856.45	61.5966	5,856.45	64.4883	5,856.45	64.0506	5,856.45	60.3838	5,856.45	61.0874	5,856.45	65.1173	5,856.45	60.075	5,856.45	63.4298	5,856.45	57.4709	5,856.45	65.0359
6,062.99	85.4964	6,062.99	84.8936	6,062.99	85.5812	6,062.99	84.3544	6,062.99	85.0177	6,062.99	84.2751	6,062.99	82.9798	6,062.99	84.1105	6,062.99	83.063	6,062.99	83.2677	6,062.99	81.764	6,062.99	81.4289	6,062.99	82.4161	6,062.99	78.7689	6,062.99	79.6567	6,062.99	75.7192	6,062.99	80.0797	6,062.99	73.5414	6,062.99	74.8235	6,062.99	71.563	6,062.99	65.6388	6,062.99	70.5945	6,062.99	63.5433	6,062.99	68.1012	6,062.99	55.5153	6,062.99	66.3155	6,062.99	59.9934	6,062.99	62.769	6,062.99	64.4113	6,062.99	59.7729	6,062.99	53.2786	6,062.99	63.8669	6,062.99	60.6012	6,062.99	59.9537	6,062.99	58.8155	6,062.99	64.4445
6,276.86	86.2359	6,276.86	85.5516	6,276.86	85.1962	6,276.86	84.2166	6,276.86	84.5388	6,276.86	84.1503	6,276.86	83.8869	6,276.86	83.7227	6,276.86	83.1782	6,276.86	83.4984	6,276.86	82.5657	6,276.86	81.0834	6,276.86	81.9808	6,276.86	78.7785	6,276.86	78.2827	6,276.86	75.4043	6,276.86	81.211	6,276.86	73.8542	6,276.86	73.8397	6,276.86	70.9063	6,276.86	69.0837	6,276.86	70.1719	6,276.86	68.6788	6,276.86	67.3922	6,276.86	46.6817	6,276.86	65.9445	6,276.86	59.1449	6,276.86	61.0325	6,276.86	58.5021	6,276.86	60.3054	6,276.86	53.4689	6,276.86	63.5266	6,276.86	58.93	6,276.86	60.0226	6,276.86	57.2113	6,276.86	63.5828
6,498.05	85.6537	6,498.05	85.4024	6,498.05	84.9085	6,498.05	84.129	6,498.05	84.4536	6,498.05	83.8324	6,498.05	83.4397	6,498.05	83.3959	6,498.05	83.9223	6,498.05	83.294	6,498.05	83.3681	6,498.05	80.9165	6,498.05	81.9149	6,498.05	79.2155	6,498.05	78.7304	6,498.05	75.5035	6,498.05	78.9392	6,498.05	73.3584	6,498.05	66.6194	6,498.05	70.6846	6,498.05	71.4378	6,498.05	69.1421	6,498.05	66.4353	6,498.05	67.5253	6,498.05	47.5909	6,498.05	64.5283	6,498.05	48.0144	6,498.05	60.0314	6,498.05	52.6326	6,498.05	62.0786	6,498.05	56.2206	6,498.05	63.1921	6,498.05	59.6258	6,498.05	55.591	6,498.05	54.1045	6,498.05	60.6514
6,726.56	85.2911	6,726.56	85.2827	6,726.56	85.1536	6,726.56	84.2327	6,726.56	84.1104	6,726.56	83.568	6,726.56	83.8045	6,726.56	83.1805	6,726.56	83.2147	6,726.56	82.7558	6,726.56	82.3896	6,726.56	81.394	6,726.56	80.6957	6,726.56	78.7668	6,726.56	77.7811	6,726.56	75.4423	6,726.56	74.3148	6,726.56	72.2485	6,726.56	65.6578	6,726.56	70.3757	6,726.56	68.6995	6,726.56	68.2345	6,726.56	58.4184	6,726.56	67.0937	6,726.56	55.1109	6,726.56	64.4929	6,726.56	61.0259	6,726.56	61.9012	6,726.56	53.4729	6,726.56	61.0393	6,726.56	48.8322	6,726.56	61.1659	6,726.56	58.992	6,726.56	56.6859	6,726.56	57.4565	6,726.56	62.6991
6,963.87	85.1737	6,963.87	85.4092	6,963.87	84.405	6,963.87	84.079	6,963.87	84.4903	6,963.87	83.3953	6,963.87	83.9529	6,963.87	82.7336	6,963.87	82.9703	6,963.87	82.3885	6,963.87	80.1812	6,963.87	81.1288	6,963.87	81.0088	6,963.87	78.1372	6,963.87	74.7889	6,963.87	74.3987	6,963.87	75.149	6,963.87	71.3277	6,963.87	71.8203	6,963.87	69.4495	6,963.87	60.3914	6,963.87	67.9075	6,963.87	55.5703	6,963.87	67.5871	6,963.87	59.0023	6,963.87	64.7396	6,963.87	54.2262	6,963.87	62.2289	6,963.87	56.6717	6,963.87	61.8562	6,963.87	53.3628	6,963.87	59.5005	6,963.87	60.5842	6,963.87	54.0729	6,963.87	54.011	6,963.87	60.1652
7,209.96	85.0917	7,209.96	85.133	7,209.96	83.6216	7,209.96	83.9729	7,209.96	84.3176	7,209.96	83.182	7,209.96	83.5787	7,209.96	82.2138	7,209.96	82.1468	7,209.96	82.1893	7,209.96	79.8502	7,209.96	80.2195	7,209.96	80.032	7,209.96	77.7963	7,209.96	76.195	7,209.96	74.3748	7,209.96	78.6347	7,209.96	71.6012	7,209.96	73.5596	7,209.96	69.351	7,209.96	67.6845	7,209.96	67.0852	7,209.96	64.3374	7,209.96	66.6012	7,209.96	56.5746	7,209.96	65.0115	7,209.96	56.5322	7,209.96	62.3053	7,209.96	55.9066	7,209.96	61.6565	7,209.96	55.6575	7,209.96	60.6987	7,209.96	58.4549	7,209.96	58.7421	7,209.96	57.0878	7,209.96	60.0968
7,464.84	84.2946	7,464.84	84.7571	7,464.84	83.7294	7,464.84	83.7144	7,464.84	83.9646	7,464.84	83.0272	7,464.84	83.2803	7,464.84	82.1431	7,464.84	81.8978	7,464.84	81.7567	7,464.84	81.1181	7,464.84	79.8347	7,464.84	76.1069	7,464.84	77.9274	7,464.84	79.2875	7,464.84	73.6883	7,464.84	81.0994	7,464.84	71.1939	7,464.84	69.4714	7,464.84	68.8699	7,464.84	66.6725	7,464.84	67.0146	7,464.84	62.4862	7,464.84	66.0592	7,464.84	55.0899	7,464.84	63.4722	7,464.84	54.0414	7,464.84	61.3227	7,464.84	48.5861	7,464.84	62.0357	7,464.84	43.6906	7,464.84	61.5456	7,464.84	60.2693	7,464.84	59.506	7,464.84	54.1932	7,464.84	58.3528
7,727.05	84.0376	7,727.05	84.6315	7,727.05	83.6425	7,727.05	83.9375	7,727.05	83.6512	7,727.05	82.9248	7,727.05	82.6461	7,727.05	82.1778	7,727.05	80.6489	7,727.05	81.4836	7,727.05	79.5161	7,727.05	80.2074	7,727.05	77.7628	7,727.05	78.0942	7,727.05	80.9251	7,727.05	74.5801	7,727.05	76.6097	7,727.05	70.6841	7,727.05	68.3681	7,727.05	68.5757	7,727.05	66.6722	7,727.05	66.6333	7,727.05	53.2855	7,727.05	66.3866	7,727.05	45.6612	7,727.05	63.1599	7,727.05	58.3089	7,727.05	61.3609	7,727.05	56.785	7,727.05	62.9044	7,727.05	45.2487	7,727.05	62.7293	7,727.05	57.2848	7,727.05	60.8638	7,727.05	52.07	7,727.05	58.4398
7,999.51	83.9859	7,999.51	84.4327	7,999.51	83.4761	7,999.51	84.1136	7,999.51	83.4522	7,999.51	82.7554	7,999.51	82.2015	7,999.51	81.7928	7,999.51	81.2406	7,999.51	81.0295	7,999.51	78.901	7,999.51	79.7224	7,999.51	80.1671	7,999.51	77.7409	7,999.51	77.4189	7,999.51	73.7336	7,999.51	68.7015	7,999.51	70.2096	7,999.51	66.3208	7,999.51	66.7892	7,999.51	65.2855	7,999.51	65.9187	7,999.51	51.7619	7,999.51	65.1051	7,999.51	55.3383	7,999.51	62.8182	7,999.51	57.5617	7,999.51	61.3768	7,999.51	50.533	7,999.51	61.1649	7,999.51	45.4273	7,999.51	61.6139	7,999.51	55.6243	7,999.51	59.358	7,999.51	52.4683	7,999.51	56.5482
8,282.23	84.0034	8,282.23	84.35	8,282.23	83.7202	8,282.23	84.1074	8,282.23	83.7461	8,282.23	82.4154	8,282.23	81.854	8,282.23	80.9393	8,282.23	80.6654	8,282.23	80.3167	8,282.23	78.213	8,282.23	78.695	8,282.23	78.6319	8,282.23	76.2886	8,282.23	72.3886	8,282.23	72.107	8,282.23	70.4858	8,282.23	68.2861	8,282.23	65.8822	8,282.23	65.0841	8,282.23	56.4563	8,282.23	63.3282	8,282.23	59.1699	8,282.23	62.6945	8,282.23	51.3542	8,282.23	61.4995	8,282.23	45.9322	8,282.23	58.5908	8,282.23	20.961	8,282.23	59.2164	8,282.23	46.9459	8,282.23	60.0074	8,282.23	55.4222	8,282.23	57.5125	8,282.23	50.5747	8,282.23	55.0013
8,573.73	83.6041	8,573.73	84.064	8,573.73	83.694	8,573.73	83.6645	8,573.73	83.4589	8,573.73	81.7939	8,573.73	81.717	8,573.73	80.1254	8,573.73	80.5231	8,573.73	79.3855	8,573.73	77.3013	8,573.73	77.2118	8,573.73	76.8328	8,573.73	74.3395	8,573.73	72.404	8,573.73	70.4284	8,573.73	72.1298	8,573.73	66.6898	8,573.73	65.8045	8,573.73	63.0758	8,573.73	59.537	8,573.73	61.4457	8,573.73	60.5683	8,573.73	60.7443	8,573.73	48.2962	8,573.73	59.2762	8,573.73	48.6889	8,573.73	56.7869	8,573.73	45.5564	8,573.73	57.3649	8,573.73	49.5127	8,573.73	58.4133	8,573.73	50.2388	8,573.73	55.3339	8,573.73	50.6427	8,573.73	52.5307
8,876.95	83.4431	8,876.95	83.4618	8,876.95	83.3514	8,876.95	83.2536	8,876.95	82.8141	8,876.95	81.1712	8,876.95	81.0607	8,876.95	79.3358	8,876.95	79.7047	8,876.95	78.1413	8,876.95	77.5577	8,876.95	75.4821	8,876.95	74.6997	8,876.95	73.1305	8,876.95	73.0141	8,876.95	68.5927	8,876.95	68.1305	8,876.95	64.5919	8,876.95	63.481	8,876.95	60.7123	8,876.95	56.9719	8,876.95	59.1407	8,876.95	58.2758	8,876.95	58.0222	8,876.95	48.4183	8,876.95	56.7503	8,876.95	51.223	8,876.95	54.8753	8,876.95	42.3919	8,876.95	55.1219	8,876.95	31.2439	8,876.95	56.907	8,876.95	51.2184	8,876.95	53.8842	8,876.95	48.4905	8,876.95	50.276
9,188.96	83.6986	9,188.96	83.4981	9,188.96	83.4977	9,188.96	83.246	9,188.96	82.6087	9,188.96	81.0743	9,188.96	80.5553	9,188.96	79.0576	9,188.96	78.995	9,188.96	77.0803	9,188.96	76.3249	9,188.96	74.3598	9,188.96	73.1156	9,188.96	71.1203	9,188.96	71.2192	9,188.96	66.7464	9,188.96	64.0054	9,188.96	62.1951	9,188.96	63.4389	9,188.96	58.5981	9,188.96	53.7057	9,188.96	56.7886	9,188.96	56.5042	9,188.96	56.4543	9,188.96	39.4234	9,188.96	54.145	9,188.96	39.6394	9,188.96	53.1772	9,188.96	32.3083	9,188.96	53.1559	9,188.96	42.7604	9,188.96	55.0857	9,188.96	49.6384	9,188.96	52.037	9,188.96	47.4057	9,188.96	47.1327
9,514.16	84.4136	9,514.16	83.8371	9,514.16	84.1628	9,514.16	83.4301	9,514.16	82.5494	9,514.16	81.5346	9,514.16	80.4993	9,514.16	79.0848	9,514.16	78.3064	9,514.16	76.7313	9,514.16	75.4221	9,514.16	73.4616	9,514.16	73.1552	9,514.16	69.7718	9,514.16	69.8858	9,514.16	65.4601	9,514.16	62.6066	9,514.16	60.9287	9,514.16	62.702	9,514.16	57.0094	9,514.16	56.1938	9,514.16	54.4297	9,514.16	53.7578	9,514.16	54.4437	9,514.16	48.9754	9,514.16	53.0046	9,514.16	39.676	9,514.16	51.5126	9,514.16	32.2357	9,514.16	50.9858	9,514.16	37.527	9,514.16	54.1241	9,514.16	48.2692	9,514.16	50.4777	9,514.16	45.9214	9,514.16	45.2654
9,849.61	84.9414	9,849.61	84.1539	9,849.61	84.5352	9,849.61	83.4652	9,849.61	82.7876	9,849.61	81.7822	9,849.61	80.5445	9,849.61	79.1104	9,849.61	78.3522	9,849.61	76.4522	9,849.61	75.4492	9,849.61	72.8964	9,849.61	72.5283	9,849.61	69.3026	9,849.61	67.7636	9,849.61	63.789	9,849.61	62.168	9,849.61	60.1438	9,849.61	57.885	9,849.61	55.1528	9,849.61	53.058	9,849.61	52.1376	9,849.61	51.4906	9,849.61	50.9153	9,849.61	44.3686	9,849.61	51.1831	9,849.61	46.4238	9,849.61	50.8262	9,849.61	43.7627	9,849.61	46.7124	9,849.61	41.0782	9,849.61	52.4031	9,849.61	48.4743	9,849.61	50.8475	9,849.61	46.5131	9,849.61	43.0544
10,196.8	85.0849	10,196.8	84.3224	10,196.8	84.4626	10,196.8	83.4204	10,196.8	82.6387	10,196.8	81.7172	10,196.8	80.6615	10,196.8	78.8637	10,196.8	78.2055	10,196.8	76.1522	10,196.8	74.6906	10,196.8	72.7685	10,196.8	70.5776	10,196.8	68.2266	10,196.8	65.8074	10,196.8	63.267	10,196.8	61.2038	10,196.8	57.9932	10,196.8	57.495	10,196.8	54.4558	10,196.8	41.9206	10,196.8	52.1156	10,196.8	47.075	10,196.8	50.6357	10,196.8	38.0657	10,196.8	50.661	10,196.8	46.1398	10,196.8	51.6441	10,196.8	32.9857	10,196.8	45.6601	10,196.8	32.7761	10,196.8	51.617	10,196.8	48.8934	10,196.8	49.9135	10,196.8	48.6769	10,196.8	39.7117
10,555.7	84.9078	10,555.7	84.2472	10,555.7	84.1732	10,555.7	83.2413	10,555.7	82.2917	10,555.7	81.3285	10,555.7	80.6491	10,555.7	78.5628	10,555.7	78.0424	10,555.7	75.954	10,555.7	73.7402	10,555.7	72.5918	10,555.7	69.0156	10,555.7	68.2268	10,555.7	64.7993	10,555.7	62.003	10,555.7	61.4601	10,555.7	57.2406	10,555.7	59.8335	10,555.7	53.76	10,555.7	52.8679	10,555.7	50.6312	10,555.7	49.0323	10,555.7	50.3701	10,555.7	42.5578	10,555.7	49.9967	10,555.7	44.3235	10,555.7	50.937	10,555.7	30.0418	10,555.7	45.4	10,555.7	43.0714	10,555.7	48.9793	10,555.7	47.2011	10,555.7	49.5591	10,555.7	47.432	10,555.7	37.8914
10,927.7	84.3526	10,927.7	83.8164	10,927.7	83.4875	10,927.7	82.8059	10,927.7	82.0386	10,927.7	80.8339	10,927.7	79.9517	10,927.7	78.1092	10,927.7	77.3453	10,927.7	75.4848	10,927.7	73.1009	10,927.7	71.9552	10,927.7	67.1087	10,927.7	66.8798	10,927.7	63.0001	10,927.7	61.5369	10,927.7	58.3903	10,927.7	56.8403	10,927.7	54.7262	10,927.7	52.3984	10,927.7	51.7599	10,927.7	49.7713	10,927.7	49.552	10,927.7	49.6478	10,927.7	43.0652	10,927.7	48.6126	10,927.7	39.3019	10,927.7	50.3677	10,927.7	15.4102	10,927.7	45.6174	10,927.7	33.8902	10,927.7	46.3444	10,927.7	44.4074	10,927.7	48.454	10,927.7	46.9971	10,927.7	35.2534
11,313	83.8884	11,313	83.5827	11,313	82.9663	11,313	82.3753	11,313	81.6792	11,313	80.1984	11,313	79.2392	11,313	77.1832	11,313	75.9146	11,313	74.1577	11,313	72.2951	11,313	70.0386	11,313	66.3246	11,313	65.497	11,313	61.3787	11,313	59.7973	11,313	55.3667	11,313	54.7933	11,313	51.1219	11,313	50.0151	11,313	45.3837	11,313	47.2114	11,313	48.3787	11,313	46.1707	11,313	41.6146	11,313	45.7166	11,313	37.4257	11,313	47.0589	11,313	29.3662	11,313	44.043	11,313	34.3443	11,313	41.865	11,313	43.3408	11,313	44.166	11,313	45.2226	11,313	31.3065
11,712.9	84.1392	11,712.9	83.7466	11,712.9	83.1427	11,712.9	82.371	11,712.9	81.6377	11,712.9	79.7768	11,712.9	78.9004	11,712.9	76.3176	11,712.9	75.0798	11,712.9	72.6396	11,712.9	70.8268	11,712.9	67.7666	11,712.9	65.5911	11,712.9	62.3245	11,712.9	56.398	11,712.9	55.5694	11,712.9	55.2858	11,712.9	49.9351	11,712.9	50.6087	11,712.9	45.7497	11,712.9	28.1211	11,712.9	43.4884	11,712.9	41.652	11,712.9	41.5578	11,712.9	33.0897	11,712.9	41.2072	11,712.9	32.6648	11,712.9	42.0897	11,712.9	29.5037	11,712.9	41.094	11,712.9	20.6838	11,712.9	38.5034	11,712.9	40.9867	11,712.9	40.8348	11,712.9	42.2316	11,712.9	23.3734
12,126	84.6952	12,126	84.2061	12,126	83.8165	12,126	82.6343	12,126	82.0626	12,126	79.8013	12,126	78.9954	12,126	75.9648	12,126	75.2992	12,126	71.6725	12,126	71.0386	12,126	66.3525	12,126	63.7277	12,126	59.5434	12,126	60.6686	12,126	53.3122	12,126	55.9087	12,126	45.9276	12,126	50.2046	12,126	44.9729	12,126	46.6283	12,126	39.4988	12,126	45.803	12,126	40.3908	12,126	33.1458	12,126	40.6078	12,126	34.6399	12,126	42.2252	12,126	27.9862	12,126	41.6132	12,126	25.8759	12,126	33.9598	12,126	35.9239	12,126	38.8596	12,126	38.4785	12,126	28.7786
12,553.7	85.0421	12,553.7	84.472	12,553.7	84.2836	12,553.7	82.9952	12,553.7	82.7351	12,553.7	79.8976	12,553.7	79.2109	12,553.7	75.9112	12,553.7	75.7985	12,553.7	71.4459	12,553.7	72.1978	12,553.7	66.5341	12,553.7	66.3943	12,553.7	59.9321	12,553.7	61.6565	12,553.7	53.2637	12,553.7	55.7862	12,553.7	49.3435	12,553.7	46.5076	12,553.7	45.9645	12,553.7	49.1917	12,553.7	42.8791	12,553.7	47.1388	12,553.7	38.3066	12,553.7	34.2864	12,553.7	43.5606	12,553.7	30.3967	12,553.7	44.4878	12,553.7	35.6484	12,553.7	43.0051	12,553.7	27.2575	12,553.7	37.6939	12,553.7	30.2968	12,553.7	40.1404	12,553.7	39.9132	12,553.7	31.4991
12,996.1	85.0767	12,996.1	84.4978	12,996.1	84.375	12,996.1	82.8836	12,996.1	82.8736	12,996.1	79.8467	12,996.1	79.5667	12,996.1	75.6019	12,996.1	75.9083	12,996.1	71.1788	12,996.1	72.0005	12,996.1	66.0638	12,996.1	66.4059	12,996.1	59.1971	12,996.1	61.6286	12,996.1	53.7988	12,996.1	54.3035	12,996.1	48.5381	12,996.1	52.0593	12,996.1	46.6306	12,996.1	47.4552	12,996.1	42.6297	12,996.1	45.5825	12,996.1	39.3249	12,996.1	36.0965	12,996.1	43.1437	12,996.1	31.9655	12,996.1	43.8896	12,996.1	24.9651	12,996.1	42.2957	12,996.1	30.4897	12,996.1	39.4531	12,996.1	21.5137	12,996.1	37.6594	12,996.1	33.6404	12,996.1	30.5329
13,454.6	84.7864	13,454.6	84.2127	13,454.6	84.151	13,454.6	82.4912	13,454.6	82.5266	13,454.6	79.398	13,454.6	79.535	13,454.6	74.8372	13,454.6	75.53	13,454.6	70.1382	13,454.6	70.76	13,454.6	64.2987	13,454.6	64.6985	13,454.6	56.0612	13,454.6	58.2533	13,454.6	50.3993	13,454.6	52.9364	13,454.6	46.1136	13,454.6	48.762	13,454.6	45.052	13,454.6	39.4321	13,454.6	38.3132	13,454.6	36.7011	13,454.6	36.8157	13,454.6	31.8439	13,454.6	40.2896	13,454.6	33.8981	13,454.6	41.4161	13,454.6	33.5423	13,454.6	38.1296	13,454.6	29.558	13,454.6	38.6762	13,454.6	32.4934	13,454.6	36.1975	13,454.6	30.7553	13,454.6	29.2778
13,929.2	84.7814	13,929.2	84.0779	13,929.2	84.0258	13,929.2	82.112	13,929.2	82.1125	13,929.2	78.6536	13,929.2	78.8464	13,929.2	73.8024	13,929.2	74.5031	13,929.2	68.2867	13,929.2	68.8481	13,929.2	61.0583	13,929.2	60.1366	13,929.2	52.2903	13,929.2	52.0486	13,929.2	46.3632	13,929.2	40.8899	13,929.2	39.7956	13,929.2	41.5704	13,929.2	35.0086	13,929.2	27.9695	13,929.2	35.669	13,929.2	26.475	13,929.2	35.2045	13,929.2	21.6676	13,929.2	37.5436	13,929.2	31.8519	13,929.2	38.4174	13,929.2	23.9749	13,929.2	34.9319	13,929.2	27.0192	13,929.2	33.7047	13,929.2	31.0044	13,929.2	26.4953	13,929.2	25.2748	13,929.2	30.6172
14,419.9	84.8412	14,419.9	84.0518	14,419.9	83.9792	14,419.9	81.8948	14,419.9	81.8036	14,419.9	77.9674	14,419.9	77.8153	14,419.9	72.6477	14,419.9	72.9008	14,419.9	66.1234	14,419.9	65.8521	14,419.9	56.3785	14,419.9	51.6711	14,419.9	41.1854	14,419.9	49.3224	14,419.9	42.5912	14,419.9	49.5003	14,419.9	42.5321	14,419.9	42.709	14,419.9	38.0746	14,419.9	36.7666	14,419.9	40.0471	14,419.9	36.3229	14,419.9	34.985	14,419.9	30.1191	14,419.9	31.4141	14,419.9	28.4521	14,419.9	38.2345	14,419.9	25.8785	14,419.9	37.2214	14,419.9	28.9204	14,419.9	36.3694	14,419.9	24.4054	14,419.9	28.6291	14,419.9	28.9533	14,419.9	33.5264
14,928.2	84.709	14,928.2	83.9413	14,928.2	83.7879	14,928.2	81.6431	14,928.2	81.5061	14,928.2	77.3176	14,928.2	77.2255	14,928.2	71.3789	14,928.2	71.1882	14,928.2	63.9393	14,928.2	63.0232	14,928.2	54.5218	14,928.2	40.709	14,928.2	48.5299	14,928.2	48.9096	14,928.2	48.7872	14,928.2	54.7172	14,928.2	45.5411	14,928.2	45.5693	14,928.2	41.6246	14,928.2	30.732	14,928.2	35.6689	14,928.2	38.247	14,928.2	35.2409	14,928.2	31.1956	14,928.2	36.1672	14,928.2	30.7579	14,928.2	40.4316	14,928.2	33.6469	14,928.2	36.2478	14,928.2	32.4649	14,928.2	38.5061	14,928.2	20.2707	14,928.2	24.2965	14,928.2	31.8997	14,928.2	31.7688
15,455.6	84.5815	15,455.6	83.7821	15,455.6	83.6759	15,455.6	81.3875	15,455.6	81.2014	15,455.6	76.9477	15,455.6	76.6147	15,455.6	70.3009	15,455.6	70.3197	15,455.6	62.896	15,455.6	60.8092	15,455.6	54.5862	15,455.6	55.1167	15,455.6	51.9063	15,455.6	54.1169	15,455.6	50.4065	15,455.6	54.7712	15,455.6	45.959	15,455.6	46.8439	15,455.6	41.9807	15,455.6	34.3411	15,455.6	40.8725	15,455.6	38.1704	15,455.6	35.6111	15,455.6	29.1648	15,455.6	34.9421	15,455.6	27.0854	15,455.6	38.8562	15,455.6	35.2908	15,455.6	36.1824	15,455.6	32.9608	15,455.6	39.2424	15,455.6	14.8812	15,455.6	23.7501	15,455.6	32.5043	15,455.6	31.0706
16,000.5	84.5679	16,000.5	83.7431	16,000.5	83.5034	16,000.5	81.2886	16,000.5	80.9061	16,000.5	76.7744	16,000.5	76.1564	16,000.5	70.0102	16,000.5	69.6375	16,000.5	62.3731	16,000.5	56.964	16,000.5	54.6318	16,000.5	49.8074	16,000.5	49.8887	16,000.5	52.4169	16,000.5	49.1	16,000.5	56.1904	16,000.5	43.3458	16,000.5	46.3661	16,000.5	39.7211	16,000.5	33.3944	16,000.5	31.87	16,000.5	40.5935	16,000.5	32.8915	16,000.5	34.1518	16,000.5	33.79	16,000.5	37.7402	16,000.5	36.9703	16,000.5	34.155	16,000.5	37.3881	16,000.5	35.5545	16,000.5	39.1921	16,000.5	30.9585	16,000.5	27.8663	16,000.5	33.6236	16,000.5	29.2176
16,564.5	84.7211	16,564.5	83.9008	16,564.5	83.5048	16,564.5	81.2998	16,564.5	80.6222	16,564.5	76.6826	16,564.5	75.6702	16,564.5	69.8922	16,564.5	68.7687	16,564.5	61.255	16,564.5	55.6139	16,564.5	49.7172	16,564.5	46.4508	16,564.5	45.336	16,564.5	50.3185	16,564.5	44.2263	16,564.5	53.6502	16,564.5	38.6878	16,564.5	44.118	16,564.5	37.3184	16,564.5	37.6194	16,564.5	33.3005	16,564.5	42.172	16,564.5	27.1132	16,564.5	27.3134	16,564.5	22.7076	16,564.5	35.7977	16,564.5	33.1813	16,564.5	33.9898	16,564.5	29.2412	16,564.5	32.0806	16,564.5	34.7396	16,564.5	31.9758	16,564.5	27.4239	16,564.5	33.2717	16,564.5	18.3407
17,148.9	84.7405	17,148.9	83.8574	17,148.9	83.3776	17,148.9	81.1471	17,148.9	80.1642	17,148.9	76.0182	17,148.9	74.4738	17,148.9	68.7438	17,148.9	67.1382	17,148.9	58.8515	17,148.9	51.1563	17,148.9	46.8764	17,148.9	51.4944	17,148.9	52.2221	17,148.9	51.6419	17,148.9	46.4123	17,148.9	51.1069	17,148.9	40.2436	17,148.9	40.9366	17,148.9	41.2116	17,148.9	26.8113	17,148.9	28.9197	17,148.9	36.7799	17,148.9	29.3744	17,148.9	26.2374	17,148.9	25.7375	17,148.9	27.8858	17,148.9	31.9802	17,148.9	29.8844	17,148.9	32.1393	17,148.9	30.3464	17,148.9	32.4137	17,148.9	27.0244	17,148.9	29.6919	17,148.9	30.8379	17,148.9	19.1916
17,752.4	84.1928	17,752.4	83.393	17,752.4	82.6992	17,752.4	80.443	17,752.4	79.1365	17,752.4	74.6635	17,752.4	72.5621	17,752.4	65.9003	17,752.4	63.5586	17,752.4	56.5607	17,752.4	56.19	17,752.4	57.4118	17,752.4	58.484	17,752.4	56.8103	17,752.4	58.1153	17,752.4	51.8389	17,752.4	53.2952	17,752.4	45.6986	17,752.4	45.3262	17,752.4	43.8366	17,752.4	36.7971	17,752.4	29.6702	17,752.4	38.332	17,752.4	31.7317	17,752.4	33.3612	17,752.4	28.5488	17,752.4	31.8726	17,752.4	35.9198	17,752.4	32.5948	17,752.4	38.2387	17,752.4	22.3071	17,752.4	29.1725	17,752.4	23.1879	17,752.4	34.7707	17,752.4	31.7593	17,752.4	20.5852
18,379.4	83.7256	18,379.4	82.7363	18,379.4	82.0115	18,379.4	79.432	18,379.4	77.9725	18,379.4	72.8773	18,379.4	70.2366	18,379.4	61.6684	18,379.4	58.1148	18,379.4	57.9348	18,379.4	59.1874	18,379.4	60.966	18,379.4	61.3477	18,379.4	59.2135	18,379.4	58.928	18,379.4	54.0305	18,379.4	55.5114	18,379.4	47.9742	18,379.4	44.8246	18,379.4	45.7278	18,379.4	35.705	18,379.4	31.4874	18,379.4	38.7254	18,379.4	32.7411	18,379.4	26.9142	18,379.4	30.427	18,379.4	35.4762	18,379.4	35.6436	18,379.4	32.7431	18,379.4	40.0856	18,379.4	32.004	18,379.4	27.9871	18,379.4	20.6932	18,379.4	38.3134	18,379.4	20.7404	18,379.4	24.5266
19,026.9	83.3812	19,026.9	82.3231	19,026.9	81.5259	19,026.9	78.4545	19,026.9	76.7062	19,026.9	70.6469	19,026.9	67.3305	19,026.9	56.0774	19,026.9	56.0705	19,026.9	59.9671	19,026.9	61.1688	19,026.9	61.7359	19,026.9	61.5783	19,026.9	59.8338	19,026.9	60.3561	19,026.9	53.6509	19,026.9	52.8942	19,026.9	48.0667	19,026.9	46.431	19,026.9	44.3345	19,026.9	30.2657	19,026.9	34.7277	19,026.9	35.5503	19,026.9	34.3408	19,026.9	35.8296	19,026.9	29.1702	19,026.9	33.5262	19,026.9	32.3175	19,026.9	34.6436	19,026.9	38.5604	19,026.9	24.6778	19,026.9	29.5139	19,026.9	25.181	19,026.9	36.7848	19,026.9	25.8674	19,026.9	19.9102
19,697.8	83.0289	19,697.8	81.9189	19,697.8	81.008	19,697.8	77.7481	19,697.8	75.8032	19,697.8	68.5961	19,697.8	64.3679	19,697.8	53.4615	19,697.8	56.5001	19,697.8	60.248	19,697.8	61.7948	19,697.8	61.3271	19,697.8	60.7714	19,697.8	58.3644	19,697.8	58.2445	19,697.8	51.9348	19,697.8	53.3537	19,697.8	46.3062	19,697.8	43.3439	19,697.8	42.2939	19,697.8	35.8153	19,697.8	31.1315	19,697.8	28.7656	19,697.8	30.6743	19,697.8	24.6459	19,697.8	28.0296	19,697.8	29.0249	19,697.8	26.6004	19,697.8	28.534	19,697.8	36.0828	19,697.8	19.8427	19,697.8	26.3967	19,697.8	19.6504	19,697.8	36.2028	19,697.8	28.1785	19,697.8	25.6768
19,999.5	82.7309	19,999.5	81.7789	19,999.5	80.7487	19,999.5	77.4618	19,999.5	75.5212	19,999.5	67.9297	19,999.5	60.2849	19,999.5	53.7689	19,999.5	60.7645	19,999.5	59.3877	19,999.5	63.3168	19,999.5	61.1567	19,999.5	59.9595	19,999.5	57.192	19,999.5	55.6222	19,999.5	51.3818	19,999.5	51.1145	19,999.5	41.461	19,999.5	43.8106	19,999.5	41.1414	19,999.5	42.0887	19,999.5	43.0202	19,999.5	43.3036	19,999.5	38.95	19,999.5	29.5346	19,999.5	47.237	19,999.5	47.9692	19,999.5	29.6906	19,999.5	42.8263	19,999.5	51.4162	19,999.5	36.9441	19,999.5	40.5509	19,999.5	37.6978	19,999.5	40.2625	19,999.5	39.766	19,999.5	34.8698
