Freq[Hz]     dBSPL  Phase[Deg]
5.00000     18.492  -169.083
5.07273     18.527  -168.730
5.14651     18.567  -168.466
5.22137     18.621  -168.450
5.29732     18.674  -168.433
5.37437     18.728  -168.417
5.45254     18.781  -168.401
5.53185     18.815  -168.552
5.61231     18.828  -168.880
5.69394     18.841  -169.207
5.77676     18.854  -169.535
5.86079     18.866  -169.863
5.94604     18.796  -170.163
6.03252     18.725  -170.463
6.12027     18.655  -170.762
6.20929     18.585  -171.062
6.29961     18.467  -170.865
6.39124     18.340  -170.557
6.48420     18.212  -170.250
6.57851     18.084  -169.942
6.67420     18.012  -168.914
6.77128     17.949  -167.769
6.86977     17.886  -166.623
6.96969     17.844  -165.482
7.07107     17.958  -164.366
7.17392     18.072  -163.250
7.27827     18.186  -162.135
7.38413     18.348  -161.688
7.49154     18.547  -161.758
7.60050     18.746  -161.827
7.71105     18.924  -162.123
7.82321     19.009  -163.410
7.93701     19.095  -164.696
8.05245     19.180  -165.983
8.16958     19.022  -167.503
8.28841     18.855  -169.033
8.40896     18.688  -170.562
8.53128     18.284  -170.694
8.65537     17.849  -170.646
8.78126     17.415  -170.598
8.90899     17.086  -167.062
9.03857     16.764  -163.297
9.17004     16.533  -159.454
9.30342     17.023  -154.981
9.43874     17.513  -150.509
9.57603     18.163  -147.952
9.71532     19.058  -148.324
9.85663     19.953  -148.695
10.0000     20.620  -152.342
10.1455     21.223  -156.902
10.2930     21.704  -162.124
10.4427     21.843  -169.196
10.5946     21.983  -176.268
10.7487     21.711   175.222
10.9051     21.358   166.425
11.0637     20.692   156.863
11.2246     19.695   146.492
11.3879     18.471   135.612
11.5535     16.418   122.878
11.7216     14.319   109.946
11.8921      9.478    85.408
12.0650      4.636    60.870
12.2405      5.615    -3.938
12.4186      7.344   -73.940
12.5992     10.108  -103.652
12.7825     13.102  -124.429
12.9684     14.585  -143.225
13.1570     15.717  -161.559
13.3484     16.272   178.336
13.5426     16.734   157.944
13.7395     17.162   135.461
13.9394     17.622   112.971
14.1421     18.340    91.035
14.3478     19.094    70.182
14.5565     19.926    51.657
14.7683     20.670    35.392
14.9831     21.346    20.872
15.2010     21.828     9.541
15.4221     22.256    -0.625
15.6464     22.587    -8.064
15.8740     22.956   -14.164
16.1049     23.356   -19.195
16.3392     23.908   -23.532
16.5768     24.488   -28.142
16.8179     25.100   -33.187
17.0626     25.600   -39.222
17.3107     25.979   -45.675
17.5625     26.196   -52.572
17.8180     26.081   -59.540
18.0771     25.729   -66.140
18.3401     25.115   -72.165
18.6068     24.057   -76.458
18.8775     22.584   -77.365
19.1521     20.918   -73.026
19.4306     19.332   -61.745
19.7133     19.586   -41.509
20.0000     21.472   -28.621
20.2909     23.756   -23.415
20.5860     25.808   -24.940
20.8855     27.333   -30.306
21.1893     28.190   -37.574
21.4975     28.486   -44.893
21.8102     28.246   -50.982
22.1274     27.533   -54.099
22.4492     26.614   -52.189
22.7758     26.065   -44.402
23.1071     26.612   -33.968
23.4432     28.097   -28.143
23.7841     29.545   -28.552
24.1301     30.506   -31.751
24.4811     30.963   -35.045
24.8372     31.080   -36.417
25.1984     31.184   -34.892
25.5649     31.635   -31.547
25.9368     32.496   -28.961
26.3141     33.503   -28.721
26.6968     34.361   -30.396
27.0851     34.958   -32.530
27.4791     35.369   -33.738
27.8788     35.810   -33.616
28.2843     36.427   -33.122
28.6957     37.177   -33.471
29.1131     37.895   -35.028
29.5365     38.452   -37.166
29.9661     38.841   -38.872
30.4020     39.173   -39.444
30.8442     39.630   -39.046
31.2929     40.241   -38.824
31.7480     40.910   -39.410
32.2098     41.519   -40.636
32.6783     42.021   -41.734
33.1536     42.514   -42.211
33.6359     43.092   -42.331
34.1251     43.775   -42.835
34.6215     44.462   -44.116
35.1250     45.067   -45.788
35.6359     45.584   -47.183
36.1543     46.108   -48.050
36.6802     46.707   -48.746
37.2137     47.364   -49.817
37.7550     48.005   -51.306
38.3041     48.593   -52.873
38.8613     49.172   -54.244
39.4265     49.780   -55.531
40.0000     50.411   -56.992
40.5818     51.037   -58.646
41.1721     51.651   -60.352
41.7710     52.270   -62.099
42.3785     52.888   -63.988
42.9949     53.491   -65.974
43.6203     54.080   -67.938
44.2548     54.677   -69.863
44.8985     55.281   -71.868
45.5515     55.883   -73.967
46.2141     56.481   -76.091
46.8863     57.086   -78.231
47.5683     57.699   -80.484
48.2602     58.308   -82.876
48.9621     58.905   -85.324
49.6743     59.500   -87.774
50.3968     60.102   -90.259
51.1299     60.709   -92.841
51.8736     61.317   -95.539
52.6281     61.921   -98.339
53.3936     62.518  -101.214
54.1702     63.114  -104.140
54.9581     63.713  -107.157
55.7575     64.310  -110.319
56.5685     64.894  -113.575
57.3914     65.473  -116.879
58.2261     66.052  -120.292
59.0730     66.617  -123.824
59.9323     67.172  -127.368
60.8040     67.733  -130.956
61.6884     68.296  -134.694
62.5857     68.856  -138.573
63.4960     69.409  -142.629
64.4196     69.945  -146.892
65.3566     70.450  -151.303
66.3073     70.925  -155.753
67.2717     71.382  -160.187
68.2502     71.830  -164.657
69.2429     72.261  -169.182
70.2501     72.686  -173.710
71.2719     73.112  -178.358
72.3086     73.518   176.811
73.3603     73.897   171.869
74.4274     74.242   166.872
75.5099     74.563   161.900
76.6083     74.866   156.871
77.7226     75.136   151.854
78.8531     75.392   146.922
80.0000     75.638   141.935
81.1636     75.862   136.941
82.3442     76.067   131.898
83.5419     76.239   126.844
84.7570     76.383   121.889
85.9899     76.512   117.035
87.2406     76.634   112.234
88.5096     76.742   107.414
89.7970     76.829   102.571
91.1031     76.885    97.718
92.4282     76.896    92.949
93.7726     76.861    88.485
95.1366     76.824    84.513
96.5204     76.841    80.826
97.9243     76.897    76.978
99.3486     76.949    73.034
100.794     76.995    69.022
102.260     77.031    65.023
103.747     77.057    61.017
105.256     77.074    57.047
106.787     77.085    53.074
108.340     77.079    49.122
109.916     77.055    45.229
111.515     77.014    41.561
113.137     77.001    38.052
114.783     76.995    34.456
116.452     76.985    30.917
118.146     76.981    27.405
119.865     76.981    23.892
121.608     76.982    20.378
123.377     76.988    16.853
125.171     76.994    13.245
126.992     76.990     9.599
128.839     76.977     5.971
130.713     76.957     2.240
132.615     76.888    -1.430
134.543     76.835    -4.696
136.500     76.834    -8.143
138.486     76.822   -11.458
140.500     76.776   -15.057
142.544     76.709   -18.712
144.617     76.664   -21.867
146.721     76.648   -24.936
148.855     76.659   -28.513
151.020     76.625   -32.282
153.217     76.574   -35.869
155.445     76.503   -39.480
157.706     76.381   -42.976
160.000     76.249   -45.866
162.327     76.244   -48.814
164.688     76.217   -51.920
167.084     76.241   -54.957
169.514     76.237   -59.774
171.980     75.921   -63.525
174.481     75.759   -65.518
177.019     75.724   -67.650
179.594     75.732   -70.331
182.206     75.715   -73.175
184.856     75.767   -76.054
187.545     75.813   -78.985
190.273     75.876   -82.278
193.041     75.916   -85.944
195.849     75.888   -89.452
198.697     75.867   -93.036
201.587     75.828   -96.637
204.520     75.764   -99.923
207.494     75.769  -103.020
210.512     75.806  -106.915
213.574     75.652  -111.517
216.681     75.430  -114.005
219.833     75.359  -116.296
223.030     75.387  -119.311
226.274     75.351  -122.780
229.565     75.210  -125.723
232.905     75.158  -128.017
236.292     75.203  -130.409
239.729     75.265  -133.512
243.216     75.247  -136.836
246.754     75.226  -139.474
250.343     75.291  -142.424
253.984     75.317  -145.858
257.678     75.305  -148.999
261.426     75.331  -152.304
265.229     75.292  -156.243
269.087     75.091  -159.015
273.001     75.080  -160.912
276.972     75.116  -163.794
281.000     75.132  -166.321
285.088     75.183  -169.321
289.234     75.227  -172.572
293.441     75.200  -176.422
297.709     74.940  -178.670
302.040     75.007   178.784
306.433     74.837   177.375
310.890     75.086   175.291
315.412     75.208   171.635
320.000     75.162   167.129
324.655     74.753   164.980
329.377     74.750   164.370
334.168     74.950   162.425
339.028     74.968   159.147
343.959     75.013   156.775
348.962     75.059   153.924
354.038     75.007   150.978
359.188     74.982   147.693
364.412     74.796   145.980
369.713     74.852   143.906
375.090     74.901   141.667
380.546     74.954   139.326
386.081     75.007   135.985
391.697     74.962   133.168
397.394     74.913   130.349
403.175     74.870   127.454
409.039     74.746   124.670
414.989     74.669   122.406
421.025     74.626   120.269
427.149     74.645   117.697
433.362     74.530   115.104
439.665     74.507   112.324
446.060     74.356   109.407
452.548     74.235   107.321
459.131     74.090   104.569
465.809     73.898   102.328
472.584     73.800   100.750
479.458     73.694    98.778
486.432     73.595    96.879
493.507     73.500    94.971
500.686     73.384    93.364
507.968     73.349    91.802
515.357     73.280    90.148
522.853     73.244    88.663
530.458     73.225    87.259
538.174     73.237    85.790
546.002     73.246    84.328
553.943     73.273    82.894
562.001     73.309    81.440
570.175     73.351    79.970
578.469     73.390    78.458
586.883     73.424    76.942
595.419     73.450    75.439
604.080     73.468    73.934
612.866     73.477    72.450
621.780     73.478    71.012
630.824     73.472    69.647
640.000     73.461    68.404
649.309     73.450    67.298
658.753     73.442    66.320
668.335     73.444    65.464
678.056     73.462    64.760
687.919     73.503    64.175
697.925     73.574    63.675
708.077     73.678    63.224
718.376     73.820    62.752
728.825     73.999    62.195
739.426     74.214    61.489
750.181     74.459    60.572
761.093     74.726    59.398
772.163     75.001    57.960
783.394     75.280    56.226
794.789     75.556    54.162
806.349     75.812    51.848
818.078     76.044    49.278
829.977     76.245    46.487
842.050     76.409    43.516
854.298     76.532    40.413
866.724     76.609    37.276
879.330     76.642    34.066
892.120     76.627    30.888
905.097     76.565    27.804
918.262     76.461    24.874
931.618     76.319    22.159
945.169     76.148    19.711
958.917     75.957    17.574
972.864     75.761    15.768
987.015     75.571    14.289
1001.37     75.398    13.083
1015.94     75.260    12.094
1030.71     75.165    11.228
1045.71     75.109    10.348
1060.92     75.087     9.348
1076.35     75.085     8.178
1092.00     75.087     6.798
1107.89     75.075     5.207
1124.00     75.036     3.484
1140.35     74.959     1.724
1156.94     74.839     0.033
1173.77     74.680    -1.435
1190.84     74.497    -2.553
1208.16     74.310    -3.228
1225.73     74.147    -3.428
1243.56     74.041    -3.205
1261.65     74.024    -2.728
1280.00     74.108    -2.253
1298.62     74.285    -2.051
1317.51     74.534    -2.337
1336.67     74.821    -3.237
1356.11     75.109    -4.753
1375.84     75.370    -6.827
1395.85     75.585    -9.339
1416.15     75.738   -12.125
1436.75     75.828   -15.042
1457.65     75.858   -17.991
1478.85     75.835   -20.873
1500.36     75.769   -23.591
1522.19     75.671   -26.124
1544.33     75.553   -28.449
1566.79     75.423   -30.563
1589.58     75.293   -32.474
1612.70     75.171   -34.193
1636.16     75.065   -35.777
1659.95     74.983   -37.293
1684.10     74.928   -38.838
1708.60     74.894   -40.528
1733.45     74.867   -42.452
1758.66     74.823   -44.697
1784.24     74.731   -47.221
1810.19     74.563   -49.874
1836.52     74.295   -52.455
1863.24     73.921   -54.613
1890.34     73.460   -55.953
1917.83     72.969   -56.117
1945.73     72.539   -54.938
1974.03     72.278   -52.650
2002.74     72.263   -49.974
2031.87     72.482   -47.794
2061.43     72.847   -46.698
2091.41     73.256   -46.802
2121.83     73.631   -47.884
2152.69     73.927   -49.553
2184.01     74.142   -51.453
2215.77     74.294   -53.288
2248.00     74.419   -54.873
2280.70     74.563   -56.215
2313.87     74.762   -57.525
2347.53     75.021   -59.140
2381.68     75.308   -61.356
2416.32     75.562   -64.280
2451.46     75.723   -67.726
2487.12     75.758   -71.267
2523.30     75.682   -74.390
2560.00     75.561   -76.734
2597.24     75.489   -78.341
2635.01     75.526   -79.735
2673.34     75.648   -81.530
2712.23     75.772   -83.961
2751.68     75.825   -86.752
2791.70     75.802   -89.373
2832.31     75.763   -91.516
2873.50     75.778   -93.362
2915.30     75.857   -95.383
2957.70     75.945   -97.856
3000.72     75.989  -100.587
3044.37     75.991  -103.232
3088.65     75.998  -105.741
3133.58     76.026  -108.409
3179.16     76.023  -111.484
3225.40     75.922  -114.700
3272.31     75.722  -117.407
3319.91     75.514  -119.226
3368.20     75.402  -120.480
3417.19     75.394  -121.875
3466.89     75.416  -123.731
3517.32     75.413  -125.869
3568.48     75.384  -128.101
3620.39     75.314  -130.414
3673.05     75.171  -132.544
3726.47     74.989  -133.912
3780.67     74.902  -134.453
3835.67     74.982  -135.096
3891.46     75.122  -136.679
3948.06     75.179  -138.862
4005.49     75.150  -140.807
4063.75     75.127  -142.329
4122.86     75.142  -143.763
4182.82     75.176  -145.220
4243.66     75.239  -146.722
4305.39     75.325  -148.551
4368.01     75.365  -150.725
4431.55     75.344  -152.775
4496.01     75.324  -154.641
4561.40     75.284  -156.704
4627.75     75.142  -158.636
4695.06     74.951  -159.663
4763.35     74.839  -159.909
4832.64     74.819  -159.947
4902.93     74.887  -159.840
4974.24     75.077  -160.009
5046.60     75.304  -161.011
5120.00     75.476  -162.415
5194.47     75.634  -163.810
5270.03     75.802  -165.444
5346.68     75.944  -167.383
5424.45     76.042  -169.551
5503.35     76.068  -171.752
5583.40     76.056  -173.666
5664.61     76.036  -175.637
5747.01     75.912  -177.553
5830.60     75.740  -178.447
5915.41     75.685  -178.775
6001.45     75.689  -179.365
6088.74     75.707  -179.995
6177.30     75.742   179.167
6267.15     75.738   178.277
6358.31     75.736   177.676
6450.80     75.779   177.098
6544.62     75.841   176.184
6639.82     75.851   174.993
6736.40     75.810   173.927
6834.38     75.723   172.917
6933.79     75.575   172.398
7034.64     75.444   172.347
7136.96     75.292   172.723
7240.77     75.210   174.073
7346.09     75.321   175.616
7452.94     75.577   176.441
7561.35     75.871   176.138
7671.33     76.084   174.923
7782.91     76.169   173.354
7896.12     76.132   171.815
8010.97     75.956   170.287
8127.49     75.479   169.847
8245.71     75.123   173.220
8365.65     75.389   175.641
8487.33     75.536   174.880
8610.78     75.364   173.527
8736.03     74.872   173.243
8863.09     74.376   175.350
8992.01     74.122   178.731
9122.80     74.228  -178.540
9255.50     74.324  -178.101
9390.12     74.227  -177.827
9526.70     74.116  -176.557
9665.27     74.153  -175.217
9805.86     74.288  -173.724
9948.49     74.571  -173.440
10093.2     74.696  -173.844
10240.0     74.732  -173.225
10388.9     74.977  -172.223
10540.1     75.152  -172.331
10693.4     75.240  -171.850
10848.9     75.388  -170.641
11006.7     75.625  -169.856
11166.8     75.947  -169.589
11329.2     76.043  -170.534
11494.0     76.040  -169.106
11661.2     76.420  -167.805
11830.8     76.752  -168.171
12002.9     77.005  -169.116
12177.5     77.055  -170.088
12354.6     77.040  -169.684
12534.3     77.222  -168.457
12716.6     77.581  -168.249
12901.6     77.886  -169.154
13089.2     78.097  -170.536
13279.6     78.213  -171.862
13472.8     78.316  -172.909
13668.8     78.466  -174.497
13867.6     78.483  -176.684
14069.3     78.358  -178.795
14273.9     78.090   179.904
14481.5     77.874  -179.935
14692.2     77.888  -179.743
14905.9     77.998   179.153
15122.7     78.043   176.539
15342.7     77.810   172.788
15565.8     77.259   169.810
15792.2     76.552   168.422
16021.9     75.895   168.834
16255.0     75.434   169.763
16491.4     75.109   170.177
16731.3     74.768   169.134
16974.7     74.184   167.804
17221.6     73.496   167.192
17472.1     72.766   166.695
17726.2     71.889   166.412
17984.0     70.886   166.668
18245.6     69.698   168.096
18511.0     68.535   171.565
18780.2     67.488   175.707
19053.4     66.347  -179.836
19330.5     64.867  -172.149
19611.7     64.073  -150.461
19897.0     69.247  -147.350
20186.4     66.895   179.654
20480.0     63.248  -176.566
20777.9     60.820  -166.211
21080.1     59.406  -154.639
21386.7     57.975  -145.275
21697.8     56.422  -133.163
22013.4     54.866  -117.973
22333.6     54.091   -97.464
22658.4     54.266   -80.328
22988.0     53.978   -66.879
23322.4     53.279   -42.491
23661.6     55.601   -14.837
24005.8     58.834    -4.185
24355.0     61.262    -1.033
24709.2     63.127    -1.183
25068.6     64.399    -3.268
25433.2     65.170    -5.242
25803.2     65.726    -6.140
26178.5     66.305    -6.687
26559.3     66.907    -7.755
26945.6     68.131    -8.613
27337.5     66.042   -41.156
27735.2     63.818    -6.587
28138.6     65.212    -1.691
28547.9     65.769    -0.246
28963.1     65.928     0.600
29384.4     66.067     1.366
29811.8     65.510     0.596
30245.4     64.937     4.966
30685.3     64.605     8.203
31131.7     64.137     9.131
31584.5     62.593     7.335
32043.9     59.138    17.346
32510.0     57.934    52.626
32982.8     61.100    73.445
33462.6     63.244    77.880
33949.3     64.225    81.693
34443.1     69.302    79.040
34944.1     68.880    47.564
35452.4     66.714    33.471
35968.0     64.121    25.633
36491.2     61.146    22.751
37022.0     57.758    24.951
37560.5     54.288    34.217
38106.8     50.746    47.203
38661.1     46.127    74.457
39223.4     44.872   130.585
39793.9     51.986   169.787
