Freq[Hz]     dBSPL  Phase[Deg]
5.00000     12.401  -154.534
5.07273     12.437  -153.974
5.14651     12.477  -153.497
5.22137     12.531  -153.258
5.29732     12.585  -153.018
5.37437     12.639  -152.779
5.45254     12.693  -152.539
5.53185     12.728  -152.459
5.61231     12.741  -152.549
5.69394     12.754  -152.638
5.77676     12.768  -152.727
5.86079     12.780  -152.815
5.94604     12.710  -152.861
6.03252     12.641  -152.907
6.12027     12.571  -152.952
6.20929     12.502  -152.998
6.29961     12.385  -152.534
6.39124     12.258  -151.956
6.48420     12.131  -151.379
6.57851     12.004  -150.802
6.67420     11.933  -149.490
6.77128     11.871  -148.060
6.86977     11.809  -146.629
6.96969     11.767  -145.201
7.07107     11.882  -143.784
7.17392     11.997  -142.368
7.27827     12.112  -140.951
7.38413     12.275  -140.195
7.49154     12.474  -139.948
7.60050     12.674  -139.702
7.71105     12.853  -139.678
7.82321     12.940  -140.633
7.93701     13.026  -141.587
8.05245     13.113  -142.542
8.16958     12.956  -143.716
8.28841     12.791  -144.898
8.40896     12.625  -146.079
8.53128     12.222  -145.850
8.65537     11.789  -145.439
8.78126     11.356  -145.028
8.90899     11.028  -141.114
9.03857     10.707  -136.971
9.17004     10.477  -132.746
9.30342     10.969  -127.879
9.43874     11.461  -123.013
9.57603     12.113  -120.056
9.71532     13.009  -120.017
9.85663     13.906  -119.978
10.0000     14.574  -123.203
10.1455     15.179  -127.337
10.2930     15.661  -132.129
10.4427     15.803  -138.759
10.5946     15.944  -145.390
10.7487     15.675  -153.445
10.9051     15.323  -161.785
11.0637     14.659  -170.882
11.2246     13.664   179.219
11.3879     12.442   168.815
11.5535     10.392   156.570
11.7216      8.294   144.128
11.8921      3.455   120.095
12.0650     -1.383    96.061
12.2405     -0.402    31.771
12.4186      1.329   -37.710
12.5992      4.096   -66.889
12.7825      7.092   -87.130
12.9684      8.578  -105.376
13.1570      9.713  -123.158
13.3484     10.270  -142.697
13.5426     10.735  -162.521
13.7395     11.166   175.580
13.9394     11.630   153.675
14.1421     12.351   132.339
14.3478     13.108   112.091
14.5565     13.943    94.182
14.7683     14.690    78.542
14.9831     15.370    64.654
15.2010     15.856    53.968
15.4221     16.287    44.453
15.6464     16.622    37.678
15.8740     16.995    32.251
16.1049     17.398    27.901
16.3392     17.954    24.259
16.5768     18.539    20.352
16.8179     19.156    16.019
17.0626     19.660    10.711
17.3107     20.043     4.993
17.5625     20.264    -1.159
17.8180     20.154    -7.367
18.0771     19.807   -13.198
18.3401     19.198   -18.444
18.6068     18.145   -21.943
18.8775     16.677   -22.045
19.1521     15.016   -16.890
19.4306     13.436    -4.781
19.7133     13.695    16.297
20.0000     15.586    30.041
20.2909     17.876    36.114
20.5860     19.933    35.468
20.8855     21.464    30.994
21.1893     22.327    24.634
21.4975     22.630    18.236
21.8102     22.397    13.083
22.1274     21.690    10.915
22.4492     20.777    13.788
22.7758     20.235    22.553
23.1071     20.789    33.979
23.4432     22.281    40.812
23.7841     23.735    41.427
24.1301     24.704    39.268
24.4811     25.169    37.028
24.8372     25.294    36.728
25.1984     25.405    39.340
25.5649     25.864    43.790
25.9368     26.733    47.497
26.3141     27.748    48.874
26.6968     28.614    48.354
27.0851     29.219    47.392
27.4791     29.640    47.375
27.8788     30.089    48.707
28.2843     30.714    50.430
28.6957     31.473    51.328
29.1131     32.201    51.036
29.5365     32.768    50.184
29.9661     33.167    49.782
30.4020     33.509    50.534
30.8442     33.975    52.278
31.2929     34.595    53.867
31.7480     35.274    54.666
32.2098     35.894    54.848
32.6783     36.406    55.180
33.1536     36.910    56.155
33.6359     37.499    57.508
34.1251     38.192    58.500
34.6215     38.890    58.740
35.1250     39.507    58.609
35.6359     40.036    58.783
36.1543     40.570    59.505
36.6802     41.180    60.424
37.2137     41.849    60.993
37.7550     42.501    61.168
38.3041     43.102    61.293
38.8613     43.693    61.637
39.4265     44.312    62.093
40.0000     44.956    62.402
40.5818     45.593    62.544
41.1721     46.221    62.662
41.7710     46.851    62.765
42.3785     47.483    62.758
42.9949     48.098    62.681
43.6203     48.700    62.654
44.2548     49.309    62.696
44.8985     49.927    62.690
45.5515     50.542    62.619
46.2141     51.153    62.553
46.8863     51.770    62.503
47.5683     52.397    62.372
48.2602     53.019    62.135
48.9621     53.630    61.873
49.6743     54.237    61.644
50.3968     54.853    61.413
51.1299     55.474    61.118
51.8736     56.096    60.743
52.6281     56.712    60.300
53.3936     57.323    59.818
54.1702     57.932    59.320
54.9581     58.545    58.770
55.7575     59.156    58.111
56.5685     59.753    57.395
57.3914     60.346    56.670
58.2261     60.938    55.874
59.0730     61.517    54.999
59.9323     62.085    54.151
60.8040     62.660    53.299
61.6884     63.237    52.340
62.5857     63.808    51.279
63.4960     64.376    50.085
64.4196     64.926    48.725
65.3566     65.443    47.261
66.3073     65.931    45.801
67.2717     66.402    44.402
68.2502     66.863    43.013
69.2429     67.307    41.612
70.2501     67.744    40.256
71.2719     68.183    38.827
72.3086     68.602    37.263
73.3603     68.992    35.635
74.4274     69.350    34.001
75.5099     69.684    32.441
76.6083     70.000    30.875
77.7226     70.282    29.372
78.8531     70.550    28.005
80.0000     70.807    26.637
81.1636     71.043    25.313
82.3442     71.261    23.994
83.5419     71.444    22.719
84.7570     71.601    21.598
85.9899     71.740    20.633
87.2406     71.874    19.779
88.5096     71.993    18.964
89.7970     72.092    18.184
91.1031     72.159    17.452
92.4282     72.180    16.865
93.7726     72.155    16.643
95.1366     72.130    16.975
96.5204     72.157    17.655
97.9243     72.223    18.237
99.3486     72.286    18.788
100.794     72.342    19.335
102.260     72.387    19.962
103.747     72.424    20.649
105.256     72.450    21.439
106.787     72.471    22.295
108.340     72.475    23.242
109.916     72.459    24.319
111.515     72.427    25.694
113.137     72.425    27.299
114.783     72.427    28.891
116.452     72.426    30.616
118.146     72.430    32.443
119.865     72.439    34.347
121.608     72.449    36.327
123.377     72.464    38.375
125.171     72.477    40.421
126.992     72.482    42.510
128.839     72.476    44.701
130.713     72.465    46.872
132.615     72.403    49.188
134.543     72.359    52.118
136.500     72.365    55.012
138.486     72.359    57.460
140.500     72.322    60.200
142.544     72.262    63.459
144.617     72.224    66.640
146.721     72.215    69.906
148.855     72.232    73.240
151.020     72.206    76.380
153.217     72.161    79.701
155.445     72.096    82.997
157.706     71.981    86.406
160.000     71.856    90.996
162.327     71.858    95.526
164.688     71.836    99.322
167.084     71.866   103.761
169.514     71.868   106.994
171.980     71.558   111.291
174.481     71.401   116.769
177.019     71.372   122.107
179.594     71.386   127.468
182.206     71.374   133.240
184.856     71.431   138.974
187.545     71.482   144.082
190.273     71.550   149.398
193.041     71.595   154.340
195.849     71.571   159.438
198.697     71.555   165.032
201.587     71.520   170.605
204.520     71.461   176.492
207.494     71.469  -177.435
210.512     71.510  -171.589
213.574     71.360  -166.455
216.681     71.141  -159.780
219.833     71.074  -152.339
223.030     71.105  -145.054
226.274     71.071  -138.226
229.565     70.932  -130.875
232.905     70.882  -122.879
236.292     70.929  -114.985
239.729     70.992  -107.236
243.216     70.976   -99.712
246.754     70.955   -91.505
250.343     71.021   -83.047
253.984     71.046   -75.077
257.678     71.034   -66.820
261.426     71.059   -58.164
265.229     71.019   -50.148
269.087     70.815   -40.972
273.001     70.802   -30.929
276.972     70.835   -21.878
281.000     70.846   -11.911
285.088     70.893    -1.859
289.234     70.931     7.932
293.441     70.898    17.115
297.709     70.631    27.888
302.040     70.689    38.353
306.433     70.509    50.509
310.890     70.748    62.542
315.412     70.857    72.989
320.000     70.797    82.571
324.655     70.373    94.496
329.377     70.352   107.943
334.168     70.532   121.163
339.028     70.527   133.031
343.959     70.547   145.784
348.962     70.564   158.039
354.038     70.482   170.177
359.188     70.421  -177.486
364.412     70.194  -163.045
369.713     70.205  -148.990
375.090     70.203  -135.125
380.546     70.199  -120.833
386.081     70.188  -107.569
391.697     70.069   -93.254
397.394     69.935   -78.416
403.175     69.800   -64.231
409.039     69.570   -49.407
414.989     69.372   -33.533
421.025     69.193   -17.548
427.149     69.062    -2.004
433.362     68.780    13.519
439.665     68.561    29.967
446.060     68.193    46.307
452.548     67.832    63.529
459.131     67.417    80.711
465.809     66.923    99.065
472.584     66.497   118.224
479.458     66.041   137.169
486.432     65.561   156.976
493.507     65.059   177.621
500.686     64.517  -160.528
507.968     64.059  -138.274
515.357     63.578  -115.746
522.853     63.150   -92.079
530.458     62.773   -67.388
538.174     62.484   -42.509
546.002     62.258   -17.480
553.943     62.115     8.231
562.001     62.046    34.443
570.175     62.043    61.038
578.469     62.086    87.884
586.883     62.157   114.342
595.419     62.236   140.407
604.080     62.310   166.659
612.866     62.363  -166.878
621.780     62.382  -140.166
630.824     62.355  -113.153
640.000     62.272   -86.312
649.309     62.130   -59.569
658.753     61.916   -32.310
668.335     61.617    -3.911
678.056     61.237    24.663
687.919     60.761    54.086
697.925     60.187    84.527
708.077     59.525   115.648
718.376     58.774   148.277
728.825     57.959  -177.222
739.426     57.139  -140.471
750.181     56.422  -101.188
761.093     55.957   -59.530
772.163     55.880   -17.049
783.394     56.215    25.634
794.789     56.880    68.050
806.349     57.700   108.393
818.078     58.553   147.429
829.977     59.357  -174.464
842.050     60.068  -136.923
854.298     60.669   -99.596
866.724     61.147   -62.763
879.330     61.518   -25.099
892.120     61.781    13.034
905.097     61.945    51.800
918.262     62.022    91.345
931.618     62.030   131.800
945.169     61.991   173.264
958.917     61.931  -144.200
972.864     61.883  -100.600
987.015     61.875   -56.020
1001.37     61.929   -10.051
1015.94     62.061    36.489
1030.71     62.259    82.777
1045.71     62.507   129.772
1060.92     62.770   177.356
1076.35     63.009  -135.616
1092.00     63.195   -88.501
1107.89     63.305   -40.615
1124.00     63.317     7.669
1140.35     63.223    56.565
1156.94     63.019   106.876
1173.77     62.720   158.328
1190.84     62.357  -148.802
1208.16     61.985   -94.305
1225.73     61.680   -37.540
1243.56     61.531    21.235
1261.65     61.602    80.795
1280.00     61.882   140.354
1298.62     62.298  -160.688
1317.51     62.754  -101.992
1336.67     63.158   -43.497
1356.11     63.436    14.513
1375.84     63.542    72.943
1395.85     63.443   132.196
1416.15     63.122  -167.815
1436.75     62.577  -106.561
1457.65     61.828   -42.832
1478.85     60.947    24.153
1500.36     60.114    94.450
1522.19     59.589   168.444
1544.33     59.591  -115.532
1566.79     60.081   -39.844
1589.58     60.796    34.211
1612.70     61.474   106.220
1636.16     61.973   177.568
1659.95     62.238  -110.881
1684.10     62.267   -38.386
1708.60     62.097    35.658
1733.45     61.799   111.103
1758.66     61.456  -170.808
1784.24     61.150   -90.899
1810.19     60.912   -10.309
1836.52     60.691    71.555
1863.24     60.380   153.967
1890.34     59.866  -122.665
1917.83     59.072   -37.343
1945.73     58.030    51.494
1974.03     56.989   146.128
2002.74     56.498  -114.178
2031.87     56.918   -13.398
2061.43     57.896    84.325
2091.41     58.852   179.247
2121.83     59.467   -86.817
2152.69     59.667     6.999
2184.01     59.535   103.454
2215.77     59.269  -156.385
2248.00     59.150   -53.179
2280.70     59.353    51.500
2313.87     59.797   156.387
2347.53     60.234   -99.126
2381.68     60.464     5.063
2416.32     60.422   110.683
2451.46     60.158  -141.216
2487.12     59.800   -30.091
2523.30     59.481    83.881
2560.00     59.250  -159.931
2597.24     59.068   -42.472
2635.01     58.903    77.040
2673.34     58.811  -161.125
2712.23     58.888   -37.358
2751.68     59.129    87.973
2791.70     59.393  -146.200
2832.31     59.550   -19.331
2873.50     59.607   109.585
2915.30     59.712  -119.059
2957.70     59.990    14.516
3000.72     60.376   148.582
3044.37     60.687   -77.024
3088.65     60.819    59.147
3133.58     60.828  -162.561
3179.16     60.844   -21.605
3225.40     60.885   121.186
3272.31     60.810   -95.105
3319.91     60.489    50.996
3368.20     59.997  -159.083
3417.19     59.599    -5.724
3466.89     59.419   149.877
3517.32     59.214   -53.036
3568.48     58.704   105.632
3620.39     57.976   -91.147
3673.05     57.442    77.448
3726.47     57.225  -111.902
3780.67     56.929    59.936
3835.67     56.424  -124.228
3891.46     56.242    57.469
3948.06     56.702  -119.671
4005.49     57.244    61.469
4063.75     57.392  -115.739
4122.86     57.233    70.323
4182.82     57.068   -99.967
4243.66     57.007    93.303
4305.39     56.938   -71.993
4368.01     56.644   124.876
4431.55     55.983   -34.143
4496.01     55.269   173.510
4561.40     55.116    26.172
4627.75     55.382  -120.590
4695.06     55.546    94.068
4763.35     55.601   -48.631
4832.64     55.610   171.319
4902.93     55.592    34.952
4974.24     55.699   -98.548
5046.60     55.646   128.791
5120.00     55.189     0.365
5194.47     54.864  -122.962
5270.03     54.473   113.934
5346.68     53.215    -3.955
5424.45     52.321  -110.069
5503.35     52.362   143.127
5583.40     51.350    37.079
5664.61     50.237   -55.344
5747.01     50.440  -144.277
5830.60     50.762   126.395
5915.41     51.072    39.756
6001.45     51.038   -43.146
6088.74     51.405  -121.505
6177.30     51.474   161.568
6267.15     51.537    94.534
6358.31     52.703    26.886
6450.80     53.004   -41.316
6544.62     53.253  -103.515
6639.82     52.983  -163.318
6736.40     52.658   147.699
6834.38     52.838    98.491
6933.79     52.275    56.685
7034.64     52.610    18.088
7136.96     51.765   -20.098
7240.77     50.857   -48.080
7346.09     48.937   -69.164
7452.94     47.994   -72.528
7561.35     48.355   -71.796
7671.33     50.417   -74.113
7782.91     50.722   -80.789
7896.12     50.895   -77.039
8010.97     50.702   -62.870
8127.49     52.599   -45.093
8245.71     53.779   -31.316
8365.65     54.429   -18.445
8487.33     53.261     5.655
8610.78     52.868    37.869
8736.03     52.046    77.558
8863.09     51.046   118.268
8992.01     49.381   172.669
9122.80     46.861  -126.567
9255.50     45.809   -45.473
9390.12     45.977    40.972
9526.70     46.777   120.445
9665.27     47.194  -154.374
9805.86     46.511   -61.427
9948.49     46.871    39.094
10093.2     48.121   140.264
10240.0     46.776  -123.543
10388.9     43.720    -3.555
10540.1     43.682   136.524
10693.4     43.749   -89.618
10848.9     42.875    50.071
11006.7     43.308  -152.357
11166.8     45.559     9.257
11329.2     48.039   161.027
11494.0     49.916   -55.145
11661.2     46.672    92.702
11830.8     42.048   -62.681
12002.9     42.819   149.976
12177.5     43.824    -5.563
12354.6     44.333  -150.245
12534.3     45.563    73.712
12716.6     45.464   -68.188
12901.6     43.741   173.326
13089.2     43.316    61.770
13279.6     42.157   -44.600
13472.8     39.901  -145.781
13668.8     35.539   138.630
13867.6     34.256    86.035
14069.3     35.773    27.895
14273.9     36.102   -46.081
14481.5     32.229  -116.903
14692.2     25.239   177.762
14905.9     25.333   -25.007
15122.7     34.359   -77.862
15342.7     37.654  -107.141
15565.8     39.014  -120.251
15792.2     39.712  -125.627
16021.9     37.587  -116.725
16255.0     35.273   -72.295
16491.4     37.193    -8.856
16731.3     40.391    40.107
16974.7     41.831    94.403
17221.6     41.786   159.226
17472.1     40.859  -114.640
17726.2     40.900   -13.676
17984.0     40.988    96.572
18245.6     40.810  -140.989
18511.0     41.251    -4.000
18780.2     41.964   140.787
19053.4     42.416   -66.517
19330.5     41.486    98.608
19611.7     40.264   -72.006
19897.0     41.762   137.314
20186.4     42.784   -29.252
20480.0     41.585  -171.022
20777.9     40.263    64.562
21080.1     39.491   -40.519
21386.7     39.068  -133.922
21697.8     38.811   148.548
22013.4     38.816    81.679
22333.6     38.438    28.494
22658.4     37.944   -10.272
22988.0     37.270   -37.631
23322.4     36.370   -52.660
23661.6     34.149   -57.325
24005.8     30.422   -41.861
24355.0     24.776   -19.144
24709.2     17.825     1.288
25068.6     19.710    -3.233
25433.2     25.090    55.503
25803.2     27.476   141.361
26178.5     28.234  -104.297
26559.3     27.065    22.538
26945.6     20.625  -177.904
27337.5     27.188   107.055
27735.2     29.380  -118.781
28138.6     27.423    92.348
28547.9     25.562   -26.192
28963.1     25.206  -108.474
29384.4     27.966   178.621
29811.8     29.848   102.450
30245.4     29.353    50.581
30685.3     28.860    22.318
31131.7     26.949    29.693
31584.5     26.739    58.842
32043.9     24.571    93.874
32510.0     18.804   172.734
32982.8     22.735   -63.556
33462.6     27.667    23.850
33949.3     29.749   126.508
34443.1     33.272  -109.063
34944.1     31.432    29.406
35452.4     27.912  -150.996
35968.0     24.906    52.623
36491.2     21.931   -75.221
37022.0     20.600  -163.333
37560.5     18.591   125.522
38106.8     18.008    70.652
38661.1     17.901    43.839
39223.4     19.279    41.019
39793.9     21.746    43.603
