Freq[Hz]     dBSPL  Phase[Deg]
5.00000     16.583  -169.274
5.07273     16.618  -168.924
5.14651     16.658  -168.663
5.22137     16.712  -168.649
5.29732     16.765  -168.636
5.37437     16.819  -168.623
5.45254     16.872  -168.609
5.53185     16.906  -168.763
5.61231     16.919  -169.094
5.69394     16.932  -169.425
5.77676     16.945  -169.756
5.86079     16.957  -170.087
5.94604     16.887  -170.390
6.03252     16.816  -170.693
6.12027     16.746  -170.996
6.20929     16.676  -171.299
6.29961     16.558  -171.106
6.39124     16.431  -170.801
6.48420     16.303  -170.497
6.57851     16.175  -170.193
6.67420     16.103  -169.169
6.77128     16.040  -168.027
6.86977     15.977  -166.886
6.96969     15.935  -165.748
7.07107     16.049  -164.636
7.17392     16.163  -163.524
7.27827     16.277  -162.412
7.38413     16.439  -161.969
7.49154     16.638  -162.043
7.60050     16.837  -162.117
7.71105     17.015  -162.417
7.82321     17.100  -163.708
7.93701     17.186  -164.999
8.05245     17.271  -166.290
8.16958     17.113  -167.815
8.28841     16.947  -169.349
8.40896     16.780  -170.883
8.53128     16.376  -171.019
8.65537     15.941  -170.976
8.78126     15.507  -170.933
8.90899     15.178  -167.401
9.03857     14.856  -163.642
9.17004     14.625  -159.803
9.30342     15.115  -155.335
9.43874     15.606  -150.868
9.57603     16.256  -148.317
9.71532     17.150  -148.693
9.85663     18.045  -149.070
10.0000     18.712  -152.723
10.1455     19.315  -157.288
10.2930     19.796  -162.515
10.4427     19.936  -169.593
10.5946     20.076  -176.670
10.7487     19.804   174.814
10.9051     19.450   166.011
11.0637     18.784   156.443
11.2246     17.788   146.065
11.3879     16.564   135.179
11.5535     14.511   122.439
11.7216     12.412   109.502
11.8921      7.571    84.957
12.0650      2.729    60.413
12.2405      3.708    -4.403
12.4186      5.437   -74.410
12.5992      8.201  -104.129
12.7825     11.195  -124.913
12.9684     12.678  -143.716
13.1570     13.811  -162.057
13.3484     14.366   177.831
13.5426     14.828   157.432
13.7395     15.256   134.942
13.9394     15.716   112.444
14.1421     16.435    90.501
14.3478     17.189    69.640
14.5565     18.021    51.108
14.7683     18.764    34.835
14.9831     19.440    20.307
15.2010     19.923     8.968
15.4221     20.351    -1.206
15.6464     20.683    -8.654
15.8740     21.052   -14.762
16.1049     21.451   -19.801
16.3392     22.003   -24.147
16.5768     22.584   -28.766
16.8179     23.196   -33.819
17.0626     23.696   -39.863
17.3107     24.075   -46.325
17.5625     24.292   -53.231
17.8180     24.177   -60.208
18.0771     23.825   -66.817
18.3401     23.212   -72.852
18.6068     22.153   -77.154
18.8775     20.681   -78.072
19.1521     19.016   -73.743
19.4306     17.430   -62.471
19.7133     17.683   -42.245
20.0000     19.569   -29.367
20.2909     21.854   -24.172
20.5860     23.906   -25.708
20.8855     25.431   -31.084
21.1893     26.288   -38.363
21.4975     26.585   -45.693
21.8102     26.345   -51.793
22.1274     25.632   -54.921
22.4492     24.713   -53.022
22.7758     24.164   -45.246
23.1071     24.712   -34.824
23.4432     26.197   -29.010
23.7841     27.645   -29.431
24.1301     28.606   -32.642
24.4811     29.064   -35.949
24.8372     29.181   -37.333
25.1984     29.285   -35.821
25.5649     29.737   -32.488
25.9368     30.598   -29.914
26.3141     31.605   -29.688
26.6968     32.463   -31.376
27.0851     33.060   -33.523
27.4791     33.472   -34.745
27.8788     33.913   -34.636
28.2843     34.530   -34.156
28.6957     35.280   -34.519
29.1131     35.999   -36.090
29.5365     36.557   -38.241
29.9661     36.946   -39.962
30.4020     37.278   -40.548
30.8442     37.735   -40.165
31.2929     38.347   -39.958
31.7480     39.016   -40.559
32.2098     39.625   -41.800
32.6783     40.127   -42.914
33.1536     40.621   -43.406
33.6359     41.200   -43.542
34.1251     41.883   -44.062
34.6215     42.570   -45.359
35.1250     43.176   -47.047
35.6359     43.693   -48.458
36.1543     44.217   -49.342
36.6802     44.816   -50.054
37.2137     45.474   -51.143
37.7550     46.115   -52.649
38.3041     46.704   -54.233
38.8613     47.283   -55.622
39.4265     47.891   -56.927
40.0000     48.523   -58.405
40.5818     49.148   -60.077
41.1721     49.764   -61.802
41.7710     50.383   -63.568
42.3785     51.002   -65.475
42.9949     51.605   -67.480
43.6203     52.194   -69.463
44.2548     52.791   -71.408
44.8985     53.396   -73.432
45.5515     53.998   -75.551
46.2141     54.596   -77.695
46.8863     55.201   -79.856
47.5683     55.815   -82.129
48.2602     56.424   -84.542
48.9621     57.022   -87.012
49.6743     57.617   -89.482
50.3968     58.220   -91.989
51.1299     58.827   -94.592
51.8736     59.435   -97.312
52.6281     60.039  -100.135
53.3936     60.637  -103.032
54.1702     61.233  -105.981
54.9581     61.832  -109.021
55.7575     62.430  -112.206
56.5685     63.014  -115.487
57.3914     63.594  -118.814
58.2261     64.172  -122.251
59.0730     64.738  -125.808
59.9323     65.293  -129.377
60.8040     65.854  -132.990
61.6884     66.418  -136.753
62.5857     66.977  -140.657
63.4960     67.531  -144.740
64.4196     68.067  -149.029
65.3566     68.572  -153.466
66.3073     69.048  -157.944
67.2717     69.505  -162.405
68.2502     69.953  -166.903
69.2429     70.384  -171.456
70.2501     70.809  -176.013
71.2719     71.235   179.310
72.3086     71.641   174.451
73.3603     72.020   169.479
74.4274     72.365   164.452
75.5099     72.686   159.449
76.6083     72.989   154.389
77.7226     73.259   149.341
78.8531     73.515   144.377
80.0000     73.760   139.359
81.1636     73.984   134.332
82.3442     74.189   129.256
83.5419     74.361   124.168
84.7570     74.505   119.179
85.9899     74.633   114.290
87.2406     74.755   109.454
88.5096     74.863   104.599
89.7970     74.950    99.721
91.1031     75.006    94.831
92.4282     75.016    90.024
93.7726     74.980    85.523
95.1366     74.943    81.513
96.5204     74.960    77.787
97.9243     75.015    73.899
99.3486     75.067    69.916
100.794     75.112    65.863
102.260     75.147    61.823
103.747     75.173    57.776
105.256     75.189    53.763
106.787     75.200    49.747
108.340     75.192    45.751
109.916     75.167    41.814
111.515     75.125    38.101
113.137     75.112    34.547
114.783     75.105    30.903
116.452     75.093    27.318
118.146     75.088    23.758
119.865     75.087    20.196
121.608     75.087    16.633
123.377     75.092    13.057
125.171     75.096     9.398
126.992     75.091     5.700
128.839     75.077     2.020
130.713     75.055    -1.764
132.615     74.985    -5.489
134.543     74.930    -8.811
136.500     74.927   -12.315
138.486     74.913   -15.684
140.500     74.866   -19.340
142.544     74.796   -23.058
144.617     74.750   -26.271
146.721     74.732   -29.398
148.855     74.740   -33.038
151.020     74.705   -36.871
153.217     74.651   -40.522
155.445     74.577   -44.196
157.706     74.453   -47.756
160.000     74.319   -50.715
162.327     74.311   -53.732
164.688     74.281   -56.902
167.084     74.303   -60.008
169.514     74.295   -64.900
171.980     73.976   -68.725
174.481     73.810   -70.788
177.019     73.773   -72.989
179.594     73.777   -75.746
182.206     73.756   -78.670
184.856     73.804   -81.630
187.545     73.847   -84.636
190.273     73.906   -88.010
193.041     73.941   -91.756
195.849     73.909   -95.345
198.697     73.884   -99.015
201.587     73.840  -102.703
204.520     73.771  -106.075
207.494     73.771  -109.258
210.512     73.802  -113.244
213.574     73.644  -117.939
216.681     73.416  -120.513
219.833     73.339  -122.895
223.030     73.361  -126.008
226.274     73.318  -129.574
229.565     73.170  -132.614
232.905     73.112  -135.005
236.292     73.149  -137.494
239.729     73.204  -140.700
243.216     73.179  -144.127
246.754     73.149  -146.866
250.343     73.206  -149.924
253.984     73.222  -153.465
257.678     73.201  -156.714
261.426     73.217  -160.132
265.229     73.168  -164.182
269.087     72.956  -167.066
273.001     72.935  -169.075
276.972     72.959  -172.068
281.000     72.963  -174.711
285.088     73.001  -177.831
289.234     73.031   178.797
293.441     72.991   174.828
297.709     72.716   172.461
302.040     72.768   169.798
306.433     72.582   168.268
310.890     72.814   166.058
315.412     72.918   162.280
320.000     72.854   157.652
324.655     72.426   155.384
329.377     72.403   154.657
334.168     72.582   152.588
339.028     72.577   149.190
343.959     72.600   146.703
348.962     72.621   143.740
354.038     72.545   140.687
359.188     72.494   137.298
364.412     72.280   135.484
369.713     72.307   133.316
375.090     72.327   130.991
380.546     72.350   128.572
386.081     72.372   125.164
391.697     72.295   122.291
397.394     72.212   119.429
403.175     72.136   116.506
409.039     71.979   113.711
414.989     71.869   111.454
421.025     71.794   109.342
427.149     71.784   106.815
433.362     71.642   104.284
439.665     71.593   101.589
446.060     71.421    98.771
452.548     71.284    96.798
459.131     71.128    94.169
465.809     70.931    92.054
472.584     70.835    90.594
479.458     70.739    88.721
486.432     70.656    86.895
493.507     70.584    85.020
500.686     70.499    83.395
507.968     70.499    81.752
515.357     70.467    79.948
522.853     70.471    78.235
530.458     70.491    76.519
538.174     70.539    74.659
546.002     70.579    72.734
553.943     70.630    70.757
562.001     70.684    68.679
570.175     70.732    66.510
578.469     70.767    64.227
586.883     70.783    61.892
595.419     70.778    59.529
604.080     70.748    57.114
612.866     70.691    54.678
621.780     70.604    52.257
630.824     70.486    49.893
640.000     70.340    47.677
649.309     70.168    45.651
658.753     69.970    43.821
668.335     69.746    42.216
678.056     69.513    40.948
687.919     69.277    40.037
697.925     69.052    39.506
708.077     68.860    39.361
718.376     68.712    39.550
728.825     68.626    39.992
739.426     68.615    40.562
750.181     68.683    41.102
761.093     68.827    41.451
772.163     69.029    41.470
783.394     69.275    41.070
794.789     69.547    40.184
806.349     69.818    38.836
818.078     70.071    37.042
829.977     70.293    34.862
842.050     70.472    32.364
854.298     70.598    29.634
866.724     70.664    26.805
879.330     70.671    23.885
892.120     70.615    21.016
905.097     70.501    18.301
918.262     70.336    15.839
931.618     70.131    13.728
945.169     69.904    12.039
958.917     69.677    10.816
972.864     69.476    10.037
987.015     69.326     9.616
1001.37     69.240     9.384
1015.94     69.234     9.128
1030.71     69.297     8.634
1045.71     69.408     7.713
1060.92     69.536     6.258
1076.35     69.646     4.298
1092.00     69.709     1.889
1107.89     69.701    -0.873
1124.00     69.606    -3.786
1140.35     69.413    -6.642
1156.94     69.120    -9.233
1173.77     68.744   -11.271
1190.84     68.314   -12.507
1208.16     67.882   -12.769
1225.73     67.516   -12.027
1243.56     67.290   -10.525
1261.65     67.257    -8.815
1280.00     67.406    -7.556
1298.62     67.677    -7.242
1317.51     67.987    -8.066
1336.67     68.259    -9.959
1356.11     68.434   -12.637
1375.84     68.479   -15.772
1395.85     68.380   -18.978
1416.15     68.149   -21.832
1436.75     67.818   -23.983
1457.65     67.445   -25.180
1478.85     67.108   -25.363
1500.36     66.890   -24.792
1522.19     66.835   -24.030
1544.33     66.926   -23.716
1566.79     67.093   -24.265
1589.58     67.251   -25.730
1612.70     67.333   -27.843
1636.16     67.309   -30.212
1659.95     67.185   -32.409
1684.10     67.002   -34.106
1708.60     66.828   -35.208
1733.45     66.726   -35.936
1758.66     66.721   -36.793
1784.24     66.781   -38.287
1810.19     66.825   -40.666
1836.52     66.765   -43.876
1863.24     66.523   -47.501
1890.34     66.056   -50.917
1917.83     65.362   -53.324
1945.73     64.502   -53.796
1974.03     63.632   -51.511
2002.74     63.026   -46.407
2031.87     62.938   -39.918
2061.43     63.383   -34.378
2091.41     64.145   -31.297
2121.83     64.977   -30.855
2152.69     65.706   -32.478
2184.01     66.261   -35.461
2215.77     66.604   -39.098
2248.00     66.739   -42.638
2280.70     66.722   -45.381
2313.87     66.679   -46.889
2347.53     66.773   -47.401
2381.68     67.100   -48.000
2416.32     67.594   -49.960
2451.46     68.067   -53.786
2487.12     68.343   -58.997
2523.30     68.335   -64.521
2560.00     68.075   -69.139
2597.24     67.725   -71.978
2635.01     67.505   -73.249
2673.34     67.535   -74.316
2712.23     67.707   -76.535
2751.68     67.808   -80.020
2791.70     67.722   -83.747
2832.31     67.504   -86.552
2873.50     67.333   -88.103
2915.30     67.345   -89.240
2957.70     67.493   -91.070
3000.72     67.633   -93.757
3044.37     67.703   -96.670
3088.65     67.763   -99.383
3133.58     67.878  -102.205
3179.16     68.006  -105.696
3225.40     68.037  -109.757
3272.31     67.934  -113.611
3319.91     67.779  -116.672
3368.20     67.685  -119.142
3417.19     67.660  -121.620
3466.89     67.647  -124.210
3517.32     67.657  -126.631
3568.48     67.755  -129.130
3620.39     67.900  -132.466
3673.05     67.938  -136.656
3726.47     67.798  -140.618
3780.67     67.610  -143.482
3835.67     67.537  -145.805
3891.46     67.525  -148.643
3948.06     67.428  -151.720
4005.49     67.290  -154.049
4063.75     67.279  -155.956
4122.86     67.356  -158.742
4182.82     67.300  -162.340
4243.66     67.069  -165.276
4305.39     66.868  -166.901
4368.01     66.827  -168.284
4431.55     66.839  -170.231
4496.01     66.824  -172.400
4561.40     66.805  -174.602
4627.75     66.763  -176.999
4695.06     66.660  -179.296
4763.35     66.542   178.793
4832.64     66.435   177.026
4902.93     66.303   175.509
4974.24     66.211   174.560
5046.60     66.231   173.617
5120.00     66.295   172.072
5194.47     66.322   170.028
5270.03     66.259   167.801
5346.68     66.122   166.217
5424.45     66.122   165.130
5503.35     66.206   162.551
5583.40     66.018   158.878
5664.61     65.580   156.171
5747.01     65.024   154.507
5830.60     64.360   154.863
5915.41     63.961   157.005
6001.45     63.652   158.398
6088.74     63.272   161.670
6177.30     63.353   166.008
6267.15     63.646   168.744
6358.31     64.067   170.491
6450.80     64.440   170.326
6544.62     64.627   170.104
6639.82     64.782   169.992
6736.40     64.899   170.336
6834.38     65.096   170.670
6933.79     65.313   171.039
7034.64     65.661   170.375
7136.96     65.764   168.592
7240.77     65.758   167.681
7346.09     65.656   167.202
7452.94     65.633   167.946
7561.35     65.660   168.428
7671.33     65.736   169.517
7782.91     65.880   170.433
7896.12     66.076   171.608
8010.97     66.474   173.376
8127.49     67.333   172.256
8245.71     67.783   165.856
8365.65     67.291   159.104
8487.33     66.434   157.206
8610.78     65.729   156.046
8736.03     64.881   156.902
8863.09     64.072   157.874
8992.01     63.079   162.067
9122.80     62.693   169.419
9255.50     62.904   174.141
9390.12     63.258   176.687
9526.70     63.431   176.456
9665.27     63.375   176.151
9805.86     63.195   178.021
9948.49     63.440  -179.883
10093.2     63.837   179.639
10240.0     63.827   177.437
10388.9     63.473   177.756
10540.1     63.285   178.934
10693.4     62.936  -176.426
10848.9     63.711  -170.421
11006.7     64.536  -171.840
11166.8     65.088  -173.597
11329.2     65.403  -177.924
11494.0     65.379   177.272
11661.2     64.602   172.519
11830.8     63.837   174.220
12002.9     63.554   175.823
12177.5     63.327   176.046
12354.6     62.844   176.841
12534.3     62.318   177.169
12716.6     61.623  -175.341
12901.6     62.609  -171.377
13089.2     62.992  -175.359
13279.6     62.636  -179.073
13472.8     61.913   177.619
13668.8     60.617   178.273
13867.6     59.696  -177.604
14069.3     58.808  -171.199
14273.9     59.037  -162.802
14481.5     59.578  -163.087
14692.2     59.216  -167.309
14905.9     57.851  -169.715
15122.7     55.948  -167.474
15342.7     53.396  -153.890
15565.8     53.888  -128.345
15792.2     56.146  -120.872
16021.9     57.609  -124.399
16255.0     57.643  -134.009
16491.4     55.862  -141.686
16731.3     52.536  -134.548
16974.7     51.922  -108.176
17221.6     54.258  -100.158
17472.1     54.049  -107.902
17726.2     52.517  -103.836
17984.0     51.241   -95.243
18245.6     49.806   -80.105
18511.0     50.303   -54.928
18780.2     53.003   -41.986
19053.4     55.296   -41.860
19330.5     56.126   -48.867
19611.7     54.654   -49.179
19897.0     56.704   -24.434
20186.4     58.816   -43.795
20480.0     58.128   -47.236
20777.9     57.795   -48.030
21080.1     57.792   -47.342
21386.7     57.708   -49.679
21697.8     57.251   -50.723
22013.4     56.830   -50.506
22333.6     56.761   -50.074
22658.4     56.926   -53.931
22988.0     56.664   -62.626
23322.4     55.630   -73.933
23661.6     53.980   -86.763
24005.8     51.714  -102.671
24355.0     48.775  -125.979
24709.2     45.540  -160.622
25068.6     44.694   157.293
25433.2     46.051   122.513
25803.2     47.185   101.441
26178.5     47.478    87.444
26559.3     46.395    80.271
26945.6     42.744    96.523
27337.5     51.008   138.120
27735.2     52.174   103.541
28138.6     52.180    97.231
28547.9     51.666    92.764
28963.1     50.822    96.247
29384.4     50.806   104.490
29811.8     52.446   104.557
30245.4     51.959    94.993
30685.3     50.008    91.427
31131.7     47.496    99.778
31584.5     46.241   119.108
32043.9     47.035   135.555
32510.0     47.617   146.090
32982.8     49.575   163.098
33462.6     53.935   162.072
33949.3     55.747   144.748
34443.1     58.167   118.447
34944.1     56.187    83.343
35452.4     52.408    61.318
35968.0     48.383    52.779
36491.2     45.277    49.347
37022.0     42.279    47.845
37560.5     40.433    50.945
38106.8     39.845    50.639
38661.1     40.084    47.106
39223.4     41.913    35.574
39793.9     45.239     7.064
