Freq[Hz]     dBSPL  Phase[Deg]
5.00000     18.552  -169.025
5.07273     18.587  -168.671
5.14651     18.627  -168.406
5.22137     18.681  -168.389
5.29732     18.734  -168.371
5.37437     18.788  -168.354
5.45254     18.841  -168.337
5.53185     18.875  -168.487
5.61231     18.888  -168.814
5.69394     18.901  -169.141
5.77676     18.914  -169.468
5.86079     18.926  -169.794
5.94604     18.855  -170.093
6.03252     18.785  -170.392
6.12027     18.714  -170.691
6.20929     18.644  -170.990
6.29961     18.526  -170.792
6.39124     18.399  -170.483
6.48420     18.271  -170.174
6.57851     18.143  -169.865
6.67420     18.071  -168.836
6.77128     18.008  -167.690
6.86977     17.945  -166.544
6.96969     17.903  -165.401
7.07107     18.017  -164.284
7.17392     18.131  -163.167
7.27827     18.245  -162.050
7.38413     18.407  -161.602
7.49154     18.606  -161.671
7.60050     18.805  -161.739
7.71105     18.983  -162.034
7.82321     19.068  -163.319
7.93701     19.154  -164.604
8.05245     19.239  -165.890
8.16958     19.081  -167.409
8.28841     18.914  -168.937
8.40896     18.747  -170.465
8.53128     18.343  -170.596
8.65537     17.908  -170.547
8.78126     17.474  -170.497
8.90899     17.145  -166.960
9.03857     16.822  -163.193
9.17004     16.591  -159.348
9.30342     17.081  -154.874
9.43874     17.572  -150.400
9.57603     18.222  -147.843
9.71532     19.116  -148.212
9.85663     20.011  -148.582
10.0000     20.677  -152.228
10.1455     21.280  -156.786
10.2930     21.761  -162.006
10.4427     21.901  -169.077
10.5946     22.041  -176.147
10.7487     21.769   175.345
10.9051     21.415   166.549
11.0637     20.749   156.989
11.2246     19.752   146.619
11.3879     18.528   135.741
11.5535     16.475   123.009
11.7216     14.375   110.079
11.8921      9.534    85.543
12.0650      4.693    61.006
12.2405      5.671    -3.800
12.4186      7.400   -73.800
12.5992     10.164  -103.510
12.7825     13.158  -124.286
12.9684     14.641  -143.079
13.1570     15.772  -161.412
13.3484     16.327   178.486
13.5426     16.789   158.095
13.7395     17.217   135.615
13.9394     17.677   113.126
14.1421     18.395    91.192
14.3478     19.149    70.341
14.5565     19.981    51.818
14.7683     20.724    35.555
14.9831     21.400    21.038
15.2010     21.882     9.708
15.4221     22.309    -0.456
15.6464     22.641    -7.893
15.8740     23.010   -13.990
16.1049     23.409   -19.019
16.3392     23.961   -23.354
16.5768     24.541   -27.962
16.8179     25.153   -33.004
17.0626     25.652   -39.037
17.3107     26.031   -45.488
17.5625     26.247   -52.383
17.8180     26.132   -59.348
18.0771     25.780   -65.946
18.3401     25.167   -71.969
18.6068     24.107   -76.259
18.8775     22.634   -77.164
19.1521     20.968   -72.823
19.4306     19.382   -61.539
19.7133     19.635   -41.301
20.0000     21.521   -28.410
20.2909     23.805   -23.202
20.5860     25.857   -24.725
20.8855     27.381   -30.089
21.1893     28.238   -37.355
21.4975     28.534   -44.671
21.8102     28.293   -50.757
22.1274     27.580   -53.873
22.4492     26.660   -51.960
22.7758     26.111   -44.170
23.1071     26.658   -33.734
23.4432     28.143   -27.906
23.7841     29.590   -28.313
24.1301     30.550   -31.509
24.4811     31.007   -34.802
24.8372     31.124   -36.171
25.1984     31.227   -34.644
25.5649     31.678   -31.296
25.9368     32.539   -28.707
26.3141     33.545   -28.466
26.6968     34.402   -30.138
27.0851     34.999   -32.270
27.4791     35.410   -33.476
27.8788     35.850   -33.351
28.2843     36.466   -32.855
28.6957     37.216   -33.202
29.1131     37.933   -34.757
29.5365     38.490   -36.892
29.9661     38.879   -38.596
30.4020     39.211   -39.165
30.8442     39.667   -38.766
31.2929     40.277   -38.541
31.7480     40.945   -39.126
32.2098     41.554   -40.349
32.6783     42.055   -41.446
33.1536     42.547   -41.920
33.6359     43.125   -42.038
34.1251     43.807   -42.541
34.6215     44.494   -43.820
35.1250     45.098   -45.490
35.6359     45.615   -46.882
36.1543     46.138   -47.748
36.6802     46.736   -48.442
37.2137     47.393   -49.512
37.7550     48.033   -50.999
38.3041     48.621   -52.565
38.8613     49.199   -53.934
39.4265     49.806   -55.220
40.0000     50.437   -56.680
40.5818     51.061   -58.332
41.1721     51.675   -60.038
41.7710     52.293   -61.783
42.3785     52.910   -63.671
42.9949     53.512   -65.656
43.6203     54.101   -67.619
44.2548     54.696   -69.544
44.8985     55.300   -71.547
45.5515     55.901   -73.646
46.2141     56.499   -75.769
46.8863     57.103   -77.909
47.5683     57.715   -80.161
48.2602     58.323   -82.553
48.9621     58.919   -85.001
49.6743     59.513   -87.450
50.3968     60.115   -89.935
51.1299     60.721   -92.517
51.8736     61.328   -95.216
52.6281     61.931   -98.016
53.3936     62.528  -100.891
54.1702     63.123  -103.818
54.9581     63.720  -106.835
55.7575     64.317  -109.997
56.5685     64.900  -113.255
57.3914     65.479  -116.559
58.2261     66.056  -119.973
59.0730     66.621  -123.506
59.9323     67.174  -127.052
60.8040     67.735  -130.641
61.6884     68.298  -134.379
62.5857     68.856  -138.260
63.4960     69.408  -142.318
64.4196     69.944  -146.582
65.3566     70.448  -150.994
66.3073     70.923  -155.446
67.2717     71.379  -159.883
68.2502     71.826  -164.354
69.2429     72.256  -168.882
70.2501     72.680  -173.412
71.2719     73.105  -178.063
72.3086     73.511   177.105
73.3603     73.888   172.160
74.4274     74.233   167.160
75.5099     74.553   162.186
76.6083     74.855   157.153
77.7226     75.124   152.134
78.8531     75.380   147.199
80.0000     75.625   142.209
81.1636     75.848   137.212
82.3442     76.053   132.166
83.5419     76.224   127.108
84.7570     76.368   122.150
85.9899     76.495   117.292
87.2406     76.617   112.488
88.5096     76.725   107.665
89.7970     76.811   102.818
91.1031     76.867    97.961
92.4282     76.877    93.188
93.7726     76.841    88.720
95.1366     76.804    84.744
96.5204     76.820    81.053
97.9243     76.875    77.201
99.3486     76.927    73.254
100.794     76.973    69.237
102.260     77.008    65.233
103.747     77.034    61.224
105.256     77.050    57.249
106.787     77.061    53.271
108.340     77.054    49.315
109.916     77.029    45.418
111.515     76.988    41.746
113.137     76.975    38.232
114.783     76.969    34.631
116.452     76.958    31.088
118.146     76.953    27.571
119.865     76.953    24.054
121.608     76.954    20.535
123.377     76.960    17.004
125.171     76.965    13.392
126.992     76.961     9.741
128.839     76.948     6.109
130.713     76.928     2.373
132.615     76.859    -1.302
134.543     76.806    -4.573
136.500     76.804    -8.024
138.486     76.792   -11.344
140.500     76.746   -14.947
142.544     76.679   -18.607
144.617     76.634   -21.767
146.721     76.618   -24.840
148.855     76.629   -28.421
151.020     76.595   -32.196
153.217     76.543   -35.787
155.445     76.472   -39.402
157.706     76.350   -42.903
160.000     76.219   -45.797
162.327     76.214   -48.750
164.688     76.186   -51.860
167.084     76.211   -54.901
169.514     76.206   -59.722
171.980     75.890   -63.477
174.481     75.728   -65.474
177.019     75.694   -67.610
179.594     75.702   -70.295
182.206     75.684   -73.143
184.856     75.736   -76.027
187.545     75.783   -78.961
190.273     75.846   -82.257
193.041     75.885   -85.927
195.849     75.858   -89.438
198.697     75.837   -93.026
201.587     75.798   -96.630
204.520     75.734   -99.920
207.494     75.739  -103.020
210.512     75.776  -106.918
213.574     75.623  -111.524
216.681     75.400  -114.014
219.833     75.330  -116.308
223.030     75.358  -119.326
226.274     75.322  -122.798
229.565     75.181  -125.744
232.905     75.129  -128.041
236.292     75.173  -130.435
239.729     75.235  -133.542
243.216     75.218  -136.869
246.754     75.197  -139.509
250.343     75.262  -142.462
253.984     75.288  -145.898
257.678     75.276  -149.042
261.426     75.301  -152.351
265.229     75.263  -156.292
269.087     75.061  -159.067
273.001     75.051  -160.967
276.972     75.086  -163.852
281.000     75.101  -166.382
285.088     75.152  -169.384
289.234     75.196  -172.639
293.441     75.169  -176.492
297.709     74.909  -178.744
302.040     74.976   178.707
306.433     74.805   177.295
310.890     75.054   175.207
315.412     75.175   171.548
320.000     75.129   167.037
324.655     74.720   164.885
329.377     74.716   164.271
334.168     74.915   162.322
339.028     74.932   159.039
343.959     74.977   156.663
348.962     75.022   153.807
354.038     74.970   150.857
359.188     74.944   147.568
364.412     74.757   145.850
369.713     74.812   143.771
375.090     74.860   141.527
380.546     74.913   139.182
386.081     74.965   135.836
391.697     74.919   133.015
397.394     74.869   130.192
403.175     74.824   127.292
409.039     74.699   124.505
414.989     74.620   122.237
421.025     74.576   120.097
427.149     74.594   117.523
433.362     74.477   114.927
439.665     74.453   112.146
446.060     74.301   109.227
452.548     74.178   107.141
459.131     74.032   104.389
465.809     73.839   102.147
472.584     73.740   100.571
479.458     73.633    98.599
486.432     73.533    96.702
493.507     73.437    94.794
500.686     73.320    93.187
507.968     73.286    91.625
515.357     73.215    89.969
522.853     73.180    88.481
530.458     73.160    87.073
538.174     73.171    85.597
546.002     73.180    84.127
553.943     73.206    82.684
562.001     73.242    81.218
570.175     73.282    79.735
578.469     73.320    78.208
586.883     73.352    76.676
595.419     73.375    75.156
604.080     73.390    73.635
612.866     73.396    72.135
621.780     73.392    70.683
630.824     73.381    69.305
640.000     73.364    68.054
649.309     73.346    66.945
658.753     73.331    65.971
668.335     73.325    65.127
678.056     73.335    64.443
687.919     73.369    63.890
697.925     73.433    63.431
708.077     73.532    63.029
718.376     73.669    62.614
728.825     73.846    62.118
739.426     74.060    61.474
750.181     74.305    60.617
761.093     74.575    59.497
772.163     74.854    58.107
783.394     75.137    56.413
794.789     75.418    54.380
806.349     75.679    52.091
818.078     75.915    49.537
829.977     76.121    46.757
842.050     76.290    43.790
854.298     76.417    40.688
866.724     76.498    37.547
879.330     76.532    34.331
892.120     76.519    31.146
905.097     76.460    28.052
918.262     76.357    25.112
931.618     76.215    22.387
945.169     76.043    19.931
958.917     75.852    17.788
972.864     75.654    15.978
987.015     75.464    14.498
1001.37     75.289    13.294
1015.94     75.150    12.309
1030.71     75.054    11.448
1045.71     74.998    10.572
1060.92     74.976     9.575
1076.35     74.973     8.405
1092.00     74.974     7.023
1107.89     74.961     5.428
1124.00     74.920     3.701
1140.35     74.840     1.939
1156.94     74.716     0.250
1173.77     74.553    -1.211
1190.84     74.365    -2.312
1208.16     74.173    -2.961
1225.73     74.007    -3.123
1243.56     73.900    -2.856
1261.65     73.884    -2.334
1280.00     73.970    -1.822
1298.62     74.152    -1.594
1317.51     74.405    -1.870
1336.67     74.696    -2.773
1356.11     74.986    -4.301
1375.84     75.248    -6.390
1395.85     75.461    -8.915
1416.15     75.612   -11.710
1436.75     75.699   -14.628
1457.65     75.725   -17.571
1478.85     75.698   -20.438
1500.36     75.630   -23.134
1522.19     75.530   -25.640
1544.33     75.409   -27.935
1566.79     75.279   -30.016
1589.58     75.147   -31.892
1612.70     75.025   -33.570
1636.16     74.920   -35.104
1659.95     74.841   -36.560
1684.10     74.791   -38.040
1708.60     74.767   -39.666
1733.45     74.756   -41.543
1758.66     74.731   -43.772
1784.24     74.662   -46.324
1810.19     74.517   -49.063
1836.52     74.270   -51.799
1863.24     73.910   -54.185
1890.34     73.452   -55.820
1917.83     72.941   -56.314
1945.73     72.466   -55.423
1974.03     72.136   -53.262
2002.74     72.049   -50.467
2031.87     72.214   -47.951
2061.43     72.560   -46.435
2091.41     72.979   -46.166
2121.83     73.382   -46.993
2152.69     73.711   -48.543
2184.01     73.954   -50.436
2215.77     74.122   -52.328
2248.00     74.251   -53.973
2280.70     74.390   -55.322
2313.87     74.584   -56.564
2347.53     74.849   -58.066
2381.68     75.153   -60.192
2416.32     75.432   -63.104
2451.46     75.616   -66.634
2487.12     75.661   -70.324
2523.30     75.578   -73.599
2560.00     75.437   -76.014
2597.24     75.344   -77.557
2635.01     75.375   -78.784
2673.34     75.514   -80.424
2712.23     75.668   -82.820
2751.68     75.749   -85.725
2791.70     75.736   -88.552
2832.31     75.683   -90.885
2873.50     75.669   -92.793
2915.30     75.722   -94.719
2957.70     75.801   -97.002
3000.72     75.856   -99.545
3044.37     75.882  -102.066
3088.65     75.918  -104.537
3133.58     75.974  -107.240
3179.16     75.996  -110.402
3225.40     75.914  -113.744
3272.31     75.725  -116.609
3319.91     75.516  -118.587
3368.20     75.394  -119.940
3417.19     75.376  -121.328
3466.89     75.401  -123.105
3517.32     75.423  -125.196
3568.48     75.427  -127.512
3620.39     75.381  -130.059
3673.05     75.237  -132.477
3726.47     75.032  -134.026
3780.67     74.922  -134.543
3835.67     75.008  -135.054
3891.46     75.186  -136.615
3948.06     75.285  -138.989
4005.49     75.282  -141.295
4063.75     75.258  -143.235
4122.86     75.247  -145.034
4182.82     75.239  -146.724
4243.66     75.263  -148.274
4305.39     75.335  -150.045
4368.01     75.390  -152.269
4431.55     75.383  -154.594
4496.01     75.349  -156.849
4561.40     75.270  -159.233
4627.75     75.085  -161.395
4695.06     74.848  -162.630
4763.35     74.683  -163.091
4832.64     74.595  -163.318
4902.93     74.578  -163.283
4974.24     74.683  -163.367
5046.60     74.831  -164.202
5120.00     74.917  -165.314
5194.47     75.005  -166.168
5270.03     75.153  -167.194
5346.68     75.302  -168.766
5424.45     75.379  -170.772
5503.35     75.339  -172.578
5583.40     75.295  -173.539
5664.61     75.364  -174.537
5747.01     75.386  -176.267
5830.60     75.285  -177.563
5915.41     75.223  -178.148
6001.45     75.209  -178.749
6088.74     75.199  -179.219
6177.30     75.235  -179.621
6267.15     75.289   179.753
6358.31     75.319   179.060
6450.80     75.356   178.596
6544.62     75.444   177.923
6639.82     75.474   176.866
6736.40     75.458   176.169
6834.38     75.455   175.491
6933.79     75.404   175.000
7034.64     75.383   174.862
7136.96     75.370   174.708
7240.77     75.371   174.827
7346.09     75.413   174.903
7452.94     75.463   175.074
7561.35     75.597   175.216
7671.33     75.756   174.604
7782.91     75.849   173.461
7896.12     75.822   171.818
8010.97     75.582   170.132
8127.49     74.941   169.651
8245.71     74.337   175.131
8365.65     74.883  -179.526
8487.33     75.411   179.694
8610.78     75.453   177.812
8736.03     75.153   176.575
8863.09     74.748   177.640
8992.01     74.610   179.744
9122.80     74.662  -179.411
9255.50     74.590  -179.786
9390.12     74.395  -179.963
9526.70     74.119  -179.209
9665.27     73.993  -177.497
9805.86     74.040  -175.395
9948.49     74.327  -174.461
10093.2     74.481  -174.821
10240.0     74.485  -174.456
10388.9     74.645  -173.157
10540.1     74.801  -173.118
10693.4     74.783  -172.174
10848.9     74.917  -169.886
11006.7     75.228  -168.291
11166.8     75.625  -167.107
11329.2     75.958  -167.576
11494.0     76.173  -166.207
11661.2     76.812  -166.705
11830.8     77.023  -168.914
12002.9     77.122  -170.052
12177.5     77.163  -170.654
12354.6     77.233  -170.389
12534.3     77.509  -169.887
12716.6     77.867  -171.162
12901.6     78.040  -173.117
13089.2     78.092  -175.098
13279.6     78.062  -176.562
13472.8     78.021  -177.865
13668.8     78.015  -178.987
13867.6     77.954   179.049
14069.3     77.713   177.375
14273.9     77.406   176.707
14481.5     77.172   177.080
14692.2     77.119   177.436
14905.9     77.172   176.734
15122.7     77.172   174.555
15342.7     76.941   171.177
15565.8     76.356   168.229
15792.2     75.586   167.050
16021.9     74.865   167.869
16255.0     74.387   169.417
16491.4     74.056   169.906
16731.3     73.638   169.127
16974.7     72.988   168.186
17221.6     72.191   168.241
17472.1     71.473   169.084
17726.2     70.649   169.046
17984.0     69.603   169.718
18245.6     68.363   171.780
18511.0     67.175   176.302
18780.2     66.139  -178.907
19053.4     64.886  -173.259
19330.5     63.434  -162.334
19611.7     63.427  -139.180
19897.0     68.570  -140.299
20186.4     65.976  -172.147
20480.0     62.368  -166.443
20777.9     60.176  -155.661
21080.1     58.848  -143.568
21386.7     57.582  -133.526
21697.8     56.249  -121.206
22013.4     55.138  -107.747
22333.6     53.885   -92.945
22658.4     52.217   -71.807
22988.0     52.227   -35.668
23322.4     55.747    -8.516
23661.6     59.333    -0.068
24005.8     61.897     1.090
24355.0     63.669    -0.047
24709.2     64.992    -1.662
25068.6     65.958    -4.269
25433.2     66.495    -6.582
25803.2     66.893    -7.732
26178.5     67.338    -8.915
26559.3     67.700   -10.540
26945.6     68.596   -11.103
27337.5     66.760   -39.226
27735.2     64.527    -9.757
28138.6     65.538    -3.717
28547.9     65.988    -0.630
28963.1     66.212     1.497
29384.4     66.388     3.310
29811.8     66.114     4.168
30245.4     65.922     7.569
30685.3     65.708     9.493
31131.7     65.296     9.911
31584.5     63.956     9.310
32043.9     61.621    18.609
32510.0     60.997    40.954
32982.8     62.737    54.163
33462.6     63.705    58.912
33949.3     64.312    59.708
34443.1     67.292    64.991
34944.1     67.535    41.247
35452.4     65.778    29.175
35968.0     63.456    22.497
36491.2     60.838    20.548
37022.0     57.881    22.579
37560.5     54.888    30.930
38106.8     52.214    41.862
38661.1     48.830    59.698
39223.4     47.196    91.545
39793.9     49.898   123.208
