Freq[Hz]     dBSPL  Phase[Deg]
5.00000     17.645  -169.121
5.07273     17.680  -168.769
5.14651     17.720  -168.505
5.22137     17.774  -168.490
5.29732     17.827  -168.474
5.37437     17.881  -168.458
5.45254     17.934  -168.442
5.53185     17.968  -168.594
5.61231     17.981  -168.922
5.69394     17.994  -169.251
5.77676     18.006  -169.579
5.86079     18.018  -169.907
5.94604     17.948  -170.208
6.03252     17.877  -170.509
6.12027     17.807  -170.809
6.20929     17.737  -171.110
6.29961     17.619  -170.913
6.39124     17.492  -170.606
6.48420     17.364  -170.299
6.57851     17.236  -169.992
6.67420     17.164  -168.965
6.77128     17.102  -167.820
6.86977     17.039  -166.676
6.96969     16.997  -165.535
7.07107     17.111  -164.420
7.17392     17.225  -163.305
7.27827     17.339  -162.190
7.38413     17.501  -161.744
7.49154     17.700  -161.815
7.60050     17.898  -161.885
7.71105     18.076  -162.182
7.82321     18.162  -163.469
7.93701     18.247  -164.757
8.05245     18.333  -166.044
8.16958     18.175  -167.566
8.28841     18.008  -169.096
8.40896     17.841  -170.626
8.53128     17.437  -170.759
8.65537     17.002  -170.712
8.78126     16.568  -170.665
8.90899     16.239  -167.130
9.03857     15.917  -163.366
9.17004     15.686  -159.523
9.30342     16.176  -155.052
9.43874     16.666  -150.580
9.57603     17.316  -148.025
9.71532     18.211  -148.398
9.85663     19.106  -148.770
10.0000     19.773  -152.418
10.1455     20.376  -156.979
10.2930     20.857  -162.202
10.4427     20.996  -169.275
10.5946     21.136  -176.348
10.7487     20.864   175.141
10.9051     20.511   166.343
11.0637     19.845   156.779
11.2246     18.848   146.407
11.3879     17.624   135.525
11.5535     15.571   122.790
11.7216     13.472   109.858
11.8921      8.631    85.318
12.0650      3.789    60.779
12.2405      4.768    -4.031
12.4186      6.497   -74.034
12.5992      9.261  -103.747
12.7825     12.255  -124.526
12.9684     13.738  -143.323
13.1570     14.870  -161.658
13.3484     15.425   178.236
13.5426     15.887   157.842
13.7395     16.315   135.358
13.9394     16.776   112.866
14.1421     17.494    90.928
14.3478     18.248    70.074
14.5565     19.080    51.548
14.7683     19.823    35.281
14.9831     20.499    20.760
15.2010     20.982     9.427
15.4221     21.409    -0.741
15.6464     21.741    -8.182
15.8740     22.110   -14.283
16.1049     22.510   -19.316
16.3392     23.062   -23.655
16.5768     23.642   -28.267
16.8179     24.254   -33.313
17.0626     24.754   -39.350
17.3107     25.133   -45.805
17.5625     25.350   -52.703
17.8180     25.235   -59.673
18.0771     24.883   -66.275
18.3401     24.270   -72.302
18.6068     23.211   -76.596
18.8775     21.738   -77.506
19.1521     20.073   -73.169
19.4306     18.487   -61.889
19.7133     18.740   -41.655
20.0000     20.626   -28.769
20.2909     22.910   -23.565
20.5860     24.962   -25.093
20.8855     26.487   -30.461
21.1893     27.344   -37.731
21.4975     27.641   -45.052
21.8102     27.401   -51.143
22.1274     26.687   -54.263
22.4492     25.768   -52.355
22.7758     25.220   -44.570
23.1071     25.767   -34.138
23.4432     27.252   -28.315
23.7841     28.700   -28.726
24.1301     29.661   -31.928
24.4811     30.118   -35.225
24.8372     30.235   -36.598
25.1984     30.339   -35.077
25.5649     30.790   -31.733
25.9368     31.651   -29.150
26.3141     32.658   -28.913
26.6968     33.516   -30.590
27.0851     34.113   -32.727
27.4791     34.525   -33.938
27.8788     34.965   -33.818
28.2843     35.582   -33.327
28.6957     36.332   -33.679
29.1131     37.051   -35.239
29.5365     37.608   -37.379
29.9661     37.997   -39.088
30.4020     38.329   -39.662
30.8442     38.786   -39.268
31.2929     39.397   -39.048
31.7480     40.066   -39.638
32.2098     40.675   -40.866
32.6783     41.177   -41.968
33.1536     41.670   -42.447
33.6359     42.249   -42.570
34.1251     42.932   -43.078
34.6215     43.619   -44.362
35.1250     44.224   -46.037
35.6359     44.741   -47.434
36.1543     45.265   -48.305
36.6802     45.864   -49.004
37.2137     46.521   -50.079
37.7550     47.162   -51.571
38.3041     47.750   -53.141
38.8613     48.330   -54.516
39.4265     48.938   -55.806
40.0000     49.569   -57.270
40.5818     50.194   -58.928
41.1721     50.809   -60.638
41.7710     51.428   -62.388
42.3785     52.046   -64.281
42.9949     52.649   -66.270
43.6203     53.238   -68.238
44.2548     53.835   -70.167
44.8985     54.439   -72.175
45.5515     55.042   -74.278
46.2141     55.639   -76.406
46.8863     56.244   -78.550
47.5683     56.858   -80.807
48.2602     57.466   -83.203
48.9621     58.064   -85.656
49.6743     58.659   -88.109
50.3968     59.261   -90.598
51.1299     59.868   -93.184
51.8736     60.476   -95.886
52.6281     61.079   -98.691
53.3936     61.677  -101.570
54.1702     62.273  -104.501
54.9581     62.872  -107.522
55.7575     63.469  -110.688
56.5685     64.053  -113.950
57.3914     64.633  -117.257
58.2261     65.211  -120.675
59.0730     65.777  -124.212
59.9323     66.331  -127.761
60.8040     66.893  -131.354
61.6884     67.456  -135.096
62.5857     68.015  -138.980
63.4960     68.568  -143.041
64.4196     69.105  -147.309
65.3566     69.610  -151.725
66.3073     70.085  -156.180
67.2717     70.542  -160.620
68.2502     70.990  -165.095
69.2429     71.421  -169.626
70.2501     71.846  -174.160
71.2719     72.271  -178.814
72.3086     72.678   176.351
73.3603     73.056   171.403
74.4274     73.402   166.400
75.5099     73.722   161.422
76.6083     74.026   156.386
77.7226     74.296   151.363
78.8531     74.552   146.425
80.0000     74.797   141.432
81.1636     75.021   136.432
82.3442     75.226   131.383
83.5419     75.398   126.321
84.7570     75.543   121.359
85.9899     75.671   116.499
87.2406     75.793   111.691
88.5096     75.901   106.864
89.7970     75.988   102.014
91.1031     76.044    97.153
92.4282     76.054    92.376
93.7726     76.019    87.905
95.1366     75.982    83.925
96.5204     75.999    80.230
97.9243     76.055    76.374
99.3486     76.107    72.423
100.794     76.153    68.402
102.260     76.188    64.395
103.747     76.215    60.380
105.256     76.231    56.401
106.787     76.242    52.419
108.340     76.236    48.458
109.916     76.211    44.556
111.515     76.170    40.879
113.137     76.157    37.360
114.783     76.151    33.754
116.452     76.140    30.205
118.146     76.136    26.683
119.865     76.136    23.160
121.608     76.137    19.635
123.377     76.143    16.099
125.171     76.148    12.479
126.992     76.144     8.822
128.839     76.130     5.183
130.713     76.111     1.440
132.615     76.041    -2.242
134.543     75.988    -5.521
136.500     75.986    -8.980
138.486     75.973   -12.307
140.500     75.928   -15.919
142.544     75.860   -19.588
144.617     75.815   -22.757
146.721     75.799   -25.839
148.855     75.809   -29.430
151.020     75.775   -33.215
153.217     75.723   -36.816
155.445     75.651   -40.442
157.706     75.529   -43.953
160.000     75.397   -46.860
162.327     75.392   -49.824
164.688     75.364   -52.946
167.084     75.388   -55.999
169.514     75.383   -60.834
171.980     75.067   -64.603
174.481     74.904   -66.613
177.019     74.869   -68.762
179.594     74.876   -71.463
182.206     74.859   -74.326
184.856     74.910   -77.226
187.545     74.956   -80.175
190.273     75.019   -83.489
193.041     75.058   -87.176
195.849     75.029   -90.704
198.697     75.008   -94.310
201.587     74.968   -97.934
204.520     74.904  -101.242
207.494     74.908  -104.362
210.512     74.945  -108.281
213.574     74.791  -112.908
216.681     74.568  -115.418
219.833     74.497  -117.734
223.030     74.525  -120.775
226.274     74.488  -124.271
229.565     74.346  -127.240
232.905     74.294  -129.561
236.292     74.338  -131.980
239.729     74.399  -135.113
243.216     74.382  -138.466
246.754     74.360  -141.132
250.343     74.425  -144.113
253.984     74.450  -147.578
257.678     74.438  -150.751
261.426     74.463  -154.090
265.229     74.423  -158.062
269.087     74.222  -160.868
273.001     74.211  -162.799
276.972     74.246  -165.716
281.000     74.261  -168.280
285.088     74.311  -171.318
289.234     74.354  -174.609
293.441     74.327  -178.499
297.709     74.066   179.212
302.040     74.133   176.625
306.433     73.961   175.173
310.890     74.210   173.042
315.412     74.331   169.340
320.000     74.284   164.785
324.655     73.874   162.588
329.377     73.870   161.927
334.168     74.069   159.928
339.028     74.085   156.593
343.959     74.129   154.163
348.962     74.173   151.253
354.038     74.120   148.246
359.188     74.093   144.897
364.412     73.905   143.115
369.713     73.958   140.970
375.090     74.005   138.658
380.546     74.056   136.240
386.081     74.106   132.819
391.697     74.057   129.917
397.394     74.004   127.008
403.175     73.956   124.023
409.039     73.828   121.144
414.989     73.745   118.779
421.025     73.696   116.538
427.149     73.708   113.861
433.362     73.586   111.159
439.665     73.554   108.263
446.060     73.393   105.227
452.548     73.261   103.022
459.131     73.104   100.147
465.809     72.899    97.779
472.584     72.787    96.075
479.458     72.665    93.978
486.432     72.549    91.953
493.507     72.436    89.917
500.686     72.301    88.182
507.968     72.246    86.494
515.357     72.156    84.716
522.853     72.099    83.104
530.458     72.057    81.569
538.174     72.046    79.967
546.002     72.031    78.370
553.943     72.032    76.793
562.001     72.041    75.186
570.175     72.053    73.553
578.469     72.059    71.866
586.883     72.057    70.168
595.419     72.044    68.475
604.080     72.018    66.773
612.866     71.977    65.086
621.780     71.919    63.447
630.824     71.846    61.888
640.000     71.761    60.475
649.309     71.666    59.235
658.753     71.566    58.174
668.335     71.463    57.307
678.056     71.371    56.686
687.919     71.297    56.302
697.925     71.252    56.135
708.077     71.247    56.149
718.376     71.291    56.272
728.825     71.389    56.420
739.426     71.542    56.495
750.181     71.749    56.396
761.093     72.000    56.035
772.163     72.279    55.359
783.394     72.578    54.324
794.789     72.888    52.890
806.349     73.186    51.113
818.078     73.467    48.995
829.977     73.720    46.579
842.050     73.938    43.909
854.298     74.116    41.041
866.724     74.247    38.075
879.330     74.334    34.981
892.120     74.372    31.862
905.097     74.363    28.780
918.262     74.309    25.793
931.618     74.215    22.956
945.169     74.088    20.318
958.917     73.935    17.917
972.864     73.768    15.774
987.015     73.596    13.893
1001.37     73.425    12.228
1015.94     73.271    10.756
1030.71     73.140     9.421
1045.71     73.031     8.111
1060.92     72.939     6.754
1076.35     72.858     5.326
1092.00     72.773     3.790
1107.89     72.673     2.141
1124.00     72.547     0.447
1140.35     72.387    -1.209
1156.94     72.190    -2.739
1173.77     71.962    -4.010
1190.84     71.715    -4.913
1208.16     71.470    -5.378
1225.73     71.252    -5.387
1243.56     71.090    -5.003
1261.65     71.010    -4.385
1280.00     71.018    -3.756
1298.62     71.109    -3.341
1317.51     71.263    -3.303
1336.67     71.451    -3.732
1356.11     71.646    -4.616
1375.84     71.830    -5.898
1395.85     71.991    -7.483
1416.15     72.123    -9.267
1436.75     72.230   -11.182
1457.65     72.316   -13.216
1478.85     72.384   -15.372
1500.36     72.431   -17.650
1522.19     72.450   -20.078
1544.33     72.431   -22.634
1566.79     72.361   -25.244
1589.58     72.235   -27.782
1612.70     72.057   -30.071
1636.16     71.844   -31.972
1659.95     71.628   -33.395
1684.10     71.451   -34.379
1708.60     71.348   -35.143
1733.45     71.329   -36.036
1758.66     71.369   -37.431
1784.24     71.413   -39.537
1810.19     71.394   -42.325
1836.52     71.253   -45.606
1863.24     70.946   -48.962
1890.34     70.455   -51.850
1917.83     69.801   -53.631
1945.73     69.056   -53.638
1974.03     68.364   -51.431
2002.74     67.930   -47.286
2031.87     67.897   -42.454
2061.43     68.235   -38.532
2091.41     68.780   -36.436
2121.83     69.354   -36.192
2152.69     69.839   -37.285
2184.01     70.192   -39.087
2215.77     70.416   -40.995
2248.00     70.552   -42.507
2280.70     70.685   -43.377
2313.87     70.911   -43.774
2347.53     71.291   -44.329
2381.68     71.794   -45.834
2416.32     72.316   -48.761
2451.46     72.730   -53.020
2487.12     72.942   -58.052
2523.30     72.919   -63.044
2560.00     72.706   -67.165
2597.24     72.422   -69.861
2635.01     72.218   -71.273
2673.34     72.185   -72.228
2712.23     72.284   -73.631
2751.68     72.398   -75.743
2791.70     72.453   -78.130
2832.31     72.468   -80.248
2873.50     72.521   -82.008
2915.30     72.656   -83.847
2957.70     72.832   -86.238
3000.72     72.970   -89.144
3044.37     73.035   -92.126
3088.65     73.069   -94.829
3133.58     73.133   -97.318
3179.16     73.238   -99.985
3225.40     73.339  -103.032
3272.31     73.392  -106.278
3319.91     73.399  -109.460
3368.20     73.384  -112.485
3417.19     73.356  -115.358
3466.89     73.319  -117.997
3517.32     73.313  -120.339
3568.48     73.381  -122.672
3620.39     73.492  -125.514
3673.05     73.552  -128.896
3726.47     73.520  -132.193
3780.67     73.475  -134.959
3835.67     73.504  -137.621
3891.46     73.554  -140.860
3948.06     73.507  -144.460
4005.49     73.364  -147.580
4063.75     73.245  -150.016
4122.86     73.207  -152.440
4182.82     73.167  -155.240
4243.66     73.074  -158.021
4305.39     72.978  -160.518
4368.01     72.903  -163.043
4431.55     72.803  -165.673
4496.01     72.673  -168.133
4561.40     72.549  -170.457
4627.75     72.414  -172.816
4695.06     72.247  -175.072
4763.35     72.068  -177.167
4832.64     71.859  -179.221
4902.93     71.586   179.063
4974.24     71.296   178.048
5046.60     71.048   177.692
5120.00     70.891   177.881
5194.47     70.880   178.019
5270.03     70.913   177.380
5346.68     70.870   176.610
5424.45     70.855   176.299
5503.35     70.915   175.691
5583.40     70.943   174.701
5664.61     70.950   173.746
5747.01     70.931   172.626
5830.60     70.837   171.786
5915.41     70.772   171.638
6001.45     70.804   171.470
6088.74     70.834   170.834
6177.30     70.799   170.481
6267.15     70.876   170.732
6358.31     71.083   169.787
6450.80     71.072   167.845
6544.62     70.930   167.208
6639.82     70.931   166.895
6736.40     70.873   165.882
6834.38     70.707   165.518
6933.79     70.577   165.668
7034.64     70.403   166.085
7136.96     70.245   167.712
7240.77     70.277   170.141
7346.09     70.565   172.457
7452.94     71.032   173.098
7561.35     71.394   172.326
7671.33     71.662   171.219
7782.91     71.834   170.139
7896.12     72.060   169.520
8010.97     72.468   167.937
8127.49     72.848   162.526
8245.71     72.193   154.061
8365.65     70.442   153.585
8487.33     69.786   161.240
8610.78     69.840   164.564
8736.03     69.860   166.197
8863.09     69.654   165.781
8992.01     69.216   167.719
9122.80     69.151   169.737
9255.50     69.065   170.133
9390.12     68.807   170.039
9526.70     68.466   171.324
9665.27     68.241   173.046
9805.86     68.188   175.687
9948.49     68.328   176.976
10093.2     68.401   177.602
10240.0     68.337   178.804
10388.9     68.548  -179.023
10540.1     68.800  -179.016
10693.4     68.872  -179.338
10848.9     68.703   179.907
11006.7     68.261  -178.185
11166.8     68.106  -173.837
11329.2     68.400  -168.479
11494.0     69.171  -166.212
11661.2     69.701  -166.702
11830.8     70.121  -167.771
12002.9     70.309  -169.821
12177.5     70.269  -170.999
12354.6     70.365  -171.739
12534.3     70.268  -173.893
12716.6     69.773  -174.310
12901.6     69.598  -171.994
13089.2     69.524  -170.464
13279.6     69.652  -168.492
13472.8     69.925  -168.036
13668.8     70.220  -169.792
13867.6     70.076  -172.840
14069.3     69.728  -174.744
14273.9     69.227  -175.878
14481.5     68.659  -175.622
14692.2     68.212  -173.891
14905.9     68.030  -172.476
15122.7     67.869  -172.521
15342.7     67.713  -173.674
15565.8     67.300  -177.471
15792.2     66.278   179.395
16021.9     65.026   177.323
16255.0     63.162   177.901
16491.4     61.294  -175.326
16731.3     60.450  -164.586
16974.7     60.084  -161.015
17221.6     58.893  -157.646
17472.1     57.287  -159.662
17726.2     51.987  -148.215
17984.0     50.833   -91.684
18245.6     55.858   -69.580
18511.0     58.792   -70.232
18780.2     59.682   -73.898
19053.4     59.538   -72.840
19330.5     59.510   -65.076
19611.7     60.056   -56.707
19897.0     62.034   -45.573
20186.4     63.585   -57.902
20480.0     62.687   -62.076
20777.9     61.543   -56.976
21080.1     61.776   -45.846
21386.7     62.873   -41.102
21697.8     63.645   -40.994
22013.4     63.979   -41.445
22333.6     64.226   -41.687
22658.4     64.383   -42.587
22988.0     64.378   -43.821
23322.4     64.273   -45.293
23661.6     64.046   -47.895
24005.8     63.476   -51.488
24355.0     62.359   -55.103
24709.2     60.629   -55.862
25068.6     58.662   -50.258
25433.2     57.453   -39.648
25803.2     57.011   -30.106
26178.5     56.967   -23.842
26559.3     56.829   -20.798
26945.6     57.025   -20.828
27337.5     54.629  -163.637
27735.2     53.948    31.762
28138.6     54.878    26.371
28547.9     54.674    33.639
28963.1     55.308    45.193
29384.4     56.575    53.923
29811.8     58.360    56.457
30245.4     59.021    52.715
30685.3     59.190    51.115
31131.7     59.052    50.439
31584.5     58.921    51.331
32043.9     59.175    50.868
32510.0     59.522    44.282
32982.8     59.001    29.171
33462.6     54.513    13.767
33949.3     46.167    43.110
34443.1     56.006    87.515
34944.1     56.372    50.104
35452.4     54.543    33.390
35968.0     51.625    22.512
36491.2     48.423    22.011
37022.0     45.932    23.502
37560.5     42.994    26.535
38106.8     40.464    37.852
38661.1     38.980    47.407
39223.4     36.909    56.478
39793.9     38.719    65.769
