Freq[Hz]     dBSPL  Phase[Deg]
5.00000     14.719  -170.892
5.07273     14.755  -170.565
5.14651     14.795  -170.327
5.22137     14.850  -170.337
5.29732     14.904  -170.348
5.37437     14.958  -170.359
5.45254     15.012  -170.370
5.53185     15.047  -170.549
5.61231     15.060  -170.906
5.69394     15.074  -171.263
5.77676     15.088  -171.620
5.86079     15.100  -171.976
5.94604     15.031  -172.307
6.03252     14.961  -172.637
6.12027     14.892  -172.968
6.20929     14.823  -173.298
6.29961     14.706  -173.133
6.39124     14.579  -172.858
6.48420     14.453  -172.583
6.57851     14.326  -172.308
6.67420     14.255  -171.313
6.77128     14.194  -170.202
6.86977     14.132  -169.091
6.96969     14.091  -167.984
7.07107     14.207  -166.904
7.17392     14.322  -165.824
7.27827     14.437  -164.744
7.38413     14.600  -164.334
7.49154     14.800  -164.441
7.60050     15.001  -164.549
7.71105     15.180  -164.882
7.82321     15.267  -166.208
7.93701     15.354  -167.533
8.05245     15.441  -168.859
8.16958     15.285  -170.420
8.28841     15.120  -171.991
8.40896     14.955  -173.561
8.53128     14.553  -173.735
8.65537     14.120  -173.729
8.78126     13.687  -173.723
8.90899     13.360  -170.231
9.03857     13.040  -166.510
9.17004     12.811  -162.710
9.30342     13.303  -158.283
9.43874     13.795  -153.856
9.57603     14.448  -151.345
9.71532     15.345  -151.764
9.85663     16.242  -152.182
10.0000     16.911  -155.877
10.1455     17.516  -160.485
10.2930     18.000  -165.755
10.4427     18.142  -172.877
10.5946     18.284  -179.998
10.7487     18.015   171.441
10.9051     17.664   162.593
11.0637     17.001   152.979
11.2246     16.008   142.555
11.3879     14.787   131.622
11.5535     12.737   118.835
11.7216     10.641   105.850
11.8921      5.803    81.257
12.0650      0.966    56.664
12.2405      1.947    -8.201
12.4186      3.680   -78.258
12.5992      6.447  -108.028
12.7825      9.445  -128.862
12.9684     10.932  -147.716
13.1570     12.068  -166.109
13.3484     12.627   173.727
13.5426     13.093   153.275
13.7395     13.526   130.731
13.9394     13.991   108.180
14.1421     14.713    86.182
14.3478     15.471    65.267
14.5565     16.308    46.679
14.7683     17.056    30.351
14.9831     17.738    15.767
15.2010     18.226     4.371
15.4221     18.658    -5.860
15.6464     18.995   -13.365
15.8740     19.369   -19.531
16.1049     19.773   -24.628
16.3392     20.331   -29.033
16.5768     20.917   -33.711
16.8179     21.535   -38.823
17.0626     22.041   -44.927
17.3107     22.427   -51.450
17.5625     22.650   -58.416
17.8180     22.542   -65.454
18.0771     22.197   -72.125
18.3401     21.590   -78.221
18.6068     20.538   -82.585
18.8775     19.073   -83.565
19.1521     17.415   -79.298
19.4306     15.837   -68.090
19.7133     16.097   -47.927
20.0000     17.991   -35.112
20.2909     20.283   -29.980
20.5860     22.343   -31.580
20.8855     23.876   -37.020
21.1893     24.742   -44.363
21.4975     25.047   -51.758
21.8102     24.816   -57.921
22.1274     24.112   -61.114
22.4492     23.202   -59.280
22.7758     22.663   -51.569
23.1071     23.219   -41.211
23.4432     24.714   -35.462
23.7841     26.172   -35.947
24.1301     27.143   -39.223
24.4811     27.611   -42.594
24.8372     27.739   -44.042
25.1984     27.853   -42.595
25.5649     28.315   -39.325
25.9368     29.187   -36.816
26.3141     30.206   -36.653
26.6968     31.075   -38.405
27.0851     31.683   -40.615
27.4791     32.107   -41.900
27.8788     32.560   -41.853
28.2843     33.189   -41.435
28.6957     33.952   -41.860
29.1131     34.683   -43.492
29.5365     35.253   -45.705
29.9661     35.655   -47.486
30.4020     36.002   -48.132
30.8442     36.471   -47.808
31.2929     37.096   -47.659
31.7480     37.778   -48.319
32.2098     38.402   -49.617
32.6783     38.918   -50.788
33.1536     39.425   -51.336
33.6359     40.018   -51.527
34.1251     40.716   -52.101
34.6215     41.418   -53.452
35.1250     42.038   -55.193
35.6359     42.571   -56.656
36.1543     43.110   -57.591
36.6802     43.725   -58.353
37.2137     44.398   -59.490
37.7550     45.055   -61.045
38.3041     45.659   -62.676
38.8613     46.254   -64.111
39.4265     46.878   -65.461
40.0000     47.526   -66.983
40.5818     48.169   -68.698
41.1721     48.800   -70.464
41.7710     49.435   -72.270
42.3785     50.071   -74.217
42.9949     50.691   -76.259
43.6203     51.297   -78.279
44.2548     51.910   -80.260
44.8985     52.533   -82.318
45.5515     53.153   -84.470
46.2141     53.768   -86.645
46.8863     54.391   -88.836
47.5683     55.021   -91.139
48.2602     55.648   -93.579
48.9621     56.263   -96.075
49.6743     56.875   -98.571
50.3968     57.496  -101.101
51.1299     58.121  -103.727
51.8736     58.747  -106.468
52.6281     59.368  -109.310
53.3936     59.984  -112.226
54.1702     60.598  -115.192
54.9581     61.215  -118.247
55.7575     61.830  -121.447
56.5685     62.432  -124.741
57.3914     63.029  -128.079
58.2261     63.625  -131.527
59.0730     64.209  -135.093
59.9323     64.781  -138.671
60.8040     65.361  -142.291
61.6884     65.941  -146.059
62.5857     66.517  -149.968
63.4960     67.089  -154.054
64.4196     67.642  -158.345
65.3566     68.165  -162.784
66.3073     68.657  -167.261
67.2717     69.131  -171.722
68.2502     69.597  -176.217
69.2429     70.045   179.232
70.2501     70.486   174.680
71.2719     70.929   170.007
72.3086     71.353   165.154
73.3603     71.747   160.189
74.4274     72.108   155.169
75.5099     72.446   150.175
76.6083     72.765   145.123
77.7226     73.052   140.085
78.8531     73.324   135.131
80.0000     73.584   130.124
81.1636     73.824   125.108
82.3442     74.045   120.044
83.5419     74.232   114.969
84.7570     74.392   109.992
85.9899     74.535   105.117
87.2406     74.672   100.295
88.5096     74.795    95.454
89.7970     74.897    90.589
91.1031     74.968    85.714
92.4282     74.992    80.922
93.7726     74.971    76.435
95.1366     74.948    72.440
96.5204     74.979    68.729
97.9243     75.048    64.857
99.3486     75.114    60.889
100.794     75.174    56.851
102.260     75.222    52.825
103.747     75.261    48.793
105.256     75.291    44.794
106.787     75.314    40.792
108.340     75.321    36.811
109.916     75.308    32.887
111.515     75.280    29.188
113.137     75.280    25.646
114.783     75.286    22.015
116.452     75.287    18.442
118.146     75.295    14.893
119.865     75.306    11.342
121.608     75.319     7.789
123.377     75.337     4.223
125.171     75.353     0.573
126.992     75.361    -3.117
128.839     75.358    -6.789
130.713     75.350   -10.567
132.615     75.291   -14.286
134.543     75.249   -17.603
136.500     75.258   -21.103
138.486     75.256   -24.468
140.500     75.221   -28.122
142.544     75.165   -31.838
144.617     75.130   -35.051
146.721     75.124   -38.179
148.855     75.145   -41.821
151.020     75.122   -45.657
153.217     75.081   -49.311
155.445     75.019   -52.991
157.706     74.907   -56.557
160.000     74.786   -59.524
162.327     74.791   -62.550
164.688     74.773   -65.730
167.084     74.808   -68.847
169.514     74.814   -73.752
171.980     74.508   -77.593
174.481     74.355   -79.670
177.019     74.331   -81.888
179.594     74.349   -84.663
182.206     74.342   -87.609
184.856     74.405   -90.591
187.545     74.461   -93.619
190.273     74.535   -97.018
193.041     74.585  -100.791
195.849     74.568  -104.407
198.697     74.558  -108.108
201.587     74.530  -111.828
204.520     74.477  -115.234
207.494     74.493  -118.452
210.512     74.541  -122.478
213.574     74.400  -127.213
216.681     74.189  -129.826
219.833     74.130  -132.252
223.030     74.170  -135.412
226.274     74.146  -139.028
229.565     74.018  -142.118
232.905     73.978  -144.563
236.292     74.036  -147.106
239.729     74.111  -150.372
243.216     74.107  -153.860
246.754     74.100  -156.663
250.343     74.179  -159.790
253.984     74.219  -163.403
257.678     74.222  -166.726
261.426     74.263  -170.225
265.229     74.240  -174.359
269.087     74.055  -177.330
273.001     74.060  -179.428
276.972     74.112   177.485
281.000     74.145   174.740
285.088     74.214   171.509
289.234     74.276   168.023
293.441     74.268   163.933
297.709     74.026   161.441
302.040     74.112   158.647
306.433     73.961   156.974
310.890     74.232   154.608
315.412     74.374   150.666
320.000     74.350   145.866
324.655     73.962   143.417
329.377     73.980   142.499
334.168     74.204   140.213
339.028     74.246   136.585
343.959     74.314   133.853
348.962     74.383   130.632
354.038     74.356   127.305
359.188     74.355   123.614
364.412     74.194   121.467
369.713     74.274   118.944
375.090     74.347   116.240
380.546     74.424   113.404
386.081     74.500   109.550
391.697     74.478   106.185
397.394     74.450   102.780
403.175     74.425    99.297
409.039     74.318    95.888
414.989     74.255    92.958
421.025     74.222    90.134
427.149     74.248    86.858
433.362     74.134    83.544
439.665     74.107    79.985
446.060     73.946    76.278
452.548     73.806    73.399
459.131     73.635    69.833
465.809     73.408    66.764
472.584     73.265    64.381
479.458     73.107    61.634
486.432     72.944    58.982
493.507     72.777    56.358
500.686     72.582    54.086
507.968     72.463    51.939
515.357     72.306    49.784
522.853     72.182    47.876
530.458     72.076    46.130
538.174     72.006    44.406
546.002     71.942    42.766
553.943     71.905    41.217
562.001     71.888    39.696
570.175     71.890    38.195
578.469     71.904    36.667
586.883     71.927    35.133
595.419     71.958    33.589
604.080     71.996    32.003
612.866     72.037    30.377
621.780     72.082    28.717
630.824     72.130    27.033
640.000     72.179    25.368
649.309     72.230    23.730
658.753     72.284    22.094
668.335     72.345    20.438
678.056     72.411    18.826
687.919     72.488    17.226
697.925     72.577    15.630
708.077     72.679    14.053
718.376     72.797    12.445
728.825     72.933    10.783
739.426     73.087     9.036
750.181     73.258     7.172
761.093     73.443     5.163
772.163     73.636     3.017
783.394     73.836     0.681
794.789     74.039    -1.902
806.349     74.235    -4.656
818.078     74.420    -7.621
829.977     74.588   -10.785
842.050     74.734   -14.135
854.298     74.853   -17.644
866.724     74.940   -21.232
879.330     74.993   -24.972
892.120     75.008   -28.771
905.097     74.983   -32.586
918.262     74.918   -36.371
931.618     74.813   -40.076
945.169     74.670   -43.651
958.917     74.494   -47.046
972.864     74.290   -50.213
987.015     74.066   -53.116
1001.37     73.826   -55.762
1015.94     73.590   -58.109
1030.71     73.372   -60.160
1045.71     73.177   -62.018
1060.92     73.014   -63.758
1076.35     72.888   -65.434
1092.00     72.792   -67.160
1107.89     72.717   -69.031
1124.00     72.648   -71.066
1140.35     72.571   -73.261
1156.94     72.470   -75.593
1173.77     72.334   -77.948
1190.84     72.156   -80.200
1208.16     71.939   -82.200
1225.73     71.693   -83.805
1243.56     71.440   -84.859
1261.65     71.222   -85.261
1280.00     71.085   -85.055
1298.62     71.076   -84.449
1317.51     71.222   -83.798
1336.67     71.526   -83.538
1356.11     71.952   -84.041
1375.84     72.451   -85.528
1395.85     72.971   -88.050
1416.15     73.462   -91.502
1436.75     73.893   -95.724
1457.65     74.250  -100.584
1478.85     74.519  -105.920
1500.36     74.696  -111.537
1522.19     74.783  -117.351
1544.33     74.784  -123.256
1566.79     74.703  -129.167
1589.58     74.550  -135.022
1612.70     74.330  -140.739
1636.16     74.048  -146.346
1659.95     73.705  -151.831
1684.10     73.297  -157.173
1708.60     72.818  -162.328
1733.45     72.264  -167.162
1758.66     71.622  -171.586
1784.24     70.902  -175.334
1810.19     70.137  -178.119
1836.52     69.372  -179.761
1863.24     68.695   179.765
1890.34     68.196  -179.916
1917.83     67.910  -179.545
1945.73     67.796  -179.889
1974.03     67.750   178.647
2002.74     67.667   176.156
2031.87     67.477   173.088
2061.43     67.165   170.030
2091.41     66.775   167.470
2121.83     66.400   165.594
2152.69     66.137   164.059
2184.01     66.011   162.036
2215.77     65.945   158.752
2248.00     65.801   153.959
2280.70     65.438   148.011
2313.87     64.756   141.668
2347.53     63.716   136.081
2381.68     62.394   132.708
2416.32     61.041   132.733
2451.46     60.092   135.627
2487.12     59.784   138.081
2523.30     59.822   136.812
2560.00     59.718   131.312
2597.24     59.159   122.773
2635.01     57.988   112.425
2673.34     56.108   101.121
2712.23     53.392    89.085
2751.68     49.579    75.010
2791.70     44.249    51.836
2832.31     39.828    -3.472
2873.50     42.989   -57.170
2915.30     47.090   -76.826
2957.70     49.884   -85.935
3000.72     51.821   -92.013
3044.37     53.140   -96.785
3088.65     53.932  -100.272
3133.58     54.276  -101.451
3179.16     54.412   -98.730
3225.40     54.872   -91.698
3272.31     56.135   -83.748
3319.91     57.981   -79.422
3368.20     59.826   -79.552
3417.19     61.339   -82.278
3466.89     62.506   -85.624
3517.32     63.473   -88.413
3568.48     64.424   -90.569
3620.39     65.457   -92.987
3673.05     66.510   -96.570
3726.47     67.435  -101.373
3780.67     68.144  -106.721
3835.67     68.651  -111.806
3891.46     69.041  -116.197
3948.06     69.401  -119.934
4005.49     69.772  -123.326
4063.75     70.161  -126.684
4122.86     70.552  -130.211
4182.82     70.905  -134.043
4243.66     71.173  -138.057
4305.39     71.341  -141.774
4368.01     71.473  -144.855
4431.55     71.652  -147.518
4496.01     71.887  -150.351
4561.40     72.111  -153.660
4627.75     72.260  -157.295
4695.06     72.306  -160.973
4763.35     72.236  -164.340
4832.64     72.072  -166.888
4902.93     71.917  -168.296
4974.24     71.884  -169.009
5046.60     71.967  -169.858
5120.00     72.078  -171.037
5194.47     72.197  -172.259
5270.03     72.354  -173.608
5346.68     72.517  -175.368
5424.45     72.637  -177.422
5503.35     72.713  -179.561
5583.40     72.741   178.133
5664.61     72.662   175.771
5747.01     72.454   173.980
5830.60     72.189   173.369
5915.41     71.993   174.069
6001.45     71.992   175.577
6088.74     72.223   176.775
6177.30     72.568   176.799
6267.15     72.888   175.804
6358.31     73.143   174.153
6450.80     73.281   172.087
6544.62     73.289   170.364
6639.82     73.279   169.313
6736.40     73.303   168.579
6834.38     73.388   167.912
6933.79     73.513   166.686
7034.64     73.569   164.784
7136.96     73.468   162.589
7240.77     73.175   161.177
7346.09     72.888   161.195
7452.94     72.682   161.556
7561.35     72.467   162.216
7671.33     72.254   163.184
7782.91     71.880   164.616
7896.12     71.391   169.361
8010.97     71.301   178.157
8127.49     72.556  -169.351
8245.71     75.509  -169.631
8365.65     76.947   175.604
8487.33     76.465   162.810
8610.78     75.409   155.883
8736.03     74.089   152.827
8863.09     72.796   154.960
8992.01     72.228   160.103
9122.80     72.045   161.838
9255.50     71.503   164.262
9390.12     71.382   168.804
9526.70     71.662   171.626
9665.27     71.961   171.769
9805.86     72.033   171.389
9948.49     72.040   171.644
10093.2     72.149   172.798
10240.0     72.464   172.898
10388.9     72.546   172.342
10540.1     72.735   172.802
10693.4     72.985   171.830
10848.9     72.900   169.822
11006.7     72.611   170.321
11166.8     72.504   172.161
11329.2     72.589   174.706
11494.0     73.123   176.322
11661.2     73.437   174.365
11830.8     73.545   173.108
12002.9     73.446   171.887
12177.5     73.446   172.336
12354.6     73.607   171.235
12534.3     73.439   169.297
12716.6     73.196   169.332
12901.6     73.118   168.879
13089.2     72.840   167.928
13279.6     72.388   168.263
13472.8     72.042   170.557
13668.8     72.039   172.838
13867.6     72.125   172.960
14069.3     71.928   171.504
14273.9     71.181   171.005
14481.5     70.434   176.650
14692.2     70.766  -176.995
14905.9     71.441  -176.655
15122.7     71.452   178.934
15342.7     70.349   176.541
15565.8     69.198  -175.701
15792.2     69.787  -166.502
16021.9     70.720  -167.401
16255.0     70.562  -172.254
16491.4     69.607  -172.812
16731.3     68.902  -168.406
16974.7     68.851  -164.079
17221.6     68.762  -164.002
17472.1     67.845  -162.873
17726.2     67.034  -156.604
17984.0     66.755  -147.141
18245.6     67.441  -139.562
18511.0     68.185  -138.022
18780.2     68.417  -139.307
19053.4     68.075  -139.011
19330.5     67.883  -135.019
19611.7     68.528  -132.287
19897.0     68.829  -141.873
20186.4     66.663  -142.079
20480.0     65.946  -133.786
20777.9     65.650  -128.265
21080.1     65.680  -123.558
21386.7     65.435  -121.606
21697.8     65.152  -116.889
22013.4     65.308  -114.198
22333.6     65.041  -114.662
22658.4     64.306  -112.912
22988.0     63.821  -109.748
23322.4     63.115  -108.129
23661.6     62.096  -104.412
24005.8     61.086   -98.229
24355.0     60.208   -89.359
24709.2     59.800   -78.932
25068.6     59.924   -69.046
25433.2     60.191   -62.773
25803.2     60.377   -56.421
26178.5     60.871   -51.612
26559.3     61.486   -49.272
26945.6     62.381   -51.223
27337.5     57.639   -75.900
27735.2     56.714   -25.023
28138.6     58.484   -13.795
28547.9     59.627    -4.692
28963.1     60.876     4.599
29384.4     62.517    11.611
29811.8     64.516    12.444
30245.4     65.483     8.778
30685.3     65.995     7.311
31131.7     66.633     7.180
31584.5     67.464     4.799
32043.9     68.166    -0.704
32510.0     68.478    -9.432
32982.8     68.377   -18.856
33462.6     67.929   -31.572
33949.3     65.986   -43.733
34443.1     65.210   -47.307
34944.1     63.233   -64.726
35452.4     60.067   -72.899
35968.0     56.550   -78.613
36491.2     52.910   -74.078
37022.0     50.270   -70.971
37560.5     47.269   -68.545
38106.8     43.555   -69.050
38661.1     37.339   -51.506
39223.4     36.885   -11.477
39793.9     39.908    25.148
