Freq[Hz]     dBSPL  Phase[Deg]
5.00000     15.541  -153.154
5.07273     15.575  -152.574
5.14651     15.615  -152.078
5.22137     15.669  -151.818
5.29732     15.722  -151.557
5.37437     15.776  -151.297
5.45254     15.829  -151.037
5.53185     15.863  -150.935
5.61231     15.876  -151.002
5.69394     15.889  -151.069
5.77676     15.902  -151.136
5.86079     15.914  -151.203
5.94604     15.843  -151.225
6.03252     15.773  -151.247
6.12027     15.702  -151.269
6.20929     15.632  -151.291
6.29961     15.514  -150.803
6.39124     15.387  -150.200
6.48420     15.259  -149.598
6.57851     15.131  -148.996
6.67420     15.059  -147.659
6.77128     14.996  -146.202
6.86977     14.933  -144.746
6.96969     14.891  -143.291
7.07107     15.005  -141.847
7.17392     15.119  -140.403
7.27827     15.232  -138.959
7.38413     15.394  -138.175
7.49154     15.593  -137.899
7.60050     15.792  -137.624
7.71105     15.970  -137.572
7.82321     16.055  -138.497
7.93701     16.141  -139.421
8.05245     16.226  -140.346
8.16958     16.068  -141.489
8.28841     15.901  -142.639
8.40896     15.734  -143.790
8.53128     15.330  -143.529
8.65537     14.895  -143.085
8.78126     14.460  -142.642
8.90899     14.131  -138.694
9.03857     13.809  -134.517
9.17004     13.578  -130.260
9.30342     14.068  -125.358
9.43874     14.558  -120.456
9.57603     15.208  -117.464
9.71532     16.102  -117.390
9.85663     16.997  -117.315
10.0000     17.663  -120.503
10.1455     18.266  -124.600
10.2930     18.747  -129.355
10.4427     18.886  -135.947
10.5946     19.026  -142.540
10.7487     18.754  -150.556
10.9051     18.400  -158.857
11.0637     17.734  -167.915
11.2246     16.737  -177.773
11.3879     15.513   171.864
11.5535     13.460   159.660
11.7216     11.360   147.259
11.8921      6.519   123.267
12.0650      1.677    99.276
12.2405      2.655    35.029
12.4186      4.384   -34.409
12.5992      7.148   -63.544
12.7825     10.141   -83.741
12.9684     11.624  -101.942
13.1570     12.756  -119.680
13.3484     13.311  -139.173
13.5426     13.772  -158.951
13.7395     14.200   179.196
13.9394     14.660   157.339
14.1421     15.377   136.050
14.3478     16.131   115.850
14.5565     16.963    97.989
14.7683     17.706    82.398
14.9831     18.382    68.559
15.2010     18.864    57.923
15.4221     19.291    48.458
15.6464     19.622    41.734
15.8740     19.991    36.358
16.1049     20.390    32.058
16.3392     20.941    28.469
16.5768     21.521    24.613
16.8179     22.133    20.334
17.0626     22.632    15.078
17.3107     23.011     9.413
17.5625     23.227     3.315
17.8180     23.111    -2.838
18.0771     22.759    -8.615
18.3401     22.145   -13.807
18.6068     21.086   -17.250
18.8775     19.613   -17.297
19.1521     17.946   -12.086
19.4306     16.360     0.079
19.7133     16.612    21.214
20.0000     18.497    35.014
20.2909     20.781    41.145
20.5860     22.833    40.556
20.8855     24.357    36.139
21.1893     25.213    29.837
21.4975     25.509    23.498
21.8102     25.268    18.403
22.1274     24.554    16.293
22.4492     23.634    19.225
22.7758     23.084    28.048
23.1071     23.631    39.534
23.4432     25.115    46.425
23.7841     26.562    47.100
24.1301     27.522    44.999
24.4811     27.978    42.819
24.8372     28.095    42.578
25.1984     28.198    45.249
25.5649     28.648    49.758
25.9368     29.508    53.524
26.3141     30.514    54.960
26.6968     31.371    54.500
27.0851     31.967    53.597
27.4791     32.378    53.639
27.8788     32.817    55.030
28.2843     33.432    56.811
28.6957     34.181    57.767
29.1131     34.898    57.533
29.5365     35.455    56.739
29.9661     35.843    56.394
30.4020     36.174    57.204
30.8442     36.630    59.004
31.2929     37.239    60.650
31.7480     37.907    61.506
32.2098     38.515    61.743
32.6783     39.015    62.130
33.1536     39.507    63.160
33.6359     40.084    64.567
34.1251     40.766    65.613
34.6215     41.451    65.906
35.1250     42.055    65.828
35.6359     42.571    66.053
36.1543     43.092    66.827
36.6802     43.691    67.797
37.2137     44.347    68.415
37.7550     44.986    68.639
38.3041     45.572    68.812
38.8613     46.150    69.204
39.4265     46.756    69.707
40.0000     47.386    70.061
40.5818     48.010    70.249
41.1721     48.622    70.410
41.7710     49.239    70.558
42.3785     49.856    70.592
42.9949     50.457    70.557
43.6203     51.045    70.571
44.2548     51.639    70.652
44.8985     52.242    70.684
45.5515     52.843    70.650
46.2141     53.439    70.621
46.8863     54.042    70.606
47.5683     54.653    70.509
48.2602     55.260    70.306
48.9621     55.855    70.076
49.6743     56.448    69.878
50.3968     57.049    69.676
51.1299     57.654    69.411
51.8736     58.260    69.063
52.6281     58.861    68.647
53.3936     59.457    68.190
54.1702     60.051    67.717
54.9581     60.648    67.190
55.7575     61.243    66.553
56.5685     61.825    65.858
57.3914     62.403    65.153
58.2261     62.979    64.376
59.0730     63.542    63.519
59.9323     64.095    62.687
60.8040     64.654    61.851
61.6884     65.216    60.906
62.5857     65.772    59.859
63.4960     66.323    58.677
64.4196     66.858    57.329
65.3566     67.361    55.876
66.3073     67.834    54.425
67.2717     68.289    53.035
68.2502     68.735    51.652
69.2429     69.164    50.259
70.2501     69.586    48.908
71.2719     70.010    47.484
72.3086     70.414    45.924
73.3603     70.790    44.300
74.4274     71.134    42.668
75.5099     71.452    41.110
76.6083     71.754    39.545
77.7226     72.021    38.042
78.8531     72.275    36.675
80.0000     72.519    35.306
81.1636     72.740    33.980
82.3442     72.944    32.660
83.5419     73.114    31.382
84.7570     73.256    30.258
85.9899     73.382    29.290
87.2406     73.502    28.432
88.5096     73.608    27.612
89.7970     73.693    26.827
91.1031     73.747    26.091
92.4282     73.755    25.498
93.7726     73.718    25.270
95.1366     73.679    25.597
96.5204     73.694    26.271
97.9243     73.748    26.847
99.3486     73.798    27.392
100.794     73.842    27.932
102.260     73.875    28.552
103.747     73.899    29.233
105.256     73.914    30.017
106.787     73.923    30.867
108.340     73.914    31.808
109.916     73.888    32.879
111.515     73.845    34.247
113.137     73.830    35.847
114.783     73.822    37.433
116.452     73.809    39.152
118.146     73.802    40.975
119.865     73.800    42.874
121.608     73.800    44.849
123.377     73.804    46.893
125.171     73.807    48.936
126.992     73.801    51.022
128.839     73.786    53.209
130.713     73.763    55.377
132.615     73.692    57.692
134.543     73.637    60.620
136.500     73.633    63.513
138.486     73.618    65.960
140.500     73.571    68.700
142.544     73.501    71.960
144.617     73.454    75.143
146.721     73.436    78.411
148.855     73.444    81.747
151.020     73.408    84.890
153.217     73.354    88.215
155.445     73.280    91.516
157.706     73.156    94.930
160.000     73.022    99.526
162.327     73.014   104.064
164.688     72.984   107.867
167.084     73.006   112.314
169.514     72.998   115.557
171.980     72.680   119.864
174.481     72.515   125.353
177.019     72.478   130.702
179.594     72.483   136.076
182.206     72.463   141.863
184.856     72.511   147.613
187.545     72.555   152.736
190.273     72.615   158.070
193.041     72.651   163.030
195.849     72.620   168.148
198.697     72.596   173.763
201.587     72.553   179.359
204.520     72.486  -174.730
207.494     72.487  -168.632
210.512     72.520  -162.758
213.574     72.363  -157.594
216.681     72.136  -150.891
219.833     72.062  -143.418
223.030     72.086  -136.098
226.274     72.045  -129.234
229.565     71.899  -121.844
232.905     71.842  -113.809
236.292     71.881  -105.873
239.729     71.938   -98.078
243.216     71.915   -90.505
246.754     71.888   -82.249
250.343     71.946   -73.736
253.984     71.965   -65.708
257.678     71.946   -57.392
261.426     71.964   -48.671
265.229     71.917   -40.587
269.087     71.707   -31.340
273.001     71.688   -21.222
276.972     71.714   -12.094
281.000     71.718    -2.043
285.088     71.758     8.102
289.234     71.789    17.989
293.441     71.750    27.271
297.709     71.476    38.150
302.040     71.528    48.724
306.433     71.340    60.999
310.890     71.572    73.161
315.412     71.674    83.745
320.000     71.607    93.469
324.655     71.175   105.542
329.377     71.148   119.145
334.168     71.320   132.541
339.028     71.307   144.594
343.959     71.320   157.543
348.962     71.330   170.001
354.038     71.241  -177.645
359.188     71.173  -165.073
364.412     70.938  -150.374
369.713     70.942  -136.047
375.090     70.934  -121.894
380.546     70.924  -107.287
386.081     70.908   -93.688
391.697     70.785   -79.004
397.394     70.647   -63.761
403.175     70.510   -49.158
409.039     70.282   -33.873
414.989     70.086   -17.491
421.025     69.915    -0.962
427.149     69.795    15.162
433.362     69.529    31.305
439.665     69.335    48.454
446.060     69.000    65.538
452.548     68.683    83.549
459.131     68.327   101.581
465.809     67.909   120.844
472.584     67.579   140.932
479.458     67.242   160.805
486.432     66.910  -178.464
493.507     66.588  -156.943
500.686     66.261  -134.322
507.968     66.045  -111.485
515.357     65.827   -88.619
522.853     65.681   -64.904
530.458     65.592   -40.496
538.174     65.576   -16.227
546.002     65.594     7.914
553.943     65.662    32.503
562.001     65.764    57.442
570.175     65.888    82.703
578.469     66.019   108.237
586.883     66.143   133.494
595.419     66.250   158.505
604.080     66.335  -176.155
612.866     66.391  -150.455
621.780     66.411  -124.359
630.824     66.388   -97.822
640.000     66.320   -71.326
649.309     66.205   -44.817
658.753     66.038   -17.710
668.335     65.812    10.598
678.056     65.533    39.113
687.919     65.199    68.459
697.925     64.811    98.734
708.077     64.385   129.494
718.376     63.927   161.400
728.825     63.457  -165.430
739.426     63.005  -130.918
750.181     62.611   -95.045
761.093     62.318   -57.918
772.163     62.167   -20.407
783.394     62.171    17.757
794.789     62.327    56.811
806.349     62.598    95.207
818.078     62.943   133.381
829.977     63.315   171.300
842.050     63.676  -150.993
854.298     63.996  -113.374
866.724     64.251   -76.264
879.330     64.435   -38.411
892.120     64.537    -0.225
905.097     64.551    38.434
918.262     64.478    77.706
931.618     64.322   117.734
945.169     64.090   158.659
958.917     63.799  -159.381
972.864     63.469  -116.270
987.015     63.129   -71.926
1001.37     62.810   -25.760
1015.94     62.558    21.547
1030.71     62.406    69.170
1045.71     62.362   117.986
1060.92     62.415   167.677
1076.35     62.532  -143.178
1092.00     62.671   -94.089
1107.89     62.791   -44.469
1124.00     62.855     5.221
1140.35     62.838    55.155
1156.94     62.723   106.110
1173.77     62.506   157.763
1190.84     62.193  -149.634
1208.16     61.804   -95.832
1225.73     61.371   -40.027
1243.56     60.949    17.930
1261.65     60.612    77.411
1280.00     60.422   138.109
1298.62     60.411  -160.481
1317.51     60.570   -98.303
1336.67     60.848   -35.766
1356.11     61.180    26.372
1375.84     61.511    88.732
1395.85     61.802   151.451
1416.15     62.025  -145.874
1436.75     62.170   -83.084
1457.65     62.231   -19.510
1478.85     62.200    44.928
1500.36     62.065   109.742
1522.19     61.811   175.569
1544.33     61.415  -117.459
1566.79     60.849   -49.121
1589.58     60.090    20.939
1612.70     59.136    92.699
1636.16     58.008   167.502
1659.95     56.824  -113.748
1684.10     55.839   -30.562
1708.60     55.374    55.960
1733.45     55.524   142.487
1758.66     56.044  -131.829
1784.24     56.596   -47.771
1810.19     56.979    35.121
1836.52     57.151   119.289
1863.24     57.176  -154.828
1890.34     57.197   -66.732
1917.83     57.377    23.219
1945.73     57.792   113.904
1974.03     58.361  -155.235
2002.74     58.911   -65.240
2031.87     59.276    24.203
2061.43     59.348   113.817
2091.41     59.066  -154.924
2121.83     58.412   -60.895
2152.69     57.459    36.149
2184.01     56.419   138.813
2215.77     55.745  -112.651
2248.00     55.850    -1.668
2280.70     56.581   107.742
2313.87     57.437  -145.087
2347.53     58.053   -38.895
2381.68     58.304    67.661
2416.32     58.248   177.012
2451.46     58.122   -69.457
2487.12     58.310    48.053
2523.30     59.052   167.010
2560.00     60.159   -75.370
2597.24     61.232    39.751
2635.01     62.010   154.037
2673.34     62.398   -91.043
2712.23     62.416    25.838
2751.68     62.172   146.253
2791.70     61.842   -89.919
2832.31     61.598    36.895
2873.50     61.502   165.679
2915.30     61.492   -64.343
2957.70     61.477    67.270
3000.72     61.415  -159.860
3044.37     61.291   -25.651
3088.65     61.069   110.495
3133.58     60.697  -111.618
3179.16     60.188    29.387
3225.40     59.693   174.141
3272.31     59.436   -38.593
3319.91     59.444   109.896
3368.20     59.483  -101.493
3417.19     59.319    47.365
3466.89     58.924  -161.536
3517.32     58.453    -6.901
3568.48     58.059   149.512
3620.39     57.696   -52.806
3673.05     57.205   106.635
3726.47     56.516   -91.859
3780.67     55.684    72.482
3835.67     54.788  -120.046
3891.46     53.895    51.523
3948.06     53.198  -133.074
4005.49     52.902    44.785
4063.75     52.846  -135.797
4122.86     52.683    44.737
4182.82     52.467  -131.143
4243.66     52.613    57.375
4305.39     53.078  -114.136
4368.01     53.308    74.534
4431.55     53.086   -93.495
4496.01     52.718   103.921
4561.40     52.512   -54.242
4627.75     52.423   150.849
4695.06     52.483    -0.280
4763.35     52.713  -149.810
4832.64     52.727    61.592
4902.93     52.321   -82.618
4974.24     51.917   139.503
5046.60     51.818     5.108
5120.00     51.798  -126.534
5194.47     51.802   105.186
5270.03     51.781   -20.450
5346.68     51.744  -141.381
5424.45     52.138   102.042
5503.35     52.684   -14.891
5583.40     52.739  -130.039
5664.61     52.633   120.299
5747.01     52.604    12.864
5830.60     52.195   -92.958
5915.41     51.305   165.681
6001.45     49.660    68.389
6088.74     47.221   -17.410
6177.30     46.024   -89.613
6267.15     45.916  -163.030
6358.31     45.919   124.313
6450.80     45.844    49.742
6544.62     44.688   -21.328
6639.82     43.538   -83.490
6736.40     42.168  -141.083
6834.38     41.121   172.880
6933.79     41.286   128.448
7034.64     41.484    86.424
7136.96     41.821    45.661
7240.77     42.110    12.810
7346.09     43.404   -20.023
7452.94     43.625   -54.760
7561.35     43.487   -81.409
7671.33     43.300  -104.068
7782.91     43.270  -125.710
7896.12     42.370  -147.731
8010.97     42.002  -162.218
8127.49     42.394   176.022
8245.71     41.598   161.156
8365.65     41.218   164.051
8487.33     42.019  -176.807
8610.78     43.694  -157.297
8736.03     44.606  -129.896
8863.09     45.643  -101.732
8992.01     45.155   -67.038
9122.80     44.738   -22.647
9255.50     44.811    26.190
9390.12     44.421    75.798
9526.70     43.938   135.672
9665.27     43.247  -162.000
9805.86     42.329   -83.887
9948.49     41.674    -4.349
10093.2     39.069    94.838
10240.0     40.318  -149.171
10388.9     42.193   -47.110
10540.1     43.575    57.325
10693.4     44.355   163.605
10848.9     44.404   -74.566
11006.7     45.077    61.046
11166.8     46.354  -161.117
11329.2     46.074   -16.371
11494.0     46.387   146.262
11661.2     47.325   -58.584
11830.8     47.044   104.270
12002.9     46.808   -85.984
12177.5     46.606    90.297
12354.6     46.137   -85.993
12534.3     45.131   109.484
12716.6     43.319   -37.418
12901.6     43.145  -172.426
13089.2     43.208    53.504
13279.6     42.639   -74.677
13472.8     41.934   169.001
13668.8     41.294    63.942
13867.6     40.992   -34.492
14069.3     40.594  -124.162
14273.9     39.933   152.735
14481.5     39.647    82.784
14692.2     39.489    19.629
14905.9     39.037   -34.092
15122.7     38.310   -77.453
15342.7     36.742  -114.493
15565.8     34.452  -133.754
15792.2     32.930  -142.814
16021.9     31.180  -152.146
16255.0     26.202  -139.158
16491.4     24.519   -93.159
16731.3     24.895   -59.496
16974.7     24.534   -16.901
17221.6     23.404    61.472
17472.1     26.906   142.412
17726.2     29.374  -142.283
17984.0     30.012   -55.909
18245.6     30.410    40.173
18511.0     30.715   139.042
18780.2     30.394  -104.748
19053.4     29.476    30.433
19330.5     27.882  -178.960
19611.7     26.594   -17.697
19897.0     24.264   154.840
20186.4     25.742   -18.263
20480.0     26.021   169.205
20777.9     25.408    10.573
21080.1     24.960  -132.572
21386.7     24.782    93.810
21697.8     23.662   -28.492
22013.4     22.120  -131.410
22333.6     21.081   151.413
22658.4     21.814    92.260
22988.0     21.704    29.294
23322.4     20.474   -19.646
23661.6     18.633   -56.183
24005.8     14.495   -76.388
24355.0     12.594   -70.679
24709.2      3.519   -22.808
25068.6      7.272   105.830
25433.2     12.257   176.430
25803.2     17.440  -118.799
26178.5     20.480   -32.398
26559.3     20.486    73.632
26945.6     21.710  -176.510
27337.5     18.281   143.953
27735.2     19.952   133.982
28138.6     19.638   -53.837
28547.9     18.519   143.649
28963.1     13.018   -11.400
29384.4     10.012  -157.084
29811.8     12.273    95.948
30245.4      8.576   -16.947
30685.3     12.577   124.478
31131.7     16.777    46.390
31584.5     18.265     4.105
32043.9     18.297   -18.531
32510.0     19.992   -15.861
32982.8     20.531     6.586
33462.6     19.140    56.138
33949.3     19.208   123.585
34443.1     22.087  -166.125
34944.1     16.224   -86.783
35452.4     14.513    14.739
35968.0     13.956   174.005
36491.2      4.520   -28.853
37022.0      5.512   164.037
37560.5      9.520    46.475
38106.8      1.787   -22.890
38661.1      8.166  -132.118
39223.4      9.503   172.077
39793.9     10.240    89.343
