Freq[Hz]     dBSPL  Phase[Deg]
5.00000     14.773  -153.452
5.07273     14.808  -152.876
5.14651     14.848  -152.385
5.22137     14.902  -152.129
5.29732     14.955  -151.873
5.37437     15.009  -151.617
5.45254     15.062  -151.361
5.53185     15.096  -151.265
5.61231     15.109  -151.337
5.69394     15.122  -151.408
5.77676     15.135  -151.480
5.86079     15.147  -151.551
5.94604     15.077  -151.579
6.03252     15.006  -151.606
6.12027     14.936  -151.633
6.20929     14.866  -151.661
6.29961     14.749  -151.177
6.39124     14.621  -150.580
6.48420     14.493  -149.984
6.57851     14.366  -149.387
6.67420     14.294  -148.055
6.77128     14.231  -146.604
6.86977     14.168  -145.153
6.96969     14.126  -143.704
7.07107     14.240  -142.266
7.17392     14.354  -140.828
7.27827     14.468  -139.390
7.38413     14.630  -138.612
7.49154     14.830  -138.343
7.60050     15.029  -138.074
7.71105     15.207  -138.028
7.82321     15.292  -138.959
7.93701     15.378  -139.891
8.05245     15.463  -140.822
8.16958     15.305  -141.971
8.28841     15.139  -143.129
8.40896     14.972  -144.286
8.53128     14.568  -144.032
8.65537     14.133  -143.596
8.78126     13.699  -143.159
8.90899     13.370  -139.219
9.03857     13.048  -135.050
9.17004     12.817  -130.799
9.30342     13.307  -125.905
9.43874     13.798  -121.011
9.57603     14.448  -118.027
9.71532     15.343  -117.960
9.85663     16.238  -117.894
10.0000     16.905  -121.090
10.1455     17.508  -125.195
10.2930     17.989  -129.958
10.4427     18.129  -136.559
10.5946     18.269  -143.159
10.7487     17.997  -151.184
10.9051     17.644  -159.494
11.0637     16.978  -168.560
11.2246     15.982  -178.428
11.3879     14.758   171.200
11.5535     12.705   158.987
11.7216     10.606   146.577
11.8921      5.765   122.576
12.0650      0.924    98.575
12.2405      1.903    34.319
12.4186      3.632   -35.129
12.5992      6.397   -64.273
12.7825      9.390   -84.480
12.9684     10.874  -102.692
13.1570     12.006  -120.439
13.3484     12.562  -139.942
13.5426     13.024  -159.731
13.7395     13.452   178.406
13.9394     13.913   156.538
14.1421     14.631   135.238
14.3478     15.385   115.027
14.5565     16.217    97.156
14.7683     16.962    81.554
14.9831     17.638    67.704
15.2010     18.121    57.057
15.4221     18.549    47.580
15.6464     18.881    40.844
15.8740     19.250    35.456
16.1049     19.650    31.145
16.3392     20.202    27.544
16.5768     20.783    23.677
16.8179     21.396    19.385
17.0626     21.896    14.118
17.3107     22.275     8.440
17.5625     22.493     2.330
17.8180     22.378    -3.836
18.0771     22.027    -9.625
18.3401     21.414   -14.830
18.6068     20.356   -18.286
18.8775     18.884   -18.345
19.1521     17.219   -13.148
19.4306     15.633    -0.996
19.7133     15.887    20.126
20.0000     17.773    33.913
20.2909     20.058    40.030
20.5860     22.111    39.427
20.8855     23.636    34.998
21.1893     24.494    28.682
21.4975     24.791    22.328
21.8102     24.551    17.220
22.1274     23.839    15.096
22.4492     22.920    18.013
22.7758     22.372    26.823
23.1071     22.920    38.294
23.4432     24.406    45.172
23.7841     25.854    45.831
24.1301     26.815    43.717
24.4811     27.274    41.522
24.8372     27.392    41.266
25.1984     27.496    43.923
25.5649     27.948    48.417
25.9368     28.810    52.169
26.3141     29.818    53.590
26.6968     30.677    53.115
27.0851     31.275    52.198
27.4791     31.687    52.224
27.8788     32.128    53.600
28.2843     32.746    55.366
28.6957     33.497    56.308
29.1131     34.216    56.059
29.5365     34.775    55.250
29.9661     35.165    54.891
30.4020     35.498    55.685
30.8442     35.956    57.471
31.2929     36.568    59.101
31.7480     37.238    59.942
32.2098     37.848    60.165
32.6783     38.351    60.537
33.1536     38.845    61.552
33.6359     39.425    62.945
34.1251     40.108    63.976
34.6215     40.796    64.254
35.1250     41.403    64.161
35.6359     41.922    64.372
36.1543     42.446    65.132
36.6802     43.046    66.087
37.2137     43.705    66.691
37.7550     44.347    66.901
38.3041     44.936    67.060
38.8613     45.517    67.438
39.4265     46.126    67.927
40.0000     46.759    68.267
40.5818     47.385    68.441
41.1721     48.001    68.589
41.7710     48.621    68.723
42.3785     49.241    68.744
42.9949     49.845    68.696
43.6203     50.436    68.697
44.2548     51.034    68.765
44.8985     51.640    68.785
45.5515     52.244    68.738
46.2141     52.843    68.697
46.8863     53.449    68.670
47.5683     54.064    68.561
48.2602     54.674    68.345
48.9621     55.273    68.104
49.6743     55.869    67.894
50.3968     56.473    67.682
51.1299     57.082    67.405
51.8736     57.691    67.046
52.6281     58.296    66.619
53.3936     58.895    66.152
54.1702     59.493    65.669
54.9581     60.093    65.131
55.7575     60.692    64.485
56.5685     61.277    63.780
57.3914     61.859    63.066
58.2261     62.438    62.279
59.0730     63.006    61.412
59.9323     63.562    60.572
60.8040     64.124    59.726
61.6884     64.689    58.774
62.5857     65.250    57.718
63.4960     65.805    56.527
64.4196     66.343    55.171
65.3566     66.849    53.710
66.3073     67.326    52.252
67.2717     67.785    50.854
68.2502     68.235    49.465
69.2429     68.667    48.064
70.2501     69.093    46.707
71.2719     69.521    45.276
72.3086     69.928    43.709
73.3603     70.308    42.078
74.4274     70.655    40.440
75.5099     70.978    38.876
76.6083     71.282    37.305
77.7226     71.554    35.796
78.8531     71.811    34.423
80.0000     72.058    33.048
81.1636     72.284    31.717
82.3442     72.491    30.391
83.5419     72.664    29.107
84.7570     72.810    27.978
85.9899     72.940    27.005
87.2406     73.063    26.141
88.5096     73.173    25.317
89.7970     73.262    24.527
91.1031     73.319    23.785
92.4282     73.331    23.187
93.7726     73.297    22.955
95.1366     73.262    23.277
96.5204     73.280    23.945
97.9243     73.337    24.516
99.3486     73.391    25.056
100.794     73.438    25.592
102.260     73.475    26.207
103.747     73.503    26.882
105.256     73.521    27.661
106.787     73.533    28.505
108.340     73.528    29.441
109.916     73.505    30.507
111.515     73.465    31.870
113.137     73.454    33.464
114.783     73.449    35.045
116.452     73.440    36.758
118.146     73.437    38.575
119.865     73.438    40.467
121.608     73.440    42.437
123.377     73.448    44.474
125.171     73.454    46.510
126.992     73.452    48.590
128.839     73.439    50.770
130.713     73.421    52.932
132.615     73.353    55.239
134.543     73.302    58.160
136.500     73.301    61.045
138.486     73.289    63.485
140.500     73.245    66.216
142.544     73.179    69.467
144.617     73.136    72.641
146.721     73.120    75.901
148.855     73.132    79.228
151.020     73.100    82.361
153.217     73.050    85.677
155.445     72.979    88.968
157.706     72.858    92.372
160.000     72.728    96.957
162.327     72.724   101.483
164.688     72.697   105.276
167.084     72.723   109.712
169.514     72.719   112.941
171.980     72.404   117.236
174.481     72.243   122.713
177.019     72.210   128.050
179.594     72.219   133.410
182.206     72.202   139.182
184.856     72.255   144.917
187.545     72.302   150.026
190.273     72.366   155.345
193.041     72.407   160.289
195.849     72.380   165.391
198.697     72.360   170.988
201.587     72.322   176.567
204.520     72.259  -177.541
207.494     72.264  -171.461
210.512     72.302  -165.607
213.574     72.150  -160.464
216.681     71.927  -153.780
219.833     71.858  -146.328
223.030     71.887  -139.030
226.274     71.851  -132.189
229.565     71.710  -124.823
232.905     71.658  -116.812
236.292     71.703  -108.901
239.729     71.765  -101.132
243.216     71.748   -93.586
246.754     71.727   -85.358
250.343     71.791   -76.874
253.984     71.816   -68.877
257.678     71.804   -60.592
261.426     71.828   -51.904
265.229     71.788   -43.854
269.087     71.585   -34.642
273.001     71.573   -24.560
276.972     71.606   -15.469
281.000     71.619    -5.458
285.088     71.667     4.644
289.234     71.707    14.488
293.441     71.676    23.725
297.709     71.411    34.557
302.040     71.472    45.084
306.433     71.295    57.308
310.890     71.537    69.415
315.412     71.649    79.941
320.000     71.594    89.606
324.655     71.174   101.618
329.377     71.158   115.158
334.168     71.344   128.482
339.028     71.345   140.460
343.959     71.371   153.331
348.962     71.396   165.708
354.038     71.322   177.976
359.188     71.269  -169.545
364.412     71.052  -154.948
369.713     71.074  -140.728
375.090     71.085  -126.690
380.546     71.094  -112.208
386.081     71.098   -98.742
391.697     70.996   -84.207
397.394     70.882   -69.129
403.175     70.767   -54.697
409.039     70.562   -39.604
414.989     70.392   -23.436
421.025     70.245    -7.140
427.149     70.151     8.730
433.362     69.910    24.596
439.665     69.740    41.424
446.060     69.429    58.158
452.548     69.133    75.786
459.131     68.795    93.391
465.809     68.391   112.179
472.584     68.069   131.759
479.458     67.730   151.096
486.432     67.387   171.256
493.507     67.042  -167.816
500.686     66.677  -145.789
507.968     66.409  -123.510
515.357     66.127  -101.137
522.853     65.904   -77.840
530.458     65.729   -53.748
538.174     65.625   -29.676
546.002     65.558    -5.616
553.943     65.546    18.997
562.001     65.577    44.048
570.175     65.642    69.489
578.469     65.726    95.249
586.883     65.818   120.749
595.419     65.906   146.002
604.080     65.983   171.573
612.866     66.042  -162.517
621.780     66.073  -136.240
630.824     66.071  -109.560
640.000     66.031   -82.966
649.309     65.949   -56.407
658.753     65.822   -29.301
668.335     65.641    -1.055
678.056     65.413    27.330
687.919     65.132    56.465
697.925     64.800    86.432
708.077     64.429   116.776
718.376     64.022   148.135
728.825     63.592  -179.386
739.426     63.161  -145.706
750.181     62.756  -110.776
761.093     62.414   -74.625
772.163     62.171   -37.995
783.394     62.049    -0.515
794.789     62.058    38.129
806.349     62.184    76.408
818.078     62.401   114.699
829.977     62.669   152.883
842.050     62.950  -169.071
854.298     63.212  -131.096
866.724     63.425   -93.651
879.330     63.579   -55.485
892.120     63.658   -17.016
905.097     63.654    21.903
918.262     63.565    61.427
931.618     63.395   101.715
945.169     63.152   142.925
958.917     62.852  -174.784
972.864     62.521  -131.282
987.015     62.196   -86.488
1001.37     61.911   -39.831
1015.94     61.720     7.945
1030.71     61.653    55.933
1045.71     61.711   104.955
1060.92     61.872   154.661
1076.35     62.088  -156.343
1092.00     62.309  -107.511
1107.89     62.495   -58.193
1124.00     62.609    -8.790
1140.35     62.630    40.925
1156.94     62.548    91.764
1173.77     62.367   143.443
1190.84     62.106  -163.770
1208.16     61.803  -109.650
1225.73     61.511   -53.478
1243.56     61.302     4.691
1261.65     61.240    63.938
1280.00     61.352   123.709
1298.62     61.616  -176.556
1317.51     61.970  -116.644
1336.67     62.343   -56.682
1356.11     62.669     2.865
1375.84     62.905    62.781
1395.85     63.027   123.328
1416.15     63.026  -175.785
1436.75     62.907  -114.330
1457.65     62.684   -51.587
1478.85     62.374    12.548
1500.36     61.998    77.539
1522.19     61.566   143.875
1544.33     61.071  -148.553
1566.79     60.484   -79.828
1589.58     59.756    -9.915
1612.70     58.825    60.893
1636.16     57.610   133.812
1659.95     56.062  -149.858
1684.10     54.270   -67.780
1708.60     52.771    22.564
1733.45     52.581   118.112
1758.66     53.815  -148.481
1784.24     55.453   -61.649
1810.19     56.805    20.327
1836.52     57.716   101.308
1863.24     58.186  -177.491
1890.34     58.279   -94.816
1917.83     58.104    -9.705
1945.73     57.825    78.478
1974.03     57.652   170.264
2002.74     57.757   -95.986
2031.87     58.144    -1.834
2061.43     58.657    91.725
2091.41     59.117  -174.767
2121.83     59.401   -80.743
2152.69     59.460    13.428
2184.01     59.307   109.585
2215.77     59.001  -151.716
2248.00     58.634   -50.762
2280.70     58.309    52.284
2313.87     58.082   157.433
2347.53     57.927   -95.983
2381.68     57.747    11.156
2416.32     57.431   119.766
2451.46     56.929  -129.221
2487.12     56.324   -14.596
2523.30     55.882   104.239
2560.00     55.913  -134.075
2597.24     56.412   -12.937
2635.01     57.038   106.764
2673.34     57.463  -134.243
2712.23     57.565   -14.240
2751.68     57.436   108.912
2791.70     57.316  -124.865
2832.31     57.396     3.273
2873.50     57.604   131.600
2915.30     57.672  -100.312
2957.70     57.396    29.278
3000.72     56.782   161.656
3044.37     56.078   -62.005
3088.65     55.588    77.967
3133.58     55.306  -141.306
3179.16     54.900     0.046
3225.40     54.153   143.805
3272.31     53.254   -68.428
3319.91     52.629    83.330
3368.20     52.281  -124.209
3417.19     51.672    27.662
3466.89     50.490  -176.673
3517.32     49.334   -12.222
3568.48     49.306   156.003
3620.39     49.962   -40.080
3673.05     50.130   120.854
3726.47     49.551   -76.310
3780.67     48.710    91.525
3835.67     48.107   -97.428
3891.46     47.559    74.531
3948.06     46.727  -112.275
4005.49     45.748    63.544
4063.75     44.714  -118.800
4122.86     43.082    58.285
4182.82     40.274  -121.303
4243.66     36.617    68.706
4305.39     32.217  -100.464
4368.01     21.545    28.177
4431.55     31.174   104.229
4496.01     37.559   -75.640
4561.40     39.813   119.269
4627.75     41.566   -36.092
4695.06     43.215   168.406
4763.35     43.582    14.156
4832.64     43.190  -129.167
4902.93     43.753    95.388
4974.24     44.505   -40.980
5046.60     45.044  -172.278
5120.00     46.491    57.864
5194.47     47.447   -77.547
5270.03     46.868   152.097
5346.68     46.712    35.125
5424.45     47.860   -83.231
5503.35     48.091   155.152
5583.40     47.517    41.996
5664.61     47.478   -62.496
5747.01     48.172  -163.534
5830.60     49.609    94.159
5915.41     50.591   -11.444
6001.45     50.401  -113.140
6088.74     50.010   153.664
6177.30     49.671    66.671
6267.15     49.520   -12.200
6358.31     50.153   -88.786
6450.80     50.335  -164.031
6544.62     50.636   127.695
6639.82     50.999    60.600
6736.40     50.736     0.980
6834.38     51.092   -52.340
6933.79     51.391  -103.216
7034.64     51.863  -149.340
7136.96     51.935   165.513
7240.77     51.759   129.457
7346.09     51.874    96.336
7452.94     51.503    68.086
7561.35     51.376    43.828
7671.33     50.559    24.886
7782.91     50.356    12.306
7896.12     50.092    -0.745
8010.97     49.809   -11.483
8127.49     49.144   -21.393
8245.71     48.267   -27.384
8365.65     46.711   -25.201
8487.33     46.315    -7.819
8610.78     46.091    13.800
8736.03     46.727    46.044
8863.09     46.386    78.459
8992.01     45.316   126.015
9122.80     44.753  -172.703
9255.50     45.406  -116.534
9390.12     43.639   -58.444
9526.70     40.500     6.300
9665.27     34.040    73.974
9805.86     19.861  -131.946
9948.49     27.351    43.312
10093.2     30.775   138.480
10240.0     22.881   -92.609
10388.9     32.768    87.513
10540.1     35.699  -173.609
10693.4     37.735   -60.560
10848.9     39.442    46.497
11006.7     37.014   149.388
11166.8     35.768   -69.406
11329.2     38.699    77.932
11494.0     40.369  -148.451
11661.2     39.759    13.542
11830.8     42.526  -166.001
12002.9     44.395     6.275
12177.5     44.418  -178.331
12354.6     42.980    17.313
12534.3     42.625  -133.217
12716.6     42.020    73.769
12901.6     40.191   -78.533
13089.2     38.738   139.240
13279.6     38.023     5.536
13472.8     37.054  -116.898
13668.8     35.710   133.417
13867.6     33.822    37.662
14069.3     32.366   -51.061
14273.9     31.101  -142.307
14481.5     29.290   129.680
14692.2     27.148    57.112
14905.9     22.787   -10.509
15122.7      9.077   143.383
15342.7     26.348    94.320
15565.8     31.083    59.116
15792.2     31.620    32.598
16021.9     31.019    30.547
16255.0     30.945    24.456
16491.4     31.130    30.950
16731.3     31.406    42.462
16974.7     31.330    72.117
17221.6     29.700   116.459
17472.1     28.330   174.441
17726.2     26.526  -135.016
17984.0     25.537   -81.605
18245.6     29.236    -6.310
18511.0     31.341    90.433
18780.2     31.110  -156.352
19053.4     30.340   -17.692
19330.5     30.439   133.111
19611.7     30.580   -71.653
19897.0     31.006   102.682
20186.4     32.418   -90.495
20480.0     31.276    89.760
20777.9     29.131   -69.133
21080.1     27.022   148.772
21386.7     24.421    23.312
21697.8     20.482   -85.211
22013.4     17.664  -173.929
22333.6      7.332    73.692
22658.4      2.791   -31.470
22988.0      8.372   150.354
23322.4     13.064    90.137
23661.6     14.624    37.847
24005.8     12.123    -1.608
24355.0      9.594   -33.365
24709.2     12.697   -36.073
25068.6     12.635   -27.325
25433.2     15.946    -9.679
25803.2     17.711    44.422
26178.5     18.840   117.134
26559.3     18.614  -152.769
26945.6     16.422   -48.332
27337.5     17.211   -94.505
27735.2     11.610   -95.493
28138.6     10.983    48.009
28547.9      5.777   140.445
28963.1      3.381    25.378
29384.4      8.029   176.026
29811.8      7.620    86.017
30245.4     13.628     6.596
30685.3     14.004   -77.479
31131.7     10.002  -136.121
31584.5      9.259   -93.334
32043.9     16.802   -48.134
32510.0     18.047   -39.154
32982.8     18.784     4.377
33462.6     20.115    51.938
33949.3     20.277   124.637
34443.1     24.013  -179.476
34944.1     18.489  -119.708
35452.4     14.294    -5.254
35968.0      7.236   166.683
36491.2     -3.211  -100.322
37022.0      4.155   -29.720
37560.5      4.386   -64.204
38106.8      3.075  -146.427
38661.1      4.177    99.321
39223.4      4.475    28.077
39793.9     11.201   -26.000
