Freq[Hz]     dBSPL  Phase[Deg]
5.00000     18.675  -169.157
5.07273     18.710  -168.806
5.14651     18.750  -168.542
5.22137     18.804  -168.527
5.29732     18.857  -168.512
5.37437     18.911  -168.497
5.45254     18.964  -168.482
5.53185     18.998  -168.634
5.61231     19.011  -168.963
5.69394     19.024  -169.292
5.77676     19.037  -169.621
5.86079     19.049  -169.950
5.94604     18.979  -170.251
6.03252     18.908  -170.552
6.12027     18.838  -170.853
6.20929     18.768  -171.154
6.29961     18.650  -170.958
6.39124     18.523  -170.652
6.48420     18.395  -170.346
6.57851     18.267  -170.039
6.67420     18.195  -169.012
6.77128     18.132  -167.869
6.86977     18.069  -166.725
6.96969     18.027  -165.585
7.07107     18.141  -164.470
7.17392     18.255  -163.356
7.27827     18.369  -162.242
7.38413     18.531  -161.797
7.49154     18.730  -161.868
7.60050     18.929  -161.940
7.71105     19.107  -162.237
7.82321     19.192  -163.525
7.93701     19.278  -164.813
8.05245     19.363  -166.101
8.16958     19.205  -167.624
8.28841     19.039  -169.155
8.40896     18.872  -170.686
8.53128     18.468  -170.820
8.65537     18.033  -170.774
8.78126     17.599  -170.728
8.90899     17.270  -167.193
9.03857     16.948  -163.430
9.17004     16.717  -159.588
9.30342     17.207  -155.118
9.43874     17.697  -150.647
9.57603     18.347  -148.093
9.71532     19.242  -148.466
9.85663     20.137  -148.840
10.0000     20.804  -152.489
10.1455     21.407  -157.051
10.2930     21.888  -162.275
10.4427     22.027  -169.349
10.5946     22.167  -176.423
10.7487     21.895   175.065
10.9051     21.542   166.266
11.0637     20.876   156.701
11.2246     19.879   146.328
11.3879     18.655   135.445
11.5535     16.602   122.709
11.7216     14.503   109.775
11.8921      9.662    85.235
12.0650      4.821    60.694
12.2405      5.799    -4.117
12.4186      7.528   -74.121
12.5992     10.292  -103.835
12.7825     13.286  -124.615
12.9684     14.769  -143.414
13.1570     15.902  -161.750
13.3484     16.457   178.142
13.5426     16.919   157.748
13.7395     17.347   135.262
13.9394     17.807   112.769
14.1421     18.526    90.830
14.3478     19.280    69.974
14.5565     20.112    51.447
14.7683     20.855    35.179
14.9831     21.531    20.656
15.2010     22.014     9.322
15.4221     22.441    -0.847
15.6464     22.773    -8.289
15.8740     23.142   -14.393
16.1049     23.542   -19.426
16.3392     24.094   -23.767
16.5768     24.674   -28.380
16.8179     25.286   -33.428
17.0626     25.786   -39.466
17.3107     26.165   -45.923
17.5625     26.382   -52.823
17.8180     26.267   -59.794
18.0771     25.916   -66.397
18.3401     25.303   -72.426
18.6068     24.244   -76.722
18.8775     22.771   -77.633
19.1521     21.106   -73.298
19.4306     19.520   -62.020
19.7133     19.774   -41.788
20.0000     21.660   -28.903
20.2909     23.944   -23.701
20.5860     25.996   -25.230
20.8855     27.521   -30.600
21.1893     28.378   -37.872
21.4975     28.675   -45.195
21.8102     28.435   -51.287
22.1274     27.722   -54.408
22.4492     26.803   -52.502
22.7758     26.254   -44.719
23.1071     26.801   -34.289
23.4432     28.287   -28.468
23.7841     29.734   -28.881
24.1301     30.695   -32.084
24.4811     31.153   -35.383
24.8372     31.270   -36.759
25.1984     31.374   -35.239
25.5649     31.826   -31.897
25.9368     32.687   -29.315
26.3141     33.694   -29.081
26.6968     34.552   -30.760
27.0851     35.149   -32.898
27.4791     35.561   -34.111
27.8788     36.002   -33.993
28.2843     36.619   -33.504
28.6957     37.369   -33.857
29.1131     38.087   -35.420
29.5365     38.645   -37.561
29.9661     39.034   -39.272
30.4020     39.366   -39.849
30.8442     39.823   -39.456
31.2929     40.435   -39.238
31.7480     41.104   -39.830
32.2098     41.713   -41.060
32.6783     42.215   -42.164
33.1536     42.708   -42.645
33.6359     43.287   -42.770
34.1251     43.970   -43.280
34.6215     44.657   -44.566
35.1250     45.263   -46.243
35.6359     45.780   -47.642
36.1543     46.304   -48.515
36.6802     46.903   -49.215
37.2137     47.561   -50.292
37.7550     48.202   -51.786
38.3041     48.790   -53.358
38.8613     49.370   -54.735
39.4265     49.978   -56.027
40.0000     50.609   -57.493
40.5818     51.235   -59.152
41.1721     51.850   -60.865
41.7710     52.468   -62.617
42.3785     53.087   -64.511
42.9949     53.690   -66.502
43.6203     54.280   -68.471
44.2548     54.876   -70.403
44.8985     55.481   -72.413
45.5515     56.083   -74.517
46.2141     56.681   -76.647
46.8863     57.286   -78.793
47.5683     57.900   -81.052
48.2602     58.509   -83.449
48.9621     59.106   -85.903
49.6743     59.701   -88.358
50.3968     60.304   -90.849
51.1299     60.911   -93.437
51.8736     61.519   -96.141
52.6281     62.123   -98.947
53.3936     62.721  -101.827
54.1702     63.317  -104.759
54.9581     63.915  -107.782
55.7575     64.513  -110.950
56.5685     65.097  -114.213
57.3914     65.677  -117.522
58.2261     66.255  -120.941
59.0730     66.821  -124.479
59.9323     67.376  -128.030
60.8040     67.937  -131.624
61.6884     68.500  -135.367
62.5857     69.060  -139.253
63.4960     69.613  -143.315
64.4196     70.150  -147.584
65.3566     70.654  -152.001
66.3073     71.130  -156.458
67.2717     71.587  -160.898
68.2502     72.035  -165.375
69.2429     72.466  -169.907
70.2501     72.890  -174.441
71.2719     73.316  -179.096
72.3086     73.723   176.067
73.3603     74.101   171.119
74.4274     74.446   166.115
75.5099     74.767   161.136
76.6083     75.070   156.100
77.7226     75.340   151.076
78.8531     75.596   146.137
80.0000     75.841   141.144
81.1636     76.065   136.142
82.3442     76.270   131.093
83.5419     76.442   126.031
84.7570     76.586   121.069
85.9899     76.714   116.207
87.2406     76.835   111.399
88.5096     76.944   106.572
89.7970     77.030   101.722
91.1031     77.086    96.861
92.4282     77.096    92.084
93.7726     77.061    87.612
95.1366     77.023    83.633
96.5204     77.040    79.938
97.9243     77.095    76.082
99.3486     77.147    72.131
100.794     77.192    68.110
102.260     77.227    64.103
103.747     77.253    60.089
105.256     77.269    56.110
106.787     77.280    52.129
108.340     77.272    48.168
109.916     77.247    44.267
111.515     77.205    40.591
113.137     77.192    37.073
114.783     77.185    33.467
116.452     77.174    29.920
118.146     77.168    26.399
119.865     77.167    22.877
121.608     77.168    19.354
123.377     77.173    15.819
125.171     77.177    12.202
126.992     77.172     8.546
128.839     77.158     4.909
130.713     77.137     1.169
132.615     77.066    -2.511
134.543     77.012    -5.787
136.500     77.009    -9.244
138.486     76.995   -12.569
140.500     76.948   -16.177
142.544     76.879   -19.843
144.617     76.833   -23.008
146.721     76.815   -26.087
148.855     76.824   -29.674
151.020     76.789   -33.454
153.217     76.735   -37.051
155.445     76.662   -40.672
157.706     76.538   -44.179
160.000     76.404   -47.079
162.327     76.397   -50.038
164.688     76.368   -53.154
167.084     76.390   -56.201
169.514     76.383   -61.029
171.980     76.065   -64.791
174.481     75.900   -66.794
177.019     75.863   -68.935
179.594     75.868   -71.627
182.206     75.848   -74.482
184.856     75.898   -77.372
187.545     75.941   -80.312
190.273     76.002   -83.615
193.041     76.038   -87.290
195.849     76.007   -90.807
198.697     75.983   -94.401
201.587     75.941   -98.012
204.520     75.874  -101.307
207.494     75.876  -104.412
210.512     75.910  -108.315
213.574     75.753  -112.926
216.681     75.527  -115.421
219.833     75.453  -117.719
223.030     75.478  -120.741
226.274     75.438  -124.217
229.565     75.293  -127.164
232.905     75.237  -129.464
236.292     75.279  -131.860
239.729     75.337  -134.967
243.216     75.316  -138.294
246.754     75.291  -140.934
250.343     75.352  -143.885
253.984     75.374  -147.319
257.678     75.358  -150.460
261.426     75.380  -153.764
265.229     75.337  -157.700
269.087     75.132  -160.467
273.001     75.118  -162.359
276.972     75.150  -165.235
281.000     75.161  -167.753
285.088     75.208  -170.743
289.234     75.248  -173.982
293.441     75.218  -177.819
297.709     74.954   179.948
302.040     75.018   177.418
306.433     74.844   176.028
310.890     75.090   173.966
315.412     75.208   170.334
320.000     75.160   165.853
324.655     74.748   163.732
329.377     74.742   163.151
334.168     74.940   161.240
339.028     74.956   157.998
343.959     75.000   155.664
348.962     75.045   152.852
354.038     74.994   149.948
359.188     74.968   146.708
364.412     74.783   145.043
369.713     74.841   143.018
375.090     74.893   140.829
380.546     74.950   138.541
386.081     75.008   135.252
391.697     74.969   132.489
397.394     74.927   129.724
403.175     74.892   126.878
409.039     74.778   124.142
414.989     74.712   121.921
421.025     74.682   119.821
427.149     74.715   117.278
433.362     74.615   114.705
439.665     74.610   111.933
446.060     74.477   109.009
452.548     74.375   106.902
459.131     74.249   104.110
465.809     74.077   101.807
472.584     73.998   100.150
479.458     73.910    98.078
486.432     73.826    96.060
493.507     73.745    94.012
500.686     73.640    92.248
507.968     73.614    90.521
515.357     73.548    88.696
522.853     73.512    87.037
530.458     73.488    85.461
538.174     73.493    83.830
546.002     73.491    82.222
553.943     73.503    80.657
562.001     73.523    79.090
570.175     73.547    77.530
578.469     73.567    75.951
586.883     73.581    74.395
595.419     73.589    72.875
604.080     73.589    71.376
612.866     73.583    69.920
621.780     73.571    68.528
630.824     73.555    67.223
640.000     73.538    66.048
649.309     73.525    65.012
658.753     73.519    64.101
668.335     73.527    63.301
678.056     73.554    62.632
687.919     73.607    62.057
697.925     73.692    61.538
708.077     73.808    61.036
718.376     73.960    60.486
728.825     74.146    59.830
739.426     74.364    59.010
750.181     74.607    57.978
761.093     74.868    56.696
772.163     75.134    55.168
783.394     75.401    53.365
794.789     75.664    51.257
806.349     75.907    48.927
818.078     76.127    46.365
829.977     76.318    43.605
842.050     76.476    40.684
854.298     76.596    37.644
866.724     76.675    34.575
879.330     76.713    31.435
892.120     76.709    28.318
905.097     76.664    25.277
918.262     76.580    22.362
931.618     76.463    19.623
945.169     76.317    17.104
958.917     76.152    14.841
972.864     75.977    12.853
987.015     75.803    11.142
1001.37     75.636     9.669
1015.94     75.492     8.405
1030.71     75.379     7.292
1045.71     75.297     6.219
1060.92     75.243     5.103
1076.35     75.210     3.902
1092.00     75.187     2.565
1107.89     75.160     1.067
1124.00     75.119    -0.546
1140.35     75.053    -2.216
1156.94     74.955    -3.877
1173.77     74.828    -5.411
1190.84     74.675    -6.717
1208.16     74.510    -7.707
1225.73     74.351    -8.329
1243.56     74.222    -8.573
1261.65     74.150    -8.507
1280.00     74.154    -8.284
1298.62     74.242    -8.106
1317.51     74.409    -8.184
1336.67     74.635    -8.694
1356.11     74.891    -9.727
1375.84     75.152   -11.312
1395.85     75.391   -13.402
1416.15     75.587   -15.881
1436.75     75.729   -18.627
1457.65     75.813   -21.538
1478.85     75.839   -24.493
1500.36     75.811   -27.360
1522.19     75.741   -30.079
1544.33     75.641   -32.589
1566.79     75.525   -34.867
1589.58     75.408   -36.930
1612.70     75.303   -38.815
1636.16     75.216   -40.620
1659.95     75.147   -42.435
1684.10     75.091   -44.345
1708.60     75.036   -46.411
1733.45     74.968   -48.641
1758.66     74.871   -51.057
1784.24     74.726   -53.584
1810.19     74.520   -56.103
1836.52     74.239   -58.491
1863.24     73.880   -60.519
1890.34     73.451   -61.916
1917.83     72.985   -62.397
1945.73     72.542   -61.734
1974.03     72.209   -59.929
2002.74     72.078   -57.395
2031.87     72.188   -54.908
2061.43     72.491   -53.247
2091.41     72.889   -52.805
2121.83     73.274   -53.511
2152.69     73.577   -54.943
2184.01     73.785   -56.598
2215.77     73.929   -58.045
2248.00     74.074   -59.093
2280.70     74.285   -59.930
2313.87     74.589   -61.028
2347.53     74.952   -62.859
2381.68     75.294   -65.594
2416.32     75.541   -69.049
2451.46     75.648   -72.766
2487.12     75.622   -76.195
2523.30     75.520   -78.910
2560.00     75.429   -80.824
2597.24     75.421   -82.260
2635.01     75.509   -83.778
2673.34     75.642   -85.748
2712.23     75.754   -88.144
2751.68     75.816   -90.668
2791.70     75.847   -93.005
2832.31     75.894   -95.109
2873.50     75.987   -97.219
2915.30     76.112   -99.628
2957.70     76.228  -102.446
3000.72     76.301  -105.535
3044.37     76.327  -108.705
3088.65     76.315  -111.889
3133.58     76.265  -115.095
3179.16     76.158  -118.293
3225.40     75.979  -121.246
3272.31     75.753  -123.606
3319.91     75.547  -125.237
3368.20     75.430  -126.422
3417.19     75.413  -127.716
3466.89     75.436  -129.489
3517.32     75.426  -131.662
3568.48     75.355  -133.850
3620.39     75.243  -135.724
3673.05     75.135  -137.173
3726.47     75.073  -138.291
3780.67     75.082  -139.338
3835.67     75.154  -140.638
3891.46     75.244  -142.430
3948.06     75.289  -144.652
4005.49     75.251  -146.921
4063.75     75.148  -148.768
4122.86     75.059  -149.977
4182.82     75.055  -150.872
4243.66     75.136  -152.062
4305.39     75.220  -153.822
4368.01     75.239  -155.866
4431.55     75.198  -157.747
4496.01     75.140  -159.376
4561.40     75.067  -160.910
4627.75     74.945  -162.148
4695.06     74.817  -162.607
4763.35     74.803  -162.388
4832.64     74.939  -162.326
4902.93     75.141  -162.929
4974.24     75.338  -164.038
5046.60     75.515  -165.436
5120.00     75.668  -166.984
5194.47     75.819  -168.584
5270.03     75.984  -170.454
5346.68     76.108  -172.805
5424.45     76.139  -175.268
5503.35     76.117  -177.432
5583.40     76.083  -179.508
5664.61     75.989   178.373
5747.01     75.815   176.733
5830.60     75.652   175.856
5915.41     75.560   175.242
6001.45     75.493   174.607
6088.74     75.450   174.100
6177.30     75.446   173.477
6267.15     75.430   172.641
6358.31     75.396   171.856
6450.80     75.358   171.053
6544.62     75.298   170.311
6639.82     75.243   169.577
6736.40     75.138   168.623
6834.38     74.932   168.007
6933.79     74.695   168.158
7034.64     74.469   169.003
7136.96     74.289   170.799
7240.77     74.309   173.481
7346.09     74.616   175.627
7452.94     75.041   175.927
7561.35     75.334   174.705
7671.33     75.464   173.251
7782.91     75.495   171.671
7896.12     75.383   169.988
8010.97     75.011   168.622
8127.49     74.440   170.105
8245.71     74.276   173.757
8365.65     74.380   175.592
8487.33     74.325   176.060
8610.78     74.031   176.753
8736.03     73.633   179.436
8863.09     73.490  -176.791
8992.01     73.560  -172.673
9122.80     74.025  -170.652
9255.50     74.214  -171.359
9390.12     74.128  -171.365
9526.70     74.117  -169.909
9665.27     74.230  -168.631
9805.86     74.516  -167.168
9948.49     74.902  -167.168
10093.2     75.156  -167.855
10240.0     75.374  -167.786
10388.9     75.686  -168.254
10540.1     75.872  -169.018
10693.4     76.017  -169.536
10848.9     76.129  -169.870
11006.7     76.200  -169.881
11166.8     76.335  -170.196
11329.2     76.242  -170.004
11494.0     76.304  -167.972
11661.2     76.727  -166.372
11830.8     77.127  -167.204
12002.9     77.311  -168.504
12177.5     77.317  -169.313
12354.6     77.328  -168.612
12534.3     77.507  -167.724
12716.6     77.856  -167.289
12901.6     78.181  -168.450
13089.2     78.341  -170.003
13279.6     78.408  -171.141
13472.8     78.523  -172.017
13668.8     78.602  -173.576
13867.6     78.591  -174.959
14069.3     78.541  -176.261
14273.9     78.441  -177.053
14481.5     78.447  -177.587
14692.2     78.512  -178.813
14905.9     78.553   178.842
15122.7     78.382   175.469
15342.7     77.937   172.568
15565.8     77.355   170.839
15792.2     76.743   170.562
16021.9     76.262   171.118
16255.0     75.893   171.714
16491.4     75.631   171.622
16731.3     75.312   170.317
16974.7     74.762   168.506
17221.6     74.081   167.449
17472.1     73.260   166.428
17726.2     72.342   166.571
17984.0     71.350   167.457
18245.6     70.378   169.589
18511.0     69.577   171.890
18780.2     68.694   172.104
19053.4     67.104   171.950
19330.5     64.423   178.663
19611.7     62.960  -149.591
19897.0     69.167  -143.805
20186.4     67.078  -175.908
20480.0     64.085  -173.011
20777.9     61.698  -166.753
21080.1     59.954  -154.703
21386.7     58.786  -142.718
21697.8     58.192  -131.810
22013.4     57.319  -125.600
22333.6     55.398  -116.368
22658.4     53.651   -98.116
22988.0     52.494   -77.421
23322.4     52.193   -46.442
23661.6     54.839   -20.072
24005.8     57.657    -8.761
24355.0     59.970    -2.675
24709.2     61.804    -0.212
25068.6     63.375     1.190
25433.2     64.729    -0.206
25803.2     65.545    -2.999
26178.5     66.094    -4.557
26559.3     66.722    -5.308
26945.6     68.065    -6.282
27337.5     66.112   -40.646
27735.2     63.660    -5.729
28138.6     65.075    -1.104
28547.9     65.560     0.415
28963.1     65.763     1.926
29384.4     65.956     1.970
29811.8     65.306     0.688
30245.4     64.697     6.478
30685.3     64.688     8.759
31131.7     64.133     6.526
31584.5     62.141     3.470
32043.9     58.185    11.289
32510.0     55.372    52.655
32982.8     59.614    83.760
33462.6     62.270    85.767
33949.3     63.082    95.864
34443.1     69.825    91.212
34944.1     69.427    54.700
35452.4     67.064    37.305
35968.0     64.055    28.650
36491.2     60.810    26.197
37022.0     57.121    28.840
37560.5     53.022    39.558
38106.8     48.556    60.190
38661.1     44.785   108.010
39223.4     48.043   163.379
39793.9     55.981  -179.939
