Freq[Hz]     dBSPL  Phase[Deg]
5.00000     -3.644    56.941
5.07273     -3.766    58.331
5.14651     -3.978    60.354
5.22137     -4.441    64.140
5.29732     -4.903    67.926
5.37437     -5.366    71.711
5.45254     -5.828    75.497
5.53185     -6.094    81.564
5.61231     -6.153    90.044
5.69394     -6.211    98.525
5.77676     -6.270   107.005
5.86079     -6.315   115.433
5.94604     -5.606   120.792
6.03252     -4.897   126.151
6.12027     -4.188   131.509
6.20929     -3.479   136.868
6.29961     -3.007   138.851
6.39124     -2.587   140.084
6.48420     -2.167   141.318
6.57851     -1.748   142.552
6.67420     -1.861   143.177
6.77128     -2.062   143.703
6.86977     -2.262   144.229
6.96969     -2.552   145.220
7.07107     -3.524   149.746
7.17392     -4.496   154.272
7.27827     -5.467   158.798
7.38413     -5.935   169.596
7.49154     -6.013  -174.762
7.60050     -6.091  -159.120
7.71105     -5.881  -145.211
7.82321     -4.400  -138.912
7.93701     -2.920  -132.614
8.05245     -1.440  -126.315
8.16958     -0.755  -126.558
8.28841     -0.099  -127.046
8.40896      0.556  -127.534
8.53128      0.234  -128.697
8.65537     -0.214  -129.947
8.78126     -0.662  -131.196
8.90899     -2.836  -123.370
9.03857     -5.123  -114.949
9.17004     -6.925  -104.236
9.30342     -4.863   -75.280
9.43874     -2.801   -46.324
9.57603     -0.527   -28.984
9.71532      2.071   -29.391
9.85663      4.669   -29.799
10.0000      6.137   -34.294
10.1455      7.291   -39.928
10.2930      8.191   -46.192
10.4427      8.382   -54.213
10.5946      8.573   -62.234
10.7487      8.005   -73.079
10.9051      7.286   -84.488
11.0637      6.150  -100.441
11.2246      4.575  -121.201
11.3879      3.377  -144.745
11.5535      3.556  -178.434
11.7216      3.759   148.087
11.8921      5.440   127.027
12.0650      7.120   105.967
12.2405      7.782    92.201
12.4186      8.313    79.375
12.5992      7.334    69.476
12.7825      6.020    60.226
12.9684     -0.389    77.252
13.1570     -7.984   100.397
13.3484     -1.165   139.497
13.5426      7.995  -178.811
13.7395     11.748   175.454
13.9394     15.084   167.730
14.1421     16.834   158.757
14.3478     18.236   149.766
14.5565     18.889   140.741
14.7683     18.945   132.154
14.9831     18.540   123.907
15.2010     16.899   118.434
15.4221     14.648   117.118
15.6464     10.647   131.982
15.8740     10.292   160.077
16.1049     12.850  -161.262
16.3392     16.163  -159.903
16.5768     18.668  -163.274
16.8179     19.959  -171.489
17.0626     19.837   178.006
17.3107     18.712   166.233
17.5625     16.338   152.980
17.8180      8.280   122.348
18.0771      7.344    53.391
18.3401     13.372   -41.373
18.6068     17.659   -57.870
18.8775     19.533   -71.024
19.1521     19.537   -81.126
19.4306     17.700   -85.901
19.7133     12.524   -61.039
20.0000     16.094   -16.277
20.2909     21.666     6.373
20.5860     26.197     0.620
20.8855     28.931   -10.750
21.1893     30.351   -24.102
21.4975     30.882   -38.212
21.8102     30.568   -52.764
22.1274     29.311   -67.490
22.4492     26.824   -81.939
22.7758     22.237   -94.333
23.1071     14.755   -88.647
23.4432     11.135    20.661
23.7841     18.796    19.708
24.1301     20.917     7.049
24.4811     20.354    -6.883
24.8372     17.220   -18.228
25.1984      9.762    -9.092
25.5649      9.929    59.689
25.9368     14.798    75.428
26.3141     17.079    64.839
26.6968     16.746    50.270
27.0851     14.351    36.874
27.4791     10.040    32.427
27.8788      6.844    48.693
28.2843      8.698    54.393
28.6957     11.549    34.525
29.1131     13.855     8.676
29.5365     15.207   -13.003
29.9661     15.210   -25.943
30.4020     14.070   -23.436
30.8442     14.660    -1.293
31.2929     17.861    13.562
31.7480     20.823    15.430
32.2098     22.682    13.081
32.6783     23.680    12.010
33.1536     24.482    13.201
33.6359     25.394    14.773
34.1251     26.293    14.753
34.6215     26.917    13.921
35.1250     27.356    14.427
35.6359     28.072    17.107
36.1543     29.299    19.059
36.6802     30.723    17.987
37.2137     31.925    14.953
37.7550     32.889    12.586
38.3041     33.872    11.976
38.8613     35.021    11.630
39.4265     36.163    10.505
40.0000     37.142     9.685
40.5818     38.109    10.204
41.1721     39.280    10.730
41.7710     40.475     9.706
42.3785     41.382     7.946
42.9949     42.139     7.803
43.6203     43.115     9.036
44.2548     44.397     8.929
44.8985     45.586     6.785
45.5515     46.554     4.588
46.2141     47.493     3.452
46.8863     48.574     2.597
47.5683     49.714     1.147
48.2602     50.832    -0.557
48.9621     51.948    -2.374
49.6743     53.030    -4.380
50.3968     54.058    -6.191
51.1299     55.104    -7.651
51.8736     56.191    -9.334
52.6281     57.239   -11.471
53.3936     58.222   -13.654
54.1702     59.194   -15.852
54.9581     60.160   -18.433
55.7575     61.085   -21.392
56.5685     61.981   -24.570
57.3914     62.859   -27.987
58.2261     63.715   -31.550
59.0730     64.561   -35.120
59.9323     65.398   -38.682
60.8040     66.213   -42.154
61.6884     67.004   -45.479
62.5857     67.762   -48.789
63.4960     68.452   -52.068
64.4196     69.086   -55.234
65.3566     69.677   -58.395
66.3073     70.230   -61.667
67.2717     70.740   -65.033
68.2502     71.215   -68.374
69.2429     71.679   -71.601
70.2501     72.140   -74.740
71.2719     72.587   -77.788
72.3086     73.015   -80.752
73.3603     73.407   -83.638
74.4274     73.756   -86.338
75.5099     74.076   -88.870
76.6083     74.361   -91.204
77.7226     74.631   -93.265
78.8531     74.890   -95.195
80.0000     75.125   -96.996
81.1636     75.345   -98.723
82.3442     75.541  -100.469
83.5419     75.716  -102.137
84.7570     75.891  -103.727
85.9899     76.056  -105.187
87.2406     76.221  -106.296
88.5096     76.401  -107.192
89.7970     76.554  -107.988
91.1031     76.679  -108.608
92.4282     76.770  -109.212
93.7726     76.829  -109.485
95.1366     76.918  -109.618
96.5204     76.982  -109.522
97.9243     77.086  -109.080
99.3486     77.178  -108.721
100.794     77.267  -107.953
102.260     77.394  -107.416
103.747     77.490  -106.760
105.256     77.591  -106.030
106.787     77.683  -105.064
108.340     77.729  -104.176
109.916     77.751  -102.813
111.515     77.781  -101.516
113.137     77.827  -100.067
114.783     77.884   -98.584
116.452     77.944   -96.974
118.146     77.990   -95.157
119.865     78.022   -93.220
121.608     78.049   -91.210
123.377     78.067   -89.192
125.171     78.088   -87.143
126.992     78.110   -84.920
128.839     78.129   -82.525
130.713     78.122   -79.998
132.615     78.079   -77.245
134.543     78.028   -74.281
136.500     78.008   -71.179
138.486     77.990   -68.339
140.500     77.934   -64.963
142.544     77.842   -61.108
144.617     77.748   -57.557
146.721     77.690   -53.674
148.855     77.762   -49.171
151.020     77.655   -45.957
153.217     77.538   -41.287
155.445     77.402   -36.949
157.706     77.274   -32.628
160.000     77.107   -27.432
162.327     77.011   -21.672
164.688     76.944   -16.633
167.084     76.908   -11.107
169.514     76.843    -6.032
171.980     76.608    -0.276
174.481     76.475     6.001
177.019     76.384    12.117
179.594     76.299    18.657
182.206     76.208    25.721
184.856     76.151    32.987
187.545     76.122    39.464
190.273     76.110    46.328
193.041     76.091    53.160
195.849     76.030    60.145
198.697     75.936    67.418
201.587     75.797    74.671
204.520     75.635    82.485
207.494     75.509    90.714
210.512     75.426    99.594
213.574     75.375   107.614
216.681     75.193   115.579
219.833     75.086   124.557
223.030     74.983   133.938
226.274     74.867   143.755
229.565     74.814   153.523
232.905     74.769   163.092
236.292     74.765   172.694
239.729     74.742  -177.327
243.216     74.731  -167.526
246.754     74.664  -157.671
250.343     74.585  -146.848
253.984     74.512  -136.317
257.678     74.481  -126.031
261.426     74.444  -115.177
265.229     74.360  -104.740
269.087     74.176   -94.079
273.001     73.993   -83.091
276.972     73.712   -72.635
281.000     73.276   -59.398
285.088     73.165   -44.498
289.234     73.249   -30.819
293.441     73.274   -18.232
297.709     73.224    -5.884
302.040     73.140     6.319
306.433     72.884    19.165
310.890     72.794    33.745
315.412     72.656    46.975
320.000     72.451    60.987
324.655     72.155    75.215
329.377     72.035    90.233
334.168     71.874   105.028
339.028     71.613   120.569
343.959     71.431   135.493
348.962     71.100   150.887
354.038     70.724   166.733
359.188     70.421  -176.008
364.412     70.129  -158.454
369.713     69.821  -140.900
375.090     69.409  -122.563
380.546     69.101  -103.490
386.081     68.830   -84.222
391.697     68.482   -64.127
397.394     68.206   -42.953
403.175     67.986   -22.310
409.039     67.768    -0.267
414.989     67.737    22.729
421.025     67.783    44.829
427.149     67.772    66.499
433.362     67.849    89.267
439.665     68.119   111.811
446.060     68.196   134.207
452.548     68.402   155.906
459.131     68.328   177.820
465.809     68.163  -158.805
472.584     67.921  -132.692
479.458     68.343  -106.546
486.432     68.820   -82.847
493.507     69.047   -59.220
500.686     69.226   -34.653
507.968     69.376   -10.112
515.357     69.525    14.274
522.853     69.658    38.993
530.458     69.688    64.072
538.174     69.706    88.999
546.002     69.692   114.263
553.943     69.631   139.984
562.001     69.522   166.333
570.175     69.415  -166.581
578.469     69.226  -138.677
586.883     69.003  -110.557
595.419     68.763   -82.053
604.080     68.483   -52.824
612.866     68.226   -22.352
621.780     67.964     8.943
630.824     67.716    41.299
640.000     67.507    74.007
649.309     67.356   106.899
658.753     67.239   140.505
668.335     67.189   175.498
678.056     67.202  -149.554
687.919     67.244  -114.148
697.925     67.337   -78.419
708.077     67.446   -42.904
718.376     67.585    -7.137
728.825     67.721    29.156
739.426     67.840    65.850
750.181     67.949   102.894
761.093     68.041   140.461
772.163     68.114   178.091
783.394     68.161  -143.838
794.789     68.192  -104.401
806.349     68.208   -64.920
818.078     68.214   -24.731
829.977     68.223    16.155
842.050     68.238    57.717
854.298     68.264   100.019
866.724     68.295   142.217
879.330     68.351  -174.379
892.120     68.417  -130.440
905.097     68.477   -86.089
918.262     68.543   -41.351
931.618     68.593     3.872
945.169     68.609    49.448
958.917     68.588    95.444
972.864     68.524   141.925
987.015     68.404  -171.041
1001.37     68.220  -122.749
1015.94     67.963   -73.707
1030.71     67.634   -24.468
1045.71     67.227    26.413
1060.92     66.737    78.857
1076.35     66.211   131.939
1092.00     65.632  -173.483
1107.89     65.044  -116.894
1124.00     64.469   -58.639
1140.35     63.994     1.287
1156.94     63.629    63.427
1173.77     63.419   126.721
1190.84     63.434  -169.318
1208.16     63.608  -104.937
1225.73     63.921   -40.051
1243.56     64.327    25.270
1261.65     64.766    90.111
1280.00     65.191   154.827
1298.62     65.565  -140.667
1317.51     65.855   -75.477
1336.67     66.060    -9.358
1356.11     66.154    57.279
1375.84     66.119   125.444
1395.85     65.977  -164.669
1416.15     65.762   -93.405
1436.75     65.552   -20.428
1457.65     65.415    54.894
1478.85     65.445   132.247
1500.36     65.683  -149.793
1522.19     66.110   -71.318
1544.33     66.638     7.148
1566.79     67.145    85.542
1589.58     67.553   164.010
1612.70     67.795  -117.575
1636.16     67.840   -38.126
1659.95     67.700    42.869
1684.10     67.375   126.128
1708.60     66.948  -147.928
1733.45     66.532   -59.556
1758.66     66.296    32.419
1784.24     66.365   126.389
1810.19     66.740  -139.649
1836.52     67.304   -45.350
1863.24     67.896    48.427
1890.34     68.388   142.079
1917.83     68.728  -123.851
1945.73     68.886   -28.882
1974.03     68.895    68.112
2002.74     68.773   166.944
2031.87     68.596   -92.229
2061.43     68.424    10.572
2091.41     68.313   115.731
2121.83     68.264  -137.284
2152.69     68.259   -30.084
2184.01     68.217    78.478
2215.77     68.081  -171.405
2248.00     67.836   -59.938
2280.70     67.496    53.327
2313.87     67.140   169.213
2347.53     66.843   -72.460
2381.68     66.631    47.094
2416.32     66.447   167.957
2451.46     66.194   -69.993
2487.12     65.776    53.811
2523.30     65.200  -179.901
2560.00     64.554   -50.431
2597.24     63.979    81.339
2635.01     63.567  -144.720
2673.34     63.230    -9.436
2712.23     62.831   127.108
2751.68     62.318   -93.930
2791.70     61.715    47.532
2832.31     61.106  -168.523
2873.50     60.502   -22.361
2915.30     59.874   125.783
2957.70     59.255   -82.975
3000.72     58.710    70.412
3044.37     58.251  -135.183
3088.65     57.599    20.428
3133.58     56.467   177.812
3179.16     55.010   -18.725
3225.40     53.862   151.385
3272.31     53.393   -38.204
3319.91     52.563   129.851
3368.20     50.273   -57.922
3417.19     47.491   134.300
3466.89     48.663   -23.487
3517.32     51.019   158.484
3568.48     51.207   -26.700
3620.39     49.572   157.285
3673.05     48.581    -1.062
3726.47     49.574  -161.560
3780.67     49.823    30.425
3835.67     48.514  -129.780
3891.46     48.215    87.491
3948.06     50.265   -58.808
4005.49     52.029   146.003
4063.75     53.047    -8.170
4122.86     53.601  -160.804
4182.82     53.514    50.101
4243.66     53.183   -88.578
4305.39     54.090   138.483
4368.01     55.727     0.390
4431.55     56.532  -140.346
4496.01     56.586    83.362
4561.40     56.586   -47.417
4627.75     56.578  -176.535
4695.06     56.148    58.254
4763.35     55.633   -62.202
4832.64     55.059   178.147
4902.93     53.334    61.402
4974.24     50.622   -38.848
5046.60     50.417  -126.288
5120.00     51.444   134.448
5194.47     50.997    32.631
5270.03     50.024   -63.409
5346.68     48.910  -158.282
5424.45     46.789   108.550
5503.35     43.885    20.182
5583.40     40.280   -69.460
5664.61     34.860  -165.126
5747.01     32.101    93.940
5830.60     35.745    -4.613
5915.41     39.326   -86.628
6001.45     41.441  -152.637
6088.74     43.035   144.256
6177.30     41.706    93.865
6267.15     42.369    71.621
6358.31     45.322    30.687
6450.80     45.237    -7.515
6544.62     46.446   -33.429
6639.82     47.686   -69.547
6736.40     46.654   -99.913
6834.38     45.410  -119.250
6933.79     43.861  -131.250
7034.64     43.372  -135.344
7136.96     42.775  -145.727
7240.77     41.414  -147.592
7346.09     40.522  -145.725
7452.94     40.917  -130.220
7561.35     44.567  -122.352
7671.33     46.415  -117.255
7782.91     47.917   -97.674
7896.12     48.699   -71.925
8010.97     48.788   -27.206
8127.49     49.633    23.414
8245.71     50.306    83.662
8365.65     51.192   141.353
8487.33     49.219  -149.178
8610.78     48.690   -55.942
8736.03     49.414    35.408
8863.09     49.940   129.401
8992.01     49.323  -136.567
9122.80     47.446   -28.521
9255.50     43.603    96.826
9390.12     44.729  -109.226
9526.70     45.906    35.799
9665.27     48.359   170.062
9805.86     47.857   -38.323
9948.49     49.492   119.600
10093.2     51.138   -79.919
10240.0     51.928    81.172
10388.9     52.096  -103.536
10540.1     52.522    75.119
10693.4     52.424   -94.850
10848.9     52.454   101.026
11006.7     51.965   -54.643
11166.8     51.114   158.523
11329.2     49.708    23.046
11494.0     47.859   -96.969
11661.2     47.511   155.747
11830.8     47.594    60.539
12002.9     48.419   -31.979
12177.5     50.110  -123.840
12354.6     49.834   150.955
12534.3     49.874    79.587
12716.6     50.405    15.026
12901.6     49.566   -39.033
13089.2     49.123   -85.671
13279.6     48.635  -117.176
13472.8     48.401  -141.632
13668.8     47.816  -156.069
13867.6     47.048  -160.334
14069.3     46.294  -149.109
14273.9     45.486  -124.967
14481.5     46.456   -89.125
14692.2     47.346   -54.739
14905.9     46.342   -11.502
15122.7     44.559    49.821
15342.7     42.604   126.138
15565.8     41.139  -140.356
15792.2     40.232   -43.122
16021.9     38.387    61.813
16255.0     33.907  -172.613
16491.4     32.564   -15.213
16731.3     33.287   146.143
16974.7     34.766   -57.918
17221.6     34.281   107.047
17472.1     32.267   -84.019
17726.2     23.746   107.779
17984.0     24.729    66.410
18245.6     31.018   -45.850
18511.0     34.041  -163.301
18780.2     35.536    85.122
19053.4     36.554    -9.398
19330.5     36.186   -97.357
19611.7     35.221  -159.464
19897.0     35.241   150.095
20186.4     34.398   117.526
20480.0     35.846    95.465
20777.9     34.573    67.575
21080.1     30.273    79.201
21386.7     29.176   109.177
21697.8     25.002   129.987
22013.4     18.336   113.000
22333.6     18.942    86.315
22658.4     17.960   173.042
22988.0     20.389   132.029
23322.4     21.632  -110.134
23661.6     25.961   166.482
24005.8     26.253   132.624
24355.0     23.402  -107.834
24709.2     19.491  -179.956
25068.6     19.379   166.114
25433.2     18.864  -119.364
25803.2     19.655   -60.147
26178.5     18.983   171.827
26559.3     18.407  -143.256
26945.6     18.464   -65.692
27337.5     18.105   -92.913
27735.2     17.315  -127.251
28138.6     16.494   -80.173
28547.9     15.456   172.410
28963.1     16.859   -64.223
29384.4     16.687   -34.115
29811.8     16.261    45.408
30245.4     17.342    32.023
30685.3     15.906   172.490
31131.7     16.963   -72.552
31584.5     17.249   -88.372
32043.9     16.751    31.432
32510.0     16.744  -178.603
32982.8     16.564    33.788
33462.6     16.087  -110.039
33949.3     15.844    -2.466
34443.1     16.998   116.004
34944.1     17.136     0.554
35452.4     16.746   -65.176
35968.0     17.350  -152.627
36491.2     18.733    80.327
37022.0     17.520   115.256
37560.5     18.181  -130.199
38106.8     17.628   -82.007
38661.1     18.308    40.674
39223.4     17.434    82.298
39793.9     15.895   171.383
