"SPL Vertical"																																																																							
"On-Axis"		"10°"		"-10°"		"20°"		"-20°"		"30°"		"-30°"		"40°"		"-40°"		"50°"		"-50°"		"60°"		"-60°"		"70°"		"-70°"		"80°"		"-80°"		"90°"		"-90°"		"100°"		"-100°"		"110°"		"-110°"		"120°"		"-120°"		"130°"		"-130°"		"140°"		"-140°"		"150°"		"-150°"		"160°"		"-160°"		"170°"		"-170°"		"180°"	
"Frequency [Hz]"	"Sound Pessure Level [dB]  / [2.83V 1m] "	"Frequency [Hz]"	"Sound Pessure Level [dB]  / [2.83V 1m] "	"Frequency [Hz]"	"Sound Pessure Level [dB]  / [2.83V 1m] "	"Frequency [Hz]"	"Sound Pessure Level [dB]  / [2.83V 1m] "	"Frequency [Hz]"	"Sound Pessure Level [dB]  / [2.83V 1m] "	"Frequency [Hz]"	"Sound Pessure Level [dB]  / [2.83V 1m] "	"Frequency [Hz]"	"Sound Pessure Level [dB]  / [2.83V 1m] "	"Frequency [Hz]"	"Sound Pessure Level [dB]  / [2.83V 1m] "	"Frequency [Hz]"	"Sound Pessure Level [dB]  / [2.83V 1m] "	"Frequency [Hz]"	"Sound Pessure Level [dB]  / [2.83V 1m] "	"Frequency [Hz]"	"Sound Pessure Level [dB]  / [2.83V 1m] "	"Frequency [Hz]"	"Sound Pessure Level [dB]  / [2.83V 1m] "	"Frequency [Hz]"	"Sound Pessure Level [dB]  / [2.83V 1m] "	"Frequency [Hz]"	"Sound Pessure Level [dB]  / [2.83V 1m] "	"Frequency [Hz]"	"Sound Pessure Level [dB]  / [2.83V 1m] "	"Frequency [Hz]"	"Sound Pessure Level [dB]  / [2.83V 1m] "	"Frequency [Hz]"	"Sound Pessure Level [dB]  / [2.83V 1m] "	"Frequency [Hz]"	"Sound Pessure Level [dB]  / [2.83V 1m] "	"Frequency [Hz]"	"Sound Pessure Level [dB]  / [2.83V 1m] "	"Frequency [Hz]"	"Sound Pessure Level [dB]  / [2.83V 1m] "	"Frequency [Hz]"	"Sound Pessure Level [dB]  / [2.83V 1m] "	"Frequency [Hz]"	"Sound Pessure Level [dB]  / [2.83V 1m] "	"Frequency [Hz]"	"Sound Pessure Level [dB]  / [2.83V 1m] "	"Frequency [Hz]"	"Sound Pessure Level [dB]  / [2.83V 1m] "	"Frequency [Hz]"	"Sound Pessure Level [dB]  / [2.83V 1m] "	"Frequency [Hz]"	"Sound Pessure Level [dB]  / [2.83V 1m] "	"Frequency [Hz]"	"Sound Pessure Level [dB]  / [2.83V 1m] "	"Frequency [Hz]"	"Sound Pessure Level [dB]  / [2.83V 1m] "	"Frequency [Hz]"	"Sound Pessure Level [dB]  / [2.83V 1m] "	"Frequency [Hz]"	"Sound Pessure Level [dB]  / [2.83V 1m] "	"Frequency [Hz]"	"Sound Pessure Level [dB]  / [2.83V 1m] "	"Frequency [Hz]"	"Sound Pessure Level [dB]  / [2.83V 1m] "	"Frequency [Hz]"	"Sound Pessure Level [dB]  / [2.83V 1m] "	"Frequency [Hz]"	"Sound Pessure Level [dB]  / [2.83V 1m] "	"Frequency [Hz]"	"Sound Pessure Level [dB]  / [2.83V 1m] "	"Frequency [Hz]"	"Sound Pessure Level [dB]  / [2.83V 1m] "
20.5078	42.0136	20.5078	41.2261	20.5078	42.5626	20.5078	40.2268	20.5078	42.8638	20.5078	39.1095	20.5078	42.9058	20.5078	38.1402	20.5078	42.669	20.5078	37.8213	20.5078	42.1252	20.5078	38.5344	20.5078	41.2491	20.5078	40.0338	20.5078	40.0693	20.5078	41.796	20.5078	38.8446	20.5078	43.5002	20.5078	38.3699	20.5078	45.029	20.5078	39.4459	20.5078	46.3546	20.5078	41.5369	20.5078	47.4775	20.5078	43.7135	20.5078	48.4034	20.5078	45.595	20.5078	49.1357	20.5078	47.1134	20.5078	49.6737	20.5078	48.2872	20.5078	50.0126	20.5078	49.1494	20.5078	50.1439	20.5078	49.7303	20.5078	50.0551
21.2402	42.6772	21.2402	42.215	21.2402	43.0223	21.2402	41.7229	21.2402	43.2023	21.2402	41.3476	21.2402	43.1907	21.2402	41.2846	21.2402	42.9768	21.2402	41.6894	21.2402	42.5751	21.2402	42.5577	21.2402	42.0584	21.2402	43.7337	21.2402	41.6213	21.2402	45.0322	21.2402	41.6115	21.2402	46.3211	21.2402	42.3305	21.2402	47.5271	21.2402	43.6939	21.2402	48.6141	21.2402	45.3314	21.2402	49.5643	21.2402	46.9354	21.2402	50.368	21.2402	48.3556	21.2402	51.0175	21.2402	49.5399	21.2402	51.5051	21.2402	50.4785	21.2402	51.8224	21.2402	51.1778	21.2402	51.9595	21.2402	51.6493	21.2402	51.9057
21.9727	44.6612	21.9727	44.0445	21.9727	45.0978	21.9727	43.2814	21.9727	45.3376	21.9727	42.4501	21.9727	45.3681	21.9727	41.7196	21.9727	45.1764	21.9727	41.3711	21.9727	44.7529	21.9727	41.6699	21.9727	44.1064	21.9727	42.6162	21.9727	43.3069	21.9727	43.9455	21.9727	42.5765	21.9727	45.3797	21.9727	42.3573	21.9727	46.7535	21.9727	43.0358	21.9727	47.9924	21.9727	44.45	21.9727	49.0676	21.9727	46.1077	21.9727	49.9683	21.9727	47.6669	21.9727	50.6894	21.9727	48.9903	21.9727	51.2256	21.9727	50.0431	21.9727	51.5704	21.9727	50.8275	21.9727	51.7149	21.9727	51.3574	21.9727	51.6482
22.7051	44.6986	22.7051	43.9013	22.7051	45.2544	22.7051	42.8706	22.7051	45.5687	22.7051	41.6603	22.7051	45.6369	22.7051	40.4693	22.7051	45.4466	22.7051	39.7822	22.7051	44.9799	22.7051	40.1703	22.7051	44.2253	22.7051	41.5699	22.7051	43.2203	22.7051	43.3819	22.7051	42.1734	22.7051	45.1739	22.7051	41.6558	22.7051	46.7837	22.7051	42.3285	22.7051	48.1743	22.7051	44.0031	22.7051	49.347	22.7051	45.943	22.7051	50.3104	22.7051	47.7107	22.7051	51.0709	22.7051	49.174	22.7051	51.6301	22.7051	50.3194	22.7051	51.9851	22.7051	51.1651	22.7051	52.1287	22.7051	51.7349	22.7051	52.0501
23.4375	45.4438	23.4375	45.0055	23.4375	45.8043	23.4375	44.5814	23.4375	46.0336	23.4375	44.3112	23.4375	46.1031	23.4375	44.3559	23.4375	46.0026	23.4375	44.8167	23.4375	45.7452	23.4375	45.6616	23.4375	45.3878	23.4375	46.754	23.4375	45.0681	23.4375	47.9446	23.4375	45.0249	23.4375	49.1254	23.4375	45.5019	23.4375	50.2332	23.4375	46.5321	23.4375	51.2344	23.4375	47.8967	23.4375	52.1107	23.4375	49.3295	23.4375	52.8507	23.4375	50.6567	23.4375	53.4453	23.4375	51.7967	23.4375	53.8858	23.4375	52.7198	23.4375	54.1626	23.4375	53.4211	23.4375	54.2655	23.4375	53.9059	23.4375	54.1837
24.1699	46.3172	24.1699	45.7932	24.1699	46.711	24.1699	45.2051	24.1699	46.9386	24.1699	44.673	24.1699	46.9788	24.1699	44.3806	24.1699	46.8192	24.1699	44.5203	24.1699	46.4604	24.1699	45.1628	24.1699	45.9347	24.1699	46.1961	24.1699	45.352	24.1699	47.4243	24.1699	44.9631	24.1699	48.6854	24.1699	45.1277	24.1699	49.8825	24.1699	46.0228	24.1699	50.9666	24.1699	47.4243	24.1699	51.9141	24.1699	48.965	24.1699	52.7123	24.1699	50.4021	24.1699	53.3528	24.1699	51.6305	24.1699	53.8274	24.1699	52.6178	24.1699	54.1274	24.1699	53.3621	24.1699	54.2426	24.1699	53.8726	24.1699	54.1618
25.6348	47.8954	25.6348	47.4006	25.6348	48.269	25.6348	46.8444	25.6348	48.488	25.6348	46.3329	25.6348	48.5331	25.6348	46.0272	25.6348	48.3944	25.6348	46.1028	25.6348	48.075	25.6348	46.6428	25.6348	47.6088	25.6348	47.5707	25.6348	47.0973	25.6348	48.716	25.6348	46.7574	25.6348	49.9209	25.6348	46.8914	25.6348	51.0828	25.6348	47.6654	25.6348	52.1458	25.6348	48.9208	25.6348	53.081	25.6348	50.3446	25.6348	53.8728	25.6348	51.7029	25.6348	54.5106	25.6348	52.8806	25.6348	54.9854	25.6348	53.8352	25.6348	55.2876	25.6348	54.558	25.6348	55.4072	25.6348	55.054	25.6348	55.3332
26.3672	48.6264	26.3672	48.166	26.3672	48.9792	26.3672	47.6599	26.3672	49.1895	26.3672	47.2116	26.3672	49.2375	26.3672	46.9701	26.3672	49.1142	26.3672	47.0873	26.3672	48.8258	26.3672	47.6284	26.3672	48.4106	26.3672	48.5219	26.3672	47.9714	26.3672	49.617	26.3672	47.7116	26.3672	50.772	26.3672	47.8952	26.3672	51.8912	26.3672	48.6556	26.3672	52.92	26.3672	49.8507	26.3672	53.8288	26.3672	51.2056	26.3672	54.6004	26.3672	52.5068	26.3672	55.2233	26.3672	53.6426	26.3672	55.6876	26.3672	54.5681	26.3672	55.9835	26.3672	55.2715	26.3672	56.1007	26.3672	55.7555	26.3672	56.0283
27.0996	49.4341	27.0996	49.0655	27.0996	49.7226	27.0996	48.6806	27.0996	49.8924	27.0996	48.376	27.0996	49.9219	27.0996	48.2743	27.0996	49.804	27.0996	48.4842	27.0996	49.5514	27.0996	49.0401	27.0996	49.2132	27.0996	49.8797	27.0996	48.9016	27.0996	50.8872	27.0996	48.8075	27.0996	51.9506	27.0996	49.1372	27.0996	52.9893	27.0996	49.9553	27.0996	53.9528	27.0996	51.1166	27.0996	54.8111	27.0996	52.3941	27.0996	55.5452	27.0996	53.6136	27.0996	56.1415	27.0996	54.68	27.0996	56.5886	27.0996	55.5517	27.0996	56.8759	27.0996	56.2156	27.0996	56.9926	27.0996	56.6723	27.0996	56.9282
27.832	50.5019	27.832	50.1263	27.832	50.7961	27.832	49.7255	27.832	50.9749	27.832	49.3858	27.832	51.019	27.832	49.2211	27.832	50.9219	27.832	49.3415	27.832	50.6938	27.832	49.7982	27.832	50.3752	27.832	50.5505	27.832	50.0596	27.832	51.4936	27.832	49.9102	27.832	52.5152	27.832	50.1198	27.832	53.5286	27.832	50.7842	27.832	54.4776	27.832	51.8102	27.832	55.3275	27.832	52.9958	27.832	56.0565	27.832	54.1618	27.832	56.6495	27.832	55.1999	27.832	57.0941	27.832	56.058	27.832	57.3791	27.832	56.7162	27.832	57.4939	27.832	57.1714	27.832	57.4279
29.2969	52.2355	29.2969	51.8949	29.2969	52.5008	29.2969	51.5273	29.2969	52.6606	29.2969	51.2048	29.2969	52.6978	29.2969	51.0223	29.2969	52.6062	29.2969	51.0767	29.2969	52.3955	29.2969	51.4251	29.2969	52.1017	29.2969	52.0524	29.2969	51.8061	29.2969	52.8808	29.2969	51.648	29.2969	53.8115	29.2969	51.7961	29.2969	54.7591	29.2969	52.3492	29.2969	55.6627	29.2969	53.2497	29.2969	56.4823	29.2969	54.3287	29.2969	57.1917	29.2969	55.4173	29.2969	57.7726	29.2969	56.4029	29.2969	58.2106	29.2969	57.2261	29.2969	58.4934	29.2969	57.8614	29.2969	58.6096	29.2969	58.3016	29.2969	58.5487
30.0293	52.5608	30.0293	52.2048	30.0293	52.8383	30.0293	51.8205	30.0293	53.0066	30.0293	51.4842	30.0293	53.0482	30.0293	51.2972	30.0293	52.9574	30.0293	51.3624	30.0293	52.7442	30.0293	51.738	30.0293	52.446	30.0293	52.4025	30.0293	52.1469	30.0293	53.2687	30.0293	51.9916	30.0293	54.2318	30.0293	52.154	30.0293	55.2043	30.0293	52.7324	30.0293	56.1258	30.0293	53.6617	30.0293	56.9576	30.0293	54.7656	30.0293	57.6751	30.0293	55.8727	30.0293	58.2609	30.0293	56.871	30.0293	58.7016	30.0293	57.703	30.0293	58.9853	30.0293	58.3444	30.0293	59.101	30.0293	58.7887	30.0293	59.0386
31.4941	54.2535	31.4941	53.9456	31.4941	54.4985	31.4941	53.6198	31.4941	54.6518	31.4941	53.3413	31.4941	54.6971	31.4941	53.1925	31.4941	54.6297	31.4941	53.2552	31.4941	54.4602	31.4941	53.578	31.4941	54.2236	31.4941	54.1506	31.4941	53.9931	31.4941	54.9099	31.4941	53.8868	31.4941	55.7716	31.4941	54.0424	31.4941	56.6583	31.4941	54.5419	31.4941	57.5118	31.4941	55.3465	31.4941	58.2918	31.4941	56.322	31.4941	58.9707	31.4941	57.3225	31.4941	59.529	31.4941	58.2416	31.4941	59.9511	31.4941	59.018	31.4941	60.2243	31.4941	59.6218	31.4941	60.3369	31.4941	60.0423	31.4941	60.279
32.2266	54.8106	32.2266	54.5247	32.2266	55.041	32.2266	54.2291	32.2266	55.1861	32.2266	53.9885	32.2266	55.2295	32.2266	53.8818	32.2266	55.1672	32.2266	53.9838	32.2266	55.0113	32.2266	54.3349	32.2266	54.7994	32.2266	54.9204	32.2266	54.6068	32.2266	55.6787	32.2266	54.5499	32.2266	56.5306	32.2266	54.7565	32.2266	57.4037	32.2266	55.2939	32.2266	58.2434	32.2266	56.1145	32.2266	59.011	32.2266	57.0876	32.2266	59.68	32.2266	58.0758	32.2266	60.2309	32.2266	58.9799	32.2266	60.6483	32.2266	59.7421	32.2266	60.9192	32.2266	60.3344	32.2266	61.0322	32.2266	60.7463	32.2266	60.9773
33.6914	56.2512	33.6914	55.9751	33.6914	56.4748	33.6914	55.688	33.6914	56.6187	33.6914	55.4479	33.6914	56.6675	33.6914	55.3259	33.6914	56.6171	33.6914	55.3909	33.6914	56.478	33.6914	55.6851	33.6914	56.2827	33.6914	56.2029	33.6914	56.0963	33.6914	56.8943	33.6914	56.0198	33.6914	57.6878	33.6914	56.1691	33.6914	58.514	33.6914	56.6164	33.6914	59.3173	33.6914	57.3373	33.6914	60.0573	33.6914	58.2241	33.6914	60.7054	33.6914	59.1488	33.6914	61.2403	33.6914	60.0106	33.6914	61.6457	33.6914	60.7468	33.6914	61.908	33.6914	61.3242	33.6914	62.0154	33.6914	61.729	33.6914	61.9582
34.4238	56.6202	34.4238	56.3509	34.4238	56.8372	34.4238	56.0715	34.4238	56.9742	34.4238	55.8404	34.4238	57.0152	34.4238	55.729	34.4238	56.9558	34.4238	55.8055	34.4238	56.8064	34.4238	56.1105	34.4238	56.6004	34.4238	56.6369	34.4238	56.4047	34.4238	57.334	34.4238	56.3242	34.4238	58.1306	34.4238	56.479	34.4238	58.958	34.4238	56.9422	34.4238	59.7611	34.4238	57.6853	34.4238	60.5004	34.4238	58.5945	34.4238	61.1472	34.4238	59.538	34.4238	61.6807	34.4238	60.4141	34.4238	62.0844	34.4238	61.1607	34.4238	62.3447	34.4238	61.7458	34.4238	62.4496	34.4238	62.1561	34.4238	62.3893
35.8887	57.9936	35.8887	57.7709	35.8887	58.1773	35.8887	57.5476	35.8887	58.2963	35.8887	57.375	35.8887	58.3362	35.8887	57.3129	35.8887	58.2946	35.8887	57.4161	35.8887	58.1844	35.8887	57.7166	35.8887	58.0398	35.8887	58.209	35.8887	57.9236	35.8887	58.8531	35.8887	57.9259	35.8887	59.5903	35.8887	58.1402	35.8887	60.3616	35.8887	58.6156	35.8887	61.117	35.8887	59.3215	35.8887	61.8183	35.8887	60.1635	35.8887	62.437	35.8887	61.0324	35.8887	62.9514	35.8887	61.8406	35.8887	63.3442	35.8887	62.5313	35.8887	63.6014	35.8887	63.0732	35.8887	63.7111	35.8887	63.4518	35.8887	63.6635
37.3535	59.5722	37.3535	59.3802	37.3535	59.7358	37.3535	59.1941	37.3535	59.8477	37.3535	59.0579	37.3535	59.8951	37.3535	59.0217	37.3535	59.8764	37.3535	59.1303	37.3535	59.8043	37.3535	59.4101	37.3535	59.71	37.3535	59.8578	37.3535	59.6478	37.3535	60.4424	37.3535	59.6915	37.3535	61.1159	37.3535	59.9149	37.3535	61.8269	37.3535	60.3563	37.3535	62.5302	37.3535	60.9929	37.3535	63.189	37.3535	61.7504	37.3535	63.7747	37.3535	62.5377	37.3535	64.2651	37.3535	63.2768	37.3535	64.6423	37.3535	63.9137	37.3535	64.8917	37.3535	64.4158	37.3535	65.0012	37.3535	64.767	37.3535	64.9617
38.8184	61.0489	38.8184	60.8761	38.8184	61.1974	38.8184	60.7093	38.8184	61.3008	38.8184	60.5866	38.8184	61.3475	38.8184	60.5508	38.8184	61.336	38.8184	60.641	38.8184	61.2775	38.8184	60.8818	38.8184	61.1993	38.8184	61.2743	38.8184	61.1483	38.8184	61.7953	38.8184	61.1883	38.8184	62.4052	38.8184	61.3836	38.8184	63.0589	38.8184	61.7712	38.8184	63.7135	38.8184	62.3376	38.8184	64.3332	38.8184	63.0226	38.8184	64.8887	38.8184	63.7458	38.8184	65.3568	38.8184	64.434	38.8184	65.7185	38.8184	65.0329	38.8184	65.9587	38.8184	65.5087	38.8184	66.065	38.8184	65.8428	38.8184	66.0282
39.5508	61.7343	39.5508	61.5667	39.5508	61.8789	39.5508	61.4044	39.5508	61.9804	39.5508	61.2839	39.5508	62.0279	39.5508	61.2455	39.5508	62.0199	39.5508	61.3265	39.5508	61.967	39.5508	61.5512	39.5508	61.895	39.5508	61.9222	39.5508	61.8483	39.5508	62.4192	39.5508	61.8865	39.5508	63.0055	39.5508	62.0707	39.5508	63.6379	39.5508	62.4372	39.5508	64.2748	39.5508	62.9757	39.5508	64.8803	39.5508	63.6313	39.5508	65.4251	39.5508	64.3282	39.5508	65.8853	39.5508	64.995	39.5508	66.2419	39.5508	65.578	39.5508	66.4792	39.5508	66.0423	39.5508	66.585	39.5508	66.369	39.5508	66.5499
41.0156	62.983	41.0156	62.8301	41.0156	63.1127	41.0156	62.6801	41.0156	63.2014	41.0156	62.566	41.0156	63.2393	41.0156	62.5249	41.0156	63.2258	41.0156	62.5922	41.0156	63.1721	41.0156	62.7923	41.0156	63.1038	41.0156	63.1309	41.0156	63.0637	41.0156	63.5923	41.0156	63.1085	41.0156	64.1445	41.0156	63.2945	41.0156	64.7473	41.0156	63.6543	41.0156	65.3606	41.0156	64.1769	41.0156	65.9486	41.0156	64.8099	41.0156	66.4814	41.0156	65.4815	41.0156	66.9347	41.0156	66.1237	41.0156	67.2886	41.0156	66.6845	41.0156	67.5272	41.0156	67.1301	41.0156	67.6376	41.0156	67.4415	41.0156	67.6108
42.4805	64.2782	42.4805	64.1349	42.4805	64.4067	42.4805	64.0007	42.4805	64.5039	42.4805	63.9054	42.4805	64.5607	42.4805	63.8818	42.4805	64.5771	42.4805	63.96	42.4805	64.5634	42.4805	64.1604	42.4805	64.5424	42.4805	64.487	42.4805	64.5507	42.4805	64.9257	42.4805	64.6345	42.4805	65.4484	42.4805	64.8382	42.4805	66.0194	42.4805	65.1866	42.4805	66.6022	42.4805	65.6702	42.4805	67.1637	42.4805	66.2469	42.4805	67.6752	42.4805	66.857	42.4805	68.1132	42.4805	67.4417	42.4805	68.4581	42.4805	67.9538	42.4805	68.6941	42.4805	68.3609	42.4805	68.8088	42.4805	68.6438	42.4805	68.7935
43.9453	65.7563	43.9453	65.6229	43.9453	65.8776	43.9453	65.4984	43.9453	65.972	43.9453	65.4088	43.9453	66.0315	43.9453	65.3826	43.9453	66.0557	43.9453	65.4465	43.9453	66.0535	43.9453	65.6193	43.9453	66.0446	43.9453	65.9065	43.9453	66.0603	43.9453	66.2982	43.9453	66.1401	43.9453	66.7714	43.9453	66.3226	43.9453	67.2952	43.9453	66.6311	43.9453	67.836	43.9453	67.0607	43.9453	68.3622	43.9453	67.578	43.9453	68.8457	43.9453	68.1317	43.9453	69.2627	43.9453	68.668	43.9453	69.5931	43.9453	69.1418	43.9453	69.8209	43.9453	69.5207	43.9453	69.9336	43.9453	69.7843	43.9453	69.9227
45.4102	67.0288	45.4102	66.9024	45.4102	67.1456	45.4102	66.7853	45.4102	67.2391	45.4102	66.7013	45.4102	67.3019	45.4102	66.676	45.4102	67.3335	45.4102	66.7337	45.4102	67.3419	45.4102	66.8918	45.4102	67.3447	45.4102	67.1563	45.4102	67.3697	45.4102	67.5195	45.4102	67.4519	45.4102	67.9615	45.4102	67.6257	45.4102	68.4545	45.4102	67.9123	45.4102	68.9672	45.4102	68.3092	45.4102	69.4695	45.4102	68.788	45.4102	69.9338	45.4102	69.3031	45.4102	70.3363	45.4102	69.8051	45.4102	70.6571	45.4102	70.2508	45.4102	70.8798	45.4102	70.6082	45.4102	70.9921	45.4102	70.8566	45.4102	70.9855
47.6074	69.0161	47.6074	68.905	47.6074	69.1214	47.6074	68.8044	47.6074	69.209	47.6074	68.7342	47.6074	69.2724	47.6074	68.7161	47.6074	69.3111	47.6074	68.7701	47.6074	69.3317	47.6074	68.9112	47.6074	69.3491	47.6074	69.1454	47.6074	69.3862	47.6074	69.4676	47.6074	69.4721	47.6074	69.8623	47.6074	69.6352	47.6074	70.3063	47.6074	69.8937	47.6074	70.7727	47.6074	70.247	47.6074	71.2338	47.6074	70.6731	47.6074	71.6637	47.6074	71.1339	47.6074	72.0394	47.6074	71.5862	47.6074	72.341	47.6074	71.9906	47.6074	72.5524	47.6074	72.3162	47.6074	72.661	47.6074	72.5427	47.6074	72.6587
49.0723	70.3207	49.0723	70.2171	49.0723	70.4203	49.0723	70.1242	49.0723	70.5052	49.0723	70.0596	49.0723	70.5697	49.0723	70.0424	49.0723	70.6131	49.0723	70.0908	49.0723	70.6414	49.0723	70.2182	49.0723	70.6679	49.0723	70.4309	49.0723	70.7126	49.0723	70.7255	49.0723	70.8008	49.0723	71.089	49.0723	70.9576	49.0723	71.5014	49.0723	71.199	49.0723	71.938	49.0723	71.5253	49.0723	72.3732	49.0723	71.9176	49.0723	72.782	49.0723	72.3426	49.0723	73.1418	49.0723	72.761	49.0723	73.4329	49.0723	73.136	49.0723	73.6392	49.0723	73.4381	49.0723	73.7481	49.0723	73.6471	49.0723	73.7516
50.5371	71.587	50.5371	71.4901	50.5371	71.6819	50.5371	71.4045	50.5371	71.7654	50.5371	71.3459	50.5371	71.8319	50.5371	71.3313	50.5371	71.8811	50.5371	71.3767	50.5371	71.9182	50.5371	71.4945	50.5371	71.9548	50.5371	71.6906	50.5371	72.0087	50.5371	71.9627	50.5371	72.1018	50.5371	72.3001	50.5371	72.2557	50.5371	72.6849	50.5371	72.4847	50.5371	73.0952	50.5371	72.789	50.5371	73.5069	50.5371	73.1525	50.5371	73.8962	50.5371	73.5456	50.5371	74.2414	50.5371	73.9329	50.5371	74.5229	50.5371	74.2802	50.5371	74.7248	50.5371	74.5596	50.5371	74.8345	50.5371	74.7513	50.5371	74.8442
52.7344	73.5321	52.7344	73.4418	52.7344	73.6225	52.7344	73.3626	52.7344	73.7047	52.7344	73.3076	52.7344	73.7741	52.7344	73.2911	52.7344	73.8301	52.7344	73.3266	52.7344	73.8768	52.7344	73.4249	52.7344	73.9234	52.7344	73.5918	52.7344	73.9842	52.7344	73.8266	52.7344	74.0768	52.7344	74.1217	52.7344	74.2186	52.7344	74.4628	52.7344	74.4216	52.7344	74.8311	52.7344	74.687	52.7344	75.2053	52.7344	75.0026	52.7344	75.5636	52.7344	75.3446	52.7344	75.885	52.7344	75.6829	52.7344	76.1505	52.7344	75.9871	52.7344	76.3444	52.7344	76.2314	52.7344	76.4543	52.7344	76.397	52.7344	76.4726
54.1992	74.8258	54.1992	74.7406	54.1992	74.9121	54.1992	74.6663	54.1992	74.9922	54.1992	74.6147	54.1992	75.0618	54.1992	74.5982	54.1992	75.1202	54.1992	74.6289	54.1992	75.1709	54.1992	74.7168	54.1992	75.2218	54.1992	74.8674	54.1992	75.2854	54.1992	75.0809	54.1992	75.3768	54.1992	75.3511	54.1992	75.5114	54.1992	75.6657	54.1992	75.6999	54.1992	76.0082	54.1992	75.9437	54.1992	76.3589	54.1992	76.2326	54.1992	76.6971	54.1992	76.5459	54.1992	77.0027	54.1992	76.8562	54.1992	77.2572	54.1992	77.1357	54.1992	77.4449	54.1992	77.3598	54.1992	77.5539	54.1992	77.5104	54.1992	77.5764
56.3965	76.6704	56.3965	76.5897	56.3965	76.7532	56.3965	76.5195	56.3965	76.8321	56.3965	76.4696	56.3965	76.9032	56.3965	76.4505	56.3965	76.9659	56.3965	76.4727	56.3965	77.0229	56.3965	76.5448	56.3965	77.0805	56.3965	76.6724	56.3965	77.1486	56.3965	76.8565	56.3965	77.2395	56.3965	77.0931	56.3965	77.3656	56.3965	77.3724	56.3965	77.5356	56.3965	77.6804	56.3965	77.7512	56.3965	77.9998	56.3965	78.0042	56.3965	78.3118	56.3965	78.2776	56.3965	78.5973	56.3965	78.5482	56.3965	78.8386	56.3965	78.7914	56.3965	79.0202	56.3965	78.9849	56.3965	79.1304	56.3965	79.1118	56.3965	79.1616
58.5938	78.3211	58.5938	78.2434	58.5938	78.4022	58.5938	78.1762	58.5938	78.4814	58.5938	78.1277	58.5938	78.5554	58.5938	78.107	58.5938	78.6233	58.5938	78.1228	58.5938	78.687	58.5938	78.1828	58.5938	78.7515	58.5938	78.2922	58.5938	78.8245	58.5938	78.4527	58.5938	78.9157	58.5938	78.6612	58.5938	79.0351	58.5938	78.9104	58.5938	79.1898	58.5938	79.1884	58.5938	79.3814	58.5938	79.4802	58.5938	79.6035	58.5938	79.7685	58.5938	79.842	58.5938	80.0356	58.5938	80.0771	58.5938	80.2647	58.5938	80.2873	58.5938	80.4408	58.5938	80.4527	58.5938	80.5523	58.5938	80.5575	58.5938	80.5919
60.0586	79.3791	60.0586	79.3048	60.0586	79.4577	60.0586	79.241	60.0586	79.5359	60.0586	79.195	60.0586	79.6106	60.0586	79.1746	60.0586	79.681	60.0586	79.1876	60.0586	79.7485	60.0586	79.2411	60.0586	79.817	60.0586	79.3398	60.0586	79.8931	60.0586	79.4855	60.0586	79.9848	60.0586	79.6763	60.0586	80.1004	60.0586	79.9058	60.0586	80.2461	60.0586	80.1637	60.0586	80.423	60.0586	80.4364	60.0586	80.6258	60.0586	80.7079	60.0586	80.8421	60.0586	80.9615	60.0586	81.0545	60.0586	81.181	60.0586	81.2436	60.0586	81.3519	60.0586	81.3909	60.0586	81.463	60.0586	81.4818	60.0586	81.507
62.2559	80.8372	62.2559	80.7644	62.2559	80.9149	62.2559	80.7016	62.2559	80.9934	62.2559	80.655	62.2559	81.0698	62.2559	80.6313	62.2559	81.1431	62.2559	80.6371	62.2559	81.214	62.2559	80.6785	62.2559	81.2852	62.2559	80.7601	62.2559	81.3617	62.2559	80.8839	62.2559	81.4495	62.2559	81.0491	62.2559	81.5554	62.2559	81.2508	62.2559	81.6844	62.2559	81.4807	62.2559	81.8378	62.2559	81.7269	62.2559	82.0117	62.2559	81.9753	62.2559	82.1962	62.2559	82.2105	62.2559	82.3767	62.2559	82.417	62.2559	82.5363	62.2559	82.5812	62.2559	82.6585	62.2559	82.692	62.2559	82.7301	62.2559	82.7423
64.4531	82.0365	64.4531	81.9666	64.4531	82.1124	64.4531	81.9071	64.4531	82.1908	64.4531	81.863	64.4531	82.2691	64.4531	81.8399	64.4531	82.3462	64.4531	81.8433	64.4531	82.4222	64.4531	81.8785	64.4531	82.499	64.4531	81.9495	64.4531	82.5799	64.4531	82.0586	64.4531	82.6694	64.4531	82.2052	64.4531	82.7727	64.4531	82.386	64.4531	82.8933	64.4531	82.594	64.4531	83.0323	64.4531	82.8191	64.4531	83.1864	64.4531	83.0487	64.4531	83.3473	64.4531	83.2688	64.4531	83.5026	64.4531	83.465	64.4531	83.6378	64.4531	83.6242	64.4531	83.7384	64.4531	83.7357	64.4531	83.7926	64.4531	83.7926
66.6504	82.9917	66.6504	82.9254	66.6504	83.0654	66.6504	82.8699	66.6504	83.1435	66.6504	82.8294	66.6504	83.2237	66.6504	82.8083	66.6504	83.3048	66.6504	82.8112	66.6504	83.3864	66.6504	82.8424	66.6504	83.4693	66.6504	82.9053	66.6504	83.5557	66.6504	83.0021	66.6504	83.6484	66.6504	83.133	66.6504	83.7509	66.6504	83.2952	66.6504	83.8657	66.6504	83.4834	66.6504	83.9932	66.6504	83.689	66.6504	84.1305	66.6504	83.901	66.6504	84.2706	66.6504	84.1068	66.6504	84.4033	66.6504	84.293	66.6504	84.5161	66.6504	84.4473	66.6504	84.5965	66.6504	84.5594	66.6504	84.6342	66.6504	84.6226
69.5801	83.8043	69.5801	83.7423	69.5801	83.8754	69.5801	83.692	69.5801	83.9532	69.5801	83.6562	69.5801	84.036	69.5801	83.6382	69.5801	84.122	69.5801	83.6412	69.5801	84.2104	69.5801	83.6683	69.5801	84.3008	69.5801	83.7224	69.5801	84.3937	69.5801	83.8052	69.5801	84.4901	69.5801	83.9174	69.5801	84.5915	69.5801	84.0574	69.5801	84.6989	69.5801	84.2212	69.5801	84.8122	69.5801	84.4023	69.5801	84.9288	69.5801	84.5918	69.5801	85.0435	69.5801	84.7786	69.5801	85.1482	69.5801	84.9512	69.5801	85.2332	69.5801	85.0983	69.5801	85.2886	69.5801	85.2102	69.5801	85.3061	69.5801	85.2804
71.7773	84.1225	71.7773	84.0645	71.7773	84.1906	71.7773	84.0186	71.7773	84.2669	71.7773	83.9868	71.7773	84.3499	71.7773	83.9715	71.7773	84.4377	71.7773	83.975	71.7773	84.5291	71.7773	83.9997	71.7773	84.6229	71.7773	84.0479	71.7773	84.7187	71.7773	84.1214	71.7773	84.8163	71.7773	84.2207	71.7773	84.9162	71.7773	84.3451	71.7773	85.0183	71.7773	84.4916	71.7773	85.1222	71.7773	84.6549	71.7773	85.2255	71.7773	84.8276	71.7773	85.3237	71.7773	85.0001	71.7773	85.4104	71.7773	85.162	71.7773	85.4775	71.7773	85.3027	71.7773	85.5168	71.7773	85.4133	71.7773	85.5215	71.7773	85.4872
73.9746	84.2191	73.9746	84.1654	73.9746	84.284	73.9746	84.1243	73.9746	84.3586	73.9746	84.0969	73.9746	84.4415	73.9746	84.0849	73.9746	84.5309	73.9746	84.0897	73.9746	84.6252	73.9746	84.1131	73.9746	84.7226	73.9746	84.1569	73.9746	84.8218	73.9746	84.2226	73.9746	84.9215	73.9746	84.3108	73.9746	85.021	73.9746	84.4214	73.9746	85.1197	73.9746	84.5524	73.9746	85.2163	73.9746	84.6996	73.9746	85.3086	73.9746	84.8569	73.9746	85.393	73.9746	85.0163	73.9746	85.464	73.9746	85.1682	73.9746	85.5152	73.9746	85.3032	73.9746	85.5399	73.9746	85.4126	73.9746	85.5327	73.9746	85.4902
76.9043	84.1473	76.9043	84.0984	76.9043	84.2089	76.9043	84.0627	76.9043	84.2823	76.9043	84.0406	76.9043	84.3663	76.9043	84.0326	76.9043	84.459	76.9043	84.0393	76.9043	84.5583	76.9043	84.0616	76.9043	84.6617	76.9043	84.1005	76.9043	84.7666	76.9043	84.1573	76.9043	84.8706	76.9043	84.233	76.9043	84.9716	76.9043	84.3277	76.9043	85.0677	76.9043	84.4406	76.9043	85.157	76.9043	84.5691	76.9043	85.2373	76.9043	84.7088	76.9043	85.3055	76.9043	84.8531	76.9043	85.3575	76.9043	84.9942	76.9043	85.3887	76.9043	85.1236	76.9043	85.3945	76.9043	85.2334	76.9043	85.3713	76.9043	85.3172
79.834	83.9487	79.834	83.9035	79.834	84.0082	79.834	83.8723	79.834	84.0814	79.834	83.8548	79.834	84.1674	79.834	83.8505	79.834	84.2641	79.834	83.8592	79.834	84.3689	79.834	83.881	79.834	84.4786	79.834	83.9164	79.834	84.5895	79.834	83.9661	79.834	84.6981	79.834	84.0314	79.834	84.8011	79.834	84.1127	79.834	84.8954	79.834	84.2102	79.834	84.9786	79.834	84.3225	79.834	85.0483	79.834	84.4467	79.834	85.102	79.834	84.5778	79.834	85.1368	79.834	84.7093	79.834	85.1497	79.834	84.8339	79.834	85.1379	79.834	84.9444	79.834	85.0995	79.834	85.0343
82.7637	83.7703	82.7637	83.7275	82.7637	83.8279	82.7637	83.6991	82.7637	83.9005	82.7637	83.6838	82.7637	83.9869	82.7637	83.6805	82.7637	84.0854	82.7637	83.6883	82.7637	84.1927	82.7637	83.7066	82.7637	84.3051	82.7637	83.7354	82.7637	84.4182	82.7637	83.7753	82.7637	84.5273	82.7637	83.8274	82.7637	84.6282	82.7637	83.8929	82.7637	84.7172	82.7637	83.9725	82.7637	84.7912	82.7637	84.0663	82.7637	84.8478	82.7637	84.1728	82.7637	84.885	82.7637	84.2887	82.7637	84.9011	82.7637	84.4092	82.7637	84.8945	82.7637	84.5279	82.7637	84.8643	82.7637	84.6382	82.7637	84.8104	82.7637	84.734
85.6934	83.5853	85.6934	83.5449	85.6934	83.6409	85.6934	83.5184	85.6934	83.7121	85.6934	83.5043	85.6934	83.7982	85.6934	83.5007	85.6934	83.8971	85.6934	83.5059	85.6934	84.0056	85.6934	83.519	85.6934	84.1192	85.6934	83.5397	85.6934	84.2329	85.6934	83.5685	85.6934	84.3413	85.6934	83.6068	85.6934	84.4394	85.6934	83.6562	85.6934	84.5226	85.6934	83.7185	85.6934	84.5876	85.6934	83.7949	85.6934	84.6319	85.6934	83.8853	85.6934	84.6539	85.6934	83.9879	85.6934	84.6528	85.6934	84.0989	85.6934	84.6285	85.6934	84.213	85.6934	84.5814	85.6934	84.324	85.6934	84.513	85.6934	84.4258
88.623	83.3993	88.623	83.3604	88.623	83.4548	88.623	83.3364	88.623	83.5274	88.623	83.3253	88.623	83.6163	88.623	83.3247	88.623	83.7195	88.623	83.3326	88.623	83.8331	88.623	83.3475	88.623	83.9525	88.623	83.3688	88.623	84.0718	88.623	83.3967	88.623	84.1851	88.623	83.4325	88.623	84.2865	88.623	83.4778	88.623	84.3712	88.623	83.5348	88.623	84.4352	88.623	83.6051	88.623	84.476	88.623	83.6894	88.623	84.4921	88.623	83.7865	88.623	84.4832	88.623	83.8936	88.623	84.45	88.623	84.0061	88.623	84.3939	88.623	84.1183	88.623	84.3174	88.623	84.2239
91.5527	83.1406	91.5527	83.1015	91.5527	83.1983	91.5527	83.0791	91.5527	83.2752	91.5527	83.0708	91.5527	83.3704	91.5527	83.0738	91.5527	83.4817	91.5527	83.0853	91.5527	83.6047	91.5527	83.1034	91.5527	83.734	91.5527	83.1267	91.5527	83.8632	91.5527	83.1551	91.5527	83.9853	91.5527	83.1895	91.5527	84.0938	91.5527	83.2317	91.5527	84.1829	91.5527	83.2842	91.5527	84.2482	91.5527	83.3491	91.5527	84.2865	91.5527	83.4282	91.5527	84.2966	91.5527	83.5214	91.5527	84.2786	91.5527	83.6268	91.5527	84.2339	91.5527	83.7408	91.5527	84.1651	91.5527	83.8578	91.5527	84.0761	91.5527	83.9717
94.4824	82.951	94.4824	82.9128	94.4824	83.0096	94.4824	82.8929	94.4824	83.0895	94.4824	82.8885	94.4824	83.1897	94.4824	82.8962	94.4824	83.3076	94.4824	82.9127	94.4824	83.4386	94.4824	82.9354	94.4824	83.5766	94.4824	82.9627	94.4824	83.7145	94.4824	82.9938	94.4824	83.8447	94.4824	83.0293	94.4824	83.9598	94.4824	83.071	94.4824	84.0534	94.4824	83.1212	94.4824	84.1202	94.4824	83.1825	94.4824	84.1571	94.4824	83.2572	94.4824	84.1627	94.4824	83.346	94.4824	84.1376	94.4824	83.4482	94.4824	84.0842	94.4824	83.5608	94.4824	84.0061	94.4824	83.6792	94.4824	83.9085	94.4824	83.7973
98.1445	82.9962	98.1445	82.9625	98.1445	83.0474	98.1445	82.9439	98.1445	83.1175	98.1445	82.9367	98.1445	83.206	98.1445	82.9373	98.1445	83.3108	98.1445	82.9422	98.1445	83.4275	98.1445	82.9485	98.1445	83.5502	98.1445	82.9547	98.1445	83.6719	98.1445	82.9602	98.1445	83.7846	98.1445	82.9663	98.1445	83.881	98.1445	82.9757	98.1445	83.9543	98.1445	82.9919	98.1445	83.9993	98.1445	83.0194	98.1445	84.0128	98.1445	83.0623	98.1445	83.9941	98.1445	83.1235	98.1445	83.9447	98.1445	83.2041	98.1445	83.8681	98.1445	83.3026	98.1445	83.7696	98.1445	83.4151	98.1445	83.6562	98.1445	83.5354
101.807	82.9292	101.807	82.8976	101.807	82.9794	101.807	82.8817	101.807	83.0494	101.807	82.8779	101.807	83.139	101.807	82.882	101.807	83.2455	101.807	82.8902	101.807	83.3646	101.807	82.8993	101.807	83.4901	101.807	82.9073	101.807	83.6145	101.807	82.9134	101.807	83.7298	101.807	82.9187	101.807	83.828	101.807	82.9255	101.807	83.9021	101.807	82.9378	101.807	83.9466	101.807	82.9602	101.807	83.9583	101.807	82.9973	101.807	83.9363	101.807	83.0527	101.807	83.8824	101.807	83.1283	101.807	83.8007	101.807	83.2234	101.807	83.6971	101.807	83.3344	101.807	83.5793	101.807	83.4556
105.469	82.8708	105.469	82.8415	105.469	82.9197	105.469	82.8287	105.469	82.9894	105.469	82.8282	105.469	83.0798	105.469	82.8356	105.469	83.1882	105.469	82.8466	105.469	83.3101	105.469	82.8576	105.469	83.4389	105.469	82.8663	105.469	83.5668	105.469	82.8716	105.469	83.6854	105.469	82.8744	105.469	83.7864	105.469	82.8772	105.469	83.8621	105.469	82.8841	105.469	83.9068	105.469	82.9001	105.469	83.9169	105.469	82.9307	105.469	83.8914	105.469	82.9802	105.469	83.8323	105.469	83.0514	105.469	83.7441	105.469	83.1443	105.469	83.6335	105.469	83.2558	105.469	83.509	105.469	83.3801
109.131	82.9401	109.131	82.9113	109.131	82.988	109.131	82.8986	109.131	83.0566	109.131	82.8976	109.131	83.1456	109.131	82.9037	109.131	83.2524	109.131	82.9124	109.131	83.3724	109.131	82.9197	109.131	83.4989	109.131	82.923	109.131	83.6243	109.131	82.9213	109.131	83.7397	109.131	82.9155	109.131	83.8367	109.131	82.9081	109.131	83.9076	109.131	82.9038	109.131	83.9461	109.131	82.9081	109.131	83.9487	109.131	82.9273	109.131	83.9145	109.131	82.9669	109.131	83.8454	109.131	83.0305	109.131	83.7467	109.131	83.119	109.131	83.626	109.131	83.2299	109.131	83.4927	109.131	83.3573
112.793	83.0217	112.793	82.9934	112.793	83.069	112.793	82.9809	112.793	83.1372	112.793	82.9798	112.793	83.2259	112.793	82.985	112.793	83.3326	112.793	82.9919	112.793	83.4524	112.793	82.9962	112.793	83.5789	112.793	82.9953	112.793	83.704	112.793	82.988	112.793	83.8187	112.793	82.9751	112.793	83.9142	112.793	82.9596	112.793	83.9824	112.793	82.9462	112.793	84.017	112.793	82.9413	112.793	84.0141	112.793	82.9516	112.793	83.9726	112.793	82.9837	112.793	83.8949	112.793	83.042	112.793	83.7866	112.793	83.1283	112.793	83.6562	112.793	83.2402	112.793	83.5141	112.793	83.3718
116.455	83.0179	116.455	82.991	116.455	83.0647	116.455	82.9805	116.455	83.133	116.455	82.9818	116.455	83.2225	116.455	82.9898	116.455	83.3303	116.455	82.9991	116.455	83.4516	116.455	83.0055	116.455	83.5797	116.455	83.0057	116.455	83.7064	116.455	82.9984	116.455	83.8227	116.455	82.9842	116.455	83.9196	116.455	82.9662	116.455	83.9888	116.455	82.9493	116.455	84.0236	116.455	82.94	116.455	84.02	116.455	82.9457	116.455	83.9767	116.455	82.9736	116.455	83.8963	116.455	83.0287	116.455	83.7843	116.455	83.1131	116.455	83.6498	116.455	83.225	116.455	83.5038	116.455	83.3584
120.85	83.146	120.85	83.1177	120.85	83.1932	120.85	83.1049	120.85	83.2607	120.85	83.1033	120.85	83.3476	120.85	83.1077	120.85	83.4514	120.85	83.1129	120.85	83.5671	120.85	83.1143	120.85	83.6883	120.85	83.1086	120.85	83.8071	120.85	83.0942	120.85	83.9147	120.85	83.0718	120.85	84.0024	120.85	83.0443	120.85	84.0621	120.85	83.0168	120.85	84.0874	120.85	82.9963	120.85	84.0741	120.85	82.9907	120.85	84.0214	120.85	83.0078	120.85	83.9317	120.85	83.0536	120.85	83.8115	120.85	83.131	120.85	83.67	120.85	83.2388	120.85	83.519	120.85	83.3713
125.244	83.3073	125.244	83.272	125.244	83.36	125.244	83.2512	125.244	83.4311	125.244	83.2408	125.244	83.5197	125.244	83.2359	125.244	83.623	125.244	83.2315	125.244	83.736	125.244	83.2233	125.244	83.8523	125.244	83.2077	125.244	83.9641	125.244	83.1835	125.244	84.0629	125.244	83.151	125.244	84.14	125.244	83.1131	125.244	84.1875	125.244	83.0752	125.244	84.1993	125.244	83.0442	125.244	84.1715	125.244	83.0287	125.244	84.1035	125.244	83.0369	125.244	83.9986	125.244	83.0758	125.244	83.8636	125.244	83.1492	125.244	83.709	125.244	83.2565	125.244	83.5475	125.244	83.3925
129.639	83.3172	129.639	83.2869	129.639	83.3659	129.639	83.2713	129.639	83.4345	129.639	83.2658	129.639	83.5225	129.639	83.2647	129.639	83.6271	129.639	83.2626	129.639	83.7434	129.639	83.2546	129.639	83.8647	129.639	83.2372	129.639	83.9825	129.639	83.209	129.639	84.0878	129.639	83.1706	129.639	84.1711	129.639	83.1253	129.639	84.2237	129.639	83.0789	129.639	84.2384	129.639	83.0393	129.639	84.2108	129.639	83.0158	129.639	84.1399	129.639	83.0179	129.639	84.0288	129.639	83.0534	129.639	83.8849	129.639	83.127	129.639	83.7196	129.639	83.2383	129.639	83.5469	129.639	83.3819
134.033	83.3046	134.033	83.2716	134.033	83.3562	134.033	83.2537	134.033	83.4274	134.033	83.2463	134.033	83.5175	134.033	83.2436	134.033	83.6234	134.033	83.2397	134.033	83.7401	134.033	83.2294	134.033	83.861	134.033	83.2089	134.033	83.9779	134.033	83.1765	134.033	84.0819	134.033	83.1329	134.033	84.1639	134.033	83.0816	134.033	84.2151	134.033	83.0289	134.033	84.2282	134.033	82.9834	134.033	84.1984	134.033	82.9551	134.033	84.1243	134.033	82.9544	134.033	84.0088	134.033	82.9897	134.033	83.859	134.033	83.0658	134.033	83.6865	134.033	83.1823	134.033	83.5058	134.033	83.3328
138.428	83.4271	138.428	83.3906	138.428	83.4831	138.428	83.3709	138.428	83.5595	138.428	83.3635	138.428	83.6552	138.428	83.3628	138.428	83.767	138.428	83.363	138.428	83.8899	138.428	83.3588	138.428	84.0173	138.428	83.3463	138.428	84.1415	138.428	83.3234	138.428	84.2537	138.428	83.2907	138.428	84.3446	138.428	83.2512	138.428	84.4053	138.428	83.2108	138.428	84.4284	138.428	83.1777	138.428	84.4084	138.428	83.1614	138.428	84.3436	138.428	83.1716	138.428	84.2362	138.428	83.2163	138.428	84.093	138.428	83.2997	138.428	83.9252	138.428	83.4211	138.428	83.7469	138.428	83.574
143.555	83.5713	143.555	83.5267	143.555	83.6318	143.555	83.4959	143.555	83.7086	143.555	83.4753	143.555	83.8001	143.555	83.4598	143.555	83.9032	143.555	83.4442	143.555	84.0131	143.555	83.4235	143.555	84.1242	143.555	83.394	143.555	84.2295	143.555	83.3538	143.555	84.3213	143.555	83.3037	143.555	84.3914	143.555	83.2471	143.555	84.4317	143.555	83.19	143.555	84.4353	143.555	83.1412	143.555	84.3971	143.555	83.1105	143.555	84.3154	143.555	83.1083	143.555	84.1928	143.555	83.1432	143.555	84.0362	143.555	83.22	143.555	83.8572	143.555	83.3386	143.555	83.6706	143.555	83.4927
148.682	83.6996	148.682	83.646	148.682	83.7671	148.682	83.6042	148.682	83.8484	148.682	83.5709	148.682	83.9418	148.682	83.5411	148.682	84.0442	148.682	83.5098	148.682	84.1508	148.682	83.4723	148.682	84.2558	148.682	83.4249	148.682	84.3524	148.682	83.366	148.682	84.433	148.682	83.2968	148.682	84.4893	148.682	83.2211	148.682	84.5135	148.682	83.1458	148.682	84.4986	148.682	83.0801	148.682	84.4401	148.682	83.0351	148.682	84.3365	148.682	83.0221	148.682	84.1911	148.682	83.0504	148.682	84.0118	148.682	83.126	148.682	83.8113	148.682	83.249	148.682	83.6058	148.682	83.413
153.809	83.7772	153.809	83.7258	153.809	83.8416	153.809	83.6853	153.809	83.919	153.809	83.6521	153.809	84.0078	153.809	83.6214	153.809	84.105	153.809	83.588	153.809	84.2062	153.809	83.547	153.809	84.3061	153.809	83.495	153.809	84.3982	153.809	83.4304	153.809	84.4751	153.809	83.3545	153.809	84.5288	153.809	83.2717	153.809	84.5514	153.809	83.1891	153.809	84.5355	153.809	83.1166	153.809	84.476	153.809	83.0656	153.809	84.3714	153.809	83.0477	153.809	84.2242	153.809	83.0727	153.809	84.0425	153.809	83.1467	153.809	83.8391	153.809	83.2697	153.809	83.6306	153.809	83.4352
159.668	83.9545	159.668	83.8995	159.668	84.0208	159.668	83.8541	159.668	84.0984	159.668	83.8149	159.668	84.1858	159.668	83.7774	159.668	84.28	159.668	83.7364	159.668	84.3772	159.668	83.6872	159.668	84.4724	159.668	83.6266	159.668	84.5598	159.668	83.5533	159.668	84.6325	159.668	83.4689	159.668	84.6829	159.668	83.3781	159.668	84.7026	159.668	83.2887	159.668	84.6842	159.668	83.2108	159.668	84.622	159.668	83.1563	159.668	84.5135	159.668	83.1369	159.668	84.3612	159.668	83.1627	159.668	84.1728	159.668	83.2398	159.668	83.9614	159.668	83.3681	159.668	83.7444	159.668	83.5407
164.795	84.1083	164.795	84.0514	164.795	84.1748	164.795	84.0026	164.795	84.2505	164.795	83.9588	164.795	84.3334	164.795	83.9152	164.795	84.4204	164.795	83.8667	164.795	84.5075	164.795	83.8083	164.795	84.5903	164.795	83.7366	164.795	84.6635	164.795	83.6505	164.795	84.7212	164.795	83.5519	164.795	84.7566	164.795	83.446	164.795	84.7625	164.795	83.3412	164.795	84.7318	164.795	83.2487	164.795	84.6591	164.795	83.1812	164.795	84.5419	164.795	83.1513	164.795	84.3824	164.795	83.1698	164.795	84.1879	164.795	83.2427	164.795	83.9714	164.795	83.3697	164.795	83.7501	164.795	83.5435
170.654	84.1525	170.654	84.0941	170.654	84.2205	170.654	84.0443	170.654	84.2971	170.654	84.0002	170.654	84.3801	170.654	83.9576	170.654	84.4662	170.654	83.9111	170.654	84.5516	170.654	83.8559	170.654	84.6319	170.654	83.7885	170.654	84.7026	170.654	83.7076	170.654	84.7581	170.654	83.6149	170.654	84.7922	170.654	83.5155	170.654	84.7979	170.654	83.4175	170.654	84.7684	170.654	83.3315	170.654	84.6985	170.654	83.2695	170.654	84.5857	170.654	83.2435	170.654	84.4319	170.654	83.2632	170.654	84.2444	170.654	83.3345	170.654	84.0358	170.654	83.4571	170.654	83.8229	170.654	83.6243
176.514	84.1174	176.514	84.0524	176.514	84.1919	176.514	83.9968	176.514	84.2745	176.514	83.9482	176.514	84.3622	176.514	83.9023	176.514	84.4514	176.514	83.8542	176.514	84.5379	176.514	83.7988	176.514	84.6177	176.514	83.7323	176.514	84.6864	176.514	83.6533	176.514	84.7389	176.514	83.5633	176.514	84.7695	176.514	83.4673	176.514	84.7717	176.514	83.373	176.514	84.7391	176.514	83.291	176.514	84.6664	176.514	83.2327	176.514	84.5514	176.514	83.2096	176.514	84.3961	176.514	83.2311	176.514	84.208	176.514	83.3028	176.514	83.9996	176.514	83.4247	176.514	83.7876	176.514	83.5904
183.105	84.0877	183.105	84.0083	183.105	84.1733	183.105	83.9351	183.105	84.2631	183.105	83.8664	183.105	84.3545	183.105	83.7987	183.105	84.4438	183.105	83.7277	183.105	84.5279	183.105	83.6492	183.105	84.603	183.105	83.5602	183.105	84.6654	183.105	83.4604	183.105	84.7106	183.105	83.3522	183.105	84.733	183.105	83.2416	183.105	84.726	183.105	83.1375	183.105	84.6829	183.105	83.0507	183.105	84.598	183.105	82.993	183.105	84.4686	183.105	82.9755	183.105	84.2968	183.105	83.0068	183.105	84.0901	183.105	83.0918	183.105	83.862	183.105	83.2296	183.105	83.63	183.105	83.4134
189.697	84.1548	189.697	84.0894	189.697	84.2255	189.697	84.0292	189.697	84.2999	189.697	83.972	189.697	84.3751	189.697	83.9135	189.697	84.448	189.697	83.8488	189.697	84.5156	189.697	83.7727	189.697	84.5751	189.697	83.6819	189.697	84.6236	189.697	83.5758	189.697	84.6577	189.697	83.4574	189.697	84.6725	189.697	83.3333	189.697	84.662	189.697	83.2133	189.697	84.6191	189.697	83.1098	189.697	84.5376	189.697	83.0356	189.697	84.4138	189.697	83.0028	189.697	84.2487	189.697	83.0204	189.697	84.0494	189.697	83.0935	189.697	83.8288	189.697	83.2211	189.697	83.6045	189.697	83.396
196.289	84.1801	196.289	84.108	196.289	84.2557	196.289	84.0407	196.289	84.332	196.289	83.9773	196.289	84.4054	196.289	83.9146	196.289	84.4725	196.289	83.848	196.289	84.5307	196.289	83.7728	196.289	84.5781	196.289	83.6855	196.289	84.6135	196.289	83.585	196.289	84.635	196.289	83.4738	196.289	84.6394	196.289	83.3578	196.289	84.6216	196.289	83.2461	196.289	84.5753	196.289	83.1499	196.289	84.4943	196.289	83.0809	196.289	84.3746	196.289	83.0499	196.289	84.2166	196.289	83.0654	196.289	84.0269	196.289	83.132	196.289	83.818	196.289	83.2495	196.289	83.6068	196.289	83.4118
202.881	84.2327	202.881	84.1519	202.881	84.3142	202.881	84.0743	202.881	84.3925	202.881	84	202.881	84.4628	202.881	83.9265	202.881	84.5212	202.881	83.8496	202.881	84.5649	202.881	83.765	202.881	84.5925	202.881	83.6692	202.881	84.6037	202.881	83.5614	202.881	84.5986	202.881	83.4442	202.881	84.576	202.881	83.3236	202.881	84.5333	202.881	83.2084	202.881	84.466	202.881	83.1092	202.881	84.3695	202.881	83.0367	202.881	84.2404	202.881	83.0006	202.881	84.0796	202.881	83.0082	202.881	83.8931	202.881	83.0637	202.881	83.6926	202.881	83.1672	202.881	83.494	202.881	83.314
210.205	84.1829	210.205	84.0893	210.205	84.2743	210.205	83.9958	210.205	84.3596	210.205	83.9029	210.205	84.4349	210.205	83.8087	210.205	84.497	210.205	83.7098	210.205	84.544	210.205	83.6025	210.205	84.575	210.205	83.4843	210.205	84.5901	210.205	83.3555	210.205	84.5891	210.205	83.22	210.205	84.5699	210.205	83.085	210.205	84.5284	210.205	82.9606	210.205	84.4587	210.205	82.858	210.205	84.3542	210.205	82.7882	210.205	84.2108	210.205	82.7603	210.205	84.0293	210.205	82.781	210.205	83.8168	210.205	82.8538	210.205	83.5872	210.205	82.9787	210.205	83.3588	210.205	83.1506
217.529	84.1612	217.529	84.06	217.529	84.2605	217.529	83.9608	217.529	84.3521	217.529	83.8655	217.529	84.4309	217.529	83.7728	217.529	84.4924	217.529	83.6794	217.529	84.5348	217.529	83.5809	217.529	84.5578	217.529	83.4742	217.529	84.563	217.529	83.3583	217.529	84.5521	217.529	83.2361	217.529	84.5253	217.529	83.1141	217.529	84.4802	217.529	83.0016	217.529	84.4119	217.529	82.909	217.529	84.3137	217.529	82.8466	217.529	84.1808	217.529	82.8226	217.529	84.0125	217.529	82.8433	217.529	83.8147	217.529	82.9122	217.529	83.6	217.529	83.0294	217.529	83.3859	217.529	83.1906
225.586	84.1522	225.586	84.0266	225.586	84.2651	225.586	83.8929	225.586	84.3598	225.586	83.7546	225.586	84.4316	225.586	83.6131	225.586	84.4779	225.586	83.468	225.586	84.4984	225.586	83.3184	225.586	84.4952	225.586	83.1645	225.586	84.4725	225.586	83.0089	225.586	84.4344	225.586	82.8569	225.586	84.3831	225.586	82.7171	225.586	84.3174	225.586	82.5992	225.586	84.2319	225.586	82.5126	225.586	84.119	225.586	82.4649	225.586	83.9721	225.586	82.4606	225.586	83.7895	225.586	82.5025	225.586	83.5764	225.586	82.5915	225.586	83.3459	225.586	82.7268	225.586	83.1158	225.586	82.9045
232.91	84.3028	232.91	84.1657	232.91	84.4218	232.91	84.015	232.91	84.5179	232.91	83.8537	232.91	84.5869	232.91	83.6832	232.91	84.6271	232.91	83.5032	232.91	84.6391	232.91	83.3138	232.91	84.6267	232.91	83.1166	232.91	84.5949	232.91	82.9164	232.91	84.5486	232.91	82.7215	232.91	84.4902	232.91	82.5434	232.91	84.4173	232.91	82.3944	232.91	84.3225	232.91	82.2859	232.91	84.1957	232.91	82.2261	232.91	84.0277	232.91	82.2198	232.91	83.815	232.91	82.2693	232.91	83.5632	232.91	82.3759	232.91	83.2876	232.91	82.5391	232.91	83.0101	232.91	82.7543
241.699	84.2438	241.699	84.1391	241.699	84.3255	241.699	84.0153	241.699	84.3798	241.699	83.8744	241.699	84.4034	241.699	83.7167	241.699	84.3951	241.699	83.5413	241.699	84.3576	241.699	83.3478	241.699	84.2974	241.699	83.1384	241.699	84.2248	241.699	82.9194	241.699	84.1515	241.699	82.7026	241.699	84.0868	241.699	82.5035	241.699	84.0332	241.699	82.3396	241.699	83.9842	241.699	82.2266	241.699	83.9251	241.699	82.1755	241.699	83.8383	241.699	82.1907	241.699	83.7095	241.699	82.271	241.699	83.5335	241.699	82.4109	241.699	83.3164	241.699	82.6012	241.699	83.0742	241.699	82.8285
249.756	84.3947	249.756	84.27	249.756	84.4925	249.756	84.1226	249.756	84.5579	249.756	83.9554	249.756	84.5862	249.756	83.769	249.756	84.5748	249.756	83.563	249.756	84.5242	249.756	83.3376	249.756	84.4395	249.756	83.0962	249.756	84.3301	249.756	82.8469	249.756	84.2087	249.756	82.6036	249.756	84.0882	249.756	82.3845	249.756	83.9772	249.756	82.2092	249.756	83.8764	249.756	82.0939	249.756	83.7771	249.756	82.0477	249.756	83.6651	249.756	82.0715	249.756	83.5266	249.756	82.1592	249.756	83.3543	249.756	82.3009	249.756	83.1506	249.756	82.4853	249.756	82.9267	249.756	82.6991
258.545	84.2267	258.545	84.1168	258.545	84.3171	258.545	83.9909	258.545	84.3821	258.545	83.8493	258.545	84.4149	258.545	83.6888	258.545	84.4103	258.545	83.5049	258.545	84.3663	258.545	83.294	258.545	84.2851	258.545	83.0571	258.545	84.1742	258.545	82.8015	258.545	84.0452	258.545	82.5424	258.545	83.911	258.545	82.3015	258.545	83.7822	258.545	82.1029	258.545	83.6621	258.545	81.9675	258.545	83.5459	258.545	81.9072	258.545	83.4229	258.545	81.9226	258.545	83.2814	258.545	82.0047	258.545	83.1149	258.545	82.1398	258.545	82.9247	258.545	82.313	258.545	82.719	258.545	82.5106
268.066	83.9989	268.066	83.8682	268.066	84.1087	268.066	83.7246	268.066	84.187	268.066	83.5712	268.066	84.2233	268.066	83.4054	268.066	84.209	268.066	83.2205	268.066	84.1402	268.066	83.0088	268.066	84.0187	268.066	82.7651	268.066	83.8529	268.066	82.4911	268.066	83.6576	268.066	82.1972	268.066	83.4517	268.066	81.903	268.066	83.2523	268.066	81.6347	268.066	83.0694	268.066	81.419	268.066	82.9013	268.066	81.2768	268.066	82.7364	268.066	81.218	268.066	82.56	268.066	81.2411	268.066	82.3621	268.066	81.3368	268.066	82.143	268.066	81.4915	268.066	81.913	268.066	81.6895
277.588	83.9758	277.588	83.8217	277.588	84.0983	277.588	83.6415	277.588	84.1827	277.588	83.4382	277.588	84.2231	277.588	83.212	277.588	84.2151	277.588	82.9617	277.588	84.1576	277.588	82.6865	277.588	84.0534	277.588	82.3895	277.588	83.9093	277.588	82.0799	277.588	83.7356	277.588	81.7748	277.588	83.5439	277.588	81.4975	277.588	83.3438	277.588	81.2733	277.588	83.1405	277.588	81.1224	277.588	82.9337	277.588	81.0541	277.588	82.7197	277.588	81.0645	277.588	82.496	277.588	81.1397	277.588	82.2649	277.588	81.263	277.588	82.0334	277.588	81.4208	277.588	81.8108	277.588	81.6049
287.109	83.9125	287.109	83.8219	287.109	83.9837	287.109	83.7159	287.109	84.0278	287.109	83.5932	287.109	84.036	287.109	83.4472	287.109	84.0009	287.109	83.2683	287.109	83.9193	287.109	83.0473	287.109	83.7935	287.109	82.7799	287.109	83.6323	287.109	82.4696	287.109	83.4495	287.109	82.1306	287.109	83.2608	287.109	81.7872	287.109	83.0777	287.109	81.4703	287.109	82.9027	287.109	81.2111	287.109	82.7277	287.109	81.0323	287.109	82.5387	287.109	80.9432	287.109	82.324	287.109	80.9399	287.109	82.0819	287.109	81.0116	287.109	81.8232	287.109	81.1471	287.109	81.5675	287.109	81.3364
297.363	83.6849	297.363	83.564	297.363	83.792	297.363	83.4398	297.363	83.8711	297.363	83.3154	297.363	83.9078	297.363	83.1856	297.363	83.8914	297.363	83.0389	297.363	83.8172	297.363	82.8621	297.363	83.6884	297.363	82.646	297.363	83.5166	297.363	82.3898	297.363	83.3212	297.363	82.1035	297.363	83.1247	297.363	81.808	297.363	82.9463	297.363	81.5316	297.363	82.7933	297.363	81.3042	297.363	82.6581	297.363	81.1494	297.363	82.5225	297.363	81.0792	297.363	82.3672	297.363	81.0928	297.363	82.1815	297.363	81.1805	297.363	81.9683	297.363	81.3287	297.363	81.7416	297.363	81.5217
307.617	83.6081	307.617	83.4569	307.617	83.7413	307.617	83.3043	307.617	83.8383	307.617	83.16	307.617	83.8829	307.617	83.0246	307.617	83.8644	307.617	82.8898	307.617	83.7791	307.617	82.7432	307.617	83.6316	307.617	82.5746	307.617	83.4355	307.617	82.3813	307.617	83.2129	307.617	82.1709	307.617	82.9903	307.617	81.9605	307.617	82.7918	307.617	81.7728	307.617	82.6307	307.617	81.6293	307.617	82.5044	307.617	81.5433	307.617	82.3978	307.617	81.5166	307.617	82.293	307.617	81.5411	307.617	82.1787	307.617	81.6042	307.617	82.0542	307.617	81.6944	307.617	81.9262	307.617	81.8038
318.604	83.5485	318.604	83.3997	318.604	83.6701	318.604	83.2398	318.604	83.7474	318.604	83.0799	318.604	83.7655	318.604	82.9232	318.604	83.7149	318.604	82.7652	318.604	83.5935	318.604	82.5975	318.604	83.4081	318.604	82.4136	318.604	83.1761	318.604	82.2131	318.604	82.9247	318.604	82.0048	318.604	82.6864	318.604	81.805	318.604	82.489	318.604	81.6335	318.604	82.3446	318.604	81.5069	318.604	82.2439	318.604	81.4329	318.604	82.1631	318.604	81.4091	318.604	82.0779	318.604	81.4257	318.604	81.9758	318.604	81.4722	318.604	81.8591	318.604	81.5417	318.604	81.7402	318.604	81.6319
329.59	83.642	329.59	83.4381	329.59	83.8144	329.59	83.2246	329.59	83.9332	329.59	83.0174	329.59	83.9802	329.59	82.8222	329.59	83.9437	329.59	82.6347	329.59	83.8198	329.59	82.4449	329.59	83.614	329.59	82.2448	329.59	83.3431	329.59	82.0347	329.59	83.0357	329.59	81.8258	329.59	82.7305	329.59	81.6377	329.59	82.467	329.59	81.4921	329.59	82.2707	329.59	81.4035	329.59	82.1425	329.59	81.3737	329.59	82.0601	329.59	81.3919	329.59	81.9935	329.59	81.4409	329.59	81.9208	329.59	81.5059	329.59	81.8364	329.59	81.579	329.59	81.7463	329.59	81.6591
341.309	83.5225	341.309	83.2706	341.309	83.7245	341.309	82.9949	341.309	83.8539	341.309	82.7203	341.309	83.8944	341.309	82.4644	341.309	83.8362	341.309	82.2336	341.309	83.6773	341.309	82.0255	341.309	83.425	341.309	81.835	341.309	83.0988	341.309	81.6619	341.309	82.7344	341.309	81.5147	341.309	82.3827	341.309	81.4085	341.309	82.0998	341.309	81.3579	341.309	81.9261	341.309	81.3694	341.309	81.8662	341.309	81.4366	341.309	81.8882	341.309	81.5422	341.309	81.9442	341.309	81.6638	341.309	81.9938	341.309	81.7815	341.309	82.0151	341.309	81.8815	341.309	82.002	341.309	81.9563
353.76	84.0647	353.76	83.7957	353.76	84.2718	353.76	83.4802	353.76	84.4014	353.76	83.1309	353.76	84.4391	353.76	82.756	353.76	84.3732	353.76	82.3608	353.76	84.1956	353.76	81.9512	353.76	83.9036	353.76	81.5408	353.76	83.5038	353.76	81.156	353.76	83.0164	353.76	80.837	353.76	82.4815	353.76	80.6273	353.76	81.9599	353.76	80.556	353.76	81.5226	353.76	80.6199	353.76	81.2255	353.76	80.783	353.76	81.0845	353.76	80.9898	353.76	81.0727	353.76	81.1858	353.76	81.1418	353.76	81.3305	353.76	81.2442	353.76	81.4032	353.76	81.3413	353.76	81.4022
366.211	83.9048	366.211	83.6337	366.211	84.1255	366.211	83.3327	366.211	84.2754	366.211	83.0172	366.211	84.3381	366.211	82.6921	366.211	84.3019	366.211	82.3514	366.211	84.1602	366.211	81.9844	366.211	83.9113	366.211	81.5858	366.211	83.5603	366.211	81.1665	366.211	83.1213	366.211	80.7589	366.211	82.6202	366.211	80.4134	366.211	82.0955	366.211	80.182	366.211	81.5936	366.211	80.0931	366.211	81.1585	366.211	80.1338	366.211	80.8215	366.211	80.2548	366.211	80.5962	366.211	80.3939	366.211	80.4799	366.211	80.4994	366.211	80.4544	366.211	80.5443	366.211	80.4862	366.211	80.5306
378.662	84	378.662	83.6871	378.662	84.2554	378.662	83.3435	378.662	84.4305	378.662	82.9932	378.662	84.5093	378.662	82.6494	378.662	84.4818	378.662	82.3108	378.662	84.3434	378.662	81.9657	378.662	84.0941	378.662	81.6041	378.662	83.7396	378.662	81.2307	378.662	83.2939	378.662	80.8721	378.662	82.7819	378.662	80.5741	378.662	82.2411	378.662	80.3846	378.662	81.7179	378.662	80.3287	378.662	81.2595	378.662	80.3914	378.662	80.9033	378.662	80.5228	378.662	80.6706	378.662	80.6603	378.662	80.5644	378.662	80.7522	378.662	80.5665	378.662	80.7717	378.662	80.6372	378.662	80.7227
392.578	83.6663	392.578	83.3509	392.578	83.9019	392.578	82.9706	392.578	84.0486	392.578	82.5447	392.578	84.1026	392.578	82.0926	392.578	84.0641	392.578	81.6286	392.578	83.936	392.578	81.162	392.578	83.7235	392.578	80.7015	392.578	83.4343	392.578	80.2653	392.578	83.0788	392.578	79.8864	392.578	82.6684	392.578	79.6081	392.578	82.2128	392.578	79.4656	392.578	81.7182	392.578	79.4619	392.578	81.1905	392.578	79.5592	392.578	80.648	392.578	79.6918	392.578	80.1371	392.578	79.7917	392.578	79.7349	392.578	79.8106	392.578	79.5161	392.578	79.736	392.578	79.4946	392.578	79.6029
405.762	84.0129	405.762	83.7934	405.762	84.1482	405.762	83.4976	405.762	84.1928	405.762	83.1309	405.762	84.1429	405.762	82.6938	405.762	83.9986	405.762	82.182	405.762	83.7651	405.762	81.5916	405.762	83.4553	405.762	80.9296	405.762	83.0919	405.762	80.2285	405.762	82.7082	405.762	79.5588	405.762	82.3424	405.762	79.0254	405.762	82.0224	405.762	78.7295	405.762	81.7489	405.762	78.706	405.762	81.493	405.762	78.8949	405.762	81.2154	405.762	79.1816	405.762	80.8969	405.762	79.4603	405.762	80.5588	405.762	79.6698	405.762	80.2555	405.762	79.8035	405.762	80.0364	405.762	79.9031
420.41	84.1815	420.41	83.9782	420.41	84.3218	420.41	83.7238	420.41	84.3866	420.41	83.425	420.41	84.3648	420.41	83.0784	420.41	84.2476	420.41	82.6704	420.41	84.0294	420.41	82.1824	420.41	83.7098	420.41	81.603	420.41	83.2967	420.41	80.942	420.41	82.8102	420.41	80.246	420.41	82.2835	420.41	79.605	420.41	81.7568	420.41	79.1357	420.41	81.2618	420.41	78.925	420.41	80.8089	420.41	78.9667	420.41	80.3915	420.41	79.1616	420.41	80.0114	420.41	79.3804	420.41	79.7018	420.41	79.5262	420.41	79.5142	420.41	79.562	420.41	79.4686	420.41	79.5158
435.059	83.6886	435.059	83.4977	435.059	83.8191	435.059	83.2618	435.059	83.873	435.059	82.9894	435.059	83.837	435.059	82.6765	435.059	83.7029	435.059	82.3064	435.059	83.4691	435.059	81.8574	435.059	83.1433	435.059	81.3165	435.059	82.7462	435.059	80.6948	435.059	82.3135	435.059	80.0428	435.059	81.891	435.059	79.454	435.059	81.5173	435.059	79.0425	435.059	81.2001	435.059	78.8821	435.059	80.9087	435.059	78.9509	435.059	80.5969	435.059	79.1438	435.059	80.2442	435.059	79.3393	435.059	79.8855	435.059	79.4557	435.059	79.601	435.059	79.4745	435.059	79.4574	435.059	79.4436
450.439	83.7689	450.439	83.5738	450.439	83.9003	450.439	83.3354	450.439	83.9484	450.439	83.0661	450.439	83.898	450.439	82.7625	450.439	83.7387	450.439	82.4019	450.439	83.4664	450.439	81.9509	450.439	83.0847	450.439	81.38	450.439	82.6094	450.439	80.6822	450.439	82.0733	450.439	79.8902	450.439	81.5249	450.439	79.0927	450.439	81.0133	450.439	78.4305	450.439	80.5613	450.439	78.0411	450.439	80.1482	450.439	77.9632	450.439	79.729	450.439	78.1011	450.439	79.2836	450.439	78.2996	450.439	78.8556	450.439	78.436	450.439	78.5402	450.439	78.4631	450.439	78.4056	450.439	78.4178
466.553	83.2822	466.553	83.0807	466.553	83.4391	466.553	82.8604	466.553	83.5229	466.553	82.6336	466.553	83.5105	466.553	82.3893	466.553	83.3869	466.553	82.0955	466.553	83.1465	466.553	81.7124	466.553	82.7957	466.553	81.2115	466.553	82.3568	466.553	80.592	466.553	81.8736	466.553	79.8951	466.553	81.4076	466.553	79.2101	466.553	81.0157	466.553	78.6602	466.553	80.7133	466.553	78.3474	466.553	80.4542	466.553	78.2832	466.553	80.16	466.553	78.3784	466.553	79.7782	466.553	78.507	466.553	79.3297	466.553	78.578	466.553	78.9131	466.553	78.5736	466.553	78.6445	466.553	78.5576
482.666	83.1823	482.666	82.925	482.666	83.3692	482.666	82.6387	482.666	83.4532	482.666	82.3587	482.666	83.4148	482.666	82.0925	482.666	83.2456	482.666	81.8101	482.666	82.9475	482.666	81.4575	482.666	82.5356	482.666	80.9835	482.666	82.0467	482.666	80.3662	482.666	81.5458	482.666	79.6313	482.666	81.1167	482.666	78.8667	482.666	80.8215	482.666	78.2174	482.666	80.6465	482.666	77.8296	482.666	80.496	482.666	77.7506	482.666	80.2523	482.666	77.8879	482.666	79.8496	482.666	78.0849	482.666	79.3201	482.666	78.2215	482.666	78.7961	482.666	78.2666	482.666	78.4357	482.666	78.2915
500.244	83.714	500.244	83.4266	500.244	83.927	500.244	83.1152	500.244	84.0249	500.244	82.82	500.244	83.9814	500.244	82.5457	500.244	83.7812	500.244	82.2518	500.244	83.417	500.244	81.8723	500.244	82.8916	500.244	81.348	500.244	82.2295	500.244	80.6545	500.244	81.4982	500.244	79.8229	500.244	80.8264	500.244	78.961	500.244	80.3728	500.244	78.2544	500.244	80.212	500.244	77.8933	500.244	80.2475	500.244	77.929	500.244	80.2887	500.244	78.2258	500.244	80.1947	500.244	78.5842	500.244	79.9424	500.244	78.8675	500.244	79.616	500.244	79.0414	500.244	79.3377	500.244	79.1643
517.822	83.0483	517.822	82.7027	517.822	83.322	517.822	82.3628	517.822	83.4747	517.822	82.1091	517.822	83.4846	517.822	81.972	517.822	83.3458	517.822	81.9012	517.822	83.0608	517.822	81.7939	517.822	82.64	517.822	81.5512	517.822	82.1082	517.822	81.1146	517.822	81.5135	517.822	80.4779	517.822	80.9305	517.822	79.6943	517.822	80.4358	517.822	78.8856	517.822	80.0562	517.822	78.2298	517.822	79.738	517.822	77.8811	517.822	79.3884	517.822	77.8527	517.822	78.9614	517.822	78.0041	517.822	78.5156	517.822	78.1568	517.822	78.1916	517.822	78.2015	517.822	78.0858	517.822	78.1403
536.133	83.9623	536.133	83.4488	536.133	84.2249	536.133	82.7314	536.133	84.227	536.133	81.9248	536.133	83.975	536.133	81.2198	536.133	83.4815	536.133	80.8016	536.133	82.7654	536.133	80.6958	536.133	81.8705	536.133	80.7413	536.133	80.9103	536.133	80.7363	536.133	80.1232	536.133	80.5527	536.133	79.8049	536.133	80.1555	536.133	80.0077	536.133	79.5898	536.133	80.4142	536.133	78.9737	536.133	80.6334	536.133	78.4697	536.133	80.4314	536.133	78.1953	536.133	79.7595	536.133	78.1191	536.133	78.7748	536.133	78.0795	536.133	77.8797	536.133	77.9231	536.133	77.5092	536.133	77.6491
554.443	84.7316	554.443	84.3581	554.443	84.8951	554.443	83.775	554.443	84.8583	554.443	83.0113	554.443	84.63	554.443	82.1451	554.443	84.2099	554.443	81.3095	554.443	83.5849	554.443	80.6484	554.443	82.7318	554.443	80.224	554.443	81.6382	554.443	79.9716	554.443	80.3688	554.443	79.7661	554.443	79.1995	554.443	79.5142	554.443	78.6495	554.443	79.1931	554.443	78.9563	554.443	78.8422	554.443	79.6581	554.443	78.5292	554.443	80.188	554.443	78.3031	554.443	80.2874	554.443	78.1635	554.443	79.9459	554.443	78.0826	554.443	79.3174	554.443	78.0731	554.443	78.6653	554.443	78.232
574.219	84.018	574.219	83.6927	574.219	84.177	574.219	83.2216	574.219	84.1651	574.219	82.6509	574.219	83.9846	574.219	82.0535	574.219	83.6387	574.219	81.51	574.219	83.1283	574.219	81.0702	574.219	82.4544	574.219	80.7259	574.219	81.6326	574.219	80.4282	574.219	80.7272	574.219	80.1317	574.219	79.8968	574.219	79.8286	574.219	79.3796	574.219	79.5534	574.219	79.3122	574.219	79.3607	574.219	79.5568	574.219	79.2869	574.219	79.8359	574.219	79.3198	574.219	79.9637	574.219	79.4046	574.219	79.9112	574.219	79.4807	574.219	79.7607	574.219	79.5213	574.219	79.6222	574.219	79.5506
594.727	83.3145	594.727	82.9799	594.727	83.4426	594.727	82.4487	594.727	83.3668	594.727	81.7582	594.727	83.0928	594.727	80.9864	594.727	82.6232	594.727	80.2456	594.727	81.9536	594.727	79.6387	594.727	81.0732	594.727	79.204	594.727	79.9834	594.727	78.9162	594.727	78.757	594.727	78.7472	594.727	77.653	594.727	78.7171	594.727	77.1316	594.727	78.8793	594.727	77.4261	594.727	79.2562	594.727	78.1986	594.727	79.7928	594.727	79.0072	594.727	80.3757	594.727	79.6735	594.727	80.8874	594.727	80.2122	594.727	81.2409	594.727	80.6752	594.727	81.388	594.727	81.0619	594.727	81.3188
615.234	83.8036	615.234	83.4438	615.234	83.9663	615.234	82.8936	615.234	83.9315	615.234	82.1759	615.234	83.6967	615.234	81.3416	615.234	83.2523	615.234	80.4746	615.234	82.5808	615.234	79.6731	615.234	81.6633	615.234	79.0007	615.234	80.5008	615.234	78.4485	615.234	79.1707	615.234	77.9657	615.234	77.9269	615.234	77.5409	615.234	77.1948	615.234	77.2608	615.234	77.1681	615.234	77.2742	615.234	77.5246	615.234	77.645	615.234	77.8781	615.234	78.2522	615.234	78.1332	615.234	78.8793	615.234	78.404	615.234	79.3487	615.234	78.7826	615.234	79.5642	615.234	79.2001	615.234	79.5003
637.207	83.9528	637.207	83.5809	637.207	84.1343	637.207	83.028	637.207	84.119	637.207	82.3147	637.207	83.9008	637.207	81.4866	637.207	83.4727	637.207	80.622	637.207	82.8261	637.207	79.8116	637.207	81.9517	637.207	79.1031	637.207	80.8508	637.207	78.4629	637.207	79.5746	637.207	77.8161	637.207	78.3008	637.207	77.1499	637.207	77.3631	637.207	76.609	637.207	77.007	637.207	76.4814	637.207	77.0843	637.207	76.9393	637.207	77.2991	637.207	77.7988	637.207	77.5811	637.207	78.7058	637.207	78.0391	637.207	79.3978	637.207	78.6781	637.207	79.7445	637.207	79.3064	637.207	79.7036
659.912	83.8939	659.912	83.5686	659.912	84.0151	659.912	83.0497	659.912	83.9344	659.912	82.3675	659.912	83.6606	659.912	81.5841	659.912	83.2017	659.912	80.7966	659.912	82.5596	659.912	80.1052	659.912	81.731	659.912	79.5415	659.912	80.7228	659.912	79.029	659.912	79.5926	659.912	78.4362	659.912	78.5048	659.912	77.6792	659.912	77.7052	659.912	76.815	659.912	77.2979	659.912	76.118	659.912	77.1023	659.912	75.9928	659.912	76.9245	659.912	76.5583	659.912	76.857	659.912	77.4677	659.912	77.166	659.912	78.2999	659.912	77.8367	659.912	78.8058	659.912	78.5132	659.912	78.8788
683.35	84.3775	683.35	84.0904	683.35	84.4713	683.35	83.6063	683.35	84.3727	683.35	82.926	683.35	84.0785	683.35	82.0769	683.35	83.5815	683.35	81.1403	683.35	82.8692	683.35	80.2532	683.35	81.9262	683.35	79.5383	683.35	80.7552	683.35	78.9994	683.35	79.4396	683.35	78.524	683.35	78.2514	683.35	78.012	683.35	77.6009	683.35	77.5062	683.35	77.5662	683.35	77.2356	683.35	77.7219	683.35	77.4558	683.35	77.7022	683.35	78.1322	683.35	77.5622	683.35	78.9376	683.35	77.6803	683.35	79.5522	683.35	78.2644	683.35	79.7986	683.35	79.0373	683.35	79.6142
706.787	84.576	706.787	84.1982	706.787	84.7099	706.787	83.5959	706.787	84.6027	706.787	82.8143	706.787	84.272	706.787	81.9264	706.787	83.736	706.787	81.034	706.787	83.0009	706.787	80.2531	706.787	82.058	706.787	79.6587	706.787	80.9095	706.787	79.2158	706.787	79.636	706.787	78.7845	706.787	78.4908	706.787	78.2169	706.787	77.8282	706.787	77.4793	706.787	77.684	706.787	76.7793	706.787	77.6636	706.787	76.5782	706.787	77.4658	706.787	77.1394	706.787	77.2448	706.787	78.1168	706.787	77.4653	706.787	79.0024	706.787	78.2194	706.787	79.5088	706.787	79.0443	706.787	79.5246
731.689	84.8802	731.689	84.6008	731.689	84.9134	731.689	84.0802	731.689	84.7152	731.689	83.3434	731.689	84.3106	731.689	82.4322	731.689	83.7213	731.689	81.4105	731.689	82.952	731.689	80.3898	731.689	81.9867	731.689	79.5347	731.689	80.8092	731.689	78.9682	731.689	79.4727	731.689	78.6269	731.689	78.2248	731.689	78.2943	731.689	77.5017	731.689	77.7947	731.689	77.4391	731.689	77.1573	731.689	77.5851	731.689	76.7054	731.689	77.4822	731.689	76.8748	731.689	77.1222	731.689	77.6513	731.689	76.9834	731.689	78.5306	731.689	77.5103	731.689	79.0539	731.689	78.3878	731.689	79.0038
758.057	85.3591	758.057	85.1102	758.057	85.3839	758.057	84.6214	758.057	85.2012	758.057	83.8913	758.057	84.8219	758.057	82.9478	758.057	84.2463	758.057	81.8615	758.057	83.4581	758.057	80.7533	758.057	82.4206	758.057	79.7767	758.057	81.0932	758.057	79.0372	758.057	79.5007	758.057	78.4972	758.057	77.9071	758.057	78.0082	758.057	76.946	758.057	77.4733	758.057	76.9953	758.057	77.0128	758.057	77.5072	758.057	76.9813	758.057	77.8419	758.057	77.5895	758.057	77.8508	758.057	78.5265	758.057	77.7905	758.057	79.2952	758.057	78.0603	758.057	79.5936	758.057	78.7111	758.057	79.3498
784.424	85.1332	784.424	84.8799	784.424	85.1597	784.424	84.423	784.424	84.9601	784.424	83.7987	784.424	84.5551	784.424	83.0375	784.424	83.9667	784.424	82.1634	784.424	83.198	784.424	81.2261	784.424	82.2249	784.424	80.3316	784.424	81.0117	784.424	79.5974	784.424	79.5712	784.424	79.0301	784.424	78.086	784.424	78.4843	784.424	76.9707	784.424	77.7939	784.424	76.4783	784.424	76.9632	784.424	76.2661	784.424	76.3338	784.424	75.9138	784.424	76.4325	784.424	75.5346	784.424	77.2369	784.424	75.7181	784.424	78.1298	784.424	76.6556	784.424	78.6143	784.424	77.7656	784.424	78.4923
812.256	85.3367	812.256	85.1098	812.256	85.2872	812.256	84.5974	812.256	85.0058	812.256	83.8511	812.256	84.543	812.256	82.9817	812.256	83.9299	812.256	82.1064	812.256	83.1623	812.256	81.2773	812.256	82.1965	812.256	80.4921	812.256	80.9645	812.256	79.7772	812.256	79.4335	812.256	79.1991	812.256	77.7759	812.256	78.7584	812.256	76.5971	812.256	78.3392	812.256	76.4194	812.256	77.8418	812.256	76.668	812.256	77.375	812.256	76.5029	812.256	77.2748	812.256	75.7935	812.256	77.7089	812.256	75.3478	812.256	78.3423	812.256	76.1129	812.256	78.6824	812.256	77.4621	812.256	78.4174
840.82	85.377	840.82	85.2198	840.82	85.2612	840.82	84.7731	840.82	84.9085	840.82	84.0586	840.82	84.3627	840.82	83.1503	840.82	83.6673	840.82	82.1633	840.82	82.8559	840.82	81.2049	840.82	81.9385	840.82	80.3286	840.82	80.8938	840.82	79.5439	840.82	79.6849	840.82	78.8452	840.82	78.3071	840.82	78.2035	840.82	76.8739	840.82	77.5735	840.82	75.713	840.82	76.9885	840.82	75.2053	840.82	76.6703	840.82	75.2537	840.82	76.8922	840.82	75.3777	840.82	77.5631	840.82	75.4543	840.82	78.214	840.82	75.914	840.82	78.4071	840.82	76.9333	840.82	77.9417
870.85	85.3722	870.85	85.262	870.85	85.1459	870.85	84.8007	870.85	84.6226	870.85	84.0048	870.85	83.8687	870.85	82.9425	870.85	82.9644	870.85	81.7523	870.85	81.9656	870.85	80.633	870.85	80.8691	870.85	79.7759	870.85	79.641	870.85	79.2465	870.85	78.3373	870.85	78.9129	870.85	77.2711	870.85	78.525	870.85	76.8804	870.85	77.8728	870.85	77.0456	870.85	76.9428	870.85	77.0843	870.85	76.1461	870.85	76.5206	870.85	76.2727	870.85	75.5191	870.85	77.353	870.85	75.1566	870.85	78.4792	870.85	76.2131	870.85	79.011	870.85	77.7203	870.85	78.7498
901.611	85.5078	901.611	85.346	901.611	85.3102	901.611	84.8181	901.611	84.8082	901.611	83.971	901.611	84.0911	901.611	82.9007	901.611	83.2502	901.611	81.7234	901.611	82.3334	901.611	80.5293	901.611	81.3168	901.611	79.3945	901.611	80.1189	901.611	78.4642	901.611	78.6632	901.611	77.9242	901.611	77.0232	901.611	77.7606	901.611	75.6822	901.611	77.6967	901.611	75.306	901.611	77.4889	901.611	75.5387	901.611	77.184	901.611	75.3741	901.611	77.1352	901.611	74.4632	901.611	77.589	901.611	73.7814	901.611	78.2324	901.611	74.883	901.611	78.5173	901.611	76.7727	901.611	78.0772
933.105	85.8815	933.105	85.8002	933.105	85.5228	933.105	85.2102	933.105	84.8496	933.105	84.1322	933.105	84.0121	933.105	82.7416	933.105	83.1209	933.105	81.397	933.105	82.1795	933.105	80.406	933.105	81.0862	933.105	79.6827	933.105	79.7076	933.105	78.9446	933.105	78.0045	933.105	78.12	933.105	76.3157	933.105	77.3749	933.105	75.5945	933.105	76.8263	933.105	76.0693	933.105	76.3858	933.105	76.4593	933.105	76.0643	933.105	75.7345	933.105	76.2361	933.105	73.7169	933.105	77.1097	933.105	72.528	933.105	78.1698	933.105	74.7676	933.105	78.7664	933.105	77.2251	933.105	78.5278
966.064	86.232	966.064	86.4405	966.064	85.6331	966.064	86.1011	966.064	84.8323	966.064	85.0999	966.064	84.0147	966.064	83.4114	966.064	83.2965	966.064	81.2809	966.064	82.6717	966.064	79.5467	966.064	82.0094	966.064	79.0329	966.064	81.0717	966.064	79.1676	966.064	79.5053	966.064	79.0807	966.064	76.8618	966.064	78.5328	966.064	73.5662	966.064	77.6597	966.064	74.3039	966.064	76.7691	966.064	77.1438	966.064	76.2785	966.064	77.9831	966.064	76.538	966.064	76.0732	966.064	77.4107	966.064	69.7495	966.064	78.3002	966.064	67.8328	966.064	78.6189	966.064	75.0469	966.064	77.8334
999.756	86.9335	999.756	87.5425	999.756	85.9145	999.756	87.5519	999.756	84.7426	999.756	86.8458	999.756	83.6722	999.756	85.3701	999.756	82.8359	999.756	83.1632	999.756	82.2091	999.756	80.5531	999.756	81.6955	999.756	78.6031	999.756	81.1668	999.756	78.3716	999.756	80.3774	999.756	79.0255	999.756	78.8841	999.756	79.4164	999.756	76.1726	999.756	79.1142	999.756	73.6316	999.756	78.0514	999.756	76.0336	999.756	76.6168	999.756	78.6983	999.756	76.1399	999.756	79.0158	999.756	77.2777	999.756	76.4466	999.756	78.5461	999.756	69.8627	999.756	78.7427	999.756	72.1137	999.756	77.0701
1,034.91	86.2564	1,034.91	86.9089	1,034.91	85.4949	1,034.91	87.178	1,034.91	84.8162	1,034.91	86.8464	1,034.91	84.2162	1,034.91	85.7899	1,034.91	83.5786	1,034.91	83.9535	1,034.91	82.8318	1,034.91	81.3334	1,034.91	82.0288	1,034.91	78.1013	1,034.91	81.3017	1,034.91	75.4072	1,034.91	80.6324	1,034.91	75.4701	1,034.91	79.617	1,034.91	77.062	1,034.91	77.5636	1,034.91	78.1623	1,034.91	74.5491	1,034.91	78.3582	1,034.91	75.4237	1,034.91	77.8504	1,034.91	78.6626	1,034.91	77.3212	1,034.91	79.822	1,034.91	77.6296	1,034.91	78.4266	1,034.91	78.4139	1,034.91	74.2584	1,034.91	78.3966	1,034.91	72.5317	1,034.91	76.5082
1,071.53	85.6689	1,071.53	86.1696	1,071.53	85.2741	1,071.53	86.5567	1,071.53	84.957	1,071.53	86.5482	1,071.53	84.554	1,071.53	85.9569	1,071.53	83.966	1,071.53	84.6812	1,071.53	83.1581	1,071.53	82.643	1,071.53	82.1335	1,071.53	79.7782	1,071.53	81.0234	1,071.53	76.3786	1,071.53	80.0728	1,071.53	74.3719	1,071.53	79.2416	1,071.53	75.0146	1,071.53	77.9298	1,071.53	75.7453	1,071.53	75.6233	1,071.53	75.3106	1,071.53	74.5034	1,071.53	73.956	1,071.53	77.0258	1,071.53	73.7715	1,071.53	78.8905	1,071.53	75.9044	1,071.53	78.5474	1,071.53	77.6821	1,071.53	75.7769	1,071.53	77.7127	1,071.53	72.8599	1,071.53	75.5286
1,109.62	85.6029	1,109.62	85.5089	1,109.62	85.6481	1,109.62	85.5003	1,109.62	85.4537	1,109.62	85.4703	1,109.62	84.9631	1,109.62	85.1891	1,109.62	84.2193	1,109.62	84.485	1,109.62	83.2335	1,109.62	83.2499	1,109.62	81.9776	1,109.62	81.3661	1,109.62	80.5653	1,109.62	78.7248	1,109.62	79.4484	1,109.62	75.7284	1,109.62	78.9299	1,109.62	74.5066	1,109.62	78.2219	1,109.62	75.5084	1,109.62	76.0053	1,109.62	76.137	1,109.62	72.6913	1,109.62	75.475	1,109.62	75.1866	1,109.62	73.9363	1,109.62	78.2676	1,109.62	73.3626	1,109.62	78.6418	1,109.62	74.3338	1,109.62	76.5081	1,109.62	74.5922	1,109.62	73.0979	1,109.62	73.1799
1,148.44	86.0234	1,148.44	85.8947	1,148.44	85.8547	1,148.44	85.5503	1,148.44	85.4188	1,148.44	85.0713	1,148.44	84.8759	1,148.44	84.4863	1,148.44	84.358	1,148.44	83.8029	1,148.44	83.7802	1,148.44	82.9563	1,148.44	82.8946	1,148.44	81.7263	1,148.44	81.4821	1,148.44	79.8304	1,148.44	79.5091	1,148.44	77.2522	1,148.44	77.483	1,148.44	75.0584	1,148.44	76.5467	1,148.44	74.8414	1,148.44	76.4245	1,148.44	75.2683	1,148.44	75.7386	1,148.44	74.7052	1,148.44	75.0406	1,148.44	73.0733	1,148.44	76.1693	1,148.44	72.4775	1,148.44	77.4152	1,148.44	74.0068	1,148.44	77.1073	1,148.44	74.9201	1,148.44	75.6075	1,148.44	74.835
1,189.45	86.0438	1,189.45	86.0585	1,189.45	85.6685	1,189.45	85.7395	1,189.45	84.9875	1,189.45	85.0743	1,189.45	84.2383	1,189.45	84.0672	1,189.45	83.6317	1,189.45	82.8788	1,189.45	83.0653	1,189.45	81.7751	1,189.45	82.3019	1,189.45	80.8012	1,189.45	81.2416	1,189.45	79.71	1,189.45	79.93	1,189.45	78.3996	1,189.45	78.4707	1,189.45	77.2888	1,189.45	76.941	1,189.45	76.848	1,189.45	75.3854	1,189.45	76.6002	1,189.45	74.1323	1,189.45	75.7855	1,189.45	74.0933	1,189.45	74.488	1,189.45	75.1796	1,189.45	74.1575	1,189.45	75.9148	1,189.45	75.2818	1,189.45	75.6595	1,189.45	76.0303	1,189.45	75.2358	1,189.45	75.6913
1,231.2	86.2345	1,231.2	86.352	1,231.2	85.6922	1,231.2	86.0559	1,231.2	84.954	1,231.2	85.377	1,231.2	84.3836	1,231.2	84.2817	1,231.2	84.0033	1,231.2	82.882	1,231.2	83.5016	1,231.2	81.5287	1,231.2	82.6719	1,231.2	80.3404	1,231.2	81.5008	1,231.2	78.9141	1,231.2	80.0296	1,231.2	77.0803	1,231.2	78.2953	1,231.2	75.9737	1,231.2	76.4468	1,231.2	76.6511	1,231.2	74.9301	1,231.2	77.5188	1,231.2	74.3276	1,231.2	77.3353	1,231.2	74.9235	1,231.2	76.0139	1,231.2	76.0399	1,231.2	74.6358	1,231.2	76.3775	1,231.2	75.0187	1,231.2	75.6653	1,231.2	76.0051	1,231.2	75.331	1,231.2	75.9746
1,274.41	86.2756	1,274.41	86.5937	1,274.41	85.5011	1,274.41	86.3774	1,274.41	84.6706	1,274.41	85.6428	1,274.41	84.2013	1,274.41	84.3256	1,274.41	83.9651	1,274.41	82.5856	1,274.41	83.5759	1,274.41	81.1569	1,274.41	82.8828	1,274.41	80.374	1,274.41	81.9243	1,274.41	79.2913	1,274.41	80.728	1,274.41	77.001	1,274.41	79.266	1,274.41	74.1475	1,274.41	77.6858	1,274.41	74.5493	1,274.41	76.452	1,274.41	76.403	1,274.41	75.3869	1,274.41	76.7654	1,274.41	74.0122	1,274.41	75.6732	1,274.41	74.1282	1,274.41	74.5959	1,274.41	75.2576	1,274.41	75.4549	1,274.41	75.0975	1,274.41	76.5632	1,274.41	75.0486	1,274.41	76.236
1,319.82	86.0626	1,319.82	86.3761	1,319.82	85.3054	1,319.82	86.0758	1,319.82	84.6613	1,319.82	85.3405	1,319.82	84.4139	1,319.82	84.1563	1,319.82	84.2318	1,319.82	82.1893	1,319.82	83.7366	1,319.82	79.5531	1,319.82	82.8049	1,319.82	77.8763	1,319.82	81.4376	1,319.82	77.8715	1,319.82	79.6821	1,319.82	77.4925	1,319.82	77.813	1,319.82	76.0856	1,319.82	76.5807	1,319.82	75.1837	1,319.82	76.2684	1,319.82	75.9958	1,319.82	75.7621	1,319.82	76.8459	1,319.82	74.7205	1,319.82	76.6951	1,319.82	74.7606	1,319.82	75.8415	1,319.82	75.0785	1,319.82	75.7661	1,319.82	73.9556	1,319.82	76.3226	1,319.82	73.8231	1,319.82	75.6654
1,365.97	85.7106	1,365.97	86.151	1,365.97	84.9279	1,365.97	86.035	1,365.97	84.3515	1,365.97	85.4908	1,365.97	84.1493	1,365.97	84.4928	1,365.97	83.8928	1,365.97	82.686	1,365.97	83.2834	1,365.97	79.8088	1,365.97	82.3919	1,365.97	76.4987	1,365.97	81.4257	1,365.97	74.9109	1,365.97	80.5059	1,365.97	74.7215	1,365.97	79.3726	1,365.97	74.3111	1,365.97	77.4739	1,365.97	74.4559	1,365.97	75.4118	1,365.97	75.5164	1,365.97	75.3944	1,365.97	76.1425	1,365.97	75.5136	1,365.97	75.5683	1,365.97	74.6032	1,365.97	74.2882	1,365.97	73.9805	1,365.97	74.2564	1,365.97	72.6674	1,365.97	75.113	1,365.97	72.3184	1,365.97	74.4789
1,414.31	85.7889	1,414.31	86.1983	1,414.31	85.0056	1,414.31	86.0516	1,414.31	84.4225	1,414.31	85.5005	1,414.31	84.4051	1,414.31	84.6722	1,414.31	84.4714	1,414.31	83.3957	1,414.31	84.1174	1,414.31	81.4669	1,414.31	83.3136	1,414.31	79.04	1,414.31	82.2177	1,414.31	76.6555	1,414.31	80.9114	1,414.31	74.2807	1,414.31	79.1449	1,414.31	71.5845	1,414.31	76.4606	1,414.31	72.0569	1,414.31	74.0819	1,414.31	75.1635	1,414.31	74.1416	1,414.31	77.0815	1,414.31	73.966	1,414.31	77.6206	1,414.31	74.9399	1,414.31	77.2318	1,414.31	76.2935	1,414.31	76.6012	1,414.31	74.5689	1,414.31	75.7485	1,414.31	70.7351	1,414.31	73.3103
1,464.11	85.2786	1,464.11	85.7323	1,464.11	84.5718	1,464.11	85.5872	1,464.11	84.3814	1,464.11	85.0609	1,464.11	84.8509	1,464.11	84.4855	1,464.11	85.1751	1,464.11	83.6569	1,464.11	84.8549	1,464.11	82.1725	1,464.11	83.8601	1,464.11	80.1031	1,464.11	82.2925	1,464.11	78.1442	1,464.11	80.4541	1,464.11	76.6186	1,464.11	78.8316	1,464.11	74.6898	1,464.11	77.2934	1,464.11	72.301	1,464.11	75.1018	1,464.11	72.1162	1,464.11	72.3484	1,464.11	73.9402	1,464.11	70.3649	1,464.11	75.3253	1,464.11	72.3432	1,464.11	76.1218	1,464.11	74.8784	1,464.11	76.6198	1,464.11	74.0146	1,464.11	76.2334	1,464.11	70.9469	1,464.11	73.7174
1,515.38	85.1662	1,515.38	85.4275	1,515.38	84.9289	1,515.38	84.9645	1,515.38	85.3552	1,515.38	83.8671	1,515.38	85.8989	1,515.38	82.9577	1,515.38	85.9483	1,515.38	82.566	1,515.38	85.4115	1,515.38	81.9468	1,515.38	84.2557	1,515.38	80.4555	1,515.38	82.4216	1,515.38	78.105	1,515.38	80.0578	1,515.38	75.9893	1,515.38	77.6753	1,515.38	75.4025	1,515.38	76.2102	1,515.38	75.4999	1,515.38	75.7775	1,515.38	75.3267	1,515.38	74.2927	1,515.38	74.6497	1,515.38	68.3751	1,515.38	73.5642	1,515.38	69.5178	1,515.38	73.4023	1,515.38	75.0775	1,515.38	74.2777	1,515.38	75.0327	1,515.38	73.6783	1,515.38	70.9724	1,515.38	70.3729
1,568.85	84.5043	1,568.85	84.9622	1,568.85	84.0713	1,568.85	84.7312	1,568.85	84.3614	1,568.85	83.5389	1,568.85	84.9183	1,568.85	81.3319	1,568.85	85.0571	1,568.85	78.8519	1,568.85	84.5986	1,568.85	78.217	1,568.85	83.5997	1,568.85	78.6117	1,568.85	82.1715	1,568.85	77.3611	1,568.85	80.3539	1,568.85	72.8526	1,568.85	78.0035	1,568.85	68.734	1,568.85	75.8282	1,568.85	74.7463	1,568.85	76.7108	1,568.85	77.728	1,568.85	77.9023	1,568.85	78.1179	1,568.85	75.4845	1,568.85	76.297	1,568.85	66.1997	1,568.85	72.9617	1,568.85	73.4113	1,568.85	71.3247	1,568.85	76.2589	1,568.85	70.1706	1,568.85	74.2028	1,568.85	69.5153
1,624.51	84.9775	1,624.51	86.0024	1,624.51	84.535	1,624.51	86.1751	1,624.51	85.2517	1,624.51	85.6762	1,624.51	85.7311	1,624.51	85.0086	1,624.51	85.4164	1,624.51	83.672	1,624.51	84.4226	1,624.51	81.1822	1,624.51	83.1202	1,624.51	79.2696	1,624.51	81.9634	1,624.51	79.4399	1,624.51	81.1219	1,624.51	78.3593	1,624.51	79.823	1,624.51	73.1485	1,624.51	76.3675	1,624.51	64.7819	1,624.51	74.2728	1,624.51	74.8791	1,624.51	78.4299	1,624.51	77.8766	1,624.51	77.6394	1,624.51	78.0318	1,624.51	65.2989	1,624.51	76.5168	1,624.51	74.8271	1,624.51	75.2567	1,624.51	78.1299	1,624.51	75.3005	1,624.51	76.809	1,624.51	75.4092
1,681.64	84.4961	1,681.64	85.5042	1,681.64	85.0801	1,681.64	86.6387	1,681.64	85.713	1,681.64	86.5213	1,681.64	85.7666	1,681.64	85.5174	1,681.64	85.3003	1,681.64	84.0997	1,681.64	84.1708	1,681.64	82.0444	1,681.64	82.3959	1,681.64	79.9464	1,681.64	80.2159	1,681.64	79.1846	1,681.64	78.2523	1,681.64	78.0231	1,681.64	77.3192	1,681.64	74.2372	1,681.64	75.6067	1,681.64	70.0313	1,681.64	68.957	1,681.64	75.2525	1,681.64	74.3033	1,681.64	78.8325	1,681.64	77.3205	1,681.64	79.5613	1,681.64	71.6856	1,681.64	77.8667	1,681.64	67.7356	1,681.64	75.1042	1,681.64	74.7171	1,681.64	73.1766	1,681.64	72.6444	1,681.64	71.0919
1,740.97	85.0513	1,740.97	84.6482	1,740.97	85.4912	1,740.97	85.4594	1,740.97	85.1427	1,740.97	86.0834	1,740.97	84.7718	1,740.97	85.7608	1,740.97	84.3475	1,740.97	84.262	1,740.97	83.5465	1,740.97	81.0865	1,740.97	82.5167	1,740.97	77.2376	1,740.97	81.0269	1,740.97	77.1891	1,740.97	78.9247	1,740.97	77.0554	1,740.97	77.3474	1,740.97	72.8895	1,740.97	76.9658	1,740.97	52.4936	1,740.97	74.7687	1,740.97	72.9007	1,740.97	72.0479	1,740.97	77.1814	1,740.97	75.4096	1,740.97	77.5977	1,740.97	73.2562	1,740.97	75.4787	1,740.97	61.7944	1,740.97	71.5205	1,740.97	73.8042	1,740.97	66.8771	1,740.97	73.8597	1,740.97	68.4978
1,802.49	85.8581	1,802.49	85.8328	1,802.49	85.3489	1,802.49	85.3355	1,802.49	84.9404	1,802.49	84.6698	1,802.49	84.7861	1,802.49	84.3891	1,802.49	84.3519	1,802.49	84.0274	1,802.49	83.6226	1,802.49	82.1806	1,802.49	82.4754	1,802.49	77.9583	1,802.49	80.735	1,802.49	73.8139	1,802.49	78.5743	1,802.49	74.8534	1,802.49	76.6929	1,802.49	74.1263	1,802.49	75.4679	1,802.49	69.3603	1,802.49	73.1769	1,802.49	53.3073	1,802.49	72.6461	1,802.49	71.4953	1,802.49	74.5712	1,802.49	76.188	1,802.49	70.9713	1,802.49	76.5818	1,802.49	58.5774	1,802.49	74.714	1,802.49	73.2223	1,802.49	73.7282	1,802.49	75.3458	1,802.49	74.6946
1,866.21	84.5531	1,866.21	85.3697	1,866.21	84.1551	1,866.21	85.7054	1,866.21	84.2448	1,866.21	84.601	1,866.21	84.1615	1,866.21	82.8385	1,866.21	83.562	1,866.21	82.4546	1,866.21	82.704	1,866.21	81.8904	1,866.21	81.4578	1,866.21	79.0009	1,866.21	79.5486	1,866.21	73.7898	1,866.21	77.0069	1,866.21	73.8273	1,866.21	76.059	1,866.21	74.8403	1,866.21	77.2151	1,866.21	71.9439	1,866.21	74.587	1,866.21	63.8123	1,866.21	66.8077	1,866.21	71.9424	1,866.21	77.5718	1,866.21	77.1822	1,866.21	78.4025	1,866.21	78.947	1,866.21	71.1449	1,866.21	79.0495	1,866.21	72.151	1,866.21	78.4436	1,866.21	77.0403	1,866.21	77.8563
1,932.13	83.9965	1,932.13	83.6027	1,932.13	84.5643	1,932.13	84.5412	1,932.13	84.296	1,932.13	84.6412	1,932.13	83.5392	1,932.13	82.9133	1,932.13	82.8663	1,932.13	81.1501	1,932.13	82.3837	1,932.13	80.734	1,932.13	81.6488	1,932.13	79.1244	1,932.13	80.3352	1,932.13	74.617	1,932.13	77.6926	1,932.13	69.6654	1,932.13	72.1236	1,932.13	71.0203	1,932.13	72.1621	1,932.13	70.6783	1,932.13	74.2791	1,932.13	66.2725	1,932.13	61.6631	1,932.13	67.6798	1,932.13	75.5408	1,932.13	75.887	1,932.13	79.8913	1,932.13	79.1824	1,932.13	76.0721	1,932.13	80.1681	1,932.13	65.5026	1,932.13	79.5564	1,932.13	76.6546	1,932.13	78.2883
2,000.24	84.7323	2,000.24	83.4213	2,000.24	84.9076	2,000.24	82.5727	2,000.24	84.3599	2,000.24	83.2095	2,000.24	83.1656	2,000.24	82.4013	2,000.24	81.9304	2,000.24	79.8407	2,000.24	81.3983	2,000.24	78.1681	2,000.24	80.916	2,000.24	76.8365	2,000.24	80.2077	2,000.24	73.3884	2,000.24	78.9315	2,000.24	67.8832	2,000.24	75.9454	2,000.24	68.8275	2,000.24	70.1887	2,000.24	71.2145	2,000.24	71.3806	2,000.24	69.1092	2,000.24	70.5159	2,000.24	62.6409	2,000.24	62.3224	2,000.24	70.911	2,000.24	75.6405	2,000.24	75.4143	2,000.24	75.6257	2,000.24	77.1909	2,000.24	61.1163	2,000.24	76.5272	2,000.24	71.4669	2,000.24	74.6765
2,070.56	86.2468	2,070.56	85.2482	2,070.56	85.6756	2,070.56	82.9097	2,070.56	83.9241	2,070.56	81.0369	2,070.56	81.4708	2,070.56	79.9168	2,070.56	80.2647	2,070.56	78.1357	2,070.56	80.609	2,070.56	76.3532	2,070.56	80.847	2,070.56	76.1065	2,070.56	80.5909	2,070.56	76.1809	2,070.56	79.7039	2,070.56	74.6955	2,070.56	77.9242	2,070.56	71.7966	2,070.56	73.8544	2,070.56	70.1006	2,070.56	67.1524	2,070.56	69.798	2,070.56	70.5191	2,070.56	68.9448	2,070.56	65.5453	2,070.56	67.8542	2,070.56	65.0135	2,070.56	68.8205	2,070.56	70.5115	2,070.56	69.7129	2,070.56	67.0144	2,070.56	68.7818	2,070.56	69.0737	2,070.56	68.8655
2,143.8	86.865	2,143.8	86.6225	2,143.8	85.5883	2,143.8	84.7269	2,143.8	83.1978	2,143.8	81.7945	2,143.8	80.2294	2,143.8	79.0232	2,143.8	79.2437	2,143.8	76.886	2,143.8	80.3408	2,143.8	74.9728	2,143.8	80.8808	2,143.8	73.3505	2,143.8	80.4424	2,143.8	72.2335	2,143.8	79.4614	2,143.8	71.0627	2,143.8	78.3885	2,143.8	69.8043	2,143.8	76.5144	2,143.8	69.1297	2,143.8	72.9279	2,143.8	68.9369	2,143.8	70.368	2,143.8	68.885	2,143.8	64.9864	2,143.8	69.035	2,143.8	59.7445	2,143.8	69.3223	2,143.8	58.9308	2,143.8	70.7598	2,143.8	67.1744	2,143.8	73.3029	2,143.8	74.0124	2,143.8	74.854
2,219.24	86.685	2,219.24	86.558	2,219.24	85.3053	2,219.24	85.0666	2,219.24	81.9009	2,219.24	82.2156	2,219.24	77.108	2,219.24	78.6747	2,219.24	78.2472	2,219.24	76.5053	2,219.24	80.9261	2,219.24	75.8208	2,219.24	81.6784	2,219.24	75.2566	2,219.24	80.8956	2,219.24	74.7534	2,219.24	79.7471	2,219.24	73.4893	2,219.24	79.4064	2,219.24	71.0089	2,219.24	78.6412	2,219.24	69.1829	2,219.24	76.186	2,219.24	69.6981	2,219.24	75.2117	2,219.24	70.6349	2,219.24	73.1657	2,219.24	70.4318	2,219.24	65.2181	2,219.24	68.9237	2,219.24	64.6309	2,219.24	68.7587	2,219.24	64.4822	2,219.24	71.2007	2,219.24	70.2776	2,219.24	72.0879
2,297.61	87.0776	2,297.61	86.8026	2,297.61	85.1506	2,297.61	84.9985	2,297.61	80.6073	2,297.61	82.177	2,297.61	76.4423	2,297.61	78.7831	2,297.61	80.1133	2,297.61	76.4891	2,297.61	82.6696	2,297.61	76.1888	2,297.61	82.5568	2,297.61	76.5031	2,297.61	80.352	2,297.61	75.724	2,297.61	77.4202	2,297.61	72.8525	2,297.61	76.9473	2,297.61	69.2079	2,297.61	77.3376	2,297.61	68.6549	2,297.61	75.9615	2,297.61	70.7766	2,297.61	76.7168	2,297.61	71.962	2,297.61	75.6171	2,297.61	71.0854	2,297.61	69.9645	2,297.61	68.2598	2,297.61	69.3675	2,297.61	69.3497	2,297.61	60.4095	2,297.61	72.1201	2,297.61	65.896	2,297.61	71.3949
2,378.17	87.9092	2,378.17	88.088	2,378.17	85.3329	2,378.17	85.9832	2,378.17	80.1152	2,378.17	81.9519	2,378.17	74.8588	2,378.17	76.528	2,378.17	80.4559	2,378.17	74.1959	2,378.17	82.8355	2,378.17	74.0882	2,378.17	82.7301	2,378.17	72.8054	2,378.17	81.1847	2,378.17	72.753	2,378.17	78.4233	2,378.17	73.8314	2,378.17	76.0699	2,378.17	73.5469	2,378.17	76.4726	2,378.17	71.1341	2,378.17	75.0432	2,378.17	69.9937	2,378.17	75.6333	2,378.17	70.9536	2,378.17	75.5314	2,378.17	71.1827	2,378.17	71.7078	2,378.17	69.7316	2,378.17	69.5006	2,378.17	69.9795	2,378.17	57.6351	2,378.17	73.5459	2,378.17	71.1749	2,378.17	74.1503
2,462.4	87.0208	2,462.4	87.6997	2,462.4	84.0237	2,462.4	86.0503	2,462.4	77.2215	2,462.4	81.5682	2,462.4	74.3787	2,462.4	73.668	2,462.4	80.9213	2,462.4	72.4191	2,462.4	83.168	2,462.4	74.8659	2,462.4	83.3559	2,462.4	74.8839	2,462.4	81.9788	2,462.4	74.2161	2,462.4	78.9078	2,462.4	74.1213	2,462.4	75.8548	2,462.4	73.9791	2,462.4	76.0955	2,462.4	72.4323	2,462.4	74.2467	2,462.4	69.6318	2,462.4	74.4805	2,462.4	69.8877	2,462.4	74.5904	2,462.4	71.8608	2,462.4	71.4985	2,462.4	70.8766	2,462.4	72.6129	2,462.4	69.1459	2,462.4	66.3316	2,462.4	74.0028	2,462.4	69.1228	2,462.4	74.5739
2,548.83	86.601	2,548.83	86.9964	2,548.83	83.5497	2,548.83	85.1957	2,548.83	75.617	2,548.83	80.2234	2,548.83	74.6754	2,548.83	70.2168	2,548.83	81.1099	2,548.83	71.7225	2,548.83	83.4598	2,548.83	74.4981	2,548.83	83.8815	2,548.83	75.904	2,548.83	82.7894	2,548.83	76.0642	2,548.83	80.0954	2,548.83	74.6008	2,548.83	76.6019	2,548.83	73.2649	2,548.83	76.1592	2,548.83	72.2939	2,548.83	75.3276	2,548.83	70.1107	2,548.83	74.2766	2,548.83	68.4244	2,548.83	73.8882	2,548.83	70.605	2,548.83	68.4866	2,548.83	70.3073	2,548.83	69.1077	2,548.83	65.4708	2,548.83	62.0103	2,548.83	73.3618	2,548.83	69.779	2,548.83	75.4312
2,638.92	86.4914	2,638.92	86.6456	2,638.92	82.8754	2,638.92	84.3104	2,638.92	73.8735	2,638.92	79.098	2,638.92	75.6576	2,638.92	65.6071	2,638.92	81.8773	2,638.92	75.3709	2,638.92	84.1511	2,638.92	77.7195	2,638.92	84.5092	2,638.92	77.0703	2,638.92	83.1687	2,638.92	75.6752	2,638.92	80.1685	2,638.92	72.8616	2,638.92	77.3042	2,638.92	69.7686	2,638.92	77.343	2,638.92	69.948	2,638.92	76.2518	2,638.92	71.4961	2,638.92	75.5446	2,638.92	71.397	2,638.92	74.3704	2,638.92	70.4281	2,638.92	70.742	2,638.92	67.9944	2,638.92	65.5109	2,638.92	55.9517	2,638.92	56.2756	2,638.92	71.8366	2,638.92	68.4694	2,638.92	74.3046
2,731.93	86.242	2,731.93	86.8549	2,731.93	82.4706	2,731.93	84.2341	2,731.93	73.1663	2,731.93	77.1602	2,731.93	74.402	2,731.93	64.3994	2,731.93	81.3003	2,731.93	76.2112	2,731.93	83.8715	2,731.93	78.0218	2,731.93	84.2702	2,731.93	76.9211	2,731.93	82.7348	2,731.93	75.1773	2,731.93	79.1543	2,731.93	74.3377	2,731.93	74.4107	2,731.93	73.9476	2,731.93	73.4315	2,731.93	72.8163	2,731.93	73.2514	2,731.93	71.6206	2,731.93	73.2585	2,731.93	72.0522	2,731.93	71.2454	2,731.93	72.0579	2,731.93	67.7544	2,731.93	68.5434	2,731.93	63.146	2,731.93	51.8464	2,731.93	56.556	2,731.93	71.5916	2,731.93	66.6235	2,731.93	73.0969
2,828.61	85.8843	2,828.61	86.4879	2,828.61	81.8923	2,828.61	83.781	2,828.61	71.0912	2,828.61	74.8724	2,828.61	75.0325	2,828.61	71.1404	2,828.61	81.7979	2,828.61	78.2149	2,828.61	84.2299	2,828.61	78.816	2,828.61	84.3027	2,828.61	78.394	2,828.61	82.1768	2,828.61	77.9646	2,828.61	77.829	2,828.61	76.6479	2,828.61	73.8304	2,828.61	74.6187	2,828.61	72.0705	2,828.61	72.5759	2,828.61	69.1795	2,828.61	70.8157	2,828.61	72.1447	2,828.61	70.8579	2,828.61	71.7246	2,828.61	71.6909	2,828.61	70.1546	2,828.61	69.1786	2,828.61	67.2315	2,828.61	51.4628	2,828.61	61.7923	2,828.61	71.879	2,828.61	65.0679	2,828.61	72.8021
2,928.22	85.5454	2,928.22	85.898	2,928.22	81.6447	2,928.22	82.7655	2,928.22	71.1741	2,928.22	73.5746	2,928.22	74.1485	2,928.22	72.706	2,928.22	81.7335	2,928.22	78.0884	2,928.22	84.0353	2,928.22	79.2299	2,928.22	83.6591	2,928.22	79.464	2,928.22	80.4885	2,928.22	78.4734	2,928.22	74.0077	2,928.22	75.5928	2,928.22	71.1662	2,928.22	72.2275	2,928.22	73.6302	2,928.22	71.1074	2,928.22	71.4501	2,928.22	70.4804	2,928.22	70.1047	2,928.22	70.352	2,928.22	70.6307	2,928.22	72.0814	2,928.22	68.7159	2,928.22	70.47	2,928.22	66.2609	2,928.22	45.8875	2,928.22	63.9569	2,928.22	71.9792	2,928.22	66.8691	2,928.22	73.9947
3,031.49	84.3859	3,031.49	85.0156	3,031.49	80.4221	3,031.49	81.9011	3,031.49	69.5836	3,031.49	72.377	3,031.49	73.8903	3,031.49	74.6683	3,031.49	81.0247	3,031.49	80.1802	3,031.49	83.341	3,031.49	80.9935	3,031.49	82.8445	3,031.49	79.319	3,031.49	79.0714	3,031.49	76.199	3,031.49	71.6651	3,031.49	73.6812	3,031.49	68.95	3,031.49	73.3004	3,031.49	73.1696	3,031.49	72.9064	3,031.49	72.9199	3,031.49	71.6645	3,031.49	72.9507	3,031.49	70.8037	3,031.49	69.2561	3,031.49	71.4698	3,031.49	69.1785	3,031.49	70.2126	3,031.49	62.8476	3,031.49	58.754	3,031.49	59.0426	3,031.49	69.9247	3,031.49	67.2232	3,031.49	73.1595
3,138.43	84.0646	3,138.43	84.9098	3,138.43	79.9919	3,138.43	81.6477	3,138.43	69.0011	3,138.43	70.8896	3,138.43	75.4251	3,138.43	77.5621	3,138.43	82.1701	3,138.43	80.8847	3,138.43	84.3214	3,138.43	80.0837	3,138.43	83.3978	3,138.43	78.1854	3,138.43	79.2232	3,138.43	77.2511	3,138.43	71.2419	3,138.43	76.3752	3,138.43	62.1478	3,138.43	74.4021	3,138.43	70.6178	3,138.43	72.059	3,138.43	69.8067	3,138.43	70.7612	3,138.43	71.1086	3,138.43	70.7867	3,138.43	68.7749	3,138.43	71.0875	3,138.43	68.5008	3,138.43	69.0559	3,138.43	64.4024	3,138.43	60.0356	3,138.43	60.9029	3,138.43	68.5856	3,138.43	67.6164	3,138.43	71.546
3,249.02	83.7424	3,249.02	84.342	3,249.02	79.9698	3,249.02	80.702	3,249.02	69.7316	3,249.02	72.1581	3,249.02	76.9461	3,249.02	78.857	3,249.02	83.035	3,249.02	81.2277	3,249.02	84.6953	3,249.02	80.9352	3,249.02	83.4722	3,249.02	80.0219	3,249.02	79.5782	3,249.02	78.1434	3,249.02	73.4864	3,249.02	75.1396	3,249.02	68.6455	3,249.02	72.3114	3,249.02	71.4057	3,249.02	70.871	3,249.02	69.6664	3,249.02	69.8292	3,249.02	70.8457	3,249.02	70.4776	3,249.02	66.4496	3,249.02	71.402	3,249.02	69.3593	3,249.02	69.0832	3,249.02	64.6942	3,249.02	61.108	3,249.02	61.1144	3,249.02	68.4268	3,249.02	66.128	3,249.02	70.2521
3,363.28	82.456	3,363.28	83.2468	3,363.28	79.0332	3,363.28	79.8839	3,363.28	70.5949	3,363.28	74.3233	3,363.28	77.3043	3,363.28	79.6115	3,363.28	82.8706	3,363.28	81.7485	3,363.28	84.4671	3,363.28	81.3387	3,363.28	83.2493	3,363.28	79.3728	3,363.28	79.3163	3,363.28	76.0724	3,363.28	73.146	3,363.28	73.4469	3,363.28	72.2445	3,363.28	72.9659	3,363.28	74.2867	3,363.28	71.5424	3,363.28	69.8821	3,363.28	69.0445	3,363.28	71.7961	3,363.28	69.2913	3,363.28	65.9918	3,363.28	71.1311	3,363.28	68.3528	3,363.28	69.0799	3,363.28	65.4292	3,363.28	60.6662	3,363.28	60.0633	3,363.28	69.0441	3,363.28	67.2651	3,363.28	71.0755
3,481.93	82.2698	3,481.93	82.6136	3,481.93	79.4395	3,481.93	79.5019	3,481.93	71.4915	3,481.93	74.8396	3,481.93	77.9764	3,481.93	80.2975	3,481.93	83.0652	3,481.93	81.8126	3,481.93	84.3134	3,481.93	80.6516	3,481.93	82.8151	3,481.93	79.0162	3,481.93	78.5459	3,481.93	77.0311	3,481.93	72.4393	3,481.93	74.2379	3,481.93	75.2259	3,481.93	71.6808	3,481.93	76.4222	3,481.93	69.7742	3,481.93	71.1056	3,481.93	68.0801	3,481.93	71.3977	3,481.93	68.4369	3,481.93	65.3358	3,481.93	70.2343	3,481.93	68.5283	3,481.93	68.596	3,481.93	66.6677	3,481.93	61.2678	3,481.93	59.4949	3,481.93	66.5517	3,481.93	66.9531	3,481.93	68.9401
3,604.98	82.5281	3,604.98	82.5241	3,604.98	79.812	3,604.98	78.7296	3,604.98	73.3642	3,604.98	75.3445	3,604.98	78.3934	3,604.98	80.9591	3,604.98	83.075	3,604.98	82.4512	3,604.98	84.0849	3,604.98	81.0846	3,604.98	82.4811	3,604.98	78.785	3,604.98	77.735	3,604.98	75.787	3,604.98	70.0618	3,604.98	72.0587	3,604.98	75.3339	3,604.98	70.235	3,604.98	76.0801	3,604.98	68.8472	3,604.98	70.6484	3,604.98	67.0587	3,604.98	70.9329	3,604.98	67.4476	3,604.98	64.2789	3,604.98	69.1319	3,604.98	66.8386	3,604.98	67.5111	3,604.98	65.5908	3,604.98	61.2837	3,604.98	60.2227	3,604.98	66.5024	3,604.98	65.4392	3,604.98	67.9674
3,732.42	82.2432	3,732.42	82.0081	3,732.42	80.142	3,732.42	78.4557	3,732.42	74.9932	3,732.42	76.4014	3,732.42	79.0607	3,732.42	81.3691	3,732.42	82.9147	3,732.42	82.2833	3,732.42	83.6297	3,732.42	80.3862	3,732.42	81.893	3,732.42	77.7522	3,732.42	76.7065	3,732.42	74.5939	3,732.42	69.6975	3,732.42	71.2653	3,732.42	74.1992	3,732.42	70.4429	3,732.42	73.7733	3,732.42	68.8865	3,732.42	67.2365	3,732.42	65.1221	3,732.42	68.9514	3,732.42	64.9478	3,732.42	61.7885	3,732.42	68.2705	3,732.42	65.4487	3,732.42	67.4734	3,732.42	63.5291	3,732.42	61.5647	3,732.42	60.1514	3,732.42	65.116	3,732.42	65.6073	3,732.42	66.5029
3,863.53	82.3791	3,863.53	81.5462	3,863.53	80.2338	3,863.53	77.2583	3,863.53	75.2844	3,863.53	76.7235	3,863.53	79.1891	3,863.53	81.8802	3,863.53	82.6874	3,863.53	82.3528	3,863.53	83.1642	3,863.53	79.7251	3,863.53	81.2729	3,863.53	77.4348	3,863.53	75.5586	3,863.53	75.4538	3,863.53	70.5397	3,863.53	72.0168	3,863.53	74.5929	3,863.53	69.7144	3,863.53	74.5121	3,863.53	67.9579	3,863.53	67.542	3,863.53	64.2842	3,863.53	69.465	3,863.53	62.9609	3,863.53	63.687	3,863.53	67.0753	3,863.53	65.7663	3,863.53	66.8081	3,863.53	64.2053	3,863.53	60.6563	3,863.53	61.2248	3,863.53	64.8382	3,863.53	64.4221	3,863.53	65.1132
3,999.76	82.7503	3,999.76	81.5408	3,999.76	80.9579	3,999.76	76.7973	3,999.76	75.9917	3,999.76	77.5834	3,999.76	78.6547	3,999.76	82.0432	3,999.76	82.1495	3,999.76	82.03	3,999.76	82.4844	3,999.76	79.2926	3,999.76	80.4638	3,999.76	77.4386	3,999.76	74.3805	3,999.76	74.7425	3,999.76	71.0855	3,999.76	68.7079	3,999.76	75.1689	3,999.76	68.3248	3,999.76	75.0529	3,999.76	68.3652	3,999.76	68.3879	3,999.76	63.9734	3,999.76	69.3611	3,999.76	59.4086	3,999.76	59.8783	3,999.76	65.2167	3,999.76	66.4358	3,999.76	67.1553	3,999.76	61.9822	3,999.76	60.5945	3,999.76	61.9152	3,999.76	63.4688	3,999.76	64.0246	3,999.76	64.4663
4,141.11	82.3376	4,141.11	80.9015	4,141.11	81.4145	4,141.11	76.9149	4,141.11	77.544	4,141.11	78.7015	4,141.11	77.9534	4,141.11	81.9307	4,141.11	80.8403	4,141.11	81.5838	4,141.11	81.4317	4,141.11	78.5158	4,141.11	80.2258	4,141.11	75.4248	4,141.11	74.2263	4,141.11	71.5565	4,141.11	68.8202	4,141.11	67.571	4,141.11	73.5613	4,141.11	68.0409	4,141.11	74.678	4,141.11	65.3751	4,141.11	67.6027	4,141.11	59.557	4,141.11	70.5331	4,141.11	57.6054	4,141.11	63.8538	4,141.11	62.3316	4,141.11	64.814	4,141.11	65.4511	4,141.11	61.3759	4,141.11	60.4641	4,141.11	58.9496	4,141.11	62.0205	4,141.11	64.5792	4,141.11	65.0261
4,286.87	83.2559	4,286.87	81.0523	4,286.87	82.3813	4,286.87	77.5219	4,286.87	78.527	4,286.87	79.7783	4,286.87	77.4124	4,286.87	82.3336	4,286.87	79.9435	4,286.87	80.7972	4,286.87	80.9055	4,286.87	76.2195	4,286.87	79.8369	4,286.87	73.8861	4,286.87	73.9912	4,286.87	70.4301	4,286.87	65.7824	4,286.87	63.9253	4,286.87	71.4948	4,286.87	67.3373	4,286.87	72.8875	4,286.87	66.4055	4,286.87	60.4271	4,286.87	60.6421	4,286.87	69.05	4,286.87	56.0841	4,286.87	62.2271	4,286.87	57.9776	4,286.87	66.2846	4,286.87	61.8258	4,286.87	65.5734	4,286.87	58.7646	4,286.87	57.2282	4,286.87	59.9515	4,286.87	63.0815	4,286.87	61.3653
4,438.48	83.168	4,438.48	81.2476	4,438.48	82.8313	4,438.48	78.5788	4,438.48	80.2373	4,438.48	80.3864	4,438.48	78.1263	4,438.48	82.0293	4,438.48	79.2123	4,438.48	79.923	4,438.48	80.0192	4,438.48	74.7681	4,438.48	79.5438	4,438.48	72.8404	4,438.48	75.4336	4,438.48	70.0235	4,438.48	66.3072	4,438.48	68.1412	4,438.48	69.8884	4,438.48	69.2567	4,438.48	73.4952	4,438.48	66.6922	4,438.48	66.6619	4,438.48	62.5761	4,438.48	63.9593	4,438.48	61.6829	4,438.48	59.5428	4,438.48	60.2067	4,438.48	65.337	4,438.48	62.3581	4,438.48	63.4729	4,438.48	57.6248	4,438.48	60.8021	4,438.48	59.1077	4,438.48	62.8214	4,438.48	61.9082
4,594.48	83.4966	4,594.48	81.5436	4,594.48	83.3518	4,594.48	79.5397	4,594.48	81.0314	4,594.48	80.9206	4,594.48	78.6649	4,594.48	81.7005	4,594.48	78.693	4,594.48	78.6932	4,594.48	79.4277	4,594.48	74.4838	4,594.48	79.7546	4,594.48	75.6114	4,594.48	77.3921	4,594.48	72.9294	4,594.48	72.9351	4,594.48	68.2741	4,594.48	73.3182	4,594.48	68.9698	4,594.48	74.6819	4,594.48	67.3997	4,594.48	69.132	4,594.48	63.0331	4,594.48	58.0349	4,594.48	60.7789	4,594.48	51.1798	4,594.48	60.1255	4,594.48	64.4924	4,594.48	63.1642	4,594.48	60.3868	4,594.48	60.6231	4,594.48	56.1617	4,594.48	62.0238	4,594.48	61.2469	4,594.48	62.9133
4,757.08	83.8039	4,757.08	81.9343	4,757.08	83.818	4,757.08	80.4037	4,757.08	81.8919	4,757.08	81.1849	4,757.08	79.3182	4,757.08	81.0155	4,757.08	78.2253	4,757.08	77.7342	4,757.08	78.7552	4,757.08	76.5156	4,757.08	79.4727	4,757.08	76.5198	4,757.08	77.6564	4,757.08	71.6514	4,757.08	73.7078	4,757.08	67.6514	4,757.08	72.4232	4,757.08	69.5245	4,757.08	71.6088	4,757.08	67.282	4,757.08	64.661	4,757.08	62.7908	4,757.08	64.0147	4,757.08	62.7369	4,757.08	50.2665	4,757.08	61.9053	4,757.08	66.394	4,757.08	62.6778	4,757.08	61.7633	4,757.08	58.8335	4,757.08	56.707	4,757.08	60.8443	4,757.08	61.1021	4,757.08	61.1304
4,924.8	84.0982	4,924.8	82.6447	4,924.8	84.2395	4,924.8	81.2421	4,924.8	82.6673	4,924.8	81.0454	4,924.8	79.8386	4,924.8	80.2754	4,924.8	77.7434	4,924.8	77.704	4,924.8	78.1711	4,924.8	76.6714	4,924.8	79.2494	4,924.8	75.8196	4,924.8	78.2912	4,924.8	71.3734	4,924.8	74.5558	4,924.8	68.3757	4,924.8	69.2581	4,924.8	68.1981	4,924.8	63.9256	4,924.8	64.8787	4,924.8	61.5401	4,924.8	61.3556	4,924.8	63.7196	4,924.8	62.3434	4,924.8	56.897	4,924.8	61.226	4,924.8	64.0894	4,924.8	59.0718	4,924.8	61.5769	4,924.8	58.7601	4,924.8	53.492	4,924.8	58.4605	4,924.8	59.87	4,924.8	58.9042
5,098.39	84.4789	5,098.39	82.9708	5,098.39	84.4921	5,098.39	81.2599	5,098.39	82.8199	5,098.39	80.6356	5,098.39	80.1972	5,098.39	79.7873	5,098.39	78.3556	5,098.39	77.7987	5,098.39	78.3429	5,098.39	76.4421	5,098.39	79.2871	5,098.39	74.2452	5,098.39	78.4494	5,098.39	69.9526	5,098.39	74.0676	5,098.39	69.7393	5,098.39	69.9446	5,098.39	68.0035	5,098.39	72.4855	5,098.39	63.8341	5,098.39	69.8484	5,098.39	61.4812	5,098.39	55.6382	5,098.39	61.2324	5,098.39	58.7507	5,098.39	60.4682	5,098.39	58.1252	5,098.39	60.6981	5,098.39	60.0031	5,098.39	47.8333	5,098.39	51.1461	5,098.39	60.7514	5,098.39	59.1135	5,098.39	60.7511
5,277.83	84.2947	5,277.83	83.0038	5,277.83	84.3864	5,277.83	81.2414	5,277.83	83.0772	5,277.83	80.2527	5,277.83	81.0065	5,277.83	79.4382	5,277.83	79.4785	5,277.83	77.3051	5,277.83	79.1292	5,277.83	75.1491	5,277.83	79.4761	5,277.83	74.167	5,277.83	77.8362	5,277.83	71.8206	5,277.83	72.9825	5,277.83	68.6459	5,277.83	71.3384	5,277.83	66.1772	5,277.83	72.446	5,277.83	62.5834	5,277.83	67.6707	5,277.83	61.8043	5,277.83	52.7738	5,277.83	61.3739	5,277.83	57.1626	5,277.83	56.2977	5,277.83	59.8235	5,277.83	58.3247	5,277.83	62.5663	5,277.83	53.4036	5,277.83	54.8305	5,277.83	56.8895	5,277.83	58.1697	5,277.83	60.5109
5,463.87	84.334	5,463.87	82.6193	5,463.87	84.3258	5,463.87	80.5731	5,463.87	82.8685	5,463.87	79.9566	5,463.87	80.9619	5,463.87	79.2564	5,463.87	79.4348	5,463.87	76.9726	5,463.87	79.2837	5,463.87	74.7438	5,463.87	79.717	5,463.87	72.4667	5,463.87	77.6907	5,463.87	69.3191	5,463.87	71.7396	5,463.87	69	5,463.87	68.6889	5,463.87	67.4308	5,463.87	69.5818	5,463.87	62.4458	5,463.87	63.8763	5,463.87	60.8153	5,463.87	62.0328	5,463.87	60.449	5,463.87	59.3055	5,463.87	55.2995	5,463.87	61.5697	5,463.87	58.271	5,463.87	63.8482	5,463.87	49.364	5,463.87	55.5892	5,463.87	53.7169	5,463.87	58.9262	5,463.87	57.5462
5,656.49	83.7908	5,656.49	82.1306	5,656.49	84.1916	5,656.49	80.6126	5,656.49	83.1686	5,656.49	80.2817	5,656.49	81.5172	5,656.49	79.3926	5,656.49	80.0261	5,656.49	76.6435	5,656.49	79.3702	5,656.49	74.2222	5,656.49	79.0416	5,656.49	72.5398	5,656.49	76.2585	5,656.49	70.0972	5,656.49	69.8857	5,656.49	69.2525	5,656.49	67.6444	5,656.49	68.2893	5,656.49	68.8035	5,656.49	64.3938	5,656.49	65.2377	5,656.49	61.9378	5,656.49	53.4733	5,656.49	62.5333	5,656.49	58.1909	5,656.49	59.5291	5,656.49	56.0342	5,656.49	59.0548	5,656.49	61.0136	5,656.49	56.7146	5,656.49	51.202	5,656.49	53.2344	5,656.49	53.2722	5,656.49	57.9641
5,856.45	83.4802	5,856.45	81.8225	5,856.45	83.7984	5,856.45	80.4017	5,856.45	82.9445	5,856.45	80.4415	5,856.45	81.7066	5,856.45	80.0355	5,856.45	80.3964	5,856.45	78.0861	5,856.45	79.6121	5,856.45	76.4073	5,856.45	78.7014	5,856.45	74.4774	5,856.45	74.7711	5,856.45	72.1202	5,856.45	66.1244	5,856.45	71.2172	5,856.45	64.696	5,856.45	69.5504	5,856.45	62.9746	5,856.45	65.0686	5,856.45	57.3871	5,856.45	62.5879	5,856.45	55.882	5,856.45	63.5059	5,856.45	58.8538	5,856.45	60.1373	5,856.45	55.7011	5,856.45	60.0971	5,856.45	58.964	5,856.45	57.6954	5,856.45	54.0948	5,856.45	53.1159	5,856.45	55.0296	5,856.45	57.5231
6,062.99	83.2583	6,062.99	82.055	6,062.99	83.4483	6,062.99	81.0051	6,062.99	82.8435	6,062.99	80.9422	6,062.99	81.9687	6,062.99	80.5219	6,062.99	80.9448	6,062.99	79.0494	6,062.99	79.9987	6,062.99	78.1171	6,062.99	78.4133	6,062.99	75.6841	6,062.99	73.5796	6,062.99	71.1176	6,062.99	67.2884	6,062.99	69.1391	6,062.99	65.6577	6,062.99	68.8112	6,062.99	62.0829	6,062.99	65.2943	6,062.99	57.5683	6,062.99	61.7211	6,062.99	55.3584	6,062.99	62.7311	6,062.99	47.7081	6,062.99	60.3395	6,062.99	59.3177	6,062.99	57.3964	6,062.99	58.5957	6,062.99	57.3968	6,062.99	49.0315	6,062.99	53.7803	6,062.99	55.153	6,062.99	57.8571
6,276.86	83.5549	6,276.86	83.0135	6,276.86	83.115	6,276.86	81.8402	6,276.86	82.4144	6,276.86	81.0365	6,276.86	81.8414	6,276.86	80.5218	6,276.86	80.8245	6,276.86	79.6559	6,276.86	79.8999	6,276.86	78.1134	6,276.86	78.5799	6,276.86	74.2202	6,276.86	74.7702	6,276.86	67.9843	6,276.86	71.6584	6,276.86	65.27	6,276.86	68.1268	6,276.86	64.7213	6,276.86	58.876	6,276.86	61.9574	6,276.86	57.4758	6,276.86	59.5998	6,276.86	53.9682	6,276.86	60.2241	6,276.86	56.0911	6,276.86	59.4124	6,276.86	55.8093	6,276.86	55.8747	6,276.86	57.2192	6,276.86	53.8313	6,276.86	35.6642	6,276.86	54.7702	6,276.86	56.3347	6,276.86	58.8263
6,498.05	83.9003	6,498.05	83.5427	6,498.05	83.2478	6,498.05	82.5105	6,498.05	82.1725	6,498.05	81.4585	6,498.05	81.2675	6,498.05	80.3494	6,498.05	80.0164	6,498.05	78.6262	6,498.05	79.2281	6,498.05	75.9921	6,498.05	78.5292	6,498.05	71.5402	6,498.05	75.6005	6,498.05	67.8022	6,498.05	73.7604	6,498.05	66.1263	6,498.05	70.1859	6,498.05	63.0752	6,498.05	57.7715	6,498.05	59.4949	6,498.05	56.2825	6,498.05	58.814	6,498.05	56.7692	6,498.05	59.6354	6,498.05	58.4759	6,498.05	59.9291	6,498.05	55.7179	6,498.05	57.0205	6,498.05	57.6456	6,498.05	54.0393	6,498.05	52.8397	6,498.05	54.6648	6,498.05	54.5278	6,498.05	59.7202
6,727.29	84.1696	6,727.29	83.9831	6,727.29	83.1656	6,727.29	82.7402	6,727.29	82.066	6,727.29	81.4083	6,727.29	80.8763	6,727.29	79.9021	6,727.29	79.2268	6,727.29	77.0726	6,727.29	78.3183	6,727.29	73.6337	6,727.29	77.3582	6,727.29	71.811	6,727.29	75.7871	6,727.29	69.5835	6,727.29	74.6763	6,727.29	66.4087	6,727.29	71.1355	6,727.29	63.046	6,727.29	60.2623	6,727.29	60.2964	6,727.29	55.5792	6,727.29	59.2677	6,727.29	47.2299	6,727.29	59.0317	6,727.29	58.4874	6,727.29	58.4152	6,727.29	55.0384	6,727.29	59.1428	6,727.29	58.5327	6,727.29	56.951	6,727.29	56.856	6,727.29	57.7964	6,727.29	52.2719	6,727.29	60.6344
6,964.6	84.4721	6,964.6	83.9728	6,964.6	83.5722	6,964.6	82.6423	6,964.6	82.1855	6,964.6	81.3391	6,964.6	80.3853	6,964.6	79.1586	6,964.6	77.8359	6,964.6	75.4587	6,964.6	76.6475	6,964.6	74.3296	6,964.6	75.9755	6,964.6	73.2995	6,964.6	74.6352	6,964.6	69.6176	6,964.6	72.8642	6,964.6	66.0828	6,964.6	68.3686	6,964.6	62.827	6,964.6	60.6278	6,964.6	59.8739	6,964.6	54.2325	6,964.6	59.976	6,964.6	57.672	6,964.6	60.076	6,964.6	60.7163	6,964.6	58.1553	6,964.6	56.1945	6,964.6	58.4925	6,964.6	55.7604	6,964.6	54.6614	6,964.6	58.6019	6,964.6	56.3931	6,964.6	55.8793	6,964.6	60.7581
7,209.96	84.3695	7,209.96	83.7561	7,209.96	83.5775	7,209.96	82.2523	7,209.96	82.4403	7,209.96	80.6787	7,209.96	80.5172	7,209.96	78.0288	7,209.96	77.3819	7,209.96	75.3871	7,209.96	75.5286	7,209.96	75.4216	7,209.96	73.9031	7,209.96	72.0955	7,209.96	70.8472	7,209.96	66.5406	7,209.96	67.8599	7,209.96	65.4397	7,209.96	67.3194	7,209.96	62.4851	7,209.96	64.0162	7,209.96	58.6212	7,209.96	58.7573	7,209.96	58.2162	7,209.96	57.0938	7,209.96	59.6552	7,209.96	60.0632	7,209.96	56.8045	7,209.96	55.9408	7,209.96	56.9319	7,209.96	56.6461	7,209.96	55.0371	7,209.96	60.4537	7,209.96	53.8618	7,209.96	57.088	7,209.96	60.362
7,464.11	83.0364	7,464.11	82.5518	7,464.11	82.5228	7,464.11	81.1288	7,464.11	82.0468	7,464.11	79.256	7,464.11	80.4176	7,464.11	76.84	7,464.11	77.4627	7,464.11	76.2742	7,464.11	75.8769	7,464.11	75.312	7,464.11	72.794	7,464.11	70.319	7,464.11	69.1495	7,464.11	67.7979	7,464.11	69.6628	7,464.11	66.4041	7,464.11	68.3669	7,464.11	62.8165	7,464.11	63.4463	7,464.11	61.7173	7,464.11	61.4216	7,464.11	60.2488	7,464.11	59.5324	7,464.11	58.6351	7,464.11	60.1165	7,464.11	55.5533	7,464.11	56.9902	7,464.11	55.8551	7,464.11	54.8271	7,464.11	56.0074	7,464.11	60.1573	7,464.11	51.5042	7,464.11	58.9393	7,464.11	61.005
7,727.78	82.1523	7,727.78	81.6433	7,727.78	81.7573	7,727.78	80.1472	7,727.78	81.4155	7,727.78	78.2404	7,727.78	79.8694	7,727.78	76.5515	7,727.78	77.3911	7,727.78	76.5663	7,727.78	76.3125	7,727.78	74.9689	7,727.78	73.7305	7,727.78	70.7893	7,727.78	73.1069	7,727.78	70.1329	7,727.78	73.5047	7,727.78	68.0765	7,727.78	71.1276	7,727.78	64.7215	7,727.78	65.2656	7,727.78	63.7245	7,727.78	50.3695	7,727.78	61.1992	7,727.78	57.473	7,727.78	59.0961	7,727.78	56.3325	7,727.78	56.5997	7,727.78	56.9962	7,727.78	54.2345	7,727.78	52.8561	7,727.78	57.198	7,727.78	60.7729	7,727.78	49.9516	7,727.78	58.8526	7,727.78	60.3569
8,000.24	81.1918	8,000.24	81.1787	8,000.24	80.7216	8,000.24	79.6994	8,000.24	80.7132	8,000.24	77.5035	8,000.24	79.0262	8,000.24	76.6126	8,000.24	77.4854	8,000.24	77.1722	8,000.24	77.0442	8,000.24	75.2768	8,000.24	75.3794	8,000.24	72.2981	8,000.24	75.6779	8,000.24	70.6397	8,000.24	73.632	8,000.24	66.0511	8,000.24	69.1669	8,000.24	62.1153	8,000.24	64.887	8,000.24	62.5795	8,000.24	55.3544	8,000.24	60.6181	8,000.24	59.6094	8,000.24	58.036	8,000.24	54.2646	8,000.24	54.8121	8,000.24	57.1169	8,000.24	52.7575	8,000.24	51.9401	8,000.24	57.8037	8,000.24	61.1403	8,000.24	50.7663	8,000.24	59.7326	8,000.24	59.9698
8,282.23	81.9985	8,282.23	82.1755	8,282.23	81.0559	8,282.23	80.2452	8,282.23	80.3854	8,282.23	77.6164	8,282.23	78.4094	8,282.23	77.5165	8,282.23	77.3094	8,282.23	77.9194	8,282.23	76.5727	8,282.23	75.2114	8,282.23	75.3678	8,282.23	72.0424	8,282.23	74.5893	8,282.23	69.7714	8,282.23	70.1093	8,282.23	64.5517	8,282.23	64.6181	8,282.23	61.5718	8,282.23	62.0895	8,282.23	61.9788	8,282.23	53.8759	8,282.23	58.9765	8,282.23	57.3836	8,282.23	58.5105	8,282.23	51.7615	8,282.23	57.2233	8,282.23	53.0056	8,282.23	51.0228	8,282.23	40.9105	8,282.23	57.9375	8,282.23	59.1181	8,282.23	52.1942	8,282.23	60.538	8,282.23	60.3133
8,574.46	82.6949	8,574.46	82.8364	8,574.46	81.8836	8,574.46	80.7871	8,574.46	81.0493	8,574.46	78.4931	8,574.46	78.528	8,574.46	78.5042	8,574.46	77.4943	8,574.46	77.9566	8,574.46	76.821	8,574.46	74.7296	8,574.46	75.4529	8,574.46	72.4714	8,574.46	72.6034	8,574.46	69.8016	8,574.46	66.7994	8,574.46	64.43	8,574.46	65.5878	8,574.46	62.0284	8,574.46	62.6378	8,574.46	61.9854	8,574.46	59.1712	8,574.46	58.2423	8,574.46	48.3581	8,574.46	58.5943	8,574.46	54.1572	8,574.46	57.8754	8,574.46	47.8719	8,574.46	49.4744	8,574.46	43.9428	8,574.46	57.1226	8,574.46	57.5315	8,574.46	54.1579	8,574.46	60.1097	8,574.46	61.0013
8,876.22	83.3183	8,876.22	83.2778	8,876.22	82.9468	8,876.22	81.5231	8,876.22	81.6595	8,876.22	79.6236	8,876.22	79.1097	8,876.22	79.0632	8,876.22	78.4285	8,876.22	77.4984	8,876.22	76.8944	8,876.22	74.5736	8,876.22	74.3805	8,876.22	74.0916	8,876.22	71.563	8,876.22	70.8044	8,876.22	69.4697	8,876.22	63.8628	8,876.22	64.2529	8,876.22	60.733	8,876.22	44.3445	8,876.22	61.9381	8,876.22	58.044	8,876.22	58.9895	8,876.22	50.8037	8,876.22	56.9867	8,876.22	52.3451	8,876.22	59.3424	8,876.22	57.0632	8,876.22	48.2194	8,876.22	48.6219	8,876.22	58.5877	8,876.22	55.1556	8,876.22	53.4406	8,876.22	58.5261	8,876.22	61.2358
9,189.7	83.3345	9,189.7	83.1057	9,189.7	83.2353	9,189.7	81.9161	9,189.7	81.9869	9,189.7	80.5944	9,189.7	79.9987	9,189.7	79.0619	9,189.7	79.251	9,189.7	76.6936	9,189.7	77.102	9,189.7	75.522	9,189.7	74.6413	9,189.7	74.6513	9,189.7	73.0925	9,189.7	70.2158	9,189.7	69.2709	9,189.7	63.6121	9,189.7	59.6982	9,189.7	58.4226	9,189.7	57.3138	9,189.7	60.0682	9,189.7	59.0598	9,189.7	58.7762	9,189.7	55.3319	9,189.7	53.4972	9,189.7	45.7876	9,189.7	57.633	9,189.7	55.2639	9,189.7	47.6384	9,189.7	40.2334	9,189.7	55.2603	9,189.7	56.9402	9,189.7	46.7728	9,189.7	57.1334	9,189.7	57.4921
9,513.43	82.8605	9,513.43	82.4193	9,513.43	82.9626	9,513.43	82.0265	9,513.43	81.7131	9,513.43	81.3446	9,513.43	80.3116	9,513.43	79.5293	9,513.43	79.1907	9,513.43	77.0152	9,513.43	76.5206	9,513.43	75.6727	9,513.43	74.2244	9,513.43	73.207	9,513.43	72.2033	9,513.43	68.0908	9,513.43	66.3046	9,513.43	63.8374	9,513.43	63.9069	9,513.43	57.0593	9,513.43	63.0416	9,513.43	55.1018	9,513.43	55.9153	9,513.43	56.1648	9,513.43	49.7919	9,513.43	53.0273	9,513.43	41.8142	9,513.43	56.5367	9,513.43	52.4695	9,513.43	44.199	9,513.43	38.3604	9,513.43	53.7417	9,513.43	55.8589	9,513.43	49.5497	9,513.43	50.621	9,513.43	55.9986
9,848.88	83.4205	9,848.88	83.5229	9,848.88	82.8351	9,848.88	83.1678	9,848.88	81.7628	9,848.88	82.0473	9,848.88	80.4373	9,848.88	79.8745	9,848.88	78.7517	9,848.88	77.5315	9,848.88	76.2372	9,848.88	75.2205	9,848.88	74.9123	9,848.88	71.2658	9,848.88	72.4838	9,848.88	67.1902	9,848.88	65.2648	9,848.88	62.5681	9,848.88	62.3378	9,848.88	56.0779	9,848.88	58.7972	9,848.88	53.0558	9,848.88	54.8996	9,848.88	52.4329	9,848.88	50.2096	9,848.88	53.3481	9,848.88	37.5324	9,848.88	55.5922	9,848.88	55.3232	9,848.88	41.5828	9,848.88	40.9191	9,848.88	53.7103	9,848.88	56.8943	9,848.88	51.1553	9,848.88	48.752	9,848.88	53.9201
10,196.8	84.6901	10,196.8	84.9095	10,196.8	83.562	10,196.8	83.9053	10,196.8	81.9286	10,196.8	82.0924	10,196.8	79.921	10,196.8	79.9022	10,196.8	77.805	10,196.8	77.5348	10,196.8	75.2931	10,196.8	74.3106	10,196.8	73.9048	10,196.8	69.5579	10,196.8	69.6501	10,196.8	65.043	10,196.8	61.1971	10,196.8	59.1743	10,196.8	57.2549	10,196.8	54.3219	10,196.8	55.4922	10,196.8	56.4322	10,196.8	54.7696	10,196.8	53.3296	10,196.8	47.0421	10,196.8	52.796	10,196.8	46.1767	10,196.8	56.4745	10,196.8	50.5693	10,196.8	42.9468	10,196.8	34.2956	10,196.8	55.653	10,196.8	56.6686	10,196.8	50.1683	10,196.8	52.0783	10,196.8	53.0063
10,556.4	85.3773	10,556.4	85.5656	10,556.4	84.2251	10,556.4	83.9846	10,556.4	82.3428	10,556.4	81.4073	10,556.4	79.8246	10,556.4	79.2882	10,556.4	77.1883	10,556.4	76.7602	10,556.4	74.2913	10,556.4	72.5431	10,556.4	72.0113	10,556.4	68.4591	10,556.4	65.7086	10,556.4	63.8758	10,556.4	59.4082	10,556.4	58.074	10,556.4	54.4744	10,556.4	52.8763	10,556.4	48.5799	10,556.4	55.7336	10,556.4	52.716	10,556.4	55.0333	10,556.4	41.8728	10,556.4	47.9863	10,556.4	49.3377	10,556.4	56.4285	10,556.4	49.11	10,556.4	47.6716	10,556.4	42.4697	10,556.4	54.8221	10,556.4	57.2179	10,556.4	48.8912	10,556.4	53.0098	10,556.4	52.1337
10,928.5	85.6361	10,928.5	85.2033	10,928.5	84.6619	10,928.5	83.0205	10,928.5	82.7394	10,928.5	80.6415	10,928.5	80.099	10,928.5	78.7285	10,928.5	76.9262	10,928.5	75.0408	10,928.5	74.0526	10,928.5	71.3135	10,928.5	69.4686	10,928.5	68.1873	10,928.5	63.727	10,928.5	64.1678	10,928.5	56.632	10,928.5	59.4578	10,928.5	40.907	10,928.5	50.6636	10,928.5	56.5527	10,928.5	54.8229	10,928.5	57.5849	10,928.5	55.882	10,928.5	50.907	10,928.5	40.4431	10,928.5	52.4349	10,928.5	52.7682	10,928.5	57.8773	10,928.5	52.4439	10,928.5	53.367	10,928.5	49.4051	10,928.5	56.9165	10,928.5	45.8117	10,928.5	40.774	10,928.5	51.8573
11,313.7	85.4183	11,313.7	84.8467	11,313.7	84.5396	11,313.7	82.5561	11,313.7	82.8418	11,313.7	80.5775	11,313.7	79.7581	11,313.7	78.2736	11,313.7	76.514	11,313.7	73.5325	11,313.7	73.5544	11,313.7	71.2591	11,313.7	68.9758	11,313.7	67.2004	11,313.7	64.4754	11,313.7	63.627	11,313.7	48.0502	11,313.7	58.2126	11,313.7	56.7731	11,313.7	52.6176	11,313.7	63.5154	11,313.7	54.8634	11,313.7	61.9705	11,313.7	54.0367	11,313.7	58.0668	11,313.7	38.042	11,313.7	58.396	11,313.7	47.9119	11,313.7	61.692	11,313.7	53.3074	11,313.7	57.0392	11,313.7	36.1043	11,313.7	59.5767	11,313.7	49.6219	11,313.7	47.9675	11,313.7	55.1176
11,712.9	84.8763	11,712.9	84.6277	11,712.9	83.9877	11,712.9	83.0437	11,712.9	82.0845	11,712.9	81.1726	11,712.9	79.0096	11,712.9	78.0049	11,712.9	76.872	11,712.9	73.245	11,712.9	73.4222	11,712.9	71.2652	11,712.9	69.5467	11,712.9	65.6471	11,712.9	67.122	11,712.9	63.9539	11,712.9	56.9314	11,712.9	56.1137	11,712.9	62.9091	11,712.9	54.9937	11,712.9	66.3304	11,712.9	54.0899	11,712.9	64.1365	11,712.9	52.4755	11,712.9	58.8141	11,712.9	48.9769	11,712.9	59.9759	11,712.9	48.6231	11,712.9	61.8492	11,712.9	54.9849	11,712.9	57.1976	11,712.9	46.864	11,712.9	61.7184	11,712.9	53.6807	11,712.9	54.8462	11,712.9	56.88
12,126	84.603	12,126	84.609	12,126	83.431	12,126	83.0961	12,126	81.3255	12,126	80.8705	12,126	78.2787	12,126	77.8442	12,126	76.4361	12,126	73.563	12,126	72.585	12,126	70.3068	12,126	70.2868	12,126	65.134	12,126	66.7135	12,126	62.8571	12,126	60.391	12,126	56.3475	12,126	62.902	12,126	56.1916	12,126	66.8801	12,126	50.7212	12,126	64.9017	12,126	50.3106	12,126	54.1214	12,126	50.33	12,126	57.2491	12,126	50.0286	12,126	59.0354	12,126	53.4805	12,126	56.3546	12,126	47.4163	12,126	61.6934	12,126	54.1865	12,126	56.0638	12,126	55.9599
12,553.7	84.7831	12,553.7	84.5146	12,553.7	83.4712	12,553.7	82.2932	12,553.7	81.2804	12,553.7	79.9682	12,553.7	78.3707	12,553.7	78.2361	12,553.7	76.1872	12,553.7	73.5987	12,553.7	71.1457	12,553.7	69.9141	12,553.7	69.581	12,553.7	65.4138	12,553.7	63.8657	12,553.7	61.2699	12,553.7	59.4535	12,553.7	56.3865	12,553.7	61.5186	12,553.7	53.7119	12,553.7	66.997	12,553.7	51.1815	12,553.7	64.7832	12,553.7	49.3697	12,553.7	56.5764	12,553.7	43.2482	12,553.7	57.3175	12,553.7	50.2772	12,553.7	59.0581	12,553.7	50.1578	12,553.7	58.4255	12,553.7	46.8801	12,553.7	61.3782	12,553.7	49.4993	12,553.7	56.5002	12,553.7	54.7593
12,996.1	85.158	12,996.1	84.6668	12,996.1	83.7783	12,996.1	81.8272	12,996.1	81.6793	12,996.1	79.5574	12,996.1	78.6814	12,996.1	78.2689	12,996.1	75.6462	12,996.1	72.8124	12,996.1	71.2319	12,996.1	70.276	12,996.1	68.4723	12,996.1	64.8423	12,996.1	63.3703	12,996.1	61.9132	12,996.1	59.965	12,996.1	55.3247	12,996.1	65.5279	12,996.1	55.2707	12,996.1	69.5253	12,996.1	53.865	12,996.1	66.7694	12,996.1	50.7244	12,996.1	60.931	12,996.1	44.6949	12,996.1	61.2074	12,996.1	49.5215	12,996.1	63.0088	12,996.1	54.4187	12,996.1	59.972	12,996.1	50.5052	12,996.1	63.6851	12,996.1	50.2789	12,996.1	58.1436	12,996.1	56.0932
13,454.6	85.331	13,454.6	85.1071	13,454.6	84.057	13,454.6	82.2184	13,454.6	81.8659	13,454.6	79.4876	13,454.6	78.2272	13,454.6	77.8831	13,454.6	75.4241	13,454.6	71.6634	13,454.6	71.3371	13,454.6	69.5273	13,454.6	68.2577	13,454.6	62.7382	13,454.6	65.9189	13,454.6	62.2538	13,454.6	63.0789	13,454.6	52.3725	13,454.6	67.8085	13,454.6	57.9401	13,454.6	71.5673	13,454.6	54.1087	13,454.6	68.6996	13,454.6	50.9368	13,454.6	62.1742	13,454.6	52.8089	13,454.6	62.9587	13,454.6	46.3542	13,454.6	64.7543	13,454.6	57.3201	13,454.6	60.6899	13,454.6	52.6752	13,454.6	65.1224	13,454.6	54.8296	13,454.6	59.3266	13,454.6	58.6024
13,928.5	85.6714	13,928.5	85.3423	13,928.5	84.2598	13,928.5	82.541	13,928.5	81.9887	13,928.5	79.5922	13,928.5	78.5265	13,928.5	77.5692	13,928.5	76.4652	13,928.5	70.0617	13,928.5	71.7148	13,928.5	67.907	13,928.5	69.9997	13,928.5	59.2325	13,928.5	67.8601	13,928.5	61.7463	13,928.5	64.8927	13,928.5	46.4082	13,928.5	68.141	13,928.5	59.2676	13,928.5	73.3344	13,928.5	53.742	13,928.5	70.1767	13,928.5	49.7445	13,928.5	62.9851	13,928.5	56.1409	13,928.5	64.1672	13,928.5	48.2593	13,928.5	65.5277	13,928.5	59.0692	13,928.5	61.5276	13,928.5	55.7255	13,928.5	65.3729	13,928.5	57.172	13,928.5	61.7044	13,928.5	57.9256
14,419.9	85.6859	14,419.9	85.5536	14,419.9	84.1849	14,419.9	83.0482	14,419.9	81.8142	14,419.9	79.4389	14,419.9	78.3426	14,419.9	77.0313	14,419.9	76.4472	14,419.9	69.2297	14,419.9	70.2871	14,419.9	65.2738	14,419.9	70.6378	14,419.9	54.9984	14,419.9	67.477	14,419.9	59.8171	14,419.9	63.9943	14,419.9	40.9766	14,419.9	67.1171	14,419.9	58.7128	14,419.9	73.1002	14,419.9	51.1712	14,419.9	69.8245	14,419.9	45.9557	14,419.9	62.0759	14,419.9	56.0509	14,419.9	63.2125	14,419.9	52.3861	14,419.9	64.1024	14,419.9	58.3385	14,419.9	60.2734	14,419.9	56.6449	14,419.9	64.884	14,419.9	58.081	14,419.9	62.4588	14,419.9	57.6523
14,928.2	86.2461	14,928.2	85.8289	14,928.2	84.7389	14,928.2	83.0555	14,928.2	82.1148	14,928.2	78.5119	14,928.2	78.4867	14,928.2	76.5785	14,928.2	75.812	14,928.2	68.157	14,928.2	69.0059	14,928.2	64.0758	14,928.2	70.372	14,928.2	53.3127	14,928.2	67.1314	14,928.2	59.9226	14,928.2	63.22	14,928.2	48.0265	14,928.2	67.1419	14,928.2	59.8159	14,928.2	73.0663	14,928.2	51.3334	14,928.2	69.7712	14,928.2	42.4003	14,928.2	63.2181	14,928.2	57.1167	14,928.2	63.4948	14,928.2	53.4776	14,928.2	64.2017	14,928.2	58.5304	14,928.2	60.5568	14,928.2	57.9732	14,928.2	66.4176	14,928.2	59.4823	14,928.2	64.351	14,928.2	58.6054
15,454.8	86.5589	15,454.8	86.1889	15,454.8	84.7094	15,454.8	82.8937	15,454.8	82.079	15,454.8	77.3204	15,454.8	77.9533	15,454.8	75.8478	15,454.8	75.3837	15,454.8	66.4819	15,454.8	69.6801	15,454.8	64.7412	15,454.8	70.5098	15,454.8	50.59	15,454.8	68.4736	15,454.8	62.1526	15,454.8	62.4046	15,454.8	51.7262	15,454.8	66.9776	15,454.8	61.5276	15,454.8	72.8502	15,454.8	51.1277	15,454.8	69.5624	15,454.8	41.4427	15,454.8	64.1565	15,454.8	59.4541	15,454.8	63.3091	15,454.8	55.3133	15,454.8	65.1556	15,454.8	60.4586	15,454.8	61.0218	15,454.8	59.9655	15,454.8	68.1744	15,454.8	60.6702	15,454.8	66.0789	15,454.8	60.6571
15,999.8	85.8637	15,999.8	85.7445	15,999.8	83.8185	15,999.8	82.5021	15,999.8	81.2534	15,999.8	76.4855	15,999.8	77.0317	15,999.8	74.6198	15,999.8	75.1833	15,999.8	63.7381	15,999.8	70.3924	15,999.8	64.2895	15,999.8	69.5638	15,999.8	49.6266	15,999.8	68.605	15,999.8	61.8805	15,999.8	62.2148	15,999.8	52.0337	15,999.8	65.3939	15,999.8	61.7584	15,999.8	71.8842	15,999.8	50.7017	15,999.8	68.8506	15,999.8	41.3927	15,999.8	63.3333	15,999.8	60.1106	15,999.8	62.1332	15,999.8	55.3194	15,999.8	64.7921	15,999.8	60.5379	15,999.8	60.8559	15,999.8	61.2857	15,999.8	68.5866	15,999.8	61.0818	15,999.8	66.8786	15,999.8	60.9474
16,564.5	84.6715	16,564.5	84.7838	16,564.5	82.6151	16,564.5	82.0821	16,564.5	79.9099	16,564.5	75.6286	16,564.5	75.7663	16,564.5	72.3256	16,564.5	74.243	16,564.5	60.6541	16,564.5	69.7244	16,564.5	61.9515	16,564.5	66.8826	16,564.5	44.5376	16,564.5	67.7981	16,564.5	60.961	16,564.5	59.0812	16,564.5	50.7805	16,564.5	62.42	16,564.5	59.5368	16,564.5	69.2867	16,564.5	49.0185	16,564.5	66.7096	16,564.5	38.9589	16,564.5	61.1614	16,564.5	58.7171	16,564.5	59.0554	16,564.5	55.7386	16,564.5	63.2649	16,564.5	58.6054	16,564.5	58.7183	16,564.5	61.1255	16,564.5	67.8988	16,564.5	59.8952	16,564.5	65.9159	16,564.5	59.9426
17,148.2	84.0881	17,148.2	84.259	17,148.2	81.8681	17,148.2	81.6618	17,148.2	79.0092	17,148.2	74.2245	17,148.2	75.0266	17,148.2	69.7052	17,148.2	72.414	17,148.2	58.257	17,148.2	68.5206	17,148.2	63.0342	17,148.2	62.7654	17,148.2	42.3666	17,148.2	65.9991	17,148.2	60.6588	17,148.2	55.7972	17,148.2	47.0585	17,148.2	61.7472	17,148.2	58.4838	17,148.2	66.9678	17,148.2	47.9655	17,148.2	64.5899	17,148.2	35.3076	17,148.2	60.6553	17,148.2	56.3308	17,148.2	57.9422	17,148.2	54.2307	17,148.2	62.9192	17,148.2	56.561	17,148.2	57.4571	17,148.2	60.3675	17,148.2	67.7318	17,148.2	58.4899	17,148.2	65.1605	17,148.2	60.0282
17,753.2	83.9853	17,753.2	84.1777	17,753.2	81.6032	17,753.2	81.2453	17,753.2	78.7387	17,753.2	72.3441	17,753.2	74.2525	17,753.2	67.4532	17,753.2	70.4038	17,753.2	57.1237	17,753.2	68.1717	17,753.2	63.9509	17,753.2	62.1481	17,753.2	52.8472	17,753.2	66.3679	17,753.2	61.1192	17,753.2	58.8538	17,753.2	41.603	17,753.2	64.4714	17,753.2	58.7412	17,753.2	67.7427	17,753.2	51.5458	17,753.2	65.3106	17,753.2	43.2041	17,753.2	61.6867	17,753.2	56.5568	17,753.2	58.7056	17,753.2	54.8864	17,753.2	62.6237	17,753.2	56.996	17,753.2	56.051	17,753.2	61.3683	17,753.2	67.9113	17,753.2	59.4619	17,753.2	65.3115	17,753.2	60.7734
18,379.4	82.9831	18,379.4	83.2782	18,379.4	80.6672	18,379.4	80.089	18,379.4	77.5816	18,379.4	69.8255	18,379.4	72.5328	18,379.4	62.9673	18,379.4	69.2782	18,379.4	57.7322	18,379.4	69.202	18,379.4	62.3266	18,379.4	59.1108	18,379.4	55.8514	18,379.4	66.1551	18,379.4	58.5967	18,379.4	60.4475	18,379.4	51.5972	18,379.4	65.7722	18,379.4	57.2846	18,379.4	67.5208	18,379.4	53.35	18,379.4	64.8643	18,379.4	47.4272	18,379.4	60.8268	18,379.4	55.3366	18,379.4	57.0833	18,379.4	55.6538	18,379.4	60.2316	18,379.4	56.6107	18,379.4	52.7015	18,379.4	61.1477	18,379.4	67.7608	18,379.4	59.8181	18,379.4	65.3313	18,379.4	60.3738
19,027.6	81.3661	19,027.6	81.7444	19,027.6	78.9375	19,027.6	78.3474	19,027.6	75.5937	19,027.6	65.7407	19,027.6	70.406	19,027.6	54.8039	19,027.6	67.5821	19,027.6	58.1183	19,027.6	68.7713	19,027.6	60.1636	19,027.6	56.1086	19,027.6	57.2843	19,027.6	64.4074	19,027.6	55.1301	19,027.6	59.2582	19,027.6	54.8015	19,027.6	65.2415	19,027.6	52.9581	19,027.6	66.1961	19,027.6	54.0478	19,027.6	63.089	19,027.6	47.3932	19,027.6	58.7706	19,027.6	52.9374	19,027.6	55.1199	19,027.6	55.0298	19,027.6	56.5219	19,027.6	53.7316	19,027.6	53.5223	19,027.6	59.5124	19,027.6	66.722	19,027.6	57.632	19,027.6	63.7314	19,027.6	60.0833
19,698.5	80.9525	19,698.5	81.0599	19,698.5	78.115	19,698.5	77.0189	19,698.5	74.4217	19,698.5	56.2233	19,698.5	69.6027	19,698.5	63.3905	19,698.5	66.3418	19,698.5	58.0498	19,698.5	68.223	19,698.5	61.2517	19,698.5	57.0087	19,698.5	57.3369	19,698.5	64.37	19,698.5	55.9064	19,698.5	59.5947	19,698.5	56.974	19,698.5	65.9942	19,698.5	52.376	19,698.5	66.6478	19,698.5	55.4828	19,698.5	62.4082	19,698.5	48.4842	19,698.5	59.8687	19,698.5	54.1312	19,698.5	57.4114	19,698.5	55.8057	19,698.5	55.2485	19,698.5	55.6396	19,698.5	51.8899	19,698.5	59.6927	19,698.5	66.3898	19,698.5	57.2143	19,698.5	64.0145	19,698.5	60.4966
19,999.5	80.7022	19,999.5	80.8298	19,999.5	77.4032	19,999.5	76.2036	19,999.5	74.6897	19,999.5	46.3	19,999.5	69.9551	19,999.5	63.6871	19,999.5	65.8088	19,999.5	58.3044	19,999.5	68.3198	19,999.5	61.0023	19,999.5	53.6311	19,999.5	57.1579	19,999.5	63.5986	19,999.5	54.8969	19,999.5	59.2595	19,999.5	57.7859	19,999.5	66.8318	19,999.5	52.6493	19,999.5	67.127	19,999.5	55.7262	19,999.5	62.081	19,999.5	49.4716	19,999.5	60.1191	19,999.5	54.3187	19,999.5	57.6975	19,999.5	56.2537	19,999.5	54.9644	19,999.5	55.8251	19,999.5	49.4175	19,999.5	60.1795	19,999.5	65.8455	19,999.5	57.0193	19,999.5	63.7165	19,999.5	60.6358
