"SPL Horizontal"																																																																							
"On-Axis"		"10°"		"-10°"		"20°"		"-20°"		"30°"		"-30°"		"40°"		"-40°"		"50°"		"-50°"		"60°"		"-60°"		"70°"		"-70°"		"80°"		"-80°"		"90°"		"-90°"		"100°"		"-100°"		"110°"		"-110°"		"120°"		"-120°"		"130°"		"-130°"		"140°"		"-140°"		"150°"		"-150°"		"160°"		"-160°"		"170°"		"-170°"		"180°"	
"Frequency [Hz]"	"Sound Pessure Level [dB]  / [2.83V 1m] "	"Frequency [Hz]"	"Sound Pessure Level [dB]  / [2.83V 1m] "	"Frequency [Hz]"	"Sound Pessure Level [dB]  / [2.83V 1m] "	"Frequency [Hz]"	"Sound Pessure Level [dB]  / [2.83V 1m] "	"Frequency [Hz]"	"Sound Pessure Level [dB]  / [2.83V 1m] "	"Frequency [Hz]"	"Sound Pessure Level [dB]  / [2.83V 1m] "	"Frequency [Hz]"	"Sound Pessure Level [dB]  / [2.83V 1m] "	"Frequency [Hz]"	"Sound Pessure Level [dB]  / [2.83V 1m] "	"Frequency [Hz]"	"Sound Pessure Level [dB]  / [2.83V 1m] "	"Frequency [Hz]"	"Sound Pessure Level [dB]  / [2.83V 1m] "	"Frequency [Hz]"	"Sound Pessure Level [dB]  / [2.83V 1m] "	"Frequency [Hz]"	"Sound Pessure Level [dB]  / [2.83V 1m] "	"Frequency [Hz]"	"Sound Pessure Level [dB]  / [2.83V 1m] "	"Frequency [Hz]"	"Sound Pessure Level [dB]  / [2.83V 1m] "	"Frequency [Hz]"	"Sound Pessure Level [dB]  / [2.83V 1m] "	"Frequency [Hz]"	"Sound Pessure Level [dB]  / [2.83V 1m] "	"Frequency [Hz]"	"Sound Pessure Level [dB]  / [2.83V 1m] "	"Frequency [Hz]"	"Sound Pessure Level [dB]  / [2.83V 1m] "	"Frequency [Hz]"	"Sound Pessure Level [dB]  / [2.83V 1m] "	"Frequency [Hz]"	"Sound Pessure Level [dB]  / [2.83V 1m] "	"Frequency [Hz]"	"Sound Pessure Level [dB]  / [2.83V 1m] "	"Frequency [Hz]"	"Sound Pessure Level [dB]  / [2.83V 1m] "	"Frequency [Hz]"	"Sound Pessure Level [dB]  / [2.83V 1m] "	"Frequency [Hz]"	"Sound Pessure Level [dB]  / [2.83V 1m] "	"Frequency [Hz]"	"Sound Pessure Level [dB]  / [2.83V 1m] "	"Frequency [Hz]"	"Sound Pessure Level [dB]  / [2.83V 1m] "	"Frequency [Hz]"	"Sound Pessure Level [dB]  / [2.83V 1m] "	"Frequency [Hz]"	"Sound Pessure Level [dB]  / [2.83V 1m] "	"Frequency [Hz]"	"Sound Pessure Level [dB]  / [2.83V 1m] "	"Frequency [Hz]"	"Sound Pessure Level [dB]  / [2.83V 1m] "	"Frequency [Hz]"	"Sound Pessure Level [dB]  / [2.83V 1m] "	"Frequency [Hz]"	"Sound Pessure Level [dB]  / [2.83V 1m] "	"Frequency [Hz]"	"Sound Pessure Level [dB]  / [2.83V 1m] "	"Frequency [Hz]"	"Sound Pessure Level [dB]  / [2.83V 1m] "	"Frequency [Hz]"	"Sound Pessure Level [dB]  / [2.83V 1m] "	"Frequency [Hz]"	"Sound Pessure Level [dB]  / [2.83V 1m] "
20.5078	42.0136	20.5078	41.8324	20.5078	41.9481	20.5078	41.4004	20.5078	41.636	20.5078	40.7147	20.5078	41.0755	20.5078	39.7969	20.5078	40.279	20.5078	38.7618	20.5078	39.3186	20.5078	37.961	20.5078	38.434	20.5078	38.0117	20.5078	38.1374	20.5078	39.1967	20.5078	38.8963	20.5078	41.0353	20.5078	40.5061	20.5078	42.9603	20.5078	42.3897	20.5078	44.7078	20.5078	44.1816	20.5078	46.203	20.5078	45.7495	20.5078	47.4382	20.5078	47.0641	20.5078	48.4234	20.5078	48.128	20.5078	49.1701	20.5078	48.9512	20.5078	49.6875	20.5078	49.5428	20.5078	49.9814	20.5078	49.9094	20.5078	50.0551
21.2402	42.6772	21.2402	42.6045	21.2402	42.5849	21.2402	42.3793	21.2402	42.3357	21.2402	42.0412	21.2402	41.9646	21.2402	41.6784	21.2402	41.5545	21.2402	41.451	21.2402	41.2645	21.2402	41.5743	21.2402	41.3222	21.2402	42.2013	21.2402	41.9056	21.2402	43.2886	21.2402	42.9859	21.2402	44.6372	21.2402	44.3556	21.2402	46.0444	21.2402	45.7958	21.2402	47.379	21.2402	47.1657	21.2402	48.5734	21.2402	48.3943	21.2402	49.5973	21.2402	49.4505	21.2402	50.4379	21.2402	50.3218	21.2402	51.0902	21.2402	51.0039	21.2402	51.5527	21.2402	51.4954	21.2402	51.8246	21.2402	51.796	21.2402	51.9057
21.9727	44.6612	21.9727	44.5403	21.9727	44.5864	21.9727	44.2279	21.9727	44.3153	21.9727	43.7364	21.9727	43.8525	21.9727	43.1045	21.9727	43.2202	21.9727	42.4332	21.9727	42.489	21.9727	41.9364	21.9727	41.8339	21.9727	41.9265	21.9727	41.5712	21.9727	42.6032	21.9727	42.0102	21.9727	43.8344	21.9727	43.1355	21.9727	45.303	21.9727	44.6224	21.9727	46.7591	21.9727	46.1571	21.9727	48.0749	21.9727	47.5686	21.9727	49.1985	21.9727	48.7878	21.9727	50.113	21.9727	49.7927	21.9727	50.8145	21.9727	50.5792	21.9727	51.3035	21.9727	51.1489	21.9727	51.5811	21.9727	51.5045	21.9727	51.6482
22.7051	44.6986	22.7051	44.5236	22.7051	44.6387	22.7051	44.1091	22.7051	44.344	22.7051	43.4507	22.7051	43.813	22.7051	42.5626	22.7051	43.0544	22.7051	41.532	22.7051	42.124	22.7051	40.6419	22.7051	41.2116	22.7051	40.4518	22.7051	40.7501	22.7051	41.3636	22.7051	41.2336	22.7051	43.0476	22.7051	42.624	22.7051	44.9207	22.7051	44.4031	22.7051	46.6613	22.7051	46.1601	22.7051	48.1638	22.7051	47.722	22.7051	49.4091	22.7051	49.0403	22.7051	50.4032	22.7051	50.1102	22.7051	51.1567	22.7051	50.9388	22.7051	51.6787	22.7051	51.5345	22.7051	51.9754	22.7051	51.9036	22.7051	52.0501
23.4375	45.4438	23.4375	45.3819	23.4375	45.3749	23.4375	45.2029	23.4375	45.1835	23.4375	44.9476	23.4375	44.9039	23.4375	44.6972	23.4375	44.6104	23.4375	44.5839	23.4375	44.4312	23.4375	44.7665	23.4375	44.5341	23.4375	45.3499	23.4375	45.0486	23.4375	46.3043	23.4375	45.9677	23.4375	47.4885	23.4375	47.1527	23.4375	48.7449	23.4375	48.4338	23.4375	49.958	23.4375	49.683	23.4375	51.0598	23.4375	50.825	23.4375	52.0145	23.4375	51.8205	23.4375	52.8041	23.4375	52.6503	23.4375	53.4194	23.4375	53.305	23.4375	53.8559	23.4375	53.78	23.4375	54.1111	23.4375	54.0733	23.4375	54.1837
24.1699	46.3172	24.1699	46.2318	24.1699	46.2382	24.1699	45.991	24.1699	45.998	24.1699	45.6227	24.1699	45.6164	24.1699	45.19	24.1699	45.1449	24.1699	44.8166	24.1699	44.6941	24.1699	44.6961	24.1699	44.4561	24.1699	45.0234	24.1699	44.6577	24.1699	45.849	24.1699	45.4024	24.1699	47.0299	24.1699	46.5692	24.1699	48.3526	24.1699	47.9254	24.1699	49.6529	24.1699	49.2804	24.1699	50.8375	24.1699	50.525	24.1699	51.8612	24.1699	51.6075	24.1699	52.7043	24.1699	52.5062	24.1699	53.3583	24.1699	53.2127	24.1699	53.8201	24.1699	53.7244	24.1699	54.0881	24.1699	54.0407	24.1699	54.1618
25.6348	47.8954	25.6348	47.8028	25.6348	47.8356	25.6348	47.5645	25.6348	47.629	25.6348	47.2044	25.6348	47.2968	25.6348	46.7781	25.6348	46.8891	25.6348	46.3953	25.6348	46.5052	25.6348	46.2308	25.6348	46.3079	25.6348	46.4732	25.6348	46.4852	25.6348	47.1956	25.6348	47.1332	25.6348	48.2882	25.6348	48.1701	25.6348	49.5522	25.6348	49.4072	25.6348	50.8192	25.6348	50.6703	25.6348	51.9875	25.6348	51.8488	25.6348	53.0052	25.6348	52.8843	25.6348	53.8481	25.6348	53.749	25.6348	54.5058	25.6348	54.4304	25.6348	54.9735	25.6348	54.9229	25.6348	55.2496	25.6348	55.2242	25.6348	55.3332
26.3672	48.6264	26.3672	48.5418	26.3672	48.5707	26.3672	48.3251	26.3672	48.3802	26.3672	48.003	26.3672	48.0774	26.3672	47.6334	26.3672	47.7127	26.3672	47.3231	26.3672	47.3824	26.3672	47.2309	26.3672	47.2368	26.3672	47.5152	26.3672	47.4415	26.3672	48.229	26.3672	48.0771	26.3672	49.273	26.3672	49.0708	26.3672	50.4742	26.3672	50.255	26.3672	51.6823	26.3672	51.4704	26.3672	52.802	26.3672	52.6114	26.3672	53.7817	26.3672	53.6194	26.3672	54.596	26.3672	54.4649	26.3672	55.2323	26.3672	55.1336	26.3672	55.6848	26.3672	55.619	26.3672	55.9506	26.3672	55.9177	26.3672	56.0283
27.0996	49.4341	27.0996	49.3595	27.0996	49.3916	27.0996	49.1777	27.0996	49.2387	27.0996	48.9193	27.0996	49.0009	27.0996	48.645	27.0996	48.7315	27.0996	48.4567	27.0996	48.5226	27.0996	48.488	27.0996	48.502	27.0996	48.8545	27.0996	48.7936	27.0996	49.579	27.0996	49.4443	27.0996	50.5723	27.0996	50.3869	27.0996	51.6942	27.0996	51.4875	27.0996	52.8213	27.0996	52.6167	27.0996	53.8708	27.0996	53.6831	27.0996	54.7943	27.0996	54.632	27.0996	55.5655	27.0996	55.4331	27.0996	56.1705	27.0996	56.0701	27.0996	56.6016	27.0996	56.5343	27.0996	56.8548	27.0996	56.8211	27.0996	56.9282
27.832	50.5019	27.832	50.432	27.832	50.4583	27.832	50.2583	27.832	50.3061	27.832	50.0081	27.832	50.0663	27.832	49.7355	27.832	49.7839	27.832	49.5301	27.832	49.5387	27.832	49.5127	27.832	49.4469	27.832	49.7963	27.832	49.6335	27.832	50.4195	27.832	50.1665	27.832	51.3173	27.832	51.0077	27.832	52.3641	27.832	52.0379	27.832	53.4379	27.832	53.1259	27.832	54.4511	27.832	54.1717	27.832	55.3499	27.832	55.1126	27.832	56.1039	27.832	55.9127	27.832	56.696	27.832	56.5525	27.832	57.117	27.832	57.0215	27.832	57.3619	27.832	57.3142	27.832	57.4279
29.2969	52.2355	29.2969	52.1804	29.2969	52.1869	29.2969	52.029	29.2969	52.0399	29.2969	51.8038	29.2969	51.8141	29.2969	51.5487	29.2969	51.5498	29.2969	51.3371	29.2969	51.3167	29.2969	51.2707	29.2969	51.215	29.2969	51.4538	29.2969	51.3538	29.2969	51.9423	29.2969	51.8007	29.2969	52.7049	29.2969	52.5363	29.2969	53.6421	29.2969	53.4651	29.2969	54.6392	29.2969	54.4693	29.2969	55.604	29.2969	55.4509	29.2969	56.4749	29.2969	56.344	29.2969	57.2146	29.2969	57.1086	29.2969	57.8017	29.2969	57.7217	29.2969	58.2237	29.2969	58.1703	29.2969	58.4738	29.2969	58.4471	29.2969	58.5487
30.0293	52.5608	30.0293	52.5067	30.0293	52.5074	30.0293	52.353	30.0293	52.3519	30.0293	52.1231	30.0293	52.1145	30.0293	51.8629	30.0293	51.8376	30.0293	51.6495	30.0293	51.5947	30.0293	51.5894	30.0293	51.4924	30.0293	51.7908	30.0293	51.6459	30.0293	52.3078	30.0293	52.1231	30.0293	53.1025	30.0293	52.8969	30.0293	54.0686	30.0293	53.8624	30.0293	55.0881	30.0293	54.8963	30.0293	56.0688	30.0293	55.8998	30.0293	56.9503	30.0293	56.8082	30.0293	57.697	30.0293	57.5832	30.0293	58.2883	30.0293	58.2031	30.0293	58.7128	30.0293	58.6561	30.0293	58.9639	30.0293	58.9357	30.0293	59.0386
31.4941	54.2535	31.4941	54.1952	31.4941	54.2217	31.4941	54.0538	31.4941	54.1053	31.4941	53.8507	31.4941	53.9234	31.4941	53.6273	31.4941	53.7137	31.4941	53.4497	31.4941	53.5374	31.4941	53.407	31.4941	53.4784	31.4941	53.5883	31.4941	53.6257	31.4941	54.0417	31.4941	54.0348	31.4941	54.7435	31.4941	54.6946	31.4941	55.6105	31.4941	55.5318	31.4941	56.5418	31.4941	56.4482	31.4941	57.4517	31.4941	57.356	31.4941	58.2798	31.4941	58.1912	31.4941	58.988	31.4941	58.9124	31.4941	59.5529	31.4941	59.4939	31.4941	59.961	31.4941	59.9207	31.4941	60.2043	31.4941	60.1839	31.4941	60.279
32.2266	54.8106	32.2266	54.7566	32.2266	54.7812	32.2266	54.6265	32.2266	54.6739	32.2266	54.4429	32.2266	54.509	32.2266	54.2481	32.2266	54.3248	32.2266	54.1081	32.2266	54.1827	32.2266	54.1081	32.2266	54.1638	32.2266	54.3293	32.2266	54.3498	32.2266	54.8103	32.2266	54.7875	32.2266	55.5229	32.2266	55.4606	32.2266	56.3865	32.2266	56.2968	32.2266	57.3059	32.2266	57.2033	32.2266	58.201	32.2266	58.0977	32.2266	59.0146	32.2266	58.9197	32.2266	59.7102	32.2266	59.6294	32.2266	60.2652	32.2266	60.2021	32.2266	60.6659	32.2266	60.6228	32.2266	60.9046	32.2266	60.8828	32.2266	60.9773
33.6914	56.2512	33.6914	56.2029	33.6914	56.2215	33.6914	56.0832	33.6914	56.1188	33.6914	55.9124	33.6914	55.9609	33.6914	55.7279	33.6914	55.7822	33.6914	55.5876	33.6914	55.6365	33.6914	55.5669	33.6914	55.5965	33.6914	55.7405	33.6914	55.7375	33.6914	56.1507	33.6914	56.1086	33.6914	56.7825	33.6914	56.7049	33.6914	57.5701	33.6914	57.4683	33.6914	58.4271	33.6914	58.3146	33.6914	59.2748	33.6914	59.1635	33.6914	60.0543	33.6914	59.9528	33.6914	60.7261	33.6914	60.6402	33.6914	61.2649	33.6914	61.1981	33.6914	61.6552	33.6914	61.6097	33.6914	61.8879	33.6914	61.8649	33.6914	61.9582
34.4238	56.6202	34.4238	56.5672	34.4238	56.5948	34.4238	56.4428	34.4238	56.4958	34.4238	56.2681	34.4238	56.3409	34.4238	56.0814	34.4238	56.1643	34.4238	55.9424	34.4238	56.0202	34.4238	55.9279	34.4238	55.9812	34.4238	56.1132	34.4238	56.1235	34.4238	56.5387	34.4238	56.4967	34.4238	57.1864	34.4238	57.0963	34.4238	57.9874	34.4238	57.8641	34.4238	58.8541	34.4238	58.7154	34.4238	59.7079	34.4238	59.5694	34.4238	60.4907	34.4238	60.3638	34.4238	61.1636	34.4238	61.0559	34.4238	61.7022	34.4238	61.6183	34.4238	62.0911	34.4238	62.034	34.4238	62.3217	34.4238	62.2928	34.4238	62.3893
35.8887	57.9936	35.8887	57.9566	35.8887	57.9675	35.8887	57.8633	35.8887	57.8832	35.8887	57.7337	35.8887	57.7582	35.8887	57.6029	35.8887	57.6251	35.8887	57.5232	35.8887	57.5333	35.8887	57.5582	35.8887	57.5453	35.8887	57.7677	35.8887	57.723	35.8887	58.1823	35.8887	58.1036	35.8887	58.7872	35.8887	58.6802	35.8887	59.5269	35.8887	59.4028	35.8887	60.3284	35.8887	60.1994	35.8887	61.1232	35.8887	60.9996	35.8887	61.8573	35.8887	61.7467	35.8887	62.4929	35.8887	62.4003	35.8887	63.0045	35.8887	62.933	35.8887	63.3759	35.8887	63.3274	35.8887	63.5974	35.8887	63.5729	35.8887	63.6635
37.3535	59.5722	37.3535	59.5403	37.3535	59.554	37.3535	59.4644	37.3535	59.4902	37.3535	59.3626	37.3535	59.3971	37.3535	59.2661	37.3535	59.3036	37.3535	59.2196	37.3535	59.2521	37.3535	59.276	37.3535	59.2941	37.3535	59.484	37.3535	59.4793	37.3535	59.869	37.3535	59.8374	37.3535	60.4204	37.3535	60.3637	37.3535	61.0941	37.3535	61.0189	37.3535	61.8288	37.3535	61.7441	37.3535	62.5639	37.3535	62.4783	37.3535	63.2489	37.3535	63.1694	37.3535	63.8465	37.3535	63.7782	37.3535	64.3308	37.3535	64.2771	37.3535	64.6844	37.3535	64.6475	37.3535	64.8966	37.3535	64.8779	37.3535	64.9617
38.8184	61.0489	38.8184	61.016	38.8184	61.038	38.8184	60.9451	38.8184	60.9876	38.8184	60.8522	38.8184	60.9117	38.8184	60.7648	38.8184	60.8353	38.8184	60.7218	38.8184	60.7946	38.8184	60.7693	38.8184	60.8335	38.8184	60.9503	38.8184	60.9948	38.8184	61.2897	38.8184	61.3067	38.8184	61.7822	38.8184	61.7696	38.8184	62.3925	38.8184	62.3544	38.8184	63.0676	38.8184	63.0118	38.8184	63.7514	38.8184	63.687	38.8184	64.3953	38.8184	64.3305	38.8184	64.9616	38.8184	64.903	38.8184	65.4231	38.8184	65.3755	38.8184	65.7617	38.8184	65.7283	38.8184	65.9654	38.8184	65.9483	38.8184	66.0282
39.5508	61.7343	39.5508	61.7028	39.5508	61.7242	39.5508	61.6352	39.5508	61.6761	39.5508	61.547	39.5508	61.6034	39.5508	61.4643	39.5508	61.5295	39.5508	61.4239	39.5508	61.4884	39.5508	61.4694	39.5508	61.5217	39.5508	61.6415	39.5508	61.6704	39.5508	61.9646	39.5508	61.9624	39.5508	62.435	39.5508	62.4005	39.5508	63.0206	39.5508	62.9591	39.5508	63.6714	39.5508	63.5922	39.5508	64.3337	39.5508	64.2472	39.5508	64.9596	39.5508	64.8751	39.5508	65.5116	39.5508	65.4363	39.5508	65.9621	39.5508	65.9016	39.5508	66.2924	39.5508	66.2503	39.5508	66.4905	39.5508	66.4689	39.5508	66.5499
41.0156	62.983	41.0156	62.9581	41.0156	62.9684	41.0156	62.8993	41.0156	62.9175	41.0156	62.8214	41.0156	62.8426	41.0156	62.7489	41.0156	62.7658	41.0156	62.716	41.0156	62.7192	41.0156	62.7629	41.0156	62.7424	41.0156	62.927	41.0156	62.8756	41.0156	63.2315	41.0156	63.147	41.0156	63.6745	41.0156	63.5613	41.0156	64.2278	41.0156	64.0958	41.0156	64.8461	41.0156	64.7072	41.0156	65.4786	41.0156	65.344	41.0156	66.0793	41.0156	65.9577	41.0156	66.611	41.0156	66.5086	41.0156	67.046	41.0156	66.9667	41.0156	67.3651	41.0156	67.3112	41.0156	67.5557	41.0156	67.5285	41.0156	67.6108
42.4805	64.2782	42.4805	64.2604	42.4805	64.2662	42.4805	64.2177	42.4805	64.2278	42.4805	64.1635	42.4805	64.1744	42.4805	64.1197	42.4805	64.1263	42.4805	64.1159	42.4805	64.112	42.4805	64.1861	42.4805	64.1652	42.4805	64.3616	42.4805	64.3187	42.4805	64.661	42.4805	64.5945	42.4805	65.0823	42.4805	64.9947	42.4805	65.6016	42.4805	65.4995	42.4805	66.18	42.4805	66.0716	42.4805	66.7727	42.4805	66.6663	42.4805	67.3378	42.4805	67.2403	42.4805	67.8402	42.4805	67.7569	42.4805	68.253	42.4805	68.1878	42.4805	68.557	42.4805	68.5123	42.4805	68.7395	42.4805	68.7169	42.4805	68.7935
43.9453	65.7563	43.9453	65.7405	43.9453	65.7465	43.9453	65.7035	43.9453	65.7141	43.9453	65.6568	43.9453	65.6693	43.9453	65.6193	43.9453	65.6298	43.9453	65.6169	43.9453	65.6203	43.9453	65.6791	43.9453	65.67	43.9453	65.8335	43.9453	65.8074	43.9453	66.0979	43.9453	66.0528	43.9453	66.4732	43.9453	66.4103	43.9453	66.9411	43.9453	66.8647	43.9453	67.4685	43.9453	67.3849	43.9453	68.0153	43.9453	67.9314	43.9453	68.542	43.9453	68.4638	43.9453	69.0144	43.9453	68.9467	43.9453	69.4053	43.9453	69.3518	43.9453	69.6949	43.9453	69.658	43.9453	69.8699	43.9453	69.8511	43.9453	69.9227
45.4102	67.0288	45.4102	67.0159	45.4102	67.0197	45.4102	66.9849	45.4102	66.9912	45.4102	66.9461	45.4102	66.9526	45.4102	66.9169	45.4102	66.92	45.4102	66.9202	45.4102	66.9157	45.4102	66.9826	45.4102	66.9657	45.4102	67.1288	45.4102	67.096	45.4102	67.3754	45.4102	67.3251	45.4102	67.7242	45.4102	67.6576	45.4102	68.16	45.4102	68.0812	45.4102	68.6535	45.4102	68.5685	45.4102	69.1683	45.4102	69.0833	45.4102	69.667	45.4102	69.588	45.4102	70.1165	45.4102	70.0482	45.4102	70.4899	45.4102	70.4359	45.4102	70.7674	45.4102	70.7301	45.4102	70.9351	45.4102	70.9161	45.4102	70.9855
47.6074	69.0161	47.6074	69.0059	47.6074	69.0097	47.6074	68.9824	47.6074	68.9889	47.6074	68.9546	47.6074	68.9618	47.6074	68.937	47.6074	68.9418	47.6074	68.9489	47.6074	68.9477	47.6074	69.0125	47.6074	69.001	47.6074	69.1485	47.6074	69.1234	47.6074	69.3712	47.6074	69.3307	47.6074	69.6832	47.6074	69.6278	47.6074	70.073	47.6074	70.0057	47.6074	70.5168	47.6074	70.4425	47.6074	70.9831	47.6074	70.9074	47.6074	71.4385	47.6074	71.3668	47.6074	71.8519	47.6074	71.7891	47.6074	72.1975	47.6074	72.1474	47.6074	72.4554	47.6074	72.4205	47.6074	72.6118	47.6074	72.5939	47.6074	72.6587
49.0723	70.3207	49.0723	70.312	49.0723	70.3157	49.0723	70.2927	49.0723	70.2992	49.0723	70.2706	49.0723	70.2782	49.0723	70.2588	49.0723	70.2649	49.0723	70.2743	49.0723	70.2758	49.0723	70.3367	49.0723	70.33	49.0723	70.4645	49.0723	70.4467	49.0723	70.6708	49.0723	70.6401	49.0723	70.9585	49.0723	70.915	49.0723	71.3186	49.0723	71.2645	49.0723	71.7303	49.0723	71.6694	49.0723	72.1654	49.0723	72.1024	49.0723	72.5927	49.0723	72.5325	49.0723	72.9829	49.0723	72.9297	49.0723	73.3107	49.0723	73.2679	49.0723	73.5564	49.0723	73.5265	49.0723	73.706	49.0723	73.6907	49.0723	73.7516
50.5371	71.587	50.5371	71.5798	50.5371	71.5836	50.5371	71.5648	50.5371	71.5716	50.5371	71.5491	50.5371	71.5572	50.5371	71.5444	50.5371	71.5512	50.5371	71.5656	50.5371	71.5682	50.5371	71.6301	50.5371	71.6251	50.5371	71.7542	50.5371	71.7386	50.5371	71.9494	50.5371	71.9215	50.5371	72.2188	50.5371	72.1785	50.5371	72.5547	50.5371	72.5039	50.5371	72.939	50.5371	72.8812	50.5371	73.3462	50.5371	73.2859	50.5371	73.7477	50.5371	73.6895	50.5371	74.1157	50.5371	74.064	50.5371	74.4259	50.5371	74.3841	50.5371	74.6589	50.5371	74.6296	50.5371	74.801	50.5371	74.786	50.5371	74.8442
52.7344	73.5321	52.7344	73.5281	52.7344	73.5289	52.7344	73.5189	52.7344	73.5199	52.7344	73.5106	52.7344	73.5104	52.7344	73.5127	52.7344	73.5094	52.7344	73.5374	52.7344	73.5289	52.7344	73.5991	52.7344	73.5828	52.7344	73.7111	52.7344	73.6851	52.7344	73.8836	52.7344	73.8468	52.7344	74.1201	52.7344	74.0726	52.7344	74.415	52.7344	74.3588	52.7344	74.7542	52.7344	74.6925	52.7344	75.1164	52.7344	75.0532	52.7344	75.4764	52.7344	75.4162	52.7344	75.8089	52.7344	75.7556	52.7344	76.0909	52.7344	76.048	52.7344	76.3037	52.7344	76.2737	52.7344	76.4336	52.7344	76.4182	52.7344	76.4726
54.1992	74.8258	54.1992	74.8231	54.1992	74.8231	54.1992	74.8168	54.1992	74.8162	54.1992	74.8121	54.1992	74.8098	54.1992	74.8173	54.1992	74.8119	54.1992	74.8434	54.1992	74.833	54.1992	74.9029	54.1992	74.8855	54.1992	75.0076	54.1992	74.9816	54.1992	75.1669	54.1992	75.1314	54.1992	75.3843	54.1992	75.3394	54.1992	75.6555	54.1992	75.603	54.1992	75.9685	54.1992	75.911	54.1992	76.3041	54.1992	76.2453	54.1992	76.6395	54.1992	76.5833	54.1992	76.9508	54.1992	76.9009	54.1992	77.2159	54.1992	77.1757	54.1992	77.4167	54.1992	77.3884	54.1992	77.5395	54.1992	77.525	54.1992	77.5764
56.3965	76.6704	56.3965	76.6687	56.3965	76.6686	56.3965	76.6652	56.3965	76.6646	56.3965	76.6641	56.3965	76.6623	56.3965	76.6724	56.3965	76.6683	56.3965	76.6991	56.3965	76.6914	56.3965	76.7545	56.3965	76.7419	56.3965	76.8489	56.3965	76.8301	56.3965	76.9903	56.3965	76.9646	56.3965	77.1823	56.3965	77.1496	56.3965	77.4223	56.3965	77.3835	56.3965	77.7004	56.3965	77.6574	56.3965	78.0007	56.3965	77.9562	56.3965	78.303	56.3965	78.2599	56.3965	78.5857	56.3965	78.5471	56.3965	78.8282	56.3965	78.7967	56.3965	79.0129	56.3965	78.9907	56.3965	79.1267	56.3965	79.1152	56.3965	79.1616
58.5938	78.3211	58.5938	78.3194	58.5938	78.3214	58.5938	78.3176	58.5938	78.3214	58.5938	78.3193	58.5938	78.3244	58.5938	78.3301	58.5938	78.3356	58.5938	78.3576	58.5938	78.3624	58.5938	78.4103	58.5938	78.4133	58.5938	78.497	58.5938	78.4967	58.5938	78.6244	58.5938	78.6197	58.5938	78.796	58.5938	78.7863	58.5938	79.0101	58.5938	78.9953	58.5938	79.2588	58.5938	79.2397	58.5938	79.5287	58.5938	79.5066	58.5938	79.8021	58.5938	79.7791	58.5938	80.0595	58.5938	80.0377	58.5938	80.2817	58.5938	80.2632	58.5938	80.4521	58.5938	80.4387	58.5938	80.5581	58.5938	80.5511	58.5938	80.5919
60.0586	79.3791	60.0586	79.3774	60.0586	79.3809	60.0586	79.3769	60.0586	79.3835	60.0586	79.3807	60.0586	79.3898	60.0586	79.3937	60.0586	79.4045	60.0586	79.4225	60.0586	79.4336	60.0586	79.4745	60.0586	79.4845	60.0586	79.5572	60.0586	79.5644	60.0586	79.6768	60.0586	79.6798	60.0586	79.8364	60.0586	79.8341	60.0586	80.0347	60.0586	80.0265	60.0586	80.2649	60.0586	80.2513	60.0586	80.515	60.0586	80.4973	60.0586	80.769	60.0586	80.7492	60.0586	81.0088	60.0586	80.9891	60.0586	81.2164	60.0586	81.1992	60.0586	81.376	60.0586	81.3633	60.0586	81.4753	60.0586	81.4686	60.0586	81.507
62.2559	80.8372	62.2559	80.8363	62.2559	80.8392	62.2559	80.8373	62.2559	80.8429	62.2559	80.8429	62.2559	80.8505	62.2559	80.857	62.2559	80.8657	62.2559	80.8849	62.2559	80.8936	62.2559	80.9328	62.2559	80.9401	62.2559	81.007	62.2559	81.0114	62.2559	81.1128	62.2559	81.113	62.2559	81.2531	62.2559	81.2481	62.2559	81.4274	62.2559	81.4167	62.2559	81.6302	62.2559	81.6144	62.2559	81.8517	62.2559	81.8321	62.2559	82.078	62.2559	82.0565	62.2559	82.2929	62.2559	82.2718	62.2559	82.4799	62.2559	82.4615	62.2559	82.6241	62.2559	82.6106	62.2559	82.714	62.2559	82.7069	62.2559	82.7423
64.4531	82.0365	64.4531	82.0365	64.4531	82.0392	64.4531	82.04	64.4531	82.045	64.4531	82.0489	64.4531	82.0557	64.4531	82.0664	64.4531	82.0744	64.4531	82.0969	64.4531	82.1049	64.4531	82.1452	64.4531	82.152	64.4531	82.2165	64.4531	82.2208	64.4531	82.3152	64.4531	82.3156	64.4531	82.4437	64.4531	82.4394	64.4531	82.6016	64.4531	82.5922	64.4531	82.7847	64.4531	82.7705	64.4531	82.9845	64.4531	82.9665	64.4531	83.1889	64.4531	83.169	64.4531	83.3835	64.4531	83.3639	64.4531	83.5534	64.4531	83.5363	64.4531	83.6848	64.4531	83.6721	64.4531	83.7668	64.4531	83.7601	64.4531	83.7926
66.6504	82.9917	66.6504	82.9931	66.6504	82.9949	66.6504	82.9995	66.6504	83.0029	66.6504	83.0124	66.6504	83.017	66.6504	83.0344	66.6504	83.0396	66.6504	83.0686	66.6504	83.0736	66.6504	83.1189	66.6504	83.1227	66.6504	83.1892	66.6504	83.1907	66.6504	83.2828	66.6504	83.2811	66.6504	83.4019	66.6504	83.3961	66.6504	83.5461	66.6504	83.536	66.6504	83.7118	66.6504	83.6976	66.6504	83.892	66.6504	83.8747	66.6504	84.0762	66.6504	84.0574	66.6504	84.2519	66.6504	84.2335	66.6504	84.4057	66.6504	84.3896	66.6504	84.5248	66.6504	84.5129	66.6504	84.5992	66.6504	84.5929	66.6504	84.6226
69.5801	83.8043	69.5801	83.8061	69.5801	83.8092	69.5801	83.815	69.5801	83.8211	69.5801	83.832	69.5801	83.8408	69.5801	83.8585	69.5801	83.8694	69.5801	83.8966	69.5801	83.909	69.5801	83.9487	69.5801	83.9616	69.5801	84.0173	69.5801	84.0298	69.5801	84.1048	69.5801	84.1157	69.5801	84.2125	69.5801	84.2208	69.5801	84.34	69.5801	84.3451	69.5801	84.4848	69.5801	84.4862	69.5801	84.6413	69.5801	84.6393	69.5801	84.8012	69.5801	84.7965	69.5801	84.9539	69.5801	84.9478	69.5801	85.0881	69.5801	85.0819	69.5801	85.1927	69.5801	85.1877	69.5801	85.2588	69.5801	85.256	69.5801	85.2804
71.7773	84.1225	71.7773	84.1238	71.7773	84.1293	71.7773	84.1335	71.7773	84.1444	71.7773	84.1522	71.7773	84.1681	71.7773	84.1808	71.7773	84.201	71.7773	84.2206	71.7773	84.2443	71.7773	84.273	71.7773	84.2991	71.7773	84.3399	71.7773	84.3671	71.7773	84.4228	71.7773	84.4496	71.7773	84.5225	71.7773	84.5475	71.7773	84.6388	71.7773	84.6607	71.7773	84.7695	71.7773	84.7874	71.7773	84.91	71.7773	84.9235	71.7773	85.0533	71.7773	85.0625	71.7773	85.1904	71.7773	85.196	71.7773	85.3112	71.7773	85.3142	71.7773	85.406	71.7773	85.4072	71.7773	85.4664	71.7773	85.4668	71.7773	85.4872
73.9746	84.2191	73.9746	84.2202	73.9746	84.2275	73.9746	84.2311	73.9746	84.2454	73.9746	84.2519	73.9746	84.2728	73.9746	84.2832	73.9746	84.3097	73.9746	84.3254	73.9746	84.3565	73.9746	84.3794	73.9746	84.4136	73.9746	84.446	73.9746	84.4816	73.9746	84.526	73.9746	84.5613	73.9746	84.6199	73.9746	84.6531	73.9746	84.7273	73.9746	84.7568	73.9746	84.8462	73.9746	84.8708	73.9746	84.9729	73.9746	84.9921	73.9746	85.1015	73.9746	85.1152	73.9746	85.2242	73.9746	85.2332	73.9746	85.3323	73.9746	85.3375	73.9746	85.4171	73.9746	85.4198	73.9746	85.4713	73.9746	85.4724	73.9746	85.4902
76.9043	84.1473	76.9043	84.151	76.9043	84.155	76.9043	84.1662	76.9043	84.174	76.9043	84.1926	76.9043	84.2038	76.9043	84.23	76.9043	84.2438	76.9043	84.278	76.9043	84.2936	76.9043	84.3364	76.9043	84.3527	76.9043	84.4049	76.9043	84.4207	76.9043	84.4834	76.9043	84.4976	76.9043	84.5717	76.9043	84.5831	76.9043	84.6692	76.9043	84.6768	76.9043	84.7742	76.9043	84.7777	76.9043	84.8839	76.9043	84.8834	76.9043	84.9936	76.9043	84.9899	76.9043	85.0973	76.9043	85.0916	76.9043	85.1881	76.9043	85.1819	76.9043	85.2586	76.9043	85.2535	76.9043	85.303	76.9043	85.3001	76.9043	85.3172
79.834	83.9487	79.834	83.9557	79.834	83.9551	79.834	83.9758	79.834	83.9745	79.834	84.0084	79.834	84.0063	79.834	84.0525	79.834	84.0492	79.834	84.1069	79.834	84.1021	79.834	84.1702	79.834	84.1636	79.834	84.2414	79.834	84.2325	79.834	84.3195	79.834	84.3079	79.834	84.4035	79.834	84.389	79.834	84.4925	79.834	84.4752	79.834	84.5852	79.834	84.5654	79.834	84.6793	79.834	84.658	79.834	84.7717	79.834	84.7501	79.834	84.8578	79.834	84.8375	79.834	84.9322	79.834	84.915	79.834	84.9894	79.834	84.9769	79.834	85.0245	79.834	85.0179	79.834	85.0343
82.7637	83.7703	82.7637	83.7787	82.7637	83.7762	82.7637	83.8012	82.7637	83.7962	82.7637	83.8366	82.7637	83.8292	82.7637	83.8833	82.7637	83.8738	82.7637	83.9395	82.7637	83.9279	82.7637	84.0031	82.7637	83.9896	82.7637	84.0722	82.7637	84.057	82.7637	84.1451	82.7637	84.1283	82.7637	84.2207	82.7637	84.2024	82.7637	84.2978	82.7637	84.2784	82.7637	84.3755	82.7637	84.3553	82.7637	84.4525	82.7637	84.4322	82.7637	84.5266	82.7637	84.5071	82.7637	84.595	82.7637	84.5774	82.7637	84.6537	82.7637	84.6391	82.7637	84.6988	82.7637	84.6883	82.7637	84.7264	82.7637	84.7209	82.7637	84.734
85.6934	83.5853	85.6934	83.593	85.6934	83.5924	85.6934	83.6152	85.6934	83.6139	85.6934	83.6504	85.6934	83.6486	85.6934	83.6967	85.6934	83.6945	85.6934	83.7518	85.6934	83.7493	85.6934	83.813	85.6934	83.8102	85.6934	83.8779	85.6934	83.8747	85.6934	83.9444	85.6934	83.9409	85.6934	84.0111	85.6934	84.007	85.6934	84.077	85.6934	84.0721	85.6934	84.1413	85.6934	84.1356	85.6934	84.2033	85.6934	84.1969	85.6934	84.262	85.6934	84.2552	85.6934	84.3156	85.6934	84.309	85.6934	84.3616	85.6934	84.3557	85.6934	84.397	85.6934	84.3926	85.6934	84.419	85.6934	84.4167	85.6934	84.4258
88.623	83.3993	88.623	83.4075	88.623	83.4075	88.623	83.4316	88.623	83.4316	88.623	83.4699	88.623	83.4701	88.623	83.5201	88.623	83.5206	88.623	83.5794	88.623	83.5802	88.623	83.6446	88.623	83.6459	88.623	83.7127	88.623	83.7144	88.623	83.7812	88.623	83.7832	88.623	83.8481	88.623	83.8503	88.623	83.9122	88.623	83.9142	88.623	83.9728	88.623	83.9744	88.623	84.0295	88.623	84.0304	88.623	84.0817	88.623	84.0819	88.623	84.1284	88.623	84.1281	88.623	84.168	88.623	84.1673	88.623	84.1984	88.623	84.1977	88.623	84.2175	88.623	84.2171	88.623	84.2239
91.5527	83.1406	91.5527	83.1508	91.5527	83.1489	91.5527	83.1787	91.5527	83.175	91.5527	83.2224	91.5527	83.2173	91.5527	83.2792	91.5527	83.273	91.5527	83.3454	91.5527	83.3387	91.5527	83.4175	91.5527	83.4107	91.5527	83.4916	91.5527	83.4852	91.5527	83.5647	91.5527	83.5588	91.5527	83.6343	91.5527	83.629	91.5527	83.6988	91.5527	83.694	91.5527	83.7573	91.5527	83.753	91.5527	83.8097	91.5527	83.8056	91.5527	83.8558	91.5527	83.852	91.5527	83.8954	91.5527	83.8919	91.5527	83.9279	91.5527	83.9249	91.5527	83.9521	91.5527	83.9499	91.5527	83.967	91.5527	83.9658	91.5527	83.9717
94.4824	82.951	94.4824	82.96	94.4824	82.9624	94.4824	82.9889	94.4824	82.9937	94.4824	83.0355	94.4824	83.0427	94.4824	83.0967	94.4824	83.1063	94.4824	83.1686	94.4824	83.1804	94.4824	83.2468	94.4824	83.2605	94.4824	83.327	94.4824	83.3424	94.4824	83.4054	94.4824	83.4219	94.4824	83.4789	94.4824	83.4959	94.4824	83.5454	94.4824	83.5623	94.4824	83.6039	94.4824	83.62	94.4824	83.6541	94.4824	83.6688	94.4824	83.6964	94.4824	83.7091	94.4824	83.7312	94.4824	83.7416	94.4824	83.7588	94.4824	83.7666	94.4824	83.7791	94.4824	83.7844	94.4824	83.7921	94.4824	83.7947	94.4824	83.7973
98.1445	82.9962	98.1445	83.0057	98.1445	83.0046	98.1445	83.0323	98.1445	83.0304	98.1445	83.0739	98.1445	83.0715	98.1445	83.1271	98.1445	83.1248	98.1445	83.1877	98.1445	83.1862	98.1445	83.2513	98.1445	83.2511	98.1445	83.3135	98.1445	83.3152	98.1445	83.3705	98.1445	83.3743	98.1445	83.4194	98.1445	83.4254	98.1445	83.4586	98.1445	83.4666	98.1445	83.4877	98.1445	83.4972	98.1445	83.5076	98.1445	83.5178	98.1445	83.5199	98.1445	83.5302	98.1445	83.5268	98.1445	83.5363	98.1445	83.5305	98.1445	83.5384	98.1445	83.5325	98.1445	83.5381	98.1445	83.5339	98.1445	83.5369	98.1445	83.5354
101.807	82.9292	101.807	82.9368	101.807	82.9408	101.807	82.9625	101.807	82.9706	101.807	83.0041	101.807	83.0165	101.807	83.0581	101.807	83.075	101.807	83.12	101.807	83.1417	101.807	83.1851	101.807	83.2116	101.807	83.2487	101.807	83.2798	101.807	83.3065	101.807	83.3418	101.807	83.3555	101.807	83.3942	101.807	83.3937	101.807	83.4346	101.807	83.4208	101.807	83.4624	101.807	83.4377	101.807	83.4784	101.807	83.4465	101.807	83.4842	101.807	83.4498	101.807	83.4828	101.807	83.4504	101.807	83.4768	101.807	83.4506	101.807	83.469	101.807	83.452	101.807	83.4615	101.807	83.4556
105.469	82.8708	105.469	82.8754	105.469	82.8863	105.469	82.8992	105.469	82.9207	105.469	82.9399	105.469	82.9717	105.469	82.994	105.469	83.0353	105.469	83.0569	105.469	83.1068	105.469	83.1235	105.469	83.1808	105.469	83.1887	105.469	83.2519	105.469	83.2479	105.469	83.3154	105.469	83.2978	105.469	83.3675	105.469	83.336	105.469	83.4058	105.469	83.362	105.469	83.4297	105.469	83.3768	105.469	83.4398	105.469	83.3824	105.469	83.4387	105.469	83.3819	105.469	83.4295	105.469	83.3788	105.469	83.4159	105.469	83.3759	105.469	83.4014	105.469	83.3759	105.469	83.3888	105.469	83.3801
109.131	82.9401	109.131	82.9511	109.131	82.9488	109.131	82.9809	109.131	82.9765	109.131	83.0269	109.131	83.0208	109.131	83.0852	109.131	83.078	109.131	83.1509	109.131	83.1433	109.131	83.2186	109.131	83.2113	109.131	83.283	109.131	83.2764	109.131	83.3392	109.131	83.3338	109.131	83.3836	109.131	83.3796	109.131	83.4139	109.131	83.4112	109.131	83.4295	109.131	83.428	109.131	83.4316	109.131	83.431	109.131	83.423	109.131	83.4229	109.131	83.4074	109.131	83.4076	109.131	83.3892	109.131	83.3895	109.131	83.3727	109.131	83.373	109.131	83.3614	109.131	83.3615	109.131	83.3573
112.793	83.0217	112.793	83.0362	112.793	83.0268	112.793	83.0695	112.793	83.0512	112.793	83.1186	112.793	83.0923	112.793	83.1795	112.793	83.1465	112.793	83.247	112.793	83.2089	112.793	83.3155	112.793	83.2739	112.793	83.3794	112.793	83.336	112.793	83.4336	112.793	83.3899	112.793	83.4741	112.793	83.4315	112.793	83.4986	112.793	83.4584	112.793	83.5066	112.793	83.4696	112.793	83.4995	112.793	83.4665	112.793	83.4804	112.793	83.452	112.793	83.4538	112.793	83.4305	112.793	83.425	112.793	83.4072	112.793	83.3991	112.793	83.387	112.793	83.3804	112.793	83.3743	112.793	83.3718
116.455	83.0179	116.455	83.0246	116.455	83.0315	116.455	83.0508	116.455	83.0646	116.455	83.094	116.455	83.1144	116.455	83.1502	116.455	83.1769	116.455	83.2141	116.455	83.2468	116.455	83.2802	116.455	83.3183	116.455	83.3426	116.455	83.3854	116.455	83.396	116.455	83.4427	116.455	83.4362	116.455	83.4857	116.455	83.4608	116.455	83.5118	116.455	83.4691	116.455	83.5199	116.455	83.4625	116.455	83.5113	116.455	83.4443	116.455	83.4893	116.455	83.4194	116.455	83.4585	116.455	83.3934	116.455	83.4247	116.455	83.3717	116.455	83.3936	116.455	83.3591	116.455	83.3704	116.455	83.3584
120.85	83.146	120.85	83.1512	120.85	83.1599	120.85	83.1745	120.85	83.192	120.85	83.2135	120.85	83.2396	120.85	83.2644	120.85	83.2989	120.85	83.3221	120.85	83.3647	120.85	83.381	120.85	83.4313	120.85	83.4355	120.85	83.4927	120.85	83.4804	120.85	83.5435	120.85	83.5116	120.85	83.5791	120.85	83.5266	120.85	83.5967	120.85	83.5249	120.85	83.5955	120.85	83.5082	120.85	83.5767	120.85	83.4803	120.85	83.5438	120.85	83.4464	120.85	83.502	120.85	83.413	120.85	83.4577	120.85	83.3861	120.85	83.4176	120.85	83.3712	120.85	83.3874	120.85	83.3713
125.244	83.3073	125.244	83.309	125.244	83.3229	125.244	83.327	125.244	83.3548	125.244	83.3591	125.244	83.4007	125.244	83.4016	125.244	83.4568	125.244	83.4496	125.244	83.518	125.244	83.4978	125.244	83.5789	125.244	83.5408	125.244	83.6334	125.244	83.5736	125.244	83.6762	125.244	83.5924	125.244	83.7028	125.244	83.5951	125.244	83.7103	125.244	83.5813	125.244	83.6977	125.244	83.5532	125.244	83.6666	125.244	83.5151	125.244	83.6206	125.244	83.4727	125.244	83.5654	125.244	83.4332	125.244	83.508	125.244	83.4033	125.244	83.4558	125.244	83.3885	125.244	83.4157	125.244	83.3925
129.639	83.3172	129.639	83.3165	129.639	83.3363	129.639	83.3333	129.639	83.3727	129.639	83.365	129.639	83.424	129.639	83.4077	129.639	83.4859	129.639	83.4565	129.639	83.553	129.639	83.5055	129.639	83.6191	129.639	83.5491	129.639	83.6779	129.639	83.582	129.639	83.7234	129.639	83.6003	129.639	83.7508	129.639	83.6013	129.639	83.7568	129.639	83.5851	129.639	83.7404	129.639	83.5537	129.639	83.7032	129.639	83.5117	129.639	83.6492	129.639	83.4654	129.639	83.5849	129.639	83.4225	129.639	83.5181	129.639	83.3905	129.639	83.4572	129.639	83.3756	129.639	83.4099	129.639	83.3819
134.033	83.3046	134.033	83.3286	134.033	83.299	134.033	83.3695	134.033	83.3115	134.033	83.4241	134.033	83.34	134.033	83.4882	134.033	83.3809	134.033	83.5559	134.033	83.4293	134.033	83.621	134.033	83.4793	134.033	83.6771	134.033	83.5248	134.033	83.7185	134.033	83.5601	134.033	83.7405	134.033	83.5804	134.033	83.7401	134.033	83.5828	134.033	83.7167	134.033	83.5665	134.033	83.6725	134.033	83.5333	134.033	83.6118	134.033	83.4878	134.033	83.5417	134.033	83.4367	134.033	83.4705	134.033	83.388	134.033	83.407	134.033	83.3501	134.033	83.3592	134.033	83.3302	134.033	83.3328
138.428	83.4271	138.428	83.4382	138.428	83.4348	138.428	83.4673	138.428	83.4606	138.428	83.512	138.428	83.5021	138.428	83.5684	138.428	83.5555	138.428	83.6316	138.428	83.616	138.428	83.6956	138.428	83.6777	138.428	83.7542	138.428	83.7345	138.428	83.8017	138.428	83.7807	138.428	83.8331	138.428	83.8115	138.428	83.8452	138.428	83.8235	138.428	83.8369	138.428	83.8159	138.428	83.8095	138.428	83.7899	138.428	83.7672	138.428	83.7495	138.428	83.7159	138.428	83.7009	138.428	83.6635	138.428	83.6517	138.428	83.618	138.428	83.6098	138.428	83.5865	138.428	83.5823	138.428	83.574
143.555	83.5713	143.555	83.5715	143.555	83.5855	143.555	83.5856	143.555	83.6136	143.555	83.6115	143.555	83.6536	143.555	83.6462	143.555	83.7022	143.555	83.6855	143.555	83.7552	143.555	83.7246	143.555	83.8071	143.555	83.7583	143.555	83.8524	143.555	83.7818	143.555	83.8856	143.555	83.7909	143.555	83.9018	143.555	83.7831	143.555	83.8981	143.555	83.7578	143.555	83.8732	143.555	83.717	143.555	83.8285	143.555	83.6652	143.555	83.7681	143.555	83.6087	143.555	83.6984	143.555	83.5557	143.555	83.6278	143.555	83.5145	143.555	83.5649	143.555	83.4919	143.555	83.5179	143.555	83.4927
148.682	83.6996	148.682	83.7024	148.682	83.7091	148.682	83.7167	148.682	83.7303	148.682	83.7408	148.682	83.7611	148.682	83.7713	148.682	83.7986	148.682	83.8043	148.682	83.8386	148.682	83.8348	148.682	83.8759	148.682	83.8576	148.682	83.9052	148.682	83.8678	148.682	83.9213	148.682	83.8616	148.682	83.9199	148.682	83.8364	148.682	83.8982	148.682	83.7922	148.682	83.8556	148.682	83.7314	148.682	83.7939	148.682	83.6591	148.682	83.718	148.682	83.5828	148.682	83.635	148.682	83.5114	148.682	83.5539	148.682	83.4544	148.682	83.4845	148.682	83.4198	148.682	83.4354	148.682	83.413
153.809	83.7772	153.809	83.7792	153.809	83.787	153.809	83.792	153.809	83.808	153.809	83.8137	153.809	83.8385	153.809	83.8412	153.809	83.8755	153.809	83.8705	153.809	83.9151	153.809	83.8969	153.809	83.9519	153.809	83.9151	153.809	83.9806	153.809	83.9206	153.809	83.9956	153.809	83.9093	153.809	83.9924	153.809	83.879	153.809	83.9679	153.809	83.8296	153.809	83.9212	153.809	83.7637	153.809	83.8543	153.809	83.6867	153.809	83.772	153.809	83.6063	153.809	83.6819	153.809	83.5321	153.809	83.5935	153.809	83.4737	153.809	83.5171	153.809	83.4396	153.809	83.4621	153.809	83.4352
159.668	83.9545	159.668	83.9608	159.668	83.9583	159.668	83.9766	159.668	83.972	159.668	84	159.668	83.9941	159.668	84.028	159.668	84.0218	159.668	84.0569	159.668	84.0516	159.668	84.082	159.668	84.0786	159.668	84.0982	159.668	84.0978	159.668	84.1007	159.668	84.1041	159.668	84.0856	159.668	84.0932	159.668	84.0505	159.668	84.0622	159.668	83.9953	159.668	84.0106	159.668	83.9225	159.668	83.9405	159.668	83.8376	159.668	83.8568	159.668	83.7486	159.668	83.7671	159.668	83.665	159.668	83.6811	159.668	83.5971	159.668	83.609	159.668	83.5537	159.668	83.56	159.668	83.5407
164.795	84.1083	164.795	84.1153	164.795	84.1092	164.795	84.1294	164.795	84.1177	164.795	84.1489	164.795	84.1326	164.795	84.1712	164.795	84.1514	164.795	84.1925	164.795	84.1708	164.795	84.2086	164.795	84.1865	164.795	84.2146	164.795	84.1937	164.795	84.2061	164.795	84.1875	164.795	84.1791	164.795	84.1639	164.795	84.1317	164.795	84.1204	164.795	84.0638	164.795	84.0567	164.795	83.9784	164.795	83.9751	164.795	83.8811	164.795	83.881	164.795	83.7805	164.795	83.7824	164.795	83.6866	164.795	83.6895	164.795	83.6101	164.795	83.6128	164.795	83.5603	164.795	83.5619	164.795	83.5435
170.654	84.1525	170.654	84.1513	170.654	84.1611	170.654	84.1569	170.654	84.1765	170.654	84.168	170.654	84.1976	170.654	84.1825	170.654	84.2219	170.654	84.1971	170.654	84.2463	170.654	84.2081	170.654	84.2664	170.654	84.211	170.654	84.2775	170.654	84.2017	170.654	84.2749	170.654	84.1763	170.654	84.2545	170.654	84.133	170.654	84.2138	170.654	84.0715	170.654	84.1523	170.654	83.9946	170.654	84.0724	170.654	83.9075	170.654	83.9791	170.654	83.8182	170.654	83.8804	170.654	83.7361	170.654	83.7859	170.654	83.6711	170.654	83.7059	170.654	83.6319	170.654	83.6498	170.654	83.6243
176.514	84.1174	176.514	84.1188	176.514	84.1222	176.514	84.1257	176.514	84.1334	176.514	84.1366	176.514	84.1502	176.514	84.1492	176.514	84.1711	176.514	84.1608	176.514	84.1933	176.514	84.1676	176.514	84.2129	176.514	84.1658	176.514	84.2252	176.514	84.1516	176.514	84.2255	176.514	84.1217	176.514	84.2094	176.514	84.0746	176.514	84.1737	176.514	84.0106	176.514	84.1176	176.514	83.9328	176.514	84.0426	176.514	83.8467	176.514	83.9533	176.514	83.7602	176.514	83.857	176.514	83.6829	176.514	83.763	176.514	83.624	176.514	83.6813	176.514	83.5915	176.514	83.6215	176.514	83.5904
183.105	84.0877	183.105	84.104	183.105	84.0745	183.105	84.1224	183.105	84.0646	183.105	84.1416	183.105	84.058	183.105	84.1595	183.105	84.0537	183.105	84.1733	183.105	84.0501	183.105	84.1797	183.105	84.0445	183.105	84.1746	183.105	84.0333	183.105	84.1542	183.105	84.0128	183.105	84.1154	183.105	83.9796	183.105	84.0566	183.105	83.9312	183.105	83.9782	183.105	83.8672	183.105	83.8836	183.105	83.7894	183.105	83.7786	183.105	83.7025	183.105	83.6716	183.105	83.6135	183.105	83.5725	183.105	83.5312	183.105	83.4913	183.105	83.4652	183.105	83.4364	183.105	83.4238	183.105	83.4134
189.697	84.1548	189.697	84.1609	189.697	84.1501	189.697	84.1687	189.697	84.1463	189.697	84.1779	189.697	84.1424	189.697	84.1874	189.697	84.137	189.697	84.1951	189.697	84.1279	189.697	84.1979	189.697	84.1125	189.697	84.1921	189.697	84.0878	189.697	84.1733	189.697	84.0507	189.697	84.1377	189.697	83.999	189.697	84.0829	189.697	83.9316	189.697	84.0083	189.697	83.8496	189.697	83.9159	189.697	83.7567	189.697	83.8107	189.697	83.6589	189.697	83.7002	189.697	83.5645	189.697	83.5939	189.697	83.4828	189.697	83.5019	189.697	83.423	189.697	83.4336	189.697	83.3926	189.697	83.396
196.289	84.1801	196.289	84.172	196.289	84.187	196.289	84.1631	196.289	84.1923	196.289	84.1539	196.289	84.1954	196.289	84.1441	196.289	84.1954	196.289	84.1328	196.289	84.1908	196.289	84.1183	196.289	84.1794	196.289	84.0977	196.289	84.1584	196.289	84.0678	196.289	84.1249	196.289	84.0256	196.289	84.0763	196.289	83.969	196.289	84.0113	196.289	83.8978	196.289	83.9305	196.289	83.814	196.289	83.8369	196.289	83.7222	196.289	83.7362	196.289	83.6293	196.289	83.6361	196.289	83.5436	196.289	83.5456	196.289	83.4739	196.289	83.4735	196.289	83.4281	196.289	83.4273	196.289	83.4118
202.881	84.2327	202.881	84.2165	202.881	84.2437	202.881	84.1956	202.881	84.2492	202.881	84.1708	202.881	84.249	202.881	84.1425	202.881	84.2426	202.881	84.1108	202.881	84.2291	202.881	84.075	202.881	84.2068	202.881	84.0335	202.881	84.1736	202.881	83.9843	202.881	84.1269	202.881	83.9254	202.881	84.0648	202.881	83.8555	202.881	83.9865	202.881	83.7749	202.881	83.8931	202.881	83.686	202.881	83.788	202.881	83.5931	202.881	83.6772	202.881	83.5028	202.881	83.5682	202.881	83.4225	202.881	83.4699	202.881	83.3601	202.881	83.3906	202.881	83.3223	202.881	83.3372	202.881	83.314
210.205	84.1829	210.205	84.1637	210.205	84.195	210.205	84.1371	210.205	84.2005	210.205	84.1035	210.205	84.2002	210.205	84.0632	210.205	84.1945	210.205	84.0165	210.205	84.1829	210.205	83.9632	210.205	84.1639	210.205	83.9024	210.205	84.135	210.205	83.8332	210.205	84.0928	210.205	83.7544	210.205	84.0342	210.205	83.6663	210.205	83.9571	210.205	83.5702	210.205	83.8613	210.205	83.4698	210.205	83.7493	210.205	83.3708	210.205	83.6264	210.205	83.2802	210.205	83.5005	210.205	83.2062	210.205	83.3809	210.205	83.1563	210.205	83.2774	210.205	83.1366	210.205	83.1986	210.205	83.1506
217.529	84.1612	217.529	84.1562	217.529	84.1569	217.529	84.141	217.529	84.1447	217.529	84.1158	217.529	84.1263	217.529	84.0811	217.529	84.1035	217.529	84.0376	217.529	84.0774	217.529	83.9855	217.529	84.0478	217.529	83.9246	217.529	84.0131	217.529	83.8548	217.529	83.9707	217.529	83.7756	217.529	83.9176	217.529	83.6878	217.529	83.8517	217.529	83.5934	217.529	83.772	217.529	83.496	217.529	83.68	217.529	83.4013	217.529	83.5794	217.529	83.3158	217.529	83.4765	217.529	83.2467	217.529	83.3787	217.529	83.2001	217.529	83.294	217.529	83.1807	217.529	83.2295	217.529	83.1906
225.586	84.1522	225.586	84.1653	225.586	84.1213	225.586	84.1601	225.586	84.0745	225.586	84.1371	225.586	84.0145	225.586	84.0977	225.586	83.945	225.586	84.0433	225.586	83.8695	225.586	83.9751	225.586	83.7905	225.586	83.8939	225.586	83.7098	225.586	83.8002	225.586	83.6274	225.586	83.6949	225.586	83.5428	225.586	83.5796	225.586	83.4553	225.586	83.4576	225.586	83.3649	225.586	83.3337	225.586	83.2728	225.586	83.2146	225.586	83.1818	225.586	83.1072	225.586	83.0961	225.586	83.0183	225.586	83.0206	225.586	82.9532	225.586	82.9606	225.586	82.915	225.586	82.9206	225.586	82.9045
232.91	84.3028	232.91	84.3104	232.91	84.2742	232.91	84.2978	232.91	84.225	232.91	84.2671	232.91	84.1573	232.91	84.2204	232.91	84.0743	232.91	84.1595	232.91	83.9799	232.91	84.0851	232.91	83.8778	232.91	83.997	232.91	83.771	232.91	83.8941	232.91	83.6612	232.91	83.7754	232.91	83.5491	232.91	83.6414	232.91	83.435	232.91	83.4946	232.91	83.3192	232.91	83.3405	232.91	83.2033	232.91	83.1871	232.91	83.0902	232.91	83.0445	232.91	82.9842	232.91	82.9229	232.91	82.8913	232.91	82.8308	232.91	82.8178	232.91	82.774	232.91	82.7703	232.91	82.7543
241.699	84.2438	241.699	84.2047	241.699	84.2558	241.699	84.1411	241.699	84.2401	241.699	84.0574	241.699	84.1981	241.699	83.9594	241.699	84.1322	241.699	83.8532	241.699	84.0459	241.699	83.7446	241.699	83.943	241.699	83.6382	241.699	83.827	241.699	83.5367	241.699	83.7013	241.699	83.4408	241.699	83.5693	241.699	83.3499	241.699	83.4347	241.699	83.263	241.699	83.3017	241.699	83.1793	241.699	83.1757	241.699	83.0988	241.699	83.0623	241.699	83.0231	241.699	82.967	241.699	82.9546	241.699	82.8943	241.699	82.8968	241.699	82.8469	241.699	82.8534	241.699	82.8254	241.699	82.8285
249.756	84.3947	249.756	84.3774	249.756	84.3802	249.756	84.3286	249.756	84.335	249.756	84.2506	249.756	84.2619	249.756	84.1468	249.756	84.1649	249.756	84.0216	249.756	84.0489	249.756	83.8799	249.756	83.9188	249.756	83.7269	249.756	83.7797	249.756	83.5676	249.756	83.636	249.756	83.4076	249.756	83.4921	249.756	83.2522	249.756	83.352	249.756	83.1072	249.756	83.2193	249.756	82.9785	249.756	83.0978	249.756	82.8711	249.756	82.9904	249.756	82.7884	249.756	82.8991	249.756	82.7315	249.756	82.8247	249.756	82.6996	249.756	82.767	249.756	82.6898	249.756	82.7251	249.756	82.6991
258.545	84.2267	258.545	84.2121	258.545	84.2126	258.545	84.1705	258.545	84.1695	258.545	84.105	258.545	84.0986	258.545	84.0192	258.545	84.0022	258.545	83.9172	258.545	83.8834	258.545	83.8023	258.545	83.7457	258.545	83.6773	258.545	83.5931	258.545	83.5443	258.545	83.4301	258.545	83.4054	258.545	83.2623	258.545	83.2629	258.545	83.0963	258.545	83.1208	258.545	82.9396	258.545	82.9839	258.545	82.8	258.545	82.8579	258.545	82.6844	258.545	82.7482	258.545	82.5969	258.545	82.6582	258.545	82.5385	258.545	82.5893	258.545	82.5071	258.545	82.5406	258.545	82.4989	258.545	82.5106
268.066	83.9989	268.066	83.9554	268.066	84.0038	268.066	83.8746	268.066	83.9711	268.066	83.7599	268.066	83.9032	268.066	83.617	268.066	83.8032	268.066	83.4533	268.066	83.6743	268.066	83.2769	268.066	83.5191	268.066	83.0956	268.066	83.3397	268.066	82.9161	268.066	83.1386	268.066	82.7431	268.066	82.9193	268.066	82.5792	268.066	82.688	268.066	82.4257	268.066	82.4538	268.066	82.2826	268.066	82.2294	268.066	82.1499	268.066	82.029	268.066	82.028	268.066	81.8662	268.066	81.9179	268.066	81.7503	268.066	81.8218	268.066	81.6849	268.066	81.7437	268.066	81.667	268.066	81.6895
277.588	83.9758	277.588	83.9567	277.588	83.953	277.588	83.8945	277.588	83.8921	277.588	83.7903	277.588	83.7984	277.588	83.6471	277.588	83.6785	277.588	83.4693	277.588	83.5389	277.588	83.2628	277.588	83.3852	277.588	83.0344	277.588	83.2212	277.588	82.7922	277.588	83.0488	277.588	82.5455	277.588	82.8693	277.588	82.3055	277.588	82.6841	277.588	82.0845	277.588	82.4963	277.588	81.8944	277.588	82.3113	277.588	81.745	277.588	82.1366	277.588	81.6411	277.588	81.98	277.588	81.5816	277.588	81.8475	277.588	81.5606	277.588	81.7417	277.588	81.5705	277.588	81.6616	277.588	81.6049
287.109	83.9125	287.109	83.9182	287.109	83.8688	287.109	83.8846	287.109	83.7904	287.109	83.812	287.109	83.6824	287.109	83.7016	287.109	83.5516	287.109	83.5556	287.109	83.4052	287.109	83.3764	287.109	83.2497	287.109	83.1673	287.109	83.0898	287.109	82.9327	287.109	82.9273	287.109	82.6787	287.109	82.7616	287.109	82.4143	287.109	82.5906	287.109	82.1508	287.109	82.4125	287.109	81.9024	287.109	82.2276	287.109	81.6838	287.109	82.0396	287.109	81.5079	287.109	81.8553	287.109	81.3839	287.109	81.6838	287.109	81.3153	287.109	81.5346	287.109	81.3008	287.109	81.4164	287.109	81.3364
297.363	83.6849	297.363	83.6849	297.363	83.6496	297.363	83.6544	297.363	83.5763	297.363	83.5993	297.363	83.4648	297.363	83.5252	297.363	83.3174	297.363	83.4359	297.363	83.1389	297.363	83.3329	297.363	82.9365	297.363	83.2153	297.363	82.7189	297.363	83.0802	297.363	82.4962	297.363	82.925	297.363	82.279	297.363	82.7489	297.363	82.0778	297.363	82.5551	297.363	81.9014	297.363	82.351	297.363	81.7558	297.363	82.148	297.363	81.6437	297.363	81.9595	297.363	81.5646	297.363	81.7975	297.363	81.5153	297.363	81.6698	297.363	81.4924	297.363	81.5787	297.363	81.4942	297.363	81.5217
307.617	83.6081	307.617	83.5524	307.617	83.6204	307.617	83.4582	307.617	83.5888	307.617	83.3344	307.617	83.516	307.617	83.1925	307.617	83.4074	307.617	83.0454	307.617	83.2696	307.617	82.9041	307.617	83.109	307.617	82.7763	307.617	82.9316	307.617	82.6645	307.617	82.7429	307.617	82.5667	307.617	82.5485	307.617	82.4777	307.617	82.3554	307.617	82.392	307.617	82.1724	307.617	82.3055	307.617	82.0101	307.617	82.2164	307.617	81.8791	307.617	82.1256	307.617	81.7874	307.617	82.0356	307.617	81.7383	307.617	81.9496	307.617	81.7295	307.617	81.8709	307.617	81.7541	307.617	81.8038
318.604	83.5485	318.604	83.4874	318.604	83.5494	318.604	83.3692	318.604	83.4924	318.604	83.2021	318.604	83.3844	318.604	82.9991	318.604	83.2357	318.604	82.7772	318.604	83.0592	318.604	82.5546	318.604	82.8682	318.604	82.3484	318.604	82.6751	318.604	82.1712	318.604	82.4896	318.604	82.0291	318.604	82.3181	318.604	81.9215	318.604	82.1642	318.604	81.8431	318.604	82.0291	318.604	81.786	318.604	81.9136	318.604	81.7429	318.604	81.8179	318.604	81.7085	318.604	81.7426	318.604	81.6801	318.604	81.6878	318.604	81.6569	318.604	81.6526	318.604	81.6402	318.604	81.635	318.604	81.6319
329.59	83.642	329.59	83.5557	329.59	83.6593	329.59	83.4024	329.59	83.6103	329.59	83.1894	329.59	83.5011	329.59	82.9294	329.59	83.341	329.59	82.6411	329.59	83.1415	329.59	82.3478	329.59	82.9152	329.59	82.0753	329.59	82.6756	329.59	81.8472	329.59	82.436	329.59	81.68	329.59	82.2091	329.59	81.5795	329.59	82.0065	329.59	81.5397	329.59	81.838	329.59	81.5457	329.59	81.7106	329.59	81.5786	329.59	81.6273	329.59	81.6202	329.59	81.5865	329.59	81.6556	329.59	81.581	329.59	81.6756	329.59	81.5999	329.59	81.6763	329.59	81.6302	329.59	81.6591
341.309	83.5225	341.309	83.4871	341.309	83.4707	341.309	83.3646	341.309	83.3366	341.309	83.1596	341.309	83.1301	341.309	82.8825	341.309	82.8668	341.309	82.5502	341.309	82.5682	341.309	82.1872	341.309	82.2612	341.309	81.8253	341.309	81.9765	341.309	81.5018	341.309	81.7434	341.309	81.2532	341.309	81.5845	341.309	81.1063	341.309	81.5096	341.309	81.0698	341.309	81.5134	341.309	81.1317	341.309	81.5779	341.309	81.2647	341.309	81.6782	341.309	81.4346	341.309	81.7883	341.309	81.6098	341.309	81.8857	341.309	81.7652	341.309	81.9531	341.309	81.8839	341.309	81.9788	341.309	81.9563
353.76	84.0647	353.76	83.9896	353.76	84.0511	353.76	83.8243	353.76	83.9509	353.76	83.5677	353.76	83.766	353.76	83.2211	353.76	83.4989	353.76	82.7901	353.76	83.1539	353.76	82.288	353.76	82.7395	353.76	81.7408	353.76	82.2709	353.76	81.1925	353.76	81.7743	353.76	80.7056	353.76	81.2903	353.76	80.3525	353.76	80.873	353.76	80.1899	353.76	80.58	353.76	80.2297	353.76	80.4527	353.76	80.4295	353.76	80.4945	353.76	80.7134	353.76	80.6667	353.76	81.0027	353.76	80.9042	353.76	81.2362	353.76	81.1395	353.76	81.3753	353.76	81.3176	353.76	81.4022
366.211	83.9048	366.211	83.9204	366.211	83.8276	366.211	83.872	366.211	83.6902	366.211	83.7561	366.211	83.4936	366.211	83.5684	366.211	83.2388	366.211	83.304	366.211	82.9278	366.211	82.9598	366.211	82.5652	366.211	82.5359	366.211	82.16	366.211	82.0406	366.211	81.7291	366.211	81.4949	366.211	81.2989	366.211	80.9395	366.211	80.9063	366.211	80.4359	366.211	80.5934	366.211	80.0574	366.211	80.3948	366.211	79.8616	366.211	80.322	366.211	79.8583	366.211	80.3541	366.211	79.9999	366.211	80.4436	366.211	80.2067	366.211	80.533	366.211	80.4012	366.211	80.5724	366.211	80.5306
378.662	84	378.662	83.9327	378.662	83.9965	378.662	83.7956	378.662	83.9221	378.662	83.5908	378.662	83.7769	378.662	83.322	378.662	83.5615	378.662	82.9946	378.662	83.2765	378.662	82.6167	378.662	82.9233	378.662	82.2009	378.662	82.5067	378.662	81.7661	378.662	82.0375	378.662	81.3396	378.662	81.5378	378.662	80.9573	378.662	81.045	378.662	80.6587	378.662	80.6122	378.662	80.4755	378.662	80.2983	378.662	80.4173	378.662	80.1457	378.662	80.4633	378.662	80.1558	378.662	80.5676	378.662	80.2849	378.662	80.675	378.662	80.4637	378.662	80.7369	378.662	80.6251	378.662	80.7227
392.578	83.6663	392.578	83.624	392.578	83.6329	392.578	83.5067	392.578	83.5243	392.578	83.316	392.578	83.3426	392.578	83.0545	392.578	83.0904	392.578	82.725	392.578	82.7716	392.578	82.331	392.578	82.3908	392.578	81.8781	392.578	81.9551	392.578	81.3766	392.578	81.4761	392.578	80.8459	392.578	80.9734	392.578	80.3193	392.578	80.4778	392.578	79.8457	392.578	80.0323	392.578	79.482	392.578	79.6849	392.578	79.2723	392.578	79.4721	392.578	79.2239	392.578	79.3996	392.578	79.2978	392.578	79.4344	392.578	79.4268	392.578	79.5179	392.578	79.5438	392.578	79.5888	392.578	79.6029
405.762	84.0129	405.762	83.9716	405.762	83.9696	405.762	83.8474	405.762	83.8418	405.762	83.6426	405.762	83.6313	405.762	83.3607	405.762	83.3417	405.762	83.0056	405.762	82.9794	405.762	82.5826	405.762	82.5535	405.762	82.0999	405.762	82.078	405.762	81.571	405.762	81.5731	405.762	81.0191	405.762	81.0672	405.762	80.4806	405.762	80.5977	405.762	80.0061	405.762	80.207	405.762	79.6511	405.762	79.9319	405.762	79.4563	405.762	79.7885	405.762	79.4249	405.762	79.7627	405.762	79.5171	405.762	79.8125	405.762	79.6676	405.762	79.8829	405.762	79.8114	405.762	79.924	405.762	79.9031
420.41	84.1815	420.41	84.1249	420.41	84.1624	420.41	83.9914	420.41	84.0676	420.41	83.7795	420.41	83.8957	420.41	83.4874	420.41	83.6433	420.41	83.1144	420.41	83.3055	420.41	82.6617	420.41	82.8772	420.41	82.135	420.41	82.3553	420.41	81.5479	420.41	81.7433	420.41	80.9273	420.41	81.0587	420.41	80.3184	420.41	80.343	420.41	79.7847	420.41	79.6699	420.41	79.3955	420.41	79.1397	420.41	79.1961	420.41	78.8428	420.41	79.1796	420.41	78.8035	420.41	79.2846	420.41	78.9573	420.41	79.4241	420.41	79.1908	420.41	79.5185	420.41	79.399	420.41	79.5158
435.059	83.6886	435.059	83.6561	435.059	83.6526	435.059	83.5525	435.059	83.5501	435.059	83.3748	435.059	83.3816	435.059	83.1198	435.059	83.1463	435.059	82.7843	435.059	82.8413	435.059	82.3662	435.059	82.4629	435.059	81.8669	435.059	82.0083	435.059	81.2953	435.059	81.4799	435.059	80.6736	435.059	80.8918	435.059	80.0458	435.059	80.2779	435.059	79.481	435.059	79.6988	435.059	79.0629	435.059	79.2368	435.059	78.8563	435.059	78.968	435.059	78.8649	435.059	78.9168	435.059	79.0225	435.059	79.0337	435.059	79.2274	435.059	79.2207	435.059	79.3872	435.059	79.3797	435.059	79.4436
450.439	83.7689	450.439	83.73	450.439	83.7376	450.439	83.6203	450.439	83.6365	450.439	83.4388	450.439	83.466	450.439	83.1826	450.439	83.2255	450.439	82.8472	450.439	82.913	450.439	82.4258	450.439	82.5243	450.439	81.9116	450.439	82.0539	450.439	81.3015	450.439	81.4978	450.439	80.603	450.439	80.8586	450.439	79.8456	450.439	80.1548	450.439	79.0941	450.439	79.4324	450.439	78.4528	450.439	78.7731	450.439	78.0373	450.439	78.2827	450.439	77.9045	450.439	78.0406	450.439	78.0015	450.439	78.0404	450.439	78.1979	450.439	78.1842	450.439	78.3635	450.439	78.3434	450.439	78.4178
466.553	83.2822	466.553	83.2283	466.553	83.2713	466.553	83.1091	466.553	83.1975	466.553	82.9257	466.553	83.0631	466.553	82.6798	466.553	82.8696	466.553	82.3726	466.553	82.6159	466.553	82.0038	466.553	82.2981	466.553	81.5724	466.553	81.9109	466.553	81.0789	466.553	81.4503	466.553	80.531	466.553	80.9191	466.553	79.9502	466.553	80.3338	466.553	79.3792	466.553	79.7319	466.553	78.8819	466.553	79.1758	466.553	78.5275	466.553	78.741	466.553	78.3554	466.553	78.4847	466.553	78.3465	466.553	78.4078	466.553	78.4297	466.553	78.45	466.553	78.5204	466.553	78.5239	466.553	78.5576
482.666	83.1823	482.666	83.1562	482.666	83.1294	482.666	83.0517	482.666	83.0009	482.666	82.8727	482.666	82.804	482.666	82.624	482.666	82.547	482.666	82.3091	482.666	82.2376	482.666	81.9286	482.666	81.8793	482.666	81.4804	482.666	81.472	482.666	80.962	482.666	81.013	482.666	80.3764	482.666	80.5033	482.666	79.7406	482.666	79.9544	482.666	79.0963	482.666	79.3982	482.666	78.5162	482.666	78.8899	482.666	78.0908	482.666	78.4983	482.666	77.8862	482.666	78.274	482.666	77.8946	482.666	78.2134	482.666	78.0328	482.666	78.2527	482.666	78.192	482.666	78.3027	482.666	78.2915
500.244	83.714	500.244	83.6356	500.244	83.6916	500.244	83.46	500.244	83.57	500.244	83.1948	500.244	83.3549	500.244	82.8502	500.244	83.0554	500.244	82.4375	500.244	82.6811	500.244	81.9671	500.244	82.2411	500.244	81.449	500.244	81.7424	500.244	80.8947	500.244	81.1925	500.244	80.3225	500.244	80.6036	500.244	79.7645	500.244	80.0012	500.244	79.2714	500.244	79.4324	500.244	78.9062	500.244	78.9669	500.244	78.72	500.244	78.6775	500.244	78.7183	500.244	78.6001	500.244	78.8473	500.244	78.7013	500.244	79.0173	500.244	78.8917	500.244	79.1418	500.244	79.0706	500.244	79.1643
517.822	83.0483	517.822	82.9805	517.822	83.0244	517.822	82.8219	517.822	82.915	517.822	82.5794	517.822	82.7322	517.822	82.2643	517.822	82.4898	517.822	81.8872	517.822	82.1993	517.822	81.4552	517.822	81.8653	517.822	80.9696	517.822	81.4844	517.822	80.4277	517.822	81.0467	517.822	79.8295	517.822	80.5427	517.822	79.1889	517.822	79.9725	517.822	78.5496	517.822	79.3596	517.822	77.9939	517.822	78.762	517.822	77.6265	517.822	78.2713	517.822	77.515	517.822	77.9772	517.822	77.6292	517.822	77.9057	517.822	77.8519	517.822	77.9882	517.822	78.0509	517.822	78.1022	517.822	78.1403
536.133	83.9623	536.133	83.8972	536.133	83.8694	536.133	83.6813	536.133	83.6173	536.133	83.3277	536.133	83.2118	536.133	82.8562	536.133	82.6671	536.133	82.2924	536.133	82.0093	536.133	81.6648	536.133	81.2778	536.133	80.9989	536.133	80.5241	536.133	80.3088	536.133	79.8036	536.133	79.5948	536.133	79.1606	536.133	78.8505	536.133	78.6177	536.133	78.0859	536.133	78.1792	536.133	77.3595	536.133	77.8479	536.133	76.7988	536.133	77.6378	536.133	76.5535	536.133	77.563	536.133	76.6678	536.133	77.6057	536.133	77.0137	536.133	77.698	536.133	77.3897	536.133	77.7411	536.133	77.6491
554.443	84.7316	554.443	84.6321	554.443	84.709	554.443	84.4075	554.443	84.5641	554.443	84.0524	554.443	84.2935	554.443	83.5623	554.443	83.8921	554.443	82.9379	554.443	83.3555	554.443	82.1911	554.443	82.6839	554.443	81.3542	554.443	81.8867	554.443	80.4871	554.443	80.9894	554.443	79.6785	554.443	80.0412	554.443	79.025	554.443	79.121	554.443	78.5898	554.443	78.333	554.443	78.3681	554.443	77.7785	554.443	78.2991	554.443	77.5085	554.443	78.3079	554.443	77.4944	554.443	78.3367	554.443	77.6479	554.443	78.349	554.443	77.868	554.443	78.3201	554.443	78.0771	554.443	78.232
574.219	84.018	574.219	83.9968	574.219	83.9869	574.219	83.9231	574.219	83.8952	574.219	83.7871	574.219	83.7276	574.219	83.57	574.219	83.4651	574.219	83.2455	574.219	83.0872	574.219	82.7833	574.219	82.5765	574.219	82.1539	574.219	81.9235	574.219	81.3361	574.219	81.1359	574.219	80.332	574.219	80.2534	574.219	79.1993	574.219	79.3682	574.219	78.1044	574.219	78.6339	574.219	77.3466	574.219	78.2211	574.219	77.1975	574.219	78.2046	574.219	77.6122	574.219	78.4946	574.219	78.2767	574.219	78.9104	574.219	78.9037	574.219	79.2883	574.219	79.3448	574.219	79.5219	574.219	79.5506
594.727	83.3145	594.727	83.2553	594.727	83.3023	594.727	83.123	594.727	83.2265	594.727	82.921	594.727	83.0969	594.727	82.6534	594.727	82.9179	594.727	82.3185	594.727	82.6812	594.727	81.9045	594.727	82.3619	594.727	81.3903	594.727	81.9216	594.727	80.7548	594.727	81.318	594.727	79.998	594.727	80.5218	594.727	79.1796	594.727	79.5508	594.727	78.4702	594.727	78.5377	594.727	78.1488	594.727	77.8099	594.727	78.4123	594.727	77.7725	594.727	79.1426	594.727	78.4629	594.727	80.0158	594.727	79.4752	594.727	80.7574	594.727	80.4052	594.727	81.215	594.727	81.0447	594.727	81.3188
615.234	83.8036	615.234	83.7375	615.234	83.761	615.234	83.5708	615.234	83.609	615.234	83.3166	615.234	83.3535	615.234	82.9885	615.234	83.0036	615.234	82.5931	615.234	82.5663	615.234	82.1216	615.234	82.0397	615.234	81.5464	615.234	81.4092	615.234	80.8231	615.234	80.6478	615.234	79.9026	615.234	79.7275	615.234	78.7589	615.234	78.6496	615.234	77.4573	615.234	77.5115	615.234	76.2911	615.234	76.6057	615.234	75.8273	615.234	76.367	615.234	76.3637	615.234	76.9218	615.234	77.4503	615.234	77.8748	615.234	78.4996	615.234	78.7652	615.234	79.2151	615.234	79.3403	615.234	79.5003
637.207	83.9528	637.207	83.8724	637.207	83.9223	637.207	83.6909	637.207	83.783	637.207	83.4264	637.207	83.5479	637.207	83.0981	637.207	83.2358	637.207	82.7155	637.207	82.8624	637.207	82.2673	637.207	82.4283	637.207	81.7151	637.207	81.911	637.207	80.9971	637.207	81.2641	637.207	80.0398	637.207	80.4263	637.207	78.7866	637.207	79.3446	637.207	77.2785	637.207	78.0279	637.207	75.8692	637.207	76.6831	637.207	75.3852	637.207	75.8868	637.207	76.2214	637.207	76.2075	637.207	77.6104	637.207	77.3302	637.207	78.8022	637.207	78.5179	637.207	79.52	637.207	79.3561	637.207	79.7036
659.912	83.8939	659.912	83.8124	659.912	83.8655	659.912	83.6264	659.912	83.733	659.912	83.3507	659.912	83.5113	659.912	83.0031	659.912	83.219	659.912	82.595	659.912	82.8694	659.912	82.1201	659.912	82.46	659.912	81.5469	659.912	81.9653	659.912	80.8195	659.912	81.3374	659.912	79.8671	659.912	80.5152	659.912	78.6267	659.912	79.4447	659.912	77.1058	659.912	78.1278	659.912	75.5596	659.912	76.7419	659.912	74.7304	659.912	75.8068	659.912	75.2492	659.912	75.9058	659.912	76.5531	659.912	76.8378	659.912	77.7929	659.912	77.8942	659.912	78.599	659.912	78.6286	659.912	78.8788
683.35	84.3775	683.35	84.2985	683.35	84.3329	683.35	84.1056	683.35	84.167	683.35	83.8184	683.35	83.8946	683.35	83.4598	683.35	83.539	683.35	83.0466	683.35	83.1241	683.35	82.5763	683.35	82.6601	683.35	82.0182	683.35	82.1298	683.35	81.3131	683.35	81.4819	683.35	80.3829	683.35	80.6379	683.35	79.1536	683.35	79.5121	683.35	77.6161	683.35	78.0632	683.35	76.0123	683.35	76.4529	683.35	75.1287	683.35	75.3709	683.35	75.6987	683.35	75.7044	683.35	77.1187	683.35	77.0598	683.35	78.4572	683.35	78.42	683.35	79.3227	683.35	79.3097	683.35	79.6142
706.787	84.576	706.787	84.4734	706.787	84.5352	706.787	84.2354	706.787	84.361	706.787	83.8904	706.787	84.08	706.787	83.4856	706.787	83.7296	706.787	83.0759	706.787	83.3457	706.787	82.6964	706.787	82.9414	706.787	82.3287	706.787	82.4899	706.787	81.889	706.787	81.9202	706.787	81.2455	706.787	81.1302	706.787	80.2484	706.787	80.0044	706.787	78.7634	706.787	78.4467	706.787	76.7876	706.787	76.5025	706.787	74.9367	706.787	74.794	706.787	74.8465	706.787	74.7329	706.787	76.5001	706.787	76.2773	706.787	78.1953	706.787	77.958	706.787	79.2336	706.787	79.0884	706.787	79.5246
731.689	84.8802	731.689	84.8151	731.689	84.788	731.689	84.609	731.689	84.5426	731.689	84.2939	731.689	84.171	731.689	83.9092	731.689	83.7226	731.689	83.4878	731.689	83.2586	731.689	83.0374	731.689	82.8239	731.689	82.5279	731.689	82.4118	731.689	81.8885	731.689	81.9476	731.689	81.0157	731.689	81.305	731.689	79.7838	731.689	80.3392	731.689	78.0641	731.689	78.924	731.689	75.8323	731.689	77.0531	731.689	73.7011	731.689	75.2236	731.689	73.5458	731.689	74.8276	731.689	75.3968	731.689	76.152	731.689	77.3021	731.689	77.7207	731.689	78.5321	731.689	78.7265	731.689	79.0038
758.057	85.3591	758.057	85.2503	758.057	85.2869	758.057	84.9722	758.057	85.0423	758.057	84.5604	758.057	84.6552	758.057	84.0763	758.057	84.1772	758.057	83.5974	758.057	83.6732	758.057	83.1821	758.057	83.1952	758.057	82.8221	758.057	82.7441	758.057	82.4231	758.057	82.2478	758.057	81.8326	758.057	81.5728	758.057	80.8787	758.057	80.5501	758.057	79.3965	758.057	78.9947	758.057	77.2942	758.057	76.7582	758.057	74.9641	758.057	74.1481	758.057	74.2314	758.057	73.2751	758.057	75.8718	758.057	75.2395	758.057	77.7948	758.057	77.4528	758.057	78.9973	758.057	78.8457	758.057	79.3498
784.424	85.1332	784.424	85.0264	784.424	85.0342	784.424	84.7256	784.424	84.7349	784.424	84.2623	784.424	84.2631	784.424	83.6926	784.424	83.6767	784.424	83.0961	784.424	83.0645	784.424	82.552	784.424	82.5203	784.424	82.0881	784.424	82.0842	784.424	81.6393	784.424	81.6943	784.424	81.0571	784.424	81.1991	784.424	80.1548	784.424	80.4085	784.424	78.7483	784.424	79.1272	784.424	76.7311	784.424	77.18	784.424	74.4758	784.424	74.6185	784.424	73.7427	784.424	72.7956	784.424	75.3151	784.424	73.936	784.424	77.1646	784.424	76.201	784.424	78.2727	784.424	77.8073	784.424	78.4923
812.256	85.3367	812.256	85.196	812.256	85.2639	812.256	84.8524	812.256	84.9814	812.256	84.3381	812.256	84.5085	812.256	83.7175	812.256	83.8873	812.256	83.0885	812.256	83.1913	812.256	82.5486	812.256	82.5164	812.256	82.124	812.256	81.9335	812.256	81.7201	812.256	81.4197	812.256	81.1509	812.256	80.833	812.256	80.2004	812.256	79.956	812.256	78.6544	812.256	78.5459	812.256	76.339	812.256	76.3795	812.256	73.5163	812.256	73.5786	812.256	72.4196	812.256	72.1952	812.256	74.3997	812.256	74.1386	812.256	76.6256	812.256	76.4991	812.256	77.9829	812.256	77.9411	812.256	78.4174
840.82	85.377	840.82	85.2299	840.82	85.2884	840.82	84.8498	840.82	84.972	840.82	84.2571	840.82	84.4492	840.82	83.5075	840.82	83.7677	840.82	82.7111	840.82	83.0166	840.82	82.0175	840.82	82.3208	840.82	81.5241	840.82	81.7819	840.82	81.1624	840.82	81.3824	840.82	80.704	840.82	80.9563	840.82	79.8656	840.82	80.2563	840.82	78.3673	840.82	79.0174	840.82	75.949	840.82	76.9703	840.82	72.7572	840.82	73.9748	840.82	71.5314	840.82	71.4145	840.82	73.9652	840.82	72.8086	840.82	76.3472	840.82	75.5076	840.82	77.6523	840.82	77.253	840.82	77.9417
870.85	85.3722	870.85	85.1978	870.85	85.3034	870.85	84.7871	870.85	84.9923	870.85	84.162	870.85	84.4522	870.85	83.3761	870.85	83.724	870.85	82.5366	870.85	82.8976	870.85	81.7991	870.85	82.1162	870.85	81.285	870.85	81.5136	870.85	80.9506	870.85	81.0899	870.85	80.568	870.85	80.6624	870.85	79.8312	870.85	79.9536	870.85	78.4249	870.85	78.6778	870.85	76.0203	870.85	76.5611	870.85	72.5943	870.85	73.5445	870.85	71.2302	870.85	71.5362	870.85	74.2319	870.85	73.592	870.85	76.9477	870.85	76.3543	870.85	78.4004	870.85	78.0831	870.85	78.7498
901.611	85.5078	901.611	85.3607	901.611	85.4084	901.611	84.9636	901.611	85.0619	901.611	84.3167	901.611	84.4716	901.611	83.4478	901.611	83.6681	901.611	82.454	901.611	82.7444	901.611	81.5327	901.611	81.8796	901.611	80.9053	901.611	81.2678	901.611	80.5925	901.611	80.9282	901.611	80.3205	901.611	80.6194	901.611	79.6971	901.611	79.9798	901.611	78.3364	901.611	78.6407	901.611	75.7838	901.611	76.1652	901.611	71.4083	901.611	71.9199	901.611	67.8655	901.611	67.8351	901.611	72.1918	901.611	71.8445	901.611	75.7474	901.611	75.5629	901.611	77.5489	901.611	77.4716	901.611	78.0772
933.105	85.8815	933.105	85.743	933.105	85.7608	933.105	85.3211	933.105	85.3848	933.105	84.5825	933.105	84.7381	933.105	83.5194	933.105	83.81	933.105	82.2285	933.105	82.6539	933.105	81.043	933.105	81.4933	933.105	80.4752	933.105	80.7437	933.105	80.6079	933.105	80.6255	933.105	80.866	933.105	80.7709	933.105	80.6321	933.105	80.5853	933.105	79.4687	933.105	79.5953	933.105	76.8684	933.105	77.3252	933.105	71.6207	933.105	72.8623	933.105	63.135	933.105	65.5811	933.105	71.4435	933.105	70.9005	933.105	75.9611	933.105	75.6481	933.105	77.9716	933.105	77.8434	933.105	78.5278
966.064	86.232	966.064	86.1103	966.064	86.2092	966.064	85.8341	966.064	86.0009	966.064	85.3405	966.064	85.5295	966.064	84.5262	966.064	84.7002	966.064	83.2876	966.064	83.4398	966.064	81.6284	966.064	81.799	966.064	79.9577	966.064	80.2188	966.064	79.3036	966.064	79.6138	966.064	79.9335	966.064	80.1281	966.064	80.6927	966.064	80.7361	966.064	80.6887	966.064	80.6274	966.064	79.4714	966.064	79.3392	966.064	76.4428	966.064	76.2031	966.064	69.5414	966.064	68.7492	966.064	62.1114	966.064	62.098	966.064	73.1589	966.064	73.4738	966.064	76.7861	966.064	76.9356	966.064	77.8334
999.756	86.9335	999.756	86.8675	999.756	86.8756	999.756	86.6611	999.756	86.6916	999.756	86.2767	999.756	86.3488	999.756	85.649	999.756	85.7744	999.756	84.698	999.756	84.8694	999.756	83.3848	999.756	83.563	999.756	81.8527	999.756	81.9448	999.756	80.6379	999.756	80.5253	999.756	80.3643	999.756	80.1122	999.756	80.7208	999.756	80.568	999.756	80.8056	999.756	80.8776	999.756	79.9659	999.756	80.2918	999.756	77.6508	999.756	78.2536	999.756	72.847	999.756	73.7241	999.756	66.578	999.756	64.7248	999.756	72.4884	999.756	71.1429	999.756	76.1388	999.756	75.728	999.756	77.0701
1,034.91	86.2564	1,034.91	86.1748	1,034.91	86.1889	1,034.91	85.9569	1,034.91	85.9708	1,034.91	85.6087	1,034.91	85.6	1,034.91	85.0951	1,034.91	85.0486	1,034.91	84.3322	1,034.91	84.2572	1,034.91	83.2369	1,034.91	83.1692	1,034.91	81.8504	1,034.91	81.8206	1,034.91	80.5457	1,034.91	80.5007	1,034.91	79.9782	1,034.91	79.7648	1,034.91	80.17	1,034.91	79.7669	1,034.91	80.2866	1,034.91	79.8413	1,034.91	79.5555	1,034.91	79.201	1,034.91	77.3822	1,034.91	77.1863	1,034.91	72.9098	1,034.91	72.7609	1,034.91	67.5606	1,034.91	65.1794	1,034.91	72.2475	1,034.91	70.9078	1,034.91	75.6453	1,034.91	75.1895	1,034.91	76.5082
1,071.53	85.6689	1,071.53	85.6045	1,071.53	85.5428	1,071.53	85.3456	1,071.53	85.2494	1,071.53	84.899	1,071.53	84.8149	1,071.53	84.2574	1,071.53	84.2354	1,071.53	83.3811	1,071.53	83.4567	1,071.53	82.2216	1,071.53	82.4004	1,071.53	80.8277	1,071.53	81.0622	1,071.53	79.5556	1,071.53	79.712	1,071.53	79.0559	1,071.53	78.9919	1,071.53	79.371	1,071.53	79.1449	1,071.53	79.6496	1,071.53	79.4135	1,071.53	79.0855	1,071.53	78.9435	1,071.53	77.0619	1,071.53	77.1243	1,071.53	72.6706	1,071.53	73.0705	1,071.53	66.7295	1,071.53	64.8097	1,071.53	71.4387	1,071.53	68.6205	1,071.53	74.8637	1,071.53	73.8067	1,071.53	75.5286
1,109.62	85.6029	1,109.62	85.4412	1,109.62	85.5209	1,109.62	85.0549	1,109.62	85.2009	1,109.62	84.48	1,109.62	84.6757	1,109.62	83.7491	1,109.62	83.9945	1,109.62	82.8563	1,109.62	83.1837	1,109.62	81.7412	1,109.62	82.2038	1,109.62	80.3453	1,109.62	80.9661	1,109.62	78.7921	1,109.62	79.4652	1,109.62	77.6609	1,109.62	78.0526	1,109.62	77.5889	1,109.62	77.4612	1,109.62	78.0702	1,109.62	77.7213	1,109.62	78.0605	1,109.62	77.8701	1,109.62	76.8822	1,109.62	77.0804	1,109.62	74.0454	1,109.62	74.7681	1,109.62	69.7605	1,109.62	70.3633	1,109.62	69.7259	1,109.62	67.5957	1,109.62	72.5236	1,109.62	71.2737	1,109.62	73.1799
1,148.44	86.0234	1,148.44	85.82	1,148.44	85.9677	1,148.44	85.3669	1,148.44	85.6567	1,148.44	84.689	1,148.44	85.1071	1,148.44	83.8228	1,148.44	84.3484	1,148.44	82.8027	1,148.44	83.4153	1,148.44	81.6501	1,148.44	82.3345	1,148.44	80.3963	1,148.44	81.1274	1,148.44	79.1509	1,148.44	79.8582	1,148.44	78.1376	1,148.44	78.7075	1,148.44	77.5054	1,148.44	77.9076	1,148.44	77.024	1,148.44	77.4194	1,148.44	76.1683	1,148.44	76.7869	1,148.44	74.4154	1,148.44	75.4014	1,148.44	71.5642	1,148.44	72.701	1,148.44	69.7614	1,148.44	69.2687	1,148.44	72.003	1,148.44	70.4359	1,148.44	74.263	1,148.44	73.5293	1,148.44	74.835
1,189.45	86.0438	1,189.45	85.9151	1,189.45	85.969	1,189.45	85.5775	1,189.45	85.7122	1,189.45	85.0406	1,189.45	85.2902	1,189.45	84.305	1,189.45	84.6883	1,189.45	83.3355	1,189.45	83.8516	1,189.45	82.0664	1,189.45	82.7137	1,189.45	80.4767	1,189.45	81.2685	1,189.45	78.7766	1,189.45	79.6996	1,189.45	77.5726	1,189.45	78.4811	1,189.45	77.2499	1,189.45	77.9866	1,189.45	77.1461	1,189.45	77.8283	1,189.45	76.3222	1,189.45	77.2245	1,189.45	74.0799	1,189.45	75.5278	1,189.45	69.8753	1,189.45	72.2691	1,189.45	67.8455	1,189.45	69.2557	1,189.45	72.1213	1,189.45	71.8561	1,189.45	74.8976	1,189.45	74.7006	1,189.45	75.6913
1,231.2	86.2345	1,231.2	86.1016	1,231.2	86.1133	1,231.2	85.7212	1,231.2	85.7621	1,231.2	85.1269	1,231.2	85.2218	1,231.2	84.3469	1,231.2	84.5202	1,231.2	83.3586	1,231.2	83.6414	1,231.2	82.0811	1,231.2	82.529	1,231.2	80.4613	1,231.2	81.1553	1,231.2	78.7148	1,231.2	79.6829	1,231.2	77.6016	1,231.2	78.6243	1,231.2	77.6174	1,231.2	78.3944	1,231.2	77.8719	1,231.2	78.4883	1,231.2	77.2684	1,231.2	77.9877	1,231.2	75.0397	1,231.2	76.1321	1,231.2	70.0779	1,231.2	72.0115	1,231.2	65.2954	1,231.2	66.7309	1,231.2	71.5743	1,231.2	71.3128	1,231.2	75.0042	1,231.2	74.9058	1,231.2	75.9746
1,274.41	86.2756	1,274.41	86.1238	1,274.41	86.1427	1,274.41	85.7209	1,274.41	85.7307	1,274.41	85.1257	1,274.41	85.0915	1,274.41	84.3902	1,274.41	84.3047	1,274.41	83.5115	1,274.41	83.4189	1,274.41	82.4065	1,274.41	82.3909	1,274.41	80.9605	1,274.41	81.1072	1,274.41	79.1876	1,274.41	79.5278	1,274.41	77.5718	1,274.41	77.9962	1,274.41	77.0332	1,274.41	77.3279	1,274.41	77.3647	1,274.41	77.5263	1,274.41	77.26	1,274.41	77.4092	1,274.41	75.7086	1,274.41	75.9312	1,274.41	71.6689	1,274.41	72.0572	1,274.41	66.067	1,274.41	65.8802	1,274.41	71.4658	1,274.41	70.8744	1,274.41	75.2265	1,274.41	74.9795	1,274.41	76.236
1,319.82	86.0626	1,319.82	85.8802	1,319.82	85.9139	1,319.82	85.399	1,319.82	85.4412	1,319.82	84.6934	1,319.82	84.7026	1,319.82	83.8683	1,319.82	83.8079	1,319.82	82.9913	1,319.82	82.8622	1,319.82	82.0077	1,319.82	81.863	1,319.82	80.7573	1,319.82	80.6733	1,319.82	79.1367	1,319.82	79.16	1,319.82	77.4325	1,319.82	77.5263	1,319.82	76.5697	1,319.82	76.5928	1,319.82	76.7711	1,319.82	76.6636	1,319.82	76.7317	1,319.82	76.5704	1,319.82	75.2215	1,319.82	75.0759	1,319.82	70.9058	1,319.82	70.7289	1,319.82	62.2814	1,319.82	58.3894	1,319.82	70.1367	1,319.82	69.3117	1,319.82	74.5238	1,319.82	74.2968	1,319.82	75.6654
1,365.97	85.7106	1,365.97	85.5438	1,365.97	85.5321	1,365.97	85.0352	1,365.97	85.0232	1,365.97	84.2272	1,365.97	84.2292	1,365.97	83.226	1,365.97	83.2477	1,365.97	82.1664	1,365.97	82.1984	1,365.97	81.0944	1,365.97	81.1152	1,365.97	79.8904	1,365.97	79.8675	1,365.97	78.3854	1,365.97	78.2575	1,365.97	76.7114	1,365.97	76.3537	1,365.97	75.7064	1,365.97	75.0456	1,365.97	75.8648	1,365.97	75.2102	1,365.97	76.0078	1,365.97	75.6839	1,365.97	74.8479	1,365.97	74.9734	1,365.97	71.1776	1,365.97	71.8412	1,365.97	62.0493	1,365.97	62.0275	1,365.97	67.9488	1,365.97	65.8227	1,365.97	73.202	1,365.97	72.7038	1,365.97	74.4789
1,414.31	85.7889	1,414.31	85.5945	1,414.31	85.6729	1,414.31	85.0862	1,414.31	85.2389	1,414.31	84.2763	1,414.31	84.4817	1,414.31	83.23	1,414.31	83.4381	1,414.31	82.0522	1,414.31	82.2094	1,414.31	80.7993	1,414.31	80.9145	1,414.31	79.3991	1,414.31	79.5796	1,414.31	77.7493	1,414.31	78.1069	1,414.31	76.1048	1,414.31	76.4818	1,414.31	75.398	1,414.31	75.2157	1,414.31	75.8447	1,414.31	75.1225	1,414.31	76.1634	1,414.31	75.6406	1,414.31	75.2622	1,414.31	75.3724	1,414.31	72.2004	1,414.31	73.1828	1,414.31	65.0039	1,414.31	66.9775	1,414.31	66.498	1,414.31	62.7519	1,414.31	72.0592	1,414.31	71.0311	1,414.31	73.3103
1,464.11	85.2786	1,464.11	84.9857	1,464.11	85.2333	1,464.11	84.3838	1,464.11	84.829	1,464.11	83.5218	1,464.11	84.0664	1,464.11	82.4739	1,464.11	83.0024	1,464.11	81.3153	1,464.11	81.7722	1,464.11	80.0693	1,464.11	80.5375	1,464.11	78.6711	1,464.11	79.3532	1,464.11	77.0248	1,464.11	78.097	1,464.11	75.2675	1,464.11	76.643	1,464.11	74.2298	1,464.11	75.2902	1,464.11	74.5951	1,464.11	74.7999	1,464.11	75.2267	1,464.11	74.9447	1,464.11	74.7178	1,464.11	74.3953	1,464.11	71.946	1,464.11	71.8309	1,464.11	64.8936	1,464.11	64.3386	1,464.11	67.0636	1,464.11	63.5685	1,464.11	72.5106	1,464.11	71.544	1,464.11	73.7174
1,515.38	85.1662	1,515.38	85.0825	1,515.38	84.9574	1,515.38	84.6623	1,515.38	84.4883	1,515.38	83.8771	1,515.38	83.7638	1,515.38	82.7444	1,515.38	82.7845	1,515.38	81.3623	1,515.38	81.6002	1,515.38	79.9118	1,515.38	80.329	1,515.38	78.5175	1,515.38	79.0679	1,515.38	77.0172	1,515.38	77.7181	1,515.38	75.028	1,515.38	76.0023	1,515.38	72.794	1,515.38	74.0904	1,515.38	72.769	1,515.38	73.5639	1,515.38	74.7307	1,515.38	74.7524	1,515.38	75.6037	1,515.38	75.4875	1,515.38	74.263	1,515.38	74.4644	1,515.38	69.5908	1,515.38	70.4649	1,515.38	62.3534	1,515.38	60.6946	1,515.38	68.5416	1,515.38	67.1125	1,515.38	70.3729
1,568.85	84.5043	1,568.85	84.4217	1,568.85	84.309	1,568.85	84.0995	1,568.85	83.9075	1,568.85	83.5989	1,568.85	83.4087	1,568.85	82.8905	1,568.85	82.7991	1,568.85	81.8649	1,568.85	81.9291	1,568.85	80.463	1,568.85	80.6505	1,568.85	78.8305	1,568.85	78.9662	1,568.85	77.3322	1,568.85	77.1591	1,568.85	76.0992	1,568.85	75.5754	1,568.85	74.5543	1,568.85	73.9508	1,568.85	72.0656	1,568.85	71.7485	1,568.85	70.2848	1,568.85	70.2168	1,568.85	71.9441	1,568.85	71.4941	1,568.85	73.3955	1,568.85	72.7108	1,568.85	72.9722	1,568.85	71.9362	1,568.85	71.2218	1,568.85	69.2892	1,568.85	70.0758	1,568.85	68.1801	1,568.85	69.5153
1,624.51	84.9775	1,624.51	84.5949	1,624.51	84.7769	1,624.51	83.789	1,624.51	84.0005	1,624.51	82.8561	1,624.51	82.8767	1,624.51	82.0923	1,624.51	81.8495	1,624.51	81.4922	1,624.51	81.1726	1,624.51	80.6926	1,624.51	80.5021	1,624.51	79.3077	1,624.51	79.252	1,624.51	77.2747	1,624.51	77.0654	1,624.51	75.4574	1,624.51	74.509	1,624.51	75.1041	1,624.51	73.728	1,624.51	74.8614	1,624.51	73.984	1,624.51	72.6734	1,624.51	72.4343	1,624.51	65.9607	1,624.51	66.373	1,624.51	58.7282	1,624.51	58.5389	1,624.51	69.8068	1,624.51	70.3264	1,624.51	73.2431	1,624.51	73.8558	1,624.51	74.7906	1,624.51	75.1617	1,624.51	75.4092
1,681.64	84.4961	1,681.64	84.2372	1,681.64	84.4456	1,681.64	83.6502	1,681.64	83.9528	1,681.64	82.6692	1,681.64	82.8976	1,681.64	81.4685	1,681.64	81.4655	1,681.64	80.5349	1,681.64	80.3124	1,681.64	80.0638	1,681.64	79.9048	1,681.64	79.502	1,681.64	79.6135	1,681.64	78.1177	1,681.64	78.4577	1,681.64	75.5796	1,681.64	75.7884	1,681.64	73.4753	1,681.64	71.9956	1,681.64	74.543	1,681.64	71.9534	1,681.64	75.6135	1,681.64	74.1173	1,681.64	74.5048	1,681.64	74.1488	1,681.64	69.925	1,681.64	71.0358	1,681.64	52.6639	1,681.64	62.213	1,681.64	65.4402	1,681.64	65.4179	1,681.64	69.9811	1,681.64	70.1146	1,681.64	71.0919
1,740.97	85.0513	1,740.97	84.9417	1,740.97	84.8144	1,740.97	84.3533	1,740.97	84.2669	1,740.97	83.1972	1,740.97	83.3335	1,740.97	81.5835	1,740.97	81.9519	1,740.97	79.962	1,740.97	80.2904	1,740.97	78.9491	1,740.97	78.96	1,740.97	78.5187	1,740.97	78.4548	1,740.97	77.9006	1,740.97	78.2301	1,740.97	76.3375	1,740.97	77.4156	1,740.97	73.6675	1,740.97	75.5144	1,740.97	71.7225	1,740.97	72.8307	1,740.97	72.2847	1,740.97	71.5992	1,740.97	72.6932	1,740.97	72.259	1,740.97	71.4904	1,740.97	71.9228	1,740.97	68.8742	1,740.97	69.132	1,740.97	67.3615	1,740.97	64.8302	1,740.97	68.2498	1,740.97	66.5347	1,740.97	68.4978
1,802.49	85.8581	1,802.49	85.9282	1,802.49	85.5778	1,802.49	85.5864	1,802.49	85.0297	1,802.49	84.6058	1,802.49	84.0075	1,802.49	83.0338	1,802.49	82.494	1,802.49	81.3489	1,802.49	80.8408	1,802.49	80.139	1,802.49	79.492	1,802.49	79.2669	1,802.49	78.3775	1,802.49	77.9683	1,802.49	76.989	1,802.49	75.885	1,802.49	75.2397	1,802.49	74.2952	1,802.49	74.243	1,802.49	74.4369	1,802.49	74.385	1,802.49	74.0602	1,802.49	73.8012	1,802.49	70.9583	1,802.49	70.9803	1,802.49	64.9059	1,802.49	65.2398	1,802.49	70.9249	1,802.49	67.9994	1,802.49	74.4429	1,802.49	72.2479	1,802.49	75.0977	1,802.49	73.9411	1,802.49	74.6946
1,866.21	84.5531	1,866.21	84.8612	1,866.21	84.6278	1,866.21	85.0563	1,866.21	84.6808	1,866.21	84.4235	1,866.21	83.9628	1,866.21	82.7387	1,866.21	82.1723	1,866.21	80.4632	1,866.21	79.6432	1,866.21	79.0721	1,866.21	77.8559	1,866.21	79.2715	1,866.21	78.0106	1,866.21	79.0516	1,866.21	77.9063	1,866.21	76.7948	1,866.21	75.5643	1,866.21	72.4712	1,866.21	70.0545	1,866.21	73.6889	1,866.21	71.026	1,866.21	76.7911	1,866.21	75.2283	1,866.21	76.263	1,866.21	75.6746	1,866.21	69.1845	1,866.21	70.7558	1,866.21	69.6684	1,866.21	66.7975	1,866.21	76.5073	1,866.21	75.4388	1,866.21	77.8942	1,866.21	77.5499	1,866.21	77.8563
1,932.13	83.9965	1,932.13	83.7042	1,932.13	83.7133	1,932.13	83.3025	1,932.13	83.1681	1,932.13	82.9902	1,932.13	82.7573	1,932.13	82.2735	1,932.13	82.134	1,932.13	80.5487	1,932.13	80.6467	1,932.13	77.6881	1,932.13	77.9291	1,932.13	76.2342	1,932.13	75.7148	1,932.13	77.3751	1,932.13	76.3737	1,932.13	77.284	1,932.13	76.6715	1,932.13	74.0177	1,932.13	74.2153	1,932.13	67.8188	1,932.13	66.0116	1,932.13	74.8334	1,932.13	72.2506	1,932.13	77.735	1,932.13	76.8306	1,932.13	75.3643	1,932.13	75.8621	1,932.13	68.4973	1,932.13	71.0519	1,932.13	74.858	1,932.13	74.0935	1,932.13	77.8992	1,932.13	77.1596	1,932.13	78.2883
2,000.24	84.7323	2,000.24	84.2295	2,000.24	84.3278	2,000.24	83.2437	2,000.24	83.3029	2,000.24	82.4866	2,000.24	82.4442	2,000.24	81.9887	2,000.24	82.0468	2,000.24	81.0023	2,000.24	81.3948	2,000.24	78.8809	2,000.24	79.6756	2,000.24	75.7168	2,000.24	76.6258	2,000.24	74.4636	2,000.24	74.3837	2,000.24	75.6408	2,000.24	75.3989	2,000.24	74.7859	2,000.24	75.5198	2,000.24	69.3315	2,000.24	72.0306	2,000.24	69.0004	2,000.24	65.3967	2,000.24	75.1006	2,000.24	73.3146	2,000.24	75.5108	2,000.24	75.8637	2,000.24	71.4924	2,000.24	74.0085	2,000.24	68.9283	2,000.24	69.774	2,000.24	73.3792	2,000.24	72.0972	2,000.24	74.6765
2,070.56	86.2468	2,070.56	85.9785	2,070.56	86.0088	2,070.56	85.273	2,070.56	85.2797	2,070.56	84.3365	2,070.56	84.2189	2,070.56	83.456	2,070.56	83.1556	2,070.56	82.6033	2,070.56	82.2112	2,070.56	81.3031	2,070.56	80.9968	2,070.56	79.0863	2,070.56	79.1151	2,070.56	76.355	2,070.56	76.9566	2,070.56	75.2524	2,070.56	76.0257	2,070.56	75.2671	2,070.56	76.0133	2,070.56	73.2973	2,070.56	74.4717	2,070.56	68.502	2,070.56	70.4506	2,070.56	71.2674	2,070.56	71.5088	2,070.56	74.1852	2,070.56	74.7002	2,070.56	72.7853	2,070.56	73.9536	2,070.56	64.0086	2,070.56	67.1696	2,070.56	63.7389	2,070.56	61.1253	2,070.56	68.8655
2,143.8	86.865	2,143.8	86.6217	2,143.8	86.4826	2,143.8	85.8637	2,143.8	85.5637	2,143.8	84.8867	2,143.8	84.4118	2,143.8	84.0188	2,143.8	83.4086	2,143.8	83.2549	2,143.8	82.581	2,143.8	82.2164	2,143.8	81.4925	2,143.8	80.5904	2,143.8	79.7853	2,143.8	78.636	2,143.8	77.8075	2,143.8	77.3634	2,143.8	76.8287	2,143.8	76.6139	2,143.8	76.5331	2,143.8	74.652	2,143.8	74.8393	2,143.8	71.7365	2,143.8	71.3228	2,143.8	73.4148	2,143.8	72.3068	2,143.8	75.0351	2,143.8	74.3477	2,143.8	72.3366	2,143.8	71.6783	2,143.8	64.0313	2,143.8	59.5347	2,143.8	72.2507	2,143.8	71.78	2,143.8	74.854
2,219.24	86.685	2,219.24	86.4294	2,219.24	86.5001	2,219.24	85.7093	2,219.24	85.8698	2,219.24	84.5848	2,219.24	84.8346	2,219.24	83.3684	2,219.24	83.6155	2,219.24	82.4419	2,219.24	82.5171	2,219.24	81.6795	2,219.24	81.5346	2,219.24	80.5285	2,219.24	80.25	2,219.24	78.8301	2,219.24	78.3477	2,219.24	77.3953	2,219.24	76.4211	2,219.24	76.7398	2,219.24	75.738	2,219.24	75.4276	2,219.24	74.9547	2,219.24	72.5649	2,219.24	71.7358	2,219.24	72.8319	2,219.24	69.2299	2,219.24	74.7584	2,219.24	72.7999	2,219.24	72.6942	2,219.24	72.6564	2,219.24	63.2647	2,219.24	64.852	2,219.24	69.6603	2,219.24	65.7751	2,219.24	72.0879
2,297.61	87.0776	2,297.61	86.8697	2,297.61	87.0476	2,297.61	86.3228	2,297.61	86.7379	2,297.61	85.3618	2,297.61	86.0476	2,297.61	84.1463	2,297.61	84.9895	2,297.61	82.9387	2,297.61	83.742	2,297.61	81.6912	2,297.61	82.5205	2,297.61	80.0668	2,297.61	81.3145	2,297.61	78.0563	2,297.61	79.8992	2,297.61	76.5372	2,297.61	78.3925	2,297.61	76.1221	2,297.61	77.3802	2,297.61	75.1519	2,297.61	76.4197	2,297.61	72.1292	2,297.61	74.116	2,297.61	70.6547	2,297.61	71.0268	2,297.61	72.8411	2,297.61	71.8268	2,297.61	72.0259	2,297.61	71.953	2,297.61	66.974	2,297.61	67.6788	2,297.61	68.7697	2,297.61	68.1769	2,297.61	71.3949
2,378.17	87.9092	2,378.17	87.7667	2,378.17	87.7277	2,378.17	87.2127	2,378.17	87.1785	2,378.17	86.222	2,378.17	86.1998	2,378.17	84.9663	2,378.17	84.9813	2,378.17	83.7207	2,378.17	83.8835	2,378.17	82.639	2,378.17	82.9728	2,378.17	81.5012	2,378.17	81.884	2,378.17	79.8566	2,378.17	80.3024	2,378.17	77.7587	2,378.17	78.553	2,378.17	76.341	2,378.17	77.4742	2,378.17	75.5776	2,378.17	76.7153	2,378.17	73.7557	2,378.17	74.9964	2,378.17	71.7189	2,378.17	72.9688	2,378.17	72.5817	2,378.17	73.2298	2,378.17	72.1405	2,378.17	72.6139	2,378.17	69.856	2,378.17	68.4239	2,378.17	72.8605	2,378.17	70.6106	2,378.17	74.1503
2,462.4	87.0208	2,462.4	86.9248	2,462.4	86.9201	2,462.4	86.5806	2,462.4	86.5175	2,462.4	85.9259	2,462.4	85.737	2,462.4	85.0004	2,462.4	84.6825	2,462.4	83.9131	2,462.4	83.48	2,462.4	82.8478	2,462.4	82.2625	2,462.4	81.8069	2,462.4	81.0565	2,462.4	80.4588	2,462.4	79.5551	2,462.4	78.7041	2,462.4	77.5983	2,462.4	77.2484	2,462.4	76.0361	2,462.4	76.4434	2,462.4	75.3979	2,462.4	75.0564	2,462.4	74.044	2,462.4	73.1204	2,462.4	71.5967	2,462.4	73.0727	2,462.4	71.9809	2,462.4	72.234	2,462.4	72.5216	2,462.4	68.9311	2,462.4	69.6387	2,462.4	72.408	2,462.4	71.7567	2,462.4	74.5739
2,548.83	86.601	2,548.83	86.4365	2,548.83	86.5822	2,548.83	86.1399	2,548.83	86.3503	2,548.83	85.7101	2,548.83	85.9006	2,548.83	84.9903	2,548.83	85.2218	2,548.83	83.882	2,548.83	84.2387	2,548.83	82.5417	2,548.83	82.9578	2,548.83	81.1397	2,548.83	81.533	2,548.83	79.629	2,548.83	79.9383	2,548.83	77.9617	2,548.83	77.9804	2,548.83	76.3787	2,548.83	76.0297	2,548.83	75.0153	2,548.83	74.9419	2,548.83	73.4842	2,548.83	73.9391	2,548.83	72.3271	2,548.83	72.1429	2,548.83	72.3071	2,548.83	71.977	2,548.83	71.1446	2,548.83	71.9096	2,548.83	70.5223	2,548.83	68.6253	2,548.83	74.4232	2,548.83	71.7767	2,548.83	75.4312
2,638.92	86.4914	2,638.92	86.3385	2,638.92	86.4556	2,638.92	86.1538	2,638.92	86.2329	2,638.92	85.9381	2,638.92	85.9561	2,638.92	85.4538	2,638.92	85.5466	2,638.92	84.51	2,638.92	84.7018	2,638.92	83.0719	2,638.92	83.3608	2,638.92	81.2365	2,638.92	81.8429	2,638.92	79.2074	2,638.92	80.3304	2,638.92	77.1677	2,638.92	78.5571	2,638.92	75.4565	2,638.92	76.5129	2,638.92	74.3652	2,638.92	75.0398	2,638.92	72.9224	2,638.92	73.9178	2,638.92	70.6735	2,638.92	71.5493	2,638.92	70.8685	2,638.92	70.287	2,638.92	70.6092	2,638.92	71.7065	2,638.92	66.0657	2,638.92	70.3757	2,638.92	71.8024	2,638.92	71.3338	2,638.92	74.3046
2,731.93	86.242	2,731.93	86.1762	2,731.93	86.096	2,731.93	85.9477	2,731.93	85.8465	2,731.93	85.5927	2,731.93	85.5857	2,731.93	85.0605	2,731.93	85.1484	2,731.93	84.2928	2,731.93	84.2895	2,731.93	83.1727	2,731.93	82.9743	2,731.93	81.5658	2,731.93	81.3939	2,731.93	79.5386	2,731.93	79.7949	2,731.93	77.4474	2,731.93	78.2978	2,731.93	75.7425	2,731.93	76.8	2,731.93	74.4001	2,731.93	75.1399	2,731.93	72.8136	2,731.93	73.3429	2,731.93	70.9216	2,731.93	71.6829	2,731.93	69.9791	2,731.93	70.743	2,731.93	69.4628	2,731.93	69.5974	2,731.93	68.6566	2,731.93	67.2822	2,731.93	71.4562	2,731.93	70.6691	2,731.93	73.0969
2,828.61	85.8843	2,828.61	85.9021	2,828.61	85.8057	2,828.61	85.8403	2,828.61	85.8029	2,828.61	85.6788	2,828.61	85.7991	2,828.61	85.1981	2,828.61	85.4408	2,828.61	84.2019	2,828.61	84.5626	2,828.61	82.8027	2,828.61	83.2895	2,828.61	81.272	2,828.61	81.7444	2,828.61	79.5987	2,828.61	79.9542	2,828.61	77.4982	2,828.61	78.0227	2,828.61	75.1918	2,828.61	76.2775	2,828.61	73.8465	2,828.61	74.8099	2,828.61	73.0999	2,828.61	72.8955	2,828.61	71.5191	2,828.61	70.5724	2,828.61	70.7821	2,828.61	70.9394	2,828.61	69.9757	2,828.61	71.6181	2,828.61	64.4817	2,828.61	69.0835	2,828.61	69.7209	2,828.61	70.2678	2,828.61	72.8021
2,928.22	85.5454	2,928.22	85.6046	2,928.22	85.5869	2,928.22	85.7348	2,928.22	85.7258	2,928.22	85.728	2,928.22	85.6942	2,928.22	85.2571	2,928.22	85.2305	2,928.22	84.3119	2,928.22	84.3295	2,928.22	83.0697	2,928.22	83.0386	2,928.22	81.5774	2,928.22	81.4793	2,928.22	79.8891	2,928.22	79.808	2,928.22	78.0304	2,928.22	77.8868	2,928.22	75.9205	2,928.22	75.8696	2,928.22	74.0437	2,928.22	74.7139	2,928.22	72.9989	2,928.22	73.8424	2,928.22	71.701	2,928.22	71.449	2,928.22	70.7341	2,928.22	70.2664	2,928.22	71.1108	2,928.22	71.174	2,928.22	69.8838	2,928.22	67.9155	2,928.22	71.926	2,928.22	70.5883	2,928.22	73.9947
3,031.49	84.3859	3,031.49	84.6247	3,031.49	84.5407	3,031.49	85.0318	3,031.49	84.844	3,031.49	85.0974	3,031.49	84.9337	3,031.49	84.6332	3,031.49	84.6388	3,031.49	83.7776	3,031.49	83.8235	3,031.49	82.5128	3,031.49	82.426	3,031.49	80.7843	3,031.49	80.7515	3,031.49	78.8958	3,031.49	79.073	3,031.49	77.1341	3,031.49	77.1669	3,031.49	75.3064	3,031.49	75.0384	3,031.49	73.3943	3,031.49	73.4712	3,031.49	72.0098	3,031.49	72.364	3,031.49	71.1368	3,031.49	69.8976	3,031.49	71.2067	3,031.49	69.1644	3,031.49	71.489	3,031.49	71.5861	3,031.49	69.225	3,031.49	69.9251	3,031.49	71.2548	3,031.49	69.5297	3,031.49	73.1595
3,138.43	84.0646	3,138.43	84.3251	3,138.43	84.21	3,138.43	84.7546	3,138.43	84.6016	3,138.43	84.9479	3,138.43	84.8966	3,138.43	84.6788	3,138.43	84.7352	3,138.43	83.8024	3,138.43	83.8888	3,138.43	82.258	3,138.43	82.4212	3,138.43	80.2848	3,138.43	80.6209	3,138.43	78.2141	3,138.43	78.7576	3,138.43	76.0776	3,138.43	76.9543	3,138.43	73.9622	3,138.43	75.0842	3,138.43	72.4802	3,138.43	73.2298	3,138.43	71.3363	3,138.43	71.9855	3,138.43	68.8291	3,138.43	70.2903	3,138.43	67.0589	3,138.43	67.4222	3,138.43	68.4117	3,138.43	68.5902	3,138.43	66.9564	3,138.43	68.5511	3,138.43	70.1503	3,138.43	67.8288	3,138.43	71.546
3,249.02	83.7424	3,249.02	84.0612	3,249.02	83.8836	3,249.02	84.5135	3,249.02	84.4383	3,249.02	84.7663	3,249.02	84.7837	3,249.02	84.4996	3,249.02	84.4707	3,249.02	83.4734	3,249.02	83.526	3,249.02	81.7306	3,249.02	82.0643	3,249.02	79.7169	3,249.02	80.2554	3,249.02	77.9423	3,249.02	78.4025	3,249.02	76.3076	3,249.02	76.4371	3,249.02	74.2782	3,249.02	74.1676	3,249.02	72.2847	3,249.02	72.232	3,249.02	71.5161	3,249.02	70.9842	3,249.02	70.042	3,249.02	68.833	3,249.02	68.4954	3,249.02	66.8565	3,249.02	69.7289	3,249.02	68.7745	3,249.02	66.4753	3,249.02	68.1101	3,249.02	66.1957	3,249.02	67.9481	3,249.02	70.2521
3,363.28	82.456	3,363.28	83.0477	3,363.28	82.8381	3,363.28	83.9694	3,363.28	83.6287	3,363.28	84.3345	3,363.28	83.9728	3,363.28	83.8776	3,363.28	83.6431	3,363.28	82.7422	3,363.28	82.6305	3,363.28	81.1212	3,363.28	80.9119	3,363.28	79.22	3,363.28	78.874	3,363.28	77.3227	3,363.28	76.9913	3,363.28	75.633	3,363.28	75.157	3,363.28	73.8301	3,363.28	73.2108	3,363.28	71.6473	3,363.28	71.3739	3,363.28	70.1559	3,363.28	69.9569	3,363.28	68.986	3,363.28	67.8991	3,363.28	67.5275	3,363.28	65.8475	3,363.28	69.2186	3,363.28	68.4732	3,363.28	68.5051	3,363.28	67.8041	3,363.28	68.7569	3,363.28	67.7682	3,363.28	71.0755
3,481.93	82.2698	3,481.93	82.7831	3,481.93	82.7044	3,481.93	83.5588	3,481.93	83.5136	3,481.93	83.7513	3,481.93	83.8553	3,481.93	83.1734	3,481.93	83.4978	3,481.93	81.9646	3,481.93	82.4642	3,481.93	80.3231	3,481.93	80.8102	3,481.93	78.4881	3,481.93	78.8259	3,481.93	76.5853	3,481.93	76.844	3,481.93	74.6054	3,481.93	74.9809	3,481.93	72.4309	3,481.93	73.1383	3,481.93	70.3378	3,481.93	71.2524	3,481.93	69.4209	3,481.93	70.1743	3,481.93	68.1188	3,481.93	69.2063	3,481.93	65.5798	3,481.93	66.1281	3,481.93	67.9638	3,481.93	67.17	3,481.93	67.2769	3,481.93	67.7492	3,481.93	67.3543	3,481.93	64.5409	3,481.93	68.9401
3,604.98	82.5281	3,604.98	83.0274	3,604.98	82.7929	3,604.98	83.6726	3,604.98	83.4902	3,604.98	83.8246	3,604.98	83.7602	3,604.98	83.2807	3,604.98	83.1917	3,604.98	82.036	3,604.98	81.8788	3,604.98	80.1867	3,604.98	80.0764	3,604.98	78.0137	3,604.98	78.0492	3,604.98	75.8722	3,604.98	75.9977	3,604.98	73.9176	3,604.98	73.9145	3,604.98	71.8805	3,604.98	71.7557	3,604.98	69.756	3,604.98	69.773	3,604.98	68.6099	3,604.98	68.4806	3,604.98	67.6839	3,604.98	67.1719	3,604.98	66.2422	3,604.98	65.2504	3,604.98	66.805	3,604.98	66.5607	3,604.98	64.2174	3,604.98	66.1859	3,604.98	65.1194	3,604.98	65.0765	3,604.98	67.9674
3,732.42	82.2432	3,732.42	82.6237	3,732.42	82.4632	3,732.42	83.0917	3,732.42	82.9586	3,732.42	83.0882	3,732.42	83.032	3,732.42	82.4577	3,732.42	82.4494	3,732.42	81.1932	3,732.42	81.2539	3,732.42	79.3376	3,732.42	79.4012	3,732.42	77.1544	3,732.42	77.2672	3,732.42	75.0971	3,732.42	75.4105	3,732.42	73.4145	3,732.42	73.6327	3,732.42	71.6035	3,732.42	71.6554	3,732.42	69.3588	3,732.42	69.7015	3,732.42	68.4667	3,732.42	68.5901	3,732.42	67.8345	3,732.42	67.158	3,732.42	66.2239	3,732.42	63.355	3,732.42	68.1932	3,732.42	65.518	3,732.42	65.5665	3,732.42	65.9468	3,732.42	62.4352	3,732.42	62.193	3,732.42	66.5029
3,863.53	82.3791	3,863.53	82.6818	3,863.53	82.6409	3,863.53	83.0585	3,863.53	83.0579	3,863.53	82.8761	3,863.53	83.0028	3,863.53	82.0183	3,863.53	82.3346	3,863.53	80.6076	3,863.53	81.0693	3,863.53	78.8141	3,863.53	79.1883	3,863.53	76.8616	3,863.53	77.0705	3,863.53	74.8291	3,863.53	75.0077	3,863.53	72.9283	3,863.53	72.968	3,863.53	71.127	3,863.53	71.0631	3,863.53	68.9199	3,863.53	69.0041	3,863.53	67.3422	3,863.53	67.3409	3,863.53	66.3192	3,863.53	66.848	3,863.53	63.4622	3,863.53	64.7198	3,863.53	65.8923	3,863.53	65.404	3,863.53	65.502	3,863.53	65.9885	3,863.53	62.8712	3,863.53	61.3935	3,863.53	65.1132
3,999.76	82.7503	3,999.76	82.9739	3,999.76	82.9424	3,999.76	83.231	3,999.76	83.3558	3,999.76	83.0327	3,999.76	83.3367	3,999.76	82.1469	3,999.76	82.5311	3,999.76	80.6018	3,999.76	81.0568	3,999.76	78.6864	3,999.76	79.1632	3,999.76	76.6567	3,999.76	77.2088	3,999.76	74.5459	3,999.76	75.3707	3,999.76	72.4906	3,999.76	73.3807	3,999.76	70.2965	3,999.76	71.2636	3,999.76	67.8745	3,999.76	69.4948	3,999.76	67.3118	3,999.76	68.4175	3,999.76	67.0428	3,999.76	66.9084	3,999.76	65.2236	3,999.76	63.9638	3,999.76	65.725	3,999.76	65.2765	3,999.76	61.783	3,999.76	65.0055	3,999.76	60.7571	3,999.76	60.2721	3,999.76	64.4663
4,141.11	82.3376	4,141.11	82.622	4,141.11	82.4384	4,141.11	82.8965	4,141.11	82.6174	4,141.11	82.5966	4,141.11	82.3361	4,141.11	81.6786	4,141.11	81.4599	4,141.11	80.4637	4,141.11	80.1231	4,141.11	78.9924	4,141.11	78.2551	4,141.11	77.0044	4,141.11	76.1671	4,141.11	74.7373	4,141.11	74.2469	4,141.11	72.9903	4,141.11	72.4595	4,141.11	71.4451	4,141.11	70.5156	4,141.11	68.6359	4,141.11	67.7861	4,141.11	65.9851	4,141.11	65.9242	4,141.11	65.8037	4,141.11	65.3282	4,141.11	64.2168	4,141.11	61.6509	4,141.11	67.6652	4,141.11	64.4512	4,141.11	66.8093	4,141.11	65.0182	4,141.11	58.8205	4,141.11	59.3829	4,141.11	65.0261
4,286.87	83.2559	4,286.87	83.188	4,286.87	83.3163	4,286.87	82.9415	4,286.87	83.2015	4,286.87	82.167	4,286.87	82.6146	4,286.87	81.001	4,286.87	81.631	4,286.87	79.7207	4,286.87	80.3467	4,286.87	78.0931	4,286.87	78.6485	4,286.87	76.0833	4,286.87	76.8317	4,286.87	74.0013	4,286.87	74.9226	4,286.87	72.3386	4,286.87	72.7351	4,286.87	70.9043	4,286.87	70.608	4,286.87	68.6421	4,286.87	68.4093	4,286.87	66.4647	4,286.87	66.7204	4,286.87	65.8805	4,286.87	66.7697	4,286.87	64.3103	4,286.87	64.2319	4,286.87	67.1144	4,286.87	64.2064	4,286.87	66.0898	4,286.87	66.3419	4,286.87	57.3278	4,286.87	56.2977	4,286.87	61.3653
4,438.48	83.168	4,438.48	83.0364	4,438.48	83.1344	4,438.48	82.7807	4,438.48	82.8716	4,438.48	82.2616	4,438.48	82.2183	4,438.48	81.4482	4,438.48	81.156	4,438.48	80.3033	4,438.48	79.7879	4,438.48	78.8744	4,438.48	78.0291	4,438.48	77.1495	4,438.48	76.1462	4,438.48	75.0326	4,438.48	74.2345	4,438.48	73.1221	4,438.48	72.3115	4,438.48	71.4798	4,438.48	70.3687	4,438.48	68.8115	4,438.48	67.5731	4,438.48	65.882	4,438.48	65.7518	4,438.48	65.286	4,438.48	67.1066	4,438.48	62.6045	4,438.48	64.99	4,438.48	64.0219	4,438.48	64.0688	4,438.48	63.8814	4,438.48	65.4046	4,438.48	57.1721	4,438.48	59.3916	4,438.48	61.9082
4,594.48	83.4966	4,594.48	83.2719	4,594.48	83.3287	4,594.48	82.728	4,594.48	82.7813	4,594.48	81.9005	4,594.48	81.9311	4,594.48	81.0519	4,594.48	81.0435	4,594.48	80.2747	4,594.48	80.1065	4,594.48	79.0073	4,594.48	78.7623	4,594.48	76.862	4,594.48	77.0237	4,594.48	74.137	4,594.48	74.8397	4,594.48	71.9924	4,594.48	72.5053	4,594.48	70.5417	4,594.48	70.7644	4,594.48	68.2328	4,594.48	68.6462	4,594.48	65.9361	4,594.48	65.0853	4,594.48	65.4344	4,594.48	64.4577	4,594.48	63.2619	4,594.48	63.0918	4,594.48	66.4691	4,594.48	64.0822	4,594.48	66.2334	4,594.48	65.6858	4,594.48	57.922	4,594.48	57.7716	4,594.48	62.9133
4,757.08	83.8039	4,757.08	83.4541	4,757.08	83.5317	4,757.08	82.6912	4,757.08	82.8577	4,757.08	81.828	4,757.08	81.9766	4,757.08	81.1564	4,757.08	80.9816	4,757.08	80.3875	4,757.08	79.8198	4,757.08	79.1763	4,757.08	78.3462	4,757.08	77.4305	4,757.08	76.7788	4,757.08	75.3617	4,757.08	74.8521	4,757.08	73.3931	4,757.08	72.6248	4,757.08	71.3042	4,757.08	70.8006	4,757.08	68.5955	4,757.08	69.02	4,757.08	65.5113	4,757.08	66.4623	4,757.08	64.8875	4,757.08	64.9449	4,757.08	64.4137	4,757.08	63.3033	4,757.08	65.3324	4,757.08	62.5226	4,757.08	64.4638	4,757.08	64.6237	4,757.08	57.5874	4,757.08	56.3552	4,757.08	61.1304
4,924.8	84.0982	4,924.8	83.3618	4,924.8	83.7932	4,924.8	82.3862	4,924.8	82.5298	4,924.8	81.7145	4,924.8	81.1947	4,924.8	81.2498	4,924.8	80.6052	4,924.8	80.6469	4,924.8	80.1173	4,924.8	79.4546	4,924.8	78.8217	4,924.8	77.3454	4,924.8	76.9024	4,924.8	74.5775	4,924.8	74.4412	4,924.8	72.256	4,924.8	72.0088	4,924.8	70.8341	4,924.8	70.2253	4,924.8	68.8905	4,924.8	67.8422	4,924.8	66.1163	4,924.8	65.088	4,924.8	65.2515	4,924.8	65.4078	4,924.8	61.9067	4,924.8	62.6267	4,924.8	64.1974	4,924.8	61.6375	4,924.8	65.6235	4,924.8	64.0078	4,924.8	55.4238	4,924.8	55.4389	4,924.8	58.9042
5,098.39	84.4789	5,098.39	83.7097	5,098.39	83.967	5,098.39	82.2355	5,098.39	82.551	5,098.39	81.137	5,098.39	81.2042	5,098.39	80.7813	5,098.39	80.5908	5,098.39	80.2668	5,098.39	79.889	5,098.39	79.0627	5,098.39	78.646	5,098.39	77.0828	5,098.39	77.0774	5,098.39	74.5674	5,098.39	74.7531	5,098.39	72.1751	5,098.39	72.0397	5,098.39	70.0627	5,098.39	70.0495	5,098.39	68.3681	5,098.39	68.6062	5,098.39	66.757	5,098.39	66.7505	5,098.39	65.5632	5,098.39	65.5857	5,098.39	64.298	5,098.39	63.3432	5,098.39	64.4549	5,098.39	60.7281	5,098.39	64.5521	5,098.39	64.5297	5,098.39	60.3779	5,098.39	58.0796	5,098.39	60.7511
5,277.83	84.2947	5,277.83	83.3687	5,277.83	83.5371	5,277.83	81.8246	5,277.83	81.6244	5,277.83	81.2145	5,277.83	80.3671	5,277.83	81.3189	5,277.83	80.2721	5,277.83	80.7557	5,277.83	79.7271	5,277.83	79.285	5,277.83	78.1891	5,277.83	77.2878	5,277.83	75.7774	5,277.83	75.1056	5,277.83	72.7896	5,277.83	72.8651	5,277.83	70.5555	5,277.83	70.2766	5,277.83	68.9217	5,277.83	67.1524	5,277.83	66.0996	5,277.83	64.8441	5,277.83	63.1869	5,277.83	64.4728	5,277.83	64.7665	5,277.83	60.9707	5,277.83	62.7932	5,277.83	61.7412	5,277.83	58.55	5,277.83	61.613	5,277.83	61.7579	5,277.83	55.4678	5,277.83	55.5889	5,277.83	60.5109
5,463.87	84.334	5,463.87	83.3852	5,463.87	83.5653	5,463.87	81.6516	5,463.87	81.644	5,463.87	80.799	5,463.87	80.3809	5,463.87	80.7187	5,463.87	80.102	5,463.87	80.0781	5,463.87	79.2794	5,463.87	78.5824	5,463.87	77.7531	5,463.87	76.1971	5,463.87	75.67	5,463.87	73.0944	5,463.87	72.8867	5,463.87	70.4951	5,463.87	70.4104	5,463.87	69.0699	5,463.87	68.6873	5,463.87	67.6701	5,463.87	66.8146	5,463.87	65.296	5,463.87	63.7567	5,463.87	64.5962	5,463.87	63.137	5,463.87	63.544	5,463.87	62.6396	5,463.87	62.323	5,463.87	58.1709	5,463.87	62.9079	5,463.87	62.1045	5,463.87	57.1722	5,463.87	55.6316	5,463.87	57.5462
5,656.49	83.7908	5,656.49	82.7821	5,656.49	83.0172	5,656.49	81.141	5,656.49	81.0675	5,656.49	80.5757	5,656.49	79.9021	5,656.49	80.4833	5,656.49	79.6974	5,656.49	79.5962	5,656.49	78.7771	5,656.49	77.9848	5,656.49	76.8706	5,656.49	75.9087	5,656.49	74.2051	5,656.49	73.7807	5,656.49	71.1627	5,656.49	71.8265	5,656.49	68.8203	5,656.49	69.4386	5,656.49	66.7052	5,656.49	66.5008	5,656.49	64.0294	5,656.49	63.7749	5,656.49	61.3353	5,656.49	61.3511	5,656.49	61.445	5,656.49	57.8373	5,656.49	59.9582	5,656.49	60.9247	5,656.49	55.3232	5,656.49	60.5994	5,656.49	57.6186	5,656.49	57.4106	5,656.49	53.915	5,656.49	57.9641
5,856.45	83.4802	5,856.45	82.485	5,856.45	82.6623	5,856.45	80.9168	5,856.45	80.8271	5,856.45	80.3889	5,856.45	80.0218	5,856.45	80.1105	5,856.45	79.6358	5,856.45	78.9943	5,856.45	78.13	5,856.45	77.1963	5,856.45	75.8395	5,856.45	74.6471	5,856.45	73.3444	5,856.45	71.6053	5,856.45	70.8756	5,856.45	69.0621	5,856.45	68.7331	5,856.45	66.8848	5,856.45	66.2805	5,856.45	64.4623	5,856.45	63.2216	5,856.45	61.7849	5,856.45	59.4567	5,856.45	59.8003	5,856.45	58.5929	5,856.45	56.4599	5,856.45	58.1136	5,856.45	57.6727	5,856.45	55.2303	5,856.45	57.0757	5,856.45	59.0206	5,856.45	55.4442	5,856.45	54.7138	5,856.45	57.5231
6,062.99	83.2583	6,062.99	82.5531	6,062.99	82.4939	6,062.99	81.6108	6,062.99	81.1808	6,062.99	81.336	6,062.99	80.7633	6,062.99	80.4698	6,062.99	80.0299	6,062.99	78.5129	6,062.99	77.8881	6,062.99	76.0919	6,062.99	75.1158	6,062.99	72.919	6,062.99	72.1171	6,062.99	69.7677	6,062.99	69.1256	6,062.99	67.8314	6,062.99	66.7837	6,062.99	66.0314	6,062.99	64.2631	6,062.99	63.362	6,062.99	60.9593	6,062.99	60.8141	6,062.99	57.2785	6,062.99	59.4702	6,062.99	56.7177	6,062.99	52.6636	6,062.99	54.1706	6,062.99	57.8161	6,062.99	50.1209	6,062.99	54.3128	6,062.99	55.7683	6,062.99	55.4847	6,062.99	54.2572	6,062.99	57.8571
6,276.86	83.5549	6,276.86	83.1153	6,276.86	83.1516	6,276.86	82.4422	6,276.86	82.5118	6,276.86	81.7943	6,276.86	82.1387	6,276.86	80.2829	6,276.86	80.9715	6,276.86	77.6908	6,276.86	78.4315	6,276.86	74.8103	6,276.86	75.7636	6,276.86	71.5469	6,276.86	73.3506	6,276.86	68.6609	6,276.86	70.92	6,276.86	66.7365	6,276.86	68.0876	6,276.86	65.0841	6,276.86	64.8088	6,276.86	63.0725	6,276.86	62.6578	6,276.86	61.0454	6,276.86	60.5781	6,276.86	60.9156	6,276.86	59.6661	6,276.86	53.4913	6,276.86	59.0881	6,276.86	57.0134	6,276.86	49.0762	6,276.86	58.806	6,276.86	58.0639	6,276.86	53.3372	6,276.86	54.3076	6,276.86	58.8263
6,498.05	83.9003	6,498.05	83.1742	6,498.05	83.569	6,498.05	82.4403	6,498.05	82.7381	6,498.05	81.9387	6,498.05	82.2283	6,498.05	80.3226	6,498.05	81.0109	6,498.05	77.761	6,498.05	78.5154	6,498.05	75.6054	6,498.05	76.4125	6,498.05	73.0624	6,498.05	74.4658	6,498.05	70.713	6,498.05	72.1466	6,498.05	68.1851	6,498.05	68.899	6,498.05	66.3707	6,498.05	65.4974	6,498.05	65.2437	6,498.05	64.6062	6,498.05	62.211	6,498.05	62.8043	6,498.05	60.6769	6,498.05	62.0254	6,498.05	54.3357	6,498.05	59.9849	6,498.05	55.3261	6,498.05	51.2565	6,498.05	57.0799	6,498.05	57.661	6,498.05	53.5975	6,498.05	56.265	6,498.05	59.7202
6,727.29	84.1696	6,727.29	83.7083	6,727.29	83.9312	6,727.29	83.198	6,727.29	83.339	6,727.29	82.3398	6,727.29	82.6034	6,727.29	80.2166	6,727.29	80.8346	6,727.29	78.0418	6,727.29	78.522	6,727.29	76.7196	6,727.29	77.4557	6,727.29	74.6705	6,727.29	76.0274	6,727.29	72.1062	6,727.29	73.9125	6,727.29	68.7118	6,727.29	70.3641	6,727.29	66.7003	6,727.29	67.1201	6,727.29	65.4637	6,727.29	66.9184	6,727.29	61.6372	6,727.29	64.9198	6,727.29	61.8197	6,727.29	63.0963	6,727.29	56.2361	6,727.29	61.927	6,727.29	54.2538	6,727.29	45.5364	6,727.29	55.4295	6,727.29	55.8178	6,727.29	54.574	6,727.29	54.8235	6,727.29	60.6344
6,964.6	84.4721	6,964.6	83.9721	6,964.6	84.1896	6,964.6	83.0748	6,964.6	83.4277	6,964.6	81.6901	6,964.6	82.4613	6,964.6	79.5687	6,964.6	80.6528	6,964.6	78.2212	6,964.6	78.8039	6,964.6	77.4531	6,964.6	78.1583	6,964.6	75.7315	6,964.6	76.8515	6,964.6	72.9722	6,964.6	74.6943	6,964.6	69.4576	6,964.6	70.794	6,964.6	67.8721	6,964.6	67.2096	6,964.6	67.0154	6,964.6	67.4103	6,964.6	62.8537	6,964.6	65.5335	6,964.6	61.8745	6,964.6	62.8178	6,964.6	57.989	6,964.6	61.7644	6,964.6	53.019	6,964.6	50.0757	6,964.6	56.5469	6,964.6	57.7694	6,964.6	52.0993	6,964.6	54.8928	6,964.6	60.7581
7,209.96	84.3695	7,209.96	83.6859	7,209.96	83.9675	7,209.96	82.5576	7,209.96	82.9483	7,209.96	81.1276	7,209.96	81.7994	7,209.96	79.3064	7,209.96	79.9803	7,209.96	78.7657	7,209.96	78.7849	7,209.96	78.0827	7,209.96	78.4684	7,209.96	75.8611	7,209.96	76.8797	7,209.96	72.9786	7,209.96	74.5601	7,209.96	69.5364	7,209.96	70.3711	7,209.96	67.8119	7,209.96	66.6511	7,209.96	66.8279	7,209.96	66.9999	7,209.96	62.5554	7,209.96	64.8968	7,209.96	61.4906	7,209.96	63.0819	7,209.96	55.7913	7,209.96	61.4323	7,209.96	54.2765	7,209.96	28.8223	7,209.96	56.1338	7,209.96	53.2139	7,209.96	52.6876	7,209.96	54.9111	7,209.96	60.362
7,464.11	83.0364	7,464.11	82.6615	7,464.11	82.7777	7,464.11	81.733	7,464.11	82.0549	7,464.11	80.0507	7,464.11	80.6729	7,464.11	78.4622	7,464.11	78.6585	7,464.11	78.4471	7,464.11	78.1451	7,464.11	77.7293	7,464.11	77.7254	7,464.11	75.5965	7,464.11	76.0778	7,464.11	72.697	7,464.11	73.855	7,464.11	69.3141	7,464.11	69.0798	7,464.11	67.5635	7,464.11	65.1105	7,464.11	66.726	7,464.11	66.2245	7,464.11	60.5121	7,464.11	64.2352	7,464.11	59.8576	7,464.11	60.45	7,464.11	58.6949	7,464.11	60.7941	7,464.11	51.0779	7,464.11	40.6518	7,464.11	57.529	7,464.11	52.7058	7,464.11	51.6512	7,464.11	52.9139	7,464.11	61.005
7,727.78	82.1523	7,727.78	81.4564	7,727.78	81.8423	7,727.78	80.1679	7,727.78	80.7077	7,727.78	78.5883	7,727.78	79.1944	7,727.78	77.7505	7,727.78	77.8035	7,727.78	77.9308	7,727.78	77.5327	7,727.78	76.8193	7,727.78	76.7611	7,727.78	74.7068	7,727.78	75.0523	7,727.78	72.487	7,727.78	72.7839	7,727.78	69.2164	7,727.78	67.8549	7,727.78	66.5741	7,727.78	64.1378	7,727.78	65.4387	7,727.78	65.3034	7,727.78	60.4013	7,727.78	63.6955	7,727.78	59.2899	7,727.78	59.6851	7,727.78	59.3237	7,727.78	60.1939	7,727.78	44.2913	7,727.78	47.5504	7,727.78	52.6766	7,727.78	44.175	7,727.78	52.4192	7,727.78	54.023	7,727.78	60.3569
8,000.24	81.1918	8,000.24	80.7143	8,000.24	80.83	8,000.24	79.4842	8,000.24	79.8887	8,000.24	77.9233	8,000.24	78.5116	8,000.24	77.5277	8,000.24	77.472	8,000.24	77.7459	8,000.24	77.3432	8,000.24	76.4954	8,000.24	76.2161	8,000.24	74.7079	8,000.24	74.801	8,000.24	72.7362	8,000.24	72.5775	8,000.24	69.0148	8,000.24	67.8928	8,000.24	65.3728	8,000.24	65.0477	8,000.24	65.4935	8,000.24	65.4008	8,000.24	61.1405	8,000.24	63.1891	8,000.24	56.5368	8,000.24	58.0627	8,000.24	59.8247	8,000.24	58.9092	8,000.24	34.1155	8,000.24	47.3628	8,000.24	53.6847	8,000.24	48.7421	8,000.24	51.173	8,000.24	50.748	8,000.24	59.9698
8,282.23	81.9985	8,282.23	81.4379	8,282.23	81.6183	8,282.23	80.064	8,282.23	80.6151	8,282.23	78.9301	8,282.23	79.3696	8,282.23	78.7197	8,282.23	78.7194	8,282.23	78.2404	8,282.23	78.3378	8,282.23	77.083	8,282.23	77.0829	8,282.23	75.6378	8,282.23	75.9617	8,282.23	73.5039	8,282.23	73.5963	8,282.23	69.8748	8,282.23	69.5753	8,282.23	64.8475	8,282.23	66.5997	8,282.23	64.3536	8,282.23	65.8055	8,282.23	61.4297	8,282.23	64.1952	8,282.23	58.2868	8,282.23	58.0064	8,282.23	61.7119	8,282.23	60.5586	8,282.23	39.3072	8,282.23	51.6195	8,282.23	56.1535	8,282.23	51.7582	8,282.23	50.7318	8,282.23	47.3055	8,282.23	60.3133
8,574.46	82.6949	8,574.46	82.1807	8,574.46	82.5374	8,574.46	81.3618	8,574.46	81.7507	8,574.46	80.6472	8,574.46	80.8717	8,574.46	80.2475	8,574.46	80.2832	8,574.46	79.459	8,574.46	79.3833	8,574.46	77.9914	8,574.46	77.9815	8,574.46	76.5718	8,574.46	76.9419	8,574.46	74.7842	8,574.46	74.7979	8,574.46	71.4401	8,574.46	71.1667	8,574.46	65.9701	8,574.46	67.6579	8,574.46	64.152	8,574.46	66.3104	8,574.46	62.6745	8,574.46	64.7953	8,574.46	57.3183	8,574.46	58.3083	8,574.46	59.7595	8,574.46	60.2871	8,574.46	16.9515	8,574.46	48.5189	8,574.46	57.5947	8,574.46	51.9682	8,574.46	45.804	8,574.46	52.1497	8,574.46	61.0013
8,876.22	83.3183	8,876.22	83.0267	8,876.22	83.0377	8,876.22	82.3311	8,876.22	82.3339	8,876.22	81.7364	8,876.22	81.6081	8,876.22	81.1697	8,876.22	80.764	8,876.22	79.9757	8,876.22	79.3327	8,876.22	78.6159	8,876.22	77.9953	8,876.22	77.0735	8,876.22	76.9738	8,876.22	74.951	8,876.22	74.5497	8,876.22	71.6314	8,876.22	71.0396	8,876.22	66.0687	8,876.22	67.3855	8,876.22	63.9778	8,876.22	65.3984	8,876.22	63.0768	8,876.22	65.0244	8,876.22	57.4653	8,876.22	59.3615	8,876.22	59.4151	8,876.22	58.1794	8,876.22	33.3754	8,876.22	47.7658	8,876.22	57.7726	8,876.22	49.1774	8,876.22	46.1812	8,876.22	54.2022	8,876.22	61.2358
9,189.7	83.3345	9,189.7	82.8982	9,189.7	82.8591	9,189.7	82.0725	9,189.7	81.9761	9,189.7	81.3884	9,189.7	81.1251	9,189.7	80.3242	9,189.7	79.78	9,189.7	79.0286	9,189.7	78.0852	9,189.7	77.6311	9,189.7	76.8181	9,189.7	75.5452	9,189.7	75.1845	9,189.7	73.4512	9,189.7	72.3473	9,189.7	69.6625	9,189.7	68.779	9,189.7	63.7458	9,189.7	65.4933	9,189.7	62.0722	9,189.7	63.3001	9,189.7	61.2302	9,189.7	62.3189	9,189.7	57.2434	9,189.7	57.4974	9,189.7	57.498	9,189.7	56.0531	9,189.7	37.7276	9,189.7	50.1255	9,189.7	54.264	9,189.7	33.7519	9,189.7	43.1028	9,189.7	52.9237	9,189.7	57.4921
9,513.43	82.8605	9,513.43	82.5004	9,513.43	82.4635	9,513.43	81.5489	9,513.43	81.5363	9,513.43	80.3069	9,513.43	80.1778	9,513.43	78.8176	9,513.43	78.2703	9,513.43	77.2356	9,513.43	76.3499	9,513.43	75.4611	9,513.43	74.6851	9,513.43	73.1253	9,513.43	72.4567	9,513.43	70.6298	9,513.43	69.1768	9,513.43	66.6357	9,513.43	65.3006	9,513.43	60.4117	9,513.43	61.6834	9,513.43	58.7406	9,513.43	59.598	9,513.43	58.866	9,513.43	58.7177	9,513.43	53.653	9,513.43	52.4052	9,513.43	54.3496	9,513.43	49.6347	9,513.43	35.0474	9,513.43	36.4544	9,513.43	51.5969	9,513.43	40.4829	9,513.43	40.6178	9,513.43	51.5025	9,513.43	55.9986
9,848.88	83.4205	9,848.88	82.8466	9,848.88	83.1413	9,848.88	81.823	9,848.88	82.0269	9,848.88	80.2394	9,848.88	80.2343	9,848.88	78.1092	9,848.88	77.7936	9,848.88	76.1468	9,848.88	75.4513	9,848.88	73.54	9,848.88	73.0657	9,848.88	70.4459	9,848.88	69.8882	9,848.88	67.9359	9,848.88	66.7412	9,848.88	64.0432	9,848.88	62.4673	9,848.88	59.1635	9,848.88	58.0296	9,848.88	57.1992	9,848.88	56.6681	9,848.88	56.9247	9,848.88	55.2254	9,848.88	53.0671	9,848.88	48.4643	9,848.88	50.3806	9,848.88	44.6072	9,848.88	36.7721	9,848.88	40.0539	9,848.88	44.8827	9,848.88	36.2585	9,848.88	36.7192	9,848.88	53.4946	9,848.88	53.9201
10,196.8	84.6901	10,196.8	84.2559	10,196.8	84.2561	10,196.8	83.0072	10,196.8	83.0673	10,196.8	81.1955	10,196.8	81.2104	10,196.8	79.1787	10,196.8	78.6642	10,196.8	76.745	10,196.8	76.0121	10,196.8	73.5941	10,196.8	73.0049	10,196.8	70.3628	10,196.8	69.5575	10,196.8	67.5673	10,196.8	66.2877	10,196.8	63.4569	10,196.8	60.5383	10,196.8	58.6459	10,196.8	56.1713	10,196.8	57.3459	10,196.8	55.2301	10,196.8	55.7139	10,196.8	55.7356	10,196.8	53.3585	10,196.8	48.5115	10,196.8	53.0091	10,196.8	47.7863	10,196.8	37.9571	10,196.8	46.8254	10,196.8	43.3975	10,196.8	37.6911	10,196.8	44.2848	10,196.8	51.3067	10,196.8	53.0063
10,556.4	85.3773	10,556.4	84.9359	10,556.4	84.9925	10,556.4	83.7799	10,556.4	83.8177	10,556.4	81.9193	10,556.4	81.8292	10,556.4	79.6752	10,556.4	79.1925	10,556.4	77.2502	10,556.4	76.595	10,556.4	74.1174	10,556.4	73.2888	10,556.4	71.2889	10,556.4	70.1014	10,556.4	68.8987	10,556.4	66.5125	10,556.4	64.7934	10,556.4	61.164	10,556.4	58.9986	10,556.4	58.9901	10,556.4	57.5491	10,556.4	56.3945	10,556.4	56.6267	10,556.4	56.1037	10,556.4	49.8139	10,556.4	45.8853	10,556.4	52.3542	10,556.4	48.8653	10,556.4	34.7581	10,556.4	46.9108	10,556.4	50.3834	10,556.4	36.0815	10,556.4	44.9232	10,556.4	49.7463	10,556.4	52.1337
10,928.5	85.6361	10,928.5	85.1474	10,928.5	85.1964	10,928.5	83.7676	10,928.5	83.9324	10,928.5	81.8478	10,928.5	81.8926	10,928.5	79.726	10,928.5	79.3254	10,928.5	77.0976	10,928.5	76.5961	10,928.5	74.077	10,928.5	73.1247	10,928.5	71.4316	10,928.5	70.0459	10,928.5	69.0713	10,928.5	66.4017	10,928.5	65.0575	10,928.5	62.1418	10,928.5	59.0676	10,928.5	59.827	10,928.5	57.002	10,928.5	55.7212	10,928.5	55.9494	10,928.5	55.0518	10,928.5	43.7938	10,928.5	44.2134	10,928.5	50.5668	10,928.5	45.4435	10,928.5	40.0273	10,928.5	46.3529	10,928.5	49.5709	10,928.5	40.4611	10,928.5	38.7371	10,928.5	47.7993	10,928.5	51.8573
11,313.7	85.4183	11,313.7	84.923	11,313.7	85.0198	11,313.7	83.6342	11,313.7	83.7244	11,313.7	81.6456	11,313.7	81.579	11,313.7	79.3089	11,313.7	78.8824	11,313.7	76.5857	11,313.7	75.8671	11,313.7	73.421	11,313.7	72.1936	11,313.7	70.5986	11,313.7	69.1726	11,313.7	68.1244	11,313.7	65.4498	11,313.7	64.2099	11,313.7	61.2651	11,313.7	58.0351	11,313.7	58.403	11,313.7	55.2825	11,313.7	53.9277	11,313.7	54.7461	11,313.7	53.4652	11,313.7	36.7904	11,313.7	41.0021	11,313.7	48.5468	11,313.7	45.744	11,313.7	44.5657	11,313.7	48.1515	11,313.7	46.5028	11,313.7	46.8545	11,313.7	46.3258	11,313.7	51.7744	11,313.7	55.1176
11,712.9	84.8763	11,712.9	84.3975	11,712.9	84.451	11,712.9	82.9431	11,712.9	83.0977	11,712.9	80.9086	11,712.9	80.9094	11,712.9	78.732	11,712.9	78.1452	11,712.9	75.826	11,712.9	74.6626	11,712.9	72.8214	11,712.9	70.7881	11,712.9	69.5131	11,712.9	67.4595	11,712.9	67.2863	11,712.9	63.0606	11,712.9	63.0176	11,712.9	57.952	11,712.9	56.1653	11,712.9	55.8283	11,712.9	55.5377	11,712.9	50.7427	11,712.9	55.6777	11,712.9	51.9325	11,712.9	37.7558	11,712.9	36.276	11,712.9	48.2792	11,712.9	47.052	11,712.9	45.0624	11,712.9	48.9729	11,712.9	44.8317	11,712.9	50.5719	11,712.9	50.5354	11,712.9	53.575	11,712.9	56.88
12,126	84.603	12,126	84.1032	12,126	84.0742	12,126	82.6256	12,126	82.6507	12,126	80.5437	12,126	80.4542	12,126	78.0983	12,126	77.4143	12,126	75.2241	12,126	73.7464	12,126	71.9871	12,126	69.7286	12,126	68.5971	12,126	65.6879	12,126	66.6551	12,126	60.5763	12,126	61.7773	12,126	56.7639	12,126	55.4698	12,126	56.3057	12,126	53.9356	12,126	49.7933	12,126	53.1121	12,126	48.6298	12,126	37.7656	12,126	35.6885	12,126	43.8403	12,126	46.0661	12,126	46.6118	12,126	42.505	12,126	45.411	12,126	48.3049	12,126	50.1529	12,126	52.2991	12,126	55.9599
12,553.7	84.7831	12,553.7	84.2313	12,553.7	84.3176	12,553.7	82.743	12,553.7	82.9052	12,553.7	80.6065	12,553.7	80.5579	12,553.7	78.118	12,553.7	77.2162	12,553.7	75.1072	12,553.7	73.2174	12,553.7	71.4897	12,553.7	68.5865	12,553.7	68.1239	12,553.7	63.8564	12,553.7	65.8476	12,553.7	59.5121	12,553.7	60.5097	12,553.7	57.8014	12,553.7	54.2178	12,553.7	57.0346	12,553.7	52.6313	12,553.7	49.0556	12,553.7	50.2912	12,553.7	45.8148	12,553.7	45.0732	12,553.7	44.2983	12,553.7	36.9682	12,553.7	46.4494	12,553.7	50.2013	12,553.7	42.5708	12,553.7	49.3255	12,553.7	51.9466	12,553.7	49.6699	12,553.7	51.8063	12,553.7	54.7593
12,996.1	85.158	12,996.1	84.5547	12,996.1	84.6606	12,996.1	82.854	12,996.1	83.192	12,996.1	80.5943	12,996.1	80.7128	12,996.1	78.0489	12,996.1	77.0202	12,996.1	74.7359	12,996.1	72.3814	12,996.1	70.7776	12,996.1	67.1472	12,996.1	66.8927	12,996.1	62.8652	12,996.1	64.1433	12,996.1	59.7703	12,996.1	57.604	12,996.1	57.5507	12,996.1	51.1575	12,996.1	56.3533	12,996.1	51.257	12,996.1	49.3031	12,996.1	45.1218	12,996.1	47.6939	12,996.1	49.3344	12,996.1	45.1758	12,996.1	43.6486	12,996.1	45.6335	12,996.1	53.0987	12,996.1	41.9961	12,996.1	51.1495	12,996.1	54.688	12,996.1	54.3913	12,996.1	55.2605	12,996.1	56.0932
13,454.6	85.331	13,454.6	84.7151	13,454.6	84.9337	13,454.6	83.1958	13,454.6	83.4727	13,454.6	80.7031	13,454.6	80.756	13,454.6	77.7556	13,454.6	76.6899	13,454.6	74.2257	13,454.6	71.9286	13,454.6	69.3153	13,454.6	66.8237	13,454.6	65.1964	13,454.6	63.6341	13,454.6	60.4706	13,454.6	60.4235	13,454.6	52.7935	13,454.6	59.0344	13,454.6	44.5004	13,454.6	58.5201	13,454.6	48.6023	13,454.6	49.2795	13,454.6	45.7653	13,454.6	49.1225	13,454.6	53.0041	13,454.6	43.9681	13,454.6	43.8037	13,454.6	44.4893	13,454.6	53.817	13,454.6	42.0742	13,454.6	51.9423	13,454.6	53.9778	13,454.6	55.8745	13,454.6	57.1236	13,454.6	58.6024
13,928.5	85.6714	13,928.5	85.0026	13,928.5	85.1419	13,928.5	83.1696	13,928.5	83.4457	13,928.5	80.5327	13,928.5	80.3903	13,928.5	77.3114	13,928.5	76.0461	13,928.5	72.7452	13,928.5	71.0836	13,928.5	67.3172	13,928.5	66.3728	13,928.5	61.4946	13,928.5	62.8037	13,928.5	53.5439	13,928.5	59.389	13,928.5	25.62	13,928.5	58.7779	13,928.5	46.738	13,928.5	58.7075	13,928.5	47.6926	13,928.5	51.466	13,928.5	49.5966	13,928.5	48.7556	13,928.5	55.6641	13,928.5	40.1489	13,928.5	48.8087	13,928.5	47.771	13,928.5	53.3276	13,928.5	34.7981	13,928.5	53.3911	13,928.5	54.4153	13,928.5	55.5396	13,928.5	57.7443	13,928.5	57.9256
14,419.9	85.6859	14,419.9	85.0041	14,419.9	85.0472	14,419.9	83.0382	14,419.9	83.1238	14,419.9	79.9268	14,419.9	79.8301	14,419.9	76.0142	14,419.9	75.2573	14,419.9	70.5151	14,419.9	70.1293	14,419.9	64.0269	14,419.9	65.2007	14,419.9	54.2979	14,419.9	60.0567	14,419.9	48.3657	14,419.9	57.3245	14,419.9	52.0637	14,419.9	56.0019	14,419.9	53.6735	14,419.9	56.3549	14,419.9	50.3342	14,419.9	49.629	14,419.9	51.5814	14,419.9	48.2017	14,419.9	56.1504	14,419.9	42.3407	14,419.9	52.6639	14,419.9	51.1247	14,419.9	52.0827	14,419.9	46.5678	14,419.9	52.0508	14,419.9	52.8424	14,419.9	55.3754	14,419.9	57.262	14,419.9	57.6523
14,928.2	86.2461	14,928.2	85.4418	14,928.2	85.4978	14,928.2	83.0753	14,928.2	83.306	14,928.2	79.2349	14,928.2	79.779	14,928.2	74.5142	14,928.2	74.8842	14,928.2	67.9482	14,928.2	69.229	14,928.2	59.1524	14,928.2	63.3108	14,928.2	48.846	14,928.2	53.1792	14,928.2	58.4139	14,928.2	53.1413	14,928.2	57.5108	14,928.2	53.0376	14,928.2	57.5586	14,928.2	54.7755	14,928.2	53.1126	14,928.2	47.623	14,928.2	53.993	14,928.2	46.7137	14,928.2	57.3804	14,928.2	44.3655	14,928.2	54.54	14,928.2	52.7005	14,928.2	55.3756	14,928.2	52.7197	14,928.2	54.3347	14,928.2	53.1631	14,928.2	56.0757	14,928.2	58.6181	14,928.2	58.6054
15,454.8	86.5589	15,454.8	85.6238	15,454.8	85.6174	15,454.8	83.0817	15,454.8	83.119	15,454.8	78.9188	15,454.8	79.2482	15,454.8	73.0262	15,454.8	73.7467	15,454.8	64.8484	15,454.8	67.1522	15,454.8	49.387	15,454.8	57.3912	15,454.8	57.7123	15,454.8	46.8132	15,454.8	62.2053	15,454.8	53.2719	15,454.8	60.7265	15,454.8	57.1396	15,454.8	59.1587	15,454.8	57.4343	15,454.8	53.2082	15,454.8	44.8738	15,454.8	54.1471	15,454.8	47.3411	15,454.8	56.5745	15,454.8	49.1975	15,454.8	56.473	15,454.8	54.6883	15,454.8	53.8141	15,454.8	57.0546	15,454.8	56.7127	15,454.8	55.4242	15,454.8	56.8247	15,454.8	60.8236	15,454.8	60.6571
15,999.8	85.8637	15,999.8	84.9498	15,999.8	84.775	15,999.8	82.2453	15,999.8	82.0829	15,999.8	77.6494	15,999.8	77.8101	15,999.8	71.4324	15,999.8	71.6795	15,999.8	61.9484	15,999.8	63.6505	15,999.8	40.4331	15,999.8	41.6477	15,999.8	62.0069	15,999.8	56.1274	15,999.8	64.912	15,999.8	57.4523	15,999.8	62.9408	15,999.8	60.7378	15,999.8	60.4414	15,999.8	59.6997	15,999.8	54.2203	15,999.8	45.3456	15,999.8	54.8298	15,999.8	47.2342	15,999.8	54.5832	15,999.8	51.4871	15,999.8	57.2742	15,999.8	54.3515	15,999.8	50.9323	15,999.8	58.1436	15,999.8	55.5951	15,999.8	56.8007	15,999.8	56.6591	15,999.8	60.9829	15,999.8	60.9474
16,564.5	84.6715	16,564.5	83.8091	16,564.5	83.5439	16,564.5	81.039	16,564.5	80.8127	16,564.5	76.0968	16,564.5	76.3084	16,564.5	69.6664	16,564.5	69.4788	16,564.5	57.2943	16,564.5	59.2922	16,564.5	53.2705	16,564.5	51.1235	16,564.5	63.2438	16,564.5	58.9261	16,564.5	65.2316	16,564.5	58.8796	16,564.5	62.4895	16,564.5	60.9569	16,564.5	60.2831	16,564.5	59.406	16,564.5	54.7987	16,564.5	48.4573	16,564.5	55.3345	16,564.5	46.6113	16,564.5	53.9313	16,564.5	52.6415	16,564.5	57.2397	16,564.5	51.9501	16,564.5	53.3649	16,564.5	57.7743	16,564.5	53.7752	16,564.5	55.2142	16,564.5	55.0216	16,564.5	60.3201	16,564.5	59.9426
17,148.2	84.0881	17,148.2	83.1511	17,148.2	82.8919	17,148.2	80.1009	17,148.2	79.9231	17,148.2	74.7097	17,148.2	74.8934	17,148.2	67.617	17,148.2	67.2602	17,148.2	45.8611	17,148.2	57.1232	17,148.2	57.3793	17,148.2	57.0833	17,148.2	63.0694	17,148.2	59.7588	17,148.2	63.8557	17,148.2	59.4599	17,148.2	61.0097	17,148.2	61.3136	17,148.2	58.9021	17,148.2	58.4478	17,148.2	53.0549	17,148.2	52.0366	17,148.2	54.9737	17,148.2	48.2515	17,148.2	53.4471	17,148.2	53.6136	17,148.2	56.6488	17,148.2	48.2792	17,148.2	53.9586	17,148.2	57.3591	17,148.2	53.1309	17,148.2	53.5796	17,148.2	55.9825	17,148.2	59.2937	17,148.2	60.0282
17,753.2	83.9853	17,753.2	82.8107	17,753.2	82.8066	17,753.2	79.4152	17,753.2	79.5694	17,753.2	73.4495	17,753.2	73.918	17,753.2	64.9065	17,753.2	65.1951	17,753.2	47.4782	17,753.2	58.6127	17,753.2	58.6131	17,753.2	60.6809	17,753.2	60.8919	17,753.2	60.681	17,753.2	60.8739	17,753.2	61.0034	17,753.2	59.5495	17,753.2	59.4422	17,753.2	55.8757	17,753.2	55.7901	17,753.2	53.015	17,753.2	55.7662	17,753.2	53.2992	17,753.2	52.0239	17,753.2	53.1848	17,753.2	54.639	17,753.2	54.3187	17,753.2	44.8285	17,753.2	53.327	17,753.2	56.5148	17,753.2	53.2197	17,753.2	53.488	17,753.2	57.4029	17,753.2	58.9104	17,753.2	60.7734
18,379.4	82.9831	18,379.4	81.6655	18,379.4	81.7462	18,379.4	77.8735	18,379.4	78.068	18,379.4	71.1275	18,379.4	71.5041	18,379.4	62.076	18,379.4	61.7688	18,379.4	52.9225	18,379.4	60.3907	18,379.4	57.622	18,379.4	61.7732	18,379.4	56.1759	18,379.4	59.6735	18,379.4	56.8261	18,379.4	60.2871	18,379.4	57.6307	18,379.4	53.2845	18,379.4	53.6887	18,379.4	51.7251	18,379.4	56.4143	18,379.4	57.7505	18,379.4	51.8818	18,379.4	52.7425	18,379.4	55.7112	18,379.4	55.2369	18,379.4	50.5916	18,379.4	47.3247	18,379.4	53.176	18,379.4	54.3904	18,379.4	48.093	18,379.4	51.6181	18,379.4	56.888	18,379.4	58.2792	18,379.4	60.3738
19,027.6	81.3661	19,027.6	79.6934	19,027.6	79.9927	19,027.6	75.2948	19,027.6	75.7395	19,027.6	68.1938	19,027.6	68.531	19,027.6	57.9151	19,027.6	58.8241	19,027.6	56.6974	19,027.6	61.3429	19,027.6	55.8979	19,027.6	61.5213	19,027.6	43.6259	19,027.6	56.8227	19,027.6	56.1834	19,027.6	58.0752	19,027.6	55.6148	19,027.6	50.3503	19,027.6	56.4039	19,027.6	53.199	19,027.6	58.0842	19,027.6	57.5737	19,027.6	51.5768	19,027.6	52.8095	19,027.6	56.7577	19,027.6	55.1778	19,027.6	50.0777	19,027.6	51.9508	19,027.6	52.628	19,027.6	51.7201	19,027.6	47.1739	19,027.6	51.1136	19,027.6	55.5613	19,027.6	56.5486	19,027.6	60.0833
19,698.5	80.9525	19,698.5	78.9848	19,698.5	79.3645	19,698.5	73.8821	19,698.5	74.3677	19,698.5	65.3912	19,698.5	66.505	19,698.5	53.7105	19,698.5	60.0336	19,698.5	58.9337	19,698.5	62.6372	19,698.5	53.7243	19,698.5	61.6197	19,698.5	47.7022	19,698.5	56.1833	19,698.5	57.9114	19,698.5	58.341	19,698.5	56.0263	19,698.5	51.8822	19,698.5	57.3985	19,698.5	55.2235	19,698.5	58.6098	19,698.5	57.4482	19,698.5	52.6	19,698.5	52.662	19,698.5	56.6085	19,698.5	54.6851	19,698.5	53.305	19,698.5	52.9683	19,698.5	51.6544	19,698.5	51.1973	19,698.5	49.7631	19,698.5	50.1969	19,698.5	55.5702	19,698.5	56.8069	19,698.5	60.4966
19,999.5	80.7022	19,999.5	78.6383	19,999.5	78.9455	19,999.5	73.0406	19,999.5	73.6094	19,999.5	63.2485	19,999.5	65.5722	19,999.5	53.4084	19,999.5	61.5174	19,999.5	60.5193	19,999.5	62.8722	19,999.5	54.2601	19,999.5	61.9588	19,999.5	48.557	19,999.5	56.4702	19,999.5	58.5612	19,999.5	58.8044	19,999.5	56.2761	19,999.5	53.4569	19,999.5	58.3089	19,999.5	56.2732	19,999.5	59.2714	19,999.5	57.9278	19,999.5	54.0381	19,999.5	52.7108	19,999.5	56.6775	19,999.5	55.2295	19,999.5	55.0072	19,999.5	52.0292	19,999.5	52.1107	19,999.5	53.8409	19,999.5	49.1948	19,999.5	48.6337	19,999.5	55.1551	19,999.5	57.265	19,999.5	60.6358
