"SPL Vertical"
"On-Axis"		"10°"		"-10°"		"20°"		"-20°"		"30°"		"-30°"		"40°"		"-40°"		"50°"		"-50°"		"60°"		"-60°"		"70°"		"-70°"		"80°"		"-80°"		"90°"		"-90°"		"100°"		"-100°"		"110°"		"-110°"		"120°"		"-120°"		"130°"		"-130°"		"140°"		"-140°"		"150°"		"-150°"		"160°"		"-160°"		"170°"		"-170°"		"180°"
"Frequency / Hz"	"Sound Pressure Level / dB (re 20 µPa/V)  [2.83  V @ 1. m]"	"Frequency / Hz"	"Sound Pressure Level / dB (re 20 µPa/V)  [2.83  V @ 1. m]"	"Frequency / Hz"	"Sound Pressure Level / dB (re 20 µPa/V)  [2.83  V @ 1. m]"	"Frequency / Hz"	"Sound Pressure Level / dB (re 20 µPa/V)  [2.83  V @ 1. m]"	"Frequency / Hz"	"Sound Pressure Level / dB (re 20 µPa/V)  [2.83  V @ 1. m]"	"Frequency / Hz"	"Sound Pressure Level / dB (re 20 µPa/V)  [2.83  V @ 1. m]"	"Frequency / Hz"	"Sound Pressure Level / dB (re 20 µPa/V)  [2.83  V @ 1. m]"	"Frequency / Hz"	"Sound Pressure Level / dB (re 20 µPa/V)  [2.83  V @ 1. m]"	"Frequency / Hz"	"Sound Pressure Level / dB (re 20 µPa/V)  [2.83  V @ 1. m]"	"Frequency / Hz"	"Sound Pressure Level / dB (re 20 µPa/V)  [2.83  V @ 1. m]"	"Frequency / Hz"	"Sound Pressure Level / dB (re 20 µPa/V)  [2.83  V @ 1. m]"	"Frequency / Hz"	"Sound Pressure Level / dB (re 20 µPa/V)  [2.83  V @ 1. m]"	"Frequency / Hz"	"Sound Pressure Level / dB (re 20 µPa/V)  [2.83  V @ 1. m]"	"Frequency / Hz"	"Sound Pressure Level / dB (re 20 µPa/V)  [2.83  V @ 1. m]"	"Frequency / Hz"	"Sound Pressure Level / dB (re 20 µPa/V)  [2.83  V @ 1. m]"	"Frequency / Hz"	"Sound Pressure Level / dB (re 20 µPa/V)  [2.83  V @ 1. m]"	"Frequency / Hz"	"Sound Pressure Level / dB (re 20 µPa/V)  [2.83  V @ 1. m]"	"Frequency / Hz"	"Sound Pressure Level / dB (re 20 µPa/V)  [2.83  V @ 1. m]"	"Frequency / Hz"	"Sound Pressure Level / dB (re 20 µPa/V)  [2.83  V @ 1. m]"	"Frequency / Hz"	"Sound Pressure Level / dB (re 20 µPa/V)  [2.83  V @ 1. m]"	"Frequency / Hz"	"Sound Pressure Level / dB (re 20 µPa/V)  [2.83  V @ 1. m]"	"Frequency / Hz"	"Sound Pressure Level / dB (re 20 µPa/V)  [2.83  V @ 1. m]"	"Frequency / Hz"	"Sound Pressure Level / dB (re 20 µPa/V)  [2.83  V @ 1. m]"	"Frequency / Hz"	"Sound Pressure Level / dB (re 20 µPa/V)  [2.83  V @ 1. m]"	"Frequency / Hz"	"Sound Pressure Level / dB (re 20 µPa/V)  [2.83  V @ 1. m]"	"Frequency / Hz"	"Sound Pressure Level / dB (re 20 µPa/V)  [2.83  V @ 1. m]"	"Frequency / Hz"	"Sound Pressure Level / dB (re 20 µPa/V)  [2.83  V @ 1. m]"	"Frequency / Hz"	"Sound Pressure Level / dB (re 20 µPa/V)  [2.83  V @ 1. m]"	"Frequency / Hz"	"Sound Pressure Level / dB (re 20 µPa/V)  [2.83  V @ 1. m]"	"Frequency / Hz"	"Sound Pressure Level / dB (re 20 µPa/V)  [2.83  V @ 1. m]"	"Frequency / Hz"	"Sound Pressure Level / dB (re 20 µPa/V)  [2.83  V @ 1. m]"	"Frequency / Hz"	"Sound Pressure Level / dB (re 20 µPa/V)  [2.83  V @ 1. m]"	"Frequency / Hz"	"Sound Pressure Level / dB (re 20 µPa/V)  [2.83  V @ 1. m]"	"Frequency / Hz"	"Sound Pressure Level / dB (re 20 µPa/V)  [2.83  V @ 1. m]"	"Frequency / Hz"	"Sound Pressure Level / dB (re 20 µPa/V)  [2.83  V @ 1. m]"	"Frequency / Hz"	"Sound Pressure Level / dB (re 20 µPa/V)  [2.83  V @ 1. m]"
20.5078	46.1633	20.5078	45.253	20.5078	46.756	20.5078	44.0493	20.5078	47.0269	20.5078	42.7007	20.5078	46.9601	20.5078	41.7299	20.5078	46.5165	20.5078	42.0338	20.5078	45.629	20.5078	43.7317	20.5078	44.2225	20.5078	45.965	20.5078	42.3902	20.5078	48.1359	20.5078	41.2197	20.5078	50.0686	20.5078	42.7767	20.5078	51.7472	20.5078	45.9502	20.5078	53.1917	20.5078	48.9394	20.5078	54.4234	20.5078	51.3812	20.5078	55.4556	20.5078	53.3192	20.5078	56.2936	20.5078	54.8314	20.5078	56.9355	20.5078	55.9772	20.5078	57.3733	20.5078	56.7988	20.5078	57.5952	20.5078	57.3269	20.5078	57.5856
21.9727	49.5004	21.9727	49.0187	21.9727	49.8524	21.9727	48.499	21.9727	50.0253	21.9727	48.1018	21.9727	49.9916	21.9727	48.0489	21.9727	49.7397	21.9727	48.5174	21.9727	49.2872	21.9727	49.4944	21.9727	48.7275	21.9727	50.7945	21.9727	48.3192	21.9727	52.2125	21.9727	48.5068	21.9727	53.6117	21.9727	49.5781	21.9727	54.9214	21.9727	51.2846	21.9727	56.1092	21.9727	53.1622	21.9727	57.16	21.9727	54.9176	21.9727	58.0645	21.9727	56.4334	21.9727	58.8139	21.9727	57.6772	21.9727	59.3978	21.9727	58.6475	21.9727	59.8038	21.9727	59.3534	21.9727	60.0175	21.9727	59.8075	21.9727	60.0239
23.4375	52.0038	23.4375	51.5652	23.4375	52.3235	23.4375	51.0839	23.4375	52.4812	23.4375	50.6896	23.4375	52.452	23.4375	50.5658	23.4375	52.2242	23.4375	50.881	23.4375	51.8102	23.4375	51.6712	23.4375	51.2817	23.4375	52.8109	23.4375	50.8401	23.4375	54.1177	23.4375	50.8563	23.4375	55.4481	23.4375	51.6535	23.4375	56.7173	23.4375	53.129	23.4375	57.8814	23.4375	54.8783	23.4375	58.9175	23.4375	56.5787	23.4375	59.8118	23.4375	58.0781	23.4375	60.5526	23.4375	59.3234	23.4375	61.1279	23.4375	60.3034	23.4375	61.5242	23.4375	61.0223	23.4375	61.7268	23.4375	61.4905	23.4375	61.7206
24.9023	54.5803	24.9023	54.2506	24.9023	54.8343	24.9023	53.9108	24.9023	54.9731	24.9023	53.6605	24.9023	54.9765	24.9023	53.6249	24.9023	54.8417	24.9023	53.913	24.9023	54.5936	24.9023	54.5556	24.9023	54.307	24.9023	55.4862	24.9023	54.137	24.9023	56.5864	24.9023	54.3102	24.9023	57.7449	24.9023	54.9991	24.9023	58.8821	24.9023	56.1595	24.9023	59.9485	24.9023	57.5674	24.9023	60.9137	24.9023	58.996	24.9023	61.757	24.9023	60.3023	24.9023	62.4624	24.9023	61.4154	24.9023	63.0148	24.9023	62.3059	24.9023	63.399	24.9023	62.9653	24.9023	63.6	24.9023	63.3953	24.9023	63.6032
26.3672	57.0223	26.3672	56.7818	26.3672	57.2176	26.3672	56.5494	26.3672	57.3329	26.3672	56.3982	26.3672	57.3494	26.3672	56.4129	26.3672	57.2652	26.3672	56.665	26.3672	57.1016	26.3672	57.1813	26.3672	56.9181	26.3672	57.9296	26.3672	56.8281	26.3672	58.8373	26.3672	56.9892	26.3672	59.8232	26.3672	57.5319	26.3672	60.8189	26.3672	58.457	26.3672	61.7743	26.3672	59.6286	26.3672	62.6541	26.3672	60.8699	26.3672	63.4327	26.3672	62.0443	26.3672	64.0893	26.3672	63.0698	26.3672	64.6056	26.3672	63.9046	26.3672	64.9646	26.3672	64.5308	26.3672	65.1501	26.3672	64.9437	26.3672	65.1472
27.832	59.7231	27.832	59.5236	27.832	59.8877	27.832	59.3291	27.832	59.9916	27.832	59.193	27.832	60.0212	27.832	59.1778	27.832	59.9772	27.832	59.3412	27.832	59.8792	27.832	59.7158	27.832	59.7743	27.832	60.2951	27.832	59.7445	27.832	61.0362	27.832	59.8986	27.832	61.8779	27.832	60.3303	27.832	62.7591	27.832	61.0585	27.832	63.6285	27.832	62.0068	27.832	64.4463	27.832	63.0496	27.832	65.1819	27.832	64.069	27.832	65.8104	27.832	64.9814	27.832	66.3105	27.832	65.7362	27.832	66.6634	27.832	66.3069	27.832	66.8521	27.832	66.6824	27.832	66.8622
29.2969	61.6588	29.2969	61.5045	29.2969	61.792	29.2969	61.3614	29.2969	61.8826	29.2969	61.271	29.2969	61.9192	29.2969	61.2801	29.2969	61.9031	29.2969	61.4315	29.2969	61.8512	29.2969	61.7517	29.2969	61.8023	29.2969	62.2406	29.2969	61.8199	29.2969	62.8716	29.2969	61.9855	29.2969	63.6006	29.2969	62.3696	29.2969	64.3786	29.2969	62.9923	29.2969	65.1603	29.2969	63.8049	29.2969	65.9071	29.2969	64.7137	29.2969	66.5874	29.2969	65.6198	29.2969	67.1747	29.2969	66.4447	29.2969	67.646	29.2969	67.136	29.2969	67.9811	29.2969	67.6629	29.2969	68.1625	29.2969	68.0107	29.2969	68.1758
30.7617	63.628	30.7617	63.4996	30.7617	63.747	30.7617	63.3879	30.7617	63.8387	30.7617	63.3255	30.7617	63.894	30.7617	63.3481	30.7617	63.9141	30.7617	63.4883	30.7617	63.9131	30.7617	63.7669	30.7617	63.9214	30.7617	64.1868	30.7617	63.9863	30.7617	64.7309	30.7617	64.1659	30.7617	65.3676	30.7617	64.5112	30.7617	66.0582	30.7617	65.041	30.7617	66.7635	30.7617	65.7274	30.7617	67.4478	30.7617	66.5049	30.7617	68.0797	30.7617	67.2954	30.7617	68.6316	30.7617	68.0287	30.7617	69.0792	30.7617	68.6526	30.7617	69.4012	30.7617	69.1329	30.7617	69.5791	30.7617	69.4506	30.7617	69.5986
32.2266	65.3083	32.2266	65.2162	32.2266	65.4011	32.2266	65.1453	32.2266	65.4797	32.2266	65.121	32.2266	65.5369	32.2266	65.1698	32.2266	65.574	32.2266	65.3157	32.2266	65.6031	32.2266	65.5741	32.2266	65.6487	32.2266	65.9477	32.2266	65.7474	32.2266	66.4255	32.2266	65.9428	32.2266	66.9848	32.2266	66.2722	32.2266	67.5957	32.2266	66.7499	32.2266	68.226	32.2266	67.3563	32.2266	68.8441	32.2266	68.042	32.2266	69.4206	32.2266	68.7442	32.2266	69.9285	32.2266	69.4022	32.2266	70.3435	32.2266	69.9675	32.2266	70.6439	32.2266	70.4058	32.2266	70.8114	32.2266	70.6968	32.2266	70.8317
33.6914	67.17	33.6914	67.095	33.6914	67.2494	33.6914	67.0405	33.6914	67.3221	33.6914	67.0253	33.6914	67.3825	33.6914	67.0697	33.6914	67.4318	33.6914	67.1922	33.6914	67.4794	33.6914	67.4059	33.6914	67.5437	33.6914	67.7154	33.6914	67.6522	33.6914	68.115	33.6914	67.8366	33.6914	68.5897	33.6914	68.1251	33.6914	69.1169	33.6914	68.5303	33.6914	69.6702	33.6914	69.0408	33.6914	70.2212	33.6914	69.6219	33.6914	70.7425	33.6914	70.2245	33.6914	71.2073	33.6914	70.797	33.6914	71.5913	33.6914	71.2945	33.6914	71.8725	33.6914	71.6832	33.6914	72.0326	33.6914	71.9411	33.6914	72.0578
35.1562	68.586	35.1562	68.5133	35.1562	68.6648	35.1562	68.46	35.1562	68.7405	35.1562	68.4417	35.1562	68.8083	35.1562	68.4754	35.1562	68.8692	35.1562	68.577	35.1562	68.9307	35.1562	68.7585	35.1562	69.0076	35.1562	69.0252	35.1562	69.1214	35.1562	69.3746	35.1562	69.2974	35.1562	69.7956	35.1562	69.5584	35.1562	70.2699	35.1562	69.916	35.1562	70.7745	35.1562	70.3634	35.1562	71.2836	35.1562	70.8742	35.1562	71.7709	35.1562	71.4078	35.1562	72.2103	35.1562	71.919	35.1562	72.5774	35.1562	72.366	35.1562	72.8502	35.1562	72.7156	35.1562	73.0103	35.1562	72.9456	35.1562	73.0443
36.6211	69.9335	36.6211	69.874	36.6211	70.0039	36.6211	69.8356	36.6211	70.0777	36.6211	69.8307	36.6211	70.1512	36.6211	69.8726	36.6211	70.2253	36.6211	69.9734	36.6211	70.3058	36.6211	70.1425	36.6211	70.4041	36.6211	70.3847	36.6211	70.5365	36.6211	70.6982	36.6211	70.7215	36.6211	71.075	36.6211	70.9757	36.6211	71.5007	36.6211	71.3072	36.6211	71.9563	36.6211	71.7104	36.6211	72.4198	36.6211	72.1646	36.6211	72.8672	36.6211	72.6371	36.6211	73.2745	36.6211	73.0896	36.6211	73.6183	36.6211	73.4854	36.6211	73.8774	36.6211	73.7941	36.6211	74.0339	36.6211	73.9944	36.6211	74.075
38.0859	71.1596	38.0859	71.1028	38.0859	71.2292	38.0859	71.0673	38.0859	71.3053	38.0859	71.0632	38.0859	71.3846	38.0859	71.1012	38.0859	71.4674	38.0859	71.1911	38.0859	71.5579	38.0859	71.3409	38.0859	71.6646	38.0859	71.5546	38.0859	71.8	38.0859	71.8319	38.0859	71.9783	38.0859	72.1667	38.0859	72.2126	38.0859	72.5479	38.0859	72.5095	38.0859	72.9595	38.0859	72.8657	38.0859	73.3823	38.0859	73.265	38.0859	73.7946	38.0859	73.681	38.0859	74.1738	38.0859	74.0809	38.0859	74.4973	38.0859	74.4316	38.0859	74.7445	38.0859	74.7047	38.0859	74.8978	38.0859	74.8797	38.0859	74.9448
39.5508	72.1884	39.5508	72.1354	39.5508	72.2559	39.5508	72.1036	39.5508	72.3327	39.5508	72.1011	39.5508	72.4158	39.5508	72.1365	39.5508	72.5052	39.5508	72.2178	39.5508	72.6039	39.5508	72.3515	39.5508	72.7181	39.5508	72.5415	39.5508	72.857	39.5508	72.7882	39.5508	73.0314	39.5508	73.0872	39.5508	73.2511	39.5508	73.4298	39.5508	73.5214	39.5508	73.8029	39.5508	73.8399	39.5508	74.1894	39.5508	74.1939	39.5508	74.5699	39.5508	74.5615	39.5508	74.923	39.5508	74.9149	39.5508	75.2276	39.5508	75.2247	39.5508	75.4634	39.5508	75.4649	39.5508	75.6137	39.5508	75.6159	39.5508	75.6663
41.0156	73.1002	41.0156	73.0511	41.0156	73.1651	41.0156	73.0235	41.0156	73.2416	41.0156	73.0239	41.0156	73.3272	41.0156	73.0592	41.0156	73.4217	41.0156	73.1362	41.0156	73.5271	41.0156	73.2602	41.0156	73.6481	41.0156	73.4346	41.0156	73.7915	41.0156	73.6597	41.0156	73.9654	41.0156	73.9325	41.0156	74.1768	41.0156	74.2456	41.0156	74.4297	41.0156	74.5878	41.0156	74.7214	41.0156	74.9444	41.0156	75.0415	41.0156	75.2975	41.0156	75.3717	41.0156	75.6278	41.0156	75.6877	41.0156	75.9151	41.0156	75.9638	41.0156	76.1404	41.0156	76.1762	41.0156	76.2874	41.0156	76.3066	41.0156	76.3445
42.4805	74.0197	42.4805	73.9742	42.4805	74.0825	42.4805	73.9506	42.4805	74.1591	42.4805	73.9539	42.4805	74.2474	42.4805	73.9895	42.4805	74.3468	42.4805	74.0624	42.4805	74.4586	42.4805	74.1768	42.4805	74.5856	42.4805	74.3354	42.4805	74.7327	42.4805	74.5388	42.4805	74.9052	42.4805	74.7845	42.4805	75.108	42.4805	75.0668	42.4805	75.3433	42.4805	75.3767	42.4805	75.6087	42.4805	75.7014	42.4805	75.8952	42.4805	76.0256	42.4805	76.1876	42.4805	76.3314	42.4805	76.4653	42.4805	76.6003	42.4805	76.706	42.4805	76.8145	42.4805	76.8886	42.4805	76.9583	42.4805	76.9968	42.4805	77.0208
43.9453	74.8799	43.9453	74.8369	43.9453	74.9389	43.9453	74.8133	43.9453	75.0112	43.9453	74.8129	43.9453	75.0952	43.9453	74.84	43.9453	75.1903	43.9453	74.8988	43.9453	75.2972	43.9453	74.9933	43.9453	75.4177	43.9453	75.1261	43.9453	75.5549	43.9453	75.2986	43.9453	75.7127	43.9453	75.5097	43.9453	75.8944	43.9453	75.7555	43.9453	76.1018	43.9453	76.0288	43.9453	76.333	43.9453	76.3187	43.9453	76.5811	43.9453	76.6114	43.9453	76.8337	43.9453	76.8907	43.9453	77.0735	43.9453	77.1391	43.9453	77.2811	43.9453	77.3395	43.9453	77.4374	43.9453	77.477	43.9453	77.5272	43.9453	77.5411
45.4102	75.5284	45.4102	75.4833	45.4102	75.5907	45.4102	75.4584	45.4102	75.6677	45.4102	75.4571	45.4102	75.7578	45.4102	75.4831	45.4102	75.8599	45.4102	75.5399	45.4102	75.9742	45.4102	75.6308	45.4102	76.1016	45.4102	75.758	45.4102	76.2441	45.4102	75.9225	45.4102	76.4039	45.4102	76.1232	45.4102	76.5832	45.4102	76.3565	45.4102	76.7827	45.4102	76.6159	45.4102	77.0003	45.4102	76.8916	45.4102	77.2301	45.4102	77.1709	45.4102	77.4611	45.4102	77.4387	45.4102	77.6783	45.4102	77.6785	45.4102	77.8643	45.4102	77.8743	45.4102	78.0018	45.4102	78.0119	45.4102	78.0769	45.4102	78.0809
46.875	76.1127	46.875	76.0694	46.875	76.1745	46.875	76.0468	46.875	76.2525	46.875	76.0476	46.875	76.3453	46.875	76.0745	46.875	76.4516	46.875	76.1303	46.875	76.5709	46.875	76.2176	46.875	76.7034	46.875	76.338	46.875	76.8497	46.875	76.4923	46.875	77.0107	46.875	76.6798	46.875	77.1873	46.875	76.8974	46.875	77.3793	46.875	77.1396	46.875	77.5844	46.875	77.3978	46.875	77.7971	46.875	77.6608	46.875	78.0079	46.875	77.9147	46.875	78.2036	46.875	78.1442	46.875	78.3689	46.875	78.334	46.875	78.4883	46.875	78.4705	46.875	78.5492	46.875	78.5438
48.3398	76.6574	48.3398	76.615	48.3398	76.7186	48.3398	76.5932	48.3398	76.797	48.3398	76.594	48.3398	76.891	48.3398	76.6195	48.3398	76.9995	48.3398	76.6718	48.3398	77.1214	48.3398	76.7528	48.3398	77.2561	48.3398	76.8641	48.3398	77.4032	48.3398	77.0063	48.3398	77.5625	48.3398	77.1789	48.3398	77.7337	48.3398	77.3796	48.3398	77.9159	48.3398	77.6036	48.3398	78.1065	48.3398	77.8435	48.3398	78.3006	48.3398	78.0893	48.3398	78.49	48.3398	78.3284	48.3398	78.6634	48.3398	78.5465	48.3398	78.8073	48.3398	78.7293	48.3398	78.9083	48.3398	78.8639	48.3398	78.9551	48.3398	78.9407
51.2695	77.6085	51.2695	77.5636	51.2695	77.6741	51.2695	77.5407	51.2695	77.759	51.2695	77.5409	51.2695	77.8615	51.2695	77.5654	51.2695	77.9799	51.2695	77.6152	51.2695	78.1121	51.2695	77.6913	51.2695	78.2561	51.2695	77.7942	51.2695	78.4097	51.2695	77.9242	51.2695	78.5709	51.2695	78.0805	51.2695	78.7376	51.2695	78.2611	51.2695	78.9076	51.2695	78.4622	51.2695	79.0781	51.2695	78.678	51.2695	79.2446	51.2695	78.9003	51.2695	79.401	51.2695	79.1186	51.2695	79.539	51.2695	79.3208	51.2695	79.6484	51.2695	79.4942	51.2695	79.7188	51.2695	79.6272	51.2695	79.7415	51.2695	79.7112
52.7344	77.9825	52.7344	77.9408	52.7344	78.0463	52.7344	77.9222	52.7344	78.131	52.7344	77.9274	52.7344	78.2349	52.7344	77.9569	52.7344	78.3559	52.7344	78.0109	52.7344	78.4917	52.7344	78.0898	52.7344	78.6396	52.7344	78.1935	52.7344	78.7968	52.7344	78.3217	52.7344	78.9605	52.7344	78.4733	52.7344	79.1279	52.7344	78.6465	52.7344	79.2962	52.7344	78.8379	52.7344	79.462	52.7344	79.0424	52.7344	79.6212	52.7344	79.2528	52.7344	79.7679	52.7344	79.4597	52.7344	79.8947	52.7344	79.6523	52.7344	79.9928	52.7344	79.8189	52.7344	80.0531	52.7344	79.9487	52.7344	80.0681	52.7344	80.0333
54.1992	78.3625	54.1992	78.329	54.1992	78.4194	54.1992	78.319	54.1992	78.4989	54.1992	78.3324	54.1992	78.5996	54.1992	78.369	54.1992	78.7195	54.1992	78.4281	54.1992	78.8561	54.1992	78.5093	54.1992	79.0061	54.1992	78.6118	54.1992	79.166	54.1992	78.735	54.1992	79.3321	54.1992	78.8778	54.1992	79.5004	54.1992	79.0386	54.1992	79.667	54.1992	79.2148	54.1992	79.828	54.1992	79.4022	54.1992	79.9791	54.1992	79.595	54.1992	80.1148	54.1992	79.7854	54.1992	80.2288	54.1992	79.9641	54.1992	80.3137	54.1992	80.1205	54.1992	80.3623	54.1992	80.2449	54.1992	80.3685	54.1992	80.3291
55.6641	78.7661	55.6641	78.7333	55.6641	78.8212	55.6641	78.7225	55.6641	78.8981	55.6641	78.7331	55.6641	78.9958	55.6641	78.7645	55.6641	79.1122	55.6641	78.8155	55.6641	79.2447	55.6641	78.8856	55.6641	79.3896	55.6641	78.9739	55.6641	79.5429	55.6641	79.08	55.6641	79.7001	55.6641	79.203	55.6641	79.8568	55.6641	79.3421	55.6641	80.0087	55.6641	79.4955	55.6641	80.1517	55.6641	79.6602	55.6641	80.2819	55.6641	79.8317	55.6641	80.3949	55.6641	80.0035	55.6641	80.4857	55.6641	80.1675	55.6641	80.5487	55.6641	80.3144	55.6641	80.5783	55.6641	80.4351	55.6641	80.57	55.6641	80.5219
58.5938	79.4103	58.5938	79.3734	58.5938	79.4663	58.5938	79.3549	58.5938	79.5412	58.5938	79.3539	58.5938	79.6341	58.5938	79.3691	58.5938	79.7431	58.5938	79.3994	58.5938	79.8652	58.5938	79.4441	58.5938	79.9964	58.5938	79.5026	58.5938	80.1323	58.5938	79.5747	58.5938	80.2678	58.5938	79.6605	58.5938	80.3981	58.5938	79.7601	58.5938	80.5187	58.5938	79.8732	58.5938	80.6258	58.5938	79.9988	58.5938	80.7162	58.5938	80.1341	58.5938	80.7871	58.5938	80.2748	58.5938	80.8357	58.5938	80.4149	58.5938	80.8592	58.5938	80.5467	58.5938	80.8546	58.5938	80.6625	58.5938	80.82	58.5938	80.7552
60.0586	79.6802	60.0586	79.6362	60.0586	79.7423	60.0586	79.6099	60.0586	79.8221	60.0586	79.6005	60.0586	79.9182	60.0586	79.6069	60.0586	80.0282	60.0586	79.6282	60.0586	80.1487	60.0586	79.6635	60.0586	80.2755	60.0586	79.7122	60.0586	80.4037	60.0586	79.7742	60.0586	80.5283	60.0586	79.8496	60.0586	80.6444	60.0586	79.9384	60.0586	80.7479	60.0586	80.0404	60.0586	80.8357	60.0586	80.1547	60.0586	80.9054	60.0586	80.2787	60.0586	80.9557	60.0586	80.4088	60.0586	80.985	60.0586	80.5392	60.0586	80.9921	60.0586	80.6632	60.0586	80.9751	60.0586	80.7739	60.0586	80.9329	60.0586	80.8652
62.9883	80.2497	62.9883	80.2089	62.9883	80.3113	62.9883	80.1882	62.9883	80.3935	62.9883	80.1863	62.9883	80.4952	62.9883	80.2016	62.9883	80.6138	62.9883	80.2324	62.9883	80.746	62.9883	80.2773	62.9883	80.8868	62.9883	80.3352	62.9883	81.031	62.9883	80.4052	62.9883	81.1724	62.9883	80.487	62.9883	81.3051	62.9883	80.5806	62.9883	81.4238	62.9883	80.6855	62.9883	81.524	62.9883	80.8013	62.9883	81.6024	62.9883	80.9263	62.9883	81.6568	62.9883	81.0574	62.9883	81.6858	62.9883	81.19	62.9883	81.6883	62.9883	81.3182	62.9883	81.6637	62.9883	81.4352	62.9883	81.6121	62.9883	81.5349
64.4531	80.4124	64.4531	80.3719	64.4531	80.4753	64.4531	80.3527	64.4531	80.5602	64.4531	80.3536	64.4531	80.666	64.4531	80.3724	64.4531	80.7901	64.4531	80.4074	64.4531	80.9287	64.4531	80.4565	64.4531	81.0766	64.4531	80.5183	64.4531	81.2279	64.4531	80.5915	64.4531	81.376	64.4531	80.6754	64.4531	81.5144	64.4531	80.7697	64.4531	81.6371	64.4531	80.8741	64.4531	81.7392	64.4531	80.988	64.4531	81.8169	64.4531	81.1104	64.4531	81.8683	64.4531	81.2386	64.4531	81.8921	64.4531	81.3688	64.4531	81.888	64.4531	81.4959	64.4531	81.8564	64.4531	81.6137	64.4531	81.7984	64.4531	81.7162
67.3828	80.6884	67.3828	80.6479	67.3828	80.7514	67.3828	80.6289	67.3828	80.8371	67.3828	80.6295	67.3828	80.9438	67.3828	80.6474	67.3828	81.069	67.3828	80.6801	67.3828	81.2083	67.3828	80.725	67.3828	81.356	67.3828	80.7801	67.3828	81.5057	67.3828	80.8438	67.3828	81.65	67.3828	80.9152	67.3828	81.7817	67.3828	80.9939	67.3828	81.8945	67.3828	81.0803	67.3828	81.983	67.3828	81.1745	67.3828	82.0437	67.3828	81.2767	67.3828	82.075	67.3828	81.3861	67.3828	82.0771	67.3828	81.5006	67.3828	82.0513	67.3828	81.6168	67.3828	82.0001	67.3828	81.7301	67.3828	81.9267	67.3828	81.8352
68.8477	80.7645	68.8477	80.723	68.8477	80.8279	68.8477	80.7021	68.8477	80.9131	68.8477	80.7001	68.8477	81.0187	68.8477	80.7143	68.8477	81.1418	68.8477	80.7421	68.8477	81.2783	68.8477	80.781	68.8477	81.4222	68.8477	80.8288	68.8477	81.5671	68.8477	80.8839	68.8477	81.7054	68.8477	80.9453	68.8477	81.83	68.8477	81.0129	68.8477	81.9342	68.8477	81.0873	68.8477	82.0127	68.8477	81.1692	68.8477	82.062	68.8477	81.2592	68.8477	82.0809	68.8477	81.3576	68.8477	82.07	68.8477	81.4631	68.8477	82.0316	68.8477	81.5732	68.8477	81.9693	68.8477	81.684	68.8477	81.8873	68.8477	81.7904
71.7773	81.2374	71.7773	81.1974	71.7773	81.2979	71.7773	81.1766	71.7773	81.3789	71.7773	81.1729	71.7773	81.4793	71.7773	81.1837	71.7773	81.5962	71.7773	81.2062	71.7773	81.7254	71.7773	81.2374	71.7773	81.8613	71.7773	81.2751	71.7773	81.9972	71.7773	81.3175	71.7773	82.1258	71.7773	81.3637	71.7773	82.2393	71.7773	81.4137	71.7773	82.331	71.7773	81.4684	71.7773	82.3954	71.7773	81.5295	71.7773	82.4288	71.7773	81.5986	71.7773	82.4305	71.7773	81.6772	71.7773	82.4017	71.7773	81.7659	71.7773	82.3461	71.7773	81.8635	71.7773	82.2688	71.7773	81.9674	71.7773	82.1758	71.7773	82.0733
74.707	81.6619	74.707	81.6217	74.707	81.7224	74.707	81.6003	74.707	81.8032	74.707	81.5957	74.707	81.9029	74.707	81.6049	74.707	82.0188	74.707	81.6249	74.707	82.1465	74.707	81.6524	74.707	82.2802	74.707	81.6849	74.707	82.4131	74.707	81.7203	74.707	82.5375	74.707	81.7576	74.707	82.6455	74.707	81.7968	74.707	82.73	74.707	81.8389	74.707	82.7851	74.707	81.8861	74.707	82.8074	74.707	81.9409	74.707	82.796	74.707	82.0059	74.707	82.7529	74.707	82.083	74.707	82.6828	74.707	82.1725	74.707	82.5923	74.707	82.2727	74.707	82.4888	74.707	82.38
77.6367	81.5373	77.6367	81.4962	77.6367	81.5985	77.6367	81.4738	77.6367	81.6798	77.6367	81.4679	77.6367	81.7799	77.6367	81.4752	77.6367	81.896	77.6367	81.4925	77.6367	82.0235	77.6367	81.5164	77.6367	82.1568	77.6367	81.544	77.6367	82.2886	77.6367	81.5729	77.6367	82.4109	77.6367	81.6021	77.6367	82.5157	77.6367	81.6314	77.6367	82.5952	77.6367	81.6623	77.6367	82.6432	77.6367	81.6972	77.6367	82.6559	77.6367	81.7396	77.6367	82.6326	77.6367	81.7932	77.6367	82.5759	77.6367	81.861	77.6367	82.4913	77.6367	81.9447	77.6367	82.3868	77.6367	82.0436	77.6367	82.2715	77.6367	82.1545
79.1016	81.5227	79.1016	81.4815	79.1016	81.5837	79.1016	81.4586	79.1016	81.6647	79.1016	81.4518	79.1016	81.7641	79.1016	81.4579	79.1016	81.8793	79.1016	81.4734	79.1016	82.0058	79.1016	81.4949	79.1016	82.1376	79.1016	81.5192	79.1016	82.2677	79.1016	81.5441	79.1016	82.3879	79.1016	81.5682	79.1016	82.4899	79.1016	81.5917	79.1016	82.5659	79.1016	81.616	79.1016	82.6096	79.1016	81.6439	79.1016	82.6169	79.1016	81.6792	79.1016	82.5872	79.1016	81.7262	79.1016	82.5234	79.1016	81.7887	79.1016	82.4315	79.1016	81.8687	79.1016	82.3201	79.1016	81.9663	79.1016	82.1992	79.1016	82.0785
82.0312	81.9298	82.0312	81.8866	82.0312	81.9919	82.0312	81.8609	82.0312	82.073	82.0312	81.8502	82.0312	82.1717	82.0312	81.8515	82.0312	82.2853	82.0312	81.861	82.0312	82.4091	82.0312	81.8751	82.0312	82.5374	82.0312	81.8906	82.0312	82.6628	82.0312	81.9051	82.0312	82.7771	82.0312	81.9173	82.0312	82.8719	82.0312	81.9274	82.0312	82.9389	82.0312	81.9371	82.0312	82.9715	82.0312	81.9498	82.0312	82.9657	82.0312	81.9703	82.0312	82.921	82.0312	82.0038	82.0312	82.8406	82.0312	82.0555	82.0312	82.7318	82.0312	82.1288	82.0312	82.6045	82.0312	82.2248	82.0312	82.4704	82.0312	82.3407
84.9609	82.0738	84.9609	82.0283	84.9609	82.1367	84.9609	81.9988	84.9609	82.2169	84.9609	81.9831	84.9609	82.3132	84.9609	81.9779	84.9609	82.4225	84.9609	81.9797	84.9609	82.5407	84.9609	81.9848	84.9609	82.6619	84.9609	81.99	84.9609	82.7791	84.9609	81.9929	84.9609	82.8842	84.9609	81.9923	84.9609	82.9689	84.9609	81.9885	84.9609	83.0249	84.9609	81.9838	84.9609	83.0457	84.9609	81.9819	84.9609	83.0271	84.9609	81.9883	84.9609	82.9687	84.9609	82.0092	84.9609	82.8742	84.9609	82.0508	84.9609	82.7514	84.9609	82.1177	84.9609	82.6113	84.9609	82.2115	84.9609	82.4667	84.9609	82.3301
87.8906	81.9872	87.8906	81.9387	87.8906	82.0493	87.8906	81.9022	87.8906	82.1251	87.8906	81.8754	87.8906	82.2136	87.8906	81.8551	87.8906	82.3124	87.8906	81.8379	87.8906	82.4173	87.8906	81.8201	87.8906	82.5229	87.8906	81.7987	87.8906	82.6221	87.8906	81.7716	87.8906	82.7067	87.8906	81.7379	87.8906	82.7679	87.8906	81.6985	87.8906	82.7971	87.8906	81.6562	87.8906	82.7873	87.8906	81.6161	87.8906	82.7345	87.8906	81.5853	87.8906	82.6387	87.8906	81.5725	87.8906	82.5051	87.8906	81.5864	87.8906	82.3439	87.8906	81.6345	87.8906	82.1693	87.8906	81.7207	87.8906	81.9975	87.8906	81.844
90.8203	81.7774	90.8203	81.7244	90.8203	81.851	90.8203	81.6913	90.8203	81.9446	90.8203	81.676	90.8203	82.0563	90.8203	81.6755	90.8203	82.1827	90.8203	81.6861	90.8203	82.3193	90.8203	81.7036	90.8203	82.4602	90.8203	81.7239	90.8203	82.5978	90.8203	81.7437	90.8203	82.7237	90.8203	81.7608	90.8203	82.8283	90.8203	81.7743	90.8203	82.9025	90.8203	81.7855	90.8203	82.938	90.8203	81.7977	90.8203	82.9298	90.8203	81.816	90.8203	82.8765	90.8203	81.847	90.8203	82.7817	90.8203	81.8975	90.8203	82.654	90.8203	81.9729	90.8203	82.5057	90.8203	82.0757	90.8203	82.3511	90.8203	82.2041
95.2148	82.123	95.2148	82.0701	95.2148	82.188	95.2148	82.0283	95.2148	82.265	95.2148	81.9955	95.2148	82.3526	95.2148	81.9689	95.2148	82.4484	95.2148	81.9449	95.2148	82.5486	95.2148	81.9199	95.2148	82.6478	95.2148	81.8904	95.2148	82.7397	95.2148	81.8541	95.2148	82.8162	95.2148	81.8097	95.2148	82.8688	95.2148	81.758	95.2148	82.8888	95.2148	81.7021	95.2148	82.8691	95.2148	81.6477	95.2148	82.8052	95.2148	81.6028	95.2148	82.6971	95.2148	81.5774	95.2148	82.55	95.2148	81.5817	95.2148	82.3745	95.2148	81.6244	95.2148	82.1858	95.2148	81.7103	95.2148	82.0015	95.2148	81.8385
98.1445	82.0859	98.1445	82.0395	98.1445	82.1459	98.1445	82.0052	98.1445	82.2193	98.1445	81.9805	98.1445	82.3048	98.1445	81.9617	98.1445	82.3996	98.1445	81.9446	98.1445	82.4994	98.1445	81.9248	98.1445	82.5984	98.1445	81.8983	98.1445	82.6896	98.1445	81.8621	98.1445	82.7645	98.1445	81.8147	98.1445	82.8139	98.1445	81.7567	98.1445	82.829	98.1445	81.6912	98.1445	82.8024	98.1445	81.6243	98.1445	82.73	98.1445	81.5645	98.1445	82.6122	98.1445	81.5227	98.1445	82.4555	98.1445	81.5105	98.1445	82.2716	98.1445	81.538	98.1445	82.0774	98.1445	81.6116	98.1445	81.8915	98.1445	81.7317
101.074	81.9015	101.074	81.8593	101.074	81.9607	101.074	81.8329	101.074	82.0364	101.074	81.8203	101.074	82.1274	101.074	81.8178	101.074	82.2311	101.074	81.8215	101.074	82.3439	101.074	81.8267	101.074	82.4609	101.074	81.8291	101.074	82.5756	101.074	81.8252	101.074	82.68	101.074	81.8129	101.074	82.7645	101.074	81.7919	101.074	82.8194	101.074	81.7645	101.074	82.8357	101.074	81.7354	101.074	82.8072	101.074	81.7118	101.074	82.7324	101.074	81.7029	101.074	82.6151	101.074	81.7185	101.074	82.4652	101.074	81.767	101.074	82.2973	101.074	81.8532	101.074	82.1287	101.074	81.9762
105.469	82.1056	105.469	82.0515	105.469	82.1697	105.469	82.0074	105.469	82.2424	105.469	81.9723	105.469	82.3221	105.469	81.9438	105.469	82.4062	105.469	81.9187	105.469	82.4917	105.469	81.8931	105.469	82.5749	105.469	81.863	105.469	82.6507	105.469	81.8251	105.469	82.713	105.469	81.7775	105.469	82.7539	105.469	81.7204	105.469	82.7652	105.469	81.6562	105.469	82.7391	105.469	81.5906	105.469	82.6705	105.469	81.5318	105.469	82.5585	105.469	81.4907	105.469	82.4078	105.469	81.4786	105.469	82.2294	105.469	81.5059	105.469	82.0393	105.469	81.579	105.469	81.8562	105.469	81.6981
108.398	82.1542	108.398	82.0979	108.398	82.2198	108.398	82.0509	108.398	82.2935	108.398	82.0121	108.398	82.3733	108.398	81.9792	108.398	82.4566	108.398	81.9487	108.398	82.5403	108.398	81.9163	108.398	82.6206	108.398	81.878	108.398	82.6922	108.398	81.8303	108.398	82.7487	108.398	81.7713	108.398	82.7824	108.398	81.701	108.398	82.7846	108.398	81.6226	108.398	82.7476	108.398	81.5422	108.398	82.6662	108.398	81.469	108.398	82.5397	108.398	81.415	108.398	82.3734	108.398	81.393	108.398	82.1789	108.398	81.4145	108.398	81.9736	108.398	81.4868	108.398	81.7776	108.398	81.6104
112.793	82.091	112.793	82.0315	112.793	82.1576	112.793	81.9794	112.793	82.2302	112.793	81.9338	112.793	82.3069	112.793	81.8925	112.793	82.3853	112.793	81.8523	112.793	82.4627	112.793	81.8093	112.793	82.5355	112.793	81.7596	112.793	82.5989	112.793	81.7	112.793	82.6466	112.793	81.6288	112.793	82.671	112.793	81.5465	112.793	82.6636	112.793	81.4565	112.793	82.6167	112.793	81.3654	112.793	82.5249	112.793	81.283	112.793	82.3878	112.793	81.2216	112.793	82.2107	112.793	81.1945	112.793	82.0058	112.793	81.2136	112.793	81.7908	112.793	81.2864	112.793	81.5867	112.793	81.4134
117.188	81.8737	117.188	81.8189	117.188	81.9383	117.188	81.7741	117.188	82.0114	117.188	81.7382	117.188	82.0911	117.188	81.7085	117.188	82.175	117.188	81.6812	117.188	82.2602	117.188	81.6515	117.188	82.3431	117.188	81.6144	117.188	82.4184	117.188	81.5659	117.188	82.4794	117.188	81.5033	117.188	82.5171	117.188	81.4263	117.188	82.5218	117.188	81.3378	117.188	82.4843	117.188	81.2445	117.188	82.3979	117.188	81.1564	117.188	82.2616	117.188	81.0871	117.188	82.081	117.188	81.0513	117.188	81.8693	117.188	81.0629	117.188	81.6463	117.188	81.1312	117.188	81.4352	117.188	81.2579
120.117	81.762	120.117	81.6956	120.117	81.8389	120.117	81.6413	120.117	81.9242	120.117	81.5991	120.117	82.0153	120.117	81.5675	120.117	82.1094	120.117	81.5435	120.117	82.2039	120.117	81.5231	120.117	82.2957	120.117	81.5016	120.117	82.3804	120.117	81.4748	120.117	82.4522	120.117	81.4394	120.117	82.5032	120.117	81.3942	120.117	82.5241	120.117	81.3409	120.117	82.5059	120.117	81.2842	120.117	82.4418	120.117	81.2322	120.117	82.3299	120.117	81.1957	120.117	82.1746	120.117	81.1873	120.117	81.9876	120.117	81.2184	120.117	81.7864	120.117	81.2969	120.117	81.5919	120.117	81.4237
124.512	81.857	124.512	81.7821	124.512	81.9378	124.512	81.7143	124.512	82.0221	124.512	81.6538	124.512	82.1073	124.512	81.5991	124.512	82.1905	124.512	81.5473	124.512	82.269	124.512	81.4945	124.512	82.3396	124.512	81.4367	124.512	82.398	124.512	81.3702	124.512	82.4387	124.512	81.2931	124.512	82.4542	124.512	81.2057	124.512	82.4363	124.512	81.1112	124.512	82.3769	124.512	81.0163	124.512	82.2709	124.512	80.9311	124.512	82.1178	124.512	80.8681	124.512	81.9239	124.512	80.8409	124.512	81.7023	124.512	80.8617	124.512	81.4721	124.512	80.9385	124.512	81.2552	124.512	81.0722
128.906	81.7274	128.906	81.6527	128.906	81.8102	128.906	81.5881	128.906	81.8985	128.906	81.5339	128.906	81.9895	128.906	81.489	128.906	82.0804	128.906	81.4504	128.906	82.169	128.906	81.4138	128.906	82.2525	128.906	81.3744	128.906	82.327	128.906	81.3276	128.906	82.3867	128.906	81.2703	128.906	82.4236	128.906	81.2016	128.906	82.4279	128.906	81.1239	128.906	82.39	128.906	81.0429	128.906	82.3028	128.906	80.9683	128.906	82.1644	128.906	80.9128	128.906	81.9803	128.906	80.8906	128.906	81.7637	128.906	80.9148	128.906	81.5346	128.906	80.9943	128.906	81.3162	128.906	81.1306
133.301	81.7033	133.301	81.6209	133.301	81.7897	133.301	81.5449	133.301	81.8769	133.301	81.4767	133.301	81.962	133.301	81.416	133.301	82.043	133.301	81.3607	133.301	82.1181	133.301	81.3073	133.301	82.186	133.301	81.2515	133.301	82.2441	133.301	81.1896	133.301	82.2879	133.301	81.1191	133.301	82.3107	133.301	81.0397	133.301	82.3035	133.301	80.9543	133.301	82.257	133.301	80.8694	133.301	82.1642	133.301	80.7946	133.301	82.0229	133.301	80.7424	133.301	81.8379	133.301	80.7259	133.301	81.6215	133.301	80.7571	133.301	81.3925	133.301	80.8432	133.301	81.1732	133.301	80.9847
139.16	81.6557	139.16	81.5786	139.16	81.734	139.16	81.5046	139.16	81.811	139.16	81.4347	139.16	81.8845	139.16	81.3684	139.16	81.9529	139.16	81.3031	139.16	82.0153	139.16	81.2354	139.16	82.0704	139.16	81.1607	139.16	82.1157	139.16	81.0756	139.16	82.1465	139.16	80.978	139.16	82.1552	139.16	80.8685	139.16	82.1323	139.16	80.7516	139.16	82.0681	139.16	80.6354	139.16	81.9551	139.16	80.5316	139.16	81.7918	139.16	80.4547	139.16	81.5839	139.16	80.4194	139.16	81.3454	139.16	80.4387	139.16	81.0969	139.16	80.5204	139.16	80.8624	139.16	80.6646
143.555	81.4407	143.555	81.3524	143.555	81.5319	143.555	81.2701	143.555	81.6226	143.555	81.1957	143.555	81.7096	143.555	81.1291	143.555	81.7909	143.555	81.0681	143.555	81.8653	143.555	81.0088	143.555	81.9318	143.555	80.9464	143.555	81.988	143.555	80.8763	143.555	82.0294	143.555	80.7953	143.555	82.0481	143.555	80.703	143.555	82.0341	143.555	80.6024	143.555	81.9767	143.555	80.5003	143.555	81.8679	143.555	80.4079	143.555	81.7057	143.555	80.3391	143.555	81.4962	143.555	80.3091	143.555	81.2541	143.555	80.3315	143.555	81.0012	143.555	80.4153	143.555	80.7627	143.555	80.5617
147.949	81.298	147.949	81.2045	147.949	81.3924	147.949	81.1156	147.949	81.4839	147.949	81.0342	147.949	81.5696	147.949	80.9614	147.949	81.6483	147.949	80.8958	147.949	81.72	147.949	80.8341	147.949	81.7851	147.949	80.7718	147.949	81.8428	147.949	80.7041	147.949	81.8892	147.949	80.628	147.949	81.9165	147.949	80.5425	147.949	81.9138	147.949	80.4505	147.949	81.869	147.949	80.3587	147.949	81.7723	147.949	80.2774	147.949	81.6202	147.949	80.2202	147.949	81.4177	147.949	80.2015	147.949	81.1793	147.949	80.2342	147.949	80.9268	147.949	80.3267	147.949	80.6857	147.949	80.4799
153.809	81.2881	153.809	81.1712	153.809	81.4021	153.809	81.0565	153.809	81.5083	153.809	80.9486	153.809	81.6032	153.809	80.85	153.809	81.6852	153.809	80.761	153.809	81.7547	153.809	80.6792	153.809	81.813	153.809	80.6007	153.809	81.8604	153.809	80.5211	153.809	81.8947	153.809	80.4371	153.809	81.9099	153.809	80.3479	153.809	81.8962	153.809	80.2559	153.809	81.8421	153.809	80.168	153.809	81.7379	153.809	80.0947	153.809	81.5791	153.809	80.0493	153.809	81.3696	153.809	80.0459	153.809	81.1226	153.809	80.0965	153.809	80.8588	153.809	80.2082	153.809	80.6034	153.809	80.3804
159.668	81.4574	159.668	81.3458	159.668	81.5604	159.668	81.2304	159.668	81.6509	159.668	81.1152	159.668	81.7269	159.668	81.003	159.668	81.7884	159.668	80.8945	159.668	81.8376	159.668	80.7886	159.668	81.8777	159.668	80.6827	159.668	81.9104	159.668	80.574	159.668	81.9345	159.668	80.461	159.668	81.9438	159.668	80.345	159.668	81.9275	159.668	80.2304	159.668	81.8729	159.668	80.126	159.668	81.7685	159.668	80.0437	159.668	81.609	159.668	79.9974	159.668	81.3974	159.668	80.0004	159.668	81.1463	159.668	80.0629	159.668	80.876	159.668	80.1892	159.668	80.6113	159.668	80.3759
165.527	81.3822	165.527	81.2791	165.527	81.4761	165.527	81.1721	165.527	81.5563	165.527	81.0657	165.527	81.6201	165.527	80.9629	165.527	81.6672	165.527	80.8643	165.527	81.7002	165.527	80.7685	165.527	81.7229	165.527	80.6725	165.527	81.7388	165.527	80.5732	165.527	81.7485	165.527	80.4687	165.527	81.748	165.527	80.3597	165.527	81.728	165.527	80.2505	165.527	81.6765	165.527	80.1493	165.527	81.5822	165.527	80.0674	165.527	81.4388	165.527	80.018	165.527	81.2487	165.527	80.0136	165.527	81.023	165.527	80.0637	165.527	80.7807	165.527	80.1721	165.527	80.5444	165.527	80.3358
171.387	81.3589	171.387	81.2418	171.387	81.4619	171.387	81.1171	171.387	81.5454	171.387	80.9907	171.387	81.6061	171.387	80.8669	171.387	81.6434	171.387	80.7476	171.387	81.6597	171.387	80.632	171.387	81.6592	171.387	80.5174	171.387	81.6463	171.387	80.4007	171.387	81.6232	171.387	80.28	171.387	81.5881	171.387	80.1561	171.387	81.5347	171.387	80.0335	171.387	81.4534	171.387	79.9208	171.387	81.3351	171.387	79.83	171.387	81.1748	171.387	79.774	171.387	80.975	171.387	79.765	171.387	80.7463	171.387	79.811	171.387	80.5062	171.387	79.9148	171.387	80.2752	171.387	80.0729
177.246	81.2573	177.246	81.1311	177.246	81.3686	177.246	80.9945	177.246	81.4608	177.246	80.8521	177.246	81.5312	177.246	80.7069	177.246	81.5791	177.246	80.5607	177.246	81.6053	177.246	80.4133	177.246	81.6112	177.246	80.2636	177.246	81.5972	177.246	80.1104	177.246	81.5611	177.246	79.9535	177.246	81.4975	177.246	79.7954	177.246	81.398	177.246	79.6415	177.246	81.2549	177.246	79.5009	177.246	81.064	177.246	79.3852	177.246	80.8281	177.246	79.3071	177.246	80.5587	177.246	79.2778	177.246	80.2743	177.246	79.3055	177.246	79.997	177.246	79.3943	177.246	79.748	177.246	79.5435
183.105	81.0372	183.105	80.9354	183.105	81.1264	183.105	80.8255	183.105	81.1994	183.105	80.7114	183.105	81.2548	183.105	80.5954	183.105	81.2944	183.105	80.4772	183.105	81.3226	183.105	80.3548	183.105	81.3449	183.105	80.2256	183.105	81.3647	183.105	80.0873	183.105	81.3802	183.105	79.9405	183.105	81.3829	183.105	79.7891	183.105	81.3581	183.105	79.6412	183.105	81.2892	183.105	79.5084	183.105	81.1633	183.105	79.4046	183.105	80.9761	183.105	79.3432	183.105	80.7352	183.105	79.3352	183.105	80.4594	183.105	79.3872	183.105	80.1743	183.105	79.502	183.105	79.9064	183.105	79.6775
188.965	81.0651	188.965	80.9491	188.965	81.1626	188.965	80.8214	188.965	81.2359	188.965	80.6884	188.965	81.2824	188.965	80.5541	188.965	81.3038	188.965	80.4194	188.965	81.306	188.965	80.2822	188.965	81.2976	188.965	80.1388	188.965	81.2869	188.965	79.9857	188.965	81.2775	188.965	79.8218	188.965	81.2648	188.965	79.6507	188.965	81.2359	188.965	79.4816	188.965	81.173	188.965	79.3291	188.965	81.0596	188.965	79.2112	188.965	80.8867	188.965	79.1454	188.965	80.6571	188.965	79.1449	188.965	80.3854	188.965	79.2157	188.965	80.0949	188.965	79.3564	188.965	79.8117	188.965	79.5594
196.289	81.2465	196.289	81.1546	196.289	81.3167	196.289	81.0466	196.289	81.3605	196.289	80.9272	196.289	81.376	196.289	80.7984	196.289	81.365	196.289	80.6595	196.289	81.3335	196.289	80.5068	196.289	81.2895	196.289	80.3358	196.289	81.2402	196.289	80.1432	196.289	81.1877	196.289	79.9288	196.289	81.1264	196.289	79.6982	196.289	81.0437	196.289	79.4634	196.289	80.9238	196.289	79.2428	196.289	80.7543	196.289	79.0584	196.289	80.532	196.289	78.9316	196.289	80.2655	196.289	78.8781	196.289	79.9735	196.289	78.9042	196.289	79.6803	196.289	79.0076	196.289	79.4092	196.289	79.18
203.613	81.0592	203.613	80.9554	203.613	81.1422	203.613	80.8394	203.613	81.1965	203.613	80.7184	203.613	81.217	203.613	80.5962	203.613	81.2034	203.613	80.4718	203.613	81.1599	203.613	80.3401	203.613	81.0955	203.613	80.1933	203.613	81.0204	203.613	80.0241	203.613	80.9425	203.613	79.8287	203.613	80.8621	203.613	79.6091	203.613	80.7706	203.613	79.3755	203.613	80.6523	203.613	79.1456	203.613	80.4912	203.613	78.943	203.613	80.2787	203.613	78.7916	203.613	80.0191	203.613	78.7106	203.613	79.7297	203.613	78.7102	203.613	79.4369	203.613	78.7913	203.613	79.1686	203.613	78.9478
210.938	80.9834	210.938	80.8554	210.938	81.0894	210.938	80.7164	210.938	81.1636	210.938	80.5756	210.938	81.1995	210.938	80.4382	210.938	81.1964	210.938	80.3042	210.938	81.1597	210.938	80.1688	210.938	81.0995	210.938	80.0243	210.938	81.0281	210.938	79.863	210.938	80.9547	210.938	79.6802	210.938	80.8807	210.938	79.4771	210.938	80.7978	210.938	79.2627	210.938	80.6905	210.938	79.0537	210.938	80.5422	210.938	78.8724	210.938	80.3427	210.938	78.743	210.938	80.0938	210.938	78.6848	210.938	79.8098	210.938	78.7084	210.938	79.5143	210.938	78.8143	210.938	79.2343	210.938	78.9944
218.262	80.7976	218.262	80.6709	218.262	80.9007	218.262	80.5333	218.262	80.9699	218.262	80.397	218.262	80.9999	218.262	80.2697	218.262	80.9922	218.262	80.1529	218.262	80.9552	218.262	80.0419	218.262	80.9018	218.262	79.9275	218.262	80.8462	218.262	79.7998	218.262	80.7973	218.262	79.6518	218.262	80.7544	218.262	79.4831	218.262	80.7052	218.262	79.3014	218.262	80.6305	218.262	79.123	218.262	80.5119	218.262	78.9697	218.262	80.3397	218.262	78.8644	218.262	80.1177	218.262	78.8244	218.262	79.8624	218.262	78.8577	218.262	79.5971	218.262	78.9622	218.262	79.3459	218.262	79.1291
225.586	80.8076	225.586	80.6602	225.586	80.921	225.586	80.494	225.586	80.9881	225.586	80.324	225.586	81.0021	225.586	80.1618	225.586	80.9634	225.586	80.0123	225.586	80.8805	225.586	79.8733	225.586	80.7692	225.586	79.7373	225.586	80.6495	225.586	79.5947	225.586	80.5397	225.586	79.4382	225.586	80.4491	225.586	79.2673	225.586	80.3736	225.586	79.0902	225.586	80.2972	225.586	78.9238	225.586	80.1997	225.586	78.7904	225.586	80.0662	225.586	78.7116	225.586	79.8934	225.586	78.701	225.586	79.6895	225.586	78.7607	225.586	79.4698	225.586	78.882	225.586	79.2515	225.586	79.0506
232.91	80.9064	232.91	80.736	232.91	81.0386	232.91	80.543	232.91	81.1194	232.91	80.3431	232.91	81.1411	232.91	80.1485	232.91	81.102	232.91	79.9655	232.91	81.0078	232.91	79.7928	232.91	80.8703	232.91	79.6234	232.91	80.7049	232.91	79.4468	232.91	80.5258	232.91	79.2547	232.91	80.3411	232.91	79.0444	232.91	80.1492	232.91	78.8229	232.91	79.9424	232.91	78.6068	232.91	79.7137	232.91	78.42	232.91	79.4649	232.91	78.2869	232.91	79.209	232.91	78.2232	232.91	78.9648	232.91	78.2307	232.91	78.7476	232.91	78.2989	232.91	78.5636	232.91	78.4132
241.699	80.8141	241.699	80.6119	241.699	80.9779	241.699	80.3905	241.699	81.0885	241.699	80.1694	241.699	81.1376	241.699	79.9648	241.699	81.1246	241.699	79.7847	241.699	81.0568	241.699	79.6279	241.699	80.9478	241.699	79.4845	241.699	80.8142	241.699	79.341	241.699	80.6698	241.699	79.185	241.699	80.5195	241.699	79.0106	241.699	80.3562	241.699	78.8215	241.699	80.1644	241.699	78.6311	241.699	79.9293	241.699	78.4595	241.699	79.6484	241.699	78.3277	241.699	79.3372	241.699	78.2506	241.699	79.0267	241.699	78.2336	241.699	78.7502	241.699	78.2749	241.699	78.5302	241.699	78.3729
250.488	81.2027	250.488	80.9609	250.488	81.3849	250.488	80.6729	250.488	81.4986	250.488	80.3549	250.488	81.5405	250.488	80.0236	250.488	81.5134	250.488	79.6945	250.488	81.4268	250.488	79.3788	250.488	81.2959	250.488	79.083	250.488	81.1387	250.488	78.8089	250.488	80.9704	250.488	78.556	250.488	80.7971	250.488	78.3255	250.488	80.6121	250.488	78.123	250.488	80.398	250.488	77.9595	250.488	80.1368	250.488	77.8485	250.488	79.8212	250.488	77.8006	250.488	79.4633	250.488	77.8186	250.488	79.0927	250.488	77.8972	250.488	78.7457	250.488	78.0289	250.488	78.449	250.488	78.2113
259.277	81.005	259.277	80.8387	259.277	81.1325	259.277	80.6456	259.277	81.2111	259.277	80.4369	259.277	81.2357	259.277	80.2196	259.277	81.2078	259.277	79.9955	259.277	81.1362	259.277	79.7613	259.277	81.0353	259.277	79.5113	259.277	80.9211	259.277	79.2412	259.277	80.8046	259.277	78.9521	259.277	80.6858	259.277	78.6536	259.277	80.5512	259.277	78.3657	259.277	80.3789	259.277	78.1165	259.277	80.1496	259.277	77.9361	259.277	79.8576	259.277	77.8459	259.277	79.5181	259.277	77.8508	259.277	79.1627	259.277	77.9382	259.277	78.8266	259.277	78.0885	259.277	78.5329	259.277	78.2877
268.066	80.7209	268.066	80.5253	268.066	80.8709	268.066	80.3009	268.066	80.9627	268.066	80.065	268.066	80.9906	268.066	79.831	268.066	80.958	268.066	79.6042	268.066	80.877	268.066	79.3809	268.066	80.7675	268.066	79.1511	268.066	80.6524	268.066	78.9035	268.066	80.5493	268.066	78.6323	268.066	80.4609	268.066	78.3427	268.066	80.3696	268.066	78.0539	268.066	80.2424	268.066	77.7976	268.066	80.0452	268.066	77.6097	268.066	79.7599	268.066	77.5162	268.066	79.3957	268.066	77.5219	268.066	78.9906	268.066	77.6123	268.066	78.5961	268.066	77.7678	268.066	78.254	268.066	77.9797
276.855	81.0058	276.855	80.8201	276.855	81.1329	276.855	80.5924	276.855	81.1909	276.855	80.3415	276.855	81.1787	276.855	80.0829	276.855	81.1054	276.855	79.8243	276.855	80.9902	276.855	79.5634	276.855	80.8582	276.855	79.2891	276.855	80.7336	276.855	78.9873	276.855	80.6298	276.855	78.6481	276.855	80.5422	276.855	78.2729	276.855	80.4475	276.855	77.8807	276.855	80.3126	276.855	77.5099	276.855	80.1074	276.855	77.2134	276.855	79.8161	276.855	77.042	276.855	79.4437	276.855	77.0235	276.855	79.0146	276.855	77.1523	276.855	78.5645	276.855	77.3997	276.855	78.1284	276.855	77.7332
287.109	80.6012	287.109	80.4287	287.109	80.7221	287.109	80.2264	287.109	80.7754	287.109	80.0166	287.109	80.7557	287.109	79.8162	287.109	80.6702	287.109	79.6314	287.109	80.5405	287.109	79.4568	287.109	80.3999	287.109	79.2785	287.109	80.2852	287.109	79.0793	287.109	80.2211	287.109	78.8469	287.109	80.205	287.109	78.5796	287.109	80.2043	287.109	78.2912	287.109	80.1707	287.109	78.0125	287.109	80.0615	287.109	77.7859	287.109	79.8569	287.109	77.6529	287.109	79.5657	287.109	77.6375	287.109	79.2189	287.109	77.7377	287.109	78.8553	287.109	77.9319	287.109	78.5072	287.109	78.1947
297.363	80.9484	297.363	80.7678	297.363	81.0571	297.363	80.5421	297.363	81.0726	297.363	80.2991	297.363	80.9835	297.363	80.0595	297.363	80.7915	297.363	79.8314	297.363	80.5162	297.363	79.6074	297.363	80.2	297.363	79.3694	297.363	79.9069	297.363	79.0976	297.363	79.705	297.363	78.7809	297.363	79.6308	297.363	78.4254	297.363	79.6593	297.363	78.0594	297.363	79.7145	297.363	77.7326	297.363	79.7125	297.363	77.5027	297.363	79.6016	297.363	77.4124	297.363	79.3779	297.363	77.467	297.363	79.0771	297.363	77.6348	297.363	78.7496	297.363	77.8701	297.363	78.4329	297.363	78.1396
307.617	80.807	307.617	80.5674	307.617	80.9828	307.617	80.2977	307.617	81.0702	307.617	80.0352	307.617	81.0559	307.617	79.811	307.617	80.9381	307.617	79.6381	307.617	80.7279	307.617	79.5039	307.617	80.4509	307.617	79.3744	307.617	80.1474	307.617	79.2057	307.617	79.8663	307.617	78.96	307.617	79.6485	307.617	78.6174	307.617	79.5054	307.617	78.1873	307.617	79.409	307.617	77.7149	307.617	79.3072	307.617	77.2813	307.617	79.1519	307.617	76.9823	307.617	78.9212	307.617	76.8843	307.617	78.6222	307.617	76.9876	307.617	78.2797	307.617	77.2364	307.617	77.9195	307.617	77.5628
319.336	80.7399	319.336	80.4853	319.336	80.9177	319.336	80.1893	319.336	80.993	319.336	79.8919	319.336	80.9517	319.336	79.6299	319.336	80.7944	319.336	79.4274	319.336	80.5396	319.336	79.2871	319.336	80.2272	319.336	79.1897	319.336	79.9178	319.336	79.1008	319.336	79.6774	319.336	78.9823	319.336	79.5455	319.336	78.8045	319.336	79.5059	319.336	78.5551	319.336	79.4904	319.336	78.2466	319.336	79.4186	319.336	77.9192	319.336	79.2406	319.336	77.6343	319.336	78.9561	319.336	77.4537	319.336	78.6082	319.336	77.4106	319.336	78.2552	319.336	77.4973	319.336	77.9401	319.336	77.6828
329.59	80.9199	329.59	80.594	329.59	81.1497	329.59	80.2147	329.59	81.2562	329.59	79.8374	329.59	81.2266	329.59	79.5191	329.59	81.0613	329.59	79.2986	329.59	80.775	329.59	79.1798	329.59	80.4008	329.59	79.1299	329.59	79.9957	329.59	79.0969	329.59	79.6382	329.59	79.0308	329.59	79.4041	329.59	78.8993	329.59	79.3219	329.59	78.6954	329.59	79.3454	329.59	78.4386	329.59	79.3797	329.59	78.1727	329.59	79.3382	329.59	77.9539	329.59	79.1829	329.59	77.8302	329.59	78.9307	329.59	77.822	329.59	78.633	329.59	77.9195	329.59	78.3443	329.59	78.1001
341.309	81.2262	341.309	80.846	341.309	81.4826	341.309	80.3798	341.309	81.5947	341.309	79.8861	341.309	81.5543	341.309	79.4399	341.309	81.3635	341.309	79.1121	341.309	81.0365	341.309	78.9372	341.309	80.6066	341.309	78.8929	341.309	80.1359	341.309	78.9144	341.309	79.7179	341.309	78.9296	341.309	79.4508	341.309	78.889	341.309	79.3783	341.309	78.7777	341.309	79.4487	341.309	78.6148	341.309	79.548	341.309	78.4439	341.309	79.5738	341.309	78.3161	341.309	79.4819	341.309	78.2682	341.309	79.289	341.309	78.3089	341.309	79.0463	341.309	78.4239	341.309	78.8048	341.309	78.5934
353.027	81.7451	353.027	81.3562	353.027	81.99	353.027	80.8461	353.027	82.079	353.027	80.2545	353.027	82.008	353.027	79.6419	353.027	81.7792	353.027	79.087	353.027	81.4017	353.027	78.6677	353.027	80.8978	353.027	78.4252	353.027	80.3151	353.027	78.3394	353.027	79.7418	353.027	78.341	353.027	79.3056	353.027	78.3538	353.027	79.1202	353.027	78.3304	353.027	79.1936	353.027	78.2675	353.027	79.4076	353.027	78.2012	353.027	79.6049	353.027	78.1847	353.027	79.6807	353.027	78.2573	353.027	79.6095	353.027	78.4217	353.027	79.4237	353.027	78.6502	353.027	79.1764	353.027	78.91
366.211	82.6169	366.211	82.2646	366.211	82.8199	366.211	81.7723	366.211	82.8699	366.211	81.1607	366.211	82.7655	366.211	80.4698	366.211	82.5073	366.211	79.7657	366.211	82.0994	366.211	79.1379	366.211	81.5549	366.211	78.6719	366.211	80.9055	366.211	78.4043	366.211	80.2156	366.211	78.2982	366.211	79.5917	366.211	78.2724	366.211	79.1594	366.211	78.2536	366.211	78.9938	366.211	78.2114	366.211	79.0565	366.211	78.164	366.211	79.2236	366.211	78.1594	366.211	79.3696	366.211	78.2426	366.211	79.4202	366.211	78.4243	366.211	79.3543	366.211	78.6753	366.211	79.1857	366.211	78.9456
379.395	82.595	379.395	82.2392	379.395	82.832	379.395	81.7804	379.395	82.9386	379.395	81.2414	379.395	82.9051	379.395	80.6528	379.395	82.7226	379.395	80.0532	379.395	82.3829	379.395	79.4865	379.395	81.8818	379.395	78.9955	379.395	81.2291	379.395	78.6122	379.395	80.4694	379.395	78.3486	379.395	79.7106	379.395	78.1958	379.395	79.1278	379.395	78.1361	379.395	78.8819	379.395	78.1593	379.395	78.9816	379.395	78.2678	379.395	79.2728	379.395	78.4669	379.395	79.5757	379.395	78.7455	379.395	79.7831	379.395	79.0674	379.395	79.8593	379.395	79.3816	379.395	79.8065	379.395	79.6397
392.578	82.2644	392.578	81.9824	392.578	82.4208	392.578	81.5807	392.578	82.4535	392.578	81.0765	392.578	82.3685	392.578	80.502	392.578	82.1724	392.578	79.9051	392.578	81.8675	392.578	79.3432	392.578	81.4482	392.578	78.8681	392.578	80.9033	392.578	78.5075	392.578	80.2288	392.578	78.2568	392.578	79.4568	392.578	78.0909	392.578	78.6969	392.578	77.9883	392.578	78.1484	392.578	77.9511	392.578	77.9964	392.578	78.0042	392.578	78.2332	392.578	78.1726	392.578	78.6598	392.578	78.4492	392.578	79.0654	392.578	78.7836	392.578	79.3309	392.578	79.101	392.578	79.4171	392.578	79.3299
405.762	82.1228	405.762	81.8673	405.762	82.2349	405.762	81.4711	405.762	82.2077	405.762	80.9458	405.762	82.0532	405.762	80.3163	405.762	81.7898	405.762	79.6287	405.762	81.4385	405.762	78.954	405.762	81.0168	405.762	78.374	405.762	80.5321	405.762	77.9451	405.762	79.9815	405.762	77.6649	405.762	79.3629	405.762	77.4831	405.762	78.7027	405.762	77.3518	405.762	78.092	405.762	77.2702	405.762	77.691	405.762	77.2898	405.762	77.638	405.762	77.4693	405.762	77.9121	405.762	77.8105	405.762	78.3349	405.762	78.2352	405.762	78.7073	405.762	78.6239	405.762	78.9013	405.762	78.8684
420.41	82.4692	420.41	82.225	420.41	82.6131	420.41	81.8867	420.41	82.6527	420.41	81.4597	420.41	82.5873	420.41	80.9466	420.41	82.4178	420.41	80.3494	420.41	82.144	420.41	79.6809	420.41	81.7643	420.41	78.9777	420.41	81.2771	420.41	78.3066	420.41	80.6845	420.41	77.7459	420.41	79.9972	420.41	77.3474	420.41	79.2428	420.41	77.1109	420.41	78.4792	420.41	77.0079	420.41	77.8097	420.41	77.024	420.41	77.3731	420.41	77.1685	420.41	77.2707	420.41	77.4351	420.41	77.4679	420.41	77.7609	420.41	77.797	420.41	78.0365	420.41	78.0671	420.41	78.1563
435.059	81.7531	435.059	81.5277	435.059	81.8709	435.059	81.2129	435.059	81.8763	435.059	80.8345	435.059	81.778	435.059	80.4164	435.059	81.5937	435.059	79.971	435.059	81.3426	435.059	79.5004	435.059	81.039	435.059	79.0077	435.059	80.688	435.059	78.5128	435.059	80.2877	435.059	78.0582	435.059	79.8391	435.059	77.698	435.059	79.3589	435.059	77.4759	435.059	78.8897	435.059	77.4131	435.059	78.5	435.059	77.5113	435.059	78.2656	435.059	77.7535	435.059	78.2321	435.059	78.0933	435.059	78.3769	435.059	78.4499	435.059	78.6063	435.059	78.7275	435.059	78.7972	435.059	78.8512
451.172	82.6152	451.172	82.2669	451.172	82.804	451.172	81.7814	451.172	82.8218	451.172	81.1888	451.172	82.6678	451.172	80.5233	451.172	82.3516	451.172	79.8169	451.172	81.8912	451.172	79.0937	451.172	81.3119	451.172	78.3689	451.172	80.646	451.172	77.655	451.172	79.9331	451.172	76.9769	451.172	79.2157	451.172	76.3909	451.172	78.533	451.172	75.9937	451.172	77.9197	451.172	75.8942	451.172	77.421	451.172	76.1384	451.172	77.1106	451.172	76.6496	451.172	77.0685	451.172	77.2606	451.172	77.3006	451.172	77.7992	451.172	77.6881	451.172	78.141	451.172	78.0462	451.172	78.2227
465.82	81.8236	465.82	81.5955	465.82	81.9172	465.82	81.2419	465.82	81.8807	465.82	80.7831	465.82	81.7295	465.82	80.2424	465.82	81.4818	465.82	79.6386	465.82	81.1506	465.82	78.9845	465.82	80.7397	465.82	78.2934	465.82	80.2464	465.82	77.5877	465.82	79.6687	465.82	76.9021	465.82	79.0167	465.82	76.2795	465.82	78.3219	465.82	75.7719	465.82	77.6466	465.82	75.4513	465.82	77.0848	465.82	75.4022	465.82	76.7393	465.82	75.6594	465.82	76.6619	465.82	76.1374	465.82	76.8036	465.82	76.6598	465.82	77.0377	465.82	77.0611	465.82	77.2236	465.82	77.2514
483.398	81.6529	483.398	81.3924	483.398	81.7754	483.398	81.0188	483.398	81.7519	483.398	80.5686	483.398	81.59	483.398	80.0765	483.398	81.3076	483.398	79.5625	483.398	80.9287	483.398	79.0255	483.398	80.4813	483.398	78.4472	483.398	79.9939	483.398	77.8033	483.398	79.4875	483.398	77.0784	483.398	78.9657	483.398	76.2883	483.398	78.4128	483.398	75.5198	483.398	77.8167	483.398	74.9731	483.398	77.2169	483.398	74.9069	483.398	76.7536	483.398	75.4023	483.398	76.6266	483.398	76.2298	483.398	76.8997	483.398	77.056	483.398	77.3795	483.398	77.6473	483.398	77.7773	483.398	77.8931
499.512	81.4676	499.512	81.2173	499.512	81.607	499.512	80.8768	499.512	81.6284	499.512	80.4756	499.512	81.5325	499.512	80.0373	499.512	81.3191	499.512	79.566	499.512	80.9854	499.512	79.0485	499.512	80.5311	499.512	78.4717	499.512	79.9704	499.512	77.8382	499.512	79.3453	499.512	77.1625	499.512	78.7282	499.512	76.4578	499.512	78.1934	499.512	75.7409	499.512	77.7699	499.512	75.085	499.512	77.4372	499.512	74.6842	499.512	77.1884	499.512	74.7765	499.512	77.0698	499.512	75.3668	499.512	77.1179	499.512	76.1609	499.512	77.2662	499.512	76.8421	499.512	77.3604	499.512	77.2476
517.09	80.9318	517.09	80.4948	517.09	81.1964	517.09	79.9537	517.09	81.273	517.09	79.4254	517.09	81.1876	517.09	79.0303	517.09	80.9937	517.09	78.8126	517.09	80.7506	517.09	78.6986	517.09	80.4915	517.09	78.5477	517.09	80.1973	517.09	78.2308	517.09	79.7966	517.09	77.6729	517.09	79.1965	517.09	76.8671	517.09	78.3343	517.09	75.9024	517.09	77.2573	517.09	75.0254	517.09	76.246	517.09	74.6452	517.09	75.8174	517.09	75.0351	517.09	76.2264	517.09	75.9811	517.09	77.0837	517.09	77.0301	517.09	77.8697	517.09	77.8571	517.09	78.3072	517.09	78.3036
536.133	81.3748	536.133	80.9581	536.133	81.5069	536.133	80.2785	536.133	81.3549	536.133	79.4002	536.133	80.9342	536.133	78.4561	536.133	80.2819	536.133	77.6537	536.133	79.4798	536.133	77.1932	536.133	78.6816	536.133	77.1043	536.133	78.0952	536.133	77.2013	536.133	77.8543	536.133	77.2284	536.133	77.8674	536.133	76.9896	536.133	77.862	536.133	76.3884	536.133	77.5689	536.133	75.469	536.133	76.863	536.133	74.5615	536.133	75.9092	536.133	74.3424	536.133	75.3256	536.133	75.1227	536.133	75.6962	536.133	76.3047	536.133	76.6306	536.133	77.2313	536.133	77.3893	536.133	77.6156
555.176	81.5395	555.176	81.1488	555.176	81.6923	555.176	80.5228	555.176	81.618	555.176	79.6893	555.176	81.33	555.176	78.7143	555.176	80.8368	555.176	77.7118	555.176	80.1413	555.176	76.8376	555.176	79.2537	555.176	76.2381	555.176	78.2242	555.176	75.9577	555.176	77.1991	555.176	75.8914	555.176	76.4413	555.176	75.8415	555.176	76.1464	555.176	75.6164	555.176	76.1508	555.176	75.1074	555.176	76.0405	555.176	74.3794	555.176	75.528	555.176	73.788	555.176	74.7176	555.176	73.8276	555.176	74.2209	555.176	74.4824	555.176	74.5292	555.176	75.1843	555.176	75.1676	555.176	75.4618
574.219	81.0517	574.219	80.7121	574.219	81.1726	574.219	80.1741	574.219	81.0747	574.219	79.4737	574.219	80.7766	574.219	78.6508	574.219	80.3096	574.219	77.7429	574.219	79.7059	574.219	76.804	574.219	78.9848	574.219	75.9461	574.219	78.1453	574.219	75.3288	574.219	77.1846	574.219	75.0238	574.219	76.1599	574.219	74.9007	574.219	75.2734	574.219	74.7419	574.219	74.8132	574.219	74.4364	574.219	74.815	574.219	74.076	574.219	74.9609	574.219	73.9293	574.219	74.9973	574.219	74.2135	574.219	75.001	574.219	74.811	574.219	75.1834	574.219	75.3702	574.219	75.4873	574.219	75.6139
594.727	80.622	594.727	80.3102	594.727	80.6916	594.727	79.7666	594.727	80.5243	594.727	79.0327	594.727	80.1388	594.727	78.1926	594.727	79.5746	594.727	77.3531	594.727	78.9004	594.727	76.5793	594.727	78.2018	594.727	75.8446	594.727	77.5363	594.727	75.0821	594.727	76.8764	594.727	74.2978	594.727	76.1002	594.727	73.6199	594.727	75.0759	594.727	73.2019	594.727	73.8703	594.727	73.0862	594.727	73.0726	594.727	73.25	594.727	73.4436	594.727	73.7126	594.727	74.5924	594.727	74.453	594.727	75.6348	594.727	75.2899	594.727	76.2508	594.727	75.9815	594.727	76.4777	594.727	76.3855
615.234	80.7747	615.234	80.3523	615.234	80.9019	615.234	79.6921	615.234	80.7135	615.234	78.8853	615.234	80.2299	615.234	78.0436	615.234	79.5122	615.234	77.262	615.234	78.6538	615.234	76.5725	615.234	77.7641	615.234	75.9365	615.234	76.9474	615.234	75.2888	615.234	76.2652	615.234	74.5964	615.234	75.6981	615.234	73.8847	615.234	75.148	615.234	73.2153	615.234	74.4523	615.234	72.6519	615.234	73.423	615.234	72.3137	615.234	72.1528	615.234	72.4566	615.234	71.7282	615.234	73.2343	615.234	73.0406	615.234	74.3546	615.234	74.7239	615.234	75.3428	615.234	75.7106	615.234	75.8674
637.207	81.861	637.207	81.3743	637.207	81.9858	637.207	80.5456	637.207	81.7663	637.207	79.4408	637.207	81.2481	637.207	78.1938	637.207	80.49	637.207	77.0415	637.207	79.5559	637.207	76.2656	637.207	78.5178	637.207	75.9376	637.207	77.4608	637.207	75.7895	637.207	76.4877	637.207	75.4814	637.207	75.7158	637.207	74.8499	637.207	75.1967	637.207	73.9638	637.207	74.7469	637.207	73.1523	637.207	73.9907	637.207	72.9607	637.207	72.8503	637.207	73.7038	637.207	72.3847	637.207	75.0411	637.207	73.7764	637.207	76.3803	637.207	75.7483	637.207	77.3084	637.207	77.0969	637.207	77.5945
659.18	81.9345	659.18	81.5642	659.18	81.9252	659.18	80.833	659.18	81.5646	659.18	79.828	659.18	80.9127	659.18	78.703	659.18	80.0485	659.18	77.6159	659.18	79.0556	659.18	76.6481	659.18	78.0144	659.18	75.8436	659.18	77.0214	659.18	75.3052	659.18	76.1982	659.18	75.0875	659.18	75.5887	659.18	75.002	659.18	75.0144	659.18	74.7333	659.18	74.2015	659.18	74.1286	659.18	73.1585	659.18	73.4371	659.18	72.3824	659.18	73.3409	659.18	72.3852	659.18	74.1471	659.18	73.1561	659.18	75.2511	659.18	74.3767	659.18	76.0086	659.18	75.5189	659.18	76.1203
682.617	82.8031	682.617	82.4625	682.617	82.7594	682.617	81.7186	682.617	82.3982	682.617	80.625	682.617	81.7905	682.617	79.324	682.617	80.9646	682.617	78.0355	682.617	79.9125	682.617	76.9504	682.617	78.6592	682.617	76.0924	682.617	77.3571	682.617	75.3726	682.617	76.3477	682.617	74.7435	682.617	75.9469	682.617	74.1805	682.617	75.9764	682.617	73.6043	682.617	75.8961	682.617	73.0011	682.617	75.246	682.617	72.7015	682.617	73.693	682.617	73.3175	682.617	71.6896	682.617	74.8182	682.617	72.5117	682.617	76.4459	682.617	75.4808	682.617	77.6221	682.617	77.4277	682.617	78.0424
707.52	83.0935	707.52	82.7241	707.52	83.1403	707.52	82.0289	707.52	82.8676	707.52	81.0002	707.52	82.2908	707.52	79.6515	707.52	81.44	707.52	78.1173	707.52	80.346	707.52	76.8257	707.52	79.0237	707.52	76.2645	707.52	77.4937	707.52	76.1644	707.52	75.8931	707.52	75.7985	707.52	74.663	707.52	74.8355	707.52	74.3136	707.52	73.4469	707.52	74.53	707.52	72.1205	707.52	74.4883	707.52	71.4718	707.52	73.8111	707.52	72.2769	707.52	72.9126	707.52	74.4192	707.52	73.4021	707.52	76.6426	707.52	75.6514	707.52	78.118	707.52	77.6705	707.52	78.5143
732.422	83.1139	732.422	82.9287	732.422	82.985	732.422	82.3915	732.422	82.5945	732.422	81.4937	732.422	81.9758	732.422	80.2537	732.422	81.1393	732.422	78.7341	732.422	80.109	732.422	77.1242	732.422	78.9266	732.422	75.8501	732.422	77.5715	732.422	75.2917	732.422	75.8803	732.422	75.1636	732.422	73.6858	732.422	74.839	732.422	71.5929	732.422	73.9597	732.422	71.2746	732.422	72.5265	732.422	71.9199	732.422	71.1572	732.422	71.9776	732.422	71.4321	732.422	72.0033	732.422	73.5765	732.422	72.995	732.422	75.8418	732.422	74.7551	732.422	77.2353	732.422	76.5053	732.422	77.4574
757.324	83.1385	757.324	83.0608	757.324	82.8107	757.324	82.55	757.324	82.1839	757.324	81.6178	757.324	81.4361	757.324	80.3048	757.324	80.696	757.324	78.7296	757.324	79.908	757.324	77.1022	757.324	78.9039	757.324	75.5947	757.324	77.6168	757.324	74.3845	757.324	76.1601	757.324	73.8741	757.324	74.6487	757.324	73.984	757.324	73.1656	757.324	73.7964	757.324	72.3948	757.324	72.5749	757.324	72.6699	757.324	70.4693	757.324	72.098	757.324	70.27	757.324	68.7657	757.324	73.3294	757.324	67.9015	757.324	76.1911	757.324	73.7034	757.324	77.8212	757.324	76.9509	757.324	78.1352
785.156	82.4364	785.156	82.6361	785.156	82.1759	785.156	82.5767	785.156	81.9628	785.156	82.0976	785.156	81.6706	785.156	81.0581	785.156	81.0671	785.156	79.3336	785.156	80.0276	785.156	76.9787	785.156	78.593	785.156	74.6594	785.156	76.9518	785.156	73.5542	785.156	75.4035	785.156	73.5187	785.156	74.1024	785.156	73.5184	785.156	72.5763	785.156	73.0401	785.156	70.3016	785.156	71.7177	785.156	69.1311	785.156	68.8766	785.156	70.1442	785.156	65.2329	785.156	70.2052	785.156	69.5901	785.156	70.3051	785.156	74.5144	785.156	73.4719	785.156	77.1089	785.156	76.5098	785.156	77.7457
811.523	81.4906	811.523	81.5351	811.523	81.2972	811.523	81.2938	811.523	81.0497	811.523	80.6936	811.523	80.7283	811.523	79.7797	811.523	80.2479	811.523	78.7067	811.523	79.5527	811.523	77.6204	811.523	78.6399	811.523	76.5247	811.523	77.5098	811.523	75.398	811.523	76.1316	811.523	74.3797	811.523	74.472	811.523	73.6206	811.523	72.7476	811.523	73.0215	811.523	71.664	811.523	72.193	811.523	70.7975	811.523	70.4116	811.523	68.1434	811.523	66.3723	811.523	62.3427	811.523	62.0085	811.523	61.9004	811.523	68.4127	811.523	67.49	811.523	72.2072	811.523	71.4672	811.523	73.0877
840.82	80.9603	840.82	81.3986	840.82	80.348	840.82	81.3501	840.82	79.7869	840.82	80.639	840.82	79.1928	840.82	79.2314	840.82	78.4024	840.82	77.2372	840.82	77.4511	840.82	75.0645	840.82	76.5587	840.82	73.5121	840.82	75.9249	840.82	72.9529	840.82	75.4496	840.82	72.8616	840.82	74.641	840.82	72.916	840.82	72.769	840.82	73.1507	840.82	69.8835	840.82	73.3197	840.82	70.0839	840.82	72.7826	840.82	71.9305	840.82	70.8471	840.82	71.0512	840.82	67.5871	840.82	66.507	840.82	66.8518	840.82	63.3637	840.82	68.3965	840.82	66.9186	840.82	68.5342
870.117	81.0857	870.117	80.7093	870.117	81.272	870.117	80.6896	870.117	80.6804	870.117	80.7082	870.117	79.2824	870.117	80.0944	870.117	77.7199	870.117	78.5163	870.117	76.8677	870.117	76.0093	870.117	76.6513	870.117	72.9368	870.117	76.4587	870.117	70.2403	870.117	76.1885	870.117	69.6352	870.117	75.9256	870.117	71.0362	870.117	75.3321	870.117	72.5522	870.117	73.9029	870.117	73.3138	870.117	71.4432	870.117	73.0621	870.117	68.823	870.117	71.6808	870.117	68.1995	870.117	69.9277	870.117	68.4649	870.117	69.6825	870.117	68.8621	870.117	70.4283	870.117	69.9811	870.117	70.6752
900.879	81.8345	900.879	81.7829	900.879	81.1513	900.879	80.9913	900.879	80.1377	900.879	79.8442	900.879	79.2319	900.879	78.8305	900.879	78.4244	900.879	77.9096	900.879	77.5126	900.879	76.6306	900.879	76.4066	900.879	75.0012	900.879	75.1562	900.879	73.5792	900.879	73.8925	900.879	72.4161	900.879	72.6123	900.879	71.0487	900.879	71.1709	900.879	69.8861	900.879	70.4411	900.879	69.5139	900.879	71.2793	900.879	69.2553	900.879	71.6191	900.879	68.0983	900.879	70.8382	900.879	67.0785	900.879	69.1705	900.879	70.3201	900.879	67.4912	900.879	73.2708	900.879	70.8473	900.879	73.5281
933.105	82.124	933.105	81.8159	933.105	81.8441	933.105	81.1798	933.105	80.9126	933.105	80.4066	933.105	79.5567	933.105	79.3455	933.105	78.1971	933.105	77.6711	933.105	77.1377	933.105	75.3668	933.105	76.4384	933.105	72.9742	933.105	75.9488	933.105	71.0378	933.105	75.3619	933.105	69.7325	933.105	74.6596	933.105	69.8228	933.105	74.0048	933.105	71.2837	933.105	72.8907	933.105	72.659	933.105	71.3146	933.105	73.1945	933.105	70.5884	933.105	72.5095	933.105	68.9517	933.105	70.5828	933.105	65.9408	933.105	69.6841	933.105	69.6401	933.105	70.808	933.105	72.1892	933.105	72.0455
965.332	82.0173	965.332	82.2144	965.332	81.3732	965.332	81.776	965.332	80.501	965.332	80.7143	965.332	79.405	965.332	79.256	965.332	78.0279	965.332	77.7045	965.332	76.5876	965.332	76.1047	965.332	75.398	965.332	74.2971	965.332	74.3693	965.332	72.5234	965.332	73.3565	965.332	71.6012	965.332	72.9728	965.332	71.5129	965.332	72.8088	965.332	71.1301	965.332	71.5113	965.332	70.4295	965.332	70.5956	965.332	70.3117	965.332	71.1676	965.332	69.8383	965.332	70.8142	965.332	68.7404	965.332	69.9641	965.332	69.7474	965.332	69.5148	965.332	72.7353	965.332	72.2779	965.332	73.9938
1,000.49	81.7365	1,000.49	81.7579	1,000.49	81.7562	1,000.49	81.8241	1,000.49	81.0355	1,000.49	81.2659	1,000.49	79.2954	1,000.49	79.7325	1,000.49	77.3647	1,000.49	77.3153	1,000.49	76.3741	1,000.49	74.454	1,000.49	75.9547	1,000.49	71.9926	1,000.49	75.4106	1,000.49	70.3074	1,000.49	74.7023	1,000.49	68.5121	1,000.49	73.9261	1,000.49	67.4535	1,000.49	72.6579	1,000.49	69.0937	1,000.49	70.5919	1,000.49	71.0522	1,000.49	69.872	1,000.49	71.9643	1,000.49	69.5921	1,000.49	72.2176	1,000.49	66.6094	1,000.49	71.8472	1,000.49	67.4798	1,000.49	71.304	1,000.49	70.9173	1,000.49	71.4523	1,000.49	71.7403	1,000.49	71.5384
1,035.64	82.4012	1,035.64	82.3056	1,035.64	81.6806	1,035.64	81.7655	1,035.64	80.0944	1,035.64	80.9694	1,035.64	78.172	1,035.64	79.8779	1,035.64	76.5322	1,035.64	78.4223	1,035.64	75.5618	1,035.64	76.4558	1,035.64	75.3196	1,035.64	74.0613	1,035.64	75.0369	1,035.64	71.8957	1,035.64	73.8489	1,035.64	70.0333	1,035.64	72.1938	1,035.64	67.7689	1,035.64	71.7387	1,035.64	68.0403	1,035.64	71.3092	1,035.64	70.5778	1,035.64	70.4441	1,035.64	71.3214	1,035.64	70.5	1,035.64	70.6923	1,035.64	68.6947	1,035.64	69.8057	1,035.64	64.095	1,035.64	69.5183	1,035.64	67.0878	1,035.64	70.985	1,035.64	71.5401	1,035.64	72.4948
1,072.27	81.5688	1,072.27	81.6025	1,072.27	81.2822	1,072.27	81.4358	1,072.27	80.4177	1,072.27	80.7395	1,072.27	78.8954	1,072.27	79.3797	1,072.27	77.0396	1,072.27	77.7164	1,072.27	75.5121	1,072.27	76.0867	1,072.27	74.8578	1,072.27	74.637	1,072.27	74.6347	1,072.27	73.758	1,072.27	74.0937	1,072.27	73.2084	1,072.27	73.437	1,072.27	72.0246	1,072.27	72.7043	1,072.27	70.238	1,072.27	70.3929	1,072.27	68.9613	1,072.27	67.0272	1,072.27	68.344	1,072.27	68.4503	1,072.27	67.8359	1,072.27	68.5637	1,072.27	68.662	1,072.27	65.3862	1,072.27	71.4517	1,072.27	67.0349	1,072.27	73.3238	1,072.27	70.6822	1,072.27	72.9741
1,108.89	82.4753	1,108.89	82.4985	1,108.89	81.619	1,108.89	81.8518	1,108.89	80.1374	1,108.89	80.8401	1,108.89	78.3865	1,108.89	79.2057	1,108.89	76.9313	1,108.89	76.682	1,108.89	75.6699	1,108.89	74.304	1,108.89	74.2208	1,108.89	73.2242	1,108.89	73.7933	1,108.89	72.7305	1,108.89	74.2775	1,108.89	72.7192	1,108.89	74.1719	1,108.89	72.8544	1,108.89	73.5828	1,108.89	72.0732	1,108.89	72.8128	1,108.89	70.9677	1,108.89	71.1434	1,108.89	70.8347	1,108.89	69.9957	1,108.89	69.065	1,108.89	69.7371	1,108.89	65.0561	1,108.89	67.8445	1,108.89	65.7495	1,108.89	63.9591	1,108.89	71.0162	1,108.89	70.0931	1,108.89	72.9951
1,148.44	82.9383	1,148.44	83.0263	1,148.44	81.9947	1,148.44	82.3691	1,148.44	80.3893	1,148.44	80.9297	1,148.44	78.6737	1,148.44	78.7594	1,148.44	76.9862	1,148.44	76.4664	1,148.44	75.7157	1,148.44	74.6682	1,148.44	75.394	1,148.44	72.922	1,148.44	75.197	1,148.44	71.6887	1,148.44	74.2681	1,148.44	72.3801	1,148.44	72.8977	1,148.44	72.9235	1,148.44	72.8102	1,148.44	72.323	1,148.44	72.8041	1,148.44	71.0641	1,148.44	70.1287	1,148.44	69.8511	1,148.44	68.8691	1,148.44	69.1443	1,148.44	71.5635	1,148.44	68.7642	1,148.44	69.8214	1,148.44	69.5843	1,148.44	66.3928	1,148.44	71.4109	1,148.44	70.5456	1,148.44	72.2068
1,189.45	83.1617	1,189.45	83.2643	1,189.45	82.4085	1,189.45	82.5117	1,189.45	80.7323	1,189.45	80.7291	1,189.45	78.3691	1,189.45	78.3201	1,189.45	77.1811	1,189.45	76.066	1,189.45	77.0291	1,189.45	74.274	1,189.45	76.3921	1,189.45	72.8094	1,189.45	75.4149	1,189.45	71.0839	1,189.45	74.7507	1,189.45	69.3861	1,189.45	74.0993	1,189.45	70.4701	1,189.45	72.9198	1,189.45	72.1331	1,189.45	71.3399	1,189.45	71.5392	1,189.45	69.8457	1,189.45	69.765	1,189.45	69.4612	1,189.45	69.0544	1,189.45	69.1288	1,189.45	68.6578	1,189.45	69.3762	1,189.45	69.9195	1,189.45	69.0146	1,189.45	72.6296	1,189.45	69.1567	1,189.45	72.2914
1,230.47	83.1936	1,230.47	83.3257	1,230.47	82.3439	1,230.47	82.8257	1,230.47	80.5016	1,230.47	81.4631	1,230.47	78.1223	1,230.47	79.4283	1,230.47	76.2882	1,230.47	77.4929	1,230.47	75.2738	1,230.47	75.3944	1,230.47	74.948	1,230.47	71.819	1,230.47	75.2212	1,230.47	67.9554	1,230.47	74.9928	1,230.47	65.8704	1,230.47	73.3611	1,230.47	65.6332	1,230.47	71.7176	1,230.47	70.0327	1,230.47	72.3722	1,230.47	71.5265	1,230.47	71.6625	1,230.47	69.8028	1,230.47	65.1412	1,230.47	68.5042	1,230.47	68.6925	1,230.47	68.6732	1,230.47	70.7789	1,230.47	69.5203	1,230.47	67.6829	1,230.47	72.2658	1,230.47	70.3081	1,230.47	72.8281
1,274.41	83.3777	1,274.41	83.4198	1,274.41	82.0903	1,274.41	82.7424	1,274.41	79.8045	1,274.41	81.5726	1,274.41	78.0718	1,274.41	79.7078	1,274.41	77.3245	1,274.41	77.1407	1,274.41	76.5756	1,274.41	74.3106	1,274.41	75.5144	1,274.41	71.1466	1,274.41	74.9329	1,274.41	67.0669	1,274.41	74.8934	1,274.41	65.0378	1,274.41	73.9583	1,274.41	64.3957	1,274.41	72.5392	1,274.41	63.01	1,274.41	72.1442	1,274.41	65.9602	1,274.41	70.9778	1,274.41	68.6089	1,274.41	69.3774	1,274.41	69.3417	1,274.41	69.2631	1,274.41	68.6033	1,274.41	69.7468	1,274.41	69.5494	1,274.41	68.8621	1,274.41	71.8556	1,274.41	70.5351	1,274.41	72.0265
1,319.82	82.643	1,319.82	82.9211	1,319.82	81.6989	1,319.82	82.8862	1,319.82	79.3069	1,319.82	81.8629	1,319.82	77.4565	1,319.82	79.599	1,319.82	78.1446	1,319.82	77.1069	1,319.82	77.7658	1,319.82	75.9007	1,319.82	76.0414	1,319.82	74.2097	1,319.82	74.8847	1,319.82	69.6322	1,319.82	74.9941	1,319.82	64.3587	1,319.82	73.8683	1,319.82	66.5451	1,319.82	71.6302	1,319.82	67.2706	1,319.82	71.9681	1,319.82	68.4144	1,319.82	73.1875	1,319.82	70.327	1,319.82	72.4293	1,319.82	71.1978	1,319.82	67.129	1,319.82	68.8026	1,319.82	70.1599	1,319.82	65.1583	1,319.82	69.8709	1,319.82	69.3381	1,319.82	71.6297	1,319.82	72.1845
1,366.7	82.0983	1,366.7	82.5596	1,366.7	80.4573	1,366.7	82.2344	1,366.7	78.213	1,366.7	81.5234	1,366.7	77.5107	1,366.7	80.301	1,366.7	77.6267	1,366.7	77.9424	1,366.7	77.3364	1,366.7	75.4243	1,366.7	76.9295	1,366.7	74.0373	1,366.7	76.477	1,366.7	71.349	1,366.7	76.4391	1,366.7	66.8504	1,366.7	75.9275	1,366.7	59.2652	1,366.7	73.0178	1,366.7	58.3696	1,366.7	71.354	1,366.7	62.9368	1,366.7	72.8193	1,366.7	66.6898	1,366.7	70.2707	1,366.7	72.3131	1,366.7	69.4041	1,366.7	71.6049	1,366.7	71.1352	1,366.7	63.5593	1,366.7	66.5448	1,366.7	66.3851	1,366.7	70.8856	1,366.7	71.4669
1,413.57	82.702	1,413.57	82.9392	1,413.57	80.6157	1,413.57	82.2393	1,413.57	78.3595	1,413.57	81.5998	1,413.57	77.6276	1,413.57	80.1735	1,413.57	76.4988	1,413.57	76.2642	1,413.57	76.2103	1,413.57	70.8471	1,413.57	76.8758	1,413.57	70.6709	1,413.57	76.9098	1,413.57	72.2558	1,413.57	76.4016	1,413.57	73.5199	1,413.57	76.4799	1,413.57	71.2677	1,413.57	75.1861	1,413.57	65.1076	1,413.57	70.5073	1,413.57	63.365	1,413.57	69.585	1,413.57	58.3325	1,413.57	70.964	1,413.57	69.6372	1,413.57	66.1649	1,413.57	71.9115	1,413.57	68.2355	1,413.57	67.6333	1,413.57	67.0988	1,413.57	66.1467	1,413.57	69.4496	1,413.57	69.9304
1,463.38	83.0184	1,463.38	82.8329	1,463.38	81.4131	1,463.38	81.8536	1,463.38	78.6111	1,463.38	80.8745	1,463.38	77.2257	1,463.38	79.2924	1,463.38	77.0226	1,463.38	75.7175	1,463.38	77.1829	1,463.38	70.2231	1,463.38	76.9283	1,463.38	66.9684	1,463.38	76.559	1,463.38	68.3706	1,463.38	76.5033	1,463.38	70.6083	1,463.38	76.3027	1,463.38	70.5023	1,463.38	75.0448	1,463.38	67.8507	1,463.38	71.6204	1,463.38	67.8592	1,463.38	70.5818	1,463.38	65.4182	1,463.38	72.6717	1,463.38	67.4531	1,463.38	66.0496	1,463.38	70.3156	1,463.38	66.3863	1,463.38	66.3594	1,463.38	64.7838	1,463.38	66.2876	1,463.38	67.3436	1,463.38	70.7354
1,516.11	82.7258	1,516.11	82.8316	1,516.11	81.5358	1,516.11	81.7256	1,516.11	79.0324	1,516.11	79.9355	1,516.11	77.1073	1,516.11	78.1472	1,516.11	78.3879	1,516.11	76.6691	1,516.11	78.0496	1,516.11	74.9477	1,516.11	76.5675	1,516.11	72.5675	1,516.11	76.5081	1,516.11	68.9215	1,516.11	76.7392	1,516.11	62.9858	1,516.11	75.5367	1,516.11	65.6957	1,516.11	73.4025	1,516.11	68.4884	1,516.11	71.2749	1,516.11	70.775	1,516.11	71.3359	1,516.11	67.8542	1,516.11	69.8701	1,516.11	61.137	1,516.11	68.0082	1,516.11	65.2652	1,516.11	62.403	1,516.11	66.9254	1,516.11	65.3594	1,516.11	67.7725	1,516.11	66.4099	1,516.11	69.5218
1,568.85	82.3128	1,568.85	81.9762	1,568.85	80.4251	1,568.85	81.2059	1,568.85	78.0283	1,568.85	80.788	1,568.85	77.5888	1,568.85	78.8262	1,568.85	77.4654	1,568.85	74.9742	1,568.85	79.4757	1,568.85	73.0123	1,568.85	79.4778	1,568.85	72.8049	1,568.85	78.0284	1,568.85	70.3724	1,568.85	77.1484	1,568.85	63.7996	1,568.85	76.3571	1,568.85	50.792	1,568.85	75.7237	1,568.85	61.1972	1,568.85	73.6983	1,568.85	66.1473	1,568.85	70.3342	1,568.85	67.0155	1,568.85	70.29	1,568.85	60.633	1,568.85	69.9612	1,568.85	68.0756	1,568.85	67.841	1,568.85	67.6477	1,568.85	66.6237	1,568.85	66.1467	1,568.85	65.8545	1,568.85	70.0849
1,624.51	81.725	1,624.51	82.3297	1,624.51	80.1193	1,624.51	81.8678	1,624.51	78.6046	1,624.51	80.6536	1,624.51	76.4272	1,624.51	79.0292	1,624.51	79.4148	1,624.51	77.2475	1,624.51	81.0201	1,624.51	73.7487	1,624.51	78.767	1,624.51	71.1594	1,624.51	75.5186	1,624.51	70.3479	1,624.51	75.6558	1,624.51	66.2328	1,624.51	75.6431	1,624.51	65.8932	1,624.51	75.2913	1,624.51	61.9084	1,624.51	74.1951	1,624.51	64.903	1,624.51	71.1446	1,624.51	71.1438	1,624.51	71.4899	1,624.51	65.4249	1,624.51	71.4395	1,624.51	68.2998	1,624.51	66.9258	1,624.51	69.8189	1,624.51	67.8397	1,624.51	67.6119	1,624.51	61.414	1,624.51	67.2116
1,681.64	81.4762	1,681.64	81.7787	1,681.64	80.1482	1,681.64	81.478	1,681.64	78.307	1,681.64	80.6719	1,681.64	77.6353	1,681.64	78.854	1,681.64	80.551	1,681.64	76.6902	1,681.64	80.5894	1,681.64	72.864	1,681.64	79.0743	1,681.64	71.4646	1,681.64	76.9859	1,681.64	70.7971	1,681.64	75.1985	1,681.64	64.972	1,681.64	76.3162	1,681.64	63.9379	1,681.64	76.3626	1,681.64	67.4185	1,681.64	75.7043	1,681.64	67.1859	1,681.64	73.4642	1,681.64	71.7176	1,681.64	71.4252	1,681.64	64.8933	1,681.64	71.5387	1,681.64	63.9657	1,681.64	70.9078	1,681.64	70.6262	1,681.64	65.7913	1,681.64	65.2194	1,681.64	67.8877	1,681.64	58.9836
1,741.7	81.6491	1,741.7	82.1416	1,741.7	80.5706	1,741.7	80.529	1,741.7	77.5616	1,741.7	79.0991	1,741.7	77.3349	1,741.7	79.7622	1,741.7	80.6111	1,741.7	78.2875	1,741.7	79.8683	1,741.7	73.2699	1,741.7	79.8007	1,741.7	55.0658	1,741.7	79.5543	1,741.7	61.2322	1,741.7	76.892	1,741.7	68.0057	1,741.7	74.9908	1,741.7	65.418	1,741.7	76.2411	1,741.7	66.7958	1,741.7	74.2564	1,741.7	61.7476	1,741.7	72.4179	1,741.7	68.3159	1,741.7	73.0403	1,741.7	66.3749	1,741.7	72.2815	1,741.7	64.0798	1,741.7	68.9717	1,741.7	68.0364	1,741.7	63.9864	1,741.7	65.5615	1,741.7	68.1363	1,741.7	65.4497
1,803.22	82.5857	1,803.22	82.1064	1,803.22	80.8135	1,803.22	81.712	1,803.22	77.751	1,803.22	79.7377	1,803.22	78.6337	1,803.22	77.2997	1,803.22	79.1009	1,803.22	77.8868	1,803.22	81.6497	1,803.22	74.4932	1,803.22	81.6704	1,803.22	69.4632	1,803.22	79.5808	1,803.22	63.2264	1,803.22	77.1077	1,803.22	67.382	1,803.22	75.5554	1,803.22	66.3296	1,803.22	75.8132	1,803.22	65.3321	1,803.22	72.9323	1,803.22	64.0817	1,803.22	71.5883	1,803.22	62.2535	1,803.22	72.1837	1,803.22	67.9279	1,803.22	72.5926	1,803.22	67.3503	1,803.22	67.1214	1,803.22	66.5528	1,803.22	67.3014	1,803.22	64.6583	1,803.22	67.8149	1,803.22	67.3506
1,866.21	82.2964	1,866.21	82.3561	1,866.21	79.9288	1,866.21	80.9043	1,866.21	78.2685	1,866.21	80.0553	1,866.21	76.9904	1,866.21	77.9754	1,866.21	80.9493	1,866.21	77.0249	1,866.21	82.7644	1,866.21	76.2042	1,866.21	81.6086	1,866.21	73.3331	1,866.21	78.3954	1,866.21	69.2935	1,866.21	74.8673	1,866.21	69.2899	1,866.21	74.2401	1,866.21	71.3472	1,866.21	76.3903	1,866.21	72.4056	1,866.21	74.9668	1,866.21	69.5942	1,866.21	69.8357	1,866.21	60.4589	1,866.21	71.0656	1,866.21	67.9152	1,866.21	69.7166	1,866.21	70.3915	1,866.21	68.9967	1,866.21	66.6653	1,866.21	64.8519	1,866.21	62.0376	1,866.21	69.8149	1,866.21	67.6943
1,932.13	80.6436	1,932.13	81.1533	1,932.13	79.8729	1,932.13	80.917	1,932.13	75.5477	1,932.13	79.3031	1,932.13	77.1141	1,932.13	76.7508	1,932.13	79.2685	1,932.13	72.4764	1,932.13	81.4652	1,932.13	69.9693	1,932.13	81.8027	1,932.13	73.0177	1,932.13	78.5229	1,932.13	71.1187	1,932.13	75.0643	1,932.13	72.6987	1,932.13	72.2284	1,932.13	70.4659	1,932.13	73.4877	1,932.13	66.7849	1,932.13	75.9755	1,932.13	72.1162	1,932.13	72.421	1,932.13	70.5891	1,932.13	74.1966	1,932.13	67.1548	1,932.13	66.8709	1,932.13	67.6437	1,932.13	68.147	1,932.13	66.7589	1,932.13	59.5796	1,932.13	61.1848	1,932.13	67.7474	1,932.13	62.8458
1,999.51	81.1325	1,999.51	81.7934	1,999.51	79.3551	1,999.51	80.5784	1,999.51	74.9554	1,999.51	77.8149	1,999.51	76.1683	1,999.51	74.7121	1,999.51	80.4846	1,999.51	73.2492	1,999.51	81.7509	1,999.51	73.1504	1,999.51	81.4762	1,999.51	72.3995	1,999.51	79.008	1,999.51	71.6387	1,999.51	76.3407	1,999.51	70.0626	1,999.51	72.5382	1,999.51	72.1146	1,999.51	72.6162	1,999.51	66.8619	1,999.51	74.2902	1,999.51	69.0566	1,999.51	72.1539	1,999.51	69.6852	1,999.51	73.0519	1,999.51	62.357	1,999.51	71.1741	1,999.51	66.4042	1,999.51	69.0169	1,999.51	64.8593	1,999.51	60.8799	1,999.51	62.1014	1,999.51	69.7277	1,999.51	67.2734
2,069.82	81.9563	2,069.82	82.5044	2,069.82	79.6439	2,069.82	79.5886	2,069.82	74.7229	2,069.82	75.4897	2,069.82	76.8071	2,069.82	73.6339	2,069.82	80.8569	2,069.82	74.4817	2,069.82	81.746	2,069.82	75.4545	2,069.82	81.2881	2,069.82	74.5441	2,069.82	78.5779	2,069.82	74.1164	2,069.82	75.9102	2,069.82	71.804	2,069.82	73.4904	2,069.82	71.9688	2,069.82	69.7559	2,069.82	71.9353	2,069.82	73.848	2,069.82	66.1065	2,069.82	71.5004	2,069.82	69.984	2,069.82	71.7451	2,069.82	63.984	2,069.82	68.7263	2,069.82	66.8567	2,069.82	69.1442	2,069.82	64.5665	2,069.82	63.1288	2,069.82	64.2891	2,069.82	69.1202	2,069.82	64.2884
2,143.07	81.4452	2,143.07	82.2608	2,143.07	78.6519	2,143.07	79.8267	2,143.07	73.6441	2,143.07	74.4472	2,143.07	77.0272	2,143.07	73.1639	2,143.07	81.5601	2,143.07	75.3849	2,143.07	81.9037	2,143.07	74.9574	2,143.07	80.7254	2,143.07	73.559	2,143.07	77.8066	2,143.07	73.1634	2,143.07	75.2667	2,143.07	72.3023	2,143.07	75.0598	2,143.07	68.2244	2,143.07	68.0322	2,143.07	71.8933	2,143.07	70.6201	2,143.07	68.1019	2,143.07	70.322	2,143.07	69.3057	2,143.07	70.6076	2,143.07	68.2949	2,143.07	66.5085	2,143.07	64.4842	2,143.07	66.198	2,143.07	62.6213	2,143.07	58.0738	2,143.07	67.7927	2,143.07	69.2686	2,143.07	64.9807
2,219.24	80.9947	2,219.24	81.2238	2,219.24	77.2999	2,219.24	79.7996	2,219.24	69.8618	2,219.24	74.178	2,219.24	74.8259	2,219.24	72.4068	2,219.24	81.4119	2,219.24	72.8049	2,219.24	82.4671	2,219.24	73.0712	2,219.24	80.9374	2,219.24	74.9388	2,219.24	77.5428	2,219.24	71.381	2,219.24	70.5389	2,219.24	70.4619	2,219.24	72.6193	2,219.24	69.9587	2,219.24	70.9293	2,219.24	69.4474	2,219.24	71.5697	2,219.24	69.3133	2,219.24	70.5931	2,219.24	67.5568	2,219.24	71.3128	2,219.24	69.1456	2,219.24	67.5686	2,219.24	65.3388	2,219.24	65.6095	2,219.24	61.8066	2,219.24	51.1859	2,219.24	65.3046	2,219.24	67.8656	2,219.24	63.9998
2,296.88	81.3538	2,296.88	81.4697	2,296.88	77.7986	2,296.88	78.3155	2,296.88	65.5901	2,296.88	68.6518	2,296.88	74.3303	2,296.88	69.8894	2,296.88	81.1651	2,296.88	75.3962	2,296.88	82.4454	2,296.88	75.3047	2,296.88	80.6103	2,296.88	74.0362	2,296.88	78.1247	2,296.88	74.2192	2,296.88	73.8325	2,296.88	73.3781	2,296.88	68.4717	2,296.88	71.4266	2,296.88	67.7856	2,296.88	69.6707	2,296.88	71.7835	2,296.88	70.8384	2,296.88	70.9566	2,296.88	67.5227	2,296.88	71.3753	2,296.88	69.5753	2,296.88	68.8273	2,296.88	65.3473	2,296.88	66.0722	2,296.88	59.5127	2,296.88	39.9385	2,296.88	63.4013	2,296.88	64.4984	2,296.88	64.0061
2,378.91	80.9798	2,378.91	81.743	2,378.91	77.4958	2,378.91	77.0256	2,378.91	66.1829	2,378.91	61.8711	2,378.91	74.2019	2,378.91	72.2373	2,378.91	79.7575	2,378.91	77.2958	2,378.91	81.4792	2,378.91	77.4726	2,378.91	80.1137	2,378.91	76.5054	2,378.91	77.6694	2,378.91	74.6022	2,378.91	75.8998	2,378.91	71.8364	2,378.91	74.2587	2,378.91	71.8766	2,378.91	71.0329	2,378.91	68.6822	2,378.91	66.0766	2,378.91	68.7259	2,378.91	69.7273	2,378.91	68.7031	2,378.91	70.8426	2,378.91	68.3925	2,378.91	68.8833	2,378.91	66.4244	2,378.91	64.1714	2,378.91	59.5083	2,378.91	44.1459	2,378.91	64.1567	2,378.91	66.9995	2,378.91	67.5648
2,462.4	80.3674	2,462.4	81.0529	2,462.4	75.5452	2,462.4	76.8644	2,462.4	61.6576	2,462.4	47.9148	2,462.4	74.0914	2,462.4	75.1865	2,462.4	79.6198	2,462.4	77.1676	2,462.4	81.4068	2,462.4	77.1728	2,462.4	80.5314	2,462.4	75.0189	2,462.4	77.3737	2,462.4	74.2916	2,462.4	72.7845	2,462.4	72.1895	2,462.4	71.9364	2,462.4	69.3921	2,462.4	71.7826	2,462.4	69.4477	2,462.4	66.4352	2,462.4	67.1207	2,462.4	67.6048	2,462.4	69.2181	2,462.4	69.4382	2,462.4	68.6778	2,462.4	70.4841	2,462.4	65.8736	2,462.4	61.1357	2,462.4	57.561	2,462.4	55.6961	2,462.4	63.385	2,462.4	65.0113	2,462.4	67.0684
2,548.83	80.51	2,548.83	80.5293	2,548.83	75.5423	2,548.83	75.3797	2,548.83	57.6819	2,548.83	62.6049	2,548.83	73.9744	2,548.83	75.9769	2,548.83	79.7149	2,548.83	76.9938	2,548.83	81.1252	2,548.83	76.7437	2,548.83	79.8225	2,548.83	75.4769	2,548.83	75.7055	2,548.83	72.6639	2,548.83	72.9764	2,548.83	69.2603	2,548.83	72.9029	2,548.83	70.4031	2,548.83	70.1002	2,548.83	69.7317	2,548.83	65.0994	2,548.83	68.0234	2,548.83	67.1922	2,548.83	68.1045	2,548.83	68.6739	2,548.83	69.264	2,548.83	70.5031	2,548.83	66.8189	2,548.83	63.7879	2,548.83	60.1915	2,548.83	58.7817	2,548.83	64.162	2,548.83	65.5366	2,548.83	67.1241
2,639.65	79.9722	2,639.65	80.0224	2,639.65	74.6367	2,639.65	73.1784	2,639.65	44.173	2,639.65	69.0191	2,639.65	73.9401	2,639.65	75.1643	2,639.65	79.3004	2,639.65	78.1695	2,639.65	81.0964	2,639.65	77.4974	2,639.65	80.3532	2,639.65	76.7126	2,639.65	75.9516	2,639.65	75.2836	2,639.65	72.3565	2,639.65	73.6021	2,639.65	70.5766	2,639.65	71.8021	2,639.65	67.2037	2,639.65	67.2587	2,639.65	57.0179	2,639.65	68.3281	2,639.65	66.9389	2,639.65	65.4401	2,639.65	65.7371	2,639.65	68.7874	2,639.65	67.9984	2,639.65	66.0336	2,639.65	64.0024	2,639.65	63.4701	2,639.65	56.6242	2,639.65	61.6272	2,639.65	65.8349	2,639.65	66.405
2,731.93	79.2715	2,731.93	79.155	2,731.93	74.2758	2,731.93	72.6785	2,731.93	54.2127	2,731.93	70.5792	2,731.93	73.8384	2,731.93	76.7271	2,731.93	78.6475	2,731.93	78.2073	2,731.93	80.1884	2,731.93	77.7234	2,731.93	78.84	2,731.93	75.7682	2,731.93	75.7594	2,731.93	73.0178	2,731.93	71.0681	2,731.93	72.3298	2,731.93	68.3808	2,731.93	68.2969	2,731.93	62.6868	2,731.93	68.7893	2,731.93	56.3939	2,731.93	66.3114	2,731.93	65.2422	2,731.93	65.9823	2,731.93	65.3554	2,731.93	67.4244	2,731.93	66.2851	2,731.93	65.904	2,731.93	60.6295	2,731.93	62.6067	2,731.93	55.8101	2,731.93	58.4685	2,731.93	64.5296	2,731.93	63.8528
2,828.61	79.7811	2,828.61	78.9364	2,828.61	74.8001	2,828.61	72.7336	2,828.61	54.0036	2,828.61	71.5295	2,828.61	71.919	2,828.61	77.5294	2,828.61	77.7667	2,828.61	78.2842	2,828.61	79.447	2,828.61	77.5366	2,828.61	77.6881	2,828.61	75.4179	2,828.61	75.3742	2,828.61	72.4424	2,828.61	72.9653	2,828.61	68.8301	2,828.61	66.0983	2,828.61	68.578	2,828.61	60.5022	2,828.61	67.6041	2,828.61	48.3722	2,828.61	66.569	2,828.61	66.3408	2,828.61	66.896	2,828.61	62.5959	2,828.61	66.3206	2,828.61	65.4262	2,828.61	64.4917	2,828.61	57.0154	2,828.61	61.5963	2,828.61	54.7177	2,828.61	59.2719	2,828.61	63.3091	2,828.61	65.3262
2,928.22	78.7711	2,928.22	78.095	2,928.22	74.9014	2,928.22	72.1275	2,928.22	54.8703	2,928.22	72.8541	2,928.22	72.0979	2,928.22	77.8872	2,928.22	77.965	2,928.22	78.6854	2,928.22	79.2773	2,928.22	76.957	2,928.22	77.5785	2,928.22	75.3049	2,928.22	74.7619	2,928.22	73.021	2,928.22	71.0048	2,928.22	71.4868	2,928.22	60.0012	2,928.22	68.3991	2,928.22	63.4622	2,928.22	66.899	2,928.22	62.1436	2,928.22	64.5134	2,928.22	65.3668	2,928.22	63.6883	2,928.22	64.0677	2,928.22	65.1768	2,928.22	63.0269	2,928.22	64.4192	2,928.22	53.8366	2,928.22	60.4799	2,928.22	57.2686	2,928.22	62.2621	2,928.22	63.4995	2,928.22	64.3517
3,030.76	78.6314	3,030.76	77.7325	3,030.76	74.3906	3,030.76	71.2606	3,030.76	54.8311	3,030.76	73.8257	3,030.76	73.7799	3,030.76	78.0505	3,030.76	77.7424	3,030.76	78.3552	3,030.76	78.2873	3,030.76	76.4737	3,030.76	77.3615	3,030.76	75.017	3,030.76	75.5433	3,030.76	71.266	3,030.76	70.6348	3,030.76	67.3983	3,030.76	66.3765	3,030.76	66.2627	3,030.76	62.7385	3,030.76	64.827	3,030.76	66.9991	3,030.76	64.5887	3,030.76	64.556	3,030.76	63.0038	3,030.76	63.5897	3,030.76	64.6318	3,030.76	62.1389	3,030.76	64.4942	3,030.76	54.4025	3,030.76	60.2276	3,030.76	59.0216	3,030.76	59.795	3,030.76	62.4707	3,030.76	65.22
3,137.7	78.8945	3,137.7	77.7592	3,137.7	75.2866	3,137.7	70.8753	3,137.7	52.6311	3,137.7	75.0829	3,137.7	74.2111	3,137.7	78.6258	3,137.7	77.9006	3,137.7	78.2874	3,137.7	77.8871	3,137.7	76.0998	3,137.7	77.1467	3,137.7	73.3054	3,137.7	75.6639	3,137.7	70.6939	3,137.7	72.3154	3,137.7	70.2194	3,137.7	70.4219	3,137.7	68.0146	3,137.7	62.5681	3,137.7	65.6542	3,137.7	67.0691	3,137.7	62.2298	3,137.7	65.4615	3,137.7	61.9876	3,137.7	62.4581	3,137.7	63.0769	3,137.7	60.2956	3,137.7	62.9299	3,137.7	59.1134	3,137.7	60.2945	3,137.7	57.9561	3,137.7	56.2891	3,137.7	62.1806	3,137.7	63.756
3,249.02	79.1498	3,249.02	77.1306	3,249.02	75.8773	3,249.02	70.1045	3,249.02	60.6847	3,249.02	75.8229	3,249.02	74.7965	3,249.02	78.614	3,249.02	77.5244	3,249.02	77.9143	3,249.02	76.877	3,249.02	75.504	3,249.02	76.7668	3,249.02	72.3854	3,249.02	76.8367	3,249.02	70.4949	3,249.02	73.7106	3,249.02	64.8245	3,249.02	71.8995	3,249.02	64.6758	3,249.02	65.2092	3,249.02	62.0555	3,249.02	66.3525	3,249.02	63.1059	3,249.02	66.3848	3,249.02	57.5973	3,249.02	61.8996	3,249.02	61.7297	3,249.02	62.0018	3,249.02	60.8527	3,249.02	59.3859	3,249.02	58.9208	3,249.02	58.1532	3,249.02	57.7793	3,249.02	62.1305	3,249.02	62.9386
3,363.28	79.0872	3,363.28	76.526	3,363.28	76.5207	3,363.28	69.6801	3,363.28	60.7232	3,363.28	77.0782	3,363.28	76.1846	3,363.28	78.7723	3,363.28	78.9301	3,363.28	77.093	3,363.28	76.8424	3,363.28	73.2778	3,363.28	76.7743	3,363.28	70.406	3,363.28	75.9541	3,363.28	66.3386	3,363.28	74.3382	3,363.28	68.1709	3,363.28	71.9759	3,363.28	66.7356	3,363.28	69.5632	3,363.28	63.0259	3,363.28	68.7814	3,363.28	62.682	3,363.28	68.571	3,363.28	56.8694	3,363.28	63.9813	3,363.28	60.2729	3,363.28	62.3665	3,363.28	60.9811	3,363.28	61.2515	3,363.28	56.3245	3,363.28	59.5224	3,363.28	56.6674	3,363.28	61.33	3,363.28	62.5896
3,481.93	79.701	3,481.93	76.268	3,481.93	77.2827	3,481.93	70.6632	3,481.93	65.2529	3,481.93	77.7628	3,481.93	76.9329	3,481.93	78.6902	3,481.93	79.5312	3,481.93	75.5622	3,481.93	76.3454	3,481.93	73.5756	3,481.93	77.2353	3,481.93	68.594	3,481.93	75.6366	3,481.93	70.4672	3,481.93	75.6228	3,481.93	65.5116	3,481.93	68.7964	3,481.93	64.4594	3,481.93	68.0622	3,481.93	62.6635	3,481.93	71.8885	3,481.93	62.8932	3,481.93	71.6769	3,481.93	56.307	3,481.93	63.918	3,481.93	59.3738	3,481.93	61.6562	3,481.93	57.4969	3,481.93	61.5431	3,481.93	57.0047	3,481.93	60.0553	3,481.93	54.269	3,481.93	59.8915	3,481.93	63.9315
3,604.98	79.6904	3,604.98	75.9863	3,604.98	77.1733	3,604.98	72.9069	3,604.98	68.3995	3,604.98	78.2575	3,604.98	76.5177	3,604.98	78.2721	3,604.98	79.3511	3,604.98	75.5917	3,604.98	75.5986	3,604.98	69.6246	3,604.98	76.2654	3,604.98	69.9672	3,604.98	76.532	3,604.98	66.0135	3,604.98	74.0333	3,604.98	69.2327	3,604.98	65.0016	3,604.98	66.3851	3,604.98	66.7497	3,604.98	64.9488	3,604.98	71.0218	3,604.98	63.4559	3,604.98	71.2044	3,604.98	60.4384	3,604.98	65.1322	3,604.98	58.6438	3,604.98	62.2201	3,604.98	54.8934	3,604.98	62.8434	3,604.98	57.0739	3,604.98	59.053	3,604.98	50.3099	3,604.98	60.4526	3,604.98	61.1422
3,732.42	79.8846	3,732.42	74.481	3,732.42	77.2471	3,732.42	73.9667	3,732.42	68.6394	3,732.42	79.0509	3,732.42	76.5354	3,732.42	78.1599	3,732.42	79.3124	3,732.42	73.6087	3,732.42	74.7048	3,732.42	71.8687	3,732.42	75.363	3,732.42	71.0916	3,732.42	76.5064	3,732.42	71.3227	3,732.42	75.5505	3,732.42	69.843	3,732.42	67.2176	3,732.42	66.6541	3,732.42	58.484	3,732.42	66.4838	3,732.42	69.2115	3,732.42	63.0605	3,732.42	68.4813	3,732.42	63.4658	3,732.42	64.7075	3,732.42	59.7994	3,732.42	59.5911	3,732.42	59.3491	3,732.42	63.4678	3,732.42	54.2821	3,732.42	57.5515	3,732.42	52.1855	3,732.42	62.041	3,732.42	57.9657
3,864.26	80.2857	3,864.26	74.3735	3,864.26	78.3411	3,864.26	76.3531	3,864.26	69.6787	3,864.26	78.9984	3,864.26	77.3783	3,864.26	78.1643	3,864.26	79.0033	3,864.26	73.2639	3,864.26	73.6021	3,864.26	73.8266	3,864.26	75.3248	3,864.26	73.6988	3,864.26	76.7619	3,864.26	72.1161	3,864.26	73.6503	3,864.26	67.4407	3,864.26	70.7212	3,864.26	67.8589	3,864.26	61.5097	3,864.26	66.426	3,864.26	70.7023	3,864.26	65.1989	3,864.26	70.7593	3,864.26	63.3304	3,864.26	64.963	3,864.26	61.0765	3,864.26	57.1284	3,864.26	62.1184	3,864.26	62.9078	3,864.26	58.0769	3,864.26	55.2298	3,864.26	55.9068	3,864.26	58.5849	3,864.26	60.3514
4,000.49	80.067	4,000.49	73.3162	4,000.49	79.0195	4,000.49	75.9898	4,000.49	72.0239	4,000.49	79.6981	4,000.49	77.3179	4,000.49	76.8938	4,000.49	78.8891	4,000.49	75.0651	4,000.49	72.6768	4,000.49	74.7159	4,000.49	76.3965	4,000.49	74.2765	4,000.49	75.1858	4,000.49	69.2881	4,000.49	73.3227	4,000.49	71.5144	4,000.49	71.0037	4,000.49	65.8004	4,000.49	59.7201	4,000.49	66.4725	4,000.49	71.6949	4,000.49	62.0645	4,000.49	69.9477	4,000.49	63.7103	4,000.49	64.4365	4,000.49	58.7962	4,000.49	58.8189	4,000.49	62.191	4,000.49	62.9343	4,000.49	55.807	4,000.49	50.5892	4,000.49	47.0424	4,000.49	59.3974	4,000.49	56.6092
4,141.11	79.6146	4,141.11	72.9175	4,141.11	79.7623	4,141.11	76.6222	4,141.11	72.2168	4,141.11	79.4388	4,141.11	78.9148	4,141.11	75.9546	4,141.11	78.4898	4,141.11	75.1829	4,141.11	71.1056	4,141.11	74.867	4,141.11	75.9104	4,141.11	72.2823	4,141.11	71.788	4,141.11	72.1412	4,141.11	73.3412	4,141.11	64.301	4,141.11	73.2494	4,141.11	66.6234	4,141.11	68.9396	4,141.11	64.646	4,141.11	74.1635	4,141.11	64.0381	4,141.11	67.2216	4,141.11	63.3223	4,141.11	65.5889	4,141.11	58.6537	4,141.11	62.4563	4,141.11	63.4883	4,141.11	63.4086	4,141.11	53.0773	4,141.11	51.8787	4,141.11	54.0367	4,141.11	57.0884	4,141.11	56.0685
4,287.6	80.7195	4,287.6	73.9599	4,287.6	80.5171	4,287.6	78.707	4,287.6	72.3256	4,287.6	79.4154	4,287.6	79.4971	4,287.6	76.3517	4,287.6	78.5905	4,287.6	76.3623	4,287.6	72.2194	4,287.6	74.5876	4,287.6	72.76	4,287.6	73.1066	4,287.6	73.841	4,287.6	70.5979	4,287.6	76.1499	4,287.6	72.0955	4,287.6	75.3191	4,287.6	68.2919	4,287.6	68.312	4,287.6	66.7791	4,287.6	71.7514	4,287.6	63.17	4,287.6	65.5103	4,287.6	63.6358	4,287.6	66.2402	4,287.6	57.3198	4,287.6	55.4877	4,287.6	63.4583	4,287.6	65.0034	4,287.6	53.3435	4,287.6	53.5497	4,287.6	52.3908	4,287.6	55.2316	4,287.6	56.5481
4,438.48	79.8966	4,438.48	73.2571	4,438.48	81.2135	4,438.48	78.1831	4,438.48	74.0736	4,438.48	78.2125	4,438.48	79.6562	4,438.48	77.3962	4,438.48	79.3057	4,438.48	74.8105	4,438.48	72.8259	4,438.48	75.0437	4,438.48	71.1777	4,438.48	73.1721	4,438.48	78.555	4,438.48	72.7318	4,438.48	76.1641	4,438.48	64.629	4,438.48	72.7676	4,438.48	66.9068	4,438.48	68.2655	4,438.48	65.9877	4,438.48	67.5999	4,438.48	65.0071	4,438.48	60.2526	4,438.48	64.2916	4,438.48	65.3042	4,438.48	58.4508	4,438.48	57.7366	4,438.48	63.5544	4,438.48	64.8667	4,438.48	54.289	4,438.48	39.961	4,438.48	53.5429	4,438.48	58.7917	4,438.48	46.4645
4,595.21	80.8893	4,595.21	75.4097	4,595.21	81.7737	4,595.21	79.8693	4,595.21	75.5326	4,595.21	78.8201	4,595.21	79.2606	4,595.21	77.1458	4,595.21	79.8913	4,595.21	76.2693	4,595.21	69.8962	4,595.21	75.4036	4,595.21	72.9341	4,595.21	73.7431	4,595.21	80.0998	4,595.21	71.0685	4,595.21	75.9335	4,595.21	71.7244	4,595.21	68.8848	4,595.21	66.682	4,595.21	59.1031	4,595.21	65.85	4,595.21	72.6191	4,595.21	64.2027	4,595.21	59.7518	4,595.21	63.2681	4,595.21	62.959	4,595.21	59.1349	4,595.21	48.1686	4,595.21	62.9819	4,595.21	61.2302	4,595.21	53.7313	4,595.21	53.3959	4,595.21	51.1928	4,595.21	59.5058	4,595.21	56.5973
4,756.35	80.7204	4,756.35	75.8907	4,756.35	81.7175	4,756.35	78.7556	4,756.35	76.8769	4,756.35	78.5506	4,756.35	78.3046	4,756.35	76.9602	4,756.35	78.4444	4,756.35	76.039	4,756.35	72.3977	4,756.35	75.8836	4,756.35	76.3923	4,756.35	74.2537	4,756.35	80.5786	4,756.35	71.987	4,756.35	74.4304	4,756.35	67.5801	4,756.35	70.5762	4,756.35	67.5816	4,756.35	60.12	4,756.35	64.4898	4,756.35	72.563	4,756.35	63.6354	4,756.35	61.331	4,756.35	62.8715	4,756.35	47.1889	4,756.35	60.4334	4,756.35	49.1134	4,756.35	62.1956	4,756.35	60.2611	4,756.35	58.9099	4,756.35	46.684	4,756.35	51.6284	4,756.35	59.9663	4,756.35	52.5648
4,924.8	80.717	4,924.8	76.7679	4,924.8	82.7743	4,924.8	80.41	4,924.8	75.8571	4,924.8	79.1835	4,924.8	80.3087	4,924.8	76.7337	4,924.8	77.1029	4,924.8	77.3899	4,924.8	74.7977	4,924.8	75.6242	4,924.8	76.5141	4,924.8	73.4468	4,924.8	78.7225	4,924.8	71.8154	4,924.8	72.0279	4,924.8	69.4444	4,924.8	71.5311	4,924.8	66.2292	4,924.8	59.2517	4,924.8	65.6662	4,924.8	69.408	4,924.8	63.309	4,924.8	65.3911	4,924.8	61.4419	4,924.8	57.9306	4,924.8	60.3291	4,924.8	51.6195	4,924.8	62.2513	4,924.8	60.9022	4,924.8	55.4104	4,924.8	43.5836	4,924.8	50.6189	4,924.8	56.9958	4,924.8	55.325
5,097.66	79.7533	5,097.66	78.7641	5,097.66	83.327	5,097.66	80.3332	5,097.66	76.9462	5,097.66	78.0813	5,097.66	80.5114	5,097.66	77.243	5,097.66	78.5351	5,097.66	76.9439	5,097.66	74.5195	5,097.66	75.4933	5,097.66	75.4413	5,097.66	72.6039	5,097.66	75.05	5,097.66	69.144	5,097.66	72.4563	5,097.66	66.6722	5,097.66	69.7142	5,097.66	64.7029	5,097.66	59.8041	5,097.66	64.3579	5,097.66	69.8986	5,097.66	63.4018	5,097.66	63.4281	5,097.66	58.7048	5,097.66	61.5981	5,097.66	59.2392	5,097.66	56.33	5,097.66	61.2877	5,097.66	60.5757	5,097.66	58.3082	5,097.66	48.9193	5,097.66	55.8246	5,097.66	59.2025	5,097.66	56.7743
5,277.83	79.2387	5,277.83	79.4743	5,277.83	82.1806	5,277.83	80.5052	5,277.83	78.5198	5,277.83	78.2165	5,277.83	79.346	5,277.83	78.6381	5,277.83	78.5887	5,277.83	76.5228	5,277.83	75.0893	5,277.83	73.9495	5,277.83	71.7257	5,277.83	70.9734	5,277.83	73.943	5,277.83	70.3519	5,277.83	74.405	5,277.83	67.6293	5,277.83	72.3153	5,277.83	65.6616	5,277.83	60.6342	5,277.83	63.7689	5,277.83	65.6806	5,277.83	64.4325	5,277.83	61.354	5,277.83	62.2597	5,277.83	63.3452	5,277.83	61.0612	5,277.83	55.7802	5,277.83	61.6204	5,277.83	59.5576	5,277.83	58.6869	5,277.83	45.9954	5,277.83	54.9299	5,277.83	57.9713	5,277.83	55.8981
5,463.87	81.2518	5,463.87	79.2394	5,463.87	82.0055	5,463.87	80.4189	5,463.87	79.3517	5,463.87	78.2091	5,463.87	79.065	5,463.87	78.5587	5,463.87	77.8432	5,463.87	75.7795	5,463.87	75.9865	5,463.87	74.4712	5,463.87	69.305	5,463.87	73.8251	5,463.87	72.9019	5,463.87	71.6278	5,463.87	73.9513	5,463.87	69.8742	5,463.87	70.8808	5,463.87	66.3805	5,463.87	66.542	5,463.87	64.6484	5,463.87	61.2921	5,463.87	64.3572	5,463.87	49.255	5,463.87	61.741	5,463.87	55.4784	5,463.87	62.9371	5,463.87	51.2535	5,463.87	63.0161	5,463.87	61.0867	5,463.87	60.4629	5,463.87	49.6085	5,463.87	55.071	5,463.87	59.5887	5,463.87	53.5212
5,657.23	80.3105	5,657.23	80.1027	5,657.23	82.7275	5,657.23	81.0522	5,657.23	77.5719	5,657.23	78.659	5,657.23	79.913	5,657.23	78.0488	5,657.23	78.1022	5,657.23	76.2019	5,657.23	77.4672	5,657.23	75.6574	5,657.23	70.4185	5,657.23	74.3797	5,657.23	73.8742	5,657.23	70.4856	5,657.23	72.8598	5,657.23	66.9184	5,657.23	68.8072	5,657.23	65.1484	5,657.23	63.5286	5,657.23	61.9883	5,657.23	59.5723	5,657.23	61.8914	5,657.23	56.738	5,657.23	59.0215	5,657.23	58.8626	5,657.23	60.548	5,657.23	50.9917	5,657.23	61.0583	5,657.23	57.342	5,657.23	59.3938	5,657.23	49.2504	5,657.23	56.1409	5,657.23	60.1753	5,657.23	53.9378
5,856.45	78.5789	5,856.45	81.7941	5,856.45	82.6638	5,856.45	79.6061	5,856.45	77.8583	5,856.45	78.7524	5,856.45	79.4795	5,856.45	77.6767	5,856.45	78.4044	5,856.45	76.3245	5,856.45	76.9976	5,856.45	75.4054	5,856.45	68.9079	5,856.45	71.5491	5,856.45	74.9818	5,856.45	69.3621	5,856.45	74.8355	5,856.45	65.0048	5,856.45	71.6102	5,856.45	64.3466	5,856.45	64.283	5,856.45	63.5298	5,856.45	51.8455	5,856.45	61.2753	5,856.45	57.8365	5,856.45	59.3279	5,856.45	53.1314	5,856.45	58.9594	5,856.45	51.118	5,856.45	61.4207	5,856.45	57.0141	5,856.45	61.178	5,856.45	41.787	5,856.45	54.5288	5,856.45	56.3751	5,856.45	51.9037
6,062.99	78.457	6,062.99	81.7516	6,062.99	82.5479	6,062.99	79.2187	6,062.99	78.6862	6,062.99	79.4063	6,062.99	79.091	6,062.99	77.3578	6,062.99	76.8386	6,062.99	76.9446	6,062.99	76.8874	6,062.99	74.6627	6,062.99	69.6224	6,062.99	71.6064	6,062.99	74.8706	6,062.99	70.3151	6,062.99	76.0004	6,062.99	67.4933	6,062.99	72.2133	6,062.99	65.4585	6,062.99	66.4763	6,062.99	63.428	6,062.99	53.0752	6,062.99	62.4585	6,062.99	55.0645	6,062.99	58.7188	6,062.99	53.8557	6,062.99	61.0133	6,062.99	53.8915	6,062.99	62.4191	6,062.99	59.1222	6,062.99	60.8543	6,062.99	50.1651	6,062.99	59.885	6,062.99	59.5054	6,062.99	45.1228
6,276.86	79.4643	6,276.86	82.2281	6,276.86	82.0858	6,276.86	78.7336	6,276.86	78.312	6,276.86	78.886	6,276.86	80.097	6,276.86	77.6427	6,276.86	75.0972	6,276.86	76.8645	6,276.86	76.7685	6,276.86	75.266	6,276.86	69.5517	6,276.86	72.5695	6,276.86	74.7931	6,276.86	70.399	6,276.86	75.9163	6,276.86	67.2885	6,276.86	72.0267	6,276.86	64.3623	6,276.86	67.8324	6,276.86	62.3638	6,276.86	56.3634	6,276.86	63.0251	6,276.86	58.8552	6,276.86	59.0617	6,276.86	57.0441	6,276.86	60.8837	6,276.86	56.0254	6,276.86	61.8092	6,276.86	57.8558	6,276.86	61.109	6,276.86	51.4087	6,276.86	58.1405	6,276.86	60.3895	6,276.86	43.2112
6,498.05	80.0063	6,498.05	81.7894	6,498.05	81.6255	6,498.05	78.5531	6,498.05	78.5653	6,498.05	78.5743	6,498.05	79.8331	6,498.05	77.8042	6,498.05	76.6981	6,498.05	76.0503	6,498.05	77.7543	6,498.05	75.5711	6,498.05	71.5626	6,498.05	71.8715	6,498.05	73.9219	6,498.05	68.8793	6,498.05	71.8012	6,498.05	66.7215	6,498.05	69.0045	6,498.05	62.6677	6,498.05	67.1241	6,498.05	63.3932	6,498.05	59.1513	6,498.05	60.0219	6,498.05	54.4917	6,498.05	59.1817	6,498.05	51.5644	6,498.05	59.8855	6,498.05	56.9235	6,498.05	59.3857	6,498.05	57.2872	6,498.05	61.847	6,498.05	49.7757	6,498.05	60.4059	6,498.05	55.8095	6,498.05	34.9068
6,726.56	80.3309	6,726.56	81.608	6,726.56	81.3545	6,726.56	78.852	6,726.56	78.865	6,726.56	78.4673	6,726.56	79.2447	6,726.56	78.0261	6,726.56	77.5703	6,726.56	75.9983	6,726.56	78.7263	6,726.56	74.8504	6,726.56	71.8695	6,726.56	71.5862	6,726.56	72.1363	6,726.56	67.8284	6,726.56	69.4527	6,726.56	66.5538	6,726.56	65.3035	6,726.56	62.1376	6,726.56	63.942	6,726.56	61.058	6,726.56	60.16	6,726.56	59.9007	6,726.56	47.2289	6,726.56	58.5697	6,726.56	57.9368	6,726.56	59.2467	6,726.56	56.9305	6,726.56	58.0572	6,726.56	55.5422	6,726.56	62.2446	6,726.56	52.5891	6,726.56	58.4938	6,726.56	58.6756	6,726.56	42.8644
6,963.87	81.0495	6,963.87	81.5831	6,963.87	81.315	6,963.87	79.1326	6,963.87	78.9267	6,963.87	78.1278	6,963.87	78.5031	6,963.87	77.8883	6,963.87	77.4778	6,963.87	75.8727	6,963.87	78.9203	6,963.87	74.3932	6,963.87	71.0532	6,963.87	71.5801	6,963.87	66.5639	6,963.87	68.5601	6,963.87	72.3698	6,963.87	66.8982	6,963.87	69.8219	6,963.87	62.76	6,963.87	64.4832	6,963.87	61.4204	6,963.87	61.0976	6,963.87	60.7046	6,963.87	53.8585	6,963.87	58.2093	6,963.87	53.5434	6,963.87	58.7466	6,963.87	58.7441	6,963.87	59.0879	6,963.87	43.3875	6,963.87	62.5654	6,963.87	56.5484	6,963.87	61.5067	6,963.87	54.755	6,963.87	34.6262
7,209.96	81.3651	7,209.96	82.0759	7,209.96	80.9267	7,209.96	78.6678	7,209.96	79.6397	7,209.96	78.4689	7,209.96	78.0262	7,209.96	77.5391	7,209.96	76.9142	7,209.96	75.6764	7,209.96	78.5025	7,209.96	74.2847	7,209.96	70.6964	7,209.96	71.7001	7,209.96	70.4886	7,209.96	68.9716	7,209.96	73.7773	7,209.96	66.2313	7,209.96	67.6688	7,209.96	63.1419	7,209.96	63.1237	7,209.96	61.2288	7,209.96	59.8542	7,209.96	59.5698	7,209.96	53.8331	7,209.96	57.2397	7,209.96	53.4873	7,209.96	59.1924	7,209.96	57.5888	7,209.96	58.7153	7,209.96	51.5746	7,209.96	62.4099	7,209.96	55.1435	7,209.96	58.9676	7,209.96	50.7397	7,209.96	42.6182
7,464.84	81.4642	7,464.84	81.66	7,464.84	80.8566	7,464.84	78.8606	7,464.84	80.1484	7,464.84	78.8739	7,464.84	78.0399	7,464.84	77.0381	7,464.84	76.9263	7,464.84	75.1979	7,464.84	77.3493	7,464.84	73.8992	7,464.84	69.9366	7,464.84	71.4368	7,464.84	73.4398	7,464.84	67.3937	7,464.84	72.355	7,464.84	64.0426	7,464.84	66.8439	7,464.84	60.9183	7,464.84	59.4742	7,464.84	60.3475	7,464.84	49.287	7,464.84	58.6142	7,464.84	50.1526	7,464.84	55.3323	7,464.84	49.1098	7,464.84	59.1832	7,464.84	57.0194	7,464.84	57.9607	7,464.84	52.5744	7,464.84	60.7359	7,464.84	51.4003	7,464.84	60.4763	7,464.84	51.4539	7,464.84	36.3535
7,727.05	81.8538	7,727.05	81.3541	7,727.05	80.6212	7,727.05	79.6284	7,727.05	79.9397	7,727.05	78.3946	7,727.05	78.8962	7,727.05	76.8861	7,727.05	75.8858	7,727.05	74.6772	7,727.05	75.1649	7,727.05	73.8664	7,727.05	72.8142	7,727.05	70.5523	7,727.05	73.2261	7,727.05	67.685	7,727.05	66.669	7,727.05	65.146	7,727.05	63.7123	7,727.05	61.1823	7,727.05	63.2742	7,727.05	60.3688	7,727.05	61.9002	7,727.05	59.0501	7,727.05	45.0835	7,727.05	56.4811	7,727.05	48.0964	7,727.05	58.3353	7,727.05	56.1106	7,727.05	57.2043	7,727.05	53.0968	7,727.05	60.2872	7,727.05	52.155	7,727.05	59.826	7,727.05	48.9665	7,727.05	41.9676
7,999.51	81.9609	7,999.51	81.0528	7,999.51	80.4399	7,999.51	80.2768	7,999.51	79.5842	7,999.51	77.884	7,999.51	79.0768	7,999.51	76.4154	7,999.51	75.154	7,999.51	74.982	7,999.51	74.414	7,999.51	73.2579	7,999.51	75.2532	7,999.51	71.1013	7,999.51	68.7867	7,999.51	67.6532	7,999.51	66.3858	7,999.51	63.9697	7,999.51	56.3153	7,999.51	60.4831	7,999.51	54.1187	7,999.51	58.5163	7,999.51	60.3721	7,999.51	58.1075	7,999.51	49.664	7,999.51	54.5422	7,999.51	41.3758	7,999.51	57.565	7,999.51	55.6918	7,999.51	55.4422	7,999.51	45.9188	7,999.51	59.2666	7,999.51	53.6409	7,999.51	60.2912	7,999.51	49.7893	7,999.51	44.8305
8,282.23	81.6587	8,282.23	81.1339	8,282.23	80.6035	8,282.23	80.2579	8,282.23	79.7866	8,282.23	78.1453	8,282.23	79.4004	8,282.23	75.789	8,282.23	76.4067	8,282.23	75.1051	8,282.23	75.6182	8,282.23	72.7591	8,282.23	74.8633	8,282.23	69.5942	8,282.23	63.571	8,282.23	65.9429	8,282.23	70.5686	8,282.23	61.6501	8,282.23	62.806	8,282.23	59.1965	8,282.23	60.6978	8,282.23	58.3038	8,282.23	52.542	8,282.23	55.5541	8,282.23	50.5463	8,282.23	55.4018	8,282.23	49.2941	8,282.23	56.1623	8,282.23	52.6402	8,282.23	54.6508	8,282.23	47.1361	8,282.23	59.0252	8,282.23	51.6595	8,282.23	59.562	8,282.23	32.0293	8,282.23	43.0683
8,573.73	81.1124	8,573.73	81.1816	8,573.73	80.8161	8,573.73	80.2464	8,573.73	79.866	8,573.73	77.9157	8,573.73	78.7575	8,573.73	75.5766	8,573.73	76.3739	8,573.73	74.5943	8,573.73	75.5585	8,573.73	72.4398	8,573.73	72.5771	8,573.73	68.3425	8,573.73	68.5395	8,573.73	65.6657	8,573.73	69.0566	8,573.73	62.3427	8,573.73	61.704	8,573.73	58.5558	8,573.73	61.7239	8,573.73	58.4511	8,573.73	53.9458	8,573.73	56.4339	8,573.73	49.1108	8,573.73	56.5167	8,573.73	36.0294	8,573.73	54.4367	8,573.73	52.2723	8,573.73	53.3638	8,573.73	49.1607	8,573.73	58.1918	8,573.73	52.9151	8,573.73	57.4017	8,573.73	42.2562	8,573.73	42.8891
8,876.95	80.8461	8,876.95	80.8841	8,876.95	80.6781	8,876.95	80.5285	8,876.95	80.109	8,876.95	77.4198	8,876.95	78.6069	8,876.95	75.8366	8,876.95	74.9876	8,876.95	73.542	8,876.95	74.9461	8,876.95	71.7705	8,876.95	70.4877	8,876.95	68.4409	8,876.95	67.2194	8,876.95	66.2235	8,876.95	67.0791	8,876.95	62.6941	8,876.95	60.6691	8,876.95	58.8694	8,876.95	59.7282	8,876.95	57.8177	8,876.95	51.7949	8,876.95	56.3232	8,876.95	47.9961	8,876.95	55.0847	8,876.95	43.9047	8,876.95	53.9684	8,876.95	52.3036	8,876.95	53.1655	8,876.95	44.8744	8,876.95	56.7691	8,876.95	40.8899	8,876.95	57.6684	8,876.95	39.9145	8,876.95	46.4361
9,188.96	80.5515	9,188.96	81.0728	9,188.96	80.8009	9,188.96	80.6744	9,188.96	79.9617	9,188.96	77.8545	9,188.96	78.5103	9,188.96	75.1393	9,188.96	74.607	9,188.96	72.9667	9,188.96	73.5843	9,188.96	71.4359	9,188.96	71.47	9,188.96	68.9984	9,188.96	64.5827	9,188.96	66.2407	9,188.96	65.5047	9,188.96	61.2793	9,188.96	57.9526	9,188.96	58.9281	9,188.96	61.5234	9,188.96	56.9946	9,188.96	57.5559	9,188.96	55.642	9,188.96	50.7042	9,188.96	52.8602	9,188.96	46.7303	9,188.96	53.7663	9,188.96	49.8846	9,188.96	51.3906	9,188.96	47.1815	9,188.96	56.2235	9,188.96	44.2181	9,188.96	58.4109	9,188.96	47.3221	9,188.96	44.7002
9,514.16	79.9257	9,514.16	81.3404	9,514.16	81.0083	9,514.16	80.6211	9,514.16	79.9323	9,514.16	78.244	9,514.16	78.301	9,514.16	74.3394	9,514.16	74.2335	9,514.16	72.5113	9,514.16	71.7619	9,514.16	71.7976	9,514.16	71.3389	9,514.16	68.2848	9,514.16	64.0511	9,514.16	65.4898	9,514.16	65.0874	9,514.16	61.0193	9,514.16	60.8569	9,514.16	57.5067	9,514.16	60.1786	9,514.16	56.7992	9,514.16	60.4001	9,514.16	54.525	9,514.16	51.8219	9,514.16	54.5085	9,514.16	51.3805	9,514.16	52.323	9,514.16	50.0809	9,514.16	50.1582	9,514.16	38.6851	9,514.16	56.1778	9,514.16	42.5886	9,514.16	57.1216	9,514.16	44.09	9,514.16	41.7481
9,849.61	79.7455	9,849.61	80.9058	9,849.61	81.0538	9,849.61	80.5468	9,849.61	80.1037	9,849.61	78.2775	9,849.61	78.2803	9,849.61	74.2447	9,849.61	75.3566	9,849.61	72.1984	9,849.61	72.9262	9,849.61	71.219	9,849.61	71.1243	9,849.61	67.6167	9,849.61	63.58	9,849.61	63.8628	9,849.61	66.1727	9,849.61	59.3613	9,849.61	59.3648	9,849.61	57.0026	9,849.61	58.11	9,849.61	53.865	9,849.61	59.6541	9,849.61	52.7668	9,849.61	48.4109	9,849.61	53.2381	9,849.61	50.3061	9,849.61	50.389	9,849.61	50.1562	9,849.61	47.2657	9,849.61	32.2205	9,849.61	54.425	9,849.61	43.7154	9,849.61	55.3009	9,849.61	47.8244	9,849.61	43.2896
10,196.8	80.1704	10,196.8	80.4729	10,196.8	81.1909	10,196.8	80.3433	10,196.8	80.2894	10,196.8	78.5847	10,196.8	78.5279	10,196.8	74.4225	10,196.8	76.8484	10,196.8	72.1594	10,196.8	73.8993	10,196.8	70.0238	10,196.8	70.4671	10,196.8	65.1342	10,196.8	64.9998	10,196.8	61.1294	10,196.8	66.3924	10,196.8	56.7896	10,196.8	61.7305	10,196.8	53.4106	10,196.8	57.7743	10,196.8	51.8922	10,196.8	50.717	10,196.8	50.6787	10,196.8	43.968	10,196.8	50.79	10,196.8	48.4191	10,196.8	49.1291	10,196.8	49.1588	10,196.8	44.6465	10,196.8	42.4208	10,196.8	53.4526	10,196.8	45.627	10,196.8	54.5666	10,196.8	49.1191	10,196.8	44.4645
10,555.7	80.7999	10,555.7	80.5537	10,555.7	81.544	10,555.7	80.3467	10,555.7	80.2174	10,555.7	78.7366	10,555.7	78.1752	10,555.7	74.9889	10,555.7	75.8062	10,555.7	71.6641	10,555.7	73.4012	10,555.7	68.1358	10,555.7	67.8836	10,555.7	62.6977	10,555.7	63.9847	10,555.7	59.5604	10,555.7	60.6978	10,555.7	56.4327	10,555.7	56.2539	10,555.7	53.4706	10,555.7	56.553	10,555.7	50.9196	10,555.7	55.6722	10,555.7	48.6668	10,555.7	45.6988	10,555.7	49.5203	10,555.7	50.2904	10,555.7	47.0092	10,555.7	48.1113	10,555.7	44.51	10,555.7	40.3624	10,555.7	51.958	10,555.7	45.7259	10,555.7	52.3463	10,555.7	48.0908	10,555.7	44.7167
10,927.7	81.3776	10,927.7	80.7147	10,927.7	81.4776	10,927.7	79.9981	10,927.7	79.8725	10,927.7	78.4419	10,927.7	78.503	10,927.7	75.3679	10,927.7	76.1852	10,927.7	71.2055	10,927.7	71.5198	10,927.7	66.8791	10,927.7	67.6515	10,927.7	63.1258	10,927.7	59.6508	10,927.7	59.0967	10,927.7	58.5563	10,927.7	53.9751	10,927.7	50.6358	10,927.7	52.1112	10,927.7	55.4716	10,927.7	48.4095	10,927.7	54.7377	10,927.7	47.5693	10,927.7	46.9292	10,927.7	46.8532	10,927.7	49.0617	10,927.7	44.9454	10,927.7	48.164	10,927.7	43.8083	10,927.7	38.02	10,927.7	49.5269	10,927.7	42.4105	10,927.7	48.1216	10,927.7	50.4549	10,927.7	49.1853
11,313	81.7616	11,313	80.8671	11,313	80.9775	11,313	79.576	11,313	79.82	11,313	78.0738	11,313	78.4185	11,313	75.0583	11,313	76.0417	11,313	70.8068	11,313	70.516	11,313	67.7654	11,313	67.6173	11,313	63.2964	11,313	61.2924	11,313	58.8485	11,313	58.2176	11,313	54.8007	11,313	61.221	11,313	51.1934	11,313	54.7389	11,313	47.7316	11,313	46.6048	11,313	46.8024	11,313	44.4956	11,313	47.8719	11,313	43.4482	11,313	42.6934	11,313	51.6034	11,313	47.5297	11,313	40.7349	11,313	40.8271	11,313	42.7969	11,313	44.7196	11,313	51.5945	11,313	49.2562
11,712.9	82.0053	11,712.9	81.0391	11,712.9	80.7614	11,712.9	79.337	11,712.9	79.4685	11,712.9	77.4478	11,712.9	77.6615	11,712.9	73.9596	11,712.9	75.6437	11,712.9	70.4029	11,712.9	71.04	11,712.9	67.9094	11,712.9	69.0998	11,712.9	63.5542	11,712.9	63.2483	11,712.9	58.5302	11,712.9	61.5795	11,712.9	54.0109	11,712.9	57.5488	11,712.9	50.0477	11,712.9	55.3485	11,712.9	48.3186	11,712.9	44.9741	11,712.9	45.364	11,712.9	49.2885	11,712.9	47.8067	11,712.9	46.9637	11,712.9	45.4911	11,712.9	47.1575	11,712.9	48.3812	11,712.9	36.4933	11,712.9	34.712	11,712.9	46.3025	11,712.9	40.8027	11,712.9	52.4893	11,712.9	47.6466
12,126	82.0031	12,126	80.8482	12,126	80.7964	12,126	79.1284	12,126	79.5031	12,126	76.7742	12,126	77.1223	12,126	72.2639	12,126	75.0156	12,126	70.0822	12,126	71.7364	12,126	67.8953	12,126	66.9617	12,126	61.9286	12,126	64.6328	12,126	60.1078	12,126	52.9309	12,126	55.9007	12,126	54.4273	12,126	52.7845	12,126	56.1411	12,126	49.435	12,126	56.5017	12,126	48.755	12,126	52.773	12,126	49.1801	12,126	45.5535	12,126	48.3214	12,126	48.1314	12,126	47.3084	12,126	31.1212	12,126	30.7032	12,126	40.5974	12,126	37.1038	12,126	53.2889	12,126	49.183
12,553.7	81.7579	12,553.7	80.417	12,553.7	80.5644	12,553.7	79.0977	12,553.7	79.9779	12,553.7	76.442	12,553.7	76.6111	12,553.7	70.5083	12,553.7	74.2652	12,553.7	70.0074	12,553.7	70.2951	12,553.7	67.253	12,553.7	67.9295	12,553.7	63.4015	12,553.7	65.2818	12,553.7	60.7251	12,553.7	53.8932	12,553.7	57.3813	12,553.7	54.8481	12,553.7	53.6285	12,553.7	56.186	12,553.7	49.5807	12,553.7	59.195	12,553.7	49.8888	12,553.7	54.1371	12,553.7	48.3042	12,553.7	46.2023	12,553.7	48.3865	12,553.7	49.5304	12,553.7	47.6274	12,553.7	32.8371	12,553.7	43.2183	12,553.7	43.578	12,553.7	38.6184	12,553.7	56.6479	12,553.7	54.3248
12,996.1	81.1425	12,996.1	80.2263	12,996.1	80.3475	12,996.1	78.7505	12,996.1	79.7924	12,996.1	76.1104	12,996.1	76.8069	12,996.1	70.6067	12,996.1	72.7261	12,996.1	69.0055	12,996.1	70.4407	12,996.1	67.9392	12,996.1	69.928	12,996.1	65.1951	12,996.1	66.7371	12,996.1	61.0558	12,996.1	57.1114	12,996.1	56.7543	12,996.1	54.8331	12,996.1	53.8181	12,996.1	56.0904	12,996.1	49.6049	12,996.1	58.8265	12,996.1	50.4925	12,996.1	52.8668	12,996.1	48.9977	12,996.1	46.3555	12,996.1	48.2932	12,996.1	50.5294	12,996.1	46.6433	12,996.1	40.2037	12,996.1	41.4383	12,996.1	46.3348	12,996.1	33.5798	12,996.1	57.2985	12,996.1	55.513
13,454.6	80.5716	13,454.6	79.9973	13,454.6	80.0259	13,454.6	78.2476	13,454.6	78.7381	13,454.6	75.7938	13,454.6	76.8814	13,454.6	71.3134	13,454.6	72.3237	13,454.6	68.0184	13,454.6	70.8642	13,454.6	68.6291	13,454.6	68.0582	13,454.6	65.1595	13,454.6	66.2116	13,454.6	58.7783	13,454.6	56.6726	13,454.6	54.5398	13,454.6	51.4674	13,454.6	51.8779	13,454.6	52.4563	13,454.6	45.409	13,454.6	56.7328	13,454.6	49.7858	13,454.6	51.9946	13,454.6	46.76	13,454.6	41.3702	13,454.6	45.6423	13,454.6	42.8718	13,454.6	44.6545	13,454.6	37.5488	13,454.6	30.1033	13,454.6	47.1567	13,454.6	40.1943	13,454.6	55.0607	13,454.6	52.5475
13,929.2	80.3223	13,929.2	79.9499	13,929.2	79.9368	13,929.2	77.6692	13,929.2	77.7598	13,929.2	75.252	13,929.2	75.6979	13,929.2	71.1591	13,929.2	71.4909	13,929.2	68.6594	13,929.2	70.7354	13,929.2	68.776	13,929.2	68.401	13,929.2	63.5708	13,929.2	66.08	13,929.2	57.1668	13,929.2	52.9936	13,929.2	52.9672	13,929.2	54.8656	13,929.2	49.7281	13,929.2	50.4402	13,929.2	45.838	13,929.2	56.2551	13,929.2	47.6804	13,929.2	49.1531	13,929.2	46.6515	13,929.2	42.5513	13,929.2	44.5855	13,929.2	35.6112	13,929.2	44.9095	13,929.2	41.886	13,929.2	44.3375	13,929.2	41.3072	13,929.2	41.1496	13,929.2	48.0564	13,929.2	52.4565
14,419.9	80.2006	14,419.9	79.7313	14,419.9	79.8375	14,419.9	77.168	14,419.9	77.0659	14,419.9	74.665	14,419.9	74.5285	14,419.9	71.4906	14,419.9	71.3733	14,419.9	69.5253	14,419.9	69.4228	14,419.9	67.6312	14,419.9	69.2298	14,419.9	62.3972	14,419.9	61.9604	14,419.9	57.013	14,419.9	55.6506	14,419.9	53.6443	14,419.9	51.5544	14,419.9	47.7745	14,419.9	48.2223	14,419.9	45.3717	14,419.9	53.9712	14,419.9	44.4112	14,419.9	44.1182	14,419.9	46.0806	14,419.9	40.1584	14,419.9	44.1029	14,419.9	34.6248	14,419.9	42.0674	14,419.9	26.3264	14,419.9	38.7236	14,419.9	42.0187	14,419.9	36.6944	14,419.9	41.25	14,419.9	50.8551
14,928.2	80.0521	14,928.2	79.447	14,928.2	79.4305	14,928.2	76.8041	14,928.2	76.3385	14,928.2	74.6315	14,928.2	74.4556	14,928.2	71.5262	14,928.2	72.4756	14,928.2	69.5961	14,928.2	68.8984	14,928.2	66.4326	14,928.2	67.7827	14,928.2	63.071	14,928.2	61.5915	14,928.2	57.7156	14,928.2	52.7106	14,928.2	54.9133	14,928.2	53.8125	14,928.2	47.6825	14,928.2	51.6528	14,928.2	46.6281	14,928.2	56.9817	14,928.2	45.084	14,928.2	43.6026	14,928.2	45.989	14,928.2	40.1562	14,928.2	43.9762	14,928.2	44.2684	14,928.2	40.2569	14,928.2	34.6835	14,928.2	40.578	14,928.2	37.3436	14,928.2	40.3986	14,928.2	44.92	14,928.2	46.7092
15,455.6	79.8071	15,455.6	79.2027	15,455.6	79.1424	15,455.6	76.6939	15,455.6	76.1205	15,455.6	74.7732	15,455.6	74.4213	15,455.6	71.759	15,455.6	72.2673	15,455.6	68.426	15,455.6	68.7979	15,455.6	66.2466	15,455.6	65.955	15,455.6	63.3683	15,455.6	61.7678	15,455.6	56.7206	15,455.6	57.9686	15,455.6	54.001	15,455.6	53.768	15,455.6	46.4478	15,455.6	51.3424	15,455.6	47.3004	15,455.6	57.803	15,455.6	45.8027	15,455.6	44.8579	15,455.6	45.0663	15,455.6	42.4017	15,455.6	44.6381	15,455.6	42.3055	15,455.6	31.7272	15,455.6	42.4026	15,455.6	38.1738	15,455.6	45.6247	15,455.6	46.4053	15,455.6	42.7537	15,455.6	48.244
16,000.5	79.9578	16,000.5	79.192	16,000.5	79.0358	16,000.5	76.6944	16,000.5	76.0448	16,000.5	74.5783	16,000.5	74.0308	16,000.5	71.2988	16,000.5	71.0314	16,000.5	67.9823	16,000.5	66.0801	16,000.5	66.508	16,000.5	66.3718	16,000.5	62.6117	16,000.5	61.174	16,000.5	56.0878	16,000.5	56.8426	16,000.5	53.7124	16,000.5	54.1169	16,000.5	45.0156	16,000.5	50.0057	16,000.5	47.2508	16,000.5	53.8192	16,000.5	45.7989	16,000.5	38.2422	16,000.5	42.6771	16,000.5	41.485	16,000.5	36.8374	16,000.5	38.0531	16,000.5	39.9355	16,000.5	43.1626	16,000.5	43.3374	16,000.5	47.2424	16,000.5	50.0019	16,000.5	56.6043	16,000.5	56.2949
16,564.5	79.8174	16,564.5	79.0926	16,564.5	78.9428	16,564.5	76.728	16,564.5	76.0613	16,564.5	74.5085	16,564.5	73.5183	16,564.5	70.7642	16,564.5	70.7616	16,564.5	68.2103	16,564.5	66.4332	16,564.5	65.7322	16,564.5	65.3986	16,564.5	62.1555	16,564.5	62.5525	16,564.5	56.2658	16,564.5	56.7261	16,564.5	53.0359	16,564.5	53.8325	16,564.5	43.1697	16,564.5	48.6858	16,564.5	48.1932	16,564.5	54.6358	16,564.5	42.8121	16,564.5	44.4044	16,564.5	42.8998	16,564.5	42.1484	16,564.5	42.9114	16,564.5	36.3277	16,564.5	45.1938	16,564.5	38.8163	16,564.5	45.7644	16,564.5	39.4057	16,564.5	49.9494	16,564.5	46.0108	16,564.5	53.8417
17,148.9	79.7959	17,148.9	79.1155	17,148.9	79.0029	17,148.9	76.5541	17,148.9	76.1355	17,148.9	74.0475	17,148.9	72.4656	17,148.9	69.9216	17,148.9	71.2882	17,148.9	67.929	17,148.9	67.5648	17,148.9	65.3855	17,148.9	64.1045	17,148.9	62.1858	17,148.9	60.9354	17,148.9	56.1787	17,148.9	57.0499	17,148.9	52.3119	17,148.9	52.9812	17,148.9	44.4335	17,148.9	48.2267	17,148.9	46.626	17,148.9	56.6851	17,148.9	40.9325	17,148.9	43.9548	17,148.9	43.11	17,148.9	37.101	17,148.9	41.7197	17,148.9	37.2582	17,148.9	48.6224	17,148.9	31.1719	17,148.9	48.5497	17,148.9	45.2046	17,148.9	46.6724	17,148.9	47.0321	17,148.9	51.0135
17,752.4	79.974	17,752.4	78.9585	17,752.4	78.8796	17,752.4	76.6914	17,752.4	75.9992	17,752.4	73.7691	17,752.4	72.8218	17,752.4	66.3938	17,752.4	69.7573	17,752.4	64.2856	17,752.4	64.8986	17,752.4	65.7061	17,752.4	63.8498	17,752.4	62.5242	17,752.4	63.0023	17,752.4	54.9396	17,752.4	57.9845	17,752.4	50.3294	17,752.4	51.8115	17,752.4	45.0758	17,752.4	42.1429	17,752.4	42.7283	17,752.4	51.0406	17,752.4	42.4399	17,752.4	37.6342	17,752.4	43.2433	17,752.4	44.5916	17,752.4	33.6943	17,752.4	36.5288	17,752.4	35.0638	17,752.4	36.9272	17,752.4	53.13	17,752.4	45.1077	17,752.4	42.5694	17,752.4	50.5732	17,752.4	45.7299
18,379.4	78.933	18,379.4	78.5367	18,379.4	77.9277	18,379.4	76.863	18,379.4	75.8553	18,379.4	73.5046	18,379.4	72.301	18,379.4	68.9228	18,379.4	69.2606	18,379.4	66.6409	18,379.4	66.4521	18,379.4	64.1846	18,379.4	61.8347	18,379.4	59.8971	18,379.4	58.5599	18,379.4	52.1209	18,379.4	53.5431	18,379.4	46.7321	18,379.4	44.2504	18,379.4	40.0335	18,379.4	46.3593	18,379.4	38.4988	18,379.4	56.1712	18,379.4	37.73	18,379.4	47.6035	18,379.4	34.186	18,379.4	42.0312	18,379.4	38.3279	18,379.4	27.4109	18,379.4	40.3676	18,379.4	36.2134	18,379.4	44.6579	18,379.4	42.8757	18,379.4	32.3349	18,379.4	34.176	18,379.4	35.9732
19,026.9	78.5652	19,026.9	78.5795	19,026.9	77.8386	19,026.9	76.7914	19,026.9	75.7248	19,026.9	73.2441	19,026.9	71.7638	19,026.9	69.1436	19,026.9	69.5152	19,026.9	66.5082	19,026.9	66.3983	19,026.9	62.8888	19,026.9	60.2809	19,026.9	58.7556	19,026.9	57.1661	19,026.9	51.7871	19,026.9	53.2529	19,026.9	45.7241	19,026.9	44.6127	19,026.9	41.1749	19,026.9	46.2606	19,026.9	37.8083	19,026.9	57.0095	19,026.9	31.8312	19,026.9	47.409	19,026.9	38.303	19,026.9	37.64	19,026.9	41.1798	19,026.9	31.3274	19,026.9	40.5817	19,026.9	31.0948	19,026.9	43.0081	19,026.9	39.7942	19,026.9	33.3835	19,026.9	36.1512	19,026.9	21.3291
19,697.8	78.0418	19,697.8	78.3716	19,697.8	77.437	19,697.8	76.6965	19,697.8	75.5049	19,697.8	73.1753	19,697.8	71.9287	19,697.8	69.0682	19,697.8	69.4261	19,697.8	65.5835	19,697.8	64.6383	19,697.8	61.5254	19,697.8	60.2479	19,697.8	57.3519	19,697.8	54.7301	19,697.8	51.664	19,697.8	50.7413	19,697.8	45.0119	19,697.8	44.2054	19,697.8	43.8322	19,697.8	46.4904	19,697.8	32.7096	19,697.8	56.6511	19,697.8	34.2096	19,697.8	47.6072	19,697.8	41.8127	19,697.8	37.1203	19,697.8	42.1897	19,697.8	27.916	19,697.8	40.762	19,697.8	37.8228	19,697.8	40.4472	19,697.8	38.9804	19,697.8	38.0375	19,697.8	38.2128	19,697.8	34.4266
19,999.5	78.2737	19,999.5	78.2605	19,999.5	77.1233	19,999.5	76.7703	19,999.5	75.2926	19,999.5	73.1781	19,999.5	72.2893	19,999.5	68.8394	19,999.5	70.1622	19,999.5	64.9328	19,999.5	64.9355	19,999.5	61.6066	19,999.5	54.2034	19,999.5	56.6158	19,999.5	57.1661	19,999.5	52.8959	19,999.5	51.6244	19,999.5	44.9056	19,999.5	45.1497	19,999.5	44.895	19,999.5	41.6299	19,999.5	44.9825	19,999.5	58.2207	19,999.5	43.0511	19,999.5	47.4393	19,999.5	42.637	19,999.5	45.2172	19,999.5	44.8886	19,999.5	40.0942	19,999.5	47.1482	19,999.5	43.9699	19,999.5	42.2001	19,999.5	36.2498	19,999.5	44.671	19,999.5	39.7928	19,999.5	39.0952
