"SPL Horizontal"
"On-Axis"		"10°"		"-10°"		"20°"		"-20°"		"30°"		"-30°"		"40°"		"-40°"		"50°"		"-50°"		"60°"		"-60°"		"70°"		"-70°"		"80°"		"-80°"		"90°"		"-90°"		"100°"		"-100°"		"110°"		"-110°"		"120°"		"-120°"		"130°"		"-130°"		"140°"		"-140°"		"150°"		"-150°"		"160°"		"-160°"		"170°"		"-170°"		"180°"
"Frequency / Hz"	"Sound Pressure Level / dB (re 20 µPa/V)  [2.83  V @ 1. m]"	"Frequency / Hz"	"Sound Pressure Level / dB (re 20 µPa/V)  [2.83  V @ 1. m]"	"Frequency / Hz"	"Sound Pressure Level / dB (re 20 µPa/V)  [2.83  V @ 1. m]"	"Frequency / Hz"	"Sound Pressure Level / dB (re 20 µPa/V)  [2.83  V @ 1. m]"	"Frequency / Hz"	"Sound Pressure Level / dB (re 20 µPa/V)  [2.83  V @ 1. m]"	"Frequency / Hz"	"Sound Pressure Level / dB (re 20 µPa/V)  [2.83  V @ 1. m]"	"Frequency / Hz"	"Sound Pressure Level / dB (re 20 µPa/V)  [2.83  V @ 1. m]"	"Frequency / Hz"	"Sound Pressure Level / dB (re 20 µPa/V)  [2.83  V @ 1. m]"	"Frequency / Hz"	"Sound Pressure Level / dB (re 20 µPa/V)  [2.83  V @ 1. m]"	"Frequency / Hz"	"Sound Pressure Level / dB (re 20 µPa/V)  [2.83  V @ 1. m]"	"Frequency / Hz"	"Sound Pressure Level / dB (re 20 µPa/V)  [2.83  V @ 1. m]"	"Frequency / Hz"	"Sound Pressure Level / dB (re 20 µPa/V)  [2.83  V @ 1. m]"	"Frequency / Hz"	"Sound Pressure Level / dB (re 20 µPa/V)  [2.83  V @ 1. m]"	"Frequency / Hz"	"Sound Pressure Level / dB (re 20 µPa/V)  [2.83  V @ 1. m]"	"Frequency / Hz"	"Sound Pressure Level / dB (re 20 µPa/V)  [2.83  V @ 1. m]"	"Frequency / Hz"	"Sound Pressure Level / dB (re 20 µPa/V)  [2.83  V @ 1. m]"	"Frequency / Hz"	"Sound Pressure Level / dB (re 20 µPa/V)  [2.83  V @ 1. m]"	"Frequency / Hz"	"Sound Pressure Level / dB (re 20 µPa/V)  [2.83  V @ 1. m]"	"Frequency / Hz"	"Sound Pressure Level / dB (re 20 µPa/V)  [2.83  V @ 1. m]"	"Frequency / Hz"	"Sound Pressure Level / dB (re 20 µPa/V)  [2.83  V @ 1. m]"	"Frequency / Hz"	"Sound Pressure Level / dB (re 20 µPa/V)  [2.83  V @ 1. m]"	"Frequency / Hz"	"Sound Pressure Level / dB (re 20 µPa/V)  [2.83  V @ 1. m]"	"Frequency / Hz"	"Sound Pressure Level / dB (re 20 µPa/V)  [2.83  V @ 1. m]"	"Frequency / Hz"	"Sound Pressure Level / dB (re 20 µPa/V)  [2.83  V @ 1. m]"	"Frequency / Hz"	"Sound Pressure Level / dB (re 20 µPa/V)  [2.83  V @ 1. m]"	"Frequency / Hz"	"Sound Pressure Level / dB (re 20 µPa/V)  [2.83  V @ 1. m]"	"Frequency / Hz"	"Sound Pressure Level / dB (re 20 µPa/V)  [2.83  V @ 1. m]"	"Frequency / Hz"	"Sound Pressure Level / dB (re 20 µPa/V)  [2.83  V @ 1. m]"	"Frequency / Hz"	"Sound Pressure Level / dB (re 20 µPa/V)  [2.83  V @ 1. m]"	"Frequency / Hz"	"Sound Pressure Level / dB (re 20 µPa/V)  [2.83  V @ 1. m]"	"Frequency / Hz"	"Sound Pressure Level / dB (re 20 µPa/V)  [2.83  V @ 1. m]"	"Frequency / Hz"	"Sound Pressure Level / dB (re 20 µPa/V)  [2.83  V @ 1. m]"	"Frequency / Hz"	"Sound Pressure Level / dB (re 20 µPa/V)  [2.83  V @ 1. m]"	"Frequency / Hz"	"Sound Pressure Level / dB (re 20 µPa/V)  [2.83  V @ 1. m]"	"Frequency / Hz"	"Sound Pressure Level / dB (re 20 µPa/V)  [2.83  V @ 1. m]"	"Frequency / Hz"	"Sound Pressure Level / dB (re 20 µPa/V)  [2.83  V @ 1. m]"
20.5078	46.1633	20.5078	45.8963	20.5078	46.1125	20.5078	45.3035	20.5078	45.7391	20.5078	44.38	20.5078	45.0269	20.5078	43.1876	20.5078	43.9709	20.5078	42.0636	20.5078	42.6728	20.5078	41.9022	20.5078	41.6371	20.5078	43.3675	20.5078	41.9497	20.5078	45.7397	20.5078	43.8922	20.5078	48.1555	20.5078	46.416	20.5078	50.3073	20.5078	48.8051	20.5078	52.1477	20.5078	50.8781	20.5078	53.6932	20.5078	52.6307	20.5078	54.9662	20.5078	54.0912	20.5078	55.9826	20.5078	55.2842	20.5078	56.7506	20.5078	56.2252	20.5078	57.2735	20.5078	56.9215	20.5078	57.5519	20.5078	57.3751	20.5078	57.5856
21.9727	49.5004	21.9727	49.4011	21.9727	49.4276	21.9727	49.1528	21.9727	49.1816	21.9727	48.8125	21.9727	48.7863	21.9727	48.497	21.9727	48.3139	21.9727	48.4031	21.9727	47.9253	21.9727	48.7557	21.9727	47.8882	21.9727	49.6511	21.9727	48.4565	21.9727	50.9653	21.9727	49.6353	21.9727	52.4704	21.9727	51.1755	21.9727	53.9809	21.9727	52.8063	21.9727	55.3898	21.9727	54.3617	21.9727	56.6443	21.9727	55.7646	21.9727	57.7184	21.9727	56.9838	21.9727	58.5982	21.9727	58.0065	21.9727	59.2744	21.9727	58.8264	21.9727	59.7403	21.9727	59.4388	21.9727	59.9909	21.9727	59.8391	21.9727	60.0239
23.4375	52.0038	23.4375	51.8791	23.4375	51.9695	23.4375	51.6101	23.4375	51.7798	23.4375	51.2399	23.4375	51.459	23.4375	50.8628	23.4375	51.0686	23.4375	50.6499	23.4375	50.7346	23.4375	50.8251	23.4375	50.6607	23.4375	51.5342	23.4375	51.0601	23.4375	52.7116	23.4375	51.9943	23.4375	54.1428	23.4375	53.3122	23.4375	55.6233	23.4375	54.7864	23.4375	57.0251	23.4375	56.2438	23.4375	58.2823	23.4375	57.5874	23.4375	59.3631	23.4375	58.7696	23.4375	60.251	23.4375	59.7674	23.4375	60.9363	23.4375	60.5683	23.4375	61.4125	23.4375	61.1644	23.4375	61.6747	23.4375	61.5499	23.4375	61.7206
24.9023	54.5803	24.9023	54.4874	24.9023	54.563	24.9023	54.3009	24.9023	54.4388	24.9023	54.0636	24.9023	54.2324	24.9023	53.8557	24.9023	53.9986	24.9023	53.8004	24.9023	53.8342	24.9023	54.0384	24.9023	53.8754	24.9023	54.6557	24.9023	54.2535	24.9023	55.6202	24.9023	55.0145	24.9023	56.8051	24.9023	56.0821	24.9023	58.0671	24.9023	57.3129	24.9023	59.2969	24.9023	58.5724	24.9023	60.4257	24.9023	59.7676	24.9023	61.4127	24.9023	60.8424	24.9023	62.2335	24.9023	61.764	24.9023	62.8719	24.9023	62.5122	24.9023	63.3173	24.9023	63.0737	24.9023	63.5623	24.9023	63.4394	24.9023	63.6032
26.3672	57.0223	26.3672	56.9634	26.3672	57.0045	26.3672	56.8422	26.3672	56.9126	26.3672	56.6939	26.3672	56.7673	26.3672	56.579	26.3672	56.6124	26.3672	56.5837	26.3672	56.5194	26.3672	56.8027	26.3672	56.5835	26.3672	57.3002	26.3672	56.8971	26.3672	58.0714	26.3672	57.5038	26.3672	59.0435	26.3672	58.3698	26.3672	60.1145	26.3672	59.4026	26.3672	61.1911	26.3672	60.4968	26.3672	62.2041	26.3672	61.5658	26.3672	63.1062	26.3672	62.5486	26.3672	63.8661	26.3672	63.4051	26.3672	64.4625	26.3672	64.1085	26.3672	64.8806	26.3672	64.6407	26.3672	65.1106	26.3672	64.9895	26.3672	65.1472
27.832	59.7231	27.832	59.6794	27.832	59.7095	27.832	59.5893	27.832	59.6418	27.832	59.4787	27.832	59.5371	27.832	59.3917	27.832	59.4295	27.832	59.3904	27.832	59.3723	27.832	59.5453	27.832	59.4342	27.832	59.9129	27.832	59.6839	27.832	60.5083	27.832	60.1622	27.832	61.295	27.832	60.8593	27.832	62.2011	27.832	61.7175	27.832	63.147	27.832	62.6566	27.832	64.0637	27.832	63.5994	27.832	64.8987	27.832	64.484	27.832	65.6143	27.832	65.2658	27.832	66.1837	27.832	65.913	27.832	66.5886	27.832	66.4037	27.832	66.8169	27.832	66.7231	27.832	66.8622
29.2969	61.6588	29.2969	61.6273	29.2969	61.6507	29.2969	61.5653	29.2969	61.6055	29.2969	61.4946	29.2969	61.5376	29.2969	61.4503	29.2969	61.4745	29.2969	61.4802	29.2969	61.4572	29.2969	61.6374	29.2969	61.5376	29.2969	61.9651	29.2969	61.7668	29.2969	62.4786	29.2969	62.1775	29.2969	63.1559	29.2969	62.7686	29.2969	63.9456	29.2969	63.5027	29.2969	64.7834	29.2969	64.32	29.2969	65.6083	29.2969	65.1566	29.2969	66.3694	29.2969	65.9558	29.2969	67.0277	29.2969	66.6729	29.2969	67.5545	29.2969	67.2744	29.2969	67.9292	29.2969	67.7358	29.2969	68.1386	29.2969	68.0399	29.2969	68.1758
30.7617	63.628	30.7617	63.6055	30.7617	63.6263	30.7617	63.5665	30.7617	63.6024	30.7617	63.5281	30.7617	63.5678	30.7617	63.518	30.7617	63.5442	30.7617	63.5721	30.7617	63.5628	30.7617	63.7298	30.7617	63.6618	30.7617	64.0236	30.7617	63.879	30.7617	64.4675	30.7617	64.2401	30.7617	65.0496	30.7617	64.748	30.7617	65.7341	30.7617	65.3796	30.7617	66.4716	30.7617	66.0917	30.7617	67.2103	30.7617	66.8327	30.7617	67.9031	30.7617	67.5526	30.7617	68.5112	30.7617	68.2076	30.7617	69.0038	30.7617	68.7629	30.7617	69.3584	30.7617	69.1916	30.7617	69.5595	30.7617	69.4742	30.7617	69.5986
32.2266	65.3083	32.2266	65.298	32.2266	65.3068	32.2266	65.282	32.2266	65.295	32.2266	65.2747	32.2266	65.2821	32.2266	65.2977	32.2266	65.2856	32.2266	65.3787	32.2266	65.3301	32.2266	65.5468	32.2266	65.4448	32.2266	65.8261	32.2266	65.6581	32.2266	66.2274	32.2266	65.9899	32.2266	66.743	32.2266	66.4433	32.2266	67.3466	32.2266	67.0023	32.2266	67.9999	32.2266	67.634	32.2266	68.6596	32.2266	68.2965	32.2266	69.2841	32.2266	68.9463	32.2266	69.8367	32.2266	69.5434	32.2266	70.2873	32.2266	70.0539	32.2266	70.6129	32.2266	70.4508	32.2266	70.7974	32.2266	70.7144	32.2266	70.8317
33.6914	67.17	33.6914	67.1659	33.6914	67.1692	33.6914	67.1617	33.6914	67.165	33.6914	67.168	33.6914	67.1651	33.6914	67.201	33.6914	67.1829	33.6914	67.2814	33.6914	67.237	33.6914	67.4314	33.6914	67.3492	33.6914	67.6699	33.6914	67.5408	33.6914	68.0071	33.6914	67.8273	33.6914	68.4401	33.6914	68.2129	33.6914	68.9516	33.6914	68.6877	33.6914	69.5129	33.6914	69.2285	33.6914	70.0887	33.6914	69.8024	33.6914	70.6422	33.6914	70.3726	33.6914	71.139	33.6914	70.9026	33.6914	71.5493	33.6914	71.3599	33.6914	71.8493	33.6914	71.7173	33.6914	72.0221	33.6914	71.9544	33.6914	72.0578
35.1562	68.586	35.1562	68.5834	35.1562	68.5873	35.1562	68.5833	35.1562	68.5884	35.1562	68.5946	35.1562	68.5956	35.1562	68.6304	35.1562	68.6196	35.1562	68.7077	35.1562	68.6757	35.1562	68.8445	35.1562	68.7815	35.1562	69.0569	35.1562	68.9548	35.1562	69.3544	35.1562	69.2091	35.1562	69.7363	35.1562	69.5495	35.1562	70.1902	35.1562	69.9699	35.1562	70.693	35.1562	70.4521	35.1562	71.2143	35.1562	70.9689	35.1562	71.721	35.1562	71.4875	35.1562	72.1803	35.1562	71.974	35.1562	72.563	35.1562	72.3967	35.1562	72.845	35.1562	72.7287	35.1562	73.0089	35.1562	72.949	35.1562	73.0443
36.6211	69.9335	36.6211	69.9345	36.6211	69.9378	36.6211	69.9439	36.6211	69.948	36.6211	69.9686	36.6211	69.9689	36.6211	70.019	36.6211	70.009	36.6211	70.1081	36.6211	70.0797	36.6211	70.2494	36.6211	70.1947	36.6211	70.4548	36.6211	70.3671	36.6211	70.7314	36.6211	70.6072	36.6211	71.0785	36.6211	70.9191	36.6211	71.4865	36.6211	71.2982	36.6211	71.9372	36.6211	71.7306	36.6211	72.4056	36.6211	72.194	36.6211	72.863	36.6211	72.6607	36.6211	73.2802	36.6211	73.1007	36.6211	73.63	36.6211	73.4848	36.6211	73.8894	36.6211	73.7875	36.6211	74.0411	36.6211	73.9886	36.6211	74.075
38.0859	71.1596	38.0859	71.1651	38.0859	71.1619	38.0859	71.1807	38.0859	71.1728	38.0859	71.2119	38.0859	71.1962	38.0859	71.2667	38.0859	71.2388	38.0859	71.3552	38.0859	71.3099	38.0859	71.4881	38.0859	71.4203	38.0859	71.6752	38.0859	71.5805	38.0859	71.9229	38.0859	71.7991	38.0859	72.2317	38.0859	72.0797	38.0859	72.5947	38.0859	72.4192	38.0859	72.9975	38.0859	72.8066	38.0859	73.4189	38.0859	73.2234	38.0859	73.8336	38.0859	73.6457	38.0859	74.2145	38.0859	74.0464	38.0859	74.5355	38.0859	74.3985	38.0859	74.7744	38.0859	74.6776	38.0859	74.9141	38.0859	74.8641	38.0859	74.9448
39.5508	72.1884	39.5508	72.1947	39.5508	72.1925	39.5508	72.2134	39.5508	72.2076	39.5508	72.2486	39.5508	72.2365	39.5508	72.3067	39.5508	72.2846	39.5508	72.3958	39.5508	72.359	39.5508	72.5242	39.5508	72.468	39.5508	72.6999	39.5508	72.6199	39.5508	72.9277	39.5508	72.8213	39.5508	73.2083	39.5508	73.0753	39.5508	73.5362	39.5508	73.3799	39.5508	73.8996	39.5508	73.7264	39.5508	74.2803	39.5508	74.0997	39.5508	74.6561	39.5508	74.4796	39.5508	75.0023	39.5508	74.8421	39.5508	75.2948	39.5508	75.1627	39.5508	75.5127	39.5508	75.4185	39.5508	75.6396	39.5508	75.5907	39.5508	75.6663
41.0156	73.1002	41.0156	73.1091	41.0156	73.104	41.0156	73.1322	41.0156	73.1209	41.0156	73.173	41.0156	73.1533	41.0156	73.2364	41.0156	73.2053	41.0156	73.3286	41.0156	73.2823	41.0156	73.4564	41.0156	73.3909	41.0156	73.6256	41.0156	73.5375	41.0156	73.8403	41.0156	73.7273	41.0156	74.1006	41.0156	73.9627	41.0156	74.402	41.0156	74.2419	41.0156	74.7342	41.0156	74.558	41.0156	75.0817	41.0156	74.8983	41.0156	75.4246	41.0156	75.2453	41.0156	75.7408	41.0156	75.578	41.0156	76.0082	41.0156	75.8738	41.0156	76.2071	41.0156	76.1112	41.0156	76.3222	41.0156	76.2723	41.0156	76.3445
42.4805	74.0197	42.4805	74.0329	42.4805	74.0212	42.4805	74.0622	42.4805	74.0378	42.4805	74.1098	42.4805	74.0713	42.4805	74.1797	42.4805	74.1247	42.4805	74.2764	42.4805	74.2023	42.4805	74.4046	42.4805	74.3088	42.4805	74.5685	42.4805	74.4491	42.4805	74.7706	42.4805	74.6272	42.4805	75.0106	42.4805	74.845	42.4805	75.2842	42.4805	75.1008	42.4805	75.583	42.4805	75.3891	42.4805	75.8938	42.4805	75.6988	42.4805	76.2	42.4805	76.0148	42.4805	76.4824	42.4805	76.3181	42.4805	76.7215	42.4805	76.5883	42.4805	76.8994	42.4805	76.8057	42.4805	77.002	42.4805	76.9536	42.4805	77.0208
43.9453	74.8799	43.9453	74.8951	43.9453	74.8787	43.9453	74.9249	43.9453	74.892	43.9453	74.971	43.9453	74.9211	43.9453	75.0361	43.9453	74.9686	43.9453	75.1235	43.9453	75.0379	43.9453	75.2369	43.9453	75.1327	43.9453	75.3797	43.9453	75.2569	43.9453	75.5545	43.9453	75.4137	43.9453	75.7617	43.9453	75.6049	43.9453	75.9986	43.9453	75.8293	43.9453	76.2589	43.9453	76.0824	43.9453	76.5319	43.9453	76.3555	43.9453	76.8032	43.9453	76.6356	43.9453	77.0555	43.9453	76.9061	43.9453	77.2707	43.9453	77.1488	43.9453	77.4315	43.9453	77.3452	43.9453	77.5245	43.9453	77.4797	43.9453	77.5411
45.4102	75.5284	45.4102	75.5415	45.4102	75.5309	45.4102	75.5707	45.4102	75.5493	45.4102	75.6171	45.4102	75.5846	45.4102	75.6829	45.4102	75.6387	45.4102	75.7706	45.4102	75.7141	45.4102	75.8828	45.4102	75.8136	45.4102	76.0222	45.4102	75.94	45.4102	76.1904	45.4102	76.0956	45.4102	76.3875	45.4102	76.2815	45.4102	76.6111	45.4102	76.4964	45.4102	76.8556	45.4102	76.736	45.4102	77.1118	45.4102	76.9924	45.4102	77.367	45.4102	77.2536	45.4102	77.6056	45.4102	77.5047	45.4102	77.8108	45.4102	77.7286	45.4102	77.9664	45.4102	77.9083	45.4102	78.0593	45.4102	78.0292	45.4102	78.0809
46.875	76.1127	46.875	76.1237	46.875	76.1187	46.875	76.1519	46.875	76.1416	46.875	76.1982	46.875	76.1824	46.875	76.264	46.875	76.2421	46.875	76.3512	46.875	76.3223	46.875	76.4616	46.875	76.425	46.875	76.5971	46.875	76.5519	46.875	76.7588	46.875	76.7044	46.875	76.9466	46.875	76.8828	46.875	77.1581	46.875	77.0857	46.875	77.3884	46.875	77.3092	46.875	77.6291	46.875	77.5464	46.875	77.8687	46.875	77.787	46.875	78.0929	46.875	78.0176	46.875	78.286	46.875	78.2229	46.875	78.433	46.875	78.3875	46.875	78.5216	46.875	78.4977	46.875	78.5438
48.3398	76.6574	48.3398	76.6687	48.3398	76.6638	48.3398	76.6977	48.3398	76.6878	48.3398	76.7451	48.3398	76.73	48.3398	76.8116	48.3398	76.791	48.3398	76.8982	48.3398	76.8718	48.3398	77.0062	48.3398	76.9734	48.3398	77.1366	48.3398	77.0969	48.3398	77.29	48.3398	77.2429	48.3398	77.466	48.3398	77.4114	48.3398	77.6625	48.3398	77.601	48.3398	77.8753	48.3398	77.808	48.3398	78.097	48.3398	78.0265	48.3398	78.3174	48.3398	78.2474	48.3398	78.5237	48.3398	78.4588	48.3398	78.7017	48.3398	78.647	48.3398	78.8375	48.3398	78.7979	48.3398	78.9196	48.3398	78.8988	48.3398	78.9407
51.2695	77.6085	51.2695	77.6218	51.2695	77.6149	51.2695	77.6549	51.2695	77.6409	51.2695	77.7076	51.2695	77.6867	51.2695	77.7797	51.2695	77.7519	51.2695	77.8713	51.2695	77.8366	51.2695	77.982	51.2695	77.9403	51.2695	78.1117	51.2695	78.0629	51.2695	78.2596	51.2695	78.2038	51.2695	78.4244	51.2695	78.3618	51.2695	78.6038	51.2695	78.5352	51.2695	78.7939	51.2695	78.7208	51.2695	78.9887	51.2695	78.9136	51.2695	79.1801	51.2695	79.1065	51.2695	79.3578	51.2695	79.2902	51.2695	79.5102	51.2695	79.4536	51.2695	79.6258	51.2695	79.5848	51.2695	79.6948	51.2695	79.6733	51.2695	79.7112
52.7344	77.9825	52.7344	78.0009	52.7344	77.9853	52.7344	78.0404	52.7344	78.0095	52.7344	78.1002	52.7344	78.0548	52.7344	78.1799	52.7344	78.1208	52.7344	78.2784	52.7344	78.2068	52.7344	78.3949	52.7344	78.312	52.7344	78.5282	52.7344	78.4356	52.7344	78.677	52.7344	78.5762	52.7344	78.8395	52.7344	78.7324	52.7344	79.0131	52.7344	78.9019	52.7344	79.1942	52.7344	79.0815	52.7344	79.3772	52.7344	79.2668	52.7344	79.555	52.7344	79.4511	52.7344	79.7185	52.7344	79.6263	52.7344	79.8575	52.7344	79.7821	52.7344	79.9615	52.7344	79.908	52.7344	80.022	52.7344	79.9942	52.7344	80.0333
54.1992	78.3625	54.1992	78.3838	54.1992	78.3642	54.1992	78.4275	54.1992	78.3888	54.1992	78.4926	54.1992	78.436	54.1992	78.5777	54.1992	78.5049	54.1992	78.6811	54.1992	78.5942	54.1992	78.801	54.1992	78.7023	54.1992	78.9354	54.1992	78.8274	54.1992	79.0824	54.1992	78.9675	54.1992	79.2396	54.1992	79.1205	54.1992	79.4043	54.1992	79.2837	54.1992	79.5731	54.1992	79.4539	54.1992	79.7412	54.1992	79.6269	54.1992	79.9028	54.1992	79.7972	54.1992	80.05	54.1992	79.9577	54.1992	80.1743	54.1992	80.0997	54.1992	80.2669	54.1992	80.2142	54.1992	80.3201	54.1992	80.2928	54.1992	80.3291
55.6641	78.7661	55.6641	78.7865	55.6641	78.7676	55.6641	78.8282	55.6641	78.7912	55.6641	78.89	55.6641	78.8362	55.6641	78.9701	55.6641	78.9016	55.6641	79.0666	55.6641	78.9857	55.6641	79.1774	55.6641	79.0867	55.6641	79.3002	55.6641	79.2024	55.6641	79.4329	55.6641	79.3304	55.6641	79.5731	55.6641	79.4685	55.6641	79.7185	55.6641	79.614	55.6641	79.866	55.6641	79.7642	55.6641	80.0121	55.6641	79.9155	55.6641	80.1518	55.6641	80.0635	55.6641	80.279	55.6641	80.2023	55.6641	80.3866	55.6641	80.3249	55.6641	80.4669	55.6641	80.4236	55.6641	80.5134	55.6641	80.4911	55.6641	80.5219
58.5938	79.4103	58.5938	79.4236	58.5938	79.4156	58.5938	79.4548	58.5938	79.4392	58.5938	79.503	58.5938	79.4803	58.5938	79.5664	58.5938	79.5378	58.5938	79.643	58.5938	79.6096	58.5938	79.7306	58.5938	79.6937	58.5938	79.8269	58.5938	79.7879	58.5938	79.9296	58.5938	79.8897	58.5938	80.0367	58.5938	79.9969	58.5938	80.1462	58.5938	80.1076	58.5938	80.2562	58.5938	80.2194	58.5938	80.3646	58.5938	80.3303	58.5938	80.4682	58.5938	80.4371	58.5938	80.5632	58.5938	80.5362	58.5938	80.6446	58.5938	80.6227	58.5938	80.7068	58.5938	80.6914	58.5938	80.7449	58.5938	80.7368	58.5938	80.7552
60.0586	79.6802	60.0586	79.6857	60.0586	79.692	60.0586	79.7082	60.0586	79.7208	60.0586	79.7467	60.0586	79.7657	60.0586	79.7994	60.0586	79.8248	60.0586	79.8645	60.0586	79.8963	60.0586	79.9397	60.0586	79.9777	60.0586	80.0226	60.0586	80.0665	60.0586	80.1113	60.0586	80.1603	60.0586	80.204	60.0586	80.2568	60.0586	80.299	60.0586	80.354	60.0586	80.395	60.0586	80.45	60.0586	80.4903	60.0586	80.543	60.0586	80.5827	60.0586	80.6306	60.0586	80.6691	60.0586	80.7098	60.0586	80.7452	60.0586	80.7771	60.0586	80.8062	60.0586	80.828	60.0586	80.8474	60.0586	80.8584	60.0586	80.8652
62.9883	80.2497	62.9883	80.2629	62.9883	80.257	62.9883	80.296	62.9883	80.2846	62.9883	80.3474	62.9883	80.3313	62.9883	80.415	62.9883	80.3955	62.9883	80.496	62.9883	80.4744	62.9883	80.5874	62.9883	80.5652	62.9883	80.6861	62.9883	80.6647	62.9883	80.789	62.9883	80.7696	62.9883	80.8936	62.9883	80.8769	62.9883	80.9975	62.9883	80.984	62.9883	81.0989	62.9883	81.0884	62.9883	81.1959	62.9883	81.188	62.9883	81.2864	62.9883	81.2806	62.9883	81.368	62.9883	81.3636	62.9883	81.4372	62.9883	81.434	62.9883	81.4904	62.9883	81.4882	62.9883	81.5238	62.9883	81.5227	62.9883	81.5349
64.4531	80.4124	64.4531	80.4214	64.4531	80.4257	64.4531	80.452	64.4531	80.4607	64.4531	80.5028	64.4531	80.516	64.4531	80.5713	64.4531	80.5894	64.4531	80.6546	64.4531	80.6777	64.4531	80.7491	64.4531	80.7775	64.4531	80.8514	64.4531	80.8849	64.4531	80.958	64.4531	80.9963	64.4531	81.0656	64.4531	81.108	64.4531	81.1718	64.4531	81.2169	64.4531	81.2743	64.4531	81.3206	64.4531	81.3714	64.4531	81.4167	64.4531	81.4613	64.4531	81.5034	64.4531	81.5419	64.4531	81.5785	64.4531	81.6106	64.4531	81.6398	64.4531	81.6645	64.4531	81.6847	64.4531	81.7005	64.4531	81.7108	64.4531	81.7162
67.3828	80.6884	67.3828	80.6988	67.3828	80.7002	67.3828	80.7307	67.3828	80.734	67.3828	80.7823	67.3828	80.788	67.3828	80.8509	67.3828	80.8598	67.3828	80.9332	67.3828	80.946	67.3828	81.0251	67.3828	81.0425	67.3828	81.1227	67.3828	81.1452	67.3828	81.222	67.3828	81.2498	67.3828	81.3197	67.3828	81.3522	67.3828	81.413	67.3828	81.449	67.3828	81.4999	67.3828	81.5376	67.3828	81.5789	67.3828	81.6163	67.3828	81.6491	67.3828	81.684	67.3828	81.7098	67.3828	81.7399	67.3828	81.7599	67.3828	81.7837	67.3828	81.7984	67.3828	81.8147	67.3828	81.8238	67.3828	81.832	67.3828	81.8352
68.8477	80.7645	68.8477	80.776	68.8477	80.7743	68.8477	80.8079	68.8477	80.8051	68.8477	80.8585	68.8477	80.8555	68.8477	80.925	68.8477	80.9228	68.8477	81.0037	68.8477	81.0039	68.8477	81.0907	68.8477	81.0948	68.8477	81.182	68.8477	81.1911	68.8477	81.2736	68.8477	81.2885	68.8477	81.362	68.8477	81.383	68.8477	81.4446	68.8477	81.4711	68.8477	81.5195	68.8477	81.5502	68.8477	81.5857	68.8477	81.6186	68.8477	81.6428	68.8477	81.6755	68.8477	81.691	68.8477	81.7209	68.8477	81.7302	68.8477	81.7549	68.8477	81.7602	68.8477	81.7778	68.8477	81.7805	68.8477	81.7896	68.8477	81.7904
71.7773	81.2374	71.7773	81.2464	71.7773	81.2485	71.7773	81.2748	71.7773	81.2793	71.7773	81.3206	71.7773	81.3282	71.7773	81.3811	71.7773	81.3928	71.7773	81.4525	71.7773	81.4696	71.7773	81.5309	71.7773	81.5544	71.7773	81.6119	71.7773	81.6427	71.7773	81.6914	71.7773	81.7299	71.7773	81.7658	71.7773	81.8119	71.7773	81.8325	71.7773	81.8852	71.7773	81.8898	71.7773	81.9471	71.7773	81.9374	71.7773	81.9964	71.7773	81.9757	71.7773	82.033	71.7773	82.0061	71.7773	82.0579	71.7773	82.03	71.7773	82.0726	71.7773	82.0488	71.7773	82.079	71.7773	82.0632	71.7773	82.0788	71.7773	82.0733
74.707	81.6619	74.707	81.6715	74.707	81.6721	74.707	81.7001	74.707	81.7016	74.707	81.7457	74.707	81.749	74.707	81.8053	74.707	81.8116	74.707	81.8752	74.707	81.8857	74.707	81.951	74.707	81.9671	74.707	82.0282	74.707	82.0509	74.707	82.1025	74.707	82.1323	74.707	82.17	74.707	82.207	74.707	82.2278	74.707	82.2712	74.707	82.2743	74.707	82.3223	74.707	82.3092	74.707	82.3594	74.707	82.3336	74.707	82.3828	74.707	82.3496	74.707	82.3943	74.707	82.3598	74.707	82.3968	74.707	82.367	74.707	82.3934	74.707	82.3734	74.707	82.387	74.707	82.38
77.6367	81.5373	77.6367	81.5511	77.6367	81.5431	77.6367	81.5835	77.6367	81.5682	77.6367	81.6325	77.6367	81.611	77.6367	81.6948	77.6367	81.6691	77.6367	81.7664	77.6367	81.7387	77.6367	81.8428	77.6367	81.8155	77.6367	81.9189	77.6367	81.8946	77.6367	81.9902	77.6367	81.9709	77.6367	82.0523	77.6367	82.0398	77.6367	82.1021	77.6367	82.0974	77.6367	82.1379	77.6367	82.1409	77.6367	82.1595	77.6367	82.1695	77.6367	82.1688	77.6367	82.1836	77.6367	82.1687	77.6367	82.1859	77.6367	82.1635	77.6367	82.1799	77.6367	82.1572	77.6367	82.17	77.6367	82.1535	77.6367	82.1605	77.6367	82.1545
79.1016	81.5227	79.1016	81.5361	79.1016	81.5286	79.1016	81.5677	79.1016	81.5534	79.1016	81.6155	79.1016	81.5957	79.1016	81.6763	79.1016	81.6529	79.1016	81.7459	79.1016	81.7212	79.1016	81.8198	79.1016	81.7963	79.1016	81.8929	79.1016	81.8732	79.1016	81.9604	79.1016	81.9468	79.1016	82.018	79.1016	82.0123	79.1016	82.0627	79.1016	82.0656	79.1016	82.0925	79.1016	82.1042	79.1016	82.1078	79.1016	82.1268	79.1016	82.1104	79.1016	82.1344	79.1016	82.104	79.1016	82.1298	79.1016	82.0932	79.1016	82.117	79.1016	82.0829	79.1016	82.1012	79.1016	82.0772	79.1016	82.0871	79.1016	82.0785
82.0312	81.9298	82.0312	81.9427	82.0312	81.9351	82.0312	81.9729	82.0312	81.9584	82.0312	82.0184	82.0312	81.9983	82.0312	82.0758	82.0312	82.0521	82.0312	82.141	82.0312	82.1162	82.0312	82.2093	82.0312	82.1859	82.0312	82.2755	82.0312	82.2562	82.0312	82.3347	82.0312	82.322	82.0312	82.3824	82.0312	82.3781	82.0312	82.4155	82.0312	82.4205	82.0312	82.4322	82.0312	82.4465	82.0312	82.4329	82.0312	82.4553	82.0312	82.4203	82.0312	82.4482	82.0312	82.3989	82.0312	82.4287	82.0312	82.3745	82.0312	82.4022	82.0312	82.3535	82.0312	82.3748	82.0312	82.3412	82.0312	82.3527	82.0312	82.3407
84.9609	82.0738	84.9609	82.0935	84.9609	82.0708	84.9609	82.1285	84.9609	82.0845	84.9609	82.1768	84.9609	82.1139	84.9609	82.2349	84.9609	82.1569	84.9609	82.2987	84.9609	82.2103	84.9609	82.3635	84.9609	82.2698	84.9609	82.424	84.9609	82.3305	84.9609	82.475	84.9609	82.3872	84.9609	82.512	84.9609	82.4348	84.9609	82.5317	84.9609	82.4688	84.9609	82.5325	84.9609	82.486	84.9609	82.5151	84.9609	82.4855	84.9609	82.4829	84.9609	82.4684	84.9609	82.4414	84.9609	82.4387	84.9609	82.3981	84.9609	82.4025	84.9609	82.361	84.9609	82.3675	84.9609	82.3369	84.9609	82.3413	84.9609	82.3301
87.8906	81.9872	87.8906	82.0084	87.8906	81.9787	87.8906	82.0413	87.8906	81.9825	87.8906	82.0838	87.8906	81.9975	87.8906	82.1329	87.8906	82.0211	87.8906	82.1843	87.8906	82.0502	87.8906	82.2332	87.8906	82.0805	87.8906	82.2745	87.8906	82.1077	87.8906	82.303	87.8906	82.1271	87.8906	82.3142	87.8906	82.1347	87.8906	82.3049	87.8906	82.1274	87.8906	82.2739	87.8906	82.104	87.8906	82.2222	87.8906	82.0653	87.8906	82.1539	87.8906	82.015	87.8906	82.0758	87.8906	81.9591	87.8906	81.9966	87.8906	81.9058	87.8906	81.926	87.8906	81.8639	87.8906	81.873	87.8906	81.8415	87.8906	81.844
90.8203	81.7774	90.8203	81.7934	90.8203	81.7818	90.8203	81.8288	90.8203	81.8063	90.8203	81.8815	90.8203	81.8491	90.8203	81.948	90.8203	81.9075	90.8203	82.0235	90.8203	81.9776	90.8203	82.1024	90.8203	82.0544	90.8203	82.1786	90.8203	82.1324	90.8203	82.2459	90.8203	82.2057	90.8203	82.2988	90.8203	82.2685	90.8203	82.3332	90.8203	82.3161	90.8203	82.3472	90.8203	82.345	90.8203	82.3412	90.8203	82.354	90.8203	82.3188	90.8203	82.3441	90.8203	82.286	90.8203	82.3191	90.8203	82.2507	90.8203	82.2851	90.8203	82.2212	90.8203	82.2495	90.8203	82.2044	90.8203	82.2204	90.8203	82.2041
95.2148	82.123	95.2148	82.1314	95.2148	82.1248	95.2148	82.1497	95.2148	82.1366	95.2148	82.1764	95.2148	82.157	95.2148	82.2093	95.2148	82.1838	95.2148	82.245	95.2148	82.2139	95.2148	82.2797	95.2148	82.2432	95.2148	82.3087	95.2148	82.2672	95.2148	82.3271	95.2148	82.2812	95.2148	82.3303	95.2148	82.2807	95.2148	82.3148	95.2148	82.2625	95.2148	82.2788	95.2148	82.2252	95.2148	82.2228	95.2148	82.1696	95.2148	82.1503	95.2148	82.0999	95.2148	82.068	95.2148	82.023	95.2148	81.9851	95.2148	81.9483	95.2148	81.9127	95.2148	81.8866	95.2148	81.8613	95.2148	81.8477	95.2148	81.8385
98.1445	82.0859	98.1445	82.0984	98.1445	82.0839	98.1445	82.1205	98.1445	82.0925	98.1445	82.15	98.1445	82.1108	98.1445	82.1843	98.1445	82.1368	98.1445	82.2196	98.1445	82.1672	98.1445	82.2516	98.1445	82.1979	98.1445	82.2755	98.1445	82.224	98.1445	82.2865	98.1445	82.2403	98.1445	82.2803	98.1445	82.2418	98.1445	82.2537	98.1445	82.2245	98.1445	82.2054	98.1445	82.1861	98.1445	82.1368	98.1445	82.1271	98.1445	82.0524	98.1445	82.0511	98.1445	81.9602	98.1445	81.9649	98.1445	81.8707	98.1445	81.8786	98.1445	81.796	98.1445	81.8038	98.1445	81.7471	98.1445	81.7519	98.1445	81.7317
101.074	81.9015	101.074	81.9133	101.074	81.9033	101.074	81.9376	101.074	81.9191	101.074	81.9724	101.074	81.9485	101.074	82.0149	101.074	81.9902	101.074	82.0616	101.074	82.0417	101.074	82.1082	101.074	82.0995	101.074	82.1499	101.074	82.1585	101.074	82.1819	101.074	82.2134	101.074	82.1999	101.074	82.2578	101.074	82.201	101.074	82.2863	101.074	82.1842	101.074	82.2945	101.074	82.1512	101.074	82.2801	101.074	82.1064	101.074	82.2441	101.074	82.0567	101.074	82.1908	101.074	82.0109	101.074	82.1277	101.074	81.9779	101.074	82.0644	101.074	81.965	101.074	82.011	101.074	81.9762
105.469	82.1056	105.469	82.1169	105.469	82.1017	105.469	82.1351	105.469	82.1051	105.469	82.1591	105.469	82.1156	105.469	82.1873	105.469	82.1319	105.469	82.217	105.469	82.1524	105.469	82.2447	105.469	82.174	105.469	82.266	105.469	82.1929	105.469	82.2759	105.469	82.2046	105.469	82.2695	105.469	82.204	105.469	82.243	105.469	82.1869	105.469	82.1943	105.469	82.1502	105.469	82.124	105.469	82.0934	105.469	82.0367	105.469	82.019	105.469	81.9403	105.469	81.9335	105.469	81.8462	105.469	81.8467	105.469	81.7673	105.469	81.7708	105.469	81.7152	105.469	81.7181	105.469	81.6981
108.398	82.1542	108.398	82.1613	108.398	82.1538	108.398	82.1747	108.398	82.1599	108.398	82.1935	108.398	82.1717	108.398	82.2161	108.398	82.1879	108.398	82.2397	108.398	82.2064	108.398	82.2607	108.398	82.2242	108.398	82.2745	108.398	82.2374	108.398	82.276	108.398	82.2413	108.398	82.2603	108.398	82.231	108.398	82.2234	108.398	82.2022	108.398	82.1632	108.398	82.1519	108.398	82.081	108.398	82.0799	108.398	81.9816	108.398	81.9893	108.398	81.8738	108.398	81.8875	108.398	81.7698	108.398	81.7855	108.398	81.6834	108.398	81.6969	108.398	81.6273	108.398	81.635	108.398	81.6104
112.793	82.091	112.793	82.0975	112.793	82.0893	112.793	82.1085	112.793	82.0923	112.793	82.1232	112.793	82.0991	112.793	82.1399	112.793	82.1085	112.793	82.156	112.793	82.1182	112.793	82.1682	112.793	82.1253	112.793	82.1722	112.793	82.126	112.793	82.1634	112.793	82.1158	112.793	82.1373	112.793	82.0905	112.793	82.0903	112.793	82.0464	112.793	82.0207	112.793	81.9815	112.793	81.9297	112.793	81.8965	112.793	81.8221	112.793	81.7954	112.793	81.7063	112.793	81.6863	112.793	81.5946	112.793	81.5807	112.793	81.5005	112.793	81.4919	112.793	81.437	112.793	81.4329	112.793	81.4134
117.188	81.8737	117.188	81.8625	117.188	81.8917	117.188	81.8584	117.188	81.9159	117.188	81.8606	117.188	81.9452	117.188	81.8678	117.188	81.9777	117.188	81.8777	117.188	82.0107	117.188	81.8864	117.188	82.0406	117.188	81.8895	117.188	82.0625	117.188	81.8819	117.188	82.0708	117.188	81.8587	117.188	82.06	117.188	81.8158	117.188	82.025	117.188	81.7517	117.188	81.963	117.188	81.6677	117.188	81.8741	117.188	81.5692	117.188	81.7623	117.188	81.4655	117.188	81.6361	117.188	81.3693	117.188	81.5081	117.188	81.2948	117.188	81.3931	117.188	81.2548	117.188	81.3059	117.188	81.2579
120.117	81.762	120.117	81.7476	120.117	81.7842	120.117	81.7414	120.117	81.8135	120.117	81.7432	120.117	81.849	120.117	81.7524	120.117	81.8893	120.117	81.767	120.117	81.9321	120.117	81.7841	120.117	81.9743	120.117	81.7996	120.117	82.0115	120.117	81.8085	120.117	82.0384	120.117	81.8057	120.117	82.0492	120.117	81.7869	120.117	82.0387	120.117	81.7498	120.117	82.0033	120.117	81.6949	120.117	81.9421	120.117	81.6266	120.117	81.8578	120.117	81.5526	120.117	81.7572	120.117	81.4842	120.117	81.6508	120.117	81.4334	120.117	81.5516	120.117	81.411	120.117	81.4724	120.117	81.4237
124.512	81.857	124.512	81.8678	124.512	81.8499	124.512	81.8814	124.512	81.8467	124.512	81.8966	124.512	81.8473	124.512	81.9114	124.512	81.8508	124.512	81.923	124.512	81.8556	124.512	81.9276	124.512	81.859	124.512	81.9209	124.512	81.8573	124.512	81.898	124.512	81.8458	124.512	81.8547	124.512	81.8198	124.512	81.7883	124.512	81.7749	124.512	81.6985	124.512	81.7085	124.512	81.5884	124.512	81.6206	124.512	81.4652	124.512	81.5147	124.512	81.3395	124.512	81.3983	124.512	81.2247	124.512	81.2826	124.512	81.1348	124.512	81.1811	124.512	81.0816	124.512	81.1073	124.512	81.0722
128.906	81.7274	128.906	81.7336	128.906	81.7253	128.906	81.7437	128.906	81.7273	128.906	81.7575	128.906	81.7335	128.906	81.7741	128.906	81.7433	128.906	81.7917	128.906	81.7556	128.906	81.8074	128.906	81.7678	128.906	81.8167	128.906	81.7765	128.906	81.8145	128.906	81.7768	128.906	81.7954	128.906	81.7637	128.906	81.755	128.906	81.7324	128.906	81.6912	128.906	81.68	128.906	81.6051	128.906	81.6062	128.906	81.5022	128.906	81.5142	128.906	81.3917	128.906	81.4115	128.906	81.2865	128.906	81.3089	128.906	81.2004	128.906	81.2197	128.906	81.1458	128.906	81.1569	128.906	81.1306
133.301	81.7033	133.301	81.7142	133.301	81.6925	133.301	81.7248	133.301	81.6821	133.301	81.7352	133.301	81.6726	133.301	81.7449	133.301	81.6646	133.301	81.7527	133.301	81.6581	133.301	81.7563	133.301	81.652	133.301	81.7522	133.301	81.6438	133.301	81.7361	133.301	81.6301	133.301	81.7034	133.301	81.6064	133.301	81.6505	133.301	81.5685	133.301	81.5757	133.301	81.513	133.301	81.4806	133.301	81.4392	133.301	81.3706	133.301	81.3497	133.301	81.2551	133.301	81.2508	133.301	81.1465	133.301	81.1527	133.301	81.0581	133.301	81.0677	133.301	81.0017	133.301	81.0083	133.301	80.9847
139.16	81.6557	139.16	81.6606	139.16	81.6476	139.16	81.6627	139.16	81.6362	139.16	81.6627	139.16	81.6216	139.16	81.6607	139.16	81.604	139.16	81.6562	139.16	81.5832	139.16	81.6471	139.16	81.5582	139.16	81.6301	139.16	81.5268	139.16	81.6007	139.16	81.4859	139.16	81.5541	139.16	81.4317	139.16	81.4863	139.16	81.3612	139.16	81.3951	139.16	81.2727	139.16	81.282	139.16	81.1675	139.16	81.1523	139.16	81.0507	139.16	81.0157	139.16	80.9309	139.16	80.8852	139.16	80.82	139.16	80.7751	139.16	80.7311	139.16	80.6986	139.16	80.6764	139.16	80.6646
143.555	81.4407	143.555	81.439	143.555	81.4407	143.555	81.4361	143.555	81.4386	143.555	81.4331	143.555	81.4346	143.555	81.4304	143.555	81.4288	143.555	81.4277	143.555	81.421	143.555	81.4232	143.555	81.4095	143.555	81.4134	143.555	81.3919	143.555	81.3937	143.555	81.3641	143.555	81.3587	143.555	81.3216	143.555	81.3038	143.555	81.2604	143.555	81.2263	143.555	81.1785	143.555	81.1268	143.555	81.077	143.555	81.0102	143.555	80.961	143.555	80.8853	143.555	80.8399	143.555	80.7647	143.555	80.7265	143.555	80.6623	143.555	80.6347	143.555	80.5915	143.555	80.5769	143.555	80.5617
147.949	81.298	147.949	81.2901	147.949	81.3021	147.949	81.2794	147.949	81.3023	147.949	81.2673	147.949	81.2991	147.949	81.2555	147.949	81.2933	147.949	81.2444	147.949	81.2856	147.949	81.2335	147.949	81.2753	147.949	81.2202	147.949	81.2606	147.949	81.2003	147.949	81.2377	147.949	81.1689	147.949	81.2022	147.949	81.1209	147.949	81.1493	147.949	81.0535	147.949	81.0763	147.949	80.9666	147.949	80.9833	147.949	80.8642	147.949	80.8748	147.949	80.7546	147.949	80.7597	147.949	80.649	147.949	80.6501	147.949	80.5606	147.949	80.5596	147.949	80.5013	147.949	80.5002	147.949	80.4799
153.809	81.2881	153.809	81.2755	153.809	81.2919	153.809	81.255	153.809	81.2871	153.809	81.2288	153.809	81.275	153.809	81.1992	153.809	81.2575	153.809	81.1685	153.809	81.2361	153.809	81.1378	153.809	81.2113	153.809	81.1064	153.809	81.1823	153.809	81.0716	153.809	81.1462	153.809	81.0296	153.809	81.0994	153.809	80.9761	153.809	81.038	153.809	80.908	153.809	80.9596	153.809	80.825	153.809	80.8644	153.809	80.7301	153.809	80.7567	153.809	80.6298	153.809	80.6448	153.809	80.5341	153.809	80.5399	153.809	80.4539	153.809	80.4544	153.809	80.4	153.809	80.399	153.809	80.3804
159.668	81.4574	159.668	81.4421	159.668	81.4599	159.668	81.4149	159.668	81.4502	159.668	81.3775	159.668	81.43	159.668	81.3325	159.668	81.4017	159.668	81.2819	159.668	81.368	159.668	81.2272	159.668	81.3305	159.668	81.1684	159.668	81.2893	159.668	81.1042	159.668	81.2426	159.668	81.0324	159.668	81.187	159.668	80.9509	159.668	81.1186	159.668	80.8591	159.668	81.0345	159.668	80.7587	159.668	80.9344	159.668	80.6545	159.668	80.8215	159.668	80.5543	159.668	80.703	159.668	80.4677	159.668	80.5886	159.668	80.4044	159.668	80.4897	159.668	80.3722	159.668	80.4163	159.668	80.3759
165.527	81.3822	165.527	81.3705	165.527	81.3798	165.527	81.3456	165.527	81.3637	165.527	81.3098	165.527	81.3359	165.527	81.2657	165.527	81.2991	165.527	81.2162	165.527	81.2564	165.527	81.1629	165.527	81.2103	165.527	81.1064	165.527	81.1617	165.527	81.0456	165.527	81.1096	165.527	80.9783	165.527	81.0513	165.527	80.9025	165.527	80.9835	165.527	80.8169	165.527	80.9036	165.527	80.7227	165.527	80.811	165.527	80.6241	165.527	80.7089	165.527	80.528	165.527	80.6037	165.527	80.4431	165.527	80.5048	165.527	80.3784	165.527	80.4218	165.527	80.3411	165.527	80.3635	165.527	80.3358
171.387	81.3589	171.387	81.3438	171.387	81.3541	171.387	81.3095	171.387	81.3302	171.387	81.2579	171.387	81.2897	171.387	81.1919	171.387	81.2359	171.387	81.115	171.387	81.1725	171.387	81.0299	171.387	81.1026	171.387	80.9391	171.387	81.0281	171.387	80.8437	171.387	80.949	171.387	80.7444	171.387	80.8637	171.387	80.6418	171.387	80.7702	171.387	80.5371	171.387	80.6673	171.387	80.4327	171.387	80.5562	171.387	80.3326	171.387	80.4412	171.387	80.2417	171.387	80.3296	171.387	80.1656	171.387	80.23	171.387	80.1094	171.387	80.1507	171.387	80.0775	171.387	80.0973	171.387	80.0729
177.246	81.2573	177.246	81.2596	177.246	81.2359	177.246	81.2429	177.246	81.1961	177.246	81.2079	177.246	81.1399	177.246	81.1555	177.246	81.07	177.246	81.0866	177.246	80.9894	177.246	81.0011	177.246	80.9008	177.246	80.8982	177.246	80.806	177.246	80.7772	177.246	80.7049	177.246	80.6377	177.246	80.5958	177.246	80.4815	177.246	80.4763	177.246	80.3128	177.246	80.3442	177.246	80.1392	177.246	80.2002	177.246	79.9706	177.246	80.0489	177.246	79.8184	177.246	79.8994	177.246	79.6929	177.246	79.7635	177.246	79.6023	177.246	79.6533	177.246	79.5517	177.246	79.5781	177.246	79.5435
183.105	81.0372	183.105	81.0344	183.105	81.0237	183.105	81.0164	183.105	80.9939	183.105	80.9857	183.105	80.9493	183.105	80.9451	183.105	80.8922	183.105	80.8968	183.105	80.8253	183.105	80.8415	183.105	80.7503	183.105	80.7783	183.105	80.6683	183.105	80.7047	183.105	80.5789	183.105	80.6175	183.105	80.4811	183.105	80.5145	183.105	80.3737	183.105	80.3961	183.105	80.2571	183.105	80.2654	183.105	80.134	183.105	80.1293	183.105	80.01	183.105	79.9965	183.105	79.8935	183.105	79.8768	183.105	79.7941	183.105	79.7792	183.105	79.7209	183.105	79.7111	183.105	79.6808	183.105	79.6775
188.965	81.0651	188.965	81.0414	188.965	81.0631	188.965	80.9937	188.965	81.0357	188.965	80.9254	188.965	80.9852	188.965	80.8413	188.965	80.9154	188.965	80.7466	188.965	80.8306	188.965	80.6458	188.965	80.7348	188.965	80.5422	188.965	80.6305	188.965	80.4377	188.965	80.519	188.965	80.3324	188.965	80.3998	188.965	80.226	188.965	80.2725	188.965	80.1186	188.965	80.1377	188.965	80.0115	188.965	79.9992	188.965	79.9074	188.965	79.8643	188.965	79.8097	188.965	79.7434	188.965	79.7223	188.965	79.647	188.965	79.6486	188.965	79.583	188.965	79.5927	188.965	79.5545	188.965	79.5594
196.289	81.2465	196.289	81.2219	196.289	81.2452	196.289	81.1732	196.289	81.2173	196.289	81.1035	196.289	81.1635	196.289	81.0156	196.289	81.0858	196.289	80.9121	196.289	80.9862	196.289	80.7938	196.289	80.8671	196.289	80.6605	196.289	80.7297	196.289	80.511	196.289	80.5748	196.289	80.3451	196.289	80.4035	196.289	80.1654	196.289	80.2177	196.289	79.978	196.289	80.0225	196.289	79.7925	196.289	79.8258	196.289	79.6199	196.289	79.6385	196.289	79.4701	196.289	79.4728	196.289	79.3493	196.289	79.3394	196.289	79.2602	196.289	79.2453	196.289	79.2034	196.289	79.1928	196.289	79.18
203.613	81.0592	203.613	81.035	203.613	81.0547	203.613	80.9827	203.613	81.0229	203.613	80.9047	203.613	80.9667	203.613	80.8041	203.613	80.8904	203.613	80.6844	203.613	80.7983	203.613	80.5479	203.613	80.693	203.613	80.3958	203.613	80.5749	203.613	80.2286	203.613	80.4421	203.613	80.0469	203.613	80.2908	203.613	79.8541	203.613	80.1185	203.613	79.6571	203.613	79.9261	203.613	79.4668	203.613	79.7207	203.613	79.2958	203.613	79.5152	203.613	79.155	203.613	79.3263	203.613	79.0505	203.613	79.1693	203.613	78.9826	203.613	79.0537	203.613	78.9489	203.613	78.9811	203.613	78.9478
210.938	80.9834	210.938	80.9461	210.938	80.993	210.938	80.8836	210.938	80.9744	210.938	80.8001	210.938	80.9292	210.938	80.6999	210.938	80.8613	210.938	80.5862	210.938	80.775	210.938	80.4607	210.938	80.6749	210.938	80.3226	210.938	80.5636	210.938	80.17	210.938	80.4414	210.938	80.0015	210.938	80.3068	210.938	79.8188	210.938	80.1573	210.938	79.6287	210.938	79.9919	210.938	79.4427	210.938	79.8133	210.938	79.2751	210.938	79.6287	210.938	79.139	210.938	79.4492	210.938	79.0421	210.938	79.2873	210.938	78.9867	210.938	79.1538	210.938	78.9714	210.938	79.0553	210.938	78.9944
218.262	80.7976	218.262	80.7803	218.262	80.7841	218.262	80.7334	218.262	80.7418	218.262	80.6607	218.262	80.6755	218.262	80.5675	218.262	80.5922	218.262	80.4595	218.262	80.4993	218.262	80.3412	218.262	80.4033	218.262	80.2148	218.262	80.3071	218.262	80.0802	218.262	80.21	218.262	79.9359	218.262	80.1081	218.262	79.7816	218.262	79.9964	218.262	79.6208	218.262	79.8722	218.262	79.4625	218.262	79.7375	218.262	79.3202	218.262	79.5991	218.262	79.2077	218.262	79.4669	218.262	79.134	218.262	79.35	218.262	79.1001	218.262	79.254	218.262	79.1007	218.262	79.1805	218.262	79.1291
225.586	80.8076	225.586	80.8058	225.586	80.7665	225.586	80.7642	225.586	80.6826	225.586	80.6889	225.586	80.5598	225.586	80.5872	225.586	80.4052	225.586	80.4665	225.586	80.2291	225.586	80.3325	225.586	80.0426	225.586	80.1884	225.586	79.857	225.586	80.0354	225.586	79.6812	225.586	79.874	225.586	79.5212	225.586	79.706	225.586	79.3808	225.586	79.5376	225.586	79.2628	225.586	79.379	225.586	79.1703	225.586	79.2435	225.586	79.1059	225.586	79.1424	225.586	79.0689	225.586	79.0804	225.586	79.0541	225.586	79.0528	225.586	79.0521	225.586	79.0474	225.586	79.0528	225.586	79.0506
232.91	80.9064	232.91	80.8676	232.91	80.9005	232.91	80.7876	232.91	80.8485	232.91	80.6716	232.91	80.7509	232.91	80.5261	232.91	80.6106	232.91	80.3578	232.91	80.4314	232.91	80.1728	232.91	80.2183	232.91	79.9758	232.91	79.9765	232.91	79.7703	232.91	79.7113	232.91	79.5588	232.91	79.4288	232.91	79.3446	232.91	79.1389	232.91	79.134	232.91	78.8579	232.91	78.9371	232.91	78.6097	232.91	78.7671	232.91	78.4213	232.91	78.6358	232.91	78.3121	232.91	78.5471	232.91	78.2819	232.91	78.4925	232.91	78.3091	232.91	78.4541	232.91	78.3617	232.91	78.4132
241.699	80.8141	241.699	80.7588	241.699	80.8278	241.699	80.6658	241.699	80.7998	241.699	80.5422	241.699	80.7334	241.699	80.3973	241.699	80.6338	241.699	80.2399	241.699	80.5064	241.699	80.0757	241.699	80.3552	241.699	79.906	241.699	80.1815	241.699	79.7287	241.699	79.9839	241.699	79.5408	241.699	79.7602	241.699	79.3431	241.699	79.5103	241.699	79.1422	241.699	79.2408	241.699	78.9501	241.699	78.9679	241.699	78.781	241.699	78.7175	241.699	78.6451	241.699	78.5187	241.699	78.5446	241.699	78.392	241.699	78.4728	241.699	78.3385	241.699	78.4182	241.699	78.3404	241.699	78.3729
250.488	81.2027	250.488	81.156	250.488	81.194	250.488	81.0547	250.488	81.1318	250.488	80.9023	250.488	81.021	250.488	80.7048	250.488	80.8689	250.488	80.4702	250.488	80.6848	250.488	80.2075	250.488	80.4785	250.488	79.9256	250.488	80.2582	250.488	79.6332	250.488	80.0284	250.488	79.3394	250.488	79.7894	250.488	79.0552	250.488	79.5387	250.488	78.7946	250.488	79.2755	250.488	78.5729	250.488	79.0069	250.488	78.4031	250.488	78.7507	250.488	78.2901	250.488	78.5322	250.488	78.2288	250.488	78.3728	250.488	78.2056	250.488	78.2769	250.488	78.2035	250.488	78.2305	250.488	78.2113
259.277	81.005	259.277	80.9757	259.277	80.9932	259.277	80.9078	259.277	80.9396	259.277	80.8054	259.277	80.8457	259.277	80.6725	259.277	80.715	259.277	80.5119	259.277	80.5524	259.277	80.324	259.277	80.3628	259.277	80.1073	259.277	80.1511	259.277	79.8602	259.277	79.9213	259.277	79.5843	259.277	79.6768	259.277	79.2893	259.277	79.4218	259.277	78.9947	259.277	79.1634	259.277	78.7283	259.277	78.9133	259.277	78.5174	259.277	78.6886	259.277	78.378	259.277	78.5085	259.277	78.3069	259.277	78.3861	259.277	78.2839	259.277	78.3204	259.277	78.2835	259.277	78.295	259.277	78.2877
268.066	80.7209	268.066	80.6581	268.066	80.7407	268.066	80.5533	268.066	80.7187	268.066	80.4109	268.066	80.6576	268.066	80.2384	268.066	80.56	268.066	80.045	268.066	80.4273	268.066	79.8391	268.066	80.2601	268.066	79.6251	268.066	80.0588	268.066	79.4022	268.066	79.8257	268.066	79.1669	268.066	79.5655	268.066	78.9187	268.066	79.2856	268.066	78.6668	268.066	78.9953	268.066	78.432	268.066	78.7074	268.066	78.24	268.066	78.4406	268.066	78.1087	268.066	78.2201	268.066	78.0374	268.066	78.0681	268.066	78.0073	268.066	77.9906	268.066	77.9933	268.066	77.971	268.066	77.9797
276.855	81.0058	276.855	80.9835	276.855	80.9655	276.855	80.8992	276.855	80.8694	276.855	80.7591	276.855	80.732	276.855	80.5725	276.855	80.572	276.855	80.3493	276.855	80.4055	276.855	80.0985	276.855	80.2375	276.855	79.8276	276.855	80.0571	276.855	79.5427	276.855	79.8425	276.855	79.2498	276.855	79.5743	276.855	78.9561	276.855	79.2493	276.855	78.6715	276.855	78.8878	276.855	78.4105	276.855	78.5283	276.855	78.1897	276.855	78.2121	276.855	78.0218	276.855	77.9684	276.855	77.9069	276.855	77.8081	276.855	77.8313	276.855	77.7271	276.855	77.7764	276.855	77.7097	276.855	77.7332
287.109	80.6012	287.109	80.5693	287.109	80.5921	287.109	80.5024	287.109	80.5354	287.109	80.404	287.109	80.4272	287.109	80.2753	287.109	80.2726	287.109	80.1158	287.109	80.0895	287.109	79.9245	287.109	79.9063	287.109	79.7	287.109	79.7492	287.109	79.4429	287.109	79.6245	287.109	79.159	287.109	79.5115	287.109	78.8628	287.109	79.3751	287.109	78.5788	287.109	79.1909	287.109	78.3381	287.109	78.9635	287.109	78.168	287.109	78.7267	287.109	78.08	287.109	78.5237	287.109	78.0643	287.109	78.3805	287.109	78.0954	287.109	78.2937	287.109	78.1452	287.109	78.24	287.109	78.1947
297.363	80.9484	297.363	80.9037	297.363	80.924	297.363	80.7987	297.363	80.8281	297.363	80.6494	297.363	80.6627	297.363	80.4758	297.363	80.4308	297.363	80.2946	297.363	80.1362	297.363	80.112	297.363	79.7868	297.363	79.9201	297.363	79.4015	297.363	79.7008	297.363	79.0145	297.363	79.4386	297.363	78.6679	297.363	79.1336	297.363	78.3933	297.363	78.8107	297.363	78.1966	297.363	78.5155	297.363	78.0631	297.363	78.2954	297.363	77.9791	297.363	78.1736	297.363	77.944	297.363	78.1367	297.363	77.9609	297.363	78.1453	297.363	78.0186	297.363	78.1561	297.363	78.0885	297.363	78.1396
307.617	80.807	307.617	80.7119	307.617	80.836	307.617	80.5515	307.617	80.805	307.617	80.3341	307.617	80.7251	307.617	80.0758	307.617	80.6102	307.617	79.7995	307.617	80.4711	307.617	79.5305	307.617	80.3108	307.617	79.2875	307.617	80.1212	307.617	79.0727	307.617	79.8863	307.617	78.8696	307.617	79.5904	307.617	78.6524	307.617	79.2294	307.617	78.405	307.617	78.8191	307.617	78.1375	307.617	78.3985	307.617	77.8881	307.617	78.0222	307.617	77.7034	307.617	77.7414	307.617	77.6061	307.617	77.5809	307.617	77.5779	307.617	77.5269	307.617	77.5752	307.617	77.537	307.617	77.5628
319.336	80.7399	319.336	80.6843	319.336	80.718	319.336	80.5595	319.336	80.6165	319.336	80.3767	319.336	80.4415	319.336	80.148	319.336	80.2093	319.336	79.8847	319.336	79.9462	319.336	79.5959	319.336	79.6835	319.336	79.2895	319.336	79.4477	319.336	78.9728	319.336	79.2494	319.336	78.6555	319.336	79.0778	319.336	78.351	319.336	78.9066	319.336	78.0774	319.336	78.7099	319.336	77.8539	319.336	78.4792	319.336	77.6962	319.336	78.2333	319.336	77.6095	319.336	78.0118	319.336	77.5858	319.336	77.8514	319.336	77.6059	319.336	77.7602	319.336	77.645	319.336	77.715	319.336	77.6828
329.59	80.9199	329.59	80.8567	329.59	80.8982	329.59	80.7151	329.59	80.7916	329.59	80.5089	329.59	80.6067	329.59	80.2588	329.59	80.3561	329.59	79.9885	329.59	80.061	329.59	79.7188	329.59	79.7501	329.59	79.4624	329.59	79.456	329.59	79.224	329.59	79.2044	329.59	79.004	329.59	79.0021	329.59	78.8041	329.59	78.8332	329.59	78.6271	329.59	78.6705	329.59	78.4761	329.59	78.4959	329.59	78.3534	329.59	78.3153	329.59	78.2612	329.59	78.1593	329.59	78.1999	329.59	78.0621	329.59	78.1627	329.59	78.0355	329.59	78.1344	329.59	78.0595	329.59	78.1001
341.309	81.2262	341.309	81.1492	341.309	81.1885	341.309	80.9635	341.309	81.035	341.309	80.6818	341.309	80.7714	341.309	80.3259	341.309	80.4135	341.309	79.9306	341.309	79.9913	341.309	79.5395	341.309	79.5517	341.309	79.1916	341.309	79.1554	341.309	78.9043	341.309	78.8627	341.309	78.6683	341.309	78.7081	341.309	78.4664	341.309	78.6795	341.309	78.2987	341.309	78.7231	341.309	78.1911	341.309	78.7744	341.309	78.1722	341.309	78.789	341.309	78.2413	341.309	78.7578	341.309	78.3593	341.309	78.7013	341.309	78.4745	341.309	78.6491	341.309	78.5533	341.309	78.6165	341.309	78.5934
353.027	81.7451	353.027	81.6541	353.027	81.7237	353.027	81.4532	353.027	81.589	353.027	81.1496	353.027	81.3414	353.027	80.758	353.027	80.9835	353.027	80.304	353.027	80.5226	353.027	79.8242	353.027	79.974	353.027	79.3628	353.027	79.3668	353.027	78.9622	353.027	78.7531	353.027	78.6518	353.027	78.2166	353.027	78.4425	353.027	77.8591	353.027	78.3313	353.027	77.7484	353.027	78.3099	353.027	77.8634	353.027	78.3666	353.027	78.107	353.027	78.4828	353.027	78.3756	353.027	78.6295	353.027	78.606	353.027	78.7704	353.027	78.775	353.027	78.8715	353.027	78.8773	353.027	78.91
366.211	82.6169	366.211	82.4692	366.211	82.6585	366.211	82.2129	366.211	82.5928	366.211	81.8419	366.211	82.4154	366.211	81.3493	366.211	82.1185	366.211	80.7348	366.211	81.6937	366.211	80.0177	366.211	81.1379	366.211	79.253	366.211	80.4623	366.211	78.5405	366.211	79.7018	366.211	78.0065	366.211	78.9193	366.211	77.7439	366.211	78.2032	366.211	77.7529	366.211	77.6579	366.211	77.9506	366.211	77.3808	366.211	78.2328	366.211	77.4127	366.211	78.519	366.211	77.6955	366.211	78.7588	366.211	78.0967	366.211	78.9224	366.211	78.4845	366.211	78.9899	366.211	78.7774	366.211	78.9456
379.395	82.595	379.395	82.5321	379.395	82.5789	379.395	82.3936	379.395	82.4771	379.395	82.1763	379.395	82.2837	379.395	81.87	379.395	81.9975	379.395	81.4607	379.395	81.6233	379.395	80.9371	379.395	81.1699	379.395	80.2981	379.395	80.647	379.395	79.5626	379.395	80.0683	379.395	78.7827	379.395	79.4642	379.395	78.0635	379.395	78.9033	379.395	77.5647	379.395	78.4951	379.395	77.4333	379.395	78.3417	379.395	77.6829	379.395	78.4587	379.395	78.1709	379.395	78.7578	379.395	78.7129	379.395	79.1124	379.395	79.1773	379.395	79.4186	379.395	79.4954	379.395	79.6078	379.395	79.6397
392.578	82.2644	392.578	82.1866	392.578	82.2499	392.578	82.0145	392.578	82.1476	392.578	81.749	392.578	81.9608	392.578	81.393	392.578	81.6885	392.578	80.9473	392.578	81.326	392.578	80.4122	392.578	80.8686	392.578	79.793	392.578	80.3163	392.578	79.1108	392.578	79.6765	392.578	78.4165	392.578	78.9715	392.578	77.8006	392.578	78.259	392.578	77.3887	392.578	77.6609	392.578	77.2956	392.578	77.3495	392.578	77.5422	392.578	77.4313	392.578	78.0198	392.578	77.8322	392.578	78.5554	392.578	78.3588	392.578	79.0012	392.578	78.8405	392.578	79.2705	392.578	79.1796	392.578	79.3299
405.762	82.1228	405.762	82.0675	405.762	82.0848	405.762	81.9112	405.762	81.9628	405.762	81.6489	405.762	81.7644	405.762	81.2781	405.762	81.4899	405.762	80.7959	405.762	81.1266	405.762	80.198	405.762	80.6509	405.762	79.483	405.762	80.0413	405.762	78.6668	405.762	79.2971	405.762	77.8074	405.762	78.4566	405.762	77.0308	405.762	77.6098	405.762	76.5222	405.762	76.9079	405.762	76.437	405.762	76.5466	405.762	76.7713	405.762	76.656	405.762	77.3541	405.762	77.1548	405.762	77.9725	405.762	77.7971	405.762	78.4736	405.762	78.3595	405.762	78.7811	405.762	78.7276	405.762	78.8684
420.41	82.4692	420.41	82.427	420.41	82.4521	420.41	82.3261	420.41	82.3772	420.41	82.1653	420.41	82.2507	420.41	81.9369	420.41	82.079	420.41	81.6217	420.41	81.859	420.41	81.1846	420.41	81.5665	420.41	80.5758	420.41	81.1544	420.41	79.7432	420.41	80.5654	420.41	78.6651	420.41	79.7545	420.41	77.4152	420.41	78.7185	420.41	76.2589	420.41	77.5395	420.41	75.6424	420.41	76.4467	420.41	75.8059	420.41	75.8118	420.41	76.4773	420.41	75.8845	420.41	77.2353	420.41	76.493	420.41	77.8284	420.41	77.242	420.41	78.1495	420.41	77.8409	420.41	78.1563
435.059	81.7531	435.059	81.7261	435.059	81.7182	435.059	81.6454	435.059	81.6039	435.059	81.505	435.059	81.3942	435.059	81.2838	435.059	81.0841	435.059	80.9532	435.059	80.6854	435.059	80.4863	435.059	80.2201	435.059	79.8618	435.059	79.7014	435.059	79.0631	435.059	79.1196	435.059	78.0857	435.059	78.4602	435.059	76.9838	435.059	77.7569	435.059	75.9748	435.059	77.1426	435.059	75.479	435.059	76.8212	435.059	75.7699	435.059	76.9148	435.059	76.5882	435.059	77.3436	435.059	77.4863	435.059	77.9075	435.059	78.2085	435.059	78.4206	435.059	78.6696	435.059	78.7584	435.059	78.8512
451.172	82.6152	451.172	82.5535	451.172	82.6014	451.172	82.4251	451.172	82.5065	451.172	82.2376	451.172	82.3294	451.172	81.9924	451.172	82.0689	451.172	81.6819	451.172	81.7169	451.172	81.2865	451.172	81.254	451.172	80.7693	451.172	80.648	451.172	80.0695	451.172	79.8556	451.172	79.1075	451.172	78.8245	451.172	77.8168	451.172	77.5128	451.172	76.2443	451.172	75.969	451.172	74.7992	451.172	74.5513	451.172	74.3668	451.172	74.0482	451.172	75.2255	451.172	74.7785	451.172	76.5182	451.172	76.022	451.172	77.5553	451.172	77.1287	451.172	78.1268	451.172	77.8792	451.172	78.2227
465.82	81.8236	465.82	81.7426	465.82	81.8602	465.82	81.6268	465.82	81.8466	465.82	81.49	465.82	81.7778	465.82	81.3402	465.82	81.6473	465.82	81.1648	465.82	81.4454	465.82	80.9222	465.82	81.1551	465.82	80.5527	465.82	80.7431	465.82	79.9997	465.82	80.1557	465.82	79.2325	465.82	79.3259	465.82	78.2715	465.82	78.201	465.82	77.2236	465.82	76.8021	465.82	76.3171	465.82	75.3528	465.82	75.8399	465.82	74.4067	465.82	75.9094	465.82	74.4746	465.82	76.345	465.82	75.2983	465.82	76.8513	465.82	76.2429	465.82	77.1998	465.82	76.9338	465.82	77.2514
483.398	81.6529	483.398	81.6015	483.398	81.5916	483.398	81.4525	483.398	81.4335	483.398	81.241	483.398	81.2232	483.398	81.001	483.398	81.0108	483.398	80.7407	483.398	80.8167	483.398	80.426	483.398	80.6116	483.398	79.9825	483.398	80.3301	483.398	79.3135	483.398	79.9001	483.398	78.3243	483.398	79.2613	483.398	76.9541	483.398	78.3726	483.398	75.2795	483.398	77.2434	483.398	73.8103	483.398	76.0387	483.398	73.5772	483.398	75.2229	483.398	74.6964	483.398	75.3009	483.398	76.1101	483.398	76.095	483.398	77.1729	483.398	76.9934	483.398	77.7558	483.398	77.6285	483.398	77.8931
499.512	81.4676	499.512	81.3666	499.512	81.479	499.512	81.1885	499.512	81.3906	499.512	80.9506	499.512	81.1998	499.512	80.6766	499.512	80.9201	499.512	80.3905	499.512	80.5821	499.512	80.0993	499.512	80.2126	499.512	79.7714	499.512	79.7989	499.512	79.3291	499.512	79.2682	499.512	78.6668	499.512	78.5113	499.512	77.693	499.512	77.4358	499.512	76.4105	499.512	76.0448	499.512	75.0723	499.512	74.5883	499.512	74.2992	499.512	73.7265	499.512	74.5548	499.512	74.0365	499.512	75.4602	499.512	75.1198	499.512	76.3961	499.512	76.2292	499.512	77.0356	499.512	76.9775	499.512	77.2476
517.09	80.9318	517.09	80.8022	517.09	80.9591	517.09	80.5858	517.09	80.891	517.09	80.318	517.09	80.7555	517.09	80.0442	517.09	80.5939	517.09	79.7948	517.09	80.4389	517.09	79.551	517.09	80.2834	517.09	79.2293	517.09	80.0635	517.09	78.7035	517.09	79.6698	517.09	77.8513	517.09	78.9759	517.09	76.6183	517.09	77.8604	517.09	75.1613	517.09	76.2475	517.09	74.1249	517.09	74.302	517.09	74.3582	517.09	72.9965	517.09	75.5876	517.09	73.6192	517.09	76.8917	517.09	75.3327	517.09	77.8222	517.09	76.8564	517.09	78.2915	517.09	77.8427	517.09	78.3036
536.133	81.3748	536.133	81.2951	536.133	81.3045	536.133	81.0948	536.133	81.0712	536.133	80.8075	536.133	80.6923	536.133	80.4591	536.133	80.2246	536.133	80.0635	536.133	79.7608	536.133	79.6205	536.133	79.395	536.133	79.1043	536.133	79.15	536.133	78.4392	536.133	78.9212	536.133	77.4794	536.133	78.5028	536.133	76.0186	536.133	77.6728	536.133	73.8549	536.133	76.2737	536.133	71.2067	536.133	74.3471	536.133	70.2786	536.133	72.5596	536.133	72.5077	536.133	72.402	536.133	75.0386	536.133	73.9176	536.133	76.7327	536.133	75.6701	536.133	77.5629	536.133	76.9614	536.133	77.6156
555.176	81.5395	555.176	81.4771	555.176	81.4465	555.176	81.2796	555.176	81.2079	555.176	80.9942	555.176	80.8639	555.176	80.6863	555.176	80.4782	555.176	80.415	555.176	80.1141	555.176	80.1872	555.176	79.7946	555.176	79.9216	555.176	79.4809	555.176	79.4622	555.176	79.0905	555.176	78.6281	555.176	78.5209	555.176	77.2504	555.176	77.6405	555.176	75.1926	555.176	76.2768	555.176	72.4536	555.176	74.2843	555.176	69.8463	555.176	71.9287	555.176	69.8181	555.176	70.8311	555.176	71.9579	555.176	72.0968	555.176	73.9258	555.176	73.868	555.176	75.1014	555.176	75.0439	555.176	75.4618
574.219	81.0517	574.219	80.8295	574.219	81.1145	574.219	80.4908	574.219	81.0021	574.219	80.105	574.219	80.7264	574.219	79.7524	574.219	80.3274	574.219	79.4955	574.219	79.8668	574.219	79.3494	574.219	79.409	574.219	79.2581	574.219	78.9898	574.219	79.0815	574.219	78.5772	574.219	78.6177	574.219	78.0536	574.219	77.6418	574.219	77.2413	574.219	75.9284	574.219	75.9557	574.219	73.3412	574.219	74.1003	574.219	70.622	574.219	72.0215	574.219	70.6631	574.219	71.204	574.219	72.8445	574.219	72.4196	574.219	74.5733	574.219	74.0487	574.219	75.4504	574.219	75.1501	574.219	75.6139
594.727	80.622	594.727	80.401	594.727	80.6629	594.727	80.0058	594.727	80.5294	594.727	79.4722	594.727	80.2419	594.727	78.8991	594.727	79.851	594.727	78.4456	594.727	79.4483	594.727	78.226	594.727	79.1339	594.727	78.18	594.727	78.9216	594.727	78.1067	594.727	78.6725	594.727	77.798	594.727	78.1516	594.727	77.0941	594.727	77.1263	594.727	75.8842	594.727	75.4058	594.727	74.209	594.727	72.9332	594.727	72.6896	594.727	70.5218	594.727	72.6166	594.727	70.7455	594.727	73.8809	594.727	72.9983	594.727	75.2198	594.727	74.9242	594.727	76.0908	594.727	76.0318	594.727	76.3855
615.234	80.7747	615.234	80.6336	615.234	80.7035	615.234	80.2715	615.234	80.4464	615.234	79.7244	615.234	80.0396	615.234	79.0995	615.234	79.5477	615.234	78.5584	615.234	79.0829	615.234	78.2168	615.234	78.7698	615.234	78.0232	615.234	78.6394	615.234	77.7546	615.234	78.5618	615.234	77.1122	615.234	78.2995	615.234	75.7921	615.234	77.5948	615.234	73.505	615.234	76.2106	615.234	70.1898	615.234	73.9639	615.234	68.0022	615.234	71.0358	615.234	70.2419	615.234	69.4488	615.234	73.1104	615.234	71.1587	615.234	74.9669	615.234	73.4802	615.234	75.8487	615.234	75.0789	615.234	75.8674
637.207	81.861	637.207	81.6289	637.207	81.8416	637.207	81.1786	637.207	81.55	637.207	80.5461	637.207	80.9979	637.207	79.7964	637.207	80.2485	637.207	79.0848	637.207	79.4366	637.207	78.641	637.207	78.7669	637.207	78.542	637.207	78.4156	637.207	78.548	637.207	78.3376	637.207	78.2931	637.207	78.2132	637.207	77.463	637.207	77.6166	637.207	75.7396	637.207	76.1452	637.207	72.6707	637.207	73.415	637.207	68.5039	637.207	69.4235	637.207	69.6525	637.207	68.3262	637.207	73.7268	637.207	71.9782	637.207	76.2374	637.207	75.0032	637.207	77.4271	637.207	76.8127	637.207	77.5945
659.18	81.9345	659.18	81.6945	659.18	81.8842	659.18	81.1838	659.18	81.543	659.18	80.45	659.18	80.9463	659.18	79.6004	659.18	80.2066	659.18	78.8508	659.18	79.5416	659.18	78.4826	659.18	79.1933	659.18	78.5619	659.18	79.2205	659.18	78.7734	659.18	79.4264	659.18	78.6771	659.18	79.5125	659.18	77.9282	659.18	79.1875	659.18	76.2635	659.18	78.1476	659.18	73.42	659.18	76.0044	659.18	69.5298	659.18	72.2191	659.18	68.7418	659.18	67.7091	659.18	72.1747	659.18	69.9454	659.18	74.7446	659.18	73.4585	659.18	75.9613	659.18	75.3542	659.18	76.1203
682.617	82.8031	682.617	82.6031	682.617	82.692	682.617	82.0478	682.617	82.3113	682.617	81.1415	682.617	81.6663	682.617	79.9952	682.617	80.7379	682.617	78.8907	682.617	79.581	682.617	78.2505	682.617	78.5075	682.617	78.2948	682.617	78.0591	682.617	78.7148	682.617	78.3411	682.617	78.9784	682.617	78.7787	682.617	78.6603	682.617	78.7781	682.617	77.3839	682.617	77.9322	682.617	74.6685	682.617	75.8105	682.617	70.1914	682.617	71.7527	682.617	68.9328	682.617	67.546	682.617	73.0719	682.617	71.7291	682.617	75.9973	682.617	75.5381	682.617	77.5587	682.617	77.4509	682.617	78.0424
707.52	83.0935	707.52	82.9549	707.52	83.0064	707.52	82.5692	707.52	82.6792	707.52	81.8725	707.52	82.0831	707.52	80.8046	707.52	81.1923	707.52	79.4346	707.52	80.0351	707.52	78.1745	707.52	78.8518	707.52	77.729	707.52	78.2217	707.52	78.124	707.52	78.4738	707.52	78.4919	707.52	79.0302	707.52	78.1307	707.52	79.1237	707.52	76.6769	707.52	78.2843	707.52	73.6034	707.52	76.1178	707.52	67.0785	707.52	71.7963	707.52	64.5765	707.52	63.6102	707.52	72.802	707.52	69.0158	707.52	76.5818	707.52	74.6442	707.52	78.2711	707.52	77.4037	707.52	78.5143
732.422	83.1139	732.422	82.8987	732.422	83.0671	732.422	82.4333	732.422	82.7074	732.422	81.6745	732.422	81.9767	732.422	80.5451	732.422	80.8415	732.422	79.0364	732.422	79.3242	732.422	77.514	732.422	77.6085	732.422	76.9693	732.422	76.3732	732.422	77.7551	732.422	76.5918	732.422	78.7803	732.422	77.7724	732.422	79.0784	732.422	78.59	732.422	78.1141	732.422	78.3262	732.422	75.3094	732.422	76.57	732.422	69.1952	732.422	72.7061	732.422	63.3698	732.422	66.3287	732.422	71.7343	732.422	69.1073	732.422	75.5547	732.422	73.9893	732.422	77.1983	732.422	76.481	732.422	77.4574
757.324	83.1385	757.324	82.9751	757.324	83.1082	757.324	82.5658	757.324	82.8453	757.324	81.783	757.324	82.2413	757.324	80.4732	757.324	81.1649	757.324	78.5406	757.324	79.5322	757.324	76.222	757.324	77.4719	757.324	74.9208	757.324	75.7333	757.324	75.9678	757.324	75.6298	757.324	77.6261	757.324	76.9601	757.324	78.5145	757.324	78.1999	757.324	78.2762	757.324	78.3853	757.324	76.521	757.324	76.9695	757.324	72.002	757.324	73.0941	757.324	60.4391	757.324	62.5335	757.324	71.0562	757.324	66.6068	757.324	76.0933	757.324	73.8541	757.324	77.9772	757.324	76.8873	757.324	78.1352
785.156	82.4364	785.156	82.3481	785.156	82.4019	785.156	82.0636	785.156	82.2754	785.156	81.4959	785.156	81.9718	785.156	80.4828	785.156	81.2785	785.156	78.713	785.156	79.906	785.156	75.7322	785.156	77.495	785.156	71.5728	785.156	73.6444	785.156	71.0575	785.156	69.8065	785.156	74.1879	785.156	71.8673	785.156	75.834	785.156	74.8016	785.156	75.7394	785.156	76.0258	785.156	73.9447	785.156	75.5607	785.156	69.095	785.156	73.1032	785.156	49.1772	785.156	66.4101	785.156	69.9979	785.156	60.1411	785.156	75.0945	785.156	72.5416	785.156	77.2505	785.156	76.5041	785.156	77.7457
811.523	81.4906	811.523	81.3307	811.523	81.6262	811.523	81.2342	811.523	81.6048	811.523	81.1214	811.523	81.3912	811.523	80.7838	811.523	81.0207	811.523	79.9802	811.523	80.4358	811.523	78.4571	811.523	79.3841	811.523	75.925	811.523	77.4417	811.523	72.3299	811.523	74.1295	811.523	70.3581	811.523	70.3951	811.523	72.4029	811.523	71.3488	811.523	73.9051	811.523	73.5785	811.523	73.6238	811.523	73.9643	811.523	71.3105	811.523	71.9984	811.523	64.9268	811.523	66.0667	811.523	59.8225	811.523	54.8101	811.523	69.7615	811.523	67.2882	811.523	72.7921	811.523	71.436	811.523	73.0877
840.82	80.9603	840.82	80.8928	840.82	80.9026	840.82	80.6755	840.82	80.7874	840.82	80.2962	840.82	80.6096	840.82	79.6957	840.82	80.2441	840.82	78.7975	840.82	79.6216	840.82	77.5344	840.82	78.766	840.82	75.7719	840.82	77.5329	840.82	73.4219	840.82	75.5962	840.82	71.4742	840.82	73.2499	840.82	72.0349	840.82	72.3138	840.82	73.4077	840.82	72.9522	840.82	73.2852	840.82	73.2741	840.82	70.8373	840.82	72.3784	840.82	64.9074	840.82	69.2896	840.82	45.6277	840.82	60.5895	840.82	63.0243	840.82	59.9631	840.82	67.4678	840.82	66.96	840.82	68.5342
870.117	81.0857	870.117	80.7998	870.117	81.202	870.117	80.48	870.117	81.085	870.117	80.1868	870.117	80.7793	870.117	79.7609	870.117	80.3723	870.117	78.9791	870.117	79.7908	870.117	77.7467	870.117	78.7648	870.117	76.0715	870.117	77.2094	870.117	74.3361	870.117	75.5964	870.117	73.6266	870.117	74.6027	870.117	73.8287	870.117	74.3114	870.117	73.7405	870.117	74.4016	870.117	73.1313	870.117	74.2368	870.117	71.8695	870.117	72.8978	870.117	69.2811	870.117	69.545	870.117	66.2518	870.117	64.5721	870.117	67.9403	870.117	65.783	870.117	70.3138	870.117	69.169	870.117	70.6752
900.879	81.8345	900.879	81.678	900.879	81.7669	900.879	81.3163	900.879	81.5323	900.879	80.8434	900.879	81.2202	900.879	80.3357	900.879	80.8598	900.879	79.6554	900.879	80.3554	900.879	78.4585	900.879	79.477	900.879	76.5278	900.879	77.9198	900.879	74.177	900.879	75.6046	900.879	72.4513	900.879	73.6078	900.879	72.3466	900.879	73.6768	900.879	72.9595	900.879	74.4318	900.879	72.437	900.879	74.2289	900.879	69.4593	900.879	72.4651	900.879	60.1843	900.879	67.9109	900.879	62.3064	900.879	53.4747	900.879	70.4275	900.879	66.666	900.879	73.1721	900.879	71.8018	900.879	73.5281
933.105	82.124	933.105	81.9823	933.105	82.0825	933.105	81.7103	933.105	81.8814	933.105	81.3867	933.105	81.5254	933.105	80.939	933.105	81.0246	933.105	80.1755	933.105	80.4331	933.105	78.9922	933.105	79.6248	933.105	77.4675	933.105	78.3005	933.105	75.8097	933.105	76.5314	933.105	74.5447	933.105	75.1011	933.105	74.5213	933.105	74.7387	933.105	75.0229	933.105	75.1115	933.105	74.5283	933.105	75.0981	933.105	72.4082	933.105	73.6669	933.105	68.253	933.105	69.8944	933.105	61.7242	933.105	61.7177	933.105	66.1865	933.105	64.5554	933.105	70.8909	933.105	70.2645	933.105	72.0455
965.332	82.0173	965.332	81.941	965.332	81.9421	965.332	81.673	965.332	81.7015	965.332	81.2487	965.332	81.3004	965.332	80.7655	965.332	80.7807	965.332	80.1423	965.332	80.0766	965.332	79.1557	965.332	79.067	965.332	77.5625	965.332	77.5722	965.332	75.2222	965.332	75.2533	965.332	73.3322	965.332	72.9739	965.332	73.8307	965.332	73.5546	965.332	74.7711	965.332	74.8104	965.332	74.4505	965.332	74.8768	965.332	71.8727	965.332	73.766	965.332	63.8675	965.332	70.5637	965.332	62.4008	965.332	60.0338	965.332	70.6217	965.332	66.124	965.332	73.3961	965.332	72.3323	965.332	73.9938
1,000.49	81.7365	1,000.49	81.5953	1,000.49	81.7291	1,000.49	81.3955	1,000.49	81.57	1,000.49	81.2292	1,000.49	81.2131	1,000.49	80.887	1,000.49	80.6945	1,000.49	80.0914	1,000.49	80.1596	1,000.49	78.9675	1,000.49	79.5325	1,000.49	77.7158	1,000.49	78.553	1,000.49	75.7524	1,000.49	76.8868	1,000.49	73.1163	1,000.49	74.0473	1,000.49	73.2949	1,000.49	71.3336	1,000.49	75.0117	1,000.49	72.3861	1,000.49	75.1997	1,000.49	73.6525	1,000.49	73.5326	1,000.49	73.2757	1,000.49	69.7684	1,000.49	70.6648	1,000.49	62.0122	1,000.49	62.6871	1,000.49	64.8551	1,000.49	63.4108	1,000.49	70.4129	1,000.49	69.8468	1,000.49	71.5384
1,035.64	82.4012	1,035.64	82.1165	1,035.64	82.1111	1,035.64	81.3618	1,035.64	81.4625	1,035.64	80.5578	1,035.64	80.8259	1,035.64	80.0184	1,035.64	80.297	1,035.64	79.4425	1,035.64	79.5864	1,035.64	78.3343	1,035.64	78.566	1,035.64	76.5461	1,035.64	77.2895	1,035.64	74.2807	1,035.64	75.3173	1,035.64	72.1267	1,035.64	72.3993	1,035.64	71.5711	1,035.64	71.619	1,035.64	73.1354	1,035.64	73.3255	1,035.64	74.1468	1,035.64	74.054	1,035.64	72.6676	1,035.64	73.654	1,035.64	67.6412	1,035.64	71.4809	1,035.64	65.0568	1,035.64	64.8493	1,035.64	69.4997	1,035.64	63.1908	1,035.64	72.0142	1,035.64	70.4136	1,035.64	72.4948
1,072.27	81.5688	1,072.27	81.4959	1,072.27	81.4217	1,072.27	81.1336	1,072.27	81.2057	1,072.27	80.6204	1,072.27	80.8966	1,072.27	80.211	1,072.27	80.4122	1,072.27	79.7666	1,072.27	79.9749	1,072.27	78.9304	1,072.27	79.6402	1,072.27	77.66	1,072.27	78.8835	1,072.27	75.473	1,072.27	77.1125	1,072.27	71.1301	1,072.27	73.9548	1,072.27	67.7995	1,072.27	69.9349	1,072.27	70.7414	1,072.27	69.4852	1,072.27	71.6605	1,072.27	71.4792	1,072.27	70.2768	1,072.27	71.6415	1,072.27	65.9563	1,072.27	68.8839	1,072.27	61.8808	1,072.27	60.2257	1,072.27	68.8014	1,072.27	64.4322	1,072.27	72.2239	1,072.27	71.0115	1,072.27	72.9741
1,108.89	82.4753	1,108.89	81.9478	1,108.89	82.4917	1,108.89	81.1695	1,108.89	81.8901	1,108.89	80.3275	1,108.89	80.9667	1,108.89	79.5327	1,108.89	80.2705	1,108.89	78.9691	1,108.89	79.7386	1,108.89	78.6624	1,108.89	78.9651	1,108.89	78.0295	1,108.89	78.3085	1,108.89	76.5062	1,108.89	77.7364	1,108.89	74.506	1,108.89	75.8643	1,108.89	72.8604	1,108.89	72.4019	1,108.89	71.9287	1,108.89	71.8171	1,108.89	72.187	1,108.89	72.3459	1,108.89	70.7329	1,108.89	71.6705	1,108.89	63.3493	1,108.89	69.6888	1,108.89	59.7292	1,108.89	62.6073	1,108.89	69.4607	1,108.89	65.7103	1,108.89	72.6261	1,108.89	71.173	1,108.89	72.9951
1,148.44	82.9383	1,148.44	82.6886	1,148.44	82.7668	1,148.44	81.8221	1,148.44	82.3094	1,148.44	80.424	1,148.44	81.5762	1,148.44	79.2781	1,148.44	80.499	1,148.44	78.5086	1,148.44	79.384	1,148.44	77.2976	1,148.44	78.6562	1,148.44	76.1525	1,148.44	77.8182	1,148.44	75.1941	1,148.44	76.4769	1,148.44	73.0467	1,148.44	74.595	1,148.44	70.5954	1,148.44	71.8068	1,148.44	71.2391	1,148.44	70.7631	1,148.44	72.0677	1,148.44	71.8392	1,148.44	70.9627	1,148.44	71.8356	1,148.44	66.0704	1,148.44	70.3867	1,148.44	60.2138	1,148.44	63.6548	1,148.44	69.0163	1,148.44	62.3936	1,148.44	71.6251	1,148.44	70.7243	1,148.44	72.2068
1,189.45	83.1617	1,189.45	82.9307	1,189.45	83.0965	1,189.45	82.2932	1,189.45	82.7132	1,189.45	81.2313	1,189.45	81.8262	1,189.45	79.9812	1,189.45	80.5882	1,189.45	79.0089	1,189.45	79.6087	1,189.45	78.1538	1,189.45	79.0974	1,189.45	77.1053	1,189.45	78.5346	1,189.45	75.9152	1,189.45	77.4488	1,189.45	73.4308	1,189.45	75.5374	1,189.45	69.7517	1,189.45	72.792	1,189.45	70.7795	1,189.45	72.2878	1,189.45	72.7275	1,189.45	73.1767	1,189.45	72.5387	1,189.45	72.6966	1,189.45	68.5575	1,189.45	70.6605	1,189.45	52.6772	1,189.45	63.1833	1,189.45	66.5938	1,189.45	60.7378	1,189.45	71.5299	1,189.45	69.6964	1,189.45	72.2914
1,230.47	83.1936	1,230.47	83.035	1,230.47	83.1093	1,230.47	82.5737	1,230.47	82.5712	1,230.47	81.3706	1,230.47	81.6473	1,230.47	79.7364	1,230.47	80.4951	1,230.47	78.8594	1,230.47	79.29	1,230.47	78.15	1,230.47	78.4462	1,230.47	76.8718	1,230.47	77.7396	1,230.47	75.7489	1,230.47	76.8495	1,230.47	73.9671	1,230.47	75.5067	1,230.47	71.3451	1,230.47	72.278	1,230.47	71.4031	1,230.47	70.6879	1,230.47	72.9441	1,230.47	73.2827	1,230.47	72.8255	1,230.47	72.7357	1,230.47	67.6892	1,230.47	69.9688	1,230.47	56.8375	1,230.47	64.7451	1,230.47	68.9576	1,230.47	57.1317	1,230.47	71.9968	1,230.47	70.4159	1,230.47	72.8281
1,274.41	83.3777	1,274.41	83.1601	1,274.41	83.1625	1,274.41	82.6301	1,274.41	82.6688	1,274.41	81.8332	1,274.41	81.8039	1,274.41	80.5724	1,274.41	80.4478	1,274.41	79.3463	1,274.41	79.1152	1,274.41	78.6184	1,274.41	78.1306	1,274.41	77.7727	1,274.41	77.617	1,274.41	76.8943	1,274.41	77.3058	1,274.41	75.5324	1,274.41	76.1283	1,274.41	73.2615	1,274.41	73.2192	1,274.41	71.8168	1,274.41	71.0953	1,274.41	72.0011	1,274.41	72.7061	1,274.41	72.6172	1,274.41	73.3087	1,274.41	69.9726	1,274.41	72.1526	1,274.41	57.7093	1,274.41	67.087	1,274.41	65.753	1,274.41	59.4726	1,274.41	70.8855	1,274.41	69.5527	1,274.41	72.0265
1,319.82	82.643	1,319.82	82.4074	1,319.82	82.5133	1,319.82	82.1231	1,319.82	81.9324	1,319.82	81.6215	1,319.82	81.1977	1,319.82	80.2971	1,319.82	80.304	1,319.82	78.4096	1,319.82	78.9912	1,319.82	77.5103	1,319.82	77.5688	1,319.82	77.0012	1,319.82	76.7083	1,319.82	76.0188	1,319.82	76.7575	1,319.82	74.9361	1,319.82	76.3217	1,319.82	72.4751	1,319.82	73.3012	1,319.82	69.234	1,319.82	67.8383	1,319.82	70.8647	1,319.82	71.3737	1,319.82	72.1929	1,319.82	73.296	1,319.82	68.5708	1,319.82	71.3613	1,319.82	43.382	1,319.82	64.5684	1,319.82	67.53	1,319.82	57.8933	1,319.82	71.8065	1,319.82	69.2307	1,319.82	72.1845
1,366.7	82.0983	1,366.7	81.9923	1,366.7	81.9361	1,366.7	81.6542	1,366.7	81.5546	1,366.7	81.0361	1,366.7	80.916	1,366.7	80.0501	1,366.7	79.6638	1,366.7	78.509	1,366.7	78.0454	1,366.7	77.0207	1,366.7	76.886	1,366.7	75.908	1,366.7	75.8153	1,366.7	74.3065	1,366.7	74.2932	1,366.7	72.2338	1,366.7	73.4598	1,366.7	68.5823	1,366.7	71.629	1,366.7	69.6003	1,366.7	66.2842	1,366.7	72.1665	1,366.7	67.0321	1,366.7	72.5252	1,366.7	71.8427	1,366.7	69.3411	1,366.7	72.2961	1,366.7	48.1512	1,366.7	66.3965	1,366.7	66.9763	1,366.7	53.2484	1,366.7	70.6727	1,366.7	67.8454	1,366.7	71.4669
1,413.57	82.702	1,413.57	82.2378	1,413.57	82.6826	1,413.57	81.6336	1,413.57	82.1604	1,413.57	80.9811	1,413.57	81.3752	1,413.57	80.011	1,413.57	80.365	1,413.57	78.5172	1,413.57	79.0113	1,413.57	77.1928	1,413.57	77.133	1,413.57	76.5395	1,413.57	74.7746	1,413.57	75.3362	1,413.57	74.1976	1,413.57	73.0377	1,413.57	75.1736	1,413.57	69.3722	1,413.57	74.1229	1,413.57	69.0666	1,413.57	69.6107	1,413.57	69.7704	1,413.57	68.2215	1,413.57	70.6848	1,413.57	72.4172	1,413.57	69.928	1,413.57	73.0808	1,413.57	59.3973	1,413.57	68.6726	1,413.57	63.3055	1,413.57	56.1635	1,413.57	68.6605	1,413.57	67.5394	1,413.57	69.9304
1,463.38	83.0184	1,463.38	82.5103	1,463.38	82.9765	1,463.38	81.8151	1,463.38	82.5089	1,463.38	80.9685	1,463.38	81.871	1,463.38	79.6159	1,463.38	80.8387	1,463.38	77.891	1,463.38	79.2606	1,463.38	75.7253	1,463.38	77.8759	1,463.38	74.6642	1,463.38	76.452	1,463.38	74.6783	1,463.38	74.5716	1,463.38	73.3132	1,463.38	74.2227	1,463.38	70.5913	1,463.38	73.5475	1,463.38	67.4745	1,463.38	71.5767	1,463.38	69.346	1,463.38	68.7407	1,463.38	70.7588	1,463.38	70.4628	1,463.38	69.6544	1,463.38	72.6824	1,463.38	64.7682	1,463.38	68.847	1,463.38	60.9167	1,463.38	53.6074	1,463.38	68.783	1,463.38	67.6011	1,463.38	70.7354
1,516.11	82.7258	1,516.11	82.5862	1,516.11	82.6269	1,516.11	81.8224	1,516.11	82.3716	1,516.11	80.7498	1,516.11	81.5628	1,516.11	79.9077	1,516.11	80.6979	1,516.11	78.9055	1,516.11	79.5258	1,516.11	77.1349	1,516.11	77.9901	1,516.11	76.023	1,516.11	76.6599	1,516.11	75.1381	1,516.11	74.7472	1,516.11	73.4138	1,516.11	73.5379	1,516.11	71.4907	1,516.11	72.6297	1,516.11	67.4167	1,516.11	70.5072	1,516.11	69.536	1,516.11	68.1947	1,516.11	72.1225	1,516.11	70.3657	1,516.11	70.3259	1,516.11	71.5648	1,516.11	65.5358	1,516.11	67.2875	1,516.11	54.7326	1,516.11	52.8507	1,516.11	68.0118	1,516.11	66.7242	1,516.11	69.5218
1,568.85	82.3128	1,568.85	82.248	1,568.85	82.0223	1,568.85	81.3764	1,568.85	81.7289	1,568.85	80.4789	1,568.85	80.7846	1,568.85	79.4003	1,568.85	79.709	1,568.85	78.1337	1,568.85	78.4822	1,568.85	76.2793	1,568.85	77.1831	1,568.85	73.9575	1,568.85	75.9783	1,568.85	73.4419	1,568.85	74.3669	1,568.85	73.1562	1,568.85	72.0793	1,568.85	72.8395	1,568.85	70.4641	1,568.85	69.4333	1,568.85	70.2364	1,568.85	68.1578	1,568.85	69.9771	1,568.85	72.9473	1,568.85	70.6347	1,568.85	72.0008	1,568.85	72.1624	1,568.85	66.017	1,568.85	70.2167	1,568.85	54.7544	1,568.85	57.7733	1,568.85	67.0276	1,568.85	65.7026	1,568.85	70.0849
1,624.51	81.725	1,624.51	81.3675	1,624.51	81.6131	1,624.51	80.1055	1,624.51	81.3655	1,624.51	78.9476	1,624.51	80.5074	1,624.51	77.2792	1,624.51	79.4801	1,624.51	75.9059	1,624.51	78.1763	1,624.51	75.7717	1,624.51	75.9635	1,624.51	73.1905	1,624.51	74.6908	1,624.51	70.8983	1,624.51	73.4106	1,624.51	71.7708	1,624.51	70.8211	1,624.51	70.9281	1,624.51	68.6446	1,624.51	68.6487	1,624.51	68.6137	1,624.51	66.0606	1,624.51	66.8816	1,624.51	70.7661	1,624.51	68.7732	1,624.51	72.2762	1,624.51	71.2119	1,624.51	67.398	1,624.51	70.1775	1,624.51	50.3845	1,624.51	61.6358	1,624.51	64.4602	1,624.51	60.6981	1,624.51	67.2116
1,681.64	81.4762	1,681.64	80.6628	1,681.64	81.3604	1,681.64	80.0918	1,681.64	80.4814	1,681.64	79.3526	1,681.64	80.5332	1,681.64	78.4385	1,681.64	79.5866	1,681.64	77.2983	1,681.64	78.1775	1,681.64	76.5612	1,681.64	76.9415	1,681.64	75.5711	1,681.64	75.3324	1,681.64	74.4657	1,681.64	74.7541	1,681.64	73.1165	1,681.64	73.7936	1,681.64	69.7629	1,681.64	69.9365	1,681.64	66.9438	1,681.64	65.5528	1,681.64	67.7423	1,681.64	67.1056	1,681.64	71.9033	1,681.64	66.6501	1,681.64	72.4995	1,681.64	67.5625	1,681.64	69.5177	1,681.64	67.0947	1,681.64	60.5353	1,681.64	57.8192	1,681.64	61.9024	1,681.64	53.889	1,681.64	58.9836
1,741.7	81.6491	1,741.7	81.6611	1,741.7	81.5807	1,741.7	81.3164	1,741.7	81.0412	1,741.7	80.4552	1,741.7	79.9928	1,741.7	79.0817	1,741.7	78.6748	1,741.7	78.003	1,741.7	78.0432	1,741.7	76.7042	1,741.7	77.0731	1,741.7	74.7847	1,741.7	76.0293	1,741.7	73.8384	1,741.7	75.2318	1,741.7	72.6815	1,741.7	73.3578	1,741.7	72.2527	1,741.7	72.8191	1,741.7	68.774	1,741.7	70.2328	1,741.7	65.3747	1,741.7	67.1142	1,741.7	70.9547	1,741.7	69.5002	1,741.7	72.8155	1,741.7	71.1996	1,741.7	69.9279	1,741.7	71.3325	1,741.7	62.1931	1,741.7	64.949	1,741.7	65.579	1,741.7	52.2424	1,741.7	65.4497
1,803.22	82.5857	1,803.22	82.2905	1,803.22	82.9588	1,803.22	81.7716	1,803.22	82.2475	1,803.22	80.6412	1,803.22	80.9449	1,803.22	79.7373	1,803.22	80.1719	1,803.22	79.0069	1,803.22	79.4592	1,803.22	77.2886	1,803.22	78.4298	1,803.22	76.444	1,803.22	76.5247	1,803.22	74.7977	1,803.22	74.3824	1,803.22	72.914	1,803.22	74.4872	1,803.22	71.717	1,803.22	74.7317	1,803.22	70.6243	1,803.22	72.1488	1,803.22	68.0284	1,803.22	68.6457	1,803.22	67.3238	1,803.22	71.0401	1,803.22	70.6079	1,803.22	72.2196	1,803.22	70.8476	1,803.22	70.7606	1,803.22	64.3419	1,803.22	66.0848	1,803.22	68.3078	1,803.22	56.8677	1,803.22	67.3506
1,866.21	82.2964	1,866.21	81.0761	1,866.21	81.9237	1,866.21	80.9827	1,866.21	81.2906	1,866.21	81.2335	1,866.21	80.8061	1,866.21	79.3492	1,866.21	80.2697	1,866.21	78.72	1,866.21	79.0658	1,866.21	78.1113	1,866.21	77.9431	1,866.21	76.617	1,866.21	75.9165	1,866.21	75.6143	1,866.21	72.824	1,866.21	73.6075	1,866.21	70.4068	1,866.21	72.8171	1,866.21	69.6061	1,866.21	70.8596	1,866.21	67.4242	1,866.21	69.0156	1,866.21	64.7071	1,866.21	68.2035	1,866.21	69.595	1,866.21	71.7723	1,866.21	71.8859	1,866.21	68.2346	1,866.21	69.815	1,866.21	66.3609	1,866.21	60.8322	1,866.21	68.7876	1,866.21	60.112	1,866.21	67.6943
1,932.13	80.6436	1,932.13	80.5451	1,932.13	79.8769	1,932.13	79.4549	1,932.13	80.3795	1,932.13	78.6734	1,932.13	80.4776	1,932.13	77.9814	1,932.13	79.6301	1,932.13	77.2219	1,932.13	78.4151	1,932.13	77.3122	1,932.13	77.521	1,932.13	74.9689	1,932.13	76.73	1,932.13	73.777	1,932.13	74.555	1,932.13	73.5125	1,932.13	72.5792	1,932.13	72.8746	1,932.13	72.2666	1,932.13	72.1927	1,932.13	70.6544	1,932.13	69.9214	1,932.13	65.9794	1,932.13	69.7147	1,932.13	65.1341	1,932.13	72.1985	1,932.13	66.3638	1,932.13	67.1954	1,932.13	68.9585	1,932.13	58.6396	1,932.13	67.3451	1,932.13	60.7484	1,932.13	60.5622	1,932.13	62.8458
1,999.51	81.1325	1,999.51	80.9161	1,999.51	81.0665	1,999.51	80.564	1,999.51	80.6486	1,999.51	79.9436	1,999.51	80.2861	1,999.51	78.9933	1,999.51	79.6966	1,999.51	78.1509	1,999.51	79.041	1,999.51	77.3223	1,999.51	78.574	1,999.51	75.5167	1,999.51	77.2265	1,999.51	73.2202	1,999.51	75.0064	1,999.51	71.6068	1,999.51	72.7554	1,999.51	69.8138	1,999.51	72.3652	1,999.51	69.3102	1,999.51	71.2981	1,999.51	68.412	1,999.51	69.306	1,999.51	68.4657	1,999.51	67.4074	1,999.51	70.5401	1,999.51	69.2695	1,999.51	70.114	1,999.51	71.3467	1,999.51	57.7706	1,999.51	66.428	1,999.51	62.8161	1,999.51	56.0626	1,999.51	67.2734
2,069.82	81.9563	2,069.82	81.7546	2,069.82	81.8013	2,069.82	81.388	2,069.82	81.4139	2,069.82	80.7766	2,069.82	80.7795	2,069.82	79.9607	2,069.82	79.9793	2,069.82	78.9642	2,069.82	79.2445	2,069.82	78.0869	2,069.82	78.4071	2,069.82	76.8626	2,069.82	77.3929	2,069.82	74.8089	2,069.82	75.9664	2,069.82	72.4015	2,069.82	74.1367	2,069.82	71.0566	2,069.82	72.63	2,069.82	70.7473	2,069.82	70.6774	2,069.82	70.141	2,069.82	68.5565	2,069.82	66.8059	2,069.82	67.3383	2,069.82	70.1357	2,069.82	69.9114	2,069.82	69.7822	2,069.82	71.703	2,069.82	63.442	2,069.82	67.276	2,069.82	60.5141	2,069.82	59.4997	2,069.82	64.2884
2,143.07	81.4452	2,143.07	81.3169	2,143.07	81.2766	2,143.07	81.2404	2,143.07	81.0041	2,143.07	80.9237	2,143.07	80.5915	2,143.07	80.206	2,143.07	79.7657	2,143.07	79.1421	2,143.07	78.6659	2,143.07	78.2481	2,143.07	77.9198	2,143.07	77.1086	2,143.07	76.3406	2,143.07	75.8801	2,143.07	74.7274	2,143.07	74.0929	2,143.07	72.7812	2,143.07	71.7098	2,143.07	72.4597	2,143.07	70.9816	2,143.07	71.0131	2,143.07	70.1184	2,143.07	70.0313	2,143.07	68.9548	2,143.07	66.985	2,143.07	70.4056	2,143.07	67.7009	2,143.07	71.3895	2,143.07	70.2839	2,143.07	63.7665	2,143.07	68.3176	2,143.07	62.2985	2,143.07	54.8711	2,143.07	64.9807
2,219.24	80.9947	2,219.24	80.7229	2,219.24	80.8069	2,219.24	80.6459	2,219.24	80.6252	2,219.24	80.4998	2,219.24	80.5273	2,219.24	80.0484	2,219.24	80.1112	2,219.24	78.8003	2,219.24	79.0997	2,219.24	77.27	2,219.24	78.1715	2,219.24	76.1202	2,219.24	77.1973	2,219.24	74.5568	2,219.24	75.5665	2,219.24	73.166	2,219.24	73.4363	2,219.24	71.7595	2,219.24	71.9503	2,219.24	69.7465	2,219.24	71.0522	2,219.24	70.1095	2,219.24	70.53	2,219.24	67.2865	2,219.24	69.2178	2,219.24	69.495	2,219.24	67.7745	2,219.24	71.1197	2,219.24	70.5022	2,219.24	65.7661	2,219.24	68.2321	2,219.24	65.8747	2,219.24	62.3223	2,219.24	63.9998
2,296.88	81.3538	2,296.88	81.2808	2,296.88	81.347	2,296.88	80.9557	2,296.88	81.2312	2,296.88	80.6883	2,296.88	81.1169	2,296.88	80.2102	2,296.88	80.8953	2,296.88	79.3315	2,296.88	80.1718	2,296.88	77.5053	2,296.88	78.9151	2,296.88	76.0458	2,296.88	77.8301	2,296.88	74.4286	2,296.88	76.2569	2,296.88	72.3691	2,296.88	74.4574	2,296.88	71.3627	2,296.88	71.9872	2,296.88	68.7274	2,296.88	71.642	2,296.88	68.8807	2,296.88	69.6396	2,296.88	68.3668	2,296.88	69.9324	2,296.88	67.5627	2,296.88	67.936	2,296.88	67.0697	2,296.88	69.9089	2,296.88	65.381	2,296.88	69.2857	2,296.88	63.3148	2,296.88	65.9524	2,296.88	64.0061
2,378.91	80.9798	2,378.91	81.0325	2,378.91	80.9814	2,378.91	80.9206	2,378.91	80.8851	2,378.91	80.8508	2,378.91	80.6056	2,378.91	80.6124	2,378.91	80.3938	2,378.91	79.8148	2,378.91	79.6759	2,378.91	78.2545	2,378.91	78.3495	2,378.91	76.7616	2,378.91	76.4988	2,378.91	75.3009	2,378.91	75.6338	2,378.91	73.1223	2,378.91	73.8003	2,378.91	71.3806	2,378.91	70.8507	2,378.91	69.4649	2,378.91	69.3844	2,378.91	68.8968	2,378.91	68.9215	2,378.91	68.7907	2,378.91	69.6163	2,378.91	67.375	2,378.91	66.1288	2,378.91	69.1156	2,378.91	67.9204	2,378.91	65.0993	2,378.91	67.3263	2,378.91	65.2895	2,378.91	63.3086	2,378.91	67.5648
2,462.4	80.3674	2,462.4	80.563	2,462.4	80.1568	2,462.4	80.6593	2,462.4	80.3677	2,462.4	80.4423	2,462.4	80.3641	2,462.4	80.0945	2,462.4	79.9321	2,462.4	79.6939	2,462.4	79.4316	2,462.4	78.4878	2,462.4	78.5256	2,462.4	76.8531	2,462.4	76.5116	2,462.4	75.0118	2,462.4	74.7506	2,462.4	73.6595	2,462.4	73.6301	2,462.4	71.6144	2,462.4	71.1529	2,462.4	69.3951	2,462.4	69.3735	2,462.4	69.7762	2,462.4	68.3792	2,462.4	70.0659	2,462.4	68.9858	2,462.4	68.1869	2,462.4	67.3201	2,462.4	69.0566	2,462.4	65.5995	2,462.4	65.6637	2,462.4	67.0394	2,462.4	64.1633	2,462.4	64.8878	2,462.4	67.0684
2,548.83	80.51	2,548.83	80.6839	2,548.83	80.5732	2,548.83	80.9309	2,548.83	80.962	2,548.83	80.9019	2,548.83	81.2152	2,548.83	80.0502	2,548.83	80.9104	2,548.83	79.2271	2,548.83	80.1558	2,548.83	78.1732	2,548.83	79.1455	2,548.83	75.6123	2,548.83	77.3674	2,548.83	74.1982	2,548.83	75.5011	2,548.83	72.2307	2,548.83	73.9756	2,548.83	70.7307	2,548.83	72.4146	2,548.83	69.0125	2,548.83	70.3229	2,548.83	68.2744	2,548.83	69.3945	2,548.83	69.747	2,548.83	69.4231	2,548.83	67.793	2,548.83	69.3451	2,548.83	68.6744	2,548.83	69.337	2,548.83	63.7483	2,548.83	68.4101	2,548.83	64.0393	2,548.83	63.6907	2,548.83	67.1241
2,639.65	79.9722	2,639.65	80.327	2,639.65	80.2118	2,639.65	80.6936	2,639.65	80.4446	2,639.65	80.9435	2,639.65	80.8252	2,639.65	80.3525	2,639.65	80.4089	2,639.65	79.422	2,639.65	79.7014	2,639.65	78.3191	2,639.65	78.7858	2,639.65	76.3268	2,639.65	76.8938	2,639.65	74.0934	2,639.65	74.5705	2,639.65	71.9499	2,639.65	73.0349	2,639.65	69.7341	2,639.65	70.155	2,639.65	68.7567	2,639.65	70.0402	2,639.65	66.6064	2,639.65	68.3173	2,639.65	68.6479	2,639.65	68.5924	2,639.65	66.387	2,639.65	68.2737	2,639.65	68.4307	2,639.65	68.1147	2,639.65	66.2856	2,639.65	68.0172	2,639.65	65.1371	2,639.65	62.8399	2,639.65	66.405
2,731.93	79.2715	2,731.93	79.4079	2,731.93	79.3287	2,731.93	80.1265	2,731.93	79.5807	2,731.93	80.0975	2,731.93	80.115	2,731.93	79.9015	2,731.93	80.1116	2,731.93	78.7069	2,731.93	79.3869	2,731.93	77.1522	2,731.93	77.9942	2,731.93	75.5176	2,731.93	76.6798	2,731.93	73.4501	2,731.93	74.4436	2,731.93	71.4356	2,731.93	72.3288	2,731.93	68.6036	2,731.93	69.6137	2,731.93	67.9897	2,731.93	67.9119	2,731.93	66.328	2,731.93	64.9014	2,731.93	68.2185	2,731.93	67.2033	2,731.93	67.4216	2,731.93	67.6004	2,731.93	67.8314	2,731.93	66.7105	2,731.93	64.1108	2,731.93	67.4164	2,731.93	62.8539	2,731.93	60.0118	2,731.93	63.8528
2,828.61	79.7811	2,828.61	80.2339	2,828.61	79.9212	2,828.61	80.8846	2,828.61	80.6234	2,828.61	80.8543	2,828.61	81.0708	2,828.61	80.2267	2,828.61	80.9896	2,828.61	79.2934	2,828.61	80.1754	2,828.61	77.4313	2,828.61	78.719	2,828.61	75.4934	2,828.61	77.0181	2,828.61	73.6274	2,828.61	74.9524	2,828.61	71.6503	2,828.61	72.669	2,828.61	69.4079	2,828.61	70.8279	2,828.61	68.7218	2,828.61	68.941	2,828.61	65.6306	2,828.61	67.0074	2,828.61	67.3889	2,828.61	66.1354	2,828.61	66.4012	2,828.61	66.6309	2,828.61	68.2542	2,828.61	65.8863	2,828.61	65.9434	2,828.61	67.7489	2,828.61	63.6782	2,828.61	62.7876	2,828.61	65.3262
2,928.22	78.7711	2,928.22	79.7159	2,928.22	79.0736	2,928.22	80.2907	2,928.22	79.997	2,928.22	80.6727	2,928.22	80.6307	2,928.22	80.1331	2,928.22	80.5582	2,928.22	79.1595	2,928.22	79.6506	2,928.22	77.4909	2,928.22	78.1168	2,928.22	75.8656	2,928.22	76.5112	2,928.22	73.5337	2,928.22	74.4325	2,928.22	71.7866	2,928.22	71.5814	2,928.22	69.9047	2,928.22	70.1556	2,928.22	68.2393	2,928.22	67.8828	2,928.22	65.8508	2,928.22	67.5978	2,928.22	66.5669	2,928.22	64.0923	2,928.22	66.0602	2,928.22	66.0215	2,928.22	67.0205	2,928.22	65.8381	2,928.22	65.6888	2,928.22	67.6525	2,928.22	61.1939	2,928.22	61.499	2,928.22	64.3517
3,030.76	78.6314	3,030.76	79.1817	3,030.76	78.9033	3,030.76	79.9428	3,030.76	79.6288	3,030.76	80.3511	3,030.76	80.2765	3,030.76	80.0134	3,030.76	80.3103	3,030.76	78.7491	3,030.76	79.5616	3,030.76	76.8504	3,030.76	77.8477	3,030.76	74.8703	3,030.76	75.9279	3,030.76	72.6293	3,030.76	74.1412	3,030.76	70.7728	3,030.76	71.3895	3,030.76	68.2718	3,030.76	69.8028	3,030.76	67.0709	3,030.76	67.1175	3,030.76	65.5345	3,030.76	67.8347	3,030.76	65.4919	3,030.76	62.9875	3,030.76	65.5911	3,030.76	66.4666	3,030.76	66.401	3,030.76	64.9887	3,030.76	64.4266	3,030.76	66.8469	3,030.76	61.5537	3,030.76	61.7544	3,030.76	65.22
3,137.7	78.8945	3,137.7	79.4103	3,137.7	79.1682	3,137.7	80.3556	3,137.7	80.1309	3,137.7	80.7893	3,137.7	80.8068	3,137.7	80.2316	3,137.7	80.8009	3,137.7	79.2024	3,137.7	79.9881	3,137.7	77.3267	3,137.7	78.4514	3,137.7	75.2721	3,137.7	76.2799	3,137.7	73.0012	3,137.7	74.4212	3,137.7	70.549	3,137.7	72.3875	3,137.7	68.955	3,137.7	70.0218	3,137.7	65.8719	3,137.7	67.6373	3,137.7	65.7446	3,137.7	66.8639	3,137.7	63.8321	3,137.7	64.239	3,137.7	65.448	3,137.7	66.7718	3,137.7	66.4239	3,137.7	65.9385	3,137.7	65.3165	3,137.7	67.5358	3,137.7	61.3561	3,137.7	61.3202	3,137.7	63.756
3,249.02	79.1498	3,249.02	79.3205	3,249.02	79.3298	3,249.02	80.387	3,249.02	79.9695	3,249.02	80.8079	3,249.02	80.7544	3,249.02	80.4976	3,249.02	80.6829	3,249.02	78.6405	3,249.02	79.8403	3,249.02	76.8366	3,249.02	78.1928	3,249.02	74.7066	3,249.02	76.1022	3,249.02	72.6426	3,249.02	74.317	3,249.02	70.8852	3,249.02	72.2772	3,249.02	67.8022	3,249.02	69.7675	3,249.02	66.8245	3,249.02	67.1588	3,249.02	66.4625	3,249.02	66.8568	3,249.02	64.2391	3,249.02	62.9114	3,249.02	65.0168	3,249.02	65.2239	3,249.02	65.8849	3,249.02	65.2822	3,249.02	66.2779	3,249.02	67.1551	3,249.02	59.2314	3,249.02	61.0495	3,249.02	62.9386
3,363.28	79.0872	3,363.28	79.6253	3,363.28	79.1959	3,363.28	80.2727	3,363.28	80.0948	3,363.28	80.5217	3,363.28	80.3656	3,363.28	79.6608	3,363.28	80.3649	3,363.28	78.7321	3,363.28	79.2693	3,363.28	76.6177	3,363.28	77.7076	3,363.28	74.5693	3,363.28	75.6767	3,363.28	72.6869	3,363.28	73.8918	3,363.28	70.0313	3,363.28	71.8183	3,363.28	67.961	3,363.28	69.5525	3,363.28	65.6701	3,363.28	67.0577	3,363.28	66.6741	3,363.28	65.5947	3,363.28	61.7687	3,363.28	63.8698	3,363.28	65.6462	3,363.28	64.9252	3,363.28	64.7466	3,363.28	63.2195	3,363.28	65.0584	3,363.28	66.3472	3,363.28	58.2809	3,363.28	60.7645	3,363.28	62.5896
3,481.93	79.701	3,481.93	80.1629	3,481.93	79.7427	3,481.93	80.574	3,481.93	80.7714	3,481.93	80.7538	3,481.93	81.0455	3,481.93	79.4486	3,481.93	80.9285	3,481.93	78.4734	3,481.93	79.7629	3,481.93	77.2552	3,481.93	78.2736	3,481.93	74.9498	3,481.93	76.2684	3,481.93	72.5947	3,481.93	74.0196	3,481.93	70.0958	3,481.93	71.6721	3,481.93	68.7665	3,481.93	69.4221	3,481.93	66.1078	3,481.93	68.0847	3,481.93	65.8261	3,481.93	66.4166	3,481.93	63.6189	3,481.93	66.308	3,481.93	64.3038	3,481.93	65.0899	3,481.93	64.5645	3,481.93	63.6754	3,481.93	66.3451	3,481.93	67.0201	3,481.93	58.6718	3,481.93	60.5091	3,481.93	63.9315
3,604.98	79.6904	3,604.98	79.8284	3,604.98	79.8342	3,604.98	80.4966	3,604.98	80.0347	3,604.98	80.1939	3,604.98	80.5346	3,604.98	79.8783	3,604.98	80.0389	3,604.98	78.0111	3,604.98	79.2504	3,604.98	76.55	3,604.98	77.5682	3,604.98	73.8493	3,604.98	75.8703	3,604.98	72.0418	3,604.98	73.451	3,604.98	70.9712	3,604.98	71.1934	3,604.98	68.5825	3,604.98	69.7849	3,604.98	67.2764	3,604.98	65.3362	3,604.98	65.7672	3,604.98	66.9082	3,604.98	64.6331	3,604.98	64.0169	3,604.98	64.6555	3,604.98	62.3035	3,604.98	65.0559	3,604.98	63.9344	3,604.98	67.133	3,604.98	66.7318	3,604.98	54.7816	3,604.98	60.3721	3,604.98	61.1422
3,732.42	79.8846	3,732.42	80.1057	3,732.42	80.0239	3,732.42	80.2684	3,732.42	80.1769	3,732.42	79.9768	3,732.42	80.6255	3,732.42	79.7143	3,732.42	80.0753	3,732.42	78.4571	3,732.42	79.3308	3,732.42	76.4039	3,732.42	77.7931	3,732.42	74.9406	3,732.42	75.792	3,732.42	72.9233	3,732.42	74.1457	3,732.42	70.2596	3,732.42	72.141	3,732.42	68.4296	3,732.42	69.8618	3,732.42	65.326	3,732.42	67.9556	3,732.42	64.7605	3,732.42	65.4343	3,732.42	62.0871	3,732.42	63.5366	3,732.42	62.1634	3,732.42	65.2331	3,732.42	65.0628	3,732.42	64.1507	3,732.42	66.8288	3,732.42	66.9093	3,732.42	54.7486	3,732.42	61.9073	3,732.42	57.9657
3,864.26	80.2857	3,864.26	80.5733	3,864.26	80.0965	3,864.26	80.3801	3,864.26	80.4646	3,864.26	80.5947	3,864.26	80.4807	3,864.26	79.6052	3,864.26	80.4396	3,864.26	78.972	3,864.26	78.9749	3,864.26	77.3037	3,864.26	77.5899	3,864.26	76.1282	3,864.26	75.7619	3,864.26	73.0515	3,864.26	73.0845	3,864.26	70.7061	3,864.26	71.5828	3,864.26	69.1171	3,864.26	68.5967	3,864.26	65.0424	3,864.26	67.5688	3,864.26	66.0814	3,864.26	65.9334	3,864.26	62.3495	3,864.26	65.4558	3,864.26	64.5742	3,864.26	64.6307	3,864.26	63.6026	3,864.26	62.3625	3,864.26	66.825	3,864.26	68.1563	3,864.26	54.9231	3,864.26	64.3116	3,864.26	60.3514
4,000.49	80.067	4,000.49	79.4951	4,000.49	79.9372	4,000.49	80.4673	4,000.49	79.8582	4,000.49	80.5607	4,000.49	80.0063	4,000.49	79.1847	4,000.49	79.6439	4,000.49	77.5169	4,000.49	79.1971	4,000.49	77.6995	4,000.49	77.8356	4,000.49	74.9591	4,000.49	75.5703	4,000.49	72.279	4,000.49	74.2923	4,000.49	70.7194	4,000.49	70.9759	4,000.49	67.309	4,000.49	69.7509	4,000.49	65.5625	4,000.49	67.4672	4,000.49	65.7998	4,000.49	65.5949	4,000.49	63.8782	4,000.49	62.6057	4,000.49	64.0237	4,000.49	62.0403	4,000.49	61.5871	4,000.49	63.3811	4,000.49	66.8401	4,000.49	64.7399	4,000.49	56.5418	4,000.49	64.808	4,000.49	56.6092
4,141.11	79.6146	4,141.11	79.763	4,141.11	80.4695	4,141.11	79.0063	4,141.11	79.7347	4,141.11	78.8363	4,141.11	80.0082	4,141.11	79.4252	4,141.11	79.8254	4,141.11	79.0444	4,141.11	79.0907	4,141.11	75.6869	4,141.11	76.976	4,141.11	74.0546	4,141.11	76.1001	4,141.11	72.8937	4,141.11	73.2551	4,141.11	69.4829	4,141.11	70.9084	4,141.11	68.8747	4,141.11	67.8006	4,141.11	65.6966	4,141.11	67.3976	4,141.11	65.3784	4,141.11	64.0013	4,141.11	60.7585	4,141.11	62.3719	4,141.11	65.0579	4,141.11	62.6077	4,141.11	64.4513	4,141.11	62.481	4,141.11	66.7771	4,141.11	65.9868	4,141.11	60.0707	4,141.11	63.3387	4,141.11	56.0685
4,287.6	80.7195	4,287.6	80.7988	4,287.6	79.4455	4,287.6	79.8256	4,287.6	80.3133	4,287.6	80.0023	4,287.6	79.4305	4,287.6	79.4903	4,287.6	79.8189	4,287.6	78.9331	4,287.6	78.7538	4,287.6	77.4577	4,287.6	78.1731	4,287.6	75.8834	4,287.6	76.3028	4,287.6	72.4996	4,287.6	74.3892	4,287.6	71.0768	4,287.6	72.0457	4,287.6	68.0997	4,287.6	69.045	4,287.6	65.3536	4,287.6	66.9162	4,287.6	63.0847	4,287.6	66.1342	4,287.6	63.1032	4,287.6	62.961	4,287.6	64.8759	4,287.6	61.7695	4,287.6	61.8603	4,287.6	64.6122	4,287.6	67.3734	4,287.6	65.6738	4,287.6	56.3181	4,287.6	64.8707	4,287.6	56.5481
4,438.48	79.8966	4,438.48	77.7692	4,438.48	80.1264	4,438.48	78.8253	4,438.48	78.236	4,438.48	78.4139	4,438.48	78.605	4,438.48	77.7444	4,438.48	78.0232	4,438.48	76.4532	4,438.48	78.5394	4,438.48	77.1754	4,438.48	77.6541	4,438.48	74.5282	4,438.48	75.2361	4,438.48	72.9966	4,438.48	73.4468	4,438.48	69.9079	4,438.48	70.7724	4,438.48	67.4027	4,438.48	68.6221	4,438.48	66.3924	4,438.48	64.8365	4,438.48	65.6112	4,438.48	63.9149	4,438.48	65.8114	4,438.48	62.6368	4,438.48	63.1614	4,438.48	56.3798	4,438.48	62.1624	4,438.48	63.8507	4,438.48	66.8758	4,438.48	63.8832	4,438.48	57.8327	4,438.48	65.2625	4,438.48	46.4645
4,595.21	80.8893	4,595.21	80.251	4,595.21	80.905	4,595.21	78.0604	4,595.21	79.2927	4,595.21	78.2213	4,595.21	78.9416	4,595.21	78.5433	4,595.21	79.2154	4,595.21	79.4174	4,595.21	78.5375	4,595.21	76.765	4,595.21	77.0673	4,595.21	75.1696	4,595.21	76.3064	4,595.21	71.6035	4,595.21	74.0092	4,595.21	68.2681	4,595.21	72.2869	4,595.21	67.5087	4,595.21	69.4452	4,595.21	65.0154	4,595.21	66.6969	4,595.21	64.5244	4,595.21	65.5315	4,595.21	60.4789	4,595.21	63.3815	4,595.21	63.2556	4,595.21	58.919	4,595.21	62.6712	4,595.21	65.0481	4,595.21	66.2573	4,595.21	63.9787	4,595.21	59.7139	4,595.21	66.3382	4,595.21	56.5973
4,756.35	80.7204	4,756.35	79.5843	4,756.35	79.4778	4,756.35	78.3255	4,756.35	78.7026	4,756.35	78.1061	4,756.35	77.8609	4,756.35	79.4749	4,756.35	78.2107	4,756.35	78.0763	4,756.35	78.3155	4,756.35	77.3775	4,756.35	78.0477	4,756.35	74.8618	4,756.35	75.8053	4,756.35	72.6165	4,756.35	73.6003	4,756.35	71.7263	4,756.35	71.9212	4,756.35	68.6255	4,756.35	69.416	4,756.35	67.2321	4,756.35	67.0287	4,756.35	64.5875	4,756.35	64.7684	4,756.35	62.3359	4,756.35	63.8011	4,756.35	63.8302	4,756.35	62.5989	4,756.35	61.6085	4,756.35	64.2873	4,756.35	65.991	4,756.35	61.077	4,756.35	59.3489	4,756.35	66.3869	4,756.35	52.5648
4,924.8	80.717	4,924.8	78.6055	4,924.8	81.0684	4,924.8	77.2467	4,924.8	77.987	4,924.8	78.0419	4,924.8	77.3887	4,924.8	78.2426	4,924.8	78.2854	4,924.8	78.6713	4,924.8	79.1607	4,924.8	77.6594	4,924.8	78.4622	4,924.8	76.1341	4,924.8	77.1437	4,924.8	74.6507	4,924.8	73.9237	4,924.8	71.4701	4,924.8	71.2267	4,924.8	68.6751	4,924.8	69.2925	4,924.8	65.3719	4,924.8	67.9629	4,924.8	63.0648	4,924.8	64.7248	4,924.8	59.209	4,924.8	65.3463	4,924.8	60.1344	4,924.8	59.7495	4,924.8	64.1216	4,924.8	65.6806	4,924.8	66.0765	4,924.8	63.4537	4,924.8	60.5309	4,924.8	65.6577	4,924.8	55.325
5,097.66	79.7533	5,097.66	78.8286	5,097.66	78.3021	5,097.66	76.1952	5,097.66	77.7552	5,097.66	76.4498	5,097.66	77.7726	5,097.66	78.2586	5,097.66	79.1622	5,097.66	77.7756	5,097.66	79.3902	5,097.66	76.5989	5,097.66	77.748	5,097.66	75.1981	5,097.66	75.608	5,097.66	72.5741	5,097.66	74.1803	5,097.66	70.0778	5,097.66	71.4761	5,097.66	67.6529	5,097.66	69.0551	5,097.66	64.1182	5,097.66	65.7123	5,097.66	64.4734	5,097.66	66.5429	5,097.66	59.7068	5,097.66	61.639	5,097.66	62.8942	5,097.66	61.9615	5,097.66	64.4424	5,097.66	64.0976	5,097.66	64.2496	5,097.66	59.5026	5,097.66	57.1607	5,097.66	66.0394	5,097.66	56.7743
5,277.83	79.2387	5,277.83	77.5205	5,277.83	80.0728	5,277.83	77.1537	5,277.83	77.8241	5,277.83	77.7503	5,277.83	77.2791	5,277.83	78.7071	5,277.83	77.4936	5,277.83	78.4365	5,277.83	78.1874	5,277.83	76.9385	5,277.83	77.7953	5,277.83	74.7408	5,277.83	76.0231	5,277.83	72.7274	5,277.83	73.4552	5,277.83	69.9201	5,277.83	70.6497	5,277.83	66.6456	5,277.83	67.7739	5,277.83	65.3475	5,277.83	66.2634	5,277.83	64.017	5,277.83	64.3352	5,277.83	59.6228	5,277.83	62.7301	5,277.83	57.4397	5,277.83	59.265	5,277.83	62.0073	5,277.83	62.7563	5,277.83	64.8519	5,277.83	62.57	5,277.83	57.2748	5,277.83	63.1193	5,277.83	55.8981
5,463.87	81.2518	5,463.87	80.2826	5,463.87	80.187	5,463.87	78.4209	5,463.87	79.0127	5,463.87	77.1509	5,463.87	77.9244	5,463.87	77.6703	5,463.87	78.5016	5,463.87	77.433	5,463.87	78.3681	5,463.87	76.5503	5,463.87	76.7695	5,463.87	74.2025	5,463.87	75.533	5,463.87	71.371	5,463.87	72.9909	5,463.87	67.7783	5,463.87	70.6401	5,463.87	67.0713	5,463.87	67.3824	5,463.87	62.0783	5,463.87	64.3255	5,463.87	63.9227	5,463.87	64.7418	5,463.87	58.475	5,463.87	60.3265	5,463.87	60.2089	5,463.87	57.4467	5,463.87	62.6368	5,463.87	60.7355	5,463.87	63.4456	5,463.87	60.9515	5,463.87	56.7279	5,463.87	64.1751	5,463.87	53.5212
5,657.23	80.3105	5,657.23	79.2057	5,657.23	80.5703	5,657.23	77.7545	5,657.23	78.77	5,657.23	77.3168	5,657.23	77.958	5,657.23	77.6962	5,657.23	77.9688	5,657.23	77.4424	5,657.23	77.8814	5,657.23	76.622	5,657.23	77.6712	5,657.23	74.3519	5,657.23	75.6495	5,657.23	72.0609	5,657.23	73.868	5,657.23	70.5294	5,657.23	71.1985	5,657.23	67.66	5,657.23	68.4168	5,657.23	66.7859	5,657.23	66.6609	5,657.23	65.6172	5,657.23	65.5294	5,657.23	63.5013	5,657.23	61.983	5,657.23	62.8432	5,657.23	59.9557	5,657.23	62.6213	5,657.23	62.0585	5,657.23	64.9195	5,657.23	61.6027	5,657.23	54.5862	5,657.23	64.6397	5,657.23	53.9378
5,856.45	78.5789	5,856.45	78.2785	5,856.45	78.4322	5,856.45	76.9193	5,856.45	78.0704	5,856.45	76.4136	5,856.45	76.7765	5,856.45	77.2612	5,856.45	77.1083	5,856.45	77.3436	5,856.45	77.6084	5,856.45	76.4186	5,856.45	76.8871	5,856.45	74.7839	5,856.45	76.2574	5,856.45	72.6843	5,856.45	73.5081	5,856.45	70.5628	5,856.45	71.3004	5,856.45	67.8656	5,856.45	68.7506	5,856.45	64.1503	5,856.45	66.3673	5,856.45	62.325	5,856.45	63.001	5,856.45	59.9165	5,856.45	61.6049	5,856.45	59.3612	5,856.45	58.0874	5,856.45	61.2605	5,856.45	62.3139	5,856.45	63.7676	5,856.45	62.2551	5,856.45	55.6485	5,856.45	64.2893	5,856.45	51.9037
6,062.99	78.457	6,062.99	78.9606	6,062.99	78.8766	6,062.99	78.3455	6,062.99	78.4745	6,062.99	76.7921	6,062.99	77.259	6,062.99	76.7405	6,062.99	76.4446	6,062.99	77.0039	6,062.99	76.8686	6,062.99	76.3814	6,062.99	76.6477	6,062.99	74.8609	6,062.99	75.1351	6,062.99	72.5181	6,062.99	73.6249	6,062.99	68.7828	6,062.99	70.6008	6,062.99	65.5223	6,062.99	67.8735	6,062.99	64.6264	6,062.99	65.3847	6,062.99	60.8015	6,062.99	63.7285	6,062.99	57.3692	6,062.99	55.2117	6,062.99	59.3625	6,062.99	59.2414	6,062.99	62.4539	6,062.99	61.4065	6,062.99	61.5563	6,062.99	61.754	6,062.99	56.6653	6,062.99	62.4134	6,062.99	45.1228
6,276.86	79.4643	6,276.86	80.1442	6,276.86	79.5556	6,276.86	79.1421	6,276.86	79.4955	6,276.86	77.1897	6,276.86	77.6739	6,276.86	76.8801	6,276.86	76.7782	6,276.86	77.0713	6,276.86	77.1999	6,276.86	76.3539	6,276.86	76.959	6,276.86	74.4889	6,276.86	75.7225	6,276.86	71.8866	6,276.86	73.505	6,276.86	69.5076	6,276.86	70.9619	6,276.86	66.5962	6,276.86	68.0508	6,276.86	63.138	6,276.86	64.9703	6,276.86	61.8048	6,276.86	62.7926	6,276.86	57.6094	6,276.86	60.5265	6,276.86	58.4524	6,276.86	57.8406	6,276.86	62.054	6,276.86	60.0306	6,276.86	62.9353	6,276.86	60.5522	6,276.86	55.3049	6,276.86	63.192	6,276.86	43.2112
6,498.05	80.0063	6,498.05	80.4	6,498.05	80.2881	6,498.05	79.4098	6,498.05	80.1866	6,498.05	76.7363	6,498.05	78.5312	6,498.05	76.3967	6,498.05	76.77	6,498.05	76.6867	6,498.05	77.007	6,498.05	76.1905	6,498.05	77.2012	6,498.05	74.1137	6,498.05	75.7992	6,498.05	71.5664	6,498.05	73.3034	6,498.05	68.3037	6,498.05	70.2924	6,498.05	65.2899	6,498.05	67.4111	6,498.05	61.8775	6,498.05	64.1518	6,498.05	62.2221	6,498.05	63.7386	6,498.05	57.3355	6,498.05	57.1414	6,498.05	55.8055	6,498.05	59.1068	6,498.05	60.1853	6,498.05	59.0441	6,498.05	62.7458	6,498.05	60.9414	6,498.05	57.4734	6,498.05	61.5702	6,498.05	34.9068
6,726.56	80.3309	6,726.56	80.7215	6,726.56	80.489	6,726.56	79.4878	6,726.56	80.3291	6,726.56	77.6746	6,726.56	78.3449	6,726.56	76.9224	6,726.56	77.0523	6,726.56	76.6588	6,726.56	77.149	6,726.56	75.6073	6,726.56	76.308	6,726.56	73.191	6,726.56	74.4552	6,726.56	70.9858	6,726.56	72.4303	6,726.56	68.0375	6,726.56	69.9247	6,726.56	65.3187	6,726.56	66.9123	6,726.56	62.3152	6,726.56	63.431	6,726.56	59.7918	6,726.56	62.0793	6,726.56	57.3203	6,726.56	58.3744	6,726.56	56.7217	6,726.56	55.8676	6,726.56	61.6757	6,726.56	55.4712	6,726.56	62.0211	6,726.56	60.2776	6,726.56	56.593	6,726.56	61.2095	6,726.56	42.8644
6,963.87	81.0495	6,963.87	81.2137	6,963.87	81.1764	6,963.87	80.1762	6,963.87	80.8306	6,963.87	77.8282	6,963.87	79.1383	6,963.87	77.0405	6,963.87	77.0849	6,963.87	76.1278	6,963.87	76.3392	6,963.87	75.4649	6,963.87	76.1649	6,963.87	73.0168	6,963.87	74.2757	6,963.87	70.3728	6,963.87	71.5745	6,963.87	67.3083	6,963.87	68.4958	6,963.87	64.6409	6,963.87	65.4023	6,963.87	60.6882	6,963.87	63.0831	6,963.87	59.209	6,963.87	59.6421	6,963.87	56.5994	6,963.87	56.0532	6,963.87	56.9253	6,963.87	54.8699	6,963.87	59.228	6,963.87	55.3146	6,963.87	60.8225	6,963.87	60.1887	6,963.87	57.3256	6,963.87	58.8336	6,963.87	34.6262
7,209.96	81.3651	7,209.96	81.268	7,209.96	81.4599	7,209.96	80.4282	7,209.96	80.8051	7,209.96	78.3318	7,209.96	79.1144	7,209.96	76.7232	7,209.96	77.6522	7,209.96	75.3961	7,209.96	76.5707	7,209.96	73.9219	7,209.96	75.1775	7,209.96	71.9993	7,209.96	73.5435	7,209.96	69.6429	7,209.96	71.0838	7,209.96	66.3661	7,209.96	67.5978	7,209.96	63.3661	7,209.96	64.4144	7,209.96	61.512	7,209.96	61.1899	7,209.96	57.4465	7,209.96	58.4769	7,209.96	53.3132	7,209.96	56.6474	7,209.96	52.5193	7,209.96	50.9597	7,209.96	58.9044	7,209.96	52.0844	7,209.96	60.0971	7,209.96	60.6158	7,209.96	53.099	7,209.96	59.075	7,209.96	42.6182
7,464.84	81.4642	7,464.84	81.2787	7,464.84	81.3999	7,464.84	80.4513	7,464.84	80.9781	7,464.84	78.6589	7,464.84	79.5456	7,464.84	76.7554	7,464.84	77.5087	7,464.84	75.8301	7,464.84	75.8449	7,464.84	74.7462	7,464.84	75.2576	7,464.84	72.9649	7,464.84	73.6628	7,464.84	69.5474	7,464.84	70.6466	7,464.84	66.775	7,464.84	67.5496	7,464.84	63.7963	7,464.84	64.604	7,464.84	60.7167	7,464.84	62.2805	7,464.84	60.8687	7,464.84	58.9693	7,464.84	54.6623	7,464.84	54.7599	7,464.84	51.5114	7,464.84	48.6252	7,464.84	54.891	7,464.84	53.7822	7,464.84	59.1306	7,464.84	59.7519	7,464.84	55.3314	7,464.84	58.3704	7,464.84	36.3535
7,727.05	81.8538	7,727.05	81.473	7,727.05	81.7595	7,727.05	80.7019	7,727.05	80.9933	7,727.05	78.48	7,727.05	79.7279	7,727.05	76.9838	7,727.05	77.9781	7,727.05	75.7205	7,727.05	76.317	7,727.05	74.5117	7,727.05	75.4297	7,727.05	72.8117	7,727.05	73.6436	7,727.05	70.1519	7,727.05	70.8984	7,727.05	66.9141	7,727.05	68.172	7,727.05	64.5209	7,727.05	64.6515	7,727.05	60.9142	7,727.05	62.7207	7,727.05	57.3556	7,727.05	59.3044	7,727.05	54.2788	7,727.05	56.6903	7,727.05	49.536	7,727.05	52.4449	7,727.05	55.1676	7,727.05	48.6234	7,727.05	58.5638	7,727.05	59.1336	7,727.05	57.8722	7,727.05	58.004	7,727.05	41.9676
7,999.51	81.9609	7,999.51	81.4214	7,999.51	81.521	7,999.51	80.6476	7,999.51	80.8227	7,999.51	78.9739	7,999.51	79.7669	7,999.51	77.0586	7,999.51	78.191	7,999.51	76.0876	7,999.51	76.6668	7,999.51	74.8465	7,999.51	75.371	7,999.51	72.4019	7,999.51	73.5992	7,999.51	69.9352	7,999.51	71.099	7,999.51	66.2843	7,999.51	67.8726	7,999.51	63.6492	7,999.51	65.1363	7,999.51	59.9963	7,999.51	61.7135	7,999.51	57.0476	7,999.51	57.9073	7,999.51	52.2271	7,999.51	57.7785	7,999.51	50.7577	7,999.51	52.9977	7,999.51	53.4022	7,999.51	49.52	7,999.51	58.1356	7,999.51	58.4082	7,999.51	57.9757	7,999.51	58.4363	7,999.51	44.8305
8,282.23	81.6587	8,282.23	81.0117	8,282.23	81.1205	8,282.23	80.4909	8,282.23	80.5238	8,282.23	78.8011	8,282.23	79.8647	8,282.23	77.0262	8,282.23	78.085	8,282.23	75.809	8,282.23	76.3891	8,282.23	74.8491	8,282.23	75.5926	8,282.23	72.6536	8,282.23	73.7428	8,282.23	69.2906	8,282.23	70.7592	8,282.23	65.7392	8,282.23	66.9712	8,282.23	63.3092	8,282.23	63.0661	8,282.23	60.2968	8,282.23	60.4643	8,282.23	61.4113	8,282.23	59.6037	8,282.23	54.2136	8,282.23	54.8286	8,282.23	48.5579	8,282.23	50.9316	8,282.23	52.1515	8,282.23	46.8706	8,282.23	57.8	8,282.23	56.4157	8,282.23	56.4742	8,282.23	56.5004	8,282.23	43.0683
8,573.73	81.1124	8,573.73	80.5977	8,573.73	80.6168	8,573.73	80.2842	8,573.73	80.0334	8,573.73	78.5727	8,573.73	79.7351	8,573.73	76.3917	8,573.73	78.0132	8,573.73	75.4731	8,573.73	76.0381	8,573.73	74.6274	8,573.73	75.1273	8,573.73	72.5689	8,573.73	73.1953	8,573.73	69.1286	8,573.73	70.7061	8,573.73	65.4394	8,573.73	67.2759	8,573.73	63.4682	8,573.73	63.2755	8,573.73	60.2218	8,573.73	60.8776	8,573.73	58.3029	8,573.73	58.374	8,573.73	53.7627	8,573.73	55.1315	8,573.73	46.2619	8,573.73	49.0121	8,573.73	52.6442	8,573.73	47.2186	8,573.73	56.0746	8,573.73	56.8248	8,573.73	54.7891	8,573.73	54.3413	8,573.73	42.8891
8,876.95	80.8461	8,876.95	80.4554	8,876.95	80.355	8,876.95	80.1356	8,876.95	79.9592	8,876.95	78.3418	8,876.95	79.5692	8,876.95	76.024	8,876.95	77.6351	8,876.95	75.0431	8,876.95	75.6428	8,876.95	74.2206	8,876.95	74.4868	8,876.95	72.0766	8,876.95	72.7103	8,876.95	68.7282	8,876.95	69.4648	8,876.95	65.8623	8,876.95	66.5345	8,876.95	62.7519	8,876.95	63.4315	8,876.95	60.0006	8,876.95	61.3664	8,876.95	57.6324	8,876.95	56.8355	8,876.95	52.3651	8,876.95	56.5716	8,876.95	46.4359	8,876.95	52.2483	8,876.95	49.3749	8,876.95	51.5594	8,876.95	54.7506	8,876.95	56.7627	8,876.95	55.4845	8,876.95	54.5649	8,876.95	46.4361
9,188.96	80.5515	9,188.96	80.365	9,188.96	80.1987	9,188.96	80.0366	9,188.96	80.122	9,188.96	78.3381	9,188.96	79.4611	9,188.96	76.0638	9,188.96	77.4926	9,188.96	74.6961	9,188.96	75.4294	9,188.96	73.4466	9,188.96	74.1408	9,188.96	70.8576	9,188.96	71.9387	9,188.96	68.5448	9,188.96	69.2486	9,188.96	65.285	9,188.96	66.0186	9,188.96	62.2712	9,188.96	62.9165	9,188.96	58.5896	9,188.96	59.964	9,188.96	57.844	9,188.96	57.4097	9,188.96	52.9766	9,188.96	55.1957	9,188.96	44.3437	9,188.96	52.9576	9,188.96	48.8244	9,188.96	49.6634	9,188.96	53.9618	9,188.96	55.8617	9,188.96	55.1411	9,188.96	54.03	9,188.96	44.7002
9,514.16	79.9257	9,514.16	80.26	9,514.16	79.8708	9,514.16	80.0055	9,514.16	80.1522	9,514.16	78.4611	9,514.16	79.3055	9,514.16	76.1027	9,514.16	77.4027	9,514.16	74.3125	9,514.16	75.0736	9,514.16	72.9729	9,514.16	74.1862	9,514.16	70.9853	9,514.16	72.7522	9,514.16	67.9778	9,514.16	69.8326	9,514.16	64.5449	9,514.16	66.6369	9,514.16	62.0553	9,514.16	63.2596	9,514.16	59.052	9,514.16	58.9907	9,514.16	56.6587	9,514.16	57.6605	9,514.16	51.383	9,514.16	54.0498	9,514.16	48.1688	9,514.16	51.7882	9,514.16	45.6265	9,514.16	48.9239	9,514.16	53.8011	9,514.16	53.0033	9,514.16	53.4587	9,514.16	52.1317	9,514.16	41.7481
9,849.61	79.7455	9,849.61	80.3177	9,849.61	80.3178	9,849.61	79.8646	9,849.61	80.3018	9,849.61	78.4932	9,849.61	79.197	9,849.61	75.758	9,849.61	77.0724	9,849.61	73.8021	9,849.61	74.4992	9,849.61	72.548	9,849.61	73.8467	9,849.61	70.5327	9,849.61	72.5887	9,849.61	66.8863	9,849.61	69.4264	9,849.61	64.3266	9,849.61	66.1533	9,849.61	60.5182	9,849.61	62.0493	9,849.61	58.2684	9,849.61	59.4287	9,849.61	55.8847	9,849.61	56.8068	9,849.61	47.0284	9,849.61	52.6504	9,849.61	47.5554	9,849.61	50.8505	9,849.61	47.6921	9,849.61	45.4253	9,849.61	55.9507	9,849.61	53.9384	9,849.61	51.8133	9,849.61	50.9502	9,849.61	43.2896
10,196.8	80.1704	10,196.8	80.1763	10,196.8	81.0438	10,196.8	79.8475	10,196.8	80.4716	10,196.8	78.5872	10,196.8	78.8923	10,196.8	75.7062	10,196.8	76.7911	10,196.8	73.2232	10,196.8	74.3689	10,196.8	71.6995	10,196.8	73.232	10,196.8	69.2379	10,196.8	71.2764	10,196.8	66.141	10,196.8	67.7139	10,196.8	62.6266	10,196.8	63.6744	10,196.8	59.0788	10,196.8	60.1389	10,196.8	54.9154	10,196.8	58.3907	10,196.8	54.6999	10,196.8	54.4355	10,196.8	48.8616	10,196.8	54.2053	10,196.8	45.3918	10,196.8	51.7227	10,196.8	44.6422	10,196.8	44.6157	10,196.8	54.2698	10,196.8	53.4821	10,196.8	49.2612	10,196.8	49.7881	10,196.8	44.4645
10,555.7	80.7999	10,555.7	80.1847	10,555.7	81.4312	10,555.7	79.6628	10,555.7	80.417	10,555.7	78.5646	10,555.7	78.5625	10,555.7	76.0545	10,555.7	76.6967	10,555.7	73.0606	10,555.7	74.4481	10,555.7	70.9607	10,555.7	72.7745	10,555.7	67.7956	10,555.7	70.0283	10,555.7	64.3465	10,555.7	64.9094	10,555.7	60.8771	10,555.7	60.9172	10,555.7	57.5477	10,555.7	57.6565	10,555.7	53.8718	10,555.7	54.3232	10,555.7	52.794	10,555.7	51.9886	10,555.7	50.1477	10,555.7	52.8142	10,555.7	43.1379	10,555.7	49.9062	10,555.7	42.1377	10,555.7	40.5165	10,555.7	52.0919	10,555.7	51.6649	10,555.7	46.185	10,555.7	48.8558	10,555.7	44.7167
10,927.7	81.3776	10,927.7	80.4709	10,927.7	81.5415	10,927.7	79.6638	10,927.7	80.4989	10,927.7	78.537	10,927.7	78.6737	10,927.7	75.8223	10,927.7	76.4332	10,927.7	72.8411	10,927.7	73.8217	10,927.7	70.7443	10,927.7	72.0003	10,927.7	67.6952	10,927.7	68.5842	10,927.7	63.1965	10,927.7	64.4396	10,927.7	59.9471	10,927.7	60.4126	10,927.7	55.6517	10,927.7	56.5262	10,927.7	52.6684	10,927.7	53.4358	10,927.7	52.7817	10,927.7	52.0325	10,927.7	46.9484	10,927.7	52.6513	10,927.7	48.192	10,927.7	49.5051	10,927.7	42.0579	10,927.7	33.0722	10,927.7	52.0916	10,927.7	48.6726	10,927.7	47.8725	10,927.7	49.5734	10,927.7	49.1853
11,313	81.7616	11,313	80.653	11,313	81.669	11,313	79.6544	11,313	80.3673	11,313	78.4022	11,313	78.5665	11,313	75.7802	11,313	76.3009	11,313	72.8349	11,313	72.9447	11,313	70.4344	11,313	70.8592	11,313	67.7406	11,313	67.9476	11,313	63.4615	11,313	65.742	11,313	59.4525	11,313	61.7868	11,313	56.7249	11,313	58.3376	11,313	54.7069	11,313	56.5219	11,313	52.4153	11,313	53.6636	11,313	49.6356	11,313	55.4917	11,313	50.0658	11,313	50.2854	11,313	43.3182	11,313	35.0776	11,313	51.0409	11,313	45.8177	11,313	50.2914	11,313	50.0946	11,313	49.2562
11,712.9	82.0053	11,712.9	80.9882	11,712.9	81.8541	11,712.9	79.5057	11,712.9	80.1687	11,712.9	77.943	11,712.9	78.2093	11,712.9	75.8236	11,712.9	76.2562	11,712.9	72.4421	11,712.9	72.2354	11,712.9	70.7918	11,712.9	70.2051	11,712.9	68.4191	11,712.9	68.6619	11,712.9	65.2339	11,712.9	66.5509	11,712.9	60.5276	11,712.9	62.4056	11,712.9	58.0244	11,712.9	58.4493	11,712.9	55.3871	11,712.9	56.3842	11,712.9	53.4949	11,712.9	54.8672	11,712.9	54.7427	11,712.9	55.2562	11,712.9	48.3973	11,712.9	51.1274	11,712.9	45.7019	11,712.9	34.8751	11,712.9	50.433	11,712.9	46.8345	11,712.9	52.149	11,712.9	51.5698	11,712.9	47.6466
12,126	82.0031	12,126	81.2552	12,126	81.5655	12,126	79.4536	12,126	80.1001	12,126	77.8104	12,126	78.3367	12,126	75.4465	12,126	76.1644	12,126	71.7486	12,126	71.3677	12,126	71.1847	12,126	70.2511	12,126	68.8851	12,126	69.5209	12,126	65.8196	12,126	67.1309	12,126	61.0738	12,126	63.5018	12,126	59.0324	12,126	59.1746	12,126	55.4678	12,126	56.2683	12,126	52.6037	12,126	54.825	12,126	51.5551	12,126	55.0263	12,126	52.0148	12,126	49.8125	12,126	45.965	12,126	44.236	12,126	50.9395	12,126	44.2528	12,126	51.6457	12,126	51.9239	12,126	49.183
12,553.7	81.7579	12,553.7	81.1661	12,553.7	81.2285	12,553.7	79.3061	12,553.7	80.1844	12,553.7	77.5459	12,553.7	78.499	12,553.7	74.4763	12,553.7	75.7693	12,553.7	71.5228	12,553.7	70.747	12,553.7	71.0319	12,553.7	70.1543	12,553.7	68.4786	12,553.7	69.4543	12,553.7	64.9104	12,553.7	66.9265	12,553.7	60.6826	12,553.7	64.2426	12,553.7	58.5846	12,553.7	59.513	12,553.7	54.7495	12,553.7	57.3112	12,553.7	50.9313	12,553.7	54.8161	12,553.7	52.138	12,553.7	53.3524	12,553.7	51.709	12,553.7	49.3552	12,553.7	46.7784	12,553.7	46.1907	12,553.7	51.6165	12,553.7	38.7204	12,553.7	50.581	12,553.7	54.7479	12,553.7	54.3248
12,996.1	81.1425	12,996.1	80.8094	12,996.1	80.6303	12,996.1	79.0353	12,996.1	79.9642	12,996.1	76.7015	12,996.1	77.9902	12,996.1	73.3554	12,996.1	74.992	12,996.1	70.9532	12,996.1	71.2113	12,996.1	69.9493	12,996.1	69.8939	12,996.1	67.5795	12,996.1	69.4614	12,996.1	64.6441	12,996.1	66.7001	12,996.1	60.7113	12,996.1	63.8896	12,996.1	58.01	12,996.1	59.6736	12,996.1	53.5587	12,996.1	56.8898	12,996.1	50.9431	12,996.1	53.2855	12,996.1	52.9994	12,996.1	53.1126	12,996.1	50.5149	12,996.1	49.7499	12,996.1	41.9855	12,996.1	46.0651	12,996.1	53.071	12,996.1	3.05095	12,996.1	49.2539	12,996.1	55.2259	12,996.1	55.513
13,454.6	80.5716	13,454.6	80.1245	13,454.6	80.1403	13,454.6	78.2905	13,454.6	79.5538	13,454.6	75.8665	13,454.6	77.2704	13,454.6	72.7376	13,454.6	74.1154	13,454.6	70.5196	13,454.6	71.2781	13,454.6	69.8473	13,454.6	69.8287	13,454.6	67.7367	13,454.6	69.7761	13,454.6	64.2288	13,454.6	66.4282	13,454.6	60.7935	13,454.6	63.6014	13,454.6	56.9231	13,454.6	59.2432	13,454.6	54.5211	13,454.6	56.5079	13,454.6	51.3239	13,454.6	51.0133	13,454.6	54.6055	13,454.6	50.9009	13,454.6	46.4012	13,454.6	47.6459	13,454.6	41.799	13,454.6	42.1764	13,454.6	52.3489	13,454.6	41.1103	13,454.6	50.9583	13,454.6	52.219	13,454.6	52.5475
13,929.2	80.3223	13,929.2	79.854	13,929.2	79.9756	13,929.2	77.7534	13,929.2	79.2911	13,929.2	75.3665	13,929.2	76.7247	13,929.2	72.9025	13,929.2	74.029	13,929.2	70.5376	13,929.2	71.8494	13,929.2	69.9746	13,929.2	70.2718	13,929.2	67.9939	13,929.2	69.7372	13,929.2	63.5671	13,929.2	66.2312	13,929.2	60.2038	13,929.2	62.4883	13,929.2	56.0327	13,929.2	57.9577	13,929.2	53.5111	13,929.2	55.3075	13,929.2	50.0099	13,929.2	51.6161	13,929.2	53.749	13,929.2	47.5078	13,929.2	48.995	13,929.2	46.8901	13,929.2	41.0958	13,929.2	32.189	13,929.2	54.5736	13,929.2	42.952	13,929.2	50.2648	13,929.2	42.2654	13,929.2	52.4565
14,419.9	80.2006	14,419.9	79.3918	14,419.9	79.753	14,419.9	77.24	14,419.9	78.6028	14,419.9	75.1959	14,419.9	75.9727	14,419.9	73.52	14,419.9	74.1979	14,419.9	70.9874	14,419.9	72.2986	14,419.9	69.9436	14,419.9	70.408	14,419.9	67.5638	14,419.9	68.7039	14,419.9	62.375	14,419.9	64.9817	14,419.9	59.1206	14,419.9	61.29	14,419.9	54.5269	14,419.9	56.8693	14,419.9	52.3799	14,419.9	53.0102	14,419.9	50.5511	14,419.9	49.1483	14,419.9	52.7899	14,419.9	44.9332	14,419.9	46.6475	14,419.9	41.7067	14,419.9	42.8699	14,419.9	40.8788	14,419.9	54.1743	14,419.9	40.7598	14,419.9	49.2133	14,419.9	41.304	14,419.9	50.8551
14,928.2	80.0521	14,928.2	78.9029	14,928.2	79.5431	14,928.2	76.678	14,928.2	78.0219	14,928.2	74.7265	14,928.2	75.1946	14,928.2	73.6216	14,928.2	74.3001	14,928.2	70.8338	14,928.2	71.8439	14,928.2	69.3729	14,928.2	69.2896	14,928.2	66.9775	14,928.2	67.3941	14,928.2	62.8456	14,928.2	65.4503	14,928.2	59.5112	14,928.2	60.5563	14,928.2	55.3755	14,928.2	57.58	14,928.2	52.2436	14,928.2	52.7748	14,928.2	51.1227	14,928.2	45.2622	14,928.2	52.1357	14,928.2	45.7181	14,928.2	49.856	14,928.2	42.3947	14,928.2	42.7161	14,928.2	40.4377	14,928.2	52.8886	14,928.2	46.7787	14,928.2	42.6453	14,928.2	39.5161	14,928.2	46.7092
15,455.6	79.8071	15,455.6	78.5751	15,455.6	79.3916	15,455.6	76.355	15,455.6	77.4981	15,455.6	74.9792	15,455.6	75.02	15,455.6	73.6192	15,455.6	73.9904	15,455.6	69.998	15,455.6	71.1722	15,455.6	68.6705	15,455.6	68.3153	15,455.6	67.1645	15,455.6	67.2329	15,455.6	63.8003	15,455.6	65.8511	15,455.6	59.4015	15,455.6	61.2403	15,455.6	55.6356	15,455.6	57.5336	15,455.6	52.0683	15,455.6	53.711	15,455.6	49.5996	15,455.6	46.2333	15,455.6	51.7913	15,455.6	42.218	15,455.6	48.5538	15,455.6	41.5365	15,455.6	44.1921	15,455.6	40.648	15,455.6	50.252	15,455.6	46.7083	15,455.6	46.8301	15,455.6	38.4683	15,455.6	48.244
16,000.5	79.9578	16,000.5	78.5	16,000.5	79.4814	16,000.5	76.5101	16,000.5	77.4885	16,000.5	74.5928	16,000.5	74.7054	16,000.5	72.7973	16,000.5	73.6885	16,000.5	69.3764	16,000.5	70.9724	16,000.5	68.4307	16,000.5	67.8605	16,000.5	67.1379	16,000.5	66.9432	16,000.5	64.0188	16,000.5	65.594	16,000.5	59.6185	16,000.5	60.7096	16,000.5	54.6732	16,000.5	58.1087	16,000.5	51.6631	16,000.5	52.5664	16,000.5	49.45	16,000.5	41.4294	16,000.5	50.5965	16,000.5	50.6577	16,000.5	46.7004	16,000.5	38.7657	16,000.5	41.0762	16,000.5	41.1168	16,000.5	39.5777	16,000.5	48.0473	16,000.5	50.6213	16,000.5	42.6855	16,000.5	56.2949
16,564.5	79.8174	16,564.5	78.6535	16,564.5	79.47	16,564.5	76.5887	16,564.5	77.5449	16,564.5	74.5558	16,564.5	75.0891	16,564.5	72.544	16,564.5	73.4072	16,564.5	68.9974	16,564.5	70.4204	16,564.5	68.4294	16,564.5	67.6333	16,564.5	67.238	16,564.5	67.1872	16,564.5	63.8056	16,564.5	65.5436	16,564.5	59.166	16,564.5	60.2478	16,564.5	54.2817	16,564.5	57.3903	16,564.5	50.945	16,564.5	51.6848	16,564.5	50.2472	16,564.5	44.3416	16,564.5	50.068	16,564.5	47.8623	16,564.5	47.5545	16,564.5	43.1587	16,564.5	35.6536	16,564.5	43.8927	16,564.5	48.9491	16,564.5	49.1129	16,564.5	53.2844	16,564.5	21.4199	16,564.5	53.8417
17,148.9	79.7959	17,148.9	78.5053	17,148.9	79.5046	17,148.9	76.3526	17,148.9	77.4132	17,148.9	73.8921	17,148.9	74.717	17,148.9	71.7279	17,148.9	72.444	17,148.9	69.3075	17,148.9	69.3889	17,148.9	68.7616	17,148.9	67.5348	17,148.9	67.3419	17,148.9	66.4741	17,148.9	63.7545	17,148.9	64.7404	17,148.9	59.1428	17,148.9	59.4611	17,148.9	52.5329	17,148.9	56.3124	17,148.9	50.8654	17,148.9	51.6042	17,148.9	49.4604	17,148.9	45.0198	17,148.9	47.9153	17,148.9	48.873	17,148.9	43.8171	17,148.9	42.0292	17,148.9	39.9737	17,148.9	43.2355	17,148.9	51.6063	17,148.9	47.8219	17,148.9	55.559	17,148.9	39.929	17,148.9	51.0135
17,752.4	79.974	17,752.4	78.6624	17,752.4	79.1906	17,752.4	76.3886	17,752.4	77.219	17,752.4	73.8165	17,752.4	74.7907	17,752.4	71.2231	17,752.4	71.6284	17,752.4	68.8808	17,752.4	69.1339	17,752.4	68.1135	17,752.4	68.361	17,752.4	66.8734	17,752.4	67.1621	17,752.4	62.8525	17,752.4	65.4962	17,752.4	57.6125	17,752.4	59.0959	17,752.4	53.6829	17,752.4	56.2236	17,752.4	50.6952	17,752.4	50.298	17,752.4	50.1332	17,752.4	48.1505	17,752.4	44.1204	17,752.4	47.4931	17,752.4	42.0823	17,752.4	43.9208	17,752.4	30.0135	17,752.4	38.4404	17,752.4	51.6568	17,752.4	49.2363	17,752.4	51.5335	17,752.4	41.7694	17,752.4	45.7299
18,379.4	78.933	18,379.4	78.3931	18,379.4	78.6627	18,379.4	76.3686	18,379.4	77.2245	18,379.4	73.7223	18,379.4	74.5002	18,379.4	71.2658	18,379.4	71.571	18,379.4	68.7886	18,379.4	69.7136	18,379.4	66.7893	18,379.4	67.5117	18,379.4	64.8051	18,379.4	64.8665	18,379.4	60.8207	18,379.4	62.4675	18,379.4	55.1047	18,379.4	56.4779	18,379.4	50.7572	18,379.4	53.8028	18,379.4	49.0652	18,379.4	47.113	18,379.4	47.9973	18,379.4	44.2974	18,379.4	42.9952	18,379.4	39.5166	18,379.4	42.6447	18,379.4	31.1313	18,379.4	28.4164	18,379.4	34.0262	18,379.4	47.8914	18,379.4	44.8889	18,379.4	46.8476	18,379.4	42.2777	18,379.4	35.9732
19,026.9	78.5652	19,026.9	78.2492	19,026.9	78.3227	19,026.9	76.2878	19,026.9	77.3937	19,026.9	73.4349	19,026.9	74.3325	19,026.9	71.1291	19,026.9	71.4669	19,026.9	68.541	19,026.9	69.4487	19,026.9	66.1909	19,026.9	66.5332	19,026.9	64.0129	19,026.9	63.4124	19,026.9	60.4612	19,026.9	62.0764	19,026.9	54.2716	19,026.9	56.0242	19,026.9	50.7884	19,026.9	53.299	19,026.9	48.6846	19,026.9	46.7581	19,026.9	44.8921	19,026.9	44.8126	19,026.9	40.4748	19,026.9	42.3519	19,026.9	41.4526	19,026.9	35.4878	19,026.9	28.7491	19,026.9	34.9526	19,026.9	45.5736	19,026.9	43.8314	19,026.9	45.7085	19,026.9	34.925	19,026.9	21.3291
19,697.8	78.0418	19,697.8	78.1345	19,697.8	78.0299	19,697.8	75.9691	19,697.8	77.0374	19,697.8	73.0879	19,697.8	73.9542	19,697.8	70.6959	19,697.8	71.4581	19,697.8	67.5189	19,697.8	69.0929	19,697.8	64.8635	19,697.8	65.1042	19,697.8	63.1741	19,697.8	62.1979	19,697.8	60.7217	19,697.8	60.9954	19,697.8	53.6452	19,697.8	55.8694	19,697.8	51.1371	19,697.8	52.1941	19,697.8	48.014	19,697.8	47.55	19,697.8	43.5419	19,697.8	44.8898	19,697.8	39.6284	19,697.8	43.2646	19,697.8	36.969	19,697.8	38.106	19,697.8	27.7522	19,697.8	37.5657	19,697.8	44.9543	19,697.8	44.1881	19,697.8	44.7496	19,697.8	31.7045	19,697.8	34.4266
19,999.5	78.2737	19,999.5	78.0202	19,999.5	77.9661	19,999.5	75.942	19,999.5	77.0089	19,999.5	72.6768	19,999.5	73.309	19,999.5	70.3105	19,999.5	71.7362	19,999.5	66.9593	19,999.5	68.9052	19,999.5	64.9506	19,999.5	64.6527	19,999.5	62.4391	19,999.5	61.8554	19,999.5	60.2961	19,999.5	59.8802	19,999.5	55.7511	19,999.5	56.226	19,999.5	50.671	19,999.5	54.3934	19,999.5	50.4733	19,999.5	47.5864	19,999.5	44.7855	19,999.5	42.1535	19,999.5	31.3211	19,999.5	50.9287	19,999.5	43.0509	19,999.5	35.7935	19,999.5	44.3223	19,999.5	38.5364	19,999.5	53.5857	19,999.5	42.9601	19,999.5	47.1776	19,999.5	42.4268	19,999.5	39.0952
