"SPL Horizontal"
"On-Axis"		"10°"		"-10°"		"20°"		"-20°"		"30°"		"-30°"		"40°"		"-40°"		"50°"		"-50°"		"60°"		"-60°"		"70°"		"-70°"		"80°"		"-80°"		"90°"		"-90°"		"100°"		"-100°"		"110°"		"-110°"		"120°"		"-120°"		"130°"		"-130°"		"140°"		"-140°"		"150°"		"-150°"		"160°"		"-160°"		"170°"		"-170°"		"180°"
"Frequency / Hz"	"Sound Pressure Level / dB (re 20 µPa/V)  [2.83  V @ 1. m]"	"Frequency / Hz"	"Sound Pressure Level / dB (re 20 µPa/V)  [2.83  V @ 1. m]"	"Frequency / Hz"	"Sound Pressure Level / dB (re 20 µPa/V)  [2.83  V @ 1. m]"	"Frequency / Hz"	"Sound Pressure Level / dB (re 20 µPa/V)  [2.83  V @ 1. m]"	"Frequency / Hz"	"Sound Pressure Level / dB (re 20 µPa/V)  [2.83  V @ 1. m]"	"Frequency / Hz"	"Sound Pressure Level / dB (re 20 µPa/V)  [2.83  V @ 1. m]"	"Frequency / Hz"	"Sound Pressure Level / dB (re 20 µPa/V)  [2.83  V @ 1. m]"	"Frequency / Hz"	"Sound Pressure Level / dB (re 20 µPa/V)  [2.83  V @ 1. m]"	"Frequency / Hz"	"Sound Pressure Level / dB (re 20 µPa/V)  [2.83  V @ 1. m]"	"Frequency / Hz"	"Sound Pressure Level / dB (re 20 µPa/V)  [2.83  V @ 1. m]"	"Frequency / Hz"	"Sound Pressure Level / dB (re 20 µPa/V)  [2.83  V @ 1. m]"	"Frequency / Hz"	"Sound Pressure Level / dB (re 20 µPa/V)  [2.83  V @ 1. m]"	"Frequency / Hz"	"Sound Pressure Level / dB (re 20 µPa/V)  [2.83  V @ 1. m]"	"Frequency / Hz"	"Sound Pressure Level / dB (re 20 µPa/V)  [2.83  V @ 1. m]"	"Frequency / Hz"	"Sound Pressure Level / dB (re 20 µPa/V)  [2.83  V @ 1. m]"	"Frequency / Hz"	"Sound Pressure Level / dB (re 20 µPa/V)  [2.83  V @ 1. m]"	"Frequency / Hz"	"Sound Pressure Level / dB (re 20 µPa/V)  [2.83  V @ 1. m]"	"Frequency / Hz"	"Sound Pressure Level / dB (re 20 µPa/V)  [2.83  V @ 1. m]"	"Frequency / Hz"	"Sound Pressure Level / dB (re 20 µPa/V)  [2.83  V @ 1. m]"	"Frequency / Hz"	"Sound Pressure Level / dB (re 20 µPa/V)  [2.83  V @ 1. m]"	"Frequency / Hz"	"Sound Pressure Level / dB (re 20 µPa/V)  [2.83  V @ 1. m]"	"Frequency / Hz"	"Sound Pressure Level / dB (re 20 µPa/V)  [2.83  V @ 1. m]"	"Frequency / Hz"	"Sound Pressure Level / dB (re 20 µPa/V)  [2.83  V @ 1. m]"	"Frequency / Hz"	"Sound Pressure Level / dB (re 20 µPa/V)  [2.83  V @ 1. m]"	"Frequency / Hz"	"Sound Pressure Level / dB (re 20 µPa/V)  [2.83  V @ 1. m]"	"Frequency / Hz"	"Sound Pressure Level / dB (re 20 µPa/V)  [2.83  V @ 1. m]"	"Frequency / Hz"	"Sound Pressure Level / dB (re 20 µPa/V)  [2.83  V @ 1. m]"	"Frequency / Hz"	"Sound Pressure Level / dB (re 20 µPa/V)  [2.83  V @ 1. m]"	"Frequency / Hz"	"Sound Pressure Level / dB (re 20 µPa/V)  [2.83  V @ 1. m]"	"Frequency / Hz"	"Sound Pressure Level / dB (re 20 µPa/V)  [2.83  V @ 1. m]"	"Frequency / Hz"	"Sound Pressure Level / dB (re 20 µPa/V)  [2.83  V @ 1. m]"	"Frequency / Hz"	"Sound Pressure Level / dB (re 20 µPa/V)  [2.83  V @ 1. m]"	"Frequency / Hz"	"Sound Pressure Level / dB (re 20 µPa/V)  [2.83  V @ 1. m]"	"Frequency / Hz"	"Sound Pressure Level / dB (re 20 µPa/V)  [2.83  V @ 1. m]"	"Frequency / Hz"	"Sound Pressure Level / dB (re 20 µPa/V)  [2.83  V @ 1. m]"	"Frequency / Hz"	"Sound Pressure Level / dB (re 20 µPa/V)  [2.83  V @ 1. m]"
20.5078	56.2154	20.5078	56.2394	20.5078	55.8993	20.5078	55.978	20.5078	55.2941	20.5078	55.4472	20.5078	54.4448	20.5078	54.7019	20.5078	53.5341	20.5078	53.9203	20.5078	53.0373	20.5078	53.5322	20.5078	53.5742	20.5078	54.0912	20.5078	55.1474	20.5078	55.6344	20.5078	57.1502	20.5078	57.6297	20.5078	59.1238	20.5078	59.6254	20.5078	60.8999	20.5078	61.4313	20.5078	62.4457	20.5078	62.9952	20.5078	63.7678	20.5078	64.3117	20.5078	64.8787	20.5078	65.3865	20.5078	65.7863	20.5078	66.2255	20.5078	66.4924	20.5078	66.8322	20.5078	66.9939	20.5078	67.2089	20.5078	67.2848	20.5078	67.3584
21.9727	59.8837	21.9727	59.8028	21.9727	59.8669	21.9727	59.6442	21.9727	59.7663	21.9727	59.4667	21.9727	59.634	21.9727	59.3762	21.9727	59.5646	21.9727	59.5152	21.9727	59.6863	21.9727	60.0088	21.9727	60.1138	21.9727	60.8818	21.9727	60.8808	21.9727	62.039	21.9727	61.9187	21.9727	63.3334	21.9727	63.1063	21.9727	64.6377	21.9727	64.3307	21.9727	65.868	21.9727	65.5126	21.9727	66.9754	21.9727	66.6028	21.9727	67.9323	21.9727	67.5714	21.9727	68.7223	21.9727	68.3989	21.9727	69.3347	21.9727	69.071	21.9727	69.7622	21.9727	69.5759	21.9727	70	21.9727	69.9037	21.9727	70.0466
23.4375	61.1639	23.4375	61.1028	23.4375	61.1263	23.4375	60.9543	23.4375	61.0089	23.4375	60.7633	23.4375	60.8638	23.4375	60.6168	23.4375	60.7827	23.4375	60.6444	23.4375	60.8876	23.4375	60.9813	23.4375	61.2884	23.4375	61.692	23.4375	62.0193	23.4375	62.7213	23.4375	63.0163	23.4375	63.9348	23.4375	64.1617	23.4375	65.1968	23.4375	65.3441	23.4375	66.4099	23.4375	66.4841	23.4375	67.5157	23.4375	67.5325	23.4375	68.4814	23.4375	68.4595	23.4375	69.2878	23.4375	69.2457	23.4375	69.9231	23.4375	69.8767	23.4375	70.379	23.4375	70.3408	23.4375	70.6498	23.4375	70.6285	23.4375	70.7328
24.9023	63.559	24.9023	63.5661	24.9023	63.5195	24.9023	63.5553	24.9023	63.4589	24.9023	63.5662	24.9023	63.4159	24.9023	63.6602	24.9023	63.4551	24.9023	63.9077	24.9023	63.6554	24.9023	64.3637	24.9023	64.0811	24.9023	65.0402	24.9023	64.749	24.9023	65.8987	24.9023	65.6172	24.9023	66.8695	24.9023	66.6079	24.9023	67.8779	24.9023	67.6399	24.9023	68.8621	24.9023	68.648	24.9023	69.7766	24.9023	69.5864	24.9023	70.5898	24.9023	70.4244	24.9023	71.2791	24.9023	71.1407	24.9023	71.8277	24.9023	71.7195	24.9023	72.223	24.9023	72.1485	24.9023	72.4559	24.9023	72.4179	24.9023	72.5213
26.3672	66.2714	26.3672	66.2539	26.3672	66.2826	26.3672	66.2418	26.3672	66.2898	26.3672	66.2608	26.3672	66.31	26.3672	66.3474	26.3672	66.3731	26.3672	66.5424	26.3672	66.5183	26.3672	66.8794	26.3672	66.7844	26.3672	67.3725	26.3672	67.1974	26.3672	68.0089	26.3672	67.7594	26.3672	68.7519	26.3672	68.4459	26.3672	69.5527	26.3672	69.2139	26.3672	70.361	26.3672	70.0139	26.3672	71.1331	26.3672	70.7992	26.3672	71.8334	26.3672	71.5303	26.3672	72.4341	26.3672	72.176	26.3672	72.9143	26.3672	72.7117	26.3672	73.2578	26.3672	73.1186	26.3672	73.4538	26.3672	73.383	26.3672	73.496
27.832	67.8359	27.832	67.8879	27.832	67.7684	27.832	67.9302	27.832	67.6936	27.832	67.9821	27.832	67.6349	27.832	68.0737	27.832	67.63	27.832	68.2419	27.832	67.7261	27.832	68.5216	27.832	67.9679	27.832	68.9347	27.832	68.3817	27.832	69.4808	27.832	68.9621	27.832	70.1363	27.832	69.6735	27.832	70.8612	27.832	70.4631	27.832	71.6098	27.832	71.2755	27.832	72.3386	27.832	72.0631	27.832	73.0103	27.832	72.7879	27.832	73.595	27.832	73.4212	27.832	74.0692	27.832	73.9407	27.832	74.4148	27.832	74.3299	27.832	74.619	27.832	74.5767	27.832	74.6738
29.2969	69.7065	29.2969	69.7179	29.2969	69.6945	29.2969	69.7349	29.2969	69.6857	29.2969	69.7738	29.2969	69.6939	29.2969	69.8587	29.2969	69.7423	29.2969	70.0181	29.2969	69.8603	29.2969	70.2788	29.2969	70.0778	29.2969	70.6573	29.2969	70.4166	29.2969	71.1528	29.2969	70.882	29.2969	71.746	29.2969	71.4591	29.2969	72.4035	29.2969	72.1157	29.2969	73.0856	29.2969	72.8108	29.2969	73.7529	29.2969	73.5023	29.2969	74.3709	29.2969	74.1525	29.2969	74.9104	29.2969	74.7302	29.2969	75.3484	29.2969	75.2102	29.2969	75.667	29.2969	75.5735	29.2969	75.8537	29.2969	75.8066	29.2969	75.901
30.7617	70.9032	30.7617	70.9274	30.7617	70.8829	30.7617	70.9596	30.7617	70.8711	30.7617	71.0123	30.7617	70.881	30.7617	71.1052	30.7617	70.9336	30.7617	71.2617	30.7617	71.0541	30.7617	71.5036	30.7617	71.2671	30.7617	71.8455	30.7617	71.5894	30.7617	72.2885	30.7617	72.0236	30.7617	72.819	30.7617	72.5558	30.7617	73.4112	30.7617	73.1583	30.7617	74.0318	30.7617	73.7959	30.7617	74.6459	30.7617	74.4322	30.7617	75.2207	30.7617	75.0335	30.7617	75.7271	30.7617	75.5706	30.7617	76.1412	30.7617	76.0193	30.7617	76.4441	30.7617	76.3605	30.7617	76.6224	30.7617	76.5798	30.7617	76.6683
32.2266	72.4187	32.2266	72.4415	32.2266	72.405	32.2266	72.4773	32.2266	72.4031	32.2266	72.5367	32.2266	72.4231	32.2266	72.6353	32.2266	72.4809	32.2266	72.7915	32.2266	72.5968	32.2266	73.0223	32.2266	72.7916	32.2266	73.3391	32.2266	73.0808	32.2266	73.7431	32.2266	73.4691	32.2266	74.2243	32.2266	73.9474	32.2266	74.7616	32.2266	74.4939	32.2266	75.3269	32.2266	75.0779	32.2266	75.889	32.2266	75.6657	32.2266	76.4177	32.2266	76.2249	32.2266	76.8855	32.2266	76.7269	32.2266	77.2693	32.2266	77.1478	32.2266	77.5508	32.2266	77.4685	32.2266	77.7166	32.2266	77.6751	32.2266	77.7589
33.6914	73.8295	33.6914	73.8501	33.6914	73.8268	33.6914	73.8914	33.6914	73.8445	33.6914	73.9612	33.6914	73.8903	33.6914	74.071	33.6914	73.9762	33.6914	74.2344	33.6914	74.1165	33.6914	74.4636	33.6914	74.3249	33.6914	74.7668	33.6914	74.611	33.6914	75.1444	33.6914	74.9768	33.6914	75.5877	33.6914	75.4145	33.6914	76.0795	33.6914	75.9072	33.6914	76.5964	33.6914	76.4309	33.6914	77.1114	33.6914	76.9585	33.6914	77.5977	33.6914	77.4622	33.6914	78.0302	33.6914	77.9163	33.6914	78.387	33.6914	78.2984	33.6914	78.6505	33.6914	78.5899	33.6914	78.8077	33.6914	78.7769	33.6914	78.8506
35.1562	75.236	35.1562	75.2555	35.1562	75.2381	35.1562	75.2992	35.1562	75.2634	35.1562	75.373	35.1562	75.3174	35.1562	75.4859	35.1562	75.4087	35.1562	75.6478	35.1562	75.5477	35.1562	75.8678	35.1562	75.7445	35.1562	76.1512	35.1562	76.0065	35.1562	76.4978	35.1562	76.3355	35.1562	76.9003	35.1562	76.7261	35.1562	77.3445	35.1562	77.1652	35.1562	77.8105	35.1562	77.6336	35.1562	78.2755	35.1562	78.1083	35.1562	78.7155	35.1562	78.5647	35.1562	79.1076	35.1562	78.9794	35.1562	79.4315	35.1562	79.3308	35.1562	79.6704	35.1562	79.601	35.1562	79.8116	35.1562	79.7762	35.1562	79.8476
36.6211	76.5754	36.6211	76.5931	36.6211	76.5784	36.6211	76.6334	36.6211	76.6033	36.6211	76.7009	36.6211	76.6542	36.6211	76.8024	36.6211	76.7375	36.6211	76.9458	36.6211	76.8614	36.6211	77.1382	36.6211	77.0339	36.6211	77.3845	36.6211	77.2612	36.6211	77.685	36.6211	77.5453	36.6211	78.0346	36.6211	77.8829	36.6211	78.4224	36.6211	78.2644	36.6211	78.8321	36.6211	78.6744	36.6211	79.2441	36.6211	79.0935	36.6211	79.6371	36.6211	79.5001	36.6211	79.9897	36.6211	79.8724	36.6211	80.2827	36.6211	80.19	36.6211	80.4996	36.6211	80.4356	36.6211	80.6282	36.6211	80.5955	36.6211	80.6608
38.0859	77.6837	38.0859	77.7017	38.0859	77.6877	38.0859	77.743	38.0859	77.7146	38.0859	77.811	38.0859	77.7674	38.0859	77.911	38.0859	77.851	38.0859	78.0488	38.0859	77.9715	38.0859	78.2296	38.0859	78.1348	38.0859	78.4568	38.0859	78.3455	38.0859	78.7307	38.0859	78.6053	38.0859	79.0471	38.0859	78.9114	38.0859	79.3971	38.0859	79.2561	38.0859	79.7673	38.0859	79.6267	38.0859	80.1408	38.0859	80.0067	38.0859	80.4989	38.0859	80.3768	38.0859	80.8222	38.0859	80.7173	38.0859	81.0921	38.0859	81.0092	38.0859	81.293	38.0859	81.2356	38.0859	81.4126	38.0859	81.3832	38.0859	81.4433
39.5508	78.7983	39.5508	78.8186	39.5508	78.8013	39.5508	78.863	39.5508	78.8282	39.5508	78.9339	39.5508	78.8814	39.5508	79.0348	39.5508	78.9644	39.5508	79.1698	39.5508	79.0815	39.5508	79.3424	39.5508	79.2369	39.5508	79.555	39.5508	79.4335	39.5508	79.8073	39.5508	79.6722	39.5508	80.0957	39.5508	79.9503	39.5508	80.4127	39.5508	80.2616	39.5508	80.7469	39.5508	80.5954	39.5508	81.0838	39.5508	80.938	39.5508	81.4067	39.5508	81.2729	39.5508	81.6982	39.5508	81.5824	39.5508	81.9413	39.5508	81.8492	39.5508	82.1216	39.5508	82.0575	39.5508	82.2277	39.5508	82.1948	39.5508	82.2527
41.0156	79.7148	41.0156	79.7249	41.0156	79.7263	41.0156	79.7576	41.0156	79.7595	41.0156	79.8151	41.0156	79.8156	41.0156	79.9001	41.0156	79.8967	41.0156	80.0159	41.0156	80.0055	41.0156	80.1655	41.0156	80.1449	41.0156	80.3508	41.0156	80.3174	41.0156	80.572	41.0156	80.5242	41.0156	80.8265	41.0156	80.7641	41.0156	81.1082	41.0156	81.033	41.0156	81.4076	41.0156	81.3229	41.0156	81.7118	41.0156	81.6224	41.0156	82.0054	41.0156	81.9172	41.0156	82.2721	41.0156	82.1914	41.0156	82.4959	41.0156	82.4289	41.0156	82.6628	41.0156	82.6149	41.0156	82.7621	41.0156	82.7371	41.0156	82.7874
42.4805	80.4512	42.4805	80.4712	42.4805	80.4535	42.4805	80.5141	42.4805	80.4785	42.4805	80.5814	42.4805	80.527	42.4805	80.6747	42.4805	80.6008	42.4805	80.7962	42.4805	80.702	42.4805	80.9476	42.4805	80.8327	42.4805	81.1299	42.4805	80.9947	42.4805	81.3424	42.4805	81.1885	42.4805	81.5823	42.4805	81.4128	42.4805	81.8439	42.4805	81.6638	42.4805	82.1186	42.4805	81.9345	42.4805	82.3951	42.4805	82.215	42.4805	82.6599	42.4805	82.4925	42.4805	82.8988	42.4805	82.7526	42.4805	83.0974	42.4805	82.9803	42.4805	83.2431	42.4805	83.1613	42.4805	83.3259	42.4805	83.2839	42.4805	83.34
43.9453	81.1576	43.9453	81.1784	43.9453	81.159	43.9453	81.2217	43.9453	81.1828	43.9453	81.2883	43.9453	81.2298	43.9453	81.3791	43.9453	81.3009	43.9453	81.4954	43.9453	81.3975	43.9453	81.6383	43.9453	81.521	43.9453	81.8081	43.9453	81.6722	43.9453	82.004	43.9453	81.8513	43.9453	82.2234	43.9453	82.057	43.9453	82.4614	43.9453	82.286	43.9453	82.7105	43.9453	82.5322	43.9453	82.9608	43.9453	82.7872	43.9453	83.2006	43.9453	83.0396	43.9453	83.417	43.9453	83.2768	43.9453	83.5972	43.9453	83.4849	43.9453	83.7293	43.9453	83.6509	43.9453	83.8042	43.9453	83.7639	43.9453	83.8161
45.4102	81.7965	45.4102	81.8187	45.4102	81.7971	45.4102	81.8637	45.4102	81.8206	45.4102	81.9317	45.4102	81.8675	45.4102	82.023	45.4102	81.9381	45.4102	82.1378	45.4102	82.033	45.4102	82.2765	45.4102	82.1526	45.4102	82.4387	45.4102	82.2972	45.4102	82.6231	45.4102	82.4662	45.4102	82.827	45.4102	82.6581	45.4102	83.0462	45.4102	82.8698	45.4102	83.2743	45.4102	83.0962	45.4102	83.5026	45.4102	83.3297	45.4102	83.721	45.4102	83.5608	45.4102	83.9179	45.4102	83.7781	45.4102	84.0815	45.4102	83.9694	45.4102	84.2011	45.4102	84.1226	45.4102	84.2681	45.4102	84.2277	45.4102	84.2773
46.875	82.4297	46.875	82.451	46.875	82.4303	46.875	82.4939	46.875	82.4528	46.875	82.5582	46.875	82.4975	46.875	82.6438	46.875	82.5642	46.875	82.7504	46.875	82.6531	46.875	82.8776	46.875	82.764	46.875	83.0247	46.875	82.8965	46.875	83.1903	46.875	83.0499	46.875	83.3723	46.875	83.2227	46.875	83.567	46.875	83.4121	46.875	83.7692	46.875	83.6139	46.875	83.9719	46.875	83.8218	46.875	84.1663	46.875	84.0275	46.875	84.3422	46.875	84.2211	46.875	84.489	46.875	84.3918	46.875	84.5968	46.875	84.5288	46.875	84.6577	46.875	84.6226	46.875	84.6666
48.3398	82.934	48.3398	82.9526	48.3398	82.936	48.3398	82.9916	48.3398	82.9587	48.3398	83.0505	48.3398	83.0019	48.3398	83.1289	48.3398	83.0655	48.3398	83.2265	48.3398	83.1492	48.3398	83.3424	48.3398	83.2523	48.3398	83.4759	48.3398	83.3742	48.3398	83.6256	48.3398	83.5141	48.3398	83.7894	48.3398	83.6703	48.3398	83.9643	48.3398	83.8405	48.3398	84.1457	48.3398	84.0211	48.3398	84.3276	48.3398	84.2068	48.3398	84.5024	48.3398	84.3903	48.3398	84.6611	48.3398	84.5631	48.3398	84.7942	48.3398	84.7153	48.3398	84.8926	48.3398	84.8373	48.3398	84.949	48.3398	84.9204	48.3398	84.9586
51.2695	83.6966	51.2695	83.7144	51.2695	83.6997	51.2695	83.7525	51.2695	83.7236	51.2695	83.8103	51.2695	83.7679	51.2695	83.8866	51.2695	83.8316	51.2695	83.9799	51.2695	83.9137	51.2695	84.0888	51.2695	84.0125	51.2695	84.2116	51.2695	84.1266	51.2695	84.3462	51.2695	84.254	51.2695	84.4905	51.2695	84.3928	51.2695	84.6417	51.2695	84.5407	51.2695	84.7961	51.2695	84.6946	51.2695	84.9491	51.2695	84.8504	51.2695	85.095	51.2695	85.003	51.2695	85.2268	51.2695	85.1459	51.2695	85.337	51.2695	85.2715	51.2695	85.4183	51.2695	85.3722	51.2695	85.4648	51.2695	85.4409	51.2695	85.4725
52.7344	84.0111	52.7344	84.0314	52.7344	84.0111	52.7344	84.0712	52.7344	84.0311	52.7344	84.1295	52.7344	84.0707	52.7344	84.205	52.7344	84.1289	52.7344	84.2958	52.7344	84.2041	52.7344	84.4001	52.7344	84.2946	52.7344	84.5158	52.7344	84.3983	52.7344	84.6409	52.7344	84.5133	52.7344	84.773	52.7344	84.6377	52.7344	84.9094	52.7344	84.7693	52.7344	85.047	52.7344	84.9059	52.7344	85.1815	52.7344	85.0443	52.7344	85.3082	52.7344	85.1804	52.7344	85.421	52.7344	85.3088	52.7344	85.5137	52.7344	85.4232	52.7344	85.5801	52.7344	85.5165	52.7344	85.6153	52.7344	85.5824	52.7344	85.6161
54.1992	84.3022	54.1992	84.3265	54.1992	84.2965	54.1992	84.3686	54.1992	84.3094	54.1992	84.4271	54.1992	84.3407	54.1992	84.5004	54.1992	84.3893	54.1992	84.5866	54.1992	84.4539	54.1992	84.6837	54.1992	84.5327	54.1992	84.7895	54.1992	84.6238	54.1992	84.902	54.1992	84.7253	54.1992	85.0189	54.1992	84.8354	54.1992	85.1379	54.1992	84.9522	54.1992	85.2562	54.1992	85.0738	54.1992	85.3706	54.1992	85.1974	54.1992	85.4771	54.1992	85.3195	54.1992	85.5709	54.1992	85.4354	54.1992	85.6469	54.1992	85.5394	54.1992	85.6999	54.1992	85.6253	54.1992	85.7258	54.1992	85.6876	54.1992	85.7217
55.6641	84.5579	55.6641	84.583	55.6641	84.5497	55.6641	84.6242	55.6641	84.5583	55.6641	84.6803	55.6641	84.5832	55.6641	84.7495	55.6641	84.6233	55.6641	84.8294	55.6641	84.6767	55.6641	84.9178	55.6641	84.7418	55.6641	85.012	55.6641	84.8165	55.6641	85.1097	55.6641	84.8992	55.6641	85.2083	55.6641	84.9885	55.6641	85.3058	55.6641	85.0832	55.6641	85.4	55.6641	85.1819	55.6641	85.4885	55.6641	85.283	55.6641	85.5689	55.6641	85.3837	55.6641	85.638	55.6641	85.4804	55.6641	85.6923	55.6641	85.5685	55.6641	85.7281	55.6641	85.6428	55.6641	85.7422	55.6641	85.6987	55.6641	85.7325
58.5938	85.0358	58.5938	85.0416	58.5938	85.0454	58.5938	85.0627	58.5938	85.07	58.5938	85.098	58.5938	85.1083	58.5938	85.1461	58.5938	85.1587	58.5938	85.2049	58.5938	85.2192	58.5938	85.272	58.5938	85.2874	58.5938	85.345	58.5938	85.361	58.5938	85.4215	58.5938	85.4379	58.5938	85.4994	58.5938	85.5161	58.5938	85.577	58.5938	85.5938	58.5938	85.6529	58.5938	85.6694	58.5938	85.7258	58.5938	85.7415	58.5938	85.7941	58.5938	85.8084	58.5938	85.8559	58.5938	85.868	58.5938	85.9087	58.5938	85.9181	58.5938	85.9497	58.5938	85.9561	58.5938	85.9762	58.5938	85.9794	58.5938	85.9864
60.0586	85.2888	60.0586	85.2954	60.0586	85.2958	60.0586	85.3154	60.0586	85.3162	60.0586	85.3477	60.0586	85.3489	60.0586	85.3909	60.0586	85.3924	60.0586	85.4429	60.0586	85.4449	60.0586	85.5016	60.0586	85.5042	60.0586	85.5644	60.0586	85.5677	60.0586	85.6292	60.0586	85.6333	60.0586	85.6939	60.0586	85.6989	60.0586	85.7569	60.0586	85.7626	60.0586	85.8172	60.0586	85.8232	60.0586	85.8738	60.0586	85.8795	60.0586	85.9258	60.0586	85.9306	60.0586	85.972	60.0586	85.9755	60.0586	86.0108	60.0586	86.013	60.0586	86.0405	60.0586	86.0416	60.0586	86.0591	60.0586	86.0595	60.0586	86.0656
62.9883	85.5531	62.9883	85.5614	62.9883	85.5586	62.9883	85.5831	62.9883	85.5776	62.9883	85.617	62.9883	85.6091	62.9883	85.6612	62.9883	85.6511	62.9883	85.7132	62.9883	85.7015	62.9883	85.7705	62.9883	85.7576	62.9883	85.8304	62.9883	85.8165	62.9883	85.8902	62.9883	85.8757	62.9883	85.9479	62.9883	85.933	62.9883	86.0018	62.9883	85.9865	62.9883	86.0509	62.9883	86.0352	62.9883	86.0946	62.9883	86.0787	62.9883	86.1326	62.9883	86.1169	62.9883	86.1645	62.9883	86.1498	62.9883	86.1899	62.9883	86.1773	62.9883	86.208	62.9883	86.1987	62.9883	86.2182	62.9883	86.2132	62.9883	86.2199
64.4531	85.6875	64.4531	85.7013	64.4531	85.6876	64.4531	85.7282	64.4531	85.7015	64.4531	85.7669	64.4531	85.7284	64.4531	85.8152	64.4531	85.7667	64.4531	85.8705	64.4531	85.8142	64.4531	85.93	64.4531	85.8681	64.4531	85.991	64.4531	85.9256	64.4531	86.0507	64.4531	85.9837	64.4531	86.107	64.4531	86.0401	64.4531	86.1581	64.4531	86.0927	64.4531	86.203	64.4531	86.1403	64.4531	86.2412	64.4531	86.1825	64.4531	86.2724	64.4531	86.2192	64.4531	86.2968	64.4531	86.2508	64.4531	86.3143	64.4531	86.2774	64.4531	86.325	64.4531	86.299	64.4531	86.3286	64.4531	86.3152	64.4531	86.3252
67.3828	85.8019	67.3828	85.8077	67.3828	85.8109	67.3828	85.8281	67.3828	85.8341	67.3828	85.8621	67.3828	85.8698	67.3828	85.9076	67.3828	85.9158	67.3828	85.9619	67.3828	85.9694	67.3828	86.0219	67.3828	86.0276	67.3828	86.084	67.3828	86.0874	67.3828	86.1449	67.3828	86.1459	67.3828	86.2018	67.3828	86.2008	67.3828	86.2524	67.3828	86.2502	67.3828	86.2954	67.3828	86.2931	67.3828	86.3305	67.3828	86.3291	67.3828	86.3582	67.3828	86.3582	67.3828	86.3796	67.3828	86.3809	67.3828	86.3956	67.3828	86.3977	67.3828	86.407	67.3828	86.4091	67.3828	86.4142	67.3828	86.4155	67.3828	86.4171
68.8477	85.897	68.8477	85.9001	68.8477	85.9102	68.8477	85.9192	68.8477	85.9387	68.8477	85.9533	68.8477	85.9808	68.8477	86.0003	68.8477	86.0339	68.8477	86.0572	68.8477	86.095	68.8477	86.1205	68.8477	86.1609	68.8477	86.1865	68.8477	86.228	68.8477	86.2516	68.8477	86.2933	68.8477	86.3124	68.8477	86.354	68.8477	86.3667	68.8477	86.4079	68.8477	86.4128	68.8477	86.4537	68.8477	86.4506	68.8477	86.4907	68.8477	86.4806	68.8477	86.5188	68.8477	86.5039	68.8477	86.5386	68.8477	86.522	68.8477	86.551	68.8477	86.5361	68.8477	86.557	68.8477	86.5467	68.8477	86.5577	68.8477	86.554
71.7773	86.0833	71.7773	86.0774	71.7773	86.1041	71.7773	86.0863	71.7773	86.1393	71.7773	86.1088	71.7773	86.187	71.7773	86.1428	71.7773	86.2449	71.7773	86.1855	71.7773	86.3096	71.7773	86.2336	71.7773	86.3774	71.7773	86.2836	71.7773	86.4443	71.7773	86.3318	71.7773	86.5065	71.7773	86.3755	71.7773	86.5605	71.7773	86.4124	71.7773	86.6034	71.7773	86.4417	71.7773	86.6336	71.7773	86.4636	71.7773	86.6502	71.7773	86.4796	71.7773	86.6537	71.7773	86.4922	71.7773	86.6457	71.7773	86.5041	71.7773	86.6288	71.7773	86.5179	71.7773	86.6061	71.7773	86.5353	71.7773	86.581	71.7773	86.5567
74.707	86.3135	74.707	86.3113	74.707	86.3293	74.707	86.3223	74.707	86.358	74.707	86.3454	74.707	86.3979	74.707	86.3783	74.707	86.4468	74.707	86.4184	74.707	86.5014	74.707	86.462	74.707	86.558	74.707	86.5055	74.707	86.6125	74.707	86.5453	74.707	86.6609	74.707	86.5783	74.707	86.6996	74.707	86.602	74.707	86.7258	74.707	86.6155	74.707	86.738	74.707	86.6191	74.707	86.7363	74.707	86.6148	74.707	86.7222	74.707	86.6057	74.707	86.6988	74.707	86.5957	74.707	86.6702	74.707	86.5891	74.707	86.6411	74.707	86.5891	74.707	86.6159	74.707	86.598
77.6367	86.5895	77.6367	86.5903	77.6367	86.5997	77.6367	86.6019	77.6367	86.6206	77.6367	86.623	77.6367	86.6511	77.6367	86.652	77.6367	86.6893	77.6367	86.6863	77.6367	86.7327	77.6367	86.7228	77.6367	86.7779	77.6367	86.758	77.6367	86.8213	77.6367	86.7884	77.6367	86.8587	77.6367	86.8107	77.6367	86.8865	77.6367	86.8224	77.6367	86.9017	77.6367	86.8223	77.6367	86.9024	77.6367	86.8107	77.6367	86.8888	77.6367	86.7899	77.6367	86.8626	77.6367	86.7638	77.6367	86.8276	77.6367	86.7375	77.6367	86.789	77.6367	86.7164	77.6367	86.7527	77.6367	86.7055	77.6367	86.7243	77.6367	86.7079
79.1016	86.6972	79.1016	86.7024	79.1016	86.6995	79.1016	86.7144	79.1016	86.7094	79.1016	86.7321	79.1016	86.7264	79.1016	86.7539	79.1016	86.7495	79.1016	86.7776	79.1016	86.7767	79.1016	86.8007	79.1016	86.8055	79.1016	86.8201	79.1016	86.8327	79.1016	86.8328	79.1016	86.8547	79.1016	86.8362	79.1016	86.8678	79.1016	86.8282	79.1016	86.869	79.1016	86.8081	79.1016	86.8563	79.1016	86.7766	79.1016	86.8296	79.1016	86.7367	79.1016	86.7908	79.1016	86.6928	79.1016	86.7439	79.1016	86.6512	79.1016	86.6948	79.1016	86.6182	79.1016	86.65	79.1016	86.5995	79.1016	86.6163	79.1016	86.5986
82.0312	86.6907	82.0312	86.6962	82.0312	86.6919	82.0312	86.7075	82.0312	86.6997	82.0312	86.7236	82.0312	86.7135	82.0312	86.7425	82.0312	86.732	82.0312	86.7619	82.0312	86.753	82.0312	86.7791	82.0312	86.7738	82.0312	86.7911	82.0312	86.7911	82.0312	86.795	82.0312	86.8013	82.0312	86.7884	82.0312	86.8011	82.0312	86.7695	82.0312	86.7881	82.0312	86.738	82.0312	86.761	82.0312	86.6951	82.0312	86.7203	82.0312	86.6437	82.0312	86.6689	82.0312	86.5886	82.0312	86.6117	82.0312	86.5361	82.0312	86.5551	82.0312	86.493	82.0312	86.5064	82.0312	86.4656	82.0312	86.4725	82.0312	86.4583
84.9609	86.7895	84.9609	86.8014	84.9609	86.7848	84.9609	86.8197	84.9609	86.7872	84.9609	86.8429	84.9609	86.7959	84.9609	86.8688	84.9609	86.8093	84.9609	86.8944	84.9609	86.8252	84.9609	86.9165	84.9609	86.8405	84.9609	86.9315	84.9609	86.8521	84.9609	86.936	84.9609	86.8566	84.9609	86.9275	84.9609	86.8512	84.9609	86.9045	84.9609	86.8338	84.9609	86.8671	84.9609	86.8038	84.9609	86.8171	84.9609	86.7624	84.9609	86.7582	84.9609	86.7126	84.9609	86.6958	84.9609	86.6593	84.9609	86.6363	84.9609	86.6088	84.9609	86.5863	84.9609	86.5678	84.9609	86.5516	84.9609	86.5422	84.9609	86.5364
87.8906	87.0123	87.8906	87.0507	87.8906	86.9765	87.8906	87.0905	87.8906	86.9437	87.8906	87.1304	87.8906	86.9143	87.8906	87.1683	87.8906	86.8881	87.8906	87.2017	87.8906	86.8644	87.8906	87.2271	87.8906	86.8421	87.8906	87.2411	87.8906	86.8193	87.8906	87.2396	87.8906	86.7938	87.8906	87.2194	87.8906	86.7632	87.8906	87.178	87.8906	86.7258	87.8906	87.1148	87.8906	86.6807	87.8906	87.0313	87.8906	86.629	87.8906	86.9318	87.8906	86.5741	87.8906	86.8231	87.8906	86.5214	87.8906	86.7141	87.8906	86.4782	87.8906	86.6145	87.8906	86.4524	87.8906	86.5334	87.8906	86.4508	87.8906	86.4776
90.8203	87.3365	90.8203	87.3466	90.8203	87.3275	90.8203	87.3581	90.8203	87.3188	90.8203	87.3704	90.8203	87.3091	90.8203	87.382	90.8203	87.2969	90.8203	87.3903	90.8203	87.2803	90.8203	87.3921	90.8203	87.2571	90.8203	87.3834	90.8203	87.2251	90.8203	87.3604	90.8203	87.1823	90.8203	87.3195	90.8203	87.127	90.8203	87.2588	90.8203	87.0585	90.8203	87.178	90.8203	86.9777	90.8203	87.0797	90.8203	86.8876	90.8203	86.9691	90.8203	86.7933	90.8203	86.8539	90.8203	86.7023	90.8203	86.7437	90.8203	86.6232	90.8203	86.6489	90.8203	86.5652	90.8203	86.5786	90.8203	86.5357	90.8203	86.5399
95.2148	86.8898	95.2148	86.892	95.2148	86.8938	95.2148	86.9	95.2148	86.9041	95.2148	86.913	95.2148	86.9206	95.2148	86.93	95.2148	86.9426	95.2148	86.9496	95.2148	86.9687	95.2148	86.9699	95.2148	86.9967	95.2148	86.9883	95.2148	87.0235	95.2148	87.002	95.2148	87.0457	95.2148	87.0083	95.2148	87.0596	95.2148	87.0048	95.2148	87.0619	95.2148	86.99	95.2148	87.0505	95.2148	86.964	95.2148	87.0247	95.2148	86.9286	95.2148	86.9861	95.2148	86.8879	95.2148	86.9385	95.2148	86.8475	95.2148	86.8881	95.2148	86.814	95.2148	86.8423	95.2148	86.7937	95.2148	86.8082	95.2148	86.7913
98.1445	87.1112	98.1445	87.1181	98.1445	87.1062	98.1445	87.1268	98.1445	87.103	98.1445	87.137	98.1445	87.1014	98.1445	87.1481	98.1445	87.1007	98.1445	87.1588	98.1445	87.1001	98.1445	87.1671	98.1445	87.098	98.1445	87.1703	98.1445	87.0923	98.1445	87.1654	98.1445	87.0807	98.1445	87.1497	98.1445	87.0611	98.1445	87.1208	98.1445	87.0317	98.1445	87.078	98.1445	86.9921	98.1445	87.0221	98.1445	86.9428	98.1445	86.9563	98.1445	86.8866	98.1445	86.8858	98.1445	86.8281	98.1445	86.8175	98.1445	86.7733	98.1445	86.7591	98.1445	86.7294	98.1445	86.7178	98.1445	86.7028	98.1445	86.6984
101.074	87.0225	101.074	87.0332	101.074	87.0127	101.074	87.0438	101.074	87.005	101.074	87.0532	101.074	87	101.074	87.0604	101.074	86.9977	101.074	87.0641	101.074	86.9974	101.074	87.0629	101.074	86.9973	101.074	87.0551	101.074	86.995	101.074	87.0386	101.074	86.9876	101.074	87.0119	101.074	86.9725	101.074	86.9739	101.074	86.9479	101.074	86.9249	101.074	86.9131	101.074	86.8671	101.074	86.8688	101.074	86.8044	101.074	86.8174	101.074	86.7421	101.074	86.7625	101.074	86.6868	101.074	86.7093	101.074	86.6442	101.074	86.6633	101.074	86.6194	101.074	86.6303	101.074	86.6148
105.469	87.468	105.469	87.4685	105.469	87.463	105.469	87.4641	105.469	87.4539	105.469	87.4549	105.469	87.4414	105.469	87.4406	105.469	87.4258	105.469	87.4206	105.469	87.4067	105.469	87.3936	105.469	87.3828	105.469	87.3574	105.469	87.3515	105.469	87.3094	105.469	87.3092	105.469	87.2465	105.469	87.2522	105.469	87.1667	105.469	87.1775	105.469	87.0695	105.469	87.084	105.469	86.9571	105.469	86.9736	105.469	86.8346	105.469	86.8514	105.469	86.7108	105.469	86.7262	105.469	86.5966	105.469	86.6094	105.469	86.5042	105.469	86.5133	105.469	86.4445	105.469	86.4492	105.469	86.4253
108.398	87.623	108.398	87.6142	108.398	87.6237	108.398	87.5977	108.398	87.6162	108.398	87.5743	108.398	87.6009	108.398	87.5445	108.398	87.5783	108.398	87.5088	108.398	87.5486	108.398	87.4669	108.398	87.5118	108.398	87.4177	108.398	87.4671	108.398	87.3597	108.398	87.4129	108.398	87.291	108.398	87.3473	108.398	87.21	108.398	87.2683	108.398	87.1165	108.398	87.175	108.398	87.0121	108.398	87.0683	108.398	86.9011	108.398	86.9521	108.398	86.7905	108.398	86.8334	108.398	86.6894	108.398	86.7224	108.398	86.6082	108.398	86.6303	108.398	86.5568	108.398	86.5678	108.398	86.5424
112.793	87.6459	112.793	87.6542	112.793	87.6253	112.793	87.6501	112.793	87.5933	112.793	87.634	112.793	87.5511	112.793	87.6065	112.793	87.5001	112.793	87.5682	112.793	87.4418	112.793	87.5193	112.793	87.3774	112.793	87.4597	112.793	87.3074	112.793	87.3887	112.793	87.2318	112.793	87.3058	112.793	87.1498	112.793	87.2108	112.793	87.0609	112.793	87.1046	112.793	86.9654	112.793	86.9898	112.793	86.8647	112.793	86.8709	112.793	86.7626	112.793	86.7545	112.793	86.6648	112.793	86.6485	112.793	86.579	112.793	86.5612	112.793	86.5135	112.793	86.5002	112.793	86.4759	112.793	86.471
117.188	87.7678	117.188	87.7662	117.188	87.7583	117.188	87.7536	117.188	87.7369	117.188	87.7301	117.188	87.7031	117.188	87.6953	117.188	87.6561	117.188	87.6483	117.188	87.5947	117.188	87.5874	117.188	87.518	117.188	87.5107	117.188	87.4252	117.188	87.4163	117.188	87.3159	117.188	87.3027	117.188	87.1904	117.188	87.1698	117.188	87.0504	117.188	87.0195	117.188	86.8992	117.188	86.8565	117.188	86.742	117.188	86.6884	117.188	86.5857	117.188	86.5254	117.188	86.4394	117.188	86.3791	117.188	86.3131	117.188	86.2613	117.188	86.2168	117.188	86.1817	117.188	86.1595	117.188	86.147
120.117	87.7248	120.117	87.7215	120.117	87.7204	120.117	87.7105	120.117	87.708	120.117	87.6917	120.117	87.6871	120.117	87.6645	120.117	87.6565	120.117	87.6277	120.117	87.6149	120.117	87.5793	120.117	87.5599	120.117	87.5168	120.117	87.489	120.117	87.4371	120.117	87.3997	120.117	87.3378	120.117	87.2903	120.117	87.2174	120.117	87.1606	120.117	87.0768	120.117	87.0131	120.117	86.9199	120.117	86.853	120.117	86.7539	120.117	86.6888	120.117	86.5897	120.117	86.5312	120.117	86.44	120.117	86.3927	120.117	86.3185	120.117	86.2855	120.117	86.2367	120.117	86.2198	120.117	86.2028
124.512	87.625	124.512	87.6166	124.512	87.6251	124.512	87.6	124.512	87.6176	124.512	87.5752	124.512	87.6032	124.512	87.5429	124.512	87.5825	124.512	87.5034	124.512	87.5554	124.512	87.4564	124.512	87.5212	124.512	87.4013	124.512	87.4782	124.512	87.3368	124.512	87.4238	124.512	87.2614	124.512	87.3555	124.512	87.1742	124.512	87.2717	124.512	87.0755	124.512	87.1725	124.512	86.968	124.512	87.0604	124.512	86.8565	124.512	86.9407	124.512	86.7485	124.512	86.8211	124.512	86.6531	124.512	86.7109	124.512	86.5797	124.512	86.6201	124.512	86.5364	124.512	86.5571	124.512	86.5284
128.906	87.6797	128.906	87.6766	128.906	87.6717	128.906	87.6621	128.906	87.6536	128.906	87.6364	128.906	87.6267	128.906	87.6002	128.906	87.5925	128.906	87.554	128.906	87.5519	128.906	87.4984	128.906	87.5054	128.906	87.4334	128.906	87.452	128.906	87.3586	128.906	87.3903	128.906	87.2735	128.906	87.3183	128.906	87.1781	128.906	87.2345	128.906	87.0736	128.906	87.1387	128.906	86.9629	128.906	87.0329	128.906	86.8512	128.906	86.9214	128.906	86.7453	128.906	86.8107	128.906	86.6537	128.906	86.7089	128.906	86.5844	128.906	86.6246	128.906	86.5445	128.906	86.5657	128.906	86.538
133.301	87.6981	133.301	87.7083	133.301	87.6751	133.301	87.7048	133.301	87.6403	133.301	87.6878	133.301	87.5958	133.301	87.6577	133.301	87.5436	133.301	87.6152	133.301	87.4855	133.301	87.5604	133.301	87.4227	133.301	87.4935	133.301	87.355	133.301	87.4138	133.301	87.2817	133.301	87.321	133.301	87.2011	133.301	87.2152	133.301	87.1116	133.301	87.0976	133.301	87.013	133.301	86.9715	133.301	86.9068	133.301	86.8427	133.301	86.7969	133.301	86.7189	133.301	86.6896	133.301	86.6093	133.301	86.593	133.301	86.5232	133.301	86.5157	133.301	86.4681	133.301	86.4656	133.301	86.4487
139.16	87.7084	139.16	87.7119	139.16	87.6875	139.16	87.6983	139.16	87.6497	139.16	87.669	139.16	87.5966	139.16	87.6256	139.16	87.5304	139.16	87.5697	139.16	87.4535	139.16	87.5025	139.16	87.368	139.16	87.4245	139.16	87.2755	139.16	87.3356	139.16	87.1765	139.16	87.2354	139.16	87.0709	139.16	87.124	139.16	86.9587	139.16	87.0022	139.16	86.8408	139.16	86.8726	139.16	86.7199	139.16	86.7395	139.16	86.6006	139.16	86.6096	139.16	86.4899	139.16	86.4912	139.16	86.396	139.16	86.3932	139.16	86.327	139.16	86.3235	139.16	86.2896	139.16	86.2881
143.555	87.6652	143.555	87.6591	143.555	87.6517	143.555	87.6342	143.555	87.619	143.555	87.5924	143.555	87.5689	143.555	87.5364	143.555	87.5041	143.555	87.4688	143.555	87.4276	143.555	87.3916	143.555	87.342	143.555	87.3056	143.555	87.2493	143.555	87.2109	143.555	87.1502	143.555	87.1069	143.555	87.0451	143.555	86.9936	143.555	86.9337	143.555	86.8719	143.555	86.8169	143.555	86.7448	143.555	86.6966	143.555	86.6173	143.555	86.5773	143.555	86.4962	143.555	86.465	143.555	86.3899	143.555	86.3671	143.555	86.3061	143.555	86.2914	143.555	86.2515	143.555	86.2444	143.555	86.2305
147.949	87.6519	147.949	87.6417	147.949	87.6398	147.949	87.6104	147.949	87.6059	147.949	87.5601	147.949	87.552	147.949	87.4939	147.949	87.4808	147.949	87.4149	147.949	87.3953	147.949	87.3258	147.949	87.2988	147.949	87.2281	147.949	87.1936	147.949	87.1223	147.949	87.0816	147.949	87.0081	147.949	86.9636	147.949	86.8854	147.949	86.8405	147.949	86.7552	147.949	86.7138	147.949	86.6208	147.949	86.586	147.949	86.4878	147.949	86.4616	147.949	86.3635	147.949	86.3463	147.949	86.2565	147.949	86.247	147.949	86.1744	147.949	86.1702	147.949	86.1229	147.949	86.1216	147.949	86.1052
153.809	87.6839	153.809	87.6747	153.809	87.6663	153.809	87.6398	153.809	87.6224	153.809	87.5814	153.809	87.5542	153.809	87.5032	153.809	87.4648	153.809	87.409	153.809	87.3579	153.809	87.303	153.809	87.2377	153.809	87.1882	153.809	87.1081	153.809	87.0669	153.809	86.9728	153.809	86.9403	153.809	86.835	153.809	86.8092	153.809	86.6972	153.809	86.6751	153.809	86.562	153.809	86.5406	153.809	86.4322	153.809	86.4101	153.809	86.3114	153.809	86.2891	153.809	86.2043	153.809	86.184	153.809	86.1165	153.809	86.1005	153.809	86.0533	153.809	86.0432	153.809	86.0189	153.809	86.0155
159.668	87.7771	159.668	87.7669	159.668	87.7613	159.668	87.7312	159.668	87.7199	159.668	87.6723	159.668	87.6551	159.668	87.5932	159.668	87.5697	159.668	87.4974	159.668	87.4672	159.668	87.3885	159.668	87.3511	159.668	87.2696	159.668	87.2245	159.668	87.1431	159.668	87.0903	159.668	87.0111	159.668	86.9511	159.668	86.8755	159.668	86.8098	159.668	86.7392	159.668	86.6704	159.668	86.6056	159.668	86.5377	159.668	86.4796	159.668	86.417	159.668	86.3665	159.668	86.3132	159.668	86.2714	159.668	86.2304	159.668	86.1989	159.668	86.1715	159.668	86.1517	159.668	86.1382	159.668	86.1314
165.527	87.6898	165.527	87.666	165.527	87.6861	165.527	87.616	165.527	87.6558	165.527	87.5432	165.527	87.6012	165.527	87.4527	165.527	87.5265	165.527	87.3501	165.527	87.4361	165.527	87.2412	165.527	87.3341	165.527	87.1308	165.527	87.2242	165.527	87.0219	165.527	87.1087	165.527	86.9162	165.527	86.9896	165.527	86.8144	165.527	86.8688	165.527	86.717	165.527	86.7491	165.527	86.6254	165.527	86.635	165.527	86.5417	165.527	86.532	165.527	86.4683	165.527	86.4456	165.527	86.4074	165.527	86.3798	165.527	86.3606	165.527	86.3365	165.527	86.3289	165.527	86.3149	165.527	86.3131
171.387	87.798	171.387	87.7731	171.387	87.7858	171.387	87.7111	171.387	87.7386	171.387	87.6146	171.387	87.6608	171.387	87.488	171.387	87.5584	171.387	87.3378	171.387	87.4382	171.387	87.1715	171.387	87.3073	171.387	86.9973	171.387	87.1714	171.387	86.8232	171.387	87.0344	171.387	86.6559	171.387	86.8985	171.387	86.5013	171.387	86.7647	171.387	86.364	171.387	86.6341	171.387	86.2479	171.387	86.5094	171.387	86.1561	171.387	86.394	171.387	86.0901	171.387	86.2922	171.387	86.0496	171.387	86.207	171.387	86.0324	171.387	86.1395	171.387	86.035	171.387	86.0891	171.387	86.0544
177.246	87.6074	177.246	87.61	177.246	87.5694	177.246	87.5766	177.246	87.4987	177.246	87.5084	177.246	87.4001	177.246	87.4078	177.246	87.2795	177.246	87.2785	177.246	87.144	177.246	87.1246	177.246	87.0003	177.246	86.951	177.246	86.8542	177.246	86.7633	177.246	86.7095	177.246	86.5681	177.246	86.5685	177.246	86.3733	177.246	86.432	177.246	86.1882	177.246	86.3008	177.246	86.023	177.246	86.1766	177.246	85.8867	177.246	86.0624	177.246	85.7859	177.246	85.9618	177.246	85.7225	177.246	85.877	177.246	85.6939	177.246	85.8084	177.246	85.6941	177.246	85.7549	177.246	85.7161
183.105	87.5736	183.105	87.5827	183.105	87.5214	183.105	87.5515	183.105	87.4262	183.105	87.4845	183.105	87.291	183.105	87.3879	183.105	87.1227	183.105	87.2682	183.105	86.9313	183.105	87.132	183.105	86.7294	183.105	86.9853	183.105	86.5301	183.105	86.8333	183.105	86.3451	183.105	86.6791	183.105	86.1821	183.105	86.5247	183.105	86.0444	183.105	86.3716	183.105	85.931	183.105	86.2218	183.105	85.8393	183.105	86.079	183.105	85.7665	183.105	85.9489	183.105	85.7108	183.105	85.8378	183.105	85.6716	183.105	85.7509	183.105	85.6486	183.105	85.6904	183.105	85.6425	183.105	85.6553
188.965	87.6704	188.965	87.651	188.965	87.6435	188.965	87.5886	188.965	87.5687	188.965	87.4886	188.965	87.4469	188.965	87.3571	188.965	87.2811	188.965	87.201	188.965	87.0771	188.965	87.0272	188.965	86.8439	188.965	86.8431	188.965	86.5936	188.965	86.6567	188.965	86.3413	188.965	86.4771	188.965	86.1035	188.965	86.3133	188.965	85.8957	188.965	86.1736	188.965	85.7303	188.965	86.0623	188.965	85.615	188.965	85.9791	188.965	85.5516	188.965	85.9184	188.965	85.536	188.965	85.8713	188.965	85.5589	188.965	85.8282	188.965	85.6072	188.965	85.7815	188.965	85.6671	188.965	85.7274
196.289	87.7229	196.289	87.6948	196.289	87.7023	196.289	87.6199	196.289	87.6335	196.289	87.5027	196.289	87.5191	196.289	87.35	196.289	87.3631	196.289	87.1695	196.289	87.1698	196.289	86.9688	196.289	86.9442	196.289	86.7547	196.289	86.6927	196.289	86.5336	196.289	86.4241	196.289	86.3122	196.289	86.1498	196.289	86.099	196.289	85.8846	196.289	85.9039	196.289	85.6443	196.289	85.7363	196.289	85.4441	196.289	85.6021	196.289	85.2954	196.289	85.5007	196.289	85.2031	196.289	85.4251	196.289	85.1649	196.289	85.3645	196.289	85.1706	196.289	85.3094	196.289	85.2057	196.289	85.2554
203.613	87.6414	203.613	87.5858	203.613	87.6423	203.613	87.4782	203.613	87.5883	203.613	87.3241	203.613	87.4817	203.613	87.1314	203.613	87.3266	203.613	86.9099	203.613	87.1287	203.613	86.6698	203.613	86.8948	203.613	86.421	203.613	86.6336	203.613	86.1728	203.613	86.3556	203.613	85.9341	203.613	86.0742	203.613	85.7143	203.613	85.8054	203.613	85.5242	203.613	85.5667	203.613	85.3741	203.613	85.3733	203.613	85.2705	203.613	85.2348	203.613	85.212	203.613	85.1522	203.613	85.1877	203.613	85.1181	203.613	85.1806	203.613	85.119	203.613	85.1745	203.613	85.1381	203.613	85.16
210.938	87.6052	210.938	87.5467	210.938	87.6161	210.938	87.4391	210.938	87.5824	210.938	87.2823	210.938	87.5075	210.938	87.0787	210.938	87.3953	210.938	86.833	210.938	87.2494	210.938	86.5529	210.938	87.073	210.938	86.2495	210.938	86.8692	210.938	85.9369	210.938	86.6416	210.938	85.6324	210.938	86.3953	210.938	85.3551	210.938	86.1386	210.938	85.1228	210.938	85.8834	210.938	84.9488	210.938	85.6447	210.938	84.8386	210.938	85.437	210.938	84.7883	210.938	85.2698	210.938	84.7862	210.938	85.144	210.938	84.8167	210.938	85.0518	210.938	84.8648	210.938	84.981	210.938	84.9204
218.262	87.4047	218.262	87.4017	218.262	87.3572	218.262	87.3452	218.262	87.2641	218.262	87.2353	218.262	87.1326	218.262	87.0742	218.262	86.971	218.262	86.8669	218.262	86.788	218.262	86.6203	218.262	86.5923	218.262	86.3434	218.262	86.392	218.262	86.0485	218.262	86.195	218.262	85.7525	218.262	86.0094	218.262	85.4768	218.262	85.8435	218.262	85.2458	218.262	85.705	218.262	85.0816	218.262	85.5983	218.262	84.9971	218.262	85.5231	218.262	84.9901	218.262	85.4734	218.262	85.0431	218.262	85.4388	218.262	85.1294	218.262	85.4063	218.262	85.2225	218.262	85.3641	218.262	85.3034
225.586	87.4954	225.586	87.5408	225.586	87.387	225.586	87.522	225.586	87.2188	225.586	87.4399	225.586	86.9963	225.586	87.2975	225.586	86.7281	225.586	87.0999	225.586	86.4257	225.586	86.8547	225.586	86.1042	225.586	86.5719	225.586	85.7824	225.586	86.2656	225.586	85.4815	225.586	85.9549	225.586	85.2247	225.586	85.6651	225.586	85.0339	225.586	85.4251	225.586	84.9256	225.586	85.2608	225.586	84.9052	225.586	85.1851	225.586	84.9631	225.586	85.1911	225.586	85.0746	225.586	85.2532	225.586	85.2064	225.586	85.3356	225.586	85.325	225.586	85.4035	225.586	85.4045	225.586	85.4308
232.91	87.5654	232.91	87.5516	232.91	87.5221	232.91	87.4852	232.91	87.4177	232.91	87.3701	232.91	87.2488	232.91	87.2089	232.91	87.0136	232.91	87.0034	232.91	86.7125	232.91	86.7556	232.91	86.3493	232.91	86.4685	232.91	85.9333	232.91	86.1493	232.91	85.4812	232.91	85.8118	232.91	85.0213	232.91	85.4789	232.91	84.595	232.91	85.181	232.91	84.2535	232.91	84.9502	232.91	84.0446	232.91	84.8087	232.91	83.9918	232.91	84.7563	232.91	84.079	232.91	84.7677	232.91	84.2563	232.91	84.7998	232.91	84.4613	232.91	84.808	232.91	84.6401	232.91	84.7591
241.699	87.3354	241.699	87.3004	241.699	87.3172	241.699	87.214	241.699	87.2462	241.699	87.0792	241.699	87.1243	241.699	86.9004	241.699	86.9543	241.699	86.6811	241.699	86.7379	241.699	86.4239	241.699	86.4754	241.699	86.13	241.699	86.165	241.699	85.8019	241.699	85.8059	241.699	85.4465	241.699	85.4025	241.699	85.0811	241.699	84.971	241.699	84.7347	241.699	84.5455	241.699	84.4448	241.699	84.1775	241.699	84.2437	241.699	83.9224	241.699	84.1429	241.699	83.8126	241.699	84.1237	241.699	83.8356	241.699	84.1452	241.699	83.9378	241.699	84.1605	241.699	84.0536	241.699	84.134
250.488	87.5874	250.488	87.5573	250.488	87.5478	250.488	87.4586	250.488	87.4399	250.488	87.2955	250.488	87.2674	250.488	87.074	250.488	87.0364	250.488	86.8015	250.488	86.7546	250.488	86.4856	250.488	86.4303	250.488	86.1337	250.488	86.0722	250.488	85.7533	250.488	85.6885	250.488	85.3537	250.488	85.289	250.488	84.9492	250.488	84.8887	250.488	84.5611	250.488	84.5105	250.488	84.2185	250.488	84.1851	250.488	83.9529	250.488	83.9418	250.488	83.786	250.488	83.7955	250.488	83.7161	250.488	83.7374	250.488	83.7153	250.488	83.7367	250.488	83.7417	250.488	83.7546	250.488	83.7598
259.277	87.4395	259.277	87.417	259.277	87.4009	259.277	87.3334	259.277	87.3023	259.277	87.1897	259.277	87.146	259.277	86.9883	259.277	86.9364	259.277	86.7331	259.277	86.6796	259.277	86.4298	259.277	86.3828	259.277	86.0857	259.277	86.0529	259.277	85.7111	259.277	85.6945	259.277	85.3211	259.277	85.3113	259.277	84.9375	259.277	84.9113	259.277	84.5875	259.277	84.5165	259.277	84.2981	259.277	84.1675	259.277	84.0874	259.277	83.9135	259.277	83.9596	259.277	83.7844	259.277	83.9037	259.277	83.7683	259.277	83.8966	259.277	83.8166	259.277	83.9075	259.277	83.8741	259.277	83.9062
268.066	87.2101	268.066	87.1497	268.066	87.2146	268.066	87.0353	268.066	87.1605	268.066	86.8696	268.066	87.0439	268.066	86.6554	268.066	86.8589	268.066	86.3956	268.066	86.5994	268.066	86.0924	268.066	86.2647	268.066	85.7469	268.066	85.8646	268.066	85.3619	268.066	85.4207	268.066	84.9486	268.066	84.9623	268.066	84.5361	268.066	84.5179	268.066	84.1736	268.066	84.1109	268.066	83.9119	268.066	83.7641	268.066	83.7714	268.066	83.5048	268.066	83.7246	268.066	83.3577	268.066	83.7164	268.066	83.3253	268.066	83.6995	268.066	83.3791	268.066	83.652	268.066	83.4744	268.066	83.5731
276.855	87.2856	276.855	87.261	276.855	87.23	276.855	87.1613	276.855	87.1009	276.855	86.997	276.855	86.9181	276.855	86.7782	276.855	86.7074	276.855	86.512	276.855	86.485	276.855	86.201	276.855	86.2428	276.855	85.8443	276.855	85.9486	276.855	85.4359	276.855	85.565	276.855	84.9676	276.855	85.0758	276.855	84.438	276.855	84.5064	276.855	83.8755	276.855	83.9286	276.855	83.3619	276.855	83.4415	276.855	83.0228	276.855	83.1312	276.855	82.9483	276.855	83.0296	276.855	83.1007	276.855	83.1046	276.855	83.3367	276.855	83.2785	276.855	83.5125	276.855	83.4568	276.855	83.5529
287.109	86.7207	287.109	86.7248	287.109	86.6868	287.109	86.7	287.109	86.6154	287.109	86.6419	287.109	86.4941	287.109	86.545	287.109	86.3158	287.109	86.4033	287.109	86.0881	287.109	86.2126	287.109	85.8329	287.109	85.972	287.109	85.5717	287.109	85.6848	287.109	85.3062	287.109	85.3564	287.109	85.0152	287.109	84.9914	287.109	84.675	287.109	84.5955	287.109	84.2873	287.109	84.1833	287.109	83.8935	287.109	83.7883	287.109	83.5631	287.109	83.4636	287.109	83.3555	287.109	83.2603	287.109	83.2777	287.109	83.1922	287.109	83.2799	287.109	83.2188	287.109	83.2922	287.109	83.2699
297.363	87.2607	297.363	87.2493	297.363	87.1828	297.363	87.1562	297.363	87.0189	297.363	87.0013	297.363	86.7764	297.363	86.8095	297.363	86.4575	297.363	86.5998	297.363	86.059	297.363	86.3735	297.363	85.584	297.363	86.1117	297.363	85.0545	297.363	85.7853	297.363	84.509	297.363	85.3761	297.363	83.9791	297.363	84.8978	297.363	83.4697	297.363	84.4033	297.363	82.9721	297.363	83.967	297.363	82.5067	297.363	83.6433	297.363	82.1463	297.363	83.4325	297.363	81.9783	297.363	83.2883	297.363	82.0286	297.363	83.1536	297.363	82.2369	297.363	82.9871	297.363	82.5085	297.363	82.7703
307.617	86.0045	307.617	85.8006	307.617	86.1128	307.617	85.5015	307.617	86.1443	307.617	85.1313	307.617	86.1317	307.617	84.7433	307.617	86.1118	307.617	84.4159	307.617	86.107	307.617	84.2271	307.617	86.1105	307.617	84.2082	307.617	86.0867	307.617	84.3108	307.617	85.9893	307.617	84.426	307.617	85.7774	307.617	84.4377	307.617	85.4237	307.617	84.2674	307.617	84.9147	307.617	83.8962	307.617	84.2566	307.617	83.3707	307.617	83.491	307.617	82.7935	307.617	82.7134	307.617	82.2834	307.617	82.063	307.617	81.9119	307.617	81.6559	307.617	81.6742	307.617	81.5058	307.617	81.5361
319.336	88.148	319.336	88.1128	319.336	88.0204	319.336	87.9148	319.336	87.7268	319.336	87.5481	319.336	87.266	319.336	87.0023	319.336	86.6484	319.336	86.2669	319.336	85.9121	319.336	85.342	319.336	85.1425	319.336	84.2651	319.336	84.4832	319.336	83.1629	319.336	84.1004	319.336	82.3008	319.336	84.0821	319.336	81.9901	319.336	84.3647	319.336	82.2874	319.336	84.7871	319.336	82.9233	319.336	85.198	319.336	83.5974	319.336	85.5064	319.336	84.1573	319.336	85.6778	319.336	84.5739	319.336	85.7158	319.336	84.8785	319.336	85.6461	319.336	85.1167	319.336	85.5043	319.336	85.3224
329.59	87.9701	329.59	87.9618	329.59	87.9027	329.59	87.8792	329.59	87.7507	329.59	87.7167	329.59	87.4995	329.59	87.464	329.59	87.1321	329.59	87.1074	329.59	86.6358	329.59	86.632	329.59	86.0096	329.59	86.026	329.59	85.2748	329.59	85.2934	329.59	84.4876	329.59	84.4787	329.59	83.7491	329.59	83.6981	329.59	83.1958	329.59	83.1382	329.59	82.9462	329.59	82.9625	329.59	83.0238	329.59	83.1699	329.59	83.3399	329.59	83.5971	329.59	83.7608	329.59	84.0603	329.59	84.1739	329.59	84.4421	329.59	84.5066	329.59	84.6885	329.59	84.7166	329.59	84.7806
341.309	87.5338	341.309	87.5435	341.309	87.4066	341.309	87.4377	341.309	87.1635	341.309	87.2222	341.309	86.8071	341.309	86.9075	341.309	86.3389	341.309	86.5078	341.309	85.7566	341.309	86.0353	341.309	85.0595	341.309	85.4955	341.309	84.2658	341.309	84.8884	341.309	83.4419	341.309	84.2288	341.309	82.727	341.309	83.5775	341.309	82.3108	341.309	83.0573	341.309	82.323	341.309	82.8044	341.309	82.7188	341.309	82.8658	341.309	83.3108	341.309	83.1623	341.309	83.9002	341.309	83.564	341.309	84.3544	341.309	83.9686	341.309	84.6144	341.309	84.3152	341.309	84.6753	341.309	84.5632
353.027	87.5228	353.027	87.4785	353.027	87.4959	353.027	87.3604	353.027	87.396	353.027	87.1605	353.027	87.2186	353.027	86.8699	353.027	86.9557	353.027	86.4856	353.027	86.5886	353.027	86.014	353.027	86.0809	353.027	85.4638	353.027	85.3787	353.027	84.8342	353.027	84.4248	353.027	84.1207	353.027	83.1902	353.027	83.3582	353.027	81.7388	353.027	82.6844	353.027	80.3526	353.027	82.3314	353.027	79.6009	353.027	82.4382	353.027	79.8893	353.027	82.8802	353.027	80.8886	353.027	83.3994	353.027	82.0193	353.027	83.8042	353.027	82.9597	353.027	84.0011	353.027	83.6055	353.027	83.9454
366.211	87.596	366.211	87.4738	366.211	87.6477	366.211	87.2682	366.211	87.634	366.211	86.9651	366.211	87.544	366.211	86.5498	366.211	87.3534	366.211	86.0034	366.211	87.0387	366.211	85.3075	366.211	86.5896	366.211	84.4641	366.211	86.0076	366.211	83.5261	366.211	85.2899	366.211	82.6144	366.211	84.4213	366.211	81.8837	366.211	83.3993	366.211	81.4462	366.211	82.304	366.211	81.3355	366.211	81.3735	366.211	81.5282	366.211	80.9446	366.211	81.945	366.211	81.1433	366.211	82.4457	366.211	81.7299	366.211	82.8761	366.211	82.3733	366.211	83.1226	366.211	82.8677	366.211	83.1253
379.395	87.6164	379.395	87.5953	379.395	87.5663	379.395	87.5068	379.395	87.4526	379.395	87.3528	379.395	87.2934	379.395	87.1181	379.395	87.099	379.395	86.7678	379.395	86.8556	379.395	86.2568	379.395	86.5258	379.395	85.5456	379.395	86.0693	379.395	84.6153	379.395	85.463	379.395	83.4873	379.395	84.7126	379.395	82.2649	379.395	83.8606	379.395	81.1966	379.395	82.9955	379.395	80.6404	379.395	82.2505	379.395	80.7618	379.395	81.7715	379.395	81.3244	379.395	81.6446	379.395	81.9662	379.395	81.831	379.395	82.4612	379.395	82.1827	379.395	82.7207	379.395	82.527	379.395	82.7321
392.578	86.8084	392.578	86.8078	392.578	86.7504	392.578	86.7641	392.578	86.6197	392.578	86.6852	392.578	86.4138	392.578	86.5676	392.578	86.1444	392.578	86.3951	392.578	85.8267	392.578	86.1381	392.578	85.4597	392.578	85.7531	392.578	85.0146	392.578	85.1858	392.578	84.4403	392.578	84.3852	392.578	83.6854	392.578	83.3391	392.578	82.7423	392.578	82.1419	392.578	81.7298	392.578	81.0875	392.578	80.9752	392.578	80.6267	392.578	80.8589	392.578	80.9499	392.578	81.37	392.578	81.728	392.578	82.1181	392.578	82.5159	392.578	82.7703	392.578	83.0621	392.578	83.1772	392.578	83.2834
405.762	86.7393	405.762	86.5885	405.762	86.7519	405.762	86.3185	405.762	86.6339	405.762	85.9787	405.762	86.408	405.762	85.6372	405.762	86.0985	405.762	85.3446	405.762	85.7207	405.762	85.0923	405.762	85.2773	405.762	84.8026	405.762	84.7607	405.762	84.3666	405.762	84.158	405.762	83.6994	405.762	83.4554	405.762	82.7875	405.762	82.6504	405.762	81.7286	405.762	81.7901	405.762	80.7629	405.762	81.0312	405.762	80.2115	405.762	80.6294	405.762	80.2347	405.762	80.7305	405.762	80.6735	405.762	81.1743	405.762	81.2377	405.762	81.6529	405.762	81.7089	405.762	81.9458	405.762	81.9645
420.41	87.2717	420.41	87.1542	420.41	87.2727	420.41	86.9217	420.41	87.1721	420.41	86.5925	420.41	87.0016	420.41	86.2029	420.41	86.8042	420.41	85.7998	420.41	86.612	420.41	85.418	420.41	86.4114	420.41	85.0448	420.41	86.13	420.41	84.6037	420.41	85.6619	420.41	83.9809	420.41	84.9073	420.41	83.0893	420.41	83.8007	420.41	81.9622	420.41	82.3361	420.41	80.8824	420.41	80.6505	420.41	80.3642	420.41	79.2303	420.41	80.6226	420.41	78.8538	420.41	81.2618	420.41	79.5822	420.41	81.8218	420.41	80.6456	420.41	82.0864	420.41	81.5016	420.41	81.9872
435.059	87.9535	435.059	87.9514	435.059	87.8214	435.059	87.8065	435.059	87.5602	435.059	87.5071	435.059	87.1756	435.059	87.0447	435.059	86.6885	435.059	86.4273	435.059	86.1565	435.059	85.6991	435.059	85.6771	435.059	84.9445	435.059	85.3389	435.059	84.2527	435.059	85.1431	435.059	83.6554	435.059	84.9868	435.059	83.1076	435.059	84.7387	435.059	82.5501	435.059	84.3262	435.059	82.0046	435.059	83.7834	435.059	81.6194	435.059	83.2517	435.059	81.5856	435.059	82.9081	435.059	81.9313	435.059	82.8331	435.059	82.452	435.059	82.9498	435.059	82.8913	435.059	83.0937	435.059	83.1067
451.172	88.928	451.172	88.7676	451.172	88.9081	451.172	88.4355	451.172	88.7107	451.172	87.9546	451.172	88.3512	451.172	87.3729	451.172	87.8536	451.172	86.7598	451.172	87.2405	451.172	86.1682	451.172	86.529	451.172	85.5841	451.172	85.7317	451.172	84.9304	451.172	84.8584	451.172	84.142	451.172	83.9294	451.172	83.2588	451.172	83.0164	451.172	82.4752	451.172	82.2758	451.172	82.0721	451.172	81.8725	451.172	82.1828	451.172	81.8321	451.172	82.643	451.172	82.0602	451.172	83.1708	451.172	82.4668	451.172	83.5724	451.172	82.9647	451.172	83.7621	451.172	83.422	451.172	83.7098
465.82	88.7441	465.82	88.6793	465.82	88.6837	465.82	88.4844	465.82	88.5014	465.82	88.1514	465.82	88.2011	465.82	87.6714	465.82	87.7862	465.82	87.0421	465.82	87.2559	465.82	86.2749	465.82	86.6091	465.82	85.3927	465.82	85.8577	465.82	84.423	465.82	85.0338	465.82	83.4084	465.82	84.172	465.82	82.4515	465.82	83.2986	465.82	81.748	465.82	82.5067	465.82	81.5004	465.82	82.067	465.82	81.7317	465.82	82.2476	465.82	82.2614	465.82	82.8886	465.82	82.8692	465.82	83.5513	465.82	83.4034	465.82	83.9673	465.82	83.7948	465.82	84.1051	465.82	84.0313
483.398	88.3235	483.398	88.2503	483.398	88.2826	483.398	88.0889	483.398	88.119	483.398	87.8552	483.398	87.8431	483.398	87.5378	483.398	87.463	483.398	87.114	483.398	86.974	483.398	86.5704	483.398	86.3765	483.398	85.8922	483.398	85.6914	483.398	85.0297	483.398	84.9349	483.398	83.8954	483.398	84.0784	483.398	82.4303	483.398	83.0764	483.398	80.7904	483.398	82.0061	483.398	79.6775	483.398	81.2353	483.398	79.96	483.398	81.2299	483.398	81.2074	483.398	81.8998	483.398	82.4401	483.398	82.7149	483.398	83.2692	483.398	83.3359	483.398	83.693	483.398	83.6922	483.398	83.811
499.512	88.4713	499.512	88.4142	499.512	88.39	499.512	88.2171	499.512	88.1744	499.512	87.8804	499.512	87.8325	499.512	87.3972	499.512	87.3772	499.512	86.7521	499.512	86.8109	499.512	85.9454	499.512	86.101	499.512	85.021	499.512	85.1902	499.512	84.0417	499.512	84.0541	499.512	83.0261	499.512	82.7692	499.512	81.968	499.512	81.5466	499.512	81.0241	499.512	80.6816	499.512	80.6456	499.512	80.4322	499.512	81.1333	499.512	80.8899	499.512	82.1573	499.512	81.8658	499.512	83.2347	499.512	83.0001	499.512	84.1129	499.512	83.9869	499.512	84.6828	499.512	84.6401	499.512	84.8739
517.09	88.6703	517.09	88.522	517.09	88.6915	517.09	88.2632	517.09	88.5719	517.09	87.9113	517.09	88.3048	517.09	87.4784	517.09	87.8954	517.09	86.952	517.09	87.3634	517.09	86.2782	517.09	86.7372	517.09	85.3833	517.09	86.0249	517.09	84.2365	517.09	85.179	517.09	82.9159	517.09	84.1124	517.09	81.6279	517.09	82.814	517.09	80.6879	517.09	81.537	517.09	80.4827	517.09	80.8525	517.09	81.1787	517.09	81.1303	517.09	82.4002	517.09	82.0675	517.09	83.613	517.09	83.1725	517.09	84.5217	517.09	84.1409	517.09	85.0311	517.09	84.8174	517.09	85.1257
536.133	88.5927	536.133	88.5033	536.133	88.5614	536.133	88.3114	536.133	88.3909	536.133	88.0323	536.133	88.0656	536.133	87.6691	536.133	87.5746	536.133	87.1877	536.133	86.9072	536.133	86.4992	536.133	86.0425	536.133	85.4781	536.133	84.9279	536.133	83.9885	536.133	83.4501	536.133	81.8786	536.133	81.447	536.133	79.0829	536.133	78.9706	536.133	76.8624	536.133	77.4874	536.133	78.4253	536.133	79.0997	536.133	81.4058	536.133	81.7332	536.133	83.5186	536.133	83.7561	536.133	84.7204	536.133	85.031	536.133	85.3412	536.133	85.7047	536.133	85.682	536.133	85.94	536.133	85.8905
555.176	87.4735	555.176	87.6561	555.176	87.4598	555.176	87.9104	555.176	87.6246	555.176	88.1065	555.176	87.8726	555.176	88.132	555.176	88.0575	555.176	87.9091	555.176	88.0377	555.176	87.3621	555.176	87.6784	555.176	86.3543	555.176	86.8282	555.176	84.6268	555.176	85.2837	555.176	81.6889	555.176	82.6554	555.176	76.342	555.176	77.8021	555.176	67.9665	555.176	65.303	555.176	76.3083	555.176	75.7486	555.176	81.4783	555.176	81.8596	555.176	84.4953	555.176	84.8896	555.176	86.4209	555.176	86.5599	555.176	87.5685	555.176	87.4748	555.176	88.096	555.176	87.9603	555.176	88.1753
574.219	85.6521	574.219	85.5902	574.219	85.808	574.219	85.8819	574.219	86.036	574.219	86.6431	574.219	86.6122	574.219	87.6674	574.219	87.6547	574.219	88.6489	574.219	88.8079	574.219	89.357	574.219	89.629	574.219	89.6221	574.219	89.8766	574.219	89.2843	574.219	89.4345	574.219	88.136	574.219	88.1491	574.219	85.8177	574.219	85.6516	574.219	81.8725	574.219	81.1029	574.219	80.0679	574.219	76.6594	574.219	84.7834	574.219	82.4983	574.219	88.4724	574.219	87.0732	574.219	90.6932	574.219	89.8788	574.219	92.007	574.219	91.6234	574.219	92.7229	574.219	92.5949	574.219	92.9315
594.727	87.3524	594.727	87.0659	594.727	87.0694	594.727	86.1859	594.727	86.3475	594.727	85.0763	594.727	85.4661	594.727	84.9275	594.727	85.1434	594.727	86.423	594.727	86.1458	594.727	88.3868	594.727	87.9172	594.727	89.8834	594.727	89.4411	594.727	90.6563	594.727	90.2952	594.727	90.6237	594.727	90.3853	594.727	89.6751	594.727	89.6381	594.727	87.6087	594.727	87.8602	594.727	84.316	594.727	84.8687	594.727	82.5749	594.727	83.0372	594.727	86.1791	594.727	86.4415	594.727	89.7812	594.727	89.9815	594.727	92.0953	594.727	92.2043	594.727	93.3667	594.727	93.403	594.727	93.7785
615.234	87.9868	615.234	87.8469	615.234	87.5926	615.234	87.0397	615.234	86.7196	615.234	85.4331	615.234	85.3927	615.234	83.4013	615.234	83.9162	615.234	82.9788	615.234	83.5179	615.234	84.9383	615.234	85.003	615.234	87.0524	615.234	86.9671	615.234	88.4392	615.234	88.3641	615.234	89.0269	615.234	89.0042	615.234	88.7945	615.234	88.8906	615.234	87.668	615.234	87.9114	615.234	85.6595	615.234	85.8515	615.234	83.8389	615.234	83.3349	615.234	85.053	615.234	84.0818	615.234	87.9588	615.234	87.3353	615.234	90.2246	615.234	89.8602	615.234	91.4931	615.234	91.3112	615.234	91.8359
637.207	91.0639	637.207	90.6032	637.207	90.9634	637.207	89.6116	637.207	90.1628	637.207	87.9808	637.207	88.4757	637.207	85.4368	637.207	85.6748	637.207	81.6069	637.207	81.5945	637.207	79.2769	637.207	79.3916	637.207	83.4186	637.207	83.2112	637.207	87.0848	637.207	86.7271	637.207	89.0693	637.207	88.8089	637.207	89.7346	637.207	89.637	637.207	89.301	637.207	89.3002	637.207	87.8667	637.207	87.925	637.207	85.852	637.207	86.0621	637.207	85.5039	637.207	85.5129	637.207	87.9262	637.207	87.2891	637.207	90.3061	637.207	89.5123	637.207	91.5942	637.207	91.091	637.207	91.8136
659.18	90.6097	659.18	90.4539	659.18	90.4187	659.18	89.9725	659.18	89.8736	659.18	89.118	659.18	88.9575	659.18	87.7033	659.18	87.5635	659.18	85.4481	659.18	85.3925	659.18	82.1015	659.18	81.91	659.18	78.7534	659.18	78.2522	659.18	80.607	659.18	81.1732	659.18	84.3023	659.18	84.9542	659.18	86.6198	659.18	87.041	659.18	87.584	659.18	87.8963	659.18	87.4502	659.18	87.813	659.18	86.5227	659.18	86.947	659.18	85.5315	659.18	85.8357	659.18	85.6736	659.18	85.8873	659.18	86.9442	659.18	87.3212	659.18	88.2419	659.18	88.5774	659.18	88.8862
682.617	89.6763	682.617	89.6869	682.617	89.5125	682.617	89.4435	682.617	89.2773	682.617	88.8717	682.617	88.9257	682.617	87.891	682.617	88.2304	682.617	86.3317	682.617	86.8745	682.617	83.9798	682.617	84.6068	682.617	81.2196	682.617	81.497	682.617	80.2056	682.617	79.3144	682.617	81.658	682.617	81.0541	682.617	83.6029	682.617	83.8312	682.617	85.0722	682.617	85.5448	682.617	85.6654	682.617	86.0291	682.617	85.12	682.617	85.4336	682.617	83.2575	682.617	83.9062	682.617	80.7422	682.617	81.757	682.617	80.2525	682.617	80.2078	682.617	81.2384	682.617	80.5383	682.617	81.3573
707.52	88.6374	707.52	88.5837	707.52	88.722	707.52	88.4687	707.52	88.7333	707.52	88.1152	707.52	88.4325	707.52	87.3417	707.52	87.641	707.52	85.9911	707.52	86.3004	707.52	83.9572	707.52	84.3493	707.52	81.2945	707.52	81.6752	707.52	79.393	707.52	78.9324	707.52	80.7169	707.52	79.0729	707.52	82.8643	707.52	81.3536	707.52	84.0106	707.52	82.9658	707.52	84.0424	707.52	83.3982	707.52	82.9722	707.52	82.6042	707.52	80.6331	707.52	80.4732	707.52	76.6527	707.52	76.877	707.52	71.9779	707.52	73.2216	707.52	72.9137	707.52	73.7515	707.52	74.5593
732.422	87.6722	732.422	87.5126	732.422	87.7717	732.422	87.3684	732.422	87.6863	732.422	87.1439	732.422	87.3995	732.422	86.6474	732.422	86.9913	732.422	85.6989	732.422	86.411	732.422	84.1832	732.422	85.3326	732.422	82.2896	732.422	83.5043	732.422	80.8727	732.422	81.5939	732.422	80.8616	732.422	81.2102	732.422	81.809	732.422	82.0069	732.422	82.4343	732.422	82.7302	732.422	82.1069	732.422	82.9633	732.422	80.8842	732.422	82.3923	732.422	78.788	732.422	80.6465	732.422	75.689	732.422	77.5765	732.422	72.9528	732.422	74.5239	732.422	73.4718	732.422	74.2438	732.422	74.5015
757.324	87.1134	757.324	87.0357	757.324	86.9954	757.324	86.8078	757.324	86.8405	757.324	86.5613	757.324	86.7412	757.324	86.2113	757.324	86.5333	757.324	85.5267	757.324	85.9571	757.324	84.2614	757.324	84.8449	757.324	82.229	757.324	83.0892	757.324	80.1483	757.324	80.7723	757.324	80.0034	757.324	79.2597	757.324	81.1051	757.324	80.3977	757.324	82.0808	757.324	82.3964	757.324	82.5923	757.324	83.5284	757.324	82.2928	757.324	83.376	757.324	80.987	757.324	82.0578	757.324	78.7325	757.324	79.7562	757.324	76.0007	757.324	76.3987	757.324	73.6502	757.324	72.8298	757.324	72.0827
785.156	88.3396	785.156	88.3662	785.156	88.1541	785.156	88.1676	785.156	87.9905	785.156	88.0252	785.156	87.8234	785.156	88.0304	785.156	87.4003	785.156	87.6932	785.156	86.4461	785.156	86.6741	785.156	84.9803	785.156	85.1744	785.156	83.4728	785.156	83.5701	785.156	82.2903	785.156	82.2282	785.156	81.402	785.156	81.9479	785.156	81.144	785.156	82.7401	785.156	81.189	785.156	83.2483	785.156	80.7732	785.156	82.4753	785.156	79.9802	785.156	80.5392	785.156	78.7697	785.156	78.2305	785.156	76.1857	785.156	75.6965	785.156	72.7346	785.156	74.7808	785.156	74.2015	785.156	75.5811
811.523	87.9064	811.523	87.8724	811.523	87.6687	811.523	87.7031	811.523	86.9944	811.523	87.3137	811.523	86.0509	811.523	86.6986	811.523	85.0911	811.523	85.9257	811.523	83.9636	811.523	84.7665	811.523	82.3051	811.523	83.0598	811.523	79.7904	811.523	81.2616	811.523	76.6612	811.523	79.7475	811.523	75.958	811.523	78.2968	811.523	78.9038	811.523	78.2057	811.523	81.5293	811.523	78.7322	811.523	82.4744	811.523	77.4761	811.523	81.8506	811.523	74.1874	811.523	80.5594	811.523	70.6456	811.523	79.2459	811.523	72.1501	811.523	77.5441	811.523	75.1585	811.523	75.947	811.523	75.8825
840.82	88.1822	840.82	88.0991	840.82	87.7349	840.82	87.6677	840.82	87.0622	840.82	87.1982	840.82	86.4887	840.82	86.6787	840.82	85.9178	840.82	86.0896	840.82	85.13	840.82	85.4945	840.82	84.0478	840.82	84.5965	840.82	82.5588	840.82	82.9956	840.82	80.6224	840.82	81.4446	840.82	78.654	840.82	81.5092	840.82	77.7345	840.82	81.8318	840.82	78.9716	840.82	81.217	840.82	80.2397	840.82	79.9072	840.82	79.8274	840.82	77.7173	840.82	77.588	840.82	73.2927	840.82	75.0275	840.82	57.6279	840.82	74.0808	840.82	70.1399	840.82	74.3799	840.82	74.3092
870.117	88.5135	870.117	88.3142	870.117	88.1783	870.117	87.6196	870.117	87.5849	870.117	87.0649	870.117	86.8223	870.117	86.7792	870.117	85.7956	870.117	86.1169	870.117	84.2928	870.117	84.9852	870.117	82.3485	870.117	83.7253	870.117	80.0676	870.117	82.2017	870.117	76.8261	870.117	80.3953	870.117	73.6076	870.117	79.7377	870.117	75.4666	870.117	81.0585	870.117	78.199	870.117	82.0149	870.117	79.4604	870.117	81.0767	870.117	78.8963	870.117	77.9204	870.117	75.897	870.117	71.5322	870.117	70.6732	870.117	67.3286	870.117	71.495	870.117	72.3501	870.117	74.1295	870.117	74.3367
900.879	88.44	900.879	87.9413	900.879	88.5237	900.879	87.2725	900.879	88.1833	900.879	86.5862	900.879	87.6271	900.879	85.9514	900.879	87.0601	900.879	85.4349	900.879	86.4685	900.879	84.7547	900.879	85.5419	900.879	83.6209	900.879	83.8969	900.879	82.1712	900.879	81.7435	900.879	81.0287	900.879	80.547	900.879	80.9957	900.879	80.7634	900.879	81.7402	900.879	81.1203	900.879	82.1444	900.879	81.0141	900.879	81.5115	900.879	79.9815	900.879	79.3364	900.879	77.3125	900.879	74.3131	900.879	71.5885	900.879	56.2877	900.879	62.0273	900.879	70.0948	900.879	70.5544	900.879	73.1236
933.105	87.5283	933.105	88.2261	933.105	86.5668	933.105	88.0798	933.105	85.8057	933.105	87.7432	933.105	84.6603	933.105	87.7024	933.105	82.9997	933.105	87.1643	933.105	81.4261	933.105	85.7819	933.105	79.8202	933.105	83.7194	933.105	77.8517	933.105	80.8287	933.105	74.3215	933.105	77.575	933.105	70.3678	933.105	77.8451	933.105	76.1805	933.105	80.8534	933.105	80.0673	933.105	81.9726	933.105	81.7196	933.105	80.5954	933.105	81.7622	933.105	76.4567	933.105	79.6388	933.105	67.6838	933.105	73.7975	933.105	68.5275	933.105	71.2274	933.105	74.9394	933.105	77.7834	933.105	78.3936
965.332	89.0162	965.332	88.5688	965.332	88.8445	965.332	87.5478	965.332	88.1234	965.332	86.5478	965.332	87.095	965.332	86.4454	965.332	86.1513	965.332	86.4602	965.332	85.163	965.332	85.6952	965.332	83.5559	965.332	84.2767	965.332	81.3031	965.332	82.307	965.332	78.6354	965.332	80.133	965.332	75.0397	965.332	79.729	965.332	73.613	965.332	81.1148	965.332	76.6688	965.332	82.6038	965.332	79.132	965.332	82.9503	965.332	80.3528	965.332	82.2159	965.332	79.374	965.332	79.3559	965.332	75.3705	965.332	71.6316	965.332	73.0668	965.332	70.1196	965.332	74.6864	965.332	74.6746
1,000.49	90.167	1,000.49	89.8741	1,000.49	89.793	1,000.49	88.7586	1,000.49	88.6606	1,000.49	87.0964	1,000.49	87.2051	1,000.49	86.47	1,000.49	86.0737	1,000.49	86.8431	1,000.49	85.5462	1,000.49	87.0334	1,000.49	85.7245	1,000.49	86.6667	1,000.49	85.5705	1,000.49	85.2121	1,000.49	84.0312	1,000.49	82.073	1,000.49	79.7194	1,000.49	76.1082	1,000.49	66.2112	1,000.49	53.7848	1,000.49	73.3232	1,000.49	74.4093	1,000.49	79.4308	1,000.49	79.1705	1,000.49	82.6699	1,000.49	79.5811	1,000.49	83.3273	1,000.49	78.9712	1,000.49	81.9981	1,000.49	76.3908	1,000.49	79.4625	1,000.49	72.7587	1,000.49	74.7137	1,000.49	71.0478
1,035.64	89.7272	1,035.64	89.2948	1,035.64	89.7312	1,035.64	88.4704	1,035.64	88.8387	1,035.64	86.7582	1,035.64	86.8398	1,035.64	84.183	1,035.64	84.2048	1,035.64	82.342	1,035.64	82.1449	1,035.64	81.9609	1,035.64	81.6316	1,035.64	83.1463	1,035.64	82.7758	1,035.64	84.2383	1,035.64	83.5331	1,035.64	83.5532	1,035.64	82.0069	1,035.64	82.1503	1,035.64	77.2131	1,035.64	81.7469	1,035.64	67.9262	1,035.64	81.1363	1,035.64	70.3802	1,035.64	79.7477	1,035.64	74.8774	1,035.64	79.9533	1,035.64	78.8684	1,035.64	81.4437	1,035.64	81.5978	1,035.64	82.7218	1,035.64	82.7259	1,035.64	82.6532	1,035.64	82.4601	1,035.64	82.1065
1,072.27	87.947	1,072.27	88.2024	1,072.27	87.6609	1,072.27	88.2086	1,072.27	87.5283	1,072.27	87.6817	1,072.27	87.4498	1,072.27	86.7176	1,072.27	86.8031	1,072.27	85.2283	1,072.27	85.2196	1,072.27	83.4017	1,072.27	83.2226	1,072.27	82.3447	1,072.27	81.6488	1,072.27	81.5709	1,072.27	80.5538	1,072.27	79.8249	1,072.27	79.7271	1,072.27	76.9206	1,072.27	77.7026	1,072.27	74.2992	1,072.27	73.464	1,072.27	75.6362	1,072.27	72.8217	1,072.27	75.6221	1,072.27	72.8189	1,072.27	67.959	1,072.27	65.6649	1,072.27	75.7498	1,072.27	69.3457	1,072.27	80.5152	1,072.27	78.3883	1,072.27	80.9968	1,072.27	82.2433	1,072.27	82.1377
1,108.89	86.3614	1,108.89	86.5462	1,108.89	86.9129	1,108.89	86.9266	1,108.89	86.7332	1,108.89	86.1465	1,108.89	85.8225	1,108.89	84.8109	1,108.89	84.9725	1,108.89	83.8129	1,108.89	83.7294	1,108.89	81.5885	1,108.89	81.2558	1,108.89	79.4755	1,108.89	79.1157	1,108.89	80.2631	1,108.89	79.6081	1,108.89	78.592	1,108.89	79.3279	1,108.89	74.9649	1,108.89	75.9828	1,108.89	72.5599	1,108.89	68.6603	1,108.89	74.4435	1,108.89	70.6521	1,108.89	75.2268	1,108.89	75.5809	1,108.89	68.2191	1,108.89	74.5697	1,108.89	71.823	1,108.89	73.4175	1,108.89	77.3617	1,108.89	78.0231	1,108.89	78.9833	1,108.89	80.5232	1,108.89	80.7071
1,148.44	87.9968	1,148.44	87.1794	1,148.44	88.268	1,148.44	86.6194	1,148.44	87.7864	1,148.44	85.5105	1,148.44	86.8343	1,148.44	83.6957	1,148.44	85.8881	1,148.44	82.7366	1,148.44	85.1549	1,148.44	81.875	1,148.44	84.1444	1,148.44	80.3535	1,148.44	82.5984	1,148.44	80.0743	1,148.44	81.5554	1,148.44	80.3086	1,148.44	80.8465	1,148.44	79.1994	1,148.44	78.1451	1,148.44	76.0776	1,148.44	72.3864	1,148.44	73.834	1,148.44	68.8309	1,148.44	75.9759	1,148.44	73.7954	1,148.44	74.0073	1,148.44	73.9725	1,148.44	56.9248	1,148.44	68.9862	1,148.44	75.2764	1,148.44	71.6944	1,148.44	78.3434	1,148.44	78.8933	1,148.44	79.8834
1,189.45	87.2098	1,189.45	86.863	1,189.45	87.4491	1,189.45	86.1534	1,189.45	87.0355	1,189.45	85.0303	1,189.45	86.0849	1,189.45	83.6784	1,189.45	85.0239	1,189.45	82.0528	1,189.45	83.5465	1,189.45	80.1603	1,189.45	81.8118	1,189.45	77.9734	1,189.45	79.4226	1,189.45	76.7616	1,189.45	79.5024	1,189.45	79.0312	1,189.45	80.2722	1,189.45	78.7068	1,189.45	78.277	1,189.45	77.1307	1,189.45	76.4156	1,189.45	74.6843	1,189.45	73.0546	1,189.45	76.318	1,189.45	66.5216	1,189.45	76.6856	1,189.45	62.3838	1,189.45	70.477	1,189.45	64.5666	1,189.45	72.9889	1,189.45	74.2336	1,189.45	74.7313	1,189.45	75.0231	1,189.45	73.9475
1,230.47	86.8412	1,230.47	86.3604	1,230.47	86.7535	1,230.47	85.6153	1,230.47	86.7081	1,230.47	85.0921	1,230.47	85.9604	1,230.47	83.9756	1,230.47	84.2493	1,230.47	83.0894	1,230.47	83.1514	1,230.47	82.5186	1,230.47	82.1478	1,230.47	80.558	1,230.47	80.2141	1,230.47	77.2073	1,230.47	77.9455	1,230.47	76.6354	1,230.47	78.3199	1,230.47	77.8799	1,230.47	78.732	1,230.47	77.24	1,230.47	77.7441	1,230.47	76.0631	1,230.47	74.7049	1,230.47	75.6263	1,230.47	73.9207	1,230.47	75.1962	1,230.47	74.1288	1,230.47	69.8599	1,230.47	71.2039	1,230.47	65.8435	1,230.47	62.39	1,230.47	76.3276	1,230.47	71.7763	1,230.47	76.4296
1,274.41	87.4615	1,274.41	87.2055	1,274.41	87.4603	1,274.41	86.6564	1,274.41	87.1563	1,274.41	85.8083	1,274.41	86.5085	1,274.41	84.2479	1,274.41	85.3358	1,274.41	82.4394	1,274.41	83.6061	1,274.41	81.9271	1,274.41	82.5304	1,274.41	82.3301	1,274.41	81.561	1,274.41	81.5911	1,274.41	79.4511	1,274.41	79.9538	1,274.41	78.4248	1,274.41	77.7485	1,274.41	75.8513	1,274.41	76.492	1,274.41	75.4426	1,274.41	76.5096	1,274.41	76.5782	1,274.41	75.2671	1,274.41	76.2548	1,274.41	75.1993	1,274.41	74.7963	1,274.41	72.7293	1,274.41	72.2399	1,274.41	65.5902	1,274.41	63.1559	1,274.41	72.5691	1,274.41	68.169	1,274.41	73.127
1,319.82	87.1842	1,319.82	87.2337	1,319.82	87.2202	1,319.82	86.8999	1,319.82	86.922	1,319.82	86.1847	1,319.82	86.119	1,319.82	85.4123	1,319.82	84.9323	1,319.82	84.2702	1,319.82	83.6757	1,319.82	82.138	1,319.82	82.4665	1,319.82	80.0901	1,319.82	81.4429	1,319.82	80.2323	1,319.82	80.1657	1,319.82	77.6308	1,319.82	79.0459	1,319.82	72.9065	1,319.82	78.0492	1,319.82	72.6785	1,319.82	77.1064	1,319.82	71.517	1,319.82	75.4418	1,319.82	74.3884	1,319.82	74.7374	1,319.82	74.555	1,319.82	74.771	1,319.82	69.0025	1,319.82	72.0216	1,319.82	49.849	1,319.82	60.3202	1,319.82	68.709	1,319.82	66.0599	1,319.82	71.3704
1,366.7	87.6667	1,366.7	87.4561	1,366.7	87.144	1,366.7	86.9512	1,366.7	86.4837	1,366.7	86.1339	1,366.7	85.9703	1,366.7	84.974	1,366.7	84.6334	1,366.7	83.7602	1,366.7	83.4589	1,366.7	82.0736	1,366.7	82.7243	1,366.7	80.2727	1,366.7	81.0395	1,366.7	79.1415	1,366.7	80.0154	1,366.7	78.1102	1,366.7	79.5811	1,366.7	75.2463	1,366.7	78.311	1,366.7	71.7453	1,366.7	76.2969	1,366.7	70.0333	1,366.7	75.5613	1,366.7	74.4349	1,366.7	75.987	1,366.7	76.2957	1,366.7	76.2966	1,366.7	73.1516	1,366.7	73.3048	1,366.7	66.1004	1,366.7	66.117	1,366.7	64.2772	1,366.7	68.0181	1,366.7	72.0959
1,413.57	87.4266	1,413.57	87.399	1,413.57	87.3189	1,413.57	86.816	1,413.57	87.0106	1,413.57	86.1858	1,413.57	85.859	1,413.57	84.7119	1,413.57	85.0645	1,413.57	83.5656	1,413.57	83.6964	1,413.57	82.8104	1,413.57	80.7784	1,413.57	80.1383	1,413.57	78.8575	1,413.57	79.2504	1,413.57	78.1914	1,413.57	79.4013	1,413.57	77.0086	1,413.57	77.2056	1,413.57	74.7101	1,413.57	73.6437	1,413.57	72.835	1,413.57	73.7596	1,413.57	73.1655	1,413.57	75.37	1,413.57	74.8352	1,413.57	76.6832	1,413.57	77.0624	1,413.57	75.1899	1,413.57	73.6483	1,413.57	69.6829	1,413.57	60.9734	1,413.57	61.2803	1,413.57	63.0882	1,413.57	67.0594
1,463.38	87.1158	1,463.38	86.7253	1,463.38	86.8545	1,463.38	86.187	1,463.38	85.8697	1,463.38	85.1546	1,463.38	84.7203	1,463.38	84.4473	1,463.38	84.2013	1,463.38	83.3089	1,463.38	83.1002	1,463.38	81.6641	1,463.38	81.1666	1,463.38	79.9746	1,463.38	79.4582	1,463.38	78.1425	1,463.38	77.7154	1,463.38	77.8124	1,463.38	76.7009	1,463.38	74.9806	1,463.38	74.9066	1,463.38	72.0662	1,463.38	70.2306	1,463.38	71.5206	1,463.38	69.8257	1,463.38	72.6547	1,463.38	73.4649	1,463.38	74.0201	1,463.38	73.8459	1,463.38	71.7475	1,463.38	70.3155	1,463.38	67.9101	1,463.38	59.8841	1,463.38	61.0523	1,463.38	64.9319	1,463.38	66.9502
1,516.11	86.5193	1,516.11	86.1704	1,516.11	85.674	1,516.11	84.7646	1,516.11	84.9379	1,516.11	83.7924	1,516.11	83.9619	1,516.11	82.4145	1,516.11	83.1553	1,516.11	82.328	1,516.11	82.4074	1,516.11	81.4068	1,516.11	80.7973	1,516.11	79.0262	1,516.11	80.1285	1,516.11	78.3055	1,516.11	77.5903	1,516.11	77.5751	1,516.11	76.3403	1,516.11	75.1356	1,516.11	74.64	1,516.11	73.2107	1,516.11	72.6533	1,516.11	72.1952	1,516.11	70.8429	1,516.11	72.7933	1,516.11	70.3341	1,516.11	71.2783	1,516.11	72.5594	1,516.11	69.0905	1,516.11	72.2876	1,516.11	54.3434	1,516.11	64.9023	1,516.11	67.1024	1,516.11	59.4284	1,516.11	65.8172
1,568.85	84.8871	1,568.85	84.6412	1,568.85	84.764	1,568.85	83.8392	1,568.85	83.9084	1,568.85	82.7493	1,568.85	82.804	1,568.85	81.4372	1,568.85	81.7175	1,568.85	80.369	1,568.85	80.4041	1,568.85	79.0726	1,568.85	79.5326	1,568.85	77.9968	1,568.85	78.752	1,568.85	76.9704	1,568.85	77.0954	1,568.85	75.7993	1,568.85	77.2585	1,568.85	75.2733	1,568.85	75.8355	1,568.85	74.1489	1,568.85	74.4014	1,568.85	71.9601	1,568.85	69.8236	1,568.85	73.7174	1,568.85	69.283	1,568.85	75.6299	1,568.85	70.9018	1,568.85	72.9934	1,568.85	73.2109	1,568.85	63.9949	1,568.85	68.866	1,568.85	63.4527	1,568.85	53.5799	1,568.85	65.3482
1,624.51	85.3365	1,624.51	85.6754	1,624.51	85.227	1,624.51	85.1899	1,624.51	85.0254	1,624.51	84.7188	1,624.51	84.2495	1,624.51	83.7329	1,624.51	83.0398	1,624.51	82.3922	1,624.51	81.2946	1,624.51	80.6242	1,624.51	79.885	1,624.51	79.1026	1,624.51	78.7495	1,624.51	77.7146	1,624.51	78.0131	1,624.51	77.3668	1,624.51	76.255	1,624.51	75.8888	1,624.51	73.632	1,624.51	72.4379	1,624.51	72.0753	1,624.51	64.4271	1,624.51	72.1336	1,624.51	71.1704	1,624.51	70.5169	1,624.51	75.0981	1,624.51	71.9722	1,624.51	74.3804	1,624.51	71.7423	1,624.51	66.7071	1,624.51	65.4799	1,624.51	68.0981	1,624.51	62.6645	1,624.51	68.6594
1,681.64	87.2735	1,681.64	87.1415	1,681.64	87.3006	1,681.64	86.6408	1,681.64	86.839	1,681.64	85.8709	1,681.64	85.8413	1,681.64	84.5663	1,681.64	84.5788	1,681.64	82.9357	1,681.64	83.3683	1,681.64	81.9827	1,681.64	82.1467	1,681.64	79.0744	1,681.64	80.6402	1,681.64	78.948	1,681.64	78.4788	1,681.64	77.3891	1,681.64	76.9102	1,681.64	76.6406	1,681.64	76.4129	1,681.64	74.1562	1,681.64	76.4078	1,681.64	71.4047	1,681.64	72.4851	1,681.64	70.058	1,681.64	70.4493	1,681.64	75.3918	1,681.64	74.4724	1,681.64	74.4463	1,681.64	74.0445	1,681.64	70.2534	1,681.64	69.916	1,681.64	57.7262	1,681.64	68.882	1,681.64	65.4272
1,741.7	87.5368	1,741.7	87.1511	1,741.7	87.2545	1,741.7	86.8622	1,741.7	86.6083	1,741.7	86.4288	1,741.7	85.5575	1,741.7	84.9221	1,741.7	84.3369	1,741.7	84.3867	1,741.7	82.2878	1,741.7	83.0873	1,741.7	82.1988	1,741.7	81.9603	1,741.7	80.8382	1,741.7	80.6854	1,741.7	79.0069	1,741.7	78.8739	1,741.7	76.9245	1,741.7	78.4268	1,741.7	77.068	1,741.7	74.7791	1,741.7	73.2146	1,741.7	74.5006	1,741.7	72.4112	1,741.7	72.5251	1,741.7	72.2947	1,741.7	74.9559	1,741.7	75.2013	1,741.7	76.6481	1,741.7	76.624	1,741.7	69.3857	1,741.7	69.5201	1,741.7	63.0797	1,741.7	59.3208	1,741.7	66.9698
1,803.22	87.8873	1,803.22	87.689	1,803.22	87.0243	1,803.22	87.6971	1,803.22	87.0356	1,803.22	87.0026	1,803.22	86.5759	1,803.22	85.8987	1,803.22	84.9818	1,803.22	84.6995	1,803.22	83.4768	1,803.22	83.9794	1,803.22	81.9091	1,803.22	82.1448	1,803.22	81.0224	1,803.22	80.9101	1,803.22	77.4749	1,803.22	78.9885	1,803.22	76.4963	1,803.22	75.4219	1,803.22	75.9548	1,803.22	74.0295	1,803.22	74.2095	1,803.22	73.7889	1,803.22	71.387	1,803.22	73.3509	1,803.22	65.4606	1,803.22	71.7963	1,803.22	73.656	1,803.22	74.7719	1,803.22	71.6334	1,803.22	69.4435	1,803.22	69.6013	1,803.22	46.8156	1,803.22	60.9965	1,803.22	64.7799
1,866.21	87.0285	1,866.21	87.0345	1,866.21	86.4001	1,866.21	87.0115	1,866.21	86.274	1,866.21	86.1985	1,866.21	86.2616	1,866.21	84.8641	1,866.21	83.9759	1,866.21	85.2769	1,866.21	82.6554	1,866.21	83.527	1,866.21	81.1505	1,866.21	82.6273	1,866.21	80.6092	1,866.21	79.7328	1,866.21	79.9208	1,866.21	76.0184	1,866.21	78.5523	1,866.21	76.316	1,866.21	75.4209	1,866.21	75.3322	1,866.21	74.7491	1,866.21	74.2315	1,866.21	74.4166	1,866.21	73.2585	1,866.21	73.6354	1,866.21	72.2586	1,866.21	72.7572	1,866.21	76.2038	1,866.21	76.8207	1,866.21	72.5487	1,866.21	72.94	1,866.21	70.3171	1,866.21	62.2151	1,866.21	69.3798
1,932.13	86.2057	1,932.13	85.7127	1,932.13	85.8732	1,932.13	85.7114	1,932.13	85.7394	1,932.13	85.1574	1,932.13	85.1201	1,932.13	84.4801	1,932.13	83.9029	1,932.13	83.7898	1,932.13	83.0295	1,932.13	82.3596	1,932.13	81.4243	1,932.13	79.8137	1,932.13	80.2387	1,932.13	77.6999	1,932.13	77.8687	1,932.13	77.0043	1,932.13	76.1348	1,932.13	76.5207	1,932.13	74.0265	1,932.13	75.7053	1,932.13	72.3401	1,932.13	75.0648	1,932.13	73.2431	1,932.13	71.4909	1,932.13	71.5533	1,932.13	71.4174	1,932.13	67.9184	1,932.13	72.2855	1,932.13	74.2719	1,932.13	68.4956	1,932.13	70.7779	1,932.13	69.4235	1,932.13	67.9359	1,932.13	70.5785
1,999.51	85.594	1,999.51	86.0341	1,999.51	85.7468	1,999.51	85.8067	1,999.51	85.7361	1,999.51	85.2659	1,999.51	85.3378	1,999.51	83.8715	1,999.51	84.5335	1,999.51	82.2082	1,999.51	83.3284	1,999.51	82.0466	1,999.51	82.3226	1,999.51	79.8355	1,999.51	81.0708	1,999.51	77.1303	1,999.51	78.7711	1,999.51	75.7305	1,999.51	76.2496	1,999.51	74.4846	1,999.51	76.5027	1,999.51	71.4077	1,999.51	73.3359	1,999.51	72.7015	1,999.51	72.1581	1,999.51	71.6202	1,999.51	73.4045	1,999.51	69.5071	1,999.51	67.4792	1,999.51	73.0174	1,999.51	71.8628	1,999.51	65.7257	1,999.51	70.4706	1,999.51	66.6254	1,999.51	60.3597	1,999.51	69.9936
2,069.82	86.7649	2,069.82	86.4645	2,069.82	86.6272	2,069.82	85.9167	2,069.82	86.079	2,069.82	85.6273	2,069.82	85.7478	2,069.82	84.902	2,069.82	85.1578	2,069.82	83.0563	2,069.82	83.7624	2,069.82	80.8549	2,069.82	82.5509	2,069.82	80.2572	2,069.82	81.0695	2,069.82	78.04	2,069.82	78.7469	2,069.82	75.197	2,069.82	77.1048	2,069.82	74.6083	2,069.82	76.63	2,069.82	72.5293	2,069.82	74.175	2,069.82	71.6879	2,069.82	72.1702	2,069.82	72.8657	2,069.82	73.5821	2,069.82	65.6005	2,069.82	68.4604	2,069.82	71.7678	2,069.82	72.3412	2,069.82	68.9949	2,069.82	70.2586	2,069.82	55.1636	2,069.82	58.7619	2,069.82	68.4924
2,143.07	87.0579	2,143.07	86.8914	2,143.07	86.8277	2,143.07	86.4488	2,143.07	86.4362	2,143.07	85.5772	2,143.07	85.4137	2,143.07	85.0153	2,143.07	84.7444	2,143.07	83.9622	2,143.07	83.8864	2,143.07	81.7072	2,143.07	81.8335	2,143.07	80.6159	2,143.07	80.5012	2,143.07	78.8929	2,143.07	78.9402	2,143.07	75.9449	2,143.07	74.8819	2,143.07	75.1706	2,143.07	75.6808	2,143.07	73.9409	2,143.07	74.3881	2,143.07	71.8685	2,143.07	70.0498	2,143.07	74.8772	2,143.07	73.6505	2,143.07	71.7134	2,143.07	70.9809	2,143.07	70.4917	2,143.07	69.7957	2,143.07	71.2616	2,143.07	70.2884	2,143.07	55.3317	2,143.07	58.1696	2,143.07	63.4036
2,219.24	86.2964	2,219.24	86.65	2,219.24	86.2541	2,219.24	86.4078	2,219.24	85.8751	2,219.24	85.5164	2,219.24	84.9226	2,219.24	84.3825	2,219.24	83.7702	2,219.24	83.3461	2,219.24	83.0285	2,219.24	82.929	2,219.24	80.9892	2,219.24	80.536	2,219.24	79.0778	2,219.24	79.8679	2,219.24	77.7884	2,219.24	76.7375	2,219.24	74.647	2,219.24	75.1954	2,219.24	73.6867	2,219.24	74.2165	2,219.24	72.6261	2,219.24	71.4805	2,219.24	68.4056	2,219.24	74.276	2,219.24	71.073	2,219.24	73.2224	2,219.24	70.3764	2,219.24	71.036	2,219.24	68.5674	2,219.24	70.7254	2,219.24	70.3858	2,219.24	64.4864	2,219.24	55.9039	2,219.24	62.2381
2,296.88	85.3152	2,296.88	85.4767	2,296.88	85.3391	2,296.88	85.757	2,296.88	85.2349	2,296.88	85.2599	2,296.88	85.0461	2,296.88	84.0233	2,296.88	83.633	2,296.88	82.8798	2,296.88	82.1069	2,296.88	81.115	2,296.88	81.1923	2,296.88	79.3723	2,296.88	78.5148	2,296.88	78.3896	2,296.88	76.8743	2,296.88	76.0218	2,296.88	75.0936	2,296.88	73.2834	2,296.88	70.7561	2,296.88	74.3841	2,296.88	73.671	2,296.88	72.1128	2,296.88	71.3682	2,296.88	71.7495	2,296.88	69.4185	2,296.88	71.7327	2,296.88	71.349	2,296.88	71.6456	2,296.88	70.9281	2,296.88	70.79	2,296.88	69.7349	2,296.88	64.7023	2,296.88	64.6276	2,296.88	63.3916
2,378.91	86.0736	2,378.91	85.9018	2,378.91	85.8896	2,378.91	85.6096	2,378.91	85.9362	2,378.91	85.4027	2,378.91	85.4019	2,378.91	83.9755	2,378.91	84.768	2,378.91	82.2832	2,378.91	83.0585	2,378.91	80.5417	2,378.91	81.1912	2,378.91	78.58	2,378.91	79.4507	2,378.91	76.7347	2,378.91	78.0129	2,378.91	75.4443	2,378.91	76.7965	2,378.91	72.6096	2,378.91	73.4638	2,378.91	72.3286	2,378.91	72.9633	2,378.91	70.907	2,378.91	71.7925	2,378.91	72.0835	2,378.91	72.3873	2,378.91	71.1499	2,378.91	71.984	2,378.91	69.2028	2,378.91	70.3173	2,378.91	69.8386	2,378.91	71.1255	2,378.91	61.0753	2,378.91	66.4154	2,378.91	61.0895
2,462.4	87.7577	2,462.4	87.5016	2,462.4	87.4938	2,462.4	87.0946	2,462.4	87.2325	2,462.4	86.7888	2,462.4	86.7591	2,462.4	85.7262	2,462.4	85.9052	2,462.4	83.9987	2,462.4	84.374	2,462.4	81.6227	2,462.4	82.491	2,462.4	79.79	2,462.4	80.5065	2,462.4	77.1068	2,462.4	78.6537	2,462.4	75.7485	2,462.4	76.4073	2,462.4	73.5004	2,462.4	74.4028	2,462.4	72.0856	2,462.4	73.9733	2,462.4	70.3685	2,462.4	73.1334	2,462.4	71.1987	2,462.4	72.0572	2,462.4	73.1174	2,462.4	73.5032	2,462.4	71.5564	2,462.4	71.6823	2,462.4	68.5535	2,462.4	70.3067	2,462.4	63.2259	2,462.4	64.5533	2,462.4	65.4723
2,548.83	87.4649	2,548.83	87.1622	2,548.83	87.5216	2,548.83	87.3482	2,548.83	86.9361	2,548.83	86.6616	2,548.83	86.4544	2,548.83	86.1339	2,548.83	85.5572	2,548.83	84.6783	2,548.83	84.1034	2,548.83	82.5493	2,548.83	82.3218	2,548.83	80.0053	2,548.83	80.5286	2,548.83	79.0739	2,548.83	77.8488	2,548.83	76.986	2,548.83	76.7524	2,548.83	74.9758	2,548.83	75.087	2,548.83	73.7103	2,548.83	72.5603	2,548.83	71.9228	2,548.83	72.8839	2,548.83	70.7245	2,548.83	69.7396	2,548.83	73.6354	2,548.83	73.4281	2,548.83	72.8924	2,548.83	71.9777	2,548.83	71.6621	2,548.83	71.9432	2,548.83	64.6292	2,548.83	67.0033	2,548.83	64.3641
2,639.65	85.8138	2,639.65	86.1074	2,639.65	86.2727	2,639.65	85.9155	2,639.65	85.6975	2,639.65	85.5894	2,639.65	85.5779	2,639.65	85.0789	2,639.65	84.4394	2,639.65	84.3562	2,639.65	83.5034	2,639.65	82.5374	2,639.65	80.9284	2,639.65	80.3079	2,639.65	79.2724	2,639.65	79.0976	2,639.65	77.1811	2,639.65	75.6873	2,639.65	75.9037	2,639.65	74.7457	2,639.65	73.969	2,639.65	74.8578	2,639.65	71.3729	2,639.65	73.0332	2,639.65	70.9263	2,639.65	71.0674	2,639.65	69.7557	2,639.65	73.0806	2,639.65	70.7199	2,639.65	72.6196	2,639.65	70.6173	2,639.65	71.4248	2,639.65	70.8477	2,639.65	69.4701	2,639.65	65.7698	2,639.65	67.806
2,731.93	85.7387	2,731.93	86.0563	2,731.93	85.1337	2,731.93	85.4446	2,731.93	85.8105	2,731.93	85.5793	2,731.93	85.165	2,731.93	84.2527	2,731.93	84.3043	2,731.93	83.0434	2,731.93	83.2434	2,731.93	81.5013	2,731.93	81.7503	2,731.93	81.1425	2,731.93	79.6072	2,731.93	77.7291	2,731.93	78.3559	2,731.93	75.2097	2,731.93	74.8854	2,731.93	73.7473	2,731.93	72.9222	2,731.93	72.8269	2,731.93	72.288	2,731.93	72.5833	2,731.93	72.6301	2,731.93	70.7783	2,731.93	70.7379	2,731.93	71.9581	2,731.93	72.2614	2,731.93	72.7506	2,731.93	70.6471	2,731.93	71.9509	2,731.93	71.022	2,731.93	66.368	2,731.93	68.5368	2,731.93	66.6407
2,828.61	85.9055	2,828.61	85.8169	2,828.61	85.7534	2,828.61	86.0468	2,828.61	86.3245	2,828.61	85.8813	2,828.61	86.0489	2,828.61	85.1185	2,828.61	85.6134	2,828.61	82.8934	2,828.61	84.3155	2,828.61	81.6861	2,828.61	82.908	2,828.61	80.1907	2,828.61	80.7405	2,828.61	76.5204	2,828.61	79.2785	2,828.61	76.0006	2,828.61	75.8771	2,828.61	74.6569	2,828.61	74.5808	2,828.61	70.1521	2,828.61	73.8834	2,828.61	72.2939	2,828.61	72.8968	2,828.61	69.9232	2,828.61	71.9062	2,828.61	72.5309	2,828.61	73.2769	2,828.61	72.3019	2,828.61	72.4891	2,828.61	71.5787	2,828.61	72.9264	2,828.61	66.9679	2,828.61	67.7187	2,828.61	66.437
2,928.22	86.44	2,928.22	86.5205	2,928.22	86.9313	2,928.22	87.121	2,928.22	87.0421	2,928.22	86.8977	2,928.22	87.0646	2,928.22	86.0262	2,928.22	86.3434	2,928.22	84.4786	2,928.22	85.3138	2,928.22	82.9379	2,928.22	83.8533	2,928.22	80.1609	2,928.22	81.5464	2,928.22	77.7887	2,928.22	79.8524	2,928.22	77.0635	2,928.22	77.6432	2,928.22	74.0784	2,928.22	75.4643	2,928.22	72.9329	2,928.22	73.2848	2,928.22	70.9783	2,928.22	71.6115	2,928.22	71.7377	2,928.22	72.1323	2,928.22	73.2748	2,928.22	72.3664	2,928.22	72.2011	2,928.22	73.171	2,928.22	73.3308	2,928.22	73.3322	2,928.22	64.0927	2,928.22	68.0409	2,928.22	67.6798
3,030.76	86.5782	3,030.76	86.6404	3,030.76	87.2876	3,030.76	87.1105	3,030.76	86.9253	3,030.76	87.3335	3,030.76	87.4433	3,030.76	86.4867	3,030.76	86.8456	3,030.76	85.779	3,030.76	85.5044	3,030.76	84.2153	3,030.76	83.7489	3,030.76	80.9002	3,030.76	81.6563	3,030.76	80.1356	3,030.76	80.2053	3,030.76	76.5955	3,030.76	77.5695	3,030.76	75.9862	3,030.76	75.7443	3,030.76	73.5175	3,030.76	73.721	3,030.76	72.2391	3,030.76	72.5447	3,030.76	71.585	3,030.76	72.0506	3,030.76	73.2344	3,030.76	72.8924	3,030.76	72.083	3,030.76	72.5598	3,030.76	73.2467	3,030.76	73.2607	3,030.76	69.7433	3,030.76	68.7487	3,030.76	69.3027
3,137.7	86.4042	3,137.7	87.0854	3,137.7	86.7796	3,137.7	87.4614	3,137.7	87.5018	3,137.7	87.4626	3,137.7	87.4805	3,137.7	87.2135	3,137.7	87.0192	3,137.7	86.3904	3,137.7	85.7019	3,137.7	84.444	3,137.7	83.8431	3,137.7	82.7833	3,137.7	82.2923	3,137.7	80.5686	3,137.7	79.9828	3,137.7	78.2564	3,137.7	78.1376	3,137.7	76.1602	3,137.7	76.4597	3,137.7	74.0616	3,137.7	74.4841	3,137.7	73.8686	3,137.7	73.3571	3,137.7	71.4006	3,137.7	71.9059	3,137.7	73.8952	3,137.7	72.8457	3,137.7	73.5321	3,137.7	74.0747	3,137.7	74.0501	3,137.7	73.2684	3,137.7	68.9967	3,137.7	66.2921	3,137.7	70.4027
3,249.02	87.1688	3,249.02	87.3694	3,249.02	87.2362	3,249.02	87.2786	3,249.02	87.7167	3,249.02	87.1756	3,249.02	87.6244	3,249.02	86.4203	3,249.02	87.3064	3,249.02	85.4146	3,249.02	86.3784	3,249.02	83.6482	3,249.02	84.8048	3,249.02	82.5837	3,249.02	82.7311	3,249.02	80.5246	3,249.02	80.9267	3,249.02	78.228	3,249.02	78.8922	3,249.02	76.2699	3,249.02	76.5927	3,249.02	74.1255	3,249.02	74.8738	3,249.02	72.7926	3,249.02	73.6582	3,249.02	72.861	3,249.02	73.5022	3,249.02	73.2351	3,249.02	73.4808	3,249.02	73.8135	3,249.02	74.6002	3,249.02	75.0117	3,249.02	74.0554	3,249.02	67.5598	3,249.02	69.8515	3,249.02	69.5492
3,363.28	88.2024	3,363.28	88.1886	3,363.28	87.9581	3,363.28	88.086	3,363.28	88.365	3,363.28	87.5535	3,363.28	88.1462	3,363.28	87.3456	3,363.28	87.448	3,363.28	85.2504	3,363.28	86.083	3,363.28	83.6519	3,363.28	85.16	3,363.28	81.7316	3,363.28	83.332	3,363.28	79.3054	3,363.28	80.4345	3,363.28	77.684	3,363.28	78.1287	3,363.28	75.4124	3,363.28	76.1891	3,363.28	73.552	3,363.28	74.0092	3,363.28	71.174	3,363.28	73.5342	3,363.28	72.2925	3,363.28	73.2586	3,363.28	72.4315	3,363.28	72.6299	3,363.28	72.2436	3,363.28	74.9014	3,363.28	73.7841	3,363.28	74.4612	3,363.28	63.2424	3,363.28	68.0267	3,363.28	64.6826
3,481.93	88.9532	3,481.93	88.5818	3,481.93	89.3287	3,481.93	88.4687	3,481.93	88.2619	3,481.93	88.2319	3,481.93	87.9216	3,481.93	87.1104	3,481.93	87.1424	3,481.93	85.9368	3,481.93	86.3794	3,481.93	84.1427	3,481.93	84.9109	3,481.93	82.1959	3,481.93	82.6719	3,481.93	80.495	3,481.93	80.3592	3,481.93	77.3734	3,481.93	78.6679	3,481.93	76.0633	3,481.93	75.9359	3,481.93	73.5878	3,481.93	73.9144	3,481.93	71.7358	3,481.93	73.5646	3,481.93	72.828	3,481.93	72.3429	3,481.93	72.4689	3,481.93	70.9999	3,481.93	73.6965	3,481.93	73.1726	3,481.93	73.771	3,481.93	73.2947	3,481.93	66.386	3,481.93	68.3367	3,481.93	67.8274
3,604.98	89.1923	3,604.98	88.5114	3,604.98	89.329	3,604.98	88.004	3,604.98	88.2575	3,604.98	87.7701	3,604.98	88.071	3,604.98	86.5436	3,604.98	87.6026	3,604.98	86.02	3,604.98	86.8302	3,604.98	84.641	3,604.98	85.3081	3,604.98	82.6401	3,604.98	83.0293	3,604.98	80.092	3,604.98	81.4716	3,604.98	77.3935	3,604.98	79.4292	3,604.98	76.4966	3,604.98	77.129	3,604.98	73.7796	3,604.98	73.7995	3,604.98	72.8626	3,604.98	73.596	3,604.98	73.0706	3,604.98	73.4396	3,604.98	72.2339	3,604.98	73.1271	3,604.98	72.9113	3,604.98	73.7627	3,604.98	74.2076	3,604.98	73.043	3,604.98	67.6557	3,604.98	67.7777	3,604.98	68.339
3,732.42	88.7821	3,732.42	88.8591	3,732.42	88.5891	3,732.42	88.1437	3,732.42	88.9212	3,732.42	87.2447	3,732.42	87.9214	3,732.42	87.4546	3,732.42	88.1681	3,732.42	86.5248	3,732.42	86.9024	3,732.42	84.9644	3,732.42	85.0775	3,732.42	82.7803	3,732.42	83.16	3,732.42	79.3436	3,732.42	80.5947	3,732.42	78.5065	3,732.42	78.8048	3,732.42	75.6592	3,732.42	75.9474	3,732.42	73.8764	3,732.42	74.0195	3,732.42	73.3918	3,732.42	73.696	3,732.42	70.9088	3,732.42	70.975	3,732.42	72.0408	3,732.42	72.7854	3,732.42	74.7775	3,732.42	74.6364	3,732.42	73.2108	3,732.42	72.431	3,732.42	67.4812	3,732.42	68.4658	3,732.42	66.3406
3,864.26	87.8551	3,864.26	87.8898	3,864.26	87.4155	3,864.26	87.2012	3,864.26	86.8747	3,864.26	86.9602	3,864.26	86.4489	3,864.26	87.1693	3,864.26	85.9087	3,864.26	85.7712	3,864.26	85.3959	3,864.26	84.6481	3,864.26	83.9712	3,864.26	82.3837	3,864.26	82.1882	3,864.26	79.6672	3,864.26	80.3797	3,864.26	78.1565	3,864.26	77.9123	3,864.26	75.2203	3,864.26	74.771	3,864.26	74.2948	3,864.26	74.1689	3,864.26	73.0364	3,864.26	70.4929	3,864.26	69.4301	3,864.26	70.5568	3,864.26	71.9813	3,864.26	71.6312	3,864.26	74.1613	3,864.26	73.2683	3,864.26	73.0982	3,864.26	72.4849	3,864.26	62.8611	3,864.26	69.0577	3,864.26	65.5022
4,000.49	87.5167	4,000.49	86.4846	4,000.49	87.664	4,000.49	86.0898	4,000.49	85.719	4,000.49	86.1449	4,000.49	86.2167	4,000.49	85.4012	4,000.49	85.8008	4,000.49	84.8647	4,000.49	85.0328	4,000.49	83.6609	4,000.49	84.4379	4,000.49	81.2934	4,000.49	83.1128	4,000.49	79.1524	4,000.49	79.7928	4,000.49	76.3188	4,000.49	77.0219	4,000.49	74.8933	4,000.49	76.3079	4,000.49	74.1416	4,000.49	72.677	4,000.49	71.4361	4,000.49	71.0247	4,000.49	70.854	4,000.49	73.622	4,000.49	69.3217	4,000.49	71.4796	4,000.49	73.0947	4,000.49	74.1299	4,000.49	72.0711	4,000.49	73.5032	4,000.49	68.0042	4,000.49	68.023	4,000.49	56.9485
4,141.11	87.333	4,141.11	86.8559	4,141.11	86.9092	4,141.11	85.4354	4,141.11	86.3711	4,141.11	85.2138	4,141.11	85.7845	4,141.11	85.8803	4,141.11	86.6947	4,141.11	85.4095	4,141.11	86.5827	4,141.11	84.2433	4,141.11	85.0446	4,141.11	82.5254	4,141.11	82.623	4,141.11	80.007	4,141.11	80.6657	4,141.11	76.8629	4,141.11	78.3669	4,141.11	72.9807	4,141.11	75.6005	4,141.11	73.302	4,141.11	73.6841	4,141.11	72.041	4,141.11	71.7	4,141.11	72.9363	4,141.11	71.4759	4,141.11	71.1284	4,141.11	71.0437	4,141.11	73.7891	4,141.11	74.5343	4,141.11	72.6657	4,141.11	73.2579	4,141.11	69.6483	4,141.11	70.1093	4,141.11	62.1012
4,287.6	86.7197	4,287.6	86.213	4,287.6	86.2298	4,287.6	85.1844	4,287.6	86.1875	4,287.6	85.9373	4,287.6	86.2744	4,287.6	87.2791	4,287.6	86.7555	4,287.6	86.6314	4,287.6	86.355	4,287.6	85.0926	4,287.6	84.5708	4,287.6	83.0119	4,287.6	82.3217	4,287.6	80.7027	4,287.6	79.5524	4,287.6	77.3716	4,287.6	78.1549	4,287.6	76.5652	4,287.6	74.9429	4,287.6	74.1206	4,287.6	73.6944	4,287.6	70.2774	4,287.6	71.3223	4,287.6	72.1869	4,287.6	72.647	4,287.6	71.5284	4,287.6	71.5051	4,287.6	73.523	4,287.6	74.1	4,287.6	73.8372	4,287.6	72.4577	4,287.6	68.4223	4,287.6	70.7126	4,287.6	65.1914
4,438.48	87.4763	4,438.48	86.1992	4,438.48	87.1509	4,438.48	86.9369	4,438.48	85.4907	4,438.48	86.5158	4,438.48	86.3433	4,438.48	86.9512	4,438.48	86.3342	4,438.48	86.7392	4,438.48	85.3396	4,438.48	84.6732	4,438.48	84.9321	4,438.48	82.5795	4,438.48	83.152	4,438.48	80.534	4,438.48	81.6872	4,438.48	77.4472	4,438.48	78.0765	4,438.48	76.662	4,438.48	76.3877	4,438.48	71.5229	4,438.48	72.5882	4,438.48	68.9465	4,438.48	71.1822	4,438.48	72.3086	4,438.48	71.3894	4,438.48	69.1515	4,438.48	71.1056	4,438.48	73.8048	4,438.48	74.1263	4,438.48	72.9775	4,438.48	73.147	4,438.48	65.0706	4,438.48	68.5296	4,438.48	57.8596
4,595.21	86.5212	4,595.21	86.6115	4,595.21	85.8211	4,595.21	84.9858	4,595.21	86.4521	4,595.21	86.2706	4,595.21	85.7875	4,595.21	86.4384	4,595.21	86.7019	4,595.21	85.65	4,595.21	86.7461	4,595.21	84.9788	4,595.21	84.7857	4,595.21	84.1634	4,595.21	82.9913	4,595.21	80.0167	4,595.21	80.2271	4,595.21	77.506	4,595.21	78.2472	4,595.21	73.0456	4,595.21	74.7317	4,595.21	72.7133	4,595.21	71.9622	4,595.21	71.6541	4,595.21	69.9443	4,595.21	70.6063	4,595.21	71.8021	4,595.21	70.9296	4,595.21	70.3308	4,595.21	74.0243	4,595.21	72.3608	4,595.21	71.3762	4,595.21	73.1256	4,595.21	68.6909	4,595.21	69.4617	4,595.21	63.8305
4,756.35	87.7936	4,756.35	87.174	4,756.35	88.5641	4,756.35	87.4766	4,756.35	87.2623	4,756.35	86.1981	4,756.35	87.4633	4,756.35	86.7817	4,756.35	87.1778	4,756.35	85.9075	4,756.35	86.5972	4,756.35	83.7582	4,756.35	85.9206	4,756.35	81.3807	4,756.35	83.6324	4,756.35	79.3737	4,756.35	81.191	4,756.35	77.6132	4,756.35	78.8809	4,756.35	76.5437	4,756.35	76.3074	4,756.35	73.6171	4,756.35	74.3855	4,756.35	71.7664	4,756.35	71.9968	4,756.35	70.595	4,756.35	71.5241	4,756.35	72.031	4,756.35	71.7814	4,756.35	72.3751	4,756.35	72.9803	4,756.35	72.9881	4,756.35	72.6783	4,756.35	66.9045	4,756.35	70.7778	4,756.35	61.8668
4,924.8	88.2572	4,924.8	88.2956	4,924.8	87.808	4,924.8	88.3498	4,924.8	88.0662	4,924.8	87.5489	4,924.8	86.8825	4,924.8	87.339	4,924.8	86.6594	4,924.8	86.5361	4,924.8	85.8449	4,924.8	85.4426	4,924.8	84.5476	4,924.8	82.8769	4,924.8	83.3265	4,924.8	81.4584	4,924.8	80.0962	4,924.8	77.8464	4,924.8	78.8033	4,924.8	76.3187	4,924.8	75.4993	4,924.8	72.1318	4,924.8	72.276	4,924.8	70.0274	4,924.8	70.2583	4,924.8	70.8063	4,924.8	71.2029	4,924.8	71.1999	4,924.8	71.1987	4,924.8	73.5526	4,924.8	72.4573	4,924.8	73.1238	4,924.8	73.5725	4,924.8	67.7574	4,924.8	68.8094	4,924.8	57.3833
5,097.66	87.9495	5,097.66	87.7977	5,097.66	88.2948	5,097.66	87.1169	5,097.66	87.8557	5,097.66	85.7185	5,097.66	86.2914	5,097.66	84.5649	5,097.66	86.3601	5,097.66	84.4088	5,097.66	86.4876	5,097.66	83.7084	5,097.66	84.9133	5,097.66	83.223	5,097.66	82.8448	5,097.66	80.6675	5,097.66	81.2384	5,097.66	79.4488	5,097.66	78.5794	5,097.66	73.7055	5,097.66	74.6457	5,097.66	73.5445	5,097.66	73.0356	5,097.66	72.6611	5,097.66	72.4612	5,097.66	74.0436	5,097.66	69.6027	5,097.66	69.8411	5,097.66	71.839	5,097.66	73.3989	5,097.66	74.0811	5,097.66	71.9196	5,097.66	72.4162	5,097.66	64.2697	5,097.66	69.6575	5,097.66	64.0496
5,277.83	87.9704	5,277.83	88.6811	5,277.83	88.5172	5,277.83	88.0488	5,277.83	87.6695	5,277.83	86.1837	5,277.83	86.6695	5,277.83	85.2799	5,277.83	84.9315	5,277.83	84.8074	5,277.83	84.6266	5,277.83	84.5114	5,277.83	84.8416	5,277.83	82.1973	5,277.83	83.5519	5,277.83	78.8406	5,277.83	78.5917	5,277.83	76.1895	5,277.83	77.1716	5,277.83	73.8582	5,277.83	74.8113	5,277.83	70.088	5,277.83	73.7098	5,277.83	70.7539	5,277.83	70.4666	5,277.83	72.9517	5,277.83	69.5956	5,277.83	71.0972	5,277.83	70.1359	5,277.83	71.18	5,277.83	72.7449	5,277.83	70.4832	5,277.83	72.7001	5,277.83	66.5062	5,277.83	68.4856	5,277.83	59.9452
5,463.87	87.6182	5,463.87	87.7642	5,463.87	87.9452	5,463.87	87.0774	5,463.87	87.8832	5,463.87	85.6876	5,463.87	85.5865	5,463.87	85.0963	5,463.87	84.8799	5,463.87	84.7307	5,463.87	85.4841	5,463.87	84.4966	5,463.87	84.4009	5,463.87	82.4294	5,463.87	81.5535	5,463.87	80.9436	5,463.87	80.7042	5,463.87	76.5681	5,463.87	76.4986	5,463.87	74.6921	5,463.87	74.6374	5,463.87	72.3862	5,463.87	70.8727	5,463.87	71.1897	5,463.87	70.4391	5,463.87	70.0414	5,463.87	69.9772	5,463.87	71.1756	5,463.87	70.8342	5,463.87	72.189	5,463.87	72.4359	5,463.87	71.7654	5,463.87	72.6528	5,463.87	67.9292	5,463.87	70.1923	5,463.87	62.2038
5,657.23	87.7493	5,657.23	87.924	5,657.23	88.4109	5,657.23	87.2916	5,657.23	87.3734	5,657.23	85.3602	5,657.23	85.9611	5,657.23	84.6794	5,657.23	84.7019	5,657.23	84.8295	5,657.23	84.3742	5,657.23	83.3602	5,657.23	83.8981	5,657.23	82.1119	5,657.23	82.5909	5,657.23	77.5672	5,657.23	79.5084	5,657.23	75.1458	5,657.23	76.3814	5,657.23	70.355	5,657.23	73.2864	5,657.23	68.6921	5,657.23	72.04	5,657.23	68.6473	5,657.23	68.8641	5,657.23	69.8184	5,657.23	68.2152	5,657.23	68.3595	5,657.23	67.8854	5,657.23	69.9353	5,657.23	70.579	5,657.23	71.6115	5,657.23	71.9072	5,657.23	63.2161	5,657.23	67.6198	5,657.23	62.4643
5,856.45	88.0219	5,856.45	87.9724	5,856.45	87.8775	5,856.45	86.948	5,856.45	87.5463	5,856.45	85.1509	5,856.45	85.7847	5,856.45	85.3232	5,856.45	85.977	5,856.45	84.9117	5,856.45	85.001	5,856.45	83.0445	5,856.45	83.5844	5,856.45	80.2169	5,856.45	80.3382	5,856.45	77.9303	5,856.45	78.4264	5,856.45	74.8045	5,856.45	76.2518	5,856.45	74.1316	5,856.45	72.0544	5,856.45	70.0784	5,856.45	69.3272	5,856.45	66.7475	5,856.45	66.9659	5,856.45	61.7985	5,856.45	68.346	5,856.45	68.384	5,856.45	67.7179	5,856.45	71.2952	5,856.45	71.3065	5,856.45	70.4376	5,856.45	70.7714	5,856.45	66.6863	5,856.45	67.796	5,856.45	58.1921
6,062.99	88.2303	6,062.99	88.1337	6,062.99	88.5388	6,062.99	87.2725	6,062.99	87.6243	6,062.99	86.4508	6,062.99	86.4075	6,062.99	85.7664	6,062.99	85.326	6,062.99	84.9751	6,062.99	84.8628	6,062.99	83.4248	6,062.99	83.5852	6,062.99	80.8989	6,062.99	81.3795	6,062.99	77.7588	6,062.99	78.9138	6,062.99	74.7184	6,062.99	76.3187	6,062.99	73.1511	6,062.99	72.0753	6,062.99	71.6801	6,062.99	70.8366	6,062.99	67.4287	6,062.99	67.7698	6,062.99	65.8274	6,062.99	67.7028	6,062.99	63.8445	6,062.99	68.4687	6,062.99	68.2356	6,062.99	70.2899	6,062.99	71.3457	6,062.99	71.9938	6,062.99	62.9488	6,062.99	64.5544	6,062.99	60.1074
6,276.86	88.1395	6,276.86	87.7171	6,276.86	87.7074	6,276.86	87.1508	6,276.86	87.5487	6,276.86	86.0239	6,276.86	86.7165	6,276.86	85.6615	6,276.86	85.6868	6,276.86	83.7311	6,276.86	84.1947	6,276.86	82.4934	6,276.86	82.6226	6,276.86	80.8307	6,276.86	80.434	6,276.86	78.7677	6,276.86	77.9855	6,276.86	75.9866	6,276.86	75.0222	6,276.86	72.3088	6,276.86	73.4257	6,276.86	69.8563	6,276.86	67.8123	6,276.86	67.9305	6,276.86	65.6881	6,276.86	67.201	6,276.86	67.4666	6,276.86	69.5376	6,276.86	68.356	6,276.86	70.0779	6,276.86	69.666	6,276.86	70.8676	6,276.86	70.8514	6,276.86	63.3839	6,276.86	65.2144	6,276.86	60.7105
6,498.05	87.9502	6,498.05	87.3822	6,498.05	87.5211	6,498.05	86.8775	6,498.05	87.1227	6,498.05	86.9262	6,498.05	86.9475	6,498.05	85.6773	6,498.05	85.5825	6,498.05	83.8684	6,498.05	84.5514	6,498.05	82.7812	6,498.05	82.9091	6,498.05	80.2486	6,498.05	81.3888	6,498.05	78.1136	6,498.05	77.9812	6,498.05	74.8011	6,498.05	75.5356	6,498.05	71.2331	6,498.05	71.936	6,498.05	69.184	6,498.05	69.2013	6,498.05	67.0471	6,498.05	67.5694	6,498.05	66.2677	6,498.05	67.6989	6,498.05	68.3419	6,498.05	68.214	6,498.05	70.2406	6,498.05	68.6562	6,498.05	69.4136	6,498.05	70.0375	6,498.05	64.3673	6,498.05	63.9164	6,498.05	59.1016
6,726.56	88.5927	6,726.56	87.1491	6,726.56	87.4386	6,726.56	87.03	6,726.56	86.9847	6,726.56	86.8376	6,726.56	87.1665	6,726.56	85.3829	6,726.56	85.3527	6,726.56	84.1425	6,726.56	83.2237	6,726.56	82.7085	6,726.56	82.9827	6,726.56	82.018	6,726.56	81.3445	6,726.56	79.038	6,726.56	78.6614	6,726.56	76.6721	6,726.56	76.0131	6,726.56	73.1105	6,726.56	73.0473	6,726.56	69.2718	6,726.56	69.4589	6,726.56	67.9821	6,726.56	67.1952	6,726.56	66.9465	6,726.56	61.4891	6,726.56	68.7989	6,726.56	65.7438	6,726.56	71.4605	6,726.56	70.3445	6,726.56	70.6126	6,726.56	70.957	6,726.56	64.2817	6,726.56	63.9067	6,726.56	61.3759
6,963.87	88.0451	6,963.87	86.6868	6,963.87	87.1313	6,963.87	86.4615	6,963.87	86.8221	6,963.87	86.0957	6,963.87	86.7756	6,963.87	84.2297	6,963.87	84.5638	6,963.87	83.2009	6,963.87	83.7905	6,963.87	82.8866	6,963.87	83.1379	6,963.87	81.3432	6,963.87	81.1075	6,963.87	77.8682	6,963.87	78.8084	6,963.87	74.7481	6,963.87	75.8403	6,963.87	72.3689	6,963.87	72.7596	6,963.87	68.8631	6,963.87	68.6956	6,963.87	67.2105	6,963.87	65.2708	6,963.87	65.7839	6,963.87	65.8111	6,963.87	67.6736	6,963.87	65.1685	6,963.87	69.8624	6,963.87	68.1521	6,963.87	68.8365	6,963.87	69.7309	6,963.87	63.5132	6,963.87	63.6349	6,963.87	61.1129
7,209.96	87.4701	7,209.96	86.4454	7,209.96	86.5781	7,209.96	86.294	7,209.96	86.6175	7,209.96	85.8973	7,209.96	86.4141	7,209.96	84.3746	7,209.96	84.2729	7,209.96	84.0696	7,209.96	83.1027	7,209.96	83.2377	7,209.96	83.1285	7,209.96	81.2464	7,209.96	81.5542	7,209.96	78.1527	7,209.96	78.7114	7,209.96	75.4721	7,209.96	75.0018	7,209.96	71.9208	7,209.96	72.225	7,209.96	70.6199	7,209.96	69.8917	7,209.96	64.8085	7,209.96	66.0144	7,209.96	64.5116	7,209.96	61.0811	7,209.96	65.7224	7,209.96	64.6859	7,209.96	69.5627	7,209.96	68.465	7,209.96	68.5689	7,209.96	69.4156	7,209.96	62.9037	7,209.96	62.747	7,209.96	60.5487
7,464.84	87.265	7,464.84	86.4745	7,464.84	86.5858	7,464.84	86.4568	7,464.84	86.0192	7,464.84	85.7595	7,464.84	85.0461	7,464.84	84.0647	7,464.84	83.6315	7,464.84	83.0579	7,464.84	82.6058	7,464.84	82.4879	7,464.84	82.3268	7,464.84	80.0208	7,464.84	80.2948	7,464.84	76.702	7,464.84	76.8174	7,464.84	72.7087	7,464.84	73.3314	7,464.84	69.7258	7,464.84	69.9768	7,464.84	65.578	7,464.84	67.0589	7,464.84	63.2579	7,464.84	63.7442	7,464.84	61.0947	7,464.84	62.0082	7,464.84	64.2535	7,464.84	64.6903	7,464.84	69.619	7,464.84	67.5281	7,464.84	67.0752	7,464.84	69.3774	7,464.84	61.6463	7,464.84	59.284	7,464.84	60.7088
7,727.05	86.6492	7,727.05	86.6642	7,727.05	86.6801	7,727.05	86.1438	7,727.05	86.4011	7,727.05	84.5482	7,727.05	85.0548	7,727.05	83.6089	7,727.05	83.9767	7,727.05	82.759	7,727.05	83.048	7,727.05	81.1196	7,727.05	81.5485	7,727.05	78.7232	7,727.05	79.8282	7,727.05	75.997	7,727.05	75.572	7,727.05	73.1581	7,727.05	73.4872	7,727.05	69.7557	7,727.05	70.4026	7,727.05	67.1002	7,727.05	67.38	7,727.05	62.0914	7,727.05	60.6688	7,727.05	63.3146	7,727.05	62.8488	7,727.05	65.395	7,727.05	62.9465	7,727.05	68.6442	7,727.05	68.2939	7,727.05	67.7004	7,727.05	69.1337	7,727.05	55.4623	7,727.05	60.2767	7,727.05	60.7018
7,999.51	86.0175	7,999.51	86.8675	7,999.51	86.9241	7,999.51	85.5241	7,999.51	85.7819	7,999.51	84.4892	7,999.51	84.2974	7,999.51	84.5319	7,999.51	83.9323	7,999.51	83.22	7,999.51	82.8397	7,999.51	81.2056	7,999.51	80.9525	7,999.51	78.8414	7,999.51	79.0265	7,999.51	76.4972	7,999.51	75.8099	7,999.51	74.0333	7,999.51	73.1294	7,999.51	70.0194	7,999.51	69.9326	7,999.51	65.7534	7,999.51	66.6939	7,999.51	64.2715	7,999.51	62.5718	7,999.51	61.502	7,999.51	63.5996	7,999.51	63.6761	7,999.51	62.9739	7,999.51	66.189	7,999.51	66.4906	7,999.51	66.8551	7,999.51	69.0541	7,999.51	59.7788	7,999.51	50.893	7,999.51	57.889
8,282.23	85.5938	8,282.23	86.6586	8,282.23	87.0598	8,282.23	85.17	8,282.23	85.2211	8,282.23	84.2413	8,282.23	84.2423	8,282.23	84.2354	8,282.23	84.3428	8,282.23	82.194	8,282.23	82.2885	8,282.23	80.4561	8,282.23	81.0103	8,282.23	78.8792	8,282.23	78.9412	8,282.23	76.5374	8,282.23	77.2513	8,282.23	72.2193	8,282.23	74.0623	8,282.23	69.7587	8,282.23	69.9842	8,282.23	65.9198	8,282.23	66.7542	8,282.23	64.4119	8,282.23	61.5988	8,282.23	62.2864	8,282.23	62.616	8,282.23	64.2983	8,282.23	63.1409	8,282.23	67.0404	8,282.23	66.572	8,282.23	67.2552	8,282.23	68.8125	8,282.23	56.7794	8,282.23	57.5079	8,282.23	60.2975
8,573.73	85.6535	8,573.73	86.9818	8,573.73	86.9876	8,573.73	85.001	8,573.73	85.2248	8,573.73	84.2951	8,573.73	84.2581	8,573.73	84.2242	8,573.73	83.6353	8,573.73	81.3705	8,573.73	81.9729	8,573.73	81.0796	8,573.73	81.1547	8,573.73	79.6243	8,573.73	79.8077	8,573.73	76.8962	8,573.73	77.0105	8,573.73	73.933	8,573.73	73.7243	8,573.73	69.9808	8,573.73	69.6312	8,573.73	66.7659	8,573.73	66.4258	8,573.73	63.6994	8,573.73	62.1879	8,573.73	63.9588	8,573.73	62.612	8,573.73	61.7886	8,573.73	62.9995	8,573.73	67.2617	8,573.73	67.2947	8,573.73	65.8217	8,573.73	68.9725	8,573.73	58.9527	8,573.73	55.6543	8,573.73	61.2348
8,876.95	86.1784	8,876.95	86.4436	8,876.95	86.5527	8,876.95	84.3167	8,876.95	84.9026	8,876.95	83.5611	8,876.95	84.24	8,876.95	83.0968	8,876.95	83.3709	8,876.95	81.7297	8,876.95	81.6237	8,876.95	81.1466	8,876.95	81.3913	8,876.95	79.2748	8,876.95	79.2769	8,876.95	75.8342	8,876.95	76.6626	8,876.95	72.4353	8,876.95	72.9809	8,876.95	69.063	8,876.95	67.9844	8,876.95	66.6075	8,876.95	65.1869	8,876.95	63.2116	8,876.95	60.8396	8,876.95	62.7863	8,876.95	61.2595	8,876.95	61.7236	8,876.95	62.2034	8,876.95	66.4492	8,876.95	64.9616	8,876.95	63.8408	8,876.95	67.5956	8,876.95	55.8642	8,876.95	56.4029	8,876.95	57.9381
9,188.96	87.135	9,188.96	86.4102	9,188.96	86.6574	9,188.96	85.1674	9,188.96	85.617	9,188.96	83.5439	9,188.96	84.1374	9,188.96	82.5851	9,188.96	82.6283	9,188.96	81.4189	9,188.96	81.6789	9,188.96	80.5671	9,188.96	80.8112	9,188.96	78.3961	9,188.96	78.236	9,188.96	74.5799	9,188.96	75.1416	9,188.96	70.9473	9,188.96	71.0873	9,188.96	67.01	9,188.96	67.6726	9,188.96	64.7904	9,188.96	64.6528	9,188.96	62.7118	9,188.96	59.0129	9,188.96	59.5239	9,188.96	59.9422	9,188.96	59.7164	9,188.96	60.8968	9,188.96	64.2004	9,188.96	63.9178	9,188.96	62.5084	9,188.96	66.1851	9,188.96	57.5036	9,188.96	57.0023	9,188.96	56.5019
9,514.16	88.0305	9,514.16	86.7428	9,514.16	86.8373	9,514.16	86.0873	9,514.16	86.4485	9,514.16	83.4459	9,514.16	84.1274	9,514.16	82.0892	9,514.16	82.5362	9,514.16	80.9592	9,514.16	81.754	9,514.16	78.8912	9,514.16	80.2129	9,514.16	77.0795	9,514.16	77.7233	9,514.16	72.5417	9,514.16	73.6554	9,514.16	68.831	9,514.16	69.5129	9,514.16	65.7442	9,514.16	66.8971	9,514.16	63.0241	9,514.16	63.3661	9,514.16	60.2317	9,514.16	59.1885	9,514.16	58.3117	9,514.16	54.7705	9,514.16	58.1905	9,514.16	57.8575	9,514.16	61.5286	9,514.16	61.108	9,514.16	60.6516	9,514.16	64.0872	9,514.16	51.8532	9,514.16	54.7184	9,514.16	54.7599
9,849.61	88.617	9,849.61	86.9912	9,849.61	87.2192	9,849.61	86.4937	9,849.61	86.9993	9,849.61	83.4272	9,849.61	84.1966	9,849.61	82.3078	9,849.61	82.5341	9,849.61	80.552	9,849.61	81.0877	9,849.61	77.8411	9,849.61	78.8501	9,849.61	75.6182	9,849.61	76.2361	9,849.61	71.8158	9,849.61	72.9256	9,849.61	67.8131	9,849.61	69.0035	9,849.61	65.461	9,849.61	64.6533	9,849.61	60.6078	9,849.61	61.7241	9,849.61	58.1721	9,849.61	59.2648	9,849.61	52.8794	9,849.61	57.4375	9,849.61	54.4401	9,849.61	52.6222	9,849.61	60.1845	9,849.61	60.1173	9,849.61	58.4885	9,849.61	63.4542	9,849.61	51.9032	9,849.61	54.7784	9,849.61	48.8012
10,196.8	88.9802	10,196.8	87.4979	10,196.8	87.7134	10,196.8	86.797	10,196.8	87.4038	10,196.8	83.6236	10,196.8	84.4849	10,196.8	82.4316	10,196.8	82.7548	10,196.8	79.9137	10,196.8	80.4561	10,196.8	77.7395	10,196.8	78.2656	10,196.8	75.136	10,196.8	75.7392	10,196.8	71.3218	10,196.8	72.4409	10,196.8	68.32	10,196.8	67.6843	10,196.8	64.6673	10,196.8	64.1729	10,196.8	60.5645	10,196.8	61.5522	10,196.8	55.8721	10,196.8	58.8394	10,196.8	50.0814	10,196.8	56.8746	10,196.8	52.4873	10,196.8	53.8717	10,196.8	57.3329	10,196.8	59.1253	10,196.8	55.8197	10,196.8	61.802	10,196.8	54.4393	10,196.8	54.7443	10,196.8	52.3986
10,555.7	88.9743	10,555.7	87.878	10,555.7	87.9819	10,555.7	86.7839	10,555.7	87.2719	10,555.7	84.0391	10,555.7	84.2893	10,555.7	82.3311	10,555.7	82.4482	10,555.7	79.3633	10,555.7	79.4941	10,555.7	77.1753	10,555.7	77.6618	10,555.7	74.5778	10,555.7	75.2073	10,555.7	70.0294	10,555.7	71.0376	10,555.7	67.307	10,555.7	66.813	10,555.7	63.092	10,555.7	62.918	10,555.7	59.6943	10,555.7	60.3816	10,555.7	55.1209	10,555.7	59.5157	10,555.7	51.0465	10,555.7	56.3709	10,555.7	51.6386	10,555.7	53.3915	10,555.7	55.3407	10,555.7	58.7551	10,555.7	48.8734	10,555.7	60.37	10,555.7	54.3487	10,555.7	51.9508	10,555.7	51.9807
10,927.7	89.1587	10,927.7	88.29	10,927.7	88.3612	10,927.7	86.8738	10,927.7	87.1067	10,927.7	84.4472	10,927.7	84.2008	10,927.7	81.5829	10,927.7	81.9614	10,927.7	78.8727	10,927.7	78.6007	10,927.7	76.4683	10,927.7	76.953	10,927.7	73.2535	10,927.7	73.8875	10,927.7	69.1095	10,927.7	69.3805	10,927.7	66.5028	10,927.7	64.5779	10,927.7	61.8475	10,927.7	61.892	10,927.7	58.6826	10,927.7	59.2257	10,927.7	52.7537	10,927.7	57.4293	10,927.7	46.2072	10,927.7	52.4303	10,927.7	50.6055	10,927.7	50.2132	10,927.7	52.2015	10,927.7	55.9761	10,927.7	47.0274	10,927.7	58.8002	10,927.7	49.7722	10,927.7	50.7072	10,927.7	51.715
11,313	89.2764	11,313	88.6227	11,313	88.6581	11,313	86.911	11,313	87.0815	11,313	84.4907	11,313	84.4635	11,313	80.9378	11,313	81.5601	11,313	78.4965	11,313	78.3825	11,313	75.6296	11,313	75.8202	11,313	72.5161	11,313	71.2722	11,313	69.3591	11,313	67.1359	11,313	64.8336	11,313	63.4321	11,313	60.8301	11,313	60.5919	11,313	58.2339	11,313	58.3813	11,313	52.0095	11,313	55.1031	11,313	39.3273	11,313	53.0428	11,313	46.1006	11,313	48.5061	11,313	50.4154	11,313	55.6534	11,313	47.2718	11,313	57.254	11,313	52.6156	11,313	53.1534	11,313	50.8697
11,712.9	89.555	11,712.9	89.0363	11,712.9	89.0204	11,712.9	86.9759	11,712.9	87.0393	11,712.9	84.5712	11,712.9	84.4894	11,712.9	80.5984	11,712.9	80.9661	11,712.9	78.1297	11,712.9	77.8923	11,712.9	74.5235	11,712.9	74.7145	11,712.9	71.8326	11,712.9	70.2958	11,712.9	69.493	11,712.9	67.1756	11,712.9	64.9206	11,712.9	64.1299	11,712.9	61.4108	11,712.9	61.7333	11,712.9	59.2665	11,712.9	58.2916	11,712.9	53.7541	11,712.9	54.6565	11,712.9	48.4261	11,712.9	53.4224	11,712.9	45.8031	11,712.9	48.6676	11,712.9	50.0589	11,712.9	56.0289	11,712.9	47.7108	11,712.9	57.3066	11,712.9	53.3329	11,712.9	51.4539	11,712.9	50.2664
12,126	89.6367	12,126	89.155	12,126	89.1489	12,126	86.9766	12,126	86.9153	12,126	84.508	12,126	84.3674	12,126	80.384	12,126	80.3654	12,126	77.2686	12,126	76.8968	12,126	73.909	12,126	73.1595	12,126	72.061	12,126	70.3491	12,126	69.6212	12,126	67.9178	12,126	65.2748	12,126	65.3492	12,126	61.6902	12,126	61.2443	12,126	60.7982	12,126	58.1399	12,126	54.5141	12,126	55.4566	12,126	51.396	12,126	49.9707	12,126	46.8223	12,126	48.6405	12,126	44.7307	12,126	56.4105	12,126	46.3315	12,126	55.8537	12,126	53.2011	12,126	47.7347	12,126	50.9111
12,553.7	89.499	12,553.7	88.9905	12,553.7	88.9657	12,553.7	86.7271	12,553.7	86.4597	12,553.7	83.9161	12,553.7	84.0441	12,553.7	80.1553	12,553.7	79.7375	12,553.7	76.1166	12,553.7	75.4535	12,553.7	73.791	12,553.7	72.2433	12,553.7	72.5618	12,553.7	70.7025	12,553.7	70.5494	12,553.7	69.2219	12,553.7	65.8386	12,553.7	66.5089	12,553.7	63.7388	12,553.7	61.7442	12,553.7	61.9353	12,553.7	58.9959	12,553.7	55.1448	12,553.7	55.7965	12,553.7	52.911	12,553.7	47.6222	12,553.7	40.9709	12,553.7	46.2898	12,553.7	44.1503	12,553.7	56.9284	12,553.7	49.5637	12,553.7	55.0962	12,553.7	52.5075	12,553.7	48.1645	12,553.7	51.1579
12,996.1	89.1911	12,996.1	88.5936	12,996.1	88.3887	12,996.1	86.4641	12,996.1	85.9878	12,996.1	83.6103	12,996.1	83.7885	12,996.1	79.9977	12,996.1	79.0519	12,996.1	75.3298	12,996.1	74.2766	12,996.1	74.0142	12,996.1	72.1753	12,996.1	73.9835	12,996.1	72.0037	12,996.1	71.45	12,996.1	70.9915	12,996.1	67.9233	12,996.1	67.3593	12,996.1	65.2541	12,996.1	63.184	12,996.1	62.3886	12,996.1	59.3181	12,996.1	56.9401	12,996.1	55.1756	12,996.1	54.8691	12,996.1	49.3881	12,996.1	48.2435	12,996.1	49.5996	12,996.1	42.0912	12,996.1	55.169	12,996.1	52.4892	12,996.1	52.4924	12,996.1	51.8585	12,996.1	39.4309	12,996.1	52.2647
13,454.6	88.3667	13,454.6	87.6804	13,454.6	87.4044	13,454.6	85.8079	13,454.6	85.2768	13,454.6	83.1976	13,454.6	83.5231	13,454.6	79.61	13,454.6	78.5635	13,454.6	74.8391	13,454.6	73.243	13,454.6	74.7739	13,454.6	72.6996	13,454.6	75.2684	13,454.6	74.0084	13,454.6	72.7847	13,454.6	72.3948	13,454.6	69.4221	13,454.6	68.2635	13,454.6	65.5352	13,454.6	64.1075	13,454.6	63.0156	13,454.6	60.4093	13,454.6	57.248	13,454.6	56.3962	13,454.6	56.7788	13,454.6	50.7572	13,454.6	51.234	13,454.6	50.4737	13,454.6	47.0522	13,454.6	56.5126	13,454.6	54.9721	13,454.6	52.1526	13,454.6	50.7428	13,454.6	42.2146	13,454.6	49.0132
13,929.2	87.1062	13,929.2	86.5054	13,929.2	86.0873	13,929.2	85.2901	13,929.2	84.7327	13,929.2	82.5685	13,929.2	83.0334	13,929.2	78.5775	13,929.2	77.9709	13,929.2	75.5519	13,929.2	73.2976	13,929.2	75.78	13,929.2	74.2431	13,929.2	76.0898	13,929.2	74.9672	13,929.2	73.1331	13,929.2	72.641	13,929.2	70.1919	13,929.2	68.3353	13,929.2	66.3535	13,929.2	64.9866	13,929.2	60.9396	13,929.2	60.7031	13,929.2	56.9418	13,929.2	56.1855	13,929.2	55.2165	13,929.2	54.6874	13,929.2	51.7522	13,929.2	50.4497	13,929.2	50.2042	13,929.2	55.8303	13,929.2	57.1388	13,929.2	50.393	13,929.2	53.6401	13,929.2	44.8428	13,929.2	46.51
14,419.9	85.2629	14,419.9	85.6638	14,419.9	84.7317	14,419.9	85.2006	14,419.9	84.3807	14,419.9	82.3805	14,419.9	82.373	14,419.9	78.3862	14,419.9	76.8629	14,419.9	76.7392	14,419.9	74.7902	14,419.9	76.2957	14,419.9	75.1925	14,419.9	76.5911	14,419.9	75.222	14,419.9	73.2873	14,419.9	72.8926	14,419.9	70.4829	14,419.9	68.0993	14,419.9	66.1081	14,419.9	64.0053	14,419.9	60.3271	14,419.9	60.551	14,419.9	54.84	14,419.9	56.7906	14,419.9	55.8802	14,419.9	55.457	14,419.9	49.7432	14,419.9	51.6438	14,419.9	50.4735	14,419.9	54.8438	14,419.9	54.1258	14,419.9	46.9208	14,419.9	51.7924	14,419.9	48.4917	14,419.9	43.9908
14,928.2	83.6683	14,928.2	85.2817	14,928.2	84.0468	14,928.2	85.2616	14,928.2	84.254	14,928.2	82.482	14,928.2	81.3475	14,928.2	79.0883	14,928.2	77.1149	14,928.2	77.8341	14,928.2	76.6014	14,928.2	76.3633	14,928.2	75.4642	14,928.2	75.4787	14,928.2	74.3402	14,928.2	72.3429	14,928.2	70.164	14,928.2	68.7172	14,928.2	65.9448	14,928.2	64.0162	14,928.2	62.3675	14,928.2	59.0568	14,928.2	58.3152	14,928.2	54.6108	14,928.2	53.3855	14,928.2	55.5394	14,928.2	56.0375	14,928.2	49.1974	14,928.2	48.5782	14,928.2	49.2261	14,928.2	53.0696	14,928.2	51.355	14,928.2	39.6233	14,928.2	53.1186	14,928.2	50.7753	14,928.2	35.1512
15,455.6	83.1606	15,455.6	84.7995	15,455.6	84.0201	15,455.6	85.2486	15,455.6	83.8426	15,455.6	82.4625	15,455.6	79.8233	15,455.6	80.3487	15,455.6	77.6841	15,455.6	78.3154	15,455.6	77.2252	15,455.6	75.1141	15,455.6	74.5135	15,455.6	74.083	15,455.6	71.2355	15,455.6	70.0518	15,455.6	66.4635	15,455.6	67.3477	15,455.6	62.5501	15,455.6	62.7727	15,455.6	59.3465	15,455.6	55.5502	15,455.6	55.332	15,455.6	51.6033	15,455.6	50.6241	15,455.6	48.9513	15,455.6	53.7028	15,455.6	49.5403	15,455.6	48.8847	15,455.6	48.017	15,455.6	51.2	15,455.6	39.6577	15,455.6	42.6007	15,455.6	51.2445	15,455.6	54.1727	15,455.6	32.8106
16,000.5	83.8755	16,000.5	84.4012	16,000.5	84.4153	16,000.5	84.575	16,000.5	82.8048	16,000.5	82.4014	16,000.5	78.8915	16,000.5	80.8738	16,000.5	78.3346	16,000.5	77.8028	16,000.5	75.971	16,000.5	73.8249	16,000.5	71.4985	16,000.5	71.6151	16,000.5	67.1299	16,000.5	69.2963	16,000.5	64.4183	16,000.5	65.5017	16,000.5	62.1587	16,000.5	59.5727	16,000.5	58.5011	16,000.5	53.973	16,000.5	53.8459	16,000.5	49.5889	16,000.5	48.9487	16,000.5	49.2088	16,000.5	54.4318	16,000.5	46.2936	16,000.5	46.2669	16,000.5	45.7551	16,000.5	49.923	16,000.5	41.6785	16,000.5	43.7725	16,000.5	48.4798	16,000.5	52.4461	16,000.5	38.8598
16,564.5	84.9122	16,564.5	84.452	16,564.5	84.4293	16,564.5	84.1251	16,564.5	81.9182	16,564.5	82.1468	16,564.5	78.8543	16,564.5	80.5841	16,564.5	78.1749	16,564.5	76.2475	16,564.5	73.6531	16,564.5	70.9522	16,564.5	68.5105	16,564.5	70.6764	16,564.5	67.3452	16,564.5	67.4314	16,564.5	64.3037	16,564.5	64.2655	16,564.5	60.5837	16,564.5	59.0286	16,564.5	58.2813	16,564.5	52.0357	16,564.5	52.6398	16,564.5	46.1202	16,564.5	48.5201	16,564.5	49.1881	16,564.5	53.598	16,564.5	45.2685	16,564.5	43.4699	16,564.5	43.3812	16,564.5	45.2401	16,564.5	47.3605	16,564.5	42.9191	16,564.5	48.0052	16,564.5	50.2732	16,564.5	43.2502
17,148.9	85.6347	17,148.9	84.5593	17,148.9	84.4825	17,148.9	83.6598	17,148.9	81.784	17,148.9	81.7694	17,148.9	79.5398	17,148.9	79.6585	17,148.9	77.4769	17,148.9	74.4203	17,148.9	70.4554	17,148.9	70.1465	17,148.9	67.6526	17,148.9	68.5684	17,148.9	67.7464	17,148.9	65.8191	17,148.9	63.7042	17,148.9	61.2299	17,148.9	60.4408	17,148.9	55.9081	17,148.9	55.5932	17,148.9	50.065	17,148.9	50.0257	17,148.9	48.7046	17,148.9	46.7653	17,148.9	49.909	17,148.9	48.0441	17,148.9	35.0599	17,148.9	32.0356	17,148.9	39.8577	17,148.9	30.7713	17,148.9	50.0516	17,148.9	41.8645	17,148.9	47.1329	17,148.9	46.3185	17,148.9	41.0508
17,752.4	86.006	17,752.4	84.9374	17,752.4	84.5372	17,752.4	83.3967	17,752.4	82.0618	17,752.4	81.3437	17,752.4	79.8968	17,752.4	78.2759	17,752.4	76.0662	17,752.4	72.0878	17,752.4	70.1591	17,752.4	69.1066	17,752.4	69.6422	17,752.4	68.6788	17,752.4	68.4466	17,752.4	64.918	17,752.4	64.3268	17,752.4	61.6362	17,752.4	60.8662	17,752.4	56.2904	17,752.4	55.3481	17,752.4	49.9631	17,752.4	50.7754	17,752.4	47.4904	17,752.4	47.9602	17,752.4	49.9297	17,752.4	50.5105	17,752.4	34.7348	17,752.4	37.9075	17,752.4	40.5242	17,752.4	37.8334	17,752.4	50.1625	17,752.4	37.605	17,752.4	47.9559	17,752.4	35.1802	17,752.4	42.3995
18,379.4	86.0818	18,379.4	84.8066	18,379.4	84.5252	18,379.4	83.1125	18,379.4	82.5449	18,379.4	80.8028	18,379.4	79.8566	18,379.4	76.879	18,379.4	75.419	18,379.4	71.3967	18,379.4	71.4191	18,379.4	69.6636	18,379.4	70.2723	18,379.4	68.8196	18,379.4	67.79	18,379.4	66.0397	18,379.4	63.9733	18,379.4	62.8654	18,379.4	62.1081	18,379.4	57.523	18,379.4	55.8466	18,379.4	51.3092	18,379.4	52.2028	18,379.4	50.2697	18,379.4	49.2326	18,379.4	51.1025	18,379.4	54.0579	18,379.4	40.8025	18,379.4	42.6648	18,379.4	43.0281	18,379.4	44.6064	18,379.4	48.5527	18,379.4	39.4917	18,379.4	46.5978	18,379.4	28.3781	18,379.4	39.7768
19,026.9	85.9587	19,026.9	84.8067	19,026.9	84.4644	19,026.9	82.9919	19,026.9	82.642	19,026.9	80.4504	19,026.9	79.521	19,026.9	76.4216	19,026.9	75.5624	19,026.9	72.1248	19,026.9	72.4888	19,026.9	70.2215	19,026.9	71.1492	19,026.9	69.1795	19,026.9	68.4274	19,026.9	66.883	19,026.9	66.2943	19,026.9	63.0674	19,026.9	63.8294	19,026.9	57.0111	19,026.9	57.7148	19,026.9	51.4044	19,026.9	53.6681	19,026.9	49.0927	19,026.9	50.9538	19,026.9	50.8001	19,026.9	55.5294	19,026.9	43.5073	19,026.9	46.0031	19,026.9	43.9356	19,026.9	47.2343	19,026.9	46.8626	19,026.9	28.5733	19,026.9	44.0006	19,026.9	38.4375	19,026.9	28.7843
19,697.8	85.7935	19,697.8	84.7115	19,697.8	84.3699	19,697.8	82.9105	19,697.8	82.6096	19,697.8	80.3642	19,697.8	79.2526	19,697.8	76.7868	19,697.8	76.1527	19,697.8	72.8378	19,697.8	72.7059	19,697.8	70.9305	19,697.8	71.715	19,697.8	69.8983	19,697.8	69.6412	19,697.8	67.7905	19,697.8	67.7585	19,697.8	63.7981	19,697.8	64.8467	19,697.8	58.4967	19,697.8	58.8945	19,697.8	51.832	19,697.8	54.7648	19,697.8	52.4781	19,697.8	53.0825	19,697.8	51.9558	19,697.8	57.4726	19,697.8	44.3475	19,697.8	47.6591	19,697.8	38.5835	19,697.8	50.1833	19,697.8	43.6648	19,697.8	30.7343	19,697.8	39.6695	19,697.8	40.5902	19,697.8	18.4273
19,999.5	85.7036	19,999.5	84.339	19,999.5	84.4246	19,999.5	82.9761	19,999.5	82.6791	19,999.5	80.3466	19,999.5	79.1744	19,999.5	76.7138	19,999.5	76.5311	19,999.5	72.9873	19,999.5	72.996	19,999.5	71.2537	19,999.5	72.1504	19,999.5	69.9807	19,999.5	71.1554	19,999.5	68.2871	19,999.5	67.9595	19,999.5	60.6376	19,999.5	64.3298	19,999.5	59.8673	19,999.5	58.8047	19,999.5	52.2446	19,999.5	56.0855	19,999.5	45.4867	19,999.5	58.492	19,999.5	50.4763	19,999.5	55.7179	19,999.5	48.0301	19,999.5	45.4594	19,999.5	52.3063	19,999.5	51.6684	19,999.5	42.4654	19,999.5	40.2927	19,999.5	17.0641	19,999.5	51.0649	19,999.5	39.5567
