"SPL Vertical"
"On-Axis"		"10°"		"-10°"		"20°"		"-20°"		"30°"		"-30°"		"40°"		"-40°"		"50°"		"-50°"		"60°"		"-60°"		"70°"		"-70°"		"80°"		"-80°"		"90°"		"-90°"		"100°"		"-100°"		"110°"		"-110°"		"120°"		"-120°"		"130°"		"-130°"		"140°"		"-140°"		"150°"		"-150°"		"160°"		"-160°"		"170°"		"-170°"		"180°"
"Frequency / Hz"	"Sound Pressure Level / dB (re 20 µPa/V)  [2.83  V @ 1. m]"	"Frequency / Hz"	"Sound Pressure Level / dB (re 20 µPa/V)  [2.83  V @ 1. m]"	"Frequency / Hz"	"Sound Pressure Level / dB (re 20 µPa/V)  [2.83  V @ 1. m]"	"Frequency / Hz"	"Sound Pressure Level / dB (re 20 µPa/V)  [2.83  V @ 1. m]"	"Frequency / Hz"	"Sound Pressure Level / dB (re 20 µPa/V)  [2.83  V @ 1. m]"	"Frequency / Hz"	"Sound Pressure Level / dB (re 20 µPa/V)  [2.83  V @ 1. m]"	"Frequency / Hz"	"Sound Pressure Level / dB (re 20 µPa/V)  [2.83  V @ 1. m]"	"Frequency / Hz"	"Sound Pressure Level / dB (re 20 µPa/V)  [2.83  V @ 1. m]"	"Frequency / Hz"	"Sound Pressure Level / dB (re 20 µPa/V)  [2.83  V @ 1. m]"	"Frequency / Hz"	"Sound Pressure Level / dB (re 20 µPa/V)  [2.83  V @ 1. m]"	"Frequency / Hz"	"Sound Pressure Level / dB (re 20 µPa/V)  [2.83  V @ 1. m]"	"Frequency / Hz"	"Sound Pressure Level / dB (re 20 µPa/V)  [2.83  V @ 1. m]"	"Frequency / Hz"	"Sound Pressure Level / dB (re 20 µPa/V)  [2.83  V @ 1. m]"	"Frequency / Hz"	"Sound Pressure Level / dB (re 20 µPa/V)  [2.83  V @ 1. m]"	"Frequency / Hz"	"Sound Pressure Level / dB (re 20 µPa/V)  [2.83  V @ 1. m]"	"Frequency / Hz"	"Sound Pressure Level / dB (re 20 µPa/V)  [2.83  V @ 1. m]"	"Frequency / Hz"	"Sound Pressure Level / dB (re 20 µPa/V)  [2.83  V @ 1. m]"	"Frequency / Hz"	"Sound Pressure Level / dB (re 20 µPa/V)  [2.83  V @ 1. m]"	"Frequency / Hz"	"Sound Pressure Level / dB (re 20 µPa/V)  [2.83  V @ 1. m]"	"Frequency / Hz"	"Sound Pressure Level / dB (re 20 µPa/V)  [2.83  V @ 1. m]"	"Frequency / Hz"	"Sound Pressure Level / dB (re 20 µPa/V)  [2.83  V @ 1. m]"	"Frequency / Hz"	"Sound Pressure Level / dB (re 20 µPa/V)  [2.83  V @ 1. m]"	"Frequency / Hz"	"Sound Pressure Level / dB (re 20 µPa/V)  [2.83  V @ 1. m]"	"Frequency / Hz"	"Sound Pressure Level / dB (re 20 µPa/V)  [2.83  V @ 1. m]"	"Frequency / Hz"	"Sound Pressure Level / dB (re 20 µPa/V)  [2.83  V @ 1. m]"	"Frequency / Hz"	"Sound Pressure Level / dB (re 20 µPa/V)  [2.83  V @ 1. m]"	"Frequency / Hz"	"Sound Pressure Level / dB (re 20 µPa/V)  [2.83  V @ 1. m]"	"Frequency / Hz"	"Sound Pressure Level / dB (re 20 µPa/V)  [2.83  V @ 1. m]"	"Frequency / Hz"	"Sound Pressure Level / dB (re 20 µPa/V)  [2.83  V @ 1. m]"	"Frequency / Hz"	"Sound Pressure Level / dB (re 20 µPa/V)  [2.83  V @ 1. m]"	"Frequency / Hz"	"Sound Pressure Level / dB (re 20 µPa/V)  [2.83  V @ 1. m]"	"Frequency / Hz"	"Sound Pressure Level / dB (re 20 µPa/V)  [2.83  V @ 1. m]"	"Frequency / Hz"	"Sound Pressure Level / dB (re 20 µPa/V)  [2.83  V @ 1. m]"	"Frequency / Hz"	"Sound Pressure Level / dB (re 20 µPa/V)  [2.83  V @ 1. m]"	"Frequency / Hz"	"Sound Pressure Level / dB (re 20 µPa/V)  [2.83  V @ 1. m]"	"Frequency / Hz"	"Sound Pressure Level / dB (re 20 µPa/V)  [2.83  V @ 1. m]"
20.5078	56.2154	20.5078	55.561	20.5078	56.6573	20.5078	54.8018	20.5078	56.8396	20.5078	54.1807	20.5078	56.7325	20.5078	54.0965	20.5078	56.3078	20.5078	54.8419	20.5078	55.5456	20.5078	56.2646	20.5078	54.4915	20.5078	57.968	20.5078	53.4545	20.5078	59.6658	20.5078	53.3007	20.5078	61.2325	20.5078	54.7365	20.5078	62.6283	20.5078	57.0849	20.5078	63.8467	20.5078	59.4585	20.5078	64.8901	20.5078	61.53	20.5078	65.7604	20.5078	63.248	20.5078	66.4567	20.5078	64.632	20.5078	66.9741	20.5078	65.7116	20.5078	67.3044	20.5078	66.5124	20.5078	67.4367	20.5078	67.0555	20.5078	67.3584
21.9727	59.8837	21.9727	59.7049	21.9727	60.0406	21.9727	59.5976	21.9727	60.1153	21.9727	59.678	21.9727	60.0785	21.9727	60.0457	21.9727	59.9318	21.9727	60.7295	21.9727	59.7192	21.9727	61.6716	21.9727	59.5514	21.9727	62.7668	21.9727	59.6182	21.9727	63.9143	21.9727	60.1236	21.9727	65.0413	21.9727	61.1283	21.9727	66.1022	21.9727	62.4843	21.9727	67.0698	21.9727	63.9644	21.9727	67.9264	21.9727	65.3944	21.9727	68.6589	21.9727	66.6776	21.9727	69.2557	21.9727	67.7694	21.9727	69.7049	21.9727	68.653	21.9727	69.9945	21.9727	69.3246	21.9727	70.1123	21.9727	69.787	21.9727	70.0466
23.4375	61.1639	23.4375	60.9185	23.4375	61.3804	23.4375	60.7372	23.4375	61.508	23.4375	60.7381	23.4375	61.5148	23.4375	61.0282	23.4375	61.3959	23.4375	61.6472	23.4375	61.1815	23.4375	62.5434	23.4375	60.9591	23.4375	63.6104	23.4375	60.8948	23.4375	64.7412	23.4375	61.2018	23.4375	65.8573	23.4375	62.0035	23.4375	66.9091	23.4375	63.2149	23.4375	67.8668	23.4375	64.6188	23.4375	68.7119	23.4375	66.019	23.4375	69.431	23.4375	67.297	23.4375	70.0124	23.4375	68.3953	23.4375	70.4448	23.4375	69.2909	23.4375	70.7166	23.4375	69.9772	23.4375	70.8163	23.4375	70.4559	23.4375	70.7328
24.9023	63.559	24.9023	63.4924	24.9023	63.6507	24.9023	63.515	24.9023	63.7195	24.9023	63.6936	24.9023	63.74	24.9023	64.0751	24.9023	63.7129	24.9023	64.6669	24.9023	63.6719	24.9023	65.434	24.9023	63.6904	24.9023	66.3168	24.9023	63.8767	24.9023	67.2528	24.9023	64.3365	24.9023	68.1898	24.9023	65.1089	24.9023	69.0891	24.9023	66.1326	24.9023	69.9229	24.9023	67.285	24.9023	70.6704	24.9023	68.4445	24.9023	71.3152	24.9023	69.5232	24.9023	71.8429	24.9023	70.4677	24.9023	72.2397	24.9023	71.2493	24.9023	72.4929	24.9023	71.8542	24.9023	72.5903	24.9023	72.2778	24.9023	72.5213
26.3672	66.2714	26.3672	66.275	26.3672	66.2908	26.3672	66.3348	26.3672	66.3071	26.3672	66.4859	26.3672	66.3054	26.3672	66.7569	26.3672	66.2858	26.3672	67.1619	26.3672	66.2674	26.3672	67.695	26.3672	66.2928	26.3672	68.3328	26.3672	66.4268	26.3672	69.0409	26.3672	66.7394	26.3672	69.7817	26.3672	67.2742	26.3672	70.5202	26.3672	68.0192	26.3672	71.2263	26.3672	68.9086	26.3672	71.8743	26.3672	69.8532	26.3672	72.4425	26.3672	70.7714	26.3672	72.912	26.3672	71.6028	26.3672	73.2659	26.3672	72.3082	26.3672	73.4894	26.3672	72.865	26.3672	73.5695	26.3672	73.262	26.3672	73.496
27.832	67.8359	27.832	67.785	27.832	67.901	27.832	67.7844	27.832	67.953	27.832	67.8735	27.832	67.9771	27.832	68.0859	27.832	67.974	27.832	68.4398	27.832	67.9628	27.832	68.932	27.832	67.9844	27.832	69.5392	27.832	68.0989	27.832	70.2255	27.832	68.3721	27.832	70.9514	27.832	68.8477	27.832	71.6801	27.832	69.5209	27.832	72.38	27.832	70.3371	27.832	73.0246	27.832	71.2163	27.832	73.5918	27.832	72.0806	27.832	74.0625	27.832	72.8698	27.832	74.4198	27.832	73.543	27.832	74.6487	27.832	74.0754	27.832	74.7367	27.832	74.4539	27.832	74.6738
29.2969	69.7065	29.2969	69.6719	29.2969	69.7578	29.2969	69.6806	29.2969	69.8058	29.2969	69.7619	29.2969	69.8403	29.2969	69.9418	29.2969	69.8628	29.2969	70.2368	29.2969	69.8892	29.2969	70.6486	29.2969	69.9509	29.2969	71.1637	29.2969	70.0924	29.2969	71.757	29.2969	70.3605	29.2969	72.3973	29.2969	70.7867	29.2969	73.0525	29.2969	71.3698	29.2969	73.6927	29.2969	72.0723	29.2969	74.2915	29.2969	72.8345	29.2969	74.8258	29.2969	73.5927	29.2969	75.275	29.2969	74.2928	29.2969	75.6213	29.2969	74.8948	29.2969	75.8492	29.2969	75.3723	29.2969	75.9456	29.2969	75.7099	29.2969	75.901
30.7617	70.9032	30.7617	70.8921	30.7617	70.9356	30.7617	70.9244	30.7617	70.9715	30.7617	71.0238	30.7617	71.0013	30.7617	71.2104	30.7617	71.0254	30.7617	71.4961	30.7617	71.0568	30.7617	71.8815	30.7617	71.1215	30.7617	72.3557	30.7617	71.2567	30.7617	72.8982	30.7617	71.5021	30.7617	73.4831	30.7617	71.8857	30.7617	74.0829	30.7617	72.4096	30.7617	74.6708	30.7617	73.0456	30.7617	75.2221	30.7617	73.7437	30.7617	75.7143	30.7617	74.4474	30.7617	76.1273	30.7617	75.1059	30.7617	76.4432	30.7617	75.6797	30.7617	76.6465	30.7617	76.1412	30.7617	76.7245	30.7617	76.4734	30.7617	76.6683
32.2266	72.4187	32.2266	72.4194	32.2266	72.4387	32.2266	72.458	32.2266	72.4662	32.2266	72.5537	32.2266	72.4951	32.2266	72.7232	32.2266	72.5276	32.2266	72.9777	32.2266	72.5754	32.2266	73.3197	32.2266	72.6603	32.2266	73.7418	32.2266	72.8114	32.2266	74.2286	32.2266	73.0587	32.2266	74.7588	32.2266	73.4225	32.2266	75.3081	32.2266	73.9032	32.2266	75.852	32.2266	74.4783	32.2266	76.3667	32.2266	75.1072	32.2266	76.8302	32.2266	75.7424	32.2266	77.2224	32.2266	76.3394	32.2266	77.5252	32.2266	76.8615	32.2266	77.7232	32.2266	77.2822	32.2266	77.8039	32.2266	77.5843	32.2266	77.7589
33.6914	73.8295	33.6914	73.829	33.6914	73.8592	33.6914	73.8711	33.6914	73.9079	33.6914	73.9695	33.6914	73.9699	33.6914	74.136	33.6914	74.0456	33.6914	74.3779	33.6914	74.1426	33.6914	74.6959	33.6914	74.275	33.6914	75.0838	33.6914	74.4619	33.6914	75.5289	33.6914	74.7227	33.6914	76.0138	33.6914	75.07	33.6914	76.5181	33.6914	75.5038	33.6914	77.0203	33.6914	76.008	33.6914	77.499	33.6914	76.5535	33.6914	77.9336	33.6914	77.1038	33.6914	78.3049	33.6914	77.6224	33.6914	78.5956	33.6914	78.0773	33.6914	78.7906	33.6914	78.4438	33.6914	78.8782	33.6914	78.7048	33.6914	78.8506
35.1562	75.236	35.1562	75.2503	35.1562	75.2513	35.1562	75.3038	35.1562	75.2885	35.1562	75.4066	35.1562	75.3436	35.1562	75.5671	35.1562	75.4172	35.1562	75.7908	35.1562	75.5152	35.1562	76.0783	35.1562	75.6487	35.1562	76.4251	35.1562	75.8324	35.1562	76.8219	35.1562	76.0809	35.1562	77.2549	35.1562	76.4037	35.1562	77.7074	35.1562	76.8001	35.1562	78.1609	35.1562	77.2573	35.1562	78.5963	35.1562	77.7509	35.1562	78.9944	35.1562	78.25	35.1562	79.3368	35.1562	78.7222	35.1562	79.6064	35.1562	79.1382	35.1562	79.7885	35.1562	79.4744	35.1562	79.8715	35.1562	79.7142	35.1562	79.8476
36.6211	76.5754	36.6211	76.5806	36.6211	76.5969	36.6211	76.6199	36.6211	76.6393	36.6211	76.7015	36.6211	76.6996	36.6211	76.8326	36.6211	76.7782	36.6211	77.0183	36.6211	76.8791	36.6211	77.2604	36.6211	77.0105	36.6211	77.5562	36.6211	77.1825	36.6211	77.8991	36.6211	77.4058	36.6211	78.2782	36.6211	77.6878	36.6211	78.6796	36.6211	78.0286	36.6211	79.0868	36.6211	78.4194	36.6211	79.4821	36.6211	78.8421	36.6211	79.8473	36.6211	79.2719	36.6211	80.1646	36.6211	79.6815	36.6211	80.4174	36.6211	80.0445	36.6211	80.5912	36.6211	80.3387	36.6211	80.6747	36.6211	80.5475	36.6211	80.6608
38.0859	77.6837	38.0859	77.6871	38.0859	77.7065	38.0859	77.7226	38.0859	77.7506	38.0859	77.7968	38.0859	77.8137	38.0859	77.9153	38.0859	77.8957	38.0859	78.0825	38.0859	77.9998	38.0859	78.2999	38.0859	78.1317	38.0859	78.5657	38.0859	78.2994	38.0859	78.8747	38.0859	78.5107	38.0859	79.218	38.0859	78.7711	38.0859	79.5836	38.0859	79.0807	38.0859	79.9572	38.0859	79.4324	38.0859	80.3225	38.0859	79.8115	38.0859	80.6626	38.0859	80.1971	38.0859	80.9604	38.0859	80.5652	38.0859	81.1998	38.0859	80.8922	38.0859	81.3668	38.0859	81.1572	38.0859	81.4502	38.0859	81.3443	38.0859	81.4433
39.5508	78.7983	39.5508	78.799	39.5508	78.8241	39.5508	78.8308	39.5508	78.8726	39.5508	78.8987	39.5508	78.9415	39.5508	79.0071	39.5508	79.0304	39.5508	79.1589	39.5508	79.141	39.5508	79.3552	39.5508	79.2771	39.5508	79.5946	39.5508	79.4439	39.5508	79.8727	39.5508	79.6466	39.5508	80.1823	39.5508	79.8887	39.5508	80.5133	39.5508	80.1701	39.5508	80.8534	39.5508	80.485	39.5508	81.1882	39.5508	80.8214	39.5508	81.5023	39.5508	81.1623	39.5508	81.7798	39.5508	81.4874	39.5508	82.0056	39.5508	81.7757	39.5508	82.1661	39.5508	82.0085	39.5508	82.2506	39.5508	82.1707	39.5508	82.2527
41.0156	79.7148	41.0156	79.7145	41.0156	79.7388	41.0156	79.7413	41.0156	79.7838	41.0156	79.799	41.0156	79.8481	41.0156	79.8909	41.0156	79.9314	41.0156	80.0197	41.0156	80.035	41.0156	80.1867	41.0156	80.1616	41.0156	80.3913	41.0156	80.3147	41.0156	80.6308	41.0156	80.4982	41.0156	80.8997	41.0156	80.7146	41.0156	81.1904	41.0156	80.9637	41.0156	81.4923	41.0156	81.2407	41.0156	81.7929	41.0156	81.5361	41.0156	82.0781	41.0156	81.8355	41.0156	82.333	41.0156	82.1213	41.0156	82.5431	41.0156	82.3749	41.0156	82.6951	41.0156	82.579	41.0156	82.7787	41.0156	82.7196	41.0156	82.7874
42.4805	80.4512	42.4805	80.4457	42.4805	80.4806	42.4805	80.4669	42.4805	80.5317	42.4805	80.5177	42.4805	80.6031	42.4805	80.6007	42.4805	80.6943	42.4805	80.7182	42.4805	80.8055	42.4805	80.8713	42.4805	80.9381	42.4805	81.0596	42.4805	81.0941	42.4805	81.2807	42.4805	81.2754	42.4805	81.5302	42.4805	81.4832	42.4805	81.801	42.4805	81.7165	42.4805	82.0838	42.4805	81.9711	42.4805	82.3671	42.4805	82.2389	42.4805	82.6378	42.4805	82.5077	42.4805	82.8818	42.4805	82.7627	42.4805	83.0851	42.4805	82.9874	42.4805	83.2353	42.4805	83.1664	42.4805	83.3223	42.4805	83.2868	42.4805	83.34
43.9453	81.1576	43.9453	81.1501	43.9453	81.188	43.9453	81.1678	43.9453	81.2395	43.9453	81.2129	43.9453	81.3111	43.9453	81.2875	43.9453	81.4018	43.9453	81.3935	43.9453	81.5117	43.9453	81.5318	43.9453	81.6413	43.9453	81.702	43.9453	81.7916	43.9453	81.9023	43.9453	81.9634	43.9453	82.1289	43.9453	82.157	43.9453	82.3758	43.9453	82.3711	43.9453	82.6348	43.9453	82.602	43.9453	82.8957	43.9453	82.8429	43.9453	83.1465	43.9453	83.0835	43.9453	83.3741	43.9453	83.3108	43.9453	83.5654	43.9453	83.5105	43.9453	83.7087	43.9453	83.6685	43.9453	83.7942	43.9453	83.7731	43.9453	83.8161
45.4102	81.7965	45.4102	81.7887	45.4102	81.8279	45.4102	81.806	45.4102	81.8815	45.4102	81.8497	45.4102	81.9562	45.4102	81.9213	45.4102	82.0509	45.4102	82.0215	45.4102	82.1647	45.4102	82.1507	45.4102	82.2971	45.4102	82.3083	45.4102	82.4478	45.4102	82.4925	45.4102	82.6162	45.4102	82.7001	45.4102	82.8017	45.4102	82.926	45.4102	83.0023	45.4102	83.1634	45.4102	83.2144	45.4102	83.4032	45.4102	83.4322	45.4102	83.635	45.4102	83.647	45.4102	83.8469	45.4102	83.8479	45.4102	84.027	45.4102	84.0225	45.4102	84.1642	45.4102	84.1587	45.4102	84.2495	45.4102	84.246	45.4102	84.2773
46.875	82.4297	46.875	82.4193	46.875	82.4625	46.875	82.4321	46.875	82.5165	46.875	82.4691	46.875	82.5908	46.875	82.531	46.875	82.6841	46.875	82.6184	46.875	82.7952	46.875	82.7314	46.875	82.923	46.875	82.8695	46.875	83.0662	46.875	83.0314	46.875	83.2236	46.875	83.2147	46.875	83.3939	46.875	83.4153	46.875	83.5749	46.875	83.6275	46.875	83.7636	46.875	83.8436	46.875	83.9549	46.875	84.0545	46.875	84.1416	46.875	84.2494	46.875	84.3146	46.875	84.4174	46.875	84.4634	46.875	84.5482	46.875	84.5773	46.875	84.6331	46.875	84.6472	46.875	84.6666
48.3398	82.934	48.3398	82.919	48.3398	82.9697	48.3398	82.9253	48.3398	83.0251	48.3398	82.9537	48.3398	83.0992	48.3398	83.0048	48.3398	83.1909	48.3398	83.0789	48.3398	83.2987	48.3398	83.1764	48.3398	83.4214	48.3398	83.2968	48.3398	83.5571	48.3398	83.4394	48.3398	83.7044	48.3398	83.6022	48.3398	83.8614	48.3398	83.7819	48.3398	84.0258	48.3398	83.9737	48.3398	84.1947	48.3398	84.171	48.3398	84.3636	48.3398	84.3654	48.3398	84.5266	48.3398	84.5473	48.3398	84.6757	48.3398	84.7065	48.3398	84.802	48.3398	84.8331	48.3398	84.8963	48.3398	84.9189	48.3398	84.9503	48.3398	84.9586
51.2695	83.6966	51.2695	83.678	51.2695	83.7357	51.2695	83.6802	51.2695	83.7948	51.2695	83.7031	51.2695	83.8728	51.2695	83.7466	51.2695	83.9683	51.2695	83.8103	51.2695	84.0793	51.2695	83.8938	51.2695	84.2033	51.2695	83.9964	51.2695	84.3376	51.2695	84.1172	51.2695	84.4791	51.2695	84.2547	51.2695	84.625	51.2695	84.4067	51.2695	84.772	51.2695	84.5697	51.2695	84.9172	51.2695	84.739	51.2695	85.0567	51.2695	84.9082	51.2695	85.1862	51.2695	85.0695	51.2695	85.3001	51.2695	85.2145	51.2695	85.3919	51.2695	85.3345	51.2695	85.4548	51.2695	85.4223	51.2695	85.483	51.2695	85.4725
52.7344	84.0111	52.7344	83.9927	52.7344	84.0492	52.7344	83.9938	52.7344	84.1066	52.7344	84.0141	52.7344	84.1823	52.7344	84.0528	52.7344	84.275	52.7344	84.1094	52.7344	84.3825	52.7344	84.1831	52.7344	84.5021	52.7344	84.2733	52.7344	84.6307	52.7344	84.3791	52.7344	84.7648	52.7344	84.4996	52.7344	84.9011	52.7344	84.6331	52.7344	85.0363	52.7344	84.7772	52.7344	85.1672	52.7344	84.9279	52.7344	85.2905	52.7344	85.0801	52.7344	85.4022	52.7344	85.2272	52.7344	85.4979	52.7344	85.3616	52.7344	85.5721	52.7344	85.4756	52.7344	85.6194	52.7344	85.5621	52.7344	85.6351	52.7344	85.6161
54.1992	84.3022	54.1992	84.2808	54.1992	84.3416	54.1992	84.2769	54.1992	84.3986	54.1992	84.2901	54.1992	84.4727	54.1992	84.3198	54.1992	84.5622	54.1992	84.3652	54.1992	84.6651	54.1992	84.4259	54.1992	84.7786	54.1992	84.5013	54.1992	84.8991	54.1992	84.591	54.1992	85.0232	54.1992	84.6943	54.1992	85.1473	54.1992	84.8101	54.1992	85.268	54.1992	84.9367	54.1992	85.3824	54.1992	85.0709	54.1992	85.4875	54.1992	85.2084	54.1992	85.5802	54.1992	85.3433	54.1992	85.6569	54.1992	85.4689	54.1992	85.7134	54.1992	85.578	54.1992	85.7454	54.1992	85.6639	54.1992	85.7489	54.1992	85.7217
55.6641	84.5579	55.6641	84.5351	55.6641	84.5969	55.6641	84.5281	55.6641	84.6521	55.6641	84.536	55.6641	84.7225	55.6641	84.5578	55.6641	84.8066	55.6641	84.5927	55.6641	84.902	55.6641	84.6398	55.6641	85.0054	55.6641	84.6986	55.6641	85.1135	55.6641	84.769	55.6641	85.2225	55.6641	84.8506	55.6641	85.3288	55.6641	84.9431	55.6641	85.4293	55.6641	85.0455	55.6641	85.5213	55.6641	85.1559	55.6641	85.6027	55.6641	85.2709	55.6641	85.6714	55.6641	85.3861	55.6641	85.7249	55.6641	85.4957	55.6641	85.7604	55.6641	85.5937	55.6641	85.7751	55.6641	85.6741	55.6641	85.7663	55.6641	85.7325
58.5938	85.0358	58.5938	85.0035	58.5938	85.083	58.5938	84.9857	58.5938	85.1448	58.5938	84.9815	58.5938	85.2204	58.5938	84.9901	58.5938	85.3083	58.5938	85.0105	58.5938	85.4057	58.5938	85.0418	58.5938	85.5093	58.5938	85.0834	58.5938	85.6151	58.5938	85.1349	58.5938	85.7185	58.5938	85.1964	58.5938	85.8154	58.5938	85.2676	58.5938	85.9018	58.5938	85.3483	58.5938	85.9746	58.5938	85.4376	58.5938	86.0315	58.5938	85.5338	58.5938	86.0711	58.5938	85.6338	58.5938	86.0924	58.5938	85.7337	58.5938	86.0948	58.5938	85.8288	58.5938	86.0778	58.5938	85.9145	58.5938	86.0414	58.5938	85.9864
60.0586	85.2888	60.0586	85.2562	60.0586	85.335	60.0586	85.2368	60.0586	85.3948	60.0586	85.2294	60.0586	85.4673	60.0586	85.2331	60.0586	85.5508	60.0586	85.2465	60.0586	85.6426	60.0586	85.2688	60.0586	85.7391	60.0586	85.2994	60.0586	85.8362	60.0586	85.3379	60.0586	85.9294	60.0586	85.3844	60.0586	86.0143	60.0586	85.4393	60.0586	86.0869	60.0586	85.5029	60.0586	86.1444	60.0586	85.5749	60.0586	86.1848	60.0586	85.6544	60.0586	86.2074	60.0586	85.7394	60.0586	86.2121	60.0586	85.8269	60.0586	86.1994	60.0586	85.9132	60.0586	86.17	60.0586	85.994	60.0586	86.125	60.0586	86.0656
62.9883	85.5531	62.9883	85.5138	62.9883	85.6061	62.9883	85.4879	62.9883	85.6726	62.9883	85.4744	62.9883	85.7512	62.9883	85.472	62.9883	85.8397	62.9883	85.4793	62.9883	85.9349	62.9883	85.4951	62.9883	86.0327	62.9883	85.5184	62.9883	86.1286	62.9883	85.5489	62.9883	86.2179	62.9883	85.5863	62.9883	86.296	62.9883	85.6313	62.9883	86.359	62.9883	85.6843	62.9883	86.4042	62.9883	85.7457	62.9883	86.43	62.9883	85.8154	62.9883	86.4361	62.9883	85.8923	62.9883	86.4235	62.9883	85.9745	62.9883	86.3936	62.9883	86.0588	62.9883	86.3483	62.9883	86.1418	62.9883	86.2896	62.9883	86.2199
64.4531	85.6875	64.4531	85.6446	64.4531	85.7442	64.4531	85.6154	64.4531	85.8143	64.4531	85.5988	64.4531	85.8964	64.4531	85.5934	64.4531	85.9881	64.4531	85.5979	64.4531	86.0859	64.4531	85.6108	64.4531	86.1859	64.4531	85.6311	64.4531	86.2834	64.4531	85.6584	64.4531	86.3736	64.4531	85.6925	64.4531	86.4518	64.4531	85.734	64.4531	86.514	64.4531	85.7836	64.4531	86.557	64.4531	85.8419	64.4531	86.5791	64.4531	85.9093	64.4531	86.58	64.4531	85.985	64.4531	86.5607	64.4531	86.0675	64.4531	86.523	64.4531	86.154	64.4531	86.4693	64.4531	86.2412	64.4531	86.4024	64.4531	86.3252
67.3828	85.8019	67.3828	85.7577	67.3828	85.8604	67.3828	85.7271	67.3828	85.9326	67.3828	85.7092	67.3828	86.0175	67.3828	85.7025	67.3828	86.1129	67.3828	85.7054	67.3828	86.2157	67.3828	85.7161	67.3828	86.3219	67.3828	85.7337	67.3828	86.4267	67.3828	85.7572	67.3828	86.5247	67.3828	85.7867	67.3828	86.6102	67.3828	85.8227	67.3828	86.6781	67.3828	85.8663	67.3828	86.724	67.3828	85.9187	67.3828	86.7452	67.3828	85.9811	67.3828	86.7409	67.3828	86.0537	67.3828	86.7119	67.3828	86.1362	67.3828	86.6609	67.3828	86.2264	67.3828	86.5917	67.3828	86.3214	67.3828	86.5088	67.3828	86.4171
68.8477	85.897	68.8477	85.8562	68.8477	85.9536	68.8477	85.8304	68.8477	86.0257	68.8477	85.8181	68.8477	86.1121	68.8477	85.8176	68.8477	86.2107	68.8477	85.8268	68.8477	86.3181	68.8477	85.8436	68.8477	86.4301	68.8477	85.8666	68.8477	86.5413	68.8477	85.8946	68.8477	86.646	68.8477	85.9274	68.8477	86.738	68.8477	85.9653	68.8477	86.8116	68.8477	86.0095	68.8477	86.8622	68.8477	86.0614	68.8477	86.8867	68.8477	86.1224	68.8477	86.884	68.8477	86.1933	68.8477	86.8551	68.8477	86.274	68.8477	86.803	68.8477	86.363	68.8477	86.7321	68.8477	86.4577	68.8477	86.6473	68.8477	86.554
71.7773	86.0833	71.7773	86.043	71.7773	86.1378	71.7773	86.0163	71.7773	86.2064	71.7773	86.0016	71.7773	86.2881	71.7773	85.9968	71.7773	86.3804	71.7773	85.9996	71.7773	86.4803	71.7773	86.0078	71.7773	86.5835	71.7773	86.0198	71.7773	86.685	71.7773	86.0344	71.7773	86.7789	71.7773	86.0514	71.7773	86.8593	71.7773	86.0715	71.7773	86.9204	71.7773	86.0965	71.7773	86.9573	71.7773	86.1285	71.7773	86.9671	71.7773	86.17	71.7773	86.9489	71.7773	86.2234	71.7773	86.9041	71.7773	86.2898	71.7773	86.8366	71.7773	86.369	71.7773	86.7519	71.7773	86.4592	71.7773	86.6563	71.7773	86.5567
74.707	86.3135	74.707	86.27	74.707	86.3696	74.707	86.2386	74.707	86.4382	74.707	86.2179	74.707	86.518	74.707	86.2059	74.707	86.6069	74.707	86.2002	74.707	86.7017	74.707	86.1987	74.707	86.7984	74.707	86.1994	74.707	86.8917	74.707	86.2011	74.707	86.9757	74.707	86.2034	74.707	87.0443	74.707	86.2073	74.707	87.0914	74.707	86.2146	74.707	87.1124	74.707	86.2283	74.707	87.1043	74.707	86.2519	74.707	87.0667	74.707	86.2888	74.707	87.0022	74.707	86.3417	74.707	86.9157	74.707	86.4118	74.707	86.8142	74.707	86.4983	74.707	86.7056	74.707	86.598
77.6367	86.5895	77.6367	86.5447	77.6367	86.6463	77.6367	86.5111	77.6367	86.7151	77.6367	86.4869	77.6367	86.7945	77.6367	86.4697	77.6367	86.8821	77.6367	86.4567	77.6367	86.9746	77.6367	86.4454	77.6367	87.0675	77.6367	86.4338	77.6367	87.1554	77.6367	86.4207	77.6367	87.2324	77.6367	86.4062	77.6367	87.2924	77.6367	86.3916	77.6367	87.3291	77.6367	86.3796	77.6367	87.3377	77.6367	86.3744	77.6367	87.3152	77.6367	86.3807	77.6367	87.2613	77.6367	86.4033	77.6367	87.1787	77.6367	86.4464	77.6367	87.0733	77.6367	86.5123	77.6367	86.9534	77.6367	86.6005	77.6367	86.8284	77.6367	86.7079
79.1016	86.6972	79.1016	86.6479	79.1016	86.755	79.1016	86.6063	79.1016	86.8209	79.1016	86.5711	79.1016	86.8938	79.1016	86.5401	79.1016	86.9715	79.1016	86.5112	79.1016	87.0511	79.1016	86.4824	79.1016	87.1289	79.1016	86.452	79.1016	87.2002	79.1016	86.4196	79.1016	87.2599	79.1016	86.3856	79.1016	87.3023	79.1016	86.3519	79.1016	87.3219	79.1016	86.322	79.1016	87.314	79.1016	86.3004	79.1016	87.2756	79.1016	86.2925	79.1016	87.2065	79.1016	86.3038	79.1016	87.1097	79.1016	86.3389	79.1016	86.9913	79.1016	86.4003	79.1016	86.8598	79.1016	86.488	79.1016	86.7255	79.1016	86.5986
82.0312	86.6907	82.0312	86.6377	82.0312	86.7499	82.0312	86.5907	82.0312	86.8148	82.0312	86.5487	82.0312	86.8842	82.0312	86.5102	82.0312	86.9564	82.0312	86.4735	82.0312	87.0287	82.0312	86.4366	82.0312	87.0981	82.0312	86.3983	82.0312	87.1604	82.0312	86.3577	82.0312	87.2106	82.0312	86.3153	82.0312	87.2433	82.0312	86.2729	82.0312	87.2526	82.0312	86.2338	82.0312	87.2339	82.0312	86.2024	82.0312	87.1842	82.0312	86.1845	82.0312	87.1035	82.0312	86.186	82.0312	86.9953	82.0312	86.2121	82.0312	86.8666	82.0312	86.2662	82.0312	86.727	82.0312	86.3492	82.0312	86.5872	82.0312	86.4583
84.9609	86.7895	84.9609	86.7363	84.9609	86.8472	84.9609	86.687	84.9609	86.9096	84.9609	86.6406	84.9609	86.9768	84.9609	86.5959	84.9609	87.048	84.9609	86.5515	84.9609	87.1215	84.9609	86.5061	84.9609	87.1948	84.9609	86.4588	84.9609	87.2637	84.9609	86.4094	84.9609	87.3227	84.9609	86.3587	84.9609	87.3652	84.9609	86.3088	84.9609	87.3842	84.9609	86.2636	84.9609	87.3733	84.9609	86.2283	84.9609	87.3282	84.9609	86.2093	84.9609	87.2478	84.9609	86.2132	84.9609	87.1348	84.9609	86.246	84.9609	86.996	84.9609	86.3113	84.9609	86.8416	84.9609	86.4094	84.9609	86.6842	84.9609	86.5364
87.8906	87.0123	87.8906	86.9474	87.8906	87.0812	87.8906	86.8863	87.8906	87.1534	87.8906	86.8283	87.8906	87.2276	87.8906	86.7721	87.8906	87.3017	87.8906	86.7158	87.8906	87.3732	87.8906	86.6575	87.8906	87.4385	87.8906	86.5957	87.8906	87.4933	87.8906	86.5295	87.8906	87.5323	87.8906	86.4595	87.8906	87.5497	87.8906	86.3879	87.8906	87.5392	87.8906	86.3189	87.8906	87.496	87.8906	86.2584	87.8906	87.417	87.8906	86.2142	87.8906	87.3025	87.8906	86.1946	87.8906	87.157	87.8906	86.2074	87.8906	86.9889	87.8906	86.2584	87.8906	86.8103	87.8906	86.3494	87.8906	86.6352	87.8906	86.4776
90.8203	87.3365	90.8203	87.2683	90.8203	87.4049	90.8203	87.2012	90.8203	87.4724	90.8203	87.135	90.8203	87.5375	90.8203	87.0688	90.8203	87.5984	90.8203	87.0014	90.8203	87.6532	90.8203	86.9308	90.8203	87.6994	90.8203	86.8555	90.8203	87.7337	90.8203	86.7747	90.8203	87.7518	90.8203	86.6886	90.8203	87.7482	90.8203	86.5993	90.8203	87.7169	90.8203	86.5108	90.8203	87.6528	90.8203	86.4294	90.8203	87.5528	90.8203	86.3629	90.8203	87.4177	90.8203	86.3207	90.8203	87.2526	90.8203	86.3118	90.8203	87.0678	90.8203	86.3437	90.8203	86.8771	90.8203	86.4201	90.8203	86.6961	90.8203	86.5399
95.2148	86.8898	95.2148	86.8304	95.2148	86.957	95.2148	86.7794	95.2148	87.0308	95.2148	86.7364	95.2148	87.1096	95.2148	86.7003	95.2148	87.1915	95.2148	86.6694	95.2148	87.2744	95.2148	86.6413	95.2148	87.3556	95.2148	86.6139	95.2148	87.4317	95.2148	86.5856	95.2148	87.4981	95.2148	86.5557	95.2148	87.5488	95.2148	86.5252	95.2148	87.577	95.2148	86.4967	95.2148	87.5762	95.2148	86.4746	95.2148	87.5413	95.2148	86.465	95.2148	87.4704	95.2148	86.4743	95.2148	87.3659	95.2148	86.509	95.2148	87.2343	95.2148	86.5734	95.2148	87.0862	95.2148	86.6685	95.2148	86.9343	95.2148	86.7913
98.1445	87.1112	98.1445	87.0535	98.1445	87.1707	98.1445	86.9975	98.1445	87.2316	98.1445	86.9428	98.1445	87.2937	98.1445	86.8884	98.1445	87.3563	98.1445	86.8331	98.1445	87.4186	98.1445	86.7758	98.1445	87.4788	98.1445	86.7156	98.1445	87.5343	98.1445	86.6523	98.1445	87.5807	98.1445	86.5869	98.1445	87.6122	98.1445	86.5222	98.1445	87.6217	98.1445	86.4623	98.1445	87.6023	98.1445	86.4133	98.1445	87.549	98.1445	86.3823	98.1445	87.4597	98.1445	86.3768	98.1445	87.3369	98.1445	86.4034	98.1445	87.1874	98.1445	86.4664	98.1445	87.0221	98.1445	86.5661	98.1445	86.8545	98.1445	86.6984
101.074	87.0225	101.074	86.9577	101.074	87.0871	101.074	86.8934	101.074	87.1506	101.074	86.8299	101.074	87.2121	101.074	86.7671	101.074	87.2708	101.074	86.7041	101.074	87.3264	101.074	86.6401	101.074	87.3781	101.074	86.5746	101.074	87.4249	101.074	86.5076	101.074	87.464	101.074	86.4402	101.074	87.4911	101.074	86.3755	101.074	87.5002	101.074	86.3178	101.074	87.4847	101.074	86.2733	101.074	87.4386	101.074	86.2493	101.074	87.3586	101.074	86.253	101.074	87.2451	101.074	86.2904	101.074	87.1033	101.074	86.3646	101.074	86.9424	101.074	86.4746	101.074	86.775	101.074	86.6148
105.469	87.468	105.469	87.4002	105.469	87.5301	105.469	87.3284	105.469	87.5846	105.469	87.2537	105.469	87.6297	105.469	87.1762	105.469	87.6643	105.469	87.0951	105.469	87.6875	105.469	87.0091	105.469	87.6992	105.469	86.9168	105.469	87.6987	105.469	86.8173	105.469	87.6844	105.469	86.7112	105.469	87.6533	105.469	86.6009	105.469	87.601	105.469	86.4909	105.469	87.5231	105.469	86.3884	105.469	87.416	105.469	86.3025	105.469	87.2794	105.469	86.2434	105.469	87.1169	105.469	86.2209	105.469	86.9369	105.469	86.2425	105.469	86.7517	105.469	86.3114	105.469	86.5762	105.469	86.4253
108.398	87.623	108.398	87.5482	108.398	87.6896	108.398	87.4671	108.398	87.7462	108.398	87.3811	108.398	87.7914	108.398	87.291	108.398	87.8243	108.398	87.1968	108.398	87.8449	108.398	87.0981	108.398	87.8537	108.398	86.9944	108.398	87.8504	108.398	86.8856	108.398	87.834	108.398	86.7728	108.398	87.8017	108.398	86.659	108.398	87.7491	108.398	86.5488	108.398	87.6712	108.398	86.4494	108.398	87.564	108.398	86.3694	108.398	87.4265	108.398	86.3186	108.398	87.2616	108.398	86.306	108.398	87.0774	108.398	86.3384	108.398	86.8862	108.398	86.4181	108.398	86.7027	108.398	86.5424
112.793	87.6459	112.793	87.5707	112.793	87.7089	112.793	87.485	112.793	87.7581	112.793	87.3906	112.793	87.7927	112.793	87.2885	112.793	87.8127	112.793	87.1794	112.793	87.819	112.793	87.0636	112.793	87.8131	112.793	86.9415	112.793	87.7962	112.793	86.8142	112.793	87.7685	112.793	86.6842	112.793	87.7283	112.793	86.5554	112.793	87.6718	112.793	86.434	112.793	87.594	112.793	86.3282	112.793	87.4902	112.793	86.2473	112.793	87.3579	112.793	86.201	112.793	87.1985	112.793	86.1976	112.793	87.018	112.793	86.2421	112.793	86.8271	112.793	86.335	112.793	86.6397	112.793	86.471
117.188	87.7678	117.188	87.6898	117.188	87.8335	117.188	87.6013	117.188	87.8847	117.188	87.5032	117.188	87.9193	117.188	87.3957	117.188	87.9356	117.188	87.2781	117.188	87.9329	117.188	87.1495	117.188	87.911	117.188	87.009	117.188	87.8697	117.188	86.8571	117.188	87.8087	117.188	86.6957	117.188	87.7265	117.188	86.5294	117.188	87.621	117.188	86.3653	117.188	87.4897	117.188	86.2131	117.188	87.3314	117.188	86.0846	117.188	87.1476	117.188	85.9923	117.188	86.9431	117.188	85.9472	117.188	86.7272	117.188	85.9573	117.188	86.5125	117.188	86.0251	117.188	86.314	117.188	86.147
120.117	87.7248	120.117	87.6489	120.117	87.7907	120.117	87.5651	120.117	87.8444	120.117	87.4746	120.117	87.8838	120.117	87.3776	120.117	87.9079	120.117	87.2733	120.117	87.9161	120.117	87.1602	120.117	87.9083	120.117	87.0368	120.117	87.8842	120.117	86.9021	120.117	87.8419	120.117	86.7571	120.117	87.7782	120.117	86.6047	120.117	87.6884	120.117	86.4508	120.117	87.5681	120.117	86.3042	120.117	87.4148	120.117	86.1761	120.117	87.2297	120.117	86.0794	120.117	87.0192	120.117	86.0263	120.117	86.7949	120.117	86.0268	120.117	86.5724	120.117	86.086	120.117	86.3694	120.117	86.2028
124.512	87.625	124.512	87.5412	124.512	87.6995	124.512	87.4512	124.512	87.7622	124.512	87.3574	124.512	87.8112	124.512	87.2616	124.512	87.846	124.512	87.1643	124.512	87.8671	124.512	87.065	124.512	87.8758	124.512	86.9628	124.512	87.8729	124.512	86.857	124.512	87.8576	124.512	86.7478	124.512	87.8272	124.512	86.6372	124.512	87.7763	124.512	86.5295	124.512	87.699	124.512	86.4314	124.512	87.5903	124.512	86.3517	124.512	87.4486	124.512	86.3003	124.512	87.2772	124.512	86.2871	124.512	87.0849	124.512	86.3194	124.512	86.8852	124.512	86.4006	124.512	86.6944	124.512	86.5284
128.906	87.6797	128.906	87.5865	128.906	87.7619	128.906	87.4858	128.906	87.8298	128.906	87.3806	128.906	87.8812	128.906	87.2733	128.906	87.9153	128.906	87.1648	128.906	87.9325	128.906	87.0553	128.906	87.9344	128.906	86.9443	128.906	87.9226	128.906	86.8316	128.906	87.8972	128.906	86.7179	128.906	87.8564	128.906	86.6058	128.906	87.7959	128.906	86.4996	128.906	87.7105	128.906	86.406	128.906	87.5958	128.906	86.3333	128.906	87.4506	128.906	86.2903	128.906	87.2783	128.906	86.2854	128.906	87.0873	128.906	86.3243	128.906	86.8903	128.906	86.4094	128.906	86.7024	128.906	86.538
133.301	87.6981	133.301	87.6016	133.301	87.7816	133.301	87.4957	133.301	87.8484	133.301	87.3839	133.301	87.8963	133.301	87.2686	133.301	87.9246	133.301	87.1508	133.301	87.9345	133.301	87.0308	133.301	87.9285	133.301	86.9082	133.301	87.9092	133.301	86.783	133.301	87.8776	133.301	86.6565	133.301	87.8322	133.301	86.5315	133.301	87.7686	133.301	86.4134	133.301	87.6806	133.301	86.3096	133.301	87.5629	133.301	86.2292	133.301	87.413	133.301	86.1818	133.301	87.2337	133.301	86.1762	133.301	87.0332	133.301	86.2184	133.301	86.8249	133.301	86.3103	133.301	86.6247	133.301	86.4487
139.16	87.7084	139.16	87.601	139.16	87.7983	139.16	87.4809	139.16	87.8665	139.16	87.3527	139.16	87.9105	139.16	87.22	139.16	87.9302	139.16	87.0848	139.16	87.9279	139.16	86.9477	139.16	87.9072	139.16	86.8088	139.16	87.872	139.16	86.6682	139.16	87.8244	139.16	86.5271	139.16	87.7637	139.16	86.3888	139.16	87.6859	139.16	86.2588	139.16	87.5851	139.16	86.1453	139.16	87.4557	139.16	86.0579	139.16	87.2952	139.16	86.0068	139.16	87.1063	139.16	86.0008	139.16	86.8969	139.16	86.0458	139.16	86.6801	139.16	86.1429	139.16	86.4718	139.16	86.2881
143.555	87.6652	143.555	87.5535	143.555	87.7564	143.555	87.4263	143.555	87.8231	143.555	87.2888	143.555	87.8636	143.555	87.1455	143.555	87.8789	143.555	86.9997	143.555	87.8722	143.555	86.8531	143.555	87.8484	143.555	86.7065	143.555	87.8121	143.555	86.5608	143.555	87.7656	143.555	86.4175	143.555	87.7081	143.555	86.2799	143.555	87.6347	143.555	86.1532	143.555	87.5385	143.555	86.045	143.555	87.4129	143.555	85.9645	143.555	87.2546	143.555	85.9209	143.555	87.0656	143.555	85.9226	143.555	86.8541	143.555	85.9749	143.555	86.6334	143.555	86.0789	143.555	86.42	143.555	86.2305
147.949	87.6519	147.949	87.5314	147.949	87.7494	147.949	87.3931	147.949	87.82	147.949	87.2425	147.949	87.862	147.949	87.0842	147.949	87.8763	147.949	86.9218	147.949	87.8663	147.949	86.7579	147.949	87.8371	147.949	86.594	147.949	87.794	147.949	86.4316	147.949	87.7399	147.949	86.2733	147.949	87.674	147.949	86.1231	147.949	87.5919	147.949	85.9875	147.949	87.4864	147.949	85.8746	147.949	87.3509	147.949	85.7938	147.949	87.1824	147.949	85.7544	147.949	86.983	147.949	85.7639	147.949	86.7611	147.949	85.8265	147.949	86.53	147.949	85.942	147.949	86.3059	147.949	86.1052
153.809	87.6839	153.809	87.5601	153.809	87.7782	153.809	87.4128	153.809	87.8387	153.809	87.2483	153.809	87.864	153.809	87.0728	153.809	87.8563	153.809	86.8911	153.809	87.821	153.809	86.7071	153.809	87.7661	153.809	86.5234	153.809	87.6996	153.809	86.3429	153.809	87.6273	153.809	86.169	153.809	87.5502	153.809	86.0069	153.809	87.4641	153.809	85.8634	153.809	87.3607	153.809	85.7473	153.809	87.2318	153.809	85.668	153.809	87.072	153.809	85.6341	153.809	86.8814	153.809	85.6517	153.809	86.6669	153.809	85.7234	153.809	86.4407	153.809	85.8469	153.809	86.2182	153.809	86.0155
159.668	87.7771	159.668	87.6615	159.668	87.8644	159.668	87.523	159.668	87.9194	159.668	87.3677	159.668	87.9413	159.668	87.2011	159.668	87.9325	159.668	87.0273	159.668	87.8987	159.668	86.849	159.668	87.8479	159.668	86.6682	159.668	87.7877	159.668	86.4868	159.668	87.7234	159.668	86.3081	159.668	87.6551	159.668	86.1377	159.668	87.5778	159.668	85.9838	159.668	87.4828	159.668	85.8569	159.668	87.3608	159.668	85.7687	159.668	87.206	159.668	85.7295	159.668	87.0178	159.668	85.7467	159.668	86.8026	159.668	85.8225	159.668	86.5724	159.668	85.9536	159.668	86.343	159.668	86.1314
165.527	87.6898	165.527	87.5754	165.527	87.7758	165.527	87.4396	165.527	87.8283	165.527	87.2901	165.527	87.8455	165.527	87.1337	165.527	87.8297	165.527	86.9758	165.527	87.7874	165.527	86.8197	165.527	87.7285	165.527	86.6673	165.527	87.6632	165.527	86.5199	165.527	87.5994	165.527	86.3792	165.527	87.5391	165.527	86.2486	165.527	87.4777	165.527	86.1336	165.527	87.4058	165.527	86.0416	165.527	87.313	165.527	85.981	165.527	87.1921	165.527	85.9595	165.527	87.0417	165.527	85.9825	165.527	86.8668	165.527	86.0516	165.527	86.678	165.527	86.164	165.527	86.4887	165.527	86.3131
171.387	87.798	171.387	87.6773	171.387	87.8822	171.387	87.5271	171.387	87.9246	171.387	87.3552	171.387	87.9231	171.387	87.1686	171.387	87.8799	171.387	86.9731	171.387	87.8021	171.387	86.7732	171.387	87.7003	171.387	86.5729	171.387	87.5868	171.387	86.3762	171.387	87.4725	171.387	86.1887	171.387	87.3632	171.387	86.0175	171.387	87.2582	171.387	85.8717	171.387	87.1514	171.387	85.7611	171.387	87.0343	171.387	85.6942	171.387	86.9006	171.387	85.6765	171.387	86.7479	171.387	85.709	171.387	86.5791	171.387	85.7879	171.387	86.401	171.387	85.9061	171.387	86.2227	171.387	86.0544
177.246	87.6074	177.246	87.4772	177.246	87.7	177.246	87.317	177.246	87.7498	177.246	87.1354	177.246	87.7552	177.246	86.9405	177.246	87.7195	177.246	86.7388	177.246	87.6501	177.246	86.5347	177.246	87.5581	177.246	86.3315	177.246	87.4551	177.246	86.1316	177.246	87.3499	177.246	85.9387	177.246	87.2452	177.246	85.7589	177.246	87.137	177.246	85.6006	177.246	87.0165	177.246	85.4743	177.246	86.8749	177.246	85.3905	177.246	86.7075	177.246	85.3568	177.246	86.5164	177.246	85.3764	177.246	86.3098	177.246	85.4471	177.246	86.0997	177.246	85.5629	177.246	85.8981	177.246	85.7161
183.105	87.5736	183.105	87.4359	183.105	87.6664	183.105	87.2618	183.105	87.7085	183.105	87.0612	183.105	87.6989	183.105	86.8441	183.105	87.6419	183.105	86.6193	183.105	87.5486	183.105	86.3938	183.105	87.4347	183.105	86.1731	183.105	87.3185	183.105	85.9611	183.105	87.2143	183.105	85.7617	183.105	87.1282	183.105	85.5801	183.105	87.0544	183.105	85.4233	183.105	86.9779	183.105	85.3003	183.105	86.8801	183.105	85.2213	183.105	86.7462	183.105	85.1949	183.105	86.5702	183.105	85.2268	183.105	86.357	183.105	85.3177	183.105	86.1206	183.105	85.4635	183.105	85.8801	183.105	85.6553
188.965	87.6704	188.965	87.5233	188.965	87.7645	188.965	87.332	188.965	87.7993	188.965	87.1066	188.965	87.7728	188.965	86.8577	188.965	87.6882	188.965	86.595	188.965	87.5552	188.965	86.3279	188.965	87.3892	188.965	86.0654	188.965	87.2098	188.965	85.8163	188.965	87.0367	188.965	85.5902	188.965	86.8854	188.965	85.3974	188.965	86.7627	188.965	85.2485	188.965	86.665	188.965	85.1531	188.965	86.5807	188.965	85.1181	188.965	86.494	188.965	85.1455	188.965	86.3904	188.965	85.2315	188.965	86.2604	188.965	85.3666	188.965	86.102	188.965	85.5373	188.965	85.9206	188.965	85.7274
196.289	87.7229	196.289	87.5967	196.289	87.7971	196.289	87.4264	196.289	87.8138	196.289	87.2206	196.289	87.7716	196.289	86.9872	196.289	87.675	196.289	86.7332	196.289	87.5341	196.289	86.4642	196.289	87.3644	196.289	86.1855	196.289	87.1829	196.289	85.9038	196.289	87.0041	196.289	85.6279	196.289	86.8359	196.289	85.3699	196.289	86.678	196.289	85.145	196.289	86.5243	196.289	84.9692	196.289	86.3671	196.289	84.8568	196.289	86.2008	196.289	84.8161	196.289	86.0234	196.289	84.8468	196.289	85.836	196.289	84.9404	196.289	85.6417	196.289	85.0821	196.289	85.4457	196.289	85.2554
203.613	87.6414	203.613	87.5049	203.613	87.7185	203.613	87.3193	203.613	87.7284	203.613	87.0956	203.613	87.6681	203.613	86.8438	203.613	87.5409	203.613	86.5724	203.613	87.3573	203.613	86.2885	203.613	87.1352	203.613	85.9988	203.613	86.8974	203.613	85.7114	203.613	86.6669	203.613	85.4369	203.613	86.4607	203.613	85.1888	203.613	86.2859	203.613	84.9826	203.613	86.1385	203.613	84.8326	203.613	86.008	203.613	84.7487	203.613	85.8828	203.613	84.7335	203.613	85.7539	203.613	84.7809	203.613	85.6167	203.613	84.8783	203.613	85.4701	203.613	85.0098	203.613	85.3162	203.613	85.16
210.938	87.6052	210.938	87.4802	210.938	87.672	210.938	87.3057	210.938	87.6741	210.938	87.0912	210.938	87.6095	210.938	86.8456	210.938	87.4817	210.938	86.5763	210.938	87.3012	210.938	86.2889	210.938	87.0854	210.938	85.9887	210.938	86.8559	210.938	85.6815	210.938	86.634	210.938	85.3763	210.938	86.4346	210.938	85.0863	210.938	86.2621	210.938	84.8294	210.938	86.1104	210.938	84.626	210.938	85.9677	210.938	84.4943	210.938	85.8221	210.938	84.4455	210.938	85.6656	210.938	84.4789	210.938	85.4946	210.938	84.5824	210.938	85.3099	210.938	84.7366	210.938	85.1158	210.938	84.9204
218.262	87.4047	218.262	87.2787	218.262	87.476	218.262	87.11	218.262	87.4827	218.262	86.9105	218.262	87.4201	218.262	86.6904	218.262	87.2901	218.262	86.457	218.262	87.103	218.262	86.2152	218.262	86.8776	218.262	85.9688	218.262	86.6388	218.262	85.7226	218.262	86.4132	218.262	85.4842	218.262	86.222	218.262	85.2649	218.262	86.0751	218.262	85.079	218.262	85.9696	218.262	84.9419	218.262	85.8927	218.262	84.8662	218.262	85.828	218.262	84.8574	218.262	85.7599	218.262	84.912	218.262	85.6771	218.262	85.0173	218.262	85.5731	218.262	85.1545	218.262	85.4468	218.262	85.3034
225.586	87.4954	225.586	87.3502	225.586	87.5768	225.586	87.1556	225.586	87.582	225.586	86.9268	225.586	87.5034	225.586	86.677	225.586	87.3397	225.586	86.4168	225.586	87.0981	225.586	86.1536	225.586	86.7958	225.586	85.8933	225.586	86.4602	225.586	85.6422	225.586	86.1275	225.586	85.4093	225.586	85.8356	225.586	85.2072	225.586	85.6159	225.586	85.0512	225.586	85.4833	225.586	84.9557	225.586	85.4328	225.586	84.9292	225.586	85.4424	225.586	84.97	225.586	85.4816	225.586	85.0648	225.586	85.5195	225.586	85.1906	225.586	85.5318	225.586	85.3207	225.586	85.5036	225.586	85.4308
232.91	87.5654	232.91	87.3982	232.91	87.6696	232.91	87.1832	232.91	87.6976	232.91	86.9354	232.91	87.6398	232.91	86.6672	232.91	87.4922	232.91	86.3876	232.91	87.2571	232.91	86.1019	232.91	86.9444	232.91	85.8134	232.91	86.571	232.91	85.5258	232.91	86.161	232.91	85.2465	232.91	85.7444	232.91	84.9883	232.91	85.356	232.91	84.7689	232.91	85.032	232.91	84.6078	232.91	84.8023	232.91	84.519	232.91	84.6796	232.91	84.5043	232.91	84.652	232.91	84.5497	232.91	84.6853	232.91	84.6281	232.91	84.7364	232.91	84.7073	232.91	84.7681	232.91	84.7591
241.699	87.3354	241.699	87.1263	241.699	87.4831	241.699	86.8722	241.699	87.5564	241.699	86.5902	241.699	87.5469	241.699	86.2958	241.699	87.4517	241.699	86.0008	241.699	87.2739	241.699	85.7121	241.699	87.0205	241.699	85.4323	241.699	86.7017	241.699	85.1621	241.699	86.3282	241.699	84.9033	241.699	85.9114	241.699	84.6621	241.699	85.4668	241.699	84.4496	241.699	85.0201	241.699	84.2803	241.699	84.6119	241.699	84.1668	241.699	84.291	241.699	84.1125	241.699	84.0942	241.699	84.1072	241.699	84.023	241.699	84.1273	241.699	84.0407	241.699	84.1439	241.699	84.0927	241.699	84.134
250.488	87.5874	250.488	87.324	250.488	87.7723	250.488	86.998	250.488	87.8666	250.488	86.6279	250.488	87.8642	250.488	86.2318	250.488	87.7666	250.488	85.826	250.488	87.5823	250.488	85.4239	250.488	87.326	250.488	85.036	250.488	87.0149	250.488	84.6721	250.488	86.6636	250.488	84.3421	250.488	86.2806	250.488	84.0582	250.488	85.869	250.488	83.8338	250.488	85.4333	250.488	83.6803	250.488	84.9887	250.488	83.6022	250.488	84.5683	250.488	83.5918	250.488	84.217	250.488	83.6286	250.488	83.9716	250.488	83.6838	250.488	83.8371	250.488	83.7313	250.488	83.7824	250.488	83.7598
259.277	87.4395	259.277	87.2344	259.277	87.5714	259.277	86.9694	259.277	87.6215	259.277	86.6604	259.277	87.5871	259.277	86.3235	259.277	87.4725	259.277	85.9734	259.277	87.2887	259.277	85.622	259.277	87.0513	259.277	85.2783	259.277	86.7764	259.277	84.9493	259.277	86.4763	259.277	84.6418	259.277	86.1564	259.277	84.3645	259.277	85.8167	259.277	84.1286	259.277	85.4582	259.277	83.9467	259.277	85.0909	259.277	83.8285	259.277	84.738	259.277	83.7754	259.277	84.4318	259.277	83.7769	259.277	84.1995	259.277	83.8121	259.277	84.0484	259.277	83.859	259.277	83.9609	259.277	83.9062
268.066	87.2101	268.066	86.9822	268.066	87.3616	268.066	86.6924	268.066	87.4261	268.066	86.3564	268.066	87.3994	268.066	85.9884	268.066	87.2853	268.066	85.5999	268.066	87.0961	268.066	85.2005	268.066	86.8502	268.066	84.8009	268.066	86.5689	268.066	84.4157	268.066	86.2693	268.066	84.0644	268.066	85.9596	268.066	83.7694	268.066	85.6379	268.066	83.549	268.066	85.298	268.066	83.4117	268.066	84.9398	268.066	83.3528	268.066	84.5779	268.066	83.3558	268.066	84.242	268.066	83.3979	268.066	83.9661	268.066	83.4562	268.066	83.7701	268.066	83.5149	268.066	83.6481	268.066	83.5731
276.855	87.2856	276.855	87.0385	276.855	87.4472	276.855	86.7189	276.855	87.5166	276.855	86.3438	276.855	87.495	276.855	85.9312	276.855	87.3912	276.855	85.4954	276.855	87.2201	276.855	85.045	276.855	86.9991	276.855	84.5824	276.855	86.7424	276.855	84.1098	276.855	86.4565	276.855	83.6381	276.855	86.1405	276.855	83.1965	276.855	85.7918	276.855	82.8351	276.855	85.4144	276.855	82.6114	276.855	85.0251	276.855	82.561	276.855	84.6526	276.855	82.6712	276.855	84.3277	276.855	82.8856	276.855	84.0687	276.855	83.134	276.855	83.8721	276.855	83.3634	276.855	83.7122	276.855	83.5529
287.109	86.7207	287.109	86.5917	287.109	86.7679	287.109	86.389	287.109	86.7319	287.109	86.1239	287.109	86.6207	287.109	85.809	287.109	86.4542	287.109	85.4561	287.109	86.2624	287.109	85.0757	287.109	86.0783	287.109	84.6762	287.109	85.9249	287.109	84.2646	287.109	85.8019	287.109	83.8479	287.109	85.6841	287.109	83.4369	287.109	85.5341	287.109	83.0523	287.109	85.3234	287.109	82.729	287.109	85.0467	287.109	82.5126	287.109	84.7246	287.109	82.442	287.109	84.3925	287.109	82.5249	287.109	84.0811	287.109	82.7277	287.109	83.8001	287.109	82.9929	287.109	83.5367	287.109	83.2699
297.363	87.2607	297.363	87.1073	297.363	87.3131	297.363	86.8724	297.363	87.2492	297.363	86.5746	297.363	87.0641	297.363	86.2275	297.363	86.7689	297.363	85.8391	297.363	86.3948	297.363	85.4135	297.363	85.9907	297.363	84.9551	297.363	85.6111	297.363	84.472	297.363	85.2928	297.363	83.9779	297.363	85.0363	297.363	83.4921	297.363	84.8093	297.363	83.0394	297.363	84.5718	297.363	82.6512	297.363	84.3021	297.363	82.3647	297.363	84.0075	297.363	82.2142	297.363	83.7147	297.363	82.2128	297.363	83.4483	297.363	82.3389	297.363	83.2132	297.363	82.5422	297.363	82.9937	297.363	82.7703
307.617	86.0045	307.617	85.7012	307.617	86.2153	307.617	85.3537	307.617	86.3014	307.617	85.0165	307.617	86.2532	307.617	84.7354	307.617	86.0888	307.617	84.5324	307.617	85.8567	307.617	84.3989	307.617	85.6261	307.617	84.3024	307.617	85.4577	307.617	84.2002	307.617	85.3643	307.617	84.0524	307.617	85.2958	307.617	83.8285	307.617	85.167	307.617	83.5126	307.617	84.9037	307.617	83.1077	307.617	84.4747	307.617	82.6418	307.617	83.9047	307.617	82.1715	307.617	83.267	307.617	81.7741	307.617	82.6562	307.617	81.5209	307.617	82.1476	307.617	81.4448	307.617	81.7731	307.617	81.5361
319.336	88.148	319.336	87.7779	319.336	88.3359	319.336	87.2493	319.336	88.3223	319.336	86.5901	319.336	88.0935	319.336	85.8357	319.336	87.6463	319.336	85.0338	319.336	86.9971	319.336	84.2514	319.336	86.2009	319.336	83.5804	319.336	85.376	319.336	83.1262	319.336	84.7116	319.336	82.9668	319.336	84.3905	319.336	83.1013	319.336	84.4448	319.336	83.4432	319.336	84.727	319.336	83.8715	319.336	85.0495	319.336	84.2868	319.336	85.297	319.336	84.6331	319.336	85.4363	319.336	84.895	319.336	85.4817	319.336	85.083	319.336	85.4625	319.336	85.2188	319.336	85.4044	319.336	85.3224
329.59	87.9701	329.59	87.7113	329.59	88.1031	329.59	87.345	329.59	88.0959	329.59	86.8899	329.59	87.9395	329.59	86.3631	329.59	87.6323	329.59	85.7783	329.59	87.1813	329.59	85.1486	329.59	86.607	329.59	84.4958	329.59	85.9488	329.59	83.8638	329.59	85.2712	329.59	83.3296	329.59	84.6586	329.59	82.9911	329.59	84.1941	329.59	82.9194	329.59	83.9252	329.59	83.1057	329.59	83.8476	329.59	83.462	329.59	83.9212	329.59	83.8765	329.59	84.0957	329.59	84.259	329.59	84.3203	329.59	84.5535	329.59	84.5422	329.59	84.7308	329.59	84.7095	329.59	84.7806
341.309	87.5338	341.309	87.2838	341.309	87.6512	341.309	86.921	341.309	87.6238	341.309	86.47	341.309	87.4485	341.309	85.955	341.309	87.132	341.309	85.3954	341.309	86.6923	341.309	84.8043	341.309	86.1609	341.309	84.1949	341.309	85.5833	341.309	83.5952	341.309	85.0141	341.309	83.0645	341.309	84.5073	341.309	82.6931	341.309	84.1045	341.309	82.5671	341.309	83.8328	341.309	82.7096	341.309	83.7071	341.309	83.057	341.309	83.7287	341.309	83.498	341.309	83.8754	341.309	83.9276	341.309	84.0972	341.309	84.2721	341.309	84.3272	341.309	84.4895	341.309	84.4994	341.309	84.5632
353.027	87.5228	353.027	87.2486	353.027	87.6644	353.027	86.8572	353.027	87.6628	353.027	86.3666	353.027	87.5135	353.027	85.7946	353.027	87.2202	353.027	85.155	353.027	86.7977	353.027	84.4557	353.027	86.2745	353.027	83.7021	353.027	85.6927	353.027	82.9119	353.027	85.1009	353.027	82.141	353.027	84.542	353.027	81.5115	353.027	84.0454	353.027	81.1958	353.027	83.6334	353.027	81.307	353.027	83.3365	353.027	81.7839	353.027	83.1947	353.027	82.4329	353.027	83.229	353.027	83.0634	353.027	83.4088	353.027	83.5548	353.027	83.6524	353.027	83.852	353.027	83.8598	353.027	83.9454
366.211	87.596	366.211	87.3838	366.211	87.6744	366.211	87.059	366.211	87.5984	366.211	86.6393	366.211	87.3543	366.211	86.135	366.211	86.9416	366.211	85.5501	366.211	86.3808	366.211	84.8859	366.211	85.7225	366.211	84.1479	366.211	85.052	366.211	83.3557	366.211	84.4714	366.211	82.5547	366.211	84.0495	366.211	81.8281	366.211	83.7748	366.211	81.2944	366.211	83.5706	366.211	81.0683	366.211	83.3666	366.211	81.1901	366.211	83.1567	366.211	81.5847	366.211	83.0002	366.211	82.1029	366.211	82.9624	366.211	82.5942	366.211	83.0358	366.211	82.9515	366.211	83.1284	366.211	83.1253
379.395	87.6164	379.395	87.3756	379.395	87.7536	379.395	87.0559	379.395	87.7646	379.395	86.678	379.395	87.6318	379.395	86.2506	379.395	87.3438	379.395	85.7662	379.395	86.8985	379.395	85.205	379.395	86.3113	379.395	84.5471	379.395	85.6221	379.395	83.7891	379.395	84.8962	379.395	82.9631	379.395	84.2116	379.395	82.153	379.395	83.6362	379.395	81.4898	379.395	83.2116	379.395	81.1037	379.395	82.9511	379.395	81.0485	379.395	82.8431	379.395	81.2701	379.395	82.8481	379.395	81.652	379.395	82.9023	379.395	82.0762	379.395	82.9352	379.395	82.454	379.395	82.8897	379.395	82.7321
392.578	86.8084	392.578	86.5038	392.578	87.0062	392.578	86.1354	392.578	87.0625	392.578	85.7488	392.578	86.9526	392.578	85.3771	392.578	86.6652	392.578	85.023	392.578	86.2089	392.578	84.6522	392.578	85.6181	392.578	84.2055	392.578	84.9534	392.578	83.6255	392.578	84.2888	392.578	82.8887	392.578	83.6858	392.578	82.0447	392.578	83.1701	392.578	81.2587	392.578	82.7352	392.578	80.799	392.578	82.3845	392.578	80.8646	392.578	82.1753	392.578	81.3809	392.578	82.1959	392.578	82.0777	392.578	82.4596	392.578	82.7091	392.578	82.8437	392.578	83.1315	392.578	83.1654	392.578	83.2834
405.762	86.7393	405.762	86.4263	405.762	86.8938	405.762	86.0096	405.762	86.854	405.762	85.5526	405.762	86.6072	405.762	85.1073	405.762	86.1679	405.762	84.6886	405.762	85.5792	405.762	84.2618	405.762	84.9104	405.762	83.7587	405.762	84.2467	405.762	83.1113	405.762	83.667	405.762	82.2866	405.762	83.2134	405.762	81.32	405.762	82.8681	405.762	80.3555	405.762	82.5641	405.762	79.6628	405.762	82.2349	405.762	79.516	405.762	81.8768	405.762	79.9333	405.762	81.5842	405.762	80.6425	405.762	81.4948	405.762	81.33	405.762	81.6385	405.762	81.7963	405.762	81.8654	405.762	81.9645
420.41	87.2717	420.41	86.8918	420.41	87.4791	420.41	86.399	420.41	87.483	420.41	85.8788	420.41	87.2766	420.41	85.4219	420.41	86.8745	420.41	85.0809	420.41	86.3111	420.41	84.8337	420.41	85.6388	420.41	84.5929	420.41	84.9268	420.41	84.2508	420.41	84.2568	420.41	83.722	420.41	83.7083	420.41	82.9684	420.41	83.33	420.41	82.025	420.41	83.1088	420.41	81.0483	420.41	82.9681	420.41	80.3431	420.41	82.813	420.41	80.2067	420.41	82.597	420.41	80.6069	420.41	82.3608	420.41	81.2079	420.41	82.1904	420.41	81.7063	420.41	82.1016	420.41	81.9872
435.059	87.9535	435.059	87.5062	435.059	88.1659	435.059	86.8591	435.059	88.1333	435.059	86.0894	435.059	87.8613	435.059	85.3314	435.059	87.3686	435.059	84.75	435.059	86.6907	435.059	84.4458	435.059	85.8897	435.059	84.3683	435.059	85.0668	435.059	84.3596	435.059	84.3591	435.059	84.2666	435.059	83.8942	435.059	83.9998	435.059	83.7209	435.059	83.5389	435.059	83.7871	435.059	82.9352	435.059	83.9762	435.059	82.3285	435.059	84.1542	435.059	81.9339	435.059	84.2107	435.059	81.9142	435.059	84.0969	435.059	82.2239	435.059	83.838	435.059	82.6703	435.059	83.4958	435.059	83.1067
451.172	88.928	451.172	88.3999	451.172	89.2022	451.172	87.6273	451.172	89.22	451.172	86.6426	451.172	88.9786	451.172	85.5234	451.172	88.4741	451.172	84.4065	451.172	87.7081	451.172	83.4637	451.172	86.699	451.172	82.8177	451.172	85.5009	451.172	82.4665	451.172	84.229	451.172	82.3112	451.172	83.0749	451.172	82.2422	451.172	82.2698	451.172	82.193	451.172	81.9691	451.172	82.1498	451.172	82.1502	451.172	82.1483	451.172	82.6333	451.172	82.255	451.172	83.19	451.172	82.5189	451.172	83.6399	451.172	82.9167	451.172	83.8867	451.172	83.3518	451.172	83.9044	451.172	83.7098
465.82	88.7441	465.82	88.3455	465.82	88.9119	465.82	87.7163	465.82	88.8554	465.82	86.8706	465.82	88.5863	465.82	85.8517	465.82	88.1219	465.82	84.7494	465.82	87.4811	465.82	83.7012	465.82	86.6743	465.82	82.8494	465.82	85.695	465.82	82.2655	465.82	84.5288	465.82	81.9199	465.82	83.2035	465.82	81.7352	465.82	81.908	465.82	81.6578	465.82	81.1118	465.82	81.6856	465.82	81.2533	465.82	81.8523	465.82	82.0986	465.82	82.1847	465.82	83.0509	465.82	82.6578	465.82	83.7571	465.82	83.1887	465.82	84.1299	465.82	83.6742	465.82	84.2013	465.82	84.0313
483.398	88.3235	483.398	88.0409	483.398	88.3666	483.398	87.5115	483.398	88.1875	483.398	86.748	483.398	87.8119	483.398	85.8016	483.398	87.2764	483.398	84.777	483.398	86.628	483.398	83.8214	483.398	85.9144	483.398	83.0648	483.398	85.1672	483.398	82.5433	483.398	84.388	483.398	82.1881	483.398	83.5545	483.398	81.8995	483.398	82.6744	483.398	81.629	483.398	81.8911	483.398	81.4192	483.398	81.5328	483.398	81.3888	483.398	81.8291	483.398	81.6498	483.398	82.5515	483.398	82.1878	483.398	83.2757	483.398	82.8446	483.398	83.7554	483.398	83.4289	483.398	83.9298	483.398	83.811
499.512	88.4713	499.512	88.0927	499.512	88.6013	499.512	87.4664	499.512	88.4846	499.512	86.5992	499.512	88.1342	499.512	85.5231	499.512	87.5822	499.512	84.3255	499.512	86.8787	499.512	83.1702	499.512	86.0757	499.512	82.2616	499.512	85.2029	499.512	81.7227	499.512	84.2487	499.512	81.5062	499.512	83.1711	499.512	81.4687	499.512	81.9803	499.512	81.5028	499.512	80.9519	499.512	81.589	499.512	80.7689	499.512	81.7796	499.512	81.7465	499.512	82.1542	499.512	83.1809	499.512	82.7499	499.512	84.358	499.512	83.5043	499.512	85.0222	499.512	84.2694	499.512	85.166	499.512	84.8739
517.09	88.6703	517.09	88.2938	517.09	88.7577	517.09	87.6141	517.09	88.5873	517.09	86.6417	517.09	88.2091	517.09	85.436	517.09	87.6913	517.09	84.1452	517.09	87.1072	517.09	83.0282	517.09	86.5087	517.09	82.3589	517.09	85.8901	517.09	82.1883	517.09	85.1617	517.09	82.2764	517.09	84.1619	517.09	82.3341	517.09	82.7253	517.09	82.2305	517.09	80.8988	517.09	82.031	517.09	79.6005	517.09	81.9491	517.09	80.3618	517.09	82.2147	517.09	82.3175	517.09	82.8756	517.09	83.9697	517.09	83.7461	517.09	84.9446	517.09	84.5642	517.09	85.2914	517.09	85.1257
536.133	88.5927	536.133	88.408	536.133	88.4657	536.133	87.8758	536.133	88.0585	536.133	86.9527	536.133	87.412	536.133	85.5985	536.133	86.5947	536.133	83.8105	536.133	85.7092	536.133	81.7597	536.133	84.8872	536.133	80.1552	536.133	84.2491	536.133	80.0548	536.133	83.7927	536.133	81.1341	536.133	83.3022	536.133	82.284	536.133	82.4238	536.133	83.0641	536.133	80.8973	536.133	83.4897	536.133	79.2855	536.133	83.7142	536.133	79.8968	536.133	83.9211	536.133	82.4084	536.133	84.2644	536.133	84.506	536.133	84.7899	536.133	85.6733	536.133	85.3961	536.133	86.0576	536.133	85.8905
555.176	87.4735	555.176	87.9871	555.176	86.7804	555.176	88.1946	555.176	86.0317	555.176	87.976	555.176	85.3435	555.176	87.2195	555.176	84.8078	555.176	85.7936	555.176	84.456	555.176	83.4739	555.176	84.2323	555.176	79.8357	555.176	83.9966	555.176	74.8801	555.176	83.5394	555.176	75.4122	555.176	82.5804	555.176	79.7507	555.176	80.7013	555.176	82.6476	555.176	77.2889	555.176	84.4714	555.176	74.44	555.176	85.6588	555.176	79.1334	555.176	86.4592	555.176	83.5324	555.176	87.0343	555.176	86.1714	555.176	87.4987	555.176	87.5846	555.176	87.8993	555.176	88.1534	555.176	88.1753
574.219	85.6521	574.219	86.3032	574.219	85.3893	574.219	87.1907	574.219	85.2178	574.219	87.9118	574.219	84.786	574.219	88.1785	574.219	84.0541	574.219	87.8366	574.219	83.4673	574.219	86.7365	574.219	83.7226	574.219	84.606	574.219	84.7429	574.219	80.7886	574.219	85.7418	574.219	72.67	574.219	86.1485	574.219	69.8588	574.219	85.5921	574.219	79.7328	574.219	83.4532	574.219	84.1764	574.219	77.9092	574.219	86.9851	574.219	75.8712	574.219	88.9985	574.219	84.7739	574.219	90.5337	574.219	89.234	574.219	91.7147	574.219	91.6004	574.219	92.545	574.219	92.7011	574.219	92.9315
594.727	87.3524	594.727	85.7687	594.727	88.4184	594.727	84.5782	594.727	88.7203	594.727	84.9347	594.727	88.201	594.727	86.237	594.727	86.7729	594.727	87.3234	594.727	84.2357	594.727	87.7622	594.727	80.5824	594.727	87.419	594.727	79.1447	594.727	86.1253	594.727	82.4048	594.727	83.5047	594.727	85.2643	594.727	78.558	594.727	86.7654	594.727	71.8537	594.727	86.9507	594.727	79.4033	594.727	85.6068	594.727	84.7859	594.727	82.588	594.727	88.2211	594.727	82.9289	594.727	90.6594	594.727	87.9282	594.727	92.3901	594.727	91.3775	594.727	93.4566	594.727	93.1808	594.727	93.7785
615.234	87.9868	615.234	85.9876	615.234	89.2322	615.234	83.6141	615.234	89.7429	615.234	82.5748	615.234	89.5518	615.234	83.8446	615.234	88.627	615.234	85.4892	615.234	86.8179	615.234	86.4484	615.234	83.7503	615.234	86.5923	615.234	78.9665	615.234	85.9336	615.234	77.756	615.234	84.3933	615.234	82.5537	615.234	81.6471	615.234	85.7798	615.234	77.0601	615.234	87.4062	615.234	75.4536	615.234	87.6691	615.234	81.4353	615.234	86.4464	615.234	85.851	615.234	84.032	615.234	88.7905	615.234	84.5186	615.234	90.7184	615.234	88.1863	615.234	91.758	615.234	90.7434	615.234	91.8359
637.207	91.0639	637.207	89.4228	637.207	91.8722	637.207	86.6541	637.207	92.015	637.207	82.1183	637.207	91.5964	637.207	75.539	637.207	90.635	637.207	78.5454	637.207	88.9687	637.207	83.1829	637.207	86.1201	637.207	85.4837	637.207	80.8737	637.207	86.3177	637.207	69.3096	637.207	86.1011	637.207	78.7711	637.207	84.9934	637.207	84.357	637.207	82.9586	637.207	87.0325	637.207	80.2708	637.207	88.0039	637.207	80.4394	637.207	87.3668	637.207	84.4641	637.207	85.2184	637.207	88.0193	637.207	84.6368	637.207	90.3876	637.207	87.9706	637.207	91.6592	637.207	90.6679	637.207	91.8136
659.18	90.6097	659.18	90.1475	659.18	90.6229	659.18	89.0445	659.18	90.3625	659.18	87.0841	659.18	89.9423	659.18	83.9936	659.18	89.3579	659.18	79.9175	659.18	88.4853	659.18	78.6499	659.18	87.1095	659.18	81.2953	659.18	84.8628	659.18	83.3658	659.18	80.7975	659.18	84.3714	659.18	70.1875	659.18	84.5195	659.18	75.5861	659.18	83.8249	659.18	83.2488	659.18	82.256	659.18	86.619	659.18	80.5194	659.18	87.9905	659.18	81.3407	659.18	87.8514	659.18	84.5173	659.18	86.7209	659.18	87.2606	659.18	86.3616	659.18	88.7628	659.18	87.7373	659.18	88.8862
682.617	89.6763	682.617	89.6758	682.617	89.2633	682.617	89.1259	682.617	88.5928	682.617	87.8639	682.617	87.8498	682.617	85.6509	682.617	87.1603	682.617	82.272	682.617	86.49	682.617	78.9716	682.617	85.6939	682.617	79.7246	682.617	84.5493	682.617	81.8743	682.617	82.582	682.617	83.1192	682.617	78.7488	682.617	83.6122	682.617	72.6497	682.617	83.5378	682.617	78.4451	682.617	82.6793	682.617	83.6081	682.617	80.4347	682.617	86.0241	682.617	75.8825	682.617	86.4782	682.617	73.6602	682.617	85.1408	682.617	78.6913	682.617	82.3695	682.617	81.2305	682.617	80.6235	682.617	81.3573
707.52	88.6374	707.52	88.817	707.52	88.2188	707.52	88.5799	707.52	87.7738	707.52	87.794	707.52	87.4149	707.52	86.3029	707.52	87.0717	707.52	83.9548	707.52	86.5957	707.52	81.2106	707.52	85.815	707.52	80.3763	707.52	84.4648	707.52	81.6232	707.52	82.2024	707.52	82.5773	707.52	78.521	707.52	82.7867	707.52	73.7089	707.52	82.5211	707.52	77.127	707.52	81.7345	707.52	81.9249	707.52	79.817	707.52	84.1452	707.52	75.9143	707.52	84.0921	707.52	72.1385	707.52	81.5403	707.52	74.8722	707.52	75.0234	707.52	76.4493	707.52	65.9087	707.52	74.5593
732.422	87.6722	732.422	87.9955	732.422	87.1545	732.422	87.9613	732.422	86.5502	732.422	87.3716	732.422	85.9766	732.422	86.0065	732.422	85.5559	732.422	83.6469	732.422	85.2261	732.422	80.5631	732.422	84.6904	732.422	79.0309	732.422	83.599	732.422	79.9852	732.422	81.5758	732.422	80.9344	732.422	77.8736	732.422	81.3295	732.422	72.124	732.422	81.4464	732.422	75.5565	732.422	81.2445	732.422	80.5367	732.422	80.3143	732.422	83.3089	732.422	77.9851	732.422	84.2718	732.422	72.9733	732.422	83.0804	732.422	68.1925	732.422	79.1524	732.422	73.4177	732.422	74.0068	732.422	74.5015
757.324	87.1134	757.324	87.2709	757.324	86.9805	757.324	87.5011	757.324	86.4757	757.324	87.4936	757.324	85.3313	757.324	86.8983	757.324	83.725	757.324	85.4092	757.324	82.3009	757.324	82.7474	757.324	81.6781	757.324	78.8987	757.324	81.7264	757.324	76.0986	757.324	81.6615	757.324	77.6409	757.324	80.4173	757.324	79.7876	757.324	76.2076	757.324	81.0887	757.324	67.4182	757.324	81.7448	757.324	77.9588	757.324	81.5063	757.324	82.8186	757.324	79.4911	757.324	84.7778	757.324	74.3068	757.324	84.6892	757.324	65.8515	757.324	82.479	757.324	69.2777	757.324	77.8391	757.324	72.0827
785.156	88.3396	785.156	87.3619	785.156	88.0033	785.156	85.9131	785.156	86.2125	785.156	85.1772	785.156	84.4153	785.156	85.1287	785.156	85.0855	785.156	84.8504	785.156	86.3698	785.156	84.2997	785.156	86.7665	785.156	83.9605	785.156	86.3586	785.156	83.9005	785.156	85.317	785.156	84.0312	785.156	83.9272	785.156	84.2089	785.156	82.6964	785.156	83.9402	785.156	81.125	785.156	82.8455	785.156	78.3163	785.156	80.5048	785.156	77.8909	785.156	76.2294	785.156	79.7218	785.156	71.7663	785.156	79.4209	785.156	70.5873	785.156	78.3784	785.156	71.4626	785.156	77.8087	785.156	75.5811
811.523	87.9064	811.523	86.9681	811.523	87.8369	811.523	85.7755	811.523	86.6889	811.523	85.4041	811.523	85.0152	811.523	85.5104	811.523	83.9484	811.523	84.9439	811.523	83.8449	811.523	83.2369	811.523	83.7678	811.523	80.7913	811.523	82.9503	811.523	79.4102	811.523	81.2363	811.523	79.7263	811.523	78.9906	811.523	79.8052	811.523	76.5878	811.523	79.2178	811.523	74.9787	811.523	78.1372	811.523	76.2473	811.523	75.6383	811.523	77.6244	811.523	71.4177	811.523	77.8903	811.523	69.131	811.523	77.1351	811.523	71.4636	811.523	75.3024	811.523	74.508	811.523	75.1828	811.523	75.8825
840.82	88.1822	840.82	88.0065	840.82	87.2533	840.82	87.0046	840.82	85.9123	840.82	85.8538	840.82	85.575	840.82	84.8057	840.82	85.853	840.82	83.5028	840.82	85.5545	840.82	81.6863	840.82	84.5069	840.82	79.3873	840.82	82.9883	840.82	78.6413	840.82	81.1992	840.82	80.7467	840.82	79.0527	840.82	81.6882	840.82	75.4343	840.82	80.3198	840.82	69.3365	840.82	77.7991	840.82	76.8038	840.82	76.7749	840.82	81.7316	840.82	77.3885	840.82	83.3074	840.82	75.9902	840.82	82.3796	840.82	73.2942	840.82	77.8436	840.82	75.4356	840.82	63.3073	840.82	74.3092
870.117	88.5135	870.117	87.2976	870.117	88.5659	870.117	85.6567	870.117	87.5155	870.117	85.0621	870.117	85.9299	870.117	85.2519	870.117	84.4936	870.117	84.736	870.117	83.3413	870.117	83.0685	870.117	82.4196	870.117	80.4316	870.117	81.879	870.117	76.3665	870.117	81.5073	870.117	68.2323	870.117	81.1443	870.117	66.9228	870.117	80.902	870.117	73.3707	870.117	79.2645	870.117	75.9082	870.117	72.1029	870.117	76.9897	870.117	71.5833	870.117	76.9193	870.117	79.4117	870.117	75.6146	870.117	80.7871	870.117	74.3991	870.117	78.2924	870.117	75.1434	870.117	72.9478	870.117	74.3367
900.879	88.44	900.879	88.7942	900.879	86.3972	900.879	87.2337	900.879	85.0486	900.879	83.8326	900.879	86.5746	900.879	80.2351	900.879	87.6733	900.879	81.6039	900.879	87.1847	900.879	84.2712	900.879	85.2228	900.879	85.5663	900.879	82.4267	900.879	85.5959	900.879	80.5444	900.879	84.8509	900.879	80.6971	900.879	84.0432	900.879	81.7365	900.879	83.4653	900.879	82.4643	900.879	82.9742	900.879	82.2261	900.879	82.1092	900.879	80.26	900.879	79.4723	900.879	76.018	900.879	74.3101	900.879	76.2392	900.879	74.0688	900.879	77.3407	900.879	75.5885	900.879	73.8818	900.879	73.1236
933.105	87.5283	933.105	85.9253	933.105	89.0631	933.105	86.4019	933.105	88.9112	933.105	87.437	933.105	86.5016	933.105	87.0008	933.105	81.3768	933.105	83.8266	933.105	75.2798	933.105	75.7297	933.105	77.3846	933.105	73.072	933.105	80.5581	933.105	80.5385	933.105	82.1717	933.105	84.2442	933.105	81.6306	933.105	85.9493	933.105	79.1166	933.105	85.4628	933.105	77.656	933.105	83.3759	933.105	80.9281	933.105	79.9595	933.105	84.0242	933.105	70.2936	933.105	84.1171	933.105	66.8445	933.105	79.6798	933.105	67.0599	933.105	65.1546	933.105	71.1328	933.105	77.6706	933.105	78.3936
965.332	89.0162	965.332	89.0695	965.332	86.8913	965.332	86.9274	965.332	85.7859	965.332	83.0083	965.332	87.7479	965.332	81.3361	965.332	87.9669	965.332	82.6701	965.332	85.3692	965.332	83.0346	965.332	80.0748	965.332	83.3867	965.332	72.7046	965.332	83.6406	965.332	68.4923	965.332	82.6883	965.332	71.5958	965.332	81.5243	965.332	69.463	965.332	80.2852	965.332	63.6424	965.332	77.3268	965.332	77.3429	965.332	72.846	965.332	81.7413	965.332	71.7805	965.332	82.6428	965.332	74.4485	965.332	80.6282	965.332	69.7569	965.332	74.642	965.332	66.0757	965.332	72.3068	965.332	74.6746
1,000.49	90.167	1,000.49	88.7532	1,000.49	89.5259	1,000.49	85.4292	1,000.49	87.4485	1,000.49	83.469	1,000.49	86.5976	1,000.49	85.7234	1,000.49	87.0957	1,000.49	86.2143	1,000.49	86.4504	1,000.49	84.5998	1,000.49	84.6487	1,000.49	80.7794	1,000.49	83.11	1,000.49	74.8252	1,000.49	83.881	1,000.49	78.779	1,000.49	85.5708	1,000.49	82.033	1,000.49	85.6507	1,000.49	83.258	1,000.49	83.1824	1,000.49	81.1188	1,000.49	79.458	1,000.49	69.3332	1,000.49	82.2265	1,000.49	77.4729	1,000.49	86.4701	1,000.49	83.1915	1,000.49	87.6597	1,000.49	82.9405	1,000.49	85.6666	1,000.49	77.3404	1,000.49	80.5171	1,000.49	71.0478
1,035.64	89.7272	1,035.64	91.315	1,035.64	86.8158	1,035.64	90.3388	1,035.64	88.0751	1,035.64	86.0199	1,035.64	89.8901	1,035.64	76.0423	1,035.64	88.9645	1,035.64	80.902	1,035.64	84.349	1,035.64	85.6114	1,035.64	76.311	1,035.64	86.9409	1,035.64	81.5273	1,035.64	86.2056	1,035.64	81.3666	1,035.64	84.7135	1,035.64	75.3886	1,035.64	82.9078	1,035.64	71.2194	1,035.64	78.5045	1,035.64	69.8768	1,035.64	73.6464	1,035.64	69.5927	1,035.64	75.7242	1,035.64	74.9167	1,035.64	80.0028	1,035.64	78.7411	1,035.64	83.6351	1,035.64	85.2818	1,035.64	84.8802	1,035.64	86.6871	1,035.64	83.6861	1,035.64	84.3764	1,035.64	82.1065
1,072.27	87.947	1,072.27	88.7268	1,072.27	87.8344	1,072.27	88.7463	1,072.27	88.0228	1,072.27	87.3375	1,072.27	86.3339	1,072.27	84.3798	1,072.27	82.7508	1,072.27	79.4302	1,072.27	83.5704	1,072.27	68.5144	1,072.27	86.7469	1,072.27	76.1656	1,072.27	87.9815	1,072.27	82.2606	1,072.27	87.4001	1,072.27	85.2907	1,072.27	86.0092	1,072.27	85.6789	1,072.27	85.3129	1,072.27	81.9934	1,072.27	84.8133	1,072.27	76.8019	1,072.27	81.6574	1,072.27	72.433	1,072.27	75.2574	1,072.27	74.6204	1,072.27	79.9518	1,072.27	80.7121	1,072.27	83.9956	1,072.27	83.3065	1,072.27	83.8819	1,072.27	83.7679	1,072.27	81.1954	1,072.27	82.1377
1,108.89	86.3614	1,108.89	87.829	1,108.89	86.5548	1,108.89	88.3071	1,108.89	88.0836	1,108.89	86.6869	1,108.89	87.8131	1,108.89	83.3707	1,108.89	85.1798	1,108.89	80.9493	1,108.89	83.8343	1,108.89	78.1933	1,108.89	84.9222	1,108.89	67.1489	1,108.89	85.3727	1,108.89	79.2236	1,108.89	84.8344	1,108.89	84.9174	1,108.89	85.0824	1,108.89	87.1742	1,108.89	86.0628	1,108.89	85.6928	1,108.89	86.6654	1,108.89	81.7736	1,108.89	85.2118	1,108.89	78.6988	1,108.89	79.9537	1,108.89	66.975	1,108.89	78.1816	1,108.89	80.4893	1,108.89	83.3427	1,108.89	84.5601	1,108.89	82.7412	1,108.89	84.6755	1,108.89	75.9758	1,108.89	80.7071
1,148.44	87.9968	1,148.44	87.3979	1,148.44	87.6948	1,148.44	86.2673	1,148.44	86.9265	1,148.44	85.529	1,148.44	86.7472	1,148.44	85.2595	1,148.44	87.2165	1,148.44	84.8369	1,148.44	86.8351	1,148.44	82.9878	1,148.44	85.0396	1,148.44	79.3612	1,148.44	82.0497	1,148.44	82.6806	1,148.44	79.3331	1,148.44	84.7537	1,148.44	80.3606	1,148.44	83.6739	1,148.44	82.1087	1,148.44	78.7714	1,148.44	83.5309	1,148.44	74.9613	1,148.44	83.5176	1,148.44	75.9316	1,148.44	79.9682	1,148.44	75.3196	1,148.44	66.5657	1,148.44	74.1824	1,148.44	75.6996	1,148.44	79.3915	1,148.44	80.3099	1,148.44	81.3805	1,148.44	79.6863	1,148.44	79.8834
1,189.45	87.2098	1,189.45	87.6195	1,189.45	86.7958	1,189.45	86.7691	1,189.45	87.6808	1,189.45	84.3335	1,189.45	87.9883	1,189.45	81.795	1,189.45	85.365	1,189.45	83.6363	1,189.45	79.0714	1,189.45	85.7858	1,189.45	75.4018	1,189.45	85.4638	1,189.45	78.51	1,189.45	84.6842	1,189.45	81.5822	1,189.45	85.3975	1,189.45	82.2946	1,189.45	85.7343	1,189.45	82.1982	1,189.45	83.5546	1,189.45	83.9645	1,189.45	77.6777	1,189.45	85.6544	1,189.45	79.909	1,189.45	84.3588	1,189.45	80.2698	1,189.45	78.7405	1,189.45	78.4978	1,189.45	78.2147	1,189.45	79.9277	1,189.45	81.6494	1,189.45	80.2965	1,189.45	78.6946	1,189.45	73.9475
1,230.47	86.8412	1,230.47	87.852	1,230.47	86.7016	1,230.47	87.0468	1,230.47	87.7291	1,230.47	83.4915	1,230.47	86.784	1,230.47	78.9863	1,230.47	82.7317	1,230.47	81.5609	1,230.47	82.3132	1,230.47	84.6331	1,230.47	84.5054	1,230.47	85.2344	1,230.47	84.6046	1,230.47	83.85	1,230.47	84.5529	1,230.47	81.0446	1,230.47	83.3882	1,230.47	79.3918	1,230.47	80.2324	1,230.47	77.3853	1,230.47	75.8536	1,230.47	68.8294	1,230.47	77.4787	1,230.47	77.6671	1,230.47	80.2121	1,230.47	79.8591	1,230.47	77.7399	1,230.47	75.5632	1,230.47	65.9187	1,230.47	65.048	1,230.47	71.3667	1,230.47	71.9141	1,230.47	77.721	1,230.47	76.4296
1,274.41	87.4615	1,274.41	87.1003	1,274.41	87.6913	1,274.41	86.4215	1,274.41	86.6764	1,274.41	84.869	1,274.41	83.4597	1,274.41	82.115	1,274.41	82.6586	1,274.41	77.2029	1,274.41	84.9489	1,274.41	77.8503	1,274.41	84.5895	1,274.41	80.8519	1,274.41	82.7629	1,274.41	80.5784	1,274.41	81.5051	1,274.41	79.3859	1,274.41	81.5701	1,274.41	80.0581	1,274.41	81.7695	1,274.41	80.207	1,274.41	79.3169	1,274.41	76.8531	1,274.41	72.9114	1,274.41	79.8758	1,274.41	76.2714	1,274.41	80.2918	1,274.41	80.5452	1,274.41	75.8798	1,274.41	78.6406	1,274.41	69.429	1,274.41	65.4025	1,274.41	69.998	1,274.41	76.8274	1,274.41	73.127
1,319.82	87.1842	1,319.82	87.2192	1,319.82	87.3755	1,319.82	86.8812	1,319.82	86.4109	1,319.82	85.411	1,319.82	83.7102	1,319.82	83.0759	1,319.82	83.5694	1,319.82	79.5468	1,319.82	83.8168	1,319.82	75.8151	1,319.82	80.4465	1,319.82	75.6994	1,319.82	74.8943	1,319.82	76.3179	1,319.82	73.7946	1,319.82	72.9734	1,319.82	74.6334	1,319.82	64.2746	1,319.82	75.0883	1,319.82	66.9332	1,319.82	74.0063	1,319.82	69.3937	1,319.82	56.2944	1,319.82	74.5584	1,319.82	73.2145	1,319.82	77.9294	1,319.82	74.4214	1,319.82	75.6063	1,319.82	76.4961	1,319.82	70.5738	1,319.82	72.5599	1,319.82	65.2421	1,319.82	68.4477	1,319.82	71.3704
1,366.7	87.6667	1,366.7	86.9444	1,366.7	87.5462	1,366.7	85.6898	1,366.7	86.1917	1,366.7	84.6183	1,366.7	84.5764	1,366.7	83.4398	1,366.7	83.922	1,366.7	79.3125	1,366.7	82.188	1,366.7	72.3553	1,366.7	77.2761	1,366.7	75.6934	1,366.7	71.3292	1,366.7	79.6447	1,366.7	66.1303	1,366.7	79.5269	1,366.7	66.6468	1,366.7	78.5826	1,366.7	71.9767	1,366.7	77.4133	1,366.7	75.2396	1,366.7	76.2302	1,366.7	76.1282	1,366.7	73.5275	1,366.7	72.8642	1,366.7	75.3129	1,366.7	67.5923	1,366.7	74.4931	1,366.7	77.733	1,366.7	67.0263	1,366.7	71.8657	1,366.7	59.8604	1,366.7	71.4499	1,366.7	72.0959
1,413.57	87.4266	1,413.57	86.5154	1,413.57	87.1923	1,413.57	85.7391	1,413.57	85.4201	1,413.57	85.4927	1,413.57	84.1633	1,413.57	83.9544	1,413.57	83.0303	1,413.57	79.7149	1,413.57	79.1292	1,413.57	76.972	1,413.57	75.3927	1,413.57	78.5627	1,413.57	77.327	1,413.57	77.3806	1,413.57	74.9054	1,413.57	73.0144	1,413.57	72.4158	1,413.57	71.6011	1,413.57	77.0565	1,413.57	71.8944	1,413.57	77.1539	1,413.57	71.6753	1,413.57	72.7818	1,413.57	73.651	1,413.57	58.0596	1,413.57	74.5669	1,413.57	72.9012	1,413.57	75.7322	1,413.57	75.7327	1,413.57	73.1379	1,413.57	70.3243	1,413.57	65.9564	1,413.57	64.9141	1,413.57	67.0594
1,463.38	87.1158	1,463.38	86.6566	1,463.38	86.3379	1,463.38	84.9666	1,463.38	87.0718	1,463.38	84.1609	1,463.38	86.6508	1,463.38	84.1856	1,463.38	81.3916	1,463.38	82.1255	1,463.38	79.9316	1,463.38	78.0329	1,463.38	82.1931	1,463.38	59.5748	1,463.38	82.702	1,463.38	73.1434	1,463.38	81.3409	1,463.38	69.0145	1,463.38	77.9939	1,463.38	67.7883	1,463.38	73.3385	1,463.38	71.3722	1,463.38	73.4688	1,463.38	73.9524	1,463.38	68.8717	1,463.38	76.0815	1,463.38	74.5144	1,463.38	74.1983	1,463.38	67.3824	1,463.38	72.2469	1,463.38	77.469	1,463.38	70.4017	1,463.38	77.3476	1,463.38	67.4605	1,463.38	65.6246	1,463.38	66.9502
1,516.11	86.5193	1,516.11	85.6464	1,516.11	85.8949	1,516.11	84.265	1,516.11	85.8454	1,516.11	83.674	1,516.11	85.5298	1,516.11	81.521	1,516.11	82.06	1,516.11	77.1578	1,516.11	80.0344	1,516.11	70.9899	1,516.11	80.7232	1,516.11	70.3606	1,516.11	78.0989	1,516.11	72.2041	1,516.11	75.6355	1,516.11	70.8665	1,516.11	73.4357	1,516.11	53.0118	1,516.11	73.2833	1,516.11	51.0298	1,516.11	75.1694	1,516.11	70.6117	1,516.11	75.0488	1,516.11	73.3413	1,516.11	72.6007	1,516.11	73.23	1,516.11	67.4368	1,516.11	73.7897	1,516.11	75.0372	1,516.11	72.4054	1,516.11	75.2036	1,516.11	67.1859	1,516.11	67.7563	1,516.11	65.8172
1,568.85	84.8871	1,568.85	85.0028	1,568.85	85.2278	1,568.85	83.9244	1,568.85	84.8282	1,568.85	81.7394	1,568.85	82.1206	1,568.85	80.4217	1,568.85	79.941	1,568.85	78.0663	1,568.85	78.0096	1,568.85	74.1833	1,568.85	79.5189	1,568.85	72.6038	1,568.85	78.3943	1,568.85	73.9954	1,568.85	75.7758	1,568.85	76.774	1,568.85	76.5245	1,568.85	72.1022	1,568.85	74.3205	1,568.85	68.5022	1,568.85	72.1668	1,568.85	70.7838	1,568.85	69.9468	1,568.85	70.8087	1,568.85	64.2584	1,568.85	68.8861	1,568.85	68.1824	1,568.85	68.9196	1,568.85	70	1,568.85	70.5545	1,568.85	73.1145	1,568.85	67.4897	1,568.85	69.2435	1,568.85	65.3482
1,624.51	85.3365	1,624.51	84.4313	1,624.51	86.0306	1,624.51	83.8038	1,624.51	84.0176	1,624.51	81.4024	1,624.51	79.8151	1,624.51	79.178	1,624.51	79.1243	1,624.51	80.61	1,624.51	77.6387	1,624.51	79.6815	1,624.51	72.6541	1,624.51	75.2282	1,624.51	75.5697	1,624.51	71.4591	1,624.51	76.9716	1,624.51	64.2906	1,624.51	75.6243	1,624.51	59.1583	1,624.51	67.1446	1,624.51	67.8208	1,624.51	64.7399	1,624.51	49.8494	1,624.51	68.559	1,624.51	73.0084	1,624.51	69.5176	1,624.51	70.7265	1,624.51	67.7755	1,624.51	68.1019	1,624.51	67.8906	1,624.51	69.1553	1,624.51	73.2963	1,624.51	68.226	1,624.51	71.127	1,624.51	68.6594
1,681.64	87.2735	1,681.64	85.5967	1,681.64	86.4137	1,681.64	83.6866	1,681.64	83.5796	1,681.64	82.482	1,681.64	81.4089	1,681.64	79.7847	1,681.64	76.9741	1,681.64	79.9104	1,681.64	74.38	1,681.64	79.7608	1,681.64	78.3915	1,681.64	75.5836	1,681.64	79.8537	1,681.64	73.6172	1,681.64	78.9124	1,681.64	64.7664	1,681.64	77.2229	1,681.64	68.8181	1,681.64	72.5717	1,681.64	73.7728	1,681.64	72.5271	1,681.64	73.6004	1,681.64	76.1529	1,681.64	72.9891	1,681.64	63.9895	1,681.64	62.0304	1,681.64	71.2165	1,681.64	65.2738	1,681.64	70.2899	1,681.64	71.6116	1,681.64	71.2619	1,681.64	61.7167	1,681.64	76.1794	1,681.64	65.4272
1,741.7	87.5368	1,741.7	86.5884	1,741.7	87.5481	1,741.7	84.2271	1,741.7	85.0861	1,741.7	80.2466	1,741.7	80.1219	1,741.7	80.561	1,741.7	78.8011	1,741.7	80.6	1,741.7	78.6762	1,741.7	77.5308	1,741.7	80.4928	1,741.7	75.6571	1,741.7	77.4243	1,741.7	74.6914	1,741.7	73.6409	1,741.7	69.3336	1,741.7	73.5265	1,741.7	67.8774	1,741.7	73.8496	1,741.7	70.7463	1,741.7	69.0525	1,741.7	68.3226	1,741.7	72.9278	1,741.7	73.0915	1,741.7	73.7986	1,741.7	70.8995	1,741.7	66.5699	1,741.7	70.1845	1,741.7	71.8284	1,741.7	70.3576	1,741.7	69.3258	1,741.7	62.1512	1,741.7	75.4727	1,741.7	66.9698
1,803.22	87.8873	1,803.22	86.5891	1,803.22	87.1723	1,803.22	84.1719	1,803.22	84.734	1,803.22	81.4721	1,803.22	80.8547	1,803.22	78.6295	1,803.22	78.1037	1,803.22	78.7601	1,803.22	79.2223	1,803.22	76.4157	1,803.22	80.5226	1,803.22	75.9317	1,803.22	78.7988	1,803.22	72.5551	1,803.22	77.6983	1,803.22	75.1364	1,803.22	79.4315	1,803.22	71.9366	1,803.22	76.9634	1,803.22	69.3469	1,803.22	73.2252	1,803.22	63.3984	1,803.22	49.1559	1,803.22	63.9347	1,803.22	73.3588	1,803.22	72.5655	1,803.22	73.1163	1,803.22	70.0985	1,803.22	66.5104	1,803.22	63.0584	1,803.22	71.503	1,803.22	69.0154	1,803.22	67.3404	1,803.22	64.7799
1,866.21	87.0285	1,866.21	86.4382	1,866.21	86.3769	1,866.21	83.0744	1,866.21	84.476	1,866.21	80.5542	1,866.21	79.0954	1,866.21	76.4864	1,866.21	79.1498	1,866.21	78.3578	1,866.21	81.563	1,866.21	78.7727	1,866.21	82.6743	1,866.21	71.2307	1,866.21	77.1984	1,866.21	73.7983	1,866.21	63.5857	1,866.21	69.8562	1,866.21	42.2479	1,866.21	70.591	1,866.21	65.5856	1,866.21	72.4651	1,866.21	57.0691	1,866.21	76.1992	1,866.21	77.5528	1,866.21	72.9785	1,866.21	74.1162	1,866.21	73.503	1,866.21	72.5379	1,866.21	72.6142	1,866.21	70.7834	1,866.21	70.7863	1,866.21	69.3698	1,866.21	67.5081	1,866.21	74.0471	1,866.21	69.3798
1,932.13	86.2057	1,932.13	85.1062	1,932.13	86.1852	1,932.13	84.1974	1,932.13	82.9564	1,932.13	79.6809	1,932.13	78.3769	1,932.13	74.726	1,932.13	77.9188	1,932.13	76.8906	1,932.13	81.406	1,932.13	78.8668	1,932.13	82.2529	1,932.13	74.3534	1,932.13	81.1088	1,932.13	74.8793	1,932.13	76.8773	1,932.13	74.35	1,932.13	74.2569	1,932.13	67.7066	1,932.13	71.5316	1,932.13	70.9804	1,932.13	65.9415	1,932.13	69.907	1,932.13	66.4381	1,932.13	72.0585	1,932.13	67.925	1,932.13	68.9136	1,932.13	69.5148	1,932.13	67.997	1,932.13	69.2214	1,932.13	60.3374	1,932.13	69.8177	1,932.13	63.8506	1,932.13	74.7174	1,932.13	70.5785
1,999.51	85.594	1,999.51	84.9369	1,999.51	85.9598	1,999.51	82.5812	1,999.51	83.5463	1,999.51	76.7662	1,999.51	77.5487	1,999.51	73.9108	1,999.51	76.8498	1,999.51	78.7647	1,999.51	81.1444	1,999.51	78.1823	1,999.51	82.3399	1,999.51	78.0426	1,999.51	81.0899	1,999.51	77.242	1,999.51	78.4507	1,999.51	73.626	1,999.51	72.5854	1,999.51	74.0666	1,999.51	71.7753	1,999.51	70.4041	1,999.51	71.48	1,999.51	68.6628	1,999.51	67.5512	1,999.51	73.9157	1,999.51	62.8621	1,999.51	70.0788	1,999.51	62.4964	1,999.51	70.6472	1,999.51	70.1524	1,999.51	65.5514	1,999.51	65.2121	1,999.51	63.9027	1,999.51	74.965	1,999.51	69.9936
2,069.82	86.7649	2,069.82	85.3089	2,069.82	86.2361	2,069.82	78.7669	2,069.82	82.8741	2,069.82	70.6832	2,069.82	75.1423	2,069.82	74.2353	2,069.82	78.3486	2,069.82	78.4354	2,069.82	82.5694	2,069.82	79.174	2,069.82	82.7646	2,069.82	78.8251	2,069.82	81.0188	2,069.82	75.3609	2,069.82	78.1712	2,069.82	72.6389	2,069.82	73.0355	2,069.82	68.7613	2,069.82	71.8878	2,069.82	72.322	2,069.82	73.5	2,069.82	67.5691	2,069.82	68.6859	2,069.82	72.3796	2,069.82	67.8892	2,069.82	72.3463	2,069.82	62.5436	2,069.82	69.1127	2,069.82	65.9985	2,069.82	66.5525	2,069.82	65.8029	2,069.82	65.0861	2,069.82	75.2979	2,069.82	68.4924
2,143.07	87.0579	2,143.07	85.746	2,143.07	86.5489	2,143.07	79.1065	2,143.07	84.3964	2,143.07	67.0179	2,143.07	78.1591	2,143.07	77.673	2,143.07	79.7965	2,143.07	78.8744	2,143.07	83.1135	2,143.07	77.6105	2,143.07	82.6052	2,143.07	76.6996	2,143.07	80.9661	2,143.07	75.1042	2,143.07	78.7814	2,143.07	72.1259	2,143.07	75.2613	2,143.07	70.1946	2,143.07	75.223	2,143.07	68.2516	2,143.07	71.8958	2,143.07	71.5099	2,143.07	69.0581	2,143.07	66.0952	2,143.07	71.0481	2,143.07	72.3339	2,143.07	65.1067	2,143.07	68.8148	2,143.07	66.6067	2,143.07	66.5316	2,143.07	56.421	2,143.07	55.0957	2,143.07	71.0548	2,143.07	63.4036
2,219.24	86.2964	2,219.24	84.9878	2,219.24	85.0748	2,219.24	79.7086	2,219.24	83.6581	2,219.24	63.3418	2,219.24	76.1799	2,219.24	79.0829	2,219.24	79.9914	2,219.24	78.0574	2,219.24	82.5729	2,219.24	77.9241	2,219.24	82.89	2,219.24	75.7314	2,219.24	80.6753	2,219.24	72.0109	2,219.24	74.7263	2,219.24	69.4578	2,219.24	73.9548	2,219.24	71.9441	2,219.24	74.6616	2,219.24	67.0341	2,219.24	72.5594	2,219.24	69.7992	2,219.24	71.8985	2,219.24	65.7862	2,219.24	73.3395	2,219.24	70.3644	2,219.24	66.5794	2,219.24	68.049	2,219.24	63.3847	2,219.24	64.7034	2,219.24	57.9411	2,219.24	60.8835	2,219.24	69.2954	2,219.24	62.2381
2,296.88	85.3152	2,296.88	84.3106	2,296.88	83.5304	2,296.88	78.352	2,296.88	81.3135	2,296.88	69.9484	2,296.88	70.7982	2,296.88	78.1938	2,296.88	78.9791	2,296.88	78.7228	2,296.88	82.7953	2,296.88	78.5994	2,296.88	82.8091	2,296.88	76.4571	2,296.88	80.2779	2,296.88	77.5696	2,296.88	74.9268	2,296.88	74.6044	2,296.88	72.5082	2,296.88	71.661	2,296.88	70.2221	2,296.88	68.7758	2,296.88	72.4489	2,296.88	70.5365	2,296.88	73.7545	2,296.88	70.612	2,296.88	72.4929	2,296.88	68.6956	2,296.88	71.9651	2,296.88	67.7735	2,296.88	55.7428	2,296.88	63.7282	2,296.88	56.7866	2,296.88	57.8888	2,296.88	65.7607	2,296.88	63.3916
2,378.91	86.0736	2,378.91	83.5961	2,378.91	83.0791	2,378.91	72.8673	2,378.91	78.0401	2,378.91	71.9607	2,378.91	66.6289	2,378.91	77.5937	2,378.91	78.8982	2,378.91	78.9342	2,378.91	83.51	2,378.91	78.152	2,378.91	83.2994	2,378.91	77.24	2,378.91	81.1326	2,378.91	71.6646	2,378.91	77.552	2,378.91	73.1015	2,378.91	74.8892	2,378.91	64.7696	2,378.91	72.8589	2,378.91	70.9354	2,378.91	63.8361	2,378.91	66.8029	2,378.91	73.9663	2,378.91	70.9006	2,378.91	71.3552	2,378.91	69.0984	2,378.91	72.8982	2,378.91	68.8614	2,378.91	68.0908	2,378.91	65.2751	2,378.91	62.9058	2,378.91	56.4238	2,378.91	67.164	2,378.91	61.0895
2,462.4	87.7577	2,462.4	84.5461	2,462.4	85.5342	2,462.4	76.6745	2,462.4	77.7741	2,462.4	74.6913	2,462.4	69.4862	2,462.4	78.8775	2,462.4	79.1086	2,462.4	79.9987	2,462.4	83.2815	2,462.4	78.0219	2,462.4	83.7953	2,462.4	77.3451	2,462.4	81.2236	2,462.4	76.8745	2,462.4	75.4218	2,462.4	70.5757	2,462.4	72.9288	2,462.4	71.2887	2,462.4	71.5039	2,462.4	68.9152	2,462.4	70.9917	2,462.4	70.2407	2,462.4	70.3795	2,462.4	69.8482	2,462.4	70.742	2,462.4	72.0195	2,462.4	71.0333	2,462.4	67.5958	2,462.4	66.9519	2,462.4	62.1088	2,462.4	61.427	2,462.4	62.1291	2,462.4	70.6585	2,462.4	65.4723
2,548.83	87.4649	2,548.83	84.9514	2,548.83	86.3109	2,548.83	78.0184	2,548.83	80.7956	2,548.83	77.0996	2,548.83	61.2688	2,548.83	79.5799	2,548.83	80.0319	2,548.83	79.8156	2,548.83	82.6272	2,548.83	79.7028	2,548.83	82.6891	2,548.83	78.1569	2,548.83	78.88	2,548.83	77.0862	2,548.83	77.3122	2,548.83	76.156	2,548.83	76.2456	2,548.83	73.7161	2,548.83	71.8619	2,548.83	71.531	2,548.83	68.0065	2,548.83	70.5589	2,548.83	70.5694	2,548.83	71.4524	2,548.83	68.8706	2,548.83	71.4803	2,548.83	72.1982	2,548.83	69.2321	2,548.83	60.8214	2,548.83	66.0738	2,548.83	58.6209	2,548.83	62.0017	2,548.83	71.4372	2,548.83	64.3641
2,639.65	85.8138	2,639.65	83.6063	2,639.65	84.6042	2,639.65	77.0188	2,639.65	79.5257	2,639.65	79.65	2,639.65	71.3627	2,639.65	80.6712	2,639.65	79.9147	2,639.65	81.6485	2,639.65	83.535	2,639.65	81.1195	2,639.65	83.8214	2,639.65	80.3497	2,639.65	80.1816	2,639.65	76.603	2,639.65	76.3687	2,639.65	75.6664	2,639.65	73.7474	2,639.65	71.7679	2,639.65	70.0371	2,639.65	71.6103	2,639.65	56.2125	2,639.65	71.2205	2,639.65	70.0075	2,639.65	71.2025	2,639.65	66.8727	2,639.65	72.6559	2,639.65	70.8787	2,639.65	70.6406	2,639.65	53.6951	2,639.65	65.9435	2,639.65	65.5144	2,639.65	60.4045	2,639.65	71.0616	2,639.65	67.806
2,731.93	85.7387	2,731.93	82.2011	2,731.93	83.5111	2,731.93	78.8729	2,731.93	77.8037	2,731.93	78.6051	2,731.93	76.1105	2,731.93	81.5584	2,731.93	79.0374	2,731.93	82.2594	2,731.93	83.8884	2,731.93	81.3915	2,731.93	83.1152	2,731.93	79.5518	2,731.93	80.6008	2,731.93	77.0862	2,731.93	77.4479	2,731.93	75.6285	2,731.93	70.967	2,731.93	71.4534	2,731.93	62.5397	2,731.93	71.6124	2,731.93	61.2059	2,731.93	71.6862	2,731.93	69.9414	2,731.93	71.8084	2,731.93	68.4408	2,731.93	72.3735	2,731.93	67.7783	2,731.93	71.3619	2,731.93	62.0313	2,731.93	63.8585	2,731.93	67.1386	2,731.93	54.4642	2,731.93	70.2443	2,731.93	66.6407
2,828.61	85.9055	2,828.61	83.7267	2,828.61	84.7787	2,828.61	79.7043	2,828.61	77.7048	2,828.61	78.278	2,828.61	78.9695	2,828.61	82.6658	2,828.61	79.7794	2,828.61	83.2219	2,828.61	82.8577	2,828.61	81.6002	2,828.61	82.8483	2,828.61	79.4499	2,828.61	80.4613	2,828.61	77.2911	2,828.61	78.6687	2,828.61	75.4542	2,828.61	69.171	2,828.61	71.1712	2,828.61	65.6302	2,828.61	71.7731	2,828.61	60.434	2,828.61	69.8983	2,828.61	72.7039	2,828.61	71.2811	2,828.61	65.5016	2,828.61	71.1637	2,828.61	67.5864	2,828.61	71.269	2,828.61	63.0128	2,828.61	63.2803	2,828.61	68.2853	2,828.61	60.1456	2,828.61	69.2889	2,828.61	66.437
2,928.22	86.44	2,928.22	85.2343	2,928.22	85.2413	2,928.22	80.3144	2,928.22	79.0006	2,928.22	80.5413	2,928.22	80.377	2,928.22	83.3762	2,928.22	82.2328	2,928.22	83.7946	2,928.22	81.7785	2,928.22	81.3374	2,928.22	82.8505	2,928.22	80.7046	2,928.22	80.3029	2,928.22	77.2657	2,928.22	77.2079	2,928.22	73.335	2,928.22	70.3141	2,928.22	71.6094	2,928.22	72.2856	2,928.22	69.9717	2,928.22	69.0792	2,928.22	69.7744	2,928.22	72.272	2,928.22	70.5898	2,928.22	66.6947	2,928.22	72.2966	2,928.22	64.6395	2,928.22	71.2641	2,928.22	62.5281	2,928.22	65.9618	2,928.22	69.0466	2,928.22	61.5479	2,928.22	69.4427	2,928.22	67.6798
3,030.76	86.5782	3,030.76	85.2896	3,030.76	85.348	3,030.76	79.9238	3,030.76	79.1952	3,030.76	82.8341	3,030.76	81.2583	3,030.76	84.3173	3,030.76	83.5082	3,030.76	84.0264	3,030.76	82.8848	3,030.76	82.3912	3,030.76	82.1814	3,030.76	80.2406	3,030.76	82.1894	3,030.76	77.9788	3,030.76	77.3058	3,030.76	76.706	3,030.76	78.5833	3,030.76	73.4163	3,030.76	73.4046	3,030.76	71.1917	3,030.76	65.2903	3,030.76	70.6055	3,030.76	69.8673	3,030.76	70.3703	3,030.76	70.2893	3,030.76	72.3417	3,030.76	65.4317	3,030.76	71.1489	3,030.76	62.876	3,030.76	67.3993	3,030.76	70.8389	3,030.76	61.4896	3,030.76	69.1123	3,030.76	69.3027
3,137.7	86.4042	3,137.7	85.724	3,137.7	85.1131	3,137.7	78.3952	3,137.7	80.0148	3,137.7	84.3144	3,137.7	81.8156	3,137.7	85.068	3,137.7	84.0827	3,137.7	84.2666	3,137.7	82.0535	3,137.7	81.5227	3,137.7	81.4379	3,137.7	80.0116	3,137.7	82.3866	3,137.7	78.9202	3,137.7	79.1557	3,137.7	74.6324	3,137.7	81.2367	3,137.7	70.278	3,137.7	71.0476	3,137.7	68.367	3,137.7	64.7284	3,137.7	69.917	3,137.7	64.5949	3,137.7	69.956	3,137.7	69.7201	3,137.7	71.907	3,137.7	67.4438	3,137.7	71.3685	3,137.7	64.1565	3,137.7	66.244	3,137.7	69.2734	3,137.7	55.6992	3,137.7	68.4347	3,137.7	70.4027
3,249.02	87.1688	3,249.02	84.7234	3,249.02	84.7803	3,249.02	79.895	3,249.02	81.0367	3,249.02	85.0102	3,249.02	84.0153	3,249.02	85.1395	3,249.02	84.14	3,249.02	83.8395	3,249.02	80.2138	3,249.02	82.3765	3,249.02	82.6698	3,249.02	79.7465	3,249.02	83.099	3,249.02	75.5779	3,249.02	81.7673	3,249.02	73.6913	3,249.02	82.2024	3,249.02	71.5285	3,249.02	72.4401	3,249.02	70.2204	3,249.02	71.7693	3,249.02	69.1023	3,249.02	60.3013	3,249.02	70.7156	3,249.02	71.4745	3,249.02	70.9088	3,249.02	65.355	3,249.02	70.1894	3,249.02	64.7563	3,249.02	67.405	3,249.02	72.0669	3,249.02	46.8763	3,249.02	70.3238	3,249.02	69.5492
3,363.28	88.2024	3,363.28	85.0856	3,363.28	85.5483	3,363.28	81.3033	3,363.28	81.1845	3,363.28	84.0368	3,363.28	84.2166	3,363.28	85.7411	3,363.28	85.1515	3,363.28	83.5678	3,363.28	78.1288	3,363.28	81.031	3,363.28	84.4143	3,363.28	77.8132	3,363.28	83.7062	3,363.28	79.4836	3,363.28	81.1461	3,363.28	75.7546	3,363.28	81.9144	3,363.28	71.5936	3,363.28	69.484	3,363.28	68.7583	3,363.28	70.093	3,363.28	70.2192	3,363.28	64.9289	3,363.28	69.5567	3,363.28	72.7413	3,363.28	71.6291	3,363.28	64.4348	3,363.28	70.3861	3,363.28	68.354	3,363.28	63.9438	3,363.28	71.1038	3,363.28	53.9215	3,363.28	68.7542	3,363.28	64.6826
3,481.93	88.9532	3,481.93	83.6568	3,481.93	86.0445	3,481.93	83.7803	3,481.93	81.9088	3,481.93	85.259	3,481.93	84.62	3,481.93	85.9595	3,481.93	85.7622	3,481.93	84.1741	3,481.93	77.8956	3,481.93	82.1794	3,481.93	85.6708	3,481.93	81.4566	3,481.93	82.9751	3,481.93	79.2954	3,481.93	81.7987	3,481.93	74.9668	3,481.93	77.9661	3,481.93	73.5188	3,481.93	63.6197	3,481.93	70.1238	3,481.93	63.8145	3,481.93	71.2865	3,481.93	67.9698	3,481.93	70.0748	3,481.93	70.7905	3,481.93	72.887	3,481.93	62.2055	3,481.93	72.165	3,481.93	68.4897	3,481.93	67.3975	3,481.93	72.1125	3,481.93	57.3757	3,481.93	70.0632	3,481.93	67.8274
3,604.98	89.1923	3,604.98	82.3694	3,604.98	87.1073	3,604.98	84.7008	3,604.98	82.4488	3,604.98	86.7783	3,604.98	85.0973	3,604.98	85.644	3,604.98	86.7152	3,604.98	83.5036	3,604.98	81.1106	3,604.98	83.7439	3,604.98	85.4341	3,604.98	80.4524	3,604.98	83.1087	3,604.98	80.017	3,604.98	81.3263	3,604.98	77.9107	3,604.98	70.0723	3,604.98	72.5222	3,604.98	70.9597	3,604.98	69.6743	3,604.98	52.9315	3,604.98	69.484	3,604.98	68.9314	3,604.98	69.8601	3,604.98	69.5476	3,604.98	72.5552	3,604.98	66.8569	3,604.98	71.139	3,604.98	67.8213	3,604.98	67.2104	3,604.98	71.5282	3,604.98	56.2073	3,604.98	72.2711	3,604.98	68.339
3,732.42	88.7821	3,732.42	83.0042	3,732.42	88.7172	3,732.42	84.5015	3,732.42	82.5425	3,732.42	86.308	3,732.42	85.4793	3,732.42	85.3476	3,732.42	85.9103	3,732.42	85.0541	3,732.42	80.7457	3,732.42	83.5861	3,732.42	84.4334	3,732.42	81.8769	3,732.42	81.8956	3,732.42	79.8686	3,732.42	79.1951	3,732.42	74.7266	3,732.42	74.9219	3,732.42	71.32	3,732.42	72.4582	3,732.42	69.5547	3,732.42	63.5479	3,732.42	67.3324	3,732.42	68.954	3,732.42	70.4684	3,732.42	65.3386	3,732.42	71.8188	3,732.42	66.5479	3,732.42	71.6954	3,732.42	66.0155	3,732.42	66.6578	3,732.42	70.7243	3,732.42	44.1801	3,732.42	71.0809	3,732.42	66.3406
3,864.26	87.8551	3,864.26	82.6416	3,864.26	88.8589	3,864.26	85.6215	3,864.26	84.8059	3,864.26	86.3459	3,864.26	86.7103	3,864.26	85.4264	3,864.26	87.3619	3,864.26	85.3009	3,864.26	82.1773	3,864.26	82.4781	3,864.26	83.5782	3,864.26	80.2716	3,864.26	82.4131	3,864.26	75.9084	3,864.26	78.2958	3,864.26	75.079	3,864.26	75.7278	3,864.26	70.2921	3,864.26	72.4965	3,864.26	68.233	3,864.26	65.7494	3,864.26	66.7981	3,864.26	70.727	3,864.26	71.0387	3,864.26	66.7512	3,864.26	69.6782	3,864.26	65.1052	3,864.26	70.8229	3,864.26	67.6628	3,864.26	67.8295	3,864.26	70.6197	3,864.26	36.6168	3,864.26	69.8801	3,864.26	65.5022
4,000.49	87.5167	4,000.49	83.0949	4,000.49	88.0514	4,000.49	86.9338	4,000.49	84.5885	4,000.49	86.5859	4,000.49	87.2707	4,000.49	85.1914	4,000.49	86.2364	4,000.49	84.9813	4,000.49	81.4622	4,000.49	82.0201	4,000.49	83.6822	4,000.49	79.5	4,000.49	81.6336	4,000.49	79.8572	4,000.49	78.825	4,000.49	73.6553	4,000.49	80.3361	4,000.49	72.8929	4,000.49	75.6127	4,000.49	70.3926	4,000.49	68.3483	4,000.49	67.7481	4,000.49	70.7297	4,000.49	68.9785	4,000.49	68.9569	4,000.49	68.2169	4,000.49	65.4416	4,000.49	70.6432	4,000.49	65.5204	4,000.49	65.3325	4,000.49	69.6546	4,000.49	44.6314	4,000.49	69.568	4,000.49	56.9485
4,141.11	87.333	4,141.11	86.0354	4,141.11	89.0453	4,141.11	86.4685	4,141.11	83.2905	4,141.11	85.6843	4,141.11	88.5477	4,141.11	86.0823	4,141.11	86.7887	4,141.11	84.8709	4,141.11	81.9621	4,141.11	81.6824	4,141.11	82.6614	4,141.11	80.7102	4,141.11	80.9364	4,141.11	76.8359	4,141.11	76.6959	4,141.11	77.0265	4,141.11	82.7223	4,141.11	70.8892	4,141.11	70.5215	4,141.11	65.966	4,141.11	71.3179	4,141.11	67.6115	4,141.11	71.9038	4,141.11	70.5888	4,141.11	62.3127	4,141.11	69.1364	4,141.11	68.4113	4,141.11	70.5297	4,141.11	66.0081	4,141.11	68.1951	4,141.11	68.5567	4,141.11	61.0624	4,141.11	70.1084	4,141.11	62.1012
4,287.6	86.7197	4,287.6	85.7689	4,287.6	89.3319	4,287.6	86.4697	4,287.6	84.495	4,287.6	87.0549	4,287.6	88.1597	4,287.6	85.9895	4,287.6	87.9507	4,287.6	83.1057	4,287.6	80.9974	4,287.6	82.9557	4,287.6	77.9388	4,287.6	79.3213	4,287.6	82.1855	4,287.6	80.7015	4,287.6	83.231	4,287.6	73.3867	4,287.6	82.467	4,287.6	71.7008	4,287.6	69.5588	4,287.6	67.7521	4,287.6	68.9607	4,287.6	69.4687	4,287.6	70.7506	4,287.6	71.4497	4,287.6	68.6538	4,287.6	68.4778	4,287.6	68.6161	4,287.6	70.1186	4,287.6	65.7846	4,287.6	67.2475	4,287.6	67.9458	4,287.6	62.7455	4,287.6	67.8747	4,287.6	65.1914
4,438.48	87.4763	4,438.48	86.5354	4,438.48	89.1181	4,438.48	86.992	4,438.48	86.1778	4,438.48	86.8688	4,438.48	87.0036	4,438.48	85.8339	4,438.48	87.4026	4,438.48	84.9093	4,438.48	80.6864	4,438.48	82.075	4,438.48	73.1883	4,438.48	80.6512	4,438.48	86.1429	4,438.48	76.6164	4,438.48	84.4306	4,438.48	77.5587	4,438.48	78.8952	4,438.48	73.2072	4,438.48	74.1205	4,438.48	67.5285	4,438.48	49.5689	4,438.48	69.7041	4,438.48	66.7099	4,438.48	68.6086	4,438.48	73.0202	4,438.48	69.1461	4,438.48	66.0326	4,438.48	71.2232	4,438.48	66.387	4,438.48	67.5514	4,438.48	67.9562	4,438.48	62.7089	4,438.48	67.465	4,438.48	57.8596
4,595.21	86.5212	4,595.21	86.6086	4,595.21	88.3304	4,595.21	86.7006	4,595.21	86.2735	4,595.21	86.9669	4,595.21	87.7204	4,595.21	85.1577	4,595.21	87.3969	4,595.21	83.6222	4,595.21	81.9301	4,595.21	82.2959	4,595.21	79.3506	4,595.21	79.3981	4,595.21	87.6049	4,595.21	80.2128	4,595.21	81.1053	4,595.21	72.7584	4,595.21	78.1223	4,595.21	71.0785	4,595.21	71.965	4,595.21	64.0316	4,595.21	61.136	4,595.21	68.5356	4,595.21	59.5259	4,595.21	69.3809	4,595.21	70.5782	4,595.21	70.7185	4,595.21	55.5378	4,595.21	71.6139	4,595.21	63.5173	4,595.21	65.1958	4,595.21	67.8797	4,595.21	63.5436	4,595.21	67.3979	4,595.21	63.8305
4,756.35	87.7936	4,756.35	86.3296	4,756.35	87.715	4,756.35	88.216	4,756.35	86.1681	4,756.35	86.8332	4,756.35	86.363	4,756.35	85.2129	4,756.35	86.7954	4,756.35	84.2804	4,756.35	81.5409	4,756.35	82.6925	4,756.35	82.2196	4,756.35	79.7276	4,756.35	86.7557	4,756.35	78.4807	4,756.35	78.5311	4,756.35	76.5745	4,756.35	76.7023	4,756.35	70.0208	4,756.35	64.8086	4,756.35	68.168	4,756.35	66.8152	4,756.35	68.6352	4,756.35	60.2853	4,756.35	70.7908	4,756.35	66.1023	4,756.35	71.2411	4,756.35	62.6786	4,756.35	71.7981	4,756.35	66.6552	4,756.35	69.2862	4,756.35	63.8299	4,756.35	66.8447	4,756.35	68.7186	4,756.35	61.8668
4,924.8	88.2572	4,924.8	86.9437	4,924.8	88.1487	4,924.8	87.9169	4,924.8	86.5918	4,924.8	86.0546	4,924.8	84.8727	4,924.8	85.4357	4,924.8	86.4301	4,924.8	84.3008	4,924.8	83.2462	4,924.8	82.2852	4,924.8	82.0504	4,924.8	81.2127	4,924.8	84.1873	4,924.8	77.9954	4,924.8	78.7627	4,924.8	75.6	4,924.8	76.4956	4,924.8	71.712	4,924.8	73.7279	4,924.8	69.0928	4,924.8	66.5122	4,924.8	68.2984	4,924.8	60.7631	4,924.8	68.6882	4,924.8	67.1869	4,924.8	71.564	4,924.8	67.9112	4,924.8	71.3244	4,924.8	66.6783	4,924.8	67.9702	4,924.8	66.1384	4,924.8	65.9568	4,924.8	67.5999	4,924.8	57.3833
5,097.66	87.9495	5,097.66	86.2905	5,097.66	86.7107	5,097.66	87.8436	5,097.66	87.9557	5,097.66	85.9759	5,097.66	86.1321	5,097.66	85.5136	5,097.66	85.8175	5,097.66	84.1009	5,097.66	82.9207	5,097.66	82.959	5,097.66	80.2321	5,097.66	79.3133	5,097.66	78.8124	5,097.66	78.8867	5,097.66	80.707	5,097.66	74.0719	5,097.66	76.0098	5,097.66	68.6364	5,097.66	72.2719	5,097.66	67.3899	5,097.66	66.252	5,097.66	63.6787	5,097.66	67.9436	5,097.66	68.9293	5,097.66	61.0526	5,097.66	70.8975	5,097.66	66.2827	5,097.66	72.3902	5,097.66	62.0469	5,097.66	69.584	5,097.66	68.2109	5,097.66	65.2188	5,097.66	66.9766	5,097.66	64.0496
5,277.83	87.9704	5,277.83	87.1392	5,277.83	86.7093	5,277.83	87.7591	5,277.83	87.7433	5,277.83	86.1046	5,277.83	87.1062	5,277.83	85.1492	5,277.83	84.5641	5,277.83	84.8503	5,277.83	85.5431	5,277.83	81.5263	5,277.83	79.3408	5,277.83	80.8756	5,277.83	74.8134	5,277.83	76.4659	5,277.83	82.1809	5,277.83	75.8462	5,277.83	77.9999	5,277.83	69.933	5,277.83	74.6608	5,277.83	66.6128	5,277.83	63.7928	5,277.83	65.1942	5,277.83	67.766	5,277.83	69.1038	5,277.83	56.5996	5,277.83	70.7068	5,277.83	61.7547	5,277.83	72.055	5,277.83	65.489	5,277.83	68.7758	5,277.83	68.947	5,277.83	66.7647	5,277.83	63.881	5,277.83	59.9452
5,463.87	87.6182	5,463.87	87.4438	5,463.87	87.475	5,463.87	87.1051	5,463.87	85.1402	5,463.87	86.3046	5,463.87	86.46	5,463.87	84.9372	5,463.87	86.833	5,463.87	84.3558	5,463.87	87.8806	5,463.87	81.5725	5,463.87	77.4212	5,463.87	80.7152	5,463.87	80.2263	5,463.87	78.0215	5,463.87	79.412	5,463.87	74.9818	5,463.87	77.977	5,463.87	69.9807	5,463.87	73.2162	5,463.87	68.081	5,463.87	62.3682	5,463.87	64.7961	5,463.87	64.8433	5,463.87	66.6773	5,463.87	65.0926	5,463.87	70.6132	5,463.87	62.1587	5,463.87	71.2116	5,463.87	65.1122	5,463.87	69.5566	5,463.87	60.7143	5,463.87	67.6635	5,463.87	66.458	5,463.87	62.2038
5,657.23	87.7493	5,657.23	86.9261	5,657.23	87.7271	5,657.23	86.9541	5,657.23	85.1707	5,657.23	86.0003	5,657.23	85.2051	5,657.23	85.2624	5,657.23	87.8728	5,657.23	84.1133	5,657.23	87.3103	5,657.23	82.4453	5,657.23	77.5509	5,657.23	79.8054	5,657.23	80.9669	5,657.23	77.3314	5,657.23	80.9576	5,657.23	74.7319	5,657.23	78.0282	5,657.23	69.7757	5,657.23	68.0421	5,657.23	61.8171	5,657.23	57.2444	5,657.23	63.2071	5,657.23	62.5704	5,657.23	67.231	5,657.23	62.1151	5,657.23	70.5427	5,657.23	65.9266	5,657.23	71.2896	5,657.23	64.5476	5,657.23	69.7301	5,657.23	58.3515	5,657.23	64.8846	5,657.23	66.2595	5,657.23	62.4643
5,856.45	88.0219	5,856.45	87.5287	5,856.45	87.3706	5,856.45	87.3438	5,856.45	87.2944	5,856.45	85.5782	5,856.45	86.2112	5,856.45	84.9251	5,856.45	87.1936	5,856.45	83.7895	5,856.45	86.7924	5,856.45	81.6233	5,856.45	76.4817	5,856.45	79.8959	5,856.45	82.2945	5,856.45	76.5304	5,856.45	79.9821	5,856.45	74.516	5,856.45	78.1901	5,856.45	69.5718	5,856.45	72.0448	5,856.45	64.7547	5,856.45	64.7461	5,856.45	63.3699	5,856.45	65.195	5,856.45	65.6407	5,856.45	60.1997	5,856.45	70.6268	5,856.45	60.685	5,856.45	70.0261	5,856.45	61.6286	5,856.45	69.2321	5,856.45	62.764	5,856.45	68.4643	5,856.45	62.3526	5,856.45	58.1921
6,062.99	88.2303	6,062.99	87.4727	6,062.99	86.8991	6,062.99	87.3748	6,062.99	84.546	6,062.99	86.0568	6,062.99	87.9387	6,062.99	84.4667	6,062.99	84.8008	6,062.99	83.7394	6,062.99	85.4336	6,062.99	81.7641	6,062.99	75.92	6,062.99	80.4346	6,062.99	82.4736	6,062.99	76.8641	6,062.99	79.0973	6,062.99	73.0501	6,062.99	73.9445	6,062.99	67.7916	6,062.99	68.5674	6,062.99	63.5157	6,062.99	64.0182	6,062.99	61.2804	6,062.99	65.4977	6,062.99	66.1353	6,062.99	61.0751	6,062.99	69.8843	6,062.99	61.1041	6,062.99	69.4766	6,062.99	63.3812	6,062.99	69.9384	6,062.99	56.9628	6,062.99	65.8944	6,062.99	60.1841	6,062.99	60.1074
6,276.86	88.1395	6,276.86	87.9627	6,276.86	88.0106	6,276.86	87.6835	6,276.86	84.8182	6,276.86	85.4271	6,276.86	86.5568	6,276.86	84.475	6,276.86	79.8068	6,276.86	83.6771	6,276.86	83.9022	6,276.86	81.9175	6,276.86	77.5394	6,276.86	79.2682	6,276.86	80.2005	6,276.86	76.2817	6,276.86	78.3188	6,276.86	74.3462	6,276.86	71.6066	6,276.86	66.4467	6,276.86	68.2609	6,276.86	63.5307	6,276.86	57.2979	6,276.86	60.2505	6,276.86	57.0539	6,276.86	65.7492	6,276.86	60.8628	6,276.86	68.8655	6,276.86	65.3634	6,276.86	69.9171	6,276.86	63.8826	6,276.86	69.5522	6,276.86	49.8653	6,276.86	67.3554	6,276.86	64.025	6,276.86	60.7105
6,498.05	87.9502	6,498.05	88.2899	6,498.05	88.5816	6,498.05	87.2637	6,498.05	87.5085	6,498.05	85.5376	6,498.05	84.8733	6,498.05	84.532	6,498.05	83.3851	6,498.05	83.9821	6,498.05	84.3195	6,498.05	80.9956	6,498.05	78.3666	6,498.05	79.6402	6,498.05	79.1698	6,498.05	75.0686	6,498.05	75.8405	6,498.05	73.2009	6,498.05	71.9342	6,498.05	67.8664	6,498.05	64.5608	6,498.05	62.0579	6,498.05	57.0043	6,498.05	59.5889	6,498.05	62.57	6,498.05	64.7305	6,498.05	60.1929	6,498.05	67.3868	6,498.05	66.38	6,498.05	69.2586	6,498.05	64.9293	6,498.05	68.9074	6,498.05	58.1916	6,498.05	67.4857	6,498.05	60.2492	6,498.05	59.1016
6,726.56	88.5927	6,726.56	88.5996	6,726.56	88.0116	6,726.56	87.4917	6,726.56	86.5031	6,726.56	85.5645	6,726.56	86.2208	6,726.56	84.2887	6,726.56	85.5618	6,726.56	83.3622	6,726.56	84.1027	6,726.56	80.48	6,726.56	80.0006	6,726.56	78.8284	6,726.56	76.059	6,726.56	74.0126	6,726.56	72.128	6,726.56	72.7931	6,726.56	71.2683	6,726.56	67.0611	6,726.56	61.6587	6,726.56	60.5326	6,726.56	62.5414	6,726.56	56.3909	6,726.56	55.2724	6,726.56	64.6227	6,726.56	47.252	6,726.56	67.5535	6,726.56	67.5961	6,726.56	67.6739	6,726.56	60.8396	6,726.56	68.53	6,726.56	55.13	6,726.56	66.7889	6,726.56	57.4337	6,726.56	61.3759
6,963.87	88.0451	6,963.87	88.0825	6,963.87	88.3288	6,963.87	87.3095	6,963.87	87.5073	6,963.87	85.2788	6,963.87	86.6557	6,963.87	83.9401	6,963.87	85.2792	6,963.87	83.0729	6,963.87	83.276	6,963.87	80.3895	6,963.87	80.1964	6,963.87	78.4861	6,963.87	71.1799	6,963.87	74.8673	6,963.87	78.1857	6,963.87	71.5955	6,963.87	71.8419	6,963.87	66.5061	6,963.87	62.0738	6,963.87	59.8703	6,963.87	63.4029	6,963.87	55.2094	6,963.87	61.0812	6,963.87	63.3206	6,963.87	62.2024	6,963.87	67.6479	6,963.87	67.4349	6,963.87	66.7176	6,963.87	62.5363	6,963.87	67.3249	6,963.87	47.9889	6,963.87	66.2929	6,963.87	61.7461	6,963.87	61.1129
7,209.96	87.4701	7,209.96	88.6012	7,209.96	87.5152	7,209.96	86.8553	7,209.96	86.8464	7,209.96	85.0814	7,209.96	86.1022	7,209.96	83.5272	7,209.96	83.3918	7,209.96	82.9969	7,209.96	83.5913	7,209.96	79.295	7,209.96	77.6238	7,209.96	77.9779	7,209.96	74.7097	7,209.96	73.1483	7,209.96	80.41	7,209.96	71.821	7,209.96	73.2527	7,209.96	63.8853	7,209.96	69.3231	7,209.96	55.3766	7,209.96	50.5294	7,209.96	54.3469	7,209.96	63.5563	7,209.96	64.0893	7,209.96	61.2312	7,209.96	66.8885	7,209.96	61.9617	7,209.96	65.592	7,209.96	62.3206	7,209.96	67.4256	7,209.96	46.2585	7,209.96	65.7138	7,209.96	58.1989	7,209.96	60.5487
7,464.84	87.265	7,464.84	87.9802	7,464.84	86.9457	7,464.84	86.3085	7,464.84	85.693	7,464.84	85.3228	7,464.84	85.1974	7,464.84	83.6865	7,464.84	82.2761	7,464.84	81.7329	7,464.84	83.2993	7,464.84	79.0949	7,464.84	78.8428	7,464.84	76.6154	7,464.84	77.9353	7,464.84	73.7025	7,464.84	76.1673	7,464.84	70.6489	7,464.84	71.5359	7,464.84	67.1212	7,464.84	69.2216	7,464.84	57.7137	7,464.84	63.5551	7,464.84	50.7427	7,464.84	62.5272	7,464.84	61.896	7,464.84	60.4928	7,464.84	66.6403	7,464.84	64.9187	7,464.84	65.2843	7,464.84	62.4444	7,464.84	66.7725	7,464.84	51.0212	7,464.84	64.7343	7,464.84	57.9502	7,464.84	60.7088
7,727.05	86.6492	7,727.05	87.6325	7,727.05	86.6907	7,727.05	86.1443	7,727.05	85.1912	7,727.05	85.2161	7,727.05	86.7333	7,727.05	82.7054	7,727.05	83.2536	7,727.05	81.7136	7,727.05	81.9547	7,727.05	78.8734	7,727.05	79.7623	7,727.05	77.2586	7,727.05	74.7222	7,727.05	72.937	7,727.05	68.4658	7,727.05	71.4986	7,727.05	64.8604	7,727.05	66.5875	7,727.05	58.6174	7,727.05	57.3182	7,727.05	61.4182	7,727.05	54.5979	7,727.05	62.689	7,727.05	61.2909	7,727.05	51.9522	7,727.05	66.6919	7,727.05	63.1042	7,727.05	64.5021	7,727.05	61.9261	7,727.05	65.7709	7,727.05	53.7064	7,727.05	61.9051	7,727.05	59.4461	7,727.05	60.7018
7,999.51	86.0175	7,999.51	86.462	7,999.51	85.6174	7,999.51	86.0651	7,999.51	85.3056	7,999.51	84.2569	7,999.51	86.5458	7,999.51	82.8695	7,999.51	84.1564	7,999.51	80.9952	7,999.51	77.8317	7,999.51	78.6595	7,999.51	83.0091	7,999.51	76.5114	7,999.51	71.9858	7,999.51	72.6938	7,999.51	75.5157	7,999.51	69.5828	7,999.51	71.3495	7,999.51	67.2793	7,999.51	57.5113	7,999.51	55.0867	7,999.51	53.2668	7,999.51	48.8266	7,999.51	53.3289	7,999.51	59.3132	7,999.51	58.6721	7,999.51	64.917	7,999.51	61.7283	7,999.51	64.5518	7,999.51	58.3237	7,999.51	64.9363	7,999.51	56.6405	7,999.51	59.8996	7,999.51	48.0309	7,999.51	57.889
8,282.23	85.5938	8,282.23	86.2419	8,282.23	85.8062	8,282.23	85.7086	8,282.23	85.1489	8,282.23	84.4443	8,282.23	85.0505	8,282.23	82.3755	8,282.23	81.9071	8,282.23	80.7848	8,282.23	75.356	8,282.23	78.2081	8,282.23	83.183	8,282.23	76.9107	8,282.23	53.256	8,282.23	73.0339	8,282.23	78.4602	8,282.23	71.0218	8,282.23	70.5792	8,282.23	67.4935	8,282.23	63.1295	8,282.23	54.4815	8,282.23	49.6996	8,282.23	52.7954	8,282.23	53.3009	8,282.23	60.9553	8,282.23	56.9455	8,282.23	64.3436	8,282.23	61.8627	8,282.23	63.5655	8,282.23	57.1199	8,282.23	63.6359	8,282.23	55.4806	8,282.23	58.8473	8,282.23	54.1546	8,282.23	60.2975
8,573.73	85.6535	8,573.73	85.5224	8,573.73	86.5186	8,573.73	85.1431	8,573.73	85.9243	8,573.73	84.3342	8,573.73	82.3519	8,573.73	81.6684	8,573.73	79.979	8,573.73	80.5625	8,573.73	80.6095	8,573.73	78.4121	8,573.73	80.992	8,573.73	76.9212	8,573.73	70.8588	8,573.73	72.5175	8,573.73	75.6942	8,573.73	70.1053	8,573.73	64.1736	8,573.73	65.6716	8,573.73	61.7647	8,573.73	48.4053	8,573.73	59.1298	8,573.73	48.8104	8,573.73	54.442	8,573.73	59.9426	8,573.73	53.3164	8,573.73	63.646	8,573.73	63.2896	8,573.73	63.5123	8,573.73	56.7734	8,573.73	63.7257	8,573.73	60.6293	8,573.73	56.086	8,573.73	54.7609	8,573.73	61.2348
8,876.95	86.1784	8,876.95	85.7008	8,876.95	86.6108	8,876.95	85.5808	8,876.95	85.5944	8,876.95	84.102	8,876.95	83.2337	8,876.95	81.5974	8,876.95	81.1028	8,876.95	80.3473	8,876.95	81.6764	8,876.95	78.8239	8,876.95	77.4878	8,876.95	75.6468	8,876.95	71.1474	8,876.95	71.4893	8,876.95	71.9308	8,876.95	68.8684	8,876.95	66.2626	8,876.95	65.4607	8,876.95	52.5158	8,876.95	56.2621	8,876.95	58.1239	8,876.95	49.7744	8,876.95	57.6221	8,876.95	60.78	8,876.95	58.6992	8,876.95	62.938	8,876.95	60.6302	8,876.95	62.1787	8,876.95	57.5234	8,876.95	61.2026	8,876.95	50.7653	8,876.95	54.6908	8,876.95	54.5742	8,876.95	57.9381
9,188.96	87.135	9,188.96	86.4107	9,188.96	87.7955	9,188.96	85.7872	9,188.96	85.2718	9,188.96	84.0118	9,188.96	81.9484	9,188.96	81.9541	9,188.96	82.3358	9,188.96	80.2429	9,188.96	80.6689	9,188.96	78.3619	9,188.96	77.4178	9,188.96	74.8907	9,188.96	65.7724	9,188.96	71.0818	9,188.96	70.7809	9,188.96	67.2304	9,188.96	66.827	9,188.96	63.4584	9,188.96	64.0082	9,188.96	40.2855	9,188.96	39.307	9,188.96	36.0305	9,188.96	56.9897	9,188.96	56.4098	9,188.96	54.4526	9,188.96	60.8659	9,188.96	58.4103	9,188.96	61.387	9,188.96	49.8807	9,188.96	60.5064	9,188.96	54.0342	9,188.96	53.978	9,188.96	55.9193	9,188.96	56.5019
9,514.16	88.0305	9,514.16	87.0696	9,514.16	87.9226	9,514.16	86.2083	9,514.16	85.9497	9,514.16	83.9933	9,514.16	82.2655	9,514.16	82.2779	9,514.16	83.0329	9,514.16	80.0707	9,514.16	79.1769	9,514.16	77.2802	9,514.16	77.5069	9,514.16	74.0303	9,514.16	70.483	9,514.16	69.238	9,514.16	71.4662	9,514.16	65.0589	9,514.16	66.4551	9,514.16	64.7257	9,514.16	62.2673	9,514.16	46.3661	9,514.16	50.4695	9,514.16	51.0212	9,514.16	48.5687	9,514.16	55.6316	9,514.16	47.8356	9,514.16	59.0815	9,514.16	56.0907	9,514.16	59.2399	9,514.16	41.6096	9,514.16	58.14	9,514.16	51.4074	9,514.16	55.0551	9,514.16	53.1207	9,514.16	54.7599
9,849.61	88.617	9,849.61	87.4823	9,849.61	88.2049	9,849.61	86.4918	9,849.61	85.8955	9,849.61	83.9618	9,849.61	84.281	9,849.61	82.4454	9,849.61	81.966	9,849.61	79.0844	9,849.61	78.6082	9,849.61	76.2633	9,849.61	76.1188	9,849.61	72.623	9,849.61	69.2194	9,849.61	68.7558	9,849.61	68.9641	9,849.61	66.5404	9,849.61	62.8804	9,849.61	61.6949	9,849.61	58.6275	9,849.61	57.5168	9,849.61	48.396	9,849.61	47.5042	9,849.61	45.9742	9,849.61	52.8479	9,849.61	48.6826	9,849.61	59.3604	9,849.61	54.0997	9,849.61	60.0404	9,849.61	47.9654	9,849.61	58.756	9,849.61	54.0258	9,849.61	56.3231	9,849.61	56.9614	9,849.61	48.8012
10,196.8	88.9802	10,196.8	88.1039	10,196.8	88.3019	10,196.8	86.5717	10,196.8	85.9343	10,196.8	84.2467	10,196.8	84.5978	10,196.8	81.8301	10,196.8	82.6576	10,196.8	78.571	10,196.8	78.9103	10,196.8	75.3405	10,196.8	72.8032	10,196.8	71.7946	10,196.8	70.9602	10,196.8	67.2105	10,196.8	67.8121	10,196.8	63.4616	10,196.8	62.0224	10,196.8	60.5366	10,196.8	58.7888	10,196.8	48.4205	10,196.8	38.5884	10,196.8	45.9741	10,196.8	50.3991	10,196.8	52.3959	10,196.8	49.1983	10,196.8	56.2511	10,196.8	42.3651	10,196.8	57.0471	10,196.8	49.9813	10,196.8	55.777	10,196.8	54.363	10,196.8	51.6792	10,196.8	53.5691	10,196.8	52.3986
10,555.7	88.9743	10,555.7	88.2155	10,555.7	88.4445	10,555.7	86.5874	10,555.7	86.5368	10,555.7	84.1798	10,555.7	84.2421	10,555.7	81.5461	10,555.7	83.507	10,555.7	77.8028	10,555.7	78.3886	10,555.7	74.448	10,555.7	72.1555	10,555.7	70.589	10,555.7	71.5115	10,555.7	65.5	10,555.7	63.4184	10,555.7	63.1582	10,555.7	57.0435	10,555.7	59.7014	10,555.7	58.8936	10,555.7	51.2179	10,555.7	41.5087	10,555.7	47.7966	10,555.7	50.3647	10,555.7	51.4171	10,555.7	45.1868	10,555.7	55.6098	10,555.7	39.9923	10,555.7	56.7872	10,555.7	42.5075	10,555.7	54.4371	10,555.7	49.4457	10,555.7	50.6017	10,555.7	52.406	10,555.7	51.9807
10,927.7	89.1587	10,927.7	88.2793	10,927.7	88.2566	10,927.7	86.5474	10,927.7	86.5412	10,927.7	84.0513	10,927.7	84.5565	10,927.7	81.3029	10,927.7	81.6179	10,927.7	76.9286	10,927.7	76.2537	10,927.7	73.7472	10,927.7	73.6637	10,927.7	69.0819	10,927.7	69.8793	10,927.7	64.8732	10,927.7	59.9487	10,927.7	60.1634	10,927.7	54.9288	10,927.7	57.9577	10,927.7	54.6871	10,927.7	54.9533	10,927.7	41.5318	10,927.7	35.5904	10,927.7	41.7419	10,927.7	43.6559	10,927.7	33.111	10,927.7	53.8164	10,927.7	45.8451	10,927.7	56.9276	10,927.7	50.1238	10,927.7	56.357	10,927.7	49.4004	10,927.7	53.6638	10,927.7	51.7454	10,927.7	51.715
11,313	89.2764	11,313	88.4122	11,313	88.3155	11,313	86.5654	11,313	86.5937	11,313	83.835	11,313	83.4443	11,313	80.7769	11,313	79.0949	11,313	76.1263	11,313	75.7597	11,313	72.7868	11,313	72.5924	11,313	67.5821	11,313	69.813	11,313	62.5079	11,313	57.7517	11,313	58.7407	11,313	60.5025	11,313	55.595	11,313	60.1755	11,313	53.4206	11,313	50.4506	11,313	42.5042	11,313	45.3139	11,313	46.8202	11,313	45.1074	11,313	53.385	11,313	47.1953	11,313	55.7086	11,313	48.832	11,313	55.8752	11,313	51.2976	11,313	50.6417	11,313	52.9822	11,313	50.8697
11,712.9	89.555	11,712.9	88.3819	11,712.9	88.3781	11,712.9	86.616	11,712.9	86.813	11,712.9	83.6669	11,712.9	83.3637	11,712.9	80.4983	11,712.9	79.4624	11,712.9	75.7465	11,712.9	73.7702	11,712.9	71.983	11,712.9	72.6463	11,712.9	66.1645	11,712.9	69.9494	11,712.9	62.6491	11,712.9	51.7365	11,712.9	60.6851	11,712.9	54.4513	11,712.9	57.6679	11,712.9	57.3983	11,712.9	52.1694	11,712.9	38.8911	11,712.9	40.6277	11,712.9	47.3543	11,712.9	46.6426	11,712.9	45.8175	11,712.9	53.9863	11,712.9	45.9727	11,712.9	56.4194	11,712.9	48.8701	11,712.9	55.6442	11,712.9	52.0591	11,712.9	47.69	11,712.9	52.357	11,712.9	50.2664
12,126	89.6367	12,126	88.5084	12,126	88.146	12,126	86.6405	12,126	86.7202	12,126	83.5044	12,126	83.1068	12,126	80.0946	12,126	78.5971	12,126	75.816	12,126	74.7752	12,126	70.8826	12,126	72.6122	12,126	66.9165	12,126	70.6276	12,126	63.9792	12,126	46.8807	12,126	61.8873	12,126	50.0973	12,126	58.744	12,126	54.7598	12,126	57.6241	12,126	48.7404	12,126	32.2541	12,126	51.0847	12,126	44.3248	12,126	47.8247	12,126	53.8536	12,126	55.5813	12,126	56.0611	12,126	54.1529	12,126	55.7564	12,126	49.4032	12,126	51.0703	12,126	45.2503	12,126	50.9111
12,553.7	89.499	12,553.7	88.43	12,553.7	87.8678	12,553.7	86.5243	12,553.7	86.5407	12,553.7	82.9351	12,553.7	82.2268	12,553.7	80.1878	12,553.7	77.3661	12,553.7	74.6311	12,553.7	75.7923	12,553.7	70.7863	12,553.7	71.7527	12,553.7	67.702	12,553.7	69.0652	12,553.7	65.5594	12,553.7	58.4152	12,553.7	61.9897	12,553.7	51.2924	12,553.7	60.0647	12,553.7	55.9155	12,553.7	56.9597	12,553.7	53.7462	12,553.7	45.0685	12,553.7	51.4097	12,553.7	48.9047	12,553.7	53.6286	12,553.7	54.5132	12,553.7	56.0381	12,553.7	54.3071	12,553.7	54.9886	12,553.7	56.1809	12,553.7	51.6863	12,553.7	53.6142	12,553.7	48.3945	12,553.7	51.1579
12,996.1	89.1911	12,996.1	88.2083	12,996.1	87.4049	12,996.1	85.9616	12,996.1	85.9357	12,996.1	82.922	12,996.1	83.149	12,996.1	79.6852	12,996.1	77.9762	12,996.1	73.6237	12,996.1	74.1044	12,996.1	71.2033	12,996.1	72.9194	12,996.1	69.0132	12,996.1	68.2242	12,996.1	66.69	12,996.1	60.136	12,996.1	62.9262	12,996.1	46.2493	12,996.1	61.1467	12,996.1	54.8416	12,996.1	56.4005	12,996.1	44.6264	12,996.1	46.5544	12,996.1	53.2216	12,996.1	51.4514	12,996.1	54.6697	12,996.1	53.5636	12,996.1	54.4456	12,996.1	55.027	12,996.1	49.7684	12,996.1	55.629	12,996.1	53.0276	12,996.1	53.9352	12,996.1	49.73	12,996.1	52.2647
13,454.6	88.3667	13,454.6	87.6198	13,454.6	86.9433	13,454.6	85.498	13,454.6	85.5714	13,454.6	82.8819	13,454.6	82.0632	13,454.6	79.0381	13,454.6	76.9721	13,454.6	73.2722	13,454.6	73.2883	13,454.6	71.5127	13,454.6	72.9824	13,454.6	69.1484	13,454.6	66.0728	13,454.6	66.7687	13,454.6	60.482	13,454.6	63.5298	13,454.6	33.3095	13,454.6	61.0435	13,454.6	52.0203	13,454.6	58.1108	13,454.6	50.3321	13,454.6	47.6694	13,454.6	55.1815	13,454.6	51.7493	13,454.6	48.8127	13,454.6	51.5009	13,454.6	49.115	13,454.6	54.1483	13,454.6	52.9858	13,454.6	54.3214	13,454.6	53.4308	13,454.6	52.755	13,454.6	48.637	13,454.6	49.0132
13,929.2	87.1062	13,929.2	86.9733	13,929.2	86.3207	13,929.2	85.267	13,929.2	84.7686	13,929.2	83.0633	13,929.2	81.4099	13,929.2	78.4085	13,929.2	76.294	13,929.2	72.9358	13,929.2	72.5463	13,929.2	72.1565	13,929.2	71.9589	13,929.2	68.7783	13,929.2	65.8927	13,929.2	66.6476	13,929.2	54.4678	13,929.2	62.5962	13,929.2	48.9683	13,929.2	59.2077	13,929.2	56.8119	13,929.2	58.7676	13,929.2	48.8628	13,929.2	48.3043	13,929.2	53.0953	13,929.2	51.1638	13,929.2	43.5384	13,929.2	49.016	13,929.2	47.5558	13,929.2	52.6069	13,929.2	49.314	13,929.2	51.9268	13,929.2	50.8214	13,929.2	52.0377	13,929.2	41.4937	13,929.2	46.51
14,419.9	85.2629	14,419.9	85.7797	14,419.9	85.6911	14,419.9	84.7991	14,419.9	84.2148	14,419.9	82.5387	14,419.9	81.2942	14,419.9	77.9606	14,419.9	77.078	14,419.9	73.5648	14,419.9	73.8308	14,419.9	72.4365	14,419.9	72.6459	14,419.9	68.4111	14,419.9	59.9972	14,419.9	65.1004	14,419.9	60.2138	14,419.9	61.1007	14,419.9	52.0182	14,419.9	56.0684	14,419.9	53.3339	14,419.9	57.6206	14,419.9	49.709	14,419.9	44.6931	14,419.9	50.5901	14,419.9	46.8479	14,419.9	36.1645	14,419.9	46.699	14,419.9	50.7317	14,419.9	50.6153	14,419.9	48.6823	14,419.9	47.5132	14,419.9	52.3921	14,419.9	48.4047	14,419.9	42.2118	14,419.9	43.9908
14,928.2	83.6683	14,928.2	84.6748	14,928.2	85.0153	14,928.2	84.295	14,928.2	84.316	14,928.2	81.0698	14,928.2	81.875	14,928.2	77.8339	14,928.2	76.4091	14,928.2	73.7593	14,928.2	72.7979	14,928.2	72.2834	14,928.2	70.4534	14,928.2	66.4925	14,928.2	65.6072	14,928.2	63.0258	14,928.2	57.6128	14,928.2	59.0326	14,928.2	48.4171	14,928.2	52.2587	14,928.2	56.3026	14,928.2	56.4674	14,928.2	53.9594	14,928.2	45.7895	14,928.2	47.7439	14,928.2	45.7562	14,928.2	34.8217	14,928.2	42.0316	14,928.2	40.6506	14,928.2	50.0542	14,928.2	44.8259	14,928.2	41.6988	14,928.2	48.8109	14,928.2	48.8788	14,928.2	40.9476	14,928.2	35.1512
15,455.6	83.1606	15,455.6	84.147	15,455.6	84.3553	15,455.6	83.2448	15,455.6	84.0355	15,455.6	79.6323	15,455.6	81.624	15,455.6	77.7948	15,455.6	76.5304	15,455.6	73.5866	15,455.6	72.3237	15,455.6	71.2531	15,455.6	68.3763	15,455.6	64.6663	15,455.6	63.2908	15,455.6	61.5667	15,455.6	60.571	15,455.6	58.0066	15,455.6	47.86	15,455.6	50.892	15,455.6	53.8022	15,455.6	56.8872	15,455.6	51.1013	15,455.6	42.5779	15,455.6	38.6051	15,455.6	44.4483	15,455.6	42.4742	15,455.6	40.1699	15,455.6	46.8636	15,455.6	50.9777	15,455.6	40.4907	15,455.6	47.1006	15,455.6	43.2178	15,455.6	50.3728	15,455.6	44.1865	15,455.6	32.8106
16,000.5	83.8755	16,000.5	84.2212	16,000.5	83.8251	16,000.5	82.461	16,000.5	82.9044	16,000.5	78.5527	16,000.5	81.035	16,000.5	77.7342	16,000.5	76.7856	16,000.5	73.1292	16,000.5	72.1314	16,000.5	69.0031	16,000.5	68.6027	16,000.5	63.777	16,000.5	66.0972	16,000.5	61.5522	16,000.5	61.3833	16,000.5	57.436	16,000.5	47.0792	16,000.5	52.0663	16,000.5	51.7158	16,000.5	55.7186	16,000.5	50.9043	16,000.5	43.4746	16,000.5	39.1522	16,000.5	40.7848	16,000.5	41.8278	16,000.5	30.0682	16,000.5	39.7155	16,000.5	48.6846	16,000.5	45.0275	16,000.5	44.2579	16,000.5	45.3901	16,000.5	50.8106	16,000.5	47.3253	16,000.5	38.8598
16,564.5	84.9122	16,564.5	84.5238	16,564.5	83.7327	16,564.5	82.282	16,564.5	82.2172	16,564.5	78.7861	16,564.5	80.041	16,564.5	77.7016	16,564.5	76.3036	16,564.5	72.307	16,564.5	72.3391	16,564.5	68.6649	16,564.5	67.8311	16,564.5	64.2734	16,564.5	65.7368	16,564.5	61.8554	16,564.5	60.4561	16,564.5	56.1599	16,564.5	52.7643	16,564.5	52.2706	16,564.5	51.6517	16,564.5	54.5697	16,564.5	52.0037	16,564.5	39.7346	16,564.5	39.4137	16,564.5	37.8265	16,564.5	29.9143	16,564.5	33.9273	16,564.5	23.0589	16,564.5	49.1241	16,564.5	43.0428	16,564.5	48.2391	16,564.5	47.0369	16,564.5	51.0473	16,564.5	48.1442	16,564.5	43.2502
17,148.9	85.6347	17,148.9	84.927	17,148.9	84.1699	17,148.9	82.7223	17,148.9	82.1517	17,148.9	79.2426	17,148.9	79.3613	17,148.9	77.2024	17,148.9	74.9146	17,148.9	70.9276	17,148.9	70.4308	17,148.9	68.1299	17,148.9	65.9687	17,148.9	63.5595	17,148.9	66.2866	17,148.9	60.2843	17,148.9	61.6017	17,148.9	54.693	17,148.9	53.1827	17,148.9	51.8839	17,148.9	48.9374	17,148.9	51.9761	17,148.9	44.4926	17,148.9	39.412	17,148.9	35.4143	17,148.9	36.7851	17,148.9	30.2623	17,148.9	30.9205	17,148.9	41.7454	17,148.9	48.0878	17,148.9	40.6439	17,148.9	45.9639	17,148.9	44.0336	17,148.9	47.6764	17,148.9	46.8538	17,148.9	41.0508
17,752.4	86.006	17,752.4	85.1744	17,752.4	84.5684	17,752.4	83.0658	17,752.4	82.3795	17,752.4	79.4038	17,752.4	79.4572	17,752.4	76.52	17,752.4	75.3465	17,752.4	69.3022	17,752.4	68.7105	17,752.4	66.9968	17,752.4	65.569	17,752.4	61.3978	17,752.4	64.9253	17,752.4	57.7343	17,752.4	60.8307	17,752.4	52.386	17,752.4	54.7204	17,752.4	50.3519	17,752.4	50.2439	17,752.4	50.2833	17,752.4	40.4338	17,752.4	37.5802	17,752.4	38.8295	17,752.4	35.5279	17,752.4	22.5749	17,752.4	39.4045	17,752.4	44.822	17,752.4	47.3576	17,752.4	42.7728	17,752.4	45.3484	17,752.4	43.1898	17,752.4	44.6048	17,752.4	46.0403	17,752.4	42.3995
18,379.4	86.0818	18,379.4	85.0558	18,379.4	84.7036	18,379.4	82.8836	18,379.4	82.2715	18,379.4	78.9079	18,379.4	79.0902	18,379.4	75.0134	18,379.4	74.9836	18,379.4	67.2141	18,379.4	66.3507	18,379.4	65.8412	18,379.4	66.2257	18,379.4	60.6183	18,379.4	63.8183	18,379.4	56.7636	18,379.4	59.6403	18,379.4	51.4026	18,379.4	54.1594	18,379.4	50.7649	18,379.4	46.6325	18,379.4	49.331	18,379.4	41.7481	18,379.4	40.8918	18,379.4	40.4518	18,379.4	34.1746	18,379.4	36.526	18,379.4	44.7846	18,379.4	36.992	18,379.4	40.99	18,379.4	33.8807	18,379.4	42.4489	18,379.4	43.1839	18,379.4	46.6624	18,379.4	42.1526	18,379.4	39.7768
19,026.9	85.9587	19,026.9	84.8296	19,026.9	84.6065	19,026.9	82.6539	19,026.9	82.2799	19,026.9	78.0073	19,026.9	78.7799	19,026.9	73.2299	19,026.9	72.985	19,026.9	67.2959	19,026.9	67.1834	19,026.9	66.1282	19,026.9	66.9857	19,026.9	61.1265	19,026.9	64.4182	19,026.9	57.6388	19,026.9	60.2846	19,026.9	51.735	19,026.9	54.3099	19,026.9	50.4836	19,026.9	42.9542	19,026.9	49.3452	19,026.9	44.9539	19,026.9	36.6063	19,026.9	42.0492	19,026.9	40.572	19,026.9	37.7116	19,026.9	43.1759	19,026.9	33.4507	19,026.9	45.2118	19,026.9	37.662	19,026.9	41.8799	19,026.9	30.3607	19,026.9	40.469	19,026.9	38.5391	19,026.9	28.7843
19,697.8	85.7935	19,697.8	84.4522	19,697.8	84.5564	19,697.8	82.0716	19,697.8	82.2106	19,697.8	76.9784	19,697.8	78.3191	19,697.8	72.0573	19,697.8	72.7263	19,697.8	67.6386	19,697.8	69.9127	19,697.8	66.7888	19,697.8	66.0597	19,697.8	61.6971	19,697.8	64.2364	19,697.8	58.2306	19,697.8	60.8745	19,697.8	54.3186	19,697.8	54.0483	19,697.8	51.2376	19,697.8	38.3363	19,697.8	49.276	19,697.8	47.5893	19,697.8	39.9159	19,697.8	39.9732	19,697.8	38.4221	19,697.8	32.8212	19,697.8	46.1792	19,697.8	38.5863	19,697.8	43.2099	19,697.8	37.5913	19,697.8	44.1749	19,697.8	42.9669	19,697.8	43.9941	19,697.8	36.421	19,697.8	18.4273
19,999.5	85.7036	19,999.5	84.2109	19,999.5	84.5187	19,999.5	81.5867	19,999.5	82.2042	19,999.5	76.3653	19,999.5	78.4153	19,999.5	72.7799	19,999.5	72.6075	19,999.5	67.2882	19,999.5	69.0821	19,999.5	65.5224	19,999.5	65.2772	19,999.5	59.5557	19,999.5	64.367	19,999.5	57.0809	19,999.5	62.0353	19,999.5	53.1525	19,999.5	50.1469	19,999.5	51.1401	19,999.5	45.9639	19,999.5	42.5726	19,999.5	52.2543	19,999.5	46.5561	19,999.5	44.4934	19,999.5	44.4571	19,999.5	47.3524	19,999.5	50.6454	19,999.5	48.1201	19,999.5	50.5869	19,999.5	39.0104	19,999.5	44.0229	19,999.5	49.9418	19,999.5	46.6628	19,999.5	37.5432	19,999.5	39.5567
