"SPL Horizontal"
"On-Axis"		"10°"		"-10°"		"20°"		"-20°"		"30°"		"-30°"		"40°"		"-40°"		"50°"		"-50°"		"60°"		"-60°"		"70°"		"-70°"		"80°"		"-80°"		"90°"		"-90°"		"100°"		"-100°"		"110°"		"-110°"		"120°"		"-120°"		"130°"		"-130°"		"140°"		"-140°"		"150°"		"-150°"		"160°"		"-160°"		"170°"		"-170°"		"180°"
"Frequency / Hz"	"Sound Pressure Level / dB (re 20 µPa/V)  [2.83V at 1m]"	"Frequency / Hz"	"Sound Pressure Level / dB (re 20 µPa/V)  [2.83V at 1m]"	"Frequency / Hz"	"Sound Pressure Level / dB (re 20 µPa/V)  [2.83V at 1m]"	"Frequency / Hz"	"Sound Pressure Level / dB (re 20 µPa/V)  [2.83V at 1m]"	"Frequency / Hz"	"Sound Pressure Level / dB (re 20 µPa/V)  [2.83V at 1m]"	"Frequency / Hz"	"Sound Pressure Level / dB (re 20 µPa/V)  [2.83V at 1m]"	"Frequency / Hz"	"Sound Pressure Level / dB (re 20 µPa/V)  [2.83V at 1m]"	"Frequency / Hz"	"Sound Pressure Level / dB (re 20 µPa/V)  [2.83V at 1m]"	"Frequency / Hz"	"Sound Pressure Level / dB (re 20 µPa/V)  [2.83V at 1m]"	"Frequency / Hz"	"Sound Pressure Level / dB (re 20 µPa/V)  [2.83V at 1m]"	"Frequency / Hz"	"Sound Pressure Level / dB (re 20 µPa/V)  [2.83V at 1m]"	"Frequency / Hz"	"Sound Pressure Level / dB (re 20 µPa/V)  [2.83V at 1m]"	"Frequency / Hz"	"Sound Pressure Level / dB (re 20 µPa/V)  [2.83V at 1m]"	"Frequency / Hz"	"Sound Pressure Level / dB (re 20 µPa/V)  [2.83V at 1m]"	"Frequency / Hz"	"Sound Pressure Level / dB (re 20 µPa/V)  [2.83V at 1m]"	"Frequency / Hz"	"Sound Pressure Level / dB (re 20 µPa/V)  [2.83V at 1m]"	"Frequency / Hz"	"Sound Pressure Level / dB (re 20 µPa/V)  [2.83V at 1m]"	"Frequency / Hz"	"Sound Pressure Level / dB (re 20 µPa/V)  [2.83V at 1m]"	"Frequency / Hz"	"Sound Pressure Level / dB (re 20 µPa/V)  [2.83V at 1m]"	"Frequency / Hz"	"Sound Pressure Level / dB (re 20 µPa/V)  [2.83V at 1m]"	"Frequency / Hz"	"Sound Pressure Level / dB (re 20 µPa/V)  [2.83V at 1m]"	"Frequency / Hz"	"Sound Pressure Level / dB (re 20 µPa/V)  [2.83V at 1m]"	"Frequency / Hz"	"Sound Pressure Level / dB (re 20 µPa/V)  [2.83V at 1m]"	"Frequency / Hz"	"Sound Pressure Level / dB (re 20 µPa/V)  [2.83V at 1m]"	"Frequency / Hz"	"Sound Pressure Level / dB (re 20 µPa/V)  [2.83V at 1m]"	"Frequency / Hz"	"Sound Pressure Level / dB (re 20 µPa/V)  [2.83V at 1m]"	"Frequency / Hz"	"Sound Pressure Level / dB (re 20 µPa/V)  [2.83V at 1m]"	"Frequency / Hz"	"Sound Pressure Level / dB (re 20 µPa/V)  [2.83V at 1m]"	"Frequency / Hz"	"Sound Pressure Level / dB (re 20 µPa/V)  [2.83V at 1m]"	"Frequency / Hz"	"Sound Pressure Level / dB (re 20 µPa/V)  [2.83V at 1m]"	"Frequency / Hz"	"Sound Pressure Level / dB (re 20 µPa/V)  [2.83V at 1m]"	"Frequency / Hz"	"Sound Pressure Level / dB (re 20 µPa/V)  [2.83V at 1m]"	"Frequency / Hz"	"Sound Pressure Level / dB (re 20 µPa/V)  [2.83V at 1m]"	"Frequency / Hz"	"Sound Pressure Level / dB (re 20 µPa/V)  [2.83V at 1m]"	"Frequency / Hz"	"Sound Pressure Level / dB (re 20 µPa/V)  [2.83V at 1m]"	"Frequency / Hz"	"Sound Pressure Level / dB (re 20 µPa/V)  [2.83V at 1m]"
20.5078	52.4119	20.5078	52.5174	20.5078	52.3471	20.5078	52.6559	20.5078	52.3281	20.5078	52.818	20.5078	52.3555	20.5078	52.9939	20.5078	52.4259	20.5078	53.1741	20.5078	52.5315	20.5078	53.3495	20.5078	52.6625	20.5078	53.5123	20.5078	52.8079	20.5078	53.656	20.5078	52.958	20.5078	53.7755	20.5078	53.1043	20.5078	53.8673	20.5078	53.241	20.5078	53.9303	20.5078	53.3639	20.5078	53.9655	20.5078	53.4711	20.5078	53.9762	20.5078	53.5623	20.5078	53.9676	20.5078	53.6386	20.5078	53.9454	20.5078	53.7019	20.5078	53.9149	20.5078	53.755	20.5078	53.8798	20.5078	53.8007	20.5078	53.8418
21.9727	52.6677	21.9727	52.7464	21.9727	52.5875	21.9727	52.8177	21.9727	52.5103	21.9727	52.8754	21.9727	52.4392	21.9727	52.9142	21.9727	52.3749	21.9727	52.9296	21.9727	52.3162	21.9727	52.9191	21.9727	52.2606	21.9727	52.8812	21.9727	52.2048	21.9727	52.8157	21.9727	52.1455	21.9727	52.7232	21.9727	52.0799	21.9727	52.6055	21.9727	52.0064	21.9727	52.4656	21.9727	51.925	21.9727	52.3087	21.9727	51.8375	21.9727	52.1422	21.9727	51.7479	21.9727	51.9758	21.9727	51.6622	21.9727	51.821	21.9727	51.5888	21.9727	51.6895	21.9727	51.5369	21.9727	51.5913	21.9727	51.5159	21.9727	51.533
23.4375	50.9086	23.4375	50.8475	23.4375	50.9761	23.4375	50.7962	23.4375	51.0449	23.4375	50.756	23.4375	51.1093	23.4375	50.7261	23.4375	51.1636	23.4375	50.7032	23.4375	51.2029	23.4375	50.6829	23.4375	51.2232	23.4375	50.6602	23.4375	51.222	23.4375	50.6302	23.4375	51.1977	23.4375	50.5894	23.4375	51.1501	23.4375	50.5358	23.4375	51.08	23.4375	50.4702	23.4375	50.9893	23.4375	50.3963	23.4375	50.8812	23.4375	50.3208	23.4375	50.7605	23.4375	50.2525	23.4375	50.6332	23.4375	50.2012	23.4375	50.5072	23.4375	50.1756	23.4375	50.3908	23.4375	50.1817	23.4375	50.293	23.4375	50.2215
24.9023	53.2578	24.9023	53.3421	24.9023	53.1791	24.9023	53.427	24.9023	53.1084	24.9023	53.5052	24.9023	53.0451	24.9023	53.5686	24.9023	52.9866	24.9023	53.6097	24.9023	52.9292	24.9023	53.6222	24.9023	52.8689	24.9023	53.6021	24.9023	52.8024	24.9023	53.5474	24.9023	52.7274	24.9023	53.4581	24.9023	52.6426	24.9023	53.3357	24.9023	52.5484	24.9023	53.184	24.9023	52.4467	24.9023	53.009	24.9023	52.3413	24.9023	52.8189	24.9023	52.2379	24.9023	52.6249	24.9023	52.1446	24.9023	52.4396	24.9023	52.0709	24.9023	52.2765	24.9023	52.0269	24.9023	52.1476	24.9023	52.0216	24.9023	52.0614
26.3672	51.9433	26.3672	52.0176	26.3672	51.9119	26.3672	52.1312	26.3672	51.9221	26.3672	52.2764	26.3672	51.9687	26.3672	52.4428	26.3672	52.0436	26.3672	52.6189	26.3672	52.1378	26.3672	52.7941	26.3672	52.2432	26.3672	52.9591	26.3672	52.3529	26.3672	53.1071	26.3672	52.4621	26.3672	53.2332	26.3672	52.5676	26.3672	53.3343	26.3672	52.6681	26.3672	53.4094	26.3672	52.7631	26.3672	53.4584	26.3672	52.853	26.3672	53.4826	26.3672	52.9387	26.3672	53.4841	26.3672	53.0212	26.3672	53.4656	26.3672	53.101	26.3672	53.4299	26.3672	53.1781	26.3672	53.3803	26.3672	53.2517	26.3672	53.3199
27.832	52.781	27.832	52.7921	27.832	52.7903	27.832	52.8249	27.832	52.8179	27.832	52.8796	27.832	52.8615	27.832	52.955	27.832	52.9184	27.832	53.0481	27.832	52.9856	27.832	53.1545	27.832	53.0601	27.832	53.2687	27.832	53.1387	27.832	53.3847	27.832	53.2189	27.832	53.4971	27.832	53.2982	27.832	53.6007	27.832	53.3753	27.832	53.6916	27.832	53.4493	27.832	53.7667	27.832	53.5197	27.832	53.8241	27.832	53.5865	27.832	53.8629	27.832	53.6495	27.832	53.8832	27.832	53.7082	27.832	53.886	27.832	53.7616	27.832	53.873	27.832	53.8084	27.832	53.8463
29.2969	56.7045	29.2969	56.6966	29.2969	56.6855	29.2969	56.6609	29.2969	56.6414	29.2969	56.5971	29.2969	56.5743	29.2969	56.5062	29.2969	56.4865	29.2969	56.3903	29.2969	56.3806	29.2969	56.2525	29.2969	56.259	29.2969	56.0969	29.2969	56.1241	29.2969	55.9277	29.2969	55.9786	29.2969	55.7495	29.2969	55.8248	29.2969	55.5668	29.2969	55.6653	29.2969	55.3848	29.2969	55.503	29.2969	55.2087	29.2969	55.341	29.2969	55.0453	29.2969	55.1835	29.2969	54.9018	29.2969	55.0353	29.2969	54.7863	29.2969	54.9026	29.2969	54.706	29.2969	54.7925	29.2969	54.666	29.2969	54.7123	29.2969	54.6686
30.7617	60.1865	30.7617	60.2137	30.7617	60.1228	30.7617	60.2025	30.7617	60.0253	30.7617	60.1522	30.7617	59.897	30.7617	60.0631	30.7617	59.7417	30.7617	59.9369	30.7617	59.5629	30.7617	59.7768	30.7617	59.3646	30.7617	59.5869	30.7617	59.1506	30.7617	59.3719	30.7617	58.9249	30.7617	59.1372	30.7617	58.6917	30.7617	58.8882	30.7617	58.4554	30.7617	58.6309	30.7617	58.2214	30.7617	58.372	30.7617	57.9959	30.7617	58.1194	30.7617	57.7868	30.7617	57.8826	30.7617	57.6029	30.7617	57.6725	30.7617	57.4542	30.7617	57.5003	30.7617	57.3505	30.7617	57.3764	30.7617	57.3002	30.7617	57.3085
32.2266	60.3864	32.2266	60.4149	32.2266	60.3492	32.2266	60.4314	32.2266	60.3067	32.2266	60.4334	32.2266	60.2618	32.2266	60.4194	32.2266	60.2162	32.2266	60.3893	32.2266	60.171	32.2266	60.3443	32.2266	60.1262	32.2266	60.2865	32.2266	60.0812	32.2266	60.2187	32.2266	60.0353	32.2266	60.1438	32.2266	59.988	32.2266	60.0648	32.2266	59.939	32.2266	59.9847	32.2266	59.8886	32.2266	59.9067	32.2266	59.8381	32.2266	59.834	32.2266	59.7888	32.2266	59.7698	32.2266	59.7431	32.2266	59.7171	32.2266	59.7033	32.2266	59.678	32.2266	59.6722	32.2266	59.6541	32.2266	59.6523	32.2266	59.6458
33.6914	64.0825	33.6914	64.0729	33.6914	64.1006	33.6914	64.0718	33.6914	64.1261	33.6914	64.078	33.6914	64.157	33.6914	64.0901	33.6914	64.1905	33.6914	64.106	33.6914	64.2236	33.6914	64.1238	33.6914	64.2536	33.6914	64.1419	33.6914	64.2785	33.6914	64.1587	33.6914	64.2971	33.6914	64.1735	33.6914	64.309	33.6914	64.186	33.6914	64.3147	33.6914	64.1964	33.6914	64.315	33.6914	64.2053	33.6914	64.3112	33.6914	64.2137	33.6914	64.3045	33.6914	64.2222	33.6914	64.2963	33.6914	64.231	33.6914	64.2872	33.6914	64.2403	33.6914	64.278	33.6914	64.2498	33.6914	64.2686	33.6914	64.2592
35.1562	68.8762	35.1562	68.8333	35.1562	68.9183	35.1562	68.7928	35.1562	68.9559	35.1562	68.7572	35.1562	68.9859	35.1562	68.728	35.1562	69.006	35.1562	68.7053	35.1562	69.0148	35.1562	68.6883	35.1562	69.0121	35.1562	68.6757	35.1562	68.9987	35.1562	68.6662	35.1562	68.9762	35.1562	68.6586	35.1562	68.9466	35.1562	68.6526	35.1562	68.9125	35.1562	68.6481	35.1562	68.8761	35.1562	68.6455	35.1562	68.8398	35.1562	68.6453	35.1562	68.8054	35.1562	68.6478	35.1562	68.7741	35.1562	68.6532	35.1562	68.7466	35.1562	68.6616	35.1562	68.723	35.1562	68.6726	35.1562	68.7031	35.1562	68.6864
36.6211	72.655	36.6211	72.6601	36.6211	72.6373	36.6211	72.6523	36.6211	72.607	36.6211	72.6315	36.6211	72.5641	36.6211	72.5973	36.6211	72.509	36.6211	72.5492	36.6211	72.4422	36.6211	72.4868	36.6211	72.3646	36.6211	72.4103	36.6211	72.2773	36.6211	72.3205	36.6211	72.1818	36.6211	72.2188	36.6211	72.08	36.6211	72.1077	36.6211	71.9743	36.6211	71.9907	36.6211	71.8674	36.6211	71.8718	36.6211	71.7628	36.6211	71.7561	36.6211	71.6641	36.6211	71.6492	36.6211	71.5758	36.6211	71.5566	36.6211	71.5023	36.6211	71.4837	36.6211	71.4481	36.6211	71.4347	36.6211	71.4171	36.6211	71.4122
38.0859	75.8359	38.0859	75.8506	38.0859	75.8078	38.0859	75.8506	38.0859	75.768	38.0859	75.8355	38.0859	75.7181	38.0859	75.8054	38.0859	75.6597	38.0859	75.7614	38.0859	75.5946	38.0859	75.7055	38.0859	75.5244	38.0859	75.6403	38.0859	75.4509	38.0859	75.5686	38.0859	75.3758	38.0859	75.493	38.0859	75.301	38.0859	75.4161	38.0859	75.2286	38.0859	75.3396	38.0859	75.1605	38.0859	75.2652	38.0859	75.0988	38.0859	75.1946	38.0859	75.0454	38.0859	75.1292	38.0859	75.0022	38.0859	75.0711	38.0859	74.9708	38.0859	75.0221	38.0859	74.9528	38.0859	74.9844	38.0859	74.9489	38.0859	74.9596
39.5508	77.4317	39.5508	77.4344	39.5508	77.4156	39.5508	77.4227	39.5508	77.3868	39.5508	77.3964	39.5508	77.3463	39.5508	77.3551	39.5508	77.2952	39.5508	77.2994	39.5508	77.2347	39.5508	77.2305	39.5508	77.1662	39.5508	77.1503	39.5508	77.0914	39.5508	77.0612	39.5508	77.012	39.5508	76.9664	39.5508	76.9302	39.5508	76.8695	39.5508	76.8479	39.5508	76.7741	39.5508	76.7674	39.5508	76.6841	39.5508	76.6907	39.5508	76.603	39.5508	76.6198	39.5508	76.5341	39.5508	76.5568	39.5508	76.4799	39.5508	76.5033	39.5508	76.4423	39.5508	76.4614	39.5508	76.4222	39.5508	76.4328	39.5508	76.4193
41.0156	79.4772	41.0156	79.4712	41.0156	79.4692	41.0156	79.4511	41.0156	79.4474	41.0156	79.4172	41.0156	79.4121	41.0156	79.37	41.0156	79.3644	41.0156	79.3104	41.0156	79.3052	41.0156	79.2395	41.0156	79.236	41.0156	79.1589	41.0156	79.1584	41.0156	79.0705	41.0156	79.0746	41.0156	78.9767	41.0156	78.9865	41.0156	78.8804	41.0156	78.8966	41.0156	78.7848	41.0156	78.8073	41.0156	78.6933	41.0156	78.7212	41.0156	78.6096	41.0156	78.6408	41.0156	78.5371	41.0156	78.5687	41.0156	78.479	41.0156	78.5074	41.0156	78.4378	41.0156	78.4594	41.0156	78.4152	41.0156	78.4268	41.0156	78.4117
42.4805	80.7327	42.4805	80.7219	42.4805	80.728	42.4805	80.696	42.4805	80.7079	42.4805	80.6557	42.4805	80.673	42.4805	80.6022	42.4805	80.6243	42.4805	80.537	42.4805	80.5631	42.4805	80.4617	42.4805	80.4913	42.4805	80.3782	42.4805	80.4108	42.4805	80.2889	42.4805	80.3239	42.4805	80.1963	42.4805	80.2332	42.4805	80.1029	42.4805	80.1413	42.4805	80.0118	42.4805	80.0509	42.4805	79.9261	42.4805	79.9647	42.4805	79.8487	42.4805	79.8854	42.4805	79.7825	42.4805	79.8154	42.4805	79.7298	42.4805	79.757	42.4805	79.6926	42.4805	79.712	42.4805	79.672	42.4805	79.6821	42.4805	79.6685
43.9453	81.8333	43.9453	81.8276	43.9453	81.8246	43.9453	81.8078	43.9453	81.8017	43.9453	81.7741	43.9453	81.7647	43.9453	81.7273	43.9453	81.7143	43.9453	81.6681	43.9453	81.6516	43.9453	81.5979	43.9453	81.5781	43.9453	81.5182	43.9453	81.4956	43.9453	81.4311	43.9453	81.4065	43.9453	81.3392	43.9453	81.3135	43.9453	81.2451	43.9453	81.2193	43.9453	81.152	43.9453	81.1272	43.9453	81.0628	43.9453	81.0401	43.9453	80.9807	43.9453	80.9609	43.9453	80.9086	43.9453	80.8924	43.9453	80.8491	43.9453	80.8369	43.9453	80.8045	43.9453	80.7964	43.9453	80.7763	43.9453	80.7723	43.9453	80.7655
45.4102	82.3393	45.4102	82.3333	45.4102	82.3302	45.4102	82.3123	45.4102	82.3058	45.4102	82.2772	45.4102	82.2668	45.4102	82.2288	45.4102	82.2141	45.4102	82.1686	45.4102	82.1489	45.4102	82.0982	45.4102	82.0729	45.4102	82.0192	45.4102	81.988	45.4102	81.9339	45.4102	81.8966	45.4102	81.8442	45.4102	81.8014	45.4102	81.7528	45.4102	81.7052	45.4102	81.6619	45.4102	81.6111	45.4102	81.5744	45.4102	81.5224	45.4102	81.4927	45.4102	81.4423	45.4102	81.4196	45.4102	81.3738	45.4102	81.3576	45.4102	81.3195	45.4102	81.3089	45.4102	81.2816	45.4102	81.2757	45.4102	81.2615	45.4102	81.2596
46.875	82.5443	46.875	82.546	46.875	82.5292	46.875	82.5339	46.875	82.5014	46.875	82.5082	46.875	82.4617	46.875	82.4695	46.875	82.4115	46.875	82.4186	46.875	82.3521	46.875	82.3572	46.875	82.2852	46.875	82.2869	46.875	82.2126	46.875	82.21	46.875	82.1364	46.875	82.1291	46.875	82.0585	46.875	82.0467	46.875	81.9812	46.875	81.9657	46.875	81.9068	46.875	81.8888	46.875	81.8375	46.875	81.8185	46.875	81.7753	46.875	81.757	46.875	81.7222	46.875	81.7062	46.875	81.68	46.875	81.6675	46.875	81.6501	46.875	81.6422	46.875	81.6334	46.875	81.6307
48.3398	82.6301	48.3398	82.6324	48.3398	82.6186	48.3398	82.6252	48.3398	82.5984	48.3398	82.6086	48.3398	82.5704	48.3398	82.5829	48.3398	82.5355	48.3398	82.549	48.3398	82.4949	48.3398	82.5082	48.3398	82.4502	48.3398	82.4619	48.3398	82.4028	48.3398	82.4122	48.3398	82.3545	48.3398	82.3612	48.3398	82.3069	48.3398	82.3109	48.3398	82.2617	48.3398	82.2633	48.3398	82.2203	48.3398	82.2201	48.3398	82.1837	48.3398	82.1825	48.3398	82.1528	48.3398	82.1513	48.3398	82.128	48.3398	82.1266	48.3398	82.1095	48.3398	82.1084	48.3398	82.0972	48.3398	82.0966	48.3398	82.091	48.3398	82.0908
51.2695	83.0225	51.2695	82.9954	51.2695	83.0318	51.2695	82.9517	51.2695	83.0228	51.2695	82.8934	51.2695	82.996	51.2695	82.823	51.2695	82.9525	51.2695	82.7438	51.2695	82.8944	51.2695	82.6592	51.2695	82.8246	51.2695	82.5728	51.2695	82.7465	51.2695	82.4885	51.2695	82.6637	51.2695	82.4098	51.2695	82.5803	51.2695	82.3399	51.2695	82.5	51.2695	82.2813	51.2695	82.4262	51.2695	82.2353	51.2695	82.3614	51.2695	82.2022	51.2695	82.3071	51.2695	82.1811	51.2695	82.2637	51.2695	82.17	51.2695	82.2306	51.2695	82.1668	51.2695	82.2062	51.2695	82.1696	51.2695	82.1889	51.2695	82.177
52.7344	83.604	52.7344	83.5848	52.7344	83.6014	52.7344	83.5444	52.7344	83.5769	52.7344	83.484	52.7344	83.5309	52.7344	83.4051	52.7344	83.4644	52.7344	83.3098	52.7344	83.379	52.7344	83.2004	52.7344	83.2771	52.7344	83.0798	52.7344	83.1613	52.7344	82.9512	52.7344	83.0352	52.7344	82.8183	52.7344	82.9026	52.7344	82.6853	52.7344	82.7675	52.7344	82.5564	52.7344	82.6345	52.7344	82.4359	52.7344	82.5077	52.7344	82.3278	52.7344	82.3914	52.7344	82.2358	52.7344	82.2894	52.7344	82.163	52.7344	82.2048	52.7344	82.1117	52.7344	82.1403	52.7344	82.0833	52.7344	82.0978	52.7344	82.0786
54.1992	83.6397	54.1992	83.6319	54.1992	83.6295	54.1992	83.6063	54.1992	83.6016	54.1992	83.5636	54.1992	83.5568	54.1992	83.505	54.1992	83.4964	54.1992	83.4321	54.1992	83.4221	54.1992	83.3468	54.1992	83.336	54.1992	83.2517	54.1992	83.2406	54.1992	83.1494	54.1992	83.1388	54.1992	83.0429	54.1992	83.0334	54.1992	82.9357	54.1992	82.9277	54.1992	82.831	54.1992	82.8249	54.1992	82.7323	54.1992	82.7282	54.1992	82.6428	54.1992	82.6404	54.1992	82.5653	54.1992	82.5643	54.1992	82.5025	54.1992	82.5024	54.1992	82.4564	54.1992	82.4566	54.1992	82.4282	54.1992	82.4284	54.1992	82.4188
55.6641	83.7779	55.6641	83.7691	55.6641	83.7681	55.6641	83.7419	55.6641	83.7403	55.6641	83.6974	55.6641	83.6954	55.6641	83.637	55.6641	83.6351	55.6641	83.5628	55.6641	83.5615	55.6641	83.4776	55.6641	83.4771	55.6641	83.3843	55.6641	83.3848	55.6641	83.2862	55.6641	83.2878	55.6641	83.1868	55.6641	83.1893	55.6641	83.0894	55.6641	83.0925	55.6641	82.9972	55.6641	83.0006	55.6641	82.9129	55.6641	82.9162	55.6641	82.8388	55.6641	82.8418	55.6641	82.7766	55.6641	82.779	55.6641	82.7274	55.6641	82.7292	55.6641	82.692	55.6641	82.6932	55.6641	82.6708	55.6641	82.6713	55.6641	82.6638
58.5938	83.9414	58.5938	83.9296	58.5938	83.9355	58.5938	83.9002	58.5938	83.9123	58.5938	83.8541	58.5938	83.8731	58.5938	83.7928	58.5938	83.8193	58.5938	83.7182	58.5938	83.753	58.5938	83.6331	58.5938	83.6763	58.5938	83.5403	58.5938	83.5918	58.5938	83.4429	58.5938	83.5019	58.5938	83.3443	58.5938	83.4093	58.5938	83.2477	58.5938	83.3168	58.5938	83.1562	58.5938	83.2268	58.5938	83.0726	58.5938	83.1419	58.5938	82.9996	58.5938	83.0643	58.5938	82.9391	58.5938	82.9959	58.5938	82.8927	58.5938	82.9386	58.5938	82.8616	58.5938	82.8938	58.5938	82.8462	58.5938	82.8629	58.5938	82.8468
60.0586	84.0584	60.0586	84.04	60.0586	84.0614	60.0586	84.0067	60.0586	84.0495	60.0586	83.9594	60.0586	84.0233	60.0586	83.8995	60.0586	83.9839	60.0586	83.829	60.0586	83.933	60.0586	83.7505	60.0586	83.8724	60.0586	83.6669	60.0586	83.8042	60.0586	83.5813	60.0586	83.7307	60.0586	83.497	60.0586	83.6544	60.0586	83.417	60.0586	83.5776	60.0586	83.3443	60.0586	83.5027	60.0586	83.2811	60.0586	83.4315	60.0586	83.2291	60.0586	83.3658	60.0586	83.1896	60.0586	83.3069	60.0586	83.163	60.0586	83.256	60.0586	83.1494	60.0586	83.2139	60.0586	83.1483	60.0586	83.1813	60.0586	83.1592
62.9883	84.5145	62.9883	84.503	62.9883	84.5087	62.9883	84.4743	62.9883	84.4861	62.9883	84.4292	62.9883	84.4477	62.9883	84.3694	62.9883	84.3951	62.9883	84.2969	62.9883	84.3306	62.9883	84.2145	62.9883	84.2566	62.9883	84.1253	62.9883	84.176	62.9883	84.0329	62.9883	84.0918	62.9883	83.9409	62.9883	84.0071	62.9883	83.8529	62.9883	83.9247	62.9883	83.7721	62.9883	83.8471	62.9883	83.7012	62.9883	83.7764	62.9883	83.6422	62.9883	83.7137	62.9883	83.5961	62.9883	83.6601	62.9883	83.5635	62.9883	83.6158	62.9883	83.544	62.9883	83.581	62.9883	83.5368	62.9883	83.556	62.9883	83.5411
64.4531	84.6479	64.4531	84.6391	64.4531	84.6388	64.4531	84.6126	64.4531	84.612	64.4531	84.5696	64.4531	84.5686	64.4531	84.5117	64.4531	84.5101	64.4531	84.4411	64.4531	84.4389	64.4531	84.3604	64.4531	84.3576	64.4531	84.2728	64.4531	84.2695	64.4531	84.1814	64.4531	84.1779	64.4531	84.0896	64.4531	84.0862	64.4531	84.0008	64.4531	83.9978	64.4531	83.9179	64.4531	83.9157	64.4531	83.8434	64.4531	83.8422	64.4531	83.7793	64.4531	83.779	64.4531	83.7266	64.4531	83.7271	64.4531	83.686	64.4531	83.6869	64.4531	83.6575	64.4531	83.6584	64.4531	83.6407	64.4531	83.6413	64.4531	83.6354
67.3828	84.8413	67.3828	84.8307	67.3828	84.8341	67.3828	84.8029	67.3828	84.8094	67.3828	84.7589	67.3828	84.768	67.3828	84.7004	67.3828	84.7114	67.3828	84.6295	67.3828	84.6416	67.3828	84.549	67.3828	84.5615	67.3828	84.4618	67.3828	84.4739	67.3828	84.3712	67.3828	84.3823	67.3828	84.2805	67.3828	84.2902	67.3828	84.1928	67.3828	84.201	67.3828	84.1111	67.3828	84.1177	67.3828	84.0377	67.3828	84.0428	67.3828	83.9743	67.3828	83.9782	67.3828	83.9222	67.3828	83.9251	67.3828	83.8818	67.3828	83.8838	67.3828	83.8532	67.3828	83.8546	67.3828	83.8364	67.3828	83.837	67.3828	83.831
68.8477	84.9882	68.8477	84.9773	68.8477	84.9812	68.8477	84.949	68.8477	84.9565	68.8477	84.9045	68.8477	84.9149	68.8477	84.8456	68.8477	84.8579	68.8477	84.7746	68.8477	84.7877	68.8477	84.694	68.8477	84.7069	68.8477	84.607	68.8477	84.6188	68.8477	84.517	68.8477	84.5268	68.8477	84.427	68.8477	84.4344	68.8477	84.3403	68.8477	84.3451	68.8477	84.2597	68.8477	84.262	68.8477	84.1874	68.8477	84.1876	68.8477	84.1252	68.8477	84.1238	68.8477	84.0739	68.8477	84.0716	68.8477	84.034	68.8477	84.0316	68.8477	84.0055	68.8477	84.0036	68.8477	83.9883	68.8477	83.9872	68.8477	83.9822
71.7773	85.1269	71.7773	85.1154	71.7773	85.1216	71.7773	85.0877	71.7773	85.0997	71.7773	85.0451	71.7773	85.0619	71.7773	84.9895	71.7773	85.0099	71.7773	84.9231	71.7773	84.9458	71.7773	84.849	71.7773	84.8722	71.7773	84.7702	71.7773	84.7923	71.7773	84.6898	71.7773	84.7094	71.7773	84.6111	71.7773	84.6271	71.7773	84.5366	71.7773	84.5484	71.7773	84.4688	71.7773	84.4762	71.7773	84.4091	71.7773	84.4125	71.7773	84.3587	71.7773	84.3589	71.7773	84.3178	71.7773	84.3159	71.7773	84.2863	71.7773	84.2836	71.7773	84.264	71.7773	84.2615	71.7773	84.2504	71.7773	84.2489	71.7773	84.2454
74.707	85.2001	74.707	85.1849	74.707	85.1976	74.707	85.1529	74.707	85.1773	74.707	85.1054	74.707	85.1401	74.707	85.0449	74.707	85.0875	74.707	84.9741	74.707	85.0218	74.707	84.8962	74.707	84.9461	74.707	84.8149	74.707	84.8638	74.707	84.7337	74.707	84.7789	74.707	84.656	74.707	84.6951	74.707	84.5847	74.707	84.6161	74.707	84.5219	74.707	84.545	74.707	84.469	74.707	84.4839	74.707	84.4261	74.707	84.4341	74.707	84.393	74.707	84.3958	74.707	84.3687	74.707	84.3684	74.707	84.3521	74.707	84.3506	74.707	84.3422	74.707	84.341	74.707	84.3384
77.6367	85.2123	77.6367	85.1955	77.6367	85.21	77.6367	85.1604	77.6367	85.1886	77.6367	85.1087	77.6367	85.1489	77.6367	85.0427	77.6367	85.0927	77.6367	84.9656	77.6367	85.0225	77.6367	84.8809	77.6367	84.9414	77.6367	84.7927	77.6367	84.8533	77.6367	84.7049	77.6367	84.7622	77.6367	84.6213	77.6367	84.6721	77.6367	84.545	77.6367	84.5872	77.6367	84.4783	77.6367	84.5104	77.6367	84.4224	77.6367	84.4444	77.6367	84.3774	77.6367	84.3904	77.6367	84.3429	77.6367	84.3487	77.6367	84.3176	77.6367	84.3188	77.6367	84.3003	77.6367	84.2994	77.6367	84.2899	77.6367	84.2889	77.6367	84.286
79.1016	85.2708	79.1016	85.2526	79.1016	85.2694	79.1016	85.2158	79.1016	85.2486	79.1016	85.1621	79.1016	85.2093	79.1016	85.0941	79.1016	85.1532	79.1016	85.0148	79.1016	85.0829	79.1016	84.9281	79.1016	85.0017	79.1016	84.8382	79.1016	84.9135	79.1016	84.7491	79.1016	84.8223	79.1016	84.6648	79.1016	84.7324	79.1016	84.5884	79.1016	84.6476	79.1016	84.5222	79.1016	84.5711	79.1016	84.4674	79.1016	84.5052	79.1016	84.4241	79.1016	84.4513	79.1016	84.3915	79.1016	84.4095	79.1016	84.3683	79.1016	84.3791	79.1016	84.3531	79.1016	84.3588	79.1016	84.3447	79.1016	84.3471	79.1016	84.3427
82.0312	85.2681	82.0312	85.2429	82.0312	85.2729	82.0312	85.1985	82.0312	85.2573	82.0312	85.1367	82.0312	85.2225	82.0312	85.0605	82.0312	85.1703	82.0312	84.9735	82.0312	85.1034	82.0312	84.8802	82.0312	85.0255	82.0312	84.7852	82.0312	84.9404	82.0312	84.6933	82.0312	84.8525	82.0312	84.6086	82.0312	84.7658	82.0312	84.5348	82.0312	84.6842	82.0312	84.474	82.0312	84.6106	82.0312	84.4271	82.0312	84.5471	82.0312	84.3939	82.0312	84.4946	82.0312	84.3727	82.0312	84.453	82.0312	84.3616	82.0312	84.4211	82.0312	84.3582	82.0312	84.3974	82.0312	84.3608	82.0312	84.3802	82.0312	84.3682
84.9609	85.1331	84.9609	85.1086	84.9609	85.136	84.9609	85.0633	84.9609	85.1176	84.9609	84.9989	84.9609	85.0794	84.9609	84.9186	84.9609	85.0236	84.9609	84.826	84.9609	84.9534	84.9609	84.7261	84.9609	84.8727	84.9609	84.6241	84.9609	84.7859	84.9609	84.5254	84.9609	84.6975	84.9609	84.4351	84.9609	84.6118	84.9609	84.3573	84.9609	84.5324	84.9609	84.2948	84.9609	84.4622	84.9609	84.2487	84.9609	84.4025	84.9609	84.2185	84.9609	84.3537	84.9609	84.2023	84.9609	84.3148	84.9609	84.1975	84.9609	84.2842	84.9609	84.201	84.9609	84.2599	84.9609	84.2104	84.9609	84.2402	84.9609	84.2237
87.8906	85.2878	87.8906	85.2654	87.8906	85.2879	87.8906	85.2212	87.8906	85.2658	87.8906	85.1573	87.8906	85.2232	87.8906	85.0767	87.8906	85.1625	87.8906	84.9835	87.8906	85.0872	87.8906	84.8828	87.8906	85.0017	87.8906	84.7802	87.8906	84.9109	87.8906	84.6816	87.8906	84.8199	87.8906	84.5925	87.8906	84.7338	87.8906	84.5175	87.8906	84.6565	87.8906	84.4594	87.8906	84.5912	87.8906	84.4191	87.8906	84.5392	87.8906	84.3955	87.8906	84.5002	87.8906	84.3861	87.8906	84.4724	87.8906	84.387	87.8906	84.453	87.8906	84.3944	87.8906	84.4389	87.8906	84.4049	87.8906	84.4273	87.8906	84.4162
90.8203	85.4129	90.8203	85.3852	90.8203	85.4159	90.8203	85.3338	90.8203	85.3944	90.8203	85.2608	90.8203	85.35	90.8203	85.1697	90.8203	85.2853	90.8203	85.065	90.8203	85.2039	90.8203	84.9525	90.8203	85.1105	90.8203	84.8384	90.8203	85.0104	90.8203	84.7295	90.8203	84.9094	90.8203	84.6318	90.8203	84.8131	90.8203	84.5505	90.8203	84.7264	90.8203	84.4888	90.8203	84.6529	90.8203	84.4476	90.8203	84.5945	90.8203	84.4254	90.8203	84.551	90.8203	84.4189	90.8203	84.5206	90.8203	84.4237	90.8203	84.5001	90.8203	84.4348	90.8203	84.4857	90.8203	84.4484	90.8203	84.4737	90.8203	84.4616
95.2148	85.1854	95.2148	85.1523	95.2148	85.1914	95.2148	85.0927	95.2148	85.1708	95.2148	85.0087	95.2148	85.1256	95.2148	84.9038	95.2148	85.0586	95.2148	84.7829	95.2148	84.9739	95.2148	84.6521	95.2148	84.8763	95.2148	84.5186	95.2148	84.7713	95.2148	84.3902	95.2148	84.6648	95.2148	84.2742	95.2148	84.5624	95.2148	84.177	95.2148	84.4689	95.2148	84.1032	95.2148	84.388	95.2148	84.0546	95.2148	84.3213	95.2148	84.0302	95.2148	84.2686	95.2148	84.0268	95.2148	84.228	95.2148	84.0391	95.2148	84.1959	95.2148	84.0613	95.2148	84.1686	95.2148	84.0882	95.2148	84.1427	95.2148	84.116
98.1445	85.0506	98.1445	85.0196	98.1445	85.0534	98.1445	84.9611	98.1445	85.0288	98.1445	84.8773	98.1445	84.9786	98.1445	84.7716	98.1445	84.9063	98.1445	84.6494	98.1445	84.8162	98.1445	84.5168	98.1445	84.7135	98.1445	84.3814	98.1445	84.6044	98.1445	84.2511	98.1445	84.4951	98.1445	84.1334	98.1445	84.3916	98.1445	84.0351	98.1445	84.2991	98.1445	83.9609	98.1445	84.2211	98.1445	83.9127	98.1445	84.159	98.1445	83.8896	98.1445	84.1121	98.1445	83.888	98.1445	84.0775	98.1445	83.9022	98.1445	84.0512	98.1445	83.9262	98.1445	84.0288	98.1445	83.954	98.1445	84.0063	98.1445	83.9814
101.074	85.0806	101.074	85.0558	101.074	85.0754	101.074	85.0018	101.074	85.041	101.074	84.9204	101.074	84.9794	101.074	84.815	101.074	84.8939	101.074	84.6904	101.074	84.789	101.074	84.5528	101.074	84.6703	101.074	84.4094	101.074	84.5445	101.074	84.2683	101.074	84.4184	101.074	84.1376	101.074	84.2991	101.074	84.0246	101.074	84.1925	101.074	83.9348	101.074	84.103	101.074	83.871	101.074	84.0327	101.074	83.833	101.074	83.9809	101.074	83.8176	101.074	83.945	101.074	83.8195	101.074	83.9204	101.074	83.8323	101.074	83.9022	101.074	83.8501	101.074	83.8859	101.074	83.8687
105.469	84.8891	105.469	84.8715	105.469	84.8757	105.469	84.8236	105.469	84.8323	105.469	84.7473	105.469	84.7609	105.469	84.646	105.469	84.6651	105.469	84.5244	105.469	84.5496	105.469	84.3887	105.469	84.4204	105.469	84.246	105.469	84.2843	105.469	84.104	105.469	84.1485	105.469	83.9706	105.469	84.0203	105.469	83.8529	105.469	83.9061	105.469	83.7562	105.469	83.8105	105.469	83.6832	105.469	83.736	105.469	83.6339	105.469	83.6825	105.469	83.6055	105.469	83.6474	105.469	83.5932	105.469	83.6264	105.469	83.5916	105.469	83.6145	105.469	83.5954	105.469	83.6071	105.469	83.6011
108.398	84.7132	108.398	84.6997	108.398	84.6959	108.398	84.6559	108.398	84.6488	108.398	84.5836	108.398	84.5743	108.398	84.4864	108.398	84.4762	108.398	84.3692	108.398	84.3594	108.398	84.2382	108.398	84.2302	108.398	84.1007	108.398	84.0957	108.398	83.9648	108.398	83.9633	108.398	83.8382	108.398	83.8404	108.398	83.7278	108.398	83.7333	108.398	83.6386	108.398	83.6465	108.398	83.5727	108.398	83.5819	108.398	83.5295	108.398	83.5389	108.398	83.5057	108.398	83.5143	108.398	83.4962	108.398	83.5031	108.398	83.4951	108.398	83.5	108.398	83.4974	108.398	83.4999	108.398	83.4994
112.793	84.4836	112.793	84.465	112.793	84.4696	112.793	84.4145	112.793	84.4244	112.793	84.3344	112.793	84.3507	112.793	84.229	112.793	84.2527	112.793	84.1046	112.793	84.1361	112.793	83.9688	112.793	84.0078	112.793	83.8307	112.793	83.8754	112.793	83.6996	112.793	83.7472	112.793	83.5842	112.793	83.6312	112.793	83.4912	112.793	83.5341	112.793	83.4245	112.793	83.4606	112.793	83.3846	112.793	83.412	112.793	83.3681	112.793	83.3868	112.793	83.3692	112.793	83.3802	112.793	83.3805	112.793	83.3859	112.793	83.3946	112.793	83.3966	112.793	83.4057	112.793	83.4061	112.793	83.4098
117.188	84.2379	117.188	84.1988	117.188	84.24	117.188	84.123	117.188	84.206	117.188	84.0128	117.188	84.1386	117.188	83.8726	117.188	84.0421	117.188	83.7089	117.188	83.9219	117.188	83.5305	117.188	83.7849	117.188	83.3482	117.188	83.6393	117.188	83.174	117.188	83.494	117.188	83.0201	117.188	83.3579	117.188	82.8972	117.188	83.2389	117.188	82.8122	117.188	83.1427	117.188	82.7672	117.188	83.0717	117.188	82.7586	117.188	83.0248	117.188	82.7785	117.188	82.9973	117.188	82.816	117.188	82.9821	117.188	82.8601	117.188	82.9712	117.188	82.9016	117.188	82.9571	117.188	82.9346
120.117	84.4506	120.117	84.4241	120.117	84.4374	120.117	84.3577	120.117	84.3864	120.117	84.253	120.117	84.3008	120.117	84.1137	120.117	84.1855	120.117	83.9456	120.117	84.0466	120.117	83.7568	120.117	83.8918	120.117	83.5578	120.117	83.7301	120.117	83.3605	120.117	83.5709	120.117	83.1776	120.117	83.4238	120.117	83.0215	120.117	83.2968	120.117	82.9016	120.117	83.195	120.117	82.8233	120.117	83.1201	120.117	82.7864	120.117	83.0695	120.117	82.7856	120.117	83.0371	120.117	82.8111	120.117	83.0152	120.117	82.8517	120.117	82.9953	120.117	82.8967	120.117	82.9708	120.117	82.9379
124.512	84.5414	124.512	84.5198	124.512	84.5257	124.512	84.4615	124.512	84.4739	124.512	84.3684	124.512	84.3884	124.512	84.2444	124.512	84.273	124.512	84.0951	124.512	84.1332	124.512	83.9284	124.512	83.9763	124.512	83.7536	124.512	83.811	124.512	83.5817	124.512	83.6477	124.512	83.4239	124.512	83.4967	124.512	83.2902	124.512	83.368	124.512	83.1884	124.512	83.2684	124.512	83.122	124.512	83.2009	124.512	83.0896	124.512	83.1639	124.512	83.0855	124.512	83.1512	124.512	83.1004	124.512	83.1537	124.512	83.1239	124.512	83.1616	124.512	83.1466	124.512	83.166	124.512	83.1616
128.906	84.3055	128.906	84.2711	128.906	84.2977	128.906	84.1953	128.906	84.2483	128.906	84.0808	128.906	84.1599	128.906	83.9324	128.906	84.0366	128.906	83.7568	128.906	83.8843	128.906	83.5631	128.906	83.7109	128.906	83.3624	128.906	83.5263	128.906	83.167	128.906	83.3419	128.906	82.9897	128.906	83.1701	128.906	82.8421	128.906	83.0218	128.906	82.7324	128.906	82.9056	128.906	82.6641	128.906	82.8252	128.906	82.6353	128.906	82.779	128.906	82.6386	128.906	82.7602	128.906	82.6632	128.906	82.7585	128.906	82.697	128.906	82.7626	128.906	82.7292	128.906	82.7626	128.906	82.7521
133.301	84.113	133.301	84.0888	133.301	84.0964	133.301	84.0243	133.301	84.0399	133.301	83.9214	133.301	83.9455	133.301	83.7835	133.301	83.8166	133.301	83.616	133.301	83.658	133.301	83.4262	133.301	83.4764	133.301	83.2236	133.301	83.2805	133.301	83.0195	133.301	83.0807	133.301	82.8262	133.301	82.8889	133.301	82.6556	133.301	82.7169	133.301	82.5174	133.301	82.5747	133.301	82.4172	133.301	82.4684	133.301	82.3553	133.301	82.3989	133.301	82.3264	133.301	82.3616	133.301	82.3214	133.301	82.348	133.301	82.3295	133.301	82.3473	133.301	82.3408	133.301	82.3497	133.301	82.3483
139.16	83.65	139.16	83.6251	139.16	83.6345	139.16	83.5605	139.16	83.5797	139.16	83.4583	139.16	83.488	139.16	83.3225	139.16	83.3633	139.16	83.159	139.16	83.211	139.16	82.9758	139.16	83.0385	139.16	82.7829	139.16	82.8544	139.16	82.5916	139.16	82.6693	139.16	82.4141	139.16	82.4943	139.16	82.2613	139.16	82.3398	139.16	82.1416	139.16	82.2144	139.16	82.0591	139.16	82.1229	139.16	82.0125	139.16	82.0651	139.16	81.9958	139.16	82.0363	139.16	81.9995	139.16	82.0283	139.16	82.013	139.16	82.0312	139.16	82.027	139.16	82.0357	139.16	82.0352
143.555	83.5602	143.555	83.522	143.555	83.5542	143.555	83.4404	143.555	83.505	143.555	83.3185	143.555	83.4154	143.555	83.1616	143.555	83.29	143.555	82.977	143.555	83.1356	143.555	82.7748	143.555	82.9606	143.555	82.5669	143.555	82.7754	143.555	82.3667	143.555	82.5916	143.555	82.1878	143.555	82.4211	143.555	82.042	143.555	82.2744	143.555	81.9376	143.555	82.1593	143.555	81.8772	143.555	82.0792	143.555	81.8573	143.555	82.0321	143.555	81.869	143.555	82.0116	143.555	81.9004	143.555	82.0079	143.555	81.9388	143.555	82.0103	143.555	81.9736	143.555	82.0092	143.555	81.9978
147.949	83.7039	147.949	83.6743	147.949	83.6849	147.949	83.5965	147.949	83.6186	147.949	83.4733	147.949	83.5082	147.949	83.3095	147.949	83.3588	147.949	83.1126	147.949	83.1777	147.949	82.8931	147.949	82.9748	147.949	82.6641	147.949	82.7623	147.949	82.4411	147.949	82.5548	147.949	82.2405	147.949	82.3677	147.949	82.0775	147.949	82.2147	147.949	81.963	147.949	82.1057	147.949	81.9014	147.949	82.0435	147.949	81.8889	147.949	82.0233	147.949	81.9148	147.949	82.034	147.949	81.9637	147.949	82.0604	147.949	82.019	147.949	82.087	147.949	82.066	147.949	82.1012	147.949	82.0949
153.809	83.5113	153.809	83.4764	153.809	83.5003	153.809	83.3958	153.809	83.4443	153.809	83.2712	153.809	83.3456	153.809	83.1064	153.809	83.2076	153.809	82.9073	153.809	83.0354	153.809	82.6827	153.809	82.8361	153.809	82.4442	153.809	82.6192	153.809	82.2068	153.809	82.397	153.809	81.9868	153.809	82.1838	153.809	81.8008	153.809	81.9945	153.809	81.6618	153.809	81.8422	153.809	81.5767	153.809	81.7353	153.809	81.5434	153.809	81.6748	153.809	81.5521	153.809	81.6541	153.809	81.5868	153.809	81.6601	153.809	81.6302	153.809	81.677	153.809	81.6673	153.809	81.6899	153.809	81.6881
159.668	83.0151	159.668	82.9918	159.668	82.9954	159.668	82.9259	159.668	82.9342	159.668	82.8196	159.668	82.8346	159.668	82.6775	159.668	82.7015	159.668	82.5062	159.668	82.5414	159.668	82.315	159.668	82.3627	159.668	82.1155	159.668	82.1758	159.668	81.9207	159.668	81.9921	159.668	81.7441	159.668	81.8234	159.668	81.598	159.668	81.6807	159.668	81.4911	159.668	81.5718	159.668	81.4266	159.668	81.5005	159.668	81.4017	159.668	81.4648	159.668	81.4078	159.668	81.4579	159.668	81.433	159.668	81.4695	159.668	81.4641	159.668	81.4875	159.668	81.4899	159.668	81.5013	159.668	81.5031
165.527	82.9025	165.527	82.8609	165.527	82.8813	165.527	82.757	165.527	82.799	165.527	82.5937	165.527	82.6598	165.527	82.3769	165.527	82.4706	165.527	82.1162	165.527	82.242	165.527	81.8258	165.527	81.9885	165.527	81.5253	165.527	81.7291	165.527	81.2389	165.527	81.4859	165.527	80.9932	165.527	81.2815	165.527	80.8127	165.527	81.1344	165.527	80.7132	165.527	81.0543	165.527	80.6975	165.527	81.039	165.527	80.7536	165.527	81.0745	165.527	80.8588	165.527	81.1396	165.527	80.9859	165.527	81.2103	165.527	81.1093	165.527	81.2652	165.527	81.2084	165.527	81.2882	165.527	81.2699
171.387	83.5383	171.387	83.5136	171.387	83.513	171.387	83.4387	171.387	83.4379	171.387	83.3137	171.387	83.3133	171.387	83.1399	171.387	83.1401	171.387	82.9199	171.387	82.9202	171.387	82.6593	171.387	82.6584	171.387	82.3677	171.387	82.3635	171.387	82.0597	171.387	82.0499	171.387	81.7549	171.387	81.7383	171.387	81.477	171.387	81.4542	171.387	81.2491	171.387	81.2236	171.387	81.089	171.387	81.0655	171.387	81.0027	171.387	80.9858	171.387	80.9819	171.387	80.9738	171.387	81.0066	171.387	81.0062	171.387	81.051	171.387	81.0546	171.387	81.0905	171.387	81.0937	171.387	81.1072
177.246	83.7621	177.246	83.7056	177.246	83.7651	177.246	83.5966	177.246	83.7148	177.246	83.4376	177.246	83.6125	177.246	83.2328	177.246	83.461	177.246	82.9885	177.246	83.2645	177.246	82.7141	177.246	83.0298	177.246	82.4218	177.246	82.7665	177.246	82.1277	177.246	82.4878	177.246	81.8505	177.246	82.2105	177.246	81.6101	177.246	81.9537	177.246	81.4243	177.246	81.7362	177.246	81.3039	177.246	81.5724	177.246	81.2498	177.246	81.4682	177.246	81.2515	177.246	81.4186	177.246	81.2902	177.246	81.4089	177.246	81.3435	177.246	81.4186	177.246	81.3913	177.246	81.4275	177.246	81.4206
183.105	84.2487	183.105	84.2062	183.105	84.239	183.105	84.1119	183.105	84.1777	183.105	83.9674	183.105	84.0667	183.105	83.7761	183.105	83.9092	183.105	83.5437	183.105	83.7104	183.105	83.2794	183.105	83.4784	183.105	82.9961	183.105	83.2247	183.105	82.7115	183.105	82.9647	183.105	82.4464	183.105	82.7166	183.105	82.2226	183.105	82.4994	183.105	82.0581	183.105	82.3289	183.105	81.9623	183.105	82.2141	183.105	81.9329	183.105	82.1543	183.105	81.9567	183.105	82.139	183.105	82.013	183.105	82.1512	183.105	82.0793	183.105	82.1716	183.105	82.1367	183.105	82.1827	183.105	82.1725
188.965	84.6159	188.965	84.5547	188.965	84.6158	188.965	84.4338	188.965	84.5539	188.965	84.2558	188.965	84.4309	188.965	84.0252	188.965	84.2489	188.965	83.749	188.965	84.0125	188.965	83.4382	188.965	83.7304	188.965	83.1084	188.965	83.4161	188.965	82.7808	188.965	83.0896	188.965	82.4814	188.965	82.7768	188.965	82.2372	188.965	82.5066	188.965	82.0707	188.965	82.3048	188.965	81.9923	188.965	82.1867	188.965	81.9962	188.965	82.1508	188.965	82.0617	188.965	82.1793	188.965	82.1592	188.965	82.2436	188.965	82.2583	188.965	82.3127	188.965	82.3337	188.965	82.3603	188.965	82.3694
196.289	84.9502	196.289	84.8911	196.289	84.9458	196.289	84.7689	196.289	84.8781	196.289	84.5847	196.289	84.7483	196.289	84.341	196.289	84.5587	196.289	84.0422	196.289	84.3136	196.289	83.6963	196.289	84.0207	196.289	83.3159	196.289	83.6921	196.289	82.921	196.289	83.3458	196.289	82.5395	196.289	83.0056	196.289	82.2062	196.289	82.6997	196.289	81.9559	196.289	82.4548	196.289	81.8129	196.289	82.2896	196.289	81.7808	196.289	82.2073	196.289	81.8396	196.289	82.1938	196.289	81.9528	196.289	82.2219	196.289	82.0801	196.289	82.2594	196.289	82.1882	196.289	82.2774	196.289	82.2562
203.613	84.8837	203.613	84.8457	203.613	84.857	203.613	84.7419	203.613	84.7678	203.613	84.5722	203.613	84.6186	203.613	84.338	203.613	84.4131	203.613	84.0428	203.613	84.1561	203.613	83.693	203.613	83.8545	203.613	83.2989	203.613	83.5184	203.613	82.8765	203.613	83.1624	203.613	82.4493	203.613	82.8063	203.613	82.0489	203.613	82.4744	203.613	81.7121	203.613	82.1924	203.613	81.4728	203.613	81.9809	203.613	81.3498	203.613	81.8482	203.613	81.3376	203.613	81.7857	203.613	81.4074	203.613	81.7702	203.613	81.5176	203.613	81.7708	203.613	81.6287	203.613	81.7583	203.613	81.7127
210.938	84.9202	210.938	84.8871	210.938	84.8965	210.938	84.7988	210.938	84.8149	210.938	84.6573	210.938	84.6743	210.938	84.4649	210.938	84.4744	210.938	84.2248	210.938	84.2158	210.938	83.9415	210.938	83.9017	210.938	83.6223	210.938	83.5395	210.938	83.2781	210.938	83.143	210.938	82.9248	210.938	82.7343	210.938	82.5829	210.938	82.3441	210.938	82.2765	210.938	82.0075	210.938	82.0283	210.938	81.7564	210.938	81.8538	210.938	81.6074	210.938	81.7547	210.938	81.555	210.938	81.7172	210.938	81.5734	210.938	81.7161	210.938	81.6264	210.938	81.7229	210.938	81.6806	210.938	81.7145
218.262	84.9051	218.262	84.8641	218.262	84.8908	218.262	84.7702	218.262	84.8194	218.262	84.626	218.262	84.6894	218.262	84.4352	218.262	84.5003	218.262	84.2028	218.262	84.2532	218.262	83.936	218.262	83.9526	218.262	83.6447	218.262	83.6077	218.262	83.3419	218.262	83.2344	218.262	83.0441	218.262	82.8558	218.262	82.7698	218.262	82.502	218.262	82.5373	218.262	82.2057	218.262	82.361	218.262	81.9944	218.262	82.2467	218.262	81.8814	218.262	82.1887	218.262	81.8601	218.262	82.1704	218.262	81.906	218.262	82.1687	218.262	81.9855	218.262	82.1602	218.262	82.067	218.262	82.128
225.586	84.3259	225.586	84.2185	225.586	84.3697	225.586	84.0494	225.586	84.3493	225.586	83.8229	225.586	84.2654	225.586	83.5469	225.586	84.1197	225.586	83.2333	225.586	83.9146	225.586	82.8996	225.586	83.6548	225.586	82.5689	225.586	83.3486	225.586	82.2693	225.586	83.0098	225.586	82.03	225.586	82.6594	225.586	81.875	225.586	82.3265	225.586	81.8143	225.586	82.0453	225.586	81.8399	225.586	81.8477	225.586	81.9267	225.586	81.753	225.586	82.0403	225.586	81.7593	225.586	82.146	225.586	81.8432	225.586	82.2156	225.586	81.9676	225.586	82.2315	225.586	82.0934	225.586	82.1883
232.91	84.459	232.91	84.3579	232.91	84.4784	232.91	84.1722	232.91	84.4191	232.91	83.8995	232.91	84.2834	232.91	83.5383	232.91	84.0741	232.91	83.0896	232.91	83.7947	232.91	82.5587	232.91	83.4511	232.91	81.9587	232.91	83.0536	232.91	81.3167	232.91	82.6181	232.91	80.6807	232.91	82.1685	232.91	80.1225	232.91	81.7362	232.91	79.7267	232.91	81.3579	232.91	79.5569	232.91	81.068	232.91	79.6173	232.91	80.8875	232.91	79.8465	232.91	80.8132	232.91	80.1507	232.91	80.8158	232.91	80.4448	232.91	80.8486	232.91	80.6729	232.91	80.8608	232.91	80.8106
241.699	84.3983	241.699	84.3372	241.699	84.3897	241.699	84.2057	241.699	84.3126	241.699	84.0038	241.699	84.1684	241.699	83.7328	241.699	83.9586	241.699	83.3968	241.699	83.6858	241.699	83.0033	241.699	83.354	241.699	82.565	241.699	82.9704	241.699	82.1009	241.699	82.5477	241.699	81.6372	241.699	82.1061	241.699	81.2064	241.699	81.6748	241.699	80.8443	241.699	81.2896	241.699	80.5817	241.699	80.9861	241.699	80.4349	241.699	80.7868	241.699	80.3981	241.699	80.6905	241.699	80.4436	241.699	80.671	241.699	80.5308	241.699	80.6874	241.699	80.6194	241.699	80.6995	241.699	80.6796
250.488	84.898	250.488	84.8469	250.488	84.8773	250.488	84.7256	250.488	84.7834	250.488	84.5357	250.488	84.6155	250.488	84.2778	250.488	84.3737	250.488	83.9514	250.488	84.0598	250.488	83.5543	250.488	83.6781	250.488	83.0842	250.488	83.2374	250.488	82.5407	250.488	82.7516	250.488	81.9321	250.488	82.2419	250.488	81.2829	250.488	81.736	250.488	80.6418	250.488	81.2653	250.488	80.0807	250.488	80.8595	250.488	79.6752	250.488	80.5379	250.488	79.4675	250.488	80.3035	250.488	79.4407	250.488	80.1416	250.488	79.5317	250.488	80.0244	250.488	79.6694	250.488	79.9206	250.488	79.8051
259.277	84.967	259.277	84.9412	259.277	84.9321	259.277	84.8551	259.277	84.8355	259.277	84.7078	259.277	84.6754	259.277	84.4968	259.277	84.4504	259.277	84.2188	259.277	84.1594	259.277	83.8711	259.277	83.8019	259.277	83.4533	259.277	83.3789	259.277	82.9697	259.277	82.8938	259.277	82.4319	259.277	82.3553	259.277	81.8601	259.277	81.7817	259.277	81.2852	259.277	81.2038	259.277	80.7476	259.277	80.6657	259.277	80.2917	259.277	80.2164	259.277	79.9521	259.277	79.8927	259.277	79.7393	259.277	79.7008	259.277	79.633	259.277	79.6134	259.277	79.5939	259.277	79.5868	259.277	79.5842
268.066	84.8542	268.066	84.8617	268.066	84.8073	268.066	84.8283	268.066	84.724	268.066	84.7535	268.066	84.6071	268.066	84.6373	268.066	84.4581	268.066	84.4794	268.066	84.2757	268.066	84.2785	268.066	84.0555	268.066	84.0322	268.066	83.7923	268.066	83.7396	268.066	83.4829	268.066	83.4034	268.066	83.1307	268.066	83.0335	268.066	82.7493	268.066	82.6498	268.066	82.3637	268.066	82.2805	268.066	82.0066	268.066	81.957	268.066	81.7104	268.066	81.703	268.066	81.4961	268.066	81.5261	268.066	81.3668	268.066	81.4156	268.066	81.3079	268.066	81.351	268.066	81.2968	268.066	81.3138
276.855	83.7994	276.855	83.7331	276.855	83.8002	276.855	83.6066	276.855	83.7348	276.855	83.4302	276.855	83.6061	276.855	83.219	276.855	83.4186	276.855	82.9897	276.855	83.1777	276.855	82.7565	276.855	82.888	276.855	82.5277	276.855	82.5532	276.855	82.3044	276.855	82.177	276.855	82.0827	276.855	81.7673	276.855	81.8605	276.855	81.3423	276.855	81.6425	276.855	80.9347	276.855	81.4412	276.855	80.5914	276.855	81.2719	276.855	80.3595	276.855	81.1424	276.855	80.2655	276.855	81.0455	276.855	80.2998	276.855	80.9603	276.855	80.4221	276.855	80.8623	276.855	80.5812	276.855	80.7355
287.109	84.1803	287.109	83.9976	287.109	84.2836	287.109	83.7369	287.109	84.3101	287.109	83.4034	287.109	84.2661	287.109	83.0073	287.109	84.1603	287.109	82.5659	287.109	84.0018	287.109	82.1065	287.109	83.7974	287.109	81.6638	287.109	83.5483	287.109	81.2692	287.109	83.2487	287.109	80.9345	287.109	82.8866	287.109	80.6424	287.109	82.4484	287.109	80.3582	287.109	81.9267	287.109	80.0524	287.109	81.3298	287.109	79.7203	287.109	80.6896	287.109	79.3856	287.109	80.0624	287.109	79.0887	287.109	79.5159	287.109	78.8671	287.109	79.1038	287.109	78.7441	287.109	78.8461	287.109	78.7325
297.363	83.6302	297.363	83.6293	297.363	83.5744	297.363	83.5618	297.363	83.4766	297.363	83.4209	297.363	83.3566	297.363	83.2009	297.363	83.2367	297.363	82.8964	297.363	83.1381	297.363	82.5059	297.363	83.0748	297.363	82.0389	297.363	83.0482	297.363	81.5247	297.363	83.0444	297.363	81.016	297.363	83.0358	297.363	80.5806	297.363	82.9886	297.363	80.2773	297.363	82.871	297.363	80.1293	297.363	82.6625	297.363	80.1165	297.363	82.3621	297.363	80.1929	297.363	81.9933	297.363	80.3119	297.363	81.602	297.363	80.4432	297.363	81.2425	297.363	80.5803	297.363	80.9534	297.363	80.7403
307.617	83.6973	307.617	83.6931	307.617	83.5786	307.617	83.5774	307.617	83.3387	307.617	83.3719	307.617	82.9992	307.617	83.1087	307.617	82.6133	307.617	82.8292	307.617	82.2725	307.617	82.5773	307.617	82.0905	307.617	82.3873	307.617	82.1509	307.617	82.2717	307.617	82.4506	307.617	82.2187	307.617	82.9008	307.617	82.2017	307.617	83.3827	307.617	82.1939	307.617	83.797	307.617	82.1802	307.617	84.0809	307.617	82.1629	307.617	84.204	307.617	82.1624	307.617	84.1611	307.617	82.211	307.617	83.9675	307.617	82.3423	307.617	83.6572	307.617	82.5752	307.617	83.2812	307.617	82.9011
319.336	85.3376	319.336	85.2189	319.336	85.294	319.336	84.9382	319.336	85.0808	319.336	84.4904	319.336	84.6826	319.336	83.8686	319.336	84.0758	319.336	83.0698	319.336	83.2343	319.336	82.1096	319.336	82.148	319.336	81.0543	319.336	80.8712	319.336	80.0709	319.336	79.6289	319.336	79.4436	319.336	78.9024	319.336	79.4223	319.336	79.1104	319.336	79.9714	319.336	80.0506	319.336	80.8133	319.336	81.1947	319.336	81.689	319.336	82.2141	319.336	82.462	319.336	83.0021	319.336	83.0841	319.336	83.5518	319.336	83.5484	319.336	83.8876	319.336	83.8603	319.336	84.0378	319.336	84.0244
329.59	85.6303	329.59	85.577	329.59	85.5828	329.59	85.4241	329.59	85.4267	329.59	85.1653	329.59	85.1481	329.59	84.7878	329.59	84.7277	329.59	84.2734	329.59	84.1439	329.59	83.6037	329.59	83.3763	329.59	82.7694	329.59	82.4177	329.59	81.789	329.59	81.2996	329.59	80.7388	329.59	80.1461	329.59	79.7888	329.59	79.2335	329.59	79.1901	329.59	78.9111	329.59	79.1293	329.59	79.2739	329.59	79.5537	329.59	80.04	329.59	80.2298	329.59	80.8635	329.59	80.9357	329.59	81.5434	329.59	81.5385	329.59	82.002	329.59	81.9731	329.59	82.2214	329.59	82.2072
341.309	84.9884	341.309	84.9345	341.309	84.9649	341.309	84.7963	341.309	84.8641	341.309	84.5622	341.309	84.6795	341.309	84.2186	341.309	84.3991	341.309	83.7532	341.309	84.0093	341.309	83.1612	341.309	83.5026	341.309	82.4531	341.309	82.8889	341.309	81.6648	341.309	82.2091	341.309	80.8694	341.309	81.5465	341.309	80.1802	341.309	81.0176	341.309	79.7275	341.309	80.7259	341.309	79.5976	341.309	80.6996	341.309	79.7756	341.309	80.8754	341.309	80.1584	341.309	81.1459	341.309	80.6189	341.309	81.4119	341.309	81.0542	341.309	81.6035	341.309	81.397	341.309	81.6769	341.309	81.6096
353.027	85.0557	353.027	85.0476	353.027	84.9731	353.027	84.9486	353.027	84.7902	353.027	84.7504	353.027	84.4884	353.027	84.437	353.027	84.0411	353.027	83.9871	353.027	83.4162	353.027	83.3768	353.027	82.5835	353.027	82.5841	353.027	81.5291	353.027	81.5998	353.027	80.2926	353.027	80.4558	353.027	79.0477	353.027	79.2872	353.027	78.1886	353.027	78.404	353.027	78.1474	353.027	78.1888	353.027	78.881	353.027	78.7065	353.027	79.9235	353.027	79.6169	353.027	80.896	353.027	80.5595	353.027	81.6363	353.027	81.3459	353.027	82.1022	353.027	81.9085	353.027	82.2955	353.027	82.2277
366.211	84.5924	366.211	84.5116	366.211	84.6153	366.211	84.3842	366.211	84.5632	366.211	84.2139	366.211	84.4137	366.211	83.9947	366.211	84.1403	366.211	83.7106	366.211	83.7132	366.211	83.3379	366.211	83.101	366.211	82.8542	366.211	82.2745	366.211	82.2518	366.211	81.2191	366.211	81.5528	366.211	79.9652	366.211	80.8212	366.211	78.6535	366.211	80.161	366.211	77.6051	366.211	79.6881	366.211	77.2107	366.211	79.4745	366.211	77.5342	366.211	79.5047	366.211	78.2367	366.211	79.6875	366.211	78.9665	366.211	79.9067	366.211	79.5452	366.211	80.0616	366.211	79.9167	366.211	80.0804
379.395	84.0983	379.395	84.0183	379.395	84.1339	379.395	83.8967	379.395	84.1148	379.395	83.7285	379.395	84.0242	379.395	83.502	379.395	83.8393	379.395	83.199	379.395	83.532	379.395	82.7965	379.395	83.0707	379.395	82.2703	379.395	82.4219	379.395	81.5995	379.395	81.5561	379.395	80.7774	379.395	80.4605	379.395	79.8299	379.395	79.1711	379.395	78.8469	379.395	77.8403	379.395	78.0109	379.395	76.8121	379.395	77.5544	379.395	76.4899	379.395	77.5867	379.395	76.8989	379.395	77.9717	379.395	77.6413	379.395	78.4518	379.395	78.3348	379.395	78.8175	379.395	78.7902	379.395	78.9487
392.578	84.4282	392.578	84.2886	392.578	84.5089	392.578	84.0975	392.578	84.515	392.578	83.8547	392.578	84.4242	392.578	83.5539	392.578	84.2099	392.578	83.1833	392.578	83.8445	392.578	82.7266	392.578	83.3028	392.578	82.1661	392.578	82.5649	392.578	81.4916	392.578	81.6209	392.578	80.717	392.578	80.4851	392.578	79.9046	392.578	79.2267	392.578	79.18	392.578	78.0228	392.578	78.6999	392.578	77.1775	392.578	78.5529	392.578	76.9559	392.578	78.6841	392.578	77.3074	392.578	78.9435	392.578	77.9262	392.578	79.1839	392.578	78.5363	392.578	79.3057	392.578	78.9947	392.578	79.2516
405.762	84.1278	405.762	83.9113	405.762	84.2957	405.762	83.6571	405.762	84.4022	405.762	83.3732	405.762	84.4324	405.762	83.0623	405.762	84.3686	405.762	82.72	405.762	84.1898	405.762	82.335	405.762	83.873	405.762	81.8926	405.762	83.3968	405.762	81.3818	405.762	82.7508	405.762	80.8049	405.762	81.9499	405.762	80.1937	405.762	81.0591	405.762	79.6258	405.762	80.2177	405.762	79.2232	405.762	79.625	405.762	79.103	405.762	79.4324	405.762	79.2898	405.762	79.6137	405.762	79.6829	405.762	79.9886	405.762	80.1228	405.762	80.3617	405.762	80.4709	405.762	80.6009	405.762	80.6416
420.41	84.3334	420.41	84.2716	420.41	84.3395	420.41	84.1494	420.41	84.289	420.41	83.9573	420.41	84.173	420.41	83.6802	420.41	83.9741	420.41	83.2968	420.41	83.6657	420.41	82.7818	420.41	83.2149	420.41	82.1147	420.41	82.5867	420.41	81.2972	420.41	81.7531	420.41	80.3779	420.41	80.7111	420.41	79.4751	420.41	79.5201	420.41	78.7681	420.41	78.3621	420.41	78.4182	420.41	77.5646	420.41	78.4541	420.41	77.4089	420.41	78.755	420.41	77.8245	420.41	79.1488	420.41	78.478	420.41	79.4953	420.41	79.0874	420.41	79.7038	420.41	79.5158	420.41	79.7202
435.059	83.8664	435.059	83.7591	435.059	83.928	435.059	83.6072	435.059	83.9386	435.059	83.4045	435.059	83.8887	435.059	83.134	435.059	83.7633	435.059	82.7655	435.059	83.5391	435.059	82.2592	435.059	83.1849	435.059	81.5775	435.059	82.6667	435.059	80.7041	435.059	81.9593	435.059	79.6743	435.059	81.0686	435.059	78.6176	435.059	80.0661	435.059	77.7901	435.059	79.1305	435.059	77.4851	435.059	78.5297	435.059	77.7753	435.059	78.4493	435.059	78.4284	435.059	78.8064	435.059	79.1458	435.059	79.3426	435.059	79.7374	435.059	79.834	435.059	80.1179	435.059	80.1573	435.059	80.2583
451.172	83.2654	451.172	83.2399	451.172	83.2422	451.172	83.1534	451.172	83.1823	451.172	82.9955	451.172	83.0884	451.172	82.7561	451.172	82.9451	451.172	82.4207	451.172	82.7147	451.172	81.9666	451.172	82.3413	451.172	81.361	451.172	81.7594	451.172	80.564	451.172	80.9027	451.172	79.5428	451.172	79.7119	451.172	78.3085	451.172	78.1608	451.172	76.9983	451.172	76.3632	451.172	75.9871	451.172	74.8655	451.172	75.7666	451.172	74.648	451.172	76.3799	451.172	75.7351	451.172	77.3438	451.172	77.1212	451.172	78.2206	451.172	78.2031	451.172	78.8069	451.172	78.836	451.172	79.0257
465.82	84.4544	465.82	84.3629	465.82	84.4898	465.82	84.2127	465.82	84.4626	465.82	83.9906	465.82	84.358	465.82	83.6721	465.82	84.154	465.82	83.2241	465.82	83.8227	465.82	82.6111	465.82	83.3331	465.82	81.7993	465.82	82.6531	465.82	80.7597	465.82	81.7491	465.82	79.4752	465.82	80.5871	465.82	77.9813	465.82	79.1489	465.82	76.4879	465.82	77.5004	465.82	75.5187	465.82	75.9694	465.82	75.5687	465.82	75.2522	465.82	76.3883	465.82	75.7094	465.82	77.3593	465.82	76.7564	465.82	78.1263	465.82	77.7388	465.82	78.5733	465.82	78.3932	465.82	78.6683
483.398	84.3984	483.398	84.2937	483.398	84.4767	483.398	84.1595	483.398	84.5198	483.398	83.9839	483.398	84.505	483.398	83.7475	483.398	84.3996	483.398	83.4222	483.398	84.1691	483.398	82.9714	483.398	83.7837	483.398	82.3549	483.398	83.2197	483.398	81.5405	483.398	82.4602	483.398	80.5177	483.398	81.5046	483.398	79.3146	483.398	80.3918	483.398	78.0244	483.398	79.2286	483.398	76.8517	483.398	78.1957	483.398	76.1138	483.398	77.489	483.398	76.0321	483.398	77.2023	483.398	76.4645	483.398	77.2636	483.398	77.0498	483.398	77.4922	483.398	77.5105	483.398	77.6953	483.398	77.7272
499.512	83.8814	499.512	83.959	499.512	83.8249	499.512	84.0359	499.512	83.7952	499.512	84.0755	499.512	83.7777	499.512	84.0288	499.512	83.7349	499.512	83.8384	499.512	83.6104	499.512	83.4455	499.512	83.3384	499.512	82.7987	499.512	82.855	499.512	81.8607	499.512	82.1087	499.512	80.6223	499.512	81.0756	499.512	79.1402	499.512	79.796	499.512	77.6291	499.512	78.4549	499.512	76.5522	499.512	77.4604	499.512	76.3604	499.512	77.2324	499.512	76.9302	499.512	77.6983	499.512	77.7596	499.512	78.3952	499.512	78.5031	499.512	78.9683	499.512	79.0278	499.512	79.2763	499.512	79.2924
517.09	82.347	517.09	82.402	517.09	82.4153	517.09	82.5965	517.09	82.5729	517.09	82.91	517.09	82.7755	517.09	83.2707	517.09	82.966	517.09	83.5654	517.09	83.0724	517.09	83.665	517.09	83.0105	517.09	83.4495	517.09	82.6884	517.09	82.8195	517.09	82.0124	517.09	81.7017	517.09	80.8969	517.09	80.0565	517.09	79.2989	517.09	77.9291	517.09	77.3575	517.09	75.6697	517.09	75.7717	517.09	74.3453	517.09	75.6722	517.09	74.8423	517.09	76.8191	517.09	76.2679	517.09	78.0667	517.09	77.6201	517.09	78.9032	517.09	78.592	517.09	79.2513	517.09	79.1388
536.133	81.548	536.133	81.4096	536.133	81.6258	536.133	81.2586	536.133	81.6733	536.133	81.2132	536.133	81.7709	536.133	81.3892	536.133	81.9887	536.133	81.7832	536.133	82.3167	536.133	82.2434	536.133	82.6467	536.133	82.5678	536.133	82.821	536.133	82.5929	536.133	82.6862	536.133	82.2086	536.133	82.1087	536.133	81.3483	536.133	80.9657	536.133	80.0191	536.133	79.1588	536.133	78.4578	536.133	76.8219	536.133	77.4125	536.133	75.1922	536.133	77.6923	536.133	76.1091	536.133	78.8728	536.133	78.1835	536.133	80.0568	536.133	79.8344	536.133	80.8363	536.133	80.7874	536.133	81.0979
555.176	83.1714	555.176	83.0053	555.176	83.2267	555.176	82.7425	555.176	83.1895	555.176	82.4313	555.176	83.1012	555.176	82.1395	555.176	83.009	555.176	81.9177	555.176	82.9378	555.176	81.7593	555.176	82.8656	555.176	81.5916	555.176	82.7192	555.176	81.3053	555.176	82.3895	555.176	80.7894	555.176	81.7504	555.176	79.9557	555.176	80.6677	555.176	78.7775	555.176	79.0147	555.176	77.4041	555.176	76.7869	555.176	76.3694	555.176	74.6788	555.176	76.382	555.176	74.5984	555.176	77.3183	555.176	76.3565	555.176	78.4114	555.176	78.0546	555.176	79.1755	555.176	79.0816	555.176	79.4288
574.219	83.8712	574.219	83.6609	574.219	83.8413	574.219	83.2372	574.219	83.594	574.219	82.6756	574.219	83.2066	574.219	82.0879	574.219	82.8036	574.219	81.5675	574.219	82.5042	574.219	81.1197	574.219	82.3325	574.219	80.6663	574.219	82.1828	574.219	80.1206	574.219	81.883	574.219	79.4271	574.219	81.2751	574.219	78.5393	574.219	80.2481	574.219	77.421	574.219	78.7539	574.219	76.1838	574.219	76.8864	574.219	75.3617	574.219	75.1715	574.219	75.6528	574.219	74.7246	574.219	76.7909	574.219	75.7714	574.219	77.9327	574.219	77.1924	574.219	78.624	574.219	78.2488	574.219	78.7365
594.727	85.0613	594.727	84.9477	594.727	84.9824	594.727	84.6292	594.727	84.7285	594.727	84.1075	594.727	84.3261	594.727	83.4181	594.727	83.8188	594.727	82.6409	594.727	83.2597	594.727	81.8664	594.727	82.6818	594.727	81.1198	594.727	82.0613	594.727	80.308	594.727	81.3076	594.727	79.2483	594.727	80.2876	594.727	77.7351	594.727	78.8558	594.727	75.5993	594.727	76.8746	594.727	72.9038	594.727	74.3074	594.727	70.8828	594.727	71.8453	594.727	71.7177	594.727	71.7335	594.727	73.922	594.727	73.7406	594.727	75.6996	594.727	75.6163	594.727	76.7501	594.727	76.7338	594.727	77.0948
615.234	84.5039	615.234	84.3944	615.234	84.4166	615.234	84.0923	615.234	84.1546	615.234	83.633	615.234	83.7681	615.234	83.0895	615.234	83.3295	615.234	82.5563	615.234	82.9091	615.234	82.0938	615.234	82.5332	615.234	81.6748	615.234	82.1548	615.234	81.1906	615.234	81.658	615.234	80.4918	615.234	80.8894	615.234	79.4181	615.234	79.6817	615.234	77.8192	615.234	77.8629	615.234	75.606	615.234	75.3058	615.234	73.0109	615.234	72.3595	615.234	71.4168	615.234	71.1957	615.234	72.3061	615.234	72.8593	615.234	74.1285	615.234	74.7559	615.234	75.4871	615.234	75.849	615.234	76.0779
637.207	83.9249	637.207	83.7818	637.207	83.9079	637.207	83.4838	637.207	83.7642	637.207	83.0727	637.207	83.5596	637.207	82.6168	637.207	83.3682	637.207	82.1914	637.207	83.2308	637.207	81.8401	637.207	83.1193	637.207	81.5314	637.207	82.9382	637.207	81.1438	637.207	82.5618	637.207	80.5054	637.207	81.8712	637.207	79.4601	637.207	80.762	637.207	77.9286	637.207	79.1205	637.207	75.9953	637.207	76.8021	637.207	74.127	637.207	73.7555	637.207	73.2768	637.207	71.0054	637.207	73.7624	637.207	71.3276	637.207	74.7056	637.207	73.3605	637.207	75.3727	637.207	74.8398	637.207	75.4697
659.18	83.7819	659.18	83.7427	659.18	83.6294	659.18	83.5253	659.18	83.3197	659.18	83.1719	659.18	82.9454	659.18	82.7332	659.18	82.6411	659.18	82.2514	659.18	82.5153	659.18	81.756	659.18	82.5621	659.18	81.266	659.18	82.6473	659.18	80.7667	659.18	82.5803	659.18	80.1597	659.18	82.1844	659.18	79.2512	659.18	81.3167	659.18	77.8061	659.18	79.8537	659.18	75.6472	659.18	77.6654	659.18	73.0365	659.18	74.6833	659.18	71.7858	659.18	71.7159	659.18	73.1543	659.18	71.7521	659.18	74.9836	659.18	73.968	659.18	76.1051	659.18	75.6541	659.18	76.3474
682.617	83.9459	682.617	83.8603	682.617	83.6701	682.617	83.4023	682.617	83.0765	682.617	82.6121	682.617	82.2725	682.617	81.6555	682.617	81.4946	682.617	80.89	682.617	81.1012	682.617	80.6533	682.617	81.2923	682.617	80.8301	682.617	81.8349	682.617	80.9793	682.617	82.3009	682.617	80.7711	682.617	82.379	682.617	80.0757	682.617	81.9025	682.617	78.8615	682.617	80.7727	682.617	77.1516	682.617	78.9251	682.617	75.2918	682.617	76.4864	682.617	74.5679	682.617	74.5474	682.617	75.7421	682.617	75.0091	682.617	77.3765	682.617	76.7876	682.617	78.4445	682.617	78.1592	682.617	78.7177
707.52	85.6952	707.52	85.595	707.52	85.455	707.52	85.1673	707.52	84.8818	707.52	84.4351	707.52	84.02	707.52	83.4373	707.52	82.9608	707.52	82.2567	707.52	81.8517	707.52	81.0612	707.52	80.917	707.52	80.0838	707.52	80.3905	707.52	79.4333	707.52	80.2583	707.52	78.8963	707.52	80.1824	707.52	78.0559	707.52	79.7638	707.52	76.5385	707.52	78.6781	707.52	74.0943	707.52	76.5842	707.52	70.6698	707.52	72.9951	707.52	67.7062	707.52	68.233	707.52	69.0534	707.52	69.2631	707.52	71.9958	707.52	72.8128	707.52	74.0215	707.52	74.5962	707.52	74.9099
732.422	83.8652	732.422	83.7979	732.422	83.7499	732.422	83.5387	732.422	83.4647	732.422	83.0888	732.422	83.0203	732.422	82.4587	732.422	82.4303	732.422	81.6686	732.422	81.7281	732.422	80.7842	732.422	80.9873	732.422	79.979	732.422	80.3274	732.422	79.4702	732.422	79.8512	732.422	79.2178	732.422	79.5228	732.422	78.8214	732.422	79.1452	732.422	77.8674	732.422	78.4936	732.422	76.2898	732.422	77.4468	732.422	74.6666	732.422	76.0671	732.422	74.0232	732.422	74.6987	732.422	74.3915	732.422	73.9514	732.422	74.943	732.422	74.1049	732.422	75.2258	732.422	74.6828	732.422	75.1313
757.324	84.345	757.324	84.4462	757.324	84.1598	757.324	84.4307	757.324	83.8639	757.324	84.196	757.324	83.4274	757.324	83.6282	757.324	82.8682	757.324	82.7033	757.324	82.2643	757.324	81.5844	757.324	81.7135	757.324	80.6026	757.324	81.2409	757.324	79.9881	757.324	80.7276	757.324	79.54	757.324	79.9784	757.324	78.7004	757.324	78.8519	757.324	76.9022	757.324	77.2894	757.324	73.709	757.324	75.2687	757.324	69.0769	757.324	72.9057	757.324	67.3702	757.324	71.1949	757.324	70.8957	757.324	71.8611	757.324	73.6864	757.324	73.7624	757.324	75.2029	757.324	75.1747	757.324	75.6714
785.156	83.1769	785.156	83.2429	785.156	82.9854	785.156	83.1283	785.156	82.6756	785.156	82.7567	785.156	82.2548	785.156	82.1288	785.156	81.7837	785.156	81.4208	785.156	81.3619	785.156	80.9532	785.156	81.0556	785.156	80.9065	785.156	80.8397	785.156	81.0513	785.156	80.6061	785.156	80.9358	785.156	80.2064	785.156	80.2336	785.156	79.4769	785.156	78.8197	785.156	78.2379	785.156	76.6573	785.156	76.3152	785.156	73.8593	785.156	73.671	785.156	71.7767	785.156	71.0546	785.156	72.552	785.156	70.76	785.156	74.2387	785.156	72.5479	785.156	75.1448	785.156	74.2121	785.156	75.1091
811.523	84.5576	811.523	84.4838	811.523	84.3483	811.523	84.1529	811.523	83.8352	811.523	83.6082	811.523	83.0474	811.523	82.9642	811.523	82.1113	811.523	82.3829	811.523	81.2657	811.523	81.9213	811.523	80.789	811.523	81.4867	811.523	80.7294	811.523	81.0181	811.523	80.782	811.523	80.4894	811.523	80.5935	811.523	79.6822	811.523	79.9377	811.523	78.1991	811.523	78.6136	811.523	75.465	811.523	76.3095	811.523	70.712	811.523	72.6146	811.523	68.1083	811.523	69.0336	811.523	72.3991	811.523	71.3114	811.523	75.1616	811.523	74.3917	811.523	76.376	811.523	76.0388	811.523	76.623
840.82	85.2168	840.82	85.2718	840.82	84.9526	840.82	85.1156	840.82	84.4663	840.82	84.7048	840.82	83.752	840.82	83.9748	840.82	82.8116	840.82	82.931	840.82	81.6878	840.82	81.7636	840.82	80.5849	840.82	80.8257	840.82	79.913	840.82	80.331	840.82	79.859	840.82	80.1398	840.82	80.0484	840.82	79.915	840.82	79.9572	840.82	79.2118	840.82	79.175	840.82	77.3903	840.82	77.3161	840.82	73.3264	840.82	73.7995	840.82	64.0136	840.82	67.7732	840.82	68.6845	840.82	67.6488	840.82	74.3492	840.82	72.9651	840.82	76.5301	840.82	75.7879	840.82	76.8899
870.117	85.8701	870.117	85.8408	870.117	85.5032	870.117	85.4232	870.117	84.7729	870.117	84.6247	870.117	83.7802	870.117	83.4629	870.117	82.6636	870.117	82.0759	870.117	81.5495	870.117	80.8651	870.117	80.6306	870.117	80.3272	870.117	80.2676	870.117	80.4493	870.117	80.5698	870.117	80.7302	870.117	81.0415	870.117	80.7799	870.117	81.118	870.117	80.3675	870.117	80.4831	870.117	79.2135	870.117	78.9494	870.117	76.9258	870.117	76.287	870.117	72.989	870.117	72.2045	870.117	68.5793	870.117	68.801	870.117	70.7243	870.117	71.3253	870.117	73.6706	870.117	73.9113	870.117	74.6778
900.879	87.6571	900.879	87.6199	900.879	87.3186	900.879	87.1459	900.879	86.6758	900.879	86.1905	900.879	85.7738	900.879	84.7563	900.879	84.5636	900.879	82.9585	900.879	82.9172	900.879	81.0517	900.879	80.8151	900.879	79.4607	900.879	78.7798	900.879	78.846	900.879	78.1391	900.879	79.1532	900.879	79.0101	900.879	79.4009	900.879	79.8755	900.879	79.0997	900.879	79.8598	900.879	78.0546	900.879	78.6507	900.879	75.755	900.879	75.9652	900.879	71.8449	900.879	71.5426	900.879	70.3731	900.879	69.4041	900.879	73.6787	900.879	73.1969	900.879	75.9761	900.879	75.8225	900.879	76.6688
933.105	86.4072	933.105	86.4781	933.105	86.1603	933.105	86.3404	933.105	85.7707	933.105	85.9228	933.105	85.2741	933.105	85.1147	933.105	84.6321	933.105	83.8407	933.105	83.6485	933.105	82.1327	933.105	82.0549	933.105	80.1774	933.105	79.815	933.105	78.4335	933.105	77.6259	933.105	77.4943	933.105	76.9211	933.105	77.3755	933.105	77.542	933.105	77.2414	933.105	77.8562	933.105	76.1007	933.105	76.8959	933.105	73.1341	933.105	74.0171	933.105	67.7722	933.105	67.7621	933.105	67.6699	933.105	62.1429	933.105	72.2	933.105	69.9919	933.105	74.3465	933.105	73.4289	933.105	74.6758
965.332	86.5235	965.332	86.3596	965.332	86.332	965.332	85.923	965.332	85.7851	965.332	85.297	965.332	85.0039	965.332	84.5378	965.332	84.1337	965.332	83.7024	965.332	83.1956	965.332	82.7785	965.332	82.1098	965.332	81.6022	965.332	80.83	965.332	80.0741	965.332	79.4291	965.332	78.4939	965.332	78.223	965.332	77.5528	965.332	77.5896	965.332	77.3427	965.332	77.1561	965.332	76.7403	965.332	76.0882	965.332	74.4142	965.332	73.8963	965.332	69.4293	965.332	70.414	965.332	67.7274	965.332	67.11	965.332	72.1232	965.332	69.2426	965.332	74.2525	965.332	72.6121	965.332	74.3268
1000.49	85.8823	1000.49	85.9265	1000.49	85.429	1000.49	85.4772	1000.49	84.7385	1000.49	84.5495	1000.49	83.9984	1000.49	83.3454	1000.49	83.2437	1000.49	82.2623	1000.49	82.391	1000.49	81.5092	1000.49	81.4113	1000.49	80.7925	1000.49	80.3657	1000.49	79.9265	1000.49	79.3867	1000.49	79.2652	1000.49	78.6772	1000.49	78.8556	1000.49	78.217	1000.49	78.2634	1000.49	77.5786	1000.49	77.1583	1000.49	76.3474	1000.49	74.9915	1000.49	74.2385	1000.49	70.2004	1000.49	70.7882	1000.49	61.4413	1000.49	66.1758	1000.49	69.3734	1000.49	67.4283	1000.49	72.7992	1000.49	71.2343	1000.49	73.0798
1035.64	85.8377	1035.64	85.8209	1035.64	85.541	1035.64	85.3147	1035.64	85.0846	1035.64	84.3234	1035.64	84.4654	1035.64	83.1725	1035.64	83.5755	1035.64	82.179	1035.64	82.3548	1035.64	80.9716	1035.64	80.7561	1035.64	78.7833	1035.64	78.7324	1035.64	75.5799	1035.64	76.914	1035.64	73.5993	1035.64	76.6888	1035.64	75.0009	1035.64	77.4289	1035.64	77.1012	1035.64	77.6577	1035.64	77.3812	1035.64	76.7676	1035.64	74.9	1035.64	74.193	1035.64	68.405	1035.64	68.2461	1035.64	60.4997	1035.64	62.6273	1035.64	69.2516	1035.64	70.5698	1035.64	72.7082	1035.64	73.4535	1035.64	73.9135
1072.27	85.4058	1072.27	85.3534	1072.27	85.3912	1072.27	85.2415	1072.27	85.2105	1072.27	84.9865	1072.27	84.7871	1072.27	84.5229	1072.27	84.0852	1072.27	83.6818	1072.27	83.0632	1072.27	82.1153	1072.27	81.6751	1072.27	79.799	1072.27	80.007	1072.27	77.638	1072.27	78.4373	1072.27	76.4109	1072.27	77.4298	1072.27	75.529	1072.27	77.06	1072.27	75.418	1072.27	76.9548	1072.27	76.045	1072.27	76.5111	1072.27	75.1704	1072.27	75.0354	1072.27	70.886	1072.27	71.498	1072.27	62.0447	1072.27	62.7307	1072.27	69.3403	1072.27	64.6764	1072.27	73.1061	1072.27	71.4438	1072.27	73.6324
1108.89	86.5193	1108.89	86.2844	1108.89	86.4187	1108.89	85.8316	1108.89	85.9995	1108.89	85.2923	1108.89	85.3465	1108.89	84.652	1108.89	84.5086	1108.89	83.7849	1108.89	83.4616	1108.89	82.5826	1108.89	82.1145	1108.89	81.117	1108.89	80.3768	1108.89	79.5998	1108.89	78.4196	1108.89	77.9534	1108.89	76.9743	1108.89	76.4134	1108.89	76.5892	1108.89	75.8645	1108.89	76.7633	1108.89	75.8579	1108.89	76.6781	1108.89	75.3738	1108.89	75.6701	1108.89	73.0392	1108.89	73.0236	1108.89	65.9265	1108.89	66.8876	1108.89	64.4697	1108.89	59.5364	1108.89	71.43	1108.89	69.6773	1108.89	72.5714
1148.44	86.5971	1148.44	86.4044	1148.44	86.2629	1148.44	85.7276	1148.44	85.5741	1148.44	84.7337	1148.44	84.7972	1148.44	83.6449	1148.44	83.932	1148.44	82.6933	1148.44	82.7322	1148.44	81.9098	1148.44	81.1698	1148.44	80.9916	1148.44	79.4644	1148.44	79.735	1148.44	77.6882	1148.44	78.5555	1148.44	76.2115	1148.44	77.6706	1148.44	75.9159	1148.44	76.6447	1148.44	76.3263	1148.44	75.8121	1148.44	76.1538	1148.44	75.0635	1148.44	74.6828	1148.44	72.5421	1148.44	71.4814	1148.44	64.5604	1148.44	65.4965	1148.44	66.2647	1148.44	65.4341	1148.44	72.9141	1148.44	71.7821	1148.44	74.1262
1189.45	86.5802	1189.45	86.2652	1189.45	86.3001	1189.45	85.3846	1189.45	85.6051	1189.45	84.2183	1189.45	84.6755	1189.45	83.153	1189.45	83.5435	1189.45	82.2548	1189.45	82.3265	1189.45	81.1634	1189.45	81.1893	1189.45	79.615	1189.45	79.8741	1189.45	77.761	1189.45	77.9154	1189.45	76.2327	1189.45	75.4485	1189.45	75.8136	1189.45	74.0689	1189.45	75.4219	1189.45	74.725	1189.45	74.6375	1189.45	75.1507	1189.45	74.2915	1189.45	74.2221	1189.45	72.8984	1189.45	71.7532	1189.45	66.9905	1189.45	66.6312	1189.45	65.348	1189.45	59.6499	1189.45	72.1175	1189.45	69.3477	1189.45	72.9213
1230.47	85.9816	1230.47	85.7317	1230.47	85.814	1230.47	85.0361	1230.47	85.3768	1230.47	84.1181	1230.47	84.5804	1230.47	83.1515	1230.47	83.2711	1230.47	81.9729	1230.47	81.7402	1230.47	80.6191	1230.47	80.4096	1230.47	79.7072	1230.47	79.143	1230.47	79.0598	1230.47	77.774	1230.47	77.7626	1230.47	76.6922	1230.47	76.5517	1230.47	76.0561	1230.47	75.7031	1230.47	75.3427	1230.47	74.0661	1230.47	74.4846	1230.47	72.03	1230.47	73.5029	1230.47	70.2911	1230.47	71.1281	1230.47	64.6679	1230.47	65.0248	1230.47	62.3978	1230.47	60.3285	1230.47	70.8993	1230.47	69.179	1230.47	72.1934
1274.41	85.6425	1274.41	85.5233	1274.41	85.4876	1274.41	85.098	1274.41	85.0671	1274.41	84.3365	1274.41	84.3527	1274.41	83.2244	1274.41	83.2813	1274.41	81.8101	1274.41	81.803	1274.41	80.3025	1274.41	79.8768	1274.41	78.815	1274.41	77.5593	1274.41	77.0151	1274.41	75.089	1274.41	74.9644	1274.41	72.8519	1274.41	74.9673	1274.41	72.743	1274.41	76.8523	1274.41	74.7995	1274.41	77.1639	1274.41	75.7767	1274.41	75.3791	1274.41	74.8253	1274.41	72.6889	1274.41	72.1334	1274.41	68.4856	1274.41	66.8462	1274.41	62.3032	1274.41	62.0894	1274.41	69.1986	1274.41	68.9525	1274.41	71.2696
1319.82	84.5581	1319.82	84.5433	1319.82	84.3268	1319.82	84.0631	1319.82	83.8387	1319.82	82.9534	1319.82	82.9073	1319.82	81.5562	1319.82	81.546	1319.82	80.4837	1319.82	80.1442	1319.82	79.4803	1319.82	78.889	1319.82	78.0823	1319.82	77.4327	1319.82	76.5297	1319.82	75.51	1319.82	74.1407	1319.82	73.2057	1319.82	71.6307	1319.82	70.9444	1319.82	73.5537	1319.82	70.8049	1319.82	75.1764	1319.82	72.8191	1319.82	73.9574	1319.82	73.2675	1319.82	70.6756	1319.82	71.1531	1319.82	65.9253	1319.82	65.391	1319.82	63.3725	1319.82	57.437	1319.82	69.1154	1319.82	68.1305	1319.82	70.7867
1366.7	83.4091	1366.7	83.1339	1366.7	83.2628	1366.7	82.4854	1366.7	82.7372	1366.7	81.6348	1366.7	81.865	1366.7	80.6447	1366.7	80.7251	1366.7	79.325	1366.7	79.5357	1366.7	78.1654	1366.7	78.2659	1366.7	77.7072	1366.7	76.5567	1366.7	77.013	1366.7	74.4081	1366.7	75.4416	1366.7	72.7555	1366.7	72.8547	1366.7	72.7386	1366.7	72.4166	1366.7	73.6737	1366.7	74.8404	1366.7	74.7419	1366.7	74.7973	1366.7	74.8353	1366.7	71.226	1366.7	73.2839	1366.7	63.2655	1366.7	69.573	1366.7	55.613	1366.7	60.6039	1366.7	66.6607	1366.7	65.9747	1366.7	69.1944
1413.57	84.4871	1413.57	84.0751	1413.57	84.1064	1413.57	82.9672	1413.57	83.3044	1413.57	81.804	1413.57	82.2448	1413.57	80.7631	1413.57	81.0082	1413.57	79.5389	1413.57	79.8752	1413.57	78.4348	1413.57	78.7207	1413.57	77.0481	1413.57	77.5914	1413.57	74.299	1413.57	76.8082	1413.57	71.0725	1413.57	75.4482	1413.57	69.9416	1413.57	72.603	1413.57	72.558	1413.57	71.5683	1413.57	75.5668	1413.57	74.1788	1413.57	75.9525	1413.57	75.4985	1413.57	72.801	1413.57	74.2737	1413.57	65.0512	1413.57	69.1592	1413.57	60.1157	1413.57	57.1451	1413.57	68.2659	1413.57	68.2143	1413.57	70.6566
1463.38	85.0533	1463.38	84.9582	1463.38	84.5041	1463.38	84.064	1463.38	83.7542	1463.38	82.6605	1463.38	82.9335	1463.38	81.081	1463.38	81.9027	1463.38	79.692	1463.38	80.4617	1463.38	79.0005	1463.38	78.213	1463.38	78.3417	1463.38	75.9685	1463.38	76.6917	1463.38	75.3471	1463.38	74.4763	1463.38	75.6104	1463.38	70.8716	1463.38	75.5177	1463.38	65.1092	1463.38	74.2928	1463.38	71.0475	1463.38	73.2021	1463.38	73.5252	1463.38	73.7252	1463.38	71.4633	1463.38	72.8084	1463.38	65.108	1463.38	68.5638	1463.38	57.1979	1463.38	58.2384	1463.38	67.1232	1463.38	65.2318	1463.38	69.1186
1516.11	84.9809	1516.11	84.925	1516.11	84.6992	1516.11	84.4298	1516.11	84.2096	1516.11	83.385	1516.11	83.3953	1516.11	81.5503	1516.11	82.4616	1516.11	79.6588	1516.11	81.5771	1516.11	78.6222	1516.11	80.1116	1516.11	77.6739	1516.11	78.103	1516.11	76.3561	1516.11	75.7635	1516.11	76.0264	1516.11	72.2214	1516.11	75.3681	1516.11	70.1342	1516.11	71.4102	1516.11	71.9717	1516.11	69.8095	1516.11	73.9393	1516.11	73.8024	1516.11	74.6833	1516.11	73.5756	1516.11	73.9402	1516.11	68.7404	1516.11	70.932	1516.11	52.7026	1516.11	65.0116	1516.11	63.1068	1516.11	64.997	1516.11	66.4779
1568.85	84.6668	1568.85	84.6935	1568.85	84.5865	1568.85	84.2936	1568.85	84.3853	1568.85	83.0748	1568.85	83.7731	1568.85	81.7169	1568.85	82.7887	1568.85	81.3197	1568.85	81.4816	1568.85	80.1995	1568.85	79.9297	1568.85	77.3006	1568.85	78.5787	1568.85	76.3529	1568.85	77.5499	1568.85	76.4233	1568.85	76.781	1568.85	75.3303	1568.85	75.4242	1568.85	72.6797	1568.85	72.3229	1568.85	68.6633	1568.85	71.1991	1568.85	73.1062	1568.85	73.343	1568.85	73.9433	1568.85	73.1205	1568.85	69.6229	1568.85	69.6906	1568.85	62.6308	1568.85	62.8679	1568.85	65.0506	1568.85	63.2052	1568.85	66.1307
1624.51	84.8531	1624.51	84.9078	1624.51	84.6534	1624.51	84.4236	1624.51	84.2681	1624.51	83.5606	1624.51	83.5972	1624.51	83.075	1624.51	82.8892	1624.51	81.9621	1624.51	82.0658	1624.51	79.0679	1624.51	80.867	1624.51	76.8986	1624.51	79.1475	1624.51	77.0654	1624.51	76.8128	1624.51	76.5851	1624.51	74.0268	1624.51	75.5762	1624.51	71.7751	1624.51	74.737	1624.51	73.1109	1624.51	72.0062	1624.51	74.0047	1624.51	72.8296	1624.51	74.1813	1624.51	74.6001	1624.51	73.7224	1624.51	70.7661	1624.51	70.9251	1624.51	51.7775	1624.51	64.7505	1624.51	67.2381	1624.51	64.4861	1624.51	68.5742
1681.64	85.6687	1681.64	85.1344	1681.64	85.5403	1681.64	84.3436	1681.64	84.8637	1681.64	83.8788	1681.64	84.0319	1681.64	83.3985	1681.64	83.0473	1681.64	81.841	1681.64	81.61	1681.64	79.809	1681.64	80.0923	1681.64	79.0619	1681.64	78.791	1681.64	78.5931	1681.64	77.3864	1681.64	77.3891	1681.64	76.6384	1681.64	74.2401	1681.64	76.1122	1681.64	71.8154	1681.64	73.9846	1681.64	70.5476	1681.64	72.0795	1681.64	72.1336	1681.64	73.3892	1681.64	74.874	1681.64	73.2361	1681.64	72.8494	1681.64	70.2661	1681.64	59.5905	1681.64	63.8492	1681.64	67.1326	1681.64	64.8697	1681.64	69.7799
1741.7	85.915	1741.7	85.6174	1741.7	85.6298	1741.7	84.8802	1741.7	85.1025	1741.7	83.8685	1741.7	84.3316	1741.7	82.3798	1741.7	83.1811	1741.7	80.68	1741.7	81.7537	1741.7	79.6673	1741.7	80.6095	1741.7	79.6381	1741.7	79.7685	1741.7	79.2569	1741.7	77.6544	1741.7	78.6397	1741.7	73.627	1741.7	78.0092	1741.7	69.1655	1741.7	76.795	1741.7	70.8715	1741.7	73.6213	1741.7	73.2056	1741.7	71.0924	1741.7	74.1941	1741.7	73.6831	1741.7	73.718	1741.7	72.2995	1741.7	70.4684	1741.7	60.9294	1741.7	64.1822	1741.7	66.0338	1741.7	67.1568	1741.7	70.2316
1803.22	85.7479	1803.22	86.0648	1803.22	85.1125	1803.22	85.3323	1803.22	84.4918	1803.22	83.7401	1803.22	83.6121	1803.22	82.4922	1803.22	82.7913	1803.22	81.6016	1803.22	81.5918	1803.22	80.6304	1803.22	80.3161	1803.22	80.4498	1803.22	79.4227	1803.22	78.2019	1803.22	78.2205	1803.22	74.2683	1803.22	77.143	1803.22	73.9229	1803.22	75.8396	1803.22	75.1421	1803.22	72.5811	1803.22	75.2101	1803.22	67.0166	1803.22	72.5255	1803.22	70.7871	1803.22	74.2672	1803.22	72.6303	1803.22	73.8975	1803.22	70.7068	1803.22	65.4038	1803.22	63.9714	1803.22	64.4672	1803.22	66.633	1803.22	69.2184
1866.21	85.4526	1866.21	85.6911	1866.21	85.1252	1866.21	85.0573	1866.21	84.627	1866.21	84.0717	1866.21	83.9944	1866.21	83.3015	1866.21	83.0211	1866.21	81.5808	1866.21	81.5773	1866.21	80.5296	1866.21	80.9334	1866.21	79.221	1866.21	80.1501	1866.21	75.373	1866.21	78.6913	1866.21	72.2853	1866.21	76.704	1866.21	72.6149	1866.21	72.9922	1866.21	73.8536	1866.21	70.1548	1866.21	75.7119	1866.21	70.3765	1866.21	72.5714	1866.21	71.9238	1866.21	69.531	1866.21	74.1732	1866.21	72.4027	1866.21	73.1768	1866.21	67.8525	1866.21	68.4219	1866.21	65.2393	1866.21	67.5979	1866.21	69.9796
1932.13	85.4687	1932.13	85.296	1932.13	85.307	1932.13	84.7295	1932.13	84.6241	1932.13	83.9832	1932.13	83.697	1932.13	82.6632	1932.13	82.6235	1932.13	81.5455	1932.13	81.3146	1932.13	81.2983	1932.13	80.1499	1932.13	78.9346	1932.13	78.8569	1932.13	76.8842	1932.13	77.5995	1932.13	75.7151	1932.13	76.6431	1932.13	70.3121	1932.13	76.6117	1932.13	65.8801	1932.13	76.2022	1932.13	71.3915	1932.13	74.0991	1932.13	73.7444	1932.13	72.7822	1932.13	71.9116	1932.13	74.1909	1932.13	71.335	1932.13	72.724	1932.13	65.8764	1932.13	67.7315	1932.13	65.1716	1932.13	67.4222	1932.13	69.9959
1999.51	85.6523	1999.51	85.2874	1999.51	85.4515	1999.51	84.5187	1999.51	84.837	1999.51	83.6698	1999.51	83.9522	1999.51	82.9241	1999.51	82.7838	1999.51	81.9406	1999.51	81.582	1999.51	80.4254	1999.51	80.2554	1999.51	78.3579	1999.51	79.0854	1999.51	77.037	1999.51	78.0774	1999.51	76.6717	1999.51	76.5703	1999.51	75.3335	1999.51	74.0499	1999.51	72.5951	1999.51	70.6535	1999.51	69.2386	1999.51	70.367	1999.51	72.6003	1999.51	72.0385	1999.51	73.4096	1999.51	73.653	1999.51	72.2325	1999.51	72.2452	1999.51	67.7256	1999.51	66.336	1999.51	63.2876	1999.51	66.6525	1999.51	68.5524
2069.82	85.771	2069.82	85.6204	2069.82	84.979	2069.82	84.5034	2069.82	84.2868	2069.82	83.8129	2069.82	83.6692	2069.82	82.5929	2069.82	82.8617	2069.82	81.4595	2069.82	81.7683	2069.82	80.9857	2069.82	80.505	2069.82	77.9657	2069.82	79.267	2069.82	77.8503	2069.82	76.9912	2069.82	77.2633	2069.82	72.7467	2069.82	73.2796	2069.82	71.4233	2069.82	72.2942	2069.82	73.8259	2069.82	66.3549	2069.82	73.8028	2069.82	70.0825	2069.82	72.13	2069.82	71.7361	2069.82	73.1254	2069.82	70.7836	2069.82	72.4128	2069.82	67.4258	2069.82	67.9345	2069.82	64.4555	2069.82	65.1212	2069.82	66.9733
2143.07	85.1482	2143.07	85.2515	2143.07	84.5772	2143.07	84.8673	2143.07	83.8008	2143.07	83.7784	2143.07	83.0685	2143.07	81.9374	2143.07	82.3375	2143.07	82.2959	2143.07	81.4607	2143.07	80.233	2143.07	80.3944	2143.07	77.6078	2143.07	79.1987	2143.07	78.3098	2143.07	77.8556	2143.07	76.4135	2143.07	76.03	2143.07	73.7356	2143.07	74.4334	2143.07	72.8876	2143.07	72.8114	2143.07	71.2243	2143.07	71.7458	2143.07	70.1193	2143.07	71.7427	2143.07	72.7282	2143.07	71.2273	2143.07	70.8399	2143.07	71.605	2143.07	67.4893	2143.07	67.8592	2143.07	65.0205	2143.07	68.0792	2143.07	69.0821
2219.24	84.6826	2219.24	84.6301	2219.24	84.8432	2219.24	84.604	2219.24	84.2578	2219.24	83.3411	2219.24	83.5033	2219.24	83.2753	2219.24	82.2179	2219.24	81.7763	2219.24	81.8062	2219.24	80.3405	2219.24	80.2006	2219.24	79.8513	2219.24	78.3884	2219.24	75.9837	2219.24	77.5129	2219.24	74.1579	2219.24	75.9362	2219.24	74.6862	2219.24	72.7664	2219.24	72.8925	2219.24	71.2918	2219.24	69.1298	2219.24	69.1534	2219.24	70.13	2219.24	70.2413	2219.24	70.331	2219.24	69.6895	2219.24	70.2553	2219.24	70.5646	2219.24	66.0814	2219.24	66.3502	2219.24	66.5186	2219.24	68.4559	2219.24	70.0263
2296.88	84.9896	2296.88	84.5538	2296.88	84.8029	2296.88	83.8365	2296.88	84.2945	2296.88	83.583	2296.88	83.3585	2296.88	82.932	2296.88	82.4335	2296.88	81.1146	2296.88	81.2871	2296.88	81.0258	2296.88	79.99	2296.88	78.6278	2296.88	79.0918	2296.88	76.6996	2296.88	77.9297	2296.88	75.8916	2296.88	75.9668	2296.88	73.4302	2296.88	74.4196	2296.88	70.9391	2296.88	67.2409	2296.88	71.8336	2296.88	68.5841	2296.88	68.3064	2296.88	67.5216	2296.88	69.808	2296.88	69.5273	2296.88	70.9026	2296.88	70.264	2296.88	67.4426	2296.88	66.4234	2296.88	65.5713	2296.88	65.9441	2296.88	69.0641
2378.91	84.3406	2378.91	84.5605	2378.91	84.0472	2378.91	84.0326	2378.91	83.7872	2378.91	83.2828	2378.91	83.3005	2378.91	82.4486	2378.91	82.4565	2378.91	81.3166	2378.91	81.4052	2378.91	81.0552	2378.91	80.254	2378.91	77.598	2378.91	77.9809	2378.91	76.3812	2378.91	77.162	2378.91	73.6569	2378.91	76.9469	2378.91	72.4752	2378.91	73.3826	2378.91	71.5083	2378.91	69.0765	2378.91	70.0951	2378.91	67.5026	2378.91	70.4818	2378.91	67.8045	2378.91	68.6796	2378.91	69.8138	2378.91	71.2766	2378.91	71.6449	2378.91	67.0619	2378.91	67.7309	2378.91	65.9919	2378.91	66.9775	2378.91	69.6334
2462.4	84.3191	2462.4	84.6615	2462.4	84.0081	2462.4	84.3255	2462.4	83.6826	2462.4	84.237	2462.4	83.5374	2462.4	82.3686	2462.4	82.919	2462.4	81.8245	2462.4	81.6953	2462.4	80.3382	2462.4	79.9987	2462.4	77.037	2462.4	78.472	2462.4	76.4024	2462.4	74.8532	2462.4	76.4481	2462.4	73.7229	2462.4	75.6261	2462.4	73.6948	2462.4	68.7954	2462.4	69.0047	2462.4	71.6225	2462.4	70.0192	2462.4	68.8509	2462.4	68.6117	2462.4	68.9557	2462.4	68.9551	2462.4	70.4025	2462.4	70.1376	2462.4	68.2474	2462.4	66.5769	2462.4	66.1822	2462.4	66.4293	2462.4	69.8836
2548.83	84.313	2548.83	83.8858	2548.83	84.0315	2548.83	83.8971	2548.83	83.7943	2548.83	83.9941	2548.83	83.5345	2548.83	82.8591	2548.83	82.9926	2548.83	82.4412	2548.83	81.9393	2548.83	79.049	2548.83	79.7574	2548.83	79.4939	2548.83	78.7542	2548.83	76.6885	2548.83	77.3599	2548.83	72.777	2548.83	74.8361	2548.83	70.8838	2548.83	74.1331	2548.83	71.1952	2548.83	70.4193	2548.83	67.1323	2548.83	66.9608	2548.83	69.952	2548.83	69.0078	2548.83	68.0791	2548.83	68.3144	2548.83	68.8622	2548.83	70.2648	2548.83	67.3403	2548.83	66.7074	2548.83	66.2819	2548.83	65.6623	2548.83	68.8624
2639.65	83.5343	2639.65	83.4096	2639.65	83.4945	2639.65	84.0525	2639.65	83.4285	2639.65	83.5754	2639.65	83.448	2639.65	82.9572	2639.65	83.3747	2639.65	82.0089	2639.65	81.8362	2639.65	79.601	2639.65	80.2764	2639.65	80.065	2639.65	78.432	2639.65	77.4119	2639.65	76.1623	2639.65	74.7299	2639.65	73.8979	2639.65	74.8777	2639.65	73.0168	2639.65	68.1059	2639.65	72.0682	2639.65	71.1282	2639.65	69.6683	2639.65	70.266	2639.65	68.5442	2639.65	67.512	2639.65	67.676	2639.65	69.5697	2639.65	69.7293	2639.65	67.9991	2639.65	66.6882	2639.65	66.0657	2639.65	65.4199	2639.65	68.6383
2731.93	83.6462	2731.93	83.6988	2731.93	83.2894	2731.93	83.7384	2731.93	83.0593	2731.93	83.2919	2731.93	83.1739	2731.93	83.1853	2731.93	83.0596	2731.93	81.2923	2731.93	82.0625	2731.93	81.3167	2731.93	80.0535	2731.93	79.1873	2731.93	79.4875	2731.93	74.9569	2731.93	77.3766	2731.93	74.3063	2731.93	74.1708	2731.93	70.5613	2731.93	72.4902	2731.93	72.7604	2731.93	65.8795	2731.93	66.4513	2731.93	68.6661	2731.93	69.9508	2731.93	69.307	2731.93	66.3777	2731.93	66.9334	2731.93	69.0294	2731.93	69.3722	2731.93	66.7269	2731.93	66.4667	2731.93	65.9458	2731.93	65.0212	2731.93	69.355
2828.61	83.6368	2828.61	83.7348	2828.61	83.8719	2828.61	84.091	2828.61	83.5364	2828.61	83.5555	2828.61	83.2625	2828.61	83.5492	2828.61	82.8984	2828.61	81.7655	2828.61	82.2445	2828.61	80.7061	2828.61	80.4104	2828.61	76.9801	2828.61	79.0794	2828.61	75.1652	2828.61	77.5477	2828.61	71.3402	2828.61	76.443	2828.61	72.1708	2828.61	73.4574	2828.61	70.9919	2828.61	72.1442	2828.61	66.7713	2828.61	61.9148	2828.61	69.5684	2828.61	69.0107	2828.61	67.8121	2828.61	65.7424	2828.61	67.8595	2828.61	67.8218	2828.61	68.3351	2828.61	66.2746	2828.61	64.1698	2828.61	63.9151	2828.61	67.887
2928.22	83.5068	2928.22	83.7049	2928.22	84.1413	2928.22	84.4378	2928.22	84.0838	2928.22	84.2994	2928.22	83.8956	2928.22	83.3459	2928.22	83.6994	2928.22	82.451	2928.22	82.0585	2928.22	80.7171	2928.22	80.6801	2928.22	76.8011	2928.22	78.6308	2928.22	77.6694	2928.22	77.1342	2928.22	75.1848	2928.22	73.7685	2928.22	73.4114	2928.22	69.6607	2928.22	70.1347	2928.22	70.7475	2928.22	66.6375	2928.22	62.486	2928.22	68.6055	2928.22	68.2423	2928.22	68.2792	2928.22	66.3979	2928.22	67.3414	2928.22	67.4797	2928.22	67.1367	2928.22	67.7239	2928.22	64.3619	2928.22	64.8409	2928.22	68.0644
3030.76	83.4391	3030.76	83.95	3030.76	83.7024	3030.76	84.3152	3030.76	84.3718	3030.76	84.7793	3030.76	84.5664	3030.76	83.3236	3030.76	83.9283	3030.76	82.3847	3030.76	81.8885	3030.76	79.7525	3030.76	80.9483	3030.76	79.4227	3030.76	79.9326	3030.76	75.594	3030.76	76.7071	3030.76	74.7536	3030.76	72.9879	3030.76	69.9847	3030.76	72.3852	3030.76	70.1125	3030.76	69.4635	3030.76	66.7353	3030.76	65.6843	3030.76	67.5325	3030.76	65.4341	3030.76	68.0887	3030.76	67.717	3030.76	65.5389	3030.76	65.7041	3030.76	67.4874	3030.76	67.0834	3030.76	65.1389	3030.76	64.5291	3030.76	68.7584
3137.7	83.6519	3137.7	83.7547	3137.7	83.7085	3137.7	84.5186	3137.7	84.2263	3137.7	84.5023	3137.7	84.6961	3137.7	83.2206	3137.7	83.8065	3137.7	82.0445	3137.7	81.9643	3137.7	79.9923	3137.7	81.4441	3137.7	79.3825	3137.7	79.3364	3137.7	75.1449	3137.7	76.0808	3137.7	72.1033	3137.7	72.5706	3137.7	68.2291	3137.7	67.2621	3137.7	71.4066	3137.7	70.2998	3137.7	65.8693	3137.7	65.6313	3137.7	66.958	3137.7	63.0863	3137.7	68.6922	3137.7	67.4753	3137.7	66.7987	3137.7	65.8261	3137.7	66.6714	3137.7	66.2023	3137.7	63.9859	3137.7	63.4628	3137.7	67.2695
3249.02	83.4692	3249.02	83.4916	3249.02	83.6745	3249.02	84.3957	3249.02	84.3372	3249.02	84.4976	3249.02	84.5597	3249.02	83.7718	3249.02	83.6997	3249.02	82.0476	3249.02	82.0449	3249.02	80.7454	3249.02	81.4393	3249.02	76.9632	3249.02	78.8142	3249.02	75.8107	3249.02	74.4572	3249.02	72.2489	3249.02	69.8012	3249.02	73.0046	3249.02	68.9655	3249.02	69.1311	3249.02	70.4745	3249.02	70.2722	3249.02	70.8116	3249.02	65.553	3249.02	62.4962	3249.02	67.852	3249.02	68.4105	3249.02	67.5031	3249.02	67.4701	3249.02	67.2211	3249.02	66.5935	3249.02	64.6903	3249.02	63.2133	3249.02	69.6773
3363.28	83.2695	3363.28	83.6163	3363.28	84.0313	3363.28	84.4908	3363.28	84.168	3363.28	84.3485	3363.28	84.4884	3363.28	83.8761	3363.28	83.5172	3363.28	81.9149	3363.28	82.4363	3363.28	80.3112	3363.28	81.589	3363.28	77.2653	3363.28	77.5622	3363.28	76.4826	3363.28	72.753	3363.28	74.6881	3363.28	73.8137	3363.28	71.8768	3363.28	72.3867	3363.28	68.8571	3363.28	71.7923	3363.28	69.0259	3363.28	71.6157	3363.28	66.8445	3363.28	63.296	3363.28	68.3466	3363.28	66.8818	3363.28	66.7186	3363.28	65.7761	3363.28	68.2489	3363.28	67.6797	3363.28	65.6585	3363.28	63.5783	3363.28	68.5308
3481.93	83.2379	3481.93	83.7772	3481.93	83.7441	3481.93	84.4273	3481.93	84.6407	3481.93	84.4805	3481.93	84.4452	3481.93	83.2661	3481.93	83.3104	3481.93	81.7701	3481.93	82.8528	3481.93	79.7281	3481.93	82.0689	3481.93	77.5721	3481.93	77.3198	3481.93	74.4439	3481.93	75.0018	3481.93	74.4889	3481.93	73.1042	3481.93	70.9599	3481.93	73.1762	3481.93	69.9204	3481.93	71.629	3481.93	66.2165	3481.93	72.645	3481.93	64.8354	3481.93	66.4321	3481.93	68.7014	3481.93	65.2649	3481.93	66.3273	3481.93	66.3674	3481.93	67.206	3481.93	67.7626	3481.93	63.4201	3481.93	63.0936	3481.93	68.121
3604.98	83.6374	3604.98	83.874	3604.98	83.8555	3604.98	84.4046	3604.98	84.2319	3604.98	84.0877	3604.98	84.101	3604.98	83.1893	3604.98	83.1146	3604.98	81.7282	3604.98	83.0348	3604.98	79.5432	3604.98	81.397	3604.98	78.3532	3604.98	76.951	3604.98	75.8096	3604.98	74.8011	3604.98	72.502	3604.98	74.2994	3604.98	69.6082	3604.98	73.4896	3604.98	69.3021	3604.98	72.0611	3604.98	69.5662	3604.98	72.9042	3604.98	63.8807	3604.98	69.9097	3604.98	67.9271	3604.98	66.2483	3604.98	67.4116	3604.98	66.9559	3604.98	69.5878	3604.98	68.2454	3604.98	60.8742	3604.98	64.5563	3604.98	67.9551
3732.42	84.0443	3732.42	84.4537	3732.42	84.5104	3732.42	84.2664	3732.42	84.74	3732.42	84.4369	3732.42	84.1309	3732.42	83.09	3732.42	83.0884	3732.42	82.2739	3732.42	83.1708	3732.42	80.2693	3732.42	79.9746	3732.42	79.0586	3732.42	78.1541	3732.42	74.9092	3732.42	75.8167	3732.42	72.9471	3732.42	74.1466	3732.42	70.5013	3732.42	71.1146	3732.42	68.9075	3732.42	70.2324	3732.42	69.6217	3732.42	72.5237	3732.42	65.6768	3732.42	70.9575	3732.42	68.7716	3732.42	66.5653	3732.42	66.4683	3732.42	67.5163	3732.42	70.4676	3732.42	69.9098	3732.42	61.9689	3732.42	64.234	3732.42	68.4496
3864.26	84.7747	3864.26	84.7492	3864.26	84.3837	3864.26	84.8661	3864.26	84.4877	3864.26	84.4157	3864.26	83.9685	3864.26	83.5755	3864.26	83.2631	3864.26	82.0207	3864.26	83.1002	3864.26	80.0374	3864.26	79.8113	3864.26	77.2476	3864.26	77.4707	3864.26	75.9815	3864.26	75.1809	3864.26	71.9423	3864.26	73.184	3864.26	72.0582	3864.26	68.5421	3864.26	69.2861	3864.26	65.7682	3864.26	66.8062	3864.26	69.6699	3864.26	66.0442	3864.26	71.4979	3864.26	66.7694	3864.26	69.0632	3864.26	66.2058	3864.26	67.7109	3864.26	69.547	3864.26	69.7341	3864.26	64.1729	3864.26	66.0503	3864.26	68.9941
4000.49	85.109	4000.49	84.6547	4000.49	84.5385	4000.49	84.1571	4000.49	84.1953	4000.49	84.1384	4000.49	83.7327	4000.49	82.3726	4000.49	82.9939	4000.49	81.0514	4000.49	82.8917	4000.49	80.4258	4000.49	80.5754	4000.49	77.0761	4000.49	75.2109	4000.49	75.6029	4000.49	74.153	4000.49	73.1264	4000.49	71.8887	4000.49	70.824	4000.49	69.4945	4000.49	69.6765	4000.49	64.1807	4000.49	66.9447	4000.49	58.2547	4000.49	62.1529	4000.49	67.425	4000.49	67.0893	4000.49	69.9418	4000.49	66.0836	4000.49	64.0365	4000.49	69.1232	4000.49	69.9128	4000.49	66.8828	4000.49	63.7719	4000.49	67.3363
4141.11	85.3034	4141.11	84.7861	4141.11	85.0162	4141.11	84.602	4141.11	84.2755	4141.11	83.6152	4141.11	83.4838	4141.11	82.6413	4141.11	82.5004	4141.11	81.1838	4141.11	83.0612	4141.11	78.8678	4141.11	78.6026	4141.11	77.3988	4141.11	73.5275	4141.11	75.2525	4141.11	74.9242	4141.11	72.3641	4141.11	75.1059	4141.11	69.0626	4141.11	71.5541	4141.11	67.8228	4141.11	68.2011	4141.11	65.5955	4141.11	59.7189	4141.11	64.8142	4141.11	58.3521	4141.11	65.7652	4141.11	69.1587	4141.11	64.4519	4141.11	62.8665	4141.11	68.1142	4141.11	68.7617	4141.11	63.0423	4141.11	62.4125	4141.11	68.8086
4287.6	86.3984	4287.6	85.9645	4287.6	85.3836	4287.6	84.8127	4287.6	84.4174	4287.6	83.4588	4287.6	82.4225	4287.6	82.139	4287.6	82.582	4287.6	80.9693	4287.6	83.1592	4287.6	79.2706	4287.6	75.6411	4287.6	78.3879	4287.6	75.6542	4287.6	74.1476	4287.6	76.6773	4287.6	70.7877	4287.6	73.7567	4287.6	72.1205	4287.6	70.7318	4287.6	66.8016	4287.6	69.0983	4287.6	66.4145	4287.6	62.8026	4287.6	65.0322	4287.6	56.0888	4287.6	63.2667	4287.6	69.6776	4287.6	65.5472	4287.6	63.2185	4287.6	68.8264	4287.6	68.5936	4287.6	63.1461	4287.6	62.8534	4287.6	65.9476
4438.48	86.3044	4438.48	85.7108	4438.48	86.0424	4438.48	84.2144	4438.48	84.4231	4438.48	83.5162	4438.48	82.3256	4438.48	82.0423	4438.48	83.7183	4438.48	81.2948	4438.48	82.6079	4438.48	80.5204	4438.48	74.0448	4438.48	74.8579	4438.48	78.9931	4438.48	76.3349	4438.48	76.6809	4438.48	73.4818	4438.48	72.1581	4438.48	69.8677	4438.48	69.7155	4438.48	67.9221	4438.48	66.6792	4438.48	66.5012	4438.48	67.3598	4438.48	61.1124	4438.48	61.3116	4438.48	63.7828	4438.48	68.4983	4438.48	66.1427	4438.48	68.1503	4438.48	70.139	4438.48	67.8358	4438.48	62.8882	4438.48	62.4379	4438.48	67.9678
4595.21	87.1821	4595.21	86.2492	4595.21	85.8172	4595.21	84.4068	4595.21	83.5629	4595.21	83.0937	4595.21	82.6571	4595.21	82.2691	4595.21	84.4786	4595.21	81.0582	4595.21	81.2251	4595.21	80.0814	4595.21	77.6141	4595.21	78.7728	4595.21	80.0122	4595.21	74.3794	4595.21	76.1471	4595.21	72.726	4595.21	71.8766	4595.21	69.6704	4595.21	70.3056	4595.21	66.2361	4595.21	67.9499	4595.21	68.1185	4595.21	70.319	4595.21	64.6491	4595.21	63.9231	4595.21	63.777	4595.21	66.352	4595.21	66.9671	4595.21	67.0467	4595.21	65.2396	4595.21	65.5193	4595.21	64.2947	4595.21	62.1221	4595.21	66.5174
4756.35	86.9056	4756.35	85.7821	4756.35	85.3541	4756.35	83.5147	4756.35	82.8789	4756.35	82.6689	4756.35	83.8027	4756.35	81.8465	4756.35	83.692	4756.35	81.463	4756.35	76.5035	4756.35	78.4939	4756.35	79.9964	4756.35	78.4804	4756.35	80.2206	4756.35	74.0455	4756.35	73.9272	4756.35	71.3036	4756.35	70.5863	4756.35	71.6376	4756.35	68.0794	4756.35	67.1827	4756.35	67.7354	4756.35	67.6864	4756.35	69.0793	4756.35	61.3012	4756.35	61.4718	4756.35	57.1299	4756.35	50.2688	4756.35	66.6159	4756.35	68.6518	4756.35	68.3381	4756.35	66.9493	4756.35	63.545	4756.35	63.5023	4756.35	67.3656
4924.8	86.6144	4924.8	85.5258	4924.8	84.885	4924.8	83.7268	4924.8	83.6961	4924.8	82.1571	4924.8	84.7634	4924.8	81.7866	4924.8	82.7405	4924.8	81.2838	4924.8	76.1257	4924.8	81.1252	4924.8	82.9753	4924.8	75.6079	4924.8	78.1523	4924.8	76.0912	4924.8	74.1244	4924.8	73.7123	4924.8	72.0549	4924.8	68.8402	4924.8	67.8414	4924.8	68.2758	4924.8	64.9325	4924.8	65.3834	4924.8	66.8672	4924.8	60.0872	4924.8	64.6272	4924.8	65.3973	4924.8	55.6316	4924.8	66.255	4924.8	68.5449	4924.8	66.9001	4924.8	67.3809	4924.8	61.5316	4924.8	64.0928	4924.8	64.2187
5097.66	86.7002	5097.66	85.0443	5097.66	85.8149	5097.66	82.8909	5097.66	84.0741	5097.66	82.6092	5097.66	82.6996	5097.66	82.0916	5097.66	81.7357	5097.66	81.3637	5097.66	78.0274	5097.66	79.6992	5097.66	83.2149	5097.66	78.7478	5097.66	77.2993	5097.66	74.4295	5097.66	75.4012	5097.66	72.8367	5097.66	71.0724	5097.66	68.3074	5097.66	71.0131	5097.66	67.6341	5097.66	68.4946	5097.66	66.481	5097.66	64.3325	5097.66	63.9221	5097.66	65.5959	5097.66	61.9951	5097.66	60.1701	5097.66	66.4043	5097.66	64.1086	5097.66	62.6692	5097.66	64.6657	5097.66	66.1773	5097.66	64.6203	5097.66	65.2213
5277.83	86.3554	5277.83	85.3509	5277.83	85.921	5277.83	83.8333	5277.83	83.3149	5277.83	83.0444	5277.83	81.892	5277.83	82.6342	5277.83	81.1395	5277.83	81.5561	5277.83	81.053	5277.83	79.7478	5277.83	82.3571	5277.83	77.6479	5277.83	76.5038	5277.83	74.7978	5277.83	73.6272	5277.83	70.7757	5277.83	72.4639	5277.83	71.1003	5277.83	69.541	5277.83	67.3314	5277.83	67.1891	5277.83	62.688	5277.83	63.973	5277.83	62.0072	5277.83	57.1288	5277.83	63.4799	5277.83	63.0497	5277.83	65.5412	5277.83	64.7316	5277.83	67.1991	5277.83	63.92	5277.83	64.1557	5277.83	60.4434	5277.83	64.9288
5463.87	86.5456	5463.87	86.4491	5463.87	86.0471	5463.87	84.4769	5463.87	83.463	5463.87	83.5836	5463.87	82.1864	5463.87	82.816	5463.87	81.4627	5463.87	81.4691	5463.87	83.5578	5463.87	80.2411	5463.87	80.9095	5463.87	76.6484	5463.87	76.8271	5463.87	75.19	5463.87	75.6664	5463.87	73.0733	5463.87	71.7801	5463.87	68.3377	5463.87	69.2012	5463.87	67.468	5463.87	66.6567	5463.87	63.7208	5463.87	61.5058	5463.87	65.1336	5463.87	65.3656	5463.87	61.4716	5463.87	62.9461	5463.87	65.2745	5463.87	65.9003	5463.87	62.4101	5463.87	63.7154	5463.87	62.864	5463.87	64.4565	5463.87	64.0593
5657.23	87.0066	5657.23	86.1597	5657.23	85.6203	5657.23	84.8319	5657.23	84.0422	5657.23	84.3688	5657.23	82.4475	5657.23	82.9806	5657.23	80.8761	5657.23	81.9581	5657.23	84.1222	5657.23	79.7728	5657.23	79.1076	5657.23	78.4655	5657.23	78.3171	5657.23	74.4194	5657.23	74.8952	5657.23	70.5915	5657.23	72.0666	5657.23	70.6077	5657.23	68.7805	5657.23	66.5955	5657.23	67.4689	5657.23	64.5697	5657.23	62.4608	5657.23	63.1328	5657.23	62.6564	5657.23	61.0473	5657.23	64.7789	5657.23	64.166	5657.23	62.934	5657.23	62.3562	5657.23	60.4085	5657.23	66.2665	5657.23	66.5575	5657.23	62.2914
5856.45	86.2282	5856.45	85.9965	5856.45	85.8709	5856.45	85.6507	5856.45	85.3009	5856.45	84.4809	5856.45	83.9578	5856.45	83.0352	5856.45	82.4762	5856.45	81.9262	5856.45	83.7766	5856.45	80.0633	5856.45	79.511	5856.45	76.5985	5856.45	77.9903	5856.45	75.4373	5856.45	73.1672	5856.45	72.277	5856.45	70.7964	5856.45	68.8243	5856.45	69.7026	5856.45	66.6236	5856.45	66.672	5856.45	62.9976	5856.45	64.1572	5856.45	63.2105	5856.45	66.1337	5856.45	60.7179	5856.45	62.66	5856.45	63.0994	5856.45	63.2853	5856.45	62.0023	5856.45	61.3931	5856.45	65.7019	5856.45	65.9379	5856.45	64.6329
6062.99	86.7694	6062.99	86.4881	6062.99	86.8327	6062.99	85.9537	6062.99	85.9056	6062.99	84.4195	6062.99	84.4223	6062.99	82.8079	6062.99	82.4364	6062.99	81.1436	6062.99	82.8234	6062.99	79.566	6062.99	80.3387	6062.99	78.1862	6062.99	75.5764	6062.99	72.9152	6062.99	71.9558	6062.99	71.7193	6062.99	71.3151	6062.99	68.0499	6062.99	68.7694	6062.99	66.6506	6062.99	66.7495	6062.99	65.3163	6062.99	66.3349	6062.99	63.1003	6062.99	59.0764	6062.99	58.0427	6062.99	57.417	6062.99	60.7825	6062.99	63.0234	6062.99	62.0054	6062.99	60.9269	6062.99	65.7296	6062.99	63.5295	6062.99	64.854
6276.86	86.9833	6276.86	86.5717	6276.86	86.4158	6276.86	85.6869	6276.86	85.9702	6276.86	84.2671	6276.86	84.1809	6276.86	82.1321	6276.86	82.181	6276.86	80.9106	6276.86	81.8059	6276.86	79.832	6276.86	79.6375	6276.86	76.8083	6276.86	75.5752	6276.86	75.0699	6276.86	74.0104	6276.86	70.2757	6276.86	71.3343	6276.86	70.2458	6276.86	68.9883	6276.86	66.7673	6276.86	65.6956	6276.86	63.1201	6276.86	63.6738	6276.86	64.2749	6276.86	63.1477	6276.86	58.2066	6276.86	53.4496	6276.86	60.2869	6276.86	52.998	6276.86	59.8458	6276.86	55.8511	6276.86	62.6172	6276.86	62.7169	6276.86	59.7246
6498.05	86.1658	6498.05	86.6063	6498.05	85.7453	6498.05	85.3032	6498.05	85.3199	6498.05	83.3116	6498.05	82.9702	6498.05	81.718	6498.05	82.6364	6498.05	80.9764	6498.05	81.08	6498.05	79.7765	6498.05	79.3367	6498.05	77.6279	6498.05	76.1281	6498.05	73.4059	6498.05	75.0745	6498.05	73.2366	6498.05	73.7131	6498.05	66.6892	6498.05	69.6941	6498.05	65.4565	6498.05	63.9794	6498.05	65.4385	6498.05	62.0449	6498.05	60.3335	6498.05	61.1963	6498.05	58.4422	6498.05	55.0924	6498.05	60.6047	6498.05	56.4021	6498.05	64.1214	6498.05	61.8081	6498.05	66.9126	6498.05	66.5353	6498.05	58.3317
6726.56	85.621	6726.56	86.1239	6726.56	85.9172	6726.56	85.2801	6726.56	84.632	6726.56	82.6237	6726.56	82.8448	6726.56	81.8477	6726.56	83.0081	6726.56	81.4198	6726.56	81.6852	6726.56	79.9106	6726.56	78.1859	6726.56	76.813	6726.56	77.4163	6726.56	73.8615	6726.56	76.1759	6726.56	69.0516	6726.56	71.0499	6726.56	67.6632	6726.56	65.8928	6726.56	63.599	6726.56	63.8035	6726.56	61.3717	6726.56	56.8907	6726.56	62.0505	6726.56	62.4074	6726.56	56.5864	6726.56	62.7302	6726.56	57.4883	6726.56	48.8881	6726.56	59.4432	6726.56	62.3274	6726.56	67.6415	6726.56	60.1756	6726.56	67.359
6963.87	85.8863	6963.87	86.5896	6963.87	86.1045	6963.87	85.365	6963.87	85.6288	6963.87	84.326	6963.87	84.2148	6963.87	83.0296	6963.87	83.6163	6963.87	81.8893	6963.87	82.2014	6963.87	79.3706	6963.87	78.4719	6963.87	76.4087	6963.87	77.5533	6963.87	72.8654	6963.87	73.7796	6963.87	69.6493	6963.87	66.4898	6963.87	66.2938	6963.87	64.6738	6963.87	64.2628	6963.87	63.2039	6963.87	62.9611	6963.87	64.5434	6963.87	59.4711	6963.87	62.1873	6963.87	54.9701	6963.87	54.0503	6963.87	56.2142	6963.87	61.9524	6963.87	62.0117	6963.87	61.2422	6963.87	56.1062	6963.87	62.9734	6963.87	57.2197
7209.96	85.707	7209.96	85.9493	7209.96	86.2135	7209.96	86.2185	7209.96	86.1654	7209.96	84.796	7209.96	84.9119	7209.96	83.6601	7209.96	84.5797	7209.96	81.7545	7209.96	81.8246	7209.96	79.5321	7209.96	78.4027	7209.96	76.1143	7209.96	77.6011	7209.96	72.0078	7209.96	71.3823	7209.96	70.4291	7209.96	68.0924	7209.96	66.4029	7209.96	65.4598	7209.96	64.9558	7209.96	66.2844	7209.96	62.7579	7209.96	63.793	7209.96	60.6881	7209.96	51.8794	7209.96	57.4866	7209.96	61.23	7209.96	57.2203	7209.96	48.226	7209.96	58.8475	7209.96	49.0781	7209.96	68.9734	7209.96	65.8569	7209.96	63.6193
7464.84	85.9979	7464.84	86.7282	7464.84	86.1553	7464.84	86.3868	7464.84	86.5293	7464.84	84.9562	7464.84	84.4238	7464.84	83.3269	7464.84	84.1611	7464.84	81.485	7464.84	80.9694	7464.84	79.2316	7464.84	79.2368	7464.84	76.3865	7464.84	77.4401	7464.84	74.026	7464.84	69.8865	7464.84	69.4054	7464.84	68.9429	7464.84	67.3212	7464.84	68.698	7464.84	64.6727	7464.84	64.9455	7464.84	62.3225	7464.84	62.7325	7464.84	59.3957	7464.84	62.1698	7464.84	60.173	7464.84	62.4077	7464.84	59.6804	7464.84	59.0181	7464.84	61.8848	7464.84	61.9627	7464.84	50.3803	7464.84	58.6322	7464.84	66.4559
7727.05	86.4091	7727.05	86.9862	7727.05	86.5413	7727.05	86.152	7727.05	86.0837	7727.05	84.4807	7727.05	84.3238	7727.05	82.7632	7727.05	83.426	7727.05	81.042	7727.05	79.2769	7727.05	79.0944	7727.05	80.9149	7727.05	77.3345	7727.05	76.2298	7727.05	73.4787	7727.05	73.5145	7727.05	70.6125	7727.05	72.9415	7727.05	68.2222	7727.05	68.7977	7727.05	65.775	7727.05	65.6046	7727.05	64.6583	7727.05	64.7367	7727.05	58.5813	7727.05	61.9863	7727.05	59.0412	7727.05	49.6499	7727.05	56.3755	7727.05	55.2009	7727.05	62.9918	7727.05	61.8769	7727.05	68.9264	7727.05	63.354	7727.05	58.4269
7999.51	86.5368	7999.51	86.4108	7999.51	86.5562	7999.51	86.146	7999.51	85.9698	7999.51	84.2273	7999.51	84.2895	7999.51	82.3467	7999.51	82.9549	7999.51	81.0524	7999.51	79.5276	7999.51	80.0669	7999.51	82.1791	7999.51	76.7359	7999.51	76.4316	7999.51	74.6475	7999.51	74.8667	7999.51	70.6813	7999.51	72.2356	7999.51	67.3448	7999.51	66.6929	7999.51	64.8697	7999.51	63.9409	7999.51	63.5429	7999.51	59.7795	7999.51	61.8169	7999.51	63.6121	7999.51	56.9442	7999.51	61.1497	7999.51	58.5421	7999.51	60.7332	7999.51	59.3436	7999.51	59.0128	7999.51	47.9199	7999.51	64.2566	7999.51	64.612
8282.23	86.133	8282.23	85.9158	8282.23	86.0058	8282.23	85.604	8282.23	85.4458	8282.23	84.2043	8282.23	84.1828	8282.23	81.9318	8282.23	82.6232	8282.23	81.1347	8282.23	80.9792	8282.23	79.9299	8282.23	81.5914	8282.23	77.7888	8282.23	76.2406	8282.23	73.3852	8282.23	74.8205	8282.23	70.2325	8282.23	69.8079	8282.23	66.4566	8282.23	65.9686	8282.23	65.2478	8282.23	63.4218	8282.23	62.8324	8282.23	61.7235	8282.23	60.2678	8282.23	61.7366	8282.23	59.6399	8282.23	61.4439	8282.23	56.5987	8282.23	56.6797	8282.23	63.7881	8282.23	62.1854	8282.23	66.8282	8282.23	57.8551	8282.23	52.8827
8573.73	85.8147	8573.73	85.3474	8573.73	85.9902	8573.73	85.5201	8573.73	85.0025	8573.73	83.8721	8573.73	83.8716	8573.73	81.9695	8573.73	81.9405	8573.73	80.96	8573.73	82.2009	8573.73	79.6307	8573.73	79.4635	8573.73	76.3024	8573.73	75.5786	8573.73	71.7998	8573.73	73.5463	8573.73	68.3995	8573.73	66.571	8573.73	65.7558	8573.73	61.4029	8573.73	62.3204	8573.73	62.7835	8573.73	59.6112	8573.73	60.8575	8573.73	58.0314	8573.73	54.4387	8573.73	56.3353	8573.73	62.0076	8573.73	41.0122	8573.73	57.318	8573.73	47.2705	8573.73	60.1411	8573.73	52.3019	8573.73	63.8001	8573.73	61.1807
8876.95	86.1956	8876.95	85.6623	8876.95	85.6876	8876.95	85.2439	8876.95	85.4227	8876.95	83.7189	8876.95	83.7575	8876.95	82.0469	8876.95	81.2837	8876.95	80.7325	8876.95	82.645	8876.95	78.2468	8876.95	76.3492	8876.95	74.4405	8876.95	75.4926	8876.95	70.5759	8876.95	69.5558	8876.95	67.3121	8876.95	67.2084	8876.95	63.1884	8876.95	66.3129	8876.95	61.0394	8876.95	61.087	8876.95	57.8277	8876.95	60.9552	8876.95	57.5896	8876.95	62.0964	8876.95	56.9309	8876.95	60.7306	8876.95	52.7681	8876.95	48.9333	8876.95	61.7575	8876.95	35.6739	8876.95	62.6378	8876.95	40.5034	8876.95	58.0763
9188.96	86.5599	9188.96	85.5735	9188.96	85.6632	9188.96	85.4813	9188.96	85.7924	9188.96	84.136	9188.96	84.1241	9188.96	81.8312	9188.96	81.1999	9188.96	79.6279	9188.96	81.9696	9188.96	77.1688	9188.96	75.4867	9188.96	74.3026	9188.96	75.4837	9188.96	70.2597	9188.96	69.6373	9188.96	67.8588	9188.96	68.1041	9188.96	64.4795	9188.96	64.593	9188.96	62.2921	9188.96	61.4451	9188.96	60.5598	9188.96	56.99	9188.96	60.0687	9188.96	62.2472	9188.96	59.2775	9188.96	53.4554	9188.96	54.0018	9188.96	55.0423	9188.96	52.5895	9188.96	55.9096	9188.96	58.3074	9188.96	64.2703	9188.96	57.9862
9514.16	86.9305	9514.16	85.9588	9514.16	85.9473	9514.16	85.4673	9514.16	85.5392	9514.16	84.4346	9514.16	84.1398	9514.16	81.3255	9514.16	81.4417	9514.16	78.4767	9514.16	79.5456	9514.16	76.8089	9514.16	77.1559	9514.16	74.35	9514.16	74.6067	9514.16	71.221	9514.16	71.0326	9514.16	67.2554	9514.16	66.2797	9514.16	63.6436	9514.16	63.5596	9514.16	61.7853	9514.16	60.6828	9514.16	59.5659	9514.16	59.476	9514.16	60.0599	9514.16	58.9096	9514.16	58.575	9514.16	58.6903	9514.16	52.8313	9514.16	40.4488	9514.16	51.4075	9514.16	50.9722	9514.16	49.4784	9514.16	54.5031	9514.16	53.0968
9849.61	87.0774	9849.61	86.058	9849.61	85.8314	9849.61	85.347	9849.61	85.0187	9849.61	84.2391	9849.61	83.8616	9849.61	81.095	9849.61	81.4323	9849.61	78.1262	9849.61	77.5463	9849.61	76.4729	9849.61	77.1989	9849.61	73.3604	9849.61	73.9945	9849.61	69.6053	9849.61	69.685	9849.61	65.0761	9849.61	66.1069	9849.61	62.3058	9849.61	64.2014	9849.61	60.2399	9849.61	60.3478	9849.61	59.8062	9849.61	57.5673	9849.61	59.5655	9849.61	59.9285	9849.61	58.8955	9849.61	56.9402	9849.61	50.6433	9849.61	56.7854	9849.61	54.1777	9849.61	56.8466	9849.61	60.596	9849.61	55.9791	9849.61	51.9057
10196.8	87.4341	10196.8	86.4485	10196.8	86.2567	10196.8	84.9841	10196.8	85.0711	10196.8	83.9602	10196.8	83.506	10196.8	81.028	10196.8	81.1566	10196.8	77.743	10196.8	75.7747	10196.8	75.1923	10196.8	75.3758	10196.8	71.6295	10196.8	72.177	10196.8	66.5297	10196.8	66.3321	10196.8	64.3518	10196.8	63.4487	10196.8	59.6368	10196.8	58.3032	10196.8	56.1492	10196.8	58.5063	10196.8	56.6208	10196.8	55.3164	10196.8	57.2039	10196.8	56.828	10196.8	57.0942	10196.8	57.3886	10196.8	53.2104	10196.8	49.5467	10196.8	49.6917	10196.8	48.0029	10196.8	55.2865	10196.8	48.5031	10196.8	49.3863
10555.7	87.0889	10555.7	86.8369	10555.7	86.5373	10555.7	85.3322	10555.7	85.3204	10555.7	83.4598	10555.7	82.682	10555.7	80.4157	10555.7	80.6665	10555.7	77.1455	10555.7	75.6767	10555.7	74.1342	10555.7	73.4528	10555.7	70.3336	10555.7	68.1455	10555.7	65.8318	10555.7	65.1215	10555.7	62.7882	10555.7	62.7214	10555.7	59.8876	10555.7	55.2434	10555.7	56.2162	10555.7	52.0832	10555.7	55.2804	10555.7	53.1264	10555.7	55.9549	10555.7	50.7375	10555.7	55.7429	10555.7	55.5788	10555.7	55.1776	10555.7	47.4187	10555.7	50.5034	10555.7	48.3711	10555.7	54.1372	10555.7	53.6054	10555.7	44.3782
10927.7	87.2932	10927.7	87.2319	10927.7	86.699	10927.7	84.9662	10927.7	85.0625	10927.7	83.0495	10927.7	82.0333	10927.7	79.9578	10927.7	79.5594	10927.7	76.6572	10927.7	75.9401	10927.7	73.6833	10927.7	72.5675	10927.7	69.6972	10927.7	67.443	10927.7	65.6966	10927.7	65.6816	10927.7	61.7901	10927.7	58.6202	10927.7	59.9069	10927.7	58.8344	10927.7	55.2778	10927.7	57.0862	10927.7	53.7692	10927.7	56.8207	10927.7	51.0039	10927.7	53.4533	10927.7	54.2262	10927.7	51.822	10927.7	54.7008	10927.7	55.5222	10927.7	50.3472	10927.7	49.2671	10927.7	52.2828	10927.7	55.015	10927.7	47.286
11313	87.5572	11313	87.4924	11313	87.2053	11313	85.3192	11313	85.3312	11313	83.1405	11313	82.2612	11313	79.6536	11313	79.0372	11313	76.192	11313	75.8482	11313	72.7727	11313	72.1112	11313	68.4321	11313	68.831	11313	64.6415	11313	63.405	11313	61.0697	11313	59.932	11313	58.8971	11313	59.7149	11313	55.7172	11313	54.4111	11313	53.9638	11313	50.9678	11313	50.4452	11313	50.6469	11313	53.0558	11313	48.7222	11313	53.8957	11313	49.9696	11313	50.0365	11313	46.7232	11313	50.8782	11313	51.8806	11313	41.8947
11712.9	87.6075	11712.9	87.7056	11712.9	87.5602	11712.9	85.3891	11712.9	85.4582	11712.9	83.1734	11712.9	82.6294	11712.9	79.4708	11712.9	78.8412	11712.9	76.0017	11712.9	75.4263	11712.9	72.4503	11712.9	70.2106	11712.9	68.528	11712.9	69.4875	11712.9	64.5776	11712.9	62.8754	11712.9	61.4902	11712.9	61.5852	11712.9	57.5741	11712.9	56.4471	11712.9	55.7221	11712.9	53.1387	11712.9	52.3025	11712.9	51.4911	11712.9	53.2304	11712.9	55.6659	11712.9	49.2675	11712.9	52.7914	11712.9	54.2813	11712.9	49.7609	11712.9	51.3203	11712.9	48.8641	11712.9	52.779	11712.9	46.6543	11712.9	51.7753
12126	87.8826	12126	87.6081	12126	87.2627	12126	85.585	12126	85.5079	12126	83.0857	12126	82.8444	12126	79.4865	12126	78.7733	12126	75.5757	12126	75.7727	12126	72.6103	12126	69.178	12126	68.866	12126	68.664	12126	64.3971	12126	65.8292	12126	61.2692	12126	61.5812	12126	58.0546	12126	55.6997	12126	54.7187	12126	54.5933	12126	51.478	12126	51.5648	12126	53.1732	12126	48.1125	12126	49.6951	12126	49.3709	12126	53.6863	12126	54.561	12126	52.4654	12126	54.669	12126	51.1232	12126	55.1703	12126	47.3805
12553.7	88.1218	12553.7	87.671	12553.7	87.2847	12553.7	85.7107	12553.7	85.3911	12553.7	83.2393	12553.7	82.6151	12553.7	79.3367	12553.7	77.9833	12553.7	75.1049	12553.7	74.8377	12553.7	72.8058	12553.7	71.952	12553.7	68.5243	12553.7	67.7316	12553.7	63.9221	12553.7	63.2999	12553.7	60.1948	12553.7	57.4144	12553.7	57.5709	12553.7	56.2934	12553.7	54.5633	12553.7	53.2767	12553.7	50.7	12553.7	50.2168	12553.7	51.1545	12553.7	52.7024	12553.7	49.0405	12553.7	54.9018	12553.7	53.1348	12553.7	54.5117	12553.7	51.7827	12553.7	53.0159	12553.7	52.304	12553.7	52.0069	12553.7	38.3562
12996.1	88.1827	12996.1	87.4765	12996.1	87.2798	12996.1	85.7184	12996.1	85.4804	12996.1	83.0403	12996.1	82.0036	12996.1	79.5682	12996.1	77.9043	12996.1	75.1046	12996.1	73.5118	12996.1	72.1756	12996.1	72.3801	12996.1	67.8747	12996.1	66.9705	12996.1	63.6684	12996.1	63.6446	12996.1	60.4731	12996.1	57.8743	12996.1	55.8593	12996.1	56.534	12996.1	53.8971	12996.1	52.0312	12996.1	52.5913	12996.1	45.7433	12996.1	53.4129	12996.1	49.8096	12996.1	49.5757	12996.1	46.341	12996.1	51.9381	12996.1	51.6546	12996.1	50.9059	12996.1	47.9752	12996.1	49.459	12996.1	52.4399	12996.1	47.2267
13454.6	88.2489	13454.6	87.3522	13454.6	86.8193	13454.6	85.5588	13454.6	85.4827	13454.6	82.7777	13454.6	82.0824	13454.6	79.2921	13454.6	78.1598	13454.6	75.0916	13454.6	72.2648	13454.6	71.7188	13454.6	70.5804	13454.6	67.9526	13454.6	66.5348	13454.6	63.6664	13454.6	62.6943	13454.6	59.2382	13454.6	57.9653	13454.6	56.1259	13454.6	51.8002	13454.6	52.5333	13454.6	53.555	13454.6	51.7698	13454.6	50.9526	13454.6	51.2608	13454.6	49.1177	13454.6	49.3062	13454.6	49.867	13454.6	51.6661	13454.6	43.3228	13454.6	51.0616	13454.6	46.8144	13454.6	50.8715	13454.6	52.1812	13454.6	44.1057
13929.2	88.1158	13929.2	87.4563	13929.2	87.0158	13929.2	85.498	13929.2	85.0285	13929.2	82.6743	13929.2	81.5162	13929.2	78.9964	13929.2	78.0158	13929.2	74.7048	13929.2	73.4322	13929.2	71.1545	13929.2	66.8636	13929.2	67.446	13929.2	66.643	13929.2	63.7614	13929.2	61.1223	13929.2	58.4174	13929.2	60.2782	13929.2	54.3256	13929.2	55.8243	13929.2	52.2599	13929.2	50.1895	13929.2	51.5449	13929.2	47.9849	13929.2	50.6145	13929.2	48.7576	13929.2	51.5958	13929.2	49.8175	13929.2	51.62	13929.2	50.3156	13929.2	43.8031	13929.2	51.6728	13929.2	39.4492	13929.2	53.8327	13929.2	42.7089
14419.9	88.1772	14419.9	87.4679	14419.9	87.1143	14419.9	85.3723	14419.9	85.2427	14419.9	82.3016	14419.9	80.4319	14419.9	78.4004	14419.9	77.9252	14419.9	73.9298	14419.9	72.9027	14419.9	70.8734	14419.9	67.993	14419.9	67.0793	14419.9	67.6212	14419.9	63.3979	14419.9	63.552	14419.9	58.5635	14419.9	58.3369	14419.9	54.1938	14419.9	52.5659	14419.9	51.5204	14419.9	50.87	14419.9	48.9947	14419.9	44.2268	14419.9	49.0574	14419.9	49.6703	14419.9	51.9221	14419.9	48.9176	14419.9	50.8237	14419.9	49.9469	14419.9	44.4328	14419.9	51.5165	14419.9	41.6361	14419.9	44.8257	14419.9	45.8829
14928.2	88.1954	14928.2	87.5936	14928.2	87.0529	14928.2	85.3018	14928.2	85.2841	14928.2	82.1621	14928.2	79.9886	14928.2	78.4614	14928.2	77.436	14928.2	73.3454	14928.2	73.0318	14928.2	71.0244	14928.2	70.1264	14928.2	67.0049	14928.2	65.2142	14928.2	63.7777	14928.2	63.392	14928.2	57.9246	14928.2	56.6996	14928.2	54.3018	14928.2	55.4564	14928.2	50.571	14928.2	52.6902	14928.2	47.0098	14928.2	51.4319	14928.2	46.259	14928.2	49.9534	14928.2	51.7477	14928.2	48.146	14928.2	52.287	14928.2	49.8768	14928.2	42.7865	14928.2	49.7553	14928.2	42.5072	14928.2	45.5667	14928.2	34.7369
15455.6	87.8577	15455.6	87.3244	15455.6	87.1165	15455.6	84.9445	15455.6	84.5101	15455.6	81.4715	15455.6	80.2798	15455.6	77.6549	15455.6	75.6343	15455.6	72.854	15455.6	72.3191	15455.6	70.3029	15455.6	70.3686	15455.6	66.2073	15455.6	66.7425	15455.6	62.2237	15455.6	62.2135	15455.6	57.7639	15455.6	57.4636	15455.6	51.7571	15455.6	54.4875	15455.6	50.5309	15455.6	46.5978	15455.6	46.3525	15455.6	45.3407	15455.6	42.6473	15455.6	47.7423	15455.6	49.3487	15455.6	48.3808	15455.6	51.9842	15455.6	47.4732	15455.6	45.2018	15455.6	49.2576	15455.6	37.6751	15455.6	47.8309	15455.6	38.8589
16000.5	87.332	16000.5	86.7524	16000.5	86.1456	16000.5	83.9257	16000.5	83.5649	16000.5	80.2766	16000.5	79.3563	16000.5	75.9168	16000.5	73.9575	16000.5	71.7471	16000.5	70.6605	16000.5	69.3126	16000.5	70.1895	16000.5	65.4997	16000.5	67.5759	16000.5	62.1618	16000.5	62.3929	16000.5	57.2189	16000.5	57.353	16000.5	53.3472	16000.5	53.3256	16000.5	51.2609	16000.5	53.7173	16000.5	44.9191	16000.5	48.8991	16000.5	40.8079	16000.5	50.0847	16000.5	48.8704	16000.5	51.7752	16000.5	51.7694	16000.5	45.9575	16000.5	46.1702	16000.5	50.3131	16000.5	38.8225	16000.5	51.3362	16000.5	40.5361
16564.5	86.3102	16564.5	85.4847	16564.5	85.0658	16564.5	82.7854	16564.5	82.6755	16564.5	79.0186	16564.5	77.4066	16564.5	75.2337	16564.5	73.4688	16564.5	70.7357	16564.5	70.2344	16564.5	68.8241	16564.5	68.5073	16564.5	65.1837	16564.5	66.717	16564.5	61.995	16564.5	62.1222	16564.5	56.7542	16564.5	58.1524	16564.5	53.0258	16564.5	53.1935	16564.5	49.2108	16564.5	51.7066	16564.5	45.5115	16564.5	46.8006	16564.5	43.4326	16564.5	43.4329	16564.5	47.121	16564.5	50.5334	16564.5	50.3281	16564.5	51.3708	16564.5	38.9885	16564.5	50.1497	16564.5	40.0179	16564.5	47.7533	16564.5	37.203
17148.9	85.2926	17148.9	84.2558	17148.9	83.4349	17148.9	81.9377	17148.9	81.2287	17148.9	78.0273	17148.9	75.8958	17148.9	74.147	17148.9	73.3246	17148.9	69.77	17148.9	70.4775	17148.9	67.8371	17148.9	66.7358	17148.9	65.0336	17148.9	64.4105	17148.9	60.8765	17148.9	61.6862	17148.9	55.7161	17148.9	57.7184	17148.9	51.2659	17148.9	53.9675	17148.9	48.2361	17148.9	46.9669	17148.9	44.7468	17148.9	43.7665	17148.9	43.3639	17148.9	44.6314	17148.9	46.676	17148.9	50.9385	17148.9	49.187	17148.9	47.6512	17148.9	33.6526	17148.9	48.3449	17148.9	24.9225	17148.9	49.1921	17148.9	35.6934
17752.4	85.5244	17752.4	84.7162	17752.4	84.063	17752.4	82.2522	17752.4	81.4509	17752.4	78.7045	17752.4	76.3926	17752.4	73.1607	17752.4	73.334	17752.4	67.2195	17752.4	68.9557	17752.4	65.5331	17752.4	65.9684	17752.4	61.2358	17752.4	61.7235	17752.4	56.743	17752.4	57.0351	17752.4	52.2877	17752.4	49.9281	17752.4	48.5458	17752.4	49.7224	17752.4	46.1202	17752.4	47.4833	17752.4	43.9799	17752.4	43.4301	17752.4	45.4435	17752.4	40.0303	17752.4	43.1074	17752.4	45.9644	17752.4	46.0507	17752.4	47.887	17752.4	33.9415	17752.4	37.5834	17752.4	34.3905	17752.4	42.3463	17752.4	30.2204
18379.4	85.8816	18379.4	85.4777	18379.4	84.6967	18379.4	82.6955	18379.4	82.1763	18379.4	79.2638	18379.4	77.2802	18379.4	72.7658	18379.4	71.6585	18379.4	66.1521	18379.4	67.4631	18379.4	61.7858	18379.4	62.3387	18379.4	58.9446	18379.4	60.8476	18379.4	57.1487	18379.4	57.5896	18379.4	52.2106	18379.4	53.177	18379.4	46.1156	18379.4	50.8714	18379.4	45.7069	18379.4	43.6296	18379.4	44.1648	18379.4	42.8521	18379.4	45.6143	18379.4	37.6542	18379.4	38.9316	18379.4	43.6825	18379.4	43.8788	18379.4	48.4074	18379.4	32.1361	18379.4	45.8802	18379.4	29.6778	18379.4	40.9334	18379.4	33.2088
19026.9	86.1184	19026.9	85.9324	19026.9	85.0682	19026.9	82.7168	19026.9	81.9406	19026.9	78.6685	19026.9	77.5528	19026.9	72.6568	19026.9	71.2545	19026.9	64.0799	19026.9	64.4086	19026.9	60.7468	19026.9	60.5256	19026.9	60.0329	19026.9	58.8643	19026.9	57.7066	19026.9	55.6668	19026.9	50.8458	19026.9	52.2517	19026.9	46.1121	19026.9	45.2215	19026.9	45.1702	19026.9	45.169	19026.9	38.7664	19026.9	38.8865	19026.9	48.5778	19026.9	34.2587	19026.9	29.06	19026.9	39.7703	19026.9	43.3899	19026.9	46.9225	19026.9	28.422	19026.9	43.4996	19026.9	34.3237	19026.9	45.1509	19026.9	25.4809
19697.8	86.1219	19697.8	85.7671	19697.8	84.5638	19697.8	82.6925	19697.8	81.5997	19697.8	77.4776	19697.8	75.1807	19697.8	69.6604	19697.8	69.3408	19697.8	57.5389	19697.8	59.1438	19697.8	59.9502	19697.8	57.7472	19697.8	59.7624	19697.8	58.6718	19697.8	56.9284	19697.8	54.972	19697.8	50.7909	19697.8	45.957	19697.8	45.6293	19697.8	46.2893	19697.8	44.1439	19697.8	43.0638	19697.8	41.7865	19697.8	32.8574	19697.8	49.0891	19697.8	39.6968	19697.8	35.8453	19697.8	44.8041	19697.8	43.0082	19697.8	39.6853	19697.8	39.7168	19697.8	31.5705	19697.8	42.9108	19697.8	43.2822	19697.8	40.0386
19999.5	86.0079	19999.5	85.4138	19999.5	84.0741	19999.5	81.9933	19999.5	81.0224	19999.5	76.7441	19999.5	74.8113	19999.5	66.9037	19999.5	66.9585	19999.5	51.3166	19999.5	57.5267	19999.5	62.488	19999.5	57.1004	19999.5	57.429	19999.5	56.9393	19999.5	53.8907	19999.5	51.3545	19999.5	48.2708	19999.5	49.3546	19999.5	48.143	19999.5	47.2497	19999.5	50.9647	19999.5	51.2229	19999.5	39.322	19999.5	38.7154	19999.5	53.3481	19999.5	42.6165	19999.5	46.2296	19999.5	40.7839	19999.5	52.7721	19999.5	51.3573	19999.5	36.5673	19999.5	50.6881	19999.5	49.0688	19999.5	46.2491	19999.5	34.5171
