"SPL Vertical"
"On-Axis"		"10°"		"-10°"		"20°"		"-20°"		"30°"		"-30°"		"40°"		"-40°"		"50°"		"-50°"		"60°"		"-60°"		"70°"		"-70°"		"80°"		"-80°"		"90°"		"-90°"		"100°"		"-100°"		"110°"		"-110°"		"120°"		"-120°"		"130°"		"-130°"		"140°"		"-140°"		"150°"		"-150°"		"160°"		"-160°"		"170°"		"-170°"		"180°"
"Frequency / Hz"	"Sound Pressure Level / dB (re 20 µPa/V)  [2.83V at 1m]"	"Frequency / Hz"	"Sound Pressure Level / dB (re 20 µPa/V)  [2.83V at 1m]"	"Frequency / Hz"	"Sound Pressure Level / dB (re 20 µPa/V)  [2.83V at 1m]"	"Frequency / Hz"	"Sound Pressure Level / dB (re 20 µPa/V)  [2.83V at 1m]"	"Frequency / Hz"	"Sound Pressure Level / dB (re 20 µPa/V)  [2.83V at 1m]"	"Frequency / Hz"	"Sound Pressure Level / dB (re 20 µPa/V)  [2.83V at 1m]"	"Frequency / Hz"	"Sound Pressure Level / dB (re 20 µPa/V)  [2.83V at 1m]"	"Frequency / Hz"	"Sound Pressure Level / dB (re 20 µPa/V)  [2.83V at 1m]"	"Frequency / Hz"	"Sound Pressure Level / dB (re 20 µPa/V)  [2.83V at 1m]"	"Frequency / Hz"	"Sound Pressure Level / dB (re 20 µPa/V)  [2.83V at 1m]"	"Frequency / Hz"	"Sound Pressure Level / dB (re 20 µPa/V)  [2.83V at 1m]"	"Frequency / Hz"	"Sound Pressure Level / dB (re 20 µPa/V)  [2.83V at 1m]"	"Frequency / Hz"	"Sound Pressure Level / dB (re 20 µPa/V)  [2.83V at 1m]"	"Frequency / Hz"	"Sound Pressure Level / dB (re 20 µPa/V)  [2.83V at 1m]"	"Frequency / Hz"	"Sound Pressure Level / dB (re 20 µPa/V)  [2.83V at 1m]"	"Frequency / Hz"	"Sound Pressure Level / dB (re 20 µPa/V)  [2.83V at 1m]"	"Frequency / Hz"	"Sound Pressure Level / dB (re 20 µPa/V)  [2.83V at 1m]"	"Frequency / Hz"	"Sound Pressure Level / dB (re 20 µPa/V)  [2.83V at 1m]"	"Frequency / Hz"	"Sound Pressure Level / dB (re 20 µPa/V)  [2.83V at 1m]"	"Frequency / Hz"	"Sound Pressure Level / dB (re 20 µPa/V)  [2.83V at 1m]"	"Frequency / Hz"	"Sound Pressure Level / dB (re 20 µPa/V)  [2.83V at 1m]"	"Frequency / Hz"	"Sound Pressure Level / dB (re 20 µPa/V)  [2.83V at 1m]"	"Frequency / Hz"	"Sound Pressure Level / dB (re 20 µPa/V)  [2.83V at 1m]"	"Frequency / Hz"	"Sound Pressure Level / dB (re 20 µPa/V)  [2.83V at 1m]"	"Frequency / Hz"	"Sound Pressure Level / dB (re 20 µPa/V)  [2.83V at 1m]"	"Frequency / Hz"	"Sound Pressure Level / dB (re 20 µPa/V)  [2.83V at 1m]"	"Frequency / Hz"	"Sound Pressure Level / dB (re 20 µPa/V)  [2.83V at 1m]"	"Frequency / Hz"	"Sound Pressure Level / dB (re 20 µPa/V)  [2.83V at 1m]"	"Frequency / Hz"	"Sound Pressure Level / dB (re 20 µPa/V)  [2.83V at 1m]"	"Frequency / Hz"	"Sound Pressure Level / dB (re 20 µPa/V)  [2.83V at 1m]"	"Frequency / Hz"	"Sound Pressure Level / dB (re 20 µPa/V)  [2.83V at 1m]"	"Frequency / Hz"	"Sound Pressure Level / dB (re 20 µPa/V)  [2.83V at 1m]"	"Frequency / Hz"	"Sound Pressure Level / dB (re 20 µPa/V)  [2.83V at 1m]"	"Frequency / Hz"	"Sound Pressure Level / dB (re 20 µPa/V)  [2.83V at 1m]"	"Frequency / Hz"	"Sound Pressure Level / dB (re 20 µPa/V)  [2.83V at 1m]"	"Frequency / Hz"	"Sound Pressure Level / dB (re 20 µPa/V)  [2.83V at 1m]"
20.5078	52.4119	20.5078	52.775	20.5078	52.152	20.5078	53.1671	20.5078	52.0786	20.5078	53.54	20.5078	52.2386	20.5078	53.8686	20.5078	52.5993	20.5078	54.1427	20.5078	53.057	20.5078	54.36	20.5078	53.5012	20.5078	54.5221	20.5078	53.8709	20.5078	54.6317	20.5078	54.1579	20.5078	54.692	20.5078	54.3664	20.5078	54.7057	20.5078	54.4878	20.5078	54.6758	20.5078	54.516	20.5078	54.6056	20.5078	54.4613	20.5078	54.4999	20.5078	54.3427	20.5078	54.3656	20.5078	54.1838	20.5078	54.2137	20.5078	54.0186	20.5078	54.0605	20.5078	53.8879	20.5078	53.928	20.5078	53.8251	20.5078	53.8418
21.9727	52.6677	21.9727	53.3384	21.9727	51.8465	21.9727	53.8725	21.9727	50.8716	21.9727	54.2873	21.9727	49.7644	21.9727	54.5988	21.9727	48.5869	21.9727	54.8212	21.9727	47.444	21.9727	54.9656	21.9727	46.4436	21.9727	55.0405	21.9727	45.6382	21.9727	55.052	21.9727	45.0404	21.9727	55.0037	21.9727	44.6957	21.9727	54.8973	21.9727	44.6774	21.9727	54.7323	21.9727	45.0262	21.9727	54.5064	21.9727	45.7189	21.9727	54.2153	21.9727	46.6572	21.9727	53.8529	21.9727	47.7087	21.9727	53.4117	21.9727	48.7689	21.9727	52.8831	21.9727	49.7775	21.9727	52.2589	21.9727	50.704	21.9727	51.533
23.4375	50.9086	23.4375	52.0976	23.4375	49.3401	23.4375	52.997	23.4375	47.2841	23.4375	53.6726	23.4375	44.7024	23.4375	54.1711	23.4375	42.107	23.4375	54.5258	23.4375	41.2782	23.4375	54.7604	23.4375	42.4844	23.4375	54.8915	23.4375	43.7884	23.4375	54.9305	23.4375	44.4283	23.4375	54.8841	23.4375	44.4248	23.4375	54.7559	23.4375	43.9929	23.4375	54.5461	23.4375	43.4638	23.4375	54.2517	23.4375	43.2891	23.4375	53.8673	23.4375	43.8082	23.4375	53.3845	23.4375	44.9353	23.4375	52.7921	23.4375	46.3353	23.4375	52.0769	23.4375	47.751	23.4375	51.2244	23.4375	49.061	23.4375	50.2215
24.9023	53.2578	24.9023	54.2793	24.9023	51.9489	24.9023	55.0646	24.9023	50.3117	24.9023	55.6583	24.9023	48.3781	24.9023	56.0957	24.9023	46.4283	24.9023	56.4035	24.9023	45.1695	24.9023	56.6017	24.9023	45.0934	24.9023	56.7045	24.9023	45.6391	24.9023	56.7216	24.9023	46.0905	24.9023	56.659	24.9023	46.1988	24.9023	56.5193	24.9023	46.0091	24.9023	56.3025	24.9023	45.7217	24.9023	56.0055	24.9023	45.6563	24.9023	55.6227	24.9023	46.1051	24.9023	55.1458	24.9023	47.0837	24.9023	54.5641	24.9023	48.3574	24.9023	53.8648	24.9023	49.6882	24.9023	53.0344	24.9023	50.9413	24.9023	52.0614
26.3672	51.9433	26.3672	53.3032	26.3672	50.325	26.3672	54.3863	26.3672	48.6764	26.3672	55.2283	26.3672	47.6799	26.3672	55.8707	26.3672	48.0301	26.3672	56.3486	26.3672	49.2973	26.3672	56.6893	26.3672	50.6162	26.3672	56.913	26.3672	51.5753	26.3672	57.0342	26.3672	52.0805	26.3672	57.0628	26.3672	52.1527	26.3672	57.0047	26.3672	51.8608	26.3672	56.8625	26.3672	51.3221	26.3672	56.6361	26.3672	50.727	26.3672	56.3232	26.3672	50.333	26.3672	55.9195	26.3672	50.3559	26.3672	55.4199	26.3672	50.8216	26.3672	54.8195	26.3672	51.5804	26.3672	54.1172	26.3672	52.4536	26.3672	53.3199
27.832	52.781	27.832	53.8867	27.832	51.6979	27.832	54.8626	27.832	50.9718	27.832	55.6679	27.832	50.9808	27.832	56.3059	27.832	51.7163	27.832	56.7933	27.832	52.7544	27.832	57.1483	27.832	53.6889	27.832	57.3867	27.832	54.3088	27.832	57.5211	27.832	54.5426	27.832	57.5604	27.832	54.395	27.832	57.5105	27.832	53.9119	27.832	57.3747	27.832	53.1716	27.832	57.1536	27.832	52.3081	27.832	56.8455	27.832	51.5536	27.832	56.4468	27.832	51.2068	27.832	55.9521	27.832	51.4298	27.832	55.3554	27.832	52.0998	27.832	54.6521	27.832	52.9667	27.832	53.8463
29.2969	56.7045	29.2969	57.3302	29.2969	56.146	29.2969	57.9248	29.2969	55.8032	29.2969	58.4397	29.2969	55.8127	29.2969	58.8568	29.2969	56.1825	29.2969	59.1732	29.2969	56.7541	29.2969	59.3923	29.2969	57.3008	29.2969	59.5195	29.2969	57.6374	29.2969	59.5593	29.2969	57.6558	29.2969	59.515	29.2969	57.3146	29.2969	59.3878	29.2969	56.6189	29.2969	59.1763	29.2969	55.6098	29.2969	58.8767	29.2969	54.3771	29.2969	58.4819	29.2969	53.1103	29.2969	57.9818	29.2969	52.1627	29.2969	57.3627	29.2969	51.9415	29.2969	56.6095	29.2969	52.5156	29.2969	55.7099	29.2969	53.5435	29.2969	54.6686
30.7617	60.1865	30.7617	60.4854	30.7617	59.9513	30.7617	60.7876	30.7617	59.8576	30.7617	61.0559	30.7617	59.9714	30.7617	61.2703	30.7617	60.3011	30.7617	61.4216	30.7617	60.7725	30.7617	61.5061	30.7617	61.2566	30.7617	61.523	30.7617	61.6224	30.7617	61.4719	30.7617	61.7762	30.7617	61.3523	30.7617	61.6748	30.7617	61.1632	30.7617	61.3196	30.7617	60.9022	30.7617	60.7405	30.7617	60.5668	30.7617	59.9838	30.7617	60.154	30.7617	59.1137	30.7617	59.6629	30.7617	58.2287	30.7617	59.0986	30.7617	57.4771	30.7617	58.4796	30.7617	57.0297	30.7617	57.8525	30.7617	56.9875	30.7617	57.3085
32.2266	60.3864	32.2266	60.7816	32.2266	60.1056	32.2266	61.1937	32.2266	60.0605	32.2266	61.5644	32.2266	60.3351	32.2266	61.866	32.2266	60.9067	32.2266	62.0885	32.2266	61.6475	32.2266	62.2306	32.2266	62.3961	32.2266	62.2948	32.2266	63.0196	32.2266	62.2845	32.2266	63.4343	32.2266	62.2029	32.2266	63.6012	32.2266	62.053	32.2266	63.5166	32.2266	61.8373	32.2266	63.2013	32.2266	61.5597	32.2266	62.6946	32.2266	61.2266	32.2266	62.0503	32.2266	60.8504	32.2266	61.3392	32.2266	60.454	32.2266	60.6508	32.2266	60.0775	32.2266	60.0873	32.2266	59.7822	32.2266	59.7388	32.2266	59.6458
33.6914	64.0825	33.6914	64.0992	33.6914	64.1932	33.6914	64.1957	33.6914	64.4653	33.6914	64.3277	33.6914	64.9003	33.6914	64.4618	33.6914	65.4585	33.6914	64.5763	33.6914	66.0699	33.6914	64.6588	33.6914	66.6545	33.6914	64.7034	33.6914	67.14	33.6914	64.7085	33.6914	67.4721	33.6914	64.6754	33.6914	67.619	33.6914	64.6077	33.6914	67.5734	33.6914	64.5111	33.6914	67.3502	33.6914	64.3943	33.6914	66.9803	33.6914	64.2693	33.6914	66.5058	33.6914	64.1527	33.6914	65.9751	33.6914	64.0664	33.6914	65.4395	33.6914	64.0371	33.6914	64.9493	33.6914	64.0933	33.6914	64.5469	33.6914	64.2592
35.1562	68.8762	35.1562	68.5557	35.1562	69.2818	35.1562	68.3224	35.1562	69.7563	35.1562	68.1672	35.1562	70.2696	35.1562	68.0746	35.1562	70.7811	35.1562	68.0273	35.1562	71.2449	35.1562	68.0096	35.1562	71.6155	35.1562	68.009	35.1562	71.8548	35.1562	68.0169	35.1562	71.9391	35.1562	68.0281	35.1562	71.864	35.1562	68.0408	35.1562	71.646	35.1562	68.0555	35.1562	71.3172	35.1562	68.0755	35.1562	70.9165	35.1562	68.1057	35.1562	70.4819	35.1562	68.1529	35.1562	70.046	35.1562	68.2255	35.1562	69.6339	35.1562	68.3327	35.1562	69.2636	35.1562	68.4836	35.1562	68.9462	35.1562	68.6864
36.6211	72.655	36.6211	72.4117	36.6211	72.9429	36.6211	72.2103	36.6211	73.2715	36.6211	72.0444	36.6211	73.6285	36.6211	71.9065	36.6211	73.9918	36.6211	71.7888	36.6211	74.3306	36.6211	71.685	36.6211	74.6081	36.6211	71.5903	36.6211	74.7867	36.6211	71.5016	36.6211	74.8351	36.6211	71.4173	36.6211	74.7362	36.6211	71.3374	36.6211	74.4937	36.6211	71.2638	36.6211	74.1325	36.6211	71.1996	36.6211	73.6919	36.6211	71.1498	36.6211	73.2159	36.6211	71.1212	36.6211	72.7454	36.6211	71.1225	36.6211	72.3125	36.6211	71.164	36.6211	71.9396	36.6211	71.257	36.6211	71.6384	36.6211	71.4122
38.0859	75.8359	38.0859	75.587	38.0859	76.1134	38.0859	75.3688	38.0859	76.4137	38.0859	75.1806	38.0859	76.7257	38.0859	75.0204	38.0859	77.0323	38.0859	74.8852	38.0859	77.3096	38.0859	74.7719	38.0859	77.5294	38.0859	74.6779	38.0859	77.664	38.0859	74.6011	38.0859	77.6934	38.0859	74.5404	38.0859	77.6119	38.0859	74.4952	38.0859	77.4289	38.0859	74.4662	38.0859	77.1642	38.0859	74.455	38.0859	76.8417	38.0859	74.4639	38.0859	76.4862	38.0859	74.4965	38.0859	76.1225	38.0859	74.557	38.0859	75.7734	38.0859	74.6506	38.0859	75.4569	38.0859	74.783	38.0859	75.184	38.0859	74.9596
39.5508	77.4317	39.5508	77.2057	39.5508	77.6772	39.5508	77.0016	39.5508	77.9367	39.5508	76.8197	39.5508	78.2006	39.5508	76.6592	39.5508	78.4542	39.5508	76.5188	39.5508	78.6782	39.5508	76.3972	39.5508	78.8495	39.5508	76.2932	39.5508	78.944	39.5508	76.2059	39.5508	78.9423	39.5508	76.135	39.5508	78.8362	39.5508	76.0804	39.5508	78.6344	39.5508	76.0426	39.5508	78.3604	39.5508	76.0226	39.5508	78.0448	39.5508	76.0221	39.5508	77.7156	39.5508	76.0434	39.5508	77.3945	39.5508	76.0899	39.5508	77.0964	39.5508	76.1652	39.5508	76.8313	39.5508	76.2737	39.5508	76.6049	39.5508	76.4193
41.0156	79.4772	41.0156	79.2398	41.0156	79.7293	41.0156	79.0206	41.0156	79.99	41.0156	78.8212	41.0156	80.25	41.0156	78.6422	41.0156	80.496	41.0156	78.4836	41.0156	80.7109	41.0156	78.345	41.0156	80.8742	41.0156	78.2261	41.0156	80.9645	41.0156	78.1267	41.0156	80.9639	41.0156	78.0468	41.0156	80.8636	41.0156	77.9868	41.0156	80.6693	41.0156	77.9476	41.0156	80.4008	41.0156	77.9303	41.0156	80.0867	41.0156	77.9368	41.0156	79.7555	41.0156	77.9691	41.0156	79.4299	41.0156	78.0299	41.0156	79.1254	41.0156	78.1222	41.0156	78.8513	41.0156	78.2486	41.0156	78.6126	41.0156	78.4117
42.4805	80.7327	42.4805	80.5072	42.4805	80.9643	42.4805	80.2921	42.4805	81.1966	42.4805	80.0906	42.4805	81.4223	42.4805	79.905	42.4805	81.6319	42.4805	79.7372	42.4805	81.8127	42.4805	79.5887	42.4805	81.9492	42.4805	79.4605	42.4805	82.024	42.4805	79.3536	42.4805	82.0211	42.4805	79.2687	42.4805	81.9322	42.4805	79.2067	42.4805	81.7608	42.4805	79.1685	42.4805	81.5232	42.4805	79.1549	42.4805	81.2425	42.4805	79.1673	42.4805	80.9425	42.4805	79.2068	42.4805	80.6428	42.4805	79.2751	42.4805	80.3577	42.4805	79.3739	42.4805	80.097	42.4805	79.5046	42.4805	79.8663	42.4805	79.6685
43.9453	81.8333	43.9453	81.6069	43.9453	82.065	43.9453	81.3902	43.9453	82.2959	43.9453	81.1867	43.9453	82.5177	43.9453	80.9988	43.9453	82.7195	43.9453	80.8286	43.9453	82.888	43.9453	80.6776	43.9453	83.0081	43.9453	80.5474	43.9453	83.0647	43.9453	80.439	43.9453	83.0456	43.9453	80.3535	43.9453	82.9463	43.9453	80.2919	43.9453	82.7724	43.9453	80.255	43.9453	82.5399	43.9453	80.2436	43.9453	82.27	43.9453	80.2588	43.9453	81.984	43.9453	80.3015	43.9453	81.6993	43.9453	80.3726	43.9453	81.4284	43.9453	80.4731	43.9453	81.1795	43.9453	80.6039	43.9453	80.9577	43.9453	80.7655
45.4102	82.3393	45.4102	82.1234	45.4102	82.5572	45.4102	81.9139	45.4102	82.771	45.4102	81.7146	45.4102	82.9733	45.4102	81.5284	45.4102	83.1546	45.4102	81.358	45.4102	83.3033	45.4102	81.2054	45.4102	83.4065	45.4102	81.0724	45.4102	83.4511	45.4102	80.9607	45.4102	83.4268	45.4102	80.8717	45.4102	83.3297	45.4102	80.8065	45.4102	83.1651	45.4102	80.7664	45.4102	82.9471	45.4102	80.7523	45.4102	82.6945	45.4102	80.7651	45.4102	82.4261	45.4102	80.8058	45.4102	82.1573	45.4102	80.875	45.4102	81.8997	45.4102	80.9735	45.4102	81.661	45.4102	81.1017	45.4102	81.4466	45.4102	81.2596
46.875	82.5443	46.875	82.3298	46.875	82.7608	46.875	82.1222	46.875	82.9735	46.875	81.9254	46.875	83.1749	46.875	81.7427	46.875	83.3559	46.875	81.5769	46.875	83.506	46.875	81.4302	46.875	83.6134	46.875	81.3048	46.875	83.6669	46.875	81.2022	46.875	83.6573	46.875	81.124	46.875	83.5807	46.875	81.0711	46.875	83.441	46.875	81.0444	46.875	83.2493	46.875	81.0448	46.875	83.0216	46.875	81.0726	46.875	82.7741	46.875	81.1283	46.875	82.521	46.875	81.2121	46.875	82.2731	46.875	81.3241	46.875	82.0386	46.875	81.4639	46.875	81.8232	46.875	81.6307
48.3398	82.6301	48.3398	82.4305	48.3398	82.8329	48.3398	82.2392	48.3398	83.0331	48.3398	82.0602	48.3398	83.2236	48.3398	81.8971	48.3398	83.3962	48.3398	81.7527	48.3398	83.5417	48.3398	81.6296	48.3398	83.6501	48.3398	81.5296	48.3398	83.7121	48.3398	81.4542	48.3398	83.7211	48.3398	81.4046	48.3398	83.6745	48.3398	81.3813	48.3398	83.5758	48.3398	81.3846	48.3398	83.4337	48.3398	81.4142	48.3398	83.26	48.3398	81.4697	48.3398	83.0668	48.3398	81.5502	48.3398	82.8644	48.3398	81.6543	48.3398	82.6606	48.3398	81.7805	48.3398	82.4611	48.3398	81.9268	48.3398	82.27	48.3398	82.0908
51.2695	83.0225	51.2695	82.8237	51.2695	83.2142	51.2695	82.6245	51.2695	83.3912	51.2695	82.4307	51.2695	83.5455	51.2695	82.2476	51.2695	83.6684	51.2695	82.0799	51.2695	83.7513	51.2695	81.9317	51.2695	83.7871	51.2695	81.8064	51.2695	83.7723	51.2695	81.7065	51.2695	83.7089	51.2695	81.6342	51.2695	83.6047	51.2695	81.5905	51.2695	83.4714	51.2695	81.576	51.2695	83.3205	51.2695	81.5903	51.2695	83.1607	51.2695	81.6322	51.2695	82.9963	51.2695	81.6999	51.2695	82.8294	51.2695	81.7912	51.2695	82.6614	51.2695	81.9032	51.2695	82.4947	51.2695	82.0329	51.2695	82.332	51.2695	82.177
52.7344	83.604	52.7344	83.3969	52.7344	83.7992	52.7344	83.1847	52.7344	83.9751	52.7344	82.9735	52.7344	84.1229	52.7344	82.7685	52.7344	84.2337	52.7344	82.5744	52.7344	84.2979	52.7344	82.3951	52.7344	84.3072	52.7344	82.234	52.7344	84.2555	52.7344	82.0938	52.7344	84.142	52.7344	81.9766	52.7344	83.9723	52.7344	81.884	52.7344	83.7587	52.7344	81.8172	52.7344	83.5176	52.7344	81.7765	52.7344	83.266	52.7344	81.7623	52.7344	83.0181	52.7344	81.7744	52.7344	82.7844	52.7344	81.8124	52.7344	82.5713	52.7344	81.8759	52.7344	82.382	52.7344	81.9647	52.7344	82.2177	52.7344	82.0786
54.1992	83.6397	54.1992	83.4333	54.1992	83.8372	54.1992	83.2246	54.1992	84.0189	54.1992	83.0192	54.1992	84.1772	54.1992	82.8225	54.1992	84.3042	54.1992	82.639	54.1992	84.3918	54.1992	82.4726	54.1992	84.4328	54.1992	82.3266	54.1992	84.4216	54.1992	82.2036	54.1992	84.3557	54.1992	82.1055	54.1992	84.2371	54.1992	82.0336	54.1992	84.0724	54.1992	81.9887	54.1992	83.8721	54.1992	81.971	54.1992	83.6494	54.1992	81.9804	54.1992	83.4174	54.1992	82.0167	54.1992	83.1872	54.1992	82.0792	54.1992	82.9674	54.1992	82.1675	54.1992	82.7639	54.1992	82.2809	54.1992	82.5803	54.1992	82.4188
55.6641	83.7779	55.6641	83.5763	55.6641	83.9697	55.6641	83.3713	55.6641	84.1448	55.6641	83.1688	55.6641	84.2961	55.6641	82.9741	55.6641	84.416	55.6641	82.7922	55.6641	84.4974	55.6641	82.6273	55.6641	84.5341	55.6641	82.483	55.6641	84.522	55.6641	82.3624	55.6641	84.4603	55.6641	82.2678	55.6641	84.3524	55.6641	82.2008	55.6641	84.2053	55.6641	82.1624	55.6641	84.0284	55.6641	82.153	55.6641	83.8315	55.6641	82.1723	55.6641	83.6241	55.6641	82.2197	55.6641	83.4141	55.6641	82.294	55.6641	83.2084	55.6641	82.394	55.6641	83.0121	55.6641	82.5179	55.6641	82.8295	55.6641	82.6638
58.5938	83.9414	58.5938	83.7597	58.5938	84.1125	58.5938	83.573	58.5938	84.2671	58.5938	83.3868	58.5938	84.3993	58.5938	83.2061	58.5938	84.5035	58.5938	83.0357	58.5938	84.5745	58.5938	82.8797	58.5938	84.6074	58.5938	82.7416	58.5938	84.5985	58.5938	82.6245	58.5938	84.5458	58.5938	82.5305	58.5938	84.4495	58.5938	82.4616	58.5938	84.3141	58.5938	82.4187	58.5938	84.1471	58.5938	82.4025	58.5938	83.9585	58.5938	82.4131	58.5938	83.7586	58.5938	82.4502	58.5938	83.5565	58.5938	82.5132	58.5938	83.3594	58.5938	82.6012	58.5938	83.1729	58.5938	82.7129	58.5938	83.0009	58.5938	82.8468
60.0586	84.0584	60.0586	83.8963	60.0586	84.2099	60.0586	83.7293	60.0586	84.3454	60.0586	83.5627	60.0586	84.4589	60.0586	83.4015	60.0586	84.5455	60.0586	83.2503	60.0586	84.6003	60.0586	83.1132	60.0586	84.6202	60.0586	82.9936	60.0586	84.6031	60.0586	82.8944	60.0586	84.5488	60.0586	82.8177	60.0586	84.4597	60.0586	82.7648	60.0586	84.3407	60.0586	82.7365	60.0586	84.1997	60.0586	82.7327	60.0586	84.0456	60.0586	82.7528	60.0586	83.8864	60.0586	82.7956	60.0586	83.728	60.0586	82.8597	60.0586	83.5739	60.0586	82.9431	60.0586	83.4264	60.0586	83.0437	60.0586	83.2875	60.0586	83.1592
62.9883	84.5145	62.9883	84.3439	62.9883	84.6726	62.9883	84.1673	62.9883	84.8116	62.9883	83.9907	62.9883	84.9251	62.9883	83.8199	62.9883	85.0068	62.9883	83.6599	62.9883	85.0516	62.9883	83.5153	62.9883	85.0557	62.9883	83.3897	62.9883	85.0176	62.9883	83.2862	62.9883	84.9388	62.9883	83.2068	62.9883	84.8247	62.9883	83.1528	62.9883	84.6844	62.9883	83.1247	62.9883	84.5296	62.9883	83.1219	62.9883	84.371	62.9883	83.1434	62.9883	84.2156	62.9883	83.1875	62.9883	84.0667	62.9883	83.2519	62.9883	83.9246	62.9883	83.334	62.9883	83.7893	62.9883	83.4313	62.9883	83.661	62.9883	83.5411
64.4531	84.6479	64.4531	84.4741	64.4531	84.8087	64.4531	84.2936	64.4531	84.9497	64.4531	84.1126	64.4531	85.0647	64.4531	83.9369	64.4531	85.1479	64.4531	83.7718	64.4531	85.1941	64.4531	83.6219	64.4531	85.1998	64.4531	83.4912	64.4531	85.1634	64.4531	83.3827	64.4531	85.0862	64.4531	83.2988	64.4531	84.9734	64.4531	83.2409	64.4531	84.8334	64.4531	83.2096	64.4531	84.6769	64.4531	83.2046	64.4531	84.5139	64.4531	83.225	64.4531	84.3516	64.4531	83.269	64.4531	84.1938	64.4531	83.3346	64.4531	84.0423	64.4531	83.4193	64.4531	83.898	64.4531	83.5204	64.4531	83.7619	64.4531	83.6354
67.3828	84.8413	67.3828	84.6689	67.3828	85.0002	67.3828	84.4893	67.3828	85.139	67.3828	84.3088	67.3828	85.2518	67.3828	84.1333	67.3828	85.3329	67.3828	83.968	67.3828	85.3779	67.3828	83.8175	67.3828	85.3842	67.3828	83.6858	67.3828	85.3512	67.3828	83.5759	67.3828	85.2811	67.3828	83.4903	67.3828	85.1788	67.3828	83.4304	67.3828	85.0515	67.3828	83.3969	67.3828	84.9068	67.3828	83.3898	67.3828	84.7514	67.3828	83.4084	67.3828	84.5905	67.3828	83.4515	67.3828	84.428	67.3828	83.5175	67.3828	84.2677	67.3828	83.6042	67.3828	84.1128	67.3828	83.7095	67.3828	83.9663	67.3828	83.831
68.8477	84.9882	68.8477	84.8182	68.8477	85.1437	68.8477	84.6401	68.8477	85.2785	68.8477	84.4602	68.8477	85.3868	68.8477	84.2845	68.8477	85.4637	68.8477	84.1184	68.8477	85.5055	68.8477	83.9668	68.8477	85.5101	68.8477	83.8337	68.8477	85.4778	68.8477	83.7225	68.8477	85.4108	68.8477	83.6357	68.8477	85.3135	68.8477	83.5748	68.8477	85.1921	68.8477	83.5408	68.8477	85.0528	68.8477	83.5336	68.8477	84.9016	68.8477	83.5526	68.8477	84.7433	68.8477	83.5965	68.8477	84.5823	68.8477	83.6636	68.8477	84.4223	68.8477	83.7519	68.8477	84.2668	68.8477	83.8589	68.8477	84.1191	68.8477	83.9822
71.7773	85.1269	71.7773	84.9762	71.7773	85.2623	71.7773	84.8166	71.7773	85.3764	71.7773	84.6545	71.7773	85.4639	71.7773	84.4958	71.7773	85.5204	71.7773	84.3461	71.7773	85.5435	71.7773	84.21	71.7773	85.533	71.7773	84.0916	71.7773	85.4909	71.7773	83.9939	71.7773	85.4219	71.7773	83.9191	71.7773	85.332	71.7773	83.8684	71.7773	85.2274	71.7773	83.8423	71.7773	85.1131	71.7773	83.8404	71.7773	84.9923	71.7773	83.8615	71.7773	84.867	71.7773	83.9041	71.7773	84.7389	71.7773	83.9662	71.7773	84.6103	71.7773	84.0454	71.7773	84.4834	71.7773	84.1393	71.7773	84.3609	71.7773	84.2454
74.707	85.2001	74.707	85.0391	74.707	85.3439	74.707	84.8677	74.707	85.4641	74.707	84.6929	74.707	85.5555	74.707	84.5213	74.707	85.6142	74.707	84.3595	74.707	85.6388	74.707	84.2128	74.707	85.6303	74.707	84.086	74.707	85.5921	74.707	83.9828	74.707	85.5296	74.707	83.9058	74.707	85.4484	74.707	83.8565	74.707	85.3531	74.707	83.8354	74.707	85.2467	74.707	83.8417	74.707	85.1309	74.707	83.8742	74.707	85.007	74.707	83.9307	74.707	84.8764	74.707	84.0086	74.707	84.7414	74.707	84.1047	74.707	84.6047	74.707	84.2158	74.707	84.4692	74.707	84.3384
77.6367	85.2123	77.6367	85.0546	77.6367	85.352	77.6367	84.8853	77.6367	85.4678	77.6367	84.7112	77.6367	85.555	77.6367	84.5391	77.6367	85.6106	77.6367	84.3752	77.6367	85.6339	77.6367	84.2251	77.6367	85.6262	77.6367	84.0939	77.6367	85.5907	77.6367	83.9853	77.6367	85.5314	77.6367	83.9021	77.6367	85.4519	77.6367	83.8461	77.6367	85.3548	77.6367	83.818	77.6367	85.2425	77.6367	83.8174	77.6367	85.1176	77.6367	83.8432	77.6367	84.9832	77.6367	83.8933	77.6367	84.8425	77.6367	83.9655	77.6367	84.6991	77.6367	84.057	77.6367	84.5563	77.6367	84.1648	77.6367	84.4176	77.6367	84.286
79.1016	85.2708	79.1016	85.1188	79.1016	85.4038	79.1016	84.9545	79.1016	85.512	79.1016	84.7845	79.1016	85.591	79.1016	84.6159	79.1016	85.6381	79.1016	84.4548	79.1016	85.6527	79.1016	84.307	79.1016	85.6371	79.1016	84.1776	79.1016	85.5951	79.1016	84.0702	79.1016	85.5313	79.1016	83.9879	79.1016	85.45	79.1016	83.9322	79.1016	85.354	79.1016	83.9037	79.1016	85.2455	79.1016	83.9019	79.1016	85.1264	79.1016	83.9256	79.1016	84.9991	79.1016	83.9727	79.1016	84.8664	79.1016	84.0407	79.1016	84.7313	79.1016	84.127	79.1016	84.5969	79.1016	84.2286	79.1016	84.4664	79.1016	84.3427
82.0312	85.2681	82.0312	85.1212	82.0312	85.3946	82.0312	84.9605	82.0312	85.4953	82.0312	84.7932	82.0312	85.566	82.0312	84.6262	82.0312	85.6049	82.0312	84.4666	82.0312	85.6129	82.0312	84.3202	82.0312	85.5933	82.0312	84.1923	82.0312	85.5512	82.0312	84.0869	82.0312	85.492	82.0312	84.007	82.0312	85.419	82.0312	83.954	82.0312	85.3332	82.0312	83.9283	82.0312	85.2344	82.0312	83.9292	82.0312	85.1233	82.0312	83.9551	82.0312	85.0022	82.0312	84.0036	82.0312	84.8745	82.0312	84.0721	82.0312	84.7441	82.0312	84.1575	82.0312	84.6143	82.0312	84.2572	82.0312	84.4881	82.0312	84.3682
84.9609	85.1331	84.9609	84.9918	84.9609	85.2511	84.9609	84.834	84.9609	85.3404	84.9609	84.667	84.9609	85.3975	84.9609	84.4985	84.9609	85.4215	84.9609	84.3358	84.9609	85.4143	84.9609	84.1858	84.9609	85.3811	84.9609	84.0541	84.9609	85.3287	84.9609	83.9456	84.9609	85.2644	84.9609	83.8633	84.9609	85.1925	84.9609	83.8092	84.9609	85.1134	84.9609	83.7836	84.9609	85.0252	84.9609	83.7855	84.9609	84.9263	84.9609	83.8129	84.9609	84.817	84.9609	83.863	84.9609	84.7001	84.9609	83.9325	84.9609	84.5792	84.9609	84.018	84.9609	84.4577	84.9609	84.116	84.9609	84.3384	84.9609	84.2237
87.8906	85.2878	87.8906	85.1488	87.8906	85.3996	87.8906	84.9899	87.8906	85.4783	87.8906	84.8192	87.8906	85.5203	87.8906	84.645	87.8906	85.525	87.8906	84.4754	87.8906	85.4956	87.8906	84.3181	87.8906	85.4397	87.8906	84.1797	87.8906	85.3677	87.8906	84.0657	87.8906	85.291	87.8906	83.9802	87.8906	85.2179	87.8906	83.9256	87.8906	85.1507	87.8906	83.9028	87.8906	85.086	87.8906	83.911	87.8906	85.0176	87.8906	83.948	87.8906	84.9405	87.8906	84.0101	87.8906	84.8523	87.8906	84.093	87.8906	84.7535	87.8906	84.1917	87.8906	84.646	87.8906	84.3011	87.8906	84.5324	87.8906	84.4162
90.8203	85.4129	90.8203	85.2707	90.8203	85.5265	90.8203	85.1074	90.8203	85.6054	90.8203	84.9312	90.8203	85.6457	90.8203	84.7507	90.8203	85.6467	90.8203	84.5739	90.8203	85.6118	90.8203	84.4085	90.8203	85.5488	90.8203	84.2614	90.8203	85.4693	90.8203	84.1381	90.8203	85.3854	90.8203	84.0431	90.8203	85.3066	90.8203	83.9792	90.8203	85.2357	90.8203	83.9477	90.8203	85.169	90.8203	83.9486	90.8203	85.0995	90.8203	83.9801	90.8203	85.0209	90.8203	84.0393	90.8203	84.9295	90.8203	84.1221	90.8203	84.825	90.8203	84.2237	90.8203	84.7096	90.8203	84.3387	90.8203	84.587	90.8203	84.4616
95.2148	85.1854	95.2148	85.0358	95.2148	85.3059	95.2148	84.8645	95.2148	85.3913	95.2148	84.68	95.2148	85.4378	95.2148	84.4907	95.2148	85.4451	95.2148	84.3048	95.2148	85.4168	95.2148	84.1301	95.2148	85.3604	95.2148	83.9734	95.2148	85.2864	95.2148	83.8404	95.2148	85.2052	95.2148	83.7354	95.2148	85.1234	95.2148	83.6615	95.2148	85.0422	95.2148	83.6204	95.2148	84.9581	95.2148	83.6121	95.2148	84.8663	95.2148	83.6357	95.2148	84.7633	95.2148	83.6887	95.2148	84.6483	95.2148	83.7678	95.2148	84.5226	95.2148	83.8686	95.2148	84.3891	95.2148	83.9864	95.2148	84.2519	95.2148	84.116
98.1445	85.0506	98.1445	84.907	98.1445	85.164	98.1445	84.7407	98.1445	85.2412	98.1445	84.5602	98.1445	85.2789	98.1445	84.3742	98.1445	85.2773	98.1445	84.1912	98.1445	85.2408	98.1445	84.0189	98.1445	85.1785	98.1445	83.8642	98.1445	85.1018	98.1445	83.7328	98.1445	85.0218	98.1445	83.6289	98.1445	84.9448	98.1445	83.5554	98.1445	84.8702	98.1445	83.5137	98.1445	84.7928	98.1445	83.504	98.1445	84.7067	98.1445	83.525	98.1445	84.6084	98.1445	83.5743	98.1445	84.4972	98.1445	83.6489	98.1445	84.3751	98.1445	83.7446	98.1445	84.2454	98.1445	83.8571	98.1445	84.1125	98.1445	83.9814
101.074	85.0806	101.074	84.9377	101.074	85.19	101.074	84.7694	101.074	85.2595	101.074	84.5847	101.074	85.2855	101.074	84.3927	101.074	85.2682	101.074	84.2024	101.074	85.2128	101.074	84.0219	101.074	85.1292	101.074	83.8584	101.074	85.0309	101.074	83.7177	101.074	84.9311	101.074	83.6043	101.074	84.8379	101.074	83.5212	101.074	84.7513	101.074	83.4698	101.074	84.6661	101.074	83.4501	101.074	84.5754	101.074	83.4609	101.074	84.4752	101.074	83.5001	101.074	84.3645	101.074	83.5643	101.074	84.2447	101.074	83.6501	101.074	84.1193	101.074	83.753	101.074	83.9924	101.074	83.8687
105.469	84.8891	105.469	84.7361	105.469	85.0088	105.469	84.5579	105.469	85.0883	105.469	84.3638	105.469	85.1236	105.469	84.1632	105.469	85.1141	105.469	83.965	105.469	85.0638	105.469	83.7776	105.469	84.9814	105.469	83.6082	105.469	84.8789	105.469	83.4628	105.469	84.7683	105.469	83.3458	105.469	84.658	105.469	83.2601	105.469	84.5504	105.469	83.2072	105.469	84.4435	105.469	83.1866	105.469	84.334	105.469	83.1971	105.469	84.2197	105.469	83.2361	105.469	84.1001	105.469	83.3001	105.469	83.976	105.469	83.3851	105.469	83.8495	105.469	83.4869	105.469	83.7233	105.469	83.6011
108.398	84.7132	108.398	84.5659	108.398	84.8267	108.398	84.393	108.398	84.9	108.398	84.2037	108.398	84.9296	108.398	84.0075	108.398	84.9161	108.398	83.8135	108.398	84.8648	108.398	83.6302	108.398	84.786	108.398	83.4648	108.398	84.6928	108.398	83.3234	108.398	84.5971	108.398	83.2104	108.398	84.5056	108.398	83.1286	108.398	84.4175	108.398	83.0795	108.398	84.3275	108.398	83.0628	108.398	84.2302	108.398	83.0771	108.398	84.123	108.398	83.1198	108.398	84.0063	108.398	83.1875	108.398	83.8822	108.398	83.2763	108.398	83.7538	108.398	83.3817	108.398	83.6249	108.398	83.4994
112.793	84.4836	112.793	84.3509	112.793	84.5795	112.793	84.1899	112.793	84.6325	112.793	84.0103	112.793	84.64	112.793	83.8221	112.793	84.6044	112.793	83.6347	112.793	84.5347	112.793	83.4572	112.793	84.4452	112.793	83.2971	112.793	84.3533	112.793	83.1609	112.793	84.2737	112.793	83.0533	112.793	84.2122	112.793	82.9774	112.793	84.1643	112.793	82.9346	112.793	84.1187	112.793	82.9249	112.793	84.0638	112.793	82.9468	112.793	83.9919	112.793	82.9976	112.793	83.9003	112.793	83.0739	112.793	83.7912	112.793	83.1713	112.793	83.669	112.793	83.285	112.793	83.5398	112.793	83.4098
117.188	84.2379	117.188	84.1191	117.188	84.3127	117.188	83.9652	117.188	84.3373	117.188	83.7865	117.188	84.3098	117.188	83.5939	117.188	84.2345	117.188	83.3979	117.188	84.1227	117.188	83.2085	117.188	83.9926	117.188	83.034	117.188	83.8656	117.188	82.8814	117.188	83.7595	117.188	82.7559	117.188	83.6816	117.188	82.6607	117.188	83.6269	117.188	82.5974	117.188	83.5826	117.188	82.5661	117.188	83.5345	117.188	82.5656	117.188	83.4724	117.188	82.5939	117.188	83.391	117.188	82.6484	117.188	83.2906	117.188	82.7261	117.188	83.176	117.188	82.8231	117.188	83.0547	117.188	82.9346
120.117	84.4506	120.117	84.3224	120.117	84.5302	120.117	84.156	120.117	84.5534	120.117	83.9631	120.117	84.5166	120.117	83.7557	120.117	84.4228	120.117	83.5452	120.117	84.2831	120.117	83.3422	120.117	84.1171	120.117	83.1558	120.117	83.9491	120.117	82.9933	120.117	83.801	120.117	82.8601	120.117	83.6833	120.117	82.7594	120.117	83.5927	120.117	82.6921	120.117	83.5181	120.117	82.6573	120.117	83.448	120.117	82.6523	120.117	83.3752	120.117	82.6737	120.117	83.2965	120.117	82.7171	120.117	83.2111	120.117	82.7783	120.117	83.1207	120.117	82.8532	120.117	83.0284	120.117	82.9379
124.512	84.5414	124.512	84.404	124.512	84.631	124.512	84.2296	124.512	84.6644	124.512	84.0302	124.512	84.6375	124.512	83.8177	124.512	84.5528	124.512	83.6035	124.512	84.4214	124.512	83.398	124.512	84.264	124.512	83.2103	124.512	84.1073	124.512	83.0477	124.512	83.9762	124.512	82.9157	124.512	83.8835	124.512	82.8182	124.512	83.8239	124.512	82.7568	124.512	83.7804	124.512	82.7315	124.512	83.7348	124.512	82.7408	124.512	83.6754	124.512	82.7815	124.512	83.5983	124.512	82.8495	124.512	83.5043	124.512	82.9395	124.512	83.3968	124.512	83.0457	124.512	83.2807	124.512	83.1616
128.906	84.3055	128.906	84.1497	128.906	84.4111	128.906	83.9558	128.906	84.4562	128.906	83.7371	128.906	84.4344	128.906	83.5063	128.906	84.3459	128.906	83.2757	128.906	84.1999	128.906	83.0561	128.906	84.0162	128.906	82.8567	128.906	83.8236	128.906	82.685	128.906	83.6529	128.906	82.5464	128.906	83.5244	128.906	82.4438	128.906	83.4395	128.906	82.3784	128.906	83.3827	128.906	82.3494	128.906	83.3325	128.906	82.3543	128.906	83.2724	128.906	82.39	128.906	83.1947	128.906	82.4523	128.906	83.099	128.906	82.5368	128.906	82.9891	128.906	82.6386	128.906	82.8712	128.906	82.7521
133.301	84.113	133.301	83.9504	133.301	84.2308	133.301	83.7542	133.301	84.2943	133.301	83.5359	133.301	84.2971	133.301	83.3069	133.301	84.2376	133.301	83.0778	133.301	84.121	133.301	82.8579	133.301	83.961	133.301	82.6556	133.301	83.7788	133.301	82.4771	133.301	83.5989	133.301	82.3273	133.301	83.4403	133.301	82.2091	133.301	83.3091	133.301	82.124	133.301	83.198	133.301	82.0717	133.301	83.0931	133.301	82.051	133.301	82.9828	133.301	82.0601	133.301	82.862	133.301	82.0968	133.301	82.7322	133.301	82.1588	133.301	82.5987	133.301	82.2437	133.301	82.4685	133.301	82.3483
139.16	83.65	139.16	83.5057	139.16	83.7486	139.16	83.3259	139.16	83.7943	139.16	83.1225	139.16	83.784	139.16	82.9076	139.16	83.7209	139.16	82.6929	139.16	83.6147	139.16	82.489	139.16	83.4815	139.16	82.3044	139.16	83.3403	139.16	82.1454	139.16	83.2078	139.16	82.0161	139.16	83.0922	139.16	81.9176	139.16	82.9904	139.16	81.8495	139.16	82.892	139.16	81.8095	139.16	82.7861	139.16	81.7947	139.16	82.6671	139.16	81.8025	139.16	82.5362	139.16	81.8309	139.16	82.3996	139.16	81.8791	139.16	82.2657	139.16	81.9471	139.16	82.1423	139.16	82.0352
143.555	83.5602	143.555	83.4223	143.555	83.6393	143.555	83.2384	143.555	83.6513	143.555	83.0237	143.555	83.5945	143.555	82.7939	143.555	83.4762	143.555	82.5644	143.555	83.3139	143.555	82.3488	143.555	83.1335	143.555	82.1583	143.555	82.9632	143.555	82.001	143.555	82.8239	143.555	81.8815	143.555	82.7215	143.555	81.8007	143.555	82.646	143.555	81.7561	143.555	82.58	143.555	81.7428	143.555	82.5089	143.555	81.7543	143.555	82.4268	143.555	81.784	143.555	82.3358	143.555	81.826	143.555	82.2422	143.555	81.8764	143.555	82.1524	143.555	81.9335	143.555	82.0705	143.555	81.9978
147.949	83.7039	147.949	83.5351	147.949	83.8052	147.949	83.3146	147.949	83.827	147.949	83.0599	147.949	83.7635	147.949	82.7885	147.949	83.6187	147.949	82.5172	147.949	83.4096	147.949	82.261	147.949	83.1665	147.949	82.0328	147.949	82.9288	147.949	81.843	147.949	82.7329	147.949	81.699	147.949	82.598	147.949	81.6046	147.949	82.5199	147.949	81.5603	147.949	82.4789	147.949	81.5627	147.949	82.4527	147.949	81.6054	147.949	82.4252	147.949	81.6796	147.949	82.3876	147.949	81.7751	147.949	82.3362	147.949	81.8819	147.949	82.2699	147.949	81.9909	147.949	82.1889	147.949	82.0949
153.809	83.5113	153.809	83.3099	153.809	83.6575	153.809	83.069	153.809	83.7353	153.809	82.8048	153.809	83.7358	153.809	82.5332	153.809	83.6578	153.809	82.268	153.809	83.5101	153.809	82.021	153.809	83.3137	153.809	81.8011	153.809	83.0996	153.809	81.6144	153.809	82.9019	153.809	81.4641	153.809	82.7449	153.809	81.3511	153.809	82.634	153.809	81.275	153.809	82.5549	153.809	81.2348	153.809	82.484	153.809	81.2297	153.809	82.4007	153.809	81.2591	153.809	82.2935	153.809	81.3222	153.809	82.1611	153.809	81.4176	153.809	82.0092	153.809	81.5417	153.809	81.8477	153.809	81.6881
159.668	83.0151	159.668	82.8193	159.668	83.1611	159.668	82.5883	159.668	83.2463	159.668	82.3383	159.668	83.265	159.668	82.086	159.668	83.2196	159.668	81.847	159.668	83.1219	159.668	81.635	159.668	82.9923	159.668	81.4604	159.668	82.8558	159.668	81.329	159.668	82.7335	159.668	81.242	159.668	82.6334	159.668	81.1955	159.668	82.5484	159.668	81.1823	159.668	82.4615	159.668	81.193	159.668	82.3565	159.668	81.2189	159.668	82.2264	159.668	81.2541	159.668	82.075	159.668	81.2962	159.668	81.9137	159.668	81.3478	159.668	81.757	159.668	81.4146	159.668	81.6176	159.668	81.5031
165.527	82.9025	165.527	82.7063	165.527	83.0171	165.527	82.4458	165.527	83.0376	165.527	82.1413	165.527	82.9598	165.527	81.8148	165.527	82.7928	165.527	81.489	165.527	82.5625	165.527	81.1868	165.527	82.3128	165.527	80.9299	165.527	82.0963	165.527	80.7362	165.527	81.9546	165.527	80.6168	165.527	81.8979	165.527	80.5734	165.527	81.9001	165.527	80.5979	165.527	81.9153	165.527	80.6735	165.527	81.9023	165.527	80.7792	165.527	81.8412	165.527	80.8944	165.527	81.7362	165.527	81.0038	165.527	81.6074	165.527	81.1002	165.527	81.4784	165.527	81.1858	165.527	81.3649	165.527	81.2699
171.387	83.5383	171.387	83.3317	171.387	83.671	171.387	83.0685	171.387	83.7138	171.387	82.7657	171.387	83.6543	171.387	82.4391	171.387	83.4877	171.387	82.1035	171.387	83.2212	171.387	81.7725	171.387	82.8783	171.387	81.4596	171.387	82.4992	171.387	81.1782	171.387	82.1337	171.387	80.9413	171.387	81.8259	171.387	80.7611	171.387	81.5995	171.387	80.6467	171.387	81.4526	171.387	80.6017	171.387	81.366	171.387	80.6214	171.387	81.3154	171.387	80.6928	171.387	81.2816	171.387	80.7967	171.387	81.2521	171.387	80.9116	171.387	81.2184	171.387	81.019	171.387	81.1725	171.387	81.1072
177.246	83.7621	177.246	83.5546	177.246	83.8957	177.246	83.2908	177.246	83.9416	177.246	82.9897	177.246	83.8937	177.246	82.6701	177.246	83.7562	177.246	82.3494	177.246	83.5464	177.246	82.043	177.246	83.2936	177.246	81.7641	177.246	83.0335	177.246	81.5233	177.246	82.7966	177.246	81.3284	177.246	82.598	177.246	81.1839	177.246	82.4346	177.246	81.0907	177.246	82.2924	177.246	81.0462	177.246	82.158	177.246	81.0448	177.246	82.0253	177.246	81.079	177.246	81.8945	177.246	81.1408	177.246	81.7677	177.246	81.2222	177.246	81.6463	177.246	81.317	177.246	81.5306	177.246	81.4206
183.105	84.2487	183.105	84.0612	183.105	84.3613	183.105	83.8172	183.105	84.3846	183.105	83.5357	183.105	84.3122	183.105	83.2352	183.105	84.1492	183.105	82.9321	183.105	83.9162	183.105	82.6411	183.105	83.6477	183.105	82.3745	183.105	83.3846	183.105	82.1433	183.105	83.1593	183.105	81.9565	183.105	82.9841	183.105	81.8209	183.105	82.8513	183.105	81.7403	183.105	82.7447	183.105	81.7139	183.105	82.6508	183.105	81.7363	183.105	82.5633	183.105	81.7974	183.105	82.481	183.105	81.8841	183.105	82.404	183.105	81.9825	183.105	82.3301	183.105	82.0811	183.105	82.2546	183.105	82.1725
188.965	84.6159	188.965	84.42	188.965	84.7267	188.965	84.1596	188.965	84.7352	188.965	83.8559	188.965	84.6319	188.965	83.5287	188.965	84.4213	188.965	83.1961	188.965	84.1277	188.965	82.8743	188.965	83.7969	188.965	82.5771	188.965	83.4869	188.965	82.3165	188.965	83.2464	188.965	82.1019	188.965	83.0926	188.965	81.9404	188.965	83.0096	188.965	81.8358	188.965	82.9658	188.965	81.789	188.965	82.9324	188.965	81.7974	188.965	82.8904	188.965	81.8551	188.965	82.8295	188.965	81.9528	188.965	82.7454	188.965	82.0792	188.965	82.6381	188.965	82.2221	188.965	82.5108	188.965	82.3694
196.289	84.9502	196.289	84.7416	196.289	85.0709	196.289	84.4669	196.289	85.0843	196.289	84.1473	196.289	84.9779	196.289	83.8028	196.289	84.7524	196.289	83.4512	196.289	84.4279	196.289	83.1082	196.289	84.0488	196.289	82.7875	196.289	83.6768	196.289	82.5003	196.289	83.3719	196.289	82.2554	196.289	83.1664	196.289	82.0591	196.289	83.0538	196.289	81.9151	196.289	82.9992	196.289	81.8252	196.289	82.9607	196.289	81.7893	196.289	82.907	196.289	81.8054	196.289	82.823	196.289	81.8688	196.289	82.7079	196.289	81.972	196.289	82.5683	196.289	82.105	196.289	82.4142	196.289	82.2562
203.613	84.8837	203.613	84.6539	203.613	85.0224	203.613	84.3592	203.613	85.0473	203.613	84.0256	203.613	84.9441	203.613	83.6765	203.613	84.7138	203.613	83.3317	203.613	84.3781	203.613	83.0073	203.613	83.9819	203.613	82.7154	203.613	83.5848	203.613	82.4646	203.613	83.24	203.613	82.2586	203.613	82.972	203.613	82.0961	203.613	82.7737	203.613	81.9711	203.613	82.6221	203.613	81.8742	203.613	82.4929	203.613	81.7962	203.613	82.3663	203.613	81.7314	203.613	82.2302	203.613	81.6813	203.613	82.0838	203.613	81.6541	203.613	81.9373	203.613	81.6615	203.613	81.808	203.613	81.7127
210.938	84.9202	210.938	84.6659	210.938	85.088	210.938	84.3532	210.938	85.1425	210.938	84.0068	210.938	85.0635	210.938	83.647	210.938	84.8458	210.938	83.2897	210.938	84.5068	210.938	82.9477	210.938	84.0899	210.938	82.6318	210.938	83.6561	210.938	82.352	210.938	83.2613	210.938	82.1171	210.938	82.931	210.938	81.9339	210.938	82.6572	210.938	81.8061	210.938	82.4196	210.938	81.7319	210.938	82.2086	210.938	81.7028	210.938	82.0281	210.938	81.7038	210.938	81.8855	210.938	81.7171	210.938	81.7856	210.938	81.7266	210.938	81.7291	210.938	81.7246	210.938	81.7101	210.938	81.7145
218.262	84.9051	218.262	84.6546	218.262	85.0703	218.262	84.3461	218.262	85.1222	218.262	84.003	218.262	85.038	218.262	83.6454	218.262	84.8099	218.262	83.2902	218.262	84.4552	218.262	82.9531	218.262	84.0234	218.262	82.6484	218.262	83.5869	218.262	82.3889	218.262	83.2113	218.262	82.1843	218.262	82.9209	218.262	82.0403	218.262	82.6949	218.262	81.957	218.262	82.5011	218.262	81.9288	218.262	82.3276	218.262	81.9443	218.262	82.1873	218.262	81.9883	218.262	82.0992	218.262	82.0436	218.262	82.0686	218.262	82.0934	218.262	82.0804	218.262	82.1239	218.262	82.1085	218.262	82.128
225.586	84.3259	225.586	84.0762	225.586	84.5071	225.586	83.7826	225.586	84.5902	225.586	83.464	225.586	84.5466	225.586	83.1352	225.586	84.359	225.586	82.8084	225.586	84.0352	225.586	82.4944	225.586	83.6205	225.586	82.2033	225.586	83.1948	225.586	81.9438	225.586	82.8419	225.586	81.7235	225.586	82.6057	225.586	81.5496	225.586	82.4739	225.586	81.4297	225.586	82.4087	225.586	81.372	225.586	82.3823	225.586	81.3838	225.586	82.3828	225.586	81.4672	225.586	82.3997	225.586	81.6144	225.586	82.4123	225.586	81.8048	225.586	82.3933	225.586	82.0073	225.586	82.3209	225.586	82.1883
232.91	84.459	232.91	84.2466	232.91	84.5899	232.91	83.9671	232.91	84.6207	232.91	83.6342	232.91	84.5272	232.91	83.2633	232.91	84.2846	232.91	82.872	232.91	83.8795	232.91	82.4785	232.91	83.3293	232.91	82.0991	232.91	82.6979	232.91	81.7448	232.91	82.0921	232.91	81.4202	232.91	81.6176	232.91	81.1244	232.91	81.3223	232.91	80.854	232.91	81.1874	232.91	80.6104	232.91	81.1666	232.91	80.4067	232.91	81.2118	232.91	80.2714	232.91	81.2717	232.91	80.2408	232.91	81.2912	232.91	80.3374	232.91	81.2249	232.91	80.5461	232.91	81.0567	232.91	80.8106
241.699	84.3983	241.699	84.2104	241.699	84.4932	241.699	83.9368	241.699	84.5005	241.699	83.5962	241.699	84.4336	241.699	83.2146	241.699	84.3042	241.699	82.8207	241.699	84.1133	241.699	82.4417	241.699	83.8548	241.699	82.0997	241.699	83.5333	241.699	81.8092	241.699	83.1829	241.699	81.5739	241.699	82.8644	241.699	81.3861	241.699	82.6327	241.699	81.2287	241.699	82.4971	241.699	81.0794	241.699	82.4134	241.699	80.9191	241.699	82.3116	241.699	80.7428	241.699	82.1305	241.699	80.5718	241.699	81.8398	241.699	80.4603	241.699	81.4529	241.699	80.4807	241.699	81.0331	241.699	80.6796
250.488	84.898	250.488	84.7082	250.488	84.9084	250.488	84.377	250.488	84.7213	250.488	83.9517	250.488	84.3515	250.488	83.4812	250.488	83.8585	250.488	83.0107	250.488	83.3409	250.488	82.5788	250.488	82.8945	250.488	82.215	250.488	82.5561	250.488	81.9375	250.488	82.2957	250.488	81.7504	250.488	82.0692	250.488	81.64	250.488	81.8572	250.488	81.575	250.488	81.6473	250.488	81.5108	250.488	81.4085	250.488	81.3992	250.488	81.1022	250.488	81.2001	250.488	80.7171	250.488	80.8952	250.488	80.2932	250.488	80.5044	250.488	79.9254	250.488	80.1004	250.488	79.7364	250.488	79.8051
259.277	84.967	259.277	84.6506	259.277	85.1461	259.277	84.2473	259.277	85.1397	259.277	83.7992	259.277	84.9141	259.277	83.3374	259.277	84.4674	259.277	82.8836	259.277	83.8473	259.277	82.4555	259.277	83.1608	259.277	82.0707	259.277	82.5501	259.277	81.7478	259.277	82.1178	259.277	81.5021	259.277	81.8575	259.277	81.3387	259.277	81.6733	259.277	81.2459	259.277	81.4588	259.277	81.1924	259.277	81.1488	259.277	81.1308	259.277	80.728	259.277	81.0084	259.277	80.2286	259.277	80.7813	259.277	79.7389	259.277	80.4336	259.277	79.4004	259.277	79.9998	259.277	79.344	259.277	79.5842
268.066	84.8542	268.066	84.4577	268.066	85.1483	268.066	84.0052	268.066	85.2947	268.066	83.5351	268.066	85.2595	268.066	83.0739	268.066	85.03	268.066	82.6375	268.066	84.6198	268.066	82.2363	268.066	84.0668	268.066	81.8791	268.066	83.4254	268.066	81.5768	268.066	82.7596	268.066	81.3429	268.066	82.1396	268.066	81.1924	268.066	81.6253	268.066	81.1369	268.066	81.2338	268.066	81.1771	268.066	80.9349	268.066	81.2941	268.066	80.701	268.066	81.4455	268.066	80.5556	268.066	81.5721	268.066	80.5566	268.066	81.6137	268.066	80.728	268.066	81.5289	268.066	81.0153	268.066	81.3138
276.855	83.7994	276.855	83.4746	276.855	84.0258	276.855	83.0931	276.855	84.1136	276.855	82.6895	276.855	84.0412	276.855	82.2897	276.855	83.8239	276.855	81.9136	276.855	83.5221	276.855	81.5788	276.855	83.2167	276.855	81.302	276.855	82.952	276.855	81.097	276.855	82.7047	276.855	80.9713	276.855	82.4257	276.855	80.9203	276.855	82.1052	276.855	80.925	276.855	81.7858	276.855	80.9549	276.855	81.5168	276.855	80.9766	276.855	81.3093	276.855	80.9651	276.855	81.14	276.855	80.9133	276.855	80.9884	276.855	80.8362	276.855	80.8574	276.855	80.7654	276.855	80.7668	276.855	80.7355
287.109	84.1803	287.109	83.8114	287.109	84.4159	287.109	83.3809	287.109	84.4303	287.109	82.9307	287.109	84.1451	287.109	82.475	287.109	83.5285	287.109	82.0152	287.109	82.6597	287.109	81.5567	287.109	81.8115	287.109	81.1182	287.109	81.3879	287.109	80.7325	287.109	81.5233	287.109	80.4377	287.109	81.8964	287.109	80.2628	287.109	82.1211	287.109	80.2116	287.109	81.9992	287.109	80.2528	287.109	81.4927	287.109	80.3227	287.109	80.6664	287.109	80.3381	287.109	79.6689	287.109	80.2157	287.109	78.7416	287.109	79.8945	287.109	78.1969	287.109	79.3677	287.109	78.2355	287.109	78.7325
297.363	83.6302	297.363	83.4749	297.363	83.7396	297.363	83.2714	297.363	83.7879	297.363	83.0128	297.363	83.7342	297.363	82.6965	297.363	83.5187	297.363	82.3259	297.363	83.087	297.363	81.9097	297.363	82.4341	297.363	81.4611	297.363	81.6773	297.363	81.0017	297.363	81.1076	297.363	80.5685	297.363	81.0173	297.363	80.22	297.363	81.3325	297.363	80.0267	297.363	81.6658	297.363	80.0349	297.363	81.7118	297.363	80.2237	297.363	81.4183	297.363	80.5019	297.363	80.9517	297.363	80.7547	297.363	80.5712	297.363	80.8941	297.363	80.4451	297.363	80.8826	297.363	80.5486	297.363	80.7403
307.617	83.6973	307.617	83.3487	307.617	83.9285	307.617	82.9316	307.617	83.9771	307.617	82.4851	307.617	83.7696	307.617	82.0462	307.617	83.2535	307.617	81.6492	307.617	82.4474	307.617	81.3163	307.617	81.501	307.617	81.049	307.617	80.7142	307.617	80.8297	307.617	80.4046	307.617	80.6358	307.617	80.6571	307.617	80.4635	307.617	81.2595	307.617	80.3528	307.617	81.8857	307.617	80.3916	307.617	82.2854	307.617	80.668	307.617	82.3851	307.617	81.1828	307.617	82.3157	307.617	81.8162	307.617	82.3183	307.617	82.396	307.617	82.5103	307.617	82.7812	307.617	82.7709	307.617	82.9011
319.336	85.3376	319.336	84.7546	319.336	85.7195	319.336	84.0081	319.336	85.8622	319.336	83.1402	319.336	85.7265	319.336	82.2076	319.336	85.2781	319.336	81.2928	319.336	84.5023	319.336	80.5097	319.336	83.4307	319.336	79.979	319.336	82.1848	319.336	79.7644	319.336	81.0275	319.336	79.8216	319.336	80.3427	319.336	80.0265	319.336	80.3933	319.336	80.2586	319.336	81.0361	319.336	80.4664	319.336	81.8902	319.336	80.6948	319.336	82.7034	319.336	81.0656	319.336	83.4121	319.336	81.6826	319.336	83.987	319.336	82.5078	319.336	84.3397	319.336	83.3579	319.336	84.3669	319.336	84.0244
329.59	85.6303	329.59	85.142	329.59	85.9941	329.59	84.5635	329.59	86.1788	329.59	83.914	329.59	86.1146	329.59	83.2049	329.59	85.7375	329.59	82.4502	329.59	85.0231	329.59	81.6774	329.59	84.0284	329.59	80.9404	329.59	82.921	329.59	80.3238	329.59	81.9488	329.59	79.9182	329.59	81.3222	329.59	79.7657	329.59	81.1066	329.59	79.8241	329.59	81.2348	329.59	79.9989	329.59	81.5847	329.59	80.214	329.59	82.0267	329.59	80.457	329.59	82.4351	329.59	80.7708	329.59	82.7025	329.59	81.1959	329.59	82.7594	329.59	81.7067	329.59	82.5846	329.59	82.2072
341.309	84.9884	341.309	84.5109	341.309	85.337	341.309	83.9549	341.309	85.5042	341.309	83.3597	341.309	85.4429	341.309	82.7498	341.309	85.1149	341.309	82.1404	341.309	84.5004	341.309	81.5474	341.309	83.6242	341.309	80.9958	341.309	82.6002	341.309	80.52	341.309	81.6396	341.309	80.1565	341.309	80.9462	341.309	79.9324	341.309	80.5751	341.309	79.8581	341.309	80.4513	341.309	79.9313	341.309	80.4635	341.309	80.1457	341.309	80.5132	341.309	80.4857	341.309	80.5818	341.309	80.9036	341.309	80.7496	341.309	81.3052	341.309	81.0609	341.309	81.5715	341.309	81.406	341.309	81.6096
353.027	85.0557	353.027	84.5091	353.027	85.4846	353.027	83.914	353.027	85.7032	353.027	83.3016	353.027	85.6258	353.027	82.6722	353.027	85.2023	353.027	82.0176	353.027	84.4397	353.027	81.3427	353.027	83.4173	353.027	80.678	353.027	82.2996	353.027	80.0799	353.027	81.3333	353.027	79.614	353.027	80.7642	353.027	79.3236	353.027	80.6786	353.027	79.2042	353.027	80.9736	353.027	79.2142	353.027	81.4884	353.027	79.3241	353.027	82.0775	353.027	79.5618	353.027	82.6054	353.027	80.0006	353.027	82.9502	353.027	80.669	353.027	83.0213	353.027	81.4714	353.027	82.7748	353.027	82.2277
366.211	84.5924	366.211	84.146	366.211	85.002	366.211	83.7099	366.211	85.251	366.211	83.2592	366.211	85.1951	366.211	82.7468	366.211	84.7424	366.211	82.1464	366.211	83.9189	366.211	81.4658	366.211	82.9136	366.211	80.7462	366.211	82.0139	366.211	80.0618	366.211	81.3767	366.211	79.5177	366.211	80.9374	366.211	79.2261	366.211	80.614	366.211	79.245	366.211	80.4086	366.211	79.521	366.211	80.2995	366.211	79.9113	366.211	80.1821	366.211	80.264	366.211	79.9709	366.211	80.4766	366.211	79.7248	366.211	80.5071	366.211	79.627	366.211	80.3596	366.211	79.7793	366.211	80.0804
379.395	84.0983	379.395	83.6025	379.395	84.6048	379.395	83.0788	379.395	85.0825	379.395	82.4845	379.395	85.3909	379.395	81.815	379.395	85.3546	379.395	81.1013	379.395	84.8527	379.395	80.3931	379.395	83.8941	379.395	79.7477	379.395	82.7106	379.395	79.223	379.395	81.7573	379.395	78.8581	379.395	81.3005	379.395	78.6502	379.395	81.0503	379.395	78.5538	379.395	80.6323	379.395	78.5107	379.395	80.0471	379.395	78.4831	379.395	79.5676	379.395	78.4608	379.395	79.3834	379.395	78.4553	379.395	79.4083	379.395	78.5043	379.395	79.412	379.395	78.6656	379.395	79.2472	379.395	78.9487
392.578	84.4282	392.578	84.0708	392.578	84.7853	392.578	83.6958	392.578	85.0813	392.578	83.2547	392.578	85.1832	392.578	82.716	392.578	84.943	392.578	82.0832	392.578	84.2624	392.578	81.3913	392.578	83.1554	392.578	80.697	392.578	81.8147	392.578	80.0704	392.578	80.6124	392.578	79.5811	392.578	79.8845	392.578	79.2737	392.578	79.6467	392.578	79.1427	392.578	79.6653	392.578	79.1347	392.578	79.6971	392.578	79.1833	392.578	79.596	392.578	79.2475	392.578	79.3455	392.578	79.3165	392.578	79.0681	392.578	79.3741	392.578	78.9523	392.578	79.3693	392.578	79.0596	392.578	79.2516
405.762	84.1278	405.762	83.7779	405.762	84.6075	405.762	83.4929	405.762	85.1294	405.762	83.1622	405.762	85.472	405.762	82.7145	405.762	85.4063	405.762	82.1277	405.762	84.7952	405.762	81.4106	405.762	83.6474	405.762	80.5937	405.762	82.19	405.762	79.7377	405.762	80.9032	405.762	78.948	405.762	80.2088	405.762	78.3661	405.762	80.0027	405.762	78.1098	405.762	79.9063	405.762	78.2021	405.762	79.7311	405.762	78.5738	405.762	79.5207	405.762	79.1217	405.762	79.4205	405.762	79.7319	405.762	79.562	405.762	80.272	405.762	79.9423	405.762	80.6062	405.762	80.3779	405.762	80.6416
420.41	84.3334	420.41	84.0408	420.41	84.5163	420.41	83.6449	420.41	84.5806	420.41	83.1654	420.41	84.4915	420.41	82.6283	420.41	84.1929	420.41	82.0535	420.41	83.6441	420.41	81.453	420.41	82.861	420.41	80.8419	420.41	81.9554	420.41	80.2469	420.41	81.1555	420.41	79.7028	420.41	80.6848	420.41	79.242	420.41	80.5153	420.41	78.8849	420.41	80.3966	420.41	78.6443	420.41	80.1513	420.41	78.5431	420.41	79.8069	420.41	78.6175	420.41	79.5066	420.41	78.8771	420.41	79.382	420.41	79.2475	420.41	79.4678	420.41	79.576	420.41	79.6458	420.41	79.7202
435.059	83.8664	435.059	83.562	435.059	84.3116	435.059	83.2896	435.059	84.8298	435.059	82.9299	435.059	85.1672	435.059	82.4435	435.059	85.0595	435.059	81.8575	435.059	84.3637	435.059	81.2278	435.059	83.1075	435.059	80.6145	435.059	81.5525	435.059	80.0726	435.059	80.2324	435.059	79.6467	435.059	79.6233	435.059	79.3528	435.059	79.5676	435.059	79.1518	435.059	79.5268	435.059	78.9532	435.059	79.2081	435.059	78.685	435.059	78.7394	435.059	78.4169	435.059	78.5567	435.059	78.4265	435.059	78.9771	435.059	78.9374	435.059	79.7312	435.059	79.7118	435.059	80.2665	435.059	80.2583
451.172	83.2654	451.172	83.2637	451.172	83.265	451.172	83.0384	451.172	83.5819	451.172	82.5625	451.172	84.1671	451.172	81.8986	451.172	84.5407	451.172	81.1276	451.172	84.2943	451.172	80.3351	451.172	83.332	451.172	79.6185	451.172	81.8898	451.172	79.0855	451.172	80.53	451.172	78.8206	451.172	79.8231	451.172	78.826	451.172	79.7843	451.172	78.9935	451.172	80.006	451.172	79.1523	451.172	80.1799	451.172	79.1442	451.172	80.2511	451.172	78.8848	451.172	80.293	451.172	78.4384	451.172	80.3182	451.172	78.1128	451.172	80.1962	451.172	78.318	451.172	79.7627	451.172	79.0257
465.82	84.4544	465.82	84.4093	465.82	84.1217	465.82	83.9399	465.82	83.6881	465.82	83.1258	465.82	83.5829	465.82	82.1098	465.82	83.8362	465.82	81.0496	465.82	83.9431	465.82	80.0586	465.82	83.5117	465.82	79.1818	465.82	82.5954	465.82	78.4369	465.82	81.5951	465.82	77.8668	465.82	80.8409	465.82	77.5416	465.82	80.2945	465.82	77.5099	465.82	79.8382	465.82	77.7379	465.82	79.4707	465.82	78.0941	465.82	79.2431	465.82	78.4058	465.82	79.1886	465.82	78.5495	465.82	79.2301	465.82	78.531	465.82	79.1899	465.82	78.5106	465.82	78.9662	465.82	78.6683
483.398	84.3984	483.398	83.9738	483.398	84.6059	483.398	83.3281	483.398	84.6947	483.398	82.5751	483.398	84.6888	483.398	81.8492	483.398	84.4375	483.398	81.2012	483.398	83.7606	483.398	80.5913	483.398	82.6267	483.398	79.9604	483.398	81.2223	483.398	79.2921	483.398	80.0255	483.398	78.6313	483.398	79.6396	483.398	78.0686	483.398	79.9353	483.398	77.6936	483.398	80.1114	483.398	77.5444	483.398	79.6872	483.398	77.5934	483.398	78.7383	483.398	77.7609	483.398	77.702	483.398	77.9335	483.398	77.0968	483.398	78.0065	483.398	77.0982	483.398	77.9346	483.398	77.4121	483.398	77.7272
499.512	83.8814	499.512	83.3422	499.512	84.3028	499.512	82.7542	499.512	84.5402	499.512	82.1746	499.512	84.5363	499.512	81.6312	499.512	84.2418	499.512	81.1169	499.512	83.6133	499.512	80.6032	499.512	82.6163	499.512	80.0695	499.512	81.2544	499.512	79.5273	499.512	79.67	499.512	79.0281	499.512	78.3243	499.512	78.6488	499.512	77.8414	499.512	78.4576	499.512	78.1818	499.512	78.474	499.512	78.7186	499.512	78.6486	499.512	79.0731	499.512	78.8858	499.512	79.2178	499.512	79.0938	499.512	79.2566	499.512	79.2249	499.512	79.2712	499.512	79.2813	499.512	79.2845	499.512	79.2924
517.09	82.347	517.09	81.9767	517.09	82.785	517.09	81.6569	517.09	83.2378	517.09	81.3245	517.09	83.6061	517.09	80.919	517.09	83.7823	517.09	80.4172	517.09	83.6681	517.09	79.8338	517.09	83.1728	517.09	79.2032	517.09	82.2274	517.09	78.575	517.09	80.86	517.09	78.0535	517.09	79.3622	517.09	77.8363	517.09	78.3259	517.09	78.1042	517.09	78.0298	517.09	78.7799	517.09	78.0807	517.09	79.5436	517.09	78.1178	517.09	80.0953	517.09	78.1145	517.09	80.2861	517.09	78.1706	517.09	80.1094	517.09	78.3508	517.09	79.6696	517.09	78.6752	517.09	79.1388
536.133	81.548	536.133	81.1477	536.133	81.9337	536.133	80.6666	536.133	82.3012	536.133	80.047	536.133	82.561	536.133	79.3029	536.133	82.5867	536.133	78.5402	536.133	82.2493	536.133	77.9468	536.133	81.401	536.133	77.6935	536.133	79.8497	536.133	77.7506	536.133	77.4579	536.133	77.8689	536.133	74.8034	536.133	77.7729	536.133	74.1105	536.133	77.3435	536.133	75.4057	536.133	76.8142	536.133	76.67	536.133	76.8966	536.133	77.4797	536.133	77.9919	536.133	78.069	536.133	79.4525	536.133	78.7672	536.133	80.5826	536.133	79.6763	536.133	81.135	536.133	80.5526	536.133	81.0979
555.176	83.1714	555.176	83.0186	555.176	83.1917	555.176	82.5928	555.176	83.2418	555.176	81.8431	555.176	83.3709	555.176	80.8184	555.176	83.4446	555.176	79.6486	555.176	83.2333	555.176	78.5036	555.176	82.5212	555.176	77.5464	555.176	81.1521	555.176	76.9133	555.176	79.1112	555.176	76.6814	555.176	76.7901	555.176	76.7724	555.176	75.2853	555.176	76.9501	555.176	75.3741	555.176	76.995	555.176	76.3438	555.176	76.8711	555.176	77.3948	555.176	76.7871	555.176	78.287	555.176	77.0779	555.176	79.0146	555.176	77.831	555.176	79.529	555.176	78.7388	555.176	79.7002	555.176	79.4288
574.219	83.8712	574.219	83.9597	574.219	83.3722	574.219	83.618	574.219	82.6519	574.219	82.9161	574.219	82.1102	574.219	81.9654	574.219	82.0888	574.219	80.89	574.219	82.4135	574.219	79.7971	574.219	82.5479	574.219	78.7396	574.219	82.0295	574.219	77.7334	574.219	80.5913	574.219	76.8858	574.219	78.3377	574.219	76.4634	574.219	76.6638	574.219	76.6056	574.219	77.4264	574.219	77.0368	574.219	78.9335	574.219	77.3422	574.219	79.6708	574.219	77.3092	574.219	79.6923	574.219	77.0551	574.219	79.6	574.219	77.0669	574.219	79.6375	574.219	77.7437	574.219	79.4383	574.219	78.7365
594.727	85.0613	594.727	84.1124	594.727	85.5205	594.727	82.8289	594.727	85.4365	594.727	81.4965	594.727	84.8055	594.727	80.4189	594.727	83.6661	594.727	79.7035	594.727	82.1651	594.727	79.2436	594.727	80.6607	594.727	78.841	594.727	79.5825	594.727	78.2641	594.727	78.91	594.727	77.3472	594.727	78.26	594.727	76.1992	594.727	77.6415	594.727	75.4729	594.727	77.6091	594.727	75.9065	594.727	78.2388	594.727	77.0132	594.727	78.8082	594.727	77.8075	594.727	79.0006	594.727	77.8452	594.727	79.0233	594.727	77.2124	594.727	78.8396	594.727	76.6441	594.727	78.144	594.727	77.0948
615.234	84.5039	615.234	84.0251	615.234	84.7372	615.234	83.3716	615.234	84.6948	615.234	82.6328	615.234	84.3827	615.234	81.8761	615.234	83.819	615.234	81.118	615.234	82.9992	615.234	80.3433	615.234	81.8703	615.234	79.5601	615.234	80.3463	615.234	78.8359	615.234	78.4893	615.234	78.2475	615.234	77.0592	615.234	77.7807	615.234	77.2253	615.234	77.3525	615.234	78.2448	615.234	76.9674	615.234	78.7645	615.234	76.7683	615.234	78.4344	615.234	76.8146	615.234	77.5915	615.234	76.8838	615.234	76.8697	615.234	76.7034	615.234	76.4887	615.234	76.3103	615.234	76.2102	615.234	76.0779
637.207	83.9249	637.207	83.2353	637.207	84.4382	637.207	82.5606	637.207	84.6292	637.207	82.0051	637.207	84.4413	637.207	81.4965	637.207	83.8813	637.207	80.8586	637.207	82.9739	637.207	79.9603	637.207	81.7196	637.207	78.874	637.207	80.0527	637.207	77.9903	637.207	77.8475	637.207	77.7154	637.207	75.4494	637.207	77.8527	637.207	75.1947	637.207	77.8473	637.207	77.1608	637.207	77.4452	637.207	78.3525	637.207	76.9783	637.207	78.0681	637.207	77.0712	637.207	76.7698	637.207	77.5465	637.207	75.3286	637.207	77.6032	637.207	74.3975	637.207	76.8377	637.207	74.3831	637.207	75.4697
659.18	83.7819	659.18	83.594	659.18	83.9454	659.18	83.2645	659.18	84.1111	659.18	82.6841	659.18	84.1832	659.18	81.8325	659.18	83.9906	659.18	80.7923	659.18	83.3491	659.18	79.6826	659.18	82.113	659.18	78.5652	659.18	80.2495	659.18	77.4533	659.18	78.0595	659.18	76.49	659.18	76.6501	659.18	76.0324	659.18	76.8121	659.18	76.1401	659.18	77.2993	659.18	76.3298	659.18	77.1818	659.18	76.3039	659.18	76.5186	659.18	76.2827	659.18	75.734	659.18	76.534	659.18	75.2735	659.18	76.8313	659.18	75.3212	659.18	76.7884	659.18	75.7572	659.18	76.3474
682.617	83.9459	682.617	83.9073	682.617	83.5367	682.617	83.2491	682.617	83.1329	682.617	82.0638	682.617	83.1262	682.617	80.662	682.617	83.2954	682.617	79.4602	682.617	83.0944	682.617	78.7103	682.617	82.2191	682.617	78.2613	682.617	80.6269	682.617	77.6856	682.617	78.2834	682.617	76.7473	682.617	75.9935	682.617	75.8912	682.617	76.2273	682.617	76.072	682.617	77.2212	682.617	77.0677	682.617	77.0595	682.617	77.7559	682.617	76.2651	682.617	77.7246	682.617	75.9573	682.617	77.4178	682.617	76.5809	682.617	77.6314	682.617	77.6197	682.617	78.3131	682.617	78.4591	682.617	78.7177
707.52	85.6952	707.52	84.5258	707.52	86.143	707.52	83.1337	707.52	85.674	707.52	82.0647	707.52	84.3974	707.52	81.3022	707.52	82.9003	707.52	80.3704	707.52	82.1458	707.52	78.8871	707.52	82.0911	707.52	76.7653	707.52	81.533	707.52	74.4322	707.52	79.2749	707.52	73.0303	707.52	75.1551	707.52	73.1053	707.52	74.4368	707.52	73.7644	707.52	75.9195	707.52	74.7121	707.52	76.1756	707.52	76.1207	707.52	76.5424	707.52	77.2965	707.52	77.8667	707.52	77.2906	707.52	78.9238	707.52	75.5962	707.52	78.8637	707.52	73.37	707.52	77.548	707.52	74.9099
732.422	83.8652	732.422	83.6114	732.422	84.2497	732.422	83.4024	732.422	84.4336	732.422	82.8497	732.422	84.1367	732.422	81.7326	732.422	83.4123	732.422	80.1781	732.422	82.5978	732.422	78.6494	732.422	81.9073	732.422	77.6602	732.422	80.9061	732.422	77.1792	732.422	78.6191	732.422	76.6279	732.422	74.3549	732.422	75.6743	732.422	74.3768	732.422	74.8119	732.422	77.9434	732.422	74.6679	732.422	78.9383	732.422	74.9799	732.422	78.1726	732.422	75.7891	732.422	76.6412	732.422	77.1037	732.422	74.442	732.422	77.8982	732.422	71.972	732.422	77.318	732.422	72.2051	732.422	75.1313
757.324	84.345	757.324	83.9547	757.324	84.7575	757.324	83.6402	757.324	84.8646	757.324	83.1296	757.324	84.4048	757.324	82.1951	757.324	83.3702	757.324	80.8815	757.324	82.1203	757.324	79.435	757.324	81.2468	757.324	78.0554	757.324	80.6672	757.324	76.7124	757.324	79.2498	757.324	75.3558	757.324	75.6645	757.324	74.4471	757.324	72.3711	757.324	74.6656	757.324	75.2927	757.324	75.483	757.324	77.0957	757.324	75.9532	757.324	77.5604	757.324	75.9476	757.324	77.4386	757.324	76.0114	757.324	76.5989	757.324	76.3573	757.324	75.3982	757.324	76.3612	757.324	74.9784	757.324	75.6714
785.156	83.1769	785.156	83.3135	785.156	83.3388	785.156	83.2318	785.156	83.8269	785.156	82.695	785.156	84.1089	785.156	81.8578	785.156	83.773	785.156	80.9537	785.156	82.6992	785.156	79.9802	785.156	81.0848	785.156	78.7083	785.156	79.3003	785.156	76.9863	785.156	77.1237	785.156	74.9131	785.156	74.1666	785.156	72.8748	785.156	73.2259	785.156	72.0598	785.156	74.8493	785.156	73.4588	785.156	75.6469	785.156	75.4939	785.156	75.9037	785.156	76.9303	785.156	75.6847	785.156	77.5744	785.156	74.9826	785.156	77.4155	785.156	74.3025	785.156	76.4729	785.156	74.2166	785.156	75.1091
811.523	84.5576	811.523	84.3382	811.523	84.6046	811.523	83.8581	811.523	84.4952	811.523	83.0438	811.523	84.2312	811.523	81.9872	811.523	83.8601	811.523	80.9507	811.523	83.3616	811.523	80.1128	811.523	82.5035	811.523	79.3363	811.523	80.8373	811.523	78.3353	811.523	77.2838	811.523	76.9679	811.523	70.1667	811.523	75.3631	811.523	71.2101	811.523	73.9834	811.523	73.0684	811.523	73.4425	811.523	72.78	811.523	74.1329	811.523	73.256	811.523	75.971	811.523	74.1736	811.523	77.8046	811.523	75.1262	811.523	78.503	811.523	75.7643	811.523	77.8401	811.523	76.0441	811.523	76.623
840.82	85.2168	840.82	85.5583	840.82	84.8152	840.82	85.3655	840.82	84.7549	840.82	84.5086	840.82	84.8038	840.82	83.1644	840.82	84.4454	840.82	81.6271	840.82	83.4565	840.82	80.1369	840.82	82.1052	840.82	78.9517	840.82	80.8271	840.82	78.292	840.82	79.1401	840.82	77.8677	840.82	75.5905	840.82	76.9378	840.82	70.6723	840.82	74.9322	840.82	71.674	840.82	72.7015	840.82	72.7229	840.82	73.1183	840.82	73.2176	840.82	74.9415	840.82	73.623	840.82	76.505	840.82	74.0889	840.82	77.6525	840.82	74.6995	840.82	77.8728	840.82	75.4749	840.82	76.8899
870.117	85.8701	870.117	86.1914	870.117	84.9918	870.117	85.7123	870.117	84.361	870.117	84.6729	870.117	84.3503	870.117	83.4934	870.117	84.167	870.117	82.3906	870.117	83.1786	870.117	81.3682	870.117	81.7039	870.117	80.4456	870.117	80.5962	870.117	79.6959	870.117	79.285	870.117	79.138	870.117	75.8862	870.117	78.3709	870.117	73.2377	870.117	76.6909	870.117	75.582	870.117	74.2215	870.117	76.0728	870.117	73.5965	870.117	75.3796	870.117	74.8372	870.117	73.6078	870.117	76.0541	870.117	70.187	870.117	77.1554	870.117	67.6923	870.117	77.0403	870.117	70.185	870.117	74.6778
900.879	87.6571	900.879	87.1243	900.879	87.2215	900.879	86.1624	900.879	85.8183	900.879	85.2652	900.879	84.401	900.879	84.278	900.879	84.2484	900.879	82.8975	900.879	84.5741	900.879	81.2685	900.879	84.0224	900.879	79.813	900.879	82.0829	900.879	78.6992	900.879	79.1116	900.879	78.0131	900.879	75.725	900.879	77.8758	900.879	72.197	900.879	77.4593	900.879	73.7099	900.879	75.9517	900.879	74.9264	900.879	75.056	900.879	72.7271	900.879	76.4563	900.879	66.928	900.879	77.1729	900.879	64.101	900.879	76.6501	900.879	70.0272	900.879	76.62	900.879	74.6754	900.879	76.6688
933.105	86.4072	933.105	86.2408	933.105	87.0041	933.105	86.2886	933.105	87.1401	933.105	85.7848	933.105	86.379	933.105	84.6545	933.105	85.1872	933.105	83.2319	933.105	84.3529	933.105	81.6461	933.105	83.5848	933.105	79.8936	933.105	82.0158	933.105	78.3181	933.105	79.5278	933.105	77.3135	933.105	77.0221	933.105	76.8131	933.105	75.6142	933.105	76.6818	933.105	75.427	933.105	76.5612	933.105	74.8002	933.105	75.6068	933.105	73.0269	933.105	74.7667	933.105	73.9404	933.105	76.5931	933.105	76.2411	933.105	77.7852	933.105	76.6074	933.105	76.3851	933.105	75.7704	933.105	74.6758
965.332	86.5235	965.332	86.794	965.332	85.6307	965.332	86.1625	965.332	85.127	965.332	85.1674	965.332	85.0754	965.332	84.2133	965.332	84.6511	965.332	82.9797	965.332	83.9341	965.332	81.2513	965.332	83.4762	965.332	79.4261	965.332	82.4032	965.332	77.9881	965.332	79.0889	965.332	77.0043	965.332	72.1613	965.332	76.6088	965.332	72.3898	965.332	76.4714	965.332	74.003	965.332	75.7762	965.332	73.8562	965.332	75.2768	965.332	72.4072	965.332	75.9507	965.332	70.4018	965.332	76.4081	965.332	69.4593	965.332	76.8351	965.332	68.6037	965.332	76.7795	965.332	69.7527	965.332	74.3268
1000.49	85.8823	1000.49	85.7641	1000.49	85.3078	1000.49	85.0295	1000.49	84.6812	1000.49	84.1327	1000.49	84.5934	1000.49	83.2225	1000.49	84.5845	1000.49	82.1513	1000.49	84.0279	1000.49	80.8888	1000.49	82.8926	1000.49	79.4655	1000.49	81.7334	1000.49	77.9833	1000.49	80.332	1000.49	76.6469	1000.49	76.7661	1000.49	75.4737	1000.49	72.5098	1000.49	74.8615	1000.49	74.1591	1000.49	75.3983	1000.49	75.0932	1000.49	75.6349	1000.49	75.6409	1000.49	74.6182	1000.49	75.0859	1000.49	74.4392	1000.49	73.2543	1000.49	75.7138	1000.49	71.7351	1000.49	75.4149	1000.49	71.4184	1000.49	73.0798
1035.64	85.8377	1035.64	85.4528	1035.64	85.8431	1035.64	85.3634	1035.64	84.7117	1035.64	84.9004	1035.64	82.9717	1035.64	83.5881	1035.64	82.5317	1035.64	82.0519	1035.64	83.362	1035.64	80.9081	1035.64	83.2453	1035.64	79.6483	1035.64	81.4693	1035.64	78.1368	1035.64	79.0856	1035.64	77.3549	1035.64	76.2548	1035.64	76.6827	1035.64	73.4127	1035.64	75.1697	1035.64	75.4318	1035.64	74.5662	1035.64	76.0047	1035.64	75.023	1035.64	74.5877	1035.64	74.6587	1035.64	71.9296	1035.64	75.1524	1035.64	68.9892	1035.64	75.9776	1035.64	67.7972	1035.64	75.5018	1035.64	70.9651	1035.64	73.9135
1072.27	85.4058	1072.27	85.8408	1072.27	85.1394	1072.27	85.7219	1072.27	84.9468	1072.27	85.1694	1072.27	83.9223	1072.27	84.5425	1072.27	82.5121	1072.27	83.3776	1072.27	82.5596	1072.27	81.3231	1072.27	83.1418	1072.27	79.1344	1072.27	82.3385	1072.27	77.9977	1072.27	80.1226	1072.27	77.6468	1072.27	76.9147	1072.27	77.1637	1072.27	69.8461	1072.27	75.7379	1072.27	71.4897	1072.27	72.8419	1072.27	74.9969	1072.27	73.5301	1072.27	73.9745	1072.27	75.8842	1072.27	74.1103	1072.27	75.6387	1072.27	73.5583	1072.27	76.1069	1072.27	69.6469	1072.27	76.7196	1072.27	68.0246	1072.27	73.6324
1108.89	86.5193	1108.89	86.393	1108.89	85.7621	1108.89	85.7524	1108.89	84.9277	1108.89	85.2478	1108.89	84.6432	1108.89	84.5793	1108.89	84.1305	1108.89	83.2687	1108.89	83.1647	1108.89	81.3332	1108.89	82.4415	1108.89	79.0755	1108.89	81.1528	1108.89	77.2798	1108.89	78.7434	1108.89	76.7545	1108.89	77.5026	1108.89	77.2118	1108.89	76.0787	1108.89	77.6216	1108.89	68.5478	1108.89	76.4597	1108.89	68.2254	1108.89	73.157	1108.89	71.1132	1108.89	73.8053	1108.89	73.6676	1108.89	75.4728	1108.89	71.9721	1108.89	75.0993	1108.89	65.0602	1108.89	74.9616	1108.89	65.8613	1108.89	72.5714
1148.44	86.5971	1148.44	86.432	1148.44	86.4244	1148.44	86.0075	1148.44	85.9687	1148.44	85.1818	1148.44	85.4451	1148.44	83.9052	1148.44	84.6602	1148.44	82.3418	1148.44	83.5947	1148.44	80.3925	1148.44	83.0945	1148.44	77.8359	1148.44	82.4505	1148.44	75.4914	1148.44	79.9971	1148.44	74.6359	1148.44	75.8226	1148.44	74.9418	1148.44	74.1128	1148.44	76.2569	1148.44	70.4469	1148.44	76.2379	1148.44	67.4475	1148.44	72.8053	1148.44	70.8151	1148.44	72.2949	1148.44	75.1141	1148.44	75.7124	1148.44	74.0885	1148.44	76.1364	1148.44	68.3379	1148.44	76.0879	1148.44	68.623	1148.44	74.1262
1189.45	86.5802	1189.45	86.3753	1189.45	86.7206	1189.45	85.901	1189.45	86.3689	1189.45	84.844	1189.45	85.5176	1189.45	83.4704	1189.45	84.9303	1189.45	81.9043	1189.45	84.6228	1189.45	79.8016	1189.45	83.6121	1189.45	76.9321	1189.45	81.7675	1189.45	73.6478	1189.45	79.4325	1189.45	72.0452	1189.45	76.2414	1189.45	73.0382	1189.45	76.1758	1189.45	75.3331	1189.45	74.1808	1189.45	77.0972	1189.45	65.2815	1189.45	76.1305	1189.45	68.5739	1189.45	72.2906	1189.45	72.8956	1189.45	71.7233	1189.45	74.5008	1189.45	73.8416	1189.45	72.3703	1189.45	74.5565	1189.45	70.5654	1189.45	72.9213
1230.47	85.9816	1230.47	86.0269	1230.47	85.966	1230.47	85.7567	1230.47	85.7702	1230.47	85.1075	1230.47	85.1794	1230.47	84.0467	1230.47	84.5231	1230.47	82.1909	1230.47	83.8178	1230.47	79.7188	1230.47	82.8289	1230.47	77.6519	1230.47	81.2756	1230.47	75.7281	1230.47	78.2715	1230.47	73.1575	1230.47	73.3329	1230.47	71.5447	1230.47	74.8	1230.47	70.8503	1230.47	75.5033	1230.47	74.2058	1230.47	72.616	1230.47	76.1865	1230.47	71.6436	1230.47	73.4283	1230.47	73.6707	1230.47	72.8006	1230.47	72.0545	1230.47	74.4508	1230.47	62.4507	1230.47	73.7045	1230.47	66.5222	1230.47	72.1934
1274.41	85.6425	1274.41	85.7696	1274.41	85.0693	1274.41	85.2054	1274.41	84.691	1274.41	84.4207	1274.41	84.1032	1274.41	83.0422	1274.41	83.1693	1274.41	81.0228	1274.41	82.3801	1274.41	79.1907	1274.41	81.3708	1274.41	77.3665	1274.41	79.7604	1274.41	75.0147	1274.41	78.3632	1274.41	72.3461	1274.41	75.53	1274.41	70.8667	1274.41	71.757	1274.41	70.1085	1274.41	70.1593	1274.41	71.3888	1274.41	66.2907	1274.41	74.3993	1274.41	63.9951	1274.41	73.5209	1274.41	69.2382	1274.41	71.6949	1274.41	70.6499	1274.41	72.9153	1274.41	69.3032	1274.41	72.2453	1274.41	69.8108	1274.41	71.2696
1319.82	84.5581	1319.82	84.7022	1319.82	83.691	1319.82	84.9699	1319.82	82.3908	1319.82	84.7986	1319.82	81.5481	1319.82	83.2339	1319.82	81.359	1319.82	81.1629	1319.82	81.8515	1319.82	79.548	1319.82	81.8143	1319.82	77.3749	1319.82	79.2811	1319.82	74.5667	1319.82	75.431	1319.82	72.4469	1319.82	72.9218	1319.82	71.6272	1319.82	71.3922	1319.82	72.2287	1319.82	73.6647	1319.82	71.3766	1319.82	67.9843	1319.82	73.735	1319.82	59.8273	1319.82	74.6439	1319.82	60.8093	1319.82	71.2995	1319.82	66.7692	1319.82	73.1849	1319.82	69.9191	1319.82	73.1116	1319.82	69.6692	1319.82	70.7867
1366.7	83.4091	1366.7	84.6273	1366.7	83.0113	1366.7	85.356	1366.7	82.665	1366.7	84.3224	1366.7	81.528	1366.7	82.32	1366.7	80.2107	1366.7	80.8072	1366.7	80.7018	1366.7	79.0946	1366.7	81.6237	1366.7	76.5211	1366.7	80.3663	1366.7	73.7552	1366.7	76.8578	1366.7	71.6034	1366.7	75.4788	1366.7	69.6607	1366.7	73.5837	1366.7	70.9218	1366.7	73.775	1366.7	70.2622	1366.7	68.6095	1366.7	71.2799	1366.7	65.0156	1366.7	74.6755	1366.7	68.7654	1366.7	72.0792	1366.7	67.0877	1366.7	70.7823	1366.7	50.3806	1366.7	72.0568	1366.7	61.3281	1366.7	69.1944
1413.57	84.4871	1413.57	85.6596	1413.57	83.346	1413.57	85.5604	1413.57	83.0609	1413.57	83.895	1413.57	82.7786	1413.57	81.9712	1413.57	81.4612	1413.57	79.803	1413.57	80.9818	1413.57	76.7189	1413.57	82.1229	1413.57	74.7714	1413.57	80.9749	1413.57	73.3216	1413.57	78.0628	1413.57	71.2837	1413.57	75.7839	1413.57	69.8212	1413.57	70.5686	1413.57	66.9663	1413.57	73.018	1413.57	70.7214	1413.57	69.4237	1413.57	70.2571	1413.57	69.4008	1413.57	72.1389	1413.57	69.5182	1413.57	74.1908	1413.57	70.3218	1413.57	71.0594	1413.57	68.1523	1413.57	71.388	1413.57	66.3161	1413.57	70.6566
1463.38	85.0533	1463.38	85.6954	1463.38	83.5473	1463.38	85.1061	1463.38	82.7681	1463.38	84.0405	1463.38	82.8672	1463.38	82.461	1463.38	82.2394	1463.38	79.6701	1463.38	81.5031	1463.38	77.4156	1463.38	82.5545	1463.38	75.8429	1463.38	81.9081	1463.38	73.7125	1463.38	77.7428	1463.38	71.7694	1463.38	76.7425	1463.38	70.8803	1463.38	72.3774	1463.38	68.7173	1463.38	73.559	1463.38	66.3619	1463.38	71.571	1463.38	68.8329	1463.38	70.0227	1463.38	70.1573	1463.38	67.2803	1463.38	72.7263	1463.38	65.7487	1463.38	71.2074	1463.38	65.3329	1463.38	69.6178	1463.38	67.4424	1463.38	69.1186
1516.11	84.9809	1516.11	85.4479	1516.11	83.7987	1516.11	85.0128	1516.11	82.7696	1516.11	83.7286	1516.11	82.5387	1516.11	81.6674	1516.11	82.0707	1516.11	79.8997	1516.11	81.2668	1516.11	78.3786	1516.11	82.2081	1516.11	75.7973	1516.11	81.8685	1516.11	73.3639	1516.11	78.2078	1516.11	71.961	1516.11	76.3821	1516.11	68.0723	1516.11	68.6995	1516.11	66.8612	1516.11	71.7517	1516.11	69.244	1516.11	69.7665	1516.11	67.0948	1516.11	67.4824	1516.11	70.5893	1516.11	65.574	1516.11	70.8342	1516.11	63.0892	1516.11	71.424	1516.11	64.3565	1516.11	70.0945	1516.11	67.0776	1516.11	66.4779
1568.85	84.6668	1568.85	85.1889	1568.85	83.2526	1568.85	84.7302	1568.85	81.7647	1568.85	83.2944	1568.85	81.495	1568.85	81.2641	1568.85	81.3997	1568.85	79.4119	1568.85	80.2503	1568.85	77.4259	1568.85	80.9131	1568.85	75.2059	1568.85	81.6014	1568.85	71.9633	1568.85	76.6788	1568.85	68.7962	1568.85	74.0042	1568.85	68.7402	1568.85	71.7223	1568.85	68.1937	1568.85	69.3591	1568.85	69.6205	1568.85	67.7799	1568.85	67.5259	1568.85	67.9385	1568.85	70.12	1568.85	66.4803	1568.85	69.0733	1568.85	64.8597	1568.85	69.9418	1568.85	60.5161	1568.85	70.1621	1568.85	64.7923	1568.85	66.1307
1624.51	84.8531	1624.51	85.4051	1624.51	83.1976	1624.51	84.646	1624.51	81.0379	1624.51	83.0393	1624.51	80.5863	1624.51	81.6523	1624.51	80.6844	1624.51	79.3425	1624.51	79.8005	1624.51	76.6454	1624.51	80.8602	1624.51	74.8534	1624.51	81.5394	1624.51	73.0196	1624.51	78.2774	1624.51	71.2985	1624.51	74.6409	1624.51	71.0656	1624.51	72.0729	1624.51	70.0619	1624.51	69.2701	1624.51	67.1046	1624.51	68.6443	1624.51	70.5333	1624.51	65.8834	1624.51	70.4885	1624.51	65.9413	1624.51	69.2951	1624.51	66.1108	1624.51	69.55	1624.51	63.7627	1624.51	70.0573	1624.51	65.4295	1624.51	68.5742
1681.64	85.6687	1681.64	85.8662	1681.64	83.6816	1681.64	84.4974	1681.64	81.8089	1681.64	83.5897	1681.64	80.617	1681.64	81.9374	1681.64	80.1448	1681.64	79.0289	1681.64	80.1119	1681.64	76.6994	1681.64	81.0583	1681.64	74.2998	1681.64	82.2264	1681.64	71.8186	1681.64	79.1478	1681.64	70.4021	1681.64	74.5202	1681.64	67.6715	1681.64	71.3305	1681.64	68.1468	1681.64	71.8829	1681.64	68.7463	1681.64	68.1467	1681.64	70.7626	1681.64	66.0683	1681.64	70.6773	1681.64	67.3846	1681.64	69.8068	1681.64	67.3667	1681.64	68.725	1681.64	65.3294	1681.64	70.1454	1681.64	67.0175	1681.64	69.7799
1741.7	85.915	1741.7	85.575	1741.7	84.649	1741.7	84.7604	1741.7	82.4025	1741.7	83.4585	1741.7	81.0081	1741.7	81.1443	1741.7	80.4593	1741.7	79.1523	1741.7	80.2143	1741.7	76.4142	1741.7	81.0198	1741.7	72.6026	1741.7	82.2197	1741.7	69.1345	1741.7	79.7113	1741.7	68	1741.7	76.2831	1741.7	63.7056	1741.7	74.0922	1741.7	65.7288	1741.7	70.8109	1741.7	68.0819	1741.7	65.3286	1741.7	69.8753	1741.7	67.0036	1741.7	69.6834	1741.7	65.8113	1741.7	69.2534	1741.7	59.6851	1741.7	67.5491	1741.7	63.3729	1741.7	69.1932	1741.7	68.452	1741.7	70.2316
1803.22	85.7479	1803.22	85.3272	1803.22	84.7871	1803.22	84.1157	1803.22	82.6397	1803.22	82.364	1803.22	80.4884	1803.22	80.4286	1803.22	79.6667	1803.22	77.581	1803.22	79.7614	1803.22	74.09	1803.22	80.3885	1803.22	71.5507	1803.22	81.9907	1803.22	68.4295	1803.22	79.2302	1803.22	65.7731	1803.22	75.6149	1803.22	67.3284	1803.22	73.34	1803.22	66.2449	1803.22	70.9689	1803.22	66.077	1803.22	64.2638	1803.22	68.843	1803.22	66.5176	1803.22	68.2123	1803.22	63.8446	1803.22	68.0671	1803.22	52.1503	1803.22	66.4947	1803.22	65.3652	1803.22	66.4496	1803.22	70.0308	1803.22	69.2184
1866.21	85.4526	1866.21	84.922	1866.21	84.4921	1866.21	83.4855	1866.21	81.6436	1866.21	82.1252	1866.21	78.5702	1866.21	80.024	1866.21	78.1394	1866.21	76.6741	1866.21	79.138	1866.21	74.8278	1866.21	80.2543	1866.21	73.9657	1866.21	81.9478	1866.21	71.6953	1866.21	78.5707	1866.21	68.7148	1866.21	74.9779	1866.21	69.8912	1866.21	72.5952	1866.21	69.6987	1866.21	70.4733	1866.21	68.8257	1866.21	59.7576	1866.21	69.3047	1866.21	65.9035	1866.21	68.1855	1866.21	63.3839	1866.21	69.6231	1866.21	58.0893	1866.21	67.2854	1866.21	63.1621	1866.21	66.5732	1866.21	70.1616	1866.21	69.9796
1932.13	85.4687	1932.13	84.4476	1932.13	84.3211	1932.13	83.4872	1932.13	79.921	1932.13	81.2287	1932.13	75.5966	1932.13	78.2705	1932.13	76.6761	1932.13	77.2745	1932.13	79.0225	1932.13	75.4275	1932.13	80.2488	1932.13	73.4057	1932.13	82.1255	1932.13	72.334	1932.13	79.7219	1932.13	71.3274	1932.13	73.7029	1932.13	69.5129	1932.13	72.8949	1932.13	70.1217	1932.13	68.8913	1932.13	70.211	1932.13	64.3361	1932.13	68.8796	1932.13	65.4387	1932.13	68.9481	1932.13	62.007	1932.13	68.0517	1932.13	55.5679	1932.13	66.6883	1932.13	54.7889	1932.13	65.8079	1932.13	69.3422	1932.13	69.9959
1999.51	85.6523	1999.51	84.9081	1999.51	85.0379	1999.51	83.473	1999.51	80.6976	1999.51	80.3853	1999.51	76.3516	1999.51	78.4701	1999.51	78.3249	1999.51	76.7379	1999.51	80.3703	1999.51	74.0455	1999.51	80.9378	1999.51	71.9423	1999.51	82.5244	1999.51	72.3856	1999.51	80.4713	1999.51	72.464	1999.51	75.3001	1999.51	70.4986	1999.51	75.3932	1999.51	67.2817	1999.51	68.8078	1999.51	68.3115	1999.51	66.2688	1999.51	66.6174	1999.51	67.0719	1999.51	66.025	1999.51	59.22	1999.51	63.6314	1999.51	59.0741	1999.51	64.5354	1999.51	57.3331	1999.51	64.3627	1999.51	68.7449	1999.51	68.5524
2069.82	85.771	2069.82	84.8102	2069.82	85.4612	2069.82	82.4783	2069.82	81.5269	2069.82	79.4363	2069.82	76.2786	2069.82	77.0187	2069.82	77.7158	2069.82	74.992	2069.82	80.366	2069.82	73.9609	2069.82	81.1732	2069.82	72.3483	2069.82	82.3202	2069.82	72.1009	2069.82	79.9591	2069.82	72.762	2069.82	74.9398	2069.82	72.0148	2069.82	73.9532	2069.82	69.9651	2069.82	70.6321	2069.82	69.7582	2069.82	65.6922	2069.82	67.641	2069.82	65.1297	2069.82	65.8772	2069.82	64.3229	2069.82	65.54	2069.82	62.0965	2069.82	65.1781	2069.82	59.8641	2069.82	65.5443	2069.82	69.0237	2069.82	66.9733
2143.07	85.1482	2143.07	84.4506	2143.07	84.5119	2143.07	82.165	2143.07	79.6688	2143.07	79.5082	2143.07	70.793	2143.07	75.6647	2143.07	75.8303	2143.07	74.9878	2143.07	79.913	2143.07	76.199	2143.07	80.4676	2143.07	74.8219	2143.07	81.7996	2143.07	73.3576	2143.07	79.4927	2143.07	73.0916	2143.07	72.6326	2143.07	69.9836	2143.07	73.0881	2143.07	70.5446	2143.07	68.9604	2143.07	70.4912	2143.07	66.5288	2143.07	71.0805	2143.07	69.0647	2143.07	68.0562	2143.07	62.0956	2143.07	64.5792	2143.07	57.5802	2143.07	62.1189	2143.07	57.8581	2143.07	67.7263	2143.07	69.0862	2143.07	69.0821
2219.24	84.6826	2219.24	84.7665	2219.24	83.2037	2219.24	82.171	2219.24	78.4114	2219.24	77.9729	2219.24	71.6856	2219.24	73.5084	2219.24	76.8323	2219.24	74.5798	2219.24	80.3513	2219.24	74.538	2219.24	80.749	2219.24	72.65	2219.24	81.887	2219.24	72.3131	2219.24	79.6091	2219.24	73.0455	2219.24	74.7377	2219.24	71.9586	2219.24	71.5723	2219.24	67.6992	2219.24	67.4903	2219.24	69.2827	2219.24	63.8881	2219.24	68.76	2219.24	64.1217	2219.24	67.9133	2219.24	59.9826	2219.24	60.4508	2219.24	56.1052	2219.24	50.3377	2219.24	57.7321	2219.24	66.4956	2219.24	67.538	2219.24	70.0263
2296.88	84.9896	2296.88	84.5082	2296.88	83.4131	2296.88	81.4789	2296.88	78.7109	2296.88	76.0647	2296.88	72.1167	2296.88	69.8997	2296.88	76.5368	2296.88	72.7662	2296.88	80.2872	2296.88	73.634	2296.88	80.576	2296.88	73.5883	2296.88	81.8322	2296.88	72.1143	2296.88	79.2205	2296.88	70.6404	2296.88	74.6818	2296.88	71.2033	2296.88	70.978	2296.88	70.4132	2296.88	68.1932	2296.88	68.2043	2296.88	65.9404	2296.88	68.2826	2296.88	65.497	2296.88	66.6368	2296.88	52.1624	2296.88	60.7171	2296.88	51.0371	2296.88	52.9051	2296.88	51.4465	2296.88	65.2733	2296.88	67.7168	2296.88	69.0641
2378.91	84.3406	2378.91	84.0662	2378.91	82.3523	2378.91	81.6788	2378.91	77.2193	2378.91	73.9056	2378.91	69.6219	2378.91	68.6716	2378.91	76.159	2378.91	74.5709	2378.91	80.2434	2378.91	76.8124	2378.91	80.1869	2378.91	76.2572	2378.91	81.2642	2378.91	74.6097	2378.91	78.7033	2378.91	73.1096	2378.91	73.5011	2378.91	70.9149	2378.91	68.7603	2378.91	71.2563	2378.91	66.1393	2378.91	69.5515	2378.91	65.1832	2378.91	70.709	2378.91	65.8168	2378.91	68.7847	2378.91	43.4078	2378.91	64.6215	2378.91	49.9357	2378.91	55.0426	2378.91	55.8944	2378.91	65.7363	2378.91	68.158	2378.91	69.6334
2462.4	84.3191	2462.4	84.2177	2462.4	81.4457	2462.4	81.364	2462.4	75.5297	2462.4	67.1915	2462.4	71.7691	2462.4	71.8999	2462.4	76.9204	2462.4	77.0704	2462.4	80.4422	2462.4	77.6966	2462.4	80.6458	2462.4	77.3096	2462.4	81.5115	2462.4	75.7528	2462.4	79.5901	2462.4	73.4749	2462.4	74.6905	2462.4	72.2988	2462.4	70.0703	2462.4	70.423	2462.4	67.6288	2462.4	71.3974	2462.4	63.8001	2462.4	70.2977	2462.4	66.8197	2462.4	69.6011	2462.4	55.6635	2462.4	65.0524	2462.4	47.7088	2462.4	43.5985	2462.4	56.6744	2462.4	65.9697	2462.4	68.7161	2462.4	69.8836
2548.83	84.313	2548.83	84.1914	2548.83	81.4617	2548.83	80.3052	2548.83	74.9721	2548.83	66.8958	2548.83	71.4389	2548.83	73.7499	2548.83	77.5833	2548.83	76.9639	2548.83	80.508	2548.83	77.8023	2548.83	81.5121	2548.83	76.7039	2548.83	82.0252	2548.83	75.1307	2548.83	79.604	2548.83	74.0529	2548.83	74.9004	2548.83	71.238	2548.83	70.665	2548.83	70.6436	2548.83	66.6542	2548.83	69.169	2548.83	63.2091	2548.83	68.877	2548.83	65.7317	2548.83	69.1871	2548.83	59.0379	2548.83	64.3634	2548.83	46.0296	2548.83	50.0955	2548.83	56.7568	2548.83	65.9201	2548.83	67.6707	2548.83	68.8624
2639.65	83.5343	2639.65	83.8823	2639.65	80.6315	2639.65	79.7109	2639.65	73.6791	2639.65	70.1796	2639.65	70.6406	2639.65	74.3644	2639.65	78.2297	2639.65	77.9671	2639.65	80.8373	2639.65	78.0863	2639.65	81.3356	2639.65	77.1977	2639.65	81.5679	2639.65	75.6891	2639.65	79.2427	2639.65	74.3474	2639.65	73.3681	2639.65	73.9906	2639.65	68.3959	2639.65	69.5728	2639.65	67.2358	2639.65	70.2327	2639.65	62.4749	2639.65	70.0635	2639.65	66.9295	2639.65	69.601	2639.65	63.2961	2639.65	66.2043	2639.65	55.9712	2639.65	59.2929	2639.65	60.1903	2639.65	65.129	2639.65	68.6153	2639.65	68.6383
2731.93	83.6462	2731.93	83.682	2731.93	79.8388	2731.93	78.5315	2731.93	71.7195	2731.93	72.1031	2731.93	69.534	2731.93	76.6833	2731.93	79.1188	2731.93	79.0234	2731.93	81.0569	2731.93	79.203	2731.93	81.7954	2731.93	78.1456	2731.93	81.9249	2731.93	76.3178	2731.93	80.5826	2731.93	73.4061	2731.93	74.743	2731.93	72.8366	2731.93	69.1608	2731.93	70.8173	2731.93	67.7915	2731.93	69.1748	2731.93	64.7571	2731.93	70.5514	2731.93	66.442	2731.93	69.5369	2731.93	59.837	2731.93	66.818	2731.93	52.7007	2731.93	61.732	2731.93	61.446	2731.93	65.1077	2731.93	68.728	2731.93	69.355
2828.61	83.6368	2828.61	83.6707	2828.61	80.488	2828.61	79.1856	2828.61	73.1712	2828.61	73.3252	2828.61	66.905	2828.61	77.7217	2828.61	78.6632	2828.61	79.7244	2828.61	81.2139	2828.61	79.3531	2828.61	82.3176	2828.61	77.9827	2828.61	82.542	2828.61	75.7602	2828.61	80.5146	2828.61	73.6438	2828.61	75.205	2828.61	71.7816	2828.61	68.2531	2828.61	71.0913	2828.61	67.84	2828.61	67.9375	2828.61	66.6271	2828.61	70.6134	2828.61	64.8061	2828.61	68.1296	2828.61	63.7865	2828.61	66.1117	2828.61	61.5616	2828.61	60.278	2828.61	61.6137	2828.61	65.1313	2828.61	65.9997	2828.61	67.887
2928.22	83.5068	2928.22	83.0251	2928.22	79.6356	2928.22	79.0593	2928.22	72.8948	2928.22	73.3323	2928.22	68.4227	2928.22	78.5875	2928.22	78.9835	2928.22	80.7286	2928.22	81.7021	2928.22	79.5137	2928.22	81.8544	2928.22	78.0406	2928.22	81.5289	2928.22	76.3297	2928.22	80.5919	2928.22	74.4835	2928.22	74.9637	2928.22	72.7187	2928.22	67.5615	2928.22	72.5213	2928.22	66.9177	2928.22	70.3945	2928.22	66.9715	2928.22	69.2374	2928.22	63.9685	2928.22	70.0506	2928.22	63.6987	2928.22	67.5045	2928.22	56.6085	2928.22	58.4538	2928.22	61.7203	2928.22	65.7518	2928.22	68.9308	2928.22	68.0644
3030.76	83.4391	3030.76	82.7171	3030.76	79.8309	3030.76	78.6459	3030.76	71.2662	3030.76	75.6714	3030.76	71.0329	3030.76	80.2297	3030.76	79.862	3030.76	81.5761	3030.76	81.676	3030.76	80.7007	3030.76	82.2469	3030.76	79.5455	3030.76	81.3769	3030.76	78.2336	3030.76	80.9584	3030.76	75.4801	3030.76	74.6863	3030.76	73.9707	3030.76	68.0617	3030.76	72.0014	3030.76	65.7866	3030.76	71.0587	3030.76	68.2549	3030.76	69.2661	3030.76	58.3143	3030.76	70.495	3030.76	65.2626	3030.76	68.4007	3030.76	59.711	3030.76	63.462	3030.76	56.7261	3030.76	67.2143	3030.76	67.0005	3030.76	68.7584
3137.7	83.6519	3137.7	83.0922	3137.7	80.4974	3137.7	78.7057	3137.7	73.4032	3137.7	77.5034	3137.7	73.6119	3137.7	81.2961	3137.7	81.1194	3137.7	82.1769	3137.7	82.6004	3137.7	82.3108	3137.7	82.734	3137.7	80.263	3137.7	81.2523	3137.7	78.2942	3137.7	80.6876	3137.7	76.1225	3137.7	74.1279	3137.7	73.9857	3137.7	68.6291	3137.7	72.5148	3137.7	66.1129	3137.7	70.7391	3137.7	66.1992	3137.7	69.7842	3137.7	63.255	3137.7	70.5716	3137.7	67.1533	3137.7	67.9622	3137.7	63.3788	3137.7	63.992	3137.7	59.3027	3137.7	66.7003	3137.7	65.3101	3137.7	67.2695
3249.02	83.4692	3249.02	82.5065	3249.02	81.1178	3249.02	78.5243	3249.02	75.3527	3249.02	78.0219	3249.02	75.8172	3249.02	81.6663	3249.02	81.1401	3249.02	83.2479	3249.02	82.5266	3249.02	82.6151	3249.02	82.4155	3249.02	80.1687	3249.02	80.9796	3249.02	77.6586	3249.02	80.6325	3249.02	74.9128	3249.02	73.5135	3249.02	73.1539	3249.02	67.3415	3249.02	71.4559	3249.02	65.0681	3249.02	68.7232	3249.02	68.7277	3249.02	70.8193	3249.02	63.3513	3249.02	70.9188	3249.02	62.6621	3249.02	69.4781	3249.02	63.8021	3249.02	64.9186	3249.02	60.7966	3249.02	66.6725	3249.02	68.2104	3249.02	69.6773
3363.28	83.2695	3363.28	82.1146	3363.28	82.0578	3363.28	77.2614	3363.28	75.2073	3363.28	79.5664	3363.28	78.1142	3363.28	83.3075	3363.28	81.035	3363.28	84.0627	3363.28	82.0193	3363.28	82.4299	3363.28	82.4571	3363.28	79.2119	3363.28	80.8369	3363.28	76.8272	3363.28	80.9662	3363.28	74.2198	3363.28	73.8246	3363.28	71.1656	3363.28	66.5742	3363.28	70.8953	3363.28	62.7157	3363.28	65.7882	3363.28	68.4837	3363.28	67.1341	3363.28	62.553	3363.28	68.3283	3363.28	64.1185	3363.28	67.2817	3363.28	63.2623	3363.28	63.6581	3363.28	49.0907	3363.28	66.1931	3363.28	67.1344	3363.28	68.5308
3481.93	83.2379	3481.93	82.1179	3481.93	82.4184	3481.93	77.3328	3481.93	76.6408	3481.93	80.6548	3481.93	79.9911	3481.93	84.1347	3481.93	81.4147	3481.93	83.6617	3481.93	81.8379	3481.93	81.307	3481.93	82.4418	3481.93	78.8746	3481.93	81.1694	3481.93	75.8313	3481.93	81.322	3481.93	74.0025	3481.93	73.6469	3481.93	71.5864	3481.93	68.2296	3481.93	69.8012	3481.93	65.5507	3481.93	67.9757	3481.93	66.1879	3481.93	65.735	3481.93	64.6613	3481.93	67.433	3481.93	65.827	3481.93	66.9813	3481.93	65.6823	3481.93	65.4621	3481.93	60.6544	3481.93	63.5065	3481.93	68.6809	3481.93	68.121
3604.98	83.6374	3604.98	81.9592	3604.98	82.2945	3604.98	77.504	3604.98	78.8568	3604.98	81.7608	3604.98	80.5383	3604.98	84.6351	3604.98	80.4589	3604.98	82.7576	3604.98	81.4489	3604.98	79.7333	3604.98	82.2905	3604.98	76.3646	3604.98	81.4269	3604.98	73.8091	3604.98	81.5219	3604.98	72.7325	3604.98	73.7565	3604.98	71.0734	3604.98	68.9036	3604.98	68.7763	3604.98	64.5807	3604.98	67.1387	3604.98	66.9995	3604.98	62.7288	3604.98	61.6494	3604.98	64.4483	3604.98	63.8664	3604.98	65.1874	3604.98	64.8721	3604.98	63.7598	3604.98	57.282	3604.98	63.6278	3604.98	67.2865	3604.98	67.9551
3732.42	84.0443	3732.42	81.7012	3732.42	82.5792	3732.42	78.748	3732.42	79.1703	3732.42	82.7413	3732.42	82.1924	3732.42	84.2136	3732.42	80.7923	3732.42	82.1621	3732.42	81.5882	3732.42	78.6795	3732.42	82.0315	3732.42	76.7878	3732.42	81.5041	3732.42	75.9829	3732.42	82.4916	3732.42	74.5362	3732.42	73.8541	3732.42	72.5386	3732.42	69.1119	3732.42	71.2727	3732.42	64.979	3732.42	69.0262	3732.42	64.608	3732.42	67.0494	3732.42	64.019	3732.42	66.083	3732.42	64.7827	3732.42	63.5401	3732.42	65.1042	3732.42	59.6828	3732.42	55.9814	3732.42	63.9282	3732.42	66.3364	3732.42	68.4496
3864.26	84.7747	3864.26	81.726	3864.26	83.2824	3864.26	79.6687	3864.26	80.3852	3864.26	84.5373	3864.26	82.2961	3864.26	84.5465	3864.26	81.089	3864.26	81.7605	3864.26	81.5493	3864.26	79.2481	3864.26	81.9933	3864.26	78.6704	3864.26	81.5369	3864.26	76.7742	3864.26	82.9162	3864.26	76.2874	3864.26	74.0565	3864.26	72.8025	3864.26	68.8985	3864.26	72.2354	3864.26	67.1552	3864.26	70.6675	3864.26	65.7401	3864.26	67.1025	3864.26	63.6023	3864.26	65.6469	3864.26	62.8624	3864.26	65.15	3864.26	62.7504	3864.26	62.3182	3864.26	61.5642	3864.26	64.6435	3864.26	66.5783	3864.26	68.9941
4000.49	85.109	4000.49	81.7835	4000.49	83.6945	4000.49	80.1473	4000.49	82.4768	4000.49	84.4828	4000.49	83.2274	4000.49	83.7608	4000.49	81.7433	4000.49	82	4000.49	80.2078	4000.49	81.0288	4000.49	81.0058	4000.49	80.621	4000.49	80.7644	4000.49	79.4592	4000.49	82.6793	4000.49	76.5102	4000.49	74.1301	4000.49	74.4843	4000.49	69.8339	4000.49	72.3512	4000.49	64.1587	4000.49	71.2702	4000.49	65.822	4000.49	68.4312	4000.49	58.4529	4000.49	69.1808	4000.49	61.7582	4000.49	66.9092	4000.49	67.8839	4000.49	62.1466	4000.49	62.451	4000.49	65.9841	4000.49	67.984	4000.49	67.3363
4141.11	85.3034	4141.11	81.8907	4141.11	83.6654	4141.11	82.0096	4141.11	82.2375	4141.11	85.2222	4141.11	83.2577	4141.11	83.8696	4141.11	81.1502	4141.11	82.6251	4141.11	79.7191	4141.11	82.1423	4141.11	80.1744	4141.11	80.3931	4141.11	80.5351	4141.11	78.2625	4141.11	83.4259	4141.11	75.5197	4141.11	75.1887	4141.11	73.6849	4141.11	71.154	4141.11	69.8438	4141.11	58.4986	4141.11	70.0726	4141.11	59.8239	4141.11	65.2523	4141.11	59.5104	4141.11	66.4554	4141.11	62.8348	4141.11	64.8001	4141.11	68.3651	4141.11	63.3699	4141.11	57.2545	4141.11	66.9438	4141.11	67.4315	4141.11	68.8086
4287.6	86.3984	4287.6	82.9485	4287.6	85.1292	4287.6	83.0281	4287.6	83.0863	4287.6	84.1578	4287.6	84.2472	4287.6	83.832	4287.6	82.0558	4287.6	83.323	4287.6	80.0391	4287.6	82.0304	4287.6	79.459	4287.6	79.8649	4287.6	80.9846	4287.6	77.1832	4287.6	82.9638	4287.6	74.3108	4287.6	74.5868	4287.6	72.4754	4287.6	69.2724	4287.6	70.2053	4287.6	46.5398	4287.6	67.8124	4287.6	63.5037	4287.6	65.9853	4287.6	60.4857	4287.6	67.4284	4287.6	64.8788	4287.6	64.7386	4287.6	66.366	4287.6	60.2024	4287.6	60.9606	4287.6	64.3876	4287.6	69.6827	4287.6	65.9476
4438.48	86.3044	4438.48	82.2862	4438.48	85.0538	4438.48	84.275	4438.48	82.6893	4438.48	84.8157	4438.48	84.4158	4438.48	83.7082	4438.48	81.8425	4438.48	82.6751	4438.48	77.2246	4438.48	81.6969	4438.48	78.516	4438.48	78.8977	4438.48	80.8351	4438.48	76.7221	4438.48	83.2537	4438.48	74.803	4438.48	74.3396	4438.48	72.5037	4438.48	69.0654	4438.48	70.3146	4438.48	58.6518	4438.48	67.9645	4438.48	66.9213	4438.48	63.5188	4438.48	59.038	4438.48	64.1614	4438.48	62.193	4438.48	62.7316	4438.48	66.205	4438.48	51.0292	4438.48	65.2831	4438.48	65.962	4438.48	65.8	4438.48	67.9678
4595.21	87.1821	4595.21	82.3495	4595.21	86.3739	4595.21	84.2454	4595.21	83.843	4595.21	84.6119	4595.21	84.6396	4595.21	83.7751	4595.21	83.6762	4595.21	82.5338	4595.21	79.2393	4595.21	80.7428	4595.21	79.2312	4595.21	78.1684	4595.21	80.2569	4595.21	76.4278	4595.21	82.6457	4595.21	73.3688	4595.21	74.8545	4595.21	72.322	4595.21	68.9069	4595.21	68.4664	4595.21	61.3793	4595.21	68.6427	4595.21	67.5333	4595.21	64.3439	4595.21	59.3978	4595.21	62.473	4595.21	64.9888	4595.21	62.9537	4595.21	68.5459	4595.21	58.2381	4595.21	64.887	4595.21	61.9391	4595.21	63.4799	4595.21	66.5174
4756.35	86.9056	4756.35	83.427	4756.35	86.0986	4756.35	84.7477	4756.35	83.5053	4756.35	84.5082	4756.35	83.8944	4756.35	83.2511	4756.35	82.9871	4756.35	82.7119	4756.35	77.3792	4756.35	79.9641	4756.35	79.3343	4756.35	77.6977	4756.35	81.8136	4756.35	74.4823	4756.35	82.369	4756.35	72.9892	4756.35	72.5298	4756.35	71.3518	4756.35	67.5155	4756.35	68.9845	4756.35	62.2706	4756.35	67.5585	4756.35	64.8817	4756.35	64.5196	4756.35	55.233	4756.35	59.8875	4756.35	65.5719	4756.35	61.2595	4756.35	65.8926	4756.35	45.7032	4756.35	61.6984	4756.35	62.0673	4756.35	66.4089	4756.35	67.3656
4924.8	86.6144	4924.8	84.4332	4924.8	86.5622	4924.8	85.1813	4924.8	83.4087	4924.8	85.1199	4924.8	84.9856	4924.8	83.9247	4924.8	83.5446	4924.8	82.1694	4924.8	79.2262	4924.8	78.9596	4924.8	78.4904	4924.8	77.9809	4924.8	80.563	4924.8	75.2127	4924.8	83.1141	4924.8	73.2323	4924.8	73.6814	4924.8	70.4008	4924.8	68.69	4924.8	70.4464	4924.8	62.1634	4924.8	67.5595	4924.8	61.3256	4924.8	66.7437	4924.8	56.7786	4924.8	64.1012	4924.8	63.8317	4924.8	61.1088	4924.8	66.6155	4924.8	50.9878	4924.8	61.82	4924.8	63.2976	4924.8	64.2094	4924.8	64.2187
5097.66	86.7002	5097.66	85.7835	5097.66	86.9947	5097.66	84.6536	5097.66	82.2595	5097.66	85.1267	5097.66	83.4874	5097.66	84.0449	5097.66	83.5446	5097.66	82.1606	5097.66	80.1189	5097.66	79.9324	5097.66	80.1297	5097.66	77.3733	5097.66	80.1862	5097.66	74.4251	5097.66	81.6782	5097.66	73.1563	5097.66	75.1159	5097.66	70.2485	5097.66	70.2893	5097.66	69.1237	5097.66	59.0385	5097.66	67.5196	5097.66	61.9026	5097.66	67.0195	5097.66	63.4658	5097.66	64.429	5097.66	64.7743	5097.66	63.2357	5097.66	66.2819	5097.66	55.3064	5097.66	61.5661	5097.66	55.6146	5097.66	62.8175	5097.66	65.2213
5277.83	86.3554	5277.83	85.9135	5277.83	87.7424	5277.83	86.062	5277.83	83.5902	5277.83	85.2181	5277.83	83.669	5277.83	83.8144	5277.83	83.7208	5277.83	81.0174	5277.83	79.1909	5277.83	79.5928	5277.83	78.9852	5277.83	76.7276	5277.83	79.5256	5277.83	75.3836	5277.83	81.4217	5277.83	73.7236	5277.83	71.4	5277.83	71.5177	5277.83	68.9857	5277.83	70.2774	5277.83	57.1997	5277.83	69.6493	5277.83	60.6306	5277.83	66.8963	5277.83	61.2474	5277.83	65.3663	5277.83	65.1428	5277.83	63.6653	5277.83	67.3904	5277.83	57.1075	5277.83	62.9568	5277.83	57.6204	5277.83	62.6036	5277.83	64.9288
5463.87	86.5456	5463.87	84.5448	5463.87	87.8884	5463.87	86.3329	5463.87	85.2147	5463.87	85.3666	5463.87	85.4819	5463.87	83.8691	5463.87	84.7228	5463.87	82.1521	5463.87	79.9571	5463.87	79.8395	5463.87	78.2974	5463.87	78.7032	5463.87	77.6007	5463.87	77.7823	5463.87	80.796	5463.87	75.2052	5463.87	74.5993	5463.87	72.2078	5463.87	68.299	5463.87	71.8078	5463.87	61.6375	5463.87	67.6083	5463.87	55.2695	5463.87	68.104	5463.87	57.4438	5463.87	66.2974	5463.87	66.8173	5463.87	67.7367	5463.87	62.7991	5463.87	56.7216	5463.87	64.3632	5463.87	51.6074	5463.87	62.0169	5463.87	64.0593
5657.23	87.0066	5657.23	85.1682	5657.23	86.0842	5657.23	86.377	5657.23	85.6588	5657.23	85.0388	5657.23	85.0665	5657.23	83.349	5657.23	84.2548	5657.23	82.5666	5657.23	81.4572	5657.23	80.7024	5657.23	79.0009	5657.23	79.1918	5657.23	77.2966	5657.23	77.8201	5657.23	79.41	5657.23	74.8562	5657.23	73.8007	5657.23	72.8153	5657.23	65.826	5657.23	70.9687	5657.23	52.4173	5657.23	68.6735	5657.23	58.5864	5657.23	68.9286	5657.23	63.1204	5657.23	68.0001	5657.23	64.1754	5657.23	66.4335	5657.23	62.1559	5657.23	63.1606	5657.23	62.6255	5657.23	50.6257	5657.23	61.6994	5657.23	62.2914
5856.45	86.2282	5856.45	85.8885	5856.45	84.3678	5856.45	86.3956	5856.45	84.7989	5856.45	84.7496	5856.45	84.8161	5856.45	82.9375	5856.45	83.9285	5856.45	82.584	5856.45	81.443	5856.45	81.9429	5856.45	76.5662	5856.45	80.5928	5856.45	79.061	5856.45	78.1737	5856.45	79.6807	5856.45	74.515	5856.45	73.9174	5856.45	72.3409	5856.45	63.2062	5856.45	70.6966	5856.45	49.6522	5856.45	69.1314	5856.45	59.0287	5856.45	67.6648	5856.45	60.7208	5856.45	66.6808	5856.45	63.1834	5856.45	64.4419	5856.45	62.1574	5856.45	64.5324	5856.45	62.7461	5856.45	57.7724	5856.45	60.1407	5856.45	64.6329
6062.99	86.7694	6062.99	86.3501	6062.99	85.5893	6062.99	85.5724	6062.99	84.9713	6062.99	83.8199	6062.99	84.546	6062.99	83.292	6062.99	84.4667	6062.99	82.4744	6062.99	81.6188	6062.99	82.194	6062.99	75.1534	6062.99	79.2981	6062.99	77.146	6062.99	76.2194	6062.99	78.7904	6062.99	74.1387	6062.99	72.8708	6062.99	72.2446	6062.99	66.2067	6062.99	70.2588	6062.99	44.4173	6062.99	66.3247	6062.99	62.6169	6062.99	65.3897	6062.99	59.3637	6062.99	62.9252	6062.99	64.8516	6062.99	68.5156	6062.99	57.8162	6062.99	61.9347	6062.99	64.2905	6062.99	55.8924	6062.99	63.1668	6062.99	64.854
6276.86	86.9833	6276.86	86.7994	6276.86	85.9488	6276.86	85.312	6276.86	84.8841	6276.86	83.6545	6276.86	83.7554	6276.86	84.3393	6276.86	84.2978	6276.86	83.0457	6276.86	82.541	6276.86	82.0466	6276.86	75.2458	6276.86	79.5145	6276.86	76.065	6276.86	77.3878	6276.86	77.9776	6276.86	74.4252	6276.86	73.8276	6276.86	73.2516	6276.86	63.5738	6276.86	70.299	6276.86	58.8252	6276.86	68.2033	6276.86	61.8806	6276.86	68.1356	6276.86	53.8289	6276.86	64.1936	6276.86	62.7055	6276.86	66.6849	6276.86	57.3367	6276.86	60.8569	6276.86	63.7806	6276.86	53.922	6276.86	63.7792	6276.86	59.7246
6498.05	86.1658	6498.05	85.9473	6498.05	85.4324	6498.05	84.7794	6498.05	84.6112	6498.05	83.6982	6498.05	83.7531	6498.05	83.7118	6498.05	83.6253	6498.05	84.2176	6498.05	82.7233	6498.05	82.2797	6498.05	75.5952	6498.05	80.4193	6498.05	73.1214	6498.05	78.185	6498.05	78.7766	6498.05	75.6842	6498.05	75.4897	6498.05	71.9404	6498.05	67.0666	6498.05	69.9467	6498.05	56.4632	6498.05	68.666	6498.05	59.6107	6498.05	66.9064	6498.05	55.9674	6498.05	65.63	6498.05	59.924	6498.05	66.3456	6498.05	59.7484	6498.05	67.5522	6498.05	62.2952	6498.05	63.0136	6498.05	61.7679	6498.05	58.3317
6726.56	85.621	6726.56	85.7593	6726.56	85.1628	6726.56	83.9964	6726.56	84.8883	6726.56	84.1003	6726.56	83.9733	6726.56	83.4096	6726.56	83.065	6726.56	84.4243	6726.56	83.199	6726.56	82.7079	6726.56	76.6808	6726.56	80.3779	6726.56	75.4715	6726.56	77.7667	6726.56	78.2452	6726.56	74.287	6726.56	76.2575	6726.56	71.0005	6726.56	67.2161	6726.56	68.774	6726.56	42.598	6726.56	67.8118	6726.56	52.0811	6726.56	66.489	6726.56	58.4844	6726.56	64.0194	6726.56	63.7082	6726.56	64.8149	6726.56	58.2469	6726.56	62.9672	6726.56	63.0014	6726.56	57.0521	6726.56	52.285	6726.56	67.359
6963.87	85.8863	6963.87	86.4404	6963.87	85.1474	6963.87	83.4785	6963.87	83.5797	6963.87	83.7117	6963.87	83.5467	6963.87	84.7265	6963.87	83.2161	6963.87	83.8789	6963.87	83.0561	6963.87	82.0435	6963.87	77.5345	6963.87	78.4027	6963.87	75.8567	6963.87	75.2335	6963.87	78.7111	6963.87	72.3221	6963.87	75.5071	6963.87	70.7397	6963.87	68.4751	6963.87	68.0824	6963.87	56.2531	6963.87	67.3172	6963.87	54.8499	6963.87	66.8814	6963.87	52.5553	6963.87	63.6164	6963.87	62.2446	6963.87	62.7804	6963.87	55.5516	6963.87	65.1838	6963.87	66.0242	6963.87	64.1316	6963.87	65.9469	6963.87	57.2197
7209.96	85.707	7209.96	85.4621	7209.96	85.5105	7209.96	84.0388	7209.96	82.8238	7209.96	82.9531	7209.96	83.0601	7209.96	85.0669	7209.96	83.0927	7209.96	83.6797	7209.96	82.5805	7209.96	81.9591	7209.96	77.5793	7209.96	78.7405	7209.96	75.0678	7209.96	76.0832	7209.96	79.327	7209.96	72.932	7209.96	75.6935	7209.96	69.8865	7209.96	67.2449	7209.96	67.7695	7209.96	57.3797	7209.96	67.589	7209.96	50.9511	7209.96	64.536	7209.96	58.7061	7209.96	63.0637	7209.96	63.1887	7209.96	65.9831	7209.96	59.2676	7209.96	65.7117	7209.96	63.6236	7209.96	61.6567	7209.96	62.3846	7209.96	63.6193
7464.84	85.9979	7464.84	85.0268	7464.84	85.7759	7464.84	83.9179	7464.84	83.2593	7464.84	84.2621	7464.84	83.1929	7464.84	83.996	7464.84	83.0315	7464.84	83.9477	7464.84	82.5332	7464.84	81.4066	7464.84	78.9124	7464.84	78.7493	7464.84	72.5166	7464.84	75.548	7464.84	78.9179	7464.84	72.0717	7464.84	75.2394	7464.84	70.0158	7464.84	67.1755	7464.84	67.0208	7464.84	54.9318	7464.84	64.9627	7464.84	57.6233	7464.84	66.1559	7464.84	56.3081	7464.84	64.5864	7464.84	59.1361	7464.84	64.0222	7464.84	61.4838	7464.84	62.8716	7464.84	58.2576	7464.84	61.0044	7464.84	60.1006	7464.84	66.4559
7727.05	86.4091	7727.05	84.6787	7727.05	85.1606	7727.05	84.2214	7727.05	83.3943	7727.05	84.7637	7727.05	83.2502	7727.05	83.9053	7727.05	82.1204	7727.05	83.3145	7727.05	82.6122	7727.05	80.6105	7727.05	79.0403	7727.05	77.3441	7727.05	73.7726	7727.05	74.5637	7727.05	77.2536	7727.05	71.97	7727.05	74.3895	7727.05	69.0236	7727.05	64.64	7727.05	67.8172	7727.05	56.4721	7727.05	65.2259	7727.05	57.8581	7727.05	64.2603	7727.05	54.949	7727.05	65.6287	7727.05	62.0778	7727.05	63.7492	7727.05	62.2301	7727.05	68.9718	7727.05	61.4217	7727.05	59.8587	7727.05	65.2341	7727.05	58.4269
7999.51	86.5368	7999.51	85.6493	7999.51	85.6315	7999.51	85.0825	7999.51	83.3551	7999.51	83.684	7999.51	83.2421	7999.51	84.2797	7999.51	81.6273	7999.51	82.2414	7999.51	82.7854	7999.51	80.2345	7999.51	78.7228	7999.51	77.6242	7999.51	74.8362	7999.51	74.6824	7999.51	74.8278	7999.51	71.6634	7999.51	73.8166	7999.51	69.2013	7999.51	62.2141	7999.51	67.5022	7999.51	38.8057	7999.51	65.2145	7999.51	52.8006	7999.51	63.6015	7999.51	56.4116	7999.51	62.2336	7999.51	62.0583	7999.51	65.254	7999.51	45.9654	7999.51	60.0966	7999.51	62.0571	7999.51	63.7872	7999.51	60.7746	7999.51	64.612
8282.23	86.133	8282.23	86.7348	8282.23	85.9247	8282.23	85.4988	8282.23	85.1016	8282.23	83.6195	8282.23	83.9005	8282.23	83.1126	8282.23	80.914	8282.23	81.3625	8282.23	81.8783	8282.23	79.8125	8282.23	79.3993	8282.23	77.1477	8282.23	74.2633	8282.23	74.627	8282.23	74.2473	8282.23	71.6937	8282.23	71.8948	8282.23	69.0853	8282.23	61.1361	8282.23	66.4312	8282.23	51.7536	8282.23	64.326	8282.23	51.1323	8282.23	62.4184	8282.23	50.8979	8282.23	64.446	8282.23	57.0652	8282.23	65.3674	8282.23	59.8752	8282.23	67.4573	8282.23	62.8388	8282.23	56.9252	8282.23	54.4446	8282.23	52.8827
8573.73	85.8147	8573.73	86.7081	8573.73	86.4472	8573.73	85.7151	8573.73	86.0415	8573.73	84.6353	8573.73	83.585	8573.73	81.4633	8573.73	80.9621	8573.73	81.0008	8573.73	81.7685	8573.73	79.2017	8573.73	78.8589	8573.73	77.5861	8573.73	73.4464	8573.73	74.8839	8573.73	73.071	8573.73	71.4957	8573.73	70.4703	8573.73	68.4372	8573.73	61.0946	8573.73	65.3313	8573.73	56.7797	8573.73	63.2821	8573.73	58.1844	8573.73	61.1996	8573.73	53.9429	8573.73	63.3695	8573.73	56.6689	8573.73	63.0441	8573.73	60.8257	8573.73	65.8569	8573.73	51.0343	8573.73	65.1741	8573.73	62.0861	8573.73	61.1807
8876.95	86.1956	8876.95	86.2021	8876.95	87.4851	8876.95	86.4299	8876.95	85.9486	8876.95	84.2743	8876.95	83.5669	8876.95	81.7751	8876.95	81.5629	8876.95	80.0982	8876.95	81.2273	8876.95	79.4026	8876.95	78.5293	8876.95	76.8195	8876.95	71.152	8876.95	72.5293	8876.95	72.8098	8876.95	68.8676	8876.95	69.6511	8876.95	67.0136	8876.95	60.774	8876.95	64.9369	8876.95	55.5494	8876.95	62.991	8876.95	56.1239	8876.95	61.5896	8876.95	51.1305	8876.95	59.0346	8876.95	58.3936	8876.95	63.0856	8876.95	58.6647	8876.95	61.6863	8876.95	61.7309	8876.95	59.431	8876.95	49.2156	8876.95	58.0763
9188.96	86.5599	9188.96	86.0239	9188.96	87.7123	9188.96	86.4874	9188.96	85.8126	9188.96	84.0083	9188.96	83.8939	9188.96	81.9739	9188.96	82.3124	9188.96	80.4885	9188.96	81.3291	9188.96	78.5699	9188.96	77.9152	9188.96	75.4368	9188.96	70.5549	9188.96	72.5694	9188.96	69.1475	9188.96	69.7249	9188.96	68.4456	9188.96	65.5175	9188.96	56.4847	9188.96	63.9787	9188.96	54.5815	9188.96	62.8022	9188.96	53.0103	9188.96	61.89	9188.96	57.3969	9188.96	59.77	9188.96	58.0002	9188.96	61.754	9188.96	56.8384	9188.96	65.7283	9188.96	57.1532	9188.96	62.5974	9188.96	58.8606	9188.96	57.9862
9514.16	86.9305	9514.16	86.3786	9514.16	87.4959	9514.16	85.8965	9514.16	85.6781	9514.16	84.5711	9514.16	84.0441	9514.16	81.3328	9514.16	82.8849	9514.16	79.8231	9514.16	79.6675	9514.16	77.78	9514.16	76.9847	9514.16	75.7409	9514.16	67.6949	9514.16	72.4408	9514.16	70.2374	9514.16	68.1138	9514.16	69.3214	9514.16	64.6419	9514.16	56.7645	9514.16	62.6978	9514.16	52.1443	9514.16	60.3201	9514.16	51.0761	9514.16	59.8733	9514.16	53.1735	9514.16	59.295	9514.16	54.0719	9514.16	58.6578	9514.16	54.2568	9514.16	61.2142	9514.16	47.659	9514.16	58.9302	9514.16	53.8756	9514.16	53.0968
9849.61	87.0774	9849.61	86.7664	9849.61	87.1716	9849.61	86.6383	9849.61	85.4772	9849.61	84.483	9849.61	84.8406	9849.61	82.0996	9849.61	82.8451	9849.61	79.6072	9849.61	78.4866	9849.61	78.443	9849.61	78.0573	9849.61	75.0971	9849.61	71.8366	9849.61	71.4447	9849.61	70.1227	9849.61	68.4677	9849.61	70.1842	9849.61	65.4249	9849.61	60.9142	9849.61	60.6616	9849.61	49.1404	9849.61	59.2678	9849.61	53.5712	9849.61	58.0643	9849.61	49.773	9849.61	57.2855	9849.61	57.0017	9849.61	56.1764	9849.61	54.6387	9849.61	59.9461	9849.61	50.7389	9849.61	54.3425	9849.61	54.0693	9849.61	51.9057
10196.8	87.4341	10196.8	87.0261	10196.8	87.0151	10196.8	87.0723	10196.8	86.1596	10196.8	84.2528	10196.8	84.7157	10196.8	81.6803	10196.8	82.7773	10196.8	80.3846	10196.8	78.5265	10196.8	78.6575	10196.8	78.2151	10196.8	75.2922	10196.8	73.3561	10196.8	71.0725	10196.8	67.829	10196.8	66.646	10196.8	67.8919	10196.8	63.6537	10196.8	60.3139	10196.8	59.8469	10196.8	48.2166	10196.8	57.7286	10196.8	37.048	10196.8	56.148	10196.8	53.5474	10196.8	56.7787	10196.8	55.296	10196.8	53.7995	10196.8	48.3974	10196.8	61.3575	10196.8	49.9165	10196.8	59.2044	10196.8	48.6102	10196.8	49.3863
10555.7	87.0889	10555.7	87.5086	10555.7	87.4817	10555.7	86.8299	10555.7	86.7324	10555.7	84.3045	10555.7	84.7242	10555.7	81.9181	10555.7	82.8572	10555.7	80.5398	10555.7	79.3043	10555.7	77.3927	10555.7	77.8017	10555.7	73.6417	10555.7	73.3113	10555.7	69.1685	10555.7	65.0945	10555.7	65.8357	10555.7	64.2458	10555.7	63.1443	10555.7	58.0924	10555.7	60.2947	10555.7	41.3142	10555.7	58.0009	10555.7	49.9408	10555.7	56.2169	10555.7	48.0733	10555.7	56.1469	10555.7	53.0432	10555.7	53.27	10555.7	51.7672	10555.7	59.7141	10555.7	49.8314	10555.7	57.0668	10555.7	54.7662	10555.7	44.3782
10927.7	87.2932	10927.7	87.6258	10927.7	87.4745	10927.7	86.8158	10927.7	86.9704	10927.7	83.7312	10927.7	85.1392	10927.7	81.9237	10927.7	82.9672	10927.7	79.8508	10927.7	79.3296	10927.7	76.5303	10927.7	77.8268	10927.7	72.4695	10927.7	72.556	10927.7	69.7539	10927.7	58.5027	10927.7	66.3677	10927.7	61.8966	10927.7	63.3777	10927.7	54.5807	10927.7	60.7204	10927.7	46.2896	10927.7	58.65	10927.7	48.3401	10927.7	55.0187	10927.7	34.6078	10927.7	53.7198	10927.7	50.7117	10927.7	52.0252	10927.7	49.7768	10927.7	58.3633	10927.7	52.2881	10927.7	52.7112	10927.7	50.3775	10927.7	47.286
11313	87.5572	11313	87.6151	11313	87.5065	11313	86.4013	11313	86.9868	11313	84.1821	11313	84.7352	11313	81.9758	11313	82.4033	11313	78.6862	11313	78.7897	11313	74.6551	11313	76.8505	11313	72.5593	11313	73.0738	11313	69.0359	11313	54.5391	11313	65.566	11313	62.4349	11313	62.539	11313	46.9735	11313	60.5389	11313	51.0359	11313	57.2577	11313	44.3682	11313	56.7328	11313	46.5759	11313	50.2479	11313	47.3979	11313	47.3121	11313	49.3461	11313	52.7435	11313	50.7852	11313	53.0558	11313	56.7045	11313	41.8947
11712.9	87.6075	11712.9	87.8191	11712.9	87.8854	11712.9	85.8405	11712.9	86.8602	11712.9	83.7414	11712.9	84.406	11712.9	81.5239	11712.9	82.7275	11712.9	77.386	11712.9	78.3291	11712.9	74.2723	11712.9	76.5495	11712.9	72.0087	11712.9	72.0426	11712.9	69.0341	11712.9	60.2177	11712.9	65.5964	11712.9	64.528	11712.9	61.3634	11712.9	47.982	11712.9	60.329	11712.9	55.1098	11712.9	56.3282	11712.9	40.7406	11712.9	56.0087	11712.9	47.6582	11712.9	48.6938	11712.9	48.7811	11712.9	40.7948	11712.9	46.7225	11712.9	49.8374	11712.9	47.5095	11712.9	51.934	11712.9	49.957	11712.9	51.7753
12126	87.8826	12126	87.4493	12126	87.5607	12126	85.8547	12126	86.497	12126	83.3635	12126	84.5564	12126	80.2184	12126	81.5068	12126	75.9093	12126	77.4634	12126	74.6306	12126	75.947	12126	72.3624	12126	71.2445	12126	68.8807	12126	62.9999	12126	65.1778	12126	63.971	12126	62.4575	12126	48.9169	12126	59.6837	12126	53.5277	12126	57.3682	12126	40.075	12126	54.3946	12126	43.0641	12126	52.3132	12126	47.0755	12126	42.8232	12126	47.9617	12126	50.416	12126	47.9779	12126	55.9627	12126	53.8512	12126	47.3805
12553.7	88.1218	12553.7	87.3438	12553.7	87.6022	12553.7	85.3397	12553.7	86.3694	12553.7	83.6961	12553.7	84.3451	12553.7	79.2904	12553.7	80.8101	12553.7	75.8959	12553.7	77.7471	12553.7	74.4957	12553.7	75.7445	12553.7	72.4035	12553.7	70.7164	12553.7	68.5136	12553.7	64.1574	12553.7	64.9403	12553.7	64.2725	12553.7	61.8434	12553.7	51.6742	12553.7	58.1113	12553.7	47.2525	12553.7	55.2914	12553.7	40.2918	12553.7	55.3112	12553.7	49.1293	12553.7	54.2356	12553.7	44.1162	12553.7	50.496	12553.7	47.0398	12553.7	46.8491	12553.7	52.6919	12553.7	55.6372	12553.7	45.7486	12553.7	38.3562
12996.1	88.1827	12996.1	87.5099	12996.1	87.6379	12996.1	85.3345	12996.1	86.0686	12996.1	82.9849	12996.1	83.9236	12996.1	78.4139	12996.1	80.9351	12996.1	75.9746	12996.1	77.5726	12996.1	75.1675	12996.1	75.3218	12996.1	72.4558	12996.1	70.9042	12996.1	69.4626	12996.1	64.259	12996.1	66.5406	12996.1	62.9232	12996.1	63.1165	12996.1	48.6609	12996.1	59.9542	12996.1	44.2791	12996.1	58.0506	12996.1	47.435	12996.1	54.4853	12996.1	46.713	12996.1	53.9455	12996.1	46.6589	12996.1	51.7546	12996.1	49.7248	12996.1	48.295	12996.1	41.2526	12996.1	54.3032	12996.1	55.5272	12996.1	47.2267
13454.6	88.2489	13454.6	87.2286	13454.6	87.494	13454.6	85.566	13454.6	86.2493	13454.6	82.7605	13454.6	83.6582	13454.6	77.3787	13454.6	80.4207	13454.6	76.5336	13454.6	77.9425	13454.6	74.8976	13454.6	74.9021	13454.6	73.0067	13454.6	72.2331	13454.6	69.6105	13454.6	64.1676	13454.6	66.4627	13454.6	60.8453	13454.6	63.8369	13454.6	37.9337	13454.6	60.5974	13454.6	42.4011	13454.6	58.7072	13454.6	52.012	13454.6	56.583	13454.6	43.6998	13454.6	52.6204	13454.6	41.148	13454.6	53.9853	13454.6	45.5293	13454.6	43.0412	13454.6	49.3571	13454.6	55.5874	13454.6	46.46	13454.6	44.1057
13929.2	88.1158	13929.2	87.18	13929.2	87.5502	13929.2	85.6064	13929.2	86.2601	13929.2	81.9179	13929.2	83.2931	13929.2	77.815	13929.2	79.9257	13929.2	76.6163	13929.2	77.1726	13929.2	75.6582	13929.2	74.7474	13929.2	73.61	13929.2	73.8903	13929.2	71.0302	13929.2	66.497	13929.2	67.3954	13929.2	61.1446	13929.2	63.6118	13929.2	45.4626	13929.2	61.367	13929.2	40.8949	13929.2	57.6461	13929.2	51.3016	13929.2	57.1797	13929.2	50.3775	13929.2	54.4839	13929.2	46.8397	13929.2	55.6946	13929.2	50.8214	13929.2	45.8131	13929.2	46.2311	13929.2	56.1932	13929.2	49.0657	13929.2	42.7089
14419.9	88.1772	14419.9	86.9245	14419.9	87.7929	14419.9	85.677	14419.9	86.6263	14419.9	82.2793	14419.9	83.8788	14419.9	78.5066	14419.9	79.4642	14419.9	76.8726	14419.9	76.7543	14419.9	74.7746	14419.9	73.7937	14419.9	74.0551	14419.9	73.0493	14419.9	70.4776	14419.9	64.9873	14419.9	66.8144	14419.9	59.1989	14419.9	63.0873	14419.9	49.5999	14419.9	59.7118	14419.9	44.5601	14419.9	55.9283	14419.9	37.0669	14419.9	57.617	14419.9	39.8241	14419.9	56.373	14419.9	48.8237	14419.9	53.9688	14419.9	50.5079	14419.9	49.3124	14419.9	49.3444	14419.9	54.1659	14419.9	45.5771	14419.9	45.8829
14928.2	88.1954	14928.2	87.0444	14928.2	87.958	14928.2	85.0864	14928.2	86.3361	14928.2	81.5162	14928.2	83.6338	14928.2	79.0243	14928.2	78.9709	14928.2	75.1345	14928.2	76.1418	14928.2	74.8922	14928.2	75.0311	14928.2	73.7564	14928.2	72.7184	14928.2	70.3038	14928.2	63.1921	14928.2	66.375	14928.2	59.4874	14928.2	63.0356	14928.2	45.5399	14928.2	58.8026	14928.2	40.9955	14928.2	55.5939	14928.2	49.2387	14928.2	55.3329	14928.2	46.8607	14928.2	56.3221	14928.2	48.1519	14928.2	54.6567	14928.2	50.1791	14928.2	47.31	14928.2	49.7261	14928.2	55.5217	14928.2	38.5786	14928.2	34.7369
15455.6	87.8577	15455.6	86.5955	15455.6	87.5231	15455.6	84.8677	15455.6	85.9258	15455.6	81.2164	15455.6	83.3321	15455.6	78.7463	15455.6	78.2382	15455.6	74.568	15455.6	76.9367	15455.6	75.1917	15455.6	74.5918	15455.6	73.5107	15455.6	74.4836	15455.6	69.4208	15455.6	63.7275	15455.6	65.4727	15455.6	60.9662	15455.6	62.2877	15455.6	44.5548	15455.6	58.8268	15455.6	47.8557	15455.6	55.7566	15455.6	40.3204	15455.6	53.6919	15455.6	50.6874	15455.6	54.5905	15455.6	50.733	15455.6	50.8203	15455.6	52.8144	15455.6	41.5412	15455.6	47.2569	15455.6	55.964	15455.6	43.5711	15455.6	38.8589
16000.5	87.332	16000.5	86.3142	16000.5	87.0745	16000.5	83.8397	16000.5	85.1895	16000.5	80.9143	16000.5	82.012	16000.5	77.59	16000.5	78.5584	16000.5	75.1894	16000.5	77.2143	16000.5	75.4403	16000.5	74.8646	16000.5	72.5621	16000.5	74.4367	16000.5	68.3461	16000.5	63.7596	16000.5	65.201	16000.5	55.9438	16000.5	61.2598	16000.5	47.48	16000.5	58.3	16000.5	38.893	16000.5	53.4402	16000.5	45.9891	16000.5	55.393	16000.5	29.4212	16000.5	52.1816	16000.5	48.0254	16000.5	51.2628	16000.5	53.5105	16000.5	39.2895	16000.5	50.4286	16000.5	54.0698	16000.5	50.5888	16000.5	40.5361
16564.5	86.3102	16564.5	85.3038	16564.5	86.2234	16564.5	82.7052	16564.5	84.0392	16564.5	81.4327	16564.5	81.6661	16564.5	77.3715	16564.5	78.7683	16564.5	76.3212	16564.5	76.8626	16564.5	74.6805	16564.5	74.8394	16564.5	72.2242	16564.5	74.6661	16564.5	69.8599	16564.5	63.5837	16564.5	66.3677	16564.5	53.5066	16564.5	62.0292	16564.5	40.5984	16564.5	59.0264	16564.5	45.0946	16564.5	55.8634	16564.5	45.9456	16564.5	54.8704	16564.5	45.6726	16564.5	52.7105	16564.5	49.8434	16564.5	53.5946	16564.5	53.4003	16564.5	36.5529	16564.5	48.8794	16564.5	51.2227	16564.5	48.4332	16564.5	37.203
17148.9	85.2926	17148.9	84.242	17148.9	85.2776	17148.9	82.1813	17148.9	82.6724	17148.9	80.4742	17148.9	81.4555	17148.9	77.2584	17148.9	79.2354	17148.9	76.1003	17148.9	75.9134	17148.9	73.8662	17148.9	73.6038	17148.9	73.1856	17148.9	74.3048	17148.9	70.4443	17148.9	65.3396	17148.9	66.5435	17148.9	50.6193	17148.9	61.6996	17148.9	44.2936	17148.9	58.3206	17148.9	39.8935	17148.9	55.1574	17148.9	36.8903	17148.9	52.438	17148.9	43.7002	17148.9	51.6169	17148.9	49.7559	17148.9	53.7964	17148.9	52.1258	17148.9	41.6024	17148.9	50.028	17148.9	51.6844	17148.9	44.6918	17148.9	35.6934
17752.4	85.5244	17752.4	84.5606	17752.4	85.6715	17752.4	82.8465	17752.4	83.0683	17752.4	80.2535	17752.4	81.9664	17752.4	78.1679	17752.4	77.8191	17752.4	75.8634	17752.4	74.5796	17752.4	73.5432	17752.4	72.865	17752.4	72.4849	17752.4	71.7907	17752.4	68.2873	17752.4	65.0766	17752.4	63.9369	17752.4	29.7593	17752.4	59.4818	17752.4	41.8052	17752.4	56.2266	17752.4	39.8629	17752.4	53.3415	17752.4	47.1156	17752.4	49.67	17752.4	40.6295	17752.4	48.4366	17752.4	46.2354	17752.4	51.7224	17752.4	48.1626	17752.4	43.3054	17752.4	45.7866	17752.4	46.6112	17752.4	43.2078	17752.4	30.2204
18379.4	85.8816	18379.4	85.3167	18379.4	85.9576	18379.4	83.2799	18379.4	83.7195	18379.4	79.5548	18379.4	81.3283	18379.4	77.84	18379.4	77.7138	18379.4	72.9531	18379.4	75.4223	18379.4	70.9535	18379.4	72.5445	18379.4	68.6795	18379.4	71.6596	18379.4	63.8397	18379.4	65.5001	18379.4	60.002	18379.4	46.4402	18379.4	55.9413	18379.4	46.1455	18379.4	52.1095	18379.4	37.2961	18379.4	46.4647	18379.4	37.1823	18379.4	46.7298	18379.4	34.482	18379.4	47.5195	18379.4	42.9913	18379.4	46.3599	18379.4	44.8783	18379.4	43.1485	18379.4	44.1865	18379.4	45.9474	18379.4	44.369	18379.4	33.2088
19026.9	86.1184	19026.9	85.4591	19026.9	86.2295	19026.9	83.0836	19026.9	84.0981	19026.9	78.6207	19026.9	80.6128	19026.9	75.5722	19026.9	77.2617	19026.9	67.9305	19026.9	74.4231	19026.9	68.9789	19026.9	70.6066	19026.9	65.2832	19026.9	69.0173	19026.9	63.1736	19026.9	65.3214	19026.9	60.8345	19026.9	38.2819	19026.9	56.2809	19026.9	46.8634	19026.9	51.2984	19026.9	38.0946	19026.9	44.206	19026.9	43.0835	19026.9	45.9594	19026.9	37.9094	19026.9	42.9188	19026.9	40.7689	19026.9	43.3297	19026.9	42.83	19026.9	44.7031	19026.9	40.9608	19026.9	41.3826	19026.9	45.0199	19026.9	25.4809
19697.8	86.1219	19697.8	85.1365	19697.8	85.4389	19697.8	82.4807	19697.8	83.2272	19697.8	77.8202	19697.8	80.0137	19697.8	72.2571	19697.8	75.8546	19697.8	67.2879	19697.8	72.429	19697.8	63.7713	19697.8	71.5035	19697.8	64.788	19697.8	70.102	19697.8	63.6249	19697.8	67.4315	19697.8	60.4367	19697.8	43.5967	19697.8	55.2683	19697.8	40.4759	19697.8	48.4384	19697.8	25.0859	19697.8	41.3565	19697.8	46.028	19697.8	43.792	19697.8	34.1267	19697.8	44.1584	19697.8	40.429	19697.8	40.5693	19697.8	41.1388	19697.8	39.739	19697.8	40.6146	19697.8	33.4443	19697.8	42.3628	19697.8	40.0386
19999.5	86.0079	19999.5	85.0023	19999.5	85.0082	19999.5	81.907	19999.5	82.7777	19999.5	77.4939	19999.5	79.4947	19999.5	69.2267	19999.5	75.7127	19999.5	60.7426	19999.5	71.4851	19999.5	60.1435	19999.5	71.7014	19999.5	65.4221	19999.5	69.2243	19999.5	64.2006	19999.5	64.7741	19999.5	60.7171	19999.5	53.9864	19999.5	54.1374	19999.5	50.6154	19999.5	51.9759	19999.5	47.198	19999.5	45.0615	19999.5	51.939	19999.5	51.4575	19999.5	46.5331	19999.5	53.8035	19999.5	47.4527	19999.5	55.0328	19999.5	36.1519	19999.5	46.7648	19999.5	48.7661	19999.5	48.2896	19999.5	49.4918	19999.5	34.5171
