"Early Reflections"											
"Floor Bounce"		"Ceiling Bounce"		"Front Wall Bounce"		"Side Wall Bounce"		"Rear Wall Bounce"		"Total Early Reflection"	
"Frequency [Hz]"	"Sound Pessure Level [dB]  / [2.83V 1m] "	"Frequency [Hz]"	"Sound Pessure Level [dB]  / [2.83V 1m] "	"Frequency [Hz]"	"Sound Pessure Level [dB]  / [2.83V 1m] "	"Frequency [Hz]"	"Sound Pessure Level [dB]  / [2.83V 1m] "	"Frequency [Hz]"	"Sound Pessure Level [dB]  / [2.83V 1m] "	"Frequency [Hz]"	"Sound Pessure Level [dB]  / [2.83V 1m] "
20.5078	55.4197	20.5078	56.4321	20.5078	55.81	20.5078	55.9372	20.5078	56.2647	20.5078	55.9469
21.2402	51.2993	21.2402	52.7604	21.2402	51.9348	21.2402	52.0252	21.2402	52.1921	21.2402	52.036
21.9727	53.1223	21.9727	54.6526	21.9727	53.818	21.9727	53.7353	21.9727	53.6699	21.9727	53.8017
22.7051	54.7027	22.7051	55.4136	22.7051	55.0662	22.7051	54.9412	22.7051	54.7222	22.7051	54.9813
23.4375	41.0906	23.4375	43.9547	23.4375	41.6158	23.4375	41.5429	23.4375	41.5083	23.4375	41.8687
24.1699	41.2723	24.1699	45.874	24.1699	43.4268	24.1699	42.5177	24.1699	41.7005	24.1699	43.1196
25.6348	52.1357	25.6348	50.8739	25.6348	51.0806	25.6348	51.5279	25.6348	52.4741	25.6348	51.5406
26.3672	54.8165	26.3672	53.4233	26.3672	53.888	26.3672	54.1943	26.3672	54.8661	26.3672	54.1942
27.0996	57.1683	27.0996	55.7731	27.0996	56.3094	27.0996	56.6189	27.0996	57.2736	27.0996	56.5989
27.832	59.3904	27.832	58.0223	27.832	58.5768	27.832	58.8958	27.832	59.5304	27.832	58.8608
29.2969	63.7296	29.2969	62.1204	29.2969	62.9023	29.2969	63.149	29.2969	63.6314	29.2969	63.1091
30.0293	65.5377	30.0293	64.217	30.0293	64.8445	30.0293	65.062	30.0293	65.4922	30.0293	65.0263
31.4941	68.2322	31.4941	66.9565	31.4941	67.5674	31.4941	67.7664	31.4941	68.1628	31.4941	67.7333
32.2266	69.3977	32.2266	68.0096	32.2266	68.7007	32.2266	68.8723	32.2266	69.2039	32.2266	68.8408
33.6914	72.2813	33.6914	70.7993	33.6914	71.5723	33.6914	71.7209	33.6914	72.003	33.6914	71.6883
34.4238	73.8783	34.4238	72.4212	34.4238	73.1934	34.4238	73.3261	34.4238	73.5754	34.4238	73.2941
35.8887	76.5623	35.8887	75.2292	35.8887	75.9371	35.8887	76.0565	35.8887	76.2806	35.8887	76.0262
37.3535	79.1473	37.3535	77.8764	37.3535	78.5585	37.3535	78.6565	37.3535	78.8405	37.3535	78.6296
38.8184	81.6187	38.8184	80.4172	38.8184	81.0672	38.8184	81.1461	38.8184	81.2924	38.8184	81.1223
39.5508	82.8138	39.5508	81.6413	39.5508	82.2762	39.5508	82.3475	39.5508	82.48	39.5508	82.3256
41.0156	84.8908	41.0156	83.7393	41.0156	84.3688	41.0156	84.4305	41.0156	84.5494	41.0156	84.4102
42.4805	87.1752	42.4805	86.0549	42.4805	86.6747	42.4805	86.7123	42.4805	86.7822	42.4805	86.6963
43.9453	89.2376	43.9453	88.139	43.9453	88.753	43.9453	88.7736	43.9453	88.8126	43.9453	88.761
45.4102	91.219	45.4102	90.1359	45.4102	90.7472	45.4102	90.7558	45.4102	90.7725	45.4102	90.7451
47.6074	93.9036	47.6074	92.8693	47.6074	93.4583	47.6074	93.4517	47.6074	93.4412	47.6074	93.4443
49.0723	95.6042	49.0723	94.5841	49.0723	95.168	49.0723	95.1534	49.0723	95.1291	49.0723	95.1478
50.5371	97.2123	50.5371	96.2038	50.5371	96.784	50.5371	96.7627	50.5371	96.7268	50.5371	96.7585
52.7344	99.3968	52.7344	98.4091	52.7344	98.9813	52.7344	98.951	52.7344	98.8996	52.7344	98.9487
54.1992	100.658	54.1992	99.6831	54.1992	100.25	54.1992	100.215	54.1992	100.158	54.1992	100.214
56.3965	102.216	56.3965	101.244	56.3965	101.812	56.3965	101.772	56.3965	101.703	56.3965	101.772
58.5938	103.363	58.5938	102.417	58.5938	102.972	58.5938	102.927	58.5938	102.855	58.5938	102.928
60.0586	103.866	60.0586	102.929	60.0586	103.479	60.0586	103.432	60.0586	103.357	60.0586	103.434
62.2559	104.342	62.2559	103.396	62.2559	103.956	62.2559	103.898	62.2559	103.806	62.2559	103.903
64.4531	104.572	64.4531	103.624	64.4531	104.188	64.4531	104.124	64.4531	104.02	64.4531	104.129
66.6504	104.619	66.6504	103.665	66.6504	104.237	66.6504	104.165	66.6504	104.05	66.6504	104.172
69.5801	104.515	69.5801	103.552	69.5801	104.133	69.5801	104.055	69.5801	103.932	69.5801	104.063
71.7773	104.43	71.7773	103.477	71.7773	104.054	71.7773	103.973	71.7773	103.847	71.7773	103.982
73.9746	104.307	73.9746	103.363	73.9746	103.937	73.9746	103.851	73.9746	103.72	73.9746	103.861
76.9043	104.191	76.9043	103.262	76.9043	103.83	76.9043	103.737	76.9043	103.598	76.9043	103.75
79.834	104.098	79.834	103.178	79.834	103.741	79.834	103.647	79.834	103.513	79.834	103.661
82.7637	104.058	82.7637	103.147	82.7637	103.709	82.7637	103.602	82.7637	103.449	82.7637	103.619
85.6934	104.024	85.6934	103.123	85.6934	103.68	85.6934	103.57	85.6934	103.406	85.6934	103.587
88.623	103.968	88.623	103.065	88.623	103.618	88.623	103.519	88.623	103.392	88.623	103.536
91.5527	104.017	91.5527	103.106	91.5527	103.671	91.5527	103.554	91.5527	103.396	91.5527	103.575
94.4824	104.091	94.4824	103.169	94.4824	103.74	94.4824	103.625	94.4824	103.479	94.4824	103.646
98.1445	104.195	98.1445	103.277	98.1445	103.848	98.1445	103.727	98.1445	103.576	98.1445	103.751
101.807	104.302	101.807	103.374	101.807	103.954	101.807	103.824	101.807	103.669	101.807	103.851
105.469	104.421	105.469	103.485	105.469	104.074	105.469	103.934	105.469	103.768	105.469	103.964
109.131	104.563	109.131	103.632	109.131	104.218	109.131	104.075	109.131	103.912	109.131	104.107
112.793	104.678	112.793	103.732	112.793	104.328	112.793	104.18	112.793	104.019	112.793	104.214
116.455	104.851	116.455	103.881	116.455	104.495	116.455	104.336	116.455	104.169	116.455	104.374
120.85	105.078	120.85	104.097	120.85	104.724	120.85	104.548	120.85	104.368	120.85	104.591
125.244	105.241	125.244	104.239	125.244	104.885	125.244	104.69	125.244	104.478	125.244	104.738
129.639	105.358	129.639	104.356	129.639	105.003	129.639	104.801	129.639	104.582	129.639	104.852
134.033	105.491	134.033	104.459	134.033	105.127	134.033	104.916	134.033	104.693	134.033	104.97
138.428	105.641	138.428	104.593	138.428	105.272	138.428	105.057	138.428	104.838	138.428	105.113
143.555	105.766	143.555	104.691	143.555	105.39	143.555	105.164	143.555	104.946	143.555	105.224
148.682	105.848	148.682	104.744	148.682	105.466	148.682	105.23	148.682	105.012	148.682	105.294
153.809	105.934	153.809	104.81	153.809	105.551	153.809	105.303	153.809	105.083	153.809	105.371
159.668	106.105	159.668	104.936	159.668	105.717	159.668	105.432	159.668	105.173	159.668	105.511
164.795	106.255	164.795	105.106	164.795	105.882	164.795	105.581	164.795	105.289	164.795	105.664
170.654	106.305	170.654	105.149	170.654	105.926	170.654	105.621	170.654	105.347	170.654	105.708
176.514	106.345	176.514	105.134	176.514	105.951	176.514	105.625	176.514	105.336	176.514	105.72
183.105	106.407	183.105	105.136	183.105	106.002	183.105	105.651	183.105	105.336	183.105	105.752
189.697	106.442	189.697	105.195	189.697	106.051	189.697	105.691	189.697	105.366	189.697	105.795
196.289	106.567	196.289	105.28	196.289	106.166	196.289	105.783	196.289	105.462	196.289	105.898
202.881	106.602	202.881	105.325	202.881	106.209	202.881	105.812	202.881	105.47	202.881	105.931
210.205	106.604	210.205	105.292	210.205	106.203	210.205	105.789	210.205	105.45	210.205	105.916
217.529	106.624	217.529	105.277	217.529	106.208	217.529	105.78	217.529	105.451	217.529	105.915
225.586	106.679	225.586	105.272	225.586	106.262	225.586	105.788	225.586	105.425	225.586	105.938
232.91	106.771	232.91	105.358	232.91	106.355	232.91	105.846	232.91	105.402	232.91	106.005
241.699	106.715	241.699	105.207	241.699	106.261	241.699	105.727	241.699	105.242	241.699	105.895
249.756	106.819	249.756	105.156	249.756	106.319	249.756	105.787	249.756	105.298	249.756	105.95
258.545	106.827	258.545	105.22	258.545	106.36	258.545	105.829	258.545	105.41	258.545	105.996
268.066	106.743	268.066	105.088	268.066	106.26	268.066	105.736	268.066	105.279	268.066	105.894
277.588	106.401	277.588	104.921	277.588	105.965	277.588	105.543	277.588	105.493	277.588	105.697
287.109	106.106	287.109	104.51	287.109	105.663	287.109	105.022	287.109	105.014	287.109	105.285
297.363	106.259	297.363	104.527	297.363	105.8	297.363	104.992	297.363	104.67	297.363	105.303
307.617	106.284	307.617	104.298	307.617	105.749	307.617	104.867	307.617	104.518	307.617	105.21
318.604	106.283	318.604	104.133	318.604	105.734	318.604	104.747	318.604	104.137	318.604	105.111
329.59	106.405	329.59	104.174	329.59	105.851	329.59	104.822	329.59	104.061	329.59	105.189
341.309	106.25	341.309	103.793	341.309	105.644	341.309	104.566	341.309	103.828	341.309	104.955
353.76	106.389	353.76	103.803	353.76	105.791	353.76	104.647	353.76	103.641	353.76	105.036
366.211	106.39	366.211	103.745	366.211	105.793	366.211	104.653	366.211	103.717	366.211	105.041
378.662	106.665	378.662	104.027	378.662	106.085	378.662	104.809	378.662	103.774	378.662	105.262
392.578	106.499	392.578	103.929	392.578	105.928	392.578	104.696	392.578	103.648	392.578	105.127
405.762	106.446	405.762	103.693	405.762	105.831	405.762	104.48	405.762	103.466	405.762	104.977
420.41	106.444	420.41	103.535	420.41	105.807	420.41	104.362	420.41	103.064	420.41	104.883
435.059	106.245	435.059	103.07	435.059	105.581	435.059	104.071	435.059	102.816	435.059	104.618
450.439	106.151	450.439	103.072	450.439	105.559	450.439	103.982	450.439	102.368	450.439	104.532
466.553	106.098	466.553	103.003	466.553	105.526	466.553	103.896	466.553	102.25	466.553	104.469
482.666	105.917	482.666	102.916	482.666	105.374	482.666	103.747	482.666	101.957	482.666	104.309
500.244	106.12	500.244	102.607	500.244	105.493	500.244	103.661	500.244	101.652	500.244	104.311
517.822	105.73	517.822	102.339	517.822	105.323	517.822	103.724	517.822	101.363	517.822	104.168
536.133	105.389	536.133	103.192	536.133	105.607	536.133	104.121	536.133	101.571	536.133	104.437
554.443	105.26	554.443	103.7	554.443	105.205	554.443	103.83	554.443	101.937	554.443	104.248
574.219	105.618	574.219	103.28	574.219	104.968	574.219	103.293	574.219	101.369	574.219	103.963
594.727	106.511	594.727	103.877	594.727	106.282	594.727	104.541	594.727	101.882	594.727	105.071
615.234	106.8	615.234	104.628	615.234	106.719	615.234	105.148	615.234	102.4	615.234	105.576
637.207	106.594	637.207	104.604	637.207	106.357	637.207	105.046	637.207	102.564	637.207	105.392
659.912	106.623	659.912	104.566	659.912	106.379	659.912	105.068	659.912	102.469	659.912	105.402
683.35	106.63	683.35	104.292	683.35	106.345	683.35	105.042	683.35	102.64	683.35	105.367
706.787	105.886	706.787	103.697	706.787	105.858	706.787	104.854	706.787	102.699	706.787	104.978
731.689	106.037	731.689	103.725	731.689	106.023	731.689	104.825	731.689	102.674	731.689	105.044
758.057	106.24	758.057	103.607	758.057	106.112	758.057	104.728	758.057	102.752	758.057	105.065
784.424	106.217	784.424	103.92	784.424	106.27	784.424	104.555	784.424	102.128	784.424	105.044
812.256	106.233	812.256	104.319	812.256	106.209	812.256	104.836	812.256	101.875	812.256	105.146
840.82	105.381	840.82	104.143	840.82	105.338	840.82	104.445	840.82	102.069	840.82	104.585
870.85	105.475	870.85	102.9	870.85	105.196	870.85	104.149	870.85	102.512	870.85	104.359
901.611	105.393	901.611	102.648	901.611	105.273	901.611	103.902	901.611	102.077	901.611	104.231
933.105	105.579	933.105	102.211	933.105	105.467	933.105	103.601	933.105	102.418	933.105	104.216
966.064	105.31	966.064	101.608	966.064	105.254	966.064	103.175	966.064	102.535	966.064	103.923
999.756	105.893	999.756	102.076	999.756	106.139	999.756	103.124	999.756	102.419	999.756	104.365
1,034.91	105.38	1,034.91	101.874	1,034.91	106.079	1,034.91	102.891	1,034.91	100.751	1,034.91	104.07
1,071.53	105.006	1,071.53	103.05	1,071.53	105.933	1,071.53	102.794	1,071.53	99.455	1,071.53	103.957
1,109.62	104.551	1,109.62	103.447	1,109.62	105.494	1,109.62	102.362	1,109.62	98.3632	1,109.62	103.579
1,148.44	104.508	1,148.44	103.473	1,148.44	105.407	1,148.44	102.51	1,148.44	99.0251	1,148.44	103.608
1,189.45	104.443	1,189.45	102.946	1,189.45	105.378	1,189.45	102.299	1,189.45	98.9257	1,189.45	103.464
1,231.2	104.445	1,231.2	103.023	1,231.2	105.627	1,231.2	102.271	1,231.2	99.079	1,231.2	103.576
1,274.41	104.294	1,274.41	103.247	1,274.41	105.359	1,274.41	101.947	1,274.41	98.3637	1,274.41	103.344
1,319.82	104.178	1,319.82	102.802	1,319.82	105.248	1,319.82	101.825	1,319.82	97.6841	1,319.82	103.173
1,365.97	103.87	1,365.97	102.115	1,365.97	104.946	1,365.97	101.686	1,365.97	97.1057	1,365.97	102.87
1,414.31	104.078	1,414.31	101.939	1,414.31	104.865	1,414.31	101.7	1,414.31	96.9996	1,414.31	102.85
1,464.11	104.155	1,464.11	101.406	1,464.11	104.933	1,464.11	101.551	1,464.11	96.9089	1,464.11	102.798
1,515.38	104.035	1,515.38	100.555	1,515.38	104.919	1,515.38	101.285	1,515.38	95.9761	1,515.38	102.605
1,568.85	103.88	1,568.85	100.083	1,568.85	104.76	1,568.85	101.119	1,568.85	95.4501	1,568.85	102.414
1,624.51	103.791	1,624.51	98.9073	1,624.51	104.486	1,624.51	100.702	1,624.51	95.124	1,624.51	102.073
1,681.64	103.678	1,681.64	95.7801	1,681.64	104.409	1,681.64	100.602	1,681.64	94.438	1,681.64	101.846
1,740.97	103.475	1,740.97	91.5682	1,740.97	104.593	1,740.97	100.53	1,740.97	94.3331	1,740.97	101.802
1,802.49	103.219	1,802.49	89.0062	1,802.49	104.773	1,802.49	100.692	1,802.49	94.6364	1,802.49	101.886
1,866.21	102.85	1,866.21	90.9412	1,866.21	104.27	1,866.21	100.224	1,866.21	94.2563	1,866.21	101.437
1,932.13	102.423	1,932.13	94.3471	1,932.13	103.703	1,932.13	99.4307	1,932.13	93.6786	1,932.13	100.895
2,000.24	102.159	2,000.24	95.9405	2,000.24	104.616	2,000.24	99.9957	2,000.24	93.6339	2,000.24	101.539
2,070.56	102.356	2,070.56	96.3967	2,070.56	105.252	2,070.56	100.597	2,070.56	94.3588	2,070.56	102.105
2,143.8	102.528	2,143.8	97.143	2,143.8	104.715	2,143.8	100.316	2,143.8	94.7886	2,143.8	101.795
2,219.24	102.793	2,219.24	97.7199	2,219.24	104.279	2,219.24	99.5974	2,219.24	94.0171	2,219.24	101.425
2,297.61	102.572	2,297.61	98.2562	2,297.61	105.542	2,297.61	100.312	2,297.61	93.7317	2,297.61	102.281
2,378.17	103.166	2,378.17	98.6942	2,378.17	105.878	2,378.17	100.759	2,378.17	94.2417	2,378.17	102.685
2,462.4	103.211	2,462.4	99.337	2,462.4	105.498	2,462.4	100.438	2,462.4	93.8394	2,462.4	102.428
2,548.83	103.43	2,548.83	99.7765	2,548.83	105.4	2,548.83	100.215	2,548.83	93.5735	2,548.83	102.375
2,638.92	103.219	2,638.92	100.753	2,638.92	105.774	2,638.92	100.597	2,638.92	93.596	2,638.92	102.706
2,731.93	103.135	2,731.93	101.041	2,731.93	105.569	2,731.93	100.371	2,731.93	93.3976	2,731.93	102.55
2,828.61	103.251	2,828.61	101.287	2,828.61	105.661	2,828.61	100.445	2,828.61	93.2761	2,828.61	102.651
2,928.22	103.549	2,928.22	101.5	2,928.22	105.431	2,928.22	99.8958	2,928.22	92.9151	2,928.22	102.461
3,031.49	103.638	3,031.49	101.139	3,031.49	105.035	3,031.49	99.4765	3,031.49	92.4211	3,031.49	102.138
3,138.43	103.629	3,138.43	100.374	3,138.43	105.556	3,138.43	99.8388	3,138.43	92.2231	3,138.43	102.429
3,249.02	104.049	3,249.02	99.3546	3,249.02	105.57	3,249.02	99.7635	3,249.02	91.7687	3,249.02	102.418
3,363.28	104.753	3,363.28	98.9081	3,363.28	105.156	3,363.28	99.5239	3,363.28	91.5931	3,363.28	102.249
3,481.93	104.568	3,481.93	98.877	3,481.93	105.118	3,481.93	99.2908	3,481.93	91.5025	3,481.93	102.141
3,604.98	104.313	3,604.98	99.4397	3,604.98	105.108	3,604.98	99.1613	3,604.98	91.2864	3,604.98	102.09
3,732.42	104.029	3,732.42	99.8701	3,732.42	104.699	3,732.42	98.7395	3,732.42	90.787	3,732.42	101.76
3,863.53	103.52	3,863.53	100.019	3,863.53	104.434	3,863.53	98.3708	3,863.53	90.3079	3,863.53	101.46
3,999.76	103.366	3,999.76	99.9742	3,999.76	104.88	3,999.76	99.0188	3,999.76	90.9186	3,999.76	101.803
4,141.11	103	4,141.11	99.5716	4,141.11	104.517	4,141.11	98.9166	4,141.11	90.8866	4,141.11	101.494
4,286.87	102.725	4,286.87	99.2721	4,286.87	105.445	4,286.87	99.7373	4,286.87	90.9594	4,286.87	102.131
4,438.48	102.735	4,438.48	98.7472	4,438.48	105.621	4,438.48	99.9228	4,438.48	91.2332	4,438.48	102.25
4,594.48	102.672	4,594.48	98.4234	4,594.48	105.868	4,594.48	99.8332	4,594.48	90.4224	4,594.48	102.346
4,757.08	102.506	4,757.08	98.2678	4,757.08	106.368	4,757.08	99.815	4,757.08	89.2853	4,757.08	102.62
4,924.8	103.026	4,924.8	98.1038	4,924.8	106.301	4,924.8	99.6905	4,924.8	90.2712	4,924.8	102.614
5,098.39	103.182	5,098.39	97.4846	5,098.39	106.406	5,098.39	99.7919	5,098.39	90.8438	5,098.39	102.7
5,277.83	103.319	5,277.83	96.7532	5,277.83	105.865	5,277.83	99.8382	5,277.83	91.3909	5,277.83	102.375
5,463.87	103.196	5,463.87	95.6954	5,463.87	105.463	5,463.87	99.6832	5,463.87	90.3421	5,463.87	102.044
5,656.49	102.54	5,656.49	95.4854	5,656.49	104.865	5,656.49	99.0494	5,656.49	89.5026	5,656.49	101.438
5,856.45	101.931	5,856.45	95.517	5,856.45	104.416	5,856.45	98.28	5,856.45	87.8498	5,856.45	100.903
6,062.99	101.435	6,062.99	96.2443	6,062.99	104.582	6,062.99	98.1662	6,062.99	86.7424	6,062.99	100.934
6,276.86	101.126	6,276.86	96.2874	6,276.86	105.205	6,276.86	98.4983	6,276.86	86.8362	6,276.86	101.364
6,498.05	101.115	6,498.05	96.2174	6,498.05	105.22	6,498.05	98.8248	6,498.05	87.1384	6,498.05	101.438
6,727.29	101.609	6,727.29	96.5107	6,727.29	105.51	6,727.29	99.2583	6,727.29	86.243	6,727.29	101.777
6,964.6	101.638	6,964.6	97.0157	6,964.6	106.005	6,964.6	99.2385	6,964.6	86.4373	6,964.6	102.115
7,209.96	101.925	7,209.96	96.7826	7,209.96	105.814	7,209.96	98.9314	7,209.96	86.8272	7,209.96	101.953
7,464.11	102.146	7,464.11	96.5831	7,464.11	105.029	7,464.11	98.636	7,464.11	87.2183	7,464.11	101.417
7,727.78	101.75	7,727.78	96.8082	7,727.78	104.25	7,727.78	97.8291	7,727.78	86.5553	7,727.78	100.729
8,000.24	101.282	8,000.24	97.3325	8,000.24	104.104	8,000.24	97.0819	8,000.24	85.0492	8,000.24	100.454
8,282.23	100.971	8,282.23	97.7264	8,282.23	105.131	8,282.23	97.9487	8,282.23	84.5716	8,282.23	101.249
8,574.46	101.017	8,574.46	97.4168	8,574.46	106.551	8,574.46	99.1888	8,574.46	85.9921	8,574.46	102.43
8,876.22	101.96	8,876.22	97.092	8,876.22	106.889	8,876.22	99.4119	8,876.22	86.4741	8,876.22	102.779
9,189.7	102.284	9,189.7	96.7832	9,189.7	106.307	9,189.7	98.4918	9,189.7	86.048	9,189.7	102.246
9,513.43	102.096	9,513.43	96.7837	9,513.43	105.374	9,513.43	96.9108	9,513.43	83.1255	9,513.43	101.339
9,848.88	102.181	9,848.88	97.0153	9,848.88	105.176	9,848.88	96.1967	9,848.88	82.326	9,848.88	101.131
10,196.8	101.942	10,196.8	97.2114	10,196.8	105.774	10,196.8	96.6901	10,196.8	82.2701	10,196.8	101.584
10,556.4	102.223	10,556.4	96.6735	10,556.4	106.346	10,556.4	97.0426	10,556.4	82.4884	10,556.4	102.051
10,928.5	102.099	10,928.5	96.2025	10,928.5	106.576	10,928.5	96.9174	10,928.5	83.2474	10,928.5	102.177
11,313.7	102.446	11,313.7	95.7306	11,313.7	106.44	11,313.7	96.4363	11,313.7	84.0319	11,313.7	102.052
11,712.9	102.615	11,712.9	95.4976	11,712.9	106.047	11,712.9	95.5438	11,712.9	84.968	11,712.9	101.693
12,126	102.26	12,126	95.6143	12,126	105.802	12,126	95.3324	12,126	86.2237	12,126	101.45
12,553.7	101.992	12,553.7	94.9022	12,553.7	106.391	12,553.7	95.7716	12,553.7	87.6317	12,553.7	101.884
12,996.1	101.708	12,996.1	94.4379	12,996.1	106.817	12,996.1	96.1361	12,996.1	89.3365	12,996.1	102.213
13,454.6	102.05	13,454.6	94.2757	13,454.6	106.846	13,454.6	96.5305	13,454.6	90.6364	13,454.6	102.316
13,928.5	102.009	13,928.5	94.6597	13,928.5	106.384	13,928.5	96.2607	13,928.5	91.0989	13,928.5	101.946
14,419.9	101.676	14,419.9	94.8196	14,419.9	105.75	14,419.9	95.6338	14,419.9	90.7823	14,419.9	101.371
14,928.2	101.44	14,928.2	93.7319	14,928.2	106.392	14,928.2	94.8347	14,928.2	90.8611	14,928.2	101.739
15,454.8	101.764	15,454.8	95.221	15,454.8	106.508	15,454.8	95.1604	15,454.8	92.2739	15,454.8	101.937
15,999.8	101.844	15,999.8	96.0968	15,999.8	106.023	15,999.8	94.4807	15,999.8	92.274	15,999.8	101.548
16,564.5	101.436	16,564.5	96.3266	16,564.5	105.07	16,564.5	93.5036	16,564.5	92.4454	16,564.5	100.725
17,148.2	100.502	17,148.2	95.8328	17,148.2	104.629	17,148.2	93.1479	17,148.2	92.0856	17,148.2	100.226
17,753.2	99.5181	17,753.2	94.8626	17,753.2	104.65	17,753.2	93.4135	17,753.2	92.0105	17,753.2	100.115
18,379.4	98.7991	18,379.4	93.2374	18,379.4	103.549	18,379.4	92.8017	18,379.4	91.764	18,379.4	99.0957
19,027.6	97.8994	19,027.6	91.3867	19,027.6	101.364	19,027.6	91.3715	19,027.6	89.6777	19,027.6	97.152
19,698.5	97.2125	19,698.5	89.5834	19,698.5	100.803	19,698.5	90.164	19,698.5	88.2661	19,698.5	96.4618
19,999.5	96.19	19,999.5	87.9494	19,999.5	100.353	19,999.5	89.5739	19,999.5	87.5142	19,999.5	95.8953
