"SPL Vertical"																																																																							
"On-Axis"		"10°"		"-10°"		"20°"		"-20°"		"30°"		"-30°"		"40°"		"-40°"		"50°"		"-50°"		"60°"		"-60°"		"70°"		"-70°"		"80°"		"-80°"		"90°"		"-90°"		"100°"		"-100°"		"110°"		"-110°"		"120°"		"-120°"		"130°"		"-130°"		"140°"		"-140°"		"150°"		"-150°"		"160°"		"-160°"		"170°"		"-170°"		"180°"	
"Frequency [Hz]"	"Sound Pessure Level [dB]    /  [	0.13	V at 	1	m]"	"Frequency [Hz]"	"Sound Pessure Level [dB]    /  [	0.13	V at 	1	m]"	"Frequency [Hz]"	"Sound Pessure Level [dB]    /  [	0.13	V at 	1	m]"	"Frequency [Hz]"	"Sound Pessure Level [dB]    /  [	0.13	V at 	1	m]"	"Frequency [Hz]"	"Sound Pessure Level [dB]    /  [	0.13	V at 	1	m]"	"Frequency [Hz]"	"Sound Pessure Level [dB]    /  [	0.13	V at 	1	m]"	"Frequency [Hz]"	"Sound Pessure Level [dB]    /  [	0.13	V at 	1	m]"	"Frequency [Hz]"	"Sound Pessure Level [dB]    /  [	0.13	V at 	1	m]"	"Frequency [Hz]"	"Sound Pessure Level [dB]    /  [	0.13	V at 	1	m]"	"Frequency [Hz]"	"Sound Pessure Level [dB]    /  [	0.13	V at 	1	m]"	"Frequency [Hz]"	"Sound Pessure Level [dB]    /  [	0.13	V at 	1	m]"	"Frequency [Hz]"	"Sound Pessure Level [dB]    /  [	0.13	V at 	1	m]"	"Frequency [Hz]"	"Sound Pessure Level [dB]    /  [	0.13	V at 	1	m]"	"Frequency [Hz]"	"Sound Pessure Level [dB]    /  [	0.13	V at 	1	m]"	"Frequency [Hz]"	"Sound Pessure Level [dB]    /  [	0.13	V at 	1	m]"	"Frequency [Hz]"	"Sound Pessure Level [dB]    /  [	0.13	V at 	1	m]"	"Frequency [Hz]"	"Sound Pessure Level [dB]    /  [	0.13	V at 	1	m]"	"Frequency [Hz]"	"Sound Pessure Level [dB]    /  [	0.13	V at 	1	m]"	"Frequency [Hz]"	"Sound Pessure Level [dB]    /  [	0.13	V at 	1	m]"	"Frequency [Hz]"	"Sound Pessure Level [dB]    /  [	0.13	V at 	1	m]"	"Frequency [Hz]"	"Sound Pessure Level [dB]    /  [	0.13	V at 	1	m]"	"Frequency [Hz]"	"Sound Pessure Level [dB]    /  [	0.13	V at 	1	m]"	"Frequency [Hz]"	"Sound Pessure Level [dB]    /  [	0.13	V at 	1	m]"	"Frequency [Hz]"	"Sound Pessure Level [dB]    /  [	0.13	V at 	1	m]"	"Frequency [Hz]"	"Sound Pessure Level [dB]    /  [	0.13	V at 	1	m]"	"Frequency [Hz]"	"Sound Pessure Level [dB]    /  [	0.13	V at 	1	m]"	"Frequency [Hz]"	"Sound Pessure Level [dB]    /  [	0.13	V at 	1	m]"	"Frequency [Hz]"	"Sound Pessure Level [dB]    /  [	0.13	V at 	1	m]"	"Frequency [Hz]"	"Sound Pessure Level [dB]    /  [	0.13	V at 	1	m]"	"Frequency [Hz]"	"Sound Pessure Level [dB]    /  [	0.13	V at 	1	m]"	"Frequency [Hz]"	"Sound Pessure Level [dB]    /  [	0.13	V at 	1	m]"	"Frequency [Hz]"	"Sound Pessure Level [dB]    /  [	0.13	V at 	1	m]"	"Frequency [Hz]"	"Sound Pessure Level [dB]    /  [	0.13	V at 	1	m]"	"Frequency [Hz]"	"Sound Pessure Level [dB]    /  [	0.13	V at 	1	m]"	"Frequency [Hz]"	"Sound Pessure Level [dB]    /  [	0.13	V at 	1	m]"	"Frequency [Hz]"	"Sound Pessure Level [dB]    /  [	0.13	V at 	1	m]"
20.5078	47.5652	20.5078	47.6343	20.5078	47.5294	20.5078	47.7305	20.5078	47.5334	20.5078	47.8493	20.5078	47.5835	20.5078	47.988	20.5078	47.6847	20.5078	48.1467	20.5078	47.8397	20.5078	48.3276	20.5078	48.0481	20.5078	48.5345	20.5078	48.3053	20.5078	48.7719	20.5078	48.6029	20.5078	49.0436	20.5078	48.9292	20.5078	49.3511	20.5078	49.2724	20.5078	49.6913	20.5078	49.6223	20.5078	50.0536	20.5078	49.9722	20.5078	50.4197	20.5078	50.316	20.5078	50.7645	20.5078	50.6445	20.5078	51.0607	20.5078	50.9422	20.5078	51.2827	20.5078	51.1879	20.5078	51.4116	20.5078	51.3591	20.5078	51.437
21.2402	45.1207	21.2402	45.1216	21.2402	45.1595	21.2402	45.1552	21.2402	45.245	21.2402	45.2159	21.2402	45.384	21.2402	45.2996	21.2402	45.5822	21.2402	45.4055	21.2402	45.8433	21.2402	45.5356	21.2402	46.1665	21.2402	45.6954	21.2402	46.5429	21.2402	45.8933	21.2402	46.9527	21.2402	46.1382	21.2402	47.3664	21.2402	46.4358	21.2402	47.7509	21.2402	46.7832	21.2402	48.0777	21.2402	47.1645	21.2402	48.3305	21.2402	47.5517	21.2402	48.5075	21.2402	47.9112	21.2402	48.6193	21.2402	48.2134	21.2402	48.6822	21.2402	48.4406	21.2402	48.7105	21.2402	48.5909	21.2402	48.71	21.2402	48.675
21.9727	43.678	21.9727	43.6803	21.9727	43.6872	21.9727	43.6934	21.9727	43.7098	21.9727	43.7178	21.9727	43.749	21.9727	43.7566	21.9727	43.8101	21.9727	43.8173	21.9727	43.9013	21.9727	43.9134	21.9727	44.0334	21.9727	44.0653	21.9727	44.2168	21.9727	44.2988	21.9727	44.4562	21.9727	44.6379	21.9727	44.7475	21.9727	45.0932	21.9727	45.0786	21.9727	45.6503	21.9727	45.4359	21.9727	46.2662	21.9727	45.8113	21.9727	46.8774	21.9727	46.2036	21.9727	47.4168	21.9727	46.6127	21.9727	47.8274	21.9727	47.0306	21.9727	48.0723	21.9727	47.4335	21.9727	48.1372	21.9727	47.7824	21.9727	48.031
22.7051	45.2147	22.7051	45.2332	22.7051	45.2075	22.7051	45.2591	22.7051	45.2163	22.7051	45.2897	22.7051	45.2472	22.7051	45.3249	22.7051	45.3077	22.7051	45.3691	22.7051	45.4059	22.7051	45.4337	22.7051	45.5495	22.7051	45.5398	22.7051	45.743	22.7051	45.7182	22.7051	45.9857	22.7051	46.0029	22.7051	46.272	22.7051	46.4177	22.7051	46.5949	22.7051	46.958	22.7051	46.95	22.7051	47.5829	22.7051	47.3366	22.7051	48.2245	22.7051	47.7552	22.7051	48.8083	22.7051	48.1988	22.7051	49.2711	22.7051	48.6472	22.7051	49.5709	22.7051	49.0646	22.7051	49.6884	22.7051	49.4061	22.7051	49.6263
23.4375	40.971	23.4375	40.9757	23.4375	40.9322	23.4375	40.9547	23.4375	40.858	23.4375	40.9266	23.4375	40.7556	23.4375	40.9286	23.4375	40.6469	23.4375	41.0269	23.4375	40.5789	23.4375	41.3189	23.4375	40.6305	23.4375	41.9076	23.4375	40.9033	23.4375	42.8426	23.4375	41.4798	23.4375	44.0729	23.4375	42.3698	23.4375	45.4681	23.4375	43.5006	23.4375	46.8826	23.4375	44.761	23.4375	48.1993	23.4375	46.0495	23.4375	49.3393	23.4375	47.2917	23.4375	50.2535	23.4375	48.435	23.4375	50.9138	23.4375	49.4387	23.4375	51.3067	23.4375	50.2682	23.4375	51.429	23.4375	50.8928	23.4375	51.2866
24.1699	41.9793	24.1699	41.7574	24.1699	42.1918	24.1699	41.576	24.1699	42.3691	24.1699	41.5191	24.1699	42.5031	24.1699	41.7059	24.1699	42.6042	24.1699	42.2577	24.1699	42.7086	24.1699	43.2273	24.1699	42.886	24.1699	44.5524	24.1699	43.2352	24.1699	46.0917	24.1699	43.8487	24.1699	47.6975	24.1699	44.7575	24.1699	49.2555	24.1699	45.9079	24.1699	50.6874	24.1699	47.1974	24.1699	51.9398	24.1699	48.5264	24.1699	52.9754	24.1699	49.8212	24.1699	53.7677	24.1699	51.0306	24.1699	54.2995	24.1699	52.1154	24.1699	54.562	24.1699	53.0407	24.1699	54.5551	24.1699	53.7743	24.1699	54.2869
25.6348	42.9781	25.6348	43.3162	25.6348	42.8364	25.6348	43.9379	25.6348	42.7992	25.6348	44.8857	25.6348	42.8003	25.6348	46.1338	25.6348	42.8187	25.6348	47.6038	25.6348	42.8994	25.6348	49.2012	25.6348	43.1715	25.6348	50.843	25.6348	43.8227	25.6348	52.4648	25.6348	44.9777	25.6348	54.0178	25.6348	46.5745	25.6348	55.4616	25.6348	48.4164	25.6348	56.7606	25.6348	50.3147	25.6348	57.8814	25.6348	52.1508	25.6348	58.7938	25.6348	53.862	25.6348	59.4713	25.6348	55.4128	25.6348	59.8932	25.6348	56.7773	25.6348	60.0453	25.6348	57.9314	25.6348	59.9208	25.6348	58.8524	25.6348	59.5204
26.3672	45.9169	26.3672	46.4307	26.3672	45.6055	26.3672	47.1861	26.3672	45.4447	26.3672	48.19	26.3672	45.3957	26.3672	49.4115	26.3672	45.4565	26.3672	50.794	26.3672	45.6799	26.3672	52.2738	26.3672	46.1722	26.3672	53.7918	26.3672	47.0435	26.3672	55.2983	26.3672	48.3184	26.3672	56.7507	26.3672	49.9005	26.3672	58.1108	26.3672	51.6366	26.3672	59.3426	26.3672	53.3955	26.3672	60.4116	26.3672	55.0933	26.3672	61.286	26.3672	56.6815	26.3672	61.9381	26.3672	58.1287	26.3672	62.3464	26.3672	59.409	26.3672	62.4962	26.3672	60.4971	26.3672	62.3809	26.3672	61.3685	26.3672	62.0019
27.0996	50.0689	27.0996	50.4975	27.0996	49.793	27.0996	51.1063	27.0996	49.64	27.0996	51.9088	27.0996	49.5902	27.0996	52.8974	27.0996	49.6455	27.0996	54.0439	27.0996	49.8389	27.0996	55.306	27.0996	50.2344	27.0996	56.6359	27.0996	50.905	27.0996	57.9865	27.0996	51.8873	27.0996	59.3132	27.0996	53.1481	27.0996	60.5739	27.0996	54.597	27.0996	61.7283	27.0996	56.1307	27.0996	62.7383	27.0996	57.6642	27.0996	63.569	27.0996	59.1363	27.0996	64.1906	27.0996	60.5022	27.0996	64.5795	27.0996	61.7254	27.0996	64.7199	27.0996	62.7735	27.0996	64.6042	27.0996	63.6175	27.0996	64.2335
27.832	53.5368	27.832	53.9192	27.832	53.2848	27.832	54.4515	27.832	53.1436	27.832	55.1454	27.832	53.1006	27.832	55.9995	27.832	53.1577	27.832	56.9974	27.832	53.3379	27.832	58.1101	27.832	53.6848	27.832	59.3005	27.832	54.2512	27.832	60.5274	27.832	55.0715	27.832	61.749	27.832	56.1358	27.832	62.9232	27.832	57.3882	27.832	64.0084	27.832	58.7501	27.832	64.9649	27.832	60.1454	27.832	65.7557	27.832	61.5113	27.832	66.3493	27.832	62.7975	27.832	66.7208	27.832	63.9617	27.832	66.8532	27.832	64.9669	27.832	66.7384	27.832	65.7809	27.832	66.3776
29.2969	59.4042	29.2969	59.6817	29.2969	59.2247	29.2969	60.0711	29.2969	59.1318	29.2969	60.5853	29.2969	59.1196	29.2969	61.2314	29.2969	59.191	29.2969	62.0078	29.2969	59.3594	29.2969	62.9015	29.2969	59.6484	29.2969	63.8887	29.2969	60.0872	29.2969	64.9371	29.2969	60.6994	29.2969	66.0082	29.2969	61.4908	29.2969	67.0601	29.2969	62.4424	29.2969	68.049	29.2969	63.515	29.2969	68.932	29.2969	64.6587	29.2969	69.6691	29.2969	65.821	29.2969	70.2257	29.2969	66.951	29.2969	70.5748	29.2969	68.0002	29.2969	70.6982	29.2969	68.9238	29.2969	70.5875	29.2969	69.6827	29.2969	70.2448
30.0293	62.1534	30.0293	62.4086	30.0293	61.9889	30.0293	62.7661	30.0293	61.9061	30.0293	63.2372	30.0293	61.9006	30.0293	63.8291	30.0293	61.9749	30.0293	64.5419	30.0293	62.1392	30.0293	65.3663	30.0293	62.4115	30.0293	66.2827	30.0293	62.8141	30.0293	67.2629	30.0293	63.3661	30.0293	68.2718	30.0293	64.0749	30.0293	69.2694	30.0293	64.9303	30.0293	70.213	30.0293	65.9049	30.0293	71.0597	30.0293	66.9589	30.0293	71.7689	30.0293	68.0462	30.0293	72.3052	30.0293	69.1175	30.0293	72.6408	30.0293	70.1234	30.0293	72.7568	30.0293	71.0168	30.0293	72.6446	30.0293	71.7558	30.0293	72.3064
31.4941	67.7473	31.4941	67.9535	31.4941	67.6165	31.4941	68.244	31.4941	67.5543	31.4941	68.6283	31.4941	67.5573	31.4941	69.1139	31.4941	67.6268	31.4941	69.7037	31.4941	67.7696	31.4941	70.3941	31.4941	67.9975	31.4941	71.1731	31.4941	68.3263	31.4941	72.02	31.4941	68.7707	31.4941	72.9061	31.4941	69.3402	31.4941	73.7954	31.4941	70.0335	31.4941	74.6475	31.4941	70.837	31.4941	75.4196	31.4941	71.7253	31.4941	76.0705	31.4941	72.6633	31.4941	76.5637	31.4941	73.6083	31.4941	76.8705	31.4941	74.5135	31.4941	76.9716	31.4941	75.3313	31.4941	76.8588	31.4941	76.0176	31.4941	76.5357
32.2266	70.1806	32.2266	70.3675	32.2266	70.0646	32.2266	70.6337	32.2266	70.0132	32.2266	70.9881	32.2266	70.0234	32.2266	71.4385	32.2266	70.0963	32.2266	71.9886	32.2266	70.2374	32.2266	72.6365	32.2266	70.4572	32.2266	73.3723	32.2266	70.769	32.2266	74.1777	32.2266	71.1859	32.2266	75.0257	32.2266	71.7167	32.2266	75.8819	32.2266	72.3618	32.2266	76.7063	32.2266	73.1113	32.2266	77.4565	32.2266	73.9445	32.2266	78.0912	32.2266	74.8304	32.2266	78.5734	32.2266	75.7297	32.2266	78.8742	32.2266	76.5969	32.2266	78.9743	32.2266	77.3848	32.2266	78.8655	32.2266	78.049	32.2266	78.5517
33.6914	74.8979	33.6914	75.0601	33.6914	74.8006	33.6914	75.2943	33.6914	74.7629	33.6914	75.6081	33.6914	74.782	33.6914	76.0082	33.6914	74.858	33.6914	76.4986	33.6914	74.9946	33.6914	77.0785	33.6914	75.199	33.6914	77.7408	33.6914	75.481	33.6914	78.4708	33.6914	75.8514	33.6914	79.2455	33.6914	76.3189	33.6914	80.0343	33.6914	76.8867	33.6914	80.8002	33.6914	77.5504	33.6914	81.5027	33.6914	78.2958	33.6914	82.1013	33.6914	79.0978	33.6914	82.5594	33.6914	79.9215	33.6914	82.8475	33.6914	80.7236	33.6914	82.9459	33.6914	81.4581	33.6914	82.8463	33.6914	82.0803	33.6914	82.5524
34.4238	77.0389	34.4238	77.1927	34.4238	76.9482	34.4238	77.4161	34.4238	76.9157	34.4238	77.7161	34.4238	76.9388	34.4238	78.0987	34.4238	77.0173	34.4238	78.5679	34.4238	77.1543	34.4238	79.1232	34.4238	77.3559	34.4238	79.7582	34.4238	77.6306	34.4238	80.4595	34.4238	77.9879	34.4238	81.2057	34.4238	78.4356	34.4238	81.9676	34.4238	78.9771	34.4238	82.7096	34.4238	79.609	34.4238	83.392	34.4238	80.3192	34.4238	83.9748	34.4238	81.0853	34.4238	84.4216	34.4238	81.8746	34.4238	84.703	34.4238	82.6464	34.4238	84.7995	34.4238	83.3556	34.4238	84.7028	34.4238	83.9584	34.4238	84.4169
35.8887	80.7811	35.8887	80.931	35.8887	80.6914	35.8887	81.1461	35.8887	80.6578	35.8887	81.4318	35.8887	80.678	35.8887	81.7931	35.8887	80.7519	35.8887	82.2326	35.8887	80.8815	35.8887	82.7497	35.8887	81.0715	35.8887	83.339	35.8887	81.3285	35.8887	83.989	35.8887	81.6597	35.8887	84.681	35.8887	82.0714	35.8887	85.3892	35.8887	82.5667	35.8887	86.0806	35.8887	83.1441	35.8887	86.7181	35.8887	83.7947	35.8887	87.2633	35.8887	84.5006	35.8887	87.6805	35.8887	85.2338	35.8887	87.9409	35.8887	85.9572	35.8887	88.0252	35.8887	86.6282	35.8887	87.9252	35.8887	87.2037	35.8887	87.6456
37.3535	83.7315	37.3535	83.8731	37.3535	83.6463	37.3535	84.0751	37.3535	83.6141	37.3535	84.3419	37.3535	83.6329	37.3535	84.6772	37.3535	83.7025	37.3535	85.0832	37.3535	83.8241	37.3535	85.5592	37.3535	84.0011	37.3535	86.1008	37.3535	84.2384	37.3535	86.6982	37.3535	84.5415	37.3535	87.3355	37.3535	84.9156	37.3535	87.9896	37.3535	85.3644	37.3535	88.6308	37.3535	85.8877	37.3535	89.2244	37.3535	86.4799	37.3535	89.7337	37.3535	87.1271	37.3535	90.1242	37.3535	87.8051	37.3535	90.3674	37.3535	88.4798	37.3535	90.4437	37.3535	89.1107	37.3535	90.3454	37.3535	89.6557	37.3535	90.0769
38.8184	85.8265	38.8184	85.9619	38.8184	85.7446	38.8184	86.154	38.8184	85.7136	38.8184	86.406	38.8184	85.7316	38.8184	86.7207	38.8184	85.7981	38.8184	87.0994	38.8184	85.9138	38.8184	87.5411	38.8184	86.0811	38.8184	88.0417	38.8184	86.3033	38.8184	88.5926	38.8184	86.5845	38.8184	89.18	38.8184	86.9286	38.8184	89.7836	38.8184	87.3388	38.8184	90.3767	38.8184	87.8158	38.8184	90.9271	38.8184	88.3559	38.8184	91.4002	38.8184	88.9483	38.8184	91.763	38.8184	89.5725	38.8184	91.9876	38.8184	90.1983	38.8184	92.055	38.8184	90.7879	38.8184	91.9577	38.8184	91.301	38.8184	91.7005
39.5508	86.6479	39.5508	86.7802	39.5508	86.5672	39.5508	86.967	39.5508	86.5359	39.5508	87.211	39.5508	86.5522	39.5508	87.5144	39.5508	86.6156	39.5508	87.8784	39.5508	86.7267	39.5508	88.3017	39.5508	86.8872	39.5508	88.7806	39.5508	87.0999	39.5508	89.3071	39.5508	87.3683	39.5508	89.8685	39.5508	87.696	39.5508	90.4459	39.5508	88.0859	39.5508	91.0139	39.5508	88.5391	39.5508	91.5416	39.5508	89.0529	39.5508	91.9958	39.5508	89.6179	39.5508	92.3438	39.5508	90.2153	39.5508	92.5583	39.5508	90.8167	39.5508	92.6208	39.5508	91.3856	39.5508	92.5236	39.5508	91.8828	39.5508	92.2717
41.0156	87.8286	41.0156	87.9501	41.0156	87.755	41.0156	88.1217	41.0156	87.7271	41.0156	88.3457	41.0156	87.7436	41.0156	88.6236	41.0156	87.8036	41.0156	88.9563	41.0156	87.9071	41.0156	89.3426	41.0156	88.055	41.0156	89.7792	41.0156	88.2492	41.0156	90.2595	41.0156	88.4919	41.0156	90.7724	41.0156	88.7861	41.0156	91.3013	41.0156	89.1347	41.0156	91.8233	41.0156	89.5396	41.0156	92.3099	41.0156	90.0001	41.0156	92.7296	41.0156	90.5098	41.0156	93.0513	41.0156	91.0534	41.0156	93.2485	41.0156	91.606	41.0156	93.3028	41.0156	92.1339	41.0156	93.2071	41.0156	92.5994	41.0156	92.9667
42.4805	88.5123	42.4805	88.6281	42.4805	88.4416	42.4805	88.791	42.4805	88.4144	42.4805	89.0025	42.4805	88.4292	42.4805	89.2637	42.4805	88.4851	42.4805	89.5749	42.4805	88.5816	42.4805	89.9346	42.4805	88.719	42.4805	90.3397	42.4805	88.8983	42.4805	90.784	42.4805	89.1212	42.4805	91.2579	42.4805	89.3901	42.4805	91.7465	42.4805	89.7076	42.4805	92.2291	42.4805	90.0764	42.4805	92.6796	42.4805	90.4969	42.4805	93.0685	42.4805	90.9647	42.4805	93.3662	42.4805	91.4671	42.4805	93.547	42.4805	91.9816	42.4805	93.5933	42.4805	92.4769	42.4805	93.4981	42.4805	92.9169	42.4805	93.2667
43.9453	89.0651	43.9453	89.1743	43.9453	88.9985	43.9453	89.3275	43.9453	88.973	43.9453	89.526	43.9453	88.9873	43.9453	89.7703	43.9453	89.0403	43.9453	90.0602	43.9453	89.1313	43.9453	90.3942	43.9453	89.26	43.9453	90.7691	43.9453	89.4269	43.9453	91.1796	43.9453	89.6329	43.9453	91.6168	43.9453	89.8798	43.9453	92.0678	43.9453	90.1701	43.9453	92.5137	43.9453	90.5064	43.9453	92.9307	43.9453	90.89	43.9453	93.291	43.9453	91.3177	43.9453	93.5664	43.9453	91.7793	43.9453	93.7326	43.9453	92.2549	43.9453	93.7723	43.9453	92.7159	43.9453	93.6792	43.9453	93.1283	43.9453	93.4586
45.4102	89.4126	45.4102	89.5166	45.4102	89.3488	45.4102	89.6619	45.4102	89.3239	45.4102	89.8494	45.4102	89.3367	45.4102	90.0794	45.4102	89.3859	45.4102	90.3511	45.4102	89.4706	45.4102	90.6631	45.4102	89.5902	45.4102	91.0122	45.4102	89.7447	45.4102	91.3935	45.4102	89.9343	45.4102	91.7991	45.4102	90.1606	45.4102	92.2171	45.4102	90.4258	45.4102	92.6305	45.4102	90.7326	45.4102	93.017	45.4102	91.083	45.4102	93.3506	45.4102	91.4753	45.4102	93.6047	45.4102	91.9012	45.4102	93.7557	45.4102	92.3434	45.4102	93.7873	45.4102	92.7754	45.4102	93.6936	45.4102	93.1652	45.4102	93.4803
47.6074	89.7787	47.6074	89.874	47.6074	89.7204	47.6074	90.0073	47.6074	89.6982	47.6074	90.179	47.6074	89.7107	47.6074	90.3887	47.6074	89.7565	47.6074	90.6357	47.6074	89.8345	47.6074	90.9178	47.6074	89.9434	47.6074	91.2321	47.6074	90.0827	47.6074	91.5741	47.6074	90.2521	47.6074	91.9367	47.6074	90.4525	47.6074	92.3096	47.6074	90.6858	47.6074	92.6781	47.6074	90.9548	47.6074	93.0225	47.6074	91.2617	47.6074	93.3194	47.6074	91.6066	47.6074	93.5445	47.6074	91.9833	47.6074	93.6762	47.6074	92.3775	47.6074	93.6994	47.6074	92.7663	47.6074	93.6086	47.6074	93.1205	47.6074	93.4099
49.0723	89.9593	49.0723	90.0501	49.0723	89.9037	49.0723	90.177	49.0723	89.8826	49.0723	90.3399	49.0723	89.8946	49.0723	90.5384	49.0723	89.9383	49.0723	90.7713	49.0723	90.0123	49.0723	91.0363	49.0723	90.1153	49.0723	91.3304	49.0723	90.2462	49.0723	91.649	49.0723	90.4045	49.0723	91.9858	49.0723	90.5906	49.0723	92.3314	49.0723	90.8061	49.0723	92.6723	49.0723	91.0537	49.0723	92.9906	49.0723	91.3358	49.0723	93.2647	49.0723	91.6529	49.0723	93.4718	49.0723	92.0002	49.0723	93.5916	49.0723	92.3653	49.0723	93.6098	49.0723	92.7274	49.0723	93.5213	49.0723	93.0592	49.0723	93.3322
50.5371	90.0813	50.5371	90.1688	50.5371	90.0275	50.5371	90.2906	50.5371	90.0068	50.5371	90.4465	50.5371	90.0177	50.5371	90.6357	50.5371	90.059	50.5371	90.8567	50.5371	90.1289	50.5371	91.1072	50.5371	90.226	50.5371	91.3838	50.5371	90.3489	50.5371	91.6823	50.5371	90.4967	50.5371	91.9967	50.5371	90.6696	50.5371	92.3182	50.5371	90.869	50.5371	92.6346	50.5371	91.0973	50.5371	92.9293	50.5371	91.3572	50.5371	93.1823	50.5371	91.6498	50.5371	93.3724	50.5371	91.9714	50.5371	93.4801	50.5371	92.3112	50.5371	93.4923	50.5371	92.6501	50.5371	93.4043	50.5371	92.9629	50.5371	93.2224
52.7344	90.2213	52.7344	90.3061	52.7344	90.1679	52.7344	90.4226	52.7344	90.1454	52.7344	90.5701	52.7344	90.1526	52.7344	90.7476	52.7344	90.1881	52.7344	90.9531	52.7344	90.2503	52.7344	91.1839	52.7344	90.3373	52.7344	91.4367	52.7344	90.4475	52.7344	91.7071	52.7344	90.5797	52.7344	91.9896	52.7344	90.7336	52.7344	92.2764	52.7344	90.9102	52.7344	92.5568	52.7344	91.1119	52.7344	92.8163	52.7344	91.3414	52.7344	93.0371	52.7344	91.6004	52.7344	93.2002	52.7344	91.8866	52.7344	93.2884	52.7344	92.1914	52.7344	93.2896	52.7344	92.4986	52.7344	93.2004	52.7344	92.7855	52.7344	93.027
54.1992	90.2882	54.1992	90.3707	54.1992	90.2356	54.1992	90.483	54.1992	90.2123	54.1992	90.6246	54.1992	90.2175	54.1992	90.794	54.1992	90.2496	54.1992	90.9892	54.1992	90.3069	54.1992	91.2073	54.1992	90.3876	54.1992	91.4448	54.1992	90.49	54.1992	91.6976	54.1992	90.6126	54.1992	91.9604	54.1992	90.755	54.1992	92.226	54.1992	90.9182	54.1992	92.4847	54.1992	91.1043	54.1992	92.7232	54.1992	91.3161	54.1992	92.9252	54.1992	91.5556	54.1992	93.0731	54.1992	91.8211	54.1992	93.1508	54.1992	92.1051	54.1992	93.1472	54.1992	92.3928	54.1992	93.059	54.1992	92.6632	54.1992	92.8925
56.3965	90.3432	56.3965	90.4191	56.3965	90.2955	56.3965	90.5229	56.3965	90.2754	56.3965	90.6539	56.3965	90.2821	56.3965	90.8106	56.3965	90.3139	56.3965	90.9906	56.3965	90.3691	56.3965	91.1912	56.3965	90.4456	56.3965	91.4086	56.3965	90.5414	56.3965	91.6388	56.3965	90.655	56.3965	91.8769	56.3965	90.7855	56.3965	92.1164	56.3965	90.9335	56.3965	92.3487	56.3965	91.1009	56.3965	92.5621	56.3965	91.2903	56.3965	92.7422	56.3965	91.5035	56.3965	92.8733	56.3965	91.7397	56.3965	92.9408	56.3965	91.9927	56.3965	92.9349	56.3965	92.25	56.3965	92.8528	56.3965	92.4932	56.3965	92.7008
58.5938	90.46	58.5938	90.5325	58.5938	90.4138	58.5938	90.6312	58.5938	90.3935	58.5938	90.755	58.5938	90.3983	58.5938	90.9023	58.5938	90.4266	58.5938	91.0706	58.5938	90.4765	58.5938	91.2569	58.5938	90.5458	58.5938	91.4575	58.5938	90.6324	58.5938	91.6683	58.5938	90.7347	58.5938	91.8846	58.5938	90.8517	58.5938	92.1004	58.5938	90.9841	58.5938	92.308	58.5938	91.1334	58.5938	92.497	58.5938	91.3024	58.5938	92.6548	58.5938	91.4929	58.5938	92.7673	58.5938	91.7048	58.5938	92.8216	58.5938	91.9332	58.5938	92.809	58.5938	92.1672	58.5938	92.7275	58.5938	92.3904	58.5938	92.5834
60.0586	90.5184	60.0586	90.5887	60.0586	90.4735	60.0586	90.6838	60.0586	90.4536	60.0586	90.8029	60.0586	90.458	60.0586	90.9441	60.0586	90.4853	60.0586	91.1051	60.0586	90.5337	60.0586	91.2825	60.0586	90.6013	60.0586	91.4729	60.0586	90.6858	60.0586	91.6719	60.0586	90.7854	60.0586	91.8752	60.0586	90.8989	60.0586	92.077	60.0586	91.026	60.0586	92.2702	60.0586	91.1679	60.0586	92.4454	60.0586	91.3265	60.0586	92.5907	60.0586	91.5038	60.0586	92.6934	60.0586	91.6997	60.0586	92.7416	60.0586	91.9104	60.0586	92.7273	60.0586	92.1265	60.0586	92.6493	60.0586	92.3336	60.0586	92.5137
62.2559	90.5894	62.2559	90.6568	62.2559	90.5455	62.2559	90.7472	62.2559	90.525	62.2559	90.8596	62.2559	90.5272	62.2559	90.992	62.2559	90.5507	62.2559	91.1419	62.2559	90.5939	62.2559	91.306	62.2559	90.6547	62.2559	91.4807	62.2559	90.7309	62.2559	91.6619	62.2559	90.8205	62.2559	91.8453	62.2559	90.9222	62.2559	92.0256	62.2559	91.0357	62.2559	92.1966	62.2559	91.1619	62.2559	92.3498	62.2559	91.3027	62.2559	92.475	62.2559	91.4599	62.2559	92.5609	62.2559	91.6341	62.2559	92.5972	62.2559	91.8225	62.2559	92.5772	62.2559	92.0173	62.2559	92.5002	62.2559	92.2059	62.2559	92.3722
64.4531	90.7012	64.4531	90.7656	64.4531	90.6586	64.4531	90.8514	64.4531	90.6378	64.4531	90.9573	64.4531	90.6381	64.4531	91.0814	64.4531	90.6582	64.4531	91.2212	64.4531	90.6965	64.4531	91.3734	64.4531	90.7509	64.4531	91.5343	64.4531	90.8192	64.4531	91.6998	64.4531	90.8994	64.4531	91.8658	64.4531	90.9903	64.4531	92.0275	64.4531	91.0915	64.4531	92.179	64.4531	91.2038	64.4531	92.313	64.4531	91.329	64.4531	92.4206	64.4531	91.4691	64.4531	92.4919	64.4531	91.6247	64.4531	92.518	64.4531	91.7939	64.4531	92.4932	64.4531	91.9702	64.4531	92.4173	64.4531	92.1426	64.4531	92.2965
66.6504	90.8203	66.6504	90.8822	66.6504	90.7789	66.6504	90.9639	66.6504	90.7579	66.6504	91.0642	66.6504	90.7568	66.6504	91.1811	66.6504	90.7744	66.6504	91.3122	66.6504	90.8092	66.6504	91.454	66.6504	90.8591	66.6504	91.6029	66.6504	90.9222	66.6504	91.7548	66.6504	90.9963	66.6504	91.9057	66.6504	91.0802	66.6504	92.0512	66.6504	91.1732	66.6504	92.1859	66.6504	91.2759	66.6504	92.3034	66.6504	91.3896	66.6504	92.3961	66.6504	91.516	66.6504	92.4554	66.6504	91.6559	66.6504	92.4738	66.6504	91.8077	66.6504	92.4466	66.6504	91.9661	66.6504	92.3741	66.6504	92.1218	66.6504	92.2622
69.5801	90.9725	69.5801	91.0316	69.5801	90.9319	69.5801	91.1086	69.5801	90.9099	69.5801	91.202	69.5801	90.9062	69.5801	91.3101	69.5801	90.9198	69.5801	91.4301	69.5801	90.9492	69.5801	91.5588	69.5801	90.9928	69.5801	91.6925	69.5801	91.0485	69.5801	91.8273	69.5801	91.1144	69.5801	91.9593	69.5801	91.1891	69.5801	92.0845	69.5801	91.2717	69.5801	92.1982	69.5801	91.3624	69.5801	92.2952	69.5801	91.462	69.5801	92.3691	69.5801	91.5716	69.5801	92.413	69.5801	91.692	69.5801	92.4211	69.5801	91.8224	69.5801	92.39	69.5801	91.9591	69.5801	92.3207	69.5801	92.0947	69.5801	92.219
71.7773	91.1109	71.7773	91.1692	71.7773	91.0693	71.7773	91.2435	71.7773	91.0447	71.7773	91.3325	71.7773	91.0367	71.7773	91.4343	71.7773	91.0445	71.7773	91.5463	71.7773	91.0668	71.7773	91.6653	71.7773	91.102	71.7773	91.7877	71.7773	91.1482	71.7773	91.9097	71.7773	91.2038	71.7773	92.0274	71.7773	91.2674	71.7773	92.1369	71.7773	91.3383	71.7773	92.2341	71.7773	91.4166	71.7773	92.3144	71.7773	91.5033	71.7773	92.3723	71.7773	91.5995	71.7773	92.4022	71.7773	91.7064	71.7773	92.3994	71.7773	91.8234	71.7773	92.3614	71.7773	91.9477	71.7773	92.2899	71.7773	92.0732	71.7773	92.1907
73.9746	91.2279	73.9746	91.284	73.9746	91.1871	73.9746	91.3546	73.9746	91.1618	73.9746	91.4386	73.9746	91.1519	73.9746	91.534	73.9746	91.1565	73.9746	91.6382	73.9746	91.1745	73.9746	91.7482	73.9746	91.2044	73.9746	91.8603	73.9746	91.2444	73.9746	91.9707	73.9746	91.293	73.9746	92.0757	73.9746	91.3487	73.9746	92.1715	73.9746	91.4109	73.9746	92.2545	73.9746	91.4797	73.9746	92.3205	73.9746	91.5558	73.9746	92.3652	73.9746	91.6403	73.9746	92.3841	73.9746	91.7342	73.9746	92.3736	73.9746	91.8375	73.9746	92.3322	73.9746	91.9481	73.9746	92.2621	73.9746	92.0611	73.9746	92.1689
76.9043	91.399	76.9043	91.453	76.9043	91.3585	76.9043	91.5199	76.9043	91.332	76.9043	91.5985	76.9043	91.3193	76.9043	91.6869	76.9043	91.32	76.9043	91.7827	76.9043	91.3331	76.9043	91.883	76.9043	91.3574	76.9043	91.9842	76.9043	91.3914	76.9043	92.0827	76.9043	91.4337	76.9043	92.1747	76.9043	91.4829	76.9043	92.2569	76.9043	91.5383	76.9043	92.3259	76.9043	91.5997	76.9043	92.3783	76.9043	91.6672	76.9043	92.4107	76.9043	91.7417	76.9043	92.4196	76.9043	91.8237	76.9043	92.4026	76.9043	91.9136	76.9043	92.3592	76.9043	92.0101	76.9043	92.2919	76.9043	92.1097	76.9043	92.2062
79.834	91.5117	79.834	91.5637	79.834	91.4715	79.834	91.6269	79.834	91.4437	79.834	91.7	79.834	91.4282	79.834	91.7816	79.834	91.4247	79.834	91.8692	79.834	91.4326	79.834	91.96	79.834	91.4509	79.834	92.0507	79.834	91.4784	79.834	92.1377	79.834	91.5138	79.834	92.2176	79.834	91.5561	79.834	92.2869	79.834	91.6044	79.834	92.3429	79.834	91.6584	79.834	92.3827	79.834	91.718	79.834	92.4036	79.834	91.7834	79.834	92.4035	79.834	91.8552	79.834	92.3807	79.834	91.9336	79.834	92.3356	79.834	92.0179	79.834	92.271	79.834	92.1057	79.834	92.1922
82.7637	91.6082	82.7637	91.6588	82.7637	91.5678	82.7637	91.7189	82.7637	91.5382	82.7637	91.7874	82.7637	91.5197	82.7637	91.8628	82.7637	91.5122	82.7637	91.9429	82.7637	91.5155	82.7637	92.025	82.7637	91.5289	82.7637	92.1059	82.7637	91.5513	82.7637	92.1822	82.7637	91.5818	82.7637	92.2506	82.7637	91.6192	82.7637	92.308	82.7637	91.6627	82.7637	92.3518	82.7637	91.7115	82.7637	92.3798	82.7637	91.7649	82.7637	92.3903	82.7637	91.8229	82.7637	92.3818	82.7637	91.8853	82.7637	92.3541	82.7637	91.9526	82.7637	92.3082	82.7637	92.0247	82.7637	92.2472	82.7637	92.1002	82.7637	92.176
85.6934	91.675	85.6934	91.7253	85.6934	91.6328	85.6934	91.7831	85.6934	91.5996	85.6934	91.8473	85.6934	91.5757	85.6934	91.9164	85.6934	91.5615	85.6934	91.9886	85.6934	91.5571	85.6934	92.0614	85.6934	91.5623	85.6934	92.1317	85.6934	91.5764	85.6934	92.1964	85.6934	91.5988	85.6934	92.2523	85.6934	91.6287	85.6934	92.2965	85.6934	91.665	85.6934	92.3269	85.6934	91.7069	85.6934	92.3418	85.6934	91.7533	85.6934	92.34	85.6934	91.8034	85.6934	92.3213	85.6934	91.857	85.6934	92.2861	85.6934	91.9143	85.6934	92.2365	85.6934	91.9759	85.6934	92.1761	85.6934	92.0416	85.6934	92.1095
88.623	91.7071	88.623	91.757	88.623	91.664	88.623	91.8126	88.623	91.6282	88.623	91.8732	88.623	91.6006	88.623	91.9375	88.623	91.5817	88.623	92.0037	88.623	91.5719	88.623	92.0696	88.623	91.5714	88.623	92.1324	88.623	91.5801	88.623	92.1891	88.623	91.5975	88.623	92.2366	88.623	91.6232	88.623	92.2722	88.623	91.6561	88.623	92.2941	88.623	91.6951	88.623	92.3007	88.623	91.7386	88.623	92.2917	88.623	91.7853	88.623	92.2672	88.623	91.8344	88.623	92.2287	88.623	91.8859	88.623	92.1786	88.623	91.9404	88.623	92.1208	88.623	91.9985	88.623	92.0595
91.5527	91.7204	91.5527	91.7689	91.5527	91.6767	91.5527	91.8214	91.5527	91.6386	91.5527	91.8771	91.5527	91.607	91.5527	91.9349	91.5527	91.5828	91.5527	91.9933	91.5527	91.5668	91.5527	92.0505	91.5527	91.5597	91.5527	92.1039	91.5527	91.5617	91.5527	92.1506	91.5527	91.5729	91.5527	92.1878	91.5527	91.5928	91.5527	92.2131	91.5527	91.6206	91.5527	92.2246	91.5527	91.6548	91.5527	92.2215	91.5527	91.6935	91.5527	92.2038	91.5527	91.7349	91.5527	92.1727	91.5527	91.7774	91.5527	92.1301	91.5527	91.8211	91.5527	92.0794	91.5527	91.8668	91.5527	92.0243	91.5527	91.9159	91.5527	91.9688
94.4824	91.7169	94.4824	91.7645	94.4824	91.6721	94.4824	91.8141	94.4824	91.6311	94.4824	91.8651	94.4824	91.595	94.4824	91.9166	94.4824	91.565	94.4824	91.9673	94.4824	91.5424	94.4824	92.0156	94.4824	91.5282	94.4824	92.0592	94.4824	91.5231	94.4824	92.0955	94.4824	91.5277	94.4824	92.1219	94.4824	91.5418	94.4824	92.1362	94.4824	91.5646	94.4824	92.137	94.4824	91.5944	94.4824	92.1237	94.4824	91.6288	94.4824	92.0972	94.4824	91.6654	94.4824	92.0593	94.4824	91.702	94.4824	92.0128	94.4824	91.7383	94.4824	91.9615	94.4824	91.7755	94.4824	91.9095	94.4824	91.8155	94.4824	91.8602
98.1445	91.7304	98.1445	91.7742	98.1445	91.6867	98.1445	91.8173	98.1445	91.6439	98.1445	91.8594	98.1445	91.6034	98.1445	91.8998	98.1445	91.5667	98.1445	91.938	98.1445	91.5355	98.1445	91.9726	98.1445	91.5112	98.1445	92.0018	98.1445	91.4952	98.1445	92.0235	98.1445	91.4884	98.1445	92.0353	98.1445	91.4912	98.1445	92.0353	98.1445	91.503	98.1445	92.0224	98.1445	91.5223	98.1445	91.9966	98.1445	91.5465	98.1445	91.959	98.1445	91.5728	98.1445	91.9123	98.1445	91.5987	98.1445	91.8603	98.1445	91.6238	98.1445	91.8073	98.1445	91.6496	98.1445	91.7577	98.1445	91.6788	98.1445	91.7145
101.807	91.7237	101.807	91.7689	101.807	91.6766	101.807	91.8114	101.807	91.6286	101.807	91.8511	101.807	91.5814	101.807	91.8876	101.807	91.537	101.807	91.9206	101.807	91.4975	101.807	91.9492	101.807	91.4652	101.807	91.972	101.807	91.4421	101.807	91.987	101.807	91.4299	101.807	91.9921	101.807	91.4293	101.807	91.9858	101.807	91.4401	101.807	91.9668	101.807	91.4604	101.807	91.9355	101.807	91.4871	101.807	91.8934	101.807	91.5162	101.807	91.8436	101.807	91.5443	101.807	91.7904	101.807	91.5701	101.807	91.7382	101.807	91.5945	101.807	91.6913	101.807	91.6206	101.807	91.6521
105.469	91.7112	105.469	91.7568	105.469	91.6616	105.469	91.7976	105.469	91.609	105.469	91.8336	105.469	91.5555	105.469	91.8648	105.469	91.5035	105.469	91.8914	105.469	91.4558	105.469	91.913	105.469	91.4152	105.469	91.9284	105.469	91.3845	105.469	91.9362	105.469	91.3657	105.469	91.9346	105.469	91.3601	105.469	91.9218	105.469	91.3675	105.469	91.8969	105.469	91.3859	105.469	91.86	105.469	91.4116	105.469	91.813	105.469	91.4401	105.469	91.7591	105.469	91.4673	105.469	91.7029	105.469	91.4914	105.469	91.6494	105.469	91.5133	105.469	91.6027	105.469	91.5365	105.469	91.5653
109.131	91.7408	109.131	91.7881	109.131	91.6876	109.131	91.829	109.131	91.63	109.131	91.8635	109.131	91.5704	109.131	91.892	109.131	91.5117	109.131	91.9149	109.131	91.4575	109.131	91.9321	109.131	91.4112	109.131	91.9431	109.131	91.3764	109.131	91.9466	109.131	91.3558	109.131	91.9412	109.131	91.351	109.131	91.9255	109.131	91.3616	109.131	91.8987	109.131	91.3854	109.131	91.8612	109.131	91.4179	109.131	91.815	109.131	91.4535	109.131	91.7635	109.131	91.4871	109.131	91.711	109.131	91.5157	109.131	91.6624	109.131	91.5397	109.131	91.621	109.131	91.5624	109.131	91.5881
112.793	91.7934	112.793	91.8319	112.793	91.7462	112.793	91.8612	112.793	91.6918	112.793	91.8818	112.793	91.6328	112.793	91.8945	112.793	91.5726	112.793	91.9002	112.793	91.5152	112.793	91.8997	112.793	91.4649	112.793	91.8929	112.793	91.4258	112.793	91.8795	112.793	91.401	112.793	91.8584	112.793	91.3926	112.793	91.8288	112.793	91.4003	112.793	91.7908	112.793	91.4211	112.793	91.7454	112.793	91.4495	112.793	91.6954	112.793	91.4786	112.793	91.645	112.793	91.5022	112.793	91.5993	112.793	91.5167	112.793	91.5631	112.793	91.5225	112.793	91.5393	112.793	91.5239	112.793	91.5275
116.455	91.7694	116.455	91.8071	116.455	91.7203	116.455	91.8328	116.455	91.6612	116.455	91.8473	116.455	91.595	116.455	91.8518	116.455	91.5254	116.455	91.8479	116.455	91.457	116.455	91.8366	116.455	91.3949	116.455	91.8186	116.455	91.3439	116.455	91.7939	116.455	91.3081	116.455	91.7616	116.455	91.2902	116.455	91.7214	116.455	91.2904	116.455	91.6732	116.455	91.3056	116.455	91.6184	116.455	91.3301	116.455	91.5602	116.455	91.3563	116.455	91.5034	116.455	91.3769	116.455	91.4535	116.455	91.3878	116.455	91.4157	116.455	91.3891	116.455	91.393	116.455	91.3856	116.455	91.3845
120.85	91.7994	120.85	91.8335	120.85	91.7505	120.85	91.8528	120.85	91.6883	120.85	91.8583	120.85	91.6157	120.85	91.8519	120.85	91.537	120.85	91.8359	120.85	91.4572	120.85	91.8123	120.85	91.3822	120.85	91.7824	120.85	91.3178	120.85	91.7467	120.85	91.2691	120.85	91.705	120.85	91.2399	120.85	91.6568	120.85	91.231	120.85	91.6022	120.85	91.24	120.85	91.5426	120.85	91.261	120.85	91.4809	120.85	91.2856	120.85	91.4219	120.85	91.3058	120.85	91.3713	120.85	91.3163	120.85	91.3342	120.85	91.3165	120.85	91.3133	120.85	91.3111	120.85	91.3074
125.244	91.7611	125.244	91.7907	125.244	91.7142	125.244	91.8028	125.244	91.6513	125.244	91.7991	125.244	91.5758	125.244	91.7819	125.244	91.4923	125.244	91.7541	125.244	91.4067	125.244	91.7186	125.244	91.3254	125.244	91.6774	125.244	91.2549	125.244	91.6317	125.244	91.2011	125.244	91.5816	125.244	91.168	125.244	91.5272	125.244	91.1568	125.244	91.4686	125.244	91.1648	125.244	91.4073	125.244	91.1855	125.244	91.3464	125.244	91.2098	125.244	91.2906	125.244	91.2287	125.244	91.2456	125.244	91.2363	125.244	91.2161	125.244	91.2317	125.244	91.204	125.244	91.2194	125.244	91.2072
129.639	91.6948	129.639	91.7231	129.639	91.6462	129.639	91.7313	129.639	91.5791	129.639	91.7212	129.639	91.4971	129.639	91.6958	129.639	91.4055	129.639	91.6587	129.639	91.3109	129.639	91.6134	129.639	91.2209	129.639	91.5628	129.639	91.1431	129.639	91.5087	129.639	91.0842	129.639	91.4519	129.639	91.0489	129.639	91.3929	129.639	91.0387	129.639	91.3321	129.639	91.0504	129.639	91.2712	129.639	91.0768	129.639	91.213	129.639	91.1075	129.639	91.1622	129.639	91.1321	129.639	91.124	129.639	91.1434	129.639	91.1023	129.639	91.1398	129.639	91.0982	129.639	91.1253	129.639	91.1083
134.033	91.6549	134.033	91.6811	134.033	91.6054	134.033	91.6844	134.033	91.5345	134.033	91.6669	134.033	91.4463	134.033	91.6321	134.033	91.3465	134.033	91.5844	134.033	91.2429	134.033	91.5283	134.033	91.1437	134.033	91.4673	134.033	91.0578	134.033	91.4042	134.033	90.9927	134.033	91.3404	134.033	90.9542	134.033	91.2769	134.033	90.9438	134.033	91.2144	134.033	90.9583	134.033	91.1546	134.033	90.9895	134.033	91.1003	134.033	91.0259	134.033	91.0555	134.033	91.0559	134.033	91.0249	134.033	91.0712	134.033	91.0116	134.033	91.0691	134.033	91.0154	134.033	91.0533	134.033	91.0321
138.428	91.6039	138.428	91.627	138.428	91.554	138.428	91.6237	138.428	91.4793	138.428	91.5967	138.428	91.3843	138.428	91.5499	138.428	91.2755	138.428	91.4887	138.428	91.1615	138.428	91.4182	138.428	91.0519	138.428	91.343	138.428	90.9566	138.428	91.2668	138.428	90.8846	138.428	91.192	138.428	90.8423	138.428	91.12	138.428	90.8319	138.428	91.0522	138.428	90.8496	138.428	90.9908	138.428	90.8861	138.428	90.9386	138.428	90.9283	138.428	90.8999	138.428	90.9627	138.428	90.8786	138.428	90.9795	138.428	90.877	138.428	90.9752	138.428	90.8936	138.428	90.9531	138.428	90.9222
143.555	91.5155	143.555	91.5334	143.555	91.4669	143.555	91.521	143.555	91.3895	143.555	91.4815	143.555	91.2883	143.555	91.4196	143.555	91.1706	143.555	91.3415	143.555	91.0459	143.555	91.2535	143.555	90.9249	143.555	91.1613	143.555	90.819	143.555	91.0696	143.555	90.7385	143.555	90.9815	143.555	90.6908	143.555	90.8994	143.555	90.6784	143.555	90.8252	143.555	90.6973	143.555	90.7613	143.555	90.7371	143.555	90.7111	143.555	90.7829	143.555	90.6786	143.555	90.8195	143.555	90.6675	143.555	90.8356	143.555	90.6789	143.555	90.8266	143.555	90.71	143.555	90.7959	143.555	90.7529
148.682	91.4763	148.682	91.4911	148.682	91.4264	148.682	91.4715	148.682	91.3436	148.682	91.4209	148.682	91.2334	148.682	91.345	148.682	91.1038	148.682	91.2506	148.682	90.9654	148.682	91.1452	148.682	90.8305	148.682	91.0356	148.682	90.7119	148.682	90.9275	148.682	90.6214	148.682	90.8251	148.682	90.5675	148.682	90.7317	148.682	90.5533	148.682	90.6497	148.682	90.5744	148.682	90.5821	148.682	90.6188	148.682	90.5324	148.682	90.6698	148.682	90.5047	148.682	90.7102	148.682	90.5021	148.682	90.727	148.682	90.5249	148.682	90.715	148.682	90.5687	148.682	90.6772	148.682	90.6239
153.809	91.422	153.809	91.4394	153.809	91.3654	153.809	91.4187	153.809	91.2721	153.809	91.3636	153.809	91.1477	153.809	91.2803	153.809	91.0012	153.809	91.1765	153.809	90.844	153.809	91.0604	153.809	90.6897	153.809	90.9397	153.809	90.5527	153.809	90.8208	153.809	90.4463	153.809	90.7085	153.809	90.3807	153.809	90.6063	153.809	90.3599	153.809	90.5172	153.809	90.3798	153.809	90.4441	153.809	90.428	153.809	90.3908	153.809	90.4862	153.809	90.361	153.809	90.5356	153.809	90.3575	153.809	90.5615	153.809	90.3799	153.809	90.5574	153.809	90.423	153.809	90.5256	153.809	90.4762
159.668	91.4805	159.668	91.4906	159.668	91.4269	159.668	91.4583	159.668	91.3324	159.668	91.388	159.668	91.2036	159.668	91.2866	159.668	91.0501	159.668	91.163	159.668	90.8851	159.668	91.027	159.668	90.7237	159.668	90.8877	159.668	90.5821	159.668	90.7532	159.668	90.4753	159.668	90.6297	159.668	90.4145	159.668	90.5222	159.668	90.4036	159.668	90.4347	159.668	90.4375	159.668	90.3709	159.668	90.5015	159.668	90.3344	159.668	90.5749	159.668	90.3282	159.668	90.636	159.668	90.3531	159.668	90.6681	159.668	90.4058	159.668	90.6628	159.668	90.4776	159.668	90.6219	159.668	90.5551
164.795	91.5314	164.795	91.5445	164.795	91.4704	164.795	91.5109	164.795	91.3641	164.795	91.4353	164.795	91.2194	164.795	91.3255	164.795	91.0468	164.795	91.1912	164.795	90.8606	164.795	91.0427	164.795	90.6775	164.795	90.8902	164.795	90.5155	164.795	90.7426	164.795	90.3918	164.795	90.6067	164.795	90.3194	164.795	90.488	164.795	90.3033	164.795	90.391	164.795	90.3383	164.795	90.3198	164.795	90.4084	164.795	90.2784	164.795	90.4908	164.795	90.2699	164.795	90.5615	164.795	90.2945	164.795	90.6021	164.795	90.3485	164.795	90.6032	164.795	90.422	164.795	90.5659	164.795	90.5002
170.654	91.4869	170.654	91.4977	170.654	91.4231	170.654	91.4572	170.654	91.3092	170.654	91.3708	170.654	91.1523	170.654	91.2473	170.654	90.9639	170.654	91.0974	170.654	90.7596	170.654	90.9333	170.654	90.5582	170.654	90.7665	170.654	90.3799	170.654	90.6071	170.654	90.2448	170.654	90.4634	170.654	90.168	170.654	90.3416	170.654	90.1564	170.654	90.2468	170.654	90.2043	170.654	90.1834	170.654	90.2939	170.654	90.1551	170.654	90.3989	170.654	90.1639	170.654	90.4919	170.654	90.2086	170.654	90.551	170.654	90.2825	170.654	90.5644	170.654	90.3728	170.654	90.5316	170.654	90.4622
176.514	91.4496	176.514	91.4556	176.514	91.3853	176.514	91.405	176.514	91.2652	176.514	91.3039	176.514	91.0971	176.514	91.1619	176.514	90.893	176.514	90.9911	176.514	90.6696	176.514	90.8047	176.514	90.4468	176.514	90.616	176.514	90.2468	176.514	90.4363	176.514	90.0915	176.514	90.2751	176.514	89.9982	176.514	90.1398	176.514	89.9754	176.514	90.036	176.514	90.0182	176.514	89.9688	176.514	90.1082	176.514	89.9417	176.514	90.2175	176.514	89.9564	176.514	90.3166	176.514	90.0102	176.514	90.3813	176.514	90.0947	176.514	90.398	176.514	90.195	176.514	90.3652	176.514	90.2919
183.105	91.3943	183.105	91.3949	183.105	91.3295	183.105	91.333	183.105	91.2037	183.105	91.2152	183.105	91.0252	183.105	91.0517	183.105	90.8074	183.105	90.8554	183.105	90.5686	183.105	90.6408	183.105	90.3309	183.105	90.4223	183.105	90.1186	183.105	90.2127	183.105	89.9555	183.105	90.023	183.105	89.86	183.105	89.8625	183.105	89.8403	183.105	89.7393	183.105	89.8899	183.105	89.6608	183.105	89.9875	183.105	89.6329	183.105	90.102	183.105	89.658	183.105	90.2012	183.105	89.7327	183.105	90.2592	183.105	89.8457	183.105	90.2618	183.105	89.9781	183.105	90.2075	183.105	90.1066
189.697	91.4448	189.697	91.4592	189.697	91.3604	189.697	91.4058	189.697	91.209	189.697	91.2917	189.697	90.9994	189.697	91.1283	189.697	90.7462	189.697	90.9296	189.697	90.4695	189.697	90.7111	189.697	90.194	189.697	90.4879	189.697	89.9477	189.697	90.2732	189.697	89.7582	189.697	90.0779	189.697	89.648	189.697	89.9108	189.697	89.6271	189.697	89.7793	189.697	89.6884	189.697	89.6907	189.697	89.8078	189.697	89.6515	189.697	89.9497	189.697	89.6649	189.697	90.0776	189.697	89.7284	189.697	90.1627	189.697	89.8307	189.697	90.1887	189.697	89.9522	189.697	90.1537	189.697	90.0682
196.289	91.5112	196.289	91.5279	196.289	91.4169	196.289	91.4696	196.289	91.2479	196.289	91.3447	196.289	91.0132	196.289	91.1656	196.289	90.7283	196.289	90.9483	196.289	90.415	196.289	90.7106	196.289	90.1008	196.289	90.4699	196.289	89.8177	196.289	90.2419	196.289	89.5985	196.289	90.0394	196.289	89.4708	196.289	89.8723	196.289	89.4486	196.289	89.7484	196.289	89.5252	196.289	89.6739	196.289	89.6732	196.289	89.653	196.289	89.8517	196.289	89.6859	196.289	90.0186	196.289	89.7665	196.289	90.1402	196.289	89.8802	196.289	90.1975	196.289	90.0053	196.289	90.1862	196.289	90.1156
202.881	91.6113	202.881	91.6141	202.881	91.5232	202.881	91.535	202.881	91.3524	202.881	91.3828	202.881	91.108	202.881	91.1715	202.881	90.8055	202.881	90.9186	202.881	90.4671	202.881	90.6439	202.881	90.1215	202.881	90.3675	202.881	89.8025	202.881	90.1077	202.881	89.5466	202.881	89.8802	202.881	89.3861	202.881	89.6979	202.881	89.3407	202.881	89.5705	202.881	89.4077	202.881	89.5051	202.881	89.5602	202.881	89.5048	202.881	89.7544	202.881	89.5667	202.881	89.9429	202.881	89.6793	202.881	90.0867	202.881	89.8224	202.881	90.162	202.881	89.9691	202.881	90.1611	202.881	90.0907
210.205	91.6513	210.205	91.6536	210.205	91.5573	210.205	91.5675	210.205	91.3748	210.205	91.4025	210.205	91.1133	210.205	91.1726	210.205	90.7895	210.205	90.8964	210.205	90.4271	210.205	90.5945	210.205	90.0566	210.205	90.2875	210.205	89.7136	210.205	89.9949	210.205	89.4365	210.205	89.7333	210.205	89.2601	210.205	89.5173	210.205	89.2054	210.205	89.3598	210.205	89.2706	210.205	89.272	210.205	89.4277	210.205	89.2613	210.205	89.6301	210.205	89.3271	210.205	89.8269	210.205	89.4569	210.205	89.9756	210.205	89.6263	210.205	90.0494	210.205	89.802	210.205	90.0385	210.205	89.9494
217.529	91.6639	217.529	91.6604	217.529	91.5705	217.529	91.5641	217.529	91.3831	217.529	91.3855	217.529	91.1121	217.529	91.1407	217.529	90.7752	217.529	90.8505	217.529	90.3977	217.529	90.5383	217.529	90.0126	217.529	90.2275	217.529	89.6585	217.529	89.9398	217.529	89.377	217.529	89.6928	217.529	89.2053	217.529	89.5006	217.529	89.1658	217.529	89.3744	217.529	89.2553	217.529	89.3222	217.529	89.4427	217.529	89.3474	217.529	89.6778	217.529	89.4455	217.529	89.9064	217.529	89.601	217.529	90.0841	217.529	89.7868	217.529	90.1825	217.529	89.9691	217.529	90.1906	217.529	90.1133
225.586	91.8035	225.586	91.8026	225.586	91.696	225.586	91.6976	225.586	91.4829	225.586	91.4995	225.586	91.1748	225.586	91.2255	225.586	90.7903	225.586	90.8976	225.586	90.3567	225.586	90.5414	225.586	89.9102	225.586	90.183	225.586	89.4953	225.586	89.8478	225.586	89.162	225.586	89.5583	225.586	88.9576	225.586	89.3343	225.586	88.9129	225.586	89.1927	225.586	89.0268	225.586	89.1463	225.586	89.2623	225.586	89.1996	225.586	89.558	225.586	89.3436	225.586	89.8485	225.586	89.5533	225.586	90.0803	225.586	89.7904	225.586	90.2191	225.586	90.0109	225.586	90.2496	225.586	90.1743
232.91	92.0395	232.91	92.0202	232.91	91.944	232.91	91.8909	232.91	91.7362	232.91	91.6633	232.91	91.4262	232.91	91.3554	232.91	91.0321	232.91	90.9906	232.91	90.5805	232.91	90.5954	232.91	90.1069	232.91	90.1974	232.91	89.6548	232.91	89.8227	232.91	89.2741	232.91	89.4944	232.91	89.0146	232.91	89.2327	232.91	88.9128	232.91	89.0557	232.91	88.9754	232.91	88.9785	232.91	89.1711	232.91	89.009	232.91	89.4399	232.91	89.1411	232.91	89.7138	232.91	89.35	232.91	89.9353	232.91	89.5946	232.91	90.066	232.91	89.8268	232.91	90.088	232.91	90.0023
241.699	91.8329	241.699	91.7971	241.699	91.746	241.699	91.6435	241.699	91.5391	241.699	91.3849	241.699	91.2232	241.699	91.0409	241.699	90.818	241.699	90.6374	241.699	90.3524	241.699	90.2041	241.699	89.864	241.699	89.772	241.699	89.3993	241.699	89.3706	241.699	89.0105	241.699	89.0257	241.699	88.7491	241.699	88.7596	241.699	88.6516	241.699	88.5917	241.699	88.7234	241.699	88.5375	241.699	88.9304	241.699	88.6033	241.699	89.2102	241.699	88.7785	241.699	89.4932	241.699	89.032	241.699	89.7207	241.699	89.3165	241.699	89.8535	241.699	89.5796	241.699	89.8722	241.699	89.7755
249.756	92.1143	249.756	92.0672	249.756	92.0274	249.756	91.8912	249.756	91.8094	249.756	91.5989	249.756	91.4715	249.756	91.2102	249.756	91.0342	249.756	90.7511	249.756	90.5275	249.756	90.2519	249.756	89.9919	249.756	89.7449	249.756	89.4784	249.756	89.2614	249.756	89.0463	249.756	88.8314	249.756	88.7554	249.756	88.4841	249.756	88.6489	249.756	88.2499	249.756	88.7317	249.756	88.1573	249.756	88.9616	249.756	88.2225	249.756	89.2641	249.756	88.4358	249.756	89.5598	249.756	88.756	249.756	89.7846	249.756	89.1203	249.756	89.8971	249.756	89.4623	249.756	89.8781	249.756	89.7271
258.545	92.2366	258.545	92.1943	258.545	92.1399	258.545	92.0192	258.545	91.9059	258.545	91.7262	258.545	91.5454	258.545	91.3373	258.545	91.0787	258.545	90.8815	258.545	90.5362	258.545	90.3919	258.545	89.9596	258.545	89.9024	258.545	89.4023	258.545	89.4443	258.545	88.9282	258.545	89.0442	258.545	88.6049	258.545	88.7251	258.545	88.485	258.545	88.5101	258.545	88.5802	258.545	88.4227	258.545	88.8476	258.545	88.4797	258.545	89.2045	258.545	88.6771	258.545	89.5606	258.545	88.9804	258.545	89.8429	258.545	89.3294	258.545	90.0047	258.545	89.656	258.545	90.0242	258.545	89.9011
268.066	92.0806	268.066	91.9922	268.066	92.0221	268.066	91.7622	268.066	91.82	268.066	91.4047	268.066	91.4863	268.066	90.9424	268.066	91.0422	268.066	90.4061	268.066	90.5181	268.066	89.8329	268.066	89.9535	268.066	89.2627	268.066	89.3966	268.066	88.7342	268.066	88.9035	268.066	88.2821	268.066	88.5347	268.066	87.9369	268.066	88.3433	268.066	87.7258	268.066	88.3538	268.066	87.6715	268.066	88.543	268.066	87.7833	268.066	88.8426	268.066	88.0457	268.066	89.1652	268.066	88.4125	268.066	89.4313	268.066	88.8156	268.066	89.5849	268.066	89.1832	268.066	89.5953	268.066	89.456
277.588	92.2587	277.588	92.247	277.588	92.1082	277.588	92.0773	277.588	91.8008	277.588	91.7625	277.588	91.3524	277.588	91.3243	277.588	90.791	277.588	90.7918	277.588	90.158	277.588	90.2001	277.588	89.5098	277.588	89.5868	277.588	88.9165	277.588	88.99	277.588	88.4564	277.588	88.4475	277.588	88.2001	277.588	88.002	277.588	88.1856	277.588	87.7043	277.588	88.3954	277.588	87.6076	277.588	88.7591	277.588	87.7418	277.588	89.1815	277.588	88.0853	277.588	89.5737	277.588	88.5615	277.588	89.8693	277.588	89.0697	277.588	90.0258	277.588	89.5195	277.588	90.0206	277.588	89.8479
287.109	92.3218	287.109	92.3093	287.109	92.1583	287.109	92.128	287.109	91.8212	287.109	91.7941	287.109	91.3236	287.109	91.3324	287.109	90.6914	287.109	90.7748	287.109	89.9655	287.109	90.1581	287.109	89.2049	287.109	89.5192	287.109	88.4891	287.109	88.8916	287.109	87.9173	287.109	88.3047	287.109	87.5934	287.109	87.792	287.109	87.5866	287.109	87.4044	287.109	87.8851	287.109	87.2151	287.109	88.3904	287.109	87.294	287.109	88.9658	287.109	87.6529	287.109	89.4896	287.109	88.2138	287.109	89.8768	287.109	88.8435	287.109	90.0768	287.109	89.4148	287.109	90.0652	287.109	89.8383
297.363	92.5166	297.363	92.4496	297.363	92.3975	297.363	92.2086	297.363	92.09	297.363	91.8153	297.363	91.6019	297.363	91.3016	297.363	90.9516	297.363	90.7081	297.363	90.1697	297.363	90.0814	297.363	89.3014	297.363	89.4679	297.363	88.4125	297.363	88.9056	297.363	87.6004	297.363	88.4197	297.363	87.0019	297.363	88.0235	297.363	86.7627	297.363	87.7294	297.363	86.9461	297.363	87.5612	297.363	87.4625	297.363	87.5552	297.363	88.1235	297.363	87.739	297.363	88.7509	297.363	88.0966	297.363	89.2279	297.363	88.5551	297.363	89.4957	297.363	89.0095	297.363	89.536	297.363	89.3604
307.617	92.5535	307.617	92.489	307.617	92.4269	307.617	92.242	307.617	92.1102	307.617	91.8306	307.617	91.6139	307.617	91.2831	307.617	90.9592	307.617	90.6375	307.617	90.1785	307.617	89.9401	307.617	89.317	307.617	89.2409	307.617	88.435	307.617	88.5889	307.617	87.6147	307.617	88.0282	307.617	86.9688	307.617	87.6016	307.617	86.6302	307.617	87.3553	307.617	86.6924	307.617	87.3347	307.617	87.1291	307.617	87.5593	307.617	87.7933	307.617	87.9925	307.617	88.5049	307.617	88.5392	307.617	89.123	307.617	89.0801	307.617	89.5615	307.617	89.5099	307.617	89.7767	307.617	89.7555
318.604	92.6316	318.604	92.5517	318.604	92.5042	318.604	92.2735	318.604	92.171	318.604	91.8156	318.604	91.6438	318.604	91.2077	318.604	90.946	318.604	90.4894	318.604	90.1137	318.604	89.7085	318.604	89.1966	318.604	88.9151	318.604	88.2589	318.604	88.1548	318.604	87.384	318.604	87.4647	318.604	86.6826	318.604	86.8808	318.604	86.2857	318.604	86.457	318.604	86.2915	318.604	86.2753	318.604	86.6837	318.604	86.4139	318.604	87.3208	318.604	86.8718	318.604	88.0185	318.604	87.5323	318.604	88.6265	318.604	88.2213	318.604	89.0471	318.604	88.7876	318.604	89.225	318.604	89.1366
329.59	92.5994	329.59	92.5036	329.59	92.4823	329.59	92.2037	329.59	92.1541	329.59	91.7198	329.59	91.628	329.59	91.0835	329.59	90.93	329.59	90.3387	329.59	90.1002	329.59	89.5389	329.59	89.1933	329.59	88.7411	329.59	88.2786	329.59	87.996	329.59	87.4417	329.59	87.3407	329.59	86.7882	329.59	86.8018	329.59	86.4348	329.59	86.4128	329.59	86.4607	329.59	86.2309	329.59	86.8396	329.59	86.3232	329.59	87.4346	329.59	86.7086	329.59	88.0728	329.59	87.308	329.59	88.6131	329.59	87.9705	329.59	88.9645	329.59	88.5469	329.59	89.0772	329.59	88.9335
341.309	92.355	341.309	92.2465	341.309	92.2284	341.309	91.9113	341.309	91.8689	341.309	91.3695	341.309	91.2905	341.309	90.6538	341.309	90.5202	341.309	89.8113	341.309	89.6	341.309	88.9016	341.309	88.5883	341.309	87.992	341.309	87.5622	341.309	87.1475	341.309	86.624	341.309	86.4242	341.309	85.9126	341.309	85.874	341.309	85.5907	341.309	85.5621	341.309	85.7611	341.309	85.569	341.309	86.3628	341.309	85.9447	341.309	87.1951	341.309	86.6362	341.309	88.043	341.309	87.4849	341.309	88.7531	341.309	88.3048	341.309	89.2345	341.309	88.9522	341.309	89.4379	341.309	89.3424
353.76	92.6344	353.76	92.5151	353.76	92.5072	353.76	92.158	353.76	92.135	353.76	91.5832	353.76	91.5309	353.76	90.8226	353.76	90.7215	353.76	89.9214	353.76	89.7493	353.76	88.9363	353.76	88.6745	353.76	87.9285	353.76	87.5761	353.76	86.9527	353.76	86.5566	353.76	86.0495	353.76	85.7538	353.76	85.2594	353.76	85.3363	353.76	84.6651	353.76	85.4256	353.76	84.4256	353.76	85.9779	353.76	84.7055	353.76	86.7902	353.76	85.487	353.76	87.6331	353.76	86.5271	353.76	88.3397	353.76	87.541	353.76	88.8089	353.76	88.3383	353.76	88.9824	353.76	88.828
366.211	92.7752	366.211	92.6857	366.211	92.606	366.211	92.3482	366.211	92.1779	366.211	91.7847	366.211	91.5023	366.211	91.0297	366.211	90.6044	366.211	90.131	366.211	89.5255	366.211	89.1479	366.211	88.3245	366.211	88.142	366.211	87.0796	366.211	87.1626	366.211	85.8984	366.211	86.236	366.211	84.9478	366.211	85.3785	366.211	84.4657	366.211	84.6507	366.211	84.6373	366.211	84.2256	366.211	85.3842	366.211	84.3506	366.211	86.4027	366.211	85.0926	366.211	87.4005	366.211	86.1918	366.211	88.2005	366.211	87.2949	366.211	88.7128	366.211	88.1696	366.211	88.8913	366.211	88.7119
378.662	93.3775	378.662	93.2426	378.662	93.2474	378.662	92.8549	378.662	92.8516	378.662	92.2385	378.662	92.2009	378.662	91.4316	378.662	91.3194	378.662	90.4879	378.662	90.2454	378.662	89.4741	378.662	89.0298	378.662	88.4601	378.662	87.7331	378.662	87.5008	378.662	86.4287	378.662	86.6184	378.662	85.2437	378.662	85.8081	378.662	84.439	378.662	85.0885	378.662	84.3722	378.662	84.5905	378.662	85.1343	378.662	84.588	378.662	86.3605	378.662	85.2657	378.662	87.6064	378.662	86.424	378.662	88.6077	378.662	87.6532	378.662	89.2469	378.662	88.651	378.662	89.4753	378.662	89.2747
392.578	92.9564	392.578	92.8003	392.578	92.838	392.578	92.3797	392.578	92.4464	392.578	91.7178	392.578	91.7948	392.578	90.8529	392.578	90.9108	392.578	89.8426	392.578	89.8378	392.578	88.763	392.578	88.6345	392.578	87.6995	392.578	87.3682	392.578	86.7258	392.578	86.1102	392.578	85.8795	392.578	84.957	392.578	85.1608	392.578	84.094	392.578	84.5777	392.578	83.8177	392.578	84.2229	392.578	84.3112	392.578	84.2993	392.578	85.3693	392.578	84.9465	392.578	86.5795	392.578	86.0078	392.578	87.6288	392.578	87.1335	392.578	88.3535	392.578	88.0377	392.578	88.6777	392.578	88.571
405.762	93.1528	405.762	93.0061	405.762	93.0054	405.762	92.5759	405.762	92.5653	405.762	91.8851	405.762	91.846	405.762	90.9722	405.762	90.8762	405.762	89.8939	405.762	89.702	405.762	88.7249	405.762	88.3859	405.762	87.5479	405.762	86.999	405.762	86.4301	405.762	85.6149	405.762	85.4008	405.762	84.3404	405.762	84.4624	405.762	83.4118	405.762	83.6673	405.762	83.2266	405.762	83.2445	405.762	83.9869	405.762	83.5673	405.762	85.351	405.762	84.7033	405.762	86.8041	405.762	86.2103	405.762	88.0247	405.762	87.6047	405.762	88.8667	405.762	88.6293	405.762	89.2655	405.762	89.1899
420.41	93.4456	420.41	93.2742	420.41	93.3344	420.41	92.8305	420.41	92.9426	420.41	92.1376	420.41	92.2852	420.41	91.2336	420.41	91.3926	420.41	90.1746	420.41	90.3136	420.41	89.033	420.41	89.1118	420.41	87.8875	420.41	87.8545	420.41	86.7992	420.41	86.5956	420.41	85.7852	420.41	85.3793	420.41	84.8191	420.41	84.2999	420.41	83.891	420.41	83.6026	420.41	83.1417	420.41	83.6346	420.41	82.9719	420.41	84.4584	420.41	83.7182	420.41	85.6871	420.41	85.0902	420.41	86.8732	420.41	86.4924	420.41	87.7482	420.41	87.5512	420.41	88.1849	420.41	88.1255
435.059	92.9823	435.059	92.8203	435.059	92.8499	435.059	92.3741	435.059	92.4248	435.059	91.6667	435.059	91.7213	435.059	90.736	435.059	90.769	435.059	89.6373	435.059	89.6143	435.059	88.4423	435.059	88.3186	435.059	87.2281	435.059	86.9496	435.059	86.053	435.059	85.5749	435.059	84.9309	435.059	84.2923	435.059	83.8376	435.059	83.3263	435.059	82.798	435.059	83.0703	435.059	82.085	435.059	83.7489	435.059	82.2837	435.059	85.0479	435.059	83.5874	435.059	86.4569	435.059	85.3575	435.059	87.6478	435.059	86.953	435.059	88.4672	435.059	88.1002	435.059	88.842	435.059	88.7289
450.439	92.7063	450.439	92.5237	450.439	92.5948	450.439	92.0577	450.439	92.1904	450.439	91.3315	450.439	91.5073	450.439	90.3821	450.439	90.5745	450.439	89.2619	450.439	89.4375	450.439	88.037	450.439	88.1563	450.439	86.7771	450.439	86.7958	450.439	85.5334	450.439	85.413	450.439	84.3106	450.439	84.0602	450.439	83.0595	450.439	82.8426	450.439	81.7379	450.439	82.0333	450.439	80.5287	450.439	82.0476	450.439	80.1769	450.439	82.9861	450.439	81.3522	450.439	84.3951	450.439	83.3427	450.439	85.7481	450.439	85.1783	450.439	86.741	450.439	86.4762	450.439	87.2337	450.439	87.158
466.553	92.1874	466.553	92.0058	466.553	92.0763	466.553	91.5441	466.553	91.6712	466.553	90.8271	466.553	90.9823	466.553	89.893	466.553	90.0331	466.553	88.7942	466.553	88.8618	466.553	87.5945	466.553	87.5215	466.553	86.3572	466.553	86.0758	466.553	85.1208	466.553	84.5939	466.553	83.8694	466.553	83.1684	466.553	82.5236	466.553	81.9916	466.553	81.0126	466.553	81.4428	466.553	79.5811	466.553	81.8739	466.553	79.3295	466.553	83.1148	466.553	81.0084	466.553	84.6208	466.553	83.364	466.553	85.9669	466.553	85.3395	466.553	86.9355	466.553	86.6695	466.553	87.418	466.553	87.3474
482.666	91.8719	482.666	91.6807	482.666	91.7857	482.666	91.2257	482.666	91.4197	482.666	90.5324	482.666	90.7826	482.666	89.6398	482.666	89.8943	482.666	88.6001	482.666	88.7865	482.666	87.4749	482.666	87.5013	482.666	86.3238	482.666	86.0875	482.666	85.1836	482.666	84.599	482.666	84.0439	482.666	83.117	482.666	82.8326	482.666	81.8339	482.666	81.4433	482.666	81.1584	482.666	79.8828	482.666	81.4933	482.666	78.7382	482.666	82.6672	482.666	79.3126	482.666	84.0901	482.666	81.4074	482.666	85.3153	482.666	83.5761	482.666	86.1247	482.666	85.1798	482.666	86.4134	482.666	86.1159
500.244	91.9759	500.244	91.7367	500.244	91.9296	500.244	91.2272	500.244	91.593	500.244	90.4748	500.244	90.9708	500.244	89.52	500.244	90.0764	500.244	88.4169	500.244	88.9305	500.244	87.2297	500.244	87.5583	500.244	86.021	500.244	85.9855	500.244	84.8313	500.244	84.2366	500.244	83.6543	500.244	82.3593	500.244	82.4268	500.244	80.5517	500.244	81.0634	500.244	79.4615	500.244	79.6224	500.244	79.9442	500.244	78.7505	500.244	81.6673	500.244	79.5758	500.244	83.5834	500.244	81.7036	500.244	85.1329	500.244	83.8335	500.244	86.1366	500.244	85.4018	500.244	86.5362	500.244	86.3002
517.822	91.5433	517.822	91.3896	517.822	91.433	517.822	90.9788	517.822	91.0652	517.822	90.3311	517.822	90.4579	517.822	89.4776	517.822	89.638	517.822	88.457	517.822	88.6369	517.822	87.3102	517.822	87.4858	517.822	86.0753	517.822	86.2112	517.822	84.7857	517.822	84.8325	517.822	83.473	517.822	83.3683	517.822	82.18	517.822	81.8746	517.822	80.9925	517.822	80.5634	517.822	80.1047	517.822	79.9525	517.822	79.8543	517.822	80.5139	517.822	80.4855	517.822	81.8982	517.822	81.7663	517.822	83.3563	517.822	83.1692	517.822	84.4383	517.822	84.2886	517.822	84.9741	517.822	84.9184
536.133	91.8139	536.133	91.606	536.133	91.7179	536.133	91.1098	536.133	91.3122	536.133	90.3492	536.133	90.6016	536.133	89.3558	536.133	89.6049	536.133	88.1665	536.133	88.361	536.133	86.8193	536.133	86.9384	536.133	85.3499	536.133	85.4437	536.133	83.7943	536.133	84.0104	536.133	82.2046	536.133	82.7529	536.133	80.6872	536.133	81.7166	536.133	79.4571	536.133	80.905	536.133	78.847	536.133	80.4077	536.133	79.1234	536.133	80.4712	536.133	80.1786	536.133	81.2342	536.133	81.5782	536.133	82.4007	536.133	82.8919	536.133	83.4841	536.133	83.8428	536.133	84.1577	536.133	84.2841
554.443	91.6943	554.443	91.5336	554.443	91.5876	554.443	91.1136	554.443	91.2129	554.443	90.4524	554.443	90.5736	554.443	89.5781	554.443	89.6753	554.443	88.5241	554.443	88.5269	554.443	87.3181	554.443	87.149	554.443	85.9703	554.443	85.5943	554.443	84.4723	554.443	83.9832	554.443	82.823	554.443	82.5314	554.443	81.0964	554.443	81.4978	554.443	79.5446	554.443	81.019	554.443	78.6093	554.443	81.0269	554.443	78.5886	554.443	81.3739	554.443	79.3072	554.443	81.9287	554.443	80.3758	554.443	82.543	554.443	81.4841	554.443	83.0313	554.443	82.4158	554.443	83.2235	554.443	83.0212
574.219	92.04	574.219	91.8488	574.219	91.9719	574.219	91.4101	574.219	91.6403	574.219	90.7454	574.219	91.0482	574.219	89.8879	574.219	90.2062	574.219	88.8803	574.219	89.132	574.219	87.7613	574.219	87.8497	574.219	86.5438	574.219	86.394	574.219	85.1991	574.219	84.832	574.219	83.6782	574.219	83.3052	574.219	81.9955	574.219	82.0503	574.219	80.4003	574.219	81.2901	574.219	79.4859	574.219	81.0426	574.219	79.6566	574.219	81.1631	574.219	80.5142	574.219	81.5439	574.219	81.4854	574.219	82.1116	574.219	82.3072	574.219	82.7037	574.219	82.8912	574.219	83.1045	574.219	83.174
594.727	91.6339	594.727	91.4887	594.727	91.5255	594.727	91.097	594.727	91.1744	594.727	90.4884	594.727	90.6044	594.727	89.7157	594.727	89.8444	594.727	88.8471	594.727	88.922	594.727	87.9438	594.727	87.8603	594.727	87.0241	594.727	86.6801	594.727	86.0373	594.727	85.4087	594.727	84.8736	594.727	84.0894	594.727	83.4207	594.727	82.794	594.727	81.6817	594.727	81.6527	594.727	80.0358	594.727	80.9062	594.727	79.3963	594.727	80.8401	594.727	80.1294	594.727	81.4628	594.727	81.4058	594.727	82.3909	594.727	82.5406	594.727	83.2027	594.727	83.323	594.727	83.6659	594.727	83.7057
615.234	91.5636	615.234	91.3876	615.234	91.4842	615.234	90.9674	615.234	91.1528	615.234	90.3339	615.234	90.5846	615.234	89.5454	615.234	89.806	615.234	88.687	615.234	88.8553	615.234	87.8467	615.234	87.7865	615.234	87.0687	615.234	86.6778	615.234	86.3192	615.234	85.6318	615.234	85.5096	615.234	84.7419	615.234	84.5607	615.234	84.028	615.234	83.4705	615.234	83.4156	615.234	82.3626	615.234	82.8132	615.234	81.4901	615.234	82.2369	615.234	81.1198	615.234	81.8801	615.234	81.3172	615.234	81.9549	615.234	81.8716	615.234	82.3607	615.234	82.4515	615.234	82.7308	615.234	82.7817
637.207	92.2288	637.207	92.0455	637.207	92.1482	637.207	91.599	637.207	91.8192	637.207	90.9079	637.207	91.2712	637.207	90.0166	637.207	90.5407	637.207	89.006	637.207	89.657	637.207	87.9955	637.207	88.6294	637.207	87.1085	637.207	87.4594	637.207	86.3924	637.207	86.1997	637.207	85.7652	637.207	85.039	637.207	85.067	637.207	84.2625	637.207	84.1768	637.207	83.9449	637.207	83.1286	637.207	83.8168	637.207	82.2125	637.207	83.649	637.207	81.9104	637.207	83.5698	637.207	82.4195	637.207	83.869	637.207	83.3803	637.207	84.4526	637.207	84.2978	637.207	84.8814	637.207	84.8465
659.912	91.711	659.912	91.6972	659.912	91.5012	659.912	91.4375	659.912	91.1082	659.912	90.9389	659.912	90.5784	659.912	90.2496	659.912	89.9534	659.912	89.459	659.912	89.2579	659.912	88.6686	659.912	88.4951	659.912	87.9311	659.912	87.6507	659.912	87.2161	659.912	86.7092	659.912	86.4544	659.912	85.6742	659.912	85.617	659.912	84.5902	659.912	84.7367	659.912	83.5518	659.912	83.8556	659.912	82.6862	659.912	83.0013	659.912	82.1395	659.912	82.304	659.912	82.0862	659.912	82.0926	659.912	82.5763	659.912	82.545	659.912	83.3053	659.912	83.2951	659.912	83.8112	659.912	83.8112
683.35	91.8093	683.35	91.7652	683.35	91.642	683.35	91.503	683.35	91.2827	683.35	91.0308	683.35	90.7621	683.35	90.3773	683.35	90.1179	683.35	89.5991	683.35	89.3873	683.35	88.7819	683.35	88.6006	683.35	88.0138	683.35	87.7872	683.35	87.3253	683.35	86.9872	683.35	86.6521	683.35	86.2491	683.35	85.8892	683.35	85.5962	683.35	85	683.35	84.9819	683.35	84.0697	683.35	84.2975	683.35	83.2388	683.35	83.49	683.35	82.6261	683.35	82.78	683.35	82.415	683.35	82.6744	683.35	82.7854	683.35	83.2471	683.35	83.4865	683.35	83.8543	683.35	83.958
706.787	91.8769	706.787	91.8905	706.787	91.6667	706.787	91.6671	706.787	91.3098	706.787	91.1943	706.787	90.8497	706.787	90.502	706.787	90.317	706.787	89.6722	706.787	89.7289	706.787	88.8391	706.787	89.0873	706.787	88.1518	706.787	88.3813	706.787	87.6783	706.787	87.6055	706.787	87.3215	706.787	86.7891	706.787	86.8671	706.787	86.0053	706.787	86.1127	706.787	85.3215	706.787	84.9648	706.787	84.7239	706.787	83.519	706.787	84.1683	706.787	82.209	706.787	83.8088	706.787	81.8284	706.787	84.0009	706.787	82.6841	706.787	84.6602	706.787	84.0019	706.787	85.1376	706.787	84.9404
731.689	91.9893	731.689	92.1012	731.689	91.6218	731.689	91.9342	731.689	91.0526	731.689	91.4988	731.689	90.3608	731.689	90.8447	731.689	89.634	731.689	90.0632	731.689	88.9416	731.689	89.2699	731.689	88.3111	731.689	88.5632	731.689	87.7239	731.689	87.9874	731.689	87.1289	731.689	87.5369	731.689	86.4773	731.689	87.1761	731.689	85.7474	731.689	86.8309	731.689	84.9182	731.689	86.3669	731.689	83.9484	731.689	85.5987	731.689	82.9054	731.689	84.3464	731.689	82.2173	731.689	82.6374	731.689	82.4078	731.689	81.3177	731.689	83.1232	731.689	81.7126	731.689	83.4576	731.689	82.9048
758.057	92.6469	758.057	92.5654	758.057	92.4441	758.057	92.177	758.057	92.0008	758.057	91.4953	758.057	91.3695	758.057	90.5817	758.057	90.6045	758.057	89.5536	758.057	89.752	758.057	88.5665	758.057	88.8232	758.057	87.7332	758.057	87.7895	758.057	87.0277	758.057	86.6642	758.057	86.3229	758.057	85.6381	758.057	85.5499	758.057	85.0013	758.057	84.7857	758.057	84.7144	758.057	84.1558	758.057	84.3253	758.057	83.6608	758.057	83.3982	758.057	83.1639	758.057	81.8594	758.057	82.5543	758.057	80.5351	758.057	81.9743	758.057	80.7313	758.057	81.7946	758.057	81.5905	758.057	81.8964
784.424	92.3897	784.424	92.5315	784.424	92.004	784.424	92.3565	784.424	91.4679	784.424	91.8332	784.424	90.8653	784.424	90.9873	784.424	90.2375	784.424	89.9248	784.424	89.5776	784.424	88.851	784.424	88.8571	784.424	88.012	784.424	88.0457	784.424	87.4881	784.424	87.1056	784.424	87.0713	784.424	86.0118	784.424	86.466	784.424	84.8339	784.424	85.5389	784.424	83.7863	784.424	84.4116	784.424	83.0275	784.424	83.3983	784.424	82.3676	784.424	82.7032	784.424	81.5625	784.424	82.154	784.424	80.9492	784.424	81.5575	784.424	81.0503	784.424	81.1921	784.424	81.364	784.424	81.2996
812.256	92.3274	812.256	92.3227	812.256	91.9808	812.256	91.9235	812.256	91.3764	812.256	91.1297	812.256	90.6485	812.256	89.9822	812.256	89.918	812.256	88.5731	812.256	89.2118	812.256	87.0799	812.256	88.4545	812.256	85.8374	812.256	87.5723	812.256	85.2782	812.256	86.6133	812.256	85.4482	812.256	85.7596	812.256	85.8095	812.256	85.1536	812.256	85.8226	812.256	84.6641	812.256	85.2696	812.256	83.9003	812.256	84.2247	812.256	82.4698	812.256	83.0708	812.256	80.4025	812.256	82.3872	812.256	79.0894	812.256	82.3194	812.256	80.0029	812.256	82.4262	812.256	81.4559	812.256	82.2511
840.82	92.8671	840.82	92.7772	840.82	92.5556	840.82	92.2883	840.82	91.8928	840.82	91.4454	840.82	90.9793	840.82	90.3109	840.82	89.9649	840.82	88.9341	840.82	89.0174	840.82	87.3499	840.82	88.1998	840.82	85.6523	840.82	87.3662	840.82	84.1589	840.82	86.2848	840.82	83.4309	840.82	84.8952	840.82	83.6174	840.82	83.5304	840.82	84.0643	840.82	82.8539	840.82	84.0895	840.82	83.0129	840.82	83.4168	840.82	83.2575	840.82	82.1853	840.82	82.8951	840.82	81.0515	840.82	81.9065	840.82	80.7893	840.82	81.1187	840.82	81.1647	840.82	81.1798	840.82	81.3878
870.85	93.1534	870.85	92.9702	870.85	92.8462	870.85	92.358	870.85	92.057	870.85	91.4153	870.85	90.8886	870.85	90.2482	870.85	89.5454	870.85	88.9489	870.85	88.28	870.85	87.5656	870.85	87.2686	870.85	86.0354	870.85	86.5175	870.85	84.1488	870.85	85.8818	870.85	81.8153	870.85	85.1241	870.85	80.1536	870.85	84.0086	870.85	80.9301	870.85	82.4878	870.85	82.3367	870.85	80.9263	870.85	82.6328	870.85	79.9805	870.85	81.5268	870.85	79.8376	870.85	79.5852	870.85	80.1829	870.85	78.9571	870.85	80.7921	870.85	80.225	870.85	81.3244	870.85	81.2401
901.611	93.093	901.611	92.8052	901.611	92.8455	901.611	92.0439	901.611	92.1089	901.611	90.9572	901.611	91.041	901.611	89.7305	901.611	89.8691	901.611	88.5141	901.611	88.7469	901.611	87.3737	901.611	87.6063	901.611	86.2781	901.611	86.2439	901.611	85.0866	901.611	84.6233	901.611	83.5632	901.611	83.1637	901.611	81.5961	901.611	82.4355	901.611	79.9162	901.611	82.236	901.611	80.0999	901.611	81.9469	901.611	81.3563	901.611	81.248	901.611	81.9116	901.611	80.1998	901.611	81.076	901.611	79.5878	901.611	78.8502	901.611	80.0806	901.611	77.5093	901.611	80.3706	901.611	79.1925
933.105	93.0735	933.105	92.7125	933.105	92.924	933.105	91.9642	933.105	92.1944	933.105	90.937	933.105	90.9274	933.105	89.6892	933.105	89.3301	933.105	88.2644	933.105	87.7723	933.105	86.7504	933.105	86.581	933.105	85.2951	933.105	85.7123	933.105	84.0554	933.105	84.7774	933.105	83.0358	933.105	83.3847	933.105	81.9474	933.105	81.5128	933.105	80.4786	933.105	79.8583	933.105	79.0094	933.105	79.1614	933.105	78.8392	933.105	78.9241	933.105	79.799	933.105	78.5265	933.105	80.4135	933.105	78.2286	933.105	80.1811	933.105	78.5365	933.105	79.5309	933.105	79.0074	933.105	79.1872
966.064	92.8126	966.064	92.5782	966.064	92.6058	966.064	91.9501	966.064	91.9309	966.064	90.996	966.064	90.8184	966.064	89.8049	966.064	89.4137	966.064	88.4544	966.064	87.9829	966.064	86.9719	966.064	86.7302	966.064	85.3829	966.064	85.5675	966.064	83.838	966.064	84.3112	966.064	82.5768	966.064	83.0366	966.064	81.6263	966.064	81.9827	966.064	80.8186	966.064	81.3068	966.064	80.045	966.064	81.0445	966.064	79.2828	966.064	80.7875	966.064	78.9836	966.064	79.8361	966.064	79.4334	966.064	78.353	966.064	79.6741	966.064	78.3925	966.064	79.4857	966.064	79.4968	966.064	79.6523
999.756	92.5155	999.756	92.3004	999.756	92.3619	999.756	91.7575	999.756	91.7682	999.756	90.9181	999.756	90.6614	999.756	89.8207	999.756	89.0911	999.756	88.5399	999.756	87.3848	999.756	87.2245	999.756	85.9985	999.756	86.0097	999.756	84.9025	999.756	84.8297	999.756	83.684	999.756	83.4308	999.756	82.3123	999.756	81.5331	999.756	81.0496	999.756	79.1209	999.756	79.8713	999.756	77.5961	999.756	78.8176	999.756	78.4493	999.756	78.1589	999.756	79.4287	999.756	77.624	999.756	79.3543	999.756	77.0451	999.756	78.9671	999.756	77.6338	999.756	79.2695	999.756	79.0925	999.756	79.674
1,034.91	92.128	1,034.91	92.0738	1,034.91	91.9262	1,034.91	91.7403	1,034.91	91.4103	1,034.91	91.0593	1,034.91	90.4989	1,034.91	89.9939	1,034.91	89.2162	1,034.91	88.6118	1,034.91	87.7981	1,034.91	87.1424	1,034.91	86.5529	1,034.91	85.9012	1,034.91	85.3925	1,034.91	84.9788	1,034.91	83.8652	1,034.91	84.0943	1,034.91	81.8717	1,034.91	82.8632	1,034.91	80.1509	1,034.91	81.0632	1,034.91	79.6913	1,034.91	78.9169	1,034.91	80.1785	1,034.91	77.6212	1,034.91	80.3207	1,034.91	78.3809	1,034.91	79.1596	1,034.91	79.6604	1,034.91	76.8051	1,034.91	79.6847	1,034.91	76.4207	1,034.91	78.8135	1,034.91	78.2033	1,034.91	78.7058
1,071.53	92.0815	1,071.53	92.0382	1,071.53	91.898	1,071.53	91.7087	1,071.53	91.4859	1,071.53	91.0132	1,071.53	90.7445	1,071.53	89.8884	1,071.53	89.5135	1,071.53	88.3397	1,071.53	87.7394	1,071.53	86.5126	1,071.53	85.7996	1,071.53	84.7967	1,071.53	84.4972	1,071.53	83.8159	1,071.53	83.7494	1,071.53	83.6942	1,071.53	82.6825	1,071.53	83.583	1,071.53	81.1124	1,071.53	82.6271	1,071.53	79.3263	1,071.53	80.5737	1,071.53	78.0483	1,071.53	78.3393	1,071.53	78.3688	1,071.53	78.0603	1,071.53	79.2064	1,071.53	78.8008	1,071.53	78.9408	1,071.53	78.5318	1,071.53	77.7623	1,071.53	77.7442	1,071.53	77.6888	1,071.53	77.8884
1,109.62	92.0519	1,109.62	92.0949	1,109.62	91.7652	1,109.62	91.7726	1,109.62	91.3245	1,109.62	91.0284	1,109.62	90.6213	1,109.62	89.8348	1,109.62	89.4659	1,109.62	88.156	1,109.62	87.9377	1,109.62	85.9907	1,109.62	86.5196	1,109.62	83.6094	1,109.62	85.4604	1,109.62	81.9626	1,109.62	84.2374	1,109.62	81.6953	1,109.62	82.3652	1,109.62	81.7815	1,109.62	79.7473	1,109.62	81.4381	1,109.62	77.1008	1,109.62	80.6975	1,109.62	77.935	1,109.62	79.4567	1,109.62	80.3923	1,109.62	77.7948	1,109.62	80.9037	1,109.62	77.8611	1,109.62	79.3387	1,109.62	78.9722	1,109.62	77.9438	1,109.62	78.8358	1,109.62	78.2469	1,109.62	78.4163
1,148.44	92.4267	1,148.44	92.2444	1,148.44	92.103	1,148.44	91.5988	1,148.44	91.4332	1,148.44	90.6386	1,148.44	90.6486	1,148.44	89.473	1,148.44	89.7465	1,148.44	88.0867	1,148.44	88.4243	1,148.44	86.2864	1,148.44	86.4637	1,148.44	83.6566	1,148.44	84.5394	1,148.44	79.7643	1,148.44	83.912	1,148.44	76.9491	1,148.44	83.7135	1,148.44	79.3157	1,148.44	82.7505	1,148.44	81.3605	1,148.44	80.9316	1,148.44	81.8311	1,148.44	78.6523	1,148.44	81.5961	1,148.44	78.0298	1,148.44	80.7592	1,148.44	79.4137	1,148.44	78.5715	1,148.44	79.5153	1,148.44	77.9137	1,148.44	77.938	1,148.44	78.5804	1,148.44	76.8607	1,148.44	77.5894
1,189.45	93.0876	1,189.45	92.7741	1,189.45	92.6726	1,189.45	91.8433	1,189.45	91.7239	1,189.45	90.6041	1,189.45	90.5458	1,189.45	89.2851	1,189.45	89.2206	1,189.45	87.8818	1,189.45	87.6662	1,189.45	86.2903	1,189.45	85.9438	1,189.45	84.4471	1,189.45	84.1733	1,189.45	82.2583	1,189.45	82.367	1,189.45	79.5355	1,189.45	81.2276	1,189.45	76.3093	1,189.45	81.2836	1,189.45	74.8784	1,189.45	81.0433	1,189.45	77.114	1,189.45	80.019	1,189.45	79.0284	1,189.45	79.8214	1,189.45	79.6228	1,189.45	79.8137	1,189.45	79.1252	1,189.45	78.5232	1,189.45	78.0777	1,189.45	77.5674	1,189.45	78.4706	1,189.45	78.5009	1,189.45	79.1767
1,231.2	93.2745	1,231.2	93.0507	1,231.2	92.8883	1,231.2	92.3132	1,231.2	91.9115	1,231.2	91.1639	1,231.2	90.5681	1,231.2	89.7565	1,231.2	89.0997	1,231.2	88.2743	1,231.2	87.5993	1,231.2	86.7554	1,231.2	86.2078	1,231.2	85.0736	1,231.2	84.8586	1,231.2	83.2023	1,231.2	83.0838	1,231.2	81.4303	1,231.2	81.4283	1,231.2	79.725	1,231.2	80.9013	1,231.2	77.4332	1,231.2	80.3072	1,231.2	76.0222	1,231.2	79.5762	1,231.2	77.2834	1,231.2	79.6724	1,231.2	79.1192	1,231.2	79.4188	1,231.2	80.3429	1,231.2	78.3355	1,231.2	79.3152	1,231.2	77.722	1,231.2	77.5809	1,231.2	78.6721	1,231.2	78.7212
1,274.41	93.6645	1,274.41	93.2581	1,274.41	93.4084	1,274.41	92.3454	1,274.41	92.4493	1,274.41	91.0605	1,274.41	91.0485	1,274.41	89.5538	1,274.41	89.6328	1,274.41	88.0533	1,274.41	88.1436	1,274.41	86.7517	1,274.41	86.1345	1,274.41	85.6139	1,274.41	84.0281	1,274.41	84.266	1,274.41	82.5865	1,274.41	82.2818	1,274.41	81.0555	1,274.41	80.2224	1,274.41	80.2719	1,274.41	79.3286	1,274.41	80.2524	1,274.41	78.4106	1,274.41	78.7611	1,274.41	77.2177	1,274.41	78.0104	1,274.41	78.0805	1,274.41	79.701	1,274.41	79.6848	1,274.41	79.7576	1,274.41	79.4051	1,274.41	78.5633	1,274.41	77.4417	1,274.41	78.711	1,274.41	78.1224
1,319.82	93.626	1,319.82	93.5245	1,319.82	93.2865	1,319.82	92.8595	1,319.82	92.5485	1,319.82	91.6134	1,319.82	91.3592	1,319.82	89.979	1,319.82	89.7474	1,319.82	88.3329	1,319.82	87.8406	1,319.82	86.9849	1,319.82	85.8477	1,319.82	85.8427	1,319.82	84.1881	1,319.82	84.5398	1,319.82	82.5456	1,319.82	82.6851	1,319.82	80.4874	1,319.82	80.1145	1,319.82	80.1269	1,319.82	77.8589	1,319.82	80.766	1,319.82	77.0538	1,319.82	80.5619	1,319.82	76.4371	1,319.82	80.8224	1,319.82	76.3839	1,319.82	81.0069	1,319.82	78.3607	1,319.82	79.7527	1,319.82	80.1422	1,319.82	77.8073	1,319.82	79.1575	1,319.82	77.4908	1,319.82	77.4022
1,365.97	93.4037	1,365.97	93.411	1,365.97	93.1051	1,365.97	92.9697	1,365.97	92.5249	1,365.97	91.8817	1,365.97	91.4568	1,365.97	90.0559	1,365.97	89.8111	1,365.97	87.706	1,365.97	88.1147	1,365.97	85.477	1,365.97	86.7842	1,365.97	84.1207	1,365.97	84.9376	1,365.97	83.5306	1,365.97	81.8091	1,365.97	83.1674	1,365.97	78.3047	1,365.97	82.5298	1,365.97	77.5562	1,365.97	81.1879	1,365.97	79.1466	1,365.97	80.1963	1,365.97	80.1433	1,365.97	79.0552	1,365.97	80.3586	1,365.97	76.4505	1,365.97	80.7216	1,365.97	78.4083	1,365.97	80.6812	1,365.97	79.9625	1,365.97	78.3988	1,365.97	78.4252	1,365.97	76.0256	1,365.97	76.0534
1,414.31	93.3245	1,414.31	93.1875	1,414.31	92.9415	1,414.31	92.5164	1,414.31	92.1728	1,414.31	91.3227	1,414.31	91.2216	1,414.31	89.7487	1,414.31	90.0967	1,414.31	87.9932	1,414.31	88.5999	1,414.31	86.0112	1,414.31	86.5426	1,414.31	83.8059	1,414.31	84.3134	1,414.31	82.0143	1,414.31	82.6558	1,414.31	81.9666	1,414.31	80.7065	1,414.31	82.7249	1,414.31	79.1537	1,414.31	81.7887	1,414.31	79.3201	1,414.31	79.6138	1,414.31	78.3279	1,414.31	79.8813	1,414.31	79.0377	1,414.31	78.5301	1,414.31	80.8293	1,414.31	75.9177	1,414.31	79.8493	1,414.31	78.6185	1,414.31	76.9556	1,414.31	78.973	1,414.31	76.0942	1,414.31	77.3849
1,464.11	93.5958	1,464.11	93.1526	1,464.11	93.0808	1,464.11	92.1265	1,464.11	91.8825	1,464.11	91.1149	1,464.11	90.7296	1,464.11	90.3111	1,464.11	89.7494	1,464.11	89.2926	1,464.11	88.4716	1,464.11	87.5561	1,464.11	86.7808	1,464.11	85.0986	1,464.11	84.819	1,464.11	82.4689	1,464.11	82.659	1,464.11	79.5766	1,464.11	79.7382	1,464.11	78.1276	1,464.11	76.7284	1,464.11	79.2852	1,464.11	78.4286	1,464.11	78.9728	1,464.11	79.0527	1,464.11	79.1099	1,464.11	79.2822	1,464.11	78.1475	1,464.11	81.2058	1,464.11	74.6118	1,464.11	80.1396	1,464.11	77.2301	1,464.11	77.1005	1,464.11	78.0399	1,464.11	74.8188	1,464.11	75.9914
1,515.38	93.5195	1,515.38	93.1127	1,515.38	93.2044	1,515.38	92.3245	1,515.38	92.1339	1,515.38	91.4117	1,515.38	90.8399	1,515.38	90.4308	1,515.38	89.7213	1,515.38	89.167	1,515.38	88.401	1,515.38	87.3247	1,515.38	86.732	1,515.38	84.765	1,515.38	84.8554	1,515.38	81.6989	1,515.38	82.2948	1,515.38	78.4429	1,515.38	79.4855	1,515.38	75.3208	1,515.38	78.585	1,515.38	75.3029	1,515.38	80.0698	1,515.38	76.761	1,515.38	80.6502	1,515.38	79.4018	1,515.38	79.2927	1,515.38	80.275	1,515.38	78.9442	1,515.38	76.8727	1,515.38	78.1671	1,515.38	76.1763	1,515.38	76.1448	1,515.38	77.4823	1,515.38	75.0175	1,515.38	76.2445
1,568.85	93.5514	1,568.85	93.2379	1,568.85	93.2583	1,568.85	92.4243	1,568.85	92.321	1,568.85	91.3367	1,568.85	91.0087	1,568.85	90.1408	1,568.85	89.7066	1,568.85	88.7024	1,568.85	88.2003	1,568.85	87.0297	1,568.85	86.6233	1,568.85	85.1913	1,568.85	85.3904	1,568.85	83.0852	1,568.85	83.4452	1,568.85	81.2583	1,568.85	80.7111	1,568.85	80.0673	1,568.85	78.7671	1,568.85	78.6587	1,568.85	78.7528	1,568.85	73.6835	1,568.85	80.1041	1,568.85	74.85	1,568.85	78.7861	1,568.85	79.9058	1,568.85	79.1651	1,568.85	78.1478	1,568.85	79.3074	1,568.85	75.4883	1,568.85	76.5014	1,568.85	76.3268	1,568.85	75.5512	1,568.85	76.4221
1,624.51	93.0715	1,624.51	92.7509	1,624.51	93.0144	1,624.51	92.2023	1,624.51	92.4614	1,624.51	91.5049	1,624.51	91.326	1,624.51	90.3338	1,624.51	89.8815	1,624.51	88.603	1,624.51	88.4086	1,624.51	86.8557	1,624.51	86.5668	1,624.51	85.521	1,624.51	84.9599	1,624.51	84.1114	1,624.51	83.6441	1,624.51	81.7815	1,624.51	80.1213	1,624.51	78.3809	1,624.51	77.1615	1,624.51	79.4387	1,624.51	79.1175	1,624.51	80.1632	1,624.51	78.3858	1,624.51	70.5266	1,624.51	77.158	1,624.51	76.7631	1,624.51	78.1018	1,624.51	79.1758	1,624.51	77.9938	1,624.51	75.6771	1,624.51	75.1444	1,624.51	75.9107	1,624.51	75.2528	1,624.51	76.5928
1,681.64	92.1938	1,681.64	91.987	1,681.64	92.4366	1,681.64	91.9363	1,681.64	92.2592	1,681.64	91.5461	1,681.64	91.3722	1,681.64	90.2877	1,681.64	90.0393	1,681.64	88.259	1,681.64	88.6977	1,681.64	85.9827	1,681.64	86.9174	1,681.64	84.1951	1,681.64	84.9334	1,681.64	83.2731	1,681.64	83.8046	1,681.64	82.5458	1,681.64	81.5525	1,681.64	80.9549	1,681.64	77.3036	1,681.64	78.6745	1,681.64	79.454	1,681.64	81.4307	1,681.64	80.0015	1,681.64	78.3389	1,681.64	77.9829	1,681.64	71.2673	1,681.64	76.6851	1,681.64	77.612	1,681.64	74.2048	1,681.64	74.9943	1,681.64	74.0521	1,681.64	74.4103	1,681.64	73.8793	1,681.64	74.4552
1,740.97	92.2834	1,740.97	92.0858	1,740.97	92.0958	1,740.97	91.7903	1,740.97	91.8333	1,740.97	91.3206	1,740.97	91.3979	1,740.97	90.454	1,740.97	90.0925	1,740.97	89.4103	1,740.97	88.3832	1,740.97	87.9301	1,740.97	86.503	1,740.97	85.7486	1,740.97	83.9889	1,740.97	83.2309	1,740.97	83.791	1,740.97	80.7465	1,740.97	83.0798	1,740.97	80.2896	1,740.97	77.9119	1,740.97	78.0632	1,740.97	77.6801	1,740.97	79.9259	1,740.97	81.0503	1,740.97	79.9861	1,740.97	79.5341	1,740.97	70.3451	1,740.97	77.7524	1,740.97	75.1868	1,740.97	78.6703	1,740.97	76.0432	1,740.97	75.4976	1,740.97	77.0088	1,740.97	71.7334	1,740.97	71.5086
1,802.49	92.5972	1,802.49	92.212	1,802.49	92.5812	1,802.49	91.9476	1,802.49	91.8714	1,802.49	91.4733	1,802.49	91.0754	1,802.49	90.7412	1,802.49	90.1215	1,802.49	89.7211	1,802.49	88.5406	1,802.49	87.8529	1,802.49	86.6261	1,802.49	85.0746	1,802.49	83.9942	1,802.49	82.5242	1,802.49	82.144	1,802.49	79.3793	1,802.49	81.2061	1,802.49	77.2602	1,802.49	77.3885	1,802.49	77.539	1,802.49	78.0358	1,802.49	76.361	1,802.49	80.4527	1,802.49	79.8926	1,802.49	79.0351	1,802.49	76.8061	1,802.49	76.6945	1,802.49	75.3531	1,802.49	77.8611	1,802.49	75.4037	1,802.49	75.5843	1,802.49	75.7342	1,802.49	67.8784	1,802.49	73.5859
1,866.21	92.2685	1,866.21	92.3162	1,866.21	92.5105	1,866.21	92.1573	1,866.21	92.1764	1,866.21	91.3964	1,866.21	91.1838	1,866.21	90.6274	1,866.21	90.2685	1,866.21	89.5076	1,866.21	88.8177	1,866.21	87.4086	1,866.21	86.1891	1,866.21	84.0654	1,866.21	83.0747	1,866.21	81.1292	1,866.21	81.0485	1,866.21	80.6324	1,866.21	81.4989	1,866.21	79.1755	1,866.21	79.9047	1,866.21	77.1783	1,866.21	77.0476	1,866.21	65.4136	1,866.21	79.1627	1,866.21	77.1271	1,866.21	77.5441	1,866.21	77.5868	1,866.21	76.7161	1,866.21	75.2398	1,866.21	77.3447	1,866.21	76.6409	1,866.21	74.7778	1,866.21	74.9891	1,866.21	67.6313	1,866.21	73.3307
1,932.13	91.3654	1,932.13	91.8055	1,932.13	91.5922	1,932.13	91.6701	1,932.13	92.2473	1,932.13	91.5151	1,932.13	91.7056	1,932.13	91.1431	1,932.13	90.3453	1,932.13	89.6625	1,932.13	88.7355	1,932.13	87.5309	1,932.13	86.28	1,932.13	85.1011	1,932.13	83.5223	1,932.13	82.0041	1,932.13	80.827	1,932.13	80.0096	1,932.13	81.4356	1,932.13	76.9535	1,932.13	80.7038	1,932.13	78.3979	1,932.13	74.4712	1,932.13	77.8687	1,932.13	79.1645	1,932.13	62.6118	1,932.13	77.0036	1,932.13	75.8886	1,932.13	76.2876	1,932.13	77.156	1,932.13	78.5859	1,932.13	75.8697	1,932.13	76.5823	1,932.13	71.347	1,932.13	72.453	1,932.13	73.12
2,000.24	91.6431	2,000.24	91.5766	2,000.24	91.378	2,000.24	91.5911	2,000.24	91.4817	2,000.24	91.7618	2,000.24	91.3655	2,000.24	91.0071	2,000.24	90.3315	2,000.24	89.0583	2,000.24	89.0526	2,000.24	86.8032	2,000.24	87.1384	2,000.24	84.7834	2,000.24	83.9739	2,000.24	82.1038	2,000.24	81.6566	2,000.24	80.2378	2,000.24	80.7065	2,000.24	80.2855	2,000.24	77.2293	2,000.24	77.6821	2,000.24	71.6679	2,000.24	79.142	2,000.24	76.0259	2,000.24	77.5781	2,000.24	76.4991	2,000.24	64.6879	2,000.24	75.5829	2,000.24	76.8849	2,000.24	76.8593	2,000.24	77.146	2,000.24	75.9498	2,000.24	72.6732	2,000.24	71.3147	2,000.24	71.5884
2,070.56	92.5625	2,070.56	92.3581	2,070.56	92.2621	2,070.56	92.0234	2,070.56	91.6852	2,070.56	91.5106	2,070.56	91.1739	2,070.56	90.3064	2,070.56	90.3317	2,070.56	88.5278	2,070.56	88.8013	2,070.56	86.8279	2,070.56	86.8962	2,070.56	85.2709	2,070.56	83.8159	2,070.56	82.9127	2,070.56	80.6744	2,070.56	80.1903	2,070.56	80.772	2,070.56	78.8954	2,070.56	77.9387	2,070.56	74.5522	2,070.56	70.8096	2,070.56	76.6491	2,070.56	73.2524	2,070.56	78.8699	2,070.56	74.2479	2,070.56	75.3207	2,070.56	74.747	2,070.56	75.6117	2,070.56	76.4424	2,070.56	77.5244	2,070.56	75.8961	2,070.56	73.4018	2,070.56	70.9596	2,070.56	70.3832
2,143.8	92.379	2,143.8	92.49	2,143.8	92.3292	2,143.8	92.5196	2,143.8	92.3282	2,143.8	91.8213	2,143.8	91.6383	2,143.8	90.3343	2,143.8	90.1284	2,143.8	89.0037	2,143.8	88.4048	2,143.8	87.1765	2,143.8	86.1017	2,143.8	83.7772	2,143.8	83.892	2,143.8	81.2232	2,143.8	80.7664	2,143.8	78.1478	2,143.8	78.781	2,143.8	76.9146	2,143.8	80.2741	2,143.8	75.4466	2,143.8	72.2107	2,143.8	70.2365	2,143.8	73.653	2,143.8	76.6573	2,143.8	76.6557	2,143.8	75.9963	2,143.8	75.8177	2,143.8	76.7523	2,143.8	77.6874	2,143.8	76.898	2,143.8	75.6146	2,143.8	75.8303	2,143.8	68.7878	2,143.8	69.9212
2,219.24	91.1962	2,219.24	91.6665	2,219.24	91.408	2,219.24	92.282	2,219.24	91.9281	2,219.24	91.7771	2,219.24	91.8112	2,219.24	90.2641	2,219.24	90.3998	2,219.24	88.8356	2,219.24	88.2547	2,219.24	87.4285	2,219.24	86.378	2,219.24	84.2012	2,219.24	84.9193	2,219.24	78.6605	2,219.24	82.9636	2,219.24	78.6499	2,219.24	79.1572	2,219.24	77.0976	2,219.24	79.2945	2,219.24	78.0924	2,219.24	75.9383	2,219.24	70.6323	2,219.24	69.6939	2,219.24	73.8616	2,219.24	77.3163	2,219.24	73.9917	2,219.24	75.2996	2,219.24	75.9014	2,219.24	77.4373	2,219.24	77.9936	2,219.24	78.2675	2,219.24	74.7655	2,219.24	72.4333	2,219.24	69.0651
2,297.61	91.9616	2,297.61	91.6659	2,297.61	91.8272	2,297.61	91.7978	2,297.61	91.3127	2,297.61	91.5138	2,297.61	91.8207	2,297.61	90.8627	2,297.61	91.1031	2,297.61	89.4793	2,297.61	88.4122	2,297.61	86.7148	2,297.61	86.076	2,297.61	84.1533	2,297.61	84.3048	2,297.61	82.2923	2,297.61	82.7529	2,297.61	80.9576	2,297.61	79.0174	2,297.61	77.972	2,297.61	77.9236	2,297.61	77.6356	2,297.61	76.5042	2,297.61	78.0757	2,297.61	67.9508	2,297.61	69.5913	2,297.61	74.8737	2,297.61	75.2889	2,297.61	75.2296	2,297.61	73.4366	2,297.61	75.7898	2,297.61	77.9715	2,297.61	75.8879	2,297.61	74.5047	2,297.61	68.8726	2,297.61	67.3996
2,378.17	92.5623	2,378.17	92.7988	2,378.17	92.3941	2,378.17	91.9603	2,378.17	91.9302	2,378.17	91.4279	2,378.17	91.1246	2,378.17	91.2332	2,378.17	90.6203	2,378.17	89.3961	2,378.17	88.454	2,378.17	86.3315	2,378.17	85.5281	2,378.17	83.7247	2,378.17	83.8728	2,378.17	81.7364	2,378.17	81.7627	2,378.17	79.266	2,378.17	81.0554	2,378.17	77.7836	2,378.17	78.1918	2,378.17	73.7276	2,378.17	75.9186	2,378.17	77.1375	2,378.17	66.1844	2,378.17	67.8481	2,378.17	75.4148	2,378.17	77.7619	2,378.17	74.7128	2,378.17	73.6939	2,378.17	77.4683	2,378.17	76.3532	2,378.17	76.0631	2,378.17	73.8284	2,378.17	67.6193	2,378.17	69.0539
2,462.4	92.5589	2,462.4	92.4476	2,462.4	92.645	2,462.4	92.8906	2,462.4	92.5575	2,462.4	92.3641	2,462.4	91.4837	2,462.4	90.048	2,462.4	90.3933	2,462.4	88.5828	2,462.4	89.1408	2,462.4	87.4587	2,462.4	86.3515	2,462.4	84.4342	2,462.4	82.9357	2,462.4	81.3213	2,462.4	78.8268	2,462.4	79.4553	2,462.4	78.1114	2,462.4	77.1	2,462.4	77.1704	2,462.4	75.0565	2,462.4	75.4611	2,462.4	75.0069	2,462.4	70.8237	2,462.4	69.8928	2,462.4	68.966	2,462.4	75.7201	2,462.4	76.9421	2,462.4	73.5272	2,462.4	75.7632	2,462.4	77.4781	2,462.4	75.0038	2,462.4	73.9415	2,462.4	69.3153	2,462.4	66.4076
2,548.83	92.2485	2,548.83	92.2768	2,548.83	92.327	2,548.83	93.0283	2,548.83	92.5159	2,548.83	92.2301	2,548.83	92.0912	2,548.83	90.272	2,548.83	90.0496	2,548.83	89.0893	2,548.83	88.0794	2,548.83	87.3174	2,548.83	85.8815	2,548.83	84.9419	2,548.83	83.2349	2,548.83	82.376	2,548.83	80.0459	2,548.83	78.6273	2,548.83	77.614	2,548.83	78.0803	2,548.83	76.4797	2,548.83	73.9173	2,548.83	71.4048	2,548.83	74.6255	2,548.83	71.1789	2,548.83	72.2163	2,548.83	73.868	2,548.83	75.029	2,548.83	74.9807	2,548.83	74.9922	2,548.83	76.348	2,548.83	75.6269	2,548.83	74.1385	2,548.83	73.2144	2,548.83	66.9646	2,548.83	58.5838
2,638.92	92.2724	2,638.92	92.5313	2,638.92	92.2455	2,638.92	92.1464	2,638.92	91.9909	2,638.92	91.5581	2,638.92	92.0564	2,638.92	91.4182	2,638.92	90.8583	2,638.92	89.378	2,638.92	87.9241	2,638.92	86.3112	2,638.92	85.0647	2,638.92	83.2797	2,638.92	81.327	2,638.92	79.9986	2,638.92	78.853	2,638.92	78.1821	2,638.92	75.3035	2,638.92	76.8645	2,638.92	74.3533	2,638.92	76.4627	2,638.92	74.551	2,638.92	73.6991	2,638.92	70.3089	2,638.92	74.8834	2,638.92	74.8589	2,638.92	73.4333	2,638.92	76.7203	2,638.92	76.2472	2,638.92	73.7138	2,638.92	75.5957	2,638.92	73.2754	2,638.92	74.7574	2,638.92	61.8741	2,638.92	54.9259
2,731.93	92.0474	2,731.93	92.4495	2,731.93	92.4266	2,731.93	92.0056	2,731.93	92.2207	2,731.93	91.7559	2,731.93	91.2809	2,731.93	91.178	2,731.93	90.8917	2,731.93	88.9792	2,731.93	88.4071	2,731.93	86.3928	2,731.93	84.903	2,731.93	83.5092	2,731.93	81.6649	2,731.93	80.6102	2,731.93	76.8064	2,731.93	78.4735	2,731.93	75.4826	2,731.93	77.3443	2,731.93	74.0172	2,731.93	76.1314	2,731.93	74.5304	2,731.93	73.7053	2,731.93	74.1307	2,731.93	74.5008	2,731.93	73.2526	2,731.93	72.905	2,731.93	77.3002	2,731.93	74.7664	2,731.93	76.0939	2,731.93	74.2747	2,731.93	74.1864	2,731.93	73.5608	2,731.93	64.2999	2,731.93	56.8234
2,828.61	91.9694	2,828.61	91.9084	2,828.61	92.2708	2,828.61	92.4779	2,828.61	92.7963	2,828.61	92.2921	2,828.61	91.4163	2,828.61	90.6106	2,828.61	89.8979	2,828.61	88.7074	2,828.61	88.4104	2,828.61	85.2416	2,828.61	84.6559	2,828.61	82.7405	2,828.61	80.3767	2,828.61	81.319	2,828.61	73.7631	2,828.61	78.9182	2,828.61	74.4289	2,828.61	75.1728	2,828.61	76.2314	2,828.61	73.8553	2,828.61	76.0709	2,828.61	72.3341	2,828.61	71.5885	2,828.61	73.812	2,828.61	75.4286	2,828.61	72.5069	2,828.61	75.6325	2,828.61	76.2862	2,828.61	74.9047	2,828.61	74.8727	2,828.61	73.0419	2,828.61	74.5959	2,828.61	64.6377	2,828.61	60.4209
2,928.22	91.7773	2,928.22	92.1782	2,928.22	92.4312	2,928.22	93.0372	2,928.22	92.9038	2,928.22	92.4894	2,928.22	92.0891	2,928.22	90.1674	2,928.22	89.7522	2,928.22	87.1081	2,928.22	87.6817	2,928.22	85.4284	2,928.22	85.4984	2,928.22	82.8286	2,928.22	81.4559	2,928.22	79.0322	2,928.22	76.8628	2,928.22	76.1288	2,928.22	75.7594	2,928.22	76.448	2,928.22	75.8529	2,928.22	75.9473	2,928.22	75.1535	2,928.22	73.317	2,928.22	68.3522	2,928.22	74.4637	2,928.22	73.2752	2,928.22	72.6507	2,928.22	73.6321	2,928.22	75.5613	2,928.22	73.3656	2,928.22	73.2351	2,928.22	70.1594	2,928.22	72.3536	2,928.22	68.8535	2,928.22	61.0828
3,031.49	92.1151	3,031.49	92.2411	3,031.49	92.0912	3,031.49	91.9727	3,031.49	92.0683	3,031.49	91.8474	3,031.49	91.137	3,031.49	90.4363	3,031.49	90.0048	3,031.49	88.6614	3,031.49	88.6853	3,031.49	86.7779	3,031.49	86.5377	3,031.49	82.9112	3,031.49	82.9485	3,031.49	80.3497	3,031.49	79.0038	3,031.49	78.6367	3,031.49	76.5955	3,031.49	75.8079	3,031.49	75.4346	3,031.49	73.5979	3,031.49	71.0595	3,031.49	71.5138	3,031.49	69.6255	3,031.49	73.7671	3,031.49	71.681	3,031.49	72.5912	3,031.49	72.2873	3,031.49	75.1382	3,031.49	73.0318	3,031.49	72.5669	3,031.49	68.7477	3,031.49	70.9961	3,031.49	64.9473	3,031.49	60.8955
3,138.43	92.8328	3,138.43	92.1327	3,138.43	92.0472	3,138.43	91.5182	3,138.43	91.1504	3,138.43	90.7913	3,138.43	90.3076	3,138.43	90.231	3,138.43	89.5237	3,138.43	89.1127	3,138.43	88.7268	3,138.43	85.5813	3,138.43	86.4232	3,138.43	84.1432	3,138.43	83.7886	3,138.43	82.0726	3,138.43	81.2654	3,138.43	77.1762	3,138.43	78.9903	3,138.43	73.6924	3,138.43	75.713	3,138.43	72.5153	3,138.43	70.3831	3,138.43	70.2607	3,138.43	65.3025	3,138.43	71.4658	3,138.43	72.7119	3,138.43	72.2648	3,138.43	73.6655	3,138.43	74.4021	3,138.43	72.0278	3,138.43	72.2041	3,138.43	69.3956	3,138.43	69.4757	3,138.43	67.2228	3,138.43	62.2651
3,249.02	92.7565	3,249.02	92.1669	3,249.02	92.2795	3,249.02	91.4221	3,249.02	90.8182	3,249.02	90.2844	3,249.02	90.0257	3,249.02	89.6236	3,249.02	89.1534	3,249.02	88.2561	3,249.02	88.5173	3,249.02	86.7802	3,249.02	86.5265	3,249.02	83.7792	3,249.02	84.0007	3,249.02	80.0585	3,249.02	82.3154	3,249.02	75.6617	3,249.02	79.9407	3,249.02	73.8547	3,249.02	79.5731	3,249.02	72.5877	3,249.02	70.5823	3,249.02	71.8002	3,249.02	68.0922	3,249.02	68.806	3,249.02	69.9965	3,249.02	71.0472	3,249.02	73.605	3,249.02	73.4948	3,249.02	74.6664	3,249.02	72.5305	3,249.02	71.0128	3,249.02	72.1837	3,249.02	64.2672	3,249.02	63.5067
3,363.28	92.1701	3,363.28	92.102	3,363.28	92.0723	3,363.28	91.1926	3,363.28	90.697	3,363.28	90.2392	3,363.28	89.9067	3,363.28	89.3403	3,363.28	89.3634	3,363.28	88.1611	3,363.28	87.9418	3,363.28	86.5074	3,363.28	86.3274	3,363.28	81.7141	3,363.28	84.2483	3,363.28	79.9038	3,363.28	83.3815	3,363.28	79.0601	3,363.28	79.0742	3,363.28	74.8405	3,363.28	79.8182	3,363.28	71.1641	3,363.28	72.7672	3,363.28	69.7421	3,363.28	69.6224	3,363.28	66.4561	3,363.28	71.859	3,363.28	71.5649	3,363.28	71.9329	3,363.28	72.1614	3,363.28	73.4188	3,363.28	72.1527	3,363.28	66.2584	3,363.28	68.8999	3,363.28	66.998	3,363.28	64.237
3,481.93	92.0461	3,481.93	91.8795	3,481.93	91.2775	3,481.93	90.6981	3,481.93	90.5216	3,481.93	89.7328	3,481.93	89.4718	3,481.93	88.9718	3,481.93	89.2066	3,481.93	88.4015	3,481.93	87.9067	3,481.93	85.4586	3,481.93	85.537	3,481.93	83.4374	3,481.93	83.4615	3,481.93	80.4963	3,481.93	82.2556	3,481.93	76.081	3,481.93	75.9921	3,481.93	73.3873	3,481.93	76.3755	3,481.93	73.2094	3,481.93	74.3417	3,481.93	68.5115	3,481.93	69.575	3,481.93	67.6669	3,481.93	71.1693	3,481.93	70.41	3,481.93	72.1409	3,481.93	71.6323	3,481.93	72.008	3,481.93	71.3925	3,481.93	66.5487	3,481.93	68.5462	3,481.93	63.7901	3,481.93	62.7765
3,604.98	92.7712	3,604.98	92.3606	3,604.98	91.6719	3,604.98	90.6846	3,604.98	90.2295	3,604.98	89.3083	3,604.98	89.2681	3,604.98	89.2646	3,604.98	88.4736	3,604.98	87.8129	3,604.98	87.2645	3,604.98	85.1595	3,604.98	85.5061	3,604.98	82.364	3,604.98	82.1318	3,604.98	78.1066	3,604.98	78.3627	3,604.98	76.2502	3,604.98	71.7905	3,604.98	74.6533	3,604.98	69.4992	3,604.98	71.9941	3,604.98	70.9683	3,604.98	71.3709	3,604.98	70.1308	3,604.98	68.2364	3,604.98	67.3445	3,604.98	69.9987	3,604.98	71.8505	3,604.98	70.9964	3,604.98	72.1833	3,604.98	72.6015	3,604.98	68.5156	3,604.98	68.5409	3,604.98	64.0473	3,604.98	61.4435
3,732.42	92.3043	3,732.42	91.9715	3,732.42	91.2355	3,732.42	90.3724	3,732.42	90.2808	3,732.42	89.8349	3,732.42	89.4769	3,732.42	89.2724	3,732.42	88.4609	3,732.42	87.054	3,732.42	86.7994	3,732.42	84.692	3,732.42	84.0556	3,732.42	80.5582	3,732.42	80.9668	3,732.42	78.0051	3,732.42	75.1497	3,732.42	77.2742	3,732.42	67.6971	3,732.42	73.3061	3,732.42	55.5826	3,732.42	71.7816	3,732.42	67.3449	3,732.42	69.7088	3,732.42	67.7346	3,732.42	68.3353	3,732.42	68.2272	3,732.42	70.8089	3,732.42	72.5008	3,732.42	71.199	3,732.42	72.318	3,732.42	71.4953	3,732.42	68.2041	3,732.42	68.9285	3,732.42	65.042	3,732.42	66.7618
3,863.53	92.6592	3,863.53	91.6235	3,863.53	91.1147	3,863.53	89.7875	3,863.53	89.8824	3,863.53	90.1435	3,863.53	89.6717	3,863.53	89.1392	3,863.53	88.9087	3,863.53	87.5214	3,863.53	86.8553	3,863.53	83.7764	3,863.53	84.18	3,863.53	81.6063	3,863.53	81.3591	3,863.53	80.5962	3,863.53	77.6349	3,863.53	75.897	3,863.53	71.9809	3,863.53	74.5948	3,863.53	69.4823	3,863.53	72.3645	3,863.53	58.4345	3,863.53	70.6869	3,863.53	73.0897	3,863.53	69.1293	3,863.53	68.8476	3,863.53	69.8893	3,863.53	72.8021	3,863.53	71.2329	3,863.53	72.6423	3,863.53	71.359	3,863.53	68.721	3,863.53	67.7995	3,863.53	63.4143	3,863.53	66.5993
3,999.76	92.8931	3,999.76	91.6245	3,999.76	90.9822	3,999.76	89.5662	3,999.76	89.8737	3,999.76	89.6893	3,999.76	89.8686	3,999.76	89.979	3,999.76	88.8437	3,999.76	87.2415	3,999.76	87.0829	3,999.76	83.5689	3,999.76	83.205	3,999.76	81.1964	3,999.76	79.9361	3,999.76	75.9459	3,999.76	75.0767	3,999.76	75.0257	3,999.76	74.4261	3,999.76	73.9459	3,999.76	71.8601	3,999.76	70.9345	3,999.76	68.8267	3,999.76	70.2703	3,999.76	69.0578	3,999.76	69.3735	3,999.76	69.3731	3,999.76	70.9162	3,999.76	73.2915	3,999.76	71.6881	3,999.76	71.7677	3,999.76	71.8025	3,999.76	63.7298	3,999.76	66.802	3,999.76	64.5025	3,999.76	64.2835
4,141.11	92.812	4,141.11	91.429	4,141.11	90.9828	4,141.11	90.1999	4,141.11	89.6019	4,141.11	89.5714	4,141.11	90.4201	4,141.11	88.9753	4,141.11	88.6777	4,141.11	87.4781	4,141.11	87.5153	4,141.11	85.1478	4,141.11	85.7578	4,141.11	80.2024	4,141.11	81.1135	4,141.11	80.4003	4,141.11	75.265	4,141.11	78.176	4,141.11	72.9535	4,141.11	73.4516	4,141.11	71.9282	4,141.11	69.781	4,141.11	70.3413	4,141.11	68.9814	4,141.11	66.5835	4,141.11	69.5342	4,141.11	64.2731	4,141.11	69.6283	4,141.11	72.066	4,141.11	71.0873	4,141.11	70.6133	4,141.11	72.3809	4,141.11	64.0043	4,141.11	64.9532	4,141.11	61.7508	4,141.11	61.0059
4,286.87	92.361	4,286.87	91.0541	4,286.87	91.3488	4,286.87	89.9752	4,286.87	89.4724	4,286.87	89.5652	4,286.87	89.9417	4,286.87	89.0994	4,286.87	89.2031	4,286.87	87.7484	4,286.87	87.1258	4,286.87	84.0933	4,286.87	85.6445	4,286.87	82.3627	4,286.87	79.6283	4,286.87	79.6439	4,286.87	76.7352	4,286.87	71.4911	4,286.87	77.524	4,286.87	72.0337	4,286.87	68.4213	4,286.87	72.0542	4,286.87	67.8051	4,286.87	69.4952	4,286.87	69.5129	4,286.87	66.1157	4,286.87	64.2865	4,286.87	68.1397	4,286.87	72.6866	4,286.87	71.4839	4,286.87	71.6922	4,286.87	70.6456	4,286.87	67.8018	4,286.87	62.7974	4,286.87	61.8647	4,286.87	64.198
4,438.48	92.1929	4,438.48	91.7079	4,438.48	91.9062	4,438.48	90.6556	4,438.48	90.2704	4,438.48	88.6652	4,438.48	89.0673	4,438.48	88.8933	4,438.48	88.7058	4,438.48	87.5659	4,438.48	86.8447	4,438.48	85.8099	4,438.48	83.6369	4,438.48	81.3674	4,438.48	77.3072	4,438.48	76.5062	4,438.48	75.2558	4,438.48	77.5414	4,438.48	75.4751	4,438.48	74.2535	4,438.48	68.3796	4,438.48	70.5223	4,438.48	61.5063	4,438.48	70.0736	4,438.48	70.9028	4,438.48	66.9372	4,438.48	67.4682	4,438.48	69.5981	4,438.48	72.9876	4,438.48	72.2606	4,438.48	72.2134	4,438.48	70.7719	4,438.48	64.9641	4,438.48	63.1539	4,438.48	58.9402	4,438.48	64.4692
4,594.48	91.2322	4,594.48	91.716	4,594.48	91.5799	4,594.48	90.934	4,594.48	90.9962	4,594.48	88.8449	4,594.48	88.6649	4,594.48	88.0088	4,594.48	88.1769	4,594.48	88.175	4,594.48	87.3602	4,594.48	85.0124	4,594.48	84.5152	4,594.48	81.6649	4,594.48	79.442	4,594.48	78.6913	4,594.48	78.5029	4,594.48	73.5812	4,594.48	75.2731	4,594.48	68.1535	4,594.48	68.9112	4,594.48	69.559	4,594.48	61.143	4,594.48	67.2327	4,594.48	68.2619	4,594.48	66.0786	4,594.48	69.1513	4,594.48	68.5712	4,594.48	68.7597	4,594.48	67.3172	4,594.48	70.0192	4,594.48	71.1033	4,594.48	49.3485	4,594.48	61.4207	4,594.48	61.4296	4,594.48	61.3745
4,757.08	91.3433	4,757.08	91.7826	4,757.08	92.0958	4,757.08	91.1768	4,757.08	91.3739	4,757.08	88.7507	4,757.08	88.8166	4,757.08	88.3078	4,757.08	88.5352	4,757.08	87.8416	4,757.08	88.8876	4,757.08	86.1119	4,757.08	84.8742	4,757.08	82.3386	4,757.08	81.7241	4,757.08	76.3962	4,757.08	81.3128	4,757.08	73.8998	4,757.08	77.2465	4,757.08	72.5347	4,757.08	73.5116	4,757.08	66.4076	4,757.08	66.5775	4,757.08	65.02	4,757.08	66.874	4,757.08	65.0324	4,757.08	70.2714	4,757.08	66.6236	4,757.08	65.7569	4,757.08	68.0549	4,757.08	69.6176	4,757.08	70.4212	4,757.08	61.6782	4,757.08	62.1412	4,757.08	60.2777	4,757.08	56.0384
4,924.8	91.4977	4,924.8	91.9505	4,924.8	92.3149	4,924.8	91.6341	4,924.8	90.942	4,924.8	88.8925	4,924.8	89.3856	4,924.8	88.3494	4,924.8	88.9316	4,924.8	88.0291	4,924.8	88.4932	4,924.8	84.9706	4,924.8	85.0482	4,924.8	81.3676	4,924.8	83.2011	4,924.8	79.5711	4,924.8	81.6493	4,924.8	75.5514	4,924.8	74.6257	4,924.8	70.6891	4,924.8	73.6996	4,924.8	69.7988	4,924.8	67.4549	4,924.8	64.8305	4,924.8	66.222	4,924.8	63.5856	4,924.8	64.9843	4,924.8	64.155	4,924.8	69.8981	4,924.8	66.6126	4,924.8	68.1562	4,924.8	70.7568	4,924.8	59.864	4,924.8	64.3278	4,924.8	61.8187	4,924.8	51.6941
5,098.39	91.1166	5,098.39	92.1209	5,098.39	92.1842	5,098.39	91.4947	5,098.39	91.3377	5,098.39	89.2334	5,098.39	88.8002	5,098.39	88.7168	5,098.39	88.8342	5,098.39	87.8499	5,098.39	87.3511	5,098.39	84.8463	5,098.39	84.6339	5,098.39	81.6314	5,098.39	83.8555	5,098.39	77.6673	5,098.39	80.8124	5,098.39	75.0574	5,098.39	74.1143	5,098.39	74.5411	5,098.39	73.1552	5,098.39	69.0099	5,098.39	62.8084	5,098.39	67.1016	5,098.39	62.18	5,098.39	65.4194	5,098.39	65.6105	5,098.39	65.8845	5,098.39	66.8341	5,098.39	65.9626	5,098.39	66.6121	5,098.39	70.9106	5,098.39	61.0093	5,098.39	60.2015	5,098.39	61.5222	5,098.39	60.7381
5,277.83	91.5818	5,277.83	92.7988	5,277.83	93.1174	5,277.83	92.2521	5,277.83	91.8594	5,277.83	89.182	5,277.83	89.3251	5,277.83	88.9666	5,277.83	88.8766	5,277.83	87.882	5,277.83	87.5997	5,277.83	85.0193	5,277.83	85.5502	5,277.83	81.9362	5,277.83	82.026	5,277.83	79.6049	5,277.83	77.8008	5,277.83	75.799	5,277.83	75.2319	5,277.83	71.322	5,277.83	73.8407	5,277.83	71.3132	5,277.83	61.4537	5,277.83	69.5524	5,277.83	57.1156	5,277.83	64.6853	5,277.83	65.5095	5,277.83	64.7828	5,277.83	63.2769	5,277.83	67.1872	5,277.83	64.4794	5,277.83	69.7418	5,277.83	61.8051	5,277.83	62.0432	5,277.83	61.4888	5,277.83	54.6391
5,463.87	91.5211	5,463.87	92.2193	5,463.87	92.3832	5,463.87	91.7215	5,463.87	91.8889	5,463.87	90.0834	5,463.87	90.3508	5,463.87	88.8515	5,463.87	88.499	5,463.87	87.771	5,463.87	87.2433	5,463.87	85.3859	5,463.87	86.4619	5,463.87	81.9833	5,463.87	82.0266	5,463.87	77.324	5,463.87	76.9151	5,463.87	75.1445	5,463.87	74.2522	5,463.87	72.1023	5,463.87	73.9941	5,463.87	69.851	5,463.87	60.8526	5,463.87	65.3815	5,463.87	61.3017	5,463.87	65.4186	5,463.87	63.9333	5,463.87	67.4843	5,463.87	67.1326	5,463.87	64.0564	5,463.87	62.9228	5,463.87	70.3572	5,463.87	62.7656	5,463.87	62.8277	5,463.87	63.161	5,463.87	58.5641
5,656.49	91.88	5,656.49	92.5276	5,656.49	92.3642	5,656.49	92.2187	5,656.49	91.7168	5,656.49	90.1998	5,656.49	90.3136	5,656.49	88.3711	5,656.49	88.9815	5,656.49	87.6861	5,656.49	88.3817	5,656.49	85.3105	5,656.49	85.3161	5,656.49	82.064	5,656.49	81.0516	5,656.49	78.4195	5,656.49	77.9578	5,656.49	74.206	5,656.49	75.329	5,656.49	68.8238	5,656.49	69.3732	5,656.49	69.9714	5,656.49	59.4813	5,656.49	70.0486	5,656.49	48.2394	5,656.49	65.2055	5,656.49	61.193	5,656.49	65.019	5,656.49	67.3322	5,656.49	66.293	5,656.49	68.6145	5,656.49	71.5239	5,656.49	66.9571	5,656.49	60.9623	5,656.49	62.4127	5,656.49	62.1405
5,856.45	92.8155	5,856.45	92.212	5,856.45	92.299	5,856.45	92.1813	5,856.45	92.1066	5,856.45	91.1378	5,856.45	90.5026	5,856.45	88.0014	5,856.45	87.7109	5,856.45	87.9602	5,856.45	87.058	5,856.45	85.4315	5,856.45	86.1164	5,856.45	81.1393	5,856.45	80.742	5,856.45	76.7318	5,856.45	75.4577	5,856.45	74.5563	5,856.45	74.4079	5,856.45	71.5792	5,856.45	70.2139	5,856.45	69.5529	5,856.45	66.5637	5,856.45	64.9947	5,856.45	62.3302	5,856.45	59.5672	5,856.45	47.5826	5,856.45	62.8341	5,856.45	67.4273	5,856.45	62.8542	5,856.45	67.8944	5,856.45	71.4814	5,856.45	66.8147	5,856.45	62.5602	5,856.45	53.8798	5,856.45	56.3651
6,062.99	92.3776	6,062.99	91.7147	6,062.99	91.9865	6,062.99	91.897	6,062.99	92.3961	6,062.99	90.8682	6,062.99	90.2988	6,062.99	88.015	6,062.99	87.6158	6,062.99	87.6467	6,062.99	87.8488	6,062.99	84.4486	6,062.99	84.5381	6,062.99	80.9757	6,062.99	80.2247	6,062.99	76.9497	6,062.99	76.1034	6,062.99	71.1827	6,062.99	72.0822	6,062.99	67.0674	6,062.99	69.296	6,062.99	68.2698	6,062.99	62.2908	6,062.99	66.2796	6,062.99	61.6123	6,062.99	60.302	6,062.99	42.514	6,062.99	61.9947	6,062.99	64.9615	6,062.99	62.7692	6,062.99	62.0344	6,062.99	70.2771	6,062.99	65.5995	6,062.99	60.4201	6,062.99	52.7471	6,062.99	61.8452
6,276.86	91.9376	6,276.86	91.0463	6,276.86	91.0029	6,276.86	91.1702	6,276.86	91.8184	6,276.86	90.563	6,276.86	90.1931	6,276.86	88.071	6,276.86	87.692	6,276.86	87.1666	6,276.86	87.5391	6,276.86	85.0396	6,276.86	84.2764	6,276.86	80.3213	6,276.86	79.7995	6,276.86	76.9484	6,276.86	76.5674	6,276.86	73.2939	6,276.86	71.0707	6,276.86	68.1929	6,276.86	65.5425	6,276.86	68.5094	6,276.86	63.8648	6,276.86	63.8222	6,276.86	58.8908	6,276.86	58.4458	6,276.86	59.2376	6,276.86	58.7799	6,276.86	63.6131	6,276.86	60.9662	6,276.86	62.8629	6,276.86	69.3014	6,276.86	61.6666	6,276.86	59.7641	6,276.86	51.5247	6,276.86	61.9152
6,498.05	91.5819	6,498.05	90.8923	6,498.05	91.0412	6,498.05	91.1719	6,498.05	91.6179	6,498.05	89.9391	6,498.05	90.2878	6,498.05	87.8871	6,498.05	86.8977	6,498.05	86.535	6,498.05	85.9855	6,498.05	83.8964	6,498.05	84.4712	6,498.05	81.1563	6,498.05	79.5512	6,498.05	76.3084	6,498.05	73.6655	6,498.05	71.9818	6,498.05	69.3657	6,498.05	64.7623	6,498.05	69.845	6,498.05	68.3053	6,498.05	44.7975	6,498.05	62.3929	6,498.05	61.7969	6,498.05	53.3766	6,498.05	60.8828	6,498.05	57.9414	6,498.05	61.1384	6,498.05	56.7775	6,498.05	65.5961	6,498.05	67.7084	6,498.05	63.5526	6,498.05	57.8463	6,498.05	42.2985	6,498.05	57.3837
6,727.29	91.5952	6,727.29	90.9519	6,727.29	90.8825	6,727.29	90.7616	6,727.29	91.134	6,727.29	89.9075	6,727.29	90.2385	6,727.29	88.0829	6,727.29	87.6462	6,727.29	85.9467	6,727.29	84.9702	6,727.29	84.1088	6,727.29	83.8231	6,727.29	79.7715	6,727.29	78.461	6,727.29	77.5336	6,727.29	73.5269	6,727.29	72.7349	6,727.29	68.5694	6,727.29	69.2332	6,727.29	68.3816	6,727.29	63.6623	6,727.29	59.8804	6,727.29	59.4639	6,727.29	62.7256	6,727.29	55.2618	6,727.29	61.7961	6,727.29	51.3434	6,727.29	59.6376	6,727.29	56.9219	6,727.29	67.1763	6,727.29	66.763	6,727.29	62.8442	6,727.29	62.2414	6,727.29	44.0649	6,727.29	59.2596
6,964.6	91.1846	6,964.6	90.9266	6,964.6	91.1056	6,964.6	90.8089	6,964.6	90.9809	6,964.6	89.9102	6,964.6	90.1283	6,964.6	88.0401	6,964.6	88.0551	6,964.6	85.7897	6,964.6	85.4795	6,964.6	83.761	6,964.6	84.7209	6,964.6	80.4341	6,964.6	78.0364	6,964.6	75.5882	6,964.6	74.8068	6,964.6	69.5745	6,964.6	69.7898	6,964.6	66.3277	6,964.6	65.7603	6,964.6	66.9801	6,964.6	59.3844	6,964.6	61.0544	6,964.6	61.2172	6,964.6	51.6409	6,964.6	59.1502	6,964.6	52.9879	6,964.6	56.2381	6,964.6	51.259	6,964.6	65.0076	6,964.6	66.745	6,964.6	63.3655	6,964.6	61.9199	6,964.6	42.0269	6,964.6	52.6295
7,209.96	91.3586	7,209.96	91.4431	7,209.96	91.4435	7,209.96	90.9745	7,209.96	90.9983	7,209.96	90.0348	7,209.96	89.9412	7,209.96	87.9847	7,209.96	87.9355	7,209.96	85.96	7,209.96	85.6784	7,209.96	83.5063	7,209.96	83.2003	7,209.96	78.6002	7,209.96	78.7314	7,209.96	76.4785	7,209.96	78.4151	7,209.96	70.8963	7,209.96	69.6305	7,209.96	68.9446	7,209.96	40.7361	7,209.96	67.1211	7,209.96	63.3707	7,209.96	60.4898	7,209.96	55.668	7,209.96	55.2095	7,209.96	54.1547	7,209.96	53.895	7,209.96	60.1413	7,209.96	60.5776	7,209.96	64.1484	7,209.96	68.5595	7,209.96	60.5725	7,209.96	59.6806	7,209.96	52.9318	7,209.96	52.9121
7,464.11	91.1456	7,464.11	90.9719	7,464.11	91.1337	7,464.11	91.0079	7,464.11	91.2076	7,464.11	90.3252	7,464.11	90.3385	7,464.11	88.3432	7,464.11	87.5191	7,464.11	85.9877	7,464.11	85.2698	7,464.11	83.7159	7,464.11	82.161	7,464.11	79.7633	7,464.11	80.6937	7,464.11	75.8185	7,464.11	80.1906	7,464.11	70.2019	7,464.11	71.3411	7,464.11	69.0989	7,464.11	60.6618	7,464.11	66.2381	7,464.11	64.0644	7,464.11	57.811	7,464.11	52.7788	7,464.11	50.4451	7,464.11	55.1617	7,464.11	35.4152	7,464.11	60.1488	7,464.11	60.6476	7,464.11	61.6137	7,464.11	66.762	7,464.11	59.5589	7,464.11	58.9778	7,464.11	47.3064	7,464.11	53.9821
7,727.78	91.1425	7,727.78	91.2339	7,727.78	91.1011	7,727.78	91.0753	7,727.78	91.0489	7,727.78	90.2216	7,727.78	90.2102	7,727.78	88.6606	7,727.78	88.4088	7,727.78	86.0433	7,727.78	87.0374	7,727.78	82.5716	7,727.78	83.3804	7,727.78	80.0059	7,727.78	81.5648	7,727.78	76.7016	7,727.78	78.7207	7,727.78	70.2269	7,727.78	68.8446	7,727.78	66.115	7,727.78	64.5088	7,727.78	65.5687	7,727.78	57.8238	7,727.78	58.0029	7,727.78	58.4099	7,727.78	53.8449	7,727.78	54.4033	7,727.78	46.4797	7,727.78	59.8908	7,727.78	58.8661	7,727.78	57.5936	7,727.78	65.9421	7,727.78	62.2063	7,727.78	60.0543	7,727.78	44.9789	7,727.78	53.4876
8,000.24	91.5085	8,000.24	91.4796	8,000.24	91.481	8,000.24	91.2623	8,000.24	90.866	8,000.24	90.3089	8,000.24	89.9657	8,000.24	88.8738	8,000.24	88.0691	8,000.24	86.2084	8,000.24	86.397	8,000.24	83.2794	8,000.24	83.9438	8,000.24	80.0014	8,000.24	82.1494	8,000.24	75.8872	8,000.24	77.7346	8,000.24	68.6131	8,000.24	69.1074	8,000.24	66.9373	8,000.24	68.6696	8,000.24	65.8743	8,000.24	47.3422	8,000.24	58.599	8,000.24	46.3055	8,000.24	49.474	8,000.24	45.8753	8,000.24	43.565	8,000.24	59.5038	8,000.24	62.3707	8,000.24	60.4083	8,000.24	64.304	8,000.24	62.2006	8,000.24	55.4424	8,000.24	53.3604	8,000.24	52.4134
8,282.23	91.448	8,282.23	91.3558	8,282.23	91.3028	8,282.23	91.1637	8,282.23	90.8423	8,282.23	90.4233	8,282.23	89.8397	8,282.23	88.9652	8,282.23	87.3079	8,282.23	86.2754	8,282.23	85.2816	8,282.23	83.5887	8,282.23	83.2318	8,282.23	79.1747	8,282.23	79.0919	8,282.23	75.452	8,282.23	73.3737	8,282.23	70.4367	8,282.23	67.9002	8,282.23	69.6305	8,282.23	67.4442	8,282.23	64.2911	8,282.23	56.9591	8,282.23	55.4147	8,282.23	58.9651	8,282.23	53.8668	8,282.23	50.5804	8,282.23	46.7402	8,282.23	61.3383	8,282.23	61.5252	8,282.23	58.9039	8,282.23	64.6638	8,282.23	59.976	8,282.23	56.568	8,282.23	42.8733	8,282.23	56.9647
8,574.46	91.7728	8,574.46	91.9067	8,574.46	91.8057	8,574.46	91.3409	8,574.46	90.9279	8,574.46	90.3811	8,574.46	89.6186	8,574.46	88.7839	8,574.46	88.1996	8,574.46	86.5516	8,574.46	85.2035	8,574.46	82.5583	8,574.46	82.8218	8,574.46	79.4025	8,574.46	76.3369	8,574.46	76.0038	8,574.46	69.432	8,574.46	69.5836	8,574.46	68.271	8,574.46	65.0421	8,574.46	66.9301	8,574.46	63.494	8,574.46	64.2507	8,574.46	57.3207	8,574.46	60.6052	8,574.46	48.8066	8,574.46	47.7853	8,574.46	48.6499	8,574.46	61.5123	8,574.46	62.5134	8,574.46	56.8627	8,574.46	57.3211	8,574.46	57.3862	8,574.46	57.2985	8,574.46	49.2389	8,574.46	55.423
8,876.22	91.5684	8,876.22	91.4524	8,876.22	91.8005	8,876.22	91.0894	8,876.22	91.3233	8,876.22	90.4491	8,876.22	89.7665	8,876.22	88.5981	8,876.22	88.0972	8,876.22	86.5013	8,876.22	86.1738	8,876.22	83.2533	8,876.22	82.7763	8,876.22	79.2998	8,876.22	75.6792	8,876.22	74.5691	8,876.22	75.8355	8,876.22	69.6152	8,876.22	70.7046	8,876.22	66.6081	8,876.22	66.256	8,876.22	63.9628	8,876.22	62.7226	8,876.22	57.4452	8,876.22	58.9184	8,876.22	49.5829	8,876.22	48.4594	8,876.22	49.5339	8,876.22	50.577	8,876.22	62.8169	8,876.22	54.5798	8,876.22	57.6079	8,876.22	61.8664	8,876.22	61.5234	8,876.22	54.4318	8,876.22	54.382
9,189.7	91.4256	9,189.7	91.4519	9,189.7	91.743	9,189.7	90.7938	9,189.7	91.0735	9,189.7	90.0317	9,189.7	89.8961	9,189.7	88.4897	9,189.7	87.7874	9,189.7	86.2222	9,189.7	85.9024	9,189.7	82.6761	9,189.7	82.4651	9,189.7	79.0324	9,189.7	78.6072	9,189.7	75.426	9,189.7	77.7303	9,189.7	70.5178	9,189.7	71.0566	9,189.7	66.664	9,189.7	62.6248	9,189.7	60.6819	9,189.7	61.7621	9,189.7	57.0903	9,189.7	55.6866	9,189.7	52.2037	9,189.7	55.6641	9,189.7	49.8115	9,189.7	58.7553	9,189.7	63.024	9,189.7	45.8359	9,189.7	60.8108	9,189.7	52.2667	9,189.7	58.5187	9,189.7	53.5242	9,189.7	54.8219
9,513.43	91.1637	9,513.43	91.4541	9,513.43	91.2442	9,513.43	90.8436	9,513.43	91.0629	9,513.43	90.0569	9,513.43	90.3722	9,513.43	88.427	9,513.43	88.2175	9,513.43	86.2085	9,513.43	85.9884	9,513.43	82.7236	9,513.43	82.4781	9,513.43	80.0125	9,513.43	79.0166	9,513.43	74.0548	9,513.43	74.878	9,513.43	68.899	9,513.43	67.376	9,513.43	68.28	9,513.43	57.7485	9,513.43	61.977	9,513.43	55.7288	9,513.43	57.1203	9,513.43	56.4888	9,513.43	42.5245	9,513.43	54.6415	9,513.43	52.5598	9,513.43	52.5567	9,513.43	63.4875	9,513.43	54.5833	9,513.43	57.8724	9,513.43	54.1938	9,513.43	58.9537	9,513.43	56.907	9,513.43	50.8931
9,848.88	91.7515	9,848.88	91.9492	9,848.88	91.1976	9,848.88	91.1538	9,848.88	90.3464	9,848.88	90.1784	9,848.88	89.8458	9,848.88	88.7255	9,848.88	88.0906	9,848.88	86.2747	9,848.88	85.386	9,848.88	81.8671	9,848.88	81.772	9,848.88	79.2455	9,848.88	78.5798	9,848.88	73.9774	9,848.88	68.5636	9,848.88	69.0968	9,848.88	65.6722	9,848.88	66.5687	9,848.88	65.4964	9,848.88	58.4162	9,848.88	51.9143	9,848.88	54.8346	9,848.88	61.2231	9,848.88	54.3204	9,848.88	54.4272	9,848.88	52.1489	9,848.88	47.8003	9,848.88	63.9156	9,848.88	48.877	9,848.88	59.3649	9,848.88	59.2272	9,848.88	58.3834	9,848.88	55.1783	9,848.88	54.7361
10,196.8	91.7208	10,196.8	91.727	10,196.8	91.5795	10,196.8	91.1692	10,196.8	90.254	10,196.8	90.421	10,196.8	89.4504	10,196.8	88.7471	10,196.8	87.9347	10,196.8	86.4665	10,196.8	83.9309	10,196.8	81.7959	10,196.8	79.945	10,196.8	79.1551	10,196.8	77.7862	10,196.8	74.4918	10,196.8	72.8856	10,196.8	69.7922	10,196.8	68.1831	10,196.8	67.0271	10,196.8	64.5412	10,196.8	52.6409	10,196.8	59.0509	10,196.8	49.1557	10,196.8	56.6808	10,196.8	56.1515	10,196.8	49.3435	10,196.8	53.7286	10,196.8	42.4806	10,196.8	60.4958	10,196.8	48.3889	10,196.8	60.3387	10,196.8	56.5094	10,196.8	57.5795	10,196.8	51.5515	10,196.8	55.7999
10,556.4	91.468	10,556.4	91.3017	10,556.4	91.5394	10,556.4	90.4589	10,556.4	90.59	10,556.4	89.9132	10,556.4	89.2149	10,556.4	88.686	10,556.4	87.8612	10,556.4	86.2642	10,556.4	84.3939	10,556.4	81.6284	10,556.4	80.3152	10,556.4	78.3853	10,556.4	79.1649	10,556.4	73.8523	10,556.4	75.5554	10,556.4	68.6794	10,556.4	69.4122	10,556.4	66.3261	10,556.4	64.8724	10,556.4	53.0791	10,556.4	63.3219	10,556.4	52.9943	10,556.4	49.6589	10,556.4	57.5628	10,556.4	52.6174	10,556.4	51.5249	10,556.4	44.7389	10,556.4	58.5538	10,556.4	52.0673	10,556.4	59.0092	10,556.4	52.9797	10,556.4	57.9023	10,556.4	56.4323	10,556.4	56.7065
10,928.5	90.8036	10,928.5	90.8319	10,928.5	91.1253	10,928.5	90.2551	10,928.5	90.8194	10,928.5	89.5349	10,928.5	89.7181	10,928.5	88.1045	10,928.5	88.1546	10,928.5	86.162	10,928.5	85.6181	10,928.5	81.8369	10,928.5	82.2678	10,928.5	78.7996	10,928.5	77.5977	10,928.5	73.5616	10,928.5	72.9843	10,928.5	68.6295	10,928.5	66.9015	10,928.5	64.6767	10,928.5	60.0714	10,928.5	50.6427	10,928.5	61.628	10,928.5	52.4252	10,928.5	51.8636	10,928.5	58.1382	10,928.5	48.4321	10,928.5	50.2066	10,928.5	39.8944	10,928.5	55.1049	10,928.5	53.1623	10,928.5	57.2008	10,928.5	49.2901	10,928.5	58.4924	10,928.5	51.9426	10,928.5	57.7933
11,313.7	91.2451	11,313.7	91.6519	11,313.7	90.6474	11,313.7	91.0132	11,313.7	90.4872	11,313.7	89.9384	11,313.7	89.7794	11,313.7	88.27	11,313.7	87.8362	11,313.7	85.8116	11,313.7	86.4757	11,313.7	82.3629	11,313.7	83.7789	11,313.7	78.6416	11,313.7	76.2402	11,313.7	72.5496	11,313.7	70.7788	11,313.7	69.4718	11,313.7	67.7856	11,313.7	65.6906	11,313.7	63.8819	11,313.7	51.4408	11,313.7	51.3796	11,313.7	57.8032	11,313.7	56.0223	11,313.7	59.4488	11,313.7	47.9384	11,313.7	52.2263	11,313.7	49.865	11,313.7	52.1888	11,313.7	54.4354	11,313.7	57.6034	11,313.7	53.0787	11,313.7	58.6211	11,313.7	56.9933	11,313.7	58.2946
11,712.9	92.0553	11,712.9	92.2617	11,712.9	90.9097	11,712.9	91.493	11,712.9	89.9877	11,712.9	90.5403	11,712.9	89.8279	11,712.9	88.7314	11,712.9	87.5226	11,712.9	85.951	11,712.9	84.6577	11,712.9	81.4381	11,712.9	81.1158	11,712.9	78.7232	11,712.9	75.5338	11,712.9	73.9524	11,712.9	72.6611	11,712.9	69.2354	11,712.9	69.8294	11,712.9	63.2069	11,712.9	65.7857	11,712.9	42.7413	11,712.9	55.6333	11,712.9	56.6723	11,712.9	56.7479	11,712.9	59.4418	11,712.9	52.8377	11,712.9	48.0753	11,712.9	55.3835	11,712.9	54.2506	11,712.9	36.4567	11,712.9	56.8228	11,712.9	47.0404	11,712.9	58.2947	11,712.9	57.1504	11,712.9	54.653
12,126	92.3262	12,126	92.1334	12,126	91.7711	12,126	91.0089	12,126	90.285	12,126	90.0705	12,126	89.3397	12,126	88.6419	12,126	87.2884	12,126	86.213	12,126	83.7899	12,126	80.5672	12,126	77.9393	12,126	78.1078	12,126	77.6776	12,126	72.6375	12,126	73.816	12,126	67.6956	12,126	68.715	12,126	64.0627	12,126	67.207	12,126	50.2041	12,126	61.516	12,126	55.2183	12,126	43.5125	12,126	59.7636	12,126	47.3483	12,126	43.7338	12,126	53.7714	12,126	51.7802	12,126	53.3128	12,126	51.5909	12,126	53.8681	12,126	55.9627	12,126	53.7887	12,126	53.6871
12,553.7	91.6997	12,553.7	91.4141	12,553.7	91.5137	12,553.7	90.169	12,553.7	90.6549	12,553.7	89.178	12,553.7	89.1088	12,553.7	87.8029	12,553.7	87.2476	12,553.7	85.6966	12,553.7	84.9059	12,553.7	80.9555	12,553.7	80.3354	12,553.7	76.6659	12,553.7	77.0917	12,553.7	72.1048	12,553.7	72.2576	12,553.7	67.4835	12,553.7	67.5	12,553.7	63.6964	12,553.7	62.5432	12,553.7	42.6012	12,553.7	62.6832	12,553.7	54.1342	12,553.7	40.6515	12,553.7	57.3378	12,553.7	40.8706	12,553.7	45.8684	12,553.7	40.1206	12,553.7	56.4874	12,553.7	52.0061	12,553.7	52.419	12,553.7	51.3403	12,553.7	52.925	12,553.7	49.0515	12,553.7	54.6608
12,996.1	91.1333	12,996.1	91.4599	12,996.1	90.5957	12,996.1	90.5567	12,996.1	90.3309	12,996.1	89.1303	12,996.1	88.9643	12,996.1	87.4014	12,996.1	86.5047	12,996.1	85.1536	12,996.1	84.2146	12,996.1	80.124	12,996.1	80.4214	12,996.1	75.5836	12,996.1	74.4929	12,996.1	70.9275	12,996.1	64.8831	12,996.1	67.5241	12,996.1	61.4818	12,996.1	61.7421	12,996.1	62.7098	12,996.1	49.1747	12,996.1	59.867	12,996.1	54.6357	12,996.1	55.2801	12,996.1	57.6427	12,996.1	49.4978	12,996.1	41.267	12,996.1	37.2717	12,996.1	55.8413	12,996.1	47.6127	12,996.1	55.0785	12,996.1	52.1484	12,996.1	53.7479	12,996.1	52.6513	12,996.1	50.8499
13,454.6	91.5092	13,454.6	91.7205	13,454.6	90.3415	13,454.6	90.8912	13,454.6	89.8732	13,454.6	89.8923	13,454.6	89.0223	13,454.6	88.1188	13,454.6	87.0501	13,454.6	85.0447	13,454.6	84.2996	13,454.6	79.6136	13,454.6	79.1456	13,454.6	76.1963	13,454.6	74.0835	13,454.6	69.8297	13,454.6	68.3934	13,454.6	66.4136	13,454.6	63.9175	13,454.6	61.1763	13,454.6	66.994	13,454.6	54.8901	13,454.6	51.0449	13,454.6	54.8315	13,454.6	55.9305	13,454.6	51.9864	13,454.6	52.7121	13,454.6	45.8232	13,454.6	52.4657	13,454.6	54.2528	13,454.6	39.3669	13,454.6	57.2114	13,454.6	46.2838	13,454.6	52.0735	13,454.6	49.6094	13,454.6	49.9617
13,928.5	91.3995	13,928.5	91.4882	13,928.5	90.907	13,928.5	90.5133	13,928.5	89.9668	13,928.5	89.7169	13,928.5	88.9365	13,928.5	88.3798	13,928.5	86.963	13,928.5	85.5072	13,928.5	84.2782	13,928.5	78.831	13,928.5	79.2039	13,928.5	76.4829	13,928.5	74.5883	13,928.5	70.2082	13,928.5	69.9031	13,928.5	66.7769	13,928.5	66.8749	13,928.5	59.0484	13,928.5	67.0254	13,928.5	56.382	13,928.5	55.8781	13,928.5	57.0294	13,928.5	54.8857	13,928.5	53.6502	13,928.5	54.8647	13,928.5	47.8654	13,928.5	52.2526	13,928.5	49.5297	13,928.5	46.9616	13,928.5	55.5102	13,928.5	46.305	13,928.5	48.9689	13,928.5	46.3931	13,928.5	50.3346
14,419.9	90.8845	14,419.9	91.3276	14,419.9	91.0119	14,419.9	90.5804	14,419.9	90.5057	14,419.9	89.4648	14,419.9	88.6993	14,419.9	87.8198	14,419.9	86.8812	14,419.9	85.2391	14,419.9	83.9308	14,419.9	79.6931	14,419.9	77.0446	14,419.9	75.8711	14,419.9	74.7806	14,419.9	69.6834	14,419.9	66.9699	14,419.9	67.8632	14,419.9	63.9555	14,419.9	60.9832	14,419.9	62.5321	14,419.9	53.1577	14,419.9	62.1582	14,419.9	54.5281	14,419.9	54.0819	14,419.9	51.6457	14,419.9	56.2273	14,419.9	46.0579	14,419.9	50.779	14,419.9	35.8013	14,419.9	44.5484	14,419.9	49.0132	14,419.9	47.6015	14,419.9	47.479	14,419.9	47.5464	14,419.9	55.0927
14,928.2	90.7914	14,928.2	91.5948	14,928.2	90.5883	14,928.2	91.0828	14,928.2	90.4797	14,928.2	89.8619	14,928.2	88.8182	14,928.2	87.9067	14,928.2	86.5921	14,928.2	84.6284	14,928.2	82.9974	14,928.2	79.627	14,928.2	77.6273	14,928.2	75.594	14,928.2	74.5414	14,928.2	68.6827	14,928.2	67.9375	14,928.2	65.9575	14,928.2	65.7325	14,928.2	60.4127	14,928.2	65.1342	14,928.2	55.1799	14,928.2	60.6547	14,928.2	52.5034	14,928.2	52.925	14,928.2	46.2957	14,928.2	44.2107	14,928.2	51.449	14,928.2	48.9222	14,928.2	41.0222	14,928.2	48.037	14,928.2	42.1287	14,928.2	35.48	14,928.2	52.3205	14,928.2	50.7266	14,928.2	52.4562
15,454.8	90.9931	15,454.8	91.6051	15,454.8	90.7561	15,454.8	91.0091	15,454.8	90.0796	15,454.8	89.8064	15,454.8	88.7343	15,454.8	88.0146	15,454.8	86.7972	15,454.8	84.6792	15,454.8	83.7908	15,454.8	78.3809	15,454.8	78.8638	15,454.8	75.7021	15,454.8	73.4685	15,454.8	67.9123	15,454.8	66.2142	15,454.8	63.1698	15,454.8	62.9163	15,454.8	56.7685	15,454.8	68.1626	15,454.8	59.4627	15,454.8	50.0393	15,454.8	55.8185	15,454.8	57.6339	15,454.8	53.6331	15,454.8	50.1701	15,454.8	46.0186	15,454.8	46.8744	15,454.8	49.2543	15,454.8	54.1969	15,454.8	28.2666	15,454.8	37.9189	15,454.8	47.7205	15,454.8	44.5258	15,454.8	51.6109
15,999.8	90.4581	15,999.8	91.0691	15,999.8	91.0402	15,999.8	90.671	15,999.8	90.1551	15,999.8	89.5479	15,999.8	88.6332	15,999.8	87.6732	15,999.8	86.7226	15,999.8	84.8355	15,999.8	83.4701	15,999.8	78.8794	15,999.8	76.569	15,999.8	75.7348	15,999.8	73.2557	15,999.8	68.388	15,999.8	64.6028	15,999.8	65.2576	15,999.8	60.8208	15,999.8	55.3846	15,999.8	66.565	15,999.8	58.3139	15,999.8	24.1502	15,999.8	53.628	15,999.8	56.3762	15,999.8	54.531	15,999.8	50.808	15,999.8	37.8704	15,999.8	43.1679	15,999.8	52.9009	15,999.8	46.7831	15,999.8	48.6696	15,999.8	38.4592	15,999.8	48.2643	15,999.8	44.0246	15,999.8	51.1638
16,564.5	89.8193	16,564.5	90.8366	16,564.5	90.665	16,564.5	90.7363	16,564.5	90.1383	16,564.5	89.4786	16,564.5	88.5752	16,564.5	87.4414	16,564.5	86.4164	16,564.5	84.603	16,564.5	83.0746	16,564.5	79.1363	16,564.5	77.4409	16,564.5	74.2934	16,564.5	72.1998	16,564.5	66.4822	16,564.5	66.1973	16,564.5	65.7383	16,564.5	62.3031	16,564.5	56.3488	16,564.5	63.6617	16,564.5	55.9213	16,564.5	51.1217	16,564.5	55.0632	16,564.5	54.4551	16,564.5	52.1178	16,564.5	43.1301	16,564.5	37.8953	16,564.5	32.2533	16,564.5	54.3502	16,564.5	40.7753	16,564.5	46.825	16,564.5	39.9545	16,564.5	45.9723	16,564.5	44.5726	16,564.5	51.2498
17,148.2	90.1922	17,148.2	90.9905	17,148.2	90.602	17,148.2	90.8874	17,148.2	89.7068	17,148.2	89.7325	17,148.2	88.6921	17,148.2	87.6886	17,148.2	86.4386	17,148.2	84.1377	17,148.2	83.3451	17,148.2	78.0118	17,148.2	76.3912	17,148.2	73.7519	17,148.2	72.8016	17,148.2	67.1755	17,148.2	66.0629	17,148.2	63.9725	17,148.2	62.583	17,148.2	53.1323	17,148.2	67.9662	17,148.2	58.1667	17,148.2	60.1728	17,148.2	51.8373	17,148.2	54.697	17,148.2	53.1175	17,148.2	47.8902	17,148.2	45.9856	17,148.2	39.9252	17,148.2	54.4552	17,148.2	48.2173	17,148.2	49.5573	17,148.2	47.1471	17,148.2	50.6923	17,148.2	42.634	17,148.2	48.6614
17,753.2	90.7393	17,753.2	91.2223	17,753.2	91.1279	17,753.2	90.9274	17,753.2	89.6103	17,753.2	89.5204	17,753.2	88.6388	17,753.2	87.372	17,753.2	86.1739	17,753.2	84.0391	17,753.2	83.2313	17,753.2	77.3801	17,753.2	77.0643	17,753.2	73.9833	17,753.2	72.3292	17,753.2	65.9583	17,753.2	65.6864	17,753.2	61.0942	17,753.2	63.268	17,753.2	51.1197	17,753.2	69.121	17,753.2	56.8656	17,753.2	58.6227	17,753.2	50.08	17,753.2	55.9535	17,753.2	56.6893	17,753.2	47.1707	17,753.2	45.4033	17,753.2	45.9765	17,753.2	47.9733	17,753.2	52.0676	17,753.2	49.2101	17,753.2	50.265	17,753.2	51.2318	17,753.2	38.2181	17,753.2	42.541
18,379.4	90.9199	18,379.4	91.4137	18,379.4	91.369	18,379.4	91.2712	18,379.4	89.8982	18,379.4	89.9393	18,379.4	88.733	18,379.4	87.2879	18,379.4	86.0205	18,379.4	83.9564	18,379.4	83.4376	18,379.4	78.4348	18,379.4	75.0572	18,379.4	73.4556	18,379.4	71.3884	18,379.4	66.2649	18,379.4	65.0985	18,379.4	63.4424	18,379.4	60.1667	18,379.4	52.9258	18,379.4	67.3524	18,379.4	57.0107	18,379.4	47.4915	18,379.4	50.1457	18,379.4	57.7693	18,379.4	57.2964	18,379.4	52.2314	18,379.4	50.347	18,379.4	37.8261	18,379.4	47.0723	18,379.4	53.1898	18,379.4	37.377	18,379.4	53.1375	18,379.4	48.5099	18,379.4	44.8103	18,379.4	41.7066
19,027.6	90.425	19,027.6	90.8138	19,027.6	90.4828	19,027.6	90.7218	19,027.6	89.2562	19,027.6	89.4477	19,027.6	88.1826	19,027.6	87.0054	19,027.6	85.2843	19,027.6	83.0583	19,027.6	82.0646	19,027.6	76.7423	19,027.6	75.0042	19,027.6	71.8497	19,027.6	71.3788	19,027.6	65.6604	19,027.6	62.9874	19,027.6	62.0563	19,027.6	61.5339	19,027.6	50.0971	19,027.6	68.3174	19,027.6	56.8617	19,027.6	55.2213	19,027.6	38.4956	19,027.6	55.9949	19,027.6	54.442	19,027.6	44.7284	19,027.6	52.0302	19,027.6	35.9568	19,027.6	48.6406	19,027.6	47.2915	19,027.6	34.4912	19,027.6	51.6961	19,027.6	41.7986	19,027.6	45.4394	19,027.6	41.4714
19,698.5	89.9765	19,698.5	90.1097	19,698.5	89.8545	19,698.5	90.0541	19,698.5	88.7333	19,698.5	88.9896	19,698.5	87.7897	19,698.5	86.3437	19,698.5	85.2118	19,698.5	82.3367	19,698.5	81.9832	19,698.5	76.0978	19,698.5	75.8915	19,698.5	71.603	19,698.5	69.4451	19,698.5	63.1728	19,698.5	64.4299	19,698.5	60.4582	19,698.5	61.9067	19,698.5	50.4572	19,698.5	68.9679	19,698.5	57.0524	19,698.5	56.6415	19,698.5	45.2366	19,698.5	54.2042	19,698.5	57.3762	19,698.5	46.625	19,698.5	47.7635	19,698.5	49.0918	19,698.5	51.3976	19,698.5	48.8334	19,698.5	37.381	19,698.5	52.1538	19,698.5	35.0549	19,698.5	48.4004	19,698.5	46.5872
19,999.5	89.7782	19,999.5	90.166	19,999.5	89.4172	19,999.5	89.933	19,999.5	88.425	19,999.5	88.6605	19,999.5	87.6769	19,999.5	86.2104	19,999.5	85.0621	19,999.5	82.3603	19,999.5	83.0631	19,999.5	76.5657	19,999.5	76.5349	19,999.5	71.3509	19,999.5	72.7025	19,999.5	63.4392	19,999.5	65.7314	19,999.5	58.0196	19,999.5	65.8128	19,999.5	50.5349	19,999.5	70.8523	19,999.5	53.7855	19,999.5	58.0578	19,999.5	50.8661	19,999.5	52.0695	19,999.5	57.3899	19,999.5	52.9134	19,999.5	49.7581	19,999.5	46.8765	19,999.5	55.4236	19,999.5	48.3077	19,999.5	47.346	19,999.5	50.4655	19,999.5	47.7308	19,999.5	49.5903	19,999.5	48.0428
