"SPL Horizontal"																																																																							
"On-Axis"		"10°"		"-10°"		"20°"		"-20°"		"30°"		"-30°"		"40°"		"-40°"		"50°"		"-50°"		"60°"		"-60°"		"70°"		"-70°"		"80°"		"-80°"		"90°"		"-90°"		"100°"		"-100°"		"110°"		"-110°"		"120°"		"-120°"		"130°"		"-130°"		"140°"		"-140°"		"150°"		"-150°"		"160°"		"-160°"		"170°"		"-170°"		"180°"	
"Frequency [Hz]"	"Sound Pessure Level [dB]    /  [	0.13	V at 	1	m]"	"Frequency [Hz]"	"Sound Pessure Level [dB]    /  [	0.13	V at 	1	m]"	"Frequency [Hz]"	"Sound Pessure Level [dB]    /  [	0.13	V at 	1	m]"	"Frequency [Hz]"	"Sound Pessure Level [dB]    /  [	0.13	V at 	1	m]"	"Frequency [Hz]"	"Sound Pessure Level [dB]    /  [	0.13	V at 	1	m]"	"Frequency [Hz]"	"Sound Pessure Level [dB]    /  [	0.13	V at 	1	m]"	"Frequency [Hz]"	"Sound Pessure Level [dB]    /  [	0.13	V at 	1	m]"	"Frequency [Hz]"	"Sound Pessure Level [dB]    /  [	0.13	V at 	1	m]"	"Frequency [Hz]"	"Sound Pessure Level [dB]    /  [	0.13	V at 	1	m]"	"Frequency [Hz]"	"Sound Pessure Level [dB]    /  [	0.13	V at 	1	m]"	"Frequency [Hz]"	"Sound Pessure Level [dB]    /  [	0.13	V at 	1	m]"	"Frequency [Hz]"	"Sound Pessure Level [dB]    /  [	0.13	V at 	1	m]"	"Frequency [Hz]"	"Sound Pessure Level [dB]    /  [	0.13	V at 	1	m]"	"Frequency [Hz]"	"Sound Pessure Level [dB]    /  [	0.13	V at 	1	m]"	"Frequency [Hz]"	"Sound Pessure Level [dB]    /  [	0.13	V at 	1	m]"	"Frequency [Hz]"	"Sound Pessure Level [dB]    /  [	0.13	V at 	1	m]"	"Frequency [Hz]"	"Sound Pessure Level [dB]    /  [	0.13	V at 	1	m]"	"Frequency [Hz]"	"Sound Pessure Level [dB]    /  [	0.13	V at 	1	m]"	"Frequency [Hz]"	"Sound Pessure Level [dB]    /  [	0.13	V at 	1	m]"	"Frequency [Hz]"	"Sound Pessure Level [dB]    /  [	0.13	V at 	1	m]"	"Frequency [Hz]"	"Sound Pessure Level [dB]    /  [	0.13	V at 	1	m]"	"Frequency [Hz]"	"Sound Pessure Level [dB]    /  [	0.13	V at 	1	m]"	"Frequency [Hz]"	"Sound Pessure Level [dB]    /  [	0.13	V at 	1	m]"	"Frequency [Hz]"	"Sound Pessure Level [dB]    /  [	0.13	V at 	1	m]"	"Frequency [Hz]"	"Sound Pessure Level [dB]    /  [	0.13	V at 	1	m]"	"Frequency [Hz]"	"Sound Pessure Level [dB]    /  [	0.13	V at 	1	m]"	"Frequency [Hz]"	"Sound Pessure Level [dB]    /  [	0.13	V at 	1	m]"	"Frequency [Hz]"	"Sound Pessure Level [dB]    /  [	0.13	V at 	1	m]"	"Frequency [Hz]"	"Sound Pessure Level [dB]    /  [	0.13	V at 	1	m]"	"Frequency [Hz]"	"Sound Pessure Level [dB]    /  [	0.13	V at 	1	m]"	"Frequency [Hz]"	"Sound Pessure Level [dB]    /  [	0.13	V at 	1	m]"	"Frequency [Hz]"	"Sound Pessure Level [dB]    /  [	0.13	V at 	1	m]"	"Frequency [Hz]"	"Sound Pessure Level [dB]    /  [	0.13	V at 	1	m]"	"Frequency [Hz]"	"Sound Pessure Level [dB]    /  [	0.13	V at 	1	m]"	"Frequency [Hz]"	"Sound Pessure Level [dB]    /  [	0.13	V at 	1	m]"	"Frequency [Hz]"	"Sound Pessure Level [dB]    /  [	0.13	V at 	1	m]"
20.5078	47.5652	20.5078	47.5116	20.5078	47.6808	20.5078	47.5196	20.5078	47.8564	20.5078	47.587	20.5078	48.0875	20.5078	47.7093	20.5078	48.3659	20.5078	47.8797	20.5078	48.6792	20.5078	48.0896	20.5078	49.0108	20.5078	48.3307	20.5078	49.3418	20.5078	48.5964	20.5078	49.6542	20.5078	48.8843	20.5078	49.9352	20.5078	49.1956	20.5078	50.18	20.5078	49.5326	20.5078	50.3933	20.5078	49.8931	20.5078	50.5869	20.5078	50.2659	20.5078	50.7734	20.5078	50.6289	20.5078	50.9597	20.5078	50.953	20.5078	51.1406	20.5078	51.2085	20.5078	51.2981	20.5078	51.3731	20.5078	51.4058	20.5078	51.437
21.2402	45.1207	21.2402	45.0912	21.2402	45.1982	21.2402	45.1063	21.2402	45.3261	21.2402	45.162	21.2402	45.5052	21.2402	45.2534	21.2402	45.7341	21.2402	45.3747	21.2402	46.0076	21.2402	45.52	21.2402	46.3164	21.2402	45.6847	21.2402	46.6473	21.2402	45.868	21.2402	46.9843	21.2402	46.0749	21.2402	47.3112	21.2402	46.3155	21.2402	47.6144	21.2402	46.6001	21.2402	47.885	21.2402	46.9317	21.2402	48.1195	21.2402	47.299	21.2402	48.3184	21.2402	47.6764	21.2402	48.4828	21.2402	48.0297	21.2402	48.6106	21.2402	48.3267	21.2402	48.6942	21.2402	48.5448	21.2402	48.7208	21.2402	48.675
21.9727	43.678	21.9727	43.6977	21.9727	43.6828	21.9727	43.7367	21.9727	43.7194	21.9727	43.7909	21.9727	43.7961	21.9727	43.8579	21.9727	43.922	21.9727	43.9372	21.9727	44.104	21.9727	44.0314	21.9727	44.3452	21.9727	44.1491	21.9727	44.6423	21.9727	44.3064	21.9727	44.9855	21.9727	44.527	21.9727	45.3611	21.9727	44.8358	21.9727	45.7548	21.9727	45.2458	21.9727	46.1542	21.9727	45.7454	21.9727	46.5495	21.9727	46.2952	21.9727	46.9309	21.9727	46.8389	21.9727	47.286	21.9727	47.3196	21.9727	47.5974	21.9727	47.6929	21.9727	47.8421	21.9727	47.9328	21.9727	47.9948	21.9727	48.031
22.7051	45.2147	22.7051	45.1683	22.7051	45.2791	22.7051	45.1358	22.7051	45.3671	22.7051	45.1154	22.7051	45.4857	22.7051	45.108	22.7051	45.6419	22.7051	45.1177	22.7051	45.8412	22.7051	45.1535	22.7051	46.0863	22.7051	45.2306	22.7051	46.3758	22.7051	45.3711	22.7051	46.7041	22.7051	45.6013	22.7051	47.0626	22.7051	45.9437	22.7051	47.4414	22.7051	46.405	22.7051	47.831	22.7051	46.9661	22.7051	48.2218	22.7051	47.5821	22.7051	48.6025	22.7051	48.1936	22.7051	48.9576	22.7051	48.7419	22.7051	49.2651	22.7051	49.1802	22.7051	49.4978	22.7051	49.4789	22.7051	49.6268	22.7051	49.6263
23.4375	40.971	23.4375	40.9433	23.4375	40.9612	23.4375	40.8665	23.4375	40.9417	23.4375	40.7471	23.4375	40.957	23.4375	40.6142	23.4375	41.066	23.4375	40.5291	23.4375	41.3316	23.4375	40.5924	23.4375	41.8004	23.4375	40.9296	23.4375	42.4812	23.4375	41.6375	23.4375	43.3409	23.4375	42.7163	23.4375	44.3219	23.4375	44.0593	23.4375	45.3657	23.4375	45.5141	23.4375	46.4245	23.4375	46.9433	23.4375	47.4616	23.4375	48.2467	23.4375	48.4444	23.4375	49.3578	23.4375	49.3388	23.4375	50.2348	23.4375	50.1076	23.4375	50.8534	23.4375	50.7119	23.4375	51.2035	23.4375	51.1152	23.4375	51.2866
24.1699	41.9793	24.1699	42.0504	24.1699	41.866	24.1699	42.0945	24.1699	41.7276	24.1699	42.1571	24.1699	41.6187	24.1699	42.3135	24.1699	41.6367	24.1699	42.6573	24.1699	41.9068	24.1699	43.2686	24.1699	42.5276	24.1699	44.1732	24.1699	43.5045	24.1699	45.3265	24.1699	44.744	24.1699	46.6384	24.1699	46.1155	24.1699	48.0108	24.1699	47.5098	24.1699	49.3601	24.1699	48.8555	24.1699	50.6215	24.1699	50.1088	24.1699	51.7456	24.1699	51.2408	24.1699	52.6943	24.1699	52.2276	24.1699	53.4388	24.1699	53.0465	24.1699	53.9591	24.1699	53.6753	24.1699	54.2431	24.1699	54.0942	24.1699	54.2869
25.6348	42.9781	25.6348	43.1682	25.6348	42.8802	25.6348	43.4654	25.6348	42.9202	25.6348	43.9298	25.6348	43.1989	25.6348	44.6337	25.6348	43.8275	25.6348	45.6162	25.6348	44.851	25.6348	46.8546	25.6348	46.2054	25.6348	48.2756	25.6348	47.7596	25.6348	49.7916	25.6348	49.3871	25.6348	51.3276	25.6348	50.9994	25.6348	52.8279	25.6348	52.5441	25.6348	54.2507	25.6348	53.9899	25.6348	55.5614	25.6348	55.3145	25.6348	56.7288	25.6348	56.4971	25.6348	57.7232	25.6348	57.5155	25.6348	58.5183	25.6348	58.347	25.6348	59.0922	25.6348	58.9697	25.6348	59.4291	25.6348	59.3652	25.6348	59.5204
26.3672	45.9169	26.3672	46.1213	26.3672	45.8722	26.3672	46.4966	26.3672	46.0138	26.3672	47.0781	26.3672	46.3992	26.3672	47.8964	26.3672	47.0839	26.3672	48.9499	26.3672	48.0789	26.3672	50.1973	26.3672	49.333	26.3672	51.5727	26.3672	50.7558	26.3672	53.0078	26.3672	52.2556	26.3672	54.4455	26.3672	53.7611	26.3672	55.8418	26.3672	55.2226	26.3672	57.1619	26.3672	56.6058	26.3672	58.3757	26.3672	57.8832	26.3672	59.4549	26.3672	59.0299	26.3672	60.3728	26.3672	60.0212	26.3672	61.1046	26.3672	60.8332	26.3672	61.6295	26.3672	61.4445	26.3672	61.9316	26.3672	61.8379	26.3672	62.0019
27.0996	50.0689	27.0996	50.2054	27.0996	50.0678	27.0996	50.4855	27.0996	50.2158	27.0996	50.9321	27.0996	50.5439	27.0996	51.5692	27.0996	51.086	27.0996	52.4044	27.0996	51.8582	27.0996	53.4199	27.0996	52.844	27.0996	54.5753	27.0996	53.9971	27.0996	55.8193	27.0996	55.2571	27.0996	57.1007	27.0996	56.5651	27.0996	58.3744	27.0996	57.8712	27.0996	59.6007	27.0996	59.1352	27.0996	60.7441	27.0996	60.3223	27.0996	61.7715	27.0996	61.401	27.0996	62.6522	27.0996	62.3416	27.0996	63.3585	27.0996	63.1165	27.0996	63.8676	27.0996	63.7016	27.0996	64.1626	27.0996	64.0781	27.0996	64.2335
27.832	53.5368	27.832	53.6339	27.832	53.5589	27.832	53.8576	27.832	53.7074	27.832	54.2257	27.832	54.0015	27.832	54.7572	27.832	54.4644	27.832	55.4616	27.832	55.1112	27.832	56.3305	27.832	55.9384	27.832	57.3367	27.832	56.9214	27.832	58.441	27.832	58.02	27.832	59.5998	27.832	59.1878	27.832	60.7706	27.832	60.3793	27.832	61.9137	27.832	61.5525	27.832	62.9921	27.832	62.6688	27.832	63.9711	27.832	63.6921	27.832	64.8179	27.832	64.5884	27.832	65.5033	27.832	65.3276	27.832	66.0029	27.832	65.884	27.832	66.298	27.832	66.2381	27.832	66.3776
29.2969	59.4042	29.2969	59.494	29.2969	59.4078	29.2969	59.6821	29.2969	59.5076	29.2969	59.9795	29.2969	59.714	29.2969	60.3985	29.2969	60.0416	29.2969	60.9478	29.2969	60.5044	29.2969	61.627	29.2969	61.1095	29.2969	62.4243	29.2969	61.8523	29.2969	63.3176	29.2969	62.7157	29.2969	64.2773	29.2969	63.6716	29.2969	65.2697	29.2969	64.6847	29.2969	66.2593	29.2969	65.7156	29.2969	67.2096	29.2969	66.7235	29.2969	68.0844	29.2969	67.6674	29.2969	68.8486	29.2969	68.5087	29.2969	69.4703	29.2969	69.2124	29.2969	69.9225	29.2969	69.7494	29.2969	70.1849	29.2969	70.098	29.2969	70.2448
30.0293	62.1534	30.0293	62.2275	30.0293	62.1672	30.0293	62.3929	30.0293	62.2714	30.0293	62.658	30.0293	62.474	30.0293	63.0327	30.0293	62.7863	30.0293	63.525	30.0293	63.2187	30.0293	64.1365	30.0293	63.7769	30.0293	64.86	30.0293	64.4582	30.0293	65.6791	30.0293	65.2496	30.0293	66.5695	30.0293	66.1287	30.0293	67.5011	30.0293	67.0658	30.0293	68.44	30.0293	68.026	30.0293	69.3498	30.0293	68.971	30.0293	70.1933	30.0293	69.8614	30.0293	70.9344	30.0293	70.6587	30.0293	71.5404	30.0293	71.3279	30.0293	71.9834	30.0293	71.8392	30.0293	72.243	30.0293	72.1701	30.0293	72.3064
31.4941	67.7473	31.4941	67.8	31.4941	67.767	31.4941	67.9279	31.4941	67.8605	31.4941	68.1372	31.4941	68.0328	31.4941	68.4359	31.4941	68.2915	31.4941	68.8312	31.4941	68.6446	31.4941	69.3272	31.4941	69.0981	31.4941	69.9221	31.4941	69.6531	31.4941	70.6066	31.4941	70.3041	31.4941	71.3644	31.4941	71.0382	31.4941	72.1721	31.4941	71.8345	31.4941	73.0004	31.4941	72.6656	31.4941	73.8156	31.4941	73.4979	31.4941	74.5815	31.4941	74.2944	31.4941	75.2615	31.4941	75.017	31.4941	75.8219	31.4941	75.6299	31.4941	76.2339	31.4941	76.1018	31.4941	76.4762	31.4941	76.4089	31.4941	76.5357
32.2266	70.1806	32.2266	70.2313	32.2266	70.1979	32.2266	70.3522	32.2266	70.2844	32.2266	70.5489	32.2266	70.4446	32.2266	70.8283	32.2266	70.6856	32.2266	71.1974	32.2266	71.0149	32.2266	71.6602	32.2266	71.4383	32.2266	72.2162	32.2266	71.9578	32.2266	72.8584	32.2266	72.5693	32.2266	73.573	32.2266	73.2618	32.2266	74.3392	32.2266	74.017	32.2266	75.1298	32.2266	74.8094	32.2266	75.9127	32.2266	75.6071	32.2266	76.6519	32.2266	76.3743	32.2266	77.311	32.2266	77.0734	32.2266	77.8559	32.2266	77.6685	32.2266	78.2575	32.2266	78.128	32.2266	78.4938	32.2266	78.4277	32.2266	78.5517
33.6914	74.8979	33.6914	74.9381	33.6914	74.9191	33.6914	75.0418	33.6914	75.0025	33.6914	75.2136	33.6914	75.1512	33.6914	75.4591	33.6914	75.3704	33.6914	75.7844	33.6914	75.6659	33.6914	76.1937	33.6914	76.0426	33.6914	76.6876	33.6914	76.503	33.6914	77.2619	33.6914	77.0452	33.6914	77.9064	33.6914	77.6623	33.6914	78.6041	33.6914	78.3404	33.6914	79.3313	33.6914	79.0588	33.6914	80.0581	33.6914	79.7898	33.6914	80.7503	33.6914	80.5002	33.6914	81.3721	33.6914	81.1535	33.6914	81.8889	33.6914	81.7138	33.6914	82.2713	33.6914	82.1492	33.6914	82.4969	33.6914	82.4342	33.6914	82.5524
34.4238	77.0389	34.4238	77.0786	34.4238	77.0587	34.4238	77.1797	34.4238	77.1387	34.4238	77.3461	34.4238	77.2817	34.4238	77.5828	34.4238	77.4923	34.4238	77.8951	34.4238	77.7756	34.4238	78.2867	34.4238	78.1362	34.4238	78.7584	34.4238	78.5764	34.4238	79.3066	34.4238	79.095	34.4238	79.9224	34.4238	79.686	34.4238	80.5904	34.4238	80.3369	34.4238	81.2888	34.4238	81.0286	34.4238	81.9893	34.4238	81.7346	34.4238	82.6589	34.4238	82.4226	34.4238	83.2625	34.4238	83.057	34.4238	83.766	34.4238	83.602	34.4238	84.1398	34.4238	84.0257	34.4238	84.3613	34.4238	84.3028	34.4238	84.4169
35.8887	80.7811	35.8887	80.8213	35.8887	80.7976	35.8887	80.9195	35.8887	80.8715	35.8887	81.0784	35.8887	81.0048	35.8887	81.3017	35.8887	81.2012	35.8887	81.5933	35.8887	81.4645	35.8887	81.956	35.8887	81.7983	35.8887	82.3905	35.8887	82.2044	35.8887	82.8941	35.8887	82.6819	35.8887	83.4597	35.8887	83.2258	35.8887	84.0746	35.8887	83.826	35.8887	84.7199	35.8887	84.4658	35.8887	85.3701	35.8887	85.1216	35.8887	85.9947	35.8887	85.7638	35.8887	86.5601	35.8887	86.3588	35.8887	87.0334	35.8887	86.8723	35.8887	87.3856	35.8887	87.2732	35.8887	87.5941	35.8887	87.5364	35.8887	87.6456
37.3535	83.7315	37.3535	83.7696	37.3535	83.7465	37.3535	83.8617	37.3535	83.8149	37.3535	84.0097	37.3535	83.9384	37.3535	84.2165	37.3535	84.1196	37.3535	84.485	37.3535	84.3614	37.3535	84.8175	37.3535	84.6667	37.3535	85.2145	37.3535	85.037	37.3535	85.6744	37.3535	85.4719	37.3535	86.1914	37.3535	85.9678	37.3535	86.7551	37.3535	86.5165	37.3535	87.3491	37.3535	87.104	37.3535	87.9506	37.3535	87.7095	37.3535	88.5313	37.3535	88.306	37.3535	89.0594	37.3535	88.8618	37.3535	89.5031	37.3535	89.3442	37.3535	89.8338	37.3535	89.7226	37.3535	90.0296	37.3535	89.9724	37.3535	90.0769
38.8184	85.8265	38.8184	85.8604	38.8184	85.8422	38.8184	85.9444	38.8184	85.9078	38.8184	86.0803	38.8184	86.0244	38.8184	86.27	38.8184	86.1941	38.8184	86.516	38.8184	86.4189	38.8184	86.82	38.8184	86.7011	38.8184	87.1827	38.8184	87.0419	38.8184	87.6029	38.8184	87.441	38.8184	88.0762	38.8184	87.8957	38.8184	88.594	38.8184	88.3991	38.8184	89.1419	38.8184	88.9393	38.8184	89.6997	38.8184	89.498	38.8184	90.241	38.8184	90.0504	38.8184	90.736	38.8184	90.5672	38.8184	91.154	38.8184	91.0172	38.8184	91.4671	38.8184	91.3708	38.8184	91.6537	38.8184	91.604	38.8184	91.7005
39.5508	86.6479	39.5508	86.6792	39.5508	86.6642	39.5508	86.7588	39.5508	86.7284	39.5508	86.888	39.5508	86.8414	39.5508	87.0688	39.5508	87.0048	39.5508	87.303	39.5508	87.2205	39.5508	87.5923	39.5508	87.4902	39.5508	87.9374	39.5508	87.8152	39.5508	88.3372	39.5508	88.1951	39.5508	88.7878	39.5508	88.6276	39.5508	89.2816	39.5508	89.1066	39.5508	89.8053	39.5508	89.6214	39.5508	90.3398	39.5508	90.1549	39.5508	90.8601	39.5508	90.6838	39.5508	91.3373	39.5508	91.18	39.5508	91.7412	39.5508	91.6129	39.5508	92.0445	39.5508	91.9539	39.5508	92.2258	39.5508	92.1789	39.5508	92.2717
41.0156	87.8286	41.0156	87.8587	41.0156	87.8421	41.0156	87.933	41.0156	87.8991	41.0156	88.0524	41.0156	88.0003	41.0156	88.2184	41.0156	88.1469	41.0156	88.4326	41.0156	88.3401	41.0156	88.6963	41.0156	88.5815	41.0156	89.01	41.0156	88.8721	41.0156	89.373	41.0156	89.2122	41.0156	89.7822	41.0156	89.6006	41.0156	90.2311	41.0156	90.0327	41.0156	90.7084	41.0156	90.4999	41.0156	91.197	41.0156	90.9875	41.0156	91.6741	41.0156	91.4746	41.0156	92.1127	41.0156	91.935	41.0156	92.4845	41.0156	92.3398	41.0156	92.7633	41.0156	92.6611	41.0156	92.9283	41.0156	92.8754	41.0156	92.9667
42.4805	88.5123	42.4805	88.5437	42.4805	88.5211	42.4805	88.6157	42.4805	88.5704	42.4805	88.729	42.4805	88.6607	42.4805	88.8846	42.4805	88.793	42.4805	89.0834	42.4805	88.9685	42.4805	89.3265	42.4805	89.1886	42.4805	89.6142	42.4805	89.4544	42.4805	89.9461	42.4805	89.7663	42.4805	90.3199	42.4805	90.1233	42.4805	90.7302	42.4805	90.5218	42.4805	91.1677	42.4805	90.9543	42.4805	91.6173	42.4805	91.4075	42.4805	92.0586	42.4805	91.8622	42.4805	92.4665	42.4805	92.2937	42.4805	92.8139	42.4805	92.6745	42.4805	93.0754	42.4805	92.9776	42.4805	93.2306	42.4805	93.1802	42.4805	93.2667
43.9453	89.0651	43.9453	89.0952	43.9453	89.0724	43.9453	89.1629	43.9453	89.1173	43.9453	89.2686	43.9453	89.2002	43.9453	89.413	43.9453	89.322	43.9453	89.5968	43.9453	89.4833	43.9453	89.8206	43.9453	89.6855	43.9453	90.0848	43.9453	89.9292	43.9453	90.389	43.9453	90.215	43.9453	90.7313	43.9453	90.5423	43.9453	91.1076	43.9453	90.9081	43.9453	91.5095	43.9453	91.3059	43.9453	91.9241	43.9453	91.7242	43.9453	92.3324	43.9453	92.1455	43.9453	92.7113	43.9453	92.5469	43.9453	93.0353	43.9453	92.9026	43.9453	93.2798	43.9453	93.1866	43.9453	93.4251	43.9453	93.377	43.9453	93.4586
45.4102	89.4126	45.4102	89.4404	45.4102	89.4195	45.4102	89.5032	45.4102	89.4615	45.4102	89.6012	45.4102	89.5387	45.4102	89.7349	45.4102	89.6517	45.4102	89.9047	45.4102	89.8012	45.4102	90.1112	45.4102	89.9879	45.4102	90.3547	45.4102	90.2126	45.4102	90.6348	45.4102	90.4756	45.4102	90.95	45.4102	90.7764	45.4102	91.2967	45.4102	91.1127	45.4102	91.6678	45.4102	91.4789	45.4102	92.0513	45.4102	91.8647	45.4102	92.4303	45.4102	92.2546	45.4102	92.7829	45.4102	92.6274	45.4102	93.0851	45.4102	92.9589	45.4102	93.3136	45.4102	93.2246	45.4102	93.4493	45.4102	93.4033	45.4102	93.4803
47.6074	89.7787	47.6074	89.8022	47.6074	89.7866	47.6074	89.8573	47.6074	89.826	47.6074	89.944	47.6074	89.8971	47.6074	90.0624	47.6074	90.0001	47.6074	90.2129	47.6074	90.1354	47.6074	90.3958	47.6074	90.3032	47.6074	90.611	47.6074	90.5041	47.6074	90.8585	47.6074	90.7381	47.6074	91.1372	47.6074	91.0049	47.6074	91.4441	47.6074	91.3026	47.6074	91.7735	47.6074	91.6266	47.6074	92.1153	47.6074	91.9687	47.6074	92.4548	47.6074	92.3152	47.6074	92.7724	47.6074	92.6477	47.6074	93.0462	47.6074	92.9442	47.6074	93.2546	47.6074	93.1823	47.6074	93.3797	47.6074	93.3422	47.6074	93.4099
49.0723	89.9593	49.0723	89.9806	49.0723	89.9675	49.0723	90.0314	49.0723	90.0053	49.0723	90.1118	49.0723	90.0728	49.0723	90.2219	49.0723	90.1699	49.0723	90.3617	49.0723	90.2968	49.0723	90.5312	49.0723	90.4536	49.0723	90.7305	49.0723	90.6406	49.0723	90.9593	49.0723	90.8579	49.0723	91.2166	49.0723	91.1049	49.0723	91.5	49.0723	91.3802	49.0723	91.8045	49.0723	91.6798	49.0723	92.1211	49.0723	91.9961	49.0723	92.4363	49.0723	92.3169	49.0723	92.7322	49.0723	92.6252	49.0723	92.9884	49.0723	92.9006	49.0723	93.1842	49.0723	93.1219	49.0723	93.3026	49.0723	93.2701	49.0723	93.3322
50.5371	90.0813	50.5371	90.1015	50.5371	90.0889	50.5371	90.1495	50.5371	90.1244	50.5371	90.2252	50.5371	90.1876	50.5371	90.3286	50.5371	90.2787	50.5371	90.4595	50.5371	90.3974	50.5371	90.6179	50.5371	90.544	50.5371	90.8036	50.5371	90.7183	50.5371	91.0164	50.5371	90.9203	50.5371	91.2553	50.5371	91.1497	50.5371	91.5182	50.5371	91.405	50.5371	91.8005	50.5371	91.6827	50.5371	92.0942	50.5371	91.9761	50.5371	92.3871	50.5371	92.2742	50.5371	92.6626	50.5371	92.5611	50.5371	92.9015	50.5371	92.8181	50.5371	93.0844	50.5371	93.025	50.5371	93.1949	50.5371	93.164	50.5371	93.2224
52.7344	90.2213	52.7344	90.2395	52.7344	90.2285	52.7344	90.283	52.7344	90.261	52.7344	90.3516	52.7344	90.3187	52.7344	90.4452	52.7344	90.4014	52.7344	90.5633	52.7344	90.5088	52.7344	90.7057	52.7344	90.6408	52.7344	90.8721	52.7344	90.797	52.7344	91.0621	52.7344	90.9774	52.7344	91.2747	52.7344	91.1814	52.7344	91.5082	52.7344	91.4078	52.7344	91.7588	52.7344	91.6539	52.7344	92.0197	52.7344	91.9139	52.7344	92.2803	52.7344	92.1785	52.7344	92.526	52.7344	92.434	52.7344	92.7396	52.7344	92.6636	52.7344	92.9035	52.7344	92.8492	52.7344	93.0026	52.7344	92.9742	52.7344	93.027
54.1992	90.2882	54.1992	90.3061	54.1992	90.2941	54.1992	90.3477	54.1992	90.3237	54.1992	90.4127	54.1992	90.377	54.1992	90.5008	54.1992	90.4536	54.1992	90.6117	54.1992	90.5533	54.1992	90.7449	54.1992	90.6757	54.1992	90.9	54.1992	90.8206	54.1992	91.0764	54.1992	90.9876	54.1992	91.2734	54.1992	91.1764	54.1992	91.4893	54.1992	91.3859	54.1992	91.7207	54.1992	91.6136	54.1992	91.9616	54.1992	91.8545	54.1992	92.2023	54.1992	92.1	54.1992	92.4295	54.1992	92.3376	54.1992	92.6272	54.1992	92.5517	54.1992	92.779	54.1992	92.7251	54.1992	92.8705	54.1992	92.8425	54.1992	92.8925
56.3965	90.3432	56.3965	90.3572	56.3965	90.3513	56.3965	90.3931	56.3965	90.3813	56.3965	90.4507	56.3965	90.4329	56.3965	90.5296	56.3965	90.5059	56.3965	90.6293	56.3965	90.5996	56.3965	90.7493	56.3965	90.7137	56.3965	90.889	56.3965	90.8475	56.3965	91.048	56.3965	91.0005	56.3965	91.2253	56.3965	91.1723	56.3965	91.4196	56.3965	91.3617	56.3965	91.628	56.3965	91.5665	56.3965	91.8453	56.3965	91.7822	56.3965	92.0632	56.3965	92.0014	56.3965	92.2697	56.3965	92.2131	56.3965	92.4507	56.3965	92.4032	56.3965	92.5909	56.3965	92.5566	56.3965	92.6772	56.3965	92.6592	56.3965	92.7008
58.5938	90.46	58.5938	90.4697	58.5938	90.4705	58.5938	90.4996	58.5938	90.5012	58.5938	90.5497	58.5938	90.5516	58.5938	90.6194	58.5938	90.6211	58.5938	90.7083	58.5938	90.7092	58.5938	90.8159	58.5938	90.8152	58.5938	90.9415	58.5938	90.9382	58.5938	91.0846	58.5938	91.0777	58.5938	91.2444	58.5938	91.2329	58.5938	91.4195	58.5938	91.4028	58.5938	91.6074	58.5938	91.5852	58.5938	91.8035	58.5938	91.7765	58.5938	92.0003	58.5938	91.9703	58.5938	92.1874	58.5938	92.157	58.5938	92.3518	58.5938	92.3244	58.5938	92.4799	58.5938	92.4592	58.5938	92.5597	58.5938	92.5486	58.5938	92.5834
60.0586	90.5184	60.0586	90.5274	60.0586	90.5291	60.0586	90.5559	60.0586	90.5592	60.0586	90.6036	60.0586	90.6083	60.0586	90.6702	60.0586	90.6758	60.0586	90.755	60.0586	90.7611	60.0586	90.8574	60.0586	90.8632	60.0586	90.9765	60.0586	90.9813	60.0586	91.1117	60.0586	91.1145	60.0586	91.2621	60.0586	91.2618	60.0586	91.4262	60.0586	91.422	60.0586	91.6017	60.0586	91.593	60.0586	91.7844	60.0586	91.7713	60.0586	91.9676	60.0586	91.951	60.0586	92.1417	60.0586	92.1236	60.0586	92.295	60.0586	92.2779	60.0586	92.4149	60.0586	92.4015	60.0586	92.4902	60.0586	92.4829	60.0586	92.5137
62.2559	90.5894	62.2559	90.5987	62.2559	90.5979	62.2559	90.6257	62.2559	90.6241	62.2559	90.67	62.2559	90.6676	62.2559	90.7311	62.2559	90.7278	62.2559	90.8084	62.2559	90.8041	62.2559	90.9011	62.2559	90.8956	62.2559	91.0083	62.2559	91.0014	62.2559	91.1294	62.2559	91.1206	62.2559	91.2634	62.2559	91.2523	62.2559	91.4091	62.2559	91.3953	62.2559	91.5644	62.2559	91.5479	62.2559	91.726	62.2559	91.7069	62.2559	91.8881	62.2559	91.8674	62.2559	92.0423	62.2559	92.0216	62.2559	92.1783	62.2559	92.1598	62.2559	92.2849	62.2559	92.2708	62.2559	92.3518	62.2559	92.3442	62.2559	92.3722
64.4531	90.7012	64.4531	90.7092	64.4531	90.7095	64.4531	90.7333	64.4531	90.7338	64.4531	90.7733	64.4531	90.7739	64.4531	90.8285	64.4531	90.8291	64.4531	90.8983	64.4531	90.8988	64.4531	90.982	64.4531	90.9819	64.4531	91.0787	64.4531	91.0776	64.4531	91.1875	64.4531	91.1849	64.4531	91.3077	64.4531	91.303	64.4531	91.438	64.4531	91.4306	64.4531	91.5766	64.4531	91.5663	64.4531	91.7206	64.4531	91.7073	64.4531	91.8648	64.4531	91.8493	64.4531	92.0021	64.4531	91.9859	64.4531	92.1233	64.4531	92.1082	64.4531	92.2183	64.4531	92.2066	64.4531	92.2781	64.4531	92.2717	64.4531	92.2965
66.6504	90.8203	66.6504	90.8269	66.6504	90.8288	66.6504	90.8484	66.6504	90.8521	66.6504	90.8846	66.6504	90.8899	66.6504	90.9349	66.6504	90.9417	66.6504	90.9986	66.6504	91.0065	66.6504	91.0748	66.6504	91.0836	66.6504	91.1628	66.6504	91.1719	66.6504	91.2616	66.6504	91.2704	66.6504	91.3702	66.6504	91.3781	66.6504	91.4877	66.6504	91.4938	66.6504	91.6124	66.6504	91.6161	66.6504	91.7415	66.6504	91.7425	66.6504	91.8709	66.6504	91.8692	66.6504	91.9942	66.6504	91.9904	66.6504	92.1033	66.6504	92.0985	66.6504	92.1893	66.6504	92.1851	66.6504	92.2442	66.6504	92.2417	66.6504	92.2622
69.5801	90.9725	69.5801	90.9763	69.5801	90.9821	69.5801	90.9933	69.5801	91.0049	69.5801	91.0234	69.5801	91.0405	69.5801	91.0661	69.5801	91.0882	69.5801	91.1206	69.5801	91.1473	69.5801	91.1863	69.5801	91.2169	69.5801	91.2622	69.5801	91.2957	69.5801	91.3475	69.5801	91.3829	69.5801	91.4413	69.5801	91.4772	69.5801	91.5427	69.5801	91.5776	69.5801	91.6501	69.5801	91.6826	69.5801	91.7614	69.5801	91.79	69.5801	91.8731	69.5801	91.8969	69.5801	91.98	69.5801	91.9983	69.5801	92.0751	69.5801	92.0881	69.5801	92.1511	69.5801	92.1591	69.5801	92.2007	69.5801	92.2045	69.5801	92.219
71.7773	91.1109	71.7773	91.1125	71.7773	91.1211	71.7773	91.126	71.7773	91.143	71.7773	91.1511	71.7773	91.1762	71.7773	91.1872	71.7773	91.2201	71.7773	91.2339	71.7773	91.2739	71.7773	91.2903	71.7773	91.3367	71.7773	91.3556	71.7773	91.4073	71.7773	91.4292	71.7773	91.4846	71.7773	91.5101	71.7773	91.5676	71.7773	91.5975	71.7773	91.6549	71.7773	91.6902	71.7773	91.7453	71.7773	91.7864	71.7773	91.8369	71.7773	91.8832	71.7773	91.9272	71.7773	91.9762	71.7773	92.0121	71.7773	92.0597	71.7773	92.0867	71.7773	92.1271	71.7773	92.145	71.7773	92.1722	71.7773	92.1811	71.7773	92.1907
73.9746	91.2279	73.9746	91.2274	73.9746	91.2391	73.9746	91.2377	73.9746	91.2609	73.9746	91.2585	73.9746	91.2928	73.9746	91.2894	73.9746	91.3342	73.9746	91.3298	73.9746	91.3843	73.9746	91.379	73.9746	91.442	73.9746	91.4362	73.9746	91.5063	73.9746	91.5006	73.9746	91.5758	73.9746	91.5714	73.9746	91.6495	73.9746	91.6476	73.9746	91.7259	73.9746	91.7283	73.9746	91.8039	73.9746	91.812	73.9746	91.8818	73.9746	91.8961	73.9746	91.9574	73.9746	91.9771	73.9746	92.0277	73.9746	92.0501	73.9746	92.0887	73.9746	92.1096	73.9746	92.1355	73.9746	92.1505	73.9746	92.1634	73.9746	92.1689
76.9043	91.399	76.9043	91.4048	76.9043	91.4028	76.9043	91.4202	76.9043	91.4163	76.9043	91.4449	76.9043	91.439	76.9043	91.4782	76.9043	91.4706	76.9043	91.5195	76.9043	91.5104	76.9043	91.5678	76.9043	91.5574	76.9043	91.6223	76.9043	91.6107	76.9043	91.6818	76.9043	91.6692	76.9043	91.7454	76.9043	91.7318	76.9043	91.8118	76.9043	91.7973	76.9043	91.8799	76.9043	91.8646	76.9043	91.9483	76.9043	91.9324	76.9043	92.015	76.9043	91.999	76.9043	92.0773	76.9043	92.0619	76.9043	92.1314	76.9043	92.118	76.9043	92.1733	76.9043	92.1633	76.9043	92.1992	76.9043	92.1937	76.9043	92.2062
79.834	91.5117	79.834	91.5185	79.834	91.5133	79.834	91.5336	79.834	91.5234	79.834	91.5567	79.834	91.5417	79.834	91.5873	79.834	91.5677	79.834	91.6245	79.834	91.601	79.834	91.6677	79.834	91.6407	79.834	91.7157	79.834	91.6859	79.834	91.7676	79.834	91.7355	79.834	91.8223	79.834	91.7886	79.834	91.8786	79.834	91.8441	79.834	91.9356	79.834	91.9009	79.834	91.9918	79.834	91.9579	79.834	92.0459	79.834	92.0137	79.834	92.0955	79.834	92.0666	79.834	92.138	79.834	92.114	79.834	92.1701	79.834	92.1528	79.834	92.1888	79.834	92.1797	79.834	92.1922
82.7637	91.6082	82.7637	91.6167	82.7637	91.607	82.7637	91.6324	82.7637	91.6133	82.7637	91.6551	82.7637	91.6268	82.7637	91.6841	82.7637	91.6472	82.7637	91.7187	82.7637	91.6742	82.7637	91.7583	82.7637	91.7069	82.7637	91.8016	82.7637	91.7445	82.7637	91.8477	82.7637	91.7862	82.7637	91.8952	82.7637	91.831	82.7637	91.9431	82.7637	91.8777	82.7637	91.9901	82.7637	91.9254	82.7637	92.0352	82.7637	91.9732	82.7637	92.077	82.7637	92.0199	82.7637	92.1141	82.7637	92.0643	82.7637	92.1446	82.7637	92.1044	82.7637	92.1663	82.7637	92.138	82.7637	92.1772	82.7637	92.1625	82.7637	92.176
85.6934	91.675	85.6934	91.6818	85.6934	91.6742	85.6934	91.6946	85.6934	91.6795	85.6934	91.713	85.6934	91.6908	85.6934	91.7366	85.6934	91.7079	85.6934	91.7646	85.6934	91.7302	85.6934	91.7965	85.6934	91.7572	85.6934	91.8312	85.6934	91.7881	85.6934	91.8676	85.6934	91.8219	85.6934	91.9047	85.6934	91.8577	85.6934	91.9414	85.6934	91.8943	85.6934	91.9767	85.6934	91.9309	85.6934	92.0098	85.6934	91.9665	85.6934	92.0399	85.6934	92.0005	85.6934	92.0662	85.6934	92.0321	85.6934	92.0875	85.6934	92.0602	85.6934	92.1026	85.6934	92.0834	85.6934	92.1102	85.6934	92.1003	85.6934	92.1095
88.623	91.7071	88.623	91.7143	88.623	91.7052	88.623	91.7266	88.623	91.7086	88.623	91.7438	88.623	91.7172	88.623	91.7653	88.623	91.7308	88.623	91.7907	88.623	91.7491	88.623	91.8193	88.623	91.7715	88.623	91.85	88.623	91.7973	88.623	91.8818	88.623	91.8257	88.623	91.9136	88.623	91.8556	88.623	91.9442	88.623	91.886	88.623	91.9726	88.623	91.9159	88.623	91.998	88.623	91.9446	88.623	92.0199	88.623	91.9715	88.623	92.0378	88.623	91.9961	88.623	92.0513	88.623	92.018	88.623	92.0597	88.623	92.0365	88.623	92.0625	88.623	92.0506	88.623	92.0595
91.5527	91.7204	91.5527	91.7274	91.5527	91.7178	91.5527	91.7384	91.5527	91.7193	91.5527	91.7534	91.5527	91.725	91.5527	91.7719	91.5527	91.7346	91.5527	91.7936	91.5527	91.748	91.5527	91.8177	91.5527	91.7647	91.5527	91.8433	91.5527	91.784	91.5527	91.8692	91.5527	91.8052	91.5527	91.8943	91.5527	91.8273	91.5527	91.9173	91.5527	91.8493	91.5527	91.9372	91.5527	91.8704	91.5527	91.9532	91.5527	91.8899	91.5527	91.9652	91.5527	91.9075	91.5527	91.973	91.5527	91.9232	91.5527	91.977	91.5527	91.9373	91.5527	91.9775	91.5527	91.9498	91.5527	91.9747	91.5527	91.9604	91.5527	91.9688
94.4824	91.7169	94.4824	91.7229	94.4824	91.7139	94.4824	91.7319	94.4824	91.7139	94.4824	91.7439	94.4824	91.7169	94.4824	91.7585	94.4824	91.7227	94.4824	91.7755	94.4824	91.7311	94.4824	91.7943	94.4824	91.7419	94.4824	91.8141	94.4824	91.7545	94.4824	91.8336	94.4824	91.7683	94.4824	91.8518	94.4824	91.7824	94.4824	91.8672	94.4824	91.7959	94.4824	91.8789	94.4824	91.8079	94.4824	91.8861	94.4824	91.8181	94.4824	91.8887	94.4824	91.8264	94.4824	91.8873	94.4824	91.8333	94.4824	91.8827	94.4824	91.8395	94.4824	91.8759	94.4824	91.8458	94.4824	91.8682	94.4824	91.8526	94.4824	91.8602
98.1445	91.7304	98.1445	91.7328	98.1445	91.7291	98.1445	91.7364	98.1445	91.7291	98.1445	91.7411	98.1445	91.7302	98.1445	91.7468	98.1445	91.7325	98.1445	91.7534	98.1445	91.7359	98.1445	91.7606	98.1445	91.7401	98.1445	91.7679	98.1445	91.7448	98.1445	91.7743	98.1445	91.7493	98.1445	91.779	98.1445	91.7528	98.1445	91.781	98.1445	91.7543	98.1445	91.7794	98.1445	91.7531	98.1445	91.7738	98.1445	91.7489	98.1445	91.7647	98.1445	91.742	98.1445	91.7529	98.1445	91.7334	98.1445	91.7402	98.1445	91.7247	98.1445	91.7285	98.1445	91.7177	98.1445	91.7195	98.1445	91.714	98.1445	91.7145
101.807	91.7237	101.807	91.7239	101.807	91.7238	101.807	91.7246	101.807	91.7242	101.807	91.7257	101.807	91.7248	101.807	91.7273	101.807	91.7257	101.807	91.7296	101.807	91.727	101.807	91.7322	101.807	91.7284	101.807	91.7349	101.807	91.7297	101.807	91.7369	101.807	91.7303	101.807	91.7375	101.807	91.7295	101.807	91.7355	101.807	91.7265	101.807	91.7302	101.807	91.7206	101.807	91.7211	101.807	91.7114	101.807	91.7087	101.807	91.6994	101.807	91.694	101.807	91.6857	101.807	91.679	101.807	91.6722	101.807	91.6657	101.807	91.6609	101.807	91.6563	101.807	91.6538	101.807	91.6521
105.469	91.7112	105.469	91.7084	105.469	91.713	105.469	91.7046	105.469	91.7139	105.469	91.6999	105.469	91.7139	105.469	91.6946	105.469	91.7134	105.469	91.6889	105.469	91.7124	105.469	91.6831	105.469	91.7109	105.469	91.6773	105.469	91.7089	105.469	91.6713	105.469	91.7058	105.469	91.6647	105.469	91.7008	105.469	91.6567	105.469	91.6931	105.469	91.6466	105.469	91.6818	105.469	91.634	105.469	91.6665	105.469	91.6189	105.469	91.6475	105.469	91.6026	105.469	91.6262	105.469	91.5867	105.469	91.6047	105.469	91.5738	105.469	91.5859	105.469	91.5661	105.469	91.5721	105.469	91.5653
109.131	91.7408	109.131	91.744	109.131	91.7364	109.131	91.7462	109.131	91.7309	109.131	91.7478	109.131	91.7243	109.131	91.7492	109.131	91.7168	109.131	91.7505	109.131	91.7088	109.131	91.7517	109.131	91.7003	109.131	91.7527	109.131	91.6914	109.131	91.7525	109.131	91.682	109.131	91.7502	109.131	91.6716	109.131	91.7445	109.131	91.6598	109.131	91.7344	109.131	91.6462	109.131	91.7192	109.131	91.6311	109.131	91.699	109.131	91.6153	109.131	91.675	109.131	91.6002	109.131	91.6492	109.131	91.5879	109.131	91.6244	109.131	91.5808	109.131	91.6032	109.131	91.5806	109.131	91.5881
112.793	91.7934	112.793	91.7907	112.793	91.7933	112.793	91.7859	112.793	91.7906	112.793	91.7792	112.793	91.7851	112.793	91.7712	112.793	91.7773	112.793	91.7625	112.793	91.7674	112.793	91.7533	112.793	91.7558	112.793	91.7435	112.793	91.7426	112.793	91.7326	112.793	91.7277	112.793	91.7197	112.793	91.7108	112.793	91.7039	112.793	91.6914	112.793	91.6842	112.793	91.6691	112.793	91.6604	112.793	91.644	112.793	91.6331	112.793	91.6168	112.793	91.604	112.793	91.5891	112.793	91.5758	112.793	91.5636	112.793	91.5517	112.793	91.5431	112.793	91.5349	112.793	91.5304	112.793	91.5275
116.455	91.7694	116.455	91.7609	116.455	91.7738	116.455	91.7485	116.455	91.7739	116.455	91.7329	116.455	91.7697	116.455	91.7149	116.455	91.7617	116.455	91.6952	116.455	91.7502	116.455	91.6744	116.455	91.7357	116.455	91.6529	116.455	91.7182	116.455	91.6305	116.455	91.6978	116.455	91.6067	116.455	91.674	116.455	91.5809	116.455	91.6463	116.455	91.5523	116.455	91.6142	116.455	91.5208	116.455	91.5777	116.455	91.4871	116.455	91.5376	116.455	91.4534	116.455	91.4961	116.455	91.4227	116.455	91.4563	116.455	91.3988	116.455	91.422	116.455	91.3853	116.455	91.3971	116.455	91.3845
120.85	91.7994	120.85	91.7838	120.85	91.8088	120.85	91.7623	120.85	91.8119	120.85	91.7356	120.85	91.8091	120.85	91.7048	120.85	91.8008	120.85	91.6709	120.85	91.7878	120.85	91.6352	120.85	91.7706	120.85	91.5985	120.85	91.7495	120.85	91.5616	120.85	91.7248	120.85	91.5246	120.85	91.6958	120.85	91.4875	120.85	91.6621	120.85	91.4501	120.85	91.6229	120.85	91.4127	120.85	91.578	120.85	91.3763	120.85	91.528	120.85	91.3431	120.85	91.4748	120.85	91.3162	120.85	91.4219	120.85	91.2994	120.85	91.3734	120.85	91.2958	120.85	91.3339	120.85	91.3074
125.244	91.7611	125.244	91.7517	125.244	91.7634	125.244	91.7351	125.244	91.7587	125.244	91.712	125.244	91.7476	125.244	91.6833	125.244	91.7312	125.244	91.6501	125.244	91.7102	125.244	91.6135	125.244	91.6858	125.244	91.5745	125.244	91.6584	125.244	91.5339	125.244	91.6283	125.244	91.492	125.244	91.5952	125.244	91.4489	125.244	91.5583	125.244	91.4044	125.244	91.5168	125.244	91.3592	125.244	91.4703	125.244	91.3144	125.244	91.4192	125.244	91.2725	125.244	91.3657	125.244	91.2371	125.244	91.3131	125.244	91.2122	125.244	91.2661	125.244	91.2015	125.244	91.2295	125.244	91.2072
129.639	91.6948	129.639	91.6924	129.639	91.6891	129.639	91.6818	129.639	91.6755	129.639	91.6637	129.639	91.6548	129.639	91.639	129.639	91.6283	129.639	91.6088	129.639	91.5974	129.639	91.5743	129.639	91.5632	129.639	91.5366	129.639	91.5271	129.639	91.4962	129.639	91.4896	129.639	91.4535	129.639	91.451	129.639	91.4085	129.639	91.4108	129.639	91.361	129.639	91.3683	129.639	91.3115	129.639	91.3232	129.639	91.261	129.639	91.2761	129.639	91.2122	129.639	91.2286	129.639	91.1685	129.639	91.1839	129.639	91.1342	129.639	91.1462	129.639	91.1133	129.639	91.1198	129.639	91.1083
134.033	91.6549	134.033	91.6586	134.033	91.6419	134.033	91.6532	134.033	91.6197	134.033	91.6395	134.033	91.5894	134.033	91.6185	134.033	91.5522	134.033	91.5917	134.033	91.5098	134.033	91.5603	134.033	91.4641	134.033	91.5254	134.033	91.4165	134.033	91.4874	134.033	91.3686	134.033	91.4465	134.033	91.3211	134.033	91.4021	134.033	91.2742	134.033	91.3538	134.033	91.2281	134.033	91.3015	134.033	91.1826	134.033	91.246	134.033	91.1387	134.033	91.1895	134.033	91.0981	134.033	91.1355	134.033	91.0637	134.033	91.0885	134.033	91.039	134.033	91.0529	134.033	91.0277	134.033	91.0321
138.428	91.6039	138.428	91.6018	138.428	91.5949	138.428	91.5895	138.428	91.5751	138.428	91.5681	138.428	91.545	138.428	91.5393	138.428	91.5059	138.428	91.5051	138.428	91.4596	138.428	91.4672	138.428	91.408	138.428	91.4272	138.428	91.353	138.428	91.3858	138.428	91.2964	138.428	91.3432	138.428	91.2396	138.428	91.2988	138.428	91.1833	138.428	91.2515	138.428	91.1283	138.428	91.2007	138.428	91.0753	138.428	91.1465	138.428	91.0257	138.428	91.0905	138.428	90.9816	138.428	91.0356	138.428	90.946	138.428	90.9863	138.428	90.9224	138.428	90.9471	138.428	90.9139	138.428	90.9222
143.555	91.5155	143.555	91.4989	143.555	91.5196	143.555	91.4704	143.555	91.5111	143.555	91.4317	143.555	91.4907	143.555	91.3848	143.555	91.4597	143.555	91.3322	143.555	91.4199	143.555	91.2765	143.555	91.3732	143.555	91.2199	143.555	91.3214	143.555	91.1639	143.555	91.2662	143.555	91.1094	143.555	91.2084	143.555	91.0563	143.555	91.1486	143.555	91.0042	143.555	91.087	143.555	90.9525	143.555	91.0241	143.555	90.9016	143.555	90.961	143.555	90.8531	143.555	90.9	143.555	90.8101	143.555	90.8446	143.555	90.7764	143.555	90.7991	143.555	90.7563	143.555	90.7675	143.555	90.7529
148.682	91.4763	148.682	91.4584	148.682	91.4791	148.682	91.4261	148.682	91.4671	148.682	91.3808	148.682	91.4414	148.682	91.325	148.682	91.4039	148.682	91.2613	148.682	91.3569	148.682	91.1927	148.682	91.3029	148.682	91.1223	148.682	91.2444	148.682	91.0524	148.682	91.1833	148.682	90.9846	148.682	91.1208	148.682	90.9199	148.682	91.0575	148.682	90.8585	148.682	90.9933	148.682	90.8005	148.682	90.9281	148.682	90.7466	148.682	90.8624	148.682	90.6985	148.682	90.798	148.682	90.6588	148.682	90.7379	148.682	90.6311	148.682	90.6861	148.682	90.6188	148.682	90.6469	148.682	90.6239
153.809	91.422	153.809	91.4068	153.809	91.4204	153.809	91.3757	153.809	91.4022	153.809	91.3303	153.809	91.3686	153.809	91.273	153.809	91.3214	153.809	91.2068	153.809	91.2631	153.809	91.1351	153.809	91.1965	153.809	91.0609	153.809	91.1244	153.809	90.987	153.809	91.0494	153.809	90.9152	153.809	90.9734	153.809	90.8465	153.809	90.8977	153.809	90.7807	153.809	90.8229	153.809	90.7177	153.809	90.7499	153.809	90.6575	153.809	90.6799	153.809	90.6012	153.809	90.6151	153.809	90.5512	153.809	90.5586	153.809	90.5112	153.809	90.5144	153.809	90.4851	153.809	90.4861	153.809	90.4762
159.668	91.4805	159.668	91.4657	159.668	91.4768	159.668	91.4333	159.668	91.4551	159.668	91.385	159.668	91.4169	159.668	91.3233	159.668	91.3645	159.668	91.2517	159.668	91.3009	159.668	91.1738	159.668	91.2297	159.668	91.0933	159.668	91.1542	159.668	91.0135	159.668	91.0777	159.668	90.937	159.668	91.0026	159.668	90.8653	159.668	90.9305	159.668	90.7992	159.668	90.8621	159.668	90.7391	159.668	90.7978	159.668	90.6851	159.668	90.7377	159.668	90.6382	159.668	90.6828	159.668	90.5996	159.668	90.6348	159.668	90.5716	159.668	90.5959	159.668	90.5562	159.668	90.5686	159.668	90.5551
164.795	91.5314	164.795	91.519	164.795	91.5235	164.795	91.4873	164.795	91.4956	164.795	91.4381	164.795	91.4492	164.795	91.3745	164.795	91.3867	164.795	91.3	164.795	91.3112	164.795	91.2187	164.795	91.2266	164.795	91.1343	164.795	91.1368	164.795	91.0503	164.795	91.0455	164.795	90.9692	164.795	90.9558	164.795	90.8924	164.795	90.8702	164.795	90.8205	164.795	90.7901	164.795	90.7534	164.795	90.7169	164.795	90.6912	164.795	90.6515	164.795	90.6344	164.795	90.5954	164.795	90.5845	164.795	90.5503	164.795	90.5437	164.795	90.5183	164.795	90.5148	164.795	90.5013	164.795	90.5002
170.654	91.4869	170.654	91.4617	170.654	91.4902	170.654	91.4155	170.654	91.472	170.654	91.3503	170.654	91.434	170.654	91.2696	170.654	91.3787	170.654	91.1775	170.654	91.3097	170.654	91.0789	170.654	91.2309	170.654	90.9789	170.654	91.1464	170.654	90.8821	170.654	91.0598	170.654	90.7925	170.654	90.9742	170.654	90.7126	170.654	90.8917	170.654	90.6436	170.654	90.8136	170.654	90.5857	170.654	90.7407	170.654	90.5386	170.654	90.6734	170.654	90.5016	170.654	90.6125	170.654	90.4749	170.654	90.5594	170.654	90.4588	170.654	90.5156	170.654	90.4543	170.654	90.4828	170.654	90.4622
176.514	91.4496	176.514	91.4358	176.514	91.4394	176.514	91.3983	176.514	91.4061	176.514	91.3387	176.514	91.3522	176.514	91.2597	176.514	91.281	176.514	91.1653	176.514	91.1968	176.514	91.0601	176.514	91.1044	176.514	90.949	176.514	91.0083	176.514	90.8371	176.514	90.9127	176.514	90.7289	176.514	90.8207	176.514	90.6281	176.514	90.7343	176.514	90.5377	176.514	90.6542	176.514	90.4595	176.514	90.5805	176.514	90.3947	176.514	90.5128	176.514	90.3442	176.514	90.4514	176.514	90.3084	176.514	90.3969	176.514	90.2878	176.514	90.3509	176.514	90.2824	176.514	90.3152	176.514	90.2919
183.105	91.3943	183.105	91.3946	183.105	91.3677	183.105	91.3692	183.105	91.3155	183.105	91.32	183.105	91.2398	183.105	91.2499	183.105	91.1443	183.105	91.1626	183.105	91.0335	183.105	91.0625	183.105	90.9131	183.105	90.9542	183.105	90.7891	183.105	90.8419	183.105	90.6672	183.105	90.7297	183.105	90.5526	183.105	90.6209	183.105	90.449	183.105	90.5182	183.105	90.3587	183.105	90.4236	183.105	90.2825	183.105	90.339	183.105	90.2202	183.105	90.2656	183.105	90.1713	183.105	90.2049	183.105	90.1354	183.105	90.1578	183.105	90.1124	183.105	90.1249	183.105	90.1026	183.105	90.1066
189.697	91.4448	189.697	91.4296	189.697	91.431	189.697	91.387	189.697	91.3881	189.697	91.3202	189.697	91.3175	189.697	91.2337	189.697	91.2224	189.697	91.1326	189.697	91.1072	189.697	91.0227	189.697	90.9775	189.697	90.9094	189.697	90.8396	189.697	90.7973	189.697	90.7001	189.697	90.6898	189.697	90.5653	189.697	90.589	189.697	90.4406	189.697	90.4957	189.697	90.33	189.697	90.4098	189.697	90.2366	189.697	90.3311	189.697	90.1618	189.697	90.2597	189.697	90.1063	189.697	90.1964	189.697	90.07	189.697	90.1422	189.697	90.0523	189.697	90.0988	189.697	90.0522	189.697	90.0682
196.289	91.5112	196.289	91.4761	196.289	91.5133	196.289	91.4098	196.289	91.4821	196.289	91.3161	196.289	91.4196	196.289	91.2004	196.289	91.3292	196.289	91.0696	196.289	91.2159	196.289	90.9313	196.289	91.086	196.289	90.7933	196.289	90.9463	196.289	90.6627	196.289	90.804	196.289	90.5449	196.289	90.6659	196.289	90.4435	196.289	90.5379	196.289	90.3596	196.289	90.4244	196.289	90.2922	196.289	90.3284	196.289	90.2392	196.289	90.2511	196.289	90.198	196.289	90.1927	196.289	90.166	196.289	90.1519	196.289	90.1418	196.289	90.127	196.289	90.1248	196.289	90.1157	196.289	90.1156
202.881	91.6113	202.881	91.5676	202.881	91.6186	202.881	91.489	202.881	91.5903	202.881	91.3786	202.881	91.5285	202.881	91.2417	202.881	91.4372	202.881	91.085	202.881	91.3216	202.881	90.917	202.881	91.1881	202.881	90.747	202.881	91.0437	202.881	90.5842	202.881	90.8955	202.881	90.4373	202.881	90.7504	202.881	90.3127	202.881	90.6144	202.881	90.2144	202.881	90.4924	202.881	90.1431	202.881	90.3873	202.881	90.0968	202.881	90.3006	202.881	90.0717	202.881	90.2319	202.881	90.0627	202.881	90.1796	202.881	90.065	202.881	90.1407	202.881	90.075	202.881	90.112	202.881	90.0907
210.205	91.6513	210.205	91.612	210.205	91.6529	210.205	91.536	210.205	91.6175	210.205	91.4261	210.205	91.5477	210.205	91.2868	210.205	91.4475	210.205	91.1245	210.205	91.3222	210.205	90.9469	210.205	91.1783	210.205	90.7625	210.205	91.0228	210.205	90.5809	210.205	90.8629	210.205	90.411	210.205	90.7057	210.205	90.2607	210.205	90.5573	210.205	90.1359	210.205	90.4227	210.205	90.04	210.205	90.3053	210.205	89.9732	210.205	90.2068	210.205	89.9332	210.205	90.1272	210.205	89.9158	210.205	90.0645	210.205	89.9157	210.205	90.016	210.205	89.928	210.205	89.9785	210.205	89.9494
217.529	91.6639	217.529	91.6322	217.529	91.6571	217.529	91.5625	217.529	91.6137	217.529	91.4569	217.529	91.5371	217.529	91.3199	217.529	91.4324	217.529	91.1575	217.529	91.3063	217.529	90.9777	217.529	91.1665	217.529	90.7899	217.529	91.0207	217.529	90.6043	217.529	90.8768	217.529	90.4314	217.529	90.7413	217.529	90.2807	217.529	90.6193	217.529	90.16	217.529	90.5136	217.529	90.0738	217.529	90.4249	217.529	90.0228	217.529	90.3521	217.529	90.0041	217.529	90.2924	217.529	90.0113	217.529	90.2421	217.529	90.0368	217.529	90.1974	217.529	90.0728	217.529	90.1551	217.529	90.1133
225.586	91.8035	225.586	91.8029	225.586	91.7589	225.586	91.7579	225.586	91.6703	225.586	91.6715	225.586	91.5412	225.586	91.5487	225.586	91.3773	225.586	91.3963	225.586	91.1867	225.586	91.2227	225.586	90.9795	225.586	91.0376	225.586	90.7678	225.586	90.8518	225.586	90.5645	225.586	90.6759	225.586	90.3829	225.586	90.52	225.586	90.2345	225.586	90.392	225.586	90.1273	225.586	90.2965	225.586	90.064	225.586	90.2342	225.586	90.0416	225.586	90.2008	225.586	90.0514	225.586	90.1884	225.586	90.0815	225.586	90.1865	225.586	90.1186	225.586	90.1846	225.586	90.1519	225.586	90.1743
232.91	92.0395	232.91	92.0233	232.91	92.0086	232.91	91.9625	232.91	91.9299	232.91	91.8615	232.91	91.8046	232.91	91.7265	232.91	91.6362	232.91	91.5648	232.91	91.4299	232.91	91.3849	232.91	91.1939	232.91	91.196	232.91	90.9382	232.91	91.0073	232.91	90.6759	232.91	90.8273	232.91	90.422	232.91	90.6635	232.91	90.1929	232.91	90.5213	232.91	90.0044	232.91	90.4037	232.91	89.8692	232.91	90.3103	232.91	89.7931	232.91	90.2375	232.91	89.774	232.91	90.1783	232.91	89.8012	232.91	90.1242	232.91	89.8589	232.91	90.0672	232.91	89.9304	232.91	90.0023
241.699	91.8329	241.699	91.7703	241.699	91.8464	241.699	91.6604	241.699	91.8112	241.699	91.5076	241.699	91.7295	241.699	91.3186	241.699	91.6058	241.699	91.1022	241.699	91.4457	241.699	90.8698	241.699	91.2566	241.699	90.6341	241.699	91.0465	241.699	90.4088	241.699	90.8244	241.699	90.2072	241.699	90.6002	241.699	90.0403	241.699	90.3845	241.699	89.9151	241.699	90.1884	241.699	89.8331	241.699	90.0225	241.699	89.7898	241.699	89.8953	241.699	89.7754	241.699	89.8111	241.699	89.7773	241.699	89.7674	241.699	89.7831	241.699	89.7557	241.699	89.7835	241.699	89.7629	241.699	89.7755
249.756	92.1143	249.756	92.0788	249.756	92.0932	249.756	91.9878	249.756	92.0166	249.756	91.8443	249.756	91.8877	249.756	91.6537	249.756	91.7118	249.756	91.4235	249.756	91.4962	249.756	91.164	249.756	91.2504	249.756	90.8876	249.756	90.9857	249.756	90.6097	249.756	90.7154	249.756	90.3468	249.756	90.4539	249.756	90.1161	249.756	90.2157	249.756	89.9317	249.756	90.0143	249.756	89.8021	249.756	89.8596	249.756	89.7275	249.756	89.7564	249.756	89.699	249.756	89.702	249.756	89.701	249.756	89.6869	249.756	89.7155	249.756	89.6964	249.756	89.7273	249.756	89.7143	249.756	89.7271
258.545	92.2366	258.545	92.1829	258.545	92.2355	258.545	92.0761	258.545	92.1798	258.545	91.9201	258.545	92.0723	258.545	91.7209	258.545	91.9172	258.545	91.4867	258.545	91.7212	258.545	91.2277	258.545	91.4924	258.545	90.9559	258.545	91.2409	258.545	90.6854	258.545	90.9785	258.545	90.4315	258.545	90.7187	258.545	90.2096	258.545	90.4759	258.545	90.0332	258.545	90.2645	258.545	89.9112	258.545	90.0966	258.545	89.8446	258.545	89.9793	258.545	89.8258	258.545	89.9123	258.545	89.8393	258.545	89.8868	258.545	89.8664	258.545	89.8877	258.545	89.8904	258.545	89.8975	258.545	89.9011
268.066	92.0806	268.066	92.0221	268.066	92.0825	268.066	91.9084	268.066	92.0286	268.066	91.7429	268.066	91.9215	268.066	91.5313	268.066	91.7651	268.066	91.2816	268.066	91.5646	268.066	91.004	268.066	91.3264	268.066	90.7103	268.066	91.0585	268.066	90.4144	268.066	90.7708	268.066	90.1319	268.066	90.4762	268.066	89.8789	268.066	90.1903	268.066	89.6709	268.066	89.9315	268.066	89.5199	268.066	89.7177	268.066	89.43	268.066	89.5626	268.066	89.3955	268.066	89.4705	268.066	89.4011	268.066	89.4336	268.066	89.4254	268.066	89.4336	268.066	89.448	268.066	89.4476	268.066	89.456
277.588	92.2587	277.588	92.2338	277.588	92.2183	277.588	92.1423	277.588	92.1171	277.588	91.9864	277.588	91.963	277.588	91.7715	277.588	91.7668	277.588	91.5063	277.588	91.5418	277.588	91.2032	277.588	91.3021	277.588	90.8783	277.588	91.0613	277.588	90.5514	277.588	90.8311	277.588	90.2449	277.588	90.6198	277.588	89.9818	277.588	90.4328	277.588	89.7815	277.588	90.2736	277.588	89.6551	277.588	90.1446	277.588	89.6023	277.588	90.0471	277.588	89.611	277.588	89.98	277.588	89.6607	277.588	89.9378	277.588	89.7287	277.588	89.9103	277.588	89.7951	277.588	89.8843	277.588	89.8479
287.109	92.3218	287.109	92.2946	287.109	92.2837	287.109	92.205	287.109	92.1789	287.109	92.0569	287.109	92.009	287.109	91.855	287.109	91.7788	287.109	91.6043	287.109	91.4979	287.109	91.3115	287.109	91.1806	287.109	90.9858	287.109	90.8463	287.109	90.6409	287.109	90.5183	287.109	90.2974	287.109	90.2212	287.109	89.983	287.109	89.9774	287.109	89.7294	287.109	89.8026	287.109	89.564	287.109	89.7022	287.109	89.4991	287.109	89.6705	287.109	89.5237	287.109	89.6917	287.109	89.6068	287.109	89.7435	287.109	89.7084	287.109	89.8004	287.109	89.793	287.109	89.8381	287.109	89.8383
297.363	92.5166	297.363	92.4601	297.363	92.5021	297.363	92.3366	297.363	92.4148	297.363	92.152	297.363	92.2542	297.363	91.9149	297.363	92.0209	297.363	91.6364	297.363	91.7176	297.363	91.3296	297.363	91.35	297.363	91.0086	297.363	90.9288	297.363	90.6876	297.363	90.4728	297.363	90.3799	297.363	90.011	297.363	90.0977	297.363	89.5836	297.363	89.853	297.363	89.2362	297.363	89.657	297.363	89.0081	297.363	89.5178	297.363	88.9152	297.363	89.4366	297.363	88.9415	297.363	89.4039	297.363	89.0445	297.363	89.3985	297.363	89.1736	297.363	89.3926	297.363	89.2866	297.363	89.3604
307.617	92.5535	307.617	92.4784	307.617	92.5589	307.617	92.3339	307.617	92.4964	307.617	92.1229	307.617	92.3693	307.617	91.8507	307.617	92.1821	307.617	91.5261	307.617	91.94	307.617	91.1617	307.617	91.6489	307.617	90.7748	307.617	91.316	307.617	90.3889	307.617	90.9514	307.617	90.0326	307.617	90.5704	307.617	89.7376	307.617	90.1963	307.617	89.5321	307.617	89.8614	307.617	89.4315	307.617	89.6026	307.617	89.4309	307.617	89.4498	307.617	89.5043	307.617	89.412	307.617	89.6113	307.617	89.4687	307.617	89.7093	307.617	89.5766	307.617	89.7636	307.617	89.6857	307.617	89.7555
318.604	92.6316	318.604	92.5691	318.604	92.6158	318.604	92.4281	318.604	92.5243	318.604	92.2107	318.604	92.3617	318.604	91.9212	318.604	92.1344	318.604	91.5669	318.604	91.8498	318.604	91.1581	318.604	91.5158	318.604	90.7093	318.604	91.1411	318.604	90.2416	318.604	90.7354	318.604	89.7841	318.604	90.3118	318.604	89.3745	318.604	89.8898	318.604	89.0547	318.604	89.4984	318.604	88.8585	318.604	89.1746	318.604	88.7957	318.604	88.9553	318.604	88.8438	318.604	88.8604	318.604	88.9533	318.604	88.8786	318.604	89.0665	318.604	88.9677	318.604	89.136	318.604	89.0706	318.604	89.1366
329.59	92.5994	329.59	92.5412	329.59	92.5874	329.59	92.412	329.59	92.508	329.59	92.2127	329.59	92.3655	329.59	91.9461	329.59	92.166	329.59	91.616	329.59	91.9166	329.59	91.2281	329.59	91.6253	329.59	90.7907	329.59	91.3008	329.59	90.3168	329.59	90.9526	329.59	89.8274	329.59	90.5922	329.59	89.3551	329.59	90.234	329.59	88.9434	329.59	89.8961	329.59	88.6397	329.59	89.5991	329.59	88.4777	329.59	89.3625	329.59	88.4588	329.59	89.1972	329.59	88.5478	329.59	89.0984	329.59	88.6886	329.59	89.0436	329.59	88.828	329.59	88.9994	329.59	88.9335
341.309	92.355	341.309	92.3461	341.309	92.2808	341.309	92.2563	341.309	92.1239	341.309	92.0901	341.309	91.8878	341.309	91.8541	341.309	91.5796	341.309	91.5561	341.309	91.2101	341.309	91.2055	341.309	90.7944	341.309	90.8138	341.309	90.353	341.309	90.3956	341.309	89.9121	341.309	89.9718	341.309	89.5038	341.309	89.5712	341.309	89.1642	341.309	89.231	341.309	88.9274	341.309	88.9907	341.309	88.815	341.309	88.8776	341.309	88.8256	341.309	88.8918	341.309	88.9313	341.309	89.0002	341.309	89.0841	341.309	89.1476	341.309	89.2307	341.309	89.2761	341.309	89.3259	341.309	89.3424
353.76	92.6344	353.76	92.575	353.76	92.6119	353.76	92.4372	353.76	92.5056	353.76	92.2265	353.76	92.3157	353.76	91.9494	353.76	92.0443	353.76	91.6133	353.76	91.6948	353.76	91.2257	353.76	91.2725	353.76	90.7956	353.76	90.7849	353.76	90.3353	353.76	90.2448	353.76	89.8636	353.76	89.675	353.76	89.4101	353.76	89.1136	353.76	89.0161	353.76	88.6181	353.76	88.7277	353.76	88.2577	353.76	88.5782	353.76	88.0872	353.76	88.5667	353.76	88.1137	353.76	88.6517	353.76	88.2847	353.76	88.7656	353.76	88.5124	353.76	88.8403	353.76	88.7123	353.76	88.828
366.211	92.7752	366.211	92.6899	366.211	92.7759	366.211	92.5203	366.211	92.6927	366.211	92.2685	366.211	92.5279	366.211	91.9387	366.211	92.2843	366.211	91.5372	366.211	91.9658	366.211	91.0739	366.211	91.577	366.211	90.5634	366.211	91.1241	366.211	90.0272	366.211	90.6168	366.211	89.4969	366.211	90.0713	366.211	89.0155	366.211	89.5152	366.211	88.6338	366.211	88.9927	366.211	88.3962	366.211	88.5631	366.211	88.32	366.211	88.2862	366.211	88.3801	366.211	88.1932	366.211	88.5156	366.211	88.2627	366.211	88.6528	366.211	88.426	366.211	88.7298	366.211	88.5986	366.211	88.7119
378.662	93.3775	378.662	93.2939	378.662	93.3759	378.662	93.1238	378.662	93.2915	378.662	92.8669	378.662	93.1274	378.662	92.5238	378.662	92.8867	378.662	92.0964	378.662	92.5723	378.662	91.5878	378.662	92.187	378.662	91.0047	378.662	91.7347	378.662	90.362	378.662	91.2227	378.662	89.6902	378.662	90.6662	378.662	89.0456	378.662	90.095	378.662	88.5146	378.662	89.5592	378.662	88.1942	378.662	89.1268	378.662	88.1412	378.662	88.8643	378.662	88.325	378.662	88.8	378.662	88.6386	378.662	88.8985	378.662	88.9568	378.662	89.0729	378.662	89.1849	378.662	89.224	378.662	89.2747
392.578	92.9564	392.578	92.9324	392.578	92.904	392.578	92.8322	392.578	92.7769	392.578	92.6578	392.578	92.5793	392.578	92.4113	392.578	92.3163	392.578	92.0939	392.578	91.9929	392.578	91.7047	392.578	91.613	392.578	91.2411	392.578	91.1789	392.578	90.7019	392.578	90.6935	392.578	90.0927	392.578	90.1648	392.578	89.4368	392.578	89.6137	392.578	88.788	392.578	89.082	392.578	88.2368	392.578	88.6348	392.578	87.8892	392.578	88.3433	392.578	87.8069	392.578	88.2453	392.578	87.9525	392.578	88.3114	392.578	88.2075	392.578	88.4525	392.578	88.4426	392.578	88.5647	392.578	88.571
405.762	93.1528	405.762	93.1026	405.762	93.1052	405.762	92.9578	405.762	92.9606	405.762	92.7252	405.762	92.7236	405.762	92.4139	405.762	92.4017	405.762	92.0338	405.762	92.004	405.762	91.5951	405.762	91.5398	405.762	91.1072	405.762	91.0184	405.762	90.5804	405.762	90.4511	405.762	90.0309	405.762	89.8572	405.762	89.4878	405.762	89.273	405.762	89.0008	405.762	88.7604	405.762	88.638	405.762	88.4013	405.762	88.4632	405.762	88.2651	405.762	88.4949	405.762	88.3584	405.762	88.6822	405.762	88.6067	405.762	88.9247	405.762	88.8925	405.762	89.1185	405.762	89.1088	405.762	89.1899
420.41	93.4456	420.41	93.3717	420.41	93.4387	420.41	93.2195	420.41	93.3494	420.41	92.9917	420.41	93.1772	420.41	92.6903	420.41	92.9218	420.41	92.3149	420.41	92.5826	420.41	91.8626	420.41	92.1577	420.41	91.3279	420.41	91.6432	420.41	90.7076	420.41	91.0345	420.41	90.0076	420.41	90.331	420.41	89.2577	420.41	89.5452	420.41	88.5271	420.41	88.7208	420.41	87.9306	420.41	87.9532	420.41	87.5911	420.41	87.3892	420.41	87.5547	420.41	87.1616	420.41	87.7389	420.41	87.2772	420.41	87.9833	420.41	87.5941	420.41	88.1407	420.41	87.9231	420.41	88.1255
435.059	92.9823	435.059	92.9335	435.059	92.9429	435.059	92.7945	435.059	92.8188	435.059	92.5649	435.059	92.6144	435.059	92.2454	435.059	92.3345	435.059	91.838	435.059	91.9836	435.059	91.3451	435.059	91.5649	435.059	90.771	435.059	91.0807	435.059	90.1245	435.059	90.5335	435.059	89.4261	435.059	89.932	435.059	88.7208	435.059	89.2998	435.059	88.092	435.059	88.6879	435.059	87.6577	435.059	88.1817	435.059	87.5199	435.059	87.8822	435.059	87.683	435.059	87.8489	435.059	88.0313	435.059	88.0444	435.059	88.4003	435.059	88.3449	435.059	88.6566	435.059	88.6083	435.059	88.7289
450.439	92.7063	450.439	92.6548	450.439	92.6748	450.439	92.5233	450.439	92.5608	450.439	92.3165	450.439	92.3675	450.439	92.0378	450.439	92.099	450.439	91.6863	450.439	91.7574	450.439	91.2535	450.439	91.3397	450.439	90.7227	450.439	90.8367	450.439	90.0719	450.439	90.2346	450.439	89.2812	450.439	89.5214	450.439	88.3499	450.439	88.7009	450.439	87.3293	450.439	87.8158	450.439	86.3704	450.439	86.9798	450.439	85.734	450.439	86.3808	450.439	85.6352	450.439	86.1856	450.439	86.0044	450.439	86.3781	450.439	86.542	450.439	86.7502	450.439	86.9743	450.439	87.0628	450.439	87.158
466.553	92.1874	466.553	92.128	466.553	92.1605	466.553	91.984	466.553	92.0491	466.553	91.7592	466.553	91.8574	466.553	91.4577	466.553	91.5893	466.553	91.0811	466.553	91.2458	466.553	90.6257	466.553	90.822	466.553	90.0832	466.553	90.307	466.553	89.4444	466.553	89.6861	466.553	88.7091	466.553	88.9493	466.553	87.9042	466.553	88.1061	466.553	87.1092	466.553	87.2141	466.553	86.4723	466.553	86.4122	466.553	86.1642	466.553	85.9121	466.553	86.2486	466.553	85.8691	466.553	86.604	466.553	86.2179	466.553	87.0138	466.553	86.7187	466.553	87.2959	466.553	87.1402	466.553	87.3474
482.666	91.8719	482.666	91.8272	482.666	91.8338	482.666	91.7009	482.666	91.7142	482.666	91.4956	482.666	91.5164	482.666	91.212	482.666	91.2436	482.666	90.8459	482.666	90.8965	482.666	90.385	482.666	90.4693	482.666	89.8082	482.666	89.9482	482.666	89.088	482.666	89.3123	482.666	88.1995	482.666	88.539	482.666	87.1395	482.666	87.6191	482.666	85.9691	482.666	86.5874	482.666	84.8825	482.666	85.5743	482.666	84.224	482.666	84.8387	482.666	84.2462	482.666	84.6406	482.666	84.7903	482.666	84.9635	482.666	85.4565	482.666	85.5034	482.666	85.9439	482.666	85.9476	482.666	86.1159
500.244	91.9759	500.244	91.9115	500.244	91.9518	500.244	91.7602	500.244	91.839	500.244	91.5238	500.244	91.6387	500.244	91.2028	500.244	91.3519	500.244	90.7934	500.244	90.9767	500.244	90.2863	500.244	90.5039	500.244	89.6649	500.244	89.9145	500.244	88.9066	500.244	89.1799	500.244	87.9894	500.244	88.2668	500.244	86.9112	500.244	87.1527	500.244	85.7353	500.244	85.8641	500.244	84.6719	500.244	84.5634	500.244	84.0987	500.244	83.652	500.244	84.27	500.244	83.5837	500.244	84.9612	500.244	84.2859	500.244	85.7138	500.244	85.2197	500.244	86.2079	500.244	85.9544	500.244	86.3002
517.822	91.5433	517.822	91.4864	517.822	91.5229	517.822	91.3569	517.822	91.4273	517.822	91.1639	517.822	91.2637	517.822	90.9169	517.822	91.0408	517.822	90.6165	517.822	90.7632	517.822	90.2464	517.822	90.424	517.822	89.7682	517.822	89.9997	517.822	89.1224	517.822	89.4476	517.822	88.2363	517.822	88.7087	517.822	87.0381	517.822	87.7167	517.822	85.4972	517.822	86.4198	517.822	83.7483	517.822	84.8431	517.822	82.3576	517.822	83.2555	517.822	82.1735	517.822	82.3458	517.822	83.071	517.822	82.6366	517.822	84.127	517.822	83.6066	517.822	84.7958	517.822	84.4873	517.822	84.9184
536.133	91.8139	536.133	91.7452	536.133	91.7654	536.133	91.5698	536.133	91.5977	536.133	91.3045	536.133	91.3166	536.133	90.9672	536.133	90.9329	536.133	90.5694	536.133	90.4577	536.133	90.107	536.133	89.8956	536.133	89.553	536.133	89.2375	536.133	88.8541	536.133	88.456	536.133	87.931	536.133	87.5036	536.133	86.6834	536.133	86.321	536.133	85.0066	536.133	84.8652	536.133	82.8781	536.133	83.1988	536.133	80.733	536.133	81.7153	536.133	80.0166	536.133	81.2247	536.133	81.2409	536.133	81.9683	536.133	82.8397	536.133	83.1271	536.133	83.9085	536.133	83.9918	536.133	84.2841
554.443	91.6943	554.443	91.6172	554.443	91.6686	554.443	91.4417	554.443	91.5463	554.443	91.1794	554.443	91.3423	554.443	90.844	554.443	91.0754	554.443	90.4431	554.443	90.7575	554.443	89.9696	554.443	90.3813	554.443	89.3965	554.443	89.9122	554.443	88.6765	554.443	89.2871	554.443	87.748	554.443	88.4205	554.443	86.5451	554.443	87.2107	554.443	85.0212	554.443	85.5499	554.443	83.2222	554.443	83.3736	554.443	81.485	554.443	80.9133	554.443	80.605	554.443	79.3787	554.443	81.0173	554.443	79.9982	554.443	82.0053	554.443	81.4917	554.443	82.7851	554.443	82.5954	554.443	83.0212
574.219	92.04	574.219	91.924	574.219	92.0307	574.219	91.6988	574.219	91.8938	574.219	91.3922	574.219	91.6391	574.219	91.038	574.219	91.2863	574.219	90.6625	574.219	90.859	574.219	90.2663	574.219	90.3753	574.219	89.8113	574.219	89.8331	574.219	89.2182	574.219	89.1979	574.219	88.3755	574.219	88.3983	574.219	87.1463	574.219	87.3304	574.219	85.3707	574.219	85.8704	574.219	82.8964	574.219	83.9093	574.219	79.8929	574.219	81.5243	574.219	78.2028	574.219	79.6097	574.219	79.6173	574.219	79.7905	574.219	81.6312	574.219	81.3371	574.219	82.8561	574.219	82.6351	574.219	83.174
594.727	91.6339	594.727	91.5248	594.727	91.589	594.727	91.2684	594.727	91.4011	594.727	90.8895	594.727	91.0981	594.727	90.43	594.727	90.7216	594.727	89.9417	594.727	90.3169	594.727	89.4651	594.727	89.9153	594.727	88.9986	594.727	89.5116	594.727	88.4762	594.727	89.0515	594.727	87.7724	594.727	88.4342	594.727	86.7295	594.727	87.5264	594.727	85.1892	594.727	86.1738	594.727	83.072	594.727	84.2203	594.727	80.7546	594.727	81.6401	594.727	79.8347	594.727	79.2774	594.727	81.0693	594.727	79.4041	594.727	82.6635	594.727	81.3353	594.727	83.6028	594.727	82.9432	594.727	83.7057
615.234	91.5636	615.234	91.4627	615.234	91.5072	615.234	91.2197	615.234	91.2938	615.234	90.8626	615.234	90.9401	615.234	90.4276	615.234	90.4803	615.234	89.9489	615.234	89.9603	615.234	89.4451	615.234	89.4216	615.234	88.9036	615.234	88.8732	615.234	88.2721	615.234	88.2694	615.234	87.4587	615.234	87.5111	615.234	86.3381	615.234	86.469	615.234	84.7602	615.234	85.0113	615.234	82.5886	615.234	83.055	615.234	79.9528	615.234	80.7809	615.234	78.2202	615.234	79.2489	615.234	79.1515	615.234	79.7518	615.234	81.0365	615.234	81.2494	615.234	82.3349	615.234	82.3926	615.234	82.7817
637.207	92.2288	637.207	92.0776	637.207	92.1768	637.207	91.7304	637.207	91.9309	637.207	91.2142	637.207	91.5174	637.207	90.5841	637.207	90.982	637.207	89.9244	637.207	90.3881	637.207	89.3274	637.207	89.8004	637.207	88.8359	637.207	89.2509	637.207	88.3852	637.207	88.7038	637.207	87.8005	637.207	88.0452	637.207	86.8403	637.207	87.0982	637.207	85.2183	637.207	85.6409	637.207	82.5836	637.207	83.4249	637.207	78.7704	637.207	80.3977	637.207	76.9045	637.207	78.304	637.207	80.072	637.207	80.05	637.207	82.9171	637.207	82.6343	637.207	84.4349	637.207	84.2581	637.207	84.8465
659.912	91.711	659.912	91.5781	659.912	91.6604	659.912	91.2691	659.912	91.4334	659.912	90.8092	659.912	91.0525	659.912	90.2462	659.912	90.5602	659.912	89.6508	659.912	90.0219	659.912	89.0961	659.912	89.5112	659.912	88.6106	659.912	89.0675	659.912	88.1316	659.912	88.6458	659.912	87.5041	659.912	88.1059	659.912	86.5183	659.912	87.2479	659.912	84.932	659.912	85.8405	659.912	82.4602	659.912	83.6124	659.912	78.9383	659.912	80.3128	659.912	76.4356	659.912	77.0271	659.912	78.7865	659.912	78.274	659.912	81.6845	659.912	81.2839	659.912	83.339	659.912	83.1566	659.912	83.8112
683.35	91.8093	683.35	91.6966	683.35	91.7079	683.35	91.3826	683.35	91.394	683.35	90.8951	683.35	90.8877	683.35	90.2806	683.35	90.2337	683.35	89.6076	683.35	89.508	683.35	88.9573	683.35	88.8108	683.35	88.3895	683.35	88.2266	683.35	87.8926	683.35	87.7572	683.35	87.3558	683.35	87.2851	683.35	86.5842	683.35	86.6062	683.35	85.325	683.35	85.4839	683.35	83.2771	683.35	83.6795	683.35	80.2039	683.35	81.0726	683.35	77.329	683.35	78.6242	683.35	78.7258	683.35	79.2962	683.35	81.6071	683.35	81.7169	683.35	83.3851	683.35	83.3998	683.35	83.958
706.787	91.8769	706.787	91.6992	706.787	91.8184	706.787	91.286	706.787	91.528	706.787	90.6501	706.787	91.0156	706.787	89.8315	706.787	90.305	706.787	88.923	706.787	89.4537	706.787	88.0879	706.787	88.577	706.787	87.5073	706.787	87.8366	706.787	87.2181	706.787	87.3297	706.787	87.0079	706.787	86.9445	706.787	86.5168	706.787	86.3753	706.787	85.3606	706.787	85.2489	706.787	83.1041	706.787	83.1542	706.787	79.1796	706.787	79.6117	706.787	75.2942	706.787	75.7911	706.787	78.8354	706.787	78.3831	706.787	82.5243	706.787	82.1233	706.787	84.4225	706.787	84.2189	706.787	84.9404
731.689	91.9893	731.689	91.8895	731.689	91.8579	731.689	91.5595	731.689	91.4975	731.689	91.0053	731.689	90.9158	731.689	90.2483	731.689	90.1341	731.689	89.3435	731.689	89.2035	731.689	88.3948	731.689	88.2246	731.689	87.532	731.689	87.3426	731.689	86.8274	731.689	86.6657	731.689	86.2132	731.689	86.1433	731.689	85.4838	731.689	85.545	731.689	84.3381	731.689	84.5418	731.689	82.3569	731.689	82.7268	731.689	78.8726	731.689	79.4918	731.689	73.5813	731.689	74.3426	731.689	75.2126	731.689	74.7882	731.689	79.8355	731.689	79.5375	731.689	82.2175	731.689	82.0957	731.689	82.9048
758.057	92.6469	758.057	92.4701	758.057	92.5693	758.057	92.046	758.057	92.2319	758.057	91.3851	758.057	91.634	758.057	90.5103	758.057	90.7889	758.057	89.4768	758.057	89.7395	758.057	88.3978	758.057	88.585	758.057	87.4477	758.057	87.4921	758.057	86.7788	758.057	86.6308	758.057	86.3538	758.057	86.0212	758.057	85.8861	758.057	85.4534	758.057	84.963	758.057	84.5772	758.057	83.1288	758.057	82.9918	758.057	79.7999	758.057	80.2164	758.057	74.6289	758.057	75.9352	758.057	74.6568	758.057	74.5381	758.057	78.9717	758.057	78.3949	758.057	81.2864	758.057	80.9945	758.057	81.8964
784.424	92.3897	784.424	92.2192	784.424	92.3198	784.424	91.8124	784.424	92.0031	784.424	91.1708	784.424	91.4341	784.424	90.2987	784.424	90.6154	784.424	89.2255	784.424	89.5716	784.424	88.0532	784.424	88.3723	784.424	86.9949	784.424	87.1633	784.424	86.2696	784.424	86.1567	784.424	85.8336	784.424	85.4808	784.424	85.3435	784.424	84.9701	784.424	84.4082	784.424	84.2086	784.424	82.6873	784.424	82.7149	784.424	79.7819	784.424	79.9266	784.424	75.5554	784.424	75.1045	784.424	74.7496	784.424	72.4197	784.424	78.437	784.424	77.2042	784.424	80.7352	784.424	80.2328	784.424	81.2996
812.256	92.3274	812.256	92.1934	812.256	92.2331	812.256	91.8252	812.256	91.9117	812.256	91.2127	812.256	91.3584	812.256	90.3441	812.256	90.5617	812.256	89.2181	812.256	89.5156	812.256	87.8784	812.256	88.2592	812.256	86.4823	812.256	86.936	812.256	85.3368	812.256	85.7851	812.256	84.6682	812.256	84.9317	812.256	84.2388	812.256	84.1813	812.256	83.4735	812.256	83.1533	812.256	81.8069	812.256	81.4504	812.256	78.7449	812.256	78.6019	812.256	74.9688	812.256	74.5252	812.256	76.4212	812.256	74.501	812.256	79.949	812.256	78.5639	812.256	81.8708	812.256	81.1997	812.256	82.2511
840.82	92.8671	840.82	92.7106	840.82	92.7697	840.82	92.3049	840.82	92.4216	840.82	91.6568	840.82	91.8377	840.82	90.7739	840.82	91.0408	840.82	89.6743	840.82	90.049	840.82	88.4156	840.82	88.8696	840.82	87.137	840.82	87.5383	840.82	86.0548	840.82	86.2339	840.82	85.3044	840.82	85.3149	840.82	84.7163	840.82	84.879	840.82	83.8381	840.82	84.3703	840.82	82.0842	840.82	83.0055	840.82	78.5925	840.82	79.95	840.82	71.3685	840.82	73.3204	840.82	71.2609	840.82	68.3096	840.82	77.8424	840.82	76.9924	840.82	80.6412	840.82	80.3833	840.82	81.3878
870.85	93.1534	870.85	93.0015	870.85	93.0684	870.85	92.598	870.85	92.755	870.85	91.9247	870.85	92.2105	870.85	90.9647	870.85	91.4191	870.85	89.7211	870.85	90.3674	870.85	88.2571	870.85	89.0853	870.85	86.7606	870.85	87.6987	870.85	85.5615	870.85	86.4396	870.85	84.9079	870.85	85.5336	870.85	84.611	870.85	85.0033	870.85	84.1228	870.85	84.5549	870.85	82.8318	870.85	83.6234	870.85	80.0041	870.85	81.4376	870.85	74.0273	870.85	76.5981	870.85	68.5132	870.85	66.3562	870.85	76.816	870.85	75.3762	870.85	80.3461	870.85	79.9125	870.85	81.2401
901.611	93.093	901.611	92.9303	901.611	93.0509	901.611	92.5671	901.611	92.7952	901.611	92.0019	901.611	92.3152	901.611	91.2292	901.611	91.5996	901.611	90.243	901.611	90.6376	901.611	89.0376	901.611	89.4241	901.611	87.6117	901.611	87.9811	901.611	86.0187	901.611	86.4255	901.611	84.5246	901.611	85.0543	901.611	83.6334	901.611	84.1827	901.611	83.3377	901.611	83.6506	901.611	82.7549	901.611	82.8373	901.611	80.9124	901.611	81.0808	901.611	76.7025	901.611	77.5785	901.611	68.7902	901.611	71.3463	901.611	73.681	901.611	72.9153	901.611	78.0962	901.611	77.6641	901.611	79.1925
933.105	93.0735	933.105	92.8972	933.105	93.0112	933.105	92.4976	933.105	92.7054	933.105	91.8848	933.105	92.1611	933.105	91.0426	933.105	91.3838	933.105	89.9247	933.105	90.3696	933.105	88.5006	933.105	89.1171	933.105	86.877	933.105	87.679	933.105	85.4684	933.105	86.2589	933.105	84.8008	933.105	85.2462	933.105	84.7079	933.105	84.8618	933.105	84.4483	933.105	84.7039	933.105	83.4488	933.105	84.065	933.105	81.2709	933.105	82.3079	933.105	77.173	933.105	78.6285	933.105	71.4259	933.105	71.4479	933.105	74.9016	933.105	72.0247	933.105	78.4607	933.105	77.3816	933.105	79.1872
966.064	92.8126	966.064	92.6343	966.064	92.7778	966.064	92.2708	966.064	92.5029	966.064	91.7273	966.064	91.9828	966.064	90.9792	966.064	91.228	966.064	89.9848	966.064	90.2395	966.064	88.7092	966.064	88.9969	966.064	87.1722	966.064	87.4975	966.064	85.545	966.064	85.8702	966.064	84.2244	966.064	84.5119	966.064	83.5595	966.064	83.8528	966.064	83.3301	966.064	83.6507	966.064	82.8429	966.064	83.1275	966.064	81.2696	966.064	81.5486	966.064	77.4971	966.064	78.0683	966.064	70.99	966.064	71.6369	966.064	74.9638	966.064	73.2135	966.064	78.8359	966.064	77.9929	966.064	79.6523
999.756	92.5155	999.756	92.4119	999.756	92.3921	999.756	92.0789	999.756	92.0579	999.756	91.5272	999.756	91.5361	999.756	90.7677	999.756	90.8447	999.756	89.7954	999.756	89.9781	999.756	88.5798	999.756	88.8895	999.756	87.0787	999.756	87.4905	999.756	85.3328	999.756	85.7253	999.756	83.7338	999.756	83.8874	999.756	83.0238	999.756	82.9787	999.756	83.0868	999.756	83.2284	999.756	82.8441	999.756	83.2066	999.756	81.4296	999.756	81.7847	999.756	77.9755	999.756	78.1122	999.756	70.864	999.756	70.5709	999.756	73.1767	999.756	72.7077	999.756	78.3299	999.756	78.0789	999.756	79.674
1,034.91	92.128	1,034.91	91.9847	1,034.91	92.0172	1,034.91	91.6068	1,034.91	91.6625	1,034.91	91.0301	1,034.91	91.1071	1,034.91	90.2913	1,034.91	90.4033	1,034.91	89.4113	1,034.91	89.5706	1,034.91	88.3783	1,034.91	88.5732	1,034.91	87.1388	1,034.91	87.3324	1,034.91	85.6245	1,034.91	85.7574	1,034.91	83.8643	1,034.91	83.8944	1,034.91	82.2548	1,034.91	82.2917	1,034.91	81.5262	1,034.91	81.689	1,034.91	81.4146	1,034.91	81.5668	1,034.91	80.5632	1,034.91	80.7652	1,034.91	77.7715	1,034.91	78.309	1,034.91	72.7604	1,034.91	72.6636	1,034.91	74.1508	1,034.91	70.4242	1,034.91	77.8684	1,034.91	76.5681	1,034.91	78.7058
1,071.53	92.0815	1,071.53	91.9627	1,071.53	91.9162	1,071.53	91.5646	1,071.53	91.5088	1,071.53	90.9453	1,071.53	90.9198	1,071.53	90.1828	1,071.53	90.1998	1,071.53	89.314	1,071.53	89.3674	1,071.53	88.2971	1,071.53	88.3931	1,071.53	87.0238	1,071.53	87.2109	1,071.53	85.3792	1,071.53	85.776	1,071.53	83.4488	1,071.53	84.1602	1,071.53	81.8753	1,071.53	82.6647	1,071.53	81.2783	1,071.53	81.7737	1,071.53	80.9767	1,071.53	81.4629	1,071.53	79.87	1,071.53	80.7573	1,071.53	76.8775	1,071.53	78.3536	1,071.53	70.371	1,071.53	72.182	1,071.53	71.9253	1,071.53	68.0745	1,071.53	76.8474	1,071.53	75.6157	1,071.53	77.8884
1,109.62	92.0519	1,109.62	91.8612	1,109.62	91.9602	1,109.62	91.3904	1,109.62	91.5905	1,109.62	90.6734	1,109.62	90.9537	1,109.62	89.7834	1,109.62	90.0818	1,109.62	88.7748	1,109.62	89.03	1,109.62	87.6081	1,109.62	87.8734	1,109.62	86.19	1,109.62	86.6666	1,109.62	84.5916	1,109.62	85.3278	1,109.62	83.203	1,109.62	83.685	1,109.62	82.3135	1,109.62	81.9967	1,109.62	81.7434	1,109.62	81.2299	1,109.62	81.2072	1,109.62	81.2925	1,109.62	80.1424	1,109.62	80.7951	1,109.62	77.3817	1,109.62	78.6494	1,109.62	71.6333	1,109.62	73.5525	1,109.62	73.4587	1,109.62	69.2441	1,109.62	77.7827	1,109.62	75.7093	1,109.62	78.4163
1,148.44	92.4267	1,148.44	92.2256	1,148.44	92.3097	1,148.44	91.7141	1,148.44	91.9034	1,148.44	90.9302	1,148.44	91.2436	1,148.44	89.9182	1,148.44	90.3479	1,148.44	88.7154	1,148.44	89.2404	1,148.44	87.3587	1,148.44	87.9893	1,148.44	85.9176	1,148.44	86.6786	1,148.44	84.4629	1,148.44	85.316	1,148.44	82.8968	1,148.44	83.8349	1,148.44	81.2241	1,148.44	82.3989	1,148.44	80.518	1,148.44	81.6257	1,148.44	81.1182	1,148.44	81.5486	1,148.44	80.8568	1,148.44	81.1121	1,148.44	77.8117	1,148.44	79.2587	1,148.44	68.6526	1,148.44	74.7829	1,148.44	72.3208	1,148.44	68.1682	1,148.44	77.3087	1,148.44	74.2181	1,148.44	77.5894
1,189.45	93.0876	1,189.45	92.8396	1,189.45	92.9752	1,189.45	92.2248	1,189.45	92.5293	1,189.45	91.299	1,189.45	91.7813	1,189.45	90.1895	1,189.45	90.7782	1,189.45	89.0098	1,189.45	89.5931	1,189.45	87.7448	1,189.45	88.3339	1,189.45	86.2906	1,189.45	87.1239	1,189.45	84.5911	1,189.45	85.9352	1,189.45	82.6652	1,189.45	84.4583	1,189.45	80.8602	1,189.45	82.5546	1,189.45	80.3062	1,189.45	81.1795	1,189.45	80.7785	1,189.45	81.1997	1,189.45	80.3782	1,189.45	81.0721	1,189.45	77.737	1,189.45	79.1929	1,189.45	71.0119	1,189.45	74.324	1,189.45	73.0377	1,189.45	71.0512	1,189.45	78.2734	1,189.45	76.7371	1,189.45	79.1767
1,231.2	93.2745	1,231.2	93.1021	1,231.2	93.0894	1,231.2	92.5547	1,231.2	92.5901	1,231.2	91.6648	1,231.2	91.8316	1,231.2	90.5209	1,231.2	90.8909	1,231.2	89.2406	1,231.2	89.8545	1,231.2	87.909	1,231.2	88.7361	1,231.2	86.4967	1,231.2	87.4617	1,231.2	84.88	1,231.2	86.0185	1,231.2	83.0946	1,231.2	84.4514	1,231.2	81.5332	1,231.2	82.6893	1,231.2	80.6069	1,231.2	81.0343	1,231.2	80.2966	1,231.2	80.4277	1,231.2	79.7143	1,231.2	80.3832	1,231.2	77.1562	1,231.2	79.0209	1,231.2	68.8301	1,231.2	74.0224	1,231.2	68.8605	1,231.2	67.7044	1,231.2	76.9379	1,231.2	76.4095	1,231.2	78.7212
1,274.41	93.6645	1,274.41	93.4931	1,274.41	93.4452	1,274.41	92.907	1,274.41	92.9007	1,274.41	91.9469	1,274.41	92.1058	1,274.41	90.7408	1,274.41	91.1284	1,274.41	89.4913	1,274.41	90.0416	1,274.41	88.3393	1,274.41	88.889	1,274.41	87.1714	1,274.41	87.6067	1,274.41	85.6801	1,274.41	86.0687	1,274.41	83.7364	1,274.41	84.1671	1,274.41	81.7367	1,274.41	81.8387	1,274.41	80.3857	1,274.41	79.7014	1,274.41	79.8664	1,274.41	79.6542	1,274.41	79.5482	1,274.41	80.7274	1,274.41	77.8954	1,274.41	80.0484	1,274.41	71.883	1,274.41	75.4509	1,274.41	65.3228	1,274.41	66.4278	1,274.41	76.0691	1,274.41	75.6649	1,274.41	78.1224
1,319.82	93.626	1,319.82	93.4245	1,319.82	93.4489	1,319.82	92.8559	1,319.82	92.9171	1,319.82	91.9722	1,319.82	92.0675	1,319.82	90.8658	1,319.82	90.947	1,319.82	89.682	1,319.82	89.6612	1,319.82	88.5613	1,319.82	88.3621	1,319.82	87.4642	1,319.82	87.0711	1,319.82	86.1501	1,319.82	85.6237	1,319.82	84.3942	1,319.82	83.8935	1,319.82	82.098	1,319.82	81.9507	1,319.82	79.8077	1,319.82	80.2746	1,319.82	79.5352	1,319.82	79.8629	1,319.82	80.1185	1,319.82	80.2303	1,319.82	78.5853	1,319.82	79.3514	1,319.82	72.6987	1,319.82	75.3147	1,319.82	68.1107	1,319.82	67.0243	1,319.82	75.8592	1,319.82	74.3992	1,319.82	77.4022
1,365.97	93.4037	1,365.97	93.1812	1,365.97	93.1919	1,365.97	92.5335	1,365.97	92.606	1,365.97	91.5802	1,365.97	91.6938	1,365.97	90.4608	1,365.97	90.4883	1,365.97	89.2371	1,365.97	89.089	1,365.97	87.9489	1,365.97	87.7271	1,365.97	86.6819	1,365.97	86.5608	1,365.97	85.4245	1,365.97	85.3812	1,365.97	83.8576	1,365.97	83.9002	1,365.97	81.6585	1,365.97	82.0338	1,365.97	79.7953	1,365.97	79.7648	1,365.97	79.7715	1,365.97	78.393	1,365.97	79.8504	1,365.97	79.1919	1,365.97	78.5627	1,365.97	78.7879	1,365.97	74.1976	1,365.97	74.5805	1,365.97	64.0926	1,365.97	64.4516	1,365.97	73.9811	1,365.97	72.9956	1,365.97	76.0534
1,414.31	93.3245	1,414.31	92.9994	1,414.31	93.1845	1,414.31	92.2582	1,414.31	92.5912	1,414.31	91.2348	1,414.31	91.5863	1,414.31	90.0241	1,414.31	90.288	1,414.31	88.6111	1,414.31	88.8644	1,414.31	87.0773	1,414.31	87.4374	1,414.31	85.6594	1,414.31	86.1072	1,414.31	84.322	1,414.31	84.8879	1,414.31	82.7756	1,414.31	83.526	1,414.31	81.1533	1,414.31	81.7546	1,414.31	79.9416	1,414.31	79.492	1,414.31	79.2532	1,414.31	77.2081	1,414.31	79.0254	1,414.31	77.0367	1,414.31	77.7074	1,414.31	77.6149	1,414.31	72.181	1,414.31	74.9738	1,414.31	64.005	1,414.31	61.5291	1,414.31	75.4337	1,414.31	73.6808	1,414.31	77.3849
1,464.11	93.5958	1,464.11	93.1812	1,464.11	93.4824	1,464.11	92.3004	1,464.11	92.885	1,464.11	91.1452	1,464.11	91.8986	1,464.11	89.8648	1,464.11	90.6795	1,464.11	88.3737	1,464.11	89.365	1,464.11	86.5727	1,464.11	87.915	1,464.11	84.817	1,464.11	86.2848	1,464.11	83.6008	1,464.11	84.6998	1,464.11	82.6915	1,464.11	83.2886	1,464.11	81.4484	1,464.11	81.9284	1,464.11	79.4546	1,464.11	80.4504	1,464.11	77.9104	1,464.11	78.4902	1,464.11	78.4544	1,464.11	77.4012	1,464.11	78.1329	1,464.11	77.8588	1,464.11	73.9191	1,464.11	75.8616	1,464.11	62.1961	1,464.11	66.7211	1,464.11	73.9778	1,464.11	71.5888	1,464.11	75.9914
1,515.38	93.5195	1,515.38	93.0904	1,515.38	93.487	1,515.38	92.3298	1,515.38	92.9517	1,515.38	91.3035	1,515.38	91.9945	1,515.38	89.9552	1,515.38	90.7538	1,515.38	88.2868	1,515.38	89.3478	1,515.38	86.4895	1,515.38	87.8536	1,515.38	84.8128	1,515.38	86.2856	1,515.38	83.457	1,515.38	84.5993	1,515.38	82.4661	1,515.38	83.0193	1,515.38	81.0828	1,515.38	81.8048	1,515.38	78.643	1,515.38	80.3321	1,515.38	77.1889	1,515.38	78.7394	1,515.38	78.4508	1,515.38	78.2034	1,515.38	78.6436	1,515.38	77.0215	1,515.38	74.8991	1,515.38	73.6387	1,515.38	61.1278	1,515.38	67.3747	1,515.38	74.1461	1,515.38	72.6941	1,515.38	76.2445
1,568.85	93.5514	1,568.85	93.2213	1,568.85	93.4882	1,568.85	92.6026	1,568.85	92.9112	1,568.85	91.588	1,568.85	91.8692	1,568.85	90.0547	1,568.85	90.5092	1,568.85	88.1916	1,568.85	88.9918	1,568.85	86.4	1,568.85	87.5491	1,568.85	84.792	1,568.85	86.2425	1,568.85	83.1744	1,568.85	84.7363	1,568.85	81.6503	1,568.85	83.0659	1,568.85	80.2589	1,568.85	81.6435	1,568.85	78.3987	1,568.85	80.0543	1,568.85	76.7783	1,568.85	78.2498	1,568.85	77.3153	1,568.85	77.5261	1,568.85	77.5613	1,568.85	76.761	1,568.85	74.4826	1,568.85	73.4399	1,568.85	56.5567	1,568.85	61.3541	1,568.85	73.1421	1,568.85	72.9997	1,568.85	76.4221
1,624.51	93.0715	1,624.51	92.8442	1,624.51	92.8789	1,624.51	92.1956	1,624.51	92.2216	1,624.51	91.0582	1,624.51	91.1473	1,624.51	89.4657	1,624.51	89.7869	1,624.51	87.6633	1,624.51	88.2358	1,624.51	86.1174	1,624.51	86.5351	1,624.51	85.123	1,624.51	84.936	1,624.51	84.216	1,624.51	83.7597	1,624.51	82.8825	1,624.51	82.5344	1,624.51	80.9209	1,624.51	80.9138	1,624.51	77.8667	1,624.51	79.1791	1,624.51	75.0408	1,624.51	76.5795	1,624.51	76.374	1,624.51	75.2845	1,624.51	78.0252	1,624.51	77.3344	1,624.51	76.2731	1,624.51	76.6555	1,624.51	64.4712	1,624.51	66.8122	1,624.51	72.6029	1,624.51	71.9184	1,624.51	76.5928
1,681.64	92.1938	1,681.64	92.0608	1,681.64	92.019	1,681.64	91.5085	1,681.64	91.4949	1,681.64	90.3648	1,681.64	90.5685	1,681.64	88.709	1,681.64	89.2578	1,681.64	86.9234	1,681.64	87.6619	1,681.64	85.3805	1,681.64	85.8415	1,681.64	84.1283	1,681.64	84.001	1,681.64	82.7705	1,681.64	82.788	1,681.64	81.8446	1,681.64	82.0439	1,681.64	81.3754	1,681.64	81.0466	1,681.64	79.478	1,681.64	79.9081	1,681.64	75.429	1,681.64	77.5927	1,681.64	74.232	1,681.64	75.1022	1,681.64	77.1532	1,681.64	76.3767	1,681.64	75.5999	1,681.64	75.7163	1,681.64	62.0677	1,681.64	67.6078	1,681.64	72.0211	1,681.64	68.1248	1,681.64	74.4552
1,740.97	92.2834	1,740.97	92.0906	1,740.97	92.1357	1,740.97	91.3632	1,740.97	91.7778	1,740.97	90.0475	1,740.97	91.0781	1,740.97	88.4472	1,740.97	89.8383	1,740.97	86.9395	1,740.97	88.1313	1,740.97	85.1567	1,740.97	86.3032	1,740.97	82.6706	1,740.97	84.5498	1,740.97	80.4612	1,740.97	82.8582	1,740.97	79.5389	1,740.97	81.709	1,740.97	79.8384	1,740.97	81.1906	1,740.97	79.7591	1,740.97	80.4218	1,740.97	77.0631	1,740.97	78.1823	1,740.97	72.3084	1,740.97	75.0825	1,740.97	73.2669	1,740.97	77.0233	1,740.97	73.3991	1,740.97	77.0382	1,740.97	66.374	1,740.97	71.0051	1,740.97	68.4731	1,740.97	62.6101	1,740.97	71.5086
1,802.49	92.5972	1,802.49	92.2588	1,802.49	92.4179	1,802.49	91.3822	1,802.49	91.9767	1,802.49	90.2957	1,802.49	91.291	1,802.49	89.1424	1,802.49	90.1039	1,802.49	87.5602	1,802.49	88.4483	1,802.49	85.5286	1,802.49	86.6234	1,802.49	83.4879	1,802.49	84.7811	1,802.49	81.3172	1,802.49	83.2756	1,802.49	79.2666	1,802.49	81.8816	1,802.49	78.8375	1,802.49	80.1047	1,802.49	79.2449	1,802.49	79.4578	1,802.49	77.8793	1,802.49	78.5655	1,802.49	74.0264	1,802.49	75.4676	1,802.49	71.596	1,802.49	75.0193	1,802.49	68.7838	1,802.49	75.6188	1,802.49	57.7743	1,802.49	69.9091	1,802.49	71.6928	1,802.49	66.3711	1,802.49	73.5859
1,866.21	92.2685	1,866.21	91.9404	1,866.21	91.945	1,866.21	91.076	1,866.21	91.1787	1,866.21	90.0327	1,866.21	90.3215	1,866.21	89.0013	1,866.21	89.2377	1,866.21	87.6096	1,866.21	87.5951	1,866.21	85.6594	1,866.21	85.8934	1,866.21	83.7966	1,866.21	84.5157	1,866.21	82.1995	1,866.21	82.8543	1,866.21	79.8739	1,866.21	80.9077	1,866.21	77.7559	1,866.21	78.9952	1,866.21	78.672	1,866.21	78.7084	1,866.21	78.3917	1,866.21	78.5122	1,866.21	75.887	1,866.21	74.9489	1,866.21	74.2578	1,866.21	73.8528	1,866.21	72.0527	1,866.21	73.4782	1,866.21	58.3726	1,866.21	64.9644	1,866.21	71.1806	1,866.21	67.5951	1,866.21	73.3307
1,932.13	91.3654	1,932.13	90.9605	1,932.13	91.1961	1,932.13	90.1349	1,932.13	90.385	1,932.13	89.0504	1,932.13	89.1147	1,932.13	87.7429	1,932.13	87.7485	1,932.13	86.3369	1,932.13	86.2543	1,932.13	84.8117	1,932.13	84.5216	1,932.13	82.9454	1,932.13	83.0475	1,932.13	81.6815	1,932.13	81.513	1,932.13	80.8347	1,932.13	79.3424	1,932.13	78.7756	1,932.13	77.7119	1,932.13	77.6456	1,932.13	76.7744	1,932.13	76.6389	1,932.13	77.5747	1,932.13	75.0612	1,932.13	76.1643	1,932.13	75.5822	1,932.13	73.1206	1,932.13	73.802	1,932.13	73.0458	1,932.13	65.0426	1,932.13	64.6327	1,932.13	68.5463	1,932.13	68.029	1,932.13	73.12
2,000.24	91.6431	2,000.24	91.188	2,000.24	91.5404	2,000.24	90.3015	2,000.24	90.893	2,000.24	89.1069	2,000.24	89.7492	2,000.24	87.481	2,000.24	88.424	2,000.24	85.5656	2,000.24	87.1749	2,000.24	83.6137	2,000.24	85.5207	2,000.24	81.5902	2,000.24	83.238	2,000.24	80.4698	2,000.24	81.2613	2,000.24	79.9487	2,000.24	80.3593	2,000.24	77.7357	2,000.24	79.5034	2,000.24	76.4035	2,000.24	77.8167	2,000.24	76.1029	2,000.24	77.1275	2,000.24	73.1782	2,000.24	76.1806	2,000.24	75.1752	2,000.24	74.7986	2,000.24	75.946	2,000.24	75.1886	2,000.24	68.2065	2,000.24	71.1868	2,000.24	66.4959	2,000.24	61.1158	2,000.24	71.5884
2,070.56	92.5625	2,070.56	92.1862	2,070.56	92.4596	2,070.56	91.4071	2,070.56	91.9428	2,070.56	90.2623	2,070.56	90.9116	2,070.56	88.5933	2,070.56	89.3815	2,070.56	86.6658	2,070.56	87.74	2,070.56	84.7813	2,070.56	86.0017	2,070.56	82.8384	2,070.56	83.8378	2,070.56	81.1291	2,070.56	81.9356	2,070.56	79.4458	2,070.56	80.9876	2,070.56	76.8869	2,070.56	79.6422	2,070.56	74.7138	2,070.56	77.8407	2,070.56	75.5743	2,070.56	77.1452	2,070.56	75.0057	2,070.56	75.5431	2,070.56	74.35	2,070.56	74.6629	2,070.56	74.6212	2,070.56	76.0574	2,070.56	69.1913	2,070.56	71.2787	2,070.56	61.843	2,070.56	62.8729	2,070.56	70.3832
2,143.8	92.379	2,143.8	92.2233	2,143.8	92.0997	2,143.8	91.4923	2,143.8	91.43	2,143.8	90.1384	2,143.8	90.5783	2,143.8	88.7093	2,143.8	89.4457	2,143.8	87.3182	2,143.8	87.9323	2,143.8	85.3058	2,143.8	86.2907	2,143.8	83.1525	2,143.8	84.0612	2,143.8	81.8809	2,143.8	81.6085	2,143.8	80.7472	2,143.8	80.6065	2,143.8	78.613	2,143.8	79.1497	2,143.8	76.9273	2,143.8	76.3131	2,143.8	77.0914	2,143.8	76.0576	2,143.8	74.0934	2,143.8	76.4349	2,143.8	72.9847	2,143.8	72.6854	2,143.8	74.027	2,143.8	75.1096	2,143.8	70.1519	2,143.8	72.6449	2,143.8	57.684	2,143.8	63.1892	2,143.8	69.9212
2,219.24	91.1962	2,219.24	90.7203	2,219.24	91.3151	2,219.24	90.0946	2,219.24	90.7731	2,219.24	89.0668	2,219.24	89.6952	2,219.24	87.7804	2,219.24	88.399	2,219.24	86.5123	2,219.24	86.9596	2,219.24	84.6687	2,219.24	85.4029	2,219.24	82.1528	2,219.24	83.6737	2,219.24	79.5082	2,219.24	81.8125	2,219.24	79.1909	2,219.24	80.0787	2,219.24	79.2008	2,219.24	76.8921	2,219.24	75.8556	2,219.24	74.335	2,219.24	76.6958	2,219.24	76.2176	2,219.24	75.2563	2,219.24	76.2899	2,219.24	68.9898	2,219.24	73.0074	2,219.24	73.5814	2,219.24	73.7591	2,219.24	71.7062	2,219.24	73.9297	2,219.24	57.9958	2,219.24	62.8717	2,219.24	69.0651
2,297.61	91.9616	2,297.61	91.7408	2,297.61	91.9141	2,297.61	90.8246	2,297.61	91.3094	2,297.61	89.0587	2,297.61	90.016	2,297.61	87.0328	2,297.61	88.8608	2,297.61	85.5782	2,297.61	87.9696	2,297.61	84.5798	2,297.61	86.7752	2,297.61	82.8243	2,297.61	84.9539	2,297.61	80.0622	2,297.61	82.289	2,297.61	77.7646	2,297.61	80.3611	2,297.61	76.8356	2,297.61	79.7665	2,297.61	74.1158	2,297.61	77.5184	2,297.61	73.8635	2,297.61	75.8046	2,297.61	75.2612	2,297.61	76.841	2,297.61	71.1308	2,297.61	73.2713	2,297.61	71.0647	2,297.61	72.9636	2,297.61	69.8532	2,297.61	72.8421	2,297.61	53.7184	2,297.61	62.9628	2,297.61	67.3996
2,378.17	92.5623	2,378.17	92.3289	2,378.17	92.2835	2,378.17	91.5412	2,378.17	91.8526	2,378.17	90.3816	2,378.17	91.1345	2,378.17	89.0389	2,378.17	89.8746	2,378.17	87.3444	2,378.17	88.3981	2,378.17	85.5341	2,378.17	86.5335	2,378.17	84.0049	2,378.17	84.3656	2,378.17	81.2703	2,378.17	82.0629	2,378.17	77.8238	2,378.17	80.4049	2,378.17	76.7434	2,378.17	80.0698	2,378.17	74.5738	2,378.17	77.7288	2,378.17	74.6193	2,378.17	75.2597	2,378.17	74.4739	2,378.17	75.6871	2,378.17	72.4748	2,378.17	73.7532	2,378.17	72.9167	2,378.17	70.1739	2,378.17	67.214	2,378.17	66.8951	2,378.17	55.0209	2,378.17	65.3174	2,378.17	69.0539
2,462.4	92.5589	2,462.4	92.2322	2,462.4	92.2651	2,462.4	91.3773	2,462.4	91.6265	2,462.4	90.3782	2,462.4	90.8494	2,462.4	89.0578	2,462.4	89.6205	2,462.4	87.1854	2,462.4	87.9103	2,462.4	85.358	2,462.4	86.0212	2,462.4	83.7304	2,462.4	84.1748	2,462.4	81.6872	2,462.4	82.4101	2,462.4	78.5168	2,462.4	79.6392	2,462.4	77.2834	2,462.4	78.2001	2,462.4	76.0476	2,462.4	76.921	2,462.4	71.1777	2,462.4	74.0272	2,462.4	73.8811	2,462.4	75.1687	2,462.4	72.6443	2,462.4	74.0865	2,462.4	73.266	2,462.4	72.2701	2,462.4	70.6003	2,462.4	72.2938	2,462.4	60.7992	2,462.4	65.6785	2,462.4	66.4076
2,548.83	92.2485	2,548.83	91.8801	2,548.83	92.1874	2,548.83	91.2035	2,548.83	91.7172	2,548.83	90.27	2,548.83	90.9406	2,548.83	89.0275	2,548.83	89.7036	2,548.83	87.3239	2,548.83	88.107	2,548.83	85.3511	2,548.83	86.1975	2,548.83	83.2653	2,548.83	84.1891	2,548.83	81.0671	2,548.83	82.4313	2,548.83	78.9156	2,548.83	80.2305	2,548.83	76.9131	2,548.83	78.2433	2,548.83	76.0648	2,548.83	77.3407	2,548.83	73.5814	2,548.83	73.6623	2,548.83	73.297	2,548.83	74.3536	2,548.83	71.5006	2,548.83	73.3792	2,548.83	71.314	2,548.83	72.0444	2,548.83	70.6414	2,548.83	72.2673	2,548.83	63.8183	2,548.83	62.1986	2,548.83	58.5838
2,638.92	92.2724	2,638.92	91.9667	2,638.92	92.2437	2,638.92	91.3222	2,638.92	91.8937	2,638.92	90.4509	2,638.92	91.1934	2,638.92	89.2788	2,638.92	90.0042	2,638.92	87.681	2,638.92	88.3836	2,638.92	85.6079	2,638.92	86.4573	2,638.92	83.3764	2,638.92	84.2831	2,638.92	81.2839	2,638.92	82.6055	2,638.92	78.8361	2,638.92	80.6334	2,638.92	76.4327	2,638.92	77.8562	2,638.92	75.6772	2,638.92	76.6707	2,638.92	73.2216	2,638.92	74.6811	2,638.92	72.9531	2,638.92	74.1924	2,638.92	70.4046	2,638.92	73.9243	2,638.92	70.851	2,638.92	69.8778	2,638.92	71.1974	2,638.92	72.9844	2,638.92	57.5954	2,638.92	66.6506	2,638.92	54.9259
2,731.93	92.0474	2,731.93	91.7341	2,731.93	92.0309	2,731.93	91.1474	2,731.93	91.7639	2,731.93	90.2841	2,731.93	91.1158	2,731.93	89.0264	2,731.93	90.112	2,731.93	87.5087	2,731.93	88.6676	2,731.93	85.4809	2,731.93	86.6193	2,731.93	83.3466	2,731.93	84.4134	2,731.93	81.3747	2,731.93	82.159	2,731.93	79.0062	2,731.93	79.5621	2,731.93	76.8726	2,731.93	76.7841	2,731.93	75.7434	2,731.93	75.8988	2,731.93	75.3647	2,731.93	73.7101	2,731.93	74.1866	2,731.93	73.0226	2,731.93	72.5883	2,731.93	72.8629	2,731.93	66.9184	2,731.93	68.5739	2,731.93	70.6239	2,731.93	69.9318	2,731.93	61.2295	2,731.93	66.3922	2,731.93	56.8234
2,828.61	91.9694	2,828.61	91.7322	2,828.61	92.022	2,828.61	91.327	2,828.61	91.9541	2,828.61	90.6378	2,828.61	91.5593	2,828.61	89.2629	2,828.61	90.5238	2,828.61	87.3606	2,828.61	89.0506	2,828.61	85.1737	2,828.61	87.0995	2,828.61	82.4181	2,828.61	84.5275	2,828.61	80.226	2,828.61	82.3482	2,828.61	78.5508	2,828.61	80.5057	2,828.61	76.5298	2,828.61	77.8039	2,828.61	75.2373	2,828.61	76.2374	2,828.61	73.0866	2,828.61	75.4065	2,828.61	74.4913	2,828.61	73.2962	2,828.61	72.8089	2,828.61	74.9494	2,828.61	70.6333	2,828.61	69.9839	2,828.61	70.9532	2,828.61	71.4734	2,828.61	63.9394	2,828.61	64.6126	2,828.61	60.4209
2,928.22	91.7773	2,928.22	91.7783	2,928.22	91.8651	2,928.22	91.5596	2,928.22	91.872	2,928.22	90.8631	2,928.22	91.3313	2,928.22	89.4764	2,928.22	90.2123	2,928.22	87.4635	2,928.22	88.6997	2,928.22	85.078	2,928.22	86.5233	2,928.22	82.5337	2,928.22	84.0966	2,928.22	80.3328	2,928.22	81.9155	2,928.22	78.4909	2,928.22	80.0618	2,928.22	76.5269	2,928.22	78.1932	2,928.22	75.4038	2,928.22	76.1718	2,928.22	72.5554	2,928.22	75.1741	2,928.22	72.8035	2,928.22	73.6887	2,928.22	73.6712	2,928.22	74.8772	2,928.22	68.3297	2,928.22	72.1226	2,928.22	70.4887	2,928.22	70.6285	2,928.22	53.1581	2,928.22	67.3212	2,928.22	61.0828
3,031.49	92.1151	3,031.49	91.7619	3,031.49	92.1556	3,031.49	91.1688	3,031.49	91.7191	3,031.49	90.1118	3,031.49	90.8292	3,031.49	88.5164	3,031.49	89.454	3,031.49	86.3357	3,031.49	87.6194	3,031.49	83.9727	3,031.49	85.3591	3,031.49	81.8934	3,031.49	82.9952	3,031.49	79.6146	3,031.49	80.585	3,031.49	78.1031	3,031.49	78.8525	3,031.49	76.2434	3,031.49	78.1384	3,031.49	76.3659	3,031.49	75.9992	3,031.49	74.8896	3,031.49	74.8293	3,031.49	72.4801	3,031.49	71.5697	3,031.49	74.3466	3,031.49	74.7731	3,031.49	70.5719	3,031.49	72.2849	3,031.49	71.3416	3,031.49	72.4829	3,031.49	64.5757	3,031.49	65.344	3,031.49	60.8955
3,138.43	92.8328	3,138.43	92.4504	3,138.43	92.7773	3,138.43	91.7025	3,138.43	92.2847	3,138.43	90.5195	3,138.43	91.3806	3,138.43	88.8569	3,138.43	89.9631	3,138.43	86.8487	3,138.43	88.034	3,138.43	84.0735	3,138.43	85.6788	3,138.43	81.4895	3,138.43	83.1368	3,138.43	79.4515	3,138.43	80.9988	3,138.43	77.1804	3,138.43	78.3384	3,138.43	75.7766	3,138.43	76.6774	3,138.43	73.7106	3,138.43	75.9502	3,138.43	74.3555	3,138.43	74.5622	3,138.43	70.4287	3,138.43	71.7037	3,138.43	74.2362	3,138.43	72.848	3,138.43	69.8286	3,138.43	72.6988	3,138.43	70.7551	3,138.43	71.5346	3,138.43	52.6436	3,138.43	68.3453	3,138.43	62.2651
3,249.02	92.7565	3,249.02	92.4238	3,249.02	92.6757	3,249.02	91.788	3,249.02	92.2316	3,249.02	90.7154	3,249.02	91.3944	3,249.02	88.8367	3,249.02	89.8815	3,249.02	86.344	3,249.02	87.8747	3,249.02	83.9428	3,249.02	85.4351	3,249.02	81.4457	3,249.02	82.94	3,249.02	79.0026	3,249.02	80.506	3,249.02	76.5485	3,249.02	77.948	3,249.02	75.3076	3,249.02	76.3879	3,249.02	72.7427	3,249.02	75.4701	3,249.02	73.5135	3,249.02	75.5033	3,249.02	70.4376	3,249.02	72.1992	3,249.02	71.5962	3,249.02	72.0771	3,249.02	68.3185	3,249.02	71.5046	3,249.02	71.4629	3,249.02	72.3917	3,249.02	64.9893	3,249.02	66.9556	3,249.02	63.5067
3,363.28	92.1701	3,363.28	91.9272	3,363.28	92.0344	3,363.28	91.3267	3,363.28	91.6053	3,363.28	90.2896	3,363.28	90.7265	3,363.28	88.5434	3,363.28	89.2022	3,363.28	86.1531	3,363.28	87.2154	3,363.28	83.7467	3,363.28	84.6709	3,363.28	81.2502	3,363.28	82.1499	3,363.28	79.1297	3,363.28	80.4566	3,363.28	76.8199	3,363.28	77.8967	3,363.28	75.0605	3,363.28	75.2265	3,363.28	72.9521	3,363.28	73.0758	3,363.28	71.1655	3,363.28	73.762	3,363.28	69.5715	3,363.28	72.1588	3,363.28	71.9556	3,363.28	71.6313	3,363.28	68.6193	3,363.28	69.0822	3,363.28	70.2874	3,363.28	69.1634	3,363.28	62.1802	3,363.28	67.0279	3,363.28	64.237
3,481.93	92.0461	3,481.93	91.7996	3,481.93	92.1615	3,481.93	91.0192	3,481.93	91.8646	3,481.93	89.8333	3,481.93	90.7801	3,481.93	88.1426	3,481.93	89.4128	3,481.93	85.9975	3,481.93	87.1905	3,481.93	83.6971	3,481.93	84.7045	3,481.93	81.1973	3,481.93	82.0388	3,481.93	78.3631	3,481.93	80.0958	3,481.93	76.7821	3,481.93	78.5372	3,481.93	75.0932	3,481.93	75.2229	3,481.93	73.505	3,481.93	73.5637	3,481.93	70.3906	3,481.93	71.8823	3,481.93	68.159	3,481.93	72.0318	3,481.93	70.5729	3,481.93	70.6962	3,481.93	68.0381	3,481.93	71.2145	3,481.93	68.136	3,481.93	67.7917	3,481.93	61.4852	3,481.93	65.2281	3,481.93	62.7765
3,604.98	92.7712	3,604.98	92.4627	3,604.98	92.7212	3,604.98	91.6741	3,604.98	92.0714	3,604.98	90.2628	3,604.98	90.9858	3,604.98	88.7562	3,604.98	89.5771	3,604.98	86.6846	3,604.98	87.5298	3,604.98	84.3303	3,604.98	84.9886	3,604.98	82.0865	3,604.98	82.4939	3,604.98	79.2926	3,604.98	79.3943	3,604.98	76.8081	3,604.98	78.0563	3,604.98	74.7489	3,604.98	76.7869	3,604.98	73.9678	3,604.98	75.2109	3,604.98	73.1885	3,604.98	72.5578	3,604.98	69.4344	3,604.98	71.8749	3,604.98	68.7682	3,604.98	67.9333	3,604.98	69.2085	3,604.98	70.6809	3,604.98	67.1826	3,604.98	69.273	3,604.98	63.6316	3,604.98	65.5832	3,604.98	61.4435
3,732.42	92.3043	3,732.42	91.8947	3,732.42	92.2094	3,732.42	91.2668	3,732.42	91.5475	3,732.42	89.8642	3,732.42	90.5089	3,732.42	88.1295	3,732.42	88.7156	3,732.42	86.4006	3,732.42	86.876	3,732.42	84.398	3,732.42	84.8836	3,732.42	82.3014	3,732.42	82.7081	3,732.42	79.9198	3,732.42	80.208	3,732.42	77.248	3,732.42	77.4542	3,732.42	74.6785	3,732.42	75.3592	3,732.42	73.858	3,732.42	74.2699	3,732.42	73.625	3,732.42	72.8721	3,732.42	72.2953	3,732.42	72.3649	3,732.42	68.9394	3,732.42	70.1008	3,732.42	69.9077	3,732.42	70.6582	3,732.42	69.3225	3,732.42	68.7067	3,732.42	65.1204	3,732.42	66.9523	3,732.42	66.7618
3,863.53	92.6592	3,863.53	92.2384	3,863.53	92.4525	3,863.53	91.3158	3,863.53	91.8341	3,863.53	90.0648	3,863.53	90.495	3,863.53	88.2139	3,863.53	88.6472	3,863.53	86.2222	3,863.53	86.6955	3,863.53	84.0021	3,863.53	84.8425	3,863.53	81.8282	3,863.53	82.6373	3,863.53	79.675	3,863.53	80.5198	3,863.53	77.7013	3,863.53	78.0933	3,863.53	75.1613	3,863.53	74.9104	3,863.53	72.8437	3,863.53	73.3837	3,863.53	71.4488	3,863.53	71.4796	3,863.53	72.42	3,863.53	72.8567	3,863.53	69.4636	3,863.53	70.5695	3,863.53	68.822	3,863.53	70.5686	3,863.53	68.0074	3,863.53	66.4623	3,863.53	65.9425	3,863.53	64.8825	3,863.53	66.5993
3,999.76	92.8931	3,999.76	92.5457	3,999.76	92.7584	3,999.76	91.3788	3,999.76	92.0531	3,999.76	89.8596	3,999.76	90.4923	3,999.76	88.0642	3,999.76	88.7425	3,999.76	86.2954	3,999.76	86.9429	3,999.76	84.5215	3,999.76	84.8973	3,999.76	81.9997	3,999.76	82.4976	3,999.76	79.2582	3,999.76	80.4514	3,999.76	77.5507	3,999.76	78.6949	3,999.76	75.6759	3,999.76	76.2912	3,999.76	72.9039	3,999.76	74.0012	3,999.76	72.2964	3,999.76	71.9275	3,999.76	70.701	3,999.76	70.1553	3,999.76	70.9759	3,999.76	69.6735	3,999.76	70.5463	3,999.76	70.3901	3,999.76	66.8115	3,999.76	66.1383	3,999.76	63.0079	3,999.76	65.2363	3,999.76	64.2835
4,141.11	92.812	4,141.11	92.4384	4,141.11	92.6881	4,141.11	91.5906	4,141.11	91.5715	4,141.11	90.0159	4,141.11	90.4585	4,141.11	88.7383	4,141.11	89.162	4,141.11	87.1242	4,141.11	87.2182	4,141.11	85.1425	4,141.11	84.9432	4,141.11	83.147	4,141.11	82.9223	4,141.11	80.0095	4,141.11	80.006	4,141.11	76.6523	4,141.11	77.2798	4,141.11	75.0563	4,141.11	76.4746	4,141.11	72.5135	4,141.11	74.6723	4,141.11	71.1693	4,141.11	72.5329	4,141.11	70.5041	4,141.11	69.6232	4,141.11	64.8783	4,141.11	65.8791	4,141.11	69.4587	4,141.11	69.0637	4,141.11	64.3327	4,141.11	66.1085	4,141.11	60.6123	4,141.11	61.2718	4,141.11	61.0059
4,286.87	92.361	4,286.87	91.66	4,286.87	92.1535	4,286.87	90.7925	4,286.87	91.1598	4,286.87	89.8144	4,286.87	90.2998	4,286.87	88.3363	4,286.87	89.2952	4,286.87	86.5024	4,286.87	87.723	4,286.87	84.5548	4,286.87	85.6639	4,286.87	82.6229	4,286.87	83.162	4,286.87	80.543	4,286.87	80.6869	4,286.87	78.1129	4,286.87	78.0387	4,286.87	76.6105	4,286.87	74.8181	4,286.87	75.8861	4,286.87	72.9683	4,286.87	71.8225	4,286.87	72.5687	4,286.87	72.5831	4,286.87	70.7586	4,286.87	69.2509	4,286.87	68.1291	4,286.87	70.106	4,286.87	67.1758	4,286.87	68.0535	4,286.87	64.5731	4,286.87	65.575	4,286.87	63.6344	4,286.87	64.198
4,438.48	92.1929	4,438.48	91.8498	4,438.48	91.7323	4,438.48	90.8415	4,438.48	91.396	4,438.48	90.429	4,438.48	90.2846	4,438.48	89.0133	4,438.48	89.0117	4,438.48	87.1133	4,438.48	87.0152	4,438.48	84.7078	4,438.48	84.9704	4,438.48	81.7811	4,438.48	82.6249	4,438.48	79.5753	4,438.48	80.3511	4,438.48	78.0197	4,438.48	78.4337	4,438.48	75.3316	4,438.48	76.0871	4,438.48	73.2554	4,438.48	73.6227	4,438.48	72.7163	4,438.48	73.5567	4,438.48	70.3919	4,438.48	71.8253	4,438.48	70.866	4,438.48	72.3591	4,438.48	69.5889	4,438.48	70.7852	4,438.48	66.5953	4,438.48	69.379	4,438.48	61.9187	4,438.48	66.1016	4,438.48	64.4692
4,594.48	91.2322	4,594.48	91.1438	4,594.48	91.6843	4,594.48	91.1847	4,594.48	91.2368	4,594.48	89.8957	4,594.48	90.7862	4,594.48	88.5987	4,594.48	89.5811	4,594.48	86.2018	4,594.48	87.1618	4,594.48	83.5922	4,594.48	84.5869	4,594.48	81.2221	4,594.48	82.2265	4,594.48	77.6801	4,594.48	79.4299	4,594.48	76.8043	4,594.48	77.073	4,594.48	75.2393	4,594.48	75.074	4,594.48	73.0585	4,594.48	74.1061	4,594.48	73.2393	4,594.48	71.1779	4,594.48	71.2534	4,594.48	70.8369	4,594.48	70.7595	4,594.48	69.5761	4,594.48	71.0093	4,594.48	68.4134	4,594.48	68.6133	4,594.48	67.3049	4,594.48	59.7203	4,594.48	64.418	4,594.48	61.3745
4,757.08	91.3433	4,757.08	91.3436	4,757.08	91.235	4,757.08	91.2863	4,757.08	91.2327	4,757.08	90.8323	4,757.08	90.7501	4,757.08	89.2258	4,757.08	89.2606	4,757.08	86.8619	4,757.08	87.5158	4,757.08	84.4289	4,757.08	85.2591	4,757.08	82.6931	4,757.08	81.9345	4,757.08	80.4902	4,757.08	79.6617	4,757.08	77.0112	4,757.08	77.8877	4,757.08	74.5763	4,757.08	74.832	4,757.08	72.1247	4,757.08	72.4328	4,757.08	69.6506	4,757.08	72.6396	4,757.08	67.9717	4,757.08	68.893	4,757.08	67.5986	4,757.08	67.3615	4,757.08	67.8898	4,757.08	68.2402	4,757.08	64.8956	4,757.08	65.7978	4,757.08	62.3798	4,757.08	64.8341	4,757.08	56.0384
4,924.8	91.4977	4,924.8	91.6946	4,924.8	91.2872	4,924.8	91.5095	4,924.8	91.5234	4,924.8	91.0099	4,924.8	90.8958	4,924.8	89.2754	4,924.8	89.6903	4,924.8	86.9823	4,924.8	87.3028	4,924.8	84.0754	4,924.8	84.2613	4,924.8	80.3936	4,924.8	82.0401	4,924.8	78.3004	4,924.8	79.3669	4,924.8	76.7705	4,924.8	76.9719	4,924.8	76.0124	4,924.8	74.9524	4,924.8	72.5483	4,924.8	73.366	4,924.8	73.1705	4,924.8	71.2168	4,924.8	71.3924	4,924.8	71.1009	4,924.8	69.3413	4,924.8	69.772	4,924.8	69.8302	4,924.8	69.6326	4,924.8	66.9658	4,924.8	66.4082	4,924.8	65.8758	4,924.8	66.9118	4,924.8	51.6941
5,098.39	91.1166	5,098.39	91.2968	5,098.39	91.7977	5,098.39	91.719	5,098.39	91.8545	5,098.39	90.6742	5,098.39	91.4053	5,098.39	89.2664	5,098.39	90.0367	5,098.39	86.8434	5,098.39	87.8129	5,098.39	84.5044	5,098.39	85.7306	5,098.39	82.6537	5,098.39	82.9416	5,098.39	79.9463	5,098.39	79.6995	5,098.39	78.0089	5,098.39	78.2778	5,098.39	75.1918	5,098.39	75.5375	5,098.39	73.5828	5,098.39	73.9314	5,098.39	72.1979	5,098.39	71.1965	5,098.39	68.252	5,098.39	71.326	5,098.39	67.8852	5,098.39	68.7602	5,098.39	66.0587	5,098.39	66.4057	5,098.39	60.7867	5,098.39	66.9623	5,098.39	53.5425	5,098.39	66.535	5,098.39	60.7381
5,277.83	91.5818	5,277.83	91.9277	5,277.83	91.3835	5,277.83	92.122	5,277.83	91.7999	5,277.83	91.5914	5,277.83	91.0682	5,277.83	89.5078	5,277.83	89.3377	5,277.83	87.37	5,277.83	87.4079	5,277.83	85.3973	5,277.83	84.9483	5,277.83	82.5866	5,277.83	82.3213	5,277.83	79.5296	5,277.83	79.9613	5,277.83	77.0503	5,277.83	77.0604	5,277.83	74.8332	5,277.83	75.2549	5,277.83	71.7845	5,277.83	74.2125	5,277.83	68.5642	5,277.83	71.878	5,277.83	69.2495	5,277.83	70.8201	5,277.83	67.4216	5,277.83	70.4539	5,277.83	65.7972	5,277.83	67.2834	5,277.83	64.449	5,277.83	67.3896	5,277.83	60.2381	5,277.83	63.8213	5,277.83	54.6391
5,463.87	91.5211	5,463.87	91.7895	5,463.87	91.8939	5,463.87	91.6922	5,463.87	91.9444	5,463.87	90.473	5,463.87	91.2624	5,463.87	88.7916	5,463.87	89.9648	5,463.87	86.7068	5,463.87	87.4868	5,463.87	84.1119	5,463.87	85.1819	5,463.87	81.8342	5,463.87	83.0482	5,463.87	79.6082	5,463.87	79.6842	5,463.87	77.1721	5,463.87	77.872	5,463.87	76.2086	5,463.87	75.0055	5,463.87	73.966	5,463.87	73.5237	5,463.87	72.966	5,463.87	69.9976	5,463.87	71.7038	5,463.87	68.9977	5,463.87	69.8052	5,463.87	69.0472	5,463.87	68.1155	5,463.87	66.8468	5,463.87	65.287	5,463.87	64.246	5,463.87	64.4907	5,463.87	64.8286	5,463.87	58.5641
5,656.49	91.88	5,656.49	92.0341	5,656.49	91.9532	5,656.49	91.9649	5,656.49	91.965	5,656.49	91.1171	5,656.49	91.2255	5,656.49	89.7742	5,656.49	89.6102	5,656.49	88.1871	5,656.49	88.0073	5,656.49	86.0416	5,656.49	86.0811	5,656.49	83.1615	5,656.49	83.1514	5,656.49	80.0987	5,656.49	80.2194	5,656.49	76.8644	5,656.49	76.134	5,656.49	73.7314	5,656.49	75.0022	5,656.49	71.3597	5,656.49	73.1125	5,656.49	69.2069	5,656.49	71.6822	5,656.49	68.196	5,656.49	68.4011	5,656.49	68.9453	5,656.49	68.72	5,656.49	66.5695	5,656.49	66.1346	5,656.49	64.2026	5,656.49	65.97	5,656.49	59.5085	5,656.49	66.1773	5,656.49	62.1405
5,856.45	92.8155	5,856.45	92.6403	5,856.45	92.5948	5,856.45	92.0698	5,856.45	91.9827	5,856.45	91.4616	5,856.45	90.9783	5,856.45	90.153	5,856.45	90.1208	5,856.45	88.305	5,856.45	88.3408	5,856.45	85.7655	5,856.45	85.8114	5,856.45	82.1957	5,856.45	83.0356	5,856.45	78.4482	5,856.45	80.0701	5,856.45	76.0444	5,856.45	77.2184	5,856.45	73.7976	5,856.45	74.1149	5,856.45	72.6598	5,856.45	71.9603	5,856.45	69.2966	5,856.45	70.8972	5,856.45	70.2058	5,856.45	69.1601	5,856.45	69.403	5,856.45	68.9949	5,856.45	63.4951	5,856.45	63.2407	5,856.45	62.7791	5,856.45	63.5869	5,856.45	63.0322	5,856.45	59.0955	5,856.45	56.3651
6,062.99	92.3776	6,062.99	92.201	6,062.99	92.4547	6,062.99	91.9266	6,062.99	91.9051	6,062.99	91.0013	6,062.99	90.9921	6,062.99	89.6813	6,062.99	89.691	6,062.99	87.2722	6,062.99	87.7216	6,062.99	83.9118	6,062.99	85.2402	6,062.99	81.4744	6,062.99	81.6805	6,062.99	79.0874	6,062.99	78.1756	6,062.99	76.1249	6,062.99	76.2917	6,062.99	74.569	6,062.99	74.3459	6,062.99	73.4396	6,062.99	73.468	6,062.99	71.3398	6,062.99	69.9008	6,062.99	68.7029	6,062.99	69.0017	6,062.99	68.2499	6,062.99	67.4162	6,062.99	65.1687	6,062.99	64.6714	6,062.99	61.5396	6,062.99	64.5618	6,062.99	58.986	6,062.99	63.124	6,062.99	61.8452
6,276.86	91.9376	6,276.86	91.6421	6,276.86	91.7723	6,276.86	90.8459	6,276.86	91.267	6,276.86	90.441	6,276.86	90.6462	6,276.86	89.1075	6,276.86	89.8336	6,276.86	86.6509	6,276.86	87.7542	6,276.86	83.8232	6,276.86	84.5466	6,276.86	80.3728	6,276.86	81.2574	6,276.86	77.638	6,276.86	78.3372	6,276.86	75.373	6,276.86	75.2704	6,276.86	72.4723	6,276.86	72.2069	6,276.86	69.618	6,276.86	70.687	6,276.86	70.4117	6,276.86	69.4703	6,276.86	68.1871	6,276.86	70.1969	6,276.86	69.7441	6,276.86	68.2493	6,276.86	61.5468	6,276.86	64.9041	6,276.86	61.5284	6,276.86	65.5525	6,276.86	54.9144	6,276.86	62.4123	6,276.86	61.9152
6,498.05	91.5819	6,498.05	91.2619	6,498.05	91.4395	6,498.05	90.9254	6,498.05	90.7096	6,498.05	90.6752	6,498.05	90.2032	6,498.05	89.3591	6,498.05	89.2295	6,498.05	87.0163	6,498.05	86.9676	6,498.05	84.1478	6,498.05	84.2011	6,498.05	81.4018	6,498.05	81.1146	6,498.05	78.3575	6,498.05	78.1873	6,498.05	74.5405	6,498.05	75.1063	6,498.05	71.3052	6,498.05	73.406	6,498.05	71.4964	6,498.05	70.9214	6,498.05	68.1015	6,498.05	68.5182	6,498.05	67.4566	6,498.05	66.812	6,498.05	68.2674	6,498.05	67.4461	6,498.05	62.4459	6,498.05	58.4994	6,498.05	57.4101	6,498.05	63.6781	6,498.05	58.0677	6,498.05	58.2666	6,498.05	57.3837
6,727.29	91.5952	6,727.29	91.3137	6,727.29	91.3927	6,727.29	90.9358	6,727.29	90.8316	6,727.29	90.48	6,727.29	90.5107	6,727.29	88.6321	6,727.29	89.2165	6,727.29	86.0231	6,727.29	86.7716	6,727.29	83.1521	6,727.29	84.2426	6,727.29	79.8326	6,727.29	81.4766	6,727.29	77.5135	6,727.29	78.2297	6,727.29	75.59	6,727.29	76.2429	6,727.29	73.7614	6,727.29	73.0267	6,727.29	69.827	6,727.29	71.4302	6,727.29	69.6301	6,727.29	68.3996	6,727.29	67.5572	6,727.29	68.9493	6,727.29	67.5509	6,727.29	65.3576	6,727.29	61.9016	6,727.29	64.0557	6,727.29	60.8295	6,727.29	63.8157	6,727.29	52.0641	6,727.29	59.5468	6,727.29	59.2596
6,964.6	91.1846	6,964.6	90.9771	6,964.6	91.128	6,964.6	90.8387	6,964.6	90.8076	6,964.6	90.2738	6,964.6	90.4259	6,964.6	88.5702	6,964.6	89.1445	6,964.6	86.1238	6,964.6	86.8639	6,964.6	83.54	6,964.6	84.1932	6,964.6	81.0795	6,964.6	81.5725	6,964.6	78.5297	6,964.6	78.1693	6,964.6	75.6337	6,964.6	74.5096	6,964.6	72.4768	6,964.6	72.1864	6,964.6	70.7274	6,964.6	70.5577	6,964.6	68.1339	6,964.6	68.9992	6,964.6	66.6935	6,964.6	68.756	6,964.6	67.855	6,964.6	67.9984	6,964.6	60.1815	6,964.6	62.8238	6,964.6	59.6634	6,964.6	62.833	6,964.6	61.4838	6,964.6	59.2579	6,964.6	52.6295
7,209.96	91.3586	7,209.96	91.2162	7,209.96	91.3467	7,209.96	91.1172	7,209.96	91.0168	7,209.96	90.6681	7,209.96	90.5996	7,209.96	88.8142	7,209.96	89.1991	7,209.96	86.7657	7,209.96	87.1641	7,209.96	84.2346	7,209.96	84.9731	7,209.96	81.0751	7,209.96	81.8556	7,209.96	78.042	7,209.96	78.3214	7,209.96	74.7807	7,209.96	75.5844	7,209.96	72.96	7,209.96	73.4241	7,209.96	68.8873	7,209.96	70.5259	7,209.96	68.3885	7,209.96	67.8356	7,209.96	66.9497	7,209.96	66.5949	7,209.96	66.1919	7,209.96	64.238	7,209.96	61.0038	7,209.96	61.3881	7,209.96	59.0281	7,209.96	62.7808	7,209.96	60.5361	7,209.96	61.0994	7,209.96	52.9121
7,464.11	91.1456	7,464.11	90.9612	7,464.11	90.927	7,464.11	90.9111	7,464.11	90.5768	7,464.11	90.3612	7,464.11	90.2929	7,464.11	88.78	7,464.11	88.8153	7,464.11	86.6115	7,464.11	86.8071	7,464.11	84.1638	7,464.11	84.3227	7,464.11	81.6256	7,464.11	81.3135	7,464.11	78.7906	7,464.11	77.9489	7,464.11	75.5665	7,464.11	74.9044	7,464.11	72.4636	7,464.11	72.3137	7,464.11	69.9966	7,464.11	70.0273	7,464.11	68.1136	7,464.11	68.3615	7,464.11	68.3184	7,464.11	68.9024	7,464.11	66.9343	7,464.11	64.452	7,464.11	60.5162	7,464.11	61.3563	7,464.11	53.1796	7,464.11	62.0811	7,464.11	59.7502	7,464.11	62.3976	7,464.11	53.9821
7,727.78	91.1425	7,727.78	90.9912	7,727.78	90.8985	7,727.78	90.9254	7,727.78	90.5908	7,727.78	90.4231	7,727.78	90.232	7,727.78	88.8269	7,727.78	88.8126	7,727.78	86.923	7,727.78	86.8501	7,727.78	84.196	7,727.78	84.192	7,727.78	80.6709	7,727.78	81.1349	7,727.78	77.7439	7,727.78	77.7227	7,727.78	73.8244	7,727.78	74.2775	7,727.78	73.2761	7,727.78	71.9621	7,727.78	69.8604	7,727.78	70.3617	7,727.78	68.3307	7,727.78	68.5853	7,727.78	67.2345	7,727.78	64.1157	7,727.78	66.2979	7,727.78	64.2281	7,727.78	59.306	7,727.78	58.8034	7,727.78	54.5567	7,727.78	61.3457	7,727.78	61.8485	7,727.78	61.9306	7,727.78	53.4876
8,000.24	91.5085	8,000.24	91.3824	8,000.24	91.1953	8,000.24	91.3995	8,000.24	90.9848	8,000.24	90.8067	8,000.24	90.6024	8,000.24	89.2445	8,000.24	89.0274	8,000.24	86.9597	8,000.24	86.9464	8,000.24	84.2733	8,000.24	84.25	8,000.24	81.0796	8,000.24	81.4292	8,000.24	78.0116	8,000.24	77.7631	8,000.24	74.4803	8,000.24	74.8796	8,000.24	71.7445	8,000.24	71.9223	8,000.24	69.6517	8,000.24	69.501	8,000.24	68.4413	8,000.24	68.3692	8,000.24	67.4807	8,000.24	67.1369	8,000.24	63.9972	8,000.24	62.2123	8,000.24	61.5767	8,000.24	57.9219	8,000.24	56.246	8,000.24	62.77	8,000.24	59.6076	8,000.24	60.16	8,000.24	52.4134
8,282.23	91.448	8,282.23	91.2308	8,282.23	91.454	8,282.23	91.2682	8,282.23	91.1396	8,282.23	90.4064	8,282.23	90.6393	8,282.23	89.0519	8,282.23	89.0963	8,282.23	87.0734	8,282.23	87.1748	8,282.23	84.0574	8,282.23	84.4499	8,282.23	80.4533	8,282.23	81.375	8,282.23	77.7397	8,282.23	77.7863	8,282.23	74.7454	8,282.23	74.7368	8,282.23	73.3294	8,282.23	71.7814	8,282.23	70.6576	8,282.23	69.1732	8,282.23	68.3448	8,282.23	68.0928	8,282.23	66.9526	8,282.23	66.3773	8,282.23	66.1181	8,282.23	61.272	8,282.23	55.0005	8,282.23	60.2182	8,282.23	54.8388	8,282.23	57.8151	8,282.23	61.6855	8,282.23	60.2815	8,282.23	56.9647
8,574.46	91.7728	8,574.46	91.6655	8,574.46	91.5707	8,574.46	91.6099	8,574.46	91.4062	8,574.46	91.0073	8,574.46	90.7406	8,574.46	89.4108	8,574.46	89.4779	8,574.46	87.0555	8,574.46	87.6262	8,574.46	84.4615	8,574.46	84.8952	8,574.46	81.0798	8,574.46	81.6871	8,574.46	78.0726	8,574.46	77.962	8,574.46	74.2414	8,574.46	74.6327	8,574.46	71.739	8,574.46	71.948	8,574.46	69.0384	8,574.46	69.5889	8,574.46	67.3282	8,574.46	67.6162	8,574.46	66.0595	8,574.46	66.3441	8,574.46	64.8017	8,574.46	61.1902	8,574.46	55.7352	8,574.46	58.2453	8,574.46	54.7515	8,574.46	61.9734	8,574.46	56.3638	8,574.46	60.9018	8,574.46	55.423
8,876.22	91.5684	8,876.22	91.4018	8,876.22	91.4637	8,876.22	91.3865	8,876.22	91.1114	8,876.22	90.5972	8,876.22	90.545	8,876.22	89.3104	8,876.22	89.2021	8,876.22	87.1446	8,876.22	87.1791	8,876.22	84.1531	8,876.22	84.3416	8,876.22	80.5076	8,876.22	81.265	8,876.22	77.7068	8,876.22	77.6203	8,876.22	74.1901	8,876.22	74.2958	8,876.22	71.6257	8,876.22	72.0344	8,876.22	68.9733	8,876.22	69.6093	8,876.22	66.908	8,876.22	68.6762	8,876.22	66.5795	8,876.22	65.3386	8,876.22	64.3126	8,876.22	62.9432	8,876.22	48.5765	8,876.22	57.11	8,876.22	55.2586	8,876.22	60.8276	8,876.22	61.0719	8,876.22	61.3813	8,876.22	54.382
9,189.7	91.4256	9,189.7	91.3023	9,189.7	91.3543	9,189.7	91.2007	9,189.7	90.9978	9,189.7	90.5116	9,189.7	90.2691	9,189.7	89.2441	9,189.7	89.107	9,189.7	86.8606	9,189.7	87.0145	9,189.7	83.7236	9,189.7	84.0267	9,189.7	80.1217	9,189.7	80.6345	9,189.7	77.1544	9,189.7	77.5651	9,189.7	73.8044	9,189.7	74.1516	9,189.7	71.7985	9,189.7	71.3942	9,189.7	69.3487	9,189.7	69.3139	9,189.7	67.0262	9,189.7	67.4605	9,189.7	66.0938	9,189.7	65.8976	9,189.7	63.0485	9,189.7	60.1892	9,189.7	54.5791	9,189.7	56.6481	9,189.7	56.302	9,189.7	59.7674	9,189.7	57.5817	9,189.7	61.0605	9,189.7	54.8219
9,513.43	91.1637	9,513.43	91.032	9,513.43	91.0963	9,513.43	90.9183	9,513.43	90.713	9,513.43	90.2676	9,513.43	90.0212	9,513.43	88.796	9,513.43	88.927	9,513.43	86.2654	9,513.43	86.7822	9,513.43	83.2245	9,513.43	83.801	9,513.43	79.8544	9,513.43	80.3531	9,513.43	77.2513	9,513.43	77.0662	9,513.43	73.5511	9,513.43	73.1444	9,513.43	71.4936	9,513.43	71.544	9,513.43	68.6853	9,513.43	69.4072	9,513.43	66.7071	9,513.43	67.2198	9,513.43	63.9931	9,513.43	63.1136	9,513.43	62.5653	9,513.43	60.1559	9,513.43	54.3377	9,513.43	53.6924	9,513.43	55.3567	9,513.43	55.4012	9,513.43	60.5728	9,513.43	60.4356	9,513.43	50.8931
9,848.88	91.7515	9,848.88	91.573	9,848.88	91.6891	9,848.88	91.3305	9,848.88	91.2296	9,848.88	90.5457	9,848.88	90.6819	9,848.88	89.1437	9,848.88	89.5321	9,848.88	86.8262	9,848.88	87.3702	9,848.88	83.5957	9,848.88	84.2831	9,848.88	79.8824	9,848.88	80.9308	9,848.88	76.9476	9,848.88	77.0354	9,848.88	73.8942	9,848.88	73.5995	9,848.88	70.6015	9,848.88	71.2308	9,848.88	69.0265	9,848.88	68.6159	9,848.88	65.9596	9,848.88	67.1174	9,848.88	64.3987	9,848.88	61.8459	9,848.88	61.6629	9,848.88	59.1795	9,848.88	52.4191	9,848.88	55.6366	9,848.88	51.3887	9,848.88	58.3707	9,848.88	56.7227	9,848.88	62.1283	9,848.88	54.7361
10,196.8	91.7208	10,196.8	91.6015	10,196.8	91.8181	10,196.8	91.3686	10,196.8	91.3658	10,196.8	90.7944	10,196.8	90.8644	10,196.8	89.4673	10,196.8	89.7732	10,196.8	87.0155	10,196.8	87.5185	10,196.8	83.7348	10,196.8	84.4312	10,196.8	80.4309	10,196.8	80.9677	10,196.8	77.4733	10,196.8	77.3862	10,196.8	73.9773	10,196.8	73.8422	10,196.8	70.9842	10,196.8	71.8083	10,196.8	68.9288	10,196.8	68.4913	10,196.8	65.4865	10,196.8	67.8474	10,196.8	63.5319	10,196.8	61.7457	10,196.8	62.0535	10,196.8	58.898	10,196.8	49.0526	10,196.8	54.1104	10,196.8	52.3738	10,196.8	59.3199	10,196.8	56.6431	10,196.8	60.7187	10,196.8	55.7999
10,556.4	91.468	10,556.4	91.2229	10,556.4	91.4412	10,556.4	91.0228	10,556.4	90.982	10,556.4	90.6588	10,556.4	90.6279	10,556.4	89.1908	10,556.4	89.5465	10,556.4	86.6253	10,556.4	87.6184	10,556.4	83.2687	10,556.4	84.606	10,556.4	80.0339	10,556.4	81.2508	10,556.4	76.9262	10,556.4	77.8573	10,556.4	74.0525	10,556.4	74.0855	10,556.4	70.4008	10,556.4	72.4147	10,556.4	68.8439	10,556.4	69.0967	10,556.4	65.8963	10,556.4	68.0327	10,556.4	63.2014	10,556.4	60.0971	10,556.4	60.1945	10,556.4	58.5361	10,556.4	51.3128	10,556.4	55.1917	10,556.4	51.5711	10,556.4	59.4729	10,556.4	57.0202	10,556.4	60.3515	10,556.4	56.7065
10,928.5	90.8036	10,928.5	90.5536	10,928.5	90.7605	10,928.5	90.4276	10,928.5	90.2481	10,928.5	90.0907	10,928.5	89.9966	10,928.5	88.661	10,928.5	88.9605	10,928.5	86.2549	10,928.5	87.0076	10,928.5	82.8786	10,928.5	83.8989	10,928.5	79.9093	10,928.5	80.7424	10,928.5	76.6466	10,928.5	77.187	10,928.5	73.4886	10,928.5	73.638	10,928.5	69.7856	10,928.5	71.954	10,928.5	67.2815	10,928.5	68.8056	10,928.5	64.1764	10,928.5	67.2333	10,928.5	62.7505	10,928.5	61.2304	10,928.5	58.6513	10,928.5	59.4859	10,928.5	52.8664	10,928.5	57.0021	10,928.5	44.7602	10,928.5	58.1095	10,928.5	54.2594	10,928.5	60.0524	10,928.5	57.7933
11,313.7	91.2451	11,313.7	90.9586	11,313.7	91.074	11,313.7	90.6372	11,313.7	90.5732	11,313.7	90.2588	11,313.7	90.2518	11,313.7	88.7733	11,313.7	89.0691	11,313.7	86.464	11,313.7	87.0567	11,313.7	83.2715	11,313.7	83.8152	11,313.7	79.8461	11,313.7	80.6983	11,313.7	75.6388	11,313.7	76.5198	11,313.7	73.5819	11,313.7	73.1921	11,313.7	68.9867	11,313.7	70.7548	11,313.7	66.9637	11,313.7	67.207	11,313.7	63.5522	11,313.7	65.9836	11,313.7	61.6397	11,313.7	59.9029	11,313.7	54.846	11,313.7	58.6011	11,313.7	49.9332	11,313.7	59.8796	11,313.7	44.2188	11,313.7	53.2751	11,313.7	53.8716	11,313.7	60.3288	11,313.7	58.2946
11,712.9	92.0553	11,712.9	91.5262	11,712.9	91.9744	11,712.9	91.1711	11,712.9	91.2035	11,712.9	90.6876	11,712.9	90.7889	11,712.9	89.1366	11,712.9	89.4904	11,712.9	86.7211	11,712.9	87.5952	11,712.9	83.3597	11,712.9	84.4182	11,712.9	79.9974	11,712.9	81.2315	11,712.9	76.1398	11,712.9	76.4767	11,712.9	73.6915	11,712.9	72.973	11,712.9	68.9754	11,712.9	70.5947	11,712.9	67.4649	11,712.9	67.4943	11,712.9	63.4444	11,712.9	64.9522	11,712.9	60.5834	11,712.9	55.3297	11,712.9	54.537	11,712.9	55.1221	11,712.9	52.6938	11,712.9	58.6537	11,712.9	30.273	11,712.9	56.8165	11,712.9	56.6816	11,712.9	59.7324	11,712.9	54.653
12,126	92.3262	12,126	91.6325	12,126	92.1756	12,126	91.2837	12,126	91.3803	12,126	90.8216	12,126	90.955	12,126	89.1588	12,126	89.738	12,126	86.8472	12,126	87.9551	12,126	83.1979	12,126	84.803	12,126	79.7565	12,126	81.4881	12,126	76.1681	12,126	76.723	12,126	73.2818	12,126	73.4132	12,126	68.1557	12,126	70.9175	12,126	65.9223	12,126	67.7426	12,126	63.1742	12,126	64.223	12,126	59.6561	12,126	53.9709	12,126	53.156	12,126	54.4369	12,126	54.5096	12,126	58.8142	12,126	34.1902	12,126	57.0963	12,126	53.133	12,126	59.4355	12,126	53.6871
12,553.7	91.6997	12,553.7	90.9818	12,553.7	91.5051	12,553.7	90.5483	12,553.7	90.7108	12,553.7	89.8685	12,553.7	90.2192	12,553.7	88.2148	12,553.7	88.8939	12,553.7	85.9303	12,553.7	87.089	12,553.7	82.3229	12,553.7	83.8938	12,553.7	78.5074	12,553.7	80.2191	12,553.7	74.7331	12,553.7	75.1759	12,553.7	72.1235	12,553.7	72.3424	12,553.7	66.9192	12,553.7	69.9257	12,553.7	66.0298	12,553.7	67.3116	12,553.7	61.7927	12,553.7	63.4199	12,553.7	58.1601	12,553.7	53.3286	12,553.7	48.7569	12,553.7	53.1434	12,553.7	54.9765	12,553.7	59.7293	12,553.7	45.7928	12,553.7	57.6223	12,553.7	40.9238	12,553.7	56.8924	12,553.7	54.6608
12,996.1	91.1333	12,996.1	90.5562	12,996.1	90.8222	12,996.1	90.2548	12,996.1	90.0917	12,996.1	89.6408	12,996.1	89.5176	12,996.1	87.8622	12,996.1	88.1905	12,996.1	85.3974	12,996.1	86.3457	12,996.1	81.5848	12,996.1	82.7168	12,996.1	77.4905	12,996.1	78.9405	12,996.1	74.132	12,996.1	74.1533	12,996.1	71.2619	12,996.1	71.0026	12,996.1	65.9091	12,996.1	68.6249	12,996.1	63.5583	12,996.1	65.9608	12,996.1	59.9819	12,996.1	62.8964	12,996.1	55.7175	12,996.1	51.0013	12,996.1	45.1112	12,996.1	52.5304	12,996.1	55.6554	12,996.1	58.6187	12,996.1	51.1349	12,996.1	57.4977	12,996.1	46.165	12,996.1	54.0612	12,996.1	50.8499
13,454.6	91.5092	13,454.6	90.9656	13,454.6	91.3128	13,454.6	90.7669	13,454.6	90.7046	13,454.6	90.1351	13,454.6	90.2788	13,454.6	88.4705	13,454.6	88.9587	13,454.6	85.9612	13,454.6	87.0352	13,454.6	81.9375	13,454.6	83.1481	13,454.6	77.7647	13,454.6	79.3327	13,454.6	74.3928	13,454.6	74.3171	13,454.6	71.3458	13,454.6	70.9225	13,454.6	66.4218	13,454.6	68.4412	13,454.6	63.6329	13,454.6	65.4328	13,454.6	59.5201	13,454.6	60.7986	13,454.6	53.9178	13,454.6	46.5316	13,454.6	39.643	13,454.6	50.444	13,454.6	54.8511	13,454.6	58.7665	13,454.6	51.8968	13,454.6	58.3631	13,454.6	46.4591	13,454.6	52.7363	13,454.6	49.9617
13,928.5	91.3995	13,928.5	90.9589	13,928.5	91.3383	13,928.5	90.948	13,928.5	90.9735	13,928.5	90.4174	13,928.5	90.6749	13,928.5	88.7474	13,928.5	89.4168	13,928.5	86.0749	13,928.5	87.5193	13,928.5	81.8011	13,928.5	83.4908	13,928.5	77.9817	13,928.5	80.1509	13,928.5	74.5137	13,928.5	75.1119	13,928.5	71.2446	13,928.5	72.2045	13,928.5	66.7143	13,928.5	69.8759	13,928.5	62.443	13,928.5	66.0033	13,928.5	58.9738	13,928.5	60.1209	13,928.5	52.7394	13,928.5	45.0006	13,928.5	46.0874	13,928.5	44.3895	13,928.5	54.1046	13,928.5	57.9898	13,928.5	50.8034	13,928.5	54.7671	13,928.5	48.475	13,928.5	55.3847	13,928.5	50.3346
14,419.9	90.8845	14,419.9	90.624	14,419.9	90.9649	14,419.9	90.6454	14,419.9	90.6209	14,419.9	89.9595	14,419.9	90.1092	14,419.9	88.4615	14,419.9	88.8959	14,419.9	85.6859	14,419.9	86.913	14,419.9	81.6261	14,419.9	82.9834	14,419.9	78.0872	14,419.9	79.8687	14,419.9	74.2514	14,419.9	74.4383	14,419.9	71.1962	14,419.9	71.9173	14,419.9	66.3803	14,419.9	69.5841	14,419.9	62.0546	14,419.9	66.3221	14,419.9	59.2107	14,419.9	60.5265	14,419.9	49.097	14,419.9	45.5842	14,419.9	51.1756	14,419.9	49.3188	14,419.9	51.4397	14,419.9	58.1379	14,419.9	46.4341	14,419.9	53.1902	14,419.9	45.2821	14,419.9	53.3473	14,419.9	55.0927
14,928.2	90.7914	14,928.2	90.7098	14,928.2	91.0026	14,928.2	90.7555	14,928.2	90.627	14,928.2	90.0119	14,928.2	90.0487	14,928.2	88.4168	14,928.2	88.7672	14,928.2	85.4378	14,928.2	86.6224	14,928.2	81.5238	14,928.2	82.8331	14,928.2	77.8853	14,928.2	79.3272	14,928.2	74.2824	14,928.2	73.8054	14,928.2	70.9975	14,928.2	71.2584	14,928.2	65.6845	14,928.2	68.2934	14,928.2	62.0585	14,928.2	65.2598	14,928.2	57.7783	14,928.2	58.2474	14,928.2	43.8715	14,928.2	50.9356	14,928.2	52.1279	14,928.2	46.8964	14,928.2	53.8133	14,928.2	55.9724	14,928.2	40.0534	14,928.2	56.4194	14,928.2	50.0919	14,928.2	53.4036	14,928.2	52.4562
15,454.8	90.9931	15,454.8	91.1065	15,454.8	91.368	15,454.8	91.1415	15,454.8	91.205	15,454.8	90.3734	15,454.8	90.6158	15,454.8	88.7551	15,454.8	89.3216	15,454.8	85.7253	15,454.8	87.1807	15,454.8	81.9958	15,454.8	83.4279	15,454.8	77.9477	15,454.8	79.7863	15,454.8	74.1111	15,454.8	74.3661	15,454.8	70.7423	15,454.8	70.9251	15,454.8	65.8145	15,454.8	67.9497	15,454.8	61.0492	15,454.8	64.7191	15,454.8	55.1976	15,454.8	55.7294	15,454.8	22.2618	15,454.8	54.9737	15,454.8	54.2233	15,454.8	37.3455	15,454.8	53.2018	15,454.8	52.1701	15,454.8	45.8699	15,454.8	55.9084	15,454.8	44.872	15,454.8	53.4037	15,454.8	51.6109
15,999.8	90.4581	15,999.8	90.8725	15,999.8	91.069	15,999.8	90.9411	15,999.8	91.1371	15,999.8	90.3533	15,999.8	90.6862	15,999.8	88.7684	15,999.8	89.3515	15,999.8	85.885	15,999.8	87.1817	15,999.8	81.9965	15,999.8	83.3976	15,999.8	77.9463	15,999.8	79.855	15,999.8	74.3007	15,999.8	74.3191	15,999.8	69.9446	15,999.8	70.9935	15,999.8	65.6817	15,999.8	67.8769	15,999.8	57.942	15,999.8	65.2781	15,999.8	53.6356	15,999.8	50.3122	15,999.8	40.7323	15,999.8	55.5869	15,999.8	53.8631	15,999.8	37.6517	15,999.8	51.3445	15,999.8	49.2713	15,999.8	36.9951	15,999.8	54.5617	15,999.8	44.8324	15,999.8	53.3202	15,999.8	51.1638
16,564.5	89.8193	16,564.5	90.3974	16,564.5	90.4922	16,564.5	90.5839	16,564.5	90.6374	16,564.5	90.1842	16,564.5	90.3037	16,564.5	88.5486	16,564.5	88.9038	16,564.5	85.7202	16,564.5	86.7258	16,564.5	81.6296	16,564.5	82.7639	16,564.5	77.139	16,564.5	78.8687	16,564.5	73.4501	16,564.5	72.6681	16,564.5	69.8002	16,564.5	70.0665	16,564.5	64.9172	16,564.5	67.1623	16,564.5	57.1334	16,564.5	64.5766	16,564.5	53.7718	16,564.5	38.9192	16,564.5	43.8778	16,564.5	55.7156	16,564.5	55.6601	16,564.5	47.0552	16,564.5	50.0959	16,564.5	39.1618	16,564.5	46.1204	16,564.5	53.9506	16,564.5	46.3263	16,564.5	52.7078	16,564.5	51.2498
17,148.2	90.1922	17,148.2	90.6649	17,148.2	90.8514	17,148.2	90.7747	17,148.2	90.8513	17,148.2	90.4002	17,148.2	90.5809	17,148.2	88.6251	17,148.2	89.1914	17,148.2	85.7878	17,148.2	87.0941	17,148.2	81.4491	17,148.2	82.8585	17,148.2	76.8338	17,148.2	78.4934	17,148.2	73.315	17,148.2	72.7708	17,148.2	69.3467	17,148.2	69.8496	17,148.2	63.9448	17,148.2	67.4512	17,148.2	57.7287	17,148.2	63.9482	17,148.2	52.4428	17,148.2	38.0133	17,148.2	48.015	17,148.2	57.8244	17,148.2	55.9769	17,148.2	42.7437	17,148.2	48.9998	17,148.2	36.0159	17,148.2	48.6135	17,148.2	53.4288	17,148.2	44.2488	17,148.2	47.3488	17,148.2	48.6614
17,753.2	90.7393	17,753.2	91.0638	17,753.2	91.263	17,753.2	90.9207	17,753.2	91.0299	17,753.2	90.4885	17,753.2	90.7628	17,753.2	88.5566	17,753.2	89.2322	17,753.2	85.8382	17,753.2	87.2128	17,753.2	81.2742	17,753.2	82.8837	17,753.2	76.9631	17,753.2	78.7547	17,753.2	73.9831	17,753.2	73.7714	17,753.2	69.4513	17,753.2	70.431	17,753.2	64.2642	17,753.2	67.1324	17,753.2	54.0453	17,753.2	63.4069	17,753.2	53.5028	17,753.2	45.6252	17,753.2	50.056	17,753.2	58.7806	17,753.2	54.2969	17,753.2	48.0227	17,753.2	49.9465	17,753.2	47.5987	17,753.2	47.6027	17,753.2	52.7864	17,753.2	39.0144	17,753.2	46.759	17,753.2	42.541
18,379.4	90.9199	18,379.4	91.0316	18,379.4	91.361	18,379.4	90.9263	18,379.4	91.1035	18,379.4	90.4397	18,379.4	90.8491	18,379.4	88.5577	18,379.4	89.0894	18,379.4	85.8483	18,379.4	87.1112	18,379.4	81.5107	18,379.4	82.6566	18,379.4	77.2024	18,379.4	78.9885	18,379.4	74.2752	18,379.4	74.1311	18,379.4	69.3986	18,379.4	69.8931	18,379.4	64.0929	18,379.4	66.8974	18,379.4	51.9157	18,379.4	63.6357	18,379.4	53.2797	18,379.4	49.3983	18,379.4	50.0965	18,379.4	58.7361	18,379.4	54.0852	18,379.4	45.5459	18,379.4	51.3414	18,379.4	50.7789	18,379.4	44.6009	18,379.4	48.0068	18,379.4	33.3644	18,379.4	43.7438	18,379.4	41.7066
19,027.6	90.425	19,027.6	90.4628	19,027.6	90.7034	19,027.6	90.6337	19,027.6	90.5853	19,027.6	90.1224	19,027.6	90.5248	19,027.6	88.2168	19,027.6	88.7433	19,027.6	85.1705	19,027.6	86.6905	19,027.6	81.0321	19,027.6	82.4274	19,027.6	76.2539	19,027.6	78.4344	19,027.6	73.2734	19,027.6	72.7047	19,027.6	67.6316	19,027.6	68.1535	19,027.6	62.4228	19,027.6	65.8654	19,027.6	51.8818	19,027.6	62.1577	19,027.6	50.7971	19,027.6	50.9862	19,027.6	44.5446	19,027.6	58.732	19,027.6	51.2487	19,027.6	38.4043	19,027.6	50.5673	19,027.6	51.5358	19,027.6	41.4068	19,027.6	45.0016	19,027.6	41.5769	19,027.6	33.8448	19,027.6	41.4714
19,698.5	89.9765	19,698.5	89.7594	19,698.5	90.1321	19,698.5	90.2668	19,698.5	90.1348	19,698.5	89.7216	19,698.5	90.2291	19,698.5	87.8793	19,698.5	88.47	19,698.5	84.5386	19,698.5	86.3941	19,698.5	80.5577	19,698.5	82.2353	19,698.5	75.1989	19,698.5	77.9257	19,698.5	71.9795	19,698.5	72.3689	19,698.5	65.8052	19,698.5	67.9025	19,698.5	60.8475	19,698.5	65.6583	19,698.5	48.9942	19,698.5	60.8599	19,698.5	47.9407	19,698.5	53.0057	19,698.5	48.452	19,698.5	58.6898	19,698.5	44.1973	19,698.5	39.4649	19,698.5	47.3905	19,698.5	51.481	19,698.5	44.424	19,698.5	35.8687	19,698.5	43.3308	19,698.5	37.3787	19,698.5	46.5872
19,999.5	89.7782	19,999.5	89.6871	19,999.5	89.4853	19,999.5	90.0725	19,999.5	89.7351	19,999.5	89.7668	19,999.5	89.8568	19,999.5	87.9509	19,999.5	88.2878	19,999.5	84.4431	19,999.5	86.0735	19,999.5	80.0502	19,999.5	81.9612	19,999.5	74.6788	19,999.5	77.8356	19,999.5	71.796	19,999.5	72.2279	19,999.5	65.0972	19,999.5	67.6892	19,999.5	62.9827	19,999.5	64.2368	19,999.5	45.2561	19,999.5	59.676	19,999.5	50.917	19,999.5	51.5888	19,999.5	55.6343	19,999.5	57.0191	19,999.5	54.6784	19,999.5	41.9726	19,999.5	46.3067	19,999.5	48.3158	19,999.5	44.494	19,999.5	48.3458	19,999.5	36.7761	19,999.5	39.8812	19,999.5	48.0428
