"SPL Vertical"
"On-Axis"		"10°"		"-10°"		"20°"		"-20°"		"30°"		"-30°"		"40°"		"-40°"		"50°"		"-50°"		"60°"		"-60°"		"70°"		"-70°"		"80°"		"-80°"		"90°"		"-90°"		"100°"		"-100°"		"110°"		"-110°"		"120°"		"-120°"		"130°"		"-130°"		"140°"		"-140°"		"150°"		"-150°"		"160°"		"-160°"		"170°"		"-170°"		"180°"
"Frequency / Hz"	"Sound Pressure Level / dB (re 20 µPa/V)  [2.83  V @ 1. m]"	"Frequency / Hz"	"Sound Pressure Level / dB (re 20 µPa/V)  [2.83  V @ 1. m]"	"Frequency / Hz"	"Sound Pressure Level / dB (re 20 µPa/V)  [2.83  V @ 1. m]"	"Frequency / Hz"	"Sound Pressure Level / dB (re 20 µPa/V)  [2.83  V @ 1. m]"	"Frequency / Hz"	"Sound Pressure Level / dB (re 20 µPa/V)  [2.83  V @ 1. m]"	"Frequency / Hz"	"Sound Pressure Level / dB (re 20 µPa/V)  [2.83  V @ 1. m]"	"Frequency / Hz"	"Sound Pressure Level / dB (re 20 µPa/V)  [2.83  V @ 1. m]"	"Frequency / Hz"	"Sound Pressure Level / dB (re 20 µPa/V)  [2.83  V @ 1. m]"	"Frequency / Hz"	"Sound Pressure Level / dB (re 20 µPa/V)  [2.83  V @ 1. m]"	"Frequency / Hz"	"Sound Pressure Level / dB (re 20 µPa/V)  [2.83  V @ 1. m]"	"Frequency / Hz"	"Sound Pressure Level / dB (re 20 µPa/V)  [2.83  V @ 1. m]"	"Frequency / Hz"	"Sound Pressure Level / dB (re 20 µPa/V)  [2.83  V @ 1. m]"	"Frequency / Hz"	"Sound Pressure Level / dB (re 20 µPa/V)  [2.83  V @ 1. m]"	"Frequency / Hz"	"Sound Pressure Level / dB (re 20 µPa/V)  [2.83  V @ 1. m]"	"Frequency / Hz"	"Sound Pressure Level / dB (re 20 µPa/V)  [2.83  V @ 1. m]"	"Frequency / Hz"	"Sound Pressure Level / dB (re 20 µPa/V)  [2.83  V @ 1. m]"	"Frequency / Hz"	"Sound Pressure Level / dB (re 20 µPa/V)  [2.83  V @ 1. m]"	"Frequency / Hz"	"Sound Pressure Level / dB (re 20 µPa/V)  [2.83  V @ 1. m]"	"Frequency / Hz"	"Sound Pressure Level / dB (re 20 µPa/V)  [2.83  V @ 1. m]"	"Frequency / Hz"	"Sound Pressure Level / dB (re 20 µPa/V)  [2.83  V @ 1. m]"	"Frequency / Hz"	"Sound Pressure Level / dB (re 20 µPa/V)  [2.83  V @ 1. m]"	"Frequency / Hz"	"Sound Pressure Level / dB (re 20 µPa/V)  [2.83  V @ 1. m]"	"Frequency / Hz"	"Sound Pressure Level / dB (re 20 µPa/V)  [2.83  V @ 1. m]"	"Frequency / Hz"	"Sound Pressure Level / dB (re 20 µPa/V)  [2.83  V @ 1. m]"	"Frequency / Hz"	"Sound Pressure Level / dB (re 20 µPa/V)  [2.83  V @ 1. m]"	"Frequency / Hz"	"Sound Pressure Level / dB (re 20 µPa/V)  [2.83  V @ 1. m]"	"Frequency / Hz"	"Sound Pressure Level / dB (re 20 µPa/V)  [2.83  V @ 1. m]"	"Frequency / Hz"	"Sound Pressure Level / dB (re 20 µPa/V)  [2.83  V @ 1. m]"	"Frequency / Hz"	"Sound Pressure Level / dB (re 20 µPa/V)  [2.83  V @ 1. m]"	"Frequency / Hz"	"Sound Pressure Level / dB (re 20 µPa/V)  [2.83  V @ 1. m]"	"Frequency / Hz"	"Sound Pressure Level / dB (re 20 µPa/V)  [2.83  V @ 1. m]"	"Frequency / Hz"	"Sound Pressure Level / dB (re 20 µPa/V)  [2.83  V @ 1. m]"	"Frequency / Hz"	"Sound Pressure Level / dB (re 20 µPa/V)  [2.83  V @ 1. m]"	"Frequency / Hz"	"Sound Pressure Level / dB (re 20 µPa/V)  [2.83  V @ 1. m]"	"Frequency / Hz"	"Sound Pressure Level / dB (re 20 µPa/V)  [2.83  V @ 1. m]"	"Frequency / Hz"	"Sound Pressure Level / dB (re 20 µPa/V)  [2.83  V @ 1. m]"
20.1416	64.187	20.1416	64.1207	20.1416	64.256	20.1416	64.0594	20.1416	64.3248	20.1416	64.0044	20.1416	64.3899	20.1416	63.9568	20.1416	64.448	20.1416	63.9169	20.1416	64.4963	20.1416	63.8851	20.1416	64.5325	20.1416	63.8622	20.1416	64.5553	20.1416	63.8488	20.1416	64.5646	20.1416	63.8456	20.1416	64.5609	20.1416	63.8529	20.1416	64.5453	20.1416	63.8709	20.1416	64.5196	20.1416	63.899	20.1416	64.4858	20.1416	63.9361	20.1416	64.4457	20.1416	63.9807	20.1416	64.401	20.1416	64.0307	20.1416	64.3529	20.1416	64.0843	20.1416	64.3021	20.1416	64.1395	20.1416	64.2493	20.1416	64.1948
20.5078	65.8567	20.5078	65.7993	20.5078	65.9128	20.5078	65.7421	20.5078	65.9658	20.5078	65.6864	20.5078	66.0135	20.5078	65.6335	20.5078	66.0538	20.5078	65.5844	20.5078	66.0847	20.5078	65.5408	20.5078	66.105	20.5078	65.5042	20.5078	66.1137	20.5078	65.4763	20.5078	66.1111	20.5078	65.4585	20.5078	66.0977	20.5078	65.4518	20.5078	66.0749	20.5078	65.4569	20.5078	66.0445	20.5078	65.4735	20.5078	66.0083	20.5078	65.5008	20.5078	65.9678	20.5078	65.5372	20.5078	65.9243	20.5078	65.5807	20.5078	65.8786	20.5078	65.6289	20.5078	65.831	20.5078	65.6796	20.5078	65.7817	20.5078	65.731
21.2402	68.198	21.2402	68.1419	21.2402	68.2456	21.2402	68.0788	21.2402	68.2832	21.2402	68.0104	21.2402	68.3096	21.2402	67.9382	21.2402	68.3232	21.2402	67.8642	21.2402	68.3233	21.2402	67.7905	21.2402	68.3091	21.2402	67.7194	21.2402	68.2806	21.2402	67.6531	21.2402	68.2386	21.2402	67.5939	21.2402	68.1843	21.2402	67.5436	21.2402	68.1199	21.2402	67.5038	21.2402	68.048	21.2402	67.4757	21.2402	67.9713	21.2402	67.4599	21.2402	67.893	21.2402	67.4567	21.2402	67.8159	21.2402	67.4658	21.2402	67.7424	21.2402	67.4868	21.2402	67.6745	21.2402	67.5191	21.2402	67.6139	21.2402	67.5617
21.9727	69.6885	21.9727	69.6245	21.9727	69.7462	21.9727	69.5563	21.9727	69.7953	21.9727	69.486	21.9727	69.8338	21.9727	69.4156	21.9727	69.8598	21.9727	69.3468	21.9727	69.872	21.9727	69.2813	21.9727	69.8695	21.9727	69.2208	21.9727	69.852	21.9727	69.1667	21.9727	69.8201	21.9727	69.1203	21.9727	69.7749	21.9727	69.0828	21.9727	69.7183	21.9727	69.0551	21.9727	69.6525	21.9727	69.0379	21.9727	69.5803	21.9727	69.0315	21.9727	69.5046	21.9727	69.0363	21.9727	69.4281	21.9727	69.0521	21.9727	69.3536	21.9727	69.0788	21.9727	69.2833	21.9727	69.1161	21.9727	69.2194	21.9727	69.1632
22.7051	70.6988	22.7051	70.6403	22.7051	70.7495	22.7051	70.5758	22.7051	70.7905	22.7051	70.5072	22.7051	70.8201	22.7051	70.4363	22.7051	70.8368	22.7051	70.365	22.7051	70.8395	22.7051	70.2951	22.7051	70.8273	22.7051	70.2284	22.7051	70.8003	22.7051	70.1665	22.7051	70.7589	22.7051	70.111	22.7051	70.7045	22.7051	70.0632	22.7051	70.6391	22.7051	70.0244	22.7051	70.5651	22.7051	69.9955	22.7051	70.4857	22.7051	69.9772	22.7051	70.4039	22.7051	69.9703	22.7051	70.3231	22.7051	69.9752	22.7051	70.2461	22.7051	69.9921	22.7051	70.1756	22.7051	70.021	22.7051	70.1136	22.7051	70.0617
23.8037	72.9661	23.8037	72.905	23.8037	73.0194	23.8037	72.8379	23.8037	73.0631	23.8037	72.7668	23.8037	73.0954	23.8037	72.6935	23.8037	73.1148	23.8037	72.6197	23.8037	73.12	23.8037	72.5474	23.8037	73.1102	23.8037	72.4783	23.8037	73.0852	23.8037	72.4141	23.8037	73.0452	23.8037	72.3565	23.8037	72.9916	23.8037	72.3068	23.8037	72.926	23.8037	72.2665	23.8037	72.8509	23.8037	72.2365	23.8037	72.7692	23.8037	72.218	23.8037	72.6842	23.8037	72.2116	23.8037	72.599	23.8037	72.218	23.8037	72.5169	23.8037	72.2376	23.8037	72.4408	23.8037	72.2703	23.8037	72.373	23.8037	72.3157
24.5361	74.2937	24.5361	74.2327	24.5361	74.3475	24.5361	74.1664	24.5361	74.3919	24.5361	74.0969	24.5361	74.4251	24.5361	74.0262	24.5361	74.4457	24.5361	73.9564	24.5361	74.4524	24.5361	73.8892	24.5361	74.4445	24.5361	73.8262	24.5361	74.4219	24.5361	73.7691	24.5361	74.3849	24.5361	73.7189	24.5361	74.3349	24.5361	73.6769	24.5361	74.2735	24.5361	73.6439	24.5361	74.2033	24.5361	73.6206	24.5361	74.1271	24.5361	73.6077	24.5361	74.0479	24.5361	73.6055	24.5361	73.969	24.5361	73.6143	24.5361	73.8932	24.5361	73.6344	24.5361	73.8232	24.5361	73.6658	24.5361	73.761	24.5361	73.7082
25.2686	75.0674	25.2686	75.0085	25.2686	75.1186	25.2686	74.9439	25.2686	75.1605	25.2686	74.8755	25.2686	75.1913	25.2686	74.8052	25.2686	75.2096	25.2686	74.735	25.2686	75.2145	25.2686	74.6666	25.2686	75.2051	25.2686	74.6019	25.2686	75.1814	25.2686	74.5424	25.2686	75.1439	25.2686	74.4897	25.2686	75.0936	25.2686	74.445	25.2686	75.0323	25.2686	74.4094	25.2686	74.9623	25.2686	74.3838	25.2686	74.8866	25.2686	74.3691	25.2686	74.8079	25.2686	74.3658	25.2686	74.7295	25.2686	74.3741	25.2686	74.6541	25.2686	74.3942	25.2686	74.5842	25.2686	74.4258	25.2686	74.5218	25.2686	74.4687
26.3672	76.0091	26.3672	75.9503	26.3672	76.0591	26.3672	75.8846	26.3672	76.0989	26.3672	75.8138	26.3672	76.1267	26.3672	75.7395	26.3672	76.1413	26.3672	75.6639	26.3672	76.1415	26.3672	75.5886	26.3672	76.1266	26.3672	75.5156	26.3672	76.0964	26.3672	75.4466	26.3672	76.0513	26.3672	75.3833	26.3672	75.9925	26.3672	75.3273	26.3672	75.9217	26.3672	75.28	26.3672	75.8415	26.3672	75.2428	26.3672	75.7549	26.3672	75.217	26.3672	75.6654	26.3672	75.2038	26.3672	75.5764	26.3672	75.2039	26.3672	75.4915	26.3672	75.2182	26.3672	75.4137	26.3672	75.2468	26.3672	75.3457	26.3672	75.2896
27.0996	76.4779	27.0996	76.4183	27.0996	76.5309	27.0996	76.3542	27.0996	76.5758	27.0996	76.2873	27.0996	76.6104	27.0996	76.2193	27.0996	76.6333	27.0996	76.152	27.0996	76.643	27.0996	76.0871	27.0996	76.6385	27.0996	76.0259	27.0996	76.6193	27.0996	75.9701	27.0996	76.5856	27.0996	75.9209	27.0996	76.5385	27.0996	75.8793	27.0996	76.4796	27.0996	75.8465	27.0996	76.4112	27.0996	75.8233	27.0996	76.3362	27.0996	75.8104	27.0996	76.2577	27.0996	75.8084	27.0996	76.1789	27.0996	75.8177	27.0996	76.1027	27.0996	75.8385	27.0996	76.0318	27.0996	75.8709	27.0996	75.9685	27.0996	75.9145
28.1982	77.3871	28.1982	77.3198	28.1982	77.4466	28.1982	77.2472	28.1982	77.4962	28.1982	77.1715	28.1982	77.5337	28.1982	77.0948	28.1982	77.5574	28.1982	77.0191	28.1982	77.5658	28.1982	76.9464	28.1982	77.5581	28.1982	76.8782	28.1982	77.5343	28.1982	76.816	28.1982	77.4948	28.1982	76.7614	28.1982	77.4409	28.1982	76.7154	28.1982	77.3748	28.1982	76.6792	28.1982	77.299	28.1982	76.6537	28.1982	77.2167	28.1982	76.6398	28.1982	77.1309	28.1982	76.6379	28.1982	77.0451	28.1982	76.6487	28.1982	76.9623	28.1982	76.6723	28.1982	76.8852	28.1982	76.7084	28.1982	76.816	28.1982	76.7567
29.2969	78.3453	29.2969	78.2767	29.2969	78.405	29.2969	78.2014	29.2969	78.4534	29.2969	78.1216	29.2969	78.4884	29.2969	78.0395	29.2969	78.5081	29.2969	77.9569	29.2969	78.511	29.2969	77.8756	29.2969	78.4962	29.2969	77.7972	29.2969	78.4634	29.2969	77.7232	29.2969	78.4131	29.2969	77.6551	29.2969	78.3465	29.2969	77.5943	29.2969	78.2658	29.2969	77.5422	29.2969	78.1738	29.2969	77.5002	29.2969	78.0742	29.2969	77.47	29.2969	77.9708	29.2969	77.453	29.2969	77.8681	29.2969	77.4506	29.2969	77.7701	29.2969	77.464	29.2969	77.6809	29.2969	77.4941	29.2969	77.6036	29.2969	77.5408
30.0293	79.0983	30.0293	79.0305	30.0293	79.1556	30.0293	78.9544	30.0293	79.2003	30.0293	78.8721	30.0293	79.2308	30.0293	78.7861	30.0293	79.2455	30.0293	78.6986	30.0293	79.2434	30.0293	78.6117	30.0293	79.2238	30.0293	78.5275	30.0293	79.1867	30.0293	78.4478	30.0293	79.1326	30.0293	78.3742	30.0293	79.0629	30.0293	78.3085	30.0293	78.9795	30.0293	78.2522	30.0293	78.8853	30.0293	78.2067	30.0293	78.7836	30.0293	78.1737	30.0293	78.6784	30.0293	78.1546	30.0293	78.5738	30.0293	78.1508	30.0293	78.4741	30.0293	78.1635	30.0293	78.3833	30.0293	78.1935	30.0293	78.3046	30.0293	78.2408
31.1279	79.6706	31.1279	79.608	31.1279	79.7217	31.1279	79.5357	31.1279	79.7598	31.1279	79.4559	31.1279	79.7836	31.1279	79.371	31.1279	79.7922	31.1279	79.2836	31.1279	79.7853	31.1279	79.1962	31.1279	79.7627	31.1279	79.1115	31.1279	79.7249	31.1279	79.0318	31.1279	79.6726	31.1279	78.9593	31.1279	79.6075	31.1279	78.8961	31.1279	79.5315	31.1279	78.8438	31.1279	79.4471	31.1279	78.8041	31.1279	79.3572	31.1279	78.778	31.1279	79.2649	31.1279	78.7665	31.1279	79.1733	31.1279	78.7702	31.1279	79.0854	31.1279	78.7891	31.1279	79.0042	31.1279	78.823	31.1279	78.932	31.1279	78.871
32.2266	79.357	32.2266	79.286	32.2266	79.42	32.2266	79.2092	32.2266	79.4726	32.2266	79.1289	32.2266	79.5129	32.2266	79.0475	32.2266	79.5391	32.2266	78.9671	32.2266	79.5498	32.2266	78.8898	32.2266	79.5443	32.2266	78.8177	32.2266	79.5225	32.2266	78.7527	32.2266	79.4849	32.2266	78.6965	32.2266	79.4329	32.2266	78.6507	32.2266	79.3685	32.2266	78.6165	32.2266	79.2942	32.2266	78.595	32.2266	79.2129	32.2266	78.5866	32.2266	79.1278	32.2266	78.5918	32.2266	79.0418	32.2266	78.6105	32.2266	78.9578	32.2266	78.642	32.2266	78.8783	32.2266	78.6857	32.2266	78.8053	32.2266	78.7406
33.3252	79.7727	33.3252	79.7071	33.3252	79.8313	33.3252	79.6366	33.3252	79.8808	33.3252	79.563	33.3252	79.9192	33.3252	79.4883	33.3252	79.9447	33.3252	79.4143	33.3252	79.9557	33.3252	79.3426	33.3252	79.9514	33.3252	79.2751	33.3252	79.9312	33.3252	79.2134	33.3252	79.8956	33.3252	79.1593	33.3252	79.8456	33.3252	79.1141	33.3252	79.7832	33.3252	79.0792	33.3252	79.7106	33.3252	79.0555	33.3252	79.6309	33.3252	79.044	33.3252	79.5473	33.3252	79.045	33.3252	79.4628	33.3252	79.0588	33.3252	79.3807	33.3252	79.085	33.3252	79.3037	33.3252	79.1235	33.3252	79.234	33.3252	79.1735
34.79	80.5622	34.79	80.5033	34.79	80.6136	34.79	80.4389	34.79	80.6557	34.79	80.3711	34.79	80.6868	34.79	80.3019	34.79	80.7054	34.79	80.2332	34.79	80.7105	34.79	80.167	34.79	80.7016	34.79	80.105	34.79	80.6788	34.79	80.0489	34.79	80.6427	34.79	80.0002	34.79	80.5947	34.79	79.9602	34.79	80.5368	34.79	79.93	34.79	80.4713	34.79	79.9101	34.79	80.4009	34.79	79.9011	34.79	80.3284	34.79	79.903	34.79	80.2563	34.79	79.9157	34.79	80.187	34.79	79.9388	34.79	80.1225	34.79	79.9717	34.79	80.0644	34.79	80.0138
35.8887	80.7353	35.8887	80.6758	35.8887	80.7861	35.8887	80.6096	35.8887	80.8265	35.8887	80.5386	35.8887	80.8547	35.8887	80.4648	35.8887	80.8693	35.8887	80.39	35.8887	80.8693	35.8887	80.3162	35.8887	80.8542	35.8887	80.2453	35.8887	80.824	35.8887	80.1794	35.8887	80.7798	35.8887	80.1202	35.8887	80.7229	35.8887	80.0695	35.8887	80.6557	35.8887	80.0288	35.8887	80.5808	35.8887	79.9991	35.8887	80.5012	35.8887	79.9816	35.8887	80.42	35.8887	79.9765	35.8887	80.3401	35.8887	79.984	35.8887	80.2641	35.8887	80.0039	35.8887	80.1941	35.8887	80.0357	35.8887	80.1318	35.8887	80.0787
36.9873	81.1637	36.9873	81.1017	36.9873	81.2152	36.9873	81.0313	36.9873	81.2545	36.9873	80.9544	36.9873	81.2796	36.9873	80.8729	36.9873	81.2889	36.9873	80.7888	36.9873	81.2813	36.9873	80.7039	36.9873	81.2561	36.9873	80.6201	36.9873	81.2135	36.9873	80.5393	36.9873	81.1542	36.9873	80.4633	36.9873	81.08	36.9873	80.394	36.9873	80.9931	36.9873	80.3333	36.9873	80.8969	36.9873	80.2828	36.9873	80.7948	36.9873	80.2443	36.9873	80.6911	36.9873	80.2195	36.9873	80.5897	36.9873	80.2098	36.9873	80.4947	36.9873	80.2163	36.9873	80.4096	36.9873	80.2397	36.9873	80.3374	36.9873	80.2803
38.4521	82.0226	38.4521	81.9613	38.4521	82.0756	38.4521	81.8939	38.4521	82.1184	38.4521	81.8224	38.4521	82.1488	38.4521	81.7488	38.4521	82.1654	38.4521	81.6748	38.4521	82.1669	38.4521	81.6021	38.4521	82.1527	38.4521	81.5322	38.4521	82.1225	38.4521	81.4665	38.4521	82.0772	38.4521	81.4063	38.4521	82.018	38.4521	81.3529	38.4521	81.9468	38.4521	81.3074	38.4521	81.8662	38.4521	81.271	38.4521	81.7792	38.4521	81.2451	38.4521	81.6892	38.4521	81.231	38.4521	81.5997	38.4521	81.2297	38.4521	81.5141	38.4521	81.2425	38.4521	81.4358	38.4521	81.2698	38.4521	81.3676	38.4521	81.3118
39.917	82.7564	39.917	82.6989	39.917	82.8074	39.917	82.637	39.917	82.8496	39.917	82.5728	39.917	82.8813	39.917	82.5083	39.917	82.901	39.917	82.4455	39.917	82.9077	39.917	82.3861	39.917	82.9009	39.917	82.3315	39.917	82.8808	39.917	82.2829	39.917	82.8483	39.917	82.2414	39.917	82.8046	39.917	82.2077	39.917	82.7515	39.917	82.1824	39.917	82.6914	39.917	82.166	39.917	82.6266	39.917	82.1587	39.917	82.5594	39.917	82.1608	39.917	82.4923	39.917	82.1725	39.917	82.4274	39.917	82.1937	39.917	82.3667	39.917	82.2243	39.917	82.3117	39.917	82.2639
41.3818	83.0051	41.3818	82.9471	41.3818	83.0573	41.3818	82.8856	41.3818	83.1013	41.3818	82.8226	41.3818	83.1349	41.3818	82.7604	41.3818	83.1563	41.3818	82.7005	41.3818	83.164	41.3818	82.6446	41.3818	83.1576	41.3818	82.5943	41.3818	83.1372	41.3818	82.5506	41.3818	83.1037	41.3818	82.5145	41.3818	83.0588	41.3818	82.4867	41.3818	83.0048	41.3818	82.4674	41.3818	82.9445	41.3818	82.4565	41.3818	82.8807	41.3818	82.4539	41.3818	82.8161	41.3818	82.4592	41.3818	82.7533	41.3818	82.4719	41.3818	82.6944	41.3818	82.4917	41.3818	82.6407	41.3818	82.5186	41.3818	82.5932	41.3818	82.5525
42.8467	83.5737	42.8467	83.5073	42.8467	83.6372	42.8467	83.4407	42.8467	83.6947	42.8467	83.3764	42.8467	83.7435	42.8467	83.3165	42.8467	83.781	42.8467	83.2626	42.8467	83.8053	42.8467	83.2162	42.8467	83.8154	42.8467	83.1784	42.8467	83.8111	42.8467	83.1498	42.8467	83.7931	42.8467	83.1309	42.8467	83.763	42.8467	83.1217	42.8467	83.7229	42.8467	83.1221	42.8467	83.6753	42.8467	83.1313	42.8467	83.6229	42.8467	83.1485	42.8467	83.5683	42.8467	83.1725	42.8467	83.5135	42.8467	83.2022	42.8467	83.4601	42.8467	83.2365	42.8467	83.4092	42.8467	83.2747	42.8467	83.3612	42.8467	83.3163
44.3115	84.277	44.3115	84.2015	44.3115	84.3441	44.3115	84.121	44.3115	84.3999	44.3115	84.0388	44.3115	84.4416	44.3115	83.9585	44.3115	84.4676	44.3115	83.8828	44.3115	84.4768	44.3115	83.8144	44.3115	84.4691	44.3115	83.7555	44.3115	84.4455	44.3115	83.7077	44.3115	84.4078	44.3115	83.6721	44.3115	84.3585	44.3115	83.6495	44.3115	84.3006	44.3115	83.6398	44.3115	84.2375	44.3115	83.6426	44.3115	84.1723	44.3115	83.6567	44.3115	84.1077	44.3115	83.6805	44.3115	84.0457	44.3115	83.7121	44.3115	83.9874	44.3115	83.7493	44.3115	83.9331	44.3115	83.7907	44.3115	83.8826	44.3115	83.8352
45.7764	85.0051	45.7764	84.9396	45.7764	85.0553	45.7764	84.8613	45.7764	85.0882	45.7764	84.7732	45.7764	85.1023	45.7764	84.6782	45.7764	85.0967	45.7764	84.5794	45.7764	85.0713	45.7764	84.4797	45.7764	85.0268	45.7764	84.3818	45.7764	84.9645	45.7764	84.2883	45.7764	84.8864	45.7764	84.2015	45.7764	84.7954	45.7764	84.1235	45.7764	84.6949	45.7764	84.0564	45.7764	84.5888	45.7764	84.0019	45.7764	84.4812	45.7764	83.9615	45.7764	84.3762	45.7764	83.9361	45.7764	84.2772	45.7764	83.9264	45.7764	84.1873	45.7764	83.9325	45.7764	84.1086	45.7764	83.9542	45.7764	84.0429	45.7764	83.9912
47.2412	85.46	47.2412	85.4081	47.2412	85.4994	47.2412	85.3454	47.2412	85.5247	47.2412	85.2736	47.2412	85.5345	47.2412	85.1941	47.2412	85.5276	47.2412	85.1087	47.2412	85.5032	47.2412	85.019	47.2412	85.4613	47.2412	84.9266	47.2412	85.4021	47.2412	84.8335	47.2412	85.327	47.2412	84.7418	47.2412	85.2377	47.2412	84.6537	47.2412	85.1371	47.2412	84.5717	47.2412	85.0284	47.2412	84.4984	47.2412	84.9155	47.2412	84.4366	47.2412	84.8027	47.2412	84.3891	47.2412	84.6945	47.2412	84.3586	47.2412	84.5951	47.2412	84.3473	47.2412	84.5086	47.2412	84.3566	47.2412	84.4384	47.2412	84.3872
49.0723	85.8679	49.0723	85.8079	49.0723	85.9207	49.0723	85.7431	49.0723	85.9642	49.0723	85.6754	49.0723	85.996	49.0723	85.6063	49.0723	86.0141	49.0723	85.5373	49.0723	86.0172	49.0723	85.4694	49.0723	86.0043	49.0723	85.4039	49.0723	85.9756	49.0723	85.3417	49.0723	85.9318	49.0723	85.2841	49.0723	85.8743	49.0723	85.2325	49.0723	85.8054	49.0723	85.1881	49.0723	85.7277	49.0723	85.1526	49.0723	85.6441	49.0723	85.1273	49.0723	85.5579	49.0723	85.1136	49.0723	85.4722	49.0723	85.1129	49.0723	85.3903	49.0723	85.1259	49.0723	85.315	49.0723	85.1533	49.0723	85.2491	49.0723	85.1946
50.9033	86.1977	50.9033	86.1311	50.9033	86.2593	50.9033	86.0622	50.9033	86.313	50.9033	85.9937	50.9033	86.3562	50.9033	85.9278	50.9033	86.3864	50.9033	85.8663	50.9033	86.4021	50.9033	85.8106	50.9033	86.4027	50.9033	85.7621	50.9033	86.3881	50.9033	85.7215	50.9033	86.3595	50.9033	85.6894	50.9033	86.3184	50.9033	85.6662	50.9033	86.2671	50.9033	85.6517	50.9033	86.2081	50.9033	85.646	50.9033	86.1441	50.9033	85.6488	50.9033	86.0775	50.9033	85.6597	50.9033	86.0109	50.9033	85.6786	50.9033	85.9463	50.9033	85.7053	50.9033	85.8857	50.9033	85.7396	50.9033	85.8304	50.9033	85.7814
52.7344	86.4914	52.7344	86.4206	52.7344	86.5535	52.7344	86.344	52.7344	86.6041	52.7344	86.2648	52.7344	86.6411	52.7344	86.186	52.7344	86.6629	52.7344	86.1106	52.7344	86.669	52.7344	86.0412	52.7344	86.6594	52.7344	85.9801	52.7344	86.635	52.7344	85.9289	52.7344	86.5977	52.7344	85.8888	52.7344	86.5496	52.7344	85.8603	52.7344	86.4931	52.7344	85.8435	52.7344	86.4309	52.7344	85.8378	52.7344	86.3653	52.7344	85.8428	52.7344	86.2984	52.7344	85.8574	52.7344	86.2321	52.7344	85.881	52.7344	86.1677	52.7344	85.9127	52.7344	86.1065	52.7344	85.9518	52.7344	86.0495	52.7344	85.9977
54.5654	86.7034	54.5654	86.6377	54.5654	86.7559	54.5654	86.5615	54.5654	86.7931	54.5654	86.4777	54.5654	86.8139	54.5654	86.3899	54.5654	86.8177	54.5654	86.3014	54.5654	86.8051	54.5654	86.2154	54.5654	86.7769	54.5654	86.1349	54.5654	86.7348	54.5654	86.0623	54.5654	86.6809	54.5654	85.9994	54.5654	86.6174	54.5654	85.9478	54.5654	86.547	54.5654	85.9083	54.5654	86.4721	54.5654	85.8816	54.5654	86.3951	54.5654	85.8679	54.5654	86.3179	54.5654	85.8673	54.5654	86.2424	54.5654	85.8794	54.5654	86.17	54.5654	85.9038	54.5654	86.102	54.5654	85.9395	54.5654	86.04	54.5654	85.9853
56.3965	86.7835	56.3965	86.7185	56.3965	86.8366	56.3965	86.6444	56.3965	86.8757	56.3965	86.5646	56.3965	86.8993	56.3965	86.4826	56.3965	86.9068	56.3965	86.4018	56.3965	86.8981	56.3965	86.3258	56.3965	86.8739	56.3965	86.2572	56.3965	86.8358	56.3965	86.1985	56.3965	86.7859	56.3965	86.1512	56.3965	86.7268	56.3965	86.1161	56.3965	86.6615	56.3965	86.0934	56.3965	86.5933	56.3965	86.0827	56.3965	86.525	56.3965	86.0829	56.3965	86.4592	56.3965	86.0928	56.3965	86.3974	56.3965	86.1108	56.3965	86.3408	56.3965	86.1358	56.3965	86.2896	56.3965	86.1666	56.3965	86.2436	56.3965	86.2026
58.2275	87.1504	58.2275	87.0849	58.2275	87.2013	58.2275	87.0069	58.2275	87.2354	58.2275	86.9188	58.2275	87.2512	58.2275	86.8233	58.2275	87.2472	58.2275	86.723	58.2275	87.223	58.2275	86.6208	58.2275	87.1786	58.2275	86.5197	58.2275	87.115	58.2275	86.4225	58.2275	87.0341	58.2275	86.3321	58.2275	86.9389	58.2275	86.251	58.2275	86.8331	58.2275	86.1811	58.2275	86.7209	58.2275	86.1242	58.2275	86.607	58.2275	86.0814	58.2275	86.4958	58.2275	86.0535	58.2275	86.3915	58.2275	86.041	58.2275	86.2974	58.2275	86.0441	58.2275	86.2162	58.2275	86.0632	58.2275	86.1495	58.2275	86.0984
60.4248	87.3671	60.4248	87.3051	60.4248	87.4178	60.4248	87.2338	60.4248	87.4552	60.4248	87.1548	60.4248	87.4773	60.4248	87.0698	60.4248	87.4823	60.4248	86.9806	60.4248	87.4689	60.4248	86.8889	60.4248	87.4367	60.4248	86.7969	60.4248	87.3858	60.4248	86.7067	60.4248	87.3174	60.4248	86.6208	60.4248	87.2337	60.4248	86.5413	60.4248	87.1375	60.4248	86.4707	60.4248	87.0323	60.4248	86.4112	60.4248	86.9221	60.4248	86.3647	60.4248	86.8111	60.4248	86.3332	60.4248	86.7036	60.4248	86.3183	60.4248	86.6036	60.4248	86.321	60.4248	86.5148	60.4248	86.3423	60.4248	86.4403	60.4248	86.3823
62.6221	87.3457	62.6221	87.2822	62.6221	87.3996	62.6221	87.2113	62.6221	87.4419	62.6221	87.1346	62.6221	87.4706	62.6221	87.054	62.6221	87.4837	62.6221	86.9711	62.6221	87.4799	62.6221	86.8876	62.6221	87.4587	62.6221	86.8054	62.6221	87.4201	62.6221	86.7267	62.6221	87.3652	62.6221	86.6534	62.6221	87.296	62.6221	86.5877	62.6221	87.2149	62.6221	86.5316	62.6221	87.1251	62.6221	86.4871	62.6221	87.0298	62.6221	86.4558	62.6221	86.9326	62.6221	86.4391	62.6221	86.8369	62.6221	86.4379	62.6221	86.746	62.6221	86.4527	62.6221	86.6628	62.6221	86.4835	62.6221	86.5899	62.6221	86.5296
64.8193	87.3798	64.8193	87.3073	64.8193	87.4425	64.8193	87.2277	64.8193	87.4931	64.8193	87.1432	64.8193	87.5293	64.8193	87.0564	64.8193	87.5492	64.8193	86.9696	64.8193	87.5515	64.8193	86.8848	64.8193	87.5357	64.8193	86.8043	64.8193	87.5022	64.8193	86.73	64.8193	87.4522	64.8193	86.664	64.8193	87.3877	64.8193	86.6079	64.8193	87.3112	64.8193	86.5632	64.8193	87.2259	64.8193	86.5311	64.8193	87.1349	64.8193	86.5128	64.8193	87.0414	64.8193	86.5087	64.8193	86.9486	64.8193	86.5193	64.8193	86.8592	64.8193	86.5445	64.8193	86.7759	64.8193	86.5838	64.8193	86.701	64.8193	86.6364
67.0166	87.4254	67.0166	87.3492	67.0166	87.4925	67.0166	87.2667	67.0166	87.5477	67.0166	87.1807	67.0166	87.5885	67.0166	87.0938	67.0166	87.6128	67.0166	87.0084	67.0166	87.6191	67.0166	86.9268	67.0166	87.6069	67.0166	86.8511	67.0166	87.5766	67.0166	86.783	67.0166	87.5294	67.0166	86.7241	67.0166	87.4674	67.0166	86.6758	67.0166	87.3933	67.0166	86.639	67.0166	87.3104	67.0166	86.6146	67.0166	87.2219	67.0166	86.6031	67.0166	87.1311	67.0166	86.6046	67.0166	87.0411	67.0166	86.6193	67.0166	86.9547	67.0166	86.6469	67.0166	86.8742	67.0166	86.687	67.0166	86.8018	67.0166	86.7389
69.2139	87.5218	69.2139	87.4429	69.2139	87.5908	69.2139	87.357	69.2139	87.6471	69.2139	87.267	69.2139	87.6879	69.2139	87.1757	69.2139	87.7112	69.2139	87.0855	69.2139	87.7157	69.2139	86.999	69.2139	87.7008	69.2139	86.9183	69.2139	87.6672	69.2139	86.8454	69.2139	87.6163	69.2139	86.7819	69.2139	87.5502	69.2139	86.7293	69.2139	87.4718	69.2139	86.6887	69.2139	87.3842	69.2139	86.6609	69.2139	87.2907	69.2139	86.6465	69.2139	87.1948	69.2139	86.6458	69.2139	87.0996	69.2139	86.659	69.2139	87.008	69.2139	86.686	69.2139	86.9228	69.2139	86.7267	69.2139	86.8464	69.2139	86.7805
71.7773	87.5822	71.7773	87.5019	71.7773	87.6521	71.7773	87.4143	71.7773	87.7088	71.7773	87.3225	71.7773	87.7497	71.7773	87.2297	71.7773	87.7731	71.7773	87.1386	71.7773	87.778	71.7773	87.0521	71.7773	87.7642	71.7773	86.9723	71.7773	87.7326	71.7773	86.9015	71.7773	87.6847	71.7773	86.8411	71.7773	87.6227	71.7773	86.7924	71.7773	87.5492	71.7773	86.7563	71.7773	87.4669	71.7773	86.7332	71.7773	87.3788	71.7773	86.7234	71.7773	87.2875	71.7773	86.7272	71.7773	87.1957	71.7773	86.7446	71.7773	87.1063	71.7773	86.7755	71.7773	87.0216	71.7773	86.8197	71.7773	86.9442	71.7773	86.8764
74.3408	87.6007	74.3408	87.5214	74.3408	87.671	74.3408	87.4365	74.3408	87.729	74.3408	87.3493	74.3408	87.7722	74.3408	87.2632	74.3408	87.7986	74.3408	87.181	74.3408	87.8073	74.3408	87.1055	74.3408	87.7985	74.3408	87.0388	74.3408	87.7731	74.3408	86.9827	74.3408	87.7332	74.3408	86.9386	74.3408	87.6812	74.3408	86.907	74.3408	87.6199	74.3408	86.8881	74.3408	87.552	74.3408	86.8817	74.3408	87.4801	74.3408	86.8872	74.3408	87.4063	74.3408	86.904	74.3408	87.3325	74.3408	86.9311	74.3408	87.2602	74.3408	86.9677	74.3408	87.1908	74.3408	87.013	74.3408	87.1257	74.3408	87.066
76.9043	87.6038	76.9043	87.525	76.9043	87.6725	76.9043	87.4397	76.9043	87.7284	76.9043	87.3512	76.9043	87.7689	76.9043	87.263	76.9043	87.7924	76.9043	87.1787	76.9043	87.7981	76.9043	87.1012	76.9043	87.7863	76.9043	87.0332	76.9043	87.7581	76.9043	86.9768	76.9043	87.7157	76.9043	86.9334	76.9043	87.6617	76.9043	86.9037	76.9043	87.5991	76.9043	86.8876	76.9043	87.5309	76.9043	86.8844	76.9043	87.4598	76.9043	86.8931	76.9043	87.3881	76.9043	86.9123	76.9043	87.3176	76.9043	86.9407	76.9043	87.2497	76.9043	86.9771	76.9043	87.1853	76.9043	87.0205	76.9043	87.1252	76.9043	87.0701
79.834	87.5829	79.834	87.5003	79.834	87.6549	79.834	87.4104	79.834	87.7133	79.834	87.3166	79.834	87.7554	79.834	87.2223	79.834	87.7792	79.834	87.1307	79.834	87.7834	79.834	87.045	79.834	87.7682	79.834	86.9682	79.834	87.7346	79.834	86.9029	79.834	87.6851	79.834	86.8511	79.834	87.6226	79.834	86.8141	79.834	87.551	79.834	86.7925	79.834	87.4738	79.834	86.7859	79.834	87.3946	79.834	86.7934	79.834	87.3161	79.834	86.8134	79.834	87.2404	79.834	86.8439	79.834	87.1687	79.834	86.8832	79.834	87.1016	79.834	86.9296	79.834	87.0393	79.834	86.9818
82.3975	87.6616	82.3975	87.5739	82.3975	87.7392	82.3975	87.4796	82.3975	87.8032	82.3975	87.3822	82.3975	87.8505	82.3975	87.2847	82.3975	87.8785	82.3975	87.1903	82.3975	87.8858	82.3975	87.1016	82.3975	87.872	82.3975	87.0213	82.3975	87.8381	82.3975	86.9514	82.3975	87.7862	82.3975	86.8938	82.3975	87.7191	82.3975	86.8497	82.3975	87.6404	82.3975	86.8198	82.3975	87.5538	82.3975	86.8042	82.3975	87.4629	82.3975	86.8026	82.3975	87.3711	82.3975	86.8144	82.3975	87.2809	82.3975	86.8385	82.3975	87.1948	82.3975	86.8742	82.3975	87.1145	82.3975	86.9204	82.3975	87.0414	82.3975	86.9764
85.3271	87.7047	85.3271	87.6205	85.3271	87.7807	85.3271	87.5313	85.3271	87.845	85.3271	87.4404	85.3271	87.8945	85.3271	87.3507	85.3271	87.9265	85.3271	87.2646	85.3271	87.9392	85.3271	87.1846	85.3271	87.9322	85.3271	87.1127	85.3271	87.9059	85.3271	87.0506	85.3271	87.8622	85.3271	86.9996	85.3271	87.8033	85.3271	86.9605	85.3271	87.7323	85.3271	86.9337	85.3271	87.6525	85.3271	86.9192	85.3271	87.5667	85.3271	86.9168	85.3271	87.4781	85.3271	86.9264	85.3271	87.3894	85.3271	86.9478	85.3271	87.3031	85.3271	86.9809	85.3271	87.2215	85.3271	87.0255	85.3271	87.147	85.3271	87.0812
88.2568	87.9026	88.2568	87.8057	88.2568	87.9811	88.2568	87.6946	88.2568	88.0381	88.2568	87.574	88.2568	88.0714	88.2568	87.4491	88.2568	88.0801	88.2568	87.3257	88.2568	88.0648	88.2568	87.2094	88.2568	88.0273	88.2568	87.1058	88.2568	87.9711	88.2568	87.0198	88.2568	87.9007	88.2568	86.9551	88.2568	87.821	88.2568	86.9138	88.2568	87.7373	88.2568	86.8962	88.2568	87.6541	88.2568	86.9009	88.2568	87.5747	88.2568	86.9249	88.2568	87.501	88.2568	86.9641	88.2568	87.4331	88.2568	87.0142	88.2568	87.3699	88.2568	87.0708	88.2568	87.3096	88.2568	87.1305	88.2568	87.2503	88.2568	87.1907
91.5527	88.0203	91.5527	87.9256	91.5527	88.0954	91.5527	87.8143	91.5527	88.1482	91.5527	87.69	91.5527	88.1765	91.5527	87.5563	91.5527	88.1789	91.5527	87.4174	91.5527	88.155	91.5527	87.2776	91.5527	88.1052	91.5527	87.1415	91.5527	88.0312	91.5527	87.0136	91.5527	87.9358	91.5527	86.8983	91.5527	87.8227	91.5527	86.7993	91.5527	87.6965	91.5527	86.7199	91.5527	87.5621	91.5527	86.662	91.5527	87.4248	91.5527	86.6266	91.5527	87.2892	91.5527	86.6134	91.5527	87.1598	91.5527	86.6217	91.5527	87.04	91.5527	86.6497	91.5527	86.9323	91.5527	86.6961	91.5527	86.8384	91.5527	86.7593
94.8486	87.7778	94.8486	87.6749	94.8486	87.866	94.8486	87.5615	94.8486	87.9361	94.8486	87.442	94.8486	87.9858	94.8486	87.3211	94.8486	88.0135	94.8486	87.2036	94.8486	88.0189	94.8486	87.0938	94.8486	88.0024	94.8486	86.9955	94.8486	87.9656	94.8486	86.9115	94.8486	87.9107	94.8486	86.8437	94.8486	87.8401	94.8486	86.7932	94.8486	87.7566	94.8486	86.7601	94.8486	87.6632	94.8486	86.7441	94.8486	87.5626	94.8486	86.7444	94.8486	87.4576	94.8486	86.7604	94.8486	87.3512	94.8486	86.7914	94.8486	87.2462	94.8486	86.8368	94.8486	87.1456	94.8486	86.8961	94.8486	87.0521	94.8486	86.9683
98.1445	87.6295	98.1445	87.5233	98.1445	87.7202	98.1445	87.4058	98.1445	87.7919	98.1445	87.2821	98.1445	87.8422	98.1445	87.1577	98.1445	87.8702	98.1445	87.0381	98.1445	87.8759	98.1445	86.9289	98.1445	87.8608	98.1445	86.8352	98.1445	87.8276	98.1445	86.761	98.1445	87.7794	98.1445	86.7091	98.1445	87.7197	98.1445	86.6807	98.1445	87.6518	98.1445	86.6753	98.1445	87.5788	98.1445	86.691	98.1445	87.5028	98.1445	86.7246	98.1445	87.4255	98.1445	86.7726	98.1445	87.3477	98.1445	86.8312	98.1445	87.2701	98.1445	86.8971	98.1445	87.193	98.1445	86.9678	98.1445	87.1167	98.1445	87.0414
101.44	87.4502	101.44	87.3369	101.44	87.5435	101.44	87.2074	101.44	87.614	101.44	87.0669	101.44	87.6604	101.44	86.9211	101.44	87.6825	101.44	86.7767	101.44	87.6814	101.44	86.6402	101.44	87.6592	101.44	86.5179	101.44	87.6187	101.44	86.4154	101.44	87.5631	101.44	86.3368	101.44	87.4954	101.44	86.2847	101.44	87.4186	101.44	86.2597	101.44	87.3346	101.44	86.2608	101.44	87.245	101.44	86.2857	101.44	87.1508	101.44	86.3311	101.44	87.0529	101.44	86.3936	101.44	86.9523	101.44	86.4697	101.44	86.8503	101.44	86.5561	101.44	86.7489	101.44	86.65
105.103	87.3505	105.103	87.2307	105.103	87.4493	105.103	87.0941	105.103	87.5237	105.103	86.9457	105.103	87.5721	105.103	86.7919	105.103	87.594	105.103	86.6391	105.103	87.5905	105.103	86.4944	105.103	87.5642	105.103	86.3648	105.103	87.5191	105.103	86.2566	105.103	87.4597	105.103	86.175	105.103	87.3907	105.103	86.1235	105.103	87.3163	105.103	86.1037	105.103	87.2393	105.103	86.1147	105.103	87.1609	105.103	86.1542	105.103	87.0805	105.103	86.2178	105.103	86.9969	105.103	86.3005	105.103	86.9083	105.103	86.3967	105.103	86.8136	105.103	86.5007	105.103	86.7128	105.103	86.6075
108.765	87.2543	108.765	87.1364	108.765	87.3474	108.765	86.9978	108.765	87.4129	108.765	86.8438	108.765	87.4493	108.765	86.6807	108.765	87.4568	108.765	86.5158	108.765	87.4371	108.765	86.3569	108.765	87.3934	108.765	86.2119	108.765	87.3301	108.765	86.0883	108.765	87.2525	108.765	85.9922	108.765	87.1661	108.765	85.928	108.765	87.0756	108.765	85.8977	108.765	86.9848	108.765	85.9006	108.765	86.8956	108.765	85.9338	108.765	86.8085	108.765	85.9922	108.765	86.7224	108.765	86.0697	108.765	86.6354	108.765	86.16	108.765	86.5458	108.765	86.2569	108.765	86.4525	108.765	86.3556
112.793	87.0574	112.793	86.9481	112.793	87.1449	112.793	86.8208	112.793	87.2078	112.793	86.6805	112.793	87.2448	112.793	86.5331	112.793	87.2559	112.793	86.3854	112.793	87.2425	112.793	86.2447	112.793	87.2076	112.793	86.1184	112.793	87.1556	112.793	86.0134	112.793	87.0915	112.793	85.9354	112.793	87.0208	112.793	85.8886	112.793	86.9482	112.793	85.8744	112.793	86.8773	112.793	85.8919	112.793	86.8094	112.793	85.9374	112.793	86.744	112.793	86.0056	112.793	86.6792	112.793	86.0897	112.793	86.6119	112.793	86.1829	112.793	86.5393	112.793	86.2787	112.793	86.4594	112.793	86.372
116.455	87.0349	116.455	86.9374	116.455	87.1081	116.455	86.8193	116.455	87.1542	116.455	86.6851	116.455	87.1715	116.455	86.5402	116.455	87.1599	116.455	86.3905	116.455	87.121	116.455	86.2426	116.455	87.058	116.455	86.1035	116.455	86.976	116.455	85.9803	116.455	86.8812	116.455	85.8793	116.455	86.7805	116.455	85.8057	116.455	86.6803	116.455	85.7628	116.455	86.5857	116.455	85.751	116.455	86.4998	116.455	85.7683	116.455	86.4232	116.455	85.8099	116.455	86.3544	116.455	85.8694	116.455	86.29	116.455	85.94	116.455	86.2262	116.455	86.0149	116.455	86.1598	116.455	86.0892
120.85	86.8752	120.85	86.7747	120.85	86.9495	120.85	86.6515	120.85	86.9948	120.85	86.5104	120.85	87.0097	120.85	86.3568	120.85	86.9943	120.85	86.1968	120.85	86.9503	120.85	86.0374	120.85	86.8813	120.85	85.886	120.85	86.7922	120.85	85.7499	120.85	86.6893	120.85	85.6362	120.85	86.5792	120.85	85.5504	120.85	86.4683	120.85	85.4962	120.85	86.3617	120.85	85.4745	120.85	86.2628	120.85	85.4834	120.85	86.1729	120.85	85.5186	120.85	86.0911	120.85	85.5737	120.85	86.015	120.85	85.6418	120.85	85.9416	120.85	85.7165	120.85	85.8681	120.85	85.7929
124.878	86.7518	124.878	86.6587	124.878	86.8185	124.878	86.5427	124.878	86.8566	124.878	86.4083	124.878	86.8652	124.878	86.2607	124.878	86.8452	124.878	86.1057	124.878	86.7989	124.878	85.9498	124.878	86.7305	124.878	85.7997	124.878	86.6452	124.878	85.6623	124.878	86.5488	124.878	85.5444	124.878	86.4473	124.878	85.4517	124.878	86.3458	124.878	85.3883	124.878	86.2478	124.878	85.3563	124.878	86.1555	124.878	85.3552	124.878	86.0687	124.878	85.3821	124.878	85.9861	124.878	85.432	124.878	85.9055	124.878	85.4989	124.878	85.8247	124.878	85.5765	124.878	85.7425	124.878	85.659
129.272	86.6409	129.272	86.5448	129.272	86.7091	129.272	86.4236	129.272	86.7477	129.272	86.282	129.272	86.7568	129.272	86.1257	129.272	86.7378	129.272	85.9615	129.272	86.6939	129.272	85.797	129.272	86.6291	129.272	85.6404	129.272	86.5487	129.272	85.4996	129.272	86.4582	129.272	85.3821	129.272	86.3632	129.272	85.2941	129.272	86.2682	129.272	85.2394	129.272	86.1765	129.272	85.2194	129.272	86.0897	129.272	85.2326	129.272	86.0076	129.272	85.2747	129.272	85.9285	129.272	85.3394	129.272	85.85	129.272	85.4194	129.272	85.7696	129.272	85.5075	129.272	85.6856	129.272	85.5975
134.033	86.4632	134.033	86.3604	134.033	86.5406	134.033	86.2358	134.033	86.5909	134.033	86.095	134.033	86.6142	134.033	85.9448	134.033	86.6124	134.033	85.7931	134.033	86.5889	134.033	85.6479	134.033	86.5482	134.033	85.5172	134.033	86.4955	134.033	85.4078	134.033	86.436	134.033	85.3252	134.033	86.3744	134.033	85.273	134.033	86.3137	134.033	85.2528	134.033	86.2554	134.033	85.2641	134.033	86.1986	134.033	85.3044	134.033	86.141	134.033	85.3691	134.033	86.0794	134.033	85.4526	134.033	86.0108	134.033	85.5482	134.033	85.9331	134.033	85.6494	134.033	85.8458	134.033	85.7502
138.794	86.4829	138.794	86.3731	138.794	86.5725	138.794	86.2483	138.794	86.6382	138.794	86.1151	138.794	86.678	138.794	85.9807	138.794	86.692	138.794	85.8531	138.794	86.6822	138.794	85.74	138.794	86.6528	138.794	85.6486	138.794	86.6101	138.794	85.5845	138.794	86.5614	138.794	85.5515	138.794	86.5141	138.794	85.5511	138.794	86.474	138.794	85.582	138.794	86.4441	138.794	85.6406	138.794	86.4236	138.794	85.7214	138.794	86.4087	138.794	85.8175	138.794	86.3931	138.794	85.9216	138.794	86.3702	138.794	86.0262	138.794	86.3341	138.794	86.1246	138.794	86.2814	138.794	86.2109
143.555	86.9083	143.555	86.8023	143.555	86.984	143.555	86.6701	143.555	87.0264	143.555	86.5169	143.555	87.0336	143.555	86.3487	143.555	87.0061	143.555	86.1724	143.555	86.9464	143.555	85.9964	143.555	86.8597	143.555	85.8299	143.555	86.7534	143.555	85.6828	143.555	86.6369	143.555	85.5647	143.555	86.5201	143.555	85.4833	143.555	86.4119	143.555	85.4432	143.555	86.3189	143.555	85.4451	143.555	86.2439	143.555	85.4848	143.555	86.1856	143.555	85.5544	143.555	86.1389	143.555	85.6434	143.555	86.0963	143.555	85.7407	143.555	86.0498	143.555	85.8359	143.555	85.9927	143.555	85.9213
148.682	86.9529	148.682	86.8528	148.682	87.0218	148.682	86.7261	148.682	87.0567	148.682	86.5787	148.682	87.0573	148.682	86.4179	148.682	87.0256	148.682	86.2515	148.682	86.9662	148.682	86.0882	148.682	86.8863	148.682	85.9367	148.682	86.7947	148.682	85.8056	148.682	86.7007	148.682	85.7027	148.682	86.6128	148.682	85.6342	148.682	86.5373	148.682	85.6037	148.682	86.4766	148.682	85.6119	148.682	86.4297	148.682	85.6553	148.682	86.3918	148.682	85.7277	148.682	86.3565	148.682	85.82	148.682	86.3165	148.682	85.9223	148.682	86.2658	148.682	86.0247	148.682	86.2003	148.682	86.1192
153.809	87.1488	153.809	87.0629	153.809	87.2012	153.809	86.9485	153.809	87.2173	153.809	86.8123	153.809	87.1967	153.809	86.6621	153.809	87.142	153.809	86.5064	153.809	87.0589	153.809	86.3542	153.809	86.9559	153.809	86.2142	153.809	86.8438	153.809	86.0946	153.809	86.7346	153.809	86.0024	153.809	86.6393	153.809	85.943	153.809	86.5663	153.809	85.919	153.809	86.5191	153.809	85.9302	153.809	86.4958	153.809	85.9731	153.809	86.4894	153.809	86.0412	153.809	86.4899	153.809	86.1257	153.809	86.4865	153.809	86.2164	153.809	86.47	153.809	86.3035	153.809	86.4345	153.809	86.3782
159.302	87.45	159.302	87.3624	159.302	87.5018	159.302	87.244	159.302	87.5152	159.302	87.1014	159.302	87.4898	159.302	86.9424	159.302	87.4279	159.302	86.7762	159.302	87.3351	159.302	86.6128	159.302	87.2198	159.302	86.4627	159.302	87.0934	159.302	86.3361	159.302	86.9692	159.302	86.2419	159.302	86.8602	159.302	86.1866	159.302	86.7772	159.302	86.1731	159.302	86.7262	159.302	86.1998	159.302	86.707	159.302	86.2609	159.302	86.7126	159.302	86.3467	159.302	86.7317	159.302	86.4453	159.302	86.7507	159.302	86.5443	159.302	86.757	159.302	86.6321	159.302	86.7414	159.302	86.6996
164.795	87.8179	164.795	87.7268	164.795	87.8707	164.795	87.6026	164.795	87.8822	164.795	87.4519	164.795	87.8518	164.795	87.2828	164.795	87.7816	164.795	87.1045	164.795	87.6771	164.795	86.9268	164.795	87.5467	164.795	86.7603	164.795	87.402	164.795	86.6156	164.795	87.2567	164.795	86.5023	164.795	87.1245	164.795	86.4281	164.795	87.0177	164.795	86.3971	164.795	86.944	164.795	86.409	164.795	86.9048	164.795	86.4586	164.795	86.8949	164.795	86.536	164.795	86.9035	164.795	86.6286	164.795	86.9171	164.795	86.723	164.795	86.9223	164.795	86.8066	164.795	86.9085	164.795	86.8701
170.654	88.1266	170.654	88.0347	170.654	88.1763	170.654	87.9057	170.654	88.1809	170.654	87.7466	170.654	88.1401	170.654	87.5658	170.654	88.0564	170.654	87.3729	170.654	87.9354	170.654	87.1785	170.654	87.7862	170.654	86.9935	170.654	87.6205	170.654	86.8289	170.654	87.4526	170.654	86.6946	170.654	87.2973	170.654	86.5988	170.654	87.1675	170.654	86.5462	170.654	87.0721	170.654	86.5373	170.654	87.0134	170.654	86.5677	170.654	86.9868	170.654	86.6285	170.654	86.9822	170.654	86.7077	170.654	86.9859	170.654	86.792	170.654	86.9846	170.654	86.869	170.654	86.9677	170.654	86.9292
176.88	88.3146	176.88	88.224	176.88	88.3642	176.88	88.0978	176.88	88.3696	176.88	87.9429	176.88	88.33	176.88	87.768	176.88	88.2475	176.88	87.5828	176.88	88.1272	176.88	87.3981	176.88	87.9777	176.88	87.2249	176.88	87.8109	176.88	87.0735	176.88	87.6413	176.88	86.9528	176.88	87.4841	176.88	86.869	176.88	87.3534	176.88	86.8247	176.88	87.2586	176.88	86.8189	176.88	87.2026	176.88	86.8466	176.88	87.1807	176.88	86.8998	176.88	87.1821	176.88	86.9683	176.88	87.1923	176.88	87.0408	176.88	87.1978	176.88	87.1068	176.88	87.1879	176.88	87.1575
183.105	88.3969	183.105	88.3032	183.105	88.4434	183.105	88.167	183.105	88.4406	183.105	87.995	183.105	88.3894	183.105	87.7964	183.105	88.294	183.105	87.5826	183.105	88.1616	183.105	87.3667	183.105	88.0028	183.105	87.1638	183.105	87.8308	183.105	86.9893	183.105	87.6608	183.105	86.8571	183.105	87.5081	183.105	86.7772	183.105	87.3866	183.105	86.7537	183.105	87.3055	183.105	86.7832	183.105	87.2675	183.105	86.8558	183.105	87.2674	183.105	86.9569	183.105	87.2928	183.105	87.0698	183.105	87.327	183.105	87.178	183.105	87.3529	183.105	87.2676	183.105	87.3563	183.105	87.3285
189.331	88.1128	189.331	88.0336	189.331	88.1469	189.331	87.9131	189.331	88.1345	189.331	87.7576	189.331	88.0771	189.331	87.5758	189.331	87.979	189.331	87.3779	189.331	87.8473	189.331	87.1756	189.331	87.6923	189.331	86.9816	189.331	87.5266	189.331	86.8087	189.331	87.3645	189.331	86.669	189.331	87.2201	189.331	86.5721	189.331	87.1052	189.331	86.5236	189.331	87.0266	189.331	86.5236	189.331	86.9847	189.331	86.5662	189.331	86.9738	189.331	86.6403	189.331	86.9831	189.331	86.7315	189.331	86.9991	189.331	86.8245	189.331	87.0082	189.331	86.9058	189.331	86.9994	189.331	86.9656
196.289	87.8236	196.289	87.7456	196.289	87.8515	196.289	87.622	196.289	87.8269	196.289	87.4588	196.289	87.7496	196.289	87.2634	196.289	87.6228	196.289	87.045	196.289	87.453	196.289	86.8151	196.289	87.2515	196.289	86.5877	196.289	87.0338	196.289	86.3798	196.289	86.8194	196.289	86.2092	196.289	86.6298	196.289	86.0918	196.289	86.485	196.289	86.0378	196.289	86.3985	196.289	86.0478	196.289	86.3736	196.289	86.1127	196.289	86.4013	196.289	86.2153	196.289	86.4624	196.289	86.3346	196.289	86.533	196.289	86.4497	196.289	86.5898	196.289	86.5424	196.289	86.6153	196.289	86.5998
202.881	87.3919	202.881	87.3422	202.881	87.3949	202.881	87.2505	202.881	87.3491	202.881	87.123	202.881	87.2554	202.881	86.9668	202.881	87.1183	202.881	86.7895	202.881	86.9464	202.881	86.5988	202.881	86.7523	202.881	86.4035	202.881	86.552	202.881	86.2135	202.881	86.3634	202.881	86.0409	202.881	86.2038	202.881	85.8989	202.881	86.0868	202.881	85.8	202.881	86.019	202.881	85.7527	202.881	85.999	202.881	85.758	202.881	86.0174	202.881	85.8085	202.881	86.0587	202.881	85.8889	202.881	86.1047	202.881	85.9797	202.881	86.1383	202.881	86.0619	202.881	86.1458	202.881	86.1201
210.205	86.8634	210.205	86.8061	210.205	86.8704	210.205	86.7048	210.205	86.8233	210.205	86.5681	210.205	86.7222	210.205	86.4056	210.205	86.5713	210.205	86.2275	210.205	86.3795	210.205	86.0443	210.205	86.1605	210.205	85.8664	210.205	85.9328	210.205	85.7039	210.205	85.7177	210.205	85.5669	210.205	85.5374	210.205	85.4641	210.205	85.4107	210.205	85.4024	210.205	85.3483	210.205	85.3845	210.205	85.3499	210.205	85.4079	210.205	85.4031	210.205	85.4641	210.205	85.4875	210.205	85.5392	210.205	85.5789	210.205	85.6159	210.205	85.6556	210.205	85.677	210.205	85.7013	210.205	85.7083
217.529	86.3432	217.529	86.2797	217.529	86.3566	217.529	86.1729	217.529	86.3163	217.529	86.0324	217.529	86.2222	217.529	85.8696	217.529	86.0779	217.529	85.6971	217.529	85.8913	217.529	85.528	217.529	85.6758	217.529	85.3748	217.529	85.4509	217.529	85.2494	217.529	85.2417	217.529	85.1617	217.529	85.0765	217.529	85.1185	217.529	84.9799	217.529	85.1224	217.529	84.9656	217.529	85.1706	217.529	85.0305	217.529	85.2548	217.529	85.155	217.529	85.3618	217.529	85.309	217.529	85.4751	217.529	85.4605	217.529	85.5768	217.529	85.5828	217.529	85.6499	217.529	85.6584	217.529	85.6801
225.22	86.2455	225.22	86.1634	225.22	86.2712	225.22	86.0335	225.22	86.2341	225.22	85.8662	225.22	86.1311	225.22	85.6729	225.22	85.9626	225.22	85.466	225.22	85.7336	225.22	85.2585	225.22	85.4553	225.22	85.0641	225.22	85.1463	225.22	84.8966	225.22	84.8329	225.22	84.7692	225.22	84.549	225.22	84.6921	225.22	84.3309	225.22	84.6704	225.22	84.2095	225.22	84.7017	225.22	84.1996	225.22	84.7757	225.22	84.2929	225.22	84.8745	225.22	84.4593	225.22	84.9759	225.22	84.657	225.22	85.0564	225.22	84.8446	225.22	85.0947	225.22	84.99	225.22	85.0749
233.276	85.851	233.276	85.7772	233.276	85.8718	233.276	85.6596	233.276	85.8331	233.276	85.509	233.276	85.7316	233.276	85.3358	233.276	85.5682	233.276	85.1492	233.276	85.3475	233.276	84.9569	233.276	85.0788	233.276	84.7657	233.276	84.7767	233.276	84.5835	233.276	84.4616	233.276	84.4203	233.276	84.1592	233.276	84.2878	233.276	83.8986	233.276	84.1964	233.276	83.7075	233.276	84.1517	233.276	83.6057	233.276	84.1501	233.276	83.5983	233.276	84.1787	233.276	83.6728	233.276	84.2173	233.276	83.8016	233.276	84.2433	233.276	83.95	233.276	84.2366	233.276	84.0855	233.276	84.1846
241.333	85.3846	241.333	85.2372	241.333	85.4798	241.333	85.052	241.333	85.5133	241.333	84.8476	241.333	85.4804	241.333	84.645	241.333	85.3808	241.333	84.4634	241.333	85.2193	241.333	84.3162	241.333	85.0062	241.333	84.2082	241.333	84.758	241.333	84.1357	241.333	84.497	241.333	84.09	241.333	84.2491	241.333	84.0624	241.333	84.0392	241.333	84.0473	241.333	83.8862	241.333	84.0431	241.333	83.7988	241.333	84.0492	241.333	83.7742	241.333	84.0635	241.333	83.8003	241.333	84.0799	241.333	83.8593	241.333	84.0896	241.333	83.9322	241.333	84.0829	241.333	84.0012	241.333	84.0536
250.122	85.6186	250.122	85.4522	250.122	85.7068	250.122	85.2138	250.122	85.7142	250.122	84.9135	250.122	85.6414	250.122	84.5664	250.122	85.4927	250.122	84.1933	250.122	85.2765	250.122	83.8215	250.122	85.0062	250.122	83.483	250.122	84.7012	250.122	83.2094	250.122	84.387	250.122	83.025	250.122	84.0937	250.122	82.9397	250.122	83.852	250.122	82.9471	250.122	83.6868	250.122	83.0285	250.122	83.6085	250.122	83.1593	250.122	83.6087	250.122	83.315	250.122	83.6622	250.122	83.4738	250.122	83.7354	250.122	83.6173	250.122	83.7964	250.122	83.73	250.122	83.822	250.122	83.8003
258.911	85.3601	258.911	85.2542	258.911	85.3947	258.911	85.0809	258.911	85.3576	258.911	84.8483	258.911	85.2532	258.911	84.5673	258.911	85.0906	258.911	84.2522	258.911	84.8835	258.911	83.9203	258.911	84.6489	258.911	83.5914	258.911	84.4055	258.911	83.2873	258.911	84.1709	258.911	83.0296	258.911	83.9588	258.911	82.837	258.911	83.7783	258.911	82.7226	258.911	83.6341	258.911	82.6902	258.911	83.5283	258.911	82.7328	258.911	83.4607	258.911	82.8333	258.911	83.4266	258.911	82.9676	258.911	83.4146	258.911	83.1093	258.911	83.4068	258.911	83.2348	258.911	83.3832	258.911	83.328
268.066	83.9792	268.066	83.9379	268.066	83.9401	268.066	83.8298	268.066	83.8153	268.066	83.6764	268.066	83.6093	268.066	83.5035	268.066	83.3371	268.066	83.3382	268.066	83.0271	268.066	83.2041	268.066	82.7227	268.066	83.1168	268.066	82.4814	268.066	83.082	268.066	82.3628	268.066	83.0967	268.066	82.4063	268.066	83.1526	268.066	82.608	268.066	83.2396	268.066	82.9201	268.066	83.3492	268.066	83.2732	268.066	83.4751	268.066	83.6038	268.066	83.6118	268.066	83.8689	268.066	83.7534	268.066	84.0485	268.066	83.8913	268.066	84.141	268.066	84.0141	268.066	84.1556	268.066	84.1077
277.222	84.3028	277.222	84.1451	277.222	84.3479	277.222	83.8828	277.222	84.2783	277.222	83.5329	277.222	84.0959	277.222	83.123	277.222	83.8062	277.222	82.6932	277.222	83.4192	277.222	82.2938	277.222	82.9552	277.222	81.9787	277.222	82.4528	277.222	81.792	277.222	81.9777	277.222	81.7552	277.222	81.6219	277.222	81.8627	277.222	81.4778	277.222	82.0866	277.222	81.5893	277.222	82.3883	277.222	81.9203	277.222	82.7268	277.222	82.3748	277.222	83.0645	277.222	82.8487	277.222	83.3686	277.222	83.2637	277.222	83.6113	277.222	83.5746	277.222	83.7695	277.222	83.7622	277.222	83.8245
287.109	84.346	287.109	84.1646	287.109	84.416	287.109	83.876	287.109	84.3725	287.109	83.4888	287.109	84.2133	287.109	83.0202	287.109	83.9374	287.109	82.5019	287.109	83.5474	287.109	81.9858	287.109	83.0564	287.109	81.544	287.109	82.4989	287.109	81.2551	287.109	81.9442	287.109	81.1738	287.109	81.5018	287.109	81.3033	287.109	81.2948	287.109	81.5958	287.109	81.3919	287.109	81.9809	287.109	81.7529	287.109	82.3944	287.109	82.2548	287.109	82.7897	287.109	82.767	287.109	83.1367	287.109	83.1982	287.109	83.4148	287.109	83.5027	287.109	83.6072	287.109	83.667	287.109	83.697
297.363	84.9755	297.363	84.8396	297.363	85.009	297.363	84.6086	297.363	84.9333	297.363	84.2906	297.363	84.7424	297.363	83.8948	297.363	84.4304	297.363	83.4331	297.363	83.9923	297.363	82.9248	297.363	83.4265	297.363	82.4037	297.363	82.741	297.363	81.9241	297.363	81.965	297.363	81.5577	297.363	81.1697	297.363	81.3735	297.363	80.4913	297.363	81.4057	297.363	80.1184	297.363	81.6336	297.363	80.19	297.363	81.9917	297.363	80.6673	297.363	82.3985	297.363	81.358	297.363	82.779	297.363	82.0589	297.363	83.0731	297.363	82.6379	297.363	83.2349	297.363	83.0336	297.363	83.2296
307.617	84.781	307.617	84.5913	307.617	84.8481	307.617	84.2842	307.617	84.7899	307.617	83.8684	307.617	84.6048	307.617	83.3596	307.617	84.2926	307.617	82.7848	307.617	83.8561	307.617	82.1872	307.617	83.3035	307.617	81.6291	307.617	82.6538	307.617	81.1847	307.617	81.9459	307.617	80.9206	307.617	81.2504	307.617	80.8692	307.617	80.6765	307.617	81.0158	307.617	80.3525	307.617	81.3083	307.617	80.3618	307.617	81.6791	307.617	80.6792	307.617	82.0622	307.617	81.1829	307.617	82.401	307.617	81.7291	307.617	82.6496	307.617	82.2082	307.617	82.7728	307.617	82.5564	307.617	82.7458
318.604	84.6576	318.604	84.5099	318.604	84.6839	318.604	84.2411	318.604	84.5896	318.604	83.8534	318.604	84.3758	318.604	83.3507	318.604	84.0419	318.604	82.7426	318.604	83.5825	318.604	82.0522	318.604	82.9891	318.604	81.3304	318.604	82.2547	318.604	80.6686	318.604	81.3886	318.604	80.1935	318.604	80.4442	318.604	80.0173	318.604	79.56	318.604	80.1657	318.604	78.9763	318.604	80.5586	318.604	78.9233	318.604	81.0671	318.604	79.4019	318.604	81.576	318.604	80.1733	318.604	82.0055	318.604	80.9752	318.604	82.3047	318.604	81.648	318.604	82.4395	318.604	82.1236	318.604	82.3851
329.956	84.7135	329.956	84.4609	329.956	84.8584	329.956	84.097	329.956	84.896	329.956	83.6179	329.956	84.8214	329.956	83.0217	329.956	84.624	329.956	82.3109	329.956	84.2887	329.956	81.4999	329.956	83.8008	329.956	80.6301	329.956	83.1504	329.956	79.7943	329.956	82.3412	329.956	79.1532	329.956	81.4061	329.956	78.8902	329.956	80.4375	329.956	79.0824	329.956	79.6235	329.956	79.6248	329.956	79.2186	329.956	80.3195	329.956	79.3655	329.956	80.9975	329.956	79.9382	329.956	81.5557	329.956	80.6651	329.956	81.9395	329.956	81.3282	329.956	82.1201	329.956	81.8144	329.956	82.0809
341.675	85.7484	341.675	85.4413	341.675	85.9205	341.675	84.9889	341.675	85.9642	341.675	84.3769	341.675	85.8833	341.675	83.5878	341.675	85.6776	341.675	82.604	341.675	85.3406	341.675	81.4144	341.675	84.8558	341.675	80.0252	341.675	84.1938	341.675	78.4829	341.675	83.3134	341.675	76.9266	341.675	82.1685	341.675	75.6784	341.675	80.7296	341.675	75.2181	341.675	79.051	341.675	75.7502	341.675	77.4443	341.675	76.9038	341.675	76.631	341.675	78.1765	341.675	77.0802	341.675	79.2713	341.675	78.228	341.675	80.0585	341.675	79.3508	341.675	80.4829	341.675	80.1381	341.675	80.5156
353.394	84.7403	353.394	84.839	353.394	84.5907	353.394	84.8617	353.394	84.4144	353.394	84.7813	353.394	84.2316	353.394	84.567	353.394	84.0534	353.394	84.1844	353.394	83.8758	353.394	83.597	353.394	83.6786	353.394	82.7699	353.394	83.4295	353.394	81.6757	353.394	83.0909	353.394	80.3049	353.394	82.6273	353.394	78.6872	353.394	82.0131	353.394	76.939	353.394	81.2437	353.394	75.3335	353.394	80.3488	353.394	74.2908	353.394	79.4045	353.394	74.0721	353.394	78.5232	353.394	74.4867	353.394	77.8028	353.394	75.149	353.394	77.2582	353.394	75.8025	353.394	76.8118	353.394	76.353
365.845	84.3122	365.845	84.3875	365.845	84.1924	365.845	84.4123	365.845	84.0319	365.845	84.3779	365.845	83.8295	365.845	84.2699	365.845	83.5767	365.845	84.0655	365.845	83.26	365.845	83.7339	365.845	82.8665	365.845	83.2429	365.845	82.3892	365.845	82.5696	365.845	81.8314	365.845	81.7119	365.845	81.2098	365.845	80.7015	365.845	80.5598	365.845	79.6155	365.845	79.9418	365.845	78.5877	365.845	79.4359	365.845	77.7991	365.845	79.1112	365.845	77.4111	365.845	78.9766	365.845	77.453	365.845	78.9619	365.845	77.7906	365.845	78.954	365.845	78.2273	365.845	78.8535	365.845	78.6081
379.028	84.1567	379.028	84.114	379.028	84.1307	379.028	84.0067	379.028	84.03	379.028	83.8367	379.028	83.8482	379.028	83.6026	379.028	83.5811	379.028	83.2987	379.028	83.2298	379.028	82.916	379.028	82.8005	379.028	82.4456	379.028	82.3007	379.028	81.8872	379.028	81.7331	379.028	81.2559	379.028	81.0971	379.028	80.5881	379.028	80.4	379.028	79.9405	379.028	79.6808	379.028	79.3839	379.028	79.0298	379.028	78.9862	379.028	78.575	379.028	78.7859	379.028	78.4067	379.028	78.7668	379.028	78.4946	379.028	78.8567	379.028	78.7053	379.028	78.9582	379.028	78.8973	379.028	78.9864
392.212	83.2881	392.212	83.3772	392.212	83.1134	392.212	83.3807	392.212	82.8593	392.212	83.2995	392.212	82.5401	392.212	83.1317	392.212	82.1758	392.212	82.8694	392.212	81.7853	392.212	82.5026	392.212	81.3783	392.212	82.0268	392.212	80.9535	392.212	81.454	392.212	80.5062	392.212	80.8199	392.212	80.044	392.212	80.1821	392.212	79.603	392.212	79.6086	392.212	79.2528	392.212	79.16	392.212	79.0703	392.212	78.8753	392.212	79.0842	392.212	78.7656	392.212	79.2386	392.212	78.8146	392.212	79.4235	392.212	78.9805	392.212	79.5389	392.212	79.2013	392.212	79.5331	392.212	79.4069
406.128	83.6632	406.128	83.5616	406.128	83.7014	406.128	83.4152	406.128	83.6651	406.128	83.2466	406.128	83.5491	406.128	83.0711	406.128	83.3479	406.128	82.8845	406.128	83.0516	406.128	82.6618	406.128	82.6447	406.128	82.3721	406.128	82.1077	406.128	82.0049	406.128	81.4203	406.128	81.5911	406.128	80.5736	406.128	81.2042	406.128	79.604	406.128	80.9381	406.128	78.6688	406.128	80.8656	406.128	78.1141	406.128	80.9999	406.128	78.2883	406.128	81.2856	406.128	79.1113	406.128	81.6259	406.128	80.1506	406.128	81.9179	406.128	81.0579	406.128	82.0718	406.128	81.6869	406.128	82.0141
420.41	83.4727	420.41	83.2683	420.41	83.582	420.41	82.959	420.41	83.6088	420.41	82.5456	420.41	83.5597	420.41	82.0435	420.41	83.4297	420.41	81.48	420.41	83.2032	420.41	80.8855	420.41	82.8608	420.41	80.2858	420.41	82.3865	420.41	79.7045	420.41	81.7705	420.41	79.1753	420.41	81.0068	420.41	78.7518	420.41	80.0959	420.41	78.4998	420.41	79.0641	420.41	78.4673	420.41	78.0206	420.41	78.6469	420.41	77.2279	420.41	78.9652	420.41	77.0229	420.41	79.3089	420.41	77.4661	420.41	79.5614	420.41	78.2296	420.41	79.6246	420.41	78.9478	420.41	79.4292
435.425	82.7217	435.425	82.5067	435.425	82.8764	435.425	82.2382	435.425	82.9697	435.425	81.9366	435.425	82.998	435.425	81.6347	435.425	82.9501	435.425	81.3619	435.425	82.8104	435.425	81.118	435.425	82.5648	435.425	80.8598	435.425	82.2036	435.425	80.52	435.425	81.7192	435.425	80.0452	435.425	81.0991	435.425	79.4328	435.425	80.3249	435.425	78.7532	435.425	79.3824	435.425	78.1515	435.425	78.2982	435.425	77.7949	435.425	77.2104	435.425	77.7532	435.425	76.4273	435.425	77.9234	435.425	76.2715	435.425	78.1045	435.425	76.7033	435.425	78.1182	435.425	77.3453	435.425	77.8649
450.806	83.4578	450.806	83.3601	450.806	83.3727	450.806	83.054	450.806	83.1362	450.806	82.5192	450.806	82.7836	450.806	81.7477	450.806	82.3519	450.806	80.7706	450.806	81.8839	450.806	79.7142	450.806	81.4368	450.806	78.8404	450.806	81.0772	450.806	78.4229	450.806	80.847	450.806	78.4819	450.806	80.7271	450.806	78.7891	450.806	80.6486	450.806	79.1287	450.806	80.5458	450.806	79.402	450.806	80.4012	450.806	79.5895	450.806	80.2505	450.806	79.711	450.806	80.1463	450.806	79.8017	450.806	80.1084	450.806	79.8896	450.806	80.108	450.806	79.9794	450.806	80.0993	450.806	80.0556
466.553	83.4769	466.553	83.4887	466.553	83.3707	466.553	83.3858	466.553	83.1766	466.553	83.14	466.553	82.8827	466.553	82.7183	466.553	82.4612	466.553	82.0847	466.553	81.8791	466.553	81.2088	466.553	81.1111	466.553	80.0922	466.553	80.1527	466.553	78.8296	466.553	79.0469	466.553	77.7015	466.553	77.9435	466.553	77.1719	466.553	77.1553	466.553	77.5214	466.553	77.0276	466.553	78.4958	466.553	77.5913	466.553	79.6377	466.553	78.545	466.553	80.6554	466.553	79.5845	466.553	81.4327	466.553	80.5356	466.553	81.9403	466.553	81.309	466.553	82.1776	466.553	81.8551	466.553	82.1481
483.032	83.6577	483.032	83.5504	483.032	83.6684	483.032	83.3157	483.032	83.6043	483.032	82.9241	483.032	83.4656	483.032	82.3523	483.032	83.2239	483.032	81.5872	483.032	82.8338	483.032	80.6314	483.032	82.2536	483.032	79.5073	483.032	81.461	483.032	78.264	483.032	80.4557	483.032	76.9956	483.032	79.2574	483.032	75.8879	483.032	77.9206	483.032	75.2756	483.032	76.6069	483.032	75.4979	483.032	75.7153	483.032	76.4696	483.032	75.7604	483.032	77.7151	483.032	76.7213	483.032	78.8395	483.032	78.0039	483.032	79.6643	483.032	79.1208	483.032	80.1281	483.032	79.8703	483.032	80.2038
499.878	83.9555	499.878	83.7876	499.878	84.0052	499.878	83.4815	499.878	83.9451	499.878	83.0158	499.878	83.7631	499.878	82.3706	499.878	83.4296	499.878	81.5305	499.878	82.9158	499.878	80.494	499.878	82.2126	499.878	79.2895	499.878	81.3329	499.878	77.9988	499.878	80.2975	499.878	76.7849	499.878	79.1238	499.878	75.9126	499.878	77.8474	499.878	75.6876	499.878	76.6079	499.878	76.2254	499.878	75.7723	499.878	77.2895	499.878	75.8129	499.878	78.491	499.878	76.7344	499.878	79.5368	499.878	78.0197	499.878	80.2706	499.878	79.2086	499.878	80.6213	499.878	80.0821	499.878	80.5602
517.456	82.6994	517.456	82.5977	517.456	82.7034	517.456	82.3817	517.456	82.6238	517.456	82.0388	517.456	82.4664	517.456	81.5617	517.456	82.2282	517.456	80.945	517.456	81.8992	517.456	80.1851	517.456	81.4644	517.456	79.2909	517.456	80.9068	517.456	78.2912	517.456	80.2095	517.456	77.2178	517.456	79.351	517.456	76.1037	517.456	78.2994	517.456	75.1273	517.456	77.0334	517.456	74.8319	517.456	75.6529	517.456	75.6487	517.456	74.6374	517.456	77.0865	517.456	74.7897	517.456	78.4221	517.456	76.0828	517.456	79.3228	517.456	77.6259	517.456	79.7008	517.456	78.8376	517.456	79.5396
535.767	83.0392	535.767	83.1146	535.767	82.8948	535.767	83.0549	535.767	82.7282	535.767	82.8033	535.767	82.5387	535.767	82.3345	535.767	82.2709	535.767	81.6721	535.767	81.8446	535.767	80.8886	535.767	81.1967	535.767	80.0663	535.767	80.3068	535.767	79.2316	535.767	79.2001	535.767	78.3267	535.767	77.9625	535.767	77.2914	535.767	76.7908	535.767	76.2577	535.767	75.9923	535.767	75.697	535.767	75.7617	535.767	76.0287	535.767	75.9945	535.767	76.9908	535.767	76.5086	535.767	78.0275	535.767	77.2217	535.767	78.8079	535.767	78.0321	535.767	79.2019	535.767	78.7458	535.767	79.1721
554.81	83.3641	554.81	83.2212	554.81	83.4778	554.81	83.0001	554.81	83.5581	554.81	82.6319	554.81	83.542	554.81	82.0678	554.81	83.343	554.81	81.3171	554.81	82.9023	554.81	80.4677	554.81	82.2152	554.81	79.6502	554.81	81.3136	554.81	78.9302	554.81	80.212	554.81	78.222	554.81	78.8609	554.81	77.3487	554.81	77.1578	554.81	76.235	554.81	75.0333	554.81	75.1806	554.81	72.7597	554.81	74.9507	554.81	71.7194	554.81	75.8536	554.81	73.0942	554.81	77.1801	554.81	75.323	554.81	78.2715	554.81	77.1626	554.81	78.8769	554.81	78.3607	554.81	78.9199
574.219	83.7162	574.219	83.5423	574.219	83.7465	574.219	83.2288	574.219	83.6248	574.219	82.7719	574.219	83.3523	574.219	82.1711	574.219	82.9535	574.219	81.4579	574.219	82.4775	574.219	80.7247	574.219	81.9771	574.219	80.0997	574.219	81.472	574.219	79.6304	574.219	80.9247	574.219	79.1831	574.219	80.2483	574.219	78.5241	574.219	79.3374	574.219	77.5317	574.219	78.0957	574.219	76.4451	574.219	76.4922	574.219	76.0067	574.219	74.8291	574.219	76.7123	574.219	74.2676	574.219	77.9742	574.219	75.5633	574.219	79.0516	574.219	77.4326	574.219	79.6195	574.219	78.8448	574.219	79.5692
594.727	83.8424	594.727	83.7766	594.727	83.7942	594.727	83.5521	594.727	83.6832	594.727	83.151	594.727	83.5158	594.727	82.556	594.727	83.2323	594.727	81.7158	594.727	82.7512	594.727	80.5527	594.727	82.0321	594.727	79.0518	594.727	81.095	594.727	77.4178	594.727	79.9954	594.727	76.1371	594.727	78.8043	594.727	75.5447	594.727	77.6331	594.727	75.3838	594.727	76.6072	594.727	75.3219	594.727	75.6956	594.727	75.4615	594.727	74.7335	594.727	76.0735	594.727	73.9604	594.727	77.0226	594.727	74.3079	594.727	77.8757	594.727	75.7955	594.727	78.3069	594.727	77.277	594.727	78.1391
615.601	84.7597	615.601	84.7902	615.601	84.7128	615.601	84.6992	615.601	84.6987	615.601	84.4069	615.601	84.633	615.601	83.8784	615.601	84.3479	615.601	83.1004	615.601	83.7386	615.601	82.056	615.601	82.8559	615.601	80.7358	615.601	81.8459	615.601	79.1998	615.601	80.7628	615.601	77.6372	615.601	79.5049	615.601	76.3179	615.601	77.9877	615.601	75.4183	615.601	76.3359	615.601	75.0038	615.601	75.0033	615.601	75.2684	615.601	74.668	615.601	76.3179	615.601	75.4918	615.601	77.717	615.601	76.8636	615.601	78.9015	615.601	78.1909	615.601	79.5786	615.601	79.1743	615.601	79.6638
637.207	84.0212	637.207	83.8731	637.207	84.1311	637.207	83.6376	637.207	84.1847	637.207	83.2561	637.207	84.0798	637.207	82.6932	637.207	83.7141	637.207	81.9485	637.207	83.1	637.207	81.0612	637.207	82.3963	637.207	80.0994	637.207	81.7681	637.207	79.1189	637.207	81.1652	637.207	78.0958	637.207	80.3547	637.207	76.8894	637.207	79.1961	637.207	75.3649	637.207	77.7775	637.207	73.8653	637.207	76.2641	637.207	73.6515	637.207	74.7527	637.207	75.068	637.207	73.859	637.207	76.7947	637.207	74.7413	637.207	78.075	637.207	76.6089	637.207	78.7503	637.207	78.0756	637.207	78.7753
659.912	83.3034	659.912	83.0378	659.912	83.4451	659.912	82.6335	659.912	83.4363	659.912	82.104	659.912	83.2175	659.912	81.5127	659.912	82.8017	659.912	80.9047	659.912	82.3544	659.912	80.2486	659.912	82.0831	659.912	79.4845	659.912	81.961	659.912	78.6199	659.912	81.6803	659.912	77.7678	659.912	80.9073	659.912	77.0816	659.912	79.5041	659.912	76.5687	659.912	77.7182	659.912	76.0943	659.912	76.3252	659.912	75.8825	659.912	75.8795	659.912	76.5703	659.912	75.9773	659.912	78.0235	659.912	76.5084	659.912	79.4008	659.912	77.7553	659.912	80.162	659.912	79.2017	659.912	80.1006
682.983	85.0542	682.983	85.0333	682.983	84.8942	682.983	84.7525	682.983	84.6429	682.983	84.2109	682.983	84.346	682.983	83.5137	682.983	83.9998	682.983	82.8108	682.983	83.5778	682.983	82.15	682.983	83.0446	682.983	81.4066	682.983	82.3471	682.983	80.4353	682.983	81.4174	682.983	79.2917	682.983	80.2191	682.983	78.1532	682.983	78.7785	682.983	76.9406	682.983	77.1322	682.983	75.493	682.983	75.4625	682.983	74.6174	682.983	74.8767	682.983	75.8325	682.983	76.445	682.983	78.2342	682.983	78.7299	682.983	80.3049	682.983	80.5461	682.983	81.5854	682.983	81.6599	682.983	82.0241
707.153	84.6594	707.153	84.6563	707.153	84.4007	707.153	84.2833	707.153	83.9314	707.153	83.517	707.153	83.2037	707.153	82.5179	707.153	82.2199	707.153	81.5628	707.153	81.2095	707.153	80.7809	707.153	80.5288	707.153	80.0095	707.153	80.2132	707.153	79.0161	707.153	79.8461	707.153	77.8307	707.153	79.024	707.153	76.733	707.153	77.6836	707.153	75.8086	707.153	76.0735	707.153	74.8973	707.153	74.5512	707.153	74.3634	707.153	73.2727	707.153	75.1054	707.153	72.6639	707.153	76.747	707.153	74.0948	707.153	78.2561	707.153	76.6519	707.153	79.1795	707.153	78.5285	707.153	79.3297
732.056	83.7569	732.056	83.6451	732.056	83.9085	732.056	83.4609	732.056	84.009	732.056	83.0825	732.056	83.8452	732.056	82.5094	732.056	83.3498	732.056	81.7804	732.056	82.6996	732.056	80.8527	732.056	82.125	732.056	79.6347	732.056	81.6385	732.056	78.1327	732.056	81.0581	732.056	76.5971	732.056	80.1834	732.056	75.3905	732.056	78.7845	732.056	74.6522	732.056	76.5531	732.056	74.0608	732.056	73.613	732.056	73.4531	732.056	72.426	732.056	74.0173	732.056	74.0256	732.056	76.3455	732.056	75.808	732.056	78.7443	732.056	77.6599	732.056	80.1687	732.056	79.4299	732.056	80.3863
757.69	84.0479	757.69	83.9321	757.69	84.1006	757.69	83.7759	757.69	83.9946	757.69	83.5383	757.69	83.6567	757.69	83.123	757.69	83.1581	757.69	82.3805	757.69	82.6783	757.69	81.2071	757.69	82.2756	757.69	79.7008	757.69	81.7405	757.69	78.1816	757.69	80.821	757.69	76.9438	757.69	79.5286	757.69	76.0758	757.69	77.8846	757.69	75.4795	757.69	75.258	757.69	74.52	757.69	69.971	757.69	72.9445	757.69	56.6938	757.69	72.5961	757.69	69.1628	757.69	74.8911	757.69	74.5793	757.69	77.5165	757.69	77.5424	757.69	79.194	757.69	79.2196	757.69	79.762
784.424	84.65	784.424	84.7197	784.424	84.442	784.424	84.5721	784.424	83.9394	784.424	84.0901	784.424	82.9397	784.424	83.3286	784.424	81.5864	784.424	82.4328	784.424	80.4265	784.424	81.3308	784.424	79.844	784.424	79.8018	784.424	79.6408	784.424	77.8425	784.424	79.4889	784.424	75.7224	784.424	79.3559	784.424	74.3089	784.424	79.2324	784.424	74.8232	784.424	78.7857	784.424	76.2794	784.424	77.6498	784.424	77.1411	784.424	75.4822	784.424	76.8552	784.424	71.2163	784.424	75.6662	784.424	69.4731	784.424	75.2027	784.424	74.6279	784.424	76.3248	784.424	77.0611	784.424	77.3388
812.256	83.711	812.256	84.1676	812.256	83.0631	812.256	84.4206	812.256	82.2119	812.256	84.4208	812.256	81.3069	812.256	84.1926	812.256	80.6637	812.256	83.761	812.256	80.4745	812.256	83.0264	812.256	80.6565	812.256	81.8506	812.256	80.9802	812.256	80.0691	812.256	81.1678	812.256	77.4327	812.256	80.9099	812.256	73.4788	812.256	79.8466	812.256	67.5027	812.256	77.6361	812.256	64.3784	812.256	74.3238	812.256	67.3483	812.256	71.2642	812.256	70.1284	812.256	69.6333	812.256	72.7749	812.256	68.252	812.256	74.769	812.256	69.2779	812.256	75.5546	812.256	72.5875	812.256	74.8635
840.82	82.4239	840.82	82.1053	840.82	83.3266	840.82	82.3971	840.82	83.8986	840.82	82.9251	840.82	83.3883	840.82	83.5919	840.82	81.8835	840.82	84.1977	840.82	80.3526	840.82	84.3185	840.82	79.518	840.82	83.8006	840.82	79.1155	840.82	82.9858	840.82	78.5628	840.82	82.129	840.82	77.6208	840.82	80.5913	840.82	76.9265	840.82	76.9923	840.82	76.4817	840.82	70.9991	840.82	74.8795	840.82	72.9565	840.82	70.4565	840.82	76.9337	840.82	58.8991	840.82	78.6614	840.82	61.0162	840.82	78.7246	840.82	68.0241	840.82	77.4918	840.82	72.0405	840.82	75.2091
870.483	86.6151	870.483	86.4725	870.483	86.0721	870.483	85.9428	870.483	84.9033	870.483	85.4967	870.483	83.6517	870.483	85.4036	870.483	83.1002	870.483	85.4751	870.483	83.2377	870.483	85.1714	870.483	83.1859	870.483	84.1212	870.483	82.4009	870.483	82.8204	870.483	81.1146	870.483	82.268	870.483	79.8735	870.483	82.0174	870.483	78.9693	870.483	80.6107	870.483	78.0096	870.483	77.5263	870.483	76.7108	870.483	73.5944	870.483	75.7158	870.483	73.3886	870.483	75.2753	870.483	77.8055	870.483	75.1442	870.483	81.2869	870.483	77.2508	870.483	82.8861	870.483	80.5818	870.483	82.632
901.245	86.2733	901.245	85.8468	901.245	86.3865	901.245	85.2259	901.245	85.7546	901.245	84.4289	901.245	83.983	901.245	83.6302	901.245	81.1876	901.245	82.8637	901.245	78.1481	901.245	81.818	901.245	76.0224	901.245	80.382	901.245	76.2174	901.245	79.1835	901.245	77.601	901.245	78.8119	901.245	78.2182	901.245	78.4494	901.245	77.8367	901.245	76.9976	901.245	77.0058	901.245	74.9857	901.245	75.5117	901.245	75.2615	901.245	71.3968	901.245	77.2424	901.245	68.6989	901.245	78.3708	901.245	74.7883	901.245	78.5068	901.245	77.2986	901.245	78.2566	901.245	77.93	901.245	78.0597
933.105	85.8608	933.105	85.5824	933.105	85.7088	933.105	84.9994	933.105	85.0118	933.105	84.2469	933.105	83.7818	933.105	83.4644	933.105	82.2717	933.105	82.6835	933.105	80.7408	933.105	81.6826	933.105	79.0999	933.105	79.9304	933.105	76.799	933.105	77.231	933.105	72.9329	933.105	75.1158	933.105	67.5428	933.105	75.085	933.105	63.67	933.105	75.0278	933.105	60.8285	933.105	72.8712	933.105	47.9054	933.105	68.0958	933.105	55.7464	933.105	71.7777	933.105	59.8227	933.105	77.1564	933.105	65.8783	933.105	79.7931	933.105	72.2356	933.105	80.3622	933.105	76.5227	933.105	79.2003
966.064	84.5963	966.064	83.9758	966.064	84.9022	966.064	83.338	966.064	84.4362	966.064	82.7233	966.064	83.1691	966.064	82.2469	966.064	81.7782	966.064	81.8272	966.064	80.545	966.064	80.7561	966.064	79.4634	966.064	78.5005	966.064	78.8197	966.064	76.9984	966.064	78.1821	966.064	77.5416	966.064	77.2647	966.064	77.3715	966.064	76.5861	966.064	76.0198	966.064	76.9254	966.064	73.6653	966.064	77.3177	966.064	70.5553	966.064	75.7451	966.064	66.4027	966.064	69.6037	966.064	67.5984	966.064	59.9979	966.064	73.1003	966.064	71.1478	966.064	75.7445	966.064	74.5713	966.064	76.0232
1,000.12	84.1562	1,000.12	84.489	1,000.12	83.8592	1,000.12	84.4585	1,000.12	83.904	1,000.12	84.0768	1,000.12	83.9235	1,000.12	83.5926	1,000.12	83.2188	1,000.12	83.0873	1,000.12	81.4074	1,000.12	82.5182	1,000.12	78.7989	1,000.12	82.2713	1,000.12	76.1841	1,000.12	82.9402	1,000.12	74.5843	1,000.12	83.503	1,000.12	74.5579	1,000.12	82.5718	1,000.12	75.4204	1,000.12	79.8605	1,000.12	75.8508	1,000.12	75.5739	1,000.12	74.5693	1,000.12	69.5001	1,000.12	71.6793	1,000.12	72.4486	1,000.12	63.129	1,000.12	76.8079	1,000.12	62.9834	1,000.12	78.0462	1,000.12	70.2605	1,000.12	77.2412	1,000.12	72.6291	1,000.12	75.0368
1,035.28	84.5001	1,035.28	84.0993	1,035.28	84.6563	1,035.28	83.6746	1,035.28	84.1428	1,035.28	83.2159	1,035.28	82.7884	1,035.28	82.4211	1,035.28	81.0913	1,035.28	80.756	1,035.28	79.1545	1,035.28	78.4021	1,035.28	76.5513	1,035.28	76.4865	1,035.28	74.4413	1,035.28	75.8639	1,035.28	73.2432	1,035.28	75.8972	1,035.28	72.2884	1,035.28	76.9461	1,035.28	72.1832	1,035.28	77.9389	1,035.28	74.2222	1,035.28	77.2885	1,035.28	76.0271	1,035.28	74.1104	1,035.28	75.5424	1,035.28	68.7071	1,035.28	70.7384	1,035.28	72.2702	1,035.28	61.5132	1,035.28	76.108	1,035.28	73.1327	1,035.28	77.3344	1,035.28	76.1515	1,035.28	77.1146
1,071.9	84.5315	1,071.9	84.9685	1,071.9	83.7753	1,071.9	84.9851	1,071.9	82.9745	1,071.9	84.5809	1,071.9	82.3814	1,071.9	83.7084	1,071.9	81.5381	1,071.9	82.2703	1,071.9	79.6306	1,071.9	80.8749	1,071.9	77.2111	1,071.9	80.4471	1,071.9	74.3263	1,071.9	79.9266	1,071.9	71.3816	1,071.9	78.4007	1,071.9	72.9671	1,071.9	77.4155	1,071.9	73.4315	1,071.9	76.1392	1,071.9	72.9154	1,071.9	71.9165	1,071.9	73.5583	1,071.9	65.0395	1,071.9	72.3263	1,071.9	73.614	1,071.9	63.4592	1,071.9	76.0785	1,071.9	71.116	1,071.9	76.6797	1,071.9	74.0277	1,071.9	76.7159	1,071.9	74.6771	1,071.9	75.8688
1,109.62	85.2923	1,109.62	85.4154	1,109.62	84.4415	1,109.62	84.9853	1,109.62	82.7998	1,109.62	84.1511	1,109.62	81.148	1,109.62	83.2169	1,109.62	80.6888	1,109.62	82.0457	1,109.62	80.1935	1,109.62	79.9285	1,109.62	78.4692	1,109.62	78.9136	1,109.62	76.2912	1,109.62	80.2976	1,109.62	74.1366	1,109.62	80.6076	1,109.62	72.6851	1,109.62	79.222	1,109.62	70.7993	1,109.62	78.0439	1,109.62	71.1612	1,109.62	76.7808	1,109.62	71.6055	1,109.62	71.4234	1,109.62	73.1013	1,109.62	65.8064	1,109.62	75.6163	1,109.62	76.9381	1,109.62	76.5725	1,109.62	78.8393	1,109.62	72.2652	1,109.62	76.791	1,109.62	67.2392	1,109.62	71.9417
1,148.8	86.8736	1,148.8	86.6994	1,148.8	85.9034	1,148.8	85.8877	1,148.8	83.7445	1,148.8	85.3787	1,148.8	81.6068	1,148.8	85.8009	1,148.8	81.1361	1,148.8	85.9457	1,148.8	81.2315	1,148.8	84.1373	1,148.8	81.2475	1,148.8	80.9949	1,148.8	80.3198	1,148.8	80.0218	1,148.8	76.7204	1,148.8	80.4079	1,148.8	73.4418	1,148.8	79.5909	1,148.8	73.5431	1,148.8	79.4737	1,148.8	73.4848	1,148.8	78.5604	1,148.8	73.2862	1,148.8	73.8772	1,148.8	75.3231	1,148.8	70.3446	1,148.8	77.4595	1,148.8	77.0089	1,148.8	76.0556	1,148.8	79.8884	1,148.8	67.2418	1,148.8	79.6605	1,148.8	69.5797	1,148.8	76.4344
1,189.09	86.6529	1,189.09	86.3264	1,189.09	86.2378	1,189.09	84.8081	1,189.09	85.28	1,189.09	83.1462	1,189.09	83.7242	1,189.09	83.0355	1,189.09	82.2845	1,189.09	83.3799	1,189.09	81.733	1,189.09	81.6034	1,189.09	82.0224	1,189.09	77.8749	1,189.09	81.5916	1,189.09	77.7887	1,189.09	80.8242	1,189.09	79.9246	1,189.09	81.2237	1,189.09	78.8213	1,189.09	80.2538	1,189.09	76.9866	1,189.09	78.3226	1,189.09	77.7104	1,189.09	78.4612	1,189.09	77.5301	1,189.09	79.6094	1,189.09	74.7646	1,189.09	79.608	1,189.09	71.6883	1,189.09	75.1774	1,189.09	77.9291	1,189.09	64.1716	1,189.09	78.9981	1,189.09	72.4373	1,189.09	75.6428
1,231.2	85.5077	1,231.2	84.3814	1,231.2	86.2232	1,231.2	83.9385	1,231.2	85.6077	1,231.2	84.5026	1,231.2	84.2803	1,231.2	84.5681	1,231.2	83.1964	1,231.2	83.2162	1,231.2	82.451	1,231.2	80.9041	1,231.2	82.4813	1,231.2	77.6932	1,231.2	81.9864	1,231.2	75.1264	1,231.2	81.3114	1,231.2	75.5479	1,231.2	81.5539	1,231.2	76.7923	1,231.2	80.9002	1,231.2	76.3004	1,231.2	79.4104	1,231.2	75.4381	1,231.2	79.5785	1,231.2	74.7891	1,231.2	80.4511	1,231.2	71.7643	1,231.2	79.5421	1,231.2	71.3354	1,231.2	74.4774	1,231.2	77.8039	1,231.2	66.364	1,231.2	78.9172	1,231.2	73.493	1,231.2	76.8879
1,274.41	85.398	1,274.41	83.9579	1,274.41	86.2312	1,274.41	82.8053	1,274.41	85.6289	1,274.41	82.4969	1,274.41	84.0389	1,274.41	81.9717	1,274.41	82.2008	1,274.41	79.9349	1,274.41	81.357	1,274.41	77.2253	1,274.41	82.0856	1,274.41	76.5707	1,274.41	81.9987	1,274.41	73.6464	1,274.41	81.2053	1,274.41	61.6358	1,274.41	81.6355	1,274.41	71.6043	1,274.41	80.6969	1,274.41	72.5241	1,274.41	77.6286	1,274.41	73.2404	1,274.41	77.4532	1,274.41	72.6424	1,274.41	77.5189	1,274.41	71.5279	1,274.41	74.7286	1,274.41	67.8935	1,274.41	69.7184	1,274.41	73.2643	1,274.41	70.524	1,274.41	76.9046	1,274.41	73.9227	1,274.41	76.6864
1,319.46	83.4802	1,319.46	81.9416	1,319.46	85.1585	1,319.46	82.4401	1,319.46	85.4986	1,319.46	83.5225	1,319.46	85.0442	1,319.46	82.6051	1,319.46	83.9893	1,319.46	79.5097	1,319.46	83.0965	1,319.46	77.1138	1,319.46	82.711	1,319.46	74.9308	1,319.46	80.6744	1,319.46	72.6917	1,319.46	78.4754	1,319.46	74.671	1,319.46	79.863	1,319.46	74.2296	1,319.46	80.5358	1,319.46	69.7852	1,319.46	78.9657	1,319.46	64.6193	1,319.46	78.4895	1,319.46	64.6259	1,319.46	77.1653	1,319.46	69.5	1,319.46	72.9819	1,319.46	69.4782	1,319.46	58.3101	1,319.46	71.5586	1,319.46	68.0941	1,319.46	72.6144	1,319.46	70.5757	1,319.46	70.4939
1,365.97	84.8238	1,365.97	83.4957	1,365.97	85.7586	1,365.97	83.0925	1,365.97	85.5159	1,365.97	82.994	1,365.97	84.2872	1,365.97	81.0274	1,365.97	81.6782	1,365.97	76.9615	1,365.97	78.9551	1,365.97	74.4957	1,365.97	80.1496	1,365.97	73.3954	1,365.97	80.6888	1,365.97	72.0642	1,365.97	78.3646	1,365.97	72.0313	1,365.97	77.1968	1,365.97	69.0172	1,365.97	77.7418	1,365.97	65.4833	1,365.97	77.7649	1,365.97	53.1366	1,365.97	77.4022	1,365.97	65.5342	1,365.97	76.9596	1,365.97	70.2927	1,365.97	74.6085	1,365.97	70.2465	1,365.97	60.0798	1,365.97	64.7812	1,365.97	70.0275	1,365.97	67.0177	1,365.97	72.978	1,365.97	71.7129
1,414.31	85.837	1,414.31	85.8517	1,414.31	85.242	1,414.31	84.7542	1,414.31	84.7048	1,414.31	82.8431	1,414.31	84.1951	1,414.31	80.7123	1,414.31	82.8915	1,414.31	78.6258	1,414.31	80.5522	1,414.31	75.4946	1,414.31	79.4501	1,414.31	71.6868	1,414.31	79.9386	1,414.31	71.0263	1,414.31	78.7855	1,414.31	70.9497	1,414.31	75.1442	1,414.31	72.7247	1,414.31	76.6397	1,414.31	75.2683	1,414.31	74.997	1,414.31	74.5284	1,414.31	71.1582	1,414.31	69.3555	1,414.31	71.5112	1,414.31	62.197	1,414.31	71.1345	1,414.31	61.007	1,414.31	59.6125	1,414.31	51.2352	1,414.31	70.8093	1,414.31	64.461	1,414.31	73.7297	1,414.31	71.2495
1,464.11	86.2078	1,464.11	85.4826	1,464.11	85.9257	1,464.11	84.3135	1,464.11	84.6547	1,464.11	83.1167	1,464.11	83.7625	1,464.11	81.5966	1,464.11	82.1342	1,464.11	78.217	1,464.11	79.3099	1,464.11	72.3699	1,464.11	77.1425	1,464.11	67.0855	1,464.11	75.7593	1,464.11	68.1144	1,464.11	76.9386	1,464.11	63.6089	1,464.11	76.7238	1,464.11	60.267	1,464.11	73.7047	1,464.11	65.7814	1,464.11	73.7196	1,464.11	71.713	1,464.11	74.0895	1,464.11	68.7448	1,464.11	72.8937	1,464.11	55.2228	1,464.11	70.9436	1,464.11	56.1415	1,464.11	51.3867	1,464.11	63.6391	1,464.11	70.7284	1,464.11	72.1247	1,464.11	74.2394	1,464.11	74.3192
1,515.75	85.5026	1,515.75	86.3212	1,515.75	85.083	1,515.75	85.7122	1,515.75	85.4391	1,515.75	83.1275	1,515.75	85.4662	1,515.75	80.8982	1,515.75	82.8002	1,515.75	78.4137	1,515.75	77.4803	1,515.75	75.2393	1,515.75	73.1713	1,515.75	76.1975	1,515.75	72.0727	1,515.75	72.1273	1,515.75	76.6702	1,515.75	65.2512	1,515.75	78.4975	1,515.75	71.1583	1,515.75	75.6728	1,515.75	66.3528	1,515.75	71.9869	1,515.75	61.9891	1,515.75	64.8871	1,515.75	67.5481	1,515.75	65.1121	1,515.75	69.4476	1,515.75	65.9489	1,515.75	69.544	1,515.75	63.1861	1,515.75	72.1236	1,515.75	70.0809	1,515.75	72.4545	1,515.75	72.6709	1,515.75	70.3048
1,569.21	86.7122	1,569.21	86.3926	1,569.21	86.429	1,569.21	86.1043	1,569.21	83.9163	1,569.21	85.4785	1,569.21	81.0162	1,569.21	84.0915	1,569.21	79.3809	1,569.21	82.099	1,569.21	76.9582	1,569.21	80.5533	1,569.21	76.1214	1,569.21	79.7177	1,569.21	67.5618	1,569.21	76.1829	1,569.21	65.7774	1,569.21	74.0329	1,569.21	67.975	1,569.21	72.7834	1,569.21	69.0607	1,569.21	58.7155	1,569.21	69.402	1,569.21	72.7712	1,569.21	69.5998	1,569.21	75.3905	1,569.21	68.7184	1,569.21	76.6703	1,569.21	64.5446	1,569.21	72.4003	1,569.21	73.2842	1,569.21	64.0474	1,569.21	75.1236	1,569.21	66.1108	1,569.21	72.9465	1,569.21	66.1516
1,624.51	86.0938	1,624.51	85.9568	1,624.51	85.414	1,624.51	86.643	1,624.51	83.2428	1,624.51	86.6395	1,624.51	80.4613	1,624.51	84.3951	1,624.51	76.8285	1,624.51	81.6729	1,624.51	73.9684	1,624.51	80.0883	1,624.51	74.0073	1,624.51	78.4685	1,624.51	62.5097	1,624.51	76.8581	1,624.51	68.3494	1,624.51	76.9425	1,624.51	73.1553	1,624.51	79.3354	1,624.51	77.7022	1,624.51	77.2884	1,624.51	76.7352	1,624.51	55.5462	1,624.51	72.5873	1,624.51	69.6389	1,624.51	71.0392	1,624.51	73.1124	1,624.51	74.3362	1,624.51	75.4471	1,624.51	77.0694	1,624.51	71.731	1,624.51	68.789	1,624.51	57.6965	1,624.51	61.2542	1,624.51	55.3877
1,681.64	86.6939	1,681.64	86.2253	1,681.64	85.5379	1,681.64	85.6211	1,681.64	83.0114	1,681.64	85.0513	1,681.64	80.0435	1,681.64	83.4765	1,681.64	75.7006	1,681.64	82.4265	1,681.64	72.9913	1,681.64	81.2001	1,681.64	71.0183	1,681.64	77.6683	1,681.64	58.0141	1,681.64	75.4961	1,681.64	65.5496	1,681.64	72.1337	1,681.64	69.1364	1,681.64	71.9108	1,681.64	74.8861	1,681.64	74.1805	1,681.64	72.3719	1,681.64	69.3781	1,681.64	69.5502	1,681.64	58.0421	1,681.64	73.8741	1,681.64	66.093	1,681.64	69.6675	1,681.64	68.0993	1,681.64	73.0713	1,681.64	64.8818	1,681.64	68.9282	1,681.64	63.0327	1,681.64	58.8668	1,681.64	61.2098
1,740.97	87.3246	1,740.97	85.8357	1,740.97	86.3501	1,740.97	84.152	1,740.97	82.9183	1,740.97	84.0704	1,740.97	78.6645	1,740.97	83.8162	1,740.97	73.9862	1,740.97	82.7727	1,740.97	68.4392	1,740.97	79.6826	1,740.97	67.2372	1,740.97	72.5625	1,740.97	65.2992	1,740.97	73.8192	1,740.97	63.7769	1,740.97	72.2816	1,740.97	64.3756	1,740.97	69.4854	1,740.97	74.2444	1,740.97	72.4647	1,740.97	75.1113	1,740.97	74.5407	1,740.97	63.7863	1,740.97	74.8988	1,740.97	70.651	1,740.97	68.789	1,740.97	69.1357	1,740.97	62.3122	1,740.97	75.2014	1,740.97	71.3741	1,740.97	72.2474	1,740.97	69.6772	1,740.97	66.016	1,740.97	55.5388
1,802.49	85.8592	1,802.49	86.1335	1,802.49	84.2887	1,802.49	85.2105	1,802.49	81.3777	1,802.49	83.7283	1,802.49	76.7646	1,802.49	82.3282	1,802.49	67.7669	1,802.49	80.4209	1,802.49	70.9565	1,802.49	77.6389	1,802.49	73.1133	1,802.49	75.4984	1,802.49	71.8116	1,802.49	70.7538	1,802.49	70.8369	1,802.49	72.2169	1,802.49	71.7343	1,802.49	76.0103	1,802.49	67.766	1,802.49	71.1474	1,802.49	64.1456	1,802.49	68.5841	1,802.49	65.122	1,802.49	73.2675	1,802.49	58.5383	1,802.49	66.8748	1,802.49	70.9843	1,802.49	61.4169	1,802.49	76.4174	1,802.49	66.4266	1,802.49	76.5821	1,802.49	68.4498	1,802.49	71.0766	1,802.49	66.7679
1,866.21	84.6667	1,866.21	83.9795	1,866.21	83.6383	1,866.21	83.9008	1,866.21	80.9669	1,866.21	84.0957	1,866.21	76.6004	1,866.21	81.1236	1,866.21	66.1848	1,866.21	76.1172	1,866.21	69.7654	1,866.21	72.8857	1,866.21	74.9523	1,866.21	68.0898	1,866.21	75.8716	1,866.21	67.1674	1,866.21	72.8487	1,866.21	66.3192	1,866.21	71.3157	1,866.21	69.165	1,866.21	70.5021	1,866.21	71.9316	1,866.21	72.7948	1,866.21	69.3046	1,866.21	71.2366	1,866.21	72.2758	1,866.21	65.2855	1,866.21	71.627	1,866.21	71.0795	1,866.21	63.006	1,866.21	76.052	1,866.21	55.0962	1,866.21	76.4589	1,866.21	64.4865	1,866.21	71.7029	1,866.21	67.837
1,931.76	84.9547	1,931.76	82.548	1,931.76	84.4235	1,931.76	81.9389	1,931.76	82.0964	1,931.76	82.8529	1,931.76	79.3669	1,931.76	78.1501	1,931.76	74.7128	1,931.76	72.0527	1,931.76	70.9804	1,931.76	68.6075	1,931.76	74.9419	1,931.76	71.6845	1,931.76	76.9827	1,931.76	72.0196	1,931.76	76.202	1,931.76	70.8744	1,931.76	73.0076	1,931.76	72.885	1,931.76	72.0888	1,931.76	65.7936	1,931.76	74.434	1,931.76	62.0993	1,931.76	71.4352	1,931.76	72.1471	1,931.76	68.272	1,931.76	74.0522	1,931.76	70.3536	1,931.76	72.3786	1,931.76	75.9441	1,931.76	59.3665	1,931.76	76.7552	1,931.76	67.5999	1,931.76	73.3421	1,931.76	70.1454
1,999.88	85.5787	1,999.88	84.544	1,999.88	86.0711	1,999.88	83.5965	1,999.88	84.2504	1,999.88	80.2038	1,999.88	81.1674	1,999.88	76.0863	1,999.88	78.9938	1,999.88	76.4921	1,999.88	78.1406	1,999.88	72.4915	1,999.88	78.7954	1,999.88	77.9426	1,999.88	79.1097	1,999.88	75.4827	1,999.88	74.904	1,999.88	71.4996	1,999.88	68.7941	1,999.88	69.7121	1,999.88	72.654	1,999.88	74.0933	1,999.88	76.5687	1,999.88	72.6214	1,999.88	75.656	1,999.88	59.6292	1,999.88	70.0493	1,999.88	74.2805	1,999.88	71.1495	1,999.88	74.8537	1,999.88	75.5192	1,999.88	68.4077	1,999.88	75.7888	1,999.88	68.2173	1,999.88	74.7104	1,999.88	72.4052
2,070.56	85.2233	2,070.56	85.5317	2,070.56	86.3402	2,070.56	84.0771	2,070.56	85.6747	2,070.56	77.3769	2,070.56	82.6258	2,070.56	78.9756	2,070.56	79.9062	2,070.56	78.0957	2,070.56	79.4049	2,070.56	78.1447	2,070.56	80.0491	2,070.56	79.2919	2,070.56	81.5202	2,070.56	78.0431	2,070.56	79.7636	2,070.56	77.7916	2,070.56	76.623	2,070.56	75.2512	2,070.56	77.8495	2,070.56	70.2439	2,070.56	74.7637	2,070.56	75.983	2,070.56	74.7146	2,070.56	73.1377	2,070.56	73.6203	2,070.56	72.4323	2,070.56	72.6603	2,070.56	77.0537	2,070.56	74.5551	2,070.56	70.0199	2,070.56	74.5647	2,070.56	70.6178	2,070.56	74.4023	2,070.56	75.7088
2,143.43	84.2313	2,143.43	83.5112	2,143.43	85.5375	2,143.43	80.8698	2,143.43	86.0592	2,143.43	80.9287	2,143.43	85.001	2,143.43	82.4277	2,143.43	82.7111	2,143.43	79.7145	2,143.43	79.9483	2,143.43	80.8948	2,143.43	79.0334	2,143.43	81.098	2,143.43	80.3967	2,143.43	79.7333	2,143.43	80.7826	2,143.43	77.321	2,143.43	77.5827	2,143.43	78.242	2,143.43	78.9716	2,143.43	78.0402	2,143.43	80.03	2,143.43	74.5407	2,143.43	71.4757	2,143.43	76.9921	2,143.43	72.6281	2,143.43	70.0267	2,143.43	72.0093	2,143.43	75.4158	2,143.43	75.4864	2,143.43	72.7786	2,143.43	75.0357	2,143.43	70.6433	2,143.43	74.0785	2,143.43	76.5245
2,219.24	85.0934	2,219.24	82.2266	2,219.24	85.9002	2,219.24	79.2592	2,219.24	86.0672	2,219.24	81.7302	2,219.24	84.7009	2,219.24	83.9128	2,219.24	81.9116	2,219.24	83.5964	2,219.24	81.6508	2,219.24	83.1854	2,219.24	80.6313	2,219.24	79.7275	2,219.24	77.2258	2,219.24	79.8482	2,219.24	75.3822	2,219.24	81.4333	2,219.24	79.0354	2,219.24	76.6342	2,219.24	79.581	2,219.24	76.6592	2,219.24	80.2405	2,219.24	75.4182	2,219.24	76.6202	2,219.24	77.0491	2,219.24	72.0039	2,219.24	75.3176	2,219.24	72.3077	2,219.24	74.9436	2,219.24	74.2371	2,219.24	74.5214	2,219.24	73.9513	2,219.24	64.4714	2,219.24	76.4531	2,219.24	74.3735
2,297.24	85.2257	2,297.24	82.6241	2,297.24	86.4124	2,297.24	82.6882	2,297.24	85.9361	2,297.24	84.5187	2,297.24	84.1054	2,297.24	85.7886	2,297.24	81.7961	2,297.24	85.8188	2,297.24	81.2259	2,297.24	84.6458	2,297.24	79.6492	2,297.24	84.5486	2,297.24	78.0392	2,297.24	82.3659	2,297.24	78.0651	2,297.24	78.3075	2,297.24	80.0952	2,297.24	77.4384	2,297.24	78.9553	2,297.24	75.6635	2,297.24	77.3124	2,297.24	72.7248	2,297.24	77.6157	2,297.24	76.8583	2,297.24	69.0796	2,297.24	75.8503	2,297.24	69.9296	2,297.24	76.453	2,297.24	73.7343	2,297.24	76.6399	2,297.24	71.3048	2,297.24	68.6525	2,297.24	77.4567	2,297.24	77.0112
2,378.54	84.7555	2,378.54	83.6429	2,378.54	85.4012	2,378.54	85.3761	2,378.54	85.3045	2,378.54	87.0205	2,378.54	84.0005	2,378.54	87.6815	2,378.54	81.3271	2,378.54	86.8719	2,378.54	79.6617	2,378.54	85.3914	2,378.54	78.3102	2,378.54	83.8321	2,378.54	78.4466	2,378.54	80.9291	2,378.54	78.8991	2,378.54	79.1659	2,378.54	79.4087	2,378.54	75.4594	2,378.54	78.7433	2,378.54	73.432	2,378.54	77.5787	2,378.54	73.9775	2,378.54	75.2523	2,378.54	73.4127	2,378.54	70.7221	2,378.54	75.3114	2,378.54	69.7287	2,378.54	74.27	2,378.54	70.4331	2,378.54	74.8846	2,378.54	71.8905	2,378.54	69.4421	2,378.54	76.4704	2,378.54	77.9538
2,462.4	84.3614	2,462.4	84.9171	2,462.4	83.9224	2,462.4	86.4607	2,462.4	82.7105	2,462.4	88.098	2,462.4	81.7337	2,462.4	88.4357	2,462.4	80.7322	2,462.4	87.2452	2,462.4	79.3445	2,462.4	83.7178	2,462.4	77.7814	2,462.4	82.7676	2,462.4	74.3522	2,462.4	81.0055	2,462.4	72.3482	2,462.4	74.8727	2,462.4	79.1891	2,462.4	77.336	2,462.4	75.5172	2,462.4	75.2659	2,462.4	76.221	2,462.4	73.2895	2,462.4	77.3606	2,462.4	72.6501	2,462.4	70.0772	2,462.4	73.7696	2,462.4	69.8994	2,462.4	75.3968	2,462.4	71.7754	2,462.4	75.8123	2,462.4	67.7866	2,462.4	65.8832	2,462.4	74.112	2,462.4	75.2797
2,549.19	83.1012	2,549.19	85.6947	2,549.19	81.9935	2,549.19	86.5683	2,549.19	81.9844	2,549.19	88.0077	2,549.19	81.847	2,549.19	88.5317	2,549.19	82.5323	2,549.19	84.9088	2,549.19	80.7314	2,549.19	80.8755	2,549.19	77.0473	2,549.19	79.4464	2,549.19	75.3639	2,549.19	71.5529	2,549.19	74.9945	2,549.19	77.376	2,549.19	73.9284	2,549.19	67.8062	2,549.19	70.2593	2,549.19	70.2363	2,549.19	69.0468	2,549.19	70.4311	2,549.19	78.5082	2,549.19	62.2563	2,549.19	73.113	2,549.19	70.0904	2,549.19	68.0868	2,549.19	71.2176	2,549.19	69.3083	2,549.19	73.6643	2,549.19	62.8701	2,549.19	62.0318	2,549.19	73.6472	2,549.19	72.9709
2,638.92	83.9914	2,638.92	86.3062	2,638.92	79.8042	2,638.92	86.8035	2,638.92	82.598	2,638.92	87.7184	2,638.92	84.0708	2,638.92	86.3922	2,638.92	84.7929	2,638.92	81.1866	2,638.92	83.8755	2,638.92	76.8699	2,638.92	82.3563	2,638.92	74.4503	2,638.92	79.0843	2,638.92	76.4355	2,638.92	76.3049	2,638.92	72.4204	2,638.92	67.8702	2,638.92	69.2714	2,638.92	57.865	2,638.92	68.0252	2,638.92	60.4182	2,638.92	65.2455	2,638.92	73.8642	2,638.92	71.041	2,638.92	70.4193	2,638.92	67.7086	2,638.92	63.5191	2,638.92	68.7859	2,638.92	61.3245	2,638.92	72.2078	2,638.92	67.8391	2,638.92	67.4242	2,638.92	72.2595	2,638.92	70.7143
2,731.93	85.5669	2,731.93	86.3935	2,731.93	80.7492	2,731.93	86.9508	2,731.93	83.3163	2,731.93	86.8391	2,731.93	85.832	2,731.93	84.2062	2,731.93	85.6226	2,731.93	81.2856	2,731.93	84.1432	2,731.93	80.3287	2,731.93	82.1968	2,731.93	79.7278	2,731.93	79.4556	2,731.93	78.0698	2,731.93	76.9016	2,731.93	77.903	2,731.93	67.5557	2,731.93	78.6532	2,731.93	72.9052	2,731.93	76.3154	2,731.93	65.3243	2,731.93	74.0947	2,731.93	68.9848	2,731.93	73.5909	2,731.93	60.4381	2,731.93	71.6535	2,731.93	55.3782	2,731.93	69.0556	2,731.93	53.302	2,731.93	71.403	2,731.93	69.034	2,731.93	71.5153	2,731.93	71.4913	2,731.93	65.1697
2,828.25	84.5018	2,828.25	85.1415	2,828.25	81.6183	2,828.25	85.8726	2,828.25	83.0225	2,828.25	85.3767	2,828.25	86.1293	2,828.25	84.7554	2,828.25	85.8612	2,828.25	82.1437	2,828.25	83.3289	2,828.25	83.2089	2,828.25	82.022	2,828.25	82.1682	2,828.25	80.4309	2,828.25	79.8726	2,828.25	73.1924	2,828.25	81.3557	2,828.25	70.3931	2,828.25	79.159	2,828.25	73.3269	2,828.25	78.9285	2,828.25	68.3741	2,828.25	74.786	2,828.25	66.5644	2,828.25	76.592	2,828.25	66.0503	2,828.25	75.2526	2,828.25	60.6987	2,828.25	72.9309	2,828.25	57.122	2,828.25	71.9982	2,828.25	70.9832	2,828.25	72.2556	2,828.25	73.2135	2,828.25	68.475
2,928.22	83.4513	2,928.22	83.7628	2,928.22	81.2844	2,928.22	83.6747	2,928.22	82.8774	2,928.22	84.1484	2,928.22	85.1596	2,928.22	85.1587	2,928.22	83.8723	2,928.22	84.5891	2,928.22	82.683	2,928.22	84.5447	2,928.22	80.4942	2,928.22	82.8716	2,928.22	78.5471	2,928.22	82.9939	2,928.22	70.0335	2,928.22	81.216	2,928.22	74.0391	2,928.22	78.2957	2,928.22	74.4165	2,928.22	78.3304	2,928.22	61.2273	2,928.22	77.0437	2,928.22	60.0313	2,928.22	76.0946	2,928.22	64.5669	2,928.22	76.8295	2,928.22	63.6058	2,928.22	74.0699	2,928.22	60.7459	2,928.22	74.8873	2,928.22	68.0566	2,928.22	72.3152	2,928.22	73.8336	2,928.22	63.382
3,031.49	84.3989	3,031.49	82.793	3,031.49	82.6592	3,031.49	81.9166	3,031.49	80.0583	3,031.49	83.1255	3,031.49	83.0077	3,031.49	85.1457	3,031.49	82.898	3,031.49	85.1759	3,031.49	81.8062	3,031.49	84.8815	3,031.49	79.5886	3,031.49	84.179	3,031.49	77.2563	3,031.49	81.2307	3,031.49	71.7866	3,031.49	79.2199	3,031.49	75.0902	3,031.49	79.3459	3,031.49	76.2317	3,031.49	76.2752	3,031.49	73.6232	3,031.49	77.5475	3,031.49	60.5472	3,031.49	74.5657	3,031.49	63.0806	3,031.49	76.0424	3,031.49	66.3646	3,031.49	73.4446	3,031.49	58.4632	3,031.49	72.8505	3,031.49	68.2415	3,031.49	73.1544	3,031.49	74.835	3,031.49	68.113
3,138.43	84.3666	3,138.43	83.5394	3,138.43	83.9928	3,138.43	81.7061	3,138.43	81.0607	3,138.43	83.3677	3,138.43	80.4424	3,138.43	85.5613	3,138.43	81.9376	3,138.43	84.6088	3,138.43	82.4981	3,138.43	84.1318	3,138.43	80.3334	3,138.43	82.9925	3,138.43	77.599	3,138.43	79.4103	3,138.43	75.6225	3,138.43	79.4277	3,138.43	72.3354	3,138.43	77.7482	3,138.43	73.8849	3,138.43	77.3183	3,138.43	73.1439	3,138.43	72.8555	3,138.43	71.0315	3,138.43	76.0075	3,138.43	56.6924	3,138.43	73.7145	3,138.43	54.4426	3,138.43	72.7499	3,138.43	65.6432	3,138.43	70.046	3,138.43	68.4518	3,138.43	71.825	3,138.43	74.5863	3,138.43	70.312
3,249.02	85.7429	3,249.02	84.7546	3,249.02	84.6994	3,249.02	81.4367	3,249.02	80.5247	3,249.02	83.5695	3,249.02	79.1206	3,249.02	84.461	3,249.02	82.2639	3,249.02	83.3661	3,249.02	83.4073	3,249.02	82.9856	3,249.02	82.4884	3,249.02	78.8415	3,249.02	79.1927	3,249.02	79.0443	3,249.02	80.3214	3,249.02	77.4173	3,249.02	74.5625	3,249.02	75.17	3,249.02	74.3987	3,249.02	74.5005	3,249.02	72.8533	3,249.02	74.151	3,249.02	73.7976	3,249.02	73.0366	3,249.02	56.9433	3,249.02	73.2899	3,249.02	62.9192	3,249.02	71.8038	3,249.02	63.6611	3,249.02	69.4475	3,249.02	68.0677	3,249.02	71.958	3,249.02	72.045	3,249.02	64.8055
3,363.65	87.2482	3,363.65	85.1793	3,363.65	86.1514	3,363.65	82.087	3,363.65	81.1299	3,363.65	83.7472	3,363.65	79.6133	3,363.65	83.6127	3,363.65	82.5096	3,363.65	81.5819	3,363.65	82.9718	3,363.65	80.7786	3,363.65	83.4393	3,363.65	79.5414	3,363.65	80.956	3,363.65	77.617	3,363.65	80.4569	3,363.65	72.6323	3,363.65	70.5128	3,363.65	75.0738	3,363.65	68.7753	3,363.65	71.3153	3,363.65	72.6129	3,363.65	73.3204	3,363.65	73.6078	3,363.65	70.2561	3,363.65	62.5928	3,363.65	73.2899	3,363.65	66.0539	3,363.65	66.7113	3,363.65	65.5812	3,363.65	68.3209	3,363.65	68.6619	3,363.65	70.5572	3,363.65	71.2409	3,363.65	50.1007
3,482.3	87.1863	3,482.3	86.0713	3,482.3	86.2251	3,482.3	84.0537	3,482.3	82.4192	3,482.3	84.8046	3,482.3	79.3943	3,482.3	84.4009	3,482.3	82.6615	3,482.3	80.8569	3,482.3	83.1057	3,482.3	79.2418	3,482.3	82.594	3,482.3	78.9982	3,482.3	82.2303	3,482.3	74.7422	3,482.3	79.1959	3,482.3	74.4245	3,482.3	59.6107	3,482.3	74.4101	3,482.3	66.8389	3,482.3	75.4233	3,482.3	63.5451	3,482.3	70.6814	3,482.3	66.7155	3,482.3	73.7387	3,482.3	68.2026	3,482.3	72.5688	3,482.3	61.7404	3,482.3	70.157	3,482.3	66.5229	3,482.3	65.334	3,482.3	67.3033	3,482.3	68.0345	3,482.3	69.2101	3,482.3	62.2797
3,604.98	85.9839	3,604.98	84.7735	3,604.98	84.7824	3,604.98	84.6968	3,604.98	82.4258	3,604.98	86.5972	3,604.98	77.3528	3,604.98	84.6887	3,604.98	79.753	3,604.98	78.762	3,604.98	83.5564	3,604.98	79.9216	3,604.98	81.1522	3,604.98	77.2762	3,604.98	79.5203	3,604.98	78.0706	3,604.98	73.3322	3,604.98	75.8227	3,604.98	73.8741	3,604.98	75.6193	3,604.98	63.3948	3,604.98	75.0734	3,604.98	67.6393	3,604.98	74.4558	3,604.98	65.0045	3,604.98	72.745	3,604.98	68.1726	3,604.98	72.8495	3,604.98	53.963	3,604.98	70.2137	3,604.98	63.8936	3,604.98	67.853	3,604.98	66.1061	3,604.98	68.0329	3,604.98	69.0644	3,604.98	61.2635
3,732.06	85.6395	3,732.06	84.3699	3,732.06	85.3217	3,732.06	85.3675	3,732.06	83.3849	3,732.06	86.0584	3,732.06	78.4703	3,732.06	82.7708	3,732.06	76.6516	3,732.06	78.6989	3,732.06	81.5332	3,732.06	79.6873	3,732.06	81.5088	3,732.06	79.7822	3,732.06	78.9569	3,732.06	79.7868	3,732.06	75.0187	3,732.06	76.9229	3,732.06	75.1142	3,732.06	75.5791	3,732.06	67.304	3,732.06	75.7753	3,732.06	65.8309	3,732.06	73.6819	3,732.06	68.9111	3,732.06	73.0164	3,732.06	67.3992	3,732.06	72.8665	3,732.06	52.1002	3,732.06	70.5848	3,732.06	64.0667	3,732.06	71.3306	3,732.06	68.2278	3,732.06	66.1158	3,732.06	68.6059	3,732.06	58.1123
3,863.89	83.7083	3,863.89	83.0247	3,863.89	84.4928	3,863.89	85.5517	3,863.89	82.6866	3,863.89	85.0347	3,863.89	75.7853	3,863.89	81.1601	3,863.89	73.9267	3,863.89	81.337	3,863.89	79.5076	3,863.89	81.9887	3,863.89	78.4588	3,863.89	82.704	3,863.89	78.8521	3,863.89	80.8795	3,863.89	73.3445	3,863.89	79.0461	3,863.89	77.3171	3,863.89	78.2337	3,863.89	71.6889	3,863.89	77.1437	3,863.89	70.8335	3,863.89	75.5534	3,863.89	72.2892	3,863.89	74.3578	3,863.89	66.6443	3,863.89	75.2449	3,863.89	60.8144	3,863.89	71.6814	3,863.89	63.8686	3,863.89	71.7147	3,863.89	64.5816	3,863.89	67.6512	3,863.89	67.3958	3,863.89	62.2851
4,000.12	80.1015	4,000.12	82.6562	4,000.12	81.91	4,000.12	83.8174	4,000.12	79.2994	4,000.12	82.5544	4,000.12	73.4311	4,000.12	82.0145	4,000.12	65.5092	4,000.12	83.4068	4,000.12	73.7378	4,000.12	84.3862	4,000.12	75.5795	4,000.12	82.9503	4,000.12	75.5539	4,000.12	81.397	4,000.12	76.6028	4,000.12	79.128	4,000.12	76.9222	4,000.12	77.1655	4,000.12	71.3367	4,000.12	77.2914	4,000.12	73.4881	4,000.12	76.7055	4,000.12	68.9119	4,000.12	74.2793	4,000.12	68.9473	4,000.12	75.299	4,000.12	63.4225	4,000.12	73.0768	4,000.12	59.6301	4,000.12	70.8342	4,000.12	62.1529	4,000.12	65.0914	4,000.12	67.6042	4,000.12	59.1167
4,141.11	79.8883	4,141.11	82.4446	4,141.11	81.7335	4,141.11	82.7004	4,141.11	81.4384	4,141.11	81.1124	4,141.11	78.542	4,141.11	82.196	4,141.11	71.1312	4,141.11	83.8742	4,141.11	76.5737	4,141.11	83.7226	4,141.11	77.9621	4,141.11	81.5561	4,141.11	76.9391	4,141.11	81.0597	4,141.11	78.4671	4,141.11	75.9545	4,141.11	77.1248	4,141.11	75.5395	4,141.11	68.0741	4,141.11	75.1666	4,141.11	71.8858	4,141.11	73.4715	4,141.11	60.5652	4,141.11	73.7312	4,141.11	72.5444	4,141.11	72.5293	4,141.11	65.6041	4,141.11	71.8906	4,141.11	61.7628	4,141.11	71.8033	4,141.11	65.3082	4,141.11	66.1819	4,141.11	67.3287	4,141.11	65.4602
4,287.23	80.3379	4,287.23	84.1063	4,287.23	81.2887	4,287.23	80.3589	4,287.23	80.039	4,287.23	79.1479	4,287.23	80.0193	4,287.23	82.9319	4,287.23	76.3639	4,287.23	81.8511	4,287.23	77.6226	4,287.23	78.7499	4,287.23	77.5173	4,287.23	76.3404	4,287.23	78.1058	4,287.23	70.5879	4,287.23	79.6969	4,287.23	73.4376	4,287.23	73.3342	4,287.23	71.4349	4,287.23	72.5537	4,287.23	70.7105	4,287.23	71.9588	4,287.23	71.0394	4,287.23	55.442	4,287.23	71.4418	4,287.23	74.1479	4,287.23	70.8861	4,287.23	61.454	4,287.23	69.209	4,287.23	67.2286	4,287.23	70.0738	4,287.23	62.7299	4,287.23	68.3412	4,287.23	64.1315	4,287.23	67.712
4,438.11	79.6536	4,438.11	83.8721	4,438.11	80.4965	4,438.11	78.0086	4,438.11	80.1578	4,438.11	81.347	4,438.11	77.2788	4,438.11	81.6648	4,438.11	75.6885	4,438.11	76.8906	4,438.11	76.9438	4,438.11	73.8595	4,438.11	76.6789	4,438.11	71.5299	4,438.11	79.4338	4,438.11	75.2742	4,438.11	79.0908	4,438.11	71.8345	4,438.11	72.3281	4,438.11	73.5529	4,438.11	74.9265	4,438.11	73.9939	4,438.11	74.1552	4,438.11	72.851	4,438.11	64.7949	4,438.11	71.3157	4,438.11	71.281	4,438.11	73.4185	4,438.11	63.0334	4,438.11	70.46	4,438.11	70.1015	4,438.11	69.1864	4,438.11	61.2832	4,438.11	69.2092	4,438.11	63.1972	4,438.11	63.46
4,594.85	82.0196	4,594.85	80.1732	4,594.85	78.0698	4,594.85	82.0001	4,594.85	82.3027	4,594.85	84.3315	4,594.85	76.898	4,594.85	80.1618	4,594.85	77.1149	4,594.85	74.5428	4,594.85	73.1278	4,594.85	77.9258	4,594.85	80.3039	4,594.85	80.6866	4,594.85	81.7824	4,594.85	76.3316	4,594.85	78.0683	4,594.85	77.1311	4,594.85	75.7456	4,594.85	74.857	4,594.85	68.2249	4,594.85	73.0905	4,594.85	69.9668	4,594.85	73.6984	4,594.85	66.7753	4,594.85	73.6752	4,594.85	57.2577	4,594.85	73.8981	4,594.85	59.1251	4,594.85	72.9581	4,594.85	68.5981	4,594.85	68.9571	4,594.85	59.2772	4,594.85	67.0056	4,594.85	55.8155	4,594.85	59.9873
4,756.71	83.8037	4,756.71	83.632	4,756.71	80.3462	4,756.71	84.3313	4,756.71	82.9507	4,756.71	82.7292	4,756.71	79.3371	4,756.71	78.4339	4,756.71	73.9309	4,756.71	81.7417	4,756.71	74.9876	4,756.71	81.979	4,756.71	81.775	4,756.71	81.0726	4,756.71	81.2474	4,756.71	78.6071	4,756.71	77.6623	4,756.71	76.3575	4,756.71	77.9393	4,756.71	73.2474	4,756.71	65.1487	4,756.71	72.8131	4,756.71	46.607	4,756.71	71.4326	4,756.71	65.2521	4,756.71	70.7822	4,756.71	59.7095	4,756.71	71.5864	4,756.71	62.357	4,756.71	69.9997	4,756.71	60.2412	4,756.71	66.8258	4,756.71	60.8613	4,756.71	66.0302	4,756.71	57.7631	4,756.71	65.6914
4,924.44	84.7584	4,924.44	84.7957	4,924.44	82.489	4,924.44	84.3205	4,924.44	83.1543	4,924.44	82.9574	4,924.44	79.8954	4,924.44	82.3129	4,924.44	72.9799	4,924.44	82.7873	4,924.44	76.2151	4,924.44	81.331	4,924.44	78.9636	4,924.44	78.8788	4,924.44	76.2048	4,924.44	74.8049	4,924.44	74.9605	4,924.44	69.7197	4,924.44	72.5116	4,924.44	69.9457	4,924.44	67.4926	4,924.44	63.929	4,924.44	67.7734	4,924.44	67.3029	4,924.44	61.8938	4,924.44	64.6867	4,924.44	57.7499	4,924.44	67.5068	4,924.44	60.1906	4,924.44	68.3028	4,924.44	62.3556	4,924.44	63.2062	4,924.44	62.4699	4,924.44	66.0742	4,924.44	55.2236	4,924.44	63.1829
5,098.39	85.8715	5,098.39	85.7364	5,098.39	84.0194	5,098.39	84.4209	5,098.39	83.6155	5,098.39	83.1549	5,098.39	82.0561	5,098.39	81.7474	5,098.39	75.2107	5,098.39	81.0839	5,098.39	74.6049	5,098.39	77.3322	5,098.39	73.438	5,098.39	74.0461	5,098.39	74.5919	5,098.39	63.0465	5,098.39	73.8502	5,098.39	61.4886	5,098.39	69.7653	5,098.39	59.9475	5,098.39	66.1911	5,098.39	59.8277	5,098.39	69.3984	5,098.39	63.0826	5,098.39	62.7998	5,098.39	64.0615	5,098.39	59.3955	5,098.39	60.137	5,098.39	57.4205	5,098.39	65.4482	5,098.39	61.7787	5,098.39	57.8328	5,098.39	58.8468	5,098.39	64.1579	5,098.39	60.1936	5,098.39	65.0298
5,278.2	85.5308	5,278.2	86.3452	5,278.2	84.5255	5,278.2	84.3647	5,278.2	84.3126	5,278.2	82.8559	5,278.2	82.5374	5,278.2	81.9277	5,278.2	76.3773	5,278.2	77.991	5,278.2	75.7696	5,278.2	68.5397	5,278.2	73.9458	5,278.2	53.782	5,278.2	73.7114	5,278.2	69.8714	5,278.2	70.5287	5,278.2	66.8364	5,278.2	72.094	5,278.2	64.2918	5,278.2	66.4601	5,278.2	67.4543	5,278.2	71.4726	5,278.2	64.0794	5,278.2	63.2718	5,278.2	66.2372	5,278.2	60.2969	5,278.2	66.7938	5,278.2	60.0616	5,278.2	63.7764	5,278.2	63.3558	5,278.2	65.5033	5,278.2	58.89	5,278.2	62.6546	5,278.2	64.8071	5,278.2	63.1524
5,464.23	85.8847	5,464.23	86.6169	5,464.23	84.8345	5,464.23	83.8323	5,464.23	84.3325	5,464.23	83.5816	5,464.23	81.5651	5,464.23	82.3	5,464.23	77.8716	5,464.23	71.306	5,464.23	77.7948	5,464.23	74.7986	5,464.23	73.5092	5,464.23	76.8261	5,464.23	71.4419	5,464.23	75.2083	5,464.23	70.8279	5,464.23	74.4766	5,464.23	72.6012	5,464.23	71.8057	5,464.23	61.096	5,464.23	71.0863	5,464.23	69.7955	5,464.23	70.3569	5,464.23	61.6837	5,464.23	68.5764	5,464.23	47.2355	5,464.23	69.0528	5,464.23	65.947	5,464.23	67.0424	5,464.23	60.2611	5,464.23	67.5626	5,464.23	59.2945	5,464.23	68.3502	5,464.23	63.9265	5,464.23	65.392
5,656.86	86.5009	5,656.86	86.209	5,656.86	84.861	5,656.86	84.8971	5,656.86	83.602	5,656.86	84.7685	5,656.86	81.6699	5,656.86	80.0072	5,656.86	78.9312	5,656.86	76.9494	5,656.86	76.4052	5,656.86	81.481	5,656.86	72.5127	5,656.86	79.2177	5,656.86	73.6377	5,656.86	78.0427	5,656.86	72.8398	5,656.86	74.239	5,656.86	73.7239	5,656.86	69.0633	5,656.86	68.8349	5,656.86	70.7547	5,656.86	68.3598	5,656.86	70.2793	5,656.86	64.9589	5,656.86	68.8672	5,656.86	56.2793	5,656.86	70.1982	5,656.86	64.0343	5,656.86	65.7334	5,656.86	44.7777	5,656.86	67.3798	5,656.86	60.7155	5,656.86	70.6228	5,656.86	63.3637	5,656.86	63.8767
5,856.45	87.2093	5,856.45	86.2405	5,856.45	86.0189	5,856.45	85.6919	5,856.45	84.4724	5,856.45	83.4653	5,856.45	83.8957	5,856.45	77.8346	5,856.45	76.5388	5,856.45	80.5315	5,856.45	75.1366	5,856.45	81.5621	5,856.45	75.7711	5,856.45	79.2237	5,856.45	73.024	5,856.45	73.6704	5,856.45	73.3767	5,856.45	70.7881	5,856.45	73.0577	5,856.45	64.9681	5,856.45	65.9854	5,856.45	64.2186	5,856.45	68.2121	5,856.45	59.6473	5,856.45	55.4789	5,856.45	61.2542	5,856.45	58.6842	5,856.45	65.8376	5,856.45	61.7895	5,856.45	63.5889	5,856.45	57.3649	5,856.45	61.7138	5,856.45	63.4561	5,856.45	68.2593	5,856.45	61.1122	5,856.45	61.0845
6,062.99	86.5684	6,062.99	86.7195	6,062.99	86.4349	6,062.99	85.2545	6,062.99	85.7102	6,062.99	81.1527	6,062.99	84.7555	6,062.99	80.5792	6,062.99	77.5691	6,062.99	79.7928	6,062.99	75.0971	6,062.99	77.4614	6,062.99	74.6262	6,062.99	68.1986	6,062.99	73.9442	6,062.99	62.3478	6,062.99	71.51	6,062.99	63.4165	6,062.99	68.0415	6,062.99	66.497	6,062.99	60.9706	6,062.99	64.2831	6,062.99	69.7927	6,062.99	66.328	6,062.99	62.9237	6,062.99	62.9924	6,062.99	59.5029	6,062.99	59.691	6,062.99	58.904	6,062.99	61.4439	6,062.99	54.8934	6,062.99	61.2302	6,062.99	64.2515	6,062.99	64.3408	6,062.99	58.5771	6,062.99	53.2722
6,276.86	85.9667	6,276.86	86.8811	6,276.86	87.0701	6,276.86	83.4552	6,276.86	85.7542	6,276.86	80.3724	6,276.86	84.4964	6,276.86	81.349	6,276.86	80.327	6,276.86	76.8942	6,276.86	76.4679	6,276.86	71.9899	6,276.86	76.3745	6,276.86	71.364	6,276.86	74.7658	6,276.86	71.1108	6,276.86	71.9239	6,276.86	70.4596	6,276.86	66.4917	6,276.86	70.4537	6,276.86	63.3031	6,276.86	69.7891	6,276.86	65.8012	6,276.86	69.2828	6,276.86	56.3434	6,276.86	69.2305	6,276.86	59.0034	6,276.86	65.0771	6,276.86	62.5112	6,276.86	63.6105	6,276.86	61.8767	6,276.86	66.2139	6,276.86	59.4676	6,276.86	67.0788	6,276.86	64.8664	6,276.86	59.72
6,498.05	86.7437	6,498.05	86.4962	6,498.05	87.0907	6,498.05	81.9483	6,498.05	86.3162	6,498.05	81.2128	6,498.05	82.7825	6,498.05	81.1272	6,498.05	80.7272	6,498.05	74.111	6,498.05	76.3549	6,498.05	76.2598	6,498.05	75.2389	6,498.05	74.5594	6,498.05	75.211	6,498.05	74.9505	6,498.05	66.1028	6,498.05	71.5314	6,498.05	70.4957	6,498.05	70.8947	6,498.05	68.8322	6,498.05	68.3439	6,498.05	66.6497	6,498.05	69.5089	6,498.05	67.6272	6,498.05	69.8352	6,498.05	63.2997	6,498.05	66.9383	6,498.05	51.1106	6,498.05	63.4288	6,498.05	61.5251	6,498.05	67.5084	6,498.05	54.1385	6,498.05	67.6227	6,498.05	66.2572	6,498.05	61.116
6,727.29	86.021	6,727.29	85.5891	6,727.29	86.2535	6,727.29	82.8908	6,727.29	85.6742	6,727.29	81.4467	6,727.29	82.3628	6,727.29	79.0578	6,727.29	81.8571	6,727.29	76.94	6,727.29	73.6867	6,727.29	79.6612	6,727.29	71.8883	6,727.29	75.1006	6,727.29	70.9672	6,727.29	73.6229	6,727.29	70.9397	6,727.29	70.9483	6,727.29	71.8315	6,727.29	68.9153	6,727.29	58.0049	6,727.29	68.9442	6,727.29	62.5948	6,727.29	68.3702	6,727.29	59.9915	6,727.29	69.366	6,727.29	56.5427	6,727.29	68.3253	6,727.29	61.9006	6,727.29	64.0272	6,727.29	48.7979	6,727.29	66.5746	6,727.29	64.0489	6,727.29	67.9349	6,727.29	62.2456	6,727.29	61.9826
6,964.23	86.3264	6,964.23	85.3241	6,964.23	85.5478	6,964.23	83.6351	6,964.23	84.393	6,964.23	81.3218	6,964.23	82.3988	6,964.23	79.8101	6,964.23	81.9581	6,964.23	80.4203	6,964.23	67.5349	6,964.23	79.4456	6,964.23	71.6056	6,964.23	75.3982	6,964.23	65.7673	6,964.23	70.7656	6,964.23	71.7238	6,964.23	69.617	6,964.23	69.4354	6,964.23	67.4205	6,964.23	67.3695	6,964.23	67.1087	6,964.23	60.7043	6,964.23	67.3055	6,964.23	60.7992	6,964.23	66.9356	6,964.23	63.4445	6,964.23	67.5293	6,964.23	57.8271	6,964.23	67.1174	6,964.23	56.054	6,964.23	62.6572	6,964.23	62.8172	6,964.23	64.3431	6,964.23	63.02	6,964.23	59.9859
7,209.96	86.6333	7,209.96	85.3854	7,209.96	86.0618	7,209.96	83.3778	7,209.96	85.1764	7,209.96	82.1624	7,209.96	83.013	7,209.96	82.1686	7,209.96	80.1768	7,209.96	79.8092	7,209.96	76.2545	7,209.96	76.4171	7,209.96	71.7427	7,209.96	66.7828	7,209.96	70.3928	7,209.96	68.9889	7,209.96	71.0662	7,209.96	64.8174	7,209.96	69.8079	7,209.96	64.8616	7,209.96	71.2471	7,209.96	64.3336	7,209.96	65.0345	7,209.96	65.6471	7,209.96	63.5858	7,209.96	66.9358	7,209.96	51.8244	7,209.96	64.533	7,209.96	40.3024	7,209.96	67.2534	7,209.96	48.7646	7,209.96	61.4501	7,209.96	62.4181	7,209.96	59.6697	7,209.96	63.8543	7,209.96	59.6299
7,464.11	86.1862	7,464.11	84.5373	7,464.11	86.8932	7,464.11	83.3669	7,464.11	87.6394	7,464.11	84.6892	7,464.11	84.3752	7,464.11	83.1936	7,464.11	80.779	7,464.11	77.0197	7,464.11	80.0425	7,464.11	77.1748	7,464.11	69.7222	7,464.11	73.7986	7,464.11	70.8083	7,464.11	73.8746	7,464.11	68.6578	7,464.11	70.4538	7,464.11	69.7771	7,464.11	68.0056	7,464.11	65.2683	7,464.11	65.1853	7,464.11	67.0961	7,464.11	65.5701	7,464.11	60.5988	7,464.11	67.1379	7,464.11	62.7238	7,464.11	64.691	7,464.11	53.828	7,464.11	67.7303	7,464.11	50.0615	7,464.11	63.9158	7,464.11	59.3687	7,464.11	60.6441	7,464.11	65.2957	7,464.11	59.195
7,727.42	83.6944	7,727.42	85.5151	7,727.42	85.577	7,727.42	84.9619	7,727.42	87.7598	7,727.42	85.3498	7,727.42	84.2572	7,727.42	82.5035	7,727.42	82.7445	7,727.42	79.8097	7,727.42	80.9871	7,727.42	80.3832	7,727.42	71.2412	7,727.42	76.617	7,727.42	69.0453	7,727.42	72.653	7,727.42	63.5551	7,727.42	70.5698	7,727.42	64.6488	7,727.42	67.3435	7,727.42	64.6939	7,727.42	66.688	7,727.42	64.121	7,727.42	64.6847	7,727.42	50.3764	7,727.42	65.1023	7,727.42	51.8758	7,727.42	63.1142	7,727.42	61.0389	7,727.42	67.5511	7,727.42	60.1092	7,727.42	66.3217	7,727.42	56.9005	7,727.42	49.6518	7,727.42	64.2285	7,727.42	56.6477
7,999.88	84.8946	7,999.88	85.9363	7,999.88	84.4135	7,999.88	85.7027	7,999.88	86.0261	7,999.88	85.5236	7,999.88	82.9883	7,999.88	82.4428	7,999.88	83.0575	7,999.88	82.247	7,999.88	80.1009	7,999.88	78.9704	7,999.88	72.8556	7,999.88	74.0087	7,999.88	70.0325	7,999.88	68.7659	7,999.88	66.7546	7,999.88	67.3553	7,999.88	63.4755	7,999.88	66.5232	7,999.88	68.8429	7,999.88	60.1547	7,999.88	67.9622	7,999.88	63.7925	7,999.88	61.0447	7,999.88	63.2226	7,999.88	51.6173	7,999.88	63.7661	7,999.88	40.4282	7,999.88	63.6959	7,999.88	61.6675	7,999.88	63.4173	7,999.88	59.8446	7,999.88	62.4824	7,999.88	66.6548	7,999.88	60.0532
8,282.23	85.675	8,282.23	86.6445	8,282.23	85.753	8,282.23	85.7567	8,282.23	86.2283	8,282.23	84.9826	8,282.23	83.4612	8,282.23	83.3632	8,282.23	83.5967	8,282.23	80.0416	8,282.23	80.1577	8,282.23	78.8108	8,282.23	75.2424	8,282.23	74.5483	8,282.23	66.2956	8,282.23	73.6663	8,282.23	69.2089	8,282.23	68.8339	8,282.23	67.5043	8,282.23	68.4733	8,282.23	68.6789	8,282.23	63.3899	8,282.23	69.916	8,282.23	68.6825	8,282.23	60.1335	8,282.23	66.7586	8,282.23	57.1106	8,282.23	66.9312	8,282.23	58.5017	8,282.23	67.4243	8,282.23	56.2172	8,282.23	66.5133	8,282.23	53.0817	8,282.23	63.405	8,282.23	69.2702	8,282.23	64.7338
8,574.1	86.298	8,574.1	87.2126	8,574.1	86.0732	8,574.1	84.9257	8,574.1	87.3569	8,574.1	85.6728	8,574.1	83.7744	8,574.1	83.4913	8,574.1	83.072	8,574.1	81.4305	8,574.1	80.2711	8,574.1	81.4192	8,574.1	74.3816	8,574.1	71.753	8,574.1	69.0313	8,574.1	71.825	8,574.1	67.9112	8,574.1	68.9898	8,574.1	66.9944	8,574.1	67.2654	8,574.1	66.8128	8,574.1	67.5942	8,574.1	69.2412	8,574.1	70.6927	8,574.1	59.5024	8,574.1	65.5525	8,574.1	55.1843	8,574.1	67.9361	8,574.1	54.7891	8,574.1	69.4162	8,574.1	55.8269	8,574.1	66.4797	8,574.1	56.8112	8,574.1	67.607	8,574.1	68.3863	8,574.1	64.046
8,876.59	85.2605	8,876.59	86.9935	8,876.59	84.2557	8,876.59	84.8296	8,876.59	87.9567	8,876.59	86.3297	8,876.59	84.3566	8,876.59	83.9588	8,876.59	82.8585	8,876.59	82.5353	8,876.59	79.8341	8,876.59	80.4727	8,876.59	73.4161	8,876.59	73.8564	8,876.59	68.0432	8,876.59	73.7406	8,876.59	65.0309	8,876.59	71.9752	8,876.59	68.618	8,876.59	69.2292	8,876.59	68.229	8,876.59	69.0191	8,876.59	70.1266	8,876.59	71.5864	8,876.59	60.845	8,876.59	68.1234	8,876.59	54.9017	8,876.59	67.4216	8,876.59	55.7795	8,876.59	69.3226	8,876.59	60.4441	8,876.59	67.8447	8,876.59	52.6681	8,876.59	67.0294	8,876.59	67.9624	8,876.59	63.2868
9,189.7	85.9507	9,189.7	87.1642	9,189.7	84.6408	9,189.7	85.3786	9,189.7	87.7564	9,189.7	86.0104	9,189.7	85.1032	9,189.7	85.2664	9,189.7	80.7265	9,189.7	83.0485	9,189.7	80.3655	9,189.7	81.5606	9,189.7	72.6701	9,189.7	78.0213	9,189.7	47.5751	9,189.7	75.2232	9,189.7	64.1829	9,189.7	72.4407	9,189.7	65.3533	9,189.7	69.5377	9,189.7	65.992	9,189.7	68.6018	9,189.7	67.188	9,189.7	71.6557	9,189.7	56.4284	9,189.7	68.8452	9,189.7	55.3952	9,189.7	68.4008	9,189.7	61.1078	9,189.7	66.857	9,189.7	62.0495	9,189.7	67.65	9,189.7	58.9473	9,189.7	67.7077	9,189.7	65.9625	9,189.7	64.2757
9,513.79	87.457	9,513.79	87.908	9,513.79	87.2203	9,513.79	86.0175	9,513.79	87.0506	9,513.79	86.3233	9,513.79	84.9435	9,513.79	86.7062	9,513.79	79.1608	9,513.79	83.4296	9,513.79	78.4391	9,513.79	81.9294	9,513.79	69.0767	9,513.79	77.3692	9,513.79	67.0636	9,513.79	72.6984	9,513.79	61.0242	9,513.79	70.6939	9,513.79	57.433	9,513.79	69.5516	9,513.79	65.8711	9,513.79	65.419	9,513.79	67.4132	9,513.79	69.487	9,513.79	56.6643	9,513.79	67.3084	9,513.79	57.417	9,513.79	68.8831	9,513.79	62.9351	9,513.79	61.8533	9,513.79	60.6729	9,513.79	66.661	9,513.79	60.8483	9,513.79	64.6522	9,513.79	65.285	9,513.79	65.9095
9,849.24	88.5281	9,849.24	87.1844	9,849.24	88.6846	9,849.24	85.5379	9,849.24	86.8667	9,849.24	85.6353	9,849.24	84.3811	9,849.24	86.6418	9,849.24	79.1936	9,849.24	81.7608	9,849.24	74.0017	9,849.24	78.7517	9,849.24	67.8674	9,849.24	77.0724	9,849.24	73.3983	9,849.24	73.0555	9,849.24	67.2561	9,849.24	72.9225	9,849.24	64.1993	9,849.24	70.9883	9,849.24	54.7971	9,849.24	69.5835	9,849.24	66.2913	9,849.24	70.8459	9,849.24	62.5951	9,849.24	69.5588	9,849.24	55.8001	9,849.24	70.4139	9,849.24	63.852	9,849.24	63.0069	9,849.24	63.4576	9,849.24	68.0354	9,849.24	65.2514	9,849.24	66.3109	9,849.24	62.1339	9,849.24	68.4269
10,196.4	89.3959	10,196.4	85.7864	10,196.4	88.8862	10,196.4	85.422	10,196.4	86.1125	10,196.4	85.2726	10,196.4	81.4479	10,196.4	84.7188	10,196.4	79.7939	10,196.4	80.8794	10,196.4	74.43	10,196.4	77.8896	10,196.4	74.1045	10,196.4	77.5044	10,196.4	76.1629	10,196.4	73.5538	10,196.4	73.9347	10,196.4	73.9335	10,196.4	65.9054	10,196.4	70.7654	10,196.4	56.8345	10,196.4	70.2233	10,196.4	66.5109	10,196.4	70.0399	10,196.4	58.5261	10,196.4	69.5988	10,196.4	44.7722	10,196.4	69.4483	10,196.4	65.5457	10,196.4	66.2116	10,196.4	61.0172	10,196.4	68.339	10,196.4	66.7694	10,196.4	67.6555	10,196.4	58.2121	10,196.4	68.1858
10,556	87.9877	10,556	86.4283	10,556	88.2424	10,556	86.0031	10,556	86.2964	10,556	84.6056	10,556	78.077	10,556	82.8143	10,556	83.1782	10,556	77.5021	10,556	79.997	10,556	76.0275	10,556	78.6986	10,556	76.3506	10,556	79.2707	10,556	70.9724	10,556	73.2101	10,556	72.0561	10,556	58.0593	10,556	67.8825	10,556	54.7576	10,556	69.6538	10,556	65.4252	10,556	68.8932	10,556	51.4717	10,556	68.2071	10,556	54.1654	10,556	71.2946	10,556	59.3228	10,556	67.5387	10,556	51.9678	10,556	65.9602	10,556	61.8117	10,556	64.7593	10,556	53.4791	10,556	66.0517
10,928.5	83.8732	10,928.5	87.1573	10,928.5	85.7017	10,928.5	86.4893	10,928.5	84.787	10,928.5	81.8612	10,928.5	78.4112	10,928.5	77.0596	10,928.5	81.5337	10,928.5	74.8789	10,928.5	82.3894	10,928.5	76.6707	10,928.5	82.0648	10,928.5	71.2087	10,928.5	79.4601	10,928.5	71.2998	10,928.5	71.7179	10,928.5	70.7877	10,928.5	70.4744	10,928.5	64.1618	10,928.5	55.0679	10,928.5	70.3008	10,928.5	61.7425	10,928.5	67.5183	10,928.5	58.8574	10,928.5	69.6814	10,928.5	54.9312	10,928.5	69.4666	10,928.5	61.7394	10,928.5	67.6988	10,928.5	57.9594	10,928.5	64.6259	10,928.5	63.5208	10,928.5	63.1594	10,928.5	56.971	10,928.5	65.2442
11,313.7	82.9224	11,313.7	88.0716	11,313.7	83.3508	11,313.7	85.6015	11,313.7	80.7514	11,313.7	79.6054	11,313.7	79.6679	11,313.7	76.526	11,313.7	81.4506	11,313.7	78.2513	11,313.7	84.8633	11,313.7	79.7361	11,313.7	82.8252	11,313.7	60.2443	11,313.7	77.7612	11,313.7	70.4204	11,313.7	78.3419	11,313.7	70.7356	11,313.7	71.9252	11,313.7	64.4588	11,313.7	64.2969	11,313.7	71.2335	11,313.7	69.287	11,313.7	70.4388	11,313.7	67.11	11,313.7	71.902	11,313.7	62.6818	11,313.7	69.2861	11,313.7	52.9288	11,313.7	66.9407	11,313.7	60.3443	11,313.7	61.0819	11,313.7	65.674	11,313.7	62.4517	11,313.7	56.9967	11,313.7	65.8482
11,712.5	86.1193	11,712.5	89.607	11,712.5	83.9908	11,712.5	83.6504	11,712.5	84.463	11,712.5	78.6258	11,712.5	83.0046	11,712.5	84.3324	11,712.5	84.035	11,712.5	79.7014	11,712.5	85.229	11,712.5	76.0256	11,712.5	80.9617	11,712.5	68.4464	11,712.5	80.2979	11,712.5	64.6164	11,712.5	75.4306	11,712.5	66.7325	11,712.5	71.4367	11,712.5	54.6852	11,712.5	68.5876	11,712.5	67.2381	11,712.5	72.2975	11,712.5	69.511	11,712.5	72.2384	11,712.5	69.7454	11,712.5	60.9846	11,712.5	64.4906	11,712.5	63.2625	11,712.5	65.5074	11,712.5	58.8307	11,712.5	63.6864	11,712.5	69.6341	11,712.5	60.9322	11,712.5	58.1389	11,712.5	66.5838
12,125.6	88.9485	12,125.6	87.8069	12,125.6	85.5323	12,125.6	84.7399	12,125.6	86.4627	12,125.6	86.3349	12,125.6	85.4643	12,125.6	87.2727	12,125.6	84.2054	12,125.6	78.7297	12,125.6	83.7005	12,125.6	72.414	12,125.6	81.3159	12,125.6	73.1323	12,125.6	80.342	12,125.6	67.0436	12,125.6	77.5875	12,125.6	66.5866	12,125.6	72.4638	12,125.6	64.6134	12,125.6	64.5435	12,125.6	67.5292	12,125.6	75.0911	12,125.6	70.8339	12,125.6	71.6789	12,125.6	69.6495	12,125.6	59.706	12,125.6	69.2188	12,125.6	68.277	12,125.6	68.0183	12,125.6	61.9652	12,125.6	64.7654	12,125.6	70.3061	12,125.6	68.4188	12,125.6	65.7614	12,125.6	66.9679
12,553.3	87.7326	12,553.3	86.0138	12,553.3	86.2811	12,553.3	86.0574	12,553.3	85.4349	12,553.3	87.8485	12,553.3	83.2279	12,553.3	87.855	12,553.3	83.9227	12,553.3	85.0178	12,553.3	85.9991	12,553.3	79.3661	12,553.3	83.0108	12,553.3	79.3675	12,553.3	81.3703	12,553.3	76.19	12,553.3	79.4027	12,553.3	75.5126	12,553.3	74.4779	12,553.3	69.8858	12,553.3	74.2968	12,553.3	72.5372	12,553.3	78.6972	12,553.3	73.0273	12,553.3	74.8021	12,553.3	72.2536	12,553.3	63.9967	12,553.3	73.5397	12,553.3	66.9242	12,553.3	72.1052	12,553.3	62.1791	12,553.3	63.5195	12,553.3	70.0189	12,553.3	70.6878	12,553.3	63.2258	12,553.3	67.5846
12,996.1	85.2491	12,996.1	85.3143	12,996.1	84.4841	12,996.1	85.7838	12,996.1	85.2408	12,996.1	85.9265	12,996.1	84.0423	12,996.1	89.2128	12,996.1	85.0497	12,996.1	85.9543	12,996.1	85.5681	12,996.1	82.5111	12,996.1	84.1752	12,996.1	82.0994	12,996.1	81.27	12,996.1	78.7787	12,996.1	77.0779	12,996.1	76.5652	12,996.1	71.7394	12,996.1	70.1985	12,996.1	75.4162	12,996.1	74.6149	12,996.1	80.3266	12,996.1	72.5603	12,996.1	75.1243	12,996.1	73.665	12,996.1	65.9991	12,996.1	74.2608	12,996.1	66.104	12,996.1	71.7384	12,996.1	55.7899	12,996.1	57.0908	12,996.1	64.4493	12,996.1	72.7575	12,996.1	67.6072	12,996.1	69.3995
13,454.2	82.4249	13,454.2	86.3601	13,454.2	82.6346	13,454.2	86.3627	13,454.2	86.7056	13,454.2	86.2943	13,454.2	88.3478	13,454.2	89.2276	13,454.2	86.077	13,454.2	85.9476	13,454.2	83.5187	13,454.2	82.2081	13,454.2	79.1468	13,454.2	79.7412	13,454.2	77.7222	13,454.2	76.2572	13,454.2	72.2733	13,454.2	73.3587	13,454.2	63.4335	13,454.2	67.6084	13,454.2	73.1905	13,454.2	72.6687	13,454.2	78.2975	13,454.2	71.5597	13,454.2	72.497	13,454.2	73.2825	13,454.2	65.0031	13,454.2	73.6571	13,454.2	63.0245	13,454.2	70.9877	13,454.2	61.7679	13,454.2	57.779	13,454.2	57.4947	13,454.2	70.4098	13,454.2	58.7586	13,454.2	66.5592
13,928.8	83.9785	13,928.8	87.13	13,928.8	85.147	13,928.8	86.801	13,928.8	83.9964	13,928.8	86.4378	13,928.8	88.7882	13,928.8	87.8245	13,928.8	85.0149	13,928.8	84.9797	13,928.8	80.9568	13,928.8	82.6489	13,928.8	74.4357	13,928.8	75.9929	13,928.8	64.8493	13,928.8	75.7856	13,928.8	67.6975	13,928.8	70.0228	13,928.8	63.7947	13,928.8	57.9382	13,928.8	68.2616	13,928.8	70.8978	13,928.8	75.3757	13,928.8	66.554	13,928.8	71.4464	13,928.8	70.5354	13,928.8	63.8221	13,928.8	71.802	13,928.8	66.0101	13,928.8	70.6512	13,928.8	63.7909	13,928.8	62.3858	13,928.8	55.745	13,928.8	69.3732	13,928.8	64.6794	13,928.8	62.8149
14,419.9	84.6357	14,419.9	87.0192	14,419.9	86.403	14,419.9	87.0189	14,419.9	88.0772	14,419.9	87.4312	14,419.9	85.3065	14,419.9	86.6905	14,419.9	81.3496	14,419.9	85.5457	14,419.9	80.9288	14,419.9	83.7404	14,419.9	70.787	14,419.9	76.5427	14,419.9	70.5887	14,419.9	76.5472	14,419.9	67.4415	14,419.9	69.6771	14,419.9	65.4895	14,419.9	62.093	14,419.9	67.4207	14,419.9	70.7611	14,419.9	74.1778	14,419.9	59.0485	14,419.9	71.5708	14,419.9	69.7491	14,419.9	64.6507	14,419.9	70.5253	14,419.9	64.0947	14,419.9	71.0364	14,419.9	58.7839	14,419.9	63.0756	14,419.9	43.0196	14,419.9	68.2504	14,419.9	62.8261	14,419.9	65.0118
14,928.6	85.1452	14,928.6	85.631	14,928.6	85.8394	14,928.6	86.3379	14,928.6	88.4467	14,928.6	86.3133	14,928.6	84.2019	14,928.6	85.3456	14,928.6	81.1222	14,928.6	86.0707	14,928.6	79.1154	14,928.6	79.4129	14,928.6	78.768	14,928.6	73.8949	14,928.6	74.6939	14,928.6	72.4598	14,928.6	64.2534	14,928.6	68.1434	14,928.6	65.9128	14,928.6	55.41	14,928.6	67.8567	14,928.6	68.7671	14,928.6	73.045	14,928.6	55.886	14,928.6	70.2479	14,928.6	68.5741	14,928.6	62.9314	14,928.6	67.833	14,928.6	62.479	14,928.6	68.5797	14,928.6	36.7356	14,928.6	65.6348	14,928.6	52.7886	14,928.6	66.6217	14,928.6	61.9381	14,928.6	64.6545
15,454.8	85.9722	15,454.8	85.5767	15,454.8	86.529	15,454.8	85.7511	15,454.8	86.3136	15,454.8	83.6968	15,454.8	79.8985	15,454.8	82.8974	15,454.8	78.9212	15,454.8	82.6931	15,454.8	80.7229	15,454.8	76.3305	15,454.8	76.7785	15,454.8	74.6291	15,454.8	74.0848	15,454.8	70.8929	15,454.8	67.1361	15,454.8	67.5438	15,454.8	61.7958	15,454.8	56.6136	15,454.8	55.609	15,454.8	67.0963	15,454.8	70.63	15,454.8	51.5489	15,454.8	67.54	15,454.8	67.9478	15,454.8	59.2953	15,454.8	65.5645	15,454.8	53.5489	15,454.8	66.7984	15,454.8	61.394	15,454.8	65.7267	15,454.8	61.0291	15,454.8	63.5561	15,454.8	60.452	15,454.8	65.4308
16,000.1	85.0944	16,000.1	85.3808	16,000.1	84.8239	16,000.1	84.0319	16,000.1	85.6758	16,000.1	81.6264	16,000.1	80.92	16,000.1	79.0541	16,000.1	77.6764	16,000.1	76.8332	16,000.1	78.3884	16,000.1	74.0978	16,000.1	73.3594	16,000.1	71.0992	16,000.1	69.5536	16,000.1	64.916	16,000.1	65.4031	16,000.1	62.5677	16,000.1	60.8111	16,000.1	57.89	16,000.1	48.5208	16,000.1	63.3847	16,000.1	66.9147	16,000.1	48.0872	16,000.1	64.1776	16,000.1	64.7579	16,000.1	55.7298	16,000.1	60.3548	16,000.1	52.1047	16,000.1	61.3184	16,000.1	59.0007	16,000.1	63.7958	16,000.1	57.8672	16,000.1	54.1244	16,000.1	60.1301	16,000.1	60.8352
16,564.1	81.5575	16,564.1	82.19	16,564.1	81.3307	16,564.1	79.4687	16,564.1	81.2967	16,564.1	79.1657	16,564.1	77.3056	16,564.1	76.0691	16,564.1	71.6163	16,564.1	70.577	16,564.1	72.8106	16,564.1	68.2615	16,564.1	64.0276	16,564.1	54.336	16,564.1	49.1337	16,564.1	53.0207	16,564.1	58.7752	16,564.1	59.9353	16,564.1	57.2625	16,564.1	55.4136	16,564.1	60.3689	16,564.1	60.9419	16,564.1	61.6171	16,564.1	46.0172	16,564.1	53.5395	16,564.1	61.0798	16,564.1	49.5163	16,564.1	57.9589	16,564.1	48.6829	16,564.1	53.2446	16,564.1	47.571	16,564.1	64.8223	16,564.1	53.8098	16,564.1	59.7802	16,564.1	56.9499	16,564.1	52.2115
17,148.2	76.5498	17,148.2	79.2365	17,148.2	77.3319	17,148.2	74.9334	17,148.2	75.9209	17,148.2	75.5232	17,148.2	75.0866	17,148.2	71.4738	17,148.2	74.2597	17,148.2	56.921	17,148.2	68.0611	17,148.2	66.6162	17,148.2	55.0381	17,148.2	60.177	17,148.2	62.5842	17,148.2	57.2206	17,148.2	55.156	17,148.2	59.9111	17,148.2	63.2836	17,148.2	53.2584	17,148.2	57.1388	17,148.2	49.3348	17,148.2	57.0916	17,148.2	41.3533	17,148.2	51.8965	17,148.2	45.3591	17,148.2	38.0423	17,148.2	57.265	17,148.2	56.2964	17,148.2	63.9114	17,148.2	56.9127	17,148.2	63.5538	17,148.2	58.7466	17,148.2	65.335	17,148.2	62.3114	17,148.2	59.3423
17,753.2	73.7427	17,753.2	77.8331	17,753.2	73.1503	17,753.2	74.2246	17,753.2	72.0989	17,753.2	72.5884	17,753.2	70.2381	17,753.2	63.5798	17,753.2	71.6848	17,753.2	57.8084	17,753.2	65.6807	17,753.2	70.9885	17,753.2	63.4391	17,753.2	61.0139	17,753.2	63.754	17,753.2	50.0293	17,753.2	60.0328	17,753.2	59.9758	17,753.2	62.2925	17,753.2	50.1112	17,753.2	43.4463	17,753.2	45.6514	17,753.2	51.0193	17,753.2	44.4026	17,753.2	49.9282	17,753.2	55.0412	17,753.2	46.9735	17,753.2	58.0979	17,753.2	57.5966	17,753.2	64.8565	17,753.2	51.8374	17,753.2	63.4935	17,753.2	63.5324	17,753.2	65.6269	17,753.2	61.0465	17,753.2	62.2076
18,379	76.9364	18,379	78.087	18,379	75.5717	18,379	73.8223	18,379	71.7679	18,379	61.047	18,379	61.21	18,379	68.8404	18,379	60.1766	18,379	47.3837	18,379	59.4193	18,379	63.0253	18,379	57.7122	18,379	60.3941	18,379	61.0816	18,379	27.9314	18,379	56.6393	18,379	54.2612	18,379	58.1088	18,379	40.0524	18,379	54.4556	18,379	37.8734	18,379	59.0771	18,379	44.6574	18,379	52.9207	18,379	53.0269	18,379	43.6711	18,379	54.1401	18,379	46.2976	18,379	59.0203	18,379	49.236	18,379	65.9247	18,379	58.4448	18,379	63.3396	18,379	56.3782	18,379	60.2662
19,027.2	78.5487	19,027.2	80.6016	19,027.2	78.4112	19,027.2	78.6048	19,027.2	76.8054	19,027.2	72.9713	19,027.2	68.0022	19,027.2	70.8158	19,027.2	66.6426	19,027.2	64.9161	19,027.2	58.5362	19,027.2	55.8074	19,027.2	55.7282	19,027.2	64.534	19,027.2	58.4778	19,027.2	45.4026	19,027.2	51.1469	19,027.2	51.9113	19,027.2	52.3718	19,027.2	35.2665	19,027.2	57.1215	19,027.2	44.4076	19,027.2	61.0298	19,027.2	45.5651	19,027.2	56.0547	19,027.2	50.7529	19,027.2	49.9995	19,027.2	47.8083	19,027.2	46.4844	19,027.2	55.9258	19,027.2	41.4126	19,027.2	64.2913	19,027.2	47.3745	19,027.2	57.6342	19,027.2	50.0339	19,027.2	53.912
19,698.5	80.9589	19,698.5	82.871	19,698.5	79.2088	19,698.5	79.6973	19,698.5	76.0283	19,698.5	71.3338	19,698.5	69.2266	19,698.5	69.5435	19,698.5	66.7922	19,698.5	71.766	19,698.5	61.1789	19,698.5	63.9516	19,698.5	63.2815	19,698.5	64.91	19,698.5	55.0979	19,698.5	58.426	19,698.5	60.8398	19,698.5	48.0648	19,698.5	50.526	19,698.5	50.2086	19,698.5	58.4622	19,698.5	52.242	19,698.5	61.4623	19,698.5	48.8033	19,698.5	58.7524	19,698.5	53.0896	19,698.5	55.5319	19,698.5	48.3416	19,698.5	55.1714	19,698.5	55.6971	19,698.5	47.2947	19,698.5	60.6516	19,698.5	52.4494	19,698.5	59.6324	19,698.5	47.4015	19,698.5	46.7916
19,999.9	81.2638	19,999.9	83.0963	19,999.9	79.9374	19,999.9	80.9566	19,999.9	75.3787	19,999.9	68.3144	19,999.9	70.1161	19,999.9	65.8149	19,999.9	62.9775	19,999.9	73.5921	19,999.9	63.291	19,999.9	61.1856	19,999.9	64.5043	19,999.9	67.0912	19,999.9	49.7737	19,999.9	60.4687	19,999.9	63.1938	19,999.9	54.2361	19,999.9	50.1097	19,999.9	54.7433	19,999.9	57.4311	19,999.9	57.3717	19,999.9	60.7342	19,999.9	52.9945	19,999.9	62.2537	19,999.9	57.8059	19,999.9	58.5314	19,999.9	55.8183	19,999.9	53.047	19,999.9	58.7684	19,999.9	53.0714	19,999.9	55.4784	19,999.9	48.8019	19,999.9	58.4209	19,999.9	44.2505	19,999.9	57.8707
