"SPL Horizontal"
"On-Axis"		"10°"		"-10°"		"20°"		"-20°"		"30°"		"-30°"		"40°"		"-40°"		"50°"		"-50°"		"60°"		"-60°"		"70°"		"-70°"		"80°"		"-80°"		"90°"		"-90°"		"100°"		"-100°"		"110°"		"-110°"		"120°"		"-120°"		"130°"		"-130°"		"140°"		"-140°"		"150°"		"-150°"		"160°"		"-160°"		"170°"		"-170°"		"180°"
"Frequency / Hz"	"Sound Pressure Level / dB (re 20 µPa/V)  [2.83  V @ 1. m]"	"Frequency / Hz"	"Sound Pressure Level / dB (re 20 µPa/V)  [2.83  V @ 1. m]"	"Frequency / Hz"	"Sound Pressure Level / dB (re 20 µPa/V)  [2.83  V @ 1. m]"	"Frequency / Hz"	"Sound Pressure Level / dB (re 20 µPa/V)  [2.83  V @ 1. m]"	"Frequency / Hz"	"Sound Pressure Level / dB (re 20 µPa/V)  [2.83  V @ 1. m]"	"Frequency / Hz"	"Sound Pressure Level / dB (re 20 µPa/V)  [2.83  V @ 1. m]"	"Frequency / Hz"	"Sound Pressure Level / dB (re 20 µPa/V)  [2.83  V @ 1. m]"	"Frequency / Hz"	"Sound Pressure Level / dB (re 20 µPa/V)  [2.83  V @ 1. m]"	"Frequency / Hz"	"Sound Pressure Level / dB (re 20 µPa/V)  [2.83  V @ 1. m]"	"Frequency / Hz"	"Sound Pressure Level / dB (re 20 µPa/V)  [2.83  V @ 1. m]"	"Frequency / Hz"	"Sound Pressure Level / dB (re 20 µPa/V)  [2.83  V @ 1. m]"	"Frequency / Hz"	"Sound Pressure Level / dB (re 20 µPa/V)  [2.83  V @ 1. m]"	"Frequency / Hz"	"Sound Pressure Level / dB (re 20 µPa/V)  [2.83  V @ 1. m]"	"Frequency / Hz"	"Sound Pressure Level / dB (re 20 µPa/V)  [2.83  V @ 1. m]"	"Frequency / Hz"	"Sound Pressure Level / dB (re 20 µPa/V)  [2.83  V @ 1. m]"	"Frequency / Hz"	"Sound Pressure Level / dB (re 20 µPa/V)  [2.83  V @ 1. m]"	"Frequency / Hz"	"Sound Pressure Level / dB (re 20 µPa/V)  [2.83  V @ 1. m]"	"Frequency / Hz"	"Sound Pressure Level / dB (re 20 µPa/V)  [2.83  V @ 1. m]"	"Frequency / Hz"	"Sound Pressure Level / dB (re 20 µPa/V)  [2.83  V @ 1. m]"	"Frequency / Hz"	"Sound Pressure Level / dB (re 20 µPa/V)  [2.83  V @ 1. m]"	"Frequency / Hz"	"Sound Pressure Level / dB (re 20 µPa/V)  [2.83  V @ 1. m]"	"Frequency / Hz"	"Sound Pressure Level / dB (re 20 µPa/V)  [2.83  V @ 1. m]"	"Frequency / Hz"	"Sound Pressure Level / dB (re 20 µPa/V)  [2.83  V @ 1. m]"	"Frequency / Hz"	"Sound Pressure Level / dB (re 20 µPa/V)  [2.83  V @ 1. m]"	"Frequency / Hz"	"Sound Pressure Level / dB (re 20 µPa/V)  [2.83  V @ 1. m]"	"Frequency / Hz"	"Sound Pressure Level / dB (re 20 µPa/V)  [2.83  V @ 1. m]"	"Frequency / Hz"	"Sound Pressure Level / dB (re 20 µPa/V)  [2.83  V @ 1. m]"	"Frequency / Hz"	"Sound Pressure Level / dB (re 20 µPa/V)  [2.83  V @ 1. m]"	"Frequency / Hz"	"Sound Pressure Level / dB (re 20 µPa/V)  [2.83  V @ 1. m]"	"Frequency / Hz"	"Sound Pressure Level / dB (re 20 µPa/V)  [2.83  V @ 1. m]"	"Frequency / Hz"	"Sound Pressure Level / dB (re 20 µPa/V)  [2.83  V @ 1. m]"	"Frequency / Hz"	"Sound Pressure Level / dB (re 20 µPa/V)  [2.83  V @ 1. m]"	"Frequency / Hz"	"Sound Pressure Level / dB (re 20 µPa/V)  [2.83  V @ 1. m]"	"Frequency / Hz"	"Sound Pressure Level / dB (re 20 µPa/V)  [2.83  V @ 1. m]"	"Frequency / Hz"	"Sound Pressure Level / dB (re 20 µPa/V)  [2.83  V @ 1. m]"	"Frequency / Hz"	"Sound Pressure Level / dB (re 20 µPa/V)  [2.83  V @ 1. m]"
20.1416	64.187	20.1416	64.1807	20.1416	64.1965	20.1416	64.1771	20.1416	64.2087	20.1416	64.1755	20.1416	64.2223	20.1416	64.1747	20.1416	64.235	20.1416	64.1743	20.1416	64.2446	20.1416	64.1741	20.1416	64.2495	20.1416	64.1748	20.1416	64.2485	20.1416	64.1773	20.1416	64.2414	20.1416	64.1827	20.1416	64.229	20.1416	64.1915	20.1416	64.2126	20.1416	64.2031	20.1416	64.1943	20.1416	64.2158	20.1416	64.1768	20.1416	64.227	20.1416	64.1629	20.1416	64.2336	20.1416	64.1552	20.1416	64.2335	20.1416	64.1553	20.1416	64.226	20.1416	64.1631	20.1416	64.2123	20.1416	64.1773	20.1416	64.1948
20.5078	65.8567	20.5078	65.8422	20.5078	65.869	20.5078	65.8259	20.5078	65.8785	20.5078	65.8083	20.5078	65.8844	20.5078	65.7899	20.5078	65.8857	20.5078	65.7717	20.5078	65.8817	20.5078	65.7546	20.5078	65.8721	20.5078	65.7398	20.5078	65.8573	20.5078	65.7283	20.5078	65.8381	20.5078	65.7209	20.5078	65.8161	20.5078	65.7179	20.5078	65.793	20.5078	65.7191	20.5078	65.771	20.5078	65.7232	20.5078	65.7519	20.5078	65.7287	20.5078	65.7372	20.5078	65.7338	20.5078	65.7277	20.5078	65.7369	20.5078	65.7235	20.5078	65.7373	20.5078	65.7236	20.5078	65.735	20.5078	65.7266	20.5078	65.731
21.2402	68.198	21.2402	68.1697	21.2402	68.2172	21.2402	68.1329	21.2402	68.2266	21.2402	68.0885	21.2402	68.2255	21.2402	68.0374	21.2402	68.2135	21.2402	67.9807	21.2402	68.1904	21.2402	67.92	21.2402	68.1566	21.2402	67.8572	21.2402	68.1131	21.2402	67.7943	21.2402	68.0614	21.2402	67.7339	21.2402	68.0039	21.2402	67.6784	21.2402	67.9428	21.2402	67.6302	21.2402	67.8807	21.2402	67.5908	21.2402	67.8199	21.2402	67.5614	21.2402	67.7623	21.2402	67.5423	21.2402	67.7095	21.2402	67.5332	21.2402	67.6624	21.2402	67.5338	21.2402	67.6217	21.2402	67.5435	21.2402	67.588	21.2402	67.5617
21.9727	69.6885	21.9727	69.6783	21.9727	69.6937	21.9727	69.6633	21.9727	69.6932	21.9727	69.6436	21.9727	69.6864	21.9727	69.6191	21.9727	69.6723	21.9727	69.5898	21.9727	69.6506	21.9727	69.5557	21.9727	69.6208	21.9727	69.5174	21.9727	69.5833	21.9727	69.4758	21.9727	69.5388	21.9727	69.4322	21.9727	69.4889	21.9727	69.3883	21.9727	69.4354	21.9727	69.3456	21.9727	69.3806	21.9727	69.3055	21.9727	69.3272	21.9727	69.2688	21.9727	69.2779	21.9727	69.2363	21.9727	69.2353	21.9727	69.2085	21.9727	69.2015	21.9727	69.1862	21.9727	69.178	21.9727	69.1706	21.9727	69.1653	21.9727	69.1632
22.7051	70.6988	22.7051	70.6951	22.7051	70.696	22.7051	70.6851	22.7051	70.6862	22.7051	70.669	22.7051	70.6688	22.7051	70.6469	22.7051	70.6432	22.7051	70.6186	22.7051	70.6092	22.7051	70.5842	22.7051	70.5669	22.7051	70.5441	22.7051	70.517	22.7051	70.4989	22.7051	70.4608	22.7051	70.4496	22.7051	70.4001	22.7051	70.3976	22.7051	70.3369	22.7051	70.3442	22.7051	70.2739	22.7051	70.2911	22.7051	70.214	22.7051	70.2397	22.7051	70.1601	22.7051	70.1913	22.7051	70.1153	22.7051	70.1474	22.7051	70.0819	22.7051	70.1099	22.7051	70.0615	22.7051	70.0807	22.7051	70.055	22.7051	70.0617
23.8037	72.9661	23.8037	72.9613	23.8037	72.9639	23.8037	72.9498	23.8037	72.9546	23.8037	72.9315	23.8037	72.938	23.8037	72.9064	23.8037	72.9138	23.8037	72.8746	23.8037	72.8819	23.8037	72.8364	23.8037	72.8424	23.8037	72.7922	23.8037	72.7956	23.8037	72.743	23.8037	72.7425	23.8037	72.6898	23.8037	72.6844	23.8037	72.6341	23.8037	72.6231	23.8037	72.5776	23.8037	72.5611	23.8037	72.5222	23.8037	72.5011	23.8037	72.4696	23.8037	72.4457	23.8037	72.4219	23.8037	72.3977	23.8037	72.3808	23.8037	72.3594	23.8037	72.3484	23.8037	72.3323	23.8037	72.3263	23.8037	72.3176	23.8037	72.3157
24.5361	74.2937	24.5361	74.283	24.5361	74.2984	24.5361	74.2663	24.5361	74.2967	24.5361	74.2439	24.5361	74.2883	24.5361	74.2156	24.5361	74.273	24.5361	74.1817	24.5361	74.2506	24.5361	74.1425	24.5361	74.2211	24.5361	74.0985	24.5361	74.1845	24.5361	74.0507	24.5361	74.1413	24.5361	74.0003	24.5361	74.0922	24.5361	73.9488	24.5361	74.0386	24.5361	73.8979	24.5361	73.9824	24.5361	73.8494	24.5361	73.9258	24.5361	73.8054	24.5361	73.8713	24.5361	73.7675	24.5361	73.8216	24.5361	73.7375	24.5361	73.7787	24.5361	73.7169	24.5361	73.7447	24.5361	73.7069	24.5361	73.7209	24.5361	73.7082
25.2686	75.0674	25.2686	75.0532	25.2686	75.0746	25.2686	75.0322	25.2686	75.0747	25.2686	75.0043	25.2686	75.0678	25.2686	74.9698	25.2686	75.0537	25.2686	74.9294	25.2686	75.0326	25.2686	74.8836	25.2686	75.0045	25.2686	74.8337	25.2686	74.9695	25.2686	74.7812	25.2686	74.928	25.2686	74.7275	25.2686	74.8805	25.2686	74.6744	25.2686	74.8281	25.2686	74.6237	25.2686	74.7722	25.2686	74.5771	25.2686	74.7148	25.2686	74.5362	25.2686	74.6582	25.2686	74.5028	25.2686	74.605	25.2686	74.4784	25.2686	74.5575	25.2686	74.464	25.2686	74.518	25.2686	74.4607	25.2686	74.488	25.2686	74.4687
26.3672	76.0091	26.3672	75.986	26.3672	76.024	26.3672	75.9555	26.3672	76.0301	26.3672	75.918	26.3672	76.0268	26.3672	75.8743	26.3672	76.0137	26.3672	75.8249	26.3672	75.9907	26.3672	75.7708	26.3672	75.9577	26.3672	75.713	26.3672	75.915	26.3672	75.6526	26.3672	75.8633	26.3672	75.5913	26.3672	75.8036	26.3672	75.5307	26.3672	75.7374	26.3672	75.4726	26.3672	75.6668	26.3672	75.4189	26.3672	75.5945	26.3672	75.3715	26.3672	75.5235	26.3672	75.3322	26.3672	75.4569	26.3672	75.3029	26.3672	75.398	26.3672	75.2853	26.3672	75.3492	26.3672	75.2806	26.3672	75.3127	26.3672	75.2896
27.0996	76.4779	27.0996	76.4511	27.0996	76.4979	27.0996	76.4185	27.0996	76.5104	27.0996	76.3812	27.0996	76.5145	27.0996	76.34	27.0996	76.5097	27.0996	76.2958	27.0996	76.4958	27.0996	76.2495	27.0996	76.4727	27.0996	76.202	27.0996	76.4407	27.0996	76.1543	27.0996	76.4005	27.0996	76.1074	27.0996	76.3529	27.0996	76.0625	27.0996	76.2992	27.0996	76.0208	27.0996	76.2412	27.0996	75.9834	27.0996	76.1812	27.0996	75.9515	27.0996	76.1215	27.0996	75.9263	27.0996	76.065	27.0996	75.9089	27.0996	76.0141	27.0996	75.9006	27.0996	75.9711	27.0996	75.9022	27.0996	75.9376	27.0996	75.9145
28.1982	77.3871	28.1982	77.3941	28.1982	77.3718	28.1982	77.3925	28.1982	77.3488	28.1982	77.3822	28.1982	77.3185	28.1982	77.3632	28.1982	77.2817	28.1982	77.3357	28.1982	77.2394	28.1982	77.3001	28.1982	77.1925	28.1982	77.2573	28.1982	77.1421	28.1982	77.2084	28.1982	77.0894	28.1982	77.1547	28.1982	77.0356	28.1982	77.098	28.1982	76.9821	28.1982	77.0401	28.1982	76.9303	28.1982	76.9829	28.1982	76.8819	28.1982	76.9284	28.1982	76.8387	28.1982	76.8784	28.1982	76.8025	28.1982	76.8348	28.1982	76.7752	28.1982	76.7992	28.1982	76.7579	28.1982	76.7727	28.1982	76.7516	28.1982	76.7567
29.2969	78.3453	29.2969	78.3441	29.2969	78.3378	29.2969	78.3342	29.2969	78.3213	29.2969	78.3156	29.2969	78.2958	29.2969	78.2885	29.2969	78.261	29.2969	78.2529	29.2969	78.2172	29.2969	78.2091	29.2969	78.1648	29.2969	78.1574	29.2969	78.1045	29.2969	78.0988	29.2969	78.0378	29.2969	78.0342	29.2969	77.9662	29.2969	77.9652	29.2969	77.8922	29.2969	77.8937	29.2969	77.8184	29.2969	77.8222	29.2969	77.7476	29.2969	77.7533	29.2969	77.6829	29.2969	77.6897	29.2969	77.6273	29.2969	77.6344	29.2969	77.5835	29.2969	77.5897	29.2969	77.5537	29.2969	77.558	29.2969	77.5393	29.2969	77.5408
30.0293	79.0983	30.0293	79.0963	30.0293	79.0905	30.0293	79.0849	30.0293	79.0728	30.0293	79.0642	30.0293	79.0448	30.0293	79.0347	30.0293	79.0067	30.0293	78.9965	30.0293	78.9587	30.0293	78.95	30.0293	78.9014	30.0293	78.8956	30.0293	78.8358	30.0293	78.8341	30.0293	78.7636	30.0293	78.7662	30.0293	78.6869	30.0293	78.6936	30.0293	78.6081	30.0293	78.618	30.0293	78.5301	30.0293	78.542	30.0293	78.4558	30.0293	78.4684	30.0293	78.3882	30.0293	78.4005	30.0293	78.3303	30.0293	78.3412	30.0293	78.2848	30.0293	78.2933	30.0293	78.2538	30.0293	78.2593	30.0293	78.2389	30.0293	78.2408
31.1279	79.6706	31.1279	79.6637	31.1279	79.6671	31.1279	79.6469	31.1279	79.653	31.1279	79.6208	31.1279	79.6281	31.1279	79.586	31.1279	79.5929	31.1279	79.5432	31.1279	79.5478	31.1279	79.4934	31.1279	79.4936	31.1279	79.4372	31.1279	79.4317	31.1279	79.3756	31.1279	79.3639	31.1279	79.3101	31.1279	79.2924	31.1279	79.2419	31.1279	79.2197	31.1279	79.1732	31.1279	79.1483	31.1279	79.1062	31.1279	79.0809	31.1279	79.0433	31.1279	79.0197	31.1279	78.9871	31.1279	78.9669	31.1279	78.9399	31.1279	78.9242	31.1279	78.904	31.1279	78.8933	31.1279	78.8807	31.1279	78.8754	31.1279	78.871
32.2266	79.357	32.2266	79.3501	32.2266	79.3563	32.2266	79.336	32.2266	79.3477	32.2266	79.3151	32.2266	79.3309	32.2266	79.2877	32.2266	79.3058	32.2266	79.2543	32.2266	79.2726	32.2266	79.2153	32.2266	79.2316	32.2266	79.1713	32.2266	79.1839	32.2266	79.123	32.2266	79.131	32.2266	79.0715	32.2266	79.0748	32.2266	79.0181	32.2266	79.0176	32.2266	78.9645	32.2266	78.9618	32.2266	78.9125	32.2266	78.9092	32.2266	78.8643	32.2266	78.8615	32.2266	78.8219	32.2266	78.8203	32.2266	78.787	32.2266	78.7867	32.2266	78.7613	32.2266	78.7616	32.2266	78.7457	32.2266	78.746	32.2266	78.7406
33.3252	79.7727	33.3252	79.7637	33.3252	79.7739	33.3252	79.7475	33.3252	79.7669	33.3252	79.7247	33.3252	79.7515	33.3252	79.696	33.3252	79.7274	33.3252	79.6619	33.3252	79.6948	33.3252	79.6231	33.3252	79.6541	33.3252	79.5802	33.3252	79.6066	33.3252	79.5338	33.3252	79.5537	33.3252	79.4849	33.3252	79.4976	33.3252	79.4345	33.3252	79.4407	33.3252	79.384	33.3252	79.3854	33.3252	79.3353	33.3252	79.3339	33.3252	79.2901	33.3252	79.2876	33.3252	79.2504	33.3252	79.248	33.3252	79.2177	33.3252	79.216	33.3252	79.1935	33.3252	79.1925	33.3252	79.1786	33.3252	79.1782	33.3252	79.1735
34.79	80.5622	34.79	80.5587	34.79	80.5577	34.79	80.5476	34.79	80.545	34.79	80.5295	34.79	80.524	34.79	80.505	34.79	80.4951	34.79	80.4747	34.79	80.4588	34.79	80.4394	34.79	80.416	34.79	80.3996	34.79	80.3681	34.79	80.3563	34.79	80.3171	34.79	80.3104	34.79	80.2651	34.79	80.2632	34.79	80.2146	34.79	80.216	34.79	80.1675	34.79	80.1704	34.79	80.1254	34.79	80.1282	34.79	80.0894	34.79	80.0911	34.79	80.06	34.79	80.0604	34.79	80.0375	34.79	80.0369	34.79	80.0221	34.79	80.0214	34.79	80.0141	34.79	80.0138
35.8887	80.7353	35.8887	80.7345	35.8887	80.7272	35.8887	80.7254	35.8887	80.7099	35.8887	80.7083	35.8887	80.6834	35.8887	80.6838	35.8887	80.6476	35.8887	80.6524	35.8887	80.6029	35.8887	80.6144	35.8887	80.5502	35.8887	80.5706	35.8887	80.4911	35.8887	80.5217	35.8887	80.4277	35.8887	80.4687	35.8887	80.3628	35.8887	80.4128	35.8887	80.2996	35.8887	80.3556	35.8887	80.2408	35.8887	80.2992	35.8887	80.1891	35.8887	80.2455	35.8887	80.146	35.8887	80.1966	35.8887	80.1126	35.8887	80.1544	35.8887	80.0892	35.8887	80.1201	35.8887	80.0758	35.8887	80.0947	35.8887	80.0723	35.8887	80.0787
36.9873	81.1637	36.9873	81.1624	36.9873	81.154	36.9873	81.1507	36.9873	81.1333	36.9873	81.1289	36.9873	81.1012	36.9873	81.0973	36.9873	81.0578	36.9873	81.0564	36.9873	81.0036	36.9873	81.0067	36.9873	80.9393	36.9873	80.949	36.9873	80.8663	36.9873	80.8844	36.9873	80.7868	36.9873	80.814	36.9873	80.7035	36.9873	80.7396	36.9873	80.6196	36.9873	80.6632	36.9873	80.5385	36.9873	80.5871	36.9873	80.4638	36.9873	80.5139	36.9873	80.3986	36.9873	80.4464	36.9873	80.3455	36.9873	80.387	36.9873	80.3062	36.9873	80.3384	36.9873	80.282	36.9873	80.3023	36.9873	80.2734	36.9873	80.2803
38.4521	82.0226	38.4521	82.0097	38.4521	82.0264	38.4521	81.9884	38.4521	82.0208	38.4521	81.9595	38.4521	82.0053	38.4521	81.9236	38.4521	81.9799	38.4521	81.8817	38.4521	81.9447	38.4521	81.8346	38.4521	81.9003	38.4521	81.7834	38.4521	81.8476	38.4521	81.7292	38.4521	81.7879	38.4521	81.6733	38.4521	81.7231	38.4521	81.6167	38.4521	81.6553	38.4521	81.5609	38.4521	81.5871	38.4521	81.507	38.4521	81.5211	38.4521	81.4565	38.4521	81.4602	38.4521	81.4109	38.4521	81.407	38.4521	81.3719	38.4521	81.3641	38.4521	81.3412	38.4521	81.3334	38.4521	81.3206	38.4521	81.3159	38.4521	81.3118
39.917	82.7564	39.917	82.7461	39.917	82.7595	39.917	82.7289	39.917	82.7551	39.917	82.7056	39.917	82.743	39.917	82.6769	39.917	82.7237	39.917	82.6438	39.917	82.6976	39.917	82.6073	39.917	82.6655	39.917	82.5682	39.917	82.6284	39.917	82.5279	39.917	82.5876	39.917	82.4872	39.917	82.5445	39.917	82.4471	39.917	82.5004	39.917	82.4088	39.917	82.4567	39.917	82.3731	39.917	82.4146	39.917	82.3409	39.917	82.3752	39.917	82.313	39.917	82.3399	39.917	82.2905	39.917	82.31	39.917	82.2742	39.917	82.2867	39.917	82.2651	39.917	82.2711	39.917	82.2639
41.3818	83.0051	41.3818	83.0013	41.3818	83.0018	41.3818	82.9908	41.3818	82.9912	41.3818	82.9739	41.3818	82.9729	41.3818	82.9511	41.3818	82.9473	41.3818	82.9229	41.3818	82.9148	41.3818	82.8901	41.3818	82.8765	41.3818	82.8536	41.3818	82.834	41.3818	82.8147	41.3818	82.7895	41.3818	82.7747	41.3818	82.7451	41.3818	82.7352	41.3818	82.7031	41.3818	82.6975	41.3818	82.6653	41.3818	82.6628	41.3818	82.6328	41.3818	82.6319	41.3818	82.606	41.3818	82.6056	41.3818	82.5848	41.3818	82.5843	41.3818	82.5689	41.3818	82.5683	41.3818	82.5582	41.3818	82.5576	41.3818	82.5527	41.3818	82.5525
42.8467	83.5737	42.8467	83.5753	42.8467	83.5673	42.8467	83.5722	42.8467	83.5563	42.8467	83.5647	42.8467	83.5408	42.8467	83.553	42.8467	83.5212	42.8467	83.5376	42.8467	83.4982	42.8467	83.5191	42.8467	83.4725	42.8467	83.4984	42.8467	83.4454	42.8467	83.4763	42.8467	83.4181	42.8467	83.4535	42.8467	83.392	42.8467	83.431	42.8467	83.3685	42.8467	83.4094	42.8467	83.3487	42.8467	83.3893	42.8467	83.3332	42.8467	83.3711	42.8467	83.3221	42.8467	83.3553	42.8467	83.315	42.8467	83.3418	42.8467	83.3114	42.8467	83.3309	42.8467	83.3107	42.8467	83.3225	42.8467	83.3124	42.8467	83.3163
44.3115	84.277	44.3115	84.2828	44.3115	84.2622	44.3115	84.2797	44.3115	84.2388	44.3115	84.2681	44.3115	84.2074	44.3115	84.2486	44.3115	84.169	44.3115	84.2221	44.3115	84.1249	44.3115	84.1896	44.3115	84.077	44.3115	84.1527	44.3115	84.0273	44.3115	84.1128	44.3115	83.9782	44.3115	84.0718	44.3115	83.9324	44.3115	84.0311	44.3115	83.8922	44.3115	83.9925	44.3115	83.8596	44.3115	83.9572	44.3115	83.8357	44.3115	83.9262	44.3115	83.8207	44.3115	83.8999	44.3115	83.8138	44.3115	83.8784	44.3115	83.8134	44.3115	83.8611	44.3115	83.8178	44.3115	83.8469	44.3115	83.8254	44.3115	83.8352
45.7764	85.0051	45.7764	85.0089	45.7764	84.9863	45.7764	84.9977	45.7764	84.9527	45.7764	84.9719	45.7764	84.9049	45.7764	84.9321	45.7764	84.8439	45.7764	84.8794	45.7764	84.7713	45.7764	84.8152	45.7764	84.6889	45.7764	84.7413	45.7764	84.5994	45.7764	84.66	45.7764	84.5057	45.7764	84.5736	45.7764	84.4112	45.7764	84.4848	45.7764	84.3195	45.7764	84.3961	45.7764	84.2341	45.7764	84.3106	45.7764	84.1582	45.7764	84.2308	45.7764	84.0943	45.7764	84.1594	45.7764	84.0443	45.7764	84.0985	45.7764	84.0089	45.7764	84.0496	45.7764	83.9884	45.7764	84.0137	45.7764	83.9827	45.7764	83.9912
47.2412	85.46	47.2412	85.4562	47.2412	85.45	47.2412	85.439	47.2412	85.4261	47.2412	85.4091	47.2412	85.3883	47.2412	85.3671	47.2412	85.3369	47.2412	85.3139	47.2412	85.273	47.2412	85.2508	47.2412	85.1976	47.2412	85.179	47.2412	85.1127	47.2412	85.1	47.2412	85.0207	47.2412	85.0152	47.2412	84.9243	47.2412	84.9264	47.2412	84.8267	47.2412	84.8354	47.2412	84.7314	47.2412	84.7449	47.2412	84.6416	47.2412	84.6577	47.2412	84.5608	47.2412	84.5771	47.2412	84.4922	47.2412	84.5067	47.2412	84.4385	47.2412	84.4498	47.2412	84.4022	47.2412	84.4092	47.2412	84.3848	47.2412	84.3872
49.0723	85.8679	49.0723	85.8601	49.0723	85.8659	49.0723	85.843	49.0723	85.8541	49.0723	85.8172	49.0723	85.8324	49.0723	85.7837	49.0723	85.8015	49.0723	85.7435	49.0723	85.7618	49.0723	85.6978	49.0723	85.7146	49.0723	85.648	49.0723	85.6612	49.0723	85.5955	49.0723	85.6031	49.0723	85.5415	49.0723	85.5422	49.0723	85.4872	49.0723	85.4805	49.0723	85.4337	49.0723	85.4202	49.0723	85.3823	49.0723	85.3635	49.0723	85.3341	49.0723	85.3123	49.0723	85.2907	49.0723	85.2687	49.0723	85.2535	49.0723	85.234	49.0723	85.2241	49.0723	85.2097	49.0723	85.2041	49.0723	85.1964	49.0723	85.1946
50.9033	86.1977	50.9033	86.205	50.9033	86.1825	50.9033	86.2041	50.9033	86.1601	50.9033	86.1952	50.9033	86.1313	50.9033	86.1787	50.9033	86.0974	50.9033	86.1553	50.9033	86.0599	50.9033	86.1258	50.9033	86.0205	50.9033	86.0916	50.9033	85.9809	50.9033	86.0541	50.9033	85.9427	50.9033	86.0148	50.9033	85.9074	50.9033	85.9754	50.9033	85.8758	50.9033	85.9374	50.9033	85.8486	50.9033	85.9019	50.9033	85.8261	50.9033	85.8699	50.9033	85.8081	50.9033	85.8422	50.9033	85.7945	50.9033	85.8194	50.9033	85.7851	50.9033	85.8017	50.9033	85.7797	50.9033	85.7891	50.9033	85.7784	50.9033	85.7814
52.7344	86.4914	52.7344	86.4976	52.7344	86.4754	52.7344	86.4942	52.7344	86.4499	52.7344	86.4816	52.7344	86.4155	52.7344	86.4605	52.7344	86.3734	52.7344	86.432	52.7344	86.3253	52.7344	86.3974	52.7344	86.2735	52.7344	86.3583	52.7344	86.2203	52.7344	86.3164	52.7344	86.1684	52.7344	86.2736	52.7344	86.1201	52.7344	86.2314	52.7344	86.0773	52.7344	86.1912	52.7344	86.0415	52.7344	86.1536	52.7344	86.0135	52.7344	86.1191	52.7344	85.9936	52.7344	86.0878	52.7344	85.9814	52.7344	86.0599	52.7344	85.9765	52.7344	86.0353	52.7344	85.9781	52.7344	86.0145	52.7344	85.9854	52.7344	85.9977
54.5654	86.7034	54.5654	86.7086	54.5654	86.6841	54.5654	86.6988	54.5654	86.652	54.5654	86.6742	54.5654	86.6089	54.5654	86.6355	54.5654	86.5572	54.5654	86.5844	54.5654	86.4994	54.5654	86.5235	54.5654	86.4382	54.5654	86.456	54.5654	86.3761	54.5654	86.3853	54.5654	86.3154	54.5654	86.315	54.5654	86.2577	54.5654	86.2482	54.5654	86.2041	54.5654	86.1871	54.5654	86.1555	54.5654	86.1332	54.5654	86.1123	54.5654	86.0874	54.5654	86.075	54.5654	86.0501	54.5654	86.0437	54.5654	86.0213	54.5654	86.0189	54.5654	86.001	54.5654	86.0006	54.5654	85.9891	54.5654	85.9893	54.5654	85.9853
56.3965	86.7835	56.3965	86.7857	56.3965	86.7671	56.3965	86.7736	56.3965	86.7377	56.3965	86.7475	56.3965	86.697	56.3965	86.709	56.3965	86.6475	56.3965	86.6601	56.3965	86.5919	56.3965	86.6037	56.3965	86.5335	56.3965	86.5431	56.3965	86.4752	56.3965	86.4815	56.3965	86.4197	56.3965	86.4222	56.3965	86.3692	56.3965	86.3681	56.3965	86.3255	56.3965	86.3211	56.3965	86.2893	56.3965	86.2825	56.3965	86.2607	56.3965	86.2526	56.3965	86.2395	56.3965	86.2309	56.3965	86.2245	56.3965	86.2164	56.3965	86.2145	56.3965	86.2078	56.3965	86.208	56.3965	86.2036	56.3965	86.2042	56.3965	86.2026
58.2275	87.1504	58.2275	87.1361	58.2275	87.1462	58.2275	87.1039	58.2275	87.1238	58.2275	87.055	58.2275	87.084	58.2275	86.9913	58.2275	87.0283	58.2275	86.9152	58.2275	86.959	58.2275	86.8294	58.2275	86.8786	58.2275	86.7371	58.2275	86.7904	58.2275	86.6416	58.2275	86.6975	58.2275	86.5462	58.2275	86.6035	58.2275	86.4542	58.2275	86.5118	58.2275	86.3686	58.2275	86.4254	58.2275	86.292	58.2275	86.3467	58.2275	86.2266	58.2275	86.2777	58.2275	86.174	58.2275	86.2193	58.2275	86.1348	58.2275	86.1721	58.2275	86.1094	58.2275	86.1361	58.2275	86.0975	58.2275	86.1114	58.2275	86.0984
60.4248	87.3671	60.4248	87.3528	60.4248	87.3663	60.4248	87.3237	60.4248	87.3505	60.4248	87.2804	60.4248	87.32	60.4248	87.2241	60.4248	87.2757	60.4248	87.1565	60.4248	87.2189	60.4248	87.0796	60.4248	87.1513	60.4248	86.9961	60.4248	87.0748	60.4248	86.9086	60.4248	86.9921	60.4248	86.8203	60.4248	86.9057	60.4248	86.734	60.4248	86.8186	60.4248	86.6527	60.4248	86.7335	60.4248	86.5791	60.4248	86.6531	60.4248	86.5151	60.4248	86.5799	60.4248	86.4626	60.4248	86.5161	60.4248	86.4225	60.4248	86.4634	60.4248	86.3957	60.4248	86.4231	60.4248	86.3822	60.4248	86.396	60.4248	86.3823
62.6221	87.3457	62.6221	87.3382	62.6221	87.3396	62.6221	87.3172	62.6221	87.3202	62.6221	87.2833	62.6221	87.2883	62.6221	87.2377	62.6221	87.2452	62.6221	87.1819	62.6221	87.1923	62.6221	87.1179	62.6221	87.1316	62.6221	87.0482	62.6221	87.0653	62.6221	86.9754	62.6221	86.9955	62.6221	86.9021	62.6221	86.9245	62.6221	86.831	62.6221	86.8545	62.6221	86.7643	62.6221	86.7874	62.6221	86.7038	62.6221	86.725	62.6221	86.6511	62.6221	86.6692	62.6221	86.6071	62.6221	86.6213	62.6221	86.5726	62.6221	86.5827	62.6221	86.5479	62.6221	86.5542	62.6221	86.5335	62.6221	86.5364	62.6221	86.5296
64.8193	87.3798	64.8193	87.3769	64.8193	87.3684	64.8193	87.3598	64.8193	87.3436	64.8193	87.329	64.8193	87.3065	64.8193	87.2859	64.8193	87.259	64.8193	87.2325	64.8193	87.2035	64.8193	87.1711	64.8193	87.1424	64.8193	87.1045	64.8193	87.0782	64.8193	87.0356	64.8193	87.0135	64.8193	86.9673	64.8193	86.9502	64.8193	86.902	64.8193	86.8901	64.8193	86.8419	64.8193	86.8344	64.8193	86.7883	64.8193	86.7843	64.8193	86.7423	64.8193	86.7406	64.8193	86.7044	64.8193	86.7038	64.8193	86.6748	64.8193	86.6747	64.8193	86.6535	64.8193	86.6535	64.8193	86.6407	64.8193	86.6407	64.8193	86.6364
67.0166	87.4254	67.0166	87.4199	67.0166	87.4173	67.0166	87.4009	67.0166	87.3963	67.0166	87.369	67.0166	87.3636	67.0166	87.3257	67.0166	87.321	67.0166	87.2728	67.0166	87.2707	67.0166	87.2128	67.0166	87.2152	67.0166	87.1483	67.0166	87.1569	67.0166	87.0825	67.0166	87.098	67.0166	87.0179	67.0166	87.0406	67.0166	86.9572	67.0166	86.9862	67.0166	86.9023	67.0166	86.9358	67.0166	86.8544	67.0166	86.8901	67.0166	86.8145	67.0166	86.8496	67.0166	86.7829	67.0166	86.8148	67.0166	86.7597	67.0166	86.7859	67.0166	86.7448	67.0166	86.7633	67.0166	86.7379	67.0166	86.7475	67.0166	86.7389
69.2139	87.5218	69.2139	87.5081	69.2139	87.5208	69.2139	87.4801	69.2139	87.5057	69.2139	87.4388	69.2139	87.4774	69.2139	87.3858	69.2139	87.4376	69.2139	87.3233	69.2139	87.3887	69.2139	87.254	69.2139	87.3332	69.2139	87.181	69.2139	87.2736	69.2139	87.1075	69.2139	87.2125	69.2139	87.0365	69.2139	87.1518	69.2139	86.9707	69.2139	87.0934	69.2139	86.9122	69.2139	87.0381	69.2139	86.8627	69.2139	86.9868	69.2139	86.8231	69.2139	86.9397	69.2139	86.794	69.2139	86.8971	69.2139	86.7755	69.2139	86.8592	69.2139	86.7674	69.2139	86.8265	69.2139	86.7693	69.2139	86.7999	69.2139	86.7805
71.7773	87.5822	71.7773	87.5644	71.7773	87.585	71.7773	87.5322	71.7773	87.573	71.7773	87.4868	71.7773	87.5473	71.7773	87.4304	71.7773	87.5095	71.7773	87.3654	71.7773	87.462	71.7773	87.2952	71.7773	87.4076	71.7773	87.2229	71.7773	87.349	71.7773	87.1517	71.7773	87.2892	71.7773	87.0846	71.7773	87.2303	71.7773	87.0239	71.7773	87.1743	71.7773	86.9713	71.7773	87.122	71.7773	86.928	71.7773	87.0741	71.7773	86.8946	71.7773	87.0306	71.7773	86.8715	71.7773	86.9912	71.7773	86.8586	71.7773	86.9558	71.7773	86.8556	71.7773	86.9245	71.7773	86.8619	71.7773	86.8976	71.7773	86.8764
74.3408	87.6007	74.3408	87.5883	74.3408	87.5998	74.3408	87.5628	74.3408	87.5859	74.3408	87.5253	74.3408	87.5603	74.3408	87.4774	74.3408	87.5248	74.3408	87.4218	74.3408	87.4815	74.3408	87.3616	74.3408	87.4332	74.3408	87.3001	74.3408	87.3828	74.3408	87.2407	74.3408	87.3329	74.3408	87.1866	74.3408	87.286	74.3408	87.14	74.3408	87.2437	74.3408	87.1026	74.3408	87.207	74.3408	87.0748	74.3408	87.176	74.3408	87.0563	74.3408	87.1502	74.3408	87.0464	74.3408	87.1286	74.3408	87.0439	74.3408	87.1102	74.3408	87.0472	74.3408	87.0939	74.3408	87.055	74.3408	87.0792	74.3408	87.066
76.9043	87.6038	76.9043	87.594	76.9043	87.5982	76.9043	87.5693	76.9043	87.578	76.9043	87.5308	76.9043	87.545	76.9043	87.4808	76.9043	87.5015	76.9043	87.4222	76.9043	87.4508	76.9043	87.3589	76.9043	87.3963	76.9043	87.2946	76.9043	87.3417	76.9043	87.2335	76.9043	87.2901	76.9043	87.1788	76.9043	87.2441	76.9043	87.1329	76.9043	87.2051	76.9043	87.0972	76.9043	87.1737	76.9043	87.0719	76.9043	87.1492	76.9043	87.0563	76.9043	87.1303	76.9043	87.0491	76.9043	87.1154	76.9043	87.0485	76.9043	87.1029	76.9043	87.0528	76.9043	87.0915	76.9043	87.0605	76.9043	87.0806	76.9043	87.0701
79.834	87.5829	79.834	87.5754	79.834	87.574	79.834	87.5516	79.834	87.5493	79.834	87.5127	79.834	87.5105	79.834	87.4605	79.834	87.46	79.834	87.398	79.834	87.4011	79.834	87.3287	79.834	87.3376	79.834	87.2567	79.834	87.2734	79.834	87.1863	79.834	87.2125	79.834	87.1216	79.834	87.1582	79.834	87.0658	79.834	87.1128	79.834	87.0212	79.834	87.0773	79.834	86.9887	79.834	87.0513	79.834	86.9681	79.834	87.0332	79.834	86.9582	79.834	87.0207	79.834	86.957	79.834	87.011	79.834	86.9622	79.834	87.002	79.834	86.9712	79.834	86.9924	79.834	86.9818
82.3975	87.6616	82.3975	87.6512	82.3975	87.6558	82.3975	87.6248	82.3975	87.634	82.3975	87.5838	82.3975	87.5976	82.3975	87.5303	82.3975	87.5488	82.3975	87.4671	82.3975	87.4905	82.3975	87.3977	82.3975	87.4258	82.3975	87.326	82.3975	87.3583	82.3975	87.2558	82.3975	87.2914	82.3975	87.1909	82.3975	87.2279	82.3975	87.1338	82.3975	87.1702	82.3975	87.0863	82.3975	87.1199	82.3975	87.0488	82.3975	87.0778	82.3975	87.0208	82.3975	87.0442	82.3975	87.001	82.3975	87.0185	82.3975	86.9879	82.3975	87	82.3975	86.9801	82.3975	86.9875	82.3975	86.9764	82.3975	86.9799	82.3975	86.9764
85.3271	87.7047	85.3271	87.6972	85.3271	87.6941	85.3271	87.6722	85.3271	87.6661	85.3271	87.6314	85.3271	87.6228	85.3271	87.5777	85.3271	87.5672	85.3271	87.5149	85.3271	87.5033	85.3271	87.4471	85.3271	87.4354	85.3271	87.3787	85.3271	87.368	85.3271	87.3138	85.3271	87.3049	85.3271	87.2557	85.3271	87.249	85.3271	87.2066	85.3271	87.2021	85.3271	87.1674	85.3271	87.1646	85.3271	87.1378	85.3271	87.136	85.3271	87.1167	85.3271	87.1152	85.3271	87.1021	85.3271	87.1006	85.3271	87.0925	85.3271	87.0909	85.3271	87.0863	85.3271	87.0849	85.3271	87.0827	85.3271	87.0818	85.3271	87.0812
88.2568	87.9026	88.2568	87.8912	88.2568	87.8874	88.2568	87.854	88.2568	87.8469	88.2568	87.7932	88.2568	87.7837	88.2568	87.713	88.2568	87.7023	88.2568	87.6188	88.2568	87.6086	88.2568	87.5174	88.2568	87.5097	88.2568	87.4163	88.2568	87.4129	88.2568	87.3228	88.2568	87.3256	88.2568	87.2434	88.2568	87.2535	88.2568	87.1826	88.2568	87.2002	88.2568	87.1426	88.2568	87.1669	88.2568	87.1228	88.2568	87.1519	88.2568	87.1203	88.2568	87.1515	88.2568	87.1305	88.2568	87.1606	88.2568	87.1477	88.2568	87.1735	88.2568	87.1663	88.2568	87.1851	88.2568	87.1817	88.2568	87.1916	88.2568	87.1907
91.5527	88.0203	91.5527	88.0004	91.5527	88.013	91.5527	87.954	91.5527	87.9787	91.5527	87.8834	91.5527	87.9188	91.5527	87.7917	91.5527	87.8361	91.5527	87.6834	91.5527	87.7341	91.5527	87.5639	91.5527	87.6179	91.5527	87.439	91.5527	87.4928	91.5527	87.3148	91.5527	87.3653	91.5527	87.197	91.5527	87.2416	91.5527	87.0904	91.5527	87.1274	91.5527	86.9983	91.5527	87.0273	91.5527	86.9228	91.5527	86.9442	91.5527	86.8641	91.5527	86.879	91.5527	86.821	91.5527	86.8306	91.5527	86.7913	91.5527	86.7969	91.5527	86.7725	91.5527	86.7754	91.5527	86.7623	91.5527	86.7634	91.5527	86.7593
94.8486	87.7778	94.8486	87.7539	94.8486	87.7806	94.8486	87.7098	94.8486	87.7625	94.8486	87.6478	94.8486	87.7251	94.8486	87.571	94.8486	87.6708	94.8486	87.4839	94.8486	87.6029	94.8486	87.3914	94.8486	87.5257	94.8486	87.299	94.8486	87.4436	94.8486	87.2118	94.8486	87.3614	94.8486	87.1343	94.8486	87.2831	94.8486	87.0696	94.8486	87.2124	94.8486	87.0198	94.8486	87.1514	94.8486	86.9848	94.8486	87.1011	94.8486	86.9633	94.8486	87.0614	94.8486	86.9529	94.8486	87.0312	94.8486	86.9506	94.8486	87.0085	94.8486	86.9537	94.8486	86.9916	94.8486	86.96	94.8486	86.9786	94.8486	86.9683
98.1445	87.6295	98.1445	87.6041	98.1445	87.6322	98.1445	87.5565	98.1445	87.6133	98.1445	87.4889	98.1445	87.5755	98.1445	87.4051	98.1445	87.5226	98.1445	87.3101	98.1445	87.4599	98.1445	87.2099	98.1445	87.3931	98.1445	87.1113	98.1445	87.3278	98.1445	87.0208	98.1445	87.2691	98.1445	86.9445	98.1445	87.2206	98.1445	86.8871	98.1445	87.184	98.1445	86.8516	98.1445	87.1592	98.1445	86.8389	98.1445	87.1438	98.1445	86.8476	98.1445	87.1342	98.1445	86.8738	98.1445	87.1261	98.1445	86.9122	98.1445	87.1153	98.1445	86.9566	98.1445	87.0988	98.1445	87.0012	98.1445	87.0743	98.1445	87.0414
101.44	87.4502	101.44	87.4224	101.44	87.4549	101.44	87.3721	101.44	87.4374	101.44	87.3017	101.44	87.4003	101.44	87.2148	101.44	87.3477	101.44	87.1163	101.44	87.2846	101.44	87.0119	101.44	87.2163	101.44	86.9073	101.44	87.1481	101.44	86.8083	101.44	87.0843	101.44	86.7196	101.44	87.0276	101.44	86.6449	101.44	86.9788	101.44	86.5871	101.44	86.937	101.44	86.5477	101.44	86.8998	101.44	86.5274	101.44	86.8642	101.44	86.5254	101.44	86.8271	101.44	86.54	101.44	86.7869	101.44	86.568	101.44	86.743	101.44	86.6059	101.44	86.6967	101.44	86.65
105.103	87.3505	105.103	87.3196	105.103	87.3543	105.103	87.2617	105.103	87.3328	105.103	87.1791	105.103	87.2896	105.103	87.0759	105.103	87.23	105.103	86.9584	105.103	87.1601	105.103	86.834	105.103	87.0864	105.103	86.7111	105.103	87.0152	105.103	86.5983	105.103	86.9513	105.103	86.5032	105.103	86.898	105.103	86.4316	105.103	86.8564	105.103	86.3868	105.103	86.8251	105.103	86.3694	105.103	86.8012	105.103	86.377	105.103	86.7804	105.103	86.4051	105.103	86.7585	105.103	86.448	105.103	86.7317	105.103	86.4995	105.103	86.6978	105.103	86.5542	105.103	86.6561	105.103	86.6075
108.765	87.2543	108.765	87.2207	108.765	87.2572	108.765	87.157	108.765	87.2306	108.765	87.066	108.765	87.1779	108.765	86.9524	108.765	87.1041	108.765	86.8225	108.765	87.016	108.765	86.6843	108.765	86.9208	108.765	86.5464	108.765	86.8262	108.765	86.4179	108.765	86.7389	108.765	86.307	108.765	86.6639	108.765	86.2204	108.765	86.6042	108.765	86.1626	108.765	86.5598	108.765	86.1347	108.765	86.5283	108.765	86.135	108.765	86.5054	108.765	86.1589	108.765	86.4857	108.765	86.1998	108.765	86.464	108.765	86.2506	108.765	86.4362	108.765	86.3044	108.765	86.4002	108.765	86.3556
112.793	87.0574	112.793	87.0122	112.793	87.0733	112.793	86.9394	112.793	87.0604	112.793	86.8424	112.793	87.0214	112.793	86.7269	112.793	86.9611	112.793	86.5997	112.793	86.8858	112.793	86.4691	112.793	86.8031	112.793	86.3437	112.793	86.721	112.793	86.2318	112.793	86.6468	112.793	86.1409	112.793	86.586	112.793	86.0765	112.793	86.5418	112.793	86.042	112.793	86.5142	112.793	86.0379	112.793	86.5001	112.793	86.0618	112.793	86.4939	112.793	86.1086	112.793	86.4889	112.793	86.1711	112.793	86.4783	112.793	86.241	112.793	86.4569	112.793	86.3102	112.793	86.4217	112.793	86.372
116.455	87.0349	116.455	86.9892	116.455	87.0486	116.455	86.9134	116.455	87.0302	116.455	86.8113	116.455	86.982	116.455	86.6883	116.455	86.9082	116.455	86.5511	116.455	86.8153	116.455	86.4074	116.455	86.711	116.455	86.2653	116.455	86.6039	116.455	86.1329	116.455	86.5023	116.455	86.0178	116.455	86.4136	116.455	85.9264	116.455	86.3425	116.455	85.8636	116.455	86.2907	116.455	85.8318	116.455	86.2566	116.455	85.8308	116.455	86.2351	116.455	85.8573	116.455	86.2193	116.455	85.9049	116.455	86.2018	116.455	85.9652	116.455	86.1764	116.455	86.0294	116.455	86.1391	116.455	86.0892
120.85	86.8752	120.85	86.8203	120.85	86.8956	120.85	86.7329	120.85	86.8814	120.85	86.6174	120.85	86.8347	120.85	86.4799	120.85	86.7598	120.85	86.328	120.85	86.6629	120.85	86.1702	120.85	86.5514	120.85	86.0157	120.85	86.4336	120.85	85.8733	120.85	86.3178	120.85	85.7508	120.85	86.2115	120.85	85.6545	120.85	86.1208	120.85	85.5884	120.85	86.0489	120.85	85.5542	120.85	85.996	120.85	85.5508	120.85	85.959	120.85	85.5742	120.85	85.9319	120.85	85.6183	120.85	85.9075	120.85	85.675	120.85	85.8789	120.85	85.7357	120.85	85.8413	120.85	85.7929
124.878	86.7518	124.878	86.6922	124.878	86.7771	124.878	86.6003	124.878	86.7685	124.878	86.4803	124.878	86.7283	124.878	86.338	124.878	86.661	124.878	86.1811	124.878	86.5728	124.878	86.0181	124.878	86.4711	124.878	85.8583	124.878	86.3635	124.878	85.7108	124.878	86.2575	124.878	85.5839	124.878	86.1593	124.878	85.4843	124.878	86.0734	124.878	85.4165	124.878	86.0018	124.878	85.3824	124.878	85.944	124.878	85.381	124.878	85.8973	124.878	85.4084	124.878	85.8568	124.878	85.4579	124.878	85.817	124.878	85.5216	124.878	85.7726	124.878	85.5911	124.878	85.7203	124.878	85.659
129.272	86.6409	129.272	86.5714	129.272	86.674	129.272	86.4678	129.272	86.6705	129.272	86.3351	129.272	86.6332	129.272	86.1806	129.272	86.5669	129.272	86.0131	129.272	86.4784	129.272	85.8425	129.272	86.3757	129.272	85.6791	129.272	86.2675	129.272	85.5326	129.272	86.1619	129.272	85.4114	129.272	86.0657	129.272	85.3215	129.272	85.9836	129.272	85.2665	129.272	85.9178	129.272	85.2471	129.272	85.8671	129.272	85.261	129.272	85.8278	129.272	85.3032	129.272	85.794	129.272	85.3666	129.272	85.759	129.272	85.4426	129.272	85.7168	129.272	85.5221	129.272	85.6633	129.272	85.5975
134.033	86.4632	134.033	86.3753	134.033	86.517	134.033	86.2566	134.033	86.5361	134.033	86.1131	134.033	86.5224	134.033	85.9529	134.033	86.4804	134.033	85.7856	134.033	86.4166	134.033	85.6222	134.033	86.3388	134.033	85.4734	134.033	86.2557	134.033	85.3493	134.033	86.1753	134.033	85.2579	134.033	86.1043	134.033	85.2045	134.033	86.0471	134.033	85.1911	134.033	86.0049	134.033	85.216	134.033	85.9759	134.033	85.2742	134.033	85.9554	134.033	85.3576	134.033	85.9366	134.033	85.4567	134.033	85.9122	134.033	85.5612	134.033	85.8755	134.033	85.6616	134.033	85.8221	134.033	85.7502
138.794	86.4829	138.794	86.3634	138.794	86.5674	138.794	86.2125	138.794	86.6163	138.794	86.0368	138.794	86.6317	138.794	85.8457	138.794	86.6186	138.794	85.6512	138.794	86.5837	138.794	85.4665	138.794	86.5359	138.794	85.3059	138.794	86.4843	138.794	85.1824	138.794	86.4381	138.794	85.107	138.794	86.4044	138.794	85.0872	138.794	86.3873	138.794	85.1252	138.794	86.3871	138.794	85.218	138.794	86.3995	138.794	85.3565	138.794	86.4163	138.794	85.5273	138.794	86.4271	138.794	85.714	138.794	86.4204	138.794	85.8997	138.794	86.3862	138.794	86.0693	138.794	86.3173	138.794	86.2109
143.555	86.9083	143.555	86.7973	143.555	86.9748	143.555	86.6446	143.555	86.9972	143.555	86.4563	143.555	86.9788	143.555	86.2413	143.555	86.9257	143.555	86.0115	143.555	86.8461	143.555	85.7806	143.555	86.7496	143.555	85.5633	143.555	86.6464	143.555	85.3745	143.555	86.5462	143.555	85.2275	143.555	86.4568	143.555	85.1329	143.555	86.3835	143.555	85.097	143.555	86.3277	143.555	85.1208	143.555	86.2866	143.555	85.1989	143.555	86.2541	143.555	85.3203	143.555	86.2216	143.555	85.4695	143.555	86.1794	143.555	85.6294	143.555	86.1188	143.555	85.7841	143.555	86.0336	143.555	85.9213
148.682	86.9529	148.682	86.8227	148.682	87.0368	148.682	86.6499	148.682	87.0744	148.682	86.4425	148.682	87.0696	148.682	86.2115	148.682	87.0297	148.682	85.9706	148.682	86.9641	148.682	85.7349	148.682	86.8838	148.682	85.5197	148.682	86.8	148.682	85.3395	148.682	86.7222	148.682	85.2064	148.682	86.6575	148.682	85.1296	148.682	86.609	148.682	85.1139	148.682	86.5753	148.682	85.1594	148.682	86.5511	148.682	85.2607	148.682	86.5279	148.682	85.4066	148.682	86.4955	148.682	85.5819	148.682	86.4445	148.682	85.7695	148.682	86.367	148.682	85.9531	148.682	86.2586	148.682	86.1192
153.809	87.1488	153.809	87.0067	153.809	87.2408	153.809	86.8192	153.809	87.2822	153.809	86.5951	153.809	87.2765	153.809	86.3469	153.809	87.231	153.809	86.0899	153.809	87.1562	153.809	85.8412	153.809	87.0648	153.809	85.6183	153.809	86.97	153.809	85.4369	153.809	86.8843	153.809	85.3098	153.809	86.8174	153.809	85.2455	153.809	86.7738	153.809	85.2474	153.809	86.7524	153.809	85.3133	153.809	86.7462	153.809	85.4361	153.809	86.7435	153.809	85.6032	153.809	86.7309	153.809	85.7984	153.809	86.6955	153.809	86.0038	153.809	86.6276	153.809	86.202	153.809	86.5218	153.809	86.3782
159.302	87.45	159.302	87.2897	159.302	87.5566	159.302	87.0798	159.302	87.6096	159.302	86.8285	159.302	87.6129	159.302	86.5486	159.302	87.5738	159.302	86.2566	159.302	87.5025	159.302	85.9723	159.302	87.4113	159.302	85.7165	159.302	87.314	159.302	85.5093	159.302	87.2237	159.302	85.3671	159.302	87.1516	159.302	85.3007	159.302	87.1045	159.302	85.3144	159.302	87.0829	159.302	85.4051	159.302	87.0802	159.302	85.5627	159.302	87.0841	159.302	85.7715	159.302	87.0787	159.302	86.0109	159.302	87.0479	159.302	86.2588	159.302	86.9786	159.302	86.4942	159.302	86.8629	159.302	86.6996
164.795	87.8179	164.795	87.6361	164.795	87.9406	164.795	87.3994	164.795	88.0044	164.795	87.1162	164.795	88.0135	164.795	86.8	164.795	87.9754	164.795	86.4682	164.795	87.9009	164.795	86.142	164.795	87.8029	164.795	85.8445	164.795	87.6957	164.795	85.5987	164.795	87.5929	164.795	85.4242	164.795	87.5059	164.795	85.335	164.795	87.4419	164.795	85.3374	164.795	87.4016	164.795	85.4289	164.795	87.3795	164.795	85.5984	164.795	87.3638	164.795	85.8277	164.795	87.3387	164.795	86.0936	164.795	87.2881	164.795	86.3711	164.795	87.1978	164.795	86.6364	164.795	87.0591	164.795	86.8701
170.654	88.1266	170.654	87.9235	170.654	88.2657	170.654	87.6599	170.654	88.3413	170.654	87.3444	170.654	88.358	170.654	86.9906	170.654	88.3238	170.654	86.6173	170.654	88.2494	170.654	86.2471	170.654	88.1475	170.654	85.9059	170.654	88.0321	170.654	85.6195	170.654	87.9165	170.654	85.4109	170.654	87.812	170.654	85.2967	170.654	87.7261	170.654	85.2847	170.654	87.6604	170.654	85.3729	170.654	87.6102	170.654	85.549	170.654	87.5647	170.654	85.793	170.654	87.5096	170.654	86.079	170.654	87.4293	170.654	86.3798	170.654	87.3105	170.654	86.6699	170.654	87.1446	170.654	86.9292
176.88	88.3146	176.88	88.0947	176.88	88.4681	176.88	87.8124	176.88	88.556	176.88	87.4771	176.88	88.5833	176.88	87.1037	176.88	88.5589	176.88	86.7123	176.88	88.4943	176.88	86.3274	176.88	88.4029	176.88	85.9764	176.88	88.2988	176.88	85.6867	176.88	88.1948	176.88	85.4822	176.88	88.1015	176.88	85.3796	176.88	88.0246	176.88	85.3852	176.88	87.9644	176.88	85.4945	176.88	87.915	176.88	85.6925	176.88	87.8651	176.88	85.9568	176.88	87.8005	176.88	86.2608	176.88	87.7068	176.88	86.5775	176.88	87.572	176.88	86.8827	176.88	87.3893	176.88	87.1575
183.105	88.3969	183.105	88.1596	183.105	88.5633	183.105	87.8557	183.105	88.6592	183.105	87.4952	183.105	88.6901	183.105	87.0933	183.105	88.6653	183.105	86.6707	183.105	88.5972	183.105	86.2527	183.105	88.5006	183.105	85.8682	183.105	88.3908	183.105	85.5477	183.105	88.2824	183.105	85.3199	183.105	88.1872	183.105	85.2074	183.105	88.1126	183.105	85.222	183.105	88.0596	183.105	85.3618	183.105	88.0225	183.105	85.6096	183.105	87.9893	183.105	85.9361	183.105	87.9438	183.105	86.3048	183.105	87.8684	183.105	86.6791	183.105	87.7475	183.105	87.0277	183.105	87.5693	183.105	87.3285
189.331	88.1128	189.331	87.8262	189.331	88.3257	189.331	87.4715	189.331	88.4643	189.331	87.0601	189.331	88.5329	189.331	86.6095	189.331	88.5398	189.331	86.1425	189.331	88.4966	189.331	85.6874	189.331	88.4174	189.331	85.2755	189.331	88.3171	189.331	84.9386	189.331	88.2106	189.331	84.7051	189.331	88.1105	189.331	84.5958	189.331	88.0249	189.331	84.6202	189.331	87.9558	189.331	84.7745	189.331	87.898	189.331	85.042	189.331	87.8391	189.331	85.3948	189.331	87.7624	189.331	85.7981	189.331	87.6497	189.331	86.215	189.331	87.4853	189.331	86.6127	189.331	87.2584	189.331	86.9656
196.289	87.8236	196.289	87.4959	196.289	88.0726	196.289	87.0928	196.289	88.2441	196.289	86.623	196.289	88.3429	196.289	86.102	196.289	88.377	196.289	85.5522	196.289	88.3563	196.289	85.0033	196.289	88.2931	196.289	84.4917	196.289	88.2008	196.289	84.0582	196.289	88.0934	196.289	83.7445	196.289	87.9846	196.289	83.5868	196.289	87.8848	196.289	83.6073	196.289	87.7992	196.289	83.8063	196.289	87.7249	196.289	84.1596	196.289	87.6502	196.289	84.6235	196.289	87.5563	196.289	85.1451	196.289	87.4213	196.289	85.6737	196.289	87.2252	196.289	86.1681	196.289	86.9535	196.289	86.5998
202.881	87.3919	202.881	87.0208	202.881	87.6781	202.881	86.5688	202.881	87.8815	202.881	86.0471	202.881	88.0091	202.881	85.4742	202.881	88.0718	202.881	84.8765	202.881	88.0826	202.881	84.2877	202.881	88.0549	202.881	83.7473	202.881	88.0011	202.881	83.2979	202.881	87.9308	202.881	82.981	202.881	87.851	202.881	82.8303	202.881	87.7652	202.881	82.8649	202.881	87.6736	202.881	83.0835	202.881	87.5725	202.881	83.462	202.881	87.4538	202.881	83.958	202.881	87.305	202.881	84.519	202.881	87.1108	202.881	85.0929	202.881	86.8559	202.881	85.6366	202.881	86.5277	202.881	86.1201
210.205	86.8634	210.205	86.4468	210.205	87.1935	210.205	85.95	210.205	87.4365	210.205	85.3859	210.205	87.598	210.205	84.7736	210.205	87.6882	210.205	84.1379	210.205	87.7212	210.205	83.51	210.205	87.7129	210.205	82.9264	210.205	87.6792	210.205	82.4292	210.205	87.6334	210.205	82.0642	210.205	87.5841	210.205	81.8749	210.205	87.5337	210.205	81.8937	210.205	87.4776	210.205	82.1294	210.205	87.4047	210.205	82.5603	210.205	87.2991	210.205	83.1373	210.205	87.1423	210.205	83.7971	210.205	86.9163	210.205	84.477	210.205	86.6067	210.205	85.1257	210.205	86.2045	210.205	85.7083
217.529	86.3432	217.529	85.8921	217.529	86.7042	217.529	85.3577	217.529	86.9754	217.529	84.7536	217.529	87.1635	217.529	84.1002	217.529	87.2801	217.529	83.4244	217.529	87.3407	217.529	82.7594	217.529	87.3627	217.529	82.1443	217.529	87.3625	217.529	81.6245	217.529	87.3542	217.529	81.2505	217.529	87.3463	217.529	81.0739	217.529	87.3409	217.529	81.1363	217.529	87.3324	217.529	81.4529	217.529	87.3078	217.529	81.998	217.529	87.2475	217.529	82.7077	217.529	87.1288	217.529	83.4994	217.529	86.9286	217.529	84.2947	217.529	86.6277	217.529	85.0342	217.529	86.2131	217.529	85.6801
225.22	86.2455	225.22	85.7838	225.22	86.6059	225.22	85.2273	225.22	86.8658	225.22	84.5893	225.22	87.033	225.22	83.8895	225.22	87.1209	225.22	83.1527	225.22	87.1475	225.22	82.4084	225.22	87.1326	225.22	81.6913	225.22	87.0952	225.22	81.0446	225.22	87.0513	225.22	80.524	225.22	87.0109	225.22	80.1983	225.22	86.9772	225.22	80.138	225.22	86.9451	225.22	80.3866	225.22	86.9014	225.22	80.9314	225.22	86.8254	225.22	81.7001	225.22	86.6911	225.22	82.5882	225.22	86.4706	225.22	83.494	225.22	86.1387	225.22	84.3393	225.22	85.6764	225.22	85.0749
233.276	85.851	233.276	85.2833	233.276	86.3102	233.276	84.6201	233.276	86.6575	233.276	83.8841	233.276	86.8983	233.276	83.1049	233.276	87.0448	233.276	82.3157	233.276	87.1135	233.276	81.5481	233.276	87.123	233.276	80.8287	233.276	87.0909	233.276	80.1797	233.276	87.0323	233.276	79.6262	233.276	86.958	233.276	79.2087	233.276	86.873	233.276	78.9952	233.276	86.7752	233.276	79.0741	233.276	86.6547	233.276	79.5074	233.276	86.4931	233.276	80.2708	233.276	86.2659	233.276	81.2492	233.276	85.9452	233.276	82.2978	233.276	85.5041	233.276	83.2997	233.276	84.9211	233.276	84.1846
241.333	85.3846	241.333	84.7472	241.333	85.913	241.333	84.0153	241.333	86.3286	241.333	83.2134	241.333	86.6379	241.333	82.3735	241.333	86.8551	241.333	81.5311	241.333	86.9991	241.333	80.7211	241.333	87.0892	241.333	79.977	241.333	87.1418	241.333	79.3319	241.333	87.1664	241.333	78.8224	241.333	87.1651	241.333	78.4928	241.333	87.1335	241.333	78.3973	241.333	87.0622	241.333	78.5921	241.333	86.9381	241.333	79.1091	241.333	86.7447	241.333	79.9208	241.333	86.4624	241.333	80.9346	241.333	86.0697	241.333	82.0277	241.333	85.546	241.333	83.0917	241.333	84.8757	241.333	84.0536
250.122	85.6186	250.122	85.0426	250.122	86.0941	250.122	84.3816	250.122	86.4622	250.122	83.6576	250.122	86.7249	250.122	82.8952	250.122	86.8926	250.122	82.1173	250.122	86.9823	250.122	81.3405	250.122	87.0162	250.122	80.5743	250.122	87.0174	250.122	79.8238	250.122	87.0061	250.122	79.0994	250.122	86.9937	250.122	78.435	250.122	86.9789	250.122	77.9195	250.122	86.9462	250.122	77.7182	250.122	86.8691	250.122	78.0168	250.122	86.7151	250.122	78.8578	250.122	86.4513	250.122	80.069	250.122	86.0486	250.122	81.4026	250.122	85.4832	250.122	82.6773	250.122	84.7371	250.122	83.8003
258.911	85.3601	258.911	84.7187	258.911	85.9057	258.911	84.0078	258.911	86.3436	258.911	83.2659	258.911	86.6741	258.911	82.5369	258.911	86.9072	258.911	81.8576	258.911	87.0579	258.911	81.2473	258.911	87.1433	258.911	80.7041	258.911	87.1791	258.911	80.2122	258.911	87.1774	258.911	79.7522	258.911	87.1452	258.911	79.3111	258.911	87.0839	258.911	78.8954	258.911	86.9876	258.911	78.5604	258.911	86.8423	258.911	78.4472	258.911	86.6246	258.911	78.7565	258.911	86.3033	258.911	79.5834	258.911	85.8427	258.911	80.7846	258.911	85.2084	258.911	82.0994	258.911	84.3733	258.911	83.328
268.066	83.9792	268.066	83.2262	268.066	84.687	268.066	82.4773	268.066	85.3119	268.066	81.7819	268.066	85.8328	268.066	81.1722	268.066	86.2462	268.066	80.6495	268.066	86.5633	268.066	80.1871	268.066	86.8059	268.066	79.7515	268.066	86.999	268.066	79.331	268.066	87.1632	268.066	78.9513	268.066	87.3077	268.066	78.671	268.066	87.425	268.066	78.5577	268.066	87.4924	268.066	78.6647	268.066	87.4767	268.066	79.0311	268.066	87.3427	268.066	79.6849	268.066	87.0597	268.066	80.6174	268.066	86.6038	268.066	81.7503	268.066	85.9598	268.066	82.9551	268.066	85.1234	268.066	84.1077
277.222	84.3028	277.222	83.7271	277.222	84.8158	277.222	83.1416	277.222	85.2432	277.222	82.6096	277.222	85.5902	277.222	82.1691	277.222	85.8783	277.222	81.8049	277.222	86.1301	277.222	81.4558	277.222	86.3595	277.222	81.0463	277.222	86.5672	277.222	80.5163	277.222	86.7439	277.222	79.8414	277.222	86.8781	277.222	79.0553	277.222	86.9613	277.222	78.2815	277.222	86.9885	277.222	77.7587	277.222	86.9517	277.222	77.7807	277.222	86.8328	277.222	78.4861	277.222	86.601	277.222	79.7147	277.222	86.2177	277.222	81.1601	277.222	85.6444	277.222	82.5753	277.222	84.8514	277.222	83.8245
287.109	84.346	287.109	83.9401	287.109	84.8007	287.109	83.6353	287.109	85.2382	287.109	83.4393	287.109	85.6103	287.109	83.3123	287.109	85.9019	287.109	83.1889	287.109	86.1284	287.109	83.0012	287.109	86.3206	287.109	82.6904	287.109	86.5069	287.109	82.2097	287.109	86.6982	287.109	81.5268	287.109	86.8861	287.109	80.6353	287.109	87.0489	287.109	79.5839	287.109	87.1592	287.109	78.5433	287.109	87.1864	287.109	77.8906	287.109	87.096	287.109	78.0842	287.109	86.8508	287.109	79.172	287.109	86.4147	287.109	80.7166	287.109	85.757	287.109	82.2943	287.109	84.8549	287.109	83.697
297.363	84.9755	297.363	84.5532	297.363	85.3934	297.363	84.1653	297.363	85.7708	297.363	83.8416	297.363	86.0801	297.363	83.587	297.363	86.3052	297.363	83.3745	297.363	86.4451	297.363	83.1541	297.363	86.5181	297.363	82.8692	297.363	86.5583	297.363	82.4675	297.363	86.6034	297.363	81.9021	297.363	86.6768	297.363	81.1282	297.363	86.7737	297.363	80.1061	297.363	86.8627	297.363	78.8431	297.363	86.8964	297.363	77.5481	297.363	86.824	297.363	76.918	297.363	86.597	297.363	77.7366	297.363	86.1701	297.363	79.5875	297.363	85.4984	297.363	81.5558	297.363	84.5344	297.363	83.2296
307.617	84.781	307.617	84.27	307.617	85.3122	307.617	83.8781	307.617	85.7874	307.617	83.6732	307.617	86.1709	307.617	83.6379	307.617	86.4588	307.617	83.6745	307.617	86.6653	307.617	83.6613	307.617	86.811	307.617	83.4998	307.617	86.9168	307.617	83.1267	307.617	87.0002	307.617	82.5066	307.617	87.0705	307.617	81.6204	307.617	87.1256	307.617	80.4618	307.617	87.1487	307.617	79.0605	307.617	87.1081	307.617	77.5931	307.617	86.96	307.617	76.6538	307.617	86.6519	307.617	77.1181	307.617	86.1281	307.617	78.8535	307.617	85.3342	307.617	80.9104	307.617	84.2198	307.617	82.7458
318.604	84.6576	318.604	84.3392	318.604	85.1848	318.604	84.3482	318.604	85.7555	318.604	84.6505	318.604	86.2564	318.604	85.088	318.604	86.6464	318.604	85.4939	318.604	86.9337	318.604	85.7543	318.604	87.1471	318.604	85.8024	318.604	87.3149	318.604	85.593	318.604	87.4526	318.604	85.0835	318.604	87.5613	318.604	84.2232	318.604	87.6297	318.604	82.9439	318.604	87.6374	318.604	81.1488	318.604	87.5555	318.604	78.7251	318.604	87.3469	318.604	75.8521	318.604	86.9666	318.604	74.5735	318.604	86.3596	318.604	76.8988	318.604	85.4576	318.604	79.9568	318.604	84.1719	318.604	82.3851
329.956	84.7135	329.956	84.8332	329.956	84.8806	329.956	85.2189	329.956	85.244	329.956	85.7477	329.956	85.6805	329.956	86.2765	329.956	86.105	329.956	86.7006	329.956	86.486	329.956	86.9615	329.956	86.8281	329.956	87.0309	329.956	87.1479	329.956	86.8921	329.956	87.456	329.956	86.5251	329.956	87.7479	329.956	85.8935	329.956	88.0006	329.956	84.9341	329.956	88.1738	329.956	83.5465	329.956	88.2142	329.956	81.5837	329.956	88.0625	329.956	78.9034	329.956	87.6591	329.956	76.0176	329.956	86.9443	329.956	76.0475	329.956	85.8484	329.956	79.1402	329.956	84.2741	329.956	82.0809
341.675	85.7484	341.675	85.9135	341.675	85.7159	341.675	86.2403	341.675	85.7262	341.675	86.6825	341.675	85.6893	341.675	87.1563	341.675	85.5707	341.675	87.5832	341.675	85.4179	341.675	87.9065	341.675	85.3508	341.675	88.0881	341.675	85.4966	341.675	88.0998	341.675	85.8924	341.675	87.9156	341.675	86.4558	341.675	87.5022	341.675	87.0537	341.675	86.8032	341.675	87.5707	341.675	85.7154	341.675	87.9185	341.675	84.048	341.675	88.0165	341.675	81.431	341.675	87.7766	341.675	77.0175	341.675	87.0957	341.675	69.8868	341.675	85.8399	341.675	74.8721	341.675	83.7949	341.675	80.5156
353.394	84.7403	353.394	84.4566	353.394	85.3381	353.394	84.5725	353.394	86.0375	353.394	84.9942	353.394	86.639	353.394	85.5621	353.394	87.02	353.394	86.1619	353.394	87.1292	353.394	86.7372	353.394	86.9715	353.394	87.2548	353.394	86.609	353.394	87.6753	353.394	86.1671	353.394	87.9447	353.394	85.812	353.394	88.0025	353.394	85.6644	353.394	87.7909	353.394	85.7031	353.394	87.2556	353.394	85.7749	353.394	86.3301	353.394	85.6839	353.394	84.9063	353.394	85.2452	353.394	82.7957	353.394	84.2762	353.394	79.7349	353.394	82.5597	353.394	76.1434	353.394	79.8312	353.394	76.353
365.845	84.3122	365.845	84.3842	365.845	84.7376	365.845	84.9127	365.845	85.4527	365.845	85.6488	365.845	86.2035	365.845	86.3565	365.845	86.8296	365.845	86.9152	365.845	87.2637	365.845	87.2977	365.845	87.4937	365.845	87.5254	365.845	87.5371	365.845	87.6337	365.845	87.4308	365.845	87.6501	365.845	87.2267	365.845	87.5768	365.845	86.9777	365.845	87.3782	365.845	86.7098	365.845	86.9789	365.845	86.3958	365.845	86.2697	365.845	85.9563	365.845	85.1185	365.845	85.28	365.845	83.3879	365.845	84.2399	365.845	81.0421	365.845	82.7029	365.845	78.7404	365.845	80.6221	365.845	78.6081
379.028	84.1567	379.028	84.5692	379.028	84.3003	379.028	85.3287	379.028	84.8948	379.028	86.1397	379.028	85.6451	379.028	86.8215	379.028	86.3201	379.028	87.3185	379.028	86.8194	379.028	87.6467	379.028	87.1296	379.028	87.8474	379.028	87.2781	379.028	87.9556	379.028	87.3057	379.028	87.9838	379.028	87.2516	379.028	87.9181	379.028	87.146	379.028	87.7181	379.028	86.9997	379.028	87.3135	379.028	86.788	379.028	86.6009	379.028	86.4386	379.028	85.4493	379.028	85.8343	379.028	83.7196	379.028	84.8294	379.028	81.3724	379.028	83.273	379.028	79.0647	379.028	81.1143	379.028	78.9864
392.212	83.2881	392.212	83.9774	392.212	83.2935	392.212	84.9984	392.212	83.9213	392.212	85.9737	392.212	84.7764	392.212	86.726	392.212	85.557	392.212	87.2221	392.212	86.1457	392.212	87.4954	392.212	86.5296	392.212	87.6026	392.212	86.7367	392.212	87.5996	392.212	86.8084	392.212	87.5258	392.212	86.7857	392.212	87.3953	392.212	86.6966	392.212	87.1944	392.212	86.5393	392.212	86.88	392.212	86.2677	392.212	86.3765	392.212	85.7919	392.212	85.5774	392.212	84.9955	392.212	84.3628	392.212	83.7651	392.212	82.6573	392.212	82.0591	392.212	80.6542	392.212	80.1896	392.212	79.4069
406.128	83.6632	406.128	84.8555	406.128	82.8982	406.128	86.0411	406.128	82.897	406.128	86.9909	406.128	83.4859	406.128	87.6383	406.128	84.2437	406.128	87.9895	406.128	84.9121	406.128	88.0815	406.128	85.4217	406.128	87.9712	406.128	85.7946	406.128	87.7338	406.128	86.0836	406.128	87.4471	406.128	86.3411	406.128	87.1587	406.128	86.5932	406.128	86.8587	406.128	86.8156	406.128	86.4863	406.128	86.9304	406.128	85.963	406.128	86.8304	406.128	85.2206	406.128	86.4126	406.128	84.2248	406.128	85.6052	406.128	83.0513	406.128	84.4101	406.128	82.0803	406.128	83.02	406.128	82.0141
420.41	83.4727	420.41	84.4911	420.41	82.7725	420.41	85.5224	420.41	82.6376	420.41	86.3902	420.41	82.9995	420.41	87.0356	420.41	83.5797	420.41	87.4589	420.41	84.1573	420.41	87.6823	420.41	84.6334	420.41	87.7342	420.41	84.9802	420.41	87.6457	420.41	85.2067	420.41	87.4498	420.41	85.347	420.41	87.1734	420.41	85.4445	420.41	86.8161	420.41	85.5163	420.41	86.3264	420.41	85.5202	420.41	85.6	420.41	85.3554	420.41	84.5102	420.41	84.8964	420.41	82.9648	420.41	84.0297	420.41	81.048	420.41	82.6874	420.41	79.4296	420.41	80.9527	420.41	79.4292
435.425	82.7217	435.425	83.714	435.425	81.8645	435.425	84.5972	435.425	81.4311	435.425	85.2513	435.425	81.5115	435.425	85.6546	435.425	81.9169	435.425	85.8528	435.425	82.4153	435.425	85.9332	435.425	82.8897	435.425	85.9852	435.425	83.3013	435.425	86.0543	435.425	83.623	435.425	86.1215	435.425	83.8367	435.425	86.1194	435.425	83.9621	435.425	85.9647	435.425	84.0453	435.425	85.5763	435.425	84.0906	435.425	84.8738	435.425	84.0102	435.425	83.7658	435.425	83.6523	435.425	82.1533	435.425	82.8609	435.425	80.0343	435.425	81.5136	435.425	78.0191	435.425	79.625	435.425	77.8649
450.806	83.4578	450.806	83.7156	450.806	83.502	450.806	84.2201	450.806	83.726	450.806	84.7795	450.806	83.9583	450.806	85.211	450.806	84.1	450.806	85.4168	450.806	84.1548	450.806	85.3831	450.806	84.2031	450.806	85.1619	450.806	84.3387	450.806	84.8618	450.806	84.5913	450.806	84.6347	450.806	84.9098	450.806	84.6158	450.806	85.2195	450.806	84.8174	450.806	85.4706	450.806	85.0855	450.806	85.6238	450.806	85.182	450.806	85.6059	450.806	84.881	450.806	85.2895	450.806	84.0117	450.806	84.5158	450.806	82.5134	450.806	83.1601	450.806	80.7347	450.806	81.3438	450.806	80.0556
466.553	83.4769	466.553	84.5725	466.553	83.3679	466.553	85.9469	466.553	84.2304	466.553	87.1208	466.553	85.3127	466.553	87.9542	466.553	86.1116	466.553	88.4482	466.553	86.5294	466.553	88.6496	466.553	86.687	466.553	88.6222	466.553	86.7932	466.553	88.4378	466.553	87.0114	466.553	88.1692	466.553	87.3527	466.553	87.8843	466.553	87.7073	466.553	87.6329	466.553	87.9577	466.553	87.4105	466.553	88.0274	466.553	87.1225	466.553	87.8494	466.553	86.6025	466.553	87.3274	466.553	85.6881	466.553	86.3482	466.553	84.3269	466.553	84.8662	466.553	82.8095	466.553	83.1406	466.553	82.1481
483.032	83.6577	483.032	85.2109	483.032	82.5401	483.032	86.6327	483.032	82.4822	483.032	87.7166	483.032	83.2517	483.032	88.4214	483.032	84.1294	483.032	88.7524	483.032	84.7258	483.032	88.7425	483.032	84.979	483.032	88.4684	483.032	84.9943	483.032	88.0571	483.032	84.9673	483.032	87.6569	483.032	85.09	483.032	87.3695	483.032	85.413	483.032	87.1857	483.032	85.8147	483.032	86.9904	483.032	86.1178	483.032	86.621	483.032	86.181	483.032	85.9081	483.032	85.8922	483.032	84.6863	483.032	85.1292	483.032	82.8589	483.032	83.7608	483.032	80.7999	483.032	81.8165	483.032	80.2038
499.878	83.9555	499.878	85.204	499.878	82.8635	499.878	86.3235	499.878	82.2791	499.878	87.1679	499.878	82.3139	499.878	87.7004	499.878	82.6924	499.878	87.9534	499.878	83.0833	499.878	87.9785	499.878	83.3647	499.878	87.8064	499.878	83.5899	499.878	87.4452	499.878	83.8432	499.878	86.9226	499.878	84.1437	499.878	86.3349	499.878	84.4639	499.878	85.8334	499.878	84.7719	499.878	85.5061	499.878	85.0054	499.878	85.2632	499.878	85.0349	499.878	84.8804	499.878	84.6993	499.878	84.13	499.878	83.8799	499.878	82.904	499.878	82.5873	499.878	81.422	499.878	81.164	499.878	80.5602
517.456	82.6994	517.456	84.2281	517.456	81.7021	517.456	85.6417	517.456	81.6218	517.456	86.6466	517.456	82.0477	517.456	87.2145	517.456	82.4931	517.456	87.4099	517.456	82.7765	517.456	87.3141	517.456	82.8437	517.456	87.0109	517.456	82.7061	517.456	86.5915	517.456	82.5323	517.456	86.1483	517.456	82.633	517.456	85.75	517.456	83.1422	517.456	85.4147	517.456	83.825	517.456	85.1018	517.456	84.3618	517.456	84.7113	517.456	84.5683	517.456	84.0932	517.456	84.3523	517.456	83.0909	517.456	83.6277	517.456	81.6489	517.456	82.3333	517.456	80.0949	517.456	80.6599	517.456	79.5396
535.767	83.0392	535.767	84.7022	535.767	81.6788	535.767	86.112	535.767	81.2529	535.767	87.0769	535.767	81.5415	535.767	87.5859	535.767	81.8386	535.767	87.6971	535.767	81.842	535.767	87.5047	535.767	81.6709	535.767	87.1187	535.767	81.5849	535.767	86.6259	535.767	81.6971	535.767	86.0539	535.767	81.95	535.767	85.4065	535.767	82.3336	535.767	84.7605	535.767	82.9044	535.767	84.2618	535.767	83.5697	535.767	83.9109	535.767	84.0469	535.767	83.4484	535.767	84.0563	535.767	82.5608	535.767	83.4339	535.767	81.1414	535.767	82.147	535.767	79.6	535.767	80.4238	535.767	79.1721
554.81	83.3641	554.81	84.8091	554.81	82.012	554.81	86.0207	554.81	81.3609	554.81	86.8958	554.81	81.6227	554.81	87.3929	554.81	82.2071	554.81	87.4984	554.81	82.5301	554.81	87.2528	554.81	82.3847	554.81	86.7766	554.81	81.8196	554.81	86.2438	554.81	81.0766	554.81	85.7771	554.81	80.6099	554.81	85.3629	554.81	80.8921	554.81	84.9169	554.81	81.8499	554.81	84.4028	554.81	82.905	554.81	83.8302	554.81	83.586	554.81	83.1309	554.81	83.6879	554.81	82.1114	554.81	83.1503	554.81	80.6416	554.81	81.976	554.81	79.1344	554.81	80.3157	554.81	78.9199
574.219	83.7162	574.219	85.0342	574.219	82.4407	574.219	86.1607	574.219	81.6464	574.219	87.0201	574.219	81.5982	574.219	87.5962	574.219	81.9264	574.219	87.8709	574.219	82.0676	574.219	87.8143	574.219	81.7612	574.219	87.4315	574.219	81.0839	574.219	86.8091	574.219	80.4246	574.219	86.1052	574.219	80.2718	574.219	85.4756	574.219	80.6579	574.219	84.9988	574.219	81.2345	574.219	84.6586	574.219	81.811	574.219	84.3419	574.219	82.3314	574.219	83.8587	574.219	82.6451	574.219	83.0099	574.219	82.5166	574.219	81.6894	574.219	81.767	574.219	80.1728	574.219	80.4964	574.219	79.5692
594.727	83.8424	594.727	85.2929	594.727	82.6233	594.727	86.525	594.727	82.0135	594.727	87.3546	594.727	81.887	594.727	87.8	594.727	81.877	594.727	87.9272	594.727	81.7838	594.727	87.7756	594.727	81.5749	594.727	87.3831	594.727	81.2237	594.727	86.8347	594.727	80.6697	594.727	86.2485	594.727	80.0076	594.727	85.7013	594.727	79.6963	594.727	85.175	594.727	80.2636	594.727	84.5774	594.727	81.5137	594.727	83.8122	594.727	82.717	594.727	82.8265	594.727	83.3281	594.727	81.5856	594.727	83.077	594.727	80.0472	594.727	81.8562	594.727	78.4588	594.727	79.8407	594.727	78.1391
615.601	84.7597	615.601	85.9724	615.601	83.8596	615.601	87.0563	615.601	83.5501	615.601	87.8099	615.601	83.5917	615.601	88.229	615.601	83.6133	615.601	88.3523	615.601	83.3798	615.601	88.1796	615.601	82.7241	615.601	87.7006	615.601	81.5954	615.601	86.9924	615.601	80.2514	615.601	86.2517	615.601	79.3527	615.601	85.6554	615.601	79.4653	615.601	85.2072	615.601	80.3297	615.601	84.8074	615.601	81.3153	615.601	84.3592	615.601	82.0514	615.601	83.736	615.601	82.4139	615.601	82.7641	615.601	82.3371	615.601	81.354	615.601	81.7427	615.601	79.9235	615.601	80.6681	615.601	79.6638
637.207	84.0212	637.207	85.5066	637.207	82.8728	637.207	86.8662	637.207	82.4906	637.207	87.8174	637.207	82.656	637.207	88.24	637.207	82.7747	637.207	88.1941	637.207	82.5785	637.207	87.8613	637.207	82.077	637.207	87.395	637.207	81.2581	637.207	86.8464	637.207	80.0714	637.207	86.2458	637.207	78.7926	637.207	85.6804	637.207	78.2926	637.207	85.2413	637.207	79.0723	637.207	84.9269	637.207	80.5201	637.207	84.6398	637.207	81.9013	637.207	84.2104	637.207	82.7383	637.207	83.3881	637.207	82.7426	637.207	81.9036	637.207	81.7874	637.207	79.8571	637.207	80.0432	637.207	78.7753
659.912	83.3034	659.912	85.1569	659.912	81.7467	659.912	86.6228	659.912	81.3436	659.912	87.6215	659.912	81.7693	659.912	88.2468	659.912	82.2228	659.912	88.5025	659.912	82.34	659.912	88.3314	659.912	82.0079	659.912	87.7586	659.912	81.1979	659.912	86.9771	659.912	79.9416	659.912	86.2478	659.912	78.3492	659.912	85.6437	659.912	77.0923	659.912	85.0731	659.912	77.7485	659.912	84.5567	659.912	79.8572	659.912	84.1681	659.912	81.622	659.912	83.7734	659.912	82.4723	659.912	83.1212	659.912	82.4604	659.912	82.0412	659.912	81.7879	659.912	80.7163	659.912	80.7576	659.912	80.1006
682.983	85.0542	682.983	86.2261	682.983	83.9607	682.983	87.2462	682.983	83.1752	682.983	87.9618	682.983	82.8229	682.983	88.3539	682.983	82.7171	682.983	88.475	682.983	82.4295	682.983	88.3187	682.983	81.6395	682.983	87.8394	682.983	80.199	682.983	87.1071	682.983	78.0556	682.983	86.3298	682.983	75.4942	682.983	85.6418	682.983	74.0084	682.983	85.0093	682.983	75.4132	682.983	84.448	682.983	78.1511	682.983	83.9598	682.983	80.4842	682.983	83.3224	682.983	81.9883	682.983	82.4467	682.983	82.7123	682.983	81.6927	682.983	82.85	682.983	81.5526	682.983	82.5788	682.983	82.0241
707.153	84.6594	707.153	85.9354	707.153	83.6979	707.153	87.0615	707.153	83.3653	707.153	87.751	707.153	83.5	707.153	87.979	707.153	83.645	707.153	87.8876	707.153	83.4517	707.153	87.6399	707.153	82.7334	707.153	87.2977	707.153	81.4508	707.153	86.8201	707.153	79.7887	707.153	86.197	707.153	77.9715	707.153	85.5827	707.153	75.9562	707.153	85.2071	707.153	74.2799	707.153	84.9596	707.153	75.4517	707.153	84.4015	707.153	78.7252	707.153	83.3551	707.153	81.407	707.153	82.0687	707.153	82.7283	707.153	80.7038	707.153	82.5317	707.153	79.3845	707.153	81.0173	707.153	79.3297
732.056	83.7569	732.056	85.5919	732.056	82.1521	732.056	86.9436	732.056	81.7458	732.056	87.7086	732.056	82.1006	732.056	87.9387	732.056	82.3711	732.056	87.7229	732.056	82.3342	732.056	87.2163	732.056	81.9788	732.056	86.5908	732.056	81.2734	732.056	85.9079	732.056	80.1292	732.056	85.1707	732.056	78.3367	732.056	84.5684	732.056	75.885	732.056	84.3409	732.056	74.7625	732.056	84.2851	732.056	76.8536	732.056	83.987	732.056	79.1396	732.056	83.3343	732.056	80.5607	732.056	82.3129	732.056	81.4031	732.056	80.8295	732.056	81.8018	732.056	79.7067	732.056	81.5005	732.056	80.3863
757.69	84.0479	757.69	85.5075	757.69	82.5324	757.69	86.6555	757.69	81.5368	757.69	87.3466	757.69	81.6639	757.69	87.5636	757.69	82.3734	757.69	87.3723	757.69	82.7646	757.69	86.8252	757.69	82.473	757.69	86.0249	757.69	81.4235	757.69	85.292	757.69	79.6919	757.69	84.8504	757.69	77.4279	757.69	84.454	757.69	74.2471	757.69	83.9644	757.69	69.3237	757.69	83.6033	757.69	70.4007	757.69	83.2722	757.69	75.7145	757.69	82.5865	757.69	78.8919	757.69	81.4712	757.69	80.5716	757.69	80.1549	757.69	81.1157	757.69	79.3015	757.69	80.7264	757.69	79.762
784.424	84.65	784.424	85.9229	784.424	83.6446	784.424	87.1725	784.424	82.8633	784.424	87.9604	784.424	82.3823	784.424	88.1295	784.424	82.0973	784.424	87.7583	784.424	81.4653	784.424	86.9619	784.424	80.4351	784.424	85.9052	784.424	79.4521	784.424	84.8081	784.424	78.4342	784.424	83.7865	784.424	77.1177	784.424	82.8871	784.424	75.5606	784.424	82.2972	784.424	73.3803	784.424	82.2568	784.424	71.2604	784.424	82.4918	784.424	74.2068	784.424	82.0889	784.424	77.6807	784.424	80.0721	784.424	79.2071	784.424	76.207	784.424	79.5881	784.424	74.6345	784.424	79.1422	784.424	77.3388
812.256	83.711	812.256	85.0998	812.256	82.8871	812.256	86.5167	812.256	82.2986	812.256	87.5514	812.256	81.5035	812.256	88.0249	812.256	80.9617	812.256	87.8187	812.256	80.978	812.256	87.0742	812.256	80.884	812.256	86.1046	812.256	80.0896	812.256	84.7713	812.256	78.4986	812.256	82.9293	812.256	76.3334	812.256	81.4324	812.256	74.3704	812.256	81.1565	812.256	72.8735	812.256	81.4826	812.256	72.7647	812.256	81.5279	812.256	75.1091	812.256	81.1502	812.256	77.5146	812.256	80.4342	812.256	79.4349	812.256	78.3756	812.256	80.1839	812.256	74.2309	812.256	78.8108	812.256	74.8635
840.82	82.4239	840.82	84.6992	840.82	81.0213	840.82	86.5021	840.82	81.265	840.82	87.5939	840.82	81.7532	840.82	88.0644	840.82	81.7156	840.82	87.8585	840.82	81.1745	840.82	87.0649	840.82	80.1563	840.82	86.3148	840.82	78.645	840.82	85.8607	840.82	76.8774	840.82	85.1574	840.82	75.166	840.82	84.0981	840.82	72.9911	840.82	83.1286	840.82	67.8459	840.82	82.6234	840.82	62.9675	840.82	82.5315	840.82	71.8679	840.82	82.6167	840.82	74.9917	840.82	82.3246	840.82	75.6629	840.82	81.1186	840.82	75.4533	840.82	78.5226	840.82	74.7723	840.82	75.2091
870.483	86.6151	870.483	88.085	870.483	85.103	870.483	89.3102	870.483	83.5648	870.483	89.8983	870.483	82.5999	870.483	89.8128	870.483	82.3327	870.483	89.3207	870.483	81.6867	870.483	88.3937	870.483	80.428	870.483	86.7352	870.483	79.1223	870.483	84.8237	870.483	77.5537	870.483	83.6514	870.483	75.6634	870.483	82.8013	870.483	74.062	870.483	82.1363	870.483	73.0681	870.483	82.1794	870.483	71.9571	870.483	82.4451	870.483	73.1475	870.483	82.106	870.483	78.1962	870.483	80.8092	870.483	81.7602	870.483	79.7952	870.483	83.5144	870.483	80.8616	870.483	83.7148	870.483	82.632
901.245	86.2733	901.245	87.9688	901.245	85.6954	901.245	89.3993	901.245	85.7969	901.245	90.1155	901.245	85.2732	901.245	90.224	901.245	84.4155	901.245	89.7102	901.245	83.9656	901.245	88.7164	901.245	83.2823	901.245	87.564	901.245	82.2085	901.245	86.169	901.245	80.9474	901.245	84.713	901.245	79.276	901.245	83.5925	901.245	77.5558	901.245	82.9002	901.245	74.6639	901.245	82.6845	901.245	69.5488	901.245	82.1691	901.245	72.0568	901.245	81.3615	901.245	76.5452	901.245	80.4136	901.245	79.3666	901.245	78.1923	901.245	80.7664	901.245	75.222	901.245	80.5294	901.245	78.0597
933.105	85.8608	933.105	87.518	933.105	84.6337	933.105	88.8848	933.105	84.3078	933.105	89.5903	933.105	84.0275	933.105	89.6457	933.105	82.708	933.105	89.0507	933.105	80.3075	933.105	87.7726	933.105	78.0389	933.105	86.3901	933.105	76.2153	933.105	85.2247	933.105	73.8623	933.105	83.6847	933.105	71.9586	933.105	82.2736	933.105	72.1513	933.105	81.6541	933.105	72.9271	933.105	82.0049	933.105	70.6782	933.105	82.8681	933.105	72.4908	933.105	82.882	933.105	79.3442	933.105	81.8517	933.105	82.1618	933.105	79.2094	933.105	83.6555	933.105	75.4706	933.105	83.1042	933.105	79.2003
966.064	84.5963	966.064	86.9609	966.064	83.5462	966.064	88.6722	966.064	83.8478	966.064	89.3434	966.064	84.1269	966.064	89.3336	966.064	83.9977	966.064	89.0322	966.064	83.1083	966.064	88.3555	966.064	81.18	966.064	87.0685	966.064	79.139	966.064	85.4814	966.064	78.4015	966.064	83.9767	966.064	78.1154	966.064	82.5455	966.064	77.6169	966.064	81.6172	966.064	75.9545	966.064	81.8665	966.064	71.5147	966.064	82.3807	966.064	71.3029	966.064	82.5533	966.064	76.8052	966.064	82.3913	966.064	80.5448	966.064	80.9502	966.064	81.6947	966.064	76.7732	966.064	80.4651	966.064	76.0232
1,000.12	84.1562	1,000.12	86.4403	1,000.12	82.5941	1,000.12	87.86	1,000.12	83.5328	1,000.12	88.3361	1,000.12	84.1577	1,000.12	88.0808	1,000.12	83.002	1,000.12	87.3329	1,000.12	81.595	1,000.12	86.4596	1,000.12	81.0396	1,000.12	85.9129	1,000.12	80.3869	1,000.12	85.2733	1,000.12	79.3969	1,000.12	84.0385	1,000.12	77.8549	1,000.12	81.9368	1,000.12	75.8984	1,000.12	80.2144	1,000.12	75.8863	1,000.12	80.6217	1,000.12	74.7169	1,000.12	81.6183	1,000.12	68.8228	1,000.12	82.4295	1,000.12	74.6994	1,000.12	82.4419	1,000.12	78.0249	1,000.12	81.791	1,000.12	78.2407	1,000.12	78.2778	1,000.12	77.315	1,000.12	75.0368
1,035.28	84.5001	1,035.28	87.0577	1,035.28	82.6114	1,035.28	88.5441	1,035.28	83.1262	1,035.28	89.0028	1,035.28	83.9225	1,035.28	88.8972	1,035.28	83.6698	1,035.28	88.3583	1,035.28	82.3518	1,035.28	86.8127	1,035.28	80.7084	1,035.28	84.9293	1,035.28	79.4926	1,035.28	83.8651	1,035.28	79.6374	1,035.28	82.5742	1,035.28	80.1458	1,035.28	81.557	1,035.28	79.3039	1,035.28	80.7458	1,035.28	77.2799	1,035.28	80.471	1,035.28	73.4197	1,035.28	80.2609	1,035.28	65.1192	1,035.28	80.8232	1,035.28	74.0233	1,035.28	81.3593	1,035.28	78.8114	1,035.28	80.4123	1,035.28	81.091	1,035.28	78.237	1,035.28	80.3437	1,035.28	77.1146
1,071.9	84.5315	1,071.9	86.6321	1,071.9	83.1585	1,071.9	87.7855	1,071.9	83.6144	1,071.9	87.5707	1,071.9	84.0524	1,071.9	86.5143	1,071.9	82.4851	1,071.9	85.308	1,071.9	80.2781	1,071.9	83.3594	1,071.9	80.1899	1,071.9	80.8966	1,071.9	80.5575	1,071.9	79.8105	1,071.9	80.9395	1,071.9	78.8995	1,071.9	80.4613	1,071.9	75.2107	1,071.9	79.1463	1,071.9	71.8727	1,071.9	80.1169	1,071.9	76.8413	1,071.9	79.3164	1,071.9	78.5899	1,071.9	74.755	1,071.9	79.8403	1,071.9	72.9668	1,071.9	80.0256	1,071.9	76.5616	1,071.9	79.5468	1,071.9	79.2522	1,071.9	76.6416	1,071.9	79.2143	1,071.9	75.8688
1,109.62	85.2923	1,109.62	87.8098	1,109.62	82.3606	1,109.62	89.0026	1,109.62	82.4523	1,109.62	89.1477	1,109.62	83.6398	1,109.62	88.1542	1,109.62	83.1792	1,109.62	86.3398	1,109.62	81.107	1,109.62	84.0517	1,109.62	79.7128	1,109.62	81.6639	1,109.62	78.9728	1,109.62	79.5177	1,109.62	79.4995	1,109.62	77.4297	1,109.62	80.1259	1,109.62	76.1797	1,109.62	78.725	1,109.62	70.9359	1,109.62	79.1306	1,109.62	73.6709	1,109.62	78.4122	1,109.62	77.3921	1,109.62	75.6964	1,109.62	78.8754	1,109.62	75.7878	1,109.62	79.2325	1,109.62	78.5057	1,109.62	79.2136	1,109.62	78.4972	1,109.62	78.0396	1,109.62	77.2858	1,109.62	71.9417
1,148.8	86.8736	1,148.8	88.7593	1,148.8	84.7272	1,148.8	89.9255	1,148.8	83.6648	1,148.8	90.2418	1,148.8	84.1672	1,148.8	89.3138	1,148.8	83.6832	1,148.8	87.6217	1,148.8	82.1227	1,148.8	85.9174	1,148.8	80.7866	1,148.8	83.0051	1,148.8	79.3415	1,148.8	79.7174	1,148.8	78.7732	1,148.8	75.7785	1,148.8	79.4269	1,148.8	75.1075	1,148.8	77.3968	1,148.8	73.4752	1,148.8	79.0404	1,148.8	69.5535	1,148.8	79.0492	1,148.8	75.7809	1,148.8	76.9511	1,148.8	79.143	1,148.8	75.7538	1,148.8	80.1671	1,148.8	77.3639	1,148.8	79.4298	1,148.8	78.8714	1,148.8	78.6128	1,148.8	78.8204	1,148.8	76.4344
1,189.09	86.6529	1,189.09	89.0551	1,189.09	84.9428	1,189.09	90.2614	1,189.09	85.1279	1,189.09	90.8281	1,189.09	85.2358	1,189.09	90.7569	1,189.09	84.8783	1,189.09	89.3996	1,189.09	83.3748	1,189.09	87.1937	1,189.09	80.6341	1,189.09	84.8716	1,189.09	76.5707	1,189.09	82.7995	1,189.09	74.7295	1,189.09	78.7887	1,189.09	75.843	1,189.09	75.0291	1,189.09	71.821	1,189.09	75.618	1,189.09	73.7791	1,189.09	70.7426	1,189.09	74.5271	1,189.09	68.0458	1,189.09	75.7798	1,189.09	71.6299	1,189.09	75.6819	1,189.09	74.4617	1,189.09	77.9783	1,189.09	75.9437	1,189.09	78.9653	1,189.09	77.0918	1,189.09	77.9452	1,189.09	75.6428
1,231.2	85.5077	1,231.2	88.5572	1,231.2	83.511	1,231.2	90.2419	1,231.2	83.6764	1,231.2	90.7228	1,231.2	83.6957	1,231.2	90.4596	1,231.2	83.1914	1,231.2	89.1672	1,231.2	82.1807	1,231.2	87.0452	1,231.2	79.8604	1,231.2	84.7732	1,231.2	77.8735	1,231.2	82.246	1,231.2	77.6208	1,231.2	79.1266	1,231.2	77.359	1,231.2	77.1329	1,231.2	75.0181	1,231.2	76.0797	1,231.2	68.0623	1,231.2	70.3445	1,231.2	64.4391	1,231.2	66.4575	1,231.2	68.8497	1,231.2	72.03	1,231.2	74.5041	1,231.2	76.8092	1,231.2	78.1444	1,231.2	76.0154	1,231.2	80.6114	1,231.2	77.2808	1,231.2	79.5469	1,231.2	76.8879
1,274.41	85.398	1,274.41	88.6322	1,274.41	83.268	1,274.41	90.5986	1,274.41	84.5624	1,274.41	91.1814	1,274.41	84.348	1,274.41	90.393	1,274.41	83.5195	1,274.41	88.5933	1,274.41	82.0553	1,274.41	86.3995	1,274.41	79.0389	1,274.41	83.5891	1,274.41	77.4091	1,274.41	80.9638	1,274.41	77.2961	1,274.41	77.6551	1,274.41	77.2826	1,274.41	73.1315	1,274.41	75.2613	1,274.41	72.2997	1,274.41	73.0509	1,274.41	70.3641	1,274.41	72.1164	1,274.41	65.0931	1,274.41	64.7796	1,274.41	69.1794	1,274.41	67.0394	1,274.41	74.792	1,274.41	72.4683	1,274.41	74.8045	1,274.41	77.6056	1,274.41	74.8818	1,274.41	79.4624	1,274.41	76.6864
1,319.46	83.4802	1,319.46	87.8178	1,319.46	80.4528	1,319.46	89.9073	1,319.46	82.2769	1,319.46	90.194	1,319.46	83.27	1,319.46	89.6854	1,319.46	83.6351	1,319.46	87.9276	1,319.46	82.8305	1,319.46	85.4771	1,319.46	80.9085	1,319.46	82.7065	1,319.46	80.2057	1,319.46	79.3703	1,319.46	78.4633	1,319.46	76.3317	1,319.46	76.4987	1,319.46	74.6599	1,319.46	76.2115	1,319.46	74.176	1,319.46	75.5846	1,319.46	72.9761	1,319.46	75.5849	1,319.46	69.5038	1,319.46	70.0257	1,319.46	55.8887	1,319.46	69.626	1,319.46	63.853	1,319.46	65.2253	1,319.46	62.6423	1,319.46	73.3663	1,319.46	59.0447	1,319.46	75.2263	1,319.46	70.4939
1,365.97	84.8238	1,365.97	87.9026	1,365.97	82.3954	1,365.97	89.8177	1,365.97	83.3821	1,365.97	89.7672	1,365.97	84.7146	1,365.97	88.8056	1,365.97	84.8873	1,365.97	86.7249	1,365.97	84.1278	1,365.97	83.2921	1,365.97	82.9047	1,365.97	81.8269	1,365.97	83.359	1,365.97	80.8489	1,365.97	82.8058	1,365.97	79.7579	1,365.97	81.3913	1,365.97	78.045	1,365.97	80.9046	1,365.97	73.3585	1,365.97	79.6237	1,365.97	67.9399	1,365.97	76.463	1,365.97	70.4688	1,365.97	72.9753	1,365.97	62.2192	1,365.97	66.1931	1,365.97	64.7666	1,365.97	68.2575	1,365.97	69.551	1,365.97	75.2743	1,365.97	59.367	1,365.97	75.8352	1,365.97	71.7129
1,414.31	85.837	1,414.31	88.1767	1,414.31	84.3756	1,414.31	89.6366	1,414.31	85.5294	1,414.31	89.5571	1,414.31	86.6201	1,414.31	87.9003	1,414.31	86.6837	1,414.31	85.0063	1,414.31	85.9843	1,414.31	80.9844	1,414.31	85.2991	1,414.31	76.1141	1,414.31	84.8633	1,414.31	70.5409	1,414.31	84.2396	1,414.31	73.3602	1,414.31	83.3813	1,414.31	74.0538	1,414.31	83.7495	1,414.31	74.5472	1,414.31	82.1883	1,414.31	72.4701	1,414.31	81.4627	1,414.31	61.0798	1,414.31	80.7736	1,414.31	64.2254	1,414.31	78.9261	1,414.31	71.3864	1,414.31	73.4255	1,414.31	70.9629	1,414.31	73.8741	1,414.31	67.4707	1,414.31	77.4144	1,414.31	71.2495
1,464.11	86.2078	1,464.11	88.4366	1,464.11	84.1061	1,464.11	89.8073	1,464.11	84.9374	1,464.11	89.1992	1,464.11	86.6091	1,464.11	87.7873	1,464.11	87.1672	1,464.11	85.8123	1,464.11	87.3385	1,464.11	84.016	1,464.11	87.0592	1,464.11	79.7943	1,464.11	85.6212	1,464.11	72.0781	1,464.11	84.3852	1,464.11	69.3616	1,464.11	84.1762	1,464.11	68.1867	1,464.11	83.5543	1,464.11	73.6598	1,464.11	81.9865	1,464.11	77.5389	1,464.11	81.9649	1,464.11	75.7587	1,464.11	81.9417	1,464.11	69.2756	1,464.11	80.8311	1,464.11	71.2665	1,464.11	77.6224	1,464.11	74.6108	1,464.11	74.9125	1,464.11	65.596	1,464.11	76.6376	1,464.11	74.3192
1,515.75	85.5026	1,515.75	88.5669	1,515.75	82.9533	1,515.75	90.5511	1,515.75	85.0481	1,515.75	90.0855	1,515.75	87.6801	1,515.75	89.1278	1,515.75	88.5022	1,515.75	86.8209	1,515.75	88.294	1,515.75	84.8918	1,515.75	86.8599	1,515.75	83.6126	1,515.75	85.7603	1,515.75	80.9743	1,515.75	83.5814	1,515.75	78.127	1,515.75	82.3609	1,515.75	78.3987	1,515.75	83.4865	1,515.75	80.221	1,515.75	81.9925	1,515.75	80.7012	1,515.75	80.2241	1,515.75	78.4972	1,515.75	80.4401	1,515.75	73.1423	1,515.75	79.5132	1,515.75	63.9446	1,515.75	77.1394	1,515.75	65.8994	1,515.75	73.0744	1,515.75	62.801	1,515.75	74.5175	1,515.75	70.3048
1,569.21	86.7122	1,569.21	88.0501	1,569.21	84.9566	1,569.21	89.0382	1,569.21	86.6535	1,569.21	89.4202	1,569.21	88.3805	1,569.21	87.8989	1,569.21	88.666	1,569.21	86.6512	1,569.21	88.3528	1,569.21	85.4958	1,569.21	87.0807	1,569.21	83.6919	1,569.21	84.9172	1,569.21	81.2538	1,569.21	81.7831	1,569.21	81.4107	1,569.21	80.3432	1,569.21	81.2531	1,569.21	80.6893	1,569.21	81.4559	1,569.21	80.1892	1,569.21	79.1248	1,569.21	78.9481	1,569.21	78.0942	1,569.21	81.5036	1,569.21	77.9669	1,569.21	81.5594	1,569.21	75.0476	1,569.21	78.2271	1,569.21	76.0298	1,569.21	70.2583	1,569.21	71.1967	1,569.21	65.963	1,569.21	66.1516
1,624.51	86.0938	1,624.51	87.7927	1,624.51	85.0343	1,624.51	88.11	1,624.51	85.4351	1,624.51	88.6039	1,624.51	86.9741	1,624.51	87.651	1,624.51	88.0617	1,624.51	86.6616	1,624.51	88.0501	1,624.51	85.505	1,624.51	86.3598	1,624.51	83.2879	1,624.51	84.543	1,624.51	80.4231	1,624.51	83.1367	1,624.51	78.4312	1,624.51	81.407	1,624.51	77.7643	1,624.51	80.8843	1,624.51	76.7726	1,624.51	78.7703	1,624.51	74.977	1,624.51	79.2362	1,624.51	73.2872	1,624.51	79.3031	1,624.51	64.6548	1,624.51	79.4756	1,624.51	59.4327	1,624.51	76.9719	1,624.51	70.2874	1,624.51	72.961	1,624.51	68.249	1,624.51	66.5139	1,624.51	55.3877
1,681.64	86.6939	1,681.64	87.6161	1,681.64	86.2152	1,681.64	87.8712	1,681.64	86.5509	1,681.64	87.4195	1,681.64	87.378	1,681.64	86.4955	1,681.64	88.3753	1,681.64	86.0136	1,681.64	88.2651	1,681.64	85.0406	1,681.64	86.5296	1,681.64	83.4736	1,681.64	84.3016	1,681.64	80.6403	1,681.64	83.1852	1,681.64	77.7173	1,681.64	80.5249	1,681.64	74.4753	1,681.64	77.6959	1,681.64	76.4936	1,681.64	77.3636	1,681.64	80.417	1,681.64	77.9633	1,681.64	77.484	1,681.64	80.2027	1,681.64	72.4563	1,681.64	79.9071	1,681.64	63.2862	1,681.64	78.1528	1,681.64	63.1096	1,681.64	73.0945	1,681.64	67.269	1,681.64	57.4974	1,681.64	61.2098
1,740.97	87.3246	1,740.97	87.3482	1,740.97	86.6263	1,740.97	88.3637	1,740.97	88.3976	1,740.97	87.488	1,740.97	88.7735	1,740.97	87.4971	1,740.97	88.6102	1,740.97	86.6218	1,740.97	87.7876	1,740.97	85.932	1,740.97	85.5193	1,740.97	83.2443	1,740.97	83.9707	1,740.97	82.2376	1,740.97	81.7322	1,740.97	80.7585	1,740.97	80.39	1,740.97	78.9402	1,740.97	78.7855	1,740.97	75.3981	1,740.97	79.7515	1,740.97	77.448	1,740.97	79.013	1,740.97	78.161	1,740.97	79.2913	1,740.97	76.6836	1,740.97	80.1072	1,740.97	70.6349	1,740.97	79.8576	1,740.97	63.7555	1,740.97	74.3564	1,740.97	57.8953	1,740.97	52.8217	1,740.97	55.5388
1,802.49	85.8592	1,802.49	86.3762	1,802.49	85.7923	1,802.49	86.8983	1,802.49	86.7991	1,802.49	87.3724	1,802.49	87.835	1,802.49	87.536	1,802.49	87.8376	1,802.49	86.9161	1,802.49	86.9278	1,802.49	85.6916	1,802.49	85.2472	1,802.49	83.3661	1,802.49	83.1462	1,802.49	81.1419	1,802.49	81.2769	1,802.49	78.9621	1,802.49	79.8616	1,802.49	76.7241	1,802.49	79.3846	1,802.49	76.1434	1,802.49	79.1009	1,802.49	77.2239	1,802.49	75.9614	1,802.49	77.7315	1,802.49	75.6668	1,802.49	77.5329	1,802.49	78.3701	1,802.49	70.6916	1,802.49	77.9541	1,802.49	68.0483	1,802.49	73.0955	1,802.49	66.9448	1,802.49	55.4002	1,802.49	66.7679
1,866.21	84.6667	1,866.21	85.2132	1,866.21	84.9689	1,866.21	85.5586	1,866.21	86.1629	1,866.21	86.3824	1,866.21	87.2674	1,866.21	86.7693	1,866.21	87.6495	1,866.21	86.3485	1,866.21	86.6822	1,866.21	84.8879	1,866.21	85.1124	1,866.21	82.6412	1,866.21	83.0216	1,866.21	79.9193	1,866.21	81.5768	1,866.21	77.0146	1,866.21	79.4066	1,866.21	75.1844	1,866.21	79.2323	1,866.21	74.6591	1,866.21	77.9283	1,866.21	75.8101	1,866.21	76.5813	1,866.21	77.6299	1,866.21	73.3919	1,866.21	75.9813	1,866.21	75.8463	1,866.21	65.7049	1,866.21	77.2903	1,866.21	61.5422	1,866.21	71.9998	1,866.21	67.3005	1,866.21	57.7138	1,866.21	67.837
1,931.76	84.9547	1,931.76	85.1064	1,931.76	85.482	1,931.76	85.4439	1,931.76	87.0236	1,931.76	86.5563	1,931.76	87.9896	1,931.76	86.8218	1,931.76	88.8133	1,931.76	85.8921	1,931.76	87.6544	1,931.76	84.7011	1,931.76	86.4866	1,931.76	81.5138	1,931.76	84.0226	1,931.76	77.6108	1,931.76	82.4348	1,931.76	74.0873	1,931.76	80.6239	1,931.76	72.5881	1,931.76	79.8572	1,931.76	72.1136	1,931.76	79.4822	1,931.76	74.1163	1,931.76	79.2156	1,931.76	75.1995	1,931.76	75.8732	1,931.76	74.3436	1,931.76	76.0902	1,931.76	66.768	1,931.76	77.6299	1,931.76	67.697	1,931.76	73.8094	1,931.76	65.7506	1,931.76	68.166	1,931.76	70.1454
1,999.88	85.5787	1,999.88	84.723	1,999.88	86.8044	1,999.88	86.037	1,999.88	88.2829	1,999.88	86.9284	1,999.88	89.6215	1,999.88	87.8621	1,999.88	89.8509	1,999.88	86.992	1,999.88	88.9392	1,999.88	85.3909	1,999.88	87.3742	1,999.88	82.8668	1,999.88	85.9839	1,999.88	79.1084	1,999.88	82.9592	1,999.88	72.832	1,999.88	81.6751	1,999.88	71.4206	1,999.88	80.1452	1,999.88	70.9669	1,999.88	80.0632	1,999.88	72.9512	1,999.88	80.046	1,999.88	74.0586	1,999.88	78.2742	1,999.88	72.1399	1,999.88	79.3873	1,999.88	65.6424	1,999.88	78.872	1,999.88	63.2492	1,999.88	75.3767	1,999.88	68.316	1,999.88	69.0762	1,999.88	72.4052
2,070.56	85.2233	2,070.56	84.524	2,070.56	86.7137	2,070.56	86.0033	2,070.56	88.4177	2,070.56	87.6614	2,070.56	89.2128	2,070.56	87.8465	2,070.56	89.3428	2,070.56	86.8176	2,070.56	87.8505	2,070.56	84.5932	2,070.56	85.6327	2,070.56	82.2207	2,070.56	84.7867	2,070.56	79.0434	2,070.56	82.3594	2,070.56	72.8282	2,070.56	79.8069	2,070.56	71.2962	2,070.56	76.4142	2,070.56	71.0697	2,070.56	78.2718	2,070.56	73.0668	2,070.56	77.2484	2,070.56	73.561	2,070.56	76.9909	2,070.56	72.8997	2,070.56	77.6925	2,070.56	69.3032	2,070.56	77.3055	2,070.56	65.5666	2,070.56	74.2631	2,070.56	67.2612	2,070.56	74.3818	2,070.56	75.7088
2,143.43	84.2313	2,143.43	84.9917	2,143.43	86.8784	2,143.43	86.9035	2,143.43	87.8496	2,143.43	88.3032	2,143.43	88.4712	2,143.43	87.062	2,143.43	88.1844	2,143.43	84.8821	2,143.43	87.1566	2,143.43	80.9161	2,143.43	84.2473	2,143.43	78.6845	2,143.43	83.4822	2,143.43	77.4237	2,143.43	81.0545	2,143.43	72.1709	2,143.43	78.9145	2,143.43	71.0734	2,143.43	73.9933	2,143.43	70.69	2,143.43	76.2707	2,143.43	73.5077	2,143.43	78.2009	2,143.43	70.9332	2,143.43	76.8455	2,143.43	65.2522	2,143.43	76.7966	2,143.43	71.0625	2,143.43	77.8182	2,143.43	68.9967	2,143.43	77.6116	2,143.43	69.1933	2,143.43	76.0682	2,143.43	76.5245
2,219.24	85.0934	2,219.24	85.5537	2,219.24	87.126	2,219.24	89.0285	2,219.24	87.9281	2,219.24	89.7795	2,219.24	88.3692	2,219.24	88.1509	2,219.24	87.9865	2,219.24	83.0626	2,219.24	86.5615	2,219.24	76.0769	2,219.24	84.7112	2,219.24	74.4094	2,219.24	82.3118	2,219.24	77.1124	2,219.24	81.9513	2,219.24	72.3572	2,219.24	77.9799	2,219.24	73.1623	2,219.24	77.129	2,219.24	73.8364	2,219.24	76.6363	2,219.24	72.142	2,219.24	78.9435	2,219.24	70.0193	2,219.24	78.2013	2,219.24	58.6762	2,219.24	75.9751	2,219.24	73.1301	2,219.24	77.9494	2,219.24	73.7833	2,219.24	77.9146	2,219.24	67.8756	2,219.24	78.6012	2,219.24	74.3735
2,297.24	85.2257	2,297.24	86.8856	2,297.24	87.085	2,297.24	90.4132	2,297.24	87.7814	2,297.24	90.6807	2,297.24	88.4475	2,297.24	88.8726	2,297.24	87.2154	2,297.24	84.4493	2,297.24	85.8657	2,297.24	76.7006	2,297.24	84.0313	2,297.24	72.972	2,297.24	82.1036	2,297.24	75.9018	2,297.24	80.5659	2,297.24	76.0491	2,297.24	79.7021	2,297.24	74.5634	2,297.24	78.3999	2,297.24	73.1002	2,297.24	76.5703	2,297.24	71.3713	2,297.24	77.5907	2,297.24	72.5284	2,297.24	78.8049	2,297.24	60.4648	2,297.24	76.833	2,297.24	75.9359	2,297.24	77.5386	2,297.24	77.601	2,297.24	78.3019	2,297.24	70.7573	2,297.24	78.0256	2,297.24	77.0112
2,378.54	84.7555	2,378.54	86.7603	2,378.54	85.0626	2,378.54	90.1394	2,378.54	86.4183	2,378.54	90.1969	2,378.54	87.2836	2,378.54	87.5922	2,378.54	86.3996	2,378.54	82.0546	2,378.54	84.1679	2,378.54	73.4919	2,378.54	82.7355	2,378.54	76.4739	2,378.54	80.5652	2,378.54	77.7042	2,378.54	79.8337	2,378.54	75.7198	2,378.54	77.8419	2,378.54	74.6234	2,378.54	77.4867	2,378.54	71.7944	2,378.54	76.0037	2,378.54	72.8029	2,378.54	77.1663	2,378.54	71.8471	2,378.54	76.789	2,378.54	59.1836	2,378.54	76.1256	2,378.54	75.2093	2,378.54	76.2572	2,378.54	77.0773	2,378.54	76.0306	2,378.54	75.0119	2,378.54	77.5371	2,378.54	77.9538
2,462.4	84.3614	2,462.4	87.5754	2,462.4	84.4248	2,462.4	90.3001	2,462.4	86.7352	2,462.4	89.9788	2,462.4	87.8877	2,462.4	86.3161	2,462.4	86.6169	2,462.4	79.5888	2,462.4	84.0026	2,462.4	70.6946	2,462.4	82.3075	2,462.4	75.164	2,462.4	81.3964	2,462.4	70.9759	2,462.4	80.4511	2,462.4	73.5528	2,462.4	79.0262	2,462.4	74.0885	2,462.4	77.5644	2,462.4	74.1218	2,462.4	76.0348	2,462.4	69.2156	2,462.4	77.9155	2,462.4	71.4197	2,462.4	76.8665	2,462.4	60.0845	2,462.4	77.3823	2,462.4	76.167	2,462.4	76.3047	2,462.4	76.2236	2,462.4	75.6729	2,462.4	70.9894	2,462.4	76.597	2,462.4	75.2797
2,549.19	83.1012	2,549.19	88.4196	2,549.19	84.317	2,549.19	90.0746	2,549.19	87.628	2,549.19	89.2504	2,549.19	88.7727	2,549.19	85.7682	2,549.19	86.865	2,549.19	81.5305	2,549.19	84.1073	2,549.19	76.4941	2,549.19	82.2917	2,549.19	75.7735	2,549.19	82.5784	2,549.19	77.2767	2,549.19	81.4258	2,549.19	77.2427	2,549.19	80.2218	2,549.19	74.1434	2,549.19	77.9416	2,549.19	75.4027	2,549.19	75.4792	2,549.19	69.3116	2,549.19	73.832	2,549.19	70.5641	2,549.19	76.9325	2,549.19	61.0636	2,549.19	77.8941	2,549.19	73.0626	2,549.19	78.4369	2,549.19	75.9465	2,549.19	76.7778	2,549.19	74.7992	2,549.19	76.1914	2,549.19	72.9709
2,638.92	83.9914	2,638.92	88.3579	2,638.92	82.3865	2,638.92	89.12	2,638.92	87.0928	2,638.92	88.1404	2,638.92	87.6879	2,638.92	84.0747	2,638.92	85.5971	2,638.92	79.5306	2,638.92	83.404	2,638.92	79.4445	2,638.92	83.4532	2,638.92	79.6912	2,638.92	82.9277	2,638.92	78.8599	2,638.92	81.4203	2,638.92	77.8202	2,638.92	78.4069	2,638.92	76.5671	2,638.92	77.5366	2,638.92	76.5895	2,638.92	75.8149	2,638.92	72.6723	2,638.92	72.7861	2,638.92	69.7357	2,638.92	73.6784	2,638.92	62.7232	2,638.92	74.918	2,638.92	70.6794	2,638.92	76.4662	2,638.92	75.4325	2,638.92	74.4492	2,638.92	72.1503	2,638.92	71.769	2,638.92	70.7143
2,731.93	85.5669	2,731.93	88.9995	2,731.93	84.199	2,731.93	89.6104	2,731.93	87.6288	2,731.93	87.0433	2,731.93	87.2748	2,731.93	82.138	2,731.93	84.4892	2,731.93	79.5986	2,731.93	84.6648	2,731.93	79.8334	2,731.93	85.3512	2,731.93	79.0717	2,731.93	84.1157	2,731.93	81.4197	2,731.93	82.0638	2,731.93	79.2853	2,731.93	79.2048	2,731.93	76.7445	2,731.93	78.133	2,731.93	76.265	2,731.93	76.525	2,731.93	73.8951	2,731.93	72.9182	2,731.93	70.5264	2,731.93	74.4084	2,731.93	65.8	2,731.93	74.4665	2,731.93	70.4415	2,731.93	75.133	2,731.93	75.4938	2,731.93	73.6677	2,731.93	74.783	2,731.93	70.1191	2,731.93	65.1697
2,828.25	84.5018	2,828.25	88.6265	2,828.25	84.6022	2,828.25	90.0198	2,828.25	88.1594	2,828.25	87.2862	2,828.25	87.0739	2,828.25	80.8441	2,828.25	86.1366	2,828.25	78.391	2,828.25	86.5045	2,828.25	82.4448	2,828.25	85.414	2,828.25	81.4254	2,828.25	83.6772	2,828.25	82.7086	2,828.25	81.8074	2,828.25	80.0993	2,828.25	79.3303	2,828.25	78.8624	2,828.25	76.0832	2,828.25	76.9017	2,828.25	75.673	2,828.25	77.0013	2,828.25	72.877	2,828.25	72.3322	2,828.25	72.9821	2,828.25	69.7183	2,828.25	72.412	2,828.25	68.7353	2,828.25	73.6365	2,828.25	75.5106	2,828.25	72.6924	2,828.25	74.4354	2,828.25	66.3429	2,828.25	68.475
2,928.22	83.4513	2,928.22	88.3206	2,928.22	83.6949	2,928.22	89.9707	2,928.22	86.8903	2,928.22	86.9271	2,928.22	86.8749	2,928.22	78.1866	2,928.22	86.1563	2,928.22	77.8417	2,928.22	86.4115	2,928.22	82.627	2,928.22	85.438	2,928.22	82.6322	2,928.22	83.186	2,928.22	81.626	2,928.22	81.004	2,928.22	79.8084	2,928.22	77.0799	2,928.22	78.4336	2,928.22	74.1868	2,928.22	77.1115	2,928.22	73.577	2,928.22	76.4984	2,928.22	73.1391	2,928.22	71.3821	2,928.22	70.4275	2,928.22	69.4049	2,928.22	72.7507	2,928.22	68.4675	2,928.22	70.1708	2,928.22	76.5321	2,928.22	69.4316	2,928.22	73.9905	2,928.22	68.9725	2,928.22	63.382
3,031.49	84.3989	3,031.49	89.6718	3,031.49	83.9531	3,031.49	91.2453	3,031.49	87.1737	3,031.49	88.8778	3,031.49	86.7972	3,031.49	81.0197	3,031.49	85.8067	3,031.49	76.1854	3,031.49	87.097	3,031.49	81.6614	3,031.49	86.0036	3,031.49	83.2997	3,031.49	84.4727	3,031.49	80.3677	3,031.49	81.89	3,031.49	79.3655	3,031.49	79.8815	3,031.49	77.9091	3,031.49	77.2092	3,031.49	74.6509	3,031.49	75.3291	3,031.49	76.0765	3,031.49	75.111	3,031.49	73.4457	3,031.49	72.2778	3,031.49	63.9705	3,031.49	74.5063	3,031.49	68.4317	3,031.49	72.0075	3,031.49	74.3503	3,031.49	71.3612	3,031.49	71.6778	3,031.49	62.9813	3,031.49	68.113
3,138.43	84.3666	3,138.43	90.5841	3,138.43	84.5496	3,138.43	91.5347	3,138.43	86.1837	3,138.43	89.0606	3,138.43	85.0642	3,138.43	78.4352	3,138.43	85.7443	3,138.43	71.3362	3,138.43	87.1234	3,138.43	80.0547	3,138.43	86.9354	3,138.43	81.6992	3,138.43	85.3133	3,138.43	78.8272	3,138.43	82.4042	3,138.43	78.6408	3,138.43	80.7886	3,138.43	75.6815	3,138.43	78.4747	3,138.43	75.6304	3,138.43	76.5749	3,138.43	74.0939	3,138.43	76.2892	3,138.43	76.2304	3,138.43	73.3651	3,138.43	65.0206	3,138.43	74.4378	3,138.43	68.3146	3,138.43	73.0112	3,138.43	75.2297	3,138.43	69.957	3,138.43	74.766	3,138.43	52.5728	3,138.43	70.312
3,249.02	85.7429	3,249.02	90.7541	3,249.02	83.4236	3,249.02	91.4865	3,249.02	84.7282	3,249.02	88.1439	3,249.02	83.0891	3,249.02	79.2714	3,249.02	85.5791	3,249.02	56.5197	3,249.02	86.7727	3,249.02	78.0353	3,249.02	85.932	3,249.02	79.3775	3,249.02	84.3319	3,249.02	79.7087	3,249.02	81.6785	3,249.02	78.2028	3,249.02	78.9931	3,249.02	76.9082	3,249.02	76.5413	3,249.02	75.6862	3,249.02	76.1873	3,249.02	73.1449	3,249.02	75.568	3,249.02	73.9393	3,249.02	74.0834	3,249.02	68.9952	3,249.02	72.4387	3,249.02	63.3223	3,249.02	71.1597	3,249.02	75.8952	3,249.02	65.8084	3,249.02	70.1085	3,249.02	41.464	3,249.02	64.8055
3,363.65	87.2482	3,363.65	91.5445	3,363.65	83.4381	3,363.65	91.4511	3,363.65	84.1968	3,363.65	87.5806	3,363.65	82.7049	3,363.65	79.3022	3,363.65	85.8938	3,363.65	59.8203	3,363.65	87.257	3,363.65	79.5077	3,363.65	86.5076	3,363.65	80.3589	3,363.65	84.4334	3,363.65	80.8687	3,363.65	82.1436	3,363.65	78.3624	3,363.65	79.374	3,363.65	77.1988	3,363.65	76.6188	3,363.65	76.5259	3,363.65	75.9812	3,363.65	72.9441	3,363.65	76.1491	3,363.65	75.4612	3,363.65	76.9454	3,363.65	70.2128	3,363.65	73.387	3,363.65	67.4585	3,363.65	72.7109	3,363.65	74.3259	3,363.65	68.3831	3,363.65	71.5847	3,363.65	53.7305	3,363.65	50.1007
3,482.3	87.1863	3,482.3	91.78	3,482.3	81.714	3,482.3	91.6319	3,482.3	83.5333	3,482.3	87.3608	3,482.3	83.0729	3,482.3	81.576	3,482.3	86.9726	3,482.3	61.6025	3,482.3	88.2443	3,482.3	79.4265	3,482.3	87.7461	3,482.3	81.215	3,482.3	85.4674	3,482.3	81.02	3,482.3	82.2109	3,482.3	79.2087	3,482.3	78.6501	3,482.3	77.5671	3,482.3	75.2417	3,482.3	76.0299	3,482.3	75.1223	3,482.3	73.7582	3,482.3	74.8106	3,482.3	72.8392	3,482.3	75.9268	3,482.3	68.6005	3,482.3	72.6819	3,482.3	66.1344	3,482.3	72.1252	3,482.3	74.3874	3,482.3	66.5313	3,482.3	72.4669	3,482.3	57.5424	3,482.3	62.2797
3,604.98	85.9839	3,604.98	91.4784	3,604.98	80.57	3,604.98	91.3501	3,604.98	82.3753	3,604.98	87.2411	3,604.98	83.2924	3,604.98	81.7623	3,604.98	87.666	3,604.98	70.3	3,604.98	88.805	3,604.98	80.2179	3,604.98	87.9995	3,604.98	82.0962	3,604.98	86.2048	3,604.98	81.4896	3,604.98	82.8043	3,604.98	80.2878	3,604.98	79.7696	3,604.98	78.1831	3,604.98	77.3241	3,604.98	74.4852	3,604.98	73.4594	3,604.98	75.7431	3,604.98	75.0008	3,604.98	69.6535	3,604.98	74.8753	3,604.98	71.0318	3,604.98	72.8552	3,604.98	67.4419	3,604.98	71.7519	3,604.98	74.3102	3,604.98	66.8472	3,604.98	69.6052	3,604.98	65.1579	3,604.98	61.2635
3,732.06	85.6395	3,732.06	91.6736	3,732.06	81.1674	3,732.06	91.3498	3,732.06	82.3061	3,732.06	88.16	3,732.06	85.3006	3,732.06	82.8143	3,732.06	88.0085	3,732.06	74.3763	3,732.06	88.8948	3,732.06	83.226	3,732.06	88.563	3,732.06	84.3574	3,732.06	86.4689	3,732.06	83.1864	3,732.06	84.0577	3,732.06	81.0776	3,732.06	80.2133	3,732.06	79.715	3,732.06	77.5501	3,732.06	75.8761	3,732.06	75.0011	3,732.06	77.45	3,732.06	74.5263	3,732.06	75.3169	3,732.06	75.1752	3,732.06	70.3217	3,732.06	74.5263	3,732.06	69.9791	3,732.06	71.7244	3,732.06	74.1561	3,732.06	66.584	3,732.06	69.2642	3,732.06	66.329	3,732.06	58.1123
3,863.89	83.7083	3,863.89	91.1229	3,863.89	80.7794	3,863.89	91.0818	3,863.89	81.4161	3,863.89	88.4769	3,863.89	85.7134	3,863.89	78.9127	3,863.89	88.0937	3,863.89	80.4019	3,863.89	89.5289	3,863.89	85.1972	3,863.89	88.3939	3,863.89	84.9303	3,863.89	85.4403	3,863.89	82.5241	3,863.89	82.4361	3,863.89	81.0412	3,863.89	76.4209	3,863.89	78.2153	3,863.89	76.5501	3,863.89	77.2295	3,863.89	74.7957	3,863.89	74.8539	3,863.89	71.9373	3,863.89	76.9122	3,863.89	72.6217	3,863.89	68.7549	3,863.89	72.8632	3,863.89	69.5686	3,863.89	67.0172	3,863.89	73.3413	3,863.89	68.3318	3,863.89	69.0297	3,863.89	68.5236	3,863.89	62.2851
4,000.12	80.1015	4,000.12	89.762	4,000.12	77.5241	4,000.12	90.3897	4,000.12	79.7138	4,000.12	88.1332	4,000.12	86.4301	4,000.12	71.9051	4,000.12	88.8954	4,000.12	82.3387	4,000.12	89.9711	4,000.12	84.5111	4,000.12	87.8923	4,000.12	82.6017	4,000.12	83.0743	4,000.12	81.2618	4,000.12	79.8427	4,000.12	79.4219	4,000.12	74.255	4,000.12	75.039	4,000.12	69.4182	4,000.12	74.6596	4,000.12	71.4009	4,000.12	71.0963	4,000.12	71.3025	4,000.12	72.4928	4,000.12	72.9134	4,000.12	69.0429	4,000.12	73.0787	4,000.12	63.1786	4,000.12	67.2987	4,000.12	73.7069	4,000.12	68.5491	4,000.12	67.5328	4,000.12	69.7504	4,000.12	59.1167
4,141.11	79.8883	4,141.11	87.7613	4,141.11	69.2058	4,141.11	90.1534	4,141.11	78.3645	4,141.11	87.0366	4,141.11	86.8318	4,141.11	70.94	4,141.11	90.0822	4,141.11	83.7923	4,141.11	90.5052	4,141.11	83.9723	4,141.11	87.3927	4,141.11	83.677	4,141.11	81.2325	4,141.11	82.9108	4,141.11	74.8973	4,141.11	80.5597	4,141.11	63.4271	4,141.11	79.3717	4,141.11	53.4823	4,141.11	75.5146	4,141.11	62.1745	4,141.11	73.5956	4,141.11	68.4935	4,141.11	72.8088	4,141.11	68.972	4,141.11	71.1739	4,141.11	70.0791	4,141.11	63.6573	4,141.11	69.7441	4,141.11	71.6687	4,141.11	67.4948	4,141.11	67.1364	4,141.11	67.6023	4,141.11	65.4602
4,287.23	80.3379	4,287.23	87.4792	4,287.23	62.113	4,287.23	89.8565	4,287.23	79.4629	4,287.23	84.4732	4,287.23	86.1375	4,287.23	76.9403	4,287.23	89.9012	4,287.23	84.1473	4,287.23	89.8778	4,287.23	86.1102	4,287.23	85.2122	4,287.23	86.3353	4,287.23	79.2562	4,287.23	84.9716	4,287.23	68.3585	4,287.23	82.0508	4,287.23	64.5886	4,287.23	80.8734	4,287.23	50.0675	4,287.23	76.7068	4,287.23	38.5084	4,287.23	75.0346	4,287.23	64.1843	4,287.23	74.8983	4,287.23	67.0599	4,287.23	73.0851	4,287.23	69.5927	4,287.23	67.0627	4,287.23	70.3204	4,287.23	71.2341	4,287.23	61.5388	4,287.23	67.5472	4,287.23	63.2738	4,287.23	67.712
4,438.11	79.6536	4,438.11	88.439	4,438.11	44.7945	4,438.11	90.0813	4,438.11	81.7757	4,438.11	84.8788	4,438.11	87.5046	4,438.11	77.4681	4,438.11	91.0441	4,438.11	83.8187	4,438.11	89.179	4,438.11	87.9482	4,438.11	84.6326	4,438.11	87.8234	4,438.11	79.3354	4,438.11	85.0295	4,438.11	68.7631	4,438.11	80.7484	4,438.11	62.2841	4,438.11	78.5182	4,438.11	64.8204	4,438.11	77.6091	4,438.11	60.885	4,438.11	76.7785	4,438.11	55.6928	4,438.11	72.5182	4,438.11	66.1661	4,438.11	69.858	4,438.11	73.3748	4,438.11	66.4472	4,438.11	68.064	4,438.11	70.274	4,438.11	64.9822	4,438.11	67.2171	4,438.11	68.5275	4,438.11	63.46
4,594.85	82.0196	4,594.85	89.1341	4,594.85	68.3032	4,594.85	89.9795	4,594.85	78.5828	4,594.85	83.3437	4,594.85	87.9372	4,594.85	70.9707	4,594.85	90.1191	4,594.85	85.7841	4,594.85	87.8541	4,594.85	88.5311	4,594.85	83.513	4,594.85	87.0448	4,594.85	76.7626	4,594.85	82.8894	4,594.85	70.0509	4,594.85	79.3625	4,594.85	65.6378	4,594.85	76.8573	4,594.85	67.4347	4,594.85	76.2738	4,594.85	66.7713	4,594.85	76.8348	4,594.85	54.4588	4,594.85	75.3913	4,594.85	66.6112	4,594.85	74.6418	4,594.85	68.2585	4,594.85	67.8774	4,594.85	69.6127	4,594.85	71.1033	4,594.85	68.87	4,594.85	66.2765	4,594.85	68.7121	4,594.85	59.9873
4,756.71	83.8037	4,756.71	90.2295	4,756.71	71.1295	4,756.71	91.487	4,756.71	82.8241	4,756.71	85.2961	4,756.71	89.207	4,756.71	77.59	4,756.71	91.6894	4,756.71	88.9779	4,756.71	89.813	4,756.71	88.8638	4,756.71	84.7923	4,756.71	86.5951	4,756.71	75.3612	4,756.71	82.6017	4,756.71	68.1817	4,756.71	79.8725	4,756.71	72.9003	4,756.71	78.59	4,756.71	69.2226	4,756.71	73.8873	4,756.71	69.1159	4,756.71	74.632	4,756.71	63.9979	4,756.71	73.5653	4,756.71	60.029	4,756.71	73.0772	4,756.71	69.7493	4,756.71	62.5889	4,756.71	70.8939	4,756.71	64.2481	4,756.71	68.4389	4,756.71	64.5334	4,756.71	64.4662	4,756.71	65.6914
4,924.44	84.7584	4,924.44	90.0926	4,924.44	52.3783	4,924.44	89.6512	4,924.44	80.9899	4,924.44	83.8297	4,924.44	88.3116	4,924.44	83.2323	4,924.44	91.4246	4,924.44	89.1794	4,924.44	90.1694	4,924.44	87.6621	4,924.44	85.4318	4,924.44	85.1907	4,924.44	75.1072	4,924.44	83.1515	4,924.44	73.5581	4,924.44	78.477	4,924.44	75.0955	4,924.44	77.0722	4,924.44	71.1154	4,924.44	75.8086	4,924.44	70.9175	4,924.44	75.6122	4,924.44	61.6007	4,924.44	73.1856	4,924.44	62.2103	4,924.44	74.493	4,924.44	71.0944	4,924.44	73.319	4,924.44	69.6334	4,924.44	71.2286	4,924.44	66.4103	4,924.44	66.3651	4,924.44	63.7016	4,924.44	63.1829
5,098.39	85.8715	5,098.39	90.9695	5,098.39	68.4887	5,098.39	89.9801	5,098.39	82.3314	5,098.39	84.3492	5,098.39	89.8394	5,098.39	83.7959	5,098.39	91.7436	5,098.39	88.8412	5,098.39	89.5316	5,098.39	89.2304	5,098.39	83.8446	5,098.39	88.3106	5,098.39	67.1072	5,098.39	85.7167	5,098.39	79.6943	5,098.39	82.9677	5,098.39	77.9298	5,098.39	78.8364	5,098.39	74.8218	5,098.39	77.4046	5,098.39	75.5929	5,098.39	75.5276	5,098.39	68.185	5,098.39	76.7298	5,098.39	61.7995	5,098.39	75.9053	5,098.39	68.7366	5,098.39	71.754	5,098.39	72.2252	5,098.39	71.9778	5,098.39	66.4539	5,098.39	66.9298	5,098.39	63.1735	5,098.39	65.0298
5,278.2	85.5308	5,278.2	90.2458	5,278.2	76.5158	5,278.2	90.2488	5,278.2	81.8478	5,278.2	86.0018	5,278.2	89.39	5,278.2	82.499	5,278.2	90.9358	5,278.2	87.0168	5,278.2	88.822	5,278.2	88.8775	5,278.2	78.0544	5,278.2	88.3952	5,278.2	79.3183	5,278.2	85.6957	5,278.2	79.3826	5,278.2	82.8123	5,278.2	78.7495	5,278.2	77.9188	5,278.2	78.1016	5,278.2	74.8252	5,278.2	75.2677	5,278.2	75.5334	5,278.2	71.1815	5,278.2	77.1748	5,278.2	69.1665	5,278.2	77.5101	5,278.2	71.9132	5,278.2	69.9291	5,278.2	71.7069	5,278.2	72.1065	5,278.2	65.8107	5,278.2	66.4959	5,278.2	59.871	5,278.2	63.1524
5,464.23	85.8847	5,464.23	89.4946	5,464.23	81.5281	5,464.23	90.5437	5,464.23	79.8898	5,464.23	86.8653	5,464.23	88.2703	5,464.23	78.2051	5,464.23	91.7098	5,464.23	87.8242	5,464.23	90.5146	5,464.23	89.7103	5,464.23	82.2011	5,464.23	89.0913	5,464.23	82.704	5,464.23	86.5876	5,464.23	79.1619	5,464.23	83.4658	5,464.23	79.2728	5,464.23	79.5551	5,464.23	79.9366	5,464.23	77.6532	5,464.23	75.6108	5,464.23	77.1818	5,464.23	71.7624	5,464.23	75.9846	5,464.23	72.8205	5,464.23	76.834	5,464.23	74.0279	5,464.23	70.4728	5,464.23	74.4006	5,464.23	72.1383	5,464.23	67.6783	5,464.23	63.1205	5,464.23	59.2516	5,464.23	65.392
5,656.86	86.5009	5,656.86	88.4341	5,656.86	82.6082	5,656.86	90.7934	5,656.86	78.7216	5,656.86	86.0779	5,656.86	87.9003	5,656.86	79.3952	5,656.86	92.0506	5,656.86	87.2453	5,656.86	90.5542	5,656.86	89.3985	5,656.86	84.4106	5,656.86	88.8292	5,656.86	81.051	5,656.86	86.1763	5,656.86	82.6187	5,656.86	82.1346	5,656.86	79.5545	5,656.86	78.7691	5,656.86	76.9175	5,656.86	76.5491	5,656.86	76.1441	5,656.86	74.966	5,656.86	71.9041	5,656.86	75.3557	5,656.86	72.5146	5,656.86	72.7985	5,656.86	73.3862	5,656.86	71.1603	5,656.86	73.2576	5,656.86	72.1937	5,656.86	61.3823	5,656.86	67.5117	5,656.86	62.1016	5,656.86	63.8767
5,856.45	87.2093	5,856.45	88.2385	5,856.45	84.8902	5,856.45	91.1563	5,856.45	74.2201	5,856.45	84.2078	5,856.45	88.9868	5,856.45	83.6605	5,856.45	92.8118	5,856.45	85.8993	5,856.45	89.1331	5,856.45	89.8464	5,856.45	84.1114	5,856.45	88.8356	5,856.45	81.1597	5,856.45	84.8471	5,856.45	82.1269	5,856.45	81.4173	5,856.45	78.9044	5,856.45	77.9249	5,856.45	76.5345	5,856.45	75.0898	5,856.45	74.9855	5,856.45	74.5151	5,856.45	72.1458	5,856.45	75.8473	5,856.45	67.9593	5,856.45	76.15	5,856.45	70.5318	5,856.45	73.2158	5,856.45	74.2038	5,856.45	72.5472	5,856.45	65.7125	5,856.45	67.0954	5,856.45	58.0854	5,856.45	61.0845
6,062.99	86.5684	6,062.99	88.1011	6,062.99	84.9304	6,062.99	90.1227	6,062.99	71.9063	6,062.99	84.0661	6,062.99	88.941	6,062.99	81.7975	6,062.99	92.0152	6,062.99	86.2825	6,062.99	89.861	6,062.99	89.7293	6,062.99	85.7877	6,062.99	89.4011	6,062.99	83.7616	6,062.99	86.1678	6,062.99	81.4936	6,062.99	81.7624	6,062.99	80.0993	6,062.99	79.8973	6,062.99	79.3972	6,062.99	76.9573	6,062.99	73.7887	6,062.99	74.298	6,062.99	74.3112	6,062.99	74.3003	6,062.99	72.4185	6,062.99	76.3982	6,062.99	73.0723	6,062.99	71.9147	6,062.99	72.4405	6,062.99	70.8831	6,062.99	64.4835	6,062.99	66.106	6,062.99	35.1454	6,062.99	53.2722
6,276.86	85.9667	6,276.86	87.8288	6,276.86	83.0409	6,276.86	88.5562	6,276.86	78.6228	6,276.86	84.2712	6,276.86	88.0313	6,276.86	77.4328	6,276.86	90.5552	6,276.86	84.9558	6,276.86	90.6393	6,276.86	89.5295	6,276.86	85.7942	6,276.86	89.1749	6,276.86	82.5993	6,276.86	87.5019	6,276.86	82.3453	6,276.86	82.6159	6,276.86	81.6016	6,276.86	79.9841	6,276.86	78.9015	6,276.86	76.2229	6,276.86	72.5868	6,276.86	74.8068	6,276.86	75.1988	6,276.86	74.8875	6,276.86	74.0163	6,276.86	76.7752	6,276.86	73.5804	6,276.86	68.9964	6,276.86	73.1387	6,276.86	69.406	6,276.86	65.3996	6,276.86	65.481	6,276.86	60.8506	6,276.86	59.72
6,498.05	86.7437	6,498.05	88.192	6,498.05	84.281	6,498.05	88.3396	6,498.05	79.4375	6,498.05	86.2635	6,498.05	87.6355	6,498.05	69.7041	6,498.05	90.8074	6,498.05	84.425	6,498.05	90.1417	6,498.05	90.837	6,498.05	84.2634	6,498.05	90.2259	6,498.05	82.7003	6,498.05	87.6432	6,498.05	84.5531	6,498.05	82.3332	6,498.05	81.4863	6,498.05	78.6691	6,498.05	78.8236	6,498.05	74.7711	6,498.05	75.2562	6,498.05	74.3465	6,498.05	74.6813	6,498.05	74.2877	6,498.05	73.5976	6,498.05	73.2346	6,498.05	73.3297	6,498.05	70.38	6,498.05	73.8345	6,498.05	67.6652	6,498.05	66.5307	6,498.05	64.1974	6,498.05	61.5983	6,498.05	61.116
6,727.29	86.021	6,727.29	87.1172	6,727.29	85.7598	6,727.29	87.7476	6,727.29	78.5728	6,727.29	87.447	6,727.29	87.6386	6,727.29	71.7524	6,727.29	92.0808	6,727.29	86.808	6,727.29	89.9918	6,727.29	91.4606	6,727.29	85.6555	6,727.29	90.1892	6,727.29	86.2846	6,727.29	85.4018	6,727.29	83.511	6,727.29	80.4959	6,727.29	80.5256	6,727.29	75.5726	6,727.29	78.6253	6,727.29	73.3803	6,727.29	73.7182	6,727.29	73.3767	6,727.29	75.6383	6,727.29	73.1115	6,727.29	73.2373	6,727.29	73.1517	6,727.29	72.6286	6,727.29	69.8638	6,727.29	73.3168	6,727.29	66.3273	6,727.29	65.4178	6,727.29	59.862	6,727.29	61.4929	6,727.29	61.9826
6,964.23	86.3264	6,964.23	86.9775	6,964.23	85.782	6,964.23	88.3858	6,964.23	78.953	6,964.23	85.9721	6,964.23	86.5563	6,964.23	72.7876	6,964.23	92.4039	6,964.23	88.2967	6,964.23	89.2378	6,964.23	91.2968	6,964.23	87.3622	6,964.23	88.9361	6,964.23	86.8409	6,964.23	84.6746	6,964.23	84.7086	6,964.23	81.7082	6,964.23	83.1023	6,964.23	78.2825	6,964.23	79.5872	6,964.23	74.0218	6,964.23	76.4801	6,964.23	74.9128	6,964.23	78.077	6,964.23	75.4577	6,964.23	75.4767	6,964.23	73.9774	6,964.23	74.5569	6,964.23	69.1605	6,964.23	74.4772	6,964.23	67.8695	6,964.23	67.9703	6,964.23	56.3527	6,964.23	60.9494	6,964.23	59.9859
7,209.96	86.6333	7,209.96	88.1742	7,209.96	84.9269	7,209.96	89.2998	7,209.96	81.4795	7,209.96	85.7604	7,209.96	87.3108	7,209.96	74.9125	7,209.96	91.9256	7,209.96	89.3669	7,209.96	87.669	7,209.96	91.5326	7,209.96	86.7233	7,209.96	89.1733	7,209.96	85.9619	7,209.96	84.9732	7,209.96	86.5671	7,209.96	81.0505	7,209.96	84.1884	7,209.96	78.0746	7,209.96	80.7335	7,209.96	74.2628	7,209.96	79.2483	7,209.96	74.5178	7,209.96	78.758	7,209.96	76.3789	7,209.96	73.2186	7,209.96	72.7343	7,209.96	74.7444	7,209.96	67.5305	7,209.96	75.5117	7,209.96	67.261	7,209.96	68.4932	7,209.96	46.8547	7,209.96	62.635	7,209.96	59.6299
7,464.11	86.1862	7,464.11	88.8006	7,464.11	84.6434	7,464.11	89.8061	7,464.11	82.313	7,464.11	85.9502	7,464.11	89.2452	7,464.11	81.5193	7,464.11	90.9437	7,464.11	89.8913	7,464.11	87.4155	7,464.11	91.6001	7,464.11	83.4795	7,464.11	89.4261	7,464.11	88.0162	7,464.11	83.7676	7,464.11	87.1249	7,464.11	78.3587	7,464.11	83.322	7,464.11	76.9449	7,464.11	80.3905	7,464.11	73.5933	7,464.11	79.1878	7,464.11	72.3316	7,464.11	78.5914	7,464.11	73.9938	7,464.11	68.1326	7,464.11	70.3881	7,464.11	72.9359	7,464.11	65.4855	7,464.11	72.7351	7,464.11	68.3905	7,464.11	69.4743	7,464.11	48.9816	7,464.11	64.4685	7,464.11	59.195
7,727.42	83.6944	7,727.42	87.8229	7,727.42	85.4749	7,727.42	89.6594	7,727.42	83.5219	7,727.42	86.2668	7,727.42	89.9687	7,727.42	82.9051	7,727.42	90.9608	7,727.42	90.2814	7,727.42	86.1977	7,727.42	91.5289	7,727.42	84.4003	7,727.42	88.574	7,727.42	88.2261	7,727.42	83.1744	7,727.42	86.9522	7,727.42	74.9064	7,727.42	82.0966	7,727.42	74.9259	7,727.42	79.3004	7,727.42	72.5225	7,727.42	78.7784	7,727.42	68.9627	7,727.42	77.7418	7,727.42	70.8754	7,727.42	65.3718	7,727.42	70.3477	7,727.42	70.6889	7,727.42	65.4174	7,727.42	72.5224	7,727.42	68.0149	7,727.42	65.4484	7,727.42	61.4194	7,727.42	64.4382	7,727.42	56.6477
7,999.88	84.8946	7,999.88	87.6745	7,999.88	85.1396	7,999.88	89.5509	7,999.88	83.7475	7,999.88	85.1203	7,999.88	89.6512	7,999.88	82.1426	7,999.88	91.1454	7,999.88	91.1586	7,999.88	81.0317	7,999.88	91.6676	7,999.88	85.5409	7,999.88	87.2445	7,999.88	85.3922	7,999.88	82.5225	7,999.88	87.3077	7,999.88	77.8275	7,999.88	83.6471	7,999.88	73.7189	7,999.88	80.8223	7,999.88	71.5458	7,999.88	79.2439	7,999.88	70.3336	7,999.88	77.9396	7,999.88	67.2041	7,999.88	60.5018	7,999.88	71.7138	7,999.88	69.6712	7,999.88	63.8631	7,999.88	71.5634	7,999.88	67.5191	7,999.88	64.1195	7,999.88	56.5688	7,999.88	64.3825	7,999.88	60.0532
8,282.23	85.675	8,282.23	88.6826	8,282.23	86.6615	8,282.23	89.5685	8,282.23	84.961	8,282.23	81.9612	8,282.23	89.4541	8,282.23	78.942	8,282.23	89.6015	8,282.23	90.831	8,282.23	83.6945	8,282.23	91.3803	8,282.23	82.903	8,282.23	86.2211	8,282.23	88.0973	8,282.23	81.4382	8,282.23	88.3017	8,282.23	76.954	8,282.23	84.1159	8,282.23	73.4025	8,282.23	81.0003	8,282.23	70.3286	8,282.23	78.4652	8,282.23	69.1276	8,282.23	75.5195	8,282.23	64.8443	8,282.23	71.2808	8,282.23	70.6709	8,282.23	69.3842	8,282.23	58.7834	8,282.23	72.4194	8,282.23	64.838	8,282.23	61.219	8,282.23	61.6063	8,282.23	62.0001	8,282.23	64.7338
8,574.1	86.298	8,574.1	88.3207	8,574.1	86.3694	8,574.1	89.1391	8,574.1	84.7561	8,574.1	78.1147	8,574.1	88.8873	8,574.1	83.325	8,574.1	88.5979	8,574.1	91.0073	8,574.1	83.3038	8,574.1	90.624	8,574.1	84.5861	8,574.1	85.3704	8,574.1	88.4494	8,574.1	82.5553	8,574.1	87.8581	8,574.1	77.6019	8,574.1	84.5592	8,574.1	74.9348	8,574.1	81.2541	8,574.1	70.2235	8,574.1	79.4675	8,574.1	68.7317	8,574.1	75.0091	8,574.1	68.0297	8,574.1	71.7291	8,574.1	69.639	8,574.1	70.1635	8,574.1	58.661	8,574.1	72.1765	8,574.1	60.4134	8,574.1	66.1794	8,574.1	64.7722	8,574.1	63.2169	8,574.1	64.046
8,876.59	85.2605	8,876.59	87.8959	8,876.59	85.3674	8,876.59	86.3329	8,876.59	85.1426	8,876.59	80.7748	8,876.59	88.096	8,876.59	83.4665	8,876.59	86.7128	8,876.59	91.3109	8,876.59	80.1327	8,876.59	88.8696	8,876.59	85.2828	8,876.59	84.402	8,876.59	89.95	8,876.59	81.4267	8,876.59	87.5251	8,876.59	76.8664	8,876.59	84.9053	8,876.59	71.6748	8,876.59	80.5149	8,876.59	70.3015	8,876.59	78.199	8,876.59	66.0143	8,876.59	72.9873	8,876.59	67.3732	8,876.59	75.0413	8,876.59	68.3916	8,876.59	67.2159	8,876.59	60.2829	8,876.59	68.0185	8,876.59	58.7344	8,876.59	67.7384	8,876.59	65.2698	8,876.59	58.3348	8,876.59	63.2868
9,189.7	85.9507	9,189.7	88.9669	9,189.7	82.8638	9,189.7	84.1048	9,189.7	87.3875	9,189.7	83.5374	9,189.7	87.8712	9,189.7	84.9744	9,189.7	87.1972	9,189.7	91.7984	9,189.7	82.5469	9,189.7	88.4449	9,189.7	86.7787	9,189.7	83.2012	9,189.7	90.4839	9,189.7	77.2988	9,189.7	87.7084	9,189.7	79.5513	9,189.7	84.2762	9,189.7	71.8984	9,189.7	79.8671	9,189.7	72.5327	9,189.7	77.1716	9,189.7	67.4966	9,189.7	73.5711	9,189.7	59.4787	9,189.7	76.2342	9,189.7	69.4145	9,189.7	59.6971	9,189.7	63.1758	9,189.7	66.0819	9,189.7	54.8736	9,189.7	66.4463	9,189.7	67.1069	9,189.7	51.5021	9,189.7	64.2757
9,513.79	87.457	9,513.79	89.4609	9,513.79	79.2846	9,513.79	81.6413	9,513.79	87.4127	9,513.79	82.1202	9,513.79	86.3225	9,513.79	86.9863	9,513.79	87.3733	9,513.79	91.7283	9,513.79	82.0119	9,513.79	90.2241	9,513.79	90.124	9,513.79	84.4388	9,513.79	91.5183	9,513.79	80.7032	9,513.79	88.0838	9,513.79	79.9309	9,513.79	85.4601	9,513.79	76.1048	9,513.79	80.7403	9,513.79	74.7294	9,513.79	77.5786	9,513.79	69.1581	9,513.79	74.3279	9,513.79	63.139	9,513.79	78.1806	9,513.79	69.3088	9,513.79	47.7214	9,513.79	67.4061	9,513.79	67.8717	9,513.79	56.7271	9,513.79	70.2183	9,513.79	68.1645	9,513.79	61.0259	9,513.79	65.9095
9,849.24	88.5281	9,849.24	90.1156	9,849.24	79.7136	9,849.24	81.6466	9,849.24	88.5057	9,849.24	81.8053	9,849.24	86.8045	9,849.24	87.8194	9,849.24	86.4912	9,849.24	92.0483	9,849.24	80.5332	9,849.24	90.0949	9,849.24	90.6909	9,849.24	86.3526	9,849.24	92.1436	9,849.24	80.3487	9,849.24	89.1719	9,849.24	83.4293	9,849.24	85.1961	9,849.24	77.2437	9,849.24	79.685	9,849.24	77.4489	9,849.24	75.4476	9,849.24	71.8389	9,849.24	72.3527	9,849.24	68.7873	9,849.24	79.034	9,849.24	71.0742	9,849.24	57.741	9,849.24	68.738	9,849.24	67.8056	9,849.24	60.9152	9,849.24	70.1043	9,849.24	69.3794	9,849.24	59.8515	9,849.24	68.4269
10,196.4	89.3959	10,196.4	89.9199	10,196.4	80.4053	10,196.4	82.9166	10,196.4	88.3841	10,196.4	79.2264	10,196.4	86.7072	10,196.4	87.2623	10,196.4	86.0173	10,196.4	92.6446	10,196.4	82.1319	10,196.4	90.729	10,196.4	91.5589	10,196.4	86.7357	10,196.4	93.0093	10,196.4	85.849	10,196.4	87.6379	10,196.4	85.5454	10,196.4	84.5715	10,196.4	81.3957	10,196.4	76.6228	10,196.4	81.3863	10,196.4	73.4082	10,196.4	76.7817	10,196.4	70.9038	10,196.4	69.9461	10,196.4	77.8849	10,196.4	71.2395	10,196.4	63.0655	10,196.4	73.3676	10,196.4	67.8181	10,196.4	64.2817	10,196.4	70.3572	10,196.4	68.9441	10,196.4	58.3649	10,196.4	68.1858
10,556	87.9877	10,556	89.6973	10,556	83.2873	10,556	81.9342	10,556	86.7118	10,556	78.7375	10,556	85.8576	10,556	87.5069	10,556	84.5416	10,556	92.2419	10,556	82.8875	10,556	90.704	10,556	93.5138	10,556	88.2518	10,556	92.4396	10,556	88.9977	10,556	86.6346	10,556	87.377	10,556	83.2376	10,556	84.0365	10,556	76.4637	10,556	81.6646	10,556	71.7753	10,556	77.6122	10,556	63.0326	10,556	72.3199	10,556	78.07	10,556	69.6804	10,556	57.6066	10,556	74.3427	10,556	65.5969	10,556	67.8595	10,556	71.951	10,556	66.7454	10,556	60.1547	10,556	66.0517
10,928.5	83.8732	10,928.5	89.6	10,928.5	84.9457	10,928.5	82.5349	10,928.5	86.5816	10,928.5	76.8703	10,928.5	84.5189	10,928.5	85.1663	10,928.5	83.1284	10,928.5	91.6087	10,928.5	83.0054	10,928.5	90.7968	10,928.5	94.0788	10,928.5	89.8247	10,928.5	91.5558	10,928.5	90.8109	10,928.5	87.0747	10,928.5	87.7017	10,928.5	81.5557	10,928.5	84.4907	10,928.5	74.7499	10,928.5	82.2107	10,928.5	69.8624	10,928.5	78.4706	10,928.5	63.1244	10,928.5	70.4128	10,928.5	78.0774	10,928.5	65.3391	10,928.5	56.5102	10,928.5	72.7666	10,928.5	62.7222	10,928.5	68.5834	10,928.5	71.1308	10,928.5	54.1706	10,928.5	62.4725	10,928.5	65.2442
11,313.7	82.9224	11,313.7	89.0807	11,313.7	86.5445	11,313.7	84.9508	11,313.7	86.8859	11,313.7	74.6274	11,313.7	85.9947	11,313.7	83.9759	11,313.7	83.6899	11,313.7	91.4814	11,313.7	85.5785	11,313.7	90.0415	11,313.7	93.0776	11,313.7	91.2666	11,313.7	92.5763	11,313.7	90.6279	11,313.7	85.369	11,313.7	86.8903	11,313.7	78.816	11,313.7	83.4313	11,313.7	73.4155	11,313.7	80.0007	11,313.7	71.0855	11,313.7	77.669	11,313.7	69.7727	11,313.7	75.6576	11,313.7	79.4302	11,313.7	64.54	11,313.7	51.484	11,313.7	72.5192	11,313.7	65.5986	11,313.7	69.1007	11,313.7	71.3767	11,313.7	60.6385	11,313.7	65.9613	11,313.7	65.8482
11,712.5	86.1193	11,712.5	87.6463	11,712.5	87.0381	11,712.5	88.2353	11,712.5	85.4612	11,712.5	77.2467	11,712.5	88.4908	11,712.5	85.4576	11,712.5	85.3868	11,712.5	92.4976	11,712.5	88.4506	11,712.5	90.0763	11,712.5	93.9851	11,712.5	91.5589	11,712.5	91.7475	11,712.5	91.8892	11,712.5	87.2671	11,712.5	87.389	11,712.5	79.9139	11,712.5	85.1147	11,712.5	80.6596	11,712.5	80.1307	11,712.5	77.4048	11,712.5	77.1209	11,712.5	72.7389	11,712.5	76.5803	11,712.5	79.5191	11,712.5	64.2181	11,712.5	61.7546	11,712.5	73.1853	11,712.5	68.5144	11,712.5	71.8643	11,712.5	70.5274	11,712.5	70.2698	11,712.5	50.3338	11,712.5	66.5838
12,125.6	88.9485	12,125.6	86.7988	12,125.6	85.9038	12,125.6	90.194	12,125.6	84.4587	12,125.6	78.4912	12,125.6	89.551	12,125.6	84.7029	12,125.6	83.4521	12,125.6	92.8866	12,125.6	86.3135	12,125.6	90.8415	12,125.6	95.0051	12,125.6	91.1463	12,125.6	91.9459	12,125.6	92.4735	12,125.6	89.4593	12,125.6	87.7396	12,125.6	81.1189	12,125.6	85.7716	12,125.6	81.5044	12,125.6	79.3955	12,125.6	79.5817	12,125.6	73.8628	12,125.6	73.4404	12,125.6	79.5372	12,125.6	78.9846	12,125.6	65.1552	12,125.6	57.1623	12,125.6	74.2856	12,125.6	71.9655	12,125.6	74.3535	12,125.6	69.1077	12,125.6	70.5802	12,125.6	66.6799	12,125.6	66.9679
12,553.3	87.7326	12,553.3	87.3587	12,553.3	87.1307	12,553.3	90.1861	12,553.3	86.2832	12,553.3	74.4568	12,553.3	91.6909	12,553.3	90.3657	12,553.3	84.7112	12,553.3	90.8359	12,553.3	86.6176	12,553.3	88.2557	12,553.3	93.7582	12,553.3	92.0433	12,553.3	92.1769	12,553.3	91.4146	12,553.3	89.7215	12,553.3	85.5102	12,553.3	83.4876	12,553.3	83.6211	12,553.3	83.4555	12,553.3	77.8793	12,553.3	80.7511	12,553.3	72.3425	12,553.3	77.1671	12,553.3	79.6867	12,553.3	79.7345	12,553.3	63.5693	12,553.3	44.4741	12,553.3	73.2159	12,553.3	72.0095	12,553.3	74.0301	12,553.3	71.1492	12,553.3	70.8198	12,553.3	71.328	12,553.3	67.5846
12,996.1	85.2491	12,996.1	86.6759	12,996.1	86.1735	12,996.1	88.8264	12,996.1	85.2004	12,996.1	79.1633	12,996.1	89.9898	12,996.1	91.5088	12,996.1	85.3394	12,996.1	90.0326	12,996.1	88.4602	12,996.1	87.2716	12,996.1	94.7598	12,996.1	92.2638	12,996.1	90.9355	12,996.1	88.1928	12,996.1	90.1631	12,996.1	79.8365	12,996.1	85.5104	12,996.1	76.9289	12,996.1	85.9024	12,996.1	75.102	12,996.1	81.6477	12,996.1	67.9229	12,996.1	77.896	12,996.1	76.0279	12,996.1	81.9323	12,996.1	65.1416	12,996.1	65.2567	12,996.1	73.7319	12,996.1	71.7958	12,996.1	72.6547	12,996.1	72.2882	12,996.1	66.8148	12,996.1	66.9267	12,996.1	69.3995
13,454.2	82.4249	13,454.2	86.6455	13,454.2	86.6013	13,454.2	87.2791	13,454.2	83.3849	13,454.2	85.1937	13,454.2	89.7618	13,454.2	91.6748	13,454.2	84.6465	13,454.2	87.9055	13,454.2	91.097	13,454.2	86.4744	13,454.2	93.7364	13,454.2	91.7503	13,454.2	87.4743	13,454.2	88.2381	13,454.2	89.9522	13,454.2	79.9206	13,454.2	85.5485	13,454.2	77.4837	13,454.2	84.3718	13,454.2	73.3711	13,454.2	80.8883	13,454.2	68.7891	13,454.2	74.6927	13,454.2	74.3625	13,454.2	82.2975	13,454.2	65.2401	13,454.2	67.5501	13,454.2	69.4829	13,454.2	74.4668	13,454.2	69.4227	13,454.2	70.3128	13,454.2	67.7157	13,454.2	65.0085	13,454.2	66.5592
13,928.8	83.9785	13,928.8	84.5689	13,928.8	86.4526	13,928.8	88.0429	13,928.8	85.6792	13,928.8	84.4697	13,928.8	91.3953	13,928.8	90.2962	13,928.8	80.5368	13,928.8	86.5217	13,928.8	90.9585	13,928.8	88.9365	13,928.8	93.4431	13,928.8	91.7674	13,928.8	86.3813	13,928.8	87.2508	13,928.8	90.3031	13,928.8	76.5987	13,928.8	83.8488	13,928.8	78.0313	13,928.8	83.9796	13,928.8	74.3257	13,928.8	80.0587	13,928.8	69.2068	13,928.8	76.3278	13,928.8	72.4691	13,928.8	81.1737	13,928.8	63.2954	13,928.8	66.4924	13,928.8	69.0739	13,928.8	73.3096	13,928.8	68.5081	13,928.8	65.0694	13,928.8	67.2815	13,928.8	53.6681	13,928.8	62.8149
14,419.9	84.6357	14,419.9	83.8952	14,419.9	84.7679	14,419.9	87.6298	14,419.9	85.5245	14,419.9	81.3583	14,419.9	90.9359	14,419.9	89.9774	14,419.9	78.8085	14,419.9	84.3618	14,419.9	90.165	14,419.9	88.7056	14,419.9	92.419	14,419.9	90.033	14,419.9	82.5689	14,419.9	85.9195	14,419.9	89.1978	14,419.9	78.6576	14,419.9	82.0228	14,419.9	72.7045	14,419.9	82.2306	14,419.9	73.9687	14,419.9	76.9606	14,419.9	71.1008	14,419.9	75.2114	14,419.9	74.4039	14,419.9	77.5508	14,419.9	64.8607	14,419.9	61.0803	14,419.9	61.6375	14,419.9	70.6512	14,419.9	67.2917	14,419.9	58.6004	14,419.9	64.6402	14,419.9	58.1576	14,419.9	65.0118
14,928.6	85.1452	14,928.6	84.328	14,928.6	84.4525	14,928.6	85.7766	14,928.6	85.5463	14,928.6	80.5662	14,928.6	88.0157	14,928.6	89.28	14,928.6	80.6674	14,928.6	80.5795	14,928.6	89.09	14,928.6	88.9827	14,928.6	90.52	14,928.6	89.5369	14,928.6	81.7114	14,928.6	84.6546	14,928.6	88.87	14,928.6	75.3458	14,928.6	77.3275	14,928.6	72.5656	14,928.6	80.553	14,928.6	71.7839	14,928.6	74.3207	14,928.6	69.581	14,928.6	71.3472	14,928.6	69.4573	14,928.6	72.1276	14,928.6	65.0729	14,928.6	59.9732	14,928.6	58.882	14,928.6	66.9363	14,928.6	65.726	14,928.6	54.4154	14,928.6	60.8113	14,928.6	62.6856	14,928.6	64.6545
15,454.8	85.9722	15,454.8	82.9899	15,454.8	84.8627	15,454.8	85.7079	15,454.8	84.5671	15,454.8	81.9991	15,454.8	85.1948	15,454.8	87.9223	15,454.8	82.631	15,454.8	78.0404	15,454.8	87.5911	15,454.8	88.2826	15,454.8	87.5507	15,454.8	86.9538	15,454.8	83.8804	15,454.8	83.1975	15,454.8	89.5189	15,454.8	77.9104	15,454.8	75.7704	15,454.8	75.2075	15,454.8	78.1291	15,454.8	72.0009	15,454.8	73.821	15,454.8	66.1487	15,454.8	69.3641	15,454.8	65.6048	15,454.8	75.899	15,454.8	62.7611	15,454.8	64.0642	15,454.8	58.2826	15,454.8	66.0597	15,454.8	64.4547	15,454.8	51.7378	15,454.8	66.5893	15,454.8	64.8015	15,454.8	65.4308
16,000.1	85.0944	16,000.1	80.3454	16,000.1	83.4193	16,000.1	84.0221	16,000.1	83.956	16,000.1	80.4354	16,000.1	83.1496	16,000.1	84.216	16,000.1	81.4122	16,000.1	78.8491	16,000.1	85.6819	16,000.1	84.9036	16,000.1	83.3431	16,000.1	77.0491	16,000.1	83.6365	16,000.1	78.2909	16,000.1	87.7027	16,000.1	71.6087	16,000.1	68.2828	16,000.1	69.4417	16,000.1	77.1353	16,000.1	67.3758	16,000.1	72.4267	16,000.1	62.8004	16,000.1	69.0944	16,000.1	61.3924	16,000.1	75.3941	16,000.1	57.6706	16,000.1	63.977	16,000.1	55.857	16,000.1	66.7604	16,000.1	61.2027	16,000.1	40.0763	16,000.1	65.4257	16,000.1	61.2177	16,000.1	60.8352
16,564.1	81.5575	16,564.1	78.1	16,564.1	80.4916	16,564.1	80.1079	16,564.1	80.426	16,564.1	78.2301	16,564.1	81.1347	16,564.1	76.8488	16,564.1	78.6246	16,564.1	76.3462	16,564.1	84.1948	16,564.1	78.9663	16,564.1	82.9598	16,564.1	70.8986	16,564.1	81.9818	16,564.1	74.9135	16,564.1	86.7429	16,564.1	61.5573	16,564.1	71.8811	16,564.1	65.8912	16,564.1	75.4567	16,564.1	64.6625	16,564.1	68.8183	16,564.1	56.3408	16,564.1	67.7013	16,564.1	58.1265	16,564.1	72.8663	16,564.1	61.4562	16,564.1	61.084	16,564.1	53.7821	16,564.1	66.4255	16,564.1	54.2877	16,564.1	56.0957	16,564.1	63.8207	16,564.1	56.1154	16,564.1	52.2115
17,148.2	76.5498	17,148.2	72.4761	17,148.2	76.0223	17,148.2	77.4266	17,148.2	76.7928	17,148.2	76.9812	17,148.2	77.1708	17,148.2	68.7194	17,148.2	78.0293	17,148.2	78.9503	17,148.2	79.6349	17,148.2	76.6695	17,148.2	83.1997	17,148.2	71.1612	17,148.2	82.5451	17,148.2	79.4703	17,148.2	86.7852	17,148.2	56.6716	17,148.2	76.8006	17,148.2	68.3763	17,148.2	77.2919	17,148.2	66.9831	17,148.2	69.3635	17,148.2	53.6232	17,148.2	69.9656	17,148.2	61.36	17,148.2	72.3437	17,148.2	62.4005	17,148.2	56.5725	17,148.2	61.9579	17,148.2	67.2527	17,148.2	62.9624	17,148.2	62.816	17,148.2	67.9763	17,148.2	55.0324	17,148.2	59.3423
17,753.2	73.7427	17,753.2	76.8336	17,753.2	74.3134	17,753.2	74.0766	17,753.2	77.1332	17,753.2	78.6577	17,753.2	68.0925	17,753.2	75.6342	17,753.2	79.0593	17,753.2	82.4623	17,753.2	71.4667	17,753.2	84.0198	17,753.2	82.0896	17,753.2	81.5651	17,753.2	77.3594	17,753.2	82.0937	17,753.2	84.7984	17,753.2	67.1848	17,753.2	74.4846	17,753.2	71.7441	17,753.2	77.4707	17,753.2	69.4717	17,753.2	69.9502	17,753.2	65.2226	17,753.2	68.2818	17,753.2	47.1172	17,753.2	71.6237	17,753.2	54.0308	17,753.2	56.7835	17,753.2	62.1549	17,753.2	63.0803	17,753.2	62.7328	17,753.2	62.4757	17,753.2	68.0596	17,753.2	57.0194	17,753.2	62.2076
18,379	76.9364	18,379	80.1194	18,379	78.8927	18,379	70.5669	18,379	78.2373	18,379	79.1269	18,379	73.9536	18,379	74.0529	18,379	74.4725	18,379	80.7628	18,379	72.252	18,379	82.8316	18,379	82.0314	18,379	79.7766	18,379	75.7633	18,379	82.1138	18,379	79.3079	18,379	73.9271	18,379	70.6276	18,379	73.0765	18,379	72.7585	18,379	70.4898	18,379	65.7647	18,379	64.0815	18,379	65.8141	18,379	60.0762	18,379	67.4359	18,379	50.3679	18,379	52.1521	18,379	57.1373	18,379	55.7794	18,379	59.3135	18,379	59.5616	18,379	64.3795	18,379	49.7955	18,379	60.2662
19,027.2	78.5487	19,027.2	78.9623	19,027.2	78.9395	19,027.2	74.9652	19,027.2	80.3804	19,027.2	79.2426	19,027.2	72.6782	19,027.2	72.7917	19,027.2	74.969	19,027.2	77.6033	19,027.2	72.098	19,027.2	81.7106	19,027.2	76.7164	19,027.2	74.9501	19,027.2	72.7091	19,027.2	82.1699	19,027.2	77.4109	19,027.2	76.3384	19,027.2	71.4935	19,027.2	71.3515	19,027.2	62.8719	19,027.2	65.2849	19,027.2	56.4087	19,027.2	59.9754	19,027.2	60.5926	19,027.2	60.6532	19,027.2	59.9668	19,027.2	56.8567	19,027.2	43.7446	19,027.2	57.5206	19,027.2	48.8583	19,027.2	51.9761	19,027.2	55.7017	19,027.2	58.9573	19,027.2	57.444	19,027.2	53.912
19,698.5	80.9589	19,698.5	82.307	19,698.5	78.4171	19,698.5	74.2116	19,698.5	82.7986	19,698.5	81.486	19,698.5	67.703	19,698.5	71.9372	19,698.5	79.6862	19,698.5	77.2039	19,698.5	53.6768	19,698.5	81.4137	19,698.5	79.2944	19,698.5	73.5619	19,698.5	78.7451	19,698.5	80.3888	19,698.5	80.0687	19,698.5	74.842	19,698.5	75.5033	19,698.5	68.2701	19,698.5	65.8841	19,698.5	63.7052	19,698.5	53.5719	19,698.5	59.5327	19,698.5	57.587	19,698.5	62.5783	19,698.5	64.9673	19,698.5	59.9751	19,698.5	53.7581	19,698.5	59.0124	19,698.5	60.9553	19,698.5	46.0669	19,698.5	58.2368	19,698.5	43.1471	19,698.5	59.9964	19,698.5	46.7916
19,999.9	81.2638	19,999.9	83.2408	19,999.9	80.0346	19,999.9	77.3368	19,999.9	82.8569	19,999.9	81.4217	19,999.9	66.1066	19,999.9	74.4572	19,999.9	78.6279	19,999.9	77.3418	19,999.9	70.8709	19,999.9	80.8992	19,999.9	81.6517	19,999.9	75.7435	19,999.9	79.8295	19,999.9	79.0657	19,999.9	82.3937	19,999.9	74.951	19,999.9	76.493	19,999.9	69.3444	19,999.9	65.4703	19,999.9	62.7684	19,999.9	59.3754	19,999.9	61.4768	19,999.9	62.6626	19,999.9	65.8725	19,999.9	70.641	19,999.9	61.9798	19,999.9	63.1595	19,999.9	61.5646	19,999.9	66.6864	19,999.9	50.3752	19,999.9	61.6677	19,999.9	49.1823	19,999.9	63.4615	19,999.9	57.8707
