"SPL Horizontal"
"On-Axis"		"10°"		"-10°"		"20°"		"-20°"		"30°"		"-30°"		"40°"		"-40°"		"50°"		"-50°"		"60°"		"-60°"		"70°"		"-70°"		"80°"		"-80°"		"90°"		"-90°"		"100°"		"-100°"		"110°"		"-110°"		"120°"		"-120°"		"130°"		"-130°"		"140°"		"-140°"		"150°"		"-150°"		"160°"		"-160°"		"170°"		"-170°"		"180°"
"Frequency / Hz"	"Sound Pressure Level / dB (re 20 µPa/V)  [2.83  V @ 1. m]"	"Frequency / Hz"	"Sound Pressure Level / dB (re 20 µPa/V)  [2.83  V @ 1. m]"	"Frequency / Hz"	"Sound Pressure Level / dB (re 20 µPa/V)  [2.83  V @ 1. m]"	"Frequency / Hz"	"Sound Pressure Level / dB (re 20 µPa/V)  [2.83  V @ 1. m]"	"Frequency / Hz"	"Sound Pressure Level / dB (re 20 µPa/V)  [2.83  V @ 1. m]"	"Frequency / Hz"	"Sound Pressure Level / dB (re 20 µPa/V)  [2.83  V @ 1. m]"	"Frequency / Hz"	"Sound Pressure Level / dB (re 20 µPa/V)  [2.83  V @ 1. m]"	"Frequency / Hz"	"Sound Pressure Level / dB (re 20 µPa/V)  [2.83  V @ 1. m]"	"Frequency / Hz"	"Sound Pressure Level / dB (re 20 µPa/V)  [2.83  V @ 1. m]"	"Frequency / Hz"	"Sound Pressure Level / dB (re 20 µPa/V)  [2.83  V @ 1. m]"	"Frequency / Hz"	"Sound Pressure Level / dB (re 20 µPa/V)  [2.83  V @ 1. m]"	"Frequency / Hz"	"Sound Pressure Level / dB (re 20 µPa/V)  [2.83  V @ 1. m]"	"Frequency / Hz"	"Sound Pressure Level / dB (re 20 µPa/V)  [2.83  V @ 1. m]"	"Frequency / Hz"	"Sound Pressure Level / dB (re 20 µPa/V)  [2.83  V @ 1. m]"	"Frequency / Hz"	"Sound Pressure Level / dB (re 20 µPa/V)  [2.83  V @ 1. m]"	"Frequency / Hz"	"Sound Pressure Level / dB (re 20 µPa/V)  [2.83  V @ 1. m]"	"Frequency / Hz"	"Sound Pressure Level / dB (re 20 µPa/V)  [2.83  V @ 1. m]"	"Frequency / Hz"	"Sound Pressure Level / dB (re 20 µPa/V)  [2.83  V @ 1. m]"	"Frequency / Hz"	"Sound Pressure Level / dB (re 20 µPa/V)  [2.83  V @ 1. m]"	"Frequency / Hz"	"Sound Pressure Level / dB (re 20 µPa/V)  [2.83  V @ 1. m]"	"Frequency / Hz"	"Sound Pressure Level / dB (re 20 µPa/V)  [2.83  V @ 1. m]"	"Frequency / Hz"	"Sound Pressure Level / dB (re 20 µPa/V)  [2.83  V @ 1. m]"	"Frequency / Hz"	"Sound Pressure Level / dB (re 20 µPa/V)  [2.83  V @ 1. m]"	"Frequency / Hz"	"Sound Pressure Level / dB (re 20 µPa/V)  [2.83  V @ 1. m]"	"Frequency / Hz"	"Sound Pressure Level / dB (re 20 µPa/V)  [2.83  V @ 1. m]"	"Frequency / Hz"	"Sound Pressure Level / dB (re 20 µPa/V)  [2.83  V @ 1. m]"	"Frequency / Hz"	"Sound Pressure Level / dB (re 20 µPa/V)  [2.83  V @ 1. m]"	"Frequency / Hz"	"Sound Pressure Level / dB (re 20 µPa/V)  [2.83  V @ 1. m]"	"Frequency / Hz"	"Sound Pressure Level / dB (re 20 µPa/V)  [2.83  V @ 1. m]"	"Frequency / Hz"	"Sound Pressure Level / dB (re 20 µPa/V)  [2.83  V @ 1. m]"	"Frequency / Hz"	"Sound Pressure Level / dB (re 20 µPa/V)  [2.83  V @ 1. m]"	"Frequency / Hz"	"Sound Pressure Level / dB (re 20 µPa/V)  [2.83  V @ 1. m]"	"Frequency / Hz"	"Sound Pressure Level / dB (re 20 µPa/V)  [2.83  V @ 1. m]"	"Frequency / Hz"	"Sound Pressure Level / dB (re 20 µPa/V)  [2.83  V @ 1. m]"	"Frequency / Hz"	"Sound Pressure Level / dB (re 20 µPa/V)  [2.83  V @ 1. m]"	"Frequency / Hz"	"Sound Pressure Level / dB (re 20 µPa/V)  [2.83  V @ 1. m]"
20.5078	40.1092	20.5078	40.0383	20.5078	40.211	20.5078	40.0001	20.5078	40.3476	20.5078	40.004	20.5078	40.5279	20.5078	40.0675	20.5078	40.7645	20.5078	40.2157	20.5078	41.0713	20.5078	40.4752	20.5078	41.4587	20.5078	40.8642	20.5078	41.929	20.5078	41.3827	20.5078	42.4724	20.5078	42.0085	20.5078	43.0678	20.5078	42.7026	20.5078	43.6869	20.5078	43.4199	20.5078	44.2991	20.5078	44.1177	20.5078	44.8753	20.5078	44.7619	20.5078	45.3911	20.5078	45.3267	20.5078	45.8266	20.5078	45.7945	20.5078	46.1667	20.5078	46.1534	20.5078	46.4	20.5078	46.3958	20.5078	46.5186	20.5078	46.5179
21.9727	38.9974	21.9727	38.9038	21.9727	39.0963	21.9727	38.8251	21.9727	39.2001	21.9727	38.7813	21.9727	39.318	21.9727	38.8022	21.9727	39.4682	21.9727	38.925	21.9727	39.6762	21.9727	39.185	21.9727	39.97	21.9727	39.6034	21.9727	40.3709	21.9727	40.1761	21.9727	40.8847	21.9727	40.8728	21.9727	41.4967	21.9727	41.6457	21.9727	42.1748	21.9727	42.4421	21.9727	42.878	21.9727	43.2145	21.9727	43.5646	21.9727	43.9242	21.9727	44.1981	21.9727	44.5418	21.9727	44.7489	21.9727	45.0463	21.9727	45.1945	21.9727	45.4227	21.9727	45.5181	21.9727	45.6612	21.9727	45.7079	21.9727	45.7566
23.4375	41.2449	23.4375	41.1942	23.4375	41.2726	23.4375	41.1261	23.4375	41.2831	23.4375	41.0577	23.4375	41.2935	23.4375	41.0184	23.4375	41.3329	23.4375	41.048	23.4375	41.4403	23.4375	41.1903	23.4375	41.6572	23.4375	41.481	23.4375	42.0144	23.4375	41.933	23.4375	42.518	23.4375	42.5301	23.4375	43.1445	23.4375	43.2307	23.4375	43.8483	23.4375	43.982	23.4375	44.5758	23.4375	44.7317	23.4375	45.278	23.4375	45.4358	23.4375	45.9154	23.4375	46.0604	23.4375	46.4588	23.4375	46.5809	23.4375	46.8875	23.4375	46.9796	23.4375	47.1875	23.4375	47.2446	23.4375	47.3496	23.4375	47.369
24.9023	42.4875	24.9023	42.3974	24.9023	42.5234	24.9023	42.2527	24.9023	42.5152	24.9023	42.0644	24.9023	42.4831	24.9023	41.8581	24.9023	42.4585	24.9023	41.6785	24.9023	42.4826	24.9023	41.5894	24.9023	42.6014	24.9023	41.663	24.9023	42.8529	24.9023	41.9545	24.9023	43.2528	24.9023	42.473	24.9023	43.7868	24.9023	43.1735	24.9023	44.4148	24.9023	43.9779	24.9023	45.0853	24.9023	44.8054	24.9023	45.7473	24.9023	45.5905	24.9023	46.3583	24.9023	46.2874	24.9023	46.8852	24.9023	46.8665	24.9023	47.3034	24.9023	47.3097	24.9023	47.595	24.9023	47.6066	24.9023	47.7474	24.9023	47.7526
26.3672	41.1641	26.3672	41.1256	26.3672	41.153	26.3672	41.0445	26.3672	41.1063	26.3672	40.9502	26.3672	41.0596	26.3672	40.8965	26.3672	41.0702	26.3672	40.9579	26.3672	41.21	26.3672	41.2112	26.3672	41.5445	26.3672	41.7034	26.3672	42.1032	26.3672	42.4242	26.3672	42.8619	26.3672	43.3107	26.3672	43.7545	26.3672	44.2775	26.3672	44.7014	26.3672	45.2465	26.3672	45.6331	26.3672	46.1593	26.3672	46.4986	26.3672	46.9767	26.3672	47.2634	26.3672	47.6741	26.3672	47.9053	26.3672	48.2355	26.3672	48.4098	26.3672	48.6512	26.3672	48.7678	26.3672	48.9147	26.3672	48.9731	26.3672	49.0224
27.832	44.4399	27.832	44.3681	27.832	44.4478	27.832	44.2366	27.832	44.399	27.832	44.0633	27.832	44.3135	27.832	43.882	27.832	44.2251	27.832	43.7453	27.832	44.1822	27.832	43.7208	27.832	44.2418	27.832	43.8755	27.832	44.456	27.832	44.2483	27.832	44.8509	27.832	44.8284	27.832	45.4136	27.832	45.5597	27.832	46.0968	27.832	46.3652	27.832	46.8367	27.832	47.1722	27.832	47.5717	27.832	47.9247	27.832	48.252	27.832	48.5837	27.832	48.8413	27.832	49.1236	27.832	49.3143	27.832	49.528	27.832	49.654	27.832	49.7868	27.832	49.8494	27.832	49.8944
29.2969	44.8987	29.2969	44.8478	29.2969	44.8851	29.2969	44.7365	29.2969	44.8181	29.2969	44.5865	29.2969	44.7257	29.2969	44.4393	29.2969	44.6535	29.2969	44.3578	29.2969	44.6624	29.2969	44.4182	29.2969	44.8172	29.2969	44.6868	29.2969	45.1645	29.2969	45.1885	29.2969	45.7101	29.2969	45.8919	29.2969	46.4154	29.2969	46.7243	29.2969	47.2147	29.2969	47.6034	29.2969	48.0388	29.2969	48.4596	29.2969	48.8298	29.2969	49.2427	29.2969	49.5452	29.2969	49.9193	29.2969	50.1558	29.2969	50.4683	29.2969	50.6418	29.2969	50.8761	29.2969	50.9898	29.2969	51.1348	29.2969	51.191	29.2969	51.24
30.7617	44.5083	30.7617	44.4666	30.7617	44.4919	30.7617	44.3783	30.7617	44.4288	30.7617	44.278	30.7617	44.3535	30.7617	44.2247	30.7617	44.3249	30.7617	44.2958	30.7617	44.4195	30.7617	44.5663	30.7617	44.7108	30.7617	45.076	30.7617	45.2366	30.7617	45.8068	30.7617	45.9771	30.7617	46.6922	30.7617	46.8649	30.7617	47.6483	30.7617	47.8167	30.7617	48.601	30.7617	48.7588	30.7617	49.495	30.7617	49.6375	30.7617	50.2934	30.7617	50.4167	30.7617	50.9724	30.7617	51.0736	30.7617	51.5163	30.7617	51.5937	30.7617	51.9152	30.7617	51.9673	30.7617	52.1623	30.7617	52.1885	30.7617	52.2539
32.2266	45.8947	32.2266	45.864	32.2266	45.8742	32.2266	45.789	32.2266	45.8138	32.2266	45.6955	32.2266	45.7431	32.2266	45.6303	32.2266	45.7109	32.2266	45.6577	32.2266	45.7799	32.2266	45.8466	32.2266	46.0129	32.2266	46.2453	32.2266	46.4482	32.2266	46.8563	32.2266	47.0803	32.2266	47.6342	32.2266	47.861	32.2266	48.5063	32.2266	48.7208	32.2266	49.3992	32.2266	49.5913	32.2266	50.2533	32.2266	50.418	32.2266	51.0261	32.2266	51.1615	32.2266	51.6888	32.2266	51.7951	32.2266	52.2226	32.2266	52.3008	32.2266	52.6151	32.2266	52.6664	32.2266	52.8585	32.2266	52.8839	32.2266	52.9485
33.6914	47.4167	33.6914	47.4074	33.6914	47.3681	33.6914	47.3436	33.6914	47.274	33.6914	47.2455	33.6914	47.1632	33.6914	47.1512	33.6914	47.082	33.6914	47.1175	33.6914	47.0919	33.6914	47.2116	33.6914	47.2564	33.6914	47.4916	33.6914	47.6191	33.6914	47.9805	33.6914	48.1827	33.6914	48.6533	33.6914	48.9056	33.6914	49.4481	33.6914	49.7208	33.6914	50.2914	33.6914	50.5591	33.6914	51.1178	33.6914	51.3627	33.6914	51.8781	33.6914	52.0894	33.6914	52.5381	33.6914	52.7101	33.6914	53.075	33.6914	53.205	33.6914	53.4739	33.6914	53.5608	33.6914	53.7254	33.6914	53.7689	33.6914	53.8243
35.1562	48.2832	35.1562	48.2536	35.1562	48.2641	35.1562	48.1824	35.1562	48.2055	35.1562	48.0939	35.1562	48.1336	35.1562	48.0308	35.1562	48.092	35.1562	48.0511	35.1562	48.1383	35.1562	48.2177	35.1562	48.3323	35.1562	48.5765	35.1562	48.7147	35.1562	49.1345	35.1562	49.2882	35.1562	49.855	35.1562	50.014	35.1562	50.6736	35.1562	50.8285	35.1562	51.5212	35.1562	51.6653	35.1562	52.3394	35.1562	52.4682	35.1562	53.085	35.1562	53.1956	35.1562	53.728	35.1562	53.8184	35.1562	54.248	35.1562	54.3169	35.1562	54.6315	35.1562	54.678	35.1562	54.8697	35.1562	54.8931	35.1562	54.9575
36.6211	49.6606	36.6211	49.6371	36.6211	49.6268	36.6211	49.5617	36.6211	49.5436	36.6211	49.4545	36.6211	49.4336	36.6211	49.3519	36.6211	49.3356	36.6211	49.3069	36.6211	49.3048	36.6211	49.3828	36.6211	49.404	36.6211	49.6351	36.6211	49.6853	36.6211	50.0878	36.6211	50.1665	36.6211	50.7197	36.6211	50.8204	36.6211	51.4737	36.6211	51.5868	36.6211	52.2796	36.6211	52.3953	36.6211	53.0735	36.6211	53.1837	36.6211	53.8061	36.6211	53.9047	36.6211	54.4426	36.6211	54.5254	36.6211	54.9596	36.6211	55.0237	36.6211	55.3417	36.6211	55.3853	36.6211	55.579	36.6211	55.601	36.6211	55.6661
38.0859	51.0498	38.0859	51.0179	38.0859	51.0198	38.0859	50.9284	38.0859	50.9363	38.0859	50.7989	38.0859	50.821	38.0859	50.6629	38.0859	50.711	38.0859	50.5713	38.0859	50.6585	38.0859	50.5882	38.0859	50.7246	38.0859	50.7744	38.0859	50.9624	38.0859	51.1638	38.0859	51.3948	38.0859	51.7447	38.0859	52.0017	38.0859	52.4644	38.0859	52.728	38.0859	53.252	38.0859	53.5054	38.0859	54.0396	38.0859	54.2707	38.0859	54.7741	38.0859	54.9745	38.0859	55.4173	38.0859	55.582	38.0859	55.9435	38.0859	56.0692	38.0859	56.3359	38.0859	56.4206	38.0859	56.5839	38.0859	56.6265	38.0859	56.6814
39.5508	52.0352	39.5508	51.9966	39.5508	52.0072	39.5508	51.8957	39.5508	51.9203	39.5508	51.7499	39.5508	51.7951	39.5508	51.5927	39.5508	51.6673	39.5508	51.4751	39.5508	51.5888	39.5508	51.463	39.5508	51.6224	39.5508	51.6209	39.5508	51.8257	39.5508	51.9874	39.5508	52.2279	39.5508	52.5541	39.5508	52.8139	39.5508	53.2686	39.5508	53.53	39.5508	54.0574	39.5508	54.3059	39.5508	54.8502	39.5508	55.0752	39.5508	55.591	39.5508	55.7857	39.5508	56.2405	39.5508	56.4004	39.5508	56.7721	39.5508	56.8942	39.5508	57.1683	39.5508	57.2508	39.5508	57.4184	39.5508	57.46	39.5508	57.5164
41.0156	52.0726	41.0156	52.0137	41.0156	52.0432	41.0156	51.8704	41.0156	51.9361	41.0156	51.6634	41.0156	51.7777	41.0156	51.4349	41.0156	51.6147	41.0156	51.2542	41.0156	51.5161	41.0156	51.2134	41.0156	51.5646	41.0156	51.4022	41.0156	51.8316	41.0156	51.8649	41.0156	52.3417	41.0156	52.5722	41.0156	53.0574	41.0156	53.4388	41.0156	53.8991	41.0156	54.3657	41.0156	54.78	41.0156	55.2712	41.0156	55.6285	41.0156	56.0986	41.0156	56.3947	41.0156	56.8118	41.0156	57.0459	41.0156	57.3888	41.0156	57.562	41.0156	57.8163	41.0156	57.9303	41.0156	58.0865	41.0156	58.1431	41.0156	58.1958
42.4805	53.9111	42.4805	53.8777	42.4805	53.8964	42.4805	53.8023	42.4805	53.841	42.4805	53.7047	42.4805	53.7656	42.4805	53.62	42.4805	53.7044	42.4805	53.597	42.4805	53.7036	42.4805	53.6909	42.4805	53.8137	42.4805	53.947	42.4805	54.0753	42.4805	54.3817	42.4805	54.5031	42.4805	54.974	42.4805	55.0779	42.4805	55.6732	42.4805	55.7542	42.4805	56.4178	42.4805	56.4756	42.4805	57.1508	42.4805	57.1887	42.4805	57.8273	42.4805	57.8501	42.4805	58.4148	42.4805	58.4272	42.4805	58.8908	42.4805	58.8969	42.4805	59.2404	42.4805	59.2429	42.4805	59.4537	42.4805	59.4545	42.4805	59.5256
43.9453	55.1164	43.9453	55.0937	43.9453	55.0918	43.9453	55.0285	43.9453	55.0267	43.9453	54.9386	43.9453	54.9402	43.9453	54.855	43.9453	54.8643	43.9453	54.8215	43.9453	54.8424	43.9453	54.8887	43.9453	54.9235	43.9453	55.1008	43.9453	55.1486	43.9453	55.479	43.9453	55.5357	43.9453	56.0105	43.9453	56.0704	43.9453	56.6534	43.9453	56.7111	43.9453	57.3512	43.9453	57.4031	43.9453	58.0486	43.9453	58.093	43.9453	58.6999	43.9453	58.7364	43.9453	59.2707	43.9453	59.2996	43.9453	59.7367	43.9453	59.7583	43.9453	60.0813	43.9453	60.0957	43.9453	60.2936	43.9453	60.3008	43.9453	60.3675
45.4102	56.2878	45.4102	56.2659	45.4102	56.2647	45.4102	56.204	45.4102	56.2025	45.4102	56.1182	45.4102	56.1183	45.4102	56.0369	45.4102	56.0408	45.4102	55.9995	45.4102	56.0095	45.4102	56.0521	45.4102	56.0697	45.4102	56.236	45.4102	56.2612	45.4102	56.5733	45.4102	56.6045	45.4102	57.0568	45.4102	57.0909	45.4102	57.6512	45.4102	57.6851	45.4102	58.3057	45.4102	58.337	45.4102	58.9676	45.4102	58.9947	45.4102	59.5914	45.4102	59.6138	45.4102	60.1419	45.4102	60.1595	45.4102	60.5933	45.4102	60.6063	45.4102	60.9279	45.4102	60.9365	45.4102	61.1339	45.4102	61.1381	45.4102	61.2047
46.875	57.562	46.875	57.5384	46.875	57.5401	46.875	57.4732	46.875	57.4786	46.875	57.3807	46.875	57.3936	46.875	57.2862	46.875	57.3117	46.875	57.2264	46.875	57.2699	46.875	57.2457	46.875	57.3107	46.875	57.3865	46.875	57.4731	46.875	57.6757	46.875	57.7794	46.875	58.1128	46.875	58.2254	46.875	58.6681	46.875	58.7807	46.875	59.2936	46.875	59.3986	46.875	59.9362	46.875	60.0289	46.875	60.5488	46.875	60.6267	46.875	61.094	46.875	61.1562	46.875	61.5442	46.875	61.5905	46.875	61.8802	46.875	61.911	46.875	62.0896	46.875	62.1049	46.875	62.1652
48.3398	59.0207	48.3398	58.9968	48.3398	59.0025	48.3398	58.935	48.3398	58.9474	48.3398	58.8493	48.3398	58.87	48.3398	58.7639	48.3398	58.7951	48.3398	58.7136	48.3398	58.7565	48.3398	58.7392	48.3398	58.794	48.3398	58.8796	48.3398	58.9441	48.3398	59.159	48.3398	59.229	48.3398	59.5764	48.3398	59.6472	48.3398	60.105	48.3398	60.1721	48.3398	60.7003	48.3398	60.7609	48.3398	61.3132	48.3398	61.3659	48.3398	61.899	48.3398	61.9432	48.3398	62.4215	48.3398	62.457	48.3398	62.8537	48.3398	62.8805	48.3398	63.1762	48.3398	63.1942	48.3398	63.3765	48.3398	63.3855	48.3398	63.447
51.2695	62.302	51.2695	62.2914	51.2695	62.2801	51.2695	62.2519	51.2695	62.23	51.2695	62.1944	51.2695	62.1634	51.2695	62.1375	51.2695	62.0998	51.2695	62.107	51.2695	62.0658	51.2695	62.1331	51.2695	62.0927	51.2695	62.245	51.2695	62.21	51.2695	62.4629	51.2695	62.4377	51.2695	62.791	51.2695	62.7783	51.2695	63.2143	51.2695	63.2152	51.2695	63.7029	51.2695	63.7159	51.2695	64.2185	51.2695	64.2407	51.2695	64.7226	51.2695	64.7502	51.2695	65.1812	51.2695	65.2098	51.2695	65.5667	51.2695	65.5923	51.2695	65.8581	51.2695	65.8773	51.2695	66.041	51.2695	66.0512	51.2695	66.1065
52.7344	63.8794	52.7344	63.8668	52.7344	63.8585	52.7344	63.8235	52.7344	63.8079	52.7344	63.7591	52.7344	63.7381	52.7344	63.69	52.7344	63.6667	52.7344	63.6395	52.7344	63.6177	52.7344	63.6357	52.7344	63.6201	52.7344	63.7075	52.7344	63.7023	52.7344	63.8771	52.7344	63.8857	52.7344	64.1531	52.7344	64.1765	52.7344	64.526	52.7344	64.5629	52.7344	64.9702	52.7344	65.017	52.7344	65.4498	52.7344	65.502	52.7344	65.9267	52.7344	65.9793	52.7344	66.3659	52.7344	66.4141	52.7344	66.7384	52.7344	66.7783	52.7344	67.0221	52.7344	67.0505	52.7344	67.2015	52.7344	67.2163	52.7344	67.2674
54.1992	65.1358	54.1992	65.124	54.1992	65.1143	54.1992	65.0816	54.1992	65.0633	54.1992	65.0176	54.1992	64.9929	54.1992	64.9478	54.1992	64.9198	54.1992	64.8944	54.1992	64.8676	54.1992	64.8843	54.1992	64.8638	54.1992	64.9458	54.1992	64.9365	54.1992	65.101	54.1992	65.1064	54.1992	65.3595	54.1992	65.3808	54.1992	65.7136	54.1992	65.7489	54.1992	66.1392	54.1992	66.1848	54.1992	66.6021	54.1992	66.6528	54.1992	67.0647	54.1992	67.1154	54.1992	67.4923	54.1992	67.5385	54.1992	67.8558	54.1992	67.8939	54.1992	68.1331	54.1992	68.1601	54.1992	68.3085	54.1992	68.3225	54.1992	68.3728
55.6641	66.4018	55.6641	66.389	55.6641	66.3847	55.6641	66.3488	55.6641	66.3412	55.6641	66.2894	55.6641	66.2805	55.6641	66.2253	55.6641	66.2184	55.6641	66.1768	55.6641	66.1759	55.6641	66.1685	55.6641	66.1781	55.6641	66.2259	55.6641	66.2499	55.6641	66.3696	55.6641	66.4103	55.6641	66.6088	55.6641	66.6658	55.6641	66.9376	55.6641	67.0077	55.6641	67.335	55.6641	67.4128	55.6641	67.7697	55.6641	67.8493	55.6641	68.207	55.6641	68.2825	55.6641	68.6135	55.6641	68.6799	55.6641	68.9612	55.6641	69.0144	55.6641	69.2279	55.6641	69.265	55.6641	69.3981	55.6641	69.4171	55.6641	69.4623
58.5938	68.4849	58.5938	68.468	58.5938	68.4718	58.5938	68.4236	58.5938	68.4313	58.5938	68.3593	58.5938	68.3714	58.5938	68.288	58.5938	68.3054	58.5938	68.2276	58.5938	68.2519	58.5938	68.2001	58.5938	68.2333	58.5938	68.2285	58.5938	68.2729	58.5938	68.3329	58.5938	68.3898	58.5938	68.5244	58.5938	68.5938	58.5938	68.8008	58.5938	68.8809	58.5938	69.1461	58.5938	69.2333	58.5938	69.5337	58.5938	69.623	58.5938	69.9315	58.5938	70.0173	58.5938	70.3074	58.5938	70.3842	58.5938	70.6331	58.5938	70.6957	58.5938	70.8858	58.5938	70.9301	58.5938	71.0489	58.5938	71.0718	58.5938	71.1122
60.0586	69.6052	60.0586	69.5894	60.0586	69.5925	60.0586	69.5471	60.0586	69.5541	60.0586	69.4854	60.0586	69.4976	60.0586	69.4161	60.0586	69.4357	60.0586	69.3562	60.0586	69.386	60.0586	69.3262	60.0586	69.3691	60.0586	69.348	60.0586	69.4065	60.0586	69.4405	60.0586	69.5158	60.0586	69.6149	60.0586	69.7059	60.0586	69.8703	60.0586	69.9735	60.0586	70.1927	60.0586	70.3026	60.0586	70.5576	60.0586	70.6674	60.0586	70.9348	60.0586	71.0378	60.0586	71.2933	60.0586	71.3835	60.0586	71.6055	60.0586	71.6778	60.0586	71.8488	60.0586	71.8992	60.0586	72.0069	60.0586	72.0327	60.0586	72.0694
62.9883	71.49	62.9883	71.4689	62.9883	71.4909	62.9883	71.4295	62.9883	71.4739	62.9883	71.3777	62.9883	71.4452	62.9883	71.3236	62.9883	71.415	62.9883	71.2813	62.9883	71.3967	62.9883	71.2677	62.9883	71.4062	62.9883	71.3004	62.9883	71.4594	62.9883	71.3946	62.9883	71.5694	62.9883	71.5589	62.9883	71.7428	62.9883	71.7926	62.9883	71.9777	62.9883	72.0839	62.9883	72.2623	62.9883	72.4125	62.9883	72.5769	62.9883	72.7525	62.9883	72.8972	62.9883	73.077	62.9883	73.1975	62.9883	73.3611	62.9883	73.4541	62.9883	73.584	62.9883	73.6473	62.9883	73.7305	62.9883	73.7626	62.9883	73.7912
64.4531	72.2855	64.4531	72.2639	64.4531	72.2904	64.4531	72.2278	64.4531	72.2799	64.4531	72.1828	64.4531	72.2587	64.4531	72.138	64.4531	72.2352	64.4531	72.1054	64.4531	72.2205	64.4531	72.0994	64.4531	72.2281	64.4531	72.1345	64.4531	72.272	64.4531	72.2233	64.4531	72.3642	64.4531	72.3728	64.4531	72.5121	64.4531	72.5824	64.4531	72.7154	64.4531	72.8427	64.4531	72.9656	64.4531	73.1364	64.4531	73.2463	64.4531	73.4413	64.4531	73.536	64.4531	73.7332	64.4531	73.811	64.4531	73.9892	64.4531	74.0489	64.4531	74.1899	64.4531	74.2304	64.4531	74.3205	64.4531	74.341	64.4531	74.372
67.3828	73.5775	67.3828	73.5664	67.3828	73.5736	67.3828	73.5421	67.3828	73.5562	67.3828	73.509	67.3828	73.5294	67.3828	73.4742	67.3828	73.5003	67.3828	73.4476	67.3828	73.4785	67.3828	73.4408	67.3828	73.4757	67.3828	73.4661	67.3828	73.504	67.3828	73.5345	67.3828	73.5744	67.3828	73.6533	67.3828	73.6941	67.3828	73.8234	67.3828	73.8639	67.3828	74.0387	67.3828	74.0777	67.3828	74.2857	67.3828	74.3221	67.3828	74.5456	67.3828	74.5782	67.3828	74.7971	67.3828	74.8249	67.3828	75.0191	67.3828	75.0411	67.3828	75.1933	67.3828	75.2086	67.3828	75.3054	67.3828	75.3132	67.3828	75.3464
68.8477	74.4002	68.8477	74.3902	68.8477	74.3968	68.8477	74.3682	68.8477	74.3811	68.8477	74.3383	68.8477	74.3569	68.8477	74.307	68.8477	74.3304	68.8477	74.2831	68.8477	74.3103	68.8477	74.2771	68.8477	74.3072	68.8477	74.3	68.8477	74.3321	68.8477	74.3618	68.8477	74.3951	68.8477	74.4692	68.8477	74.503	68.8477	74.6236	68.8477	74.6573	68.8477	74.8199	68.8477	74.8526	68.8477	75.0463	68.8477	75.0773	68.8477	75.286	68.8477	75.3144	68.8477	75.5193	68.8477	75.544	68.8477	75.7263	68.8477	75.7462	68.8477	75.8894	68.8477	75.9034	68.8477	75.9946	68.8477	76.0018	68.8477	76.0331
71.7773	75.9941	71.7773	75.9846	71.7773	75.994	71.7773	75.9665	71.7773	75.9851	71.7773	75.9433	71.7773	75.9705	71.7773	75.92	71.7773	75.9551	71.7773	75.9037	71.7773	75.946	71.7773	75.9025	71.7773	75.9511	71.7773	75.9253	71.7773	75.9793	71.7773	75.9801	71.7773	76.0382	71.7773	76.0723	71.7773	76.1333	71.7773	76.2037	71.7773	76.2659	71.7773	76.3707	71.7773	76.4321	71.7773	76.5643	71.7773	76.6227	71.7773	76.7708	71.7773	76.8239	71.7773	76.9735	71.7773	77.0191	71.7773	77.1552	71.7773	77.1913	71.7773	77.2998	71.7773	77.3249	71.7773	77.3947	71.7773	77.4076	71.7773	77.4316
74.707	76.7101	74.707	76.7008	74.707	76.7135	74.707	76.6864	74.707	76.7115	74.707	76.6696	74.707	76.7061	74.707	76.6541	74.707	76.7011	74.707	76.6454	74.707	76.7014	74.707	76.6497	74.707	76.7129	74.707	76.6735	74.707	76.742	74.707	76.7231	74.707	76.7948	74.707	76.803	74.707	76.8754	74.707	76.9145	74.707	76.9854	74.707	77.0553	74.707	77.1224	74.707	77.2183	74.707	77.2796	74.707	77.3927	74.707	77.4464	74.707	77.5648	74.707	77.6095	74.707	77.7198	74.707	77.7543	74.707	77.8438	74.707	77.8674	74.707	77.9256	74.707	77.9375	74.707	77.9577
77.6367	77.5481	77.6367	77.5426	77.6367	77.5498	77.6367	77.5341	77.6367	77.548	77.6367	77.5244	77.6367	77.5445	77.6367	77.5164	77.6367	77.5419	77.6367	77.5142	77.6367	77.5439	77.6367	77.5223	77.6367	77.5553	77.6367	77.546	77.6367	77.581	77.6367	77.5901	77.6367	77.626	77.6367	77.6583	77.6367	77.6939	77.6367	77.7522	77.6367	77.7864	77.6367	77.8702	77.6367	77.9021	77.6367	78.007	77.6367	78.0358	77.6367	78.1541	77.6367	78.1791	77.6367	78.2998	77.6367	78.3205	77.6367	78.4314	77.6367	78.4475	77.6367	78.5368	77.6367	78.5478	77.6367	78.6057	77.6367	78.6113	77.6367	78.6313
79.1016	78.2078	79.1016	78.2037	79.1016	78.2094	79.1016	78.1977	79.1016	78.2088	79.1016	78.1914	79.1016	78.2076	79.1016	78.1873	79.1016	78.2078	79.1016	78.1888	79.1016	78.2129	79.1016	78.2	79.1016	78.2268	79.1016	78.2254	79.1016	78.2539	79.1016	78.2692	79.1016	78.2984	79.1016	78.3347	79.1016	78.3636	79.1016	78.4234	79.1016	78.451	79.1016	78.534	79.1016	78.5594	79.1016	78.6616	79.1016	78.6843	79.1016	78.7984	79.1016	78.818	79.1016	78.9339	79.1016	78.9501	79.1016	79.0563	79.1016	79.0689	79.1016	79.1543	79.1016	79.1629	79.1016	79.2182	79.1016	79.2226	79.1016	79.2417
82.0312	78.7376	82.0312	78.7343	82.0312	78.7427	82.0312	78.7332	82.0312	78.7497	82.0312	78.7357	82.0312	78.7593	82.0312	78.7435	82.0312	78.7731	82.0312	78.7589	82.0312	78.7931	82.0312	78.7849	82.0312	78.822	82.0312	78.8241	82.0312	78.8626	82.0312	78.8793	82.0312	78.9177	82.0312	78.9522	82.0312	78.9893	82.0312	79.0432	82.0312	79.0779	82.0312	79.1506	82.0312	79.1823	82.0312	79.27	82.0312	79.2984	82.0312	79.395	82.0312	79.4197	82.0312	79.517	82.0312	79.5376	82.0312	79.6262	82.0312	79.6425	82.0312	79.7134	82.0312	79.7246	82.0312	79.7705	82.0312	79.7763	82.0312	79.7921
84.9609	79.0144	84.9609	79.0183	84.9609	79.0161	84.9609	79.028	84.9609	79.0232	84.9609	79.0439	84.9609	79.0357	84.9609	79.0665	84.9609	79.0539	84.9609	79.0964	84.9609	79.0784	84.9609	79.1341	84.9609	79.1101	84.9609	79.1802	84.9609	79.1501	84.9609	79.2353	84.9609	79.1996	84.9609	79.2995	84.9609	79.2593	84.9609	79.3727	84.9609	79.3296	84.9609	79.4535	84.9609	79.4096	84.9609	79.5395	84.9609	79.4972	84.9609	79.6268	84.9609	79.5883	84.9609	79.7101	84.9609	79.6774	84.9609	79.7833	84.9609	79.7577	84.9609	79.84	84.9609	79.8226	84.9609	79.8748	84.9609	79.866	84.9609	79.8839
87.8906	79.7993	87.8906	79.805	87.8906	79.7976	87.8906	79.8144	87.8906	79.7999	87.8906	79.827	87.8906	79.8063	87.8906	79.8426	87.8906	79.8167	87.8906	79.8609	87.8906	79.8312	87.8906	79.882	87.8906	79.8502	87.8906	79.9063	87.8906	79.8742	87.8906	79.9346	87.8906	79.9041	87.8906	79.9681	87.8906	79.941	87.8906	80.0077	87.8906	79.9855	87.8906	80.054	87.8906	80.0377	87.8906	80.1067	87.8906	80.0963	87.8906	80.1639	87.8906	80.159	87.8906	80.2221	87.8906	80.2213	87.8906	80.2764	87.8906	80.2781	87.8906	80.3212	87.8906	80.3236	87.8906	80.3511	87.8906	80.3527	87.8906	80.3622
90.8203	80.0549	90.8203	80.0548	90.8203	80.0634	90.8203	80.0632	90.8203	80.0805	90.8203	80.0794	90.8203	80.1055	90.8203	80.1029	90.8203	80.1378	90.8203	80.1331	90.8203	80.1767	90.8203	80.1696	90.8203	80.2214	90.8203	80.212	90.8203	80.2711	90.8203	80.2602	90.8203	80.3255	90.8203	80.3143	90.8203	80.384	90.8203	80.3743	90.8203	80.4461	90.8203	80.4396	90.8203	80.5109	90.8203	80.5088	90.8203	80.5768	90.8203	80.5797	90.8203	80.6416	90.8203	80.6486	90.8203	80.7017	90.8203	80.7112	90.8203	80.7533	90.8203	80.7628	90.8203	80.7919	90.8203	80.7988	90.8203	80.8137	90.8203	80.8163
95.2148	80.3543	95.2148	80.3576	95.2148	80.3642	95.2148	80.374	95.2148	80.3866	95.2148	80.4021	95.2148	80.4201	95.2148	80.4402	95.2148	80.4624	95.2148	80.4859	95.2148	80.511	95.2148	80.5364	95.2148	80.5632	95.2148	80.5894	95.2148	80.6166	95.2148	80.6426	95.2148	80.6691	95.2148	80.6945	95.2148	80.7196	95.2148	80.744	95.2148	80.7673	95.2148	80.7908	95.2148	80.8119	95.2148	80.8347	95.2148	80.8534	95.2148	80.8753	95.2148	80.8916	95.2148	80.912	95.2148	80.9259	95.2148	80.9438	95.2148	80.9548	95.2148	80.969	95.2148	80.9767	95.2148	80.9859	95.2148	80.9899	95.2148	80.9931
98.1445	80.7701	98.1445	80.7719	98.1445	80.7821	98.1445	80.787	98.1445	80.8073	98.1445	80.8143	98.1445	80.8439	98.1445	80.8514	98.1445	80.8895	98.1445	80.8957	98.1445	80.9412	98.1445	80.9442	98.1445	80.9958	98.1445	80.9943	98.1445	81.0504	98.1445	81.0435	98.1445	81.1025	98.1445	81.0899	98.1445	81.1503	98.1445	81.1326	98.1445	81.1927	98.1445	81.171	98.1445	81.2294	98.1445	81.2053	98.1445	81.2604	98.1445	81.2359	98.1445	81.2859	98.1445	81.263	98.1445	81.3061	98.1445	81.2866	98.1445	81.321	98.1445	81.3062	98.1445	81.3303	98.1445	81.3211	98.1445	81.3334	98.1445	81.3303
101.074	81.2479	101.074	81.2512	101.074	81.2588	101.074	81.2682	101.074	81.2834	101.074	81.297	101.074	81.3199	101.074	81.335	101.074	81.3655	101.074	81.3789	101.074	81.4167	101.074	81.4253	101.074	81.4699	101.074	81.4707	101.074	81.5216	101.074	81.5123	101.074	81.5685	101.074	81.5479	101.074	81.6083	101.074	81.5766	101.074	81.6397	101.074	81.5982	101.074	81.662	101.074	81.6137	101.074	81.6757	101.074	81.6245	101.074	81.6819	101.074	81.6323	101.074	81.6824	101.074	81.6388	101.074	81.6789	101.074	81.645	101.074	81.6731	101.074	81.6516	101.074	81.666	101.074	81.6587
105.469	81.1446	105.469	81.1484	105.469	81.1572	105.469	81.1677	105.469	81.1854	105.469	81.2003	105.469	81.2272	105.469	81.2431	105.469	81.2793	105.469	81.2919	105.469	81.3374	105.469	81.3425	105.469	81.3968	105.469	81.3906	105.469	81.4528	105.469	81.4328	105.469	81.5013	105.469	81.4664	105.469	81.539	105.469	81.4901	105.469	81.5641	105.469	81.5039	105.469	81.5762	105.469	81.5091	105.469	81.5765	105.469	81.508	105.469	81.5676	105.469	81.5032	105.469	81.5528	105.469	81.4977	105.469	81.5358	105.469	81.4939	105.469	81.5195	105.469	81.4934	105.469	81.5063	105.469	81.4975
108.398	81.6086	108.398	81.6153	108.398	81.6183	108.398	81.6378	108.398	81.6436	108.398	81.6738	108.398	81.6823	108.398	81.7203	108.398	81.7309	108.398	81.773	108.398	81.7853	108.398	81.8274	108.398	81.8405	108.398	81.8792	108.398	81.8922	108.398	81.9244	108.398	81.9361	108.398	81.96	108.398	81.9694	108.398	81.9843	108.398	81.9903	108.398	81.9971	108.398	81.9989	108.398	81.9992	108.398	81.9966	108.398	81.9929	108.398	81.9865	108.398	81.981	108.398	81.9723	108.398	81.9668	108.398	81.9576	108.398	81.9533	108.398	81.9456	108.398	81.943	108.398	81.9387	108.398	81.9379
112.793	81.7756	112.793	81.7858	112.793	81.783	112.793	81.813	112.793	81.8071	112.793	81.8547	112.793	81.8455	112.793	81.9071	112.793	81.8941	112.793	81.9653	112.793	81.9482	112.793	82.0239	112.793	82.0025	112.793	82.0777	112.793	82.0518	112.793	82.122	112.793	82.0916	112.793	82.1531	112.793	82.1185	112.793	82.169	112.793	82.1306	112.793	82.1693	112.793	82.1281	112.793	82.1555	112.793	82.1129	112.793	82.1305	112.793	82.0887	112.793	82.0987	112.793	82.0602	112.793	82.065	112.793	82.0327	112.793	82.0345	112.793	82.0112	112.793	82.0116	112.793	81.9993	112.793	81.9994
117.188	82.0886	117.188	82.0998	117.188	82.0959	117.188	82.1287	117.188	82.1206	117.188	82.1727	117.188	82.1598	117.188	82.2276	117.188	82.2093	117.188	82.2882	117.188	82.2639	117.188	82.3485	117.188	82.3179	117.188	82.4027	117.188	82.3657	117.188	82.4456	117.188	82.4025	117.188	82.4731	117.188	82.4247	117.188	82.4829	117.188	82.4303	117.188	82.4746	117.188	82.4195	117.188	82.4501	117.188	82.3946	117.188	82.4129	117.188	82.3598	117.188	82.3684	117.188	82.3209	117.188	82.3229	117.188	82.284	117.188	82.2826	117.188	82.255	117.188	82.2529	117.188	82.2386	117.188	82.2377
120.117	82.1357	120.117	82.1414	120.117	82.1494	120.117	82.1658	120.117	82.1809	120.117	82.2065	120.117	82.2271	120.117	82.2593	120.117	82.2831	120.117	82.3186	120.117	82.3431	120.117	82.3783	120.117	82.401	120.117	82.4321	120.117	82.4509	120.117	82.4746	120.117	82.4876	120.117	82.5012	120.117	82.5074	120.117	82.5096	120.117	82.5085	120.117	82.4991	120.117	82.4913	120.117	82.4716	120.117	82.4584	120.117	82.4311	120.117	82.4146	120.117	82.3833	120.117	82.3661	120.117	82.3353	120.117	82.3197	120.117	82.2938	120.117	82.2822	120.117	82.2649	120.117	82.2586	120.117	82.2526
124.512	82.0755	124.512	82.0817	124.512	82.0897	124.512	82.1076	124.512	82.1228	124.512	82.1504	124.512	82.1716	124.512	82.2054	124.512	82.231	124.512	82.2666	124.512	82.2949	124.512	82.3273	124.512	82.3566	124.512	82.3808	124.512	82.4097	124.512	82.421	124.512	82.4483	124.512	82.4431	124.512	82.4681	124.512	82.4446	124.512	82.4667	124.512	82.4249	124.512	82.4438	124.512	82.3864	124.512	82.4022	124.512	82.3339	124.512	82.3466	124.512	82.2744	124.512	82.2843	124.512	82.2159	124.512	82.2233	124.512	82.167	124.512	82.1719	124.512	82.1349	124.512	82.1374	124.512	82.1245
128.906	82.0612	128.906	82.0706	128.906	82.0728	128.906	82.1003	128.906	82.1041	128.906	82.147	128.906	82.1514	128.906	82.206	128.906	82.2095	128.906	82.2707	128.906	82.272	128.906	82.3339	128.906	82.3318	128.906	82.3886	128.906	82.3821	128.906	82.4282	128.906	82.4167	128.906	82.4476	128.906	82.4312	128.906	82.4437	128.906	82.4231	128.906	82.4161	128.906	82.3924	128.906	82.367	128.906	82.342	128.906	82.3018	128.906	82.2774	128.906	82.2282	128.906	82.2062	128.906	82.1557	128.906	82.1378	128.906	82.0939	128.906	82.0815	128.906	82.0517	128.906	82.0453	128.906	82.0347
133.301	81.9922	133.301	82.008	133.301	81.9985	133.301	82.0447	133.301	82.0257	133.301	82.0986	133.301	82.0704	133.301	82.1642	133.301	82.1271	133.301	82.2346	133.301	82.189	133.301	82.3021	133.301	82.2486	133.301	82.359	133.301	82.2985	133.301	82.3983	133.301	82.3319	133.301	82.4148	133.301	82.3438	133.301	82.4051	133.301	82.3315	133.301	82.3686	133.301	82.2947	133.301	82.308	133.301	82.2367	133.301	82.229	133.301	82.1633	133.301	82.1403	133.301	82.0834	133.301	82.0524	133.301	82.0072	133.301	81.9767	133.301	81.9454	133.301	81.9233	133.301	81.9073	133.301	81.8993
139.16	81.8065	139.16	81.8225	139.16	81.8134	139.16	81.8602	139.16	81.8419	139.16	81.9157	139.16	81.8884	139.16	81.9834	139.16	81.9471	139.16	82.0557	139.16	82.0109	139.16	82.1243	139.16	82.0719	139.16	82.1809	139.16	82.1222	139.16	82.2179	139.16	82.1544	139.16	82.2292	139.16	82.1631	139.16	82.2114	139.16	82.1451	139.16	82.1639	139.16	82.0999	139.16	82.0895	139.16	82.0307	139.16	81.9951	139.16	81.9438	139.16	81.8906	139.16	81.8488	139.16	81.7885	139.16	81.7571	139.16	81.702	139.16	81.6813	139.16	81.6427	139.16	81.6325	139.16	81.6186
143.555	81.6617	143.555	81.6727	143.555	81.673	143.555	81.7049	143.555	81.7053	143.555	81.755	143.555	81.7549	143.555	81.8173	143.555	81.8163	143.555	81.8848	143.555	81.8824	143.555	81.9489	143.555	81.9453	143.555	82.0013	143.555	81.9969	143.555	82.0339	143.555	82.0299	143.555	82.0406	143.555	82.0382	143.555	82.0178	143.555	82.0184	143.555	81.9652	143.555	81.9699	143.555	81.8862	143.555	81.8953	143.555	81.7881	143.555	81.8011	143.555	81.6814	143.555	81.6969	143.555	81.5792	143.555	81.5947	143.555	81.4951	143.555	81.5078	143.555	81.441	143.555	81.4481	143.555	81.4245
147.949	81.5147	147.949	81.5269	147.949	81.5242	147.949	81.5597	147.949	81.5538	147.949	81.6098	147.949	81.6002	147.949	81.6718	147.949	81.658	147.949	81.7386	147.949	81.7201	147.949	81.8017	147.949	81.7787	147.949	81.8524	147.949	81.8256	147.949	81.8827	147.949	81.8535	147.949	81.8862	147.949	81.8564	147.949	81.8593	147.949	81.8308	147.949	81.8017	147.949	81.7764	147.949	81.717	147.949	81.6963	147.949	81.6127	147.949	81.5971	147.949	81.4995	147.949	81.4891	147.949	81.3908	147.949	81.3847	147.949	81.3003	147.949	81.2973	147.949	81.2403	147.949	81.2392	147.949	81.2191
153.809	81.2755	153.809	81.2888	153.809	81.2822	153.809	81.3217	153.809	81.3075	153.809	81.3713	153.809	81.3479	153.809	81.4324	153.809	81.3981	153.809	81.498	153.809	81.4516	153.809	81.5596	153.809	81.501	153.809	81.6082	153.809	81.5385	153.809	81.6355	153.809	81.5574	153.809	81.6347	153.809	81.5523	153.809	81.6021	153.809	81.52	153.809	81.5374	153.809	81.4604	153.809	81.4447	153.809	81.3766	153.809	81.3319	153.809	81.2753	153.809	81.2103	153.809	81.1664	153.809	81.0937	153.809	81.0624	153.809	80.9963	153.809	80.9765	153.809	80.9305	153.809	80.921	153.809	80.9044
159.668	81.078	159.668	81.0941	159.668	81.0839	159.668	81.1318	159.668	81.1095	159.668	81.1883	159.668	81.151	159.668	81.2584	159.668	81.2029	159.668	81.3346	159.668	81.2585	159.668	81.4077	159.668	81.3102	159.668	81.4679	159.668	81.3505	159.668	81.5064	159.668	81.3723	159.668	81.5158	159.668	81.37	159.668	81.4918	159.668	81.3403	159.668	81.4334	159.668	81.283	159.668	81.344	159.668	81.2012	159.668	81.231	159.668	81.1021	159.668	81.1057	159.668	80.996	159.668	80.982	159.668	80.8959	159.668	80.875	159.668	80.8158	159.668	80.7981	159.668	80.768	159.668	80.7612
165.527	80.9193	165.527	80.9189	165.527	80.9427	165.527	80.9419	165.527	80.9863	165.527	80.9866	165.527	81.0458	165.527	81.0488	165.527	81.1148	165.527	81.1216	165.527	81.1861	165.527	81.1961	165.527	81.2509	165.527	81.2623	165.527	81.3005	165.527	81.3099	165.527	81.3268	165.527	81.3302	165.527	81.3234	165.527	81.3169	165.527	81.2868	165.527	81.2677	165.527	81.2171	165.527	81.1844	165.527	81.1185	165.527	81.0739	165.527	80.9997	165.527	80.9475	165.527	80.8734	165.527	80.82	165.527	80.7547	165.527	80.7082	165.527	80.6595	165.527	80.6277	165.527	80.6018	165.527	80.5905
171.387	80.815	171.387	80.8106	171.387	80.8366	171.387	80.8234	171.387	80.8735	171.387	80.852	171.387	80.9228	171.387	80.893	171.387	80.9796	171.387	80.9411	171.387	81.0379	171.387	80.989	171.387	81.0904	171.387	81.0281	171.387	81.129	171.387	81.0495	171.387	81.1458	171.387	81.0449	171.387	81.1341	171.387	81.0087	171.387	81.0895	171.387	80.9387	171.387	81.0109	171.387	80.8375	171.387	80.9014	171.387	80.7127	171.387	80.7686	171.387	80.5769	171.387	80.6245	171.387	80.4464	171.387	80.4844	171.387	80.3386	171.387	80.3655	171.387	80.2695	171.387	80.2835	171.387	80.25
177.246	80.6947	177.246	80.7029	177.246	80.7003	177.246	80.7244	177.246	80.7194	177.246	80.7571	177.246	80.7502	177.246	80.7976	177.246	80.7893	177.246	80.8409	177.246	80.8316	177.246	80.8803	177.246	80.8704	177.246	80.9079	177.246	80.8978	177.246	80.9152	177.246	80.9056	177.246	80.8946	177.246	80.8867	177.246	80.8408	177.246	80.8362	177.246	80.7523	177.246	80.7524	177.246	80.6324	177.246	80.6382	177.246	80.4897	177.246	80.5011	177.246	80.3378	177.246	80.3533	177.246	80.1938	177.246	80.2103	177.246	80.0757	177.246	80.0897	177.246	79.9994	177.246	80.0074	177.246	79.9756
183.105	80.4253	183.105	80.4447	183.105	80.4229	183.105	80.4802	183.105	80.4368	183.105	80.5289	183.105	80.4647	183.105	80.5863	183.105	80.5024	183.105	80.6461	183.105	80.5442	183.105	80.7004	183.105	80.5829	183.105	80.7407	183.105	80.6104	183.105	80.7584	183.105	80.6189	183.105	80.7458	183.105	80.6014	183.105	80.6982	183.105	80.5536	183.105	80.6139	183.105	80.4748	183.105	80.4965	183.105	80.3681	183.105	80.3541	183.105	80.2417	183.105	80.2001	183.105	80.1075	183.105	80.051	183.105	79.9807	183.105	79.9246	183.105	79.8777	183.105	79.8367	183.105	79.8134	183.105	79.7984
188.965	80.2885	188.965	80.2971	188.965	80.2945	188.965	80.3206	188.965	80.3142	188.965	80.3577	188.965	80.3455	188.965	80.4056	188.965	80.3849	188.965	80.4591	188.965	80.4272	188.965	80.511	188.965	80.4657	188.965	80.5523	188.965	80.4922	188.965	80.5732	188.965	80.4979	188.965	80.565	188.965	80.4755	188.965	80.5212	188.965	80.4198	188.965	80.4392	188.965	80.3295	188.965	80.3212	188.965	80.2081	188.965	80.1749	188.965	80.0646	188.965	80.0132	188.965	79.9126	188.965	79.8534	188.965	79.7697	188.965	79.7149	188.965	79.6547	188.965	79.6161	188.965	79.5845	188.965	79.5706
196.289	80.2676	196.289	80.2775	196.289	80.268	196.289	80.297	196.289	80.2786	196.289	80.3243	196.289	80.2982	196.289	80.3565	196.289	80.3243	196.289	80.3892	196.289	80.353	196.289	80.4164	196.289	80.3787	196.289	80.4307	196.289	80.3948	196.289	80.4242	196.289	80.3941	196.289	80.3893	196.289	80.3698	196.289	80.3208	196.289	80.3164	196.289	80.2173	196.289	80.2315	196.289	80.0822	196.289	80.1161	196.289	79.925	196.289	79.9759	196.289	79.7603	196.289	79.8215	196.289	79.6069	196.289	79.6681	196.289	79.4842	196.289	79.5339	196.289	79.4095	196.289	79.4374	196.289	79.3934
203.613	80.0786	203.613	80.0742	203.613	80.0956	203.613	80.0831	203.613	80.1229	203.613	80.1045	203.613	80.1572	203.613	80.1357	203.613	80.1943	203.613	80.1715	203.613	80.229	203.613	80.2049	203.613	80.2553	203.613	80.2267	203.613	80.2672	203.613	80.2269	203.613	80.2586	203.613	80.1966	203.613	80.2246	203.613	80.1297	203.613	80.162	203.613	80.0255	203.613	80.0703	203.613	79.8899	203.613	79.9524	203.613	79.7349	203.613	79.8149	203.613	79.5774	203.613	79.6679	203.613	79.4364	203.613	79.5246	203.613	79.3293	203.613	79.4	203.613	79.2692	203.613	79.3086	203.613	79.2625
210.938	80.0238	210.938	80.0018	210.938	80.0512	210.938	79.9863	210.938	80.0833	210.938	79.9782	210.938	80.1194	210.938	79.9774	210.938	80.1578	210.938	79.982	210.938	80.1951	210.938	79.9872	210.938	80.2259	210.938	79.9864	210.938	80.2436	210.938	79.9717	210.938	80.2409	210.938	79.9359	210.938	80.2119	210.938	79.874	210.938	80.1528	210.938	79.785	210.938	80.0625	210.938	79.6722	210.938	79.9435	210.938	79.5436	210.938	79.8015	210.938	79.4121	210.938	79.6457	210.938	79.2935	210.938	79.4891	210.938	79.2051	210.938	79.3473	210.938	79.1617	210.938	79.2369	210.938	79.1722
218.262	79.9207	218.262	79.9282	218.262	79.9168	218.262	79.9395	218.262	79.9175	218.262	79.9551	218.262	79.9236	218.262	79.9745	218.262	79.9352	218.262	79.9949	218.262	79.9502	218.262	80.0106	218.262	79.9639	218.262	80.0144	218.262	79.9697	218.262	79.9997	218.262	79.9607	218.262	79.9621	218.262	79.9316	218.262	79.9011	218.262	79.8794	218.262	79.8192	218.262	79.8048	218.262	79.7213	218.262	79.7114	218.262	79.6136	218.262	79.6056	218.262	79.504	218.262	79.4964	218.262	79.4017	218.262	79.3943	218.262	79.3172	218.262	79.311	218.262	79.2605	218.262	79.2569	218.262	79.2393
225.586	79.894	225.586	79.9214	225.586	79.869	225.586	79.9479	225.586	79.8496	225.586	79.9717	225.586	79.8374	225.586	79.9917	225.586	79.8319	225.586	80.0068	225.586	79.8298	225.586	80.0145	225.586	79.8255	225.586	80.0106	225.586	79.8124	225.586	79.9895	225.586	79.7842	225.586	79.9464	225.586	79.7366	225.586	79.879	225.586	79.6677	225.586	79.788	225.586	79.5786	225.586	79.6771	225.586	79.4737	225.586	79.5525	225.586	79.3601	225.586	79.4223	225.586	79.248	225.586	79.296	225.586	79.1496	225.586	79.1844	225.586	79.0775	225.586	79.099	225.586	79.0422	225.586	79.0495
232.91	79.7958	232.91	79.8276	232.91	79.7749	232.91	79.8684	232.91	79.7646	232.91	79.9138	232.91	79.7621	232.91	79.9582	232.91	79.7629	232.91	79.9951	232.91	79.7605	232.91	80.0177	232.91	79.7477	232.91	80.0187	232.91	79.7171	232.91	79.9917	232.91	79.6631	232.91	79.932	232.91	79.5826	232.91	79.8381	232.91	79.4768	232.91	79.7129	232.91	79.3504	232.91	79.563	232.91	79.2117	232.91	79.3982	232.91	79.0714	232.91	79.23	232.91	78.9414	232.91	79.0702	232.91	78.8345	232.91	78.9305	232.91	78.7625	232.91	78.8222	232.91	78.7344	232.91	78.7547
241.699	79.6515	241.699	79.6564	241.699	79.6495	241.699	79.6677	241.699	79.6481	241.699	79.6886	241.699	79.6463	241.699	79.7204	241.699	79.6431	241.699	79.7601	241.699	79.6361	241.699	79.7993	241.699	79.6209	241.699	79.8248	241.699	79.5906	241.699	79.8216	241.699	79.5382	241.699	79.7767	241.699	79.4585	241.699	79.6834	241.699	79.35	241.699	79.5433	241.699	79.2161	241.699	79.3666	241.699	79.0652	241.699	79.1698	241.699	78.9087	241.699	78.972	241.699	78.7601	241.699	78.7918	241.699	78.6329	241.699	78.6446	241.699	78.5393	241.699	78.5414	241.699	78.4891	241.699	78.489
250.488	79.6192	250.488	79.6151	250.488	79.6147	250.488	79.6057	250.488	79.6009	250.488	79.5964	250.488	79.5796	250.488	79.5935	250.488	79.5536	250.488	79.6012	250.488	79.5251	250.488	79.6186	250.488	79.4935	250.488	79.6385	250.488	79.4557	250.488	79.6468	250.488	79.4057	250.488	79.6262	250.488	79.3366	250.488	79.5611	250.488	79.2427	250.488	79.4422	250.488	79.1213	250.488	79.2705	250.488	78.9741	250.488	79.0585	250.488	78.8082	250.488	78.8283	250.488	78.6361	250.488	78.608	250.488	78.4746	250.488	78.4246	250.488	78.3434	250.488	78.2993	250.488	78.2617	250.488	78.2444
259.277	79.7169	259.277	79.7109	259.277	79.7118	259.277	79.6943	259.277	79.696	259.277	79.6688	259.277	79.6707	259.277	79.6378	259.277	79.638	259.277	79.6058	259.277	79.5999	259.277	79.577	259.277	79.557	259.277	79.5518	259.277	79.5071	259.277	79.5245	259.277	79.4459	259.277	79.4839	259.277	79.3679	259.277	79.4165	259.277	79.2693	259.277	79.3115	259.277	79.1502	259.277	79.1659	259.277	79.0146	259.277	78.9867	259.277	78.8691	259.277	78.7914	259.277	78.7216	259.277	78.6049	259.277	78.5812	259.277	78.454	259.277	78.4593	259.277	78.3601	259.277	78.3711	259.277	78.3336
268.066	79.5413	268.066	79.5297	268.066	79.541	268.066	79.5104	268.066	79.5253	268.066	79.4869	268.066	79.493	268.066	79.4615	268.066	79.4452	268.066	79.4359	268.066	79.385	268.066	79.4103	268.066	79.3154	268.066	79.3822	268.066	79.2383	268.066	79.3432	268.066	79.1538	268.066	79.2806	268.066	79.0611	268.066	79.1805	268.066	78.9596	268.066	79.0356	268.066	78.8495	268.066	78.85	268.066	78.7326	268.066	78.6416	268.066	78.6122	268.066	78.4378	268.066	78.492	268.066	78.2678	268.066	78.3755	268.066	78.1538	268.066	78.2677	268.066	78.1051	268.066	78.1772	268.066	78.1175
276.855	79.7764	276.855	79.75	276.855	79.7912	276.855	79.7128	276.855	79.7924	276.855	79.6658	276.855	79.7779	276.855	79.6099	276.855	79.7458	276.855	79.5472	276.855	79.6928	276.855	79.4797	276.855	79.6128	276.855	79.4086	276.855	79.4951	276.855	79.3316	276.855	79.3276	276.855	79.242	276.855	79.104	276.855	79.1305	276.855	78.8316	276.855	78.9893	276.855	78.5349	276.855	78.8168	276.855	78.2499	276.855	78.6207	276.855	78.0124	276.855	78.4167	276.855	77.8455	276.855	78.223	276.855	77.7539	276.855	78.0546	276.855	77.7281	276.855	77.9193	276.855	77.7535	276.855	77.8187
287.109	79.5132	287.109	79.4712	287.109	79.5416	287.109	79.4193	287.109	79.5561	287.109	79.3636	287.109	79.5592	287.109	79.3085	287.109	79.5525	287.109	79.2537	287.109	79.5353	287.109	79.1951	287.109	79.5045	287.109	79.1286	287.109	79.4556	287.109	79.0533	287.109	79.3844	287.109	78.9708	287.109	79.2887	287.109	78.8826	287.109	79.1699	287.109	78.7872	287.109	79.0333	287.109	78.6823	287.109	78.8877	287.109	78.569	287.109	78.7432	287.109	78.4557	287.109	78.6086	287.109	78.3564	287.109	78.4895	287.109	78.2862	287.109	78.3896	287.109	78.2552	287.109	78.3129	287.109	78.2657
297.363	79.7723	297.363	79.8322	297.363	79.6977	297.363	79.8708	297.363	79.6134	297.363	79.8826	297.363	79.5224	297.363	79.8639	297.363	79.425	297.363	79.8135	297.363	79.3197	297.363	79.73	297.363	79.2052	297.363	79.6113	297.363	79.0818	297.363	79.4556	297.363	78.9512	297.363	79.2657	297.363	78.8158	297.363	79.0524	297.363	78.6768	297.363	78.8345	297.363	78.5365	297.363	78.6346	297.363	78.4003	297.363	78.4717	297.363	78.2785	297.363	78.3548	297.363	78.1844	297.363	78.2794	297.363	78.1282	297.363	78.2311	297.363	78.1117	297.363	78.1936	297.363	78.1264	297.363	78.1578
307.617	79.7245	307.617	79.6887	307.617	79.7203	307.617	79.6163	307.617	79.6811	307.617	79.5201	307.617	79.6177	307.617	79.4188	307.617	79.542	307.617	79.3315	307.617	79.4625	307.617	79.2683	307.617	79.3807	307.617	79.2257	307.617	79.2901	307.617	79.1875	307.617	79.1802	307.617	79.1326	307.617	79.0422	307.617	79.0436	307.617	78.8742	307.617	78.9115	307.617	78.6837	307.617	78.7359	307.617	78.4853	307.617	78.5248	307.617	78.2947	307.617	78.2956	307.617	78.1224	307.617	78.0752	307.617	77.9737	307.617	77.8948	307.617	77.8529	307.617	77.7796	307.617	77.7697	307.617	77.74
319.336	79.6439	319.336	79.6085	319.336	79.6432	319.336	79.5406	319.336	79.6051	319.336	79.4437	319.336	79.5322	319.336	79.3207	319.336	79.4327	319.336	79.1757	319.336	79.3182	319.336	79.0141	319.336	79.2002	319.336	78.8435	319.336	79.0847	319.336	78.6715	319.336	78.9696	319.336	78.5056	319.336	78.8457	319.336	78.3524	319.336	78.7035	319.336	78.2171	319.336	78.5404	319.336	78.1013	319.336	78.3667	319.336	78.0027	319.336	78.2023	319.336	77.9183	319.336	78.0665	319.336	77.8503	319.336	77.9663	319.336	77.806	319.336	77.8953	319.336	77.7918	319.336	77.8431	319.336	77.8067
329.59	79.5448	329.59	79.5283	329.59	79.5483	329.59	79.4955	329.59	79.5397	329.59	79.442	329.59	79.5167	329.59	79.3648	329.59	79.4747	329.59	79.2622	329.59	79.4078	329.59	79.1337	329.59	79.3092	329.59	78.9791	329.59	79.1734	329.59	78.7977	329.59	78.9984	329.59	78.5895	329.59	78.7877	329.59	78.3594	329.59	78.5513	329.59	78.1213	329.59	78.3046	329.59	77.8983	329.59	78.0674	329.59	77.7152	329.59	77.8617	329.59	77.5877	329.59	77.7053	329.59	77.5157	329.59	77.6039	329.59	77.4873	329.59	77.5476	329.59	77.4862	329.59	77.5176	329.59	77.4986
341.309	79.4246	341.309	79.4178	341.309	79.4033	341.309	79.3855	341.309	79.3524	341.309	79.3312	341.309	79.2737	341.309	79.2599	341.309	79.1738	341.309	79.1768	341.309	79.0624	341.309	79.0839	341.309	78.9477	341.309	78.9761	341.309	78.8312	341.309	78.8403	341.309	78.7066	341.309	78.6601	341.309	78.5646	341.309	78.4269	341.309	78.3984	341.309	78.1505	341.309	78.2091	341.309	77.8642	341.309	78.0074	341.309	77.6167	341.309	77.8134	341.309	77.4502	341.309	77.6516	341.309	77.3779	341.309	77.5408	341.309	77.3777	341.309	77.4824	341.309	77.409	341.309	77.4574	341.309	77.4384
353.027	79.4844	353.027	79.5106	353.027	79.4397	353.027	79.5154	353.027	79.3784	353.027	79.4935	353.027	79.3039	353.027	79.4386	353.027	79.2187	353.027	79.3475	353.027	79.1209	353.027	79.2239	353.027	79.0007	353.027	79.0756	353.027	78.8427	353.027	78.9079	353.027	78.6323	353.027	78.7177	353.027	78.3642	353.027	78.4964	353.027	78.0469	353.027	78.2406	353.027	77.7039	353.027	77.9634	353.027	77.3717	353.027	77.6941	353.027	77.0935	353.027	77.4653	353.027	76.9081	353.027	77.2965	353.027	76.833	353.027	77.1826	353.027	76.8532	353.027	77.0987	353.027	76.9286	353.027	77.0172
366.211	79.3273	366.211	79.1583	366.211	79.4193	366.211	78.9326	366.211	79.4321	366.211	78.6905	366.211	79.3775	366.211	78.4832	366.211	79.2777	366.211	78.3506	366.211	79.1604	366.211	78.2997	366.211	79.0493	366.211	78.3022	366.211	78.95	366.211	78.3134	366.211	78.8426	366.211	78.2941	366.211	78.6914	366.211	78.2225	366.211	78.4676	366.211	78.096	366.211	78.1683	366.211	77.9267	366.211	77.8202	366.211	77.7345	366.211	77.4688	366.211	77.5395	366.211	77.1629	366.211	77.3553	366.211	76.9423	366.211	77.1865	366.211	76.8305	366.211	77.0339	366.211	76.8266	366.211	76.9058
379.395	79.3804	379.395	79.425	379.395	79.3211	379.395	79.4393	379.395	79.2568	379.395	79.4057	379.395	79.1918	379.395	79.3096	379.395	79.1278	379.395	79.1459	379.395	79.0677	379.395	78.9239	379.395	79.0165	379.395	78.6706	379.395	78.9774	379.395	78.4247	379.395	78.9461	379.395	78.2211	379.395	78.9104	379.395	78.0711	379.395	78.8535	379.395	77.9567	379.395	78.7603	379.395	77.8463	379.395	78.6206	379.395	77.7176	379.395	78.4317	379.395	77.5708	379.395	78.1997	379.395	77.4266	379.395	77.9412	379.395	77.317	379.395	77.6847	379.395	77.2751	379.395	77.4673	379.395	77.3241
392.578	79.1505	392.578	79.1606	392.578	79.0753	392.578	79.1076	392.578	78.9428	392.578	79.0063	392.578	78.7658	392.578	78.8815	392.578	78.56	392.578	78.7565	392.578	78.3452	392.578	78.6412	392.578	78.1474	392.578	78.5303	392.578	77.9962	392.578	78.4156	392.578	77.9159	392.578	78.2994	392.578	77.9141	392.578	78.196	392.578	77.9773	392.578	78.1203	392.578	78.0749	392.578	78.0744	392.578	78.1695	392.578	78.0485	392.578	78.2288	392.578	78.0309	392.578	78.2361	392.578	78.0164	392.578	78.1959	392.578	78.0066	392.578	78.1306	392.578	78.007	392.578	78.0676	392.578	78.0253
405.762	79.9632	405.762	79.8852	405.762	79.9204	405.762	79.6966	405.762	79.7591	405.762	79.4205	405.762	79.4935	405.762	79.0937	405.762	79.1479	405.762	78.765	405.762	78.753	405.762	78.4817	405.762	78.3445	405.762	78.2692	405.762	77.9643	405.762	78.12	405.762	77.6603	405.762	78.0071	405.762	77.4744	405.762	77.9104	405.762	77.4251	405.762	77.8313	405.762	77.4956	405.762	77.7831	405.762	77.6397	405.762	77.7737	405.762	77.8028	405.762	77.798	405.762	77.9413	405.762	77.8438	405.762	78.0316	405.762	77.9007	405.762	78.0688	405.762	77.962	405.762	78.0601	405.762	78.0194
420.41	80.438	420.41	80.3743	420.41	80.4008	420.41	80.2102	420.41	80.2673	420.41	79.9521	420.41	80.0483	420.41	79.612	420.41	79.7612	420.41	79.2072	420.41	79.4269	420.41	78.7583	420.41	79.0606	420.41	78.2912	420.41	78.6627	420.41	77.8446	420.41	78.2209	420.41	77.4771	420.41	77.7316	420.41	77.2573	420.41	77.236	420.41	77.2257	420.41	76.8416	420.41	77.3599	420.41	76.6809	420.41	77.5834	420.41	76.8042	420.41	77.8126	420.41	77.1255	420.41	77.9925	420.41	77.4969	420.41	78.1032	420.41	77.8073	420.41	78.1451	420.41	78.0131	420.41	78.119
435.059	80.2704	435.059	80.2751	435.059	80.2159	435.059	80.2231	435.059	80.1112	435.059	80.1008	435.059	79.9529	435.059	79.8952	435.059	79.7421	435.059	79.5995	435.059	79.4883	435.059	79.214	435.059	79.2041	435.059	78.7427	435.059	78.8952	435.059	78.1941	435.059	78.5544	435.059	77.5939	435.059	78.1732	435.059	77.0054	435.059	77.7694	435.059	76.5398	435.059	77.4068	435.059	76.3196	435.059	77.1793	435.059	76.3965	435.059	77.1513	435.059	76.7053	435.059	77.3041	435.059	77.1132	435.059	77.5478	435.059	77.4975	435.059	77.7782	435.059	77.7799	435.059	77.9175	435.059	77.923
451.172	80.8135	451.172	80.7529	451.172	80.7874	451.172	80.6099	451.172	80.6643	451.172	80.3799	451.172	80.4362	451.172	80.0595	451.172	80.1046	451.172	79.6627	451.172	79.6823	451.172	79.225	451.172	79.1949	451.172	78.7858	451.172	78.6805	451.172	78.3624	451.172	78.1826	451.172	77.9448	451.172	77.7373	451.172	77.523	451.172	77.3665	451.172	77.1249	451.172	77.0914	451.172	76.8293	451.172	76.9443	451.172	76.7202	451.172	76.9457	451.172	76.8072	451.172	77.0587	451.172	76.9998	451.172	77.1973	451.172	77.1812	451.172	77.2929	451.172	77.2901	451.172	77.3323	451.172	77.3319
465.82	80.6896	465.82	80.633	465.82	80.6788	465.82	80.5078	465.82	80.5999	465.82	80.317	465.82	80.4461	465.82	80.0678	465.82	80.2068	465.82	79.7654	465.82	79.8747	465.82	79.4088	465.82	79.4516	465.82	78.9942	465.82	78.951	465.82	78.5241	465.82	78.3972	465.82	78.0144	465.82	77.8214	465.82	77.4982	465.82	77.2617	465.82	77.0246	465.82	76.7778	465.82	76.6543	465.82	76.466	465.82	76.4453	465.82	76.4191	465.82	76.4276	465.82	76.6307	465.82	76.581	465.82	76.9662	465.82	76.8398	465.82	77.2544	465.82	77.117	465.82	77.3825	465.82	77.3234
483.398	80.6669	483.398	80.6805	483.398	80.5988	483.398	80.6232	483.398	80.4926	483.398	80.4909	483.398	80.3534	483.398	80.2907	483.398	80.173	483.398	80.0315	483.398	79.9353	483.398	79.7113	483.398	79.6223	483.398	79.3108	483.398	79.219	483.398	78.8014	483.398	78.7229	483.398	78.1684	483.398	78.1542	483.398	77.4451	483.398	77.5607	483.398	76.7417	483.398	77.0138	483.398	76.2306	483.398	76.5995	483.398	76.0453	483.398	76.3998	483.398	76.1638	483.398	76.4449	483.398	76.4427	483.398	76.6654	483.398	76.7433	483.398	76.9213	483.398	76.9819	483.398	77.0881	483.398	77.1079
499.512	80.5297	499.512	80.5251	499.512	80.496	499.512	80.4718	499.512	80.4182	499.512	80.3462	499.512	80.2838	499.512	80.1292	499.512	80.0839	499.512	79.824	499.512	79.8195	499.512	79.4568	499.512	79.4961	499.512	79.0571	499.512	79.1135	499.512	78.6348	499.512	78.6574	499.512	78.1752	499.512	78.1104	499.512	77.6638	499.512	77.4862	499.512	77.1282	499.512	76.8638	499.512	76.6677	499.512	76.3828	499.512	76.4231	499.512	76.1689	499.512	76.4762	499.512	76.2482	499.512	76.7686	499.512	76.5441	499.512	77.134	499.512	76.931	499.512	77.3975	499.512	77.2724	499.512	77.4496
517.09	80.955	517.09	80.8694	517.09	80.9901	517.09	80.7341	517.09	80.9582	517.09	80.5401	517.09	80.8395	517.09	80.2825	517.09	80.6293	517.09	79.9646	517.09	80.3423	517.09	79.5889	517.09	79.9962	517.09	79.1471	517.09	79.5911	517.09	78.6185	517.09	79.1048	517.09	77.9825	517.09	78.5052	517.09	77.2498	517.09	77.7736	517.09	76.5152	517.09	76.95	517.09	75.9848	517.09	76.1968	517.09	75.8676	517.09	75.7839	517.09	76.1566	517.09	75.8551	517.09	76.6131	517.09	76.2416	517.09	76.993	517.09	76.672	517.09	77.1828	517.09	76.9974	517.09	77.175
536.133	80.4821	536.133	80.4258	536.133	80.4493	536.133	80.319	536.133	80.3196	536.133	80.2025	536.133	80.1149	536.133	80.0865	536.133	79.8576	536.133	79.9355	536.133	79.5487	536.133	79.6825	536.133	79.1748	536.133	79.2622	536.133	78.727	536.133	78.6445	536.133	78.2062	536.133	77.8496	536.133	77.6211	536.133	76.95	536.133	76.9917	536.133	76.07	536.133	76.3698	536.133	75.3829	536.133	75.8778	536.133	75.0623	536.133	75.6957	536.133	75.1666	536.133	75.8895	536.133	75.5679	536.133	76.2774	536.133	76.0428	536.133	76.6008	536.133	76.4258	536.133	76.7283	536.133	76.6593
555.176	80.5637	555.176	80.5826	555.176	80.5213	555.176	80.542	555.176	80.4792	555.176	80.4245	555.176	80.4283	555.176	80.235	555.176	80.3388	555.176	79.98	555.176	80.1797	555.176	79.6539	555.176	79.9168	555.176	79.2409	555.176	79.4997	555.176	78.7131	555.176	78.8771	555.176	78.037	555.176	78.038	555.176	77.2088	555.176	77.0477	555.176	76.3064	555.176	76.0425	555.176	75.508	555.176	75.1665	555.176	75.0178	555.176	74.5338	555.176	74.9106	555.176	74.3163	555.176	75.0906	555.176	74.6564	555.176	75.427	555.176	75.3266	555.176	75.7948	555.176	75.8641	555.176	76.007
574.219	81.0568	574.219	81.0453	574.219	80.9624	574.219	80.924	574.219	80.8013	574.219	80.7254	574.219	80.6315	574.219	80.5093	574.219	80.4752	574.219	80.3152	574.219	80.2889	574.219	80.1022	574.219	80.0174	574.219	79.7603	574.219	79.6526	574.219	79.191	574.219	79.2063	574.219	78.37	574.219	78.6344	574.219	77.3469	574.219	77.8397	574.219	76.2271	574.219	76.8002	574.219	75.2075	574.219	75.73	574.219	74.6159	574.219	75.0569	574.219	74.7065	574.219	75.0184	574.219	75.328	574.219	75.4146	574.219	76.0577	574.219	75.9449	574.219	76.5512	574.219	76.4138	574.219	76.6607
594.727	80.5598	594.727	80.5238	594.727	80.5534	594.727	80.478	594.727	80.4811	594.727	80.4291	594.727	80.3468	594.727	80.3573	594.727	80.171	594.727	80.2421	594.727	79.9786	594.727	80.0657	594.727	79.7781	594.727	79.8079	594.727	79.5318	594.727	79.4511	594.727	79.1604	594.727	78.9571	594.727	78.5672	594.727	78.2409	594.727	77.662	594.727	77.2345	594.727	76.436	594.727	76.0574	594.727	75.1569	594.727	75.1409	594.727	74.4939	594.727	74.938	594.727	74.7898	594.727	75.3519	594.727	75.4696	594.727	75.9103	594.727	75.9999	594.727	76.2846	594.727	76.292	594.727	76.3948
615.234	80.2673	615.234	80.3781	615.234	80.1631	615.234	80.3855	615.234	80.1225	615.234	80.2347	615.234	80.1128	615.234	79.989	615.234	80.0662	615.234	79.7672	615.234	79.9406	615.234	79.5849	615.234	79.7211	615.234	79.3048	615.234	79.3739	615.234	78.7851	615.234	78.8344	615.234	78.0347	615.234	78.0742	615.234	77.1829	615.234	77.1419	615.234	76.2956	615.234	76.0907	615.234	75.3585	615.234	74.9562	615.234	74.5055	615.234	73.9998	615.234	74.051	615.234	73.7822	615.234	74.1076	615.234	74.3117	615.234	74.441	615.234	74.907	615.234	74.8017	615.234	75.1571	615.234	75.0743
637.207	80.2898	637.207	80.2576	637.207	80.3083	637.207	80.214	637.207	80.2931	637.207	80.1257	637.207	80.2377	637.207	79.9779	637.207	80.1409	637.207	79.84	637.207	79.994	637.207	79.8132	637.207	79.7971	637.207	79.8368	637.207	79.5692	637.207	79.6574	637.207	79.2984	637.207	79.0784	637.207	78.877	637.207	78.1054	637.207	78.151	637.207	76.8227	637.207	77.0831	637.207	75.2715	637.207	75.7979	637.207	73.7691	637.207	74.4833	637.207	73.2724	637.207	73.5656	637.207	74.0342	637.207	73.7118	637.207	75.0552	637.207	74.6858	637.207	75.7325	637.207	75.5718	637.207	75.9291
659.18	80.0552	659.18	79.8808	659.18	80.0367	659.18	79.6526	659.18	79.8319	659.18	79.5467	659.18	79.5611	659.18	79.5695	659.18	79.3221	659.18	79.5319	659.18	79.129	659.18	79.3301	659.18	79.0234	659.18	79.0899	659.18	79.0494	659.18	78.8874	659.18	79.0277	659.18	78.4943	659.18	78.6261	659.18	77.6304	659.18	77.6447	659.18	76.3008	659.18	76.1073	659.18	74.8535	659.18	74.361	659.18	73.7614	659.18	73.2536	659.18	73.37	659.18	73.1801	659.18	73.7717	659.18	73.5059	659.18	74.6048	659.18	74.0357	659.18	75.2875	659.18	74.8295	659.18	75.3907
682.617	80.1038	682.617	80.1343	682.617	79.8464	682.617	79.977	682.617	79.4787	682.617	79.7225	682.617	79.1731	682.617	79.404	682.617	79.0243	682.617	79.076	682.617	79.0052	682.617	78.8655	682.617	78.9559	682.617	78.8023	682.617	78.7226	682.617	78.715	682.617	78.305	682.617	78.3969	682.617	77.7687	682.617	77.723	682.617	77.1081	682.617	76.6335	682.617	76.2089	682.617	75.1611	682.617	74.8296	682.617	73.4913	682.617	72.9064	682.617	72.1032	682.617	71.5245	682.617	71.8396	682.617	71.9879	682.617	72.6176	682.617	72.905	682.617	73.3138	682.617	73.3451	682.617	73.4896
707.52	80.4407	707.52	80.3793	707.52	80.4169	707.52	80.2269	707.52	80.2767	707.52	79.9847	707.52	79.9706	707.52	79.7356	707.52	79.5033	707.52	79.6412	707.52	78.9944	707.52	79.6885	707.52	78.6529	707.52	79.6221	707.52	78.5643	707.52	79.3718	707.52	78.5458	707.52	79.1131	707.52	78.3268	707.52	78.7159	707.52	77.6772	707.52	77.7026	707.52	76.3822	707.52	75.7487	707.52	74.2838	707.52	72.9207	707.52	71.4762	707.52	70.2168	707.52	69.396	707.52	69.7871	707.52	70.4069	707.52	71.1763	707.52	72.2854	707.52	72.4911	707.52	73.2171	707.52	73.2028
732.422	80.7616	732.422	80.7665	732.422	80.6058	732.422	80.4973	732.422	80.2795	732.422	79.9271	732.422	79.7153	732.422	79.3278	732.422	79.0772	732.422	78.9903	732.422	78.7338	732.422	78.8195	732.422	78.8223	732.422	78.6681	732.422	79.1409	732.422	78.6194	732.422	79.4563	732.422	78.6187	732.422	79.5879	732.422	78.4159	732.422	79.3815	732.422	77.844	732.422	78.6669	732.422	76.7628	732.422	77.2631	732.422	75.0061	732.422	75.1647	732.422	72.6747	732.422	72.6877	732.422	70.7348	732.422	70.5326	732.422	70.5965	732.422	70.0466	732.422	71.4406	732.422	71.0437	732.422	71.7355
757.324	81.0362	757.324	80.9255	757.324	80.8182	757.324	80.5194	757.324	80.2927	757.324	79.8543	757.324	79.5454	757.324	78.9785	757.324	78.6318	757.324	78.1996	757.324	77.644	757.324	78.004	757.324	77.1029	757.324	78.1544	757.324	77.4417	757.324	78.3268	757.324	78	757.324	78.7998	757.324	78.2699	757.324	79.2705	757.324	78.4702	757.324	78.9654	757.324	78.518	757.324	77.652	757.324	77.8585	757.324	75.6922	757.324	76.3188	757.324	73.8584	757.324	74.5333	757.324	72.6626	757.324	73.1915	757.324	71.8426	757.324	72.0247	757.324	71.1471	757.324	71.1403	757.324	70.8334
785.156	82.1022	785.156	81.8331	785.156	82.1516	785.156	81.3329	785.156	82.1879	785.156	80.8659	785.156	82.1598	785.156	80.3799	785.156	81.7929	785.156	79.4768	785.156	81.0047	785.156	78.2847	785.156	80.0218	785.156	77.6861	785.156	79.1542	785.156	77.765	785.156	78.7129	785.156	78.1056	785.156	78.7165	785.156	78.8644	785.156	78.7423	785.156	79.4475	785.156	78.5061	785.156	79.2338	785.156	77.8633	785.156	78.4504	785.156	76.8396	785.156	77.5414	785.156	75.7715	785.156	76.6692	785.156	74.7179	785.156	75.8886	785.156	73.808	785.156	75.0858	785.156	73.6828	785.156	74.2641
811.523	80.8808	811.523	80.5538	811.523	81.2541	811.523	80.2411	811.523	81.5238	811.523	79.808	811.523	81.4727	811.523	79.3406	811.523	80.9209	811.523	78.9249	811.523	79.9471	811.523	78.17	811.523	78.9755	811.523	77.0818	811.523	78.3241	811.523	76.3749	811.523	77.9021	811.523	76.006	811.523	77.588	811.523	76.0251	811.523	77.4775	811.523	76.598	811.523	77.7746	811.523	76.907	811.523	77.916	811.523	76.5795	811.523	77.1916	811.523	76.0115	811.523	76.3289	811.523	75.9443	811.523	76.1901	811.523	76.2781	811.523	75.9815	811.523	76.2258	811.523	75.5639	811.523	75.7371
840.82	80.3854	840.82	80.1781	840.82	80.7451	840.82	80.1237	840.82	80.8972	840.82	79.9033	840.82	80.5571	840.82	79.3482	840.82	79.7273	840.82	78.6779	840.82	78.7177	840.82	78.2254	840.82	78.0866	840.82	77.8086	840.82	77.7006	840.82	77.1736	840.82	76.9867	840.82	76.5081	840.82	75.9558	840.82	76.2004	840.82	74.6265	840.82	76.2577	840.82	73.6541	840.82	76.0251	840.82	74.0131	840.82	75.7424	840.82	74.6388	840.82	76.2713	840.82	75.0537	840.82	77.1207	840.82	75.7821	840.82	77.6375	840.82	76.6522	840.82	77.6692	840.82	77.1281	840.82	77.3982
870.117	80.5671	870.117	80.557	870.117	80.2095	870.117	80.3795	870.117	79.9712	870.117	80.45	870.117	80.232	870.117	80.4558	870.117	80.3526	870.117	79.8819	870.117	79.6292	870.117	79.0396	870.117	78.6294	870.117	78.3605	870.117	78.3826	870.117	77.3135	870.117	78.2587	870.117	75.6679	870.117	77.7048	870.117	75.0948	870.117	76.5114	870.117	75.8465	870.117	74.577	870.117	76.154	870.117	73.5689	870.117	76.0244	870.117	73.8521	870.117	76.0376	870.117	74.5206	870.117	77.2297	870.117	75.6604	870.117	78.9545	870.117	76.7574	870.117	79.314	870.117	77.5129	870.117	78.4203
900.879	80.6	900.879	80.9303	900.879	80.301	900.879	80.8972	900.879	80.0304	900.879	80.3968	900.879	79.7464	900.879	79.9481	900.879	79.6437	900.879	79.6479	900.879	79.475	900.879	78.9218	900.879	78.9073	900.879	77.9269	900.879	78.104	900.879	77.0373	900.879	77.3149	900.879	75.376	900.879	76.4762	900.879	72.4439	900.879	74.8722	900.879	70.154	900.879	71.8145	900.879	69.0243	900.879	69.6882	900.879	69.9329	900.879	71.0941	900.879	73.6716	900.879	73.8235	900.879	76.0287	900.879	76.1711	900.879	77.236	900.879	77.3971	900.879	77.9406	900.879	77.9603	900.879	78.1842
933.105	81.0708	933.105	80.8403	933.105	80.7456	933.105	80.4008	933.105	80.1396	933.105	80.0958	933.105	79.7753	933.105	79.6175	933.105	79.6082	933.105	79.1556	933.105	79.0522	933.105	79.1192	933.105	78.5346	933.105	79.258	933.105	78.8131	933.105	79.5387	933.105	79.0365	933.105	79.3013	933.105	78.6552	933.105	77.6816	933.105	77.9107	933.105	74.8357	933.105	76.4671	933.105	70.9403	933.105	73.0366	933.105	66.6456	933.105	66.7633	933.105	70.4967	933.105	68.5732	933.105	74.7262	933.105	72.9256	933.105	77.5101	933.105	75.9444	933.105	78.7668	933.105	77.8025	933.105	78.6821
965.332	81.3448	965.332	81.4038	965.332	80.9135	965.332	80.7798	965.332	80.1411	965.332	79.7273	965.332	79.1555	965.332	78.5375	965.332	78.5825	965.332	76.7587	965.332	78.1556	965.332	75.6915	965.332	77.1932	965.332	76.0152	965.332	77.0933	965.332	76.5773	965.332	78.5578	965.332	77.5378	965.332	79.563	965.332	77.5344	965.332	79.1852	965.332	75.8269	965.332	77.4816	965.332	72.7297	965.332	74.4971	965.332	67.3229	965.332	68.5456	965.332	57.7888	965.332	62.2422	965.332	70.9892	965.332	71.7767	965.332	76.8483	965.332	76.0039	965.332	78.3209	965.332	77.6184	965.332	77.9946
1,000.49	82.3612	1,000.49	82.2101	1,000.49	82.3008	1,000.49	81.6875	1,000.49	81.9992	1,000.49	80.8706	1,000.49	80.9348	1,000.49	79.6822	1,000.49	79.2334	1,000.49	78.1411	1,000.49	77.5656	1,000.49	77.0201	1,000.49	76.0893	1,000.49	76.7001	1,000.49	75.4609	1,000.49	77.5953	1,000.49	75.962	1,000.49	78.9018	1,000.49	77.1359	1,000.49	78.8995	1,000.49	77.4966	1,000.49	77.9119	1,000.49	76.1334	1,000.49	76.239	1,000.49	73.5766	1,000.49	71.806	1,000.49	68.9023	1,000.49	62.5302	1,000.49	53.3106	1,000.49	70.8981	1,000.49	69.9666	1,000.49	75.0371	1,000.49	74.5706	1,000.49	76.5616	1,000.49	76.3927	1,000.49	76.9203
1,035.64	81.7852	1,035.64	82.0011	1,035.64	81.7444	1,035.64	81.9177	1,035.64	81.4606	1,035.64	81.1108	1,035.64	80.5482	1,035.64	79.7516	1,035.64	79.5178	1,035.64	78.0057	1,035.64	78.3537	1,035.64	75.8671	1,035.64	76.2803	1,035.64	74.5226	1,035.64	75.3514	1,035.64	75.5087	1,035.64	76.8984	1,035.64	77.5408	1,035.64	79.1237	1,035.64	78.9535	1,035.64	80.505	1,035.64	79.3262	1,035.64	80.2422	1,035.64	78.0229	1,035.64	78.5952	1,035.64	73.4268	1,035.64	74.8645	1,035.64	61.6591	1,035.64	65.8784	1,035.64	63.9055	1,035.64	61.6895	1,035.64	72.6471	1,035.64	72.2588	1,035.64	76.086	1,035.64	76.1544	1,035.64	77.0356
1,072.27	82.4083	1,072.27	81.8891	1,072.27	82.5122	1,072.27	81.3574	1,072.27	82.3075	1,072.27	81.1858	1,072.27	81.7385	1,072.27	80.7541	1,072.27	80.4598	1,072.27	78.9664	1,072.27	78.9126	1,072.27	76.0221	1,072.27	76.6273	1,072.27	73.6894	1,072.27	71.5826	1,072.27	71.963	1,072.27	70.0269	1,072.27	74.9374	1,072.27	72.5868	1,072.27	77.4836	1,072.27	74.9133	1,072.27	77.4019	1,072.27	76.9031	1,072.27	75.886	1,072.27	76.9777	1,072.27	72.9256	1,072.27	74.5782	1,072.27	65.7952	1,072.27	68.8439	1,072.27	65.9009	1,072.27	59.7322	1,072.27	74.0051	1,072.27	70.6962	1,072.27	75.4435	1,072.27	74.5024	1,072.27	75.1525
1,108.89	82.4382	1,108.89	82.8086	1,108.89	82.398	1,108.89	82.6549	1,108.89	82.3682	1,108.89	81.8661	1,108.89	82.016	1,108.89	81.6783	1,108.89	81.3757	1,108.89	81.2792	1,108.89	80.4384	1,108.89	78.8674	1,108.89	78.7536	1,108.89	74.7727	1,108.89	75.5369	1,108.89	72.0974	1,108.89	71.6284	1,108.89	72.1064	1,108.89	73.5622	1,108.89	75.4865	1,108.89	76.7143	1,108.89	77.0853	1,108.89	77.7751	1,108.89	76.453	1,108.89	77.297	1,108.89	73.8562	1,108.89	74.5716	1,108.89	68.4325	1,108.89	68.3518	1,108.89	65.4511	1,108.89	56.6428	1,108.89	70.4338	1,108.89	66.7894	1,108.89	71.8313	1,108.89	71.6741	1,108.89	72.3813
1,148.44	82.1367	1,148.44	82.0295	1,148.44	82.0536	1,148.44	81.9943	1,148.44	81.6906	1,148.44	81.8018	1,148.44	81.4087	1,148.44	81.4986	1,148.44	81.1276	1,148.44	80.9035	1,148.44	80.7035	1,148.44	79.4238	1,148.44	79.8503	1,148.44	77.0774	1,148.44	77.5584	1,148.44	74.1464	1,148.44	73.7843	1,148.44	71.1772	1,148.44	70.9439	1,148.44	72.7327	1,148.44	73.8953	1,148.44	76.2377	1,148.44	76.5072	1,148.44	77.3308	1,148.44	76.9966	1,148.44	76.2096	1,148.44	75.9423	1,148.44	72.7442	1,148.44	72.6769	1,148.44	66.2982	1,148.44	64.3883	1,148.44	64.7854	1,148.44	60.5917	1,148.44	67.3037	1,148.44	68.3804	1,148.44	70.1228
1,189.45	81.8394	1,189.45	81.6513	1,189.45	81.8632	1,189.45	81.3463	1,189.45	81.5459	1,189.45	81.0029	1,189.45	81.645	1,189.45	80.6912	1,189.45	81.846	1,189.45	80.5818	1,189.45	80.8922	1,189.45	79.6199	1,189.45	79.7779	1,189.45	77.3266	1,189.45	78.0075	1,189.45	75.2343	1,189.45	74.3609	1,189.45	72.9171	1,189.45	69.0735	1,189.45	73.869	1,189.45	67.1693	1,189.45	74.879	1,189.45	71.0825	1,189.45	75.4677	1,189.45	72.3803	1,189.45	75.6868	1,189.45	72.62	1,189.45	73.9752	1,189.45	70.6437	1,189.45	70.6002	1,189.45	66.1945	1,189.45	68.4231	1,189.45	61.3025	1,189.45	68.8056	1,189.45	66.0744	1,189.45	68.9544
1,230.47	79.148	1,230.47	79.5006	1,230.47	79.3359	1,230.47	79.6593	1,230.47	79.5151	1,230.47	79.877	1,230.47	79.5657	1,230.47	80.2178	1,230.47	80.1375	1,230.47	79.4897	1,230.47	80.1541	1,230.47	79.0237	1,230.47	79.4658	1,230.47	77.3354	1,230.47	78.7813	1,230.47	72.5442	1,230.47	76.7026	1,230.47	70.1996	1,230.47	72.5597	1,230.47	70.9988	1,230.47	69.5693	1,230.47	74.3716	1,230.47	73.7176	1,230.47	74.9934	1,230.47	74.7108	1,230.47	75.6252	1,230.47	74.5451	1,230.47	75.3898	1,230.47	72.8717	1,230.47	69.5521	1,230.47	66.9286	1,230.47	62.3209	1,230.47	61.4073	1,230.47	62.3083	1,230.47	60.2648	1,230.47	56.5197
1,274.41	79.7345	1,274.41	79.0586	1,274.41	79.6214	1,274.41	78.86	1,274.41	78.9812	1,274.41	78.8686	1,274.41	79.1031	1,274.41	79.0732	1,274.41	79.7748	1,274.41	79.351	1,274.41	79.9926	1,274.41	79.3724	1,274.41	80.1372	1,274.41	78.4541	1,274.41	79.0166	1,274.41	75.1071	1,274.41	76.0218	1,274.41	68.529	1,274.41	73.9252	1,274.41	68.5111	1,274.41	71.8809	1,274.41	71.894	1,274.41	72.9301	1,274.41	73.0184	1,274.41	74.9568	1,274.41	75.3635	1,274.41	75.7638	1,274.41	75.6185	1,274.41	74.4137	1,274.41	72.4619	1,274.41	72.2258	1,274.41	69.0081	1,274.41	68.6176	1,274.41	64.6549	1,274.41	66.8802	1,274.41	67.034
1,319.82	80.5907	1,319.82	80.2058	1,319.82	80.9935	1,319.82	79.8641	1,319.82	80.7824	1,319.82	78.6518	1,319.82	80.5015	1,319.82	78.7331	1,319.82	80.098	1,319.82	79.1972	1,319.82	79.8685	1,319.82	79.4677	1,319.82	79.3217	1,319.82	79.1656	1,319.82	78.677	1,319.82	77.0509	1,319.82	77.4754	1,319.82	73.4586	1,319.82	73.4914	1,319.82	66.679	1,319.82	70.1393	1,319.82	69.961	1,319.82	72.412	1,319.82	74.0475	1,319.82	75.4271	1,319.82	76.2564	1,319.82	76.7826	1,319.82	76.8268	1,319.82	75.8756	1,319.82	74.1032	1,319.82	74.2993	1,319.82	70.6741	1,319.82	70.9371	1,319.82	68.696	1,319.82	66.6035	1,319.82	65.6065
1,366.7	81.6642	1,366.7	81.4766	1,366.7	81.3146	1,366.7	80.7411	1,366.7	80.8712	1,366.7	79.5306	1,366.7	79.6244	1,366.7	78.4568	1,366.7	77.9756	1,366.7	77.5552	1,366.7	77.8082	1,366.7	77.1763	1,366.7	78.0743	1,366.7	77.1404	1,366.7	78.1963	1,366.7	75.3082	1,366.7	76.8783	1,366.7	73.7945	1,366.7	75.8385	1,366.7	70.8433	1,366.7	72.5616	1,366.7	68.7149	1,366.7	70.7306	1,366.7	71.5097	1,366.7	73.685	1,366.7	74.6175	1,366.7	75.6047	1,366.7	75.028	1,366.7	74.7897	1,366.7	72.9343	1,366.7	73.8992	1,366.7	71.3059	1,366.7	71.008	1,366.7	69.9522	1,366.7	66.8583	1,366.7	69.1673
1,413.57	81.8478	1,413.57	81.757	1,413.57	81.1538	1,413.57	81.3984	1,413.57	80.9276	1,413.57	80.7926	1,413.57	80.125	1,413.57	79.1196	1,413.57	78.5126	1,413.57	78.1525	1,413.57	77.5506	1,413.57	77.147	1,413.57	77.5151	1,413.57	77.3394	1,413.57	77.297	1,413.57	76.3906	1,413.57	76.9833	1,413.57	75.2372	1,413.57	75.5075	1,413.57	73.6051	1,413.57	72.399	1,413.57	73.0557	1,413.57	72.1343	1,413.57	73.8688	1,413.57	73.3426	1,413.57	73.8662	1,413.57	74.7338	1,413.57	75.0717	1,413.57	73.8044	1,413.57	73.4887	1,413.57	71.7154	1,413.57	72.0958	1,413.57	68.3128	1,413.57	70.8752	1,413.57	67.2832	1,413.57	68.8885
1,463.38	81.0067	1,463.38	81.1358	1,463.38	80.8306	1,463.38	80.6741	1,463.38	80.5107	1,463.38	79.9497	1,463.38	79.5208	1,463.38	78.5376	1,463.38	79.1011	1,463.38	78.0268	1,463.38	78.1432	1,463.38	77.3317	1,463.38	77.0482	1,463.38	76.0843	1,463.38	76.6309	1,463.38	75.6455	1,463.38	76.3918	1,463.38	74.9209	1,463.38	74.1841	1,463.38	73.66	1,463.38	71.0125	1,463.38	72.3262	1,463.38	69.7433	1,463.38	72.6021	1,463.38	72.1015	1,463.38	73.5917	1,463.38	72.9649	1,463.38	73.389	1,463.38	72.3022	1,463.38	72.8823	1,463.38	70.8696	1,463.38	71.2567	1,463.38	69.5308	1,463.38	69.8386	1,463.38	68.2005	1,463.38	68.4469
1,516.11	80.0796	1,516.11	79.8667	1,516.11	79.9334	1,516.11	79.5891	1,516.11	79.5614	1,516.11	79.0903	1,516.11	78.9944	1,516.11	78.5705	1,516.11	78.416	1,516.11	77.9772	1,516.11	77.9992	1,516.11	76.3168	1,516.11	76.177	1,516.11	75.1728	1,516.11	74.2026	1,516.11	74.2214	1,516.11	72.8939	1,516.11	74.1195	1,516.11	72.5846	1,516.11	73.0792	1,516.11	69.5981	1,516.11	72.5507	1,516.11	66.7735	1,516.11	70.7523	1,516.11	69.3471	1,516.11	70.9183	1,516.11	69.428	1,516.11	72.1007	1,516.11	70.2614	1,516.11	70.8124	1,516.11	70.4078	1,516.11	69.801	1,516.11	66.9668	1,516.11	68.574	1,516.11	67.6753	1,516.11	67.9319
1,568.85	79.0845	1,568.85	78.4364	1,568.85	79.5384	1,568.85	78.0623	1,568.85	78.568	1,568.85	77.83	1,568.85	77.8449	1,568.85	76.8202	1,568.85	76.9194	1,568.85	75.9942	1,568.85	75.1752	1,568.85	74.1033	1,568.85	74.7958	1,568.85	74.0862	1,568.85	73.7067	1,568.85	73.8101	1,568.85	72.5172	1,568.85	70.6524	1,568.85	72.6467	1,568.85	69.4462	1,568.85	70.5935	1,568.85	69.0208	1,568.85	67.7363	1,568.85	67.9742	1,568.85	65.0479	1,568.85	67.757	1,568.85	66.1055	1,568.85	70.1261	1,568.85	65.9227	1,568.85	67.4176	1,568.85	65.521	1,568.85	64.2566	1,568.85	62.3693	1,568.85	59.8925	1,568.85	64.6782	1,568.85	64.4801
1,624.51	78.5924	1,624.51	78.3312	1,624.51	78.9512	1,624.51	77.6119	1,624.51	78.4055	1,624.51	77.0575	1,624.51	77.9106	1,624.51	75.9924	1,624.51	76.9772	1,624.51	75.3033	1,624.51	75.1651	1,624.51	73.3148	1,624.51	73.7039	1,624.51	73.452	1,624.51	72.7047	1,624.51	72.9049	1,624.51	72.5219	1,624.51	70.1171	1,624.51	71.0243	1,624.51	67.2539	1,624.51	70.1921	1,624.51	68.7939	1,624.51	65.2342	1,624.51	69.1006	1,624.51	65.0578	1,624.51	69.0032	1,624.51	66.5037	1,624.51	69.9379	1,624.51	68.6483	1,624.51	65.4956	1,624.51	68.6362	1,624.51	62.2101	1,624.51	65.5313	1,624.51	63.7652	1,624.51	63.2314	1,624.51	61.8662
1,681.64	78.1528	1,681.64	78.3223	1,681.64	78.4674	1,681.64	77.974	1,681.64	77.7172	1,681.64	76.5676	1,681.64	77.7984	1,681.64	75.588	1,681.64	76.6637	1,681.64	73.9356	1,681.64	75.0559	1,681.64	73.1784	1,681.64	73.238	1,681.64	72.1528	1,681.64	73.2459	1,681.64	71.4557	1,681.64	72.4186	1,681.64	70.0107	1,681.64	72.2397	1,681.64	66.5767	1,681.64	70.6361	1,681.64	59.3409	1,681.64	67.3941	1,681.64	63.7905	1,681.64	66.8913	1,681.64	66.8441	1,681.64	69.3978	1,681.64	66.7001	1,681.64	70.6232	1,681.64	66.3301	1,681.64	66.7922	1,681.64	61.112	1,681.64	65.898	1,681.64	56.7729	1,681.64	62.211	1,681.64	53.0309
1,741.7	78.076	1,741.7	78.4925	1,741.7	78.466	1,741.7	78.216	1,741.7	78.598	1,741.7	77.6245	1,741.7	77.3889	1,741.7	76.8601	1,741.7	77.0367	1,741.7	76.1101	1,741.7	75.2946	1,741.7	73.0516	1,741.7	74.6669	1,741.7	71.4973	1,741.7	72.4717	1,741.7	70.9352	1,741.7	71.7516	1,741.7	71.1362	1,741.7	71.4086	1,741.7	67.6299	1,741.7	69.1309	1,741.7	65.1126	1,741.7	64.9475	1,741.7	62.0573	1,741.7	64.0498	1,741.7	67.9256	1,741.7	68.5835	1,741.7	67.2111	1,741.7	68.8482	1,741.7	68.0493	1,741.7	68.7816	1,741.7	65.4239	1,741.7	67.0025	1,741.7	66.0059	1,741.7	61.7951	1,741.7	62.9335
1,803.22	78.8254	1,803.22	78.9003	1,803.22	78.903	1,803.22	78.7273	1,803.22	78.7208	1,803.22	77.8668	1,803.22	77.728	1,803.22	77.0957	1,803.22	77.7378	1,803.22	75.1282	1,803.22	77.3536	1,803.22	74.5243	1,803.22	73.9723	1,803.22	72.3534	1,803.22	72.4455	1,803.22	74.1723	1,803.22	70.1134	1,803.22	73.438	1,803.22	66.9746	1,803.22	71.8522	1,803.22	66.522	1,803.22	68.5059	1,803.22	66.4156	1,803.22	63.8126	1,803.22	66.5865	1,803.22	63.1488	1,803.22	68.6161	1,803.22	67.6183	1,803.22	72.7122	1,803.22	72.0331	1,803.22	71.817	1,803.22	72.6304	1,803.22	71.9939	1,803.22	71.7021	1,803.22	70.7143	1,803.22	70.7578
1,866.21	81.8032	1,866.21	80.7813	1,866.21	80.9518	1,866.21	81.1754	1,866.21	80.7163	1,866.21	80.7321	1,866.21	80.3831	1,866.21	79.3376	1,866.21	79.4535	1,866.21	77.8762	1,866.21	76.7675	1,866.21	77.3399	1,866.21	75.7435	1,866.21	74.9426	1,866.21	74.354	1,866.21	75.196	1,866.21	73.4144	1,866.21	77.6387	1,866.21	71.1006	1,866.21	76.9816	1,866.21	70.3411	1,866.21	76.1172	1,866.21	72.0082	1,866.21	71.5167	1,866.21	67.9463	1,866.21	67.8426	1,866.21	67.8884	1,866.21	65.0751	1,866.21	66.7215	1,866.21	67.9718	1,866.21	66.4972	1,866.21	72.201	1,866.21	70.5628	1,866.21	72.507	1,866.21	71.1807	1,866.21	73.1128
1,932.13	81.3646	1,932.13	81.361	1,932.13	81.538	1,932.13	81.0946	1,932.13	80.6025	1,932.13	80.1049	1,932.13	79.931	1,932.13	79.2793	1,932.13	79.2574	1,932.13	78.7924	1,932.13	79.4108	1,932.13	77.5322	1,932.13	77.7208	1,932.13	75.5448	1,932.13	76.7422	1,932.13	73.7288	1,932.13	74.8198	1,932.13	72.9165	1,932.13	73.1389	1,932.13	69.1441	1,932.13	74.6833	1,932.13	69.6688	1,932.13	72.229	1,932.13	68.435	1,932.13	69.2711	1,932.13	70.4591	1,932.13	68.3933	1,932.13	71.8127	1,932.13	66.4104	1,932.13	71.8646	1,932.13	64.8278	1,932.13	70.4248	1,932.13	64.8343	1,932.13	74.0131	1,932.13	69.6937	1,932.13	72.902
1,999.51	81.388	1,999.51	81.2259	1,999.51	81.2096	1,999.51	80.5606	1,999.51	80.8379	1,999.51	80.1325	1,999.51	80.3122	1,999.51	79.0181	1,999.51	79.7209	1,999.51	78.0426	1,999.51	78.7693	1,999.51	76.575	1,999.51	77.8012	1,999.51	75.4109	1,999.51	75.7678	1,999.51	73.0147	1,999.51	74.8874	1,999.51	72.5323	1,999.51	74.0117	1,999.51	71.9985	1,999.51	72.5536	1,999.51	71.1831	1,999.51	71.5096	1,999.51	70.1996	1,999.51	69.8091	1,999.51	69.5531	1,999.51	69.2894	1,999.51	68.8074	1,999.51	69.236	1,999.51	66.9308	1,999.51	69.0902	1,999.51	68.1275	1,999.51	66.4489	1,999.51	68.2488	1,999.51	67.6154	1,999.51	68.7536
2,069.82	81.629	2,069.82	81.138	2,069.82	81.5065	2,069.82	80.6976	2,069.82	81.0836	2,069.82	79.7845	2,069.82	80.6003	2,069.82	78.8926	2,069.82	79.5433	2,069.82	78.2144	2,069.82	78.9115	2,069.82	76.9931	2,069.82	77.8997	2,069.82	75.4345	2,069.82	76.8616	2,069.82	73.4543	2,069.82	74.9745	2,069.82	71.7568	2,069.82	73.9263	2,069.82	70.867	2,069.82	72.8059	2,069.82	70.6214	2,069.82	71.6028	2,069.82	68.1139	2,069.82	68.4648	2,069.82	68.816	2,069.82	69.4261	2,069.82	69.394	2,069.82	70.7369	2,069.82	68.3337	2,069.82	69.6945	2,069.82	65.564	2,069.82	68.0053	2,069.82	66.0116	2,069.82	66.8921	2,069.82	64.6856
2,143.07	82.304	2,143.07	82.1838	2,143.07	82.0901	2,143.07	81.5487	2,143.07	81.542	2,143.07	80.4499	2,143.07	80.6961	2,143.07	79.2664	2,143.07	79.5948	2,143.07	78.007	2,143.07	78.6356	2,143.07	77.2996	2,143.07	77.7998	2,143.07	76.0633	2,143.07	76.6184	2,143.07	74.4563	2,143.07	74.4143	2,143.07	71.7891	2,143.07	72.9297	2,143.07	71.7982	2,143.07	72.697	2,143.07	71.0429	2,143.07	70.6088	2,143.07	68.0485	2,143.07	68.2039	2,143.07	66.5789	2,143.07	68.9218	2,143.07	69.9344	2,143.07	70.6689	2,143.07	69.2732	2,143.07	70.883	2,143.07	69.2188	2,143.07	69.2017	2,143.07	68.4805	2,143.07	68.2909	2,143.07	68.72
2,219.24	81.701	2,219.24	81.4754	2,219.24	81.5625	2,219.24	81.2724	2,219.24	81.0191	2,219.24	80.2223	2,219.24	80.1824	2,219.24	78.782	2,219.24	78.7315	2,219.24	77.9653	2,219.24	77.1177	2,219.24	76.6237	2,219.24	75.6019	2,219.24	76.0145	2,219.24	75.2862	2,219.24	74.9389	2,219.24	72.6571	2,219.24	71.9495	2,219.24	71.0477	2,219.24	70.2451	2,219.24	70.2277	2,219.24	70.2547	2,219.24	69.1546	2,219.24	69.1165	2,219.24	67.565	2,219.24	65.1808	2,219.24	65.2402	2,219.24	69.1187	2,219.24	69.7468	2,219.24	72.0155	2,219.24	70.1229	2,219.24	69.2289	2,219.24	68.368	2,219.24	70.8184	2,219.24	69.1446	2,219.24	67.964
2,296.88	80.8887	2,296.88	80.4719	2,296.88	80.7933	2,296.88	80.5596	2,296.88	80.2149	2,296.88	79.837	2,296.88	79.4118	2,296.88	78.6943	2,296.88	77.946	2,296.88	77.0961	2,296.88	76.3001	2,296.88	74.7374	2,296.88	74.3609	2,296.88	74.38	2,296.88	73.327	2,296.88	72.757	2,296.88	71.7952	2,296.88	71.9043	2,296.88	69.519	2,296.88	71.1919	2,296.88	68.4493	2,296.88	69.8377	2,296.88	68.7299	2,296.88	67.4251	2,296.88	66.4219	2,296.88	66.299	2,296.88	61.8046	2,296.88	69.2549	2,296.88	68.8945	2,296.88	70.9663	2,296.88	70.1534	2,296.88	70.6304	2,296.88	70.3547	2,296.88	69.7162	2,296.88	69.7614	2,296.88	68.4413
2,378.91	79.8901	2,378.91	80.1163	2,378.91	79.9215	2,378.91	79.6323	2,378.91	79.8514	2,378.91	79.0778	2,378.91	79.2273	2,378.91	78.0919	2,378.91	78.7102	2,378.91	76.1411	2,378.91	77.2839	2,378.91	74.3404	2,378.91	75.648	2,378.91	74.1511	2,378.91	74.3781	2,378.91	72.4855	2,378.91	72.9238	2,378.91	69.4896	2,378.91	70.5374	2,378.91	68.7545	2,378.91	69.42	2,378.91	69.8531	2,378.91	70.1939	2,378.91	67.2071	2,378.91	68.0767	2,378.91	59.8532	2,378.91	64.7699	2,378.91	67.1827	2,378.91	62.6342	2,378.91	70.8447	2,378.91	69.3356	2,378.91	71.8434	2,378.91	70.1443	2,378.91	71.2667	2,378.91	70.035	2,378.91	72.0726
2,462.4	81.3794	2,462.4	81.1608	2,462.4	81.2521	2,462.4	80.3799	2,462.4	80.847	2,462.4	79.8942	2,462.4	80.2642	2,462.4	79.1656	2,462.4	79.265	2,462.4	77.5543	2,462.4	78.085	2,462.4	74.0582	2,462.4	76.3299	2,462.4	72.7358	2,462.4	74.5733	2,462.4	71.5148	2,462.4	73.7019	2,462.4	69.6733	2,462.4	71.2659	2,462.4	67.5838	2,462.4	69.1024	2,462.4	69.2747	2,462.4	70.1594	2,462.4	67.8248	2,462.4	70.4585	2,462.4	63.4934	2,462.4	65.3743	2,462.4	60.7068	2,462.4	60.9211	2,462.4	69.9085	2,462.4	70.4053	2,462.4	73.7111	2,462.4	73.1153	2,462.4	73.8687	2,462.4	74.1354	2,462.4	74.5012
2,548.83	82.2407	2,548.83	82.039	2,548.83	82.0361	2,548.83	81.2721	2,548.83	80.9731	2,548.83	80.6819	2,548.83	80.32	2,548.83	79.9418	2,548.83	79.2858	2,548.83	78.9695	2,548.83	78.1125	2,548.83	76.8265	2,548.83	76.5267	2,548.83	73.5593	2,548.83	74.5938	2,548.83	73.2024	2,548.83	73.9363	2,548.83	72.0817	2,548.83	71.9775	2,548.83	68.5363	2,548.83	65.4102	2,548.83	65.7595	2,548.83	67.3427	2,548.83	70.0571	2,548.83	70.5858	2,548.83	68.5855	2,548.83	68.1716	2,548.83	48.8836	2,548.83	54.1059	2,548.83	67.7751	2,548.83	67.7566	2,548.83	74.755	2,548.83	73.8277	2,548.83	75.9348	2,548.83	76.4758	2,548.83	77.0578
2,639.65	81.8953	2,639.65	81.8215	2,639.65	81.7574	2,639.65	81.1808	2,639.65	80.8671	2,639.65	80.1644	2,639.65	80.0406	2,639.65	79.0325	2,639.65	78.72	2,639.65	78.3038	2,639.65	77.4531	2,639.65	77.0033	2,639.65	75.4337	2,639.65	74.7391	2,639.65	73.3996	2,639.65	74.2538	2,639.65	73.0416	2,639.65	72.398	2,639.65	72.6606	2,639.65	69.4287	2,639.65	68.6887	2,639.65	64.647	2,639.65	64.4846	2,639.65	67.8266	2,639.65	67.891	2,639.65	69.1642	2,639.65	68.0035	2,639.65	64.4657	2,639.65	65.4859	2,639.65	57.8924	2,639.65	50.6801	2,639.65	71.3103	2,639.65	69.7111	2,639.65	75.5218	2,639.65	74.1974	2,639.65	75.6021
2,731.93	80.3743	2,731.93	80.5155	2,731.93	80.5159	2,731.93	79.6996	2,731.93	79.9167	2,731.93	78.6718	2,731.93	78.896	2,731.93	77.6176	2,731.93	77.7454	2,731.93	76.6545	2,731.93	76.3344	2,731.93	75.9736	2,731.93	75.3088	2,731.93	72.9585	2,731.93	73.1178	2,731.93	72.2512	2,731.93	71.6438	2,731.93	71.5498	2,731.93	70.2813	2,731.93	69.4301	2,731.93	69.4533	2,731.93	65.0051	2,731.93	65.6262	2,731.93	66.5578	2,731.93	65.249	2,731.93	67.8311	2,731.93	66.4682	2,731.93	65.0825	2,731.93	66.1804	2,731.93	57.0438	2,731.93	58.1069	2,731.93	67.2275	2,731.93	65.8194	2,731.93	72.0119	2,731.93	71.4166	2,731.93	72.2168
2,828.61	80.7239	2,828.61	80.4274	2,828.61	79.6607	2,828.61	79.5277	2,828.61	79.9729	2,828.61	78.8572	2,828.61	78.4053	2,828.61	77.8657	2,828.61	77.7561	2,828.61	76.0335	2,828.61	76.6568	2,828.61	75.4314	2,828.61	75.9112	2,828.61	73.3891	2,828.61	73.3769	2,828.61	69.4325	2,828.61	71.5533	2,828.61	70.1652	2,828.61	70.4894	2,828.61	67.1995	2,828.61	70.4525	2,828.61	65.2497	2,828.61	66.9692	2,828.61	66.3989	2,828.61	63.9795	2,828.61	66.4326	2,828.61	67.0601	2,828.61	65.3608	2,828.61	65.6256	2,828.61	43.1594	2,828.61	59.0026	2,828.61	64.9944	2,828.61	65.421	2,828.61	70.8986	2,828.61	70.9989	2,828.61	71.7607
2,928.22	81.0676	2,928.22	80.6692	2,928.22	80.8512	2,928.22	79.9121	2,928.22	80.3079	2,928.22	78.9657	2,928.22	79.0451	2,928.22	77.7729	2,928.22	78.1229	2,928.22	76.501	2,928.22	77.4028	2,928.22	75.5018	2,928.22	76.0037	2,928.22	73.6232	2,928.22	74.1901	2,928.22	69.6353	2,928.22	72.7321	2,928.22	70.1413	2,928.22	72.0849	2,928.22	69.1668	2,928.22	71.061	2,928.22	66.3327	2,928.22	65.1856	2,928.22	63.5932	2,928.22	64.5828	2,928.22	66.4895	2,928.22	66.1546	2,928.22	66.7903	2,928.22	66.0999	2,928.22	58.502	2,928.22	59.6915	2,928.22	66.7903	2,928.22	64.431	2,928.22	71.7449	2,928.22	70.8641	2,928.22	73.7734
3,030.76	81.8675	3,030.76	81.39	3,030.76	81.4457	3,030.76	81.1987	3,030.76	80.9275	3,030.76	80.1372	3,030.76	80.2112	3,030.76	78.693	3,030.76	78.8299	3,030.76	76.4687	3,030.76	77.0145	3,030.76	75.805	3,030.76	76.6771	3,030.76	74.3001	3,030.76	75.1027	3,030.76	72.705	3,030.76	71.9431	3,030.76	70.3163	3,030.76	70.6595	3,030.76	70.412	3,030.76	70.8948	3,030.76	68.848	3,030.76	68.955	3,030.76	63.4706	3,030.76	66.824	3,030.76	64.7845	3,030.76	64.768	3,030.76	65.8986	3,030.76	67.178	3,030.76	59.4917	3,030.76	63.6036	3,030.76	63.1482	3,030.76	60.6988	3,030.76	69.9402	3,030.76	70.9172	3,030.76	73.5275
3,137.7	82.2143	3,137.7	81.9223	3,137.7	81.9304	3,137.7	81.6256	3,137.7	80.8765	3,137.7	80.8568	3,137.7	80.331	3,137.7	78.9694	3,137.7	79.0484	3,137.7	77.4126	3,137.7	77.6964	3,137.7	75.8816	3,137.7	76.182	3,137.7	74.6213	3,137.7	75.0154	3,137.7	73.684	3,137.7	72.7027	3,137.7	70.2974	3,137.7	70.7906	3,137.7	70.6767	3,137.7	70.623	3,137.7	69.5767	3,137.7	69.1962	3,137.7	65.9108	3,137.7	67.1582	3,137.7	64.7109	3,137.7	65.1158	3,137.7	67.1621	3,137.7	65.5321	3,137.7	66.1524	3,137.7	64.2052	3,137.7	51.7649	3,137.7	40.6996	3,137.7	69.7251	3,137.7	67.6081	3,137.7	71.8314
3,249.02	81.6921	3,249.02	81.4314	3,249.02	82.0506	3,249.02	80.859	3,249.02	81.0312	3,249.02	79.9201	3,249.02	80.243	3,249.02	78.4998	3,249.02	79.1254	3,249.02	77.8591	3,249.02	77.9124	3,249.02	75.838	3,249.02	75.8797	3,249.02	74.5629	3,249.02	75.0222	3,249.02	74.2128	3,249.02	73.4309	3,249.02	71.233	3,249.02	71.7875	3,249.02	70.4076	3,249.02	70.1666	3,249.02	68.0855	3,249.02	68.1942	3,249.02	66.6744	3,249.02	66.4105	3,249.02	62.596	3,249.02	63.6665	3,249.02	65.438	3,249.02	65.5695	3,249.02	64.4124	3,249.02	63.0324	3,249.02	56.1906	3,249.02	54.6212	3,249.02	70.0084	3,249.02	67.6662	3,249.02	72.6123
3,363.28	81.3122	3,363.28	81.1357	3,363.28	81.9251	3,363.28	80.7406	3,363.28	81.0664	3,363.28	79.6187	3,363.28	80.4797	3,363.28	78.605	3,363.28	79.4319	3,363.28	77.4987	3,363.28	78.0214	3,363.28	75.2772	3,363.28	75.6575	3,363.28	74.812	3,363.28	75.3306	3,363.28	73.7275	3,363.28	73.8745	3,363.28	70.6538	3,363.28	71.9338	3,363.28	69.4126	3,363.28	70.2674	3,363.28	68.5058	3,363.28	68.731	3,363.28	66.8214	3,363.28	65.4042	3,363.28	64.1572	3,363.28	65.5305	3,363.28	65.5338	3,363.28	66.9518	3,363.28	62.3635	3,363.28	63.5838	3,363.28	52.3721	3,363.28	55.483	3,363.28	70.3606	3,363.28	69.0823	3,363.28	70.9517
3,481.93	81.478	3,481.93	81.489	3,481.93	81.0532	3,481.93	80.5739	3,481.93	81.2421	3,481.93	79.9117	3,481.93	80.364	3,481.93	79.2895	3,481.93	79.9501	3,481.93	78.9741	3,481.93	78.623	3,481.93	76.6915	3,481.93	76.6978	3,481.93	75.7374	3,481.93	74.236	3,481.93	74.5069	3,481.93	73.8374	3,481.93	72.5315	3,481.93	71.0963	3,481.93	70.6621	3,481.93	69.5237	3,481.93	69.7103	3,481.93	69.2894	3,481.93	66.0548	3,481.93	64.8804	3,481.93	65.0068	3,481.93	66.7059	3,481.93	64.726	3,481.93	64.0722	3,481.93	65.8624	3,481.93	65.5801	3,481.93	45.009	3,481.93	44.5294	3,481.93	65.9396	3,481.93	66.8424	3,481.93	69.5192
3,604.98	80.9462	3,604.98	81.1927	3,604.98	80.11	3,604.98	80.9282	3,604.98	81.1877	3,604.98	80.8295	3,604.98	80.3716	3,604.98	80.8073	3,604.98	79.1909	3,604.98	78.8232	3,604.98	77.6526	3,604.98	77.6417	3,604.98	77.7884	3,604.98	76.9057	3,604.98	76.0853	3,604.98	74.0584	3,604.98	73.9614	3,604.98	73.7658	3,604.98	71.958	3,604.98	70.4697	3,604.98	70.3135	3,604.98	69.3278	3,604.98	70.0977	3,604.98	69.0031	3,604.98	67.7218	3,604.98	64.3717	3,604.98	67.6185	3,604.98	64.953	3,604.98	64.4111	3,604.98	67.9627	3,604.98	66.4216	3,604.98	54.0566	3,604.98	56.9293	3,604.98	63.3161	3,604.98	64.3243	3,604.98	68.7585
3,732.42	81.0384	3,732.42	81.1779	3,732.42	80.6238	3,732.42	80.9832	3,732.42	80.8856	3,732.42	80.9245	3,732.42	80.2643	3,732.42	80.5932	3,732.42	80.1376	3,732.42	78.6617	3,732.42	79.3885	3,732.42	77.3757	3,732.42	77.9912	3,732.42	76.0897	3,732.42	77.3046	3,732.42	74.2701	3,732.42	74.4498	3,732.42	72.9059	3,732.42	73.3224	3,732.42	70.7323	3,732.42	71.5574	3,732.42	69.8814	3,732.42	69.8338	3,732.42	68.8757	3,732.42	68.2965	3,732.42	68.0491	3,732.42	67.3686	3,732.42	64.144	3,732.42	62.5363	3,732.42	66.2862	3,732.42	66.4278	3,732.42	54.1972	3,732.42	57.7714	3,732.42	63.1114	3,732.42	62.4198	3,732.42	68.1691
3,864.26	80.9101	3,864.26	81.2603	3,864.26	81.2212	3,864.26	81.3737	3,864.26	79.8827	3,864.26	81.1231	3,864.26	79.6874	3,864.26	80.176	3,864.26	79.191	3,864.26	78.7873	3,864.26	79.2481	3,864.26	77.9978	3,864.26	78.2823	3,864.26	75.6525	3,864.26	75.9854	3,864.26	75.2078	3,864.26	74.3886	3,864.26	72.2038	3,864.26	72.3937	3,864.26	72.4128	3,864.26	70.7028	3,864.26	69.3285	3,864.26	68.2578	3,864.26	67.3805	3,864.26	66.2821	3,864.26	68.412	3,864.26	67.4861	3,864.26	61.8786	3,864.26	63.1841	3,864.26	65.5992	3,864.26	66.471	3,864.26	60.6397	3,864.26	61.4389	3,864.26	60.3903	3,864.26	58.0673	3,864.26	67.2763
4,000.49	79.9558	4,000.49	79.7302	4,000.49	80.7143	4,000.49	79.8921	4,000.49	79.1117	4,000.49	80.4044	4,000.49	79.6435	4,000.49	78.3968	4,000.49	78.9822	4,000.49	78.4775	4,000.49	78.6325	4,000.49	77.7215	4,000.49	77.3846	4,000.49	75.2261	4,000.49	75.1242	4,000.49	74.6134	4,000.49	73.8988	4,000.49	71.5732	4,000.49	72.7249	4,000.49	71.1187	4,000.49	70.1606	4,000.49	68.481	4,000.49	69.7427	4,000.49	65.8938	4,000.49	64.614	4,000.49	68.1976	4,000.49	68.1653	4,000.49	63.3011	4,000.49	62.7292	4,000.49	65.8036	4,000.49	64.7516	4,000.49	60.3782	4,000.49	63.9214	4,000.49	59.3074	4,000.49	56.0974	4,000.49	67.1605
4,141.11	80.8637	4,141.11	79.6386	4,141.11	81.2633	4,141.11	80.1737	4,141.11	80.4859	4,141.11	79.9102	4,141.11	80.2918	4,141.11	78.7533	4,141.11	80.3449	4,141.11	79.3589	4,141.11	79.095	4,141.11	78.2157	4,141.11	77.9739	4,141.11	76.5099	4,141.11	76.1611	4,141.11	73.7603	4,141.11	73.9836	4,141.11	72.3219	4,141.11	73.9127	4,141.11	69.3319	4,141.11	70.1463	4,141.11	71.0891	4,141.11	69.6422	4,141.11	65.3712	4,141.11	64.2704	4,141.11	69.8643	4,141.11	69.87	4,141.11	67.7608	4,141.11	64.8079	4,141.11	60.9233	4,141.11	55.9162	4,141.11	60.6432	4,141.11	63.4381	4,141.11	59.2654	4,141.11	59.9468	4,141.11	65.4786
4,287.6	80.8477	4,287.6	81.272	4,287.6	80.0471	4,287.6	81.0074	4,287.6	81.4425	4,287.6	79.9489	4,287.6	80.3701	4,287.6	80.2271	4,287.6	80.2996	4,287.6	79.4446	4,287.6	79.3677	4,287.6	78.196	4,287.6	77.3237	4,287.6	77.1187	4,287.6	76.1696	4,287.6	73.9563	4,287.6	73.8254	4,287.6	73.0852	4,287.6	72.6303	4,287.6	69.732	4,287.6	69.9013	4,287.6	69.903	4,287.6	68.1371	4,287.6	67.3269	4,287.6	67.8075	4,287.6	68.5247	4,287.6	65.9079	4,287.6	68.5669	4,287.6	66.6087	4,287.6	59.1902	4,287.6	56.8282	4,287.6	60.136	4,287.6	60.8028	4,287.6	62.084	4,287.6	61.6595	4,287.6	65.6141
4,438.48	80.6708	4,438.48	81.9897	4,438.48	80.1356	4,438.48	80.7385	4,438.48	81.4011	4,438.48	80.4546	4,438.48	81.184	4,438.48	81.1075	4,438.48	79.974	4,438.48	78.923	4,438.48	78.4933	4,438.48	76.9122	4,438.48	76.8461	4,438.48	75.0129	4,438.48	75.4053	4,438.48	72.739	4,438.48	73.8159	4,438.48	72.0013	4,438.48	72.0933	4,438.48	70.094	4,438.48	70.5352	4,438.48	68.0174	4,438.48	67.6797	4,438.48	66.7689	4,438.48	66.9743	4,438.48	62.5087	4,438.48	56.6252	4,438.48	65.8041	4,438.48	69.0423	4,438.48	62.3162	4,438.48	59.8309	4,438.48	57.4888	4,438.48	42.4914	4,438.48	61.7474	4,438.48	62.7349	4,438.48	66.5228
4,595.21	81.9355	4,595.21	81.4679	4,595.21	82.0851	4,595.21	81.9472	4,595.21	80.6093	4,595.21	81.2527	4,595.21	80.6266	4,595.21	80.5519	4,595.21	78.8422	4,595.21	79.015	4,595.21	76.3235	4,595.21	76.9647	4,595.21	76.4364	4,595.21	75.0935	4,595.21	75.3573	4,595.21	73.9772	4,595.21	71.6699	4,595.21	70.0808	4,595.21	69.5082	4,595.21	70.0854	4,595.21	69.5333	4,595.21	61.2903	4,595.21	63.3843	4,595.21	67.9252	4,595.21	66.3334	4,595.21	57.2653	4,595.21	62.2799	4,595.21	65.1313	4,595.21	67.5452	4,595.21	63.9223	4,595.21	63.1538	4,595.21	47.0763	4,595.21	51.8374	4,595.21	58.917	4,595.21	58.9412	4,595.21	66.4128
4,756.35	82.0485	4,756.35	81.2537	4,756.35	82.1877	4,756.35	82.0915	4,756.35	80.6797	4,756.35	80.5831	4,756.35	79.3858	4,756.35	78.2554	4,756.35	79.1235	4,756.35	76.639	4,756.35	78.1727	4,756.35	75.782	4,756.35	76.3807	4,756.35	75.5253	4,756.35	74.1745	4,756.35	72.7775	4,756.35	73.4259	4,756.35	70.4232	4,756.35	70.5313	4,756.35	66.1319	4,756.35	68.4306	4,756.35	66.4492	4,756.35	66.7237	4,756.35	67.6131	4,756.35	64.2813	4,756.35	64.8044	4,756.35	62.7162	4,756.35	66.9365	4,756.35	64.8814	4,756.35	64.4954	4,756.35	64.0803	4,756.35	58.0008	4,756.35	57.2532	4,756.35	61.7806	4,756.35	56.0294	4,756.35	65.5594
4,924.8	81.087	4,924.8	82.0529	4,924.8	80.6903	4,924.8	80.3306	4,924.8	81.3872	4,924.8	80.4854	4,924.8	79.6584	4,924.8	79.0978	4,924.8	80.1516	4,924.8	77.4232	4,924.8	79.3003	4,924.8	76.2852	4,924.8	76.2412	4,924.8	74.7146	4,924.8	74.1438	4,924.8	70.3176	4,924.8	70.8976	4,924.8	70.3944	4,924.8	70.5153	4,924.8	66.7357	4,924.8	67.4065	4,924.8	65.9655	4,924.8	67.4241	4,924.8	63.1861	4,924.8	65.4742	4,924.8	62.0013	4,924.8	60.3441	4,924.8	64.6635	4,924.8	65.981	4,924.8	62.1971	4,924.8	65.6502	4,924.8	57.6275	4,924.8	57.4607	4,924.8	61.1282	4,924.8	58.1721	4,924.8	66.7568
5,097.66	80.611	5,097.66	80.9501	5,097.66	81.4098	5,097.66	80.24	5,097.66	80.6938	5,097.66	80.3814	5,097.66	80.7733	5,097.66	79.6538	5,097.66	79.388	5,097.66	78.3668	5,097.66	78.2203	5,097.66	76.5742	5,097.66	75.9925	5,097.66	73.9788	5,097.66	73.628	5,097.66	71.1373	5,097.66	71.0721	5,097.66	70.1189	5,097.66	70.0562	5,097.66	71.4596	5,097.66	66.1532	5,097.66	67.1477	5,097.66	64.5516	5,097.66	63.0341	5,097.66	62.4159	5,097.66	59.8489	5,097.66	61.8118	5,097.66	63.1352	5,097.66	65.0848	5,097.66	61.9044	5,097.66	63.2413	5,097.66	57.1531	5,097.66	58.8972	5,097.66	57.5589	5,097.66	55.3387	5,097.66	66.0451
5,277.83	81.7579	5,277.83	80.7662	5,277.83	82.0557	5,277.83	81.8867	5,277.83	80.2337	5,277.83	80.3603	5,277.83	80.5596	5,277.83	79.4669	5,277.83	78.1635	5,277.83	77.516	5,277.83	75.8623	5,277.83	74.4244	5,277.83	74.5203	5,277.83	69.9478	5,277.83	72.7646	5,277.83	71.1521	5,277.83	69.912	5,277.83	66.6086	5,277.83	67.2951	5,277.83	69.9687	5,277.83	64.2415	5,277.83	65.8287	5,277.83	61.359	5,277.83	58.8773	5,277.83	61.1231	5,277.83	64.4551	5,277.83	61.5897	5,277.83	56.5033	5,277.83	57.6867	5,277.83	60.7365	5,277.83	59.3474	5,277.83	59.9595	5,277.83	55.6377	5,277.83	53.0988	5,277.83	56.0597	5,277.83	62.4734
5,463.87	81.9098	5,463.87	81.6436	5,463.87	80.3898	5,463.87	82.0749	5,463.87	81.2436	5,463.87	81.4701	5,463.87	79.1442	5,463.87	80.0726	5,463.87	79.0588	5,463.87	78.0357	5,463.87	77.0467	5,463.87	76.1984	5,463.87	73.9002	5,463.87	73.5039	5,463.87	70.7478	5,463.87	72.798	5,463.87	70.2266	5,463.87	68.0766	5,463.87	67.5466	5,463.87	64.9271	5,463.87	64.7506	5,463.87	65.0645	5,463.87	65.2725	5,463.87	61.5417	5,463.87	51.5013	5,463.87	62.9643	5,463.87	61.9815	5,463.87	58.6183	5,463.87	52.6915	5,463.87	60.4595	5,463.87	60.8798	5,463.87	56.5227	5,463.87	58.9607	5,463.87	53.5181	5,463.87	54.7792	5,463.87	62.9628
5,657.23	81.3771	5,657.23	81.3652	5,657.23	80.7998	5,657.23	80.0972	5,657.23	80.8607	5,657.23	79.4199	5,657.23	79.7062	5,657.23	77.1612	5,657.23	78.8102	5,657.23	75.5329	5,657.23	76.7346	5,657.23	72.7877	5,657.23	74.4037	5,657.23	72.9363	5,657.23	71.5474	5,657.23	69.4952	5,657.23	69.1945	5,657.23	67.4272	5,657.23	62.7934	5,657.23	60.9195	5,657.23	63.563	5,657.23	64.9106	5,657.23	61.6477	5,657.23	59.1066	5,657.23	60.4709	5,657.23	61.609	5,657.23	62.6091	5,657.23	58.2558	5,657.23	56.4019	5,657.23	56.6185	5,657.23	60.879	5,657.23	55.8429	5,657.23	58.259	5,657.23	52.5777	5,657.23	53.953	5,657.23	61.705
5,856.45	80.9279	5,856.45	81.5058	5,856.45	81.8017	5,856.45	80.4221	5,856.45	79.4873	5,856.45	79.5469	5,856.45	80.0033	5,856.45	78.2322	5,856.45	77.1891	5,856.45	76.2623	5,856.45	73.9963	5,856.45	73.3513	5,856.45	73.0815	5,856.45	72.1267	5,856.45	70.4364	5,856.45	64.7707	5,856.45	63.834	5,856.45	64.5408	5,856.45	64.2175	5,856.45	64.0781	5,856.45	62.483	5,856.45	58.2836	5,856.45	58.8509	5,856.45	57.8477	5,856.45	59.9604	5,856.45	56.1469	5,856.45	57.8716	5,856.45	57.0345	5,856.45	59.4074	5,856.45	55.0584	5,856.45	56.607	5,856.45	57.9291	5,856.45	61.1965	5,856.45	51.0437	5,856.45	56.6992	5,856.45	58.9306
6,062.99	81.7922	6,062.99	81.7195	6,062.99	81.6555	6,062.99	80.8193	6,062.99	81.0147	6,062.99	79.4314	6,062.99	78.9728	6,062.99	78.6083	6,062.99	77.9477	6,062.99	75.0478	6,062.99	74.8992	6,062.99	72.5968	6,062.99	71.9313	6,062.99	67.4751	6,062.99	67.3131	6,062.99	65.5109	6,062.99	66.4854	6,062.99	61.5812	6,062.99	64.4278	6,062.99	65.349	6,062.99	60.8004	6,062.99	59.5824	6,062.99	58.2067	6,062.99	59.6725	6,062.99	59.5043	6,062.99	57.2901	6,062.99	52.3737	6,062.99	56.8307	6,062.99	55.9655	6,062.99	55.6166	6,062.99	46.3402	6,062.99	57.5814	6,062.99	56.0286	6,062.99	54.3303	6,062.99	53.4983	6,062.99	57.2564
6,276.86	80.969	6,276.86	80.5149	6,276.86	80.7382	6,276.86	79.9967	6,276.86	80.3921	6,276.86	79.2154	6,276.86	78.5322	6,276.86	77.6476	6,276.86	76.9	6,276.86	75.1814	6,276.86	75.2563	6,276.86	72.7659	6,276.86	70.5316	6,276.86	67.8151	6,276.86	68.475	6,276.86	66.9585	6,276.86	65.2564	6,276.86	63.749	6,276.86	63.9218	6,276.86	62.2132	6,276.86	57.8275	6,276.86	60.1794	6,276.86	58.5809	6,276.86	59.2795	6,276.86	56.5414	6,276.86	57.6668	6,276.86	52.3964	6,276.86	47.7943	6,276.86	55.2008	6,276.86	52.9758	6,276.86	54.0911	6,276.86	55.9534	6,276.86	52.0495	6,276.86	55.4306	6,276.86	56.4655	6,276.86	54.3354
6,498.05	80.8943	6,498.05	80.6225	6,498.05	81.0105	6,498.05	79.9827	6,498.05	79.5837	6,498.05	78.9182	6,498.05	78.905	6,498.05	76.1872	6,498.05	75.9585	6,498.05	74.0628	6,498.05	73.2329	6,498.05	70.7495	6,498.05	70.4773	6,498.05	69.6578	6,498.05	68.5624	6,498.05	64.1274	6,498.05	63.2198	6,498.05	62.8958	6,498.05	60.8744	6,498.05	56.5134	6,498.05	58.5512	6,498.05	58.1477	6,498.05	57.7068	6,498.05	54.4684	6,498.05	53.7511	6,498.05	52.4189	6,498.05	52.4581	6,498.05	55.0133	6,498.05	54.6609	6,498.05	53.0128	6,498.05	55.7126	6,498.05	49.1657	6,498.05	35.8061	6,498.05	53.1895	6,498.05	55.4394	6,498.05	38.3644
6,726.56	81.3489	6,726.56	81.2794	6,726.56	80.7834	6,726.56	80.5577	6,726.56	80.176	6,726.56	78.9605	6,726.56	78.6604	6,726.56	76.7058	6,726.56	76.7492	6,726.56	73.6189	6,726.56	73.2374	6,726.56	69.7482	6,726.56	69.3314	6,726.56	68.2636	6,726.56	63.65	6,726.56	62.7428	6,726.56	61.9071	6,726.56	60.9482	6,726.56	57.8397	6,726.56	58.3184	6,726.56	57.0642	6,726.56	55.5832	6,726.56	56.1525	6,726.56	54.4268	6,726.56	55.1001	6,726.56	47.8697	6,726.56	55.7038	6,726.56	53.0858	6,726.56	52.4901	6,726.56	53.849	6,726.56	54.4476	6,726.56	44.3563	6,726.56	45.3738	6,726.56	51.3687	6,726.56	54.1222	6,726.56	35.2335
6,963.87	80.6871	6,963.87	80.5164	6,963.87	80.0293	6,963.87	79.6768	6,963.87	79.7373	6,963.87	77.6364	6,963.87	77.5318	6,963.87	75.7738	6,963.87	75.6149	6,963.87	71.2436	6,963.87	72.5378	6,963.87	69.0224	6,963.87	68.331	6,963.87	62.9658	6,963.87	63.4449	6,963.87	61.4702	6,963.87	60.7593	6,963.87	56.6024	6,963.87	57.7363	6,963.87	56.524	6,963.87	55.3073	6,963.87	57.6784	6,963.87	56.0794	6,963.87	54.3582	6,963.87	49.6173	6,963.87	53.9805	6,963.87	56.9367	6,963.87	45.3651	6,963.87	46.0622	6,963.87	54.6192	6,963.87	52.3285	6,963.87	39.2759	6,963.87	48.9513	6,963.87	47.1577	6,963.87	50.0523	6,963.87	40.3782
7,209.96	80.9371	7,209.96	80.905	7,209.96	81.016	7,209.96	79.851	7,209.96	79.4638	7,209.96	78.5058	7,209.96	77.7587	7,209.96	75.4409	7,209.96	74.9719	7,209.96	72.4041	7,209.96	71.0144	7,209.96	67.7053	7,209.96	67.9156	7,209.96	62.3074	7,209.96	64.0561	7,209.96	58.9725	7,209.96	59.4233	7,209.96	57.1407	7,209.96	55.1913	7,209.96	54.6954	7,209.96	56.5388	7,209.96	54.239	7,209.96	51.3752	7,209.96	50.0361	7,209.96	54.8115	7,209.96	57.4256	7,209.96	50.9862	7,209.96	54.0023	7,209.96	48.3156	7,209.96	52.6972	7,209.96	51.7168	7,209.96	49.751	7,209.96	52.7759	7,209.96	43.4053	7,209.96	43.6981	7,209.96	44.367
7,464.84	80.641	7,464.84	80.0991	7,464.84	80.352	7,464.84	78.8977	7,464.84	78.9851	7,464.84	77.162	7,464.84	77.2498	7,464.84	73.8198	7,464.84	74.5177	7,464.84	70.6119	7,464.84	70.0897	7,464.84	64.0675	7,464.84	65.6422	7,464.84	59.8659	7,464.84	60.708	7,464.84	55.4898	7,464.84	56.1639	7,464.84	54.9241	7,464.84	56.1153	7,464.84	54.4284	7,464.84	52.8377	7,464.84	48.9706	7,464.84	51.7112	7,464.84	51.5091	7,464.84	51.6964	7,464.84	50.7559	7,464.84	48.0967	7,464.84	48.1269	7,464.84	47.4051	7,464.84	49.6866	7,464.84	52.1323	7,464.84	48.4213	7,464.84	48.7565	7,464.84	38.2542	7,464.84	47.2904	7,464.84	35.1033
7,727.05	79.9098	7,727.05	79.4643	7,727.05	79.3663	7,727.05	78.3036	7,727.05	78.3462	7,727.05	76.3921	7,727.05	76.0102	7,727.05	73.9941	7,727.05	73.464	7,727.05	68.8648	7,727.05	68.9872	7,727.05	63.318	7,727.05	63.5301	7,727.05	57.6047	7,727.05	57.8702	7,727.05	56.1371	7,727.05	52.9339	7,727.05	52.9798	7,727.05	51.9773	7,727.05	52.6901	7,727.05	50.4994	7,727.05	50.1822	7,727.05	51.1645	7,727.05	50.1532	7,727.05	48.0725	7,727.05	47.5061	7,727.05	49.852	7,727.05	47.1273	7,727.05	48.2991	7,727.05	43.3979	7,727.05	46.287	7,727.05	44.0485	7,727.05	37.8087	7,727.05	44.6215	7,727.05	41.2863	7,727.05	43.0655
7,999.51	79.0468	7,999.51	78.7397	7,999.51	78.8212	7,999.51	77.6389	7,999.51	77.3597	7,999.51	75.4538	7,999.51	75.1439	7,999.51	71.6133	7,999.51	71.5378	7,999.51	65.6917	7,999.51	66.6765	7,999.51	60.7052	7,999.51	58.8867	7,999.51	51.1068	7,999.51	51.0418	7,999.51	50.4754	7,999.51	46.9623	7,999.51	51.2635	7,999.51	48.0624	7,999.51	50.1196	7,999.51	50.414	7,999.51	49.816	7,999.51	48.162	7,999.51	46.5309	7,999.51	45.1299	7,999.51	47.8107	7,999.51	42.8821	7,999.51	48.1799	7,999.51	47.0212	7,999.51	47.5897	7,999.51	45.7985	7,999.51	43.8784	7,999.51	40.4157	7,999.51	42.9876	7,999.51	33.502	7,999.51	39.761
8,282.23	79.1093	8,282.23	78.9264	8,282.23	78.5443	8,282.23	77.2547	8,282.23	77.1596	8,282.23	74.5526	8,282.23	74.6171	8,282.23	70.1756	8,282.23	70.1277	8,282.23	64.6412	8,282.23	63.3059	8,282.23	53.1233	8,282.23	52.0792	8,282.23	51.9305	8,282.23	44.406	8,282.23	52.4644	8,282.23	52.4808	8,282.23	54.3828	8,282.23	52.3047	8,282.23	51.7439	8,282.23	51.551	8,282.23	51.8705	8,282.23	48.3695	8,282.23	47.7055	8,282.23	49.9874	8,282.23	45.4084	8,282.23	49.0651	8,282.23	48.3855	8,282.23	45.3197	8,282.23	46.7044	8,282.23	38.4093	8,282.23	45.231	8,282.23	45.6495	8,282.23	41.2088	8,282.23	41.4352	8,282.23	38.0248
8,573.73	80.1177	8,573.73	79.8743	8,573.73	79.6353	8,573.73	78.0435	8,573.73	77.9557	8,573.73	75.7294	8,573.73	74.9995	8,573.73	71.5403	8,573.73	70.5877	8,573.73	63.4311	8,573.73	61.7796	8,573.73	53.4916	8,573.73	48.9217	8,573.73	54.4416	8,573.73	56.8541	8,573.73	56.2613	8,573.73	54.7989	8,573.73	56.2716	8,573.73	56.1976	8,573.73	54.3832	8,573.73	53.9565	8,573.73	51.8325	8,573.73	52.1616	8,573.73	49.9839	8,573.73	52.4003	8,573.73	50.3939	8,573.73	46.9599	8,573.73	51.0137	8,573.73	48.6149	8,573.73	45.8526	8,573.73	44.3811	8,573.73	47.6906	8,573.73	51.4694	8,573.73	45.7219	8,573.73	45.679	8,573.73	38.1568
8,876.95	80.7175	8,876.95	80.2534	8,876.95	80.1243	8,876.95	78.8007	8,876.95	78.3884	8,876.95	76.0433	8,876.95	75.1624	8,876.95	70.6744	8,876.95	69.9587	8,876.95	62.877	8,876.95	60.5107	8,876.95	56.6506	8,876.95	48.6074	8,876.95	57.3265	8,876.95	57.6241	8,876.95	58.4772	8,876.95	58.6106	8,876.95	55.6999	8,876.95	58.1119	8,876.95	54.1454	8,876.95	54.1393	8,876.95	53.1155	8,876.95	52.4	8,876.95	50.9844	8,876.95	49.8865	8,876.95	47.1503	8,876.95	47.9356	8,876.95	48.3816	8,876.95	48.1641	8,876.95	48.7152	8,876.95	46.5495	8,876.95	49.3248	8,876.95	51.022	8,876.95	43.8128	8,876.95	44.2791	8,876.95	37.1658
9,188.96	81.1896	9,188.96	80.7343	9,188.96	80.5325	9,188.96	79.0021	9,188.96	78.3973	9,188.96	75.8703	9,188.96	75.0426	9,188.96	70.6786	9,188.96	69.0085	9,188.96	62.9582	9,188.96	57.3904	9,188.96	53.6894	9,188.96	56.443	9,188.96	56.7874	9,188.96	60.7127	9,188.96	58.975	9,188.96	58.6241	9,188.96	58.8345	9,188.96	58.0553	9,188.96	56.4177	9,188.96	55.7381	9,188.96	53.0871	9,188.96	54.0759	9,188.96	52.1587	9,188.96	53.6217	9,188.96	51.2219	9,188.96	46.1354	9,188.96	50.28	9,188.96	47.2059	9,188.96	47.8459	9,188.96	46.8239	9,188.96	49.2635	9,188.96	49.0134	9,188.96	46.1153	9,188.96	46.4226	9,188.96	34.7889
9,514.16	81.2481	9,514.16	80.757	9,514.16	80.5134	9,514.16	78.9	9,514.16	78.3089	9,514.16	75.8235	9,514.16	74.4338	9,514.16	70.3321	9,514.16	68.1992	9,514.16	59.706	9,514.16	52.8532	9,514.16	54.0382	9,514.16	56.0422	9,514.16	58.8629	9,514.16	60.389	9,514.16	58.6656	9,514.16	59.9466	9,514.16	58.1637	9,514.16	58.7911	9,514.16	55.1481	9,514.16	55.5563	9,514.16	52.5219	9,514.16	54.6083	9,514.16	52.6797	9,514.16	51.2969	9,514.16	48.1296	9,514.16	48.9062	9,514.16	49.3299	9,514.16	47.5531	9,514.16	47.0365	9,514.16	42.6471	9,514.16	50.043	9,514.16	48.916	9,514.16	42.2232	9,514.16	45.9456	9,514.16	31.1122
9,849.61	81.4053	9,849.61	80.8495	9,849.61	80.4388	9,849.61	78.8518	9,849.61	78.0679	9,849.61	75.4912	9,849.61	73.8707	9,849.61	68.8991	9,849.61	66.2434	9,849.61	56.4029	9,849.61	38.4967	9,849.61	53.4215	9,849.61	60.4805	9,849.61	59.0964	9,849.61	62.1315	9,849.61	58.3717	9,849.61	61.033	9,849.61	55.6904	9,849.61	59.3286	9,849.61	53.5881	9,849.61	55.5971	9,849.61	52.327	9,849.61	54.0207	9,849.61	49.064	9,849.61	50.7279	9,849.61	47.0578	9,849.61	52.6897	9,849.61	46.8879	9,849.61	49.072	9,849.61	42.9686	9,849.61	40.192	9,849.61	47.983	9,849.61	49.537	9,849.61	41.7918	9,849.61	43.5847	9,849.61	38.7199
10,196.8	81.5679	10,196.8	80.8659	10,196.8	80.7319	10,196.8	78.4142	10,196.8	78.2412	10,196.8	74.1904	10,196.8	74.0007	10,196.8	67.0365	10,196.8	66.2374	10,196.8	55.7736	10,196.8	46.7528	10,196.8	59.7837	10,196.8	60.1804	10,196.8	60.7293	10,196.8	60.9806	10,196.8	59.0047	10,196.8	60.5932	10,196.8	58.3895	10,196.8	59.0624	10,196.8	53.4575	10,196.8	56.6531	10,196.8	50.6165	10,196.8	54.9367	10,196.8	47.9412	10,196.8	52.2788	10,196.8	43.8838	10,196.8	50.2023	10,196.8	48.2856	10,196.8	46.9729	10,196.8	43.2449	10,196.8	43.5251	10,196.8	48.2275	10,196.8	49.623	10,196.8	46.5657	10,196.8	47.3262	10,196.8	33.9457
10,555.7	81.9502	10,555.7	81.0119	10,555.7	81.121	10,555.7	77.9285	10,555.7	78.4049	10,555.7	73.4673	10,555.7	73.5726	10,555.7	63.3945	10,555.7	64.7396	10,555.7	61.6373	10,555.7	58.8563	10,555.7	64.898	10,555.7	64.0237	10,555.7	63.4285	10,555.7	63.9332	10,555.7	61.7397	10,555.7	61.6297	10,555.7	58.1653	10,555.7	59.3318	10,555.7	56.3951	10,555.7	56.2957	10,555.7	54.3331	10,555.7	52.2066	10,555.7	51.6837	10,555.7	52.3614	10,555.7	49.9909	10,555.7	48.8619	10,555.7	48.354	10,555.7	46.0548	10,555.7	43.1403	10,555.7	38.324	10,555.7	51.2432	10,555.7	48.4371	10,555.7	46.4354	10,555.7	44.2987	10,555.7	32.1013
10,927.7	83.1611	10,927.7	82.0307	10,927.7	81.9538	10,927.7	78.2709	10,927.7	78.3898	10,927.7	72.0536	10,927.7	72.451	10,927.7	61.69	10,927.7	64.5495	10,927.7	66.5448	10,927.7	66.2512	10,927.7	68.5009	10,927.7	67.5085	10,927.7	67.0672	10,927.7	66.2594	10,927.7	64.1929	10,927.7	62.7017	10,927.7	61.4571	10,927.7	60.4426	10,927.7	58.9528	10,927.7	55.5319	10,927.7	56.1436	10,927.7	55.3664	10,927.7	54.6218	10,927.7	52.8539	10,927.7	50.3068	10,927.7	48.0578	10,927.7	51.5649	10,927.7	45.0104	10,927.7	49.9707	10,927.7	44.9716	10,927.7	52.9305	10,927.7	49.779	10,927.7	45.9813	10,927.7	50.3714	10,927.7	39.0477
11,313	84.9714	11,313	83.4555	11,313	83.456	11,313	78.9471	11,313	78.8234	11,313	70.1179	11,313	69.4183	11,313	62.0272	11,313	63.8407	11,313	69.8493	11,313	70.4355	11,313	70.565	11,313	70.3511	11,313	68.4297	11,313	67.5455	11,313	65.7334	11,313	65.2156	11,313	62.6009	11,313	62.3381	11,313	59.6981	11,313	59.1997	11,313	58.0901	11,313	56.1759	11,313	54.8255	11,313	53.6674	11,313	53.5085	11,313	51.1691	11,313	50.3735	11,313	49.9968	11,313	43.5144	11,313	49.3349	11,313	50.7172	11,313	51.6359	11,313	50.4315	11,313	52.8555	11,313	41.2005
11,712.9	84.7857	11,712.9	83.4338	11,712.9	83.3172	11,712.9	78.7038	11,712.9	78.6897	11,712.9	70.3029	11,712.9	69.6135	11,712.9	63.0194	11,712.9	64.1199	11,712.9	68.5992	11,712.9	68.7605	11,712.9	67.1687	11,712.9	68.343	11,712.9	65.141	11,712.9	65.311	11,712.9	60.8959	11,712.9	62.1452	11,712.9	59.5737	11,712.9	59.5303	11,712.9	55.6719	11,712.9	56.2666	11,712.9	53.1615	11,712.9	54.732	11,712.9	51.3059	11,712.9	53.8654	11,712.9	50.3438	11,712.9	45.5897	11,712.9	48.7	11,712.9	45.9418	11,712.9	44.424	11,712.9	45.495	11,712.9	49.6902	11,712.9	49.747	11,712.9	42.7717	11,712.9	49.1415	11,712.9	12.0025
12,126	82.7545	12,126	80.6859	12,126	80.8369	12,126	73.978	12,126	74.2427	12,126	54.823	12,126	58.2054	12,126	70.5467	12,126	70.616	12,126	71.1973	12,126	71.9882	12,126	69.1919	12,126	69.4578	12,126	65.0586	12,126	65.2434	12,126	62.9338	12,126	62.5527	12,126	58.5276	12,126	59.3644	12,126	58.4476	12,126	58.0733	12,126	56.759	12,126	55.3921	12,126	52.1067	12,126	54.1748	12,126	48.5535	12,126	50.3231	12,126	50.5793	12,126	48.83	12,126	44.8037	12,126	45.3694	12,126	46.8739	12,126	49.8566	12,126	48.5699	12,126	49.3813	12,126	37.9567
12,553.7	83.3369	12,553.7	81.4209	12,553.7	81.3427	12,553.7	74.0511	12,553.7	73.9896	12,553.7	57.8503	12,553.7	57.0198	12,553.7	70.7945	12,553.7	70.2915	12,553.7	70.7185	12,553.7	71.4258	12,553.7	67.7174	12,553.7	69.2281	12,553.7	64.1308	12,553.7	65.1929	12,553.7	60.8545	12,553.7	62.1814	12,553.7	60.1163	12,553.7	60.1585	12,553.7	58.4024	12,553.7	56.6807	12,553.7	55.2673	12,553.7	56.5579	12,553.7	53.7759	12,553.7	54.8484	12,553.7	50.5089	12,553.7	44.9669	12,553.7	48.1918	12,553.7	50.5468	12,553.7	47.0406	12,553.7	48.4127	12,553.7	50.604	12,553.7	48.0989	12,553.7	48.4263	12,553.7	45.4886	12,553.7	35.5895
12,996.1	83.0078	12,996.1	80.9003	12,996.1	80.9344	12,996.1	73.736	12,996.1	73.1963	12,996.1	62.9541	12,996.1	61.4686	12,996.1	69.5993	12,996.1	70.1404	12,996.1	69.7765	12,996.1	69.7071	12,996.1	67.0979	12,996.1	66.1359	12,996.1	63.7348	12,996.1	61.0673	12,996.1	61.3069	12,996.1	57.738	12,996.1	60.0529	12,996.1	56.8978	12,996.1	57.0068	12,996.1	54.8704	12,996.1	56.4364	12,996.1	53.1291	12,996.1	52.7903	12,996.1	49.8698	12,996.1	49.8123	12,996.1	49.9563	12,996.1	50.005	12,996.1	47.7405	12,996.1	46.587	12,996.1	48.6106	12,996.1	48.934	12,996.1	48.1512	12,996.1	46.1977	12,996.1	45.9639	12,996.1	41.0533
13,454.6	83.5513	13,454.6	81.2373	13,454.6	81.0864	13,454.6	73.6184	13,454.6	72.8157	13,454.6	63.7755	13,454.6	62.6882	13,454.6	70.0343	13,454.6	69.872	13,454.6	69.1733	13,454.6	68.4279	13,454.6	65.0987	13,454.6	63.268	13,454.6	61.6104	13,454.6	58.3922	13,454.6	60.0385	13,454.6	58.8887	13,454.6	58.9439	13,454.6	57.6264	13,454.6	56.6529	13,454.6	55.7635	13,454.6	55.4735	13,454.6	53.4442	13,454.6	52.3225	13,454.6	49.4461	13,454.6	50.1639	13,454.6	48.818	13,454.6	49.5335	13,454.6	46.9593	13,454.6	46.6517	13,454.6	45.4815	13,454.6	49.7049	13,454.6	48.9391	13,454.6	47.7331	13,454.6	43.24	13,454.6	42.0722
13,929.2	83.7856	13,929.2	81.3331	13,929.2	81.179	13,929.2	72.5036	13,929.2	72.2245	13,929.2	66.1331	13,929.2	66.4688	13,929.2	70.7979	13,929.2	70.1816	13,929.2	68.3386	13,929.2	67.0907	13,929.2	63.2761	13,929.2	59.8881	13,929.2	62.3958	13,929.2	59.4078	13,929.2	62.2334	13,929.2	60.2954	13,929.2	61.0154	13,929.2	59.2529	13,929.2	58.1724	13,929.2	56.1453	13,929.2	56.4463	13,929.2	55.1789	13,929.2	52.4493	13,929.2	50.9517	13,929.2	51.686	13,929.2	50.7622	13,929.2	48.2454	13,929.2	48.5246	13,929.2	48.4665	13,929.2	49.7635	13,929.2	49.0413	13,929.2	49.9623	13,929.2	45.7876	13,929.2	40.8328	13,929.2	38.3658
14,419.9	84.113	14,419.9	81.4278	14,419.9	81.3717	14,419.9	72.4854	14,419.9	71.349	14,419.9	69.1322	14,419.9	68.0284	14,419.9	70.6135	14,419.9	69.909	14,419.9	66.7985	14,419.9	64.3414	14,419.9	64.0089	14,419.9	60.2223	14,419.9	64.7591	14,419.9	63.7503	14,419.9	63.8957	14,419.9	63.2405	14,419.9	62.1126	14,419.9	61.6132	14,419.9	59.0591	14,419.9	58.6764	14,419.9	57.1691	14,419.9	56.2655	14,419.9	53.9611	14,419.9	52.2785	14,419.9	53.1907	14,419.9	53.0145	14,419.9	51.4197	14,419.9	50.3881	14,419.9	50.3179	14,419.9	52.0893	14,419.9	50.0665	14,419.9	52.2949	14,419.9	48.2309	14,419.9	40.6965	14,419.9	43.5743
14,928.2	84.6643	14,928.2	82.2094	14,928.2	81.4293	14,928.2	74.27	14,928.2	70.9197	14,928.2	70.7928	14,928.2	68.627	14,928.2	69.8857	14,928.2	67.6755	14,928.2	64.9038	14,928.2	57.473	14,928.2	64.9352	14,928.2	64.2578	14,928.2	66.3242	14,928.2	66.2453	14,928.2	64.3303	14,928.2	65.2817	14,928.2	62.293	14,928.2	62.6829	14,928.2	59.2233	14,928.2	59.4016	14,928.2	58.2508	14,928.2	57.4167	14,928.2	53.7851	14,928.2	53.4708	14,928.2	54.2284	14,928.2	54.4354	14,928.2	51.6776	14,928.2	50.9912	14,928.2	51.0108	14,928.2	50.8586	14,928.2	51.3576	14,928.2	52.4219	14,928.2	46.9512	14,928.2	42.3421	14,928.2	44.7069
15,455.6	85.0338	15,455.6	82.8027	15,455.6	81.4351	15,455.6	75.1515	15,455.6	70.7141	15,455.6	70.9693	15,455.6	69.0549	15,455.6	68.5519	15,455.6	64.1284	15,455.6	63.8393	15,455.6	60.8147	15,455.6	66.9352	15,455.6	68.5838	15,455.6	66.6678	15,455.6	68.8367	15,455.6	65.1919	15,455.6	65.7009	15,455.6	62.516	15,455.6	63.2163	15,455.6	58.86	15,455.6	58.8852	15,455.6	57.6745	15,455.6	57.034	15,455.6	52.6034	15,455.6	55.5246	15,455.6	54.8145	15,455.6	54.4521	15,455.6	51.8541	15,455.6	49.1249	15,455.6	51.0106	15,455.6	51.5196	15,455.6	48.553	15,455.6	53.3911	15,455.6	44.6271	15,455.6	41.7756	15,455.6	46.7551
16,000.5	85.3361	16,000.5	83.0321	16,000.5	81.6105	16,000.5	75.0343	16,000.5	71.7692	16,000.5	69.8921	16,000.5	67.871	16,000.5	65.6735	16,000.5	60.4223	16,000.5	65.5379	16,000.5	67.5225	16,000.5	69.2043	16,000.5	70.2271	16,000.5	68.2717	16,000.5	68.6735	16,000.5	66.0704	16,000.5	65.5242	16,000.5	63.1896	16,000.5	62.5362	16,000.5	59.972	16,000.5	59.0046	16,000.5	57.9411	16,000.5	56.8243	16,000.5	54.9044	16,000.5	52.8734	16,000.5	54.0969	16,000.5	52.7581	16,000.5	51.2543	16,000.5	49.9916	16,000.5	50.4204	16,000.5	49.4468	16,000.5	46.7035	16,000.5	51.4733	16,000.5	41.0642	16,000.5	42.254	16,000.5	46.5841
16,564.5	85.159	16,564.5	82.5991	16,564.5	81.5329	16,564.5	74.748	16,564.5	71.3432	16,564.5	70.2457	16,564.5	66.9555	16,564.5	65.5447	16,564.5	64.5343	16,564.5	68.823	16,564.5	70.5266	16,564.5	70.7139	16,564.5	71.2604	16,564.5	68.848	16,564.5	68.5182	16,564.5	66.3723	16,564.5	64.9899	16,564.5	63.5447	16,564.5	61.6189	16,564.5	59.9385	16,564.5	58.08	16,564.5	58.7796	16,564.5	56.0778	16,564.5	55.3941	16,564.5	53.8341	16,564.5	54.2827	16,564.5	53.2069	16,564.5	51.6468	16,564.5	48.012	16,564.5	49.6223	16,564.5	47.6736	16,564.5	46.1302	16,564.5	49.6525	16,564.5	44.5966	16,564.5	43.5957	16,564.5	45.3294
17,148.9	84.2233	17,148.9	81.8189	17,148.9	80.089	17,148.9	75.0058	17,148.9	70.4689	17,148.9	71.0879	17,148.9	67.3312	17,148.9	68.1929	17,148.9	68.1325	17,148.9	70.4231	17,148.9	71.1129	17,148.9	70.9016	17,148.9	70.7954	17,148.9	68.004	17,148.9	67.2362	17,148.9	65.4873	17,148.9	62.9324	17,148.9	62.1387	17,148.9	60.3182	17,148.9	59.5578	17,148.9	57.1521	17,148.9	57.5431	17,148.9	55.6278	17,148.9	54.6784	17,148.9	53.7846	17,148.9	52.5077	17,148.9	50.5421	17,148.9	51.6884	17,148.9	47.557	17,148.9	48.6515	17,148.9	44.229	17,148.9	43.249	17,148.9	47.5632	17,148.9	42.6663	17,148.9	38.1367	17,148.9	45.979
17,752.4	81.9753	17,752.4	79.7188	17,752.4	77.7748	17,752.4	74.4607	17,752.4	69.8944	17,752.4	71.1846	17,752.4	68.2635	17,752.4	67.8805	17,752.4	68.4542	17,752.4	68.6547	17,752.4	69.75	17,752.4	67.9914	17,752.4	68.269	17,752.4	65.2085	17,752.4	64.4853	17,752.4	62.9901	17,752.4	61.2155	17,752.4	60.6689	17,752.4	59.0298	17,752.4	56.925	17,752.4	56.3524	17,752.4	56.3587	17,752.4	55.1381	17,752.4	53.5372	17,752.4	51.0969	17,752.4	51.1687	17,752.4	43.9865	17,752.4	48.1838	17,752.4	46.7138	17,752.4	44.1577	17,752.4	44.741	17,752.4	34.6097	17,752.4	45.2903	17,752.4	40.1916	17,752.4	42.0004	17,752.4	44.4802
18,379.4	79.3079	18,379.4	77.7255	18,379.4	75.2627	18,379.4	75.3931	18,379.4	71.4326	18,379.4	72.2395	18,379.4	69.3452	18,379.4	64.4249	18,379.4	65.9771	18,379.4	62.8478	18,379.4	66.7624	18,379.4	63.8907	18,379.4	65.8735	18,379.4	61.6103	18,379.4	62.9914	18,379.4	59.7916	18,379.4	59.1356	18,379.4	57.2611	18,379.4	56.7092	18,379.4	52.8819	18,379.4	53.5434	18,379.4	52.4456	18,379.4	52.8888	18,379.4	48.9156	18,379.4	50.0889	18,379.4	46.8	18,379.4	41.3938	18,379.4	44.9033	18,379.4	42.0885	18,379.4	40.8279	18,379.4	40.643	18,379.4	32.7162	18,379.4	37.3658	18,379.4	37.6017	18,379.4	34.4302	18,379.4	39.6541
19,026.9	77.5361	19,026.9	76.8581	19,026.9	75.2952	19,026.9	75.4841	19,026.9	73.0856	19,026.9	70.773	19,026.9	67.9964	19,026.9	53.5929	19,026.9	63.1281	19,026.9	59.5669	19,026.9	65.1797	19,026.9	62.0075	19,026.9	63.0819	19,026.9	58.9685	19,026.9	58.9703	19,026.9	56.4042	19,026.9	55.5628	19,026.9	52.3223	19,026.9	52.4837	19,026.9	50.707	19,026.9	49.7625	19,026.9	48.9276	19,026.9	49.6712	19,026.9	45.5259	19,026.9	45.1558	19,026.9	41.4341	19,026.9	34.802	19,026.9	39.2988	19,026.9	38.787	19,026.9	35.775	19,026.9	38.6785	19,026.9	35.4303	19,026.9	35.8065	19,026.9	36.4672	19,026.9	30.0867	19,026.9	37.1917
19,697.8	77.2385	19,697.8	76.688	19,697.8	76.6262	19,697.8	75.2328	19,697.8	73.3241	19,697.8	68.9218	19,697.8	66.0203	19,697.8	61.1468	19,697.8	61.2325	19,697.8	62.6056	19,697.8	63.1748	19,697.8	60.6301	19,697.8	61.2673	19,697.8	56.4296	19,697.8	57.8174	19,697.8	52.7627	19,697.8	53.8143	19,697.8	47.9189	19,697.8	51.0965	19,697.8	45.5801	19,697.8	49.73	19,697.8	46.0497	19,697.8	47.8181	19,697.8	37.831	19,697.8	43.7669	19,697.8	36.5114	19,697.8	37.0508	19,697.8	33.9346	19,697.8	39.513	19,697.8	31.1397	19,697.8	34.381	19,697.8	29.3661	19,697.8	37.3814	19,697.8	29.9906	19,697.8	27.3126	19,697.8	30.5082
19,999.5	77.1649	19,999.5	76.6544	19,999.5	76.4746	19,999.5	74.4278	19,999.5	73.2818	19,999.5	67.533	19,999.5	65.8805	19,999.5	62.1964	19,999.5	59.6947	19,999.5	61.2736	19,999.5	63.507	19,999.5	56.6561	19,999.5	62.0363	19,999.5	53.5583	19,999.5	59.1383	19,999.5	48.1134	19,999.5	55.7832	19,999.5	42.5168	19,999.5	51.7668	19,999.5	32.7763	19,999.5	44.8898	19,999.5	34.1688	19,999.5	51.8644	19,999.5	44.9135	19,999.5	45.455	19,999.5	46.3169	19,999.5	43.6056	19,999.5	41.6506	19,999.5	45.8294	19,999.5	45.6016	19,999.5	43.1719	19,999.5	37.634	19,999.5	37.6277	19,999.5	43.2231	19,999.5	29.1265	19,999.5	44.111
