"SPL Vertical"
"On-Axis"		"10°"		"-10°"		"20°"		"-20°"		"30°"		"-30°"		"40°"		"-40°"		"50°"		"-50°"		"60°"		"-60°"		"70°"		"-70°"		"80°"		"-80°"		"90°"		"-90°"		"100°"		"-100°"		"110°"		"-110°"		"120°"		"-120°"		"130°"		"-130°"		"140°"		"-140°"		"150°"		"-150°"		"160°"		"-160°"		"170°"		"-170°"		"180°"
"Frequency / Hz"	"Sound Pressure Level / dB (re 20 µPa/V)  [2.83  V @ 1. m]"	"Frequency / Hz"	"Sound Pressure Level / dB (re 20 µPa/V)  [2.83  V @ 1. m]"	"Frequency / Hz"	"Sound Pressure Level / dB (re 20 µPa/V)  [2.83  V @ 1. m]"	"Frequency / Hz"	"Sound Pressure Level / dB (re 20 µPa/V)  [2.83  V @ 1. m]"	"Frequency / Hz"	"Sound Pressure Level / dB (re 20 µPa/V)  [2.83  V @ 1. m]"	"Frequency / Hz"	"Sound Pressure Level / dB (re 20 µPa/V)  [2.83  V @ 1. m]"	"Frequency / Hz"	"Sound Pressure Level / dB (re 20 µPa/V)  [2.83  V @ 1. m]"	"Frequency / Hz"	"Sound Pressure Level / dB (re 20 µPa/V)  [2.83  V @ 1. m]"	"Frequency / Hz"	"Sound Pressure Level / dB (re 20 µPa/V)  [2.83  V @ 1. m]"	"Frequency / Hz"	"Sound Pressure Level / dB (re 20 µPa/V)  [2.83  V @ 1. m]"	"Frequency / Hz"	"Sound Pressure Level / dB (re 20 µPa/V)  [2.83  V @ 1. m]"	"Frequency / Hz"	"Sound Pressure Level / dB (re 20 µPa/V)  [2.83  V @ 1. m]"	"Frequency / Hz"	"Sound Pressure Level / dB (re 20 µPa/V)  [2.83  V @ 1. m]"	"Frequency / Hz"	"Sound Pressure Level / dB (re 20 µPa/V)  [2.83  V @ 1. m]"	"Frequency / Hz"	"Sound Pressure Level / dB (re 20 µPa/V)  [2.83  V @ 1. m]"	"Frequency / Hz"	"Sound Pressure Level / dB (re 20 µPa/V)  [2.83  V @ 1. m]"	"Frequency / Hz"	"Sound Pressure Level / dB (re 20 µPa/V)  [2.83  V @ 1. m]"	"Frequency / Hz"	"Sound Pressure Level / dB (re 20 µPa/V)  [2.83  V @ 1. m]"	"Frequency / Hz"	"Sound Pressure Level / dB (re 20 µPa/V)  [2.83  V @ 1. m]"	"Frequency / Hz"	"Sound Pressure Level / dB (re 20 µPa/V)  [2.83  V @ 1. m]"	"Frequency / Hz"	"Sound Pressure Level / dB (re 20 µPa/V)  [2.83  V @ 1. m]"	"Frequency / Hz"	"Sound Pressure Level / dB (re 20 µPa/V)  [2.83  V @ 1. m]"	"Frequency / Hz"	"Sound Pressure Level / dB (re 20 µPa/V)  [2.83  V @ 1. m]"	"Frequency / Hz"	"Sound Pressure Level / dB (re 20 µPa/V)  [2.83  V @ 1. m]"	"Frequency / Hz"	"Sound Pressure Level / dB (re 20 µPa/V)  [2.83  V @ 1. m]"	"Frequency / Hz"	"Sound Pressure Level / dB (re 20 µPa/V)  [2.83  V @ 1. m]"	"Frequency / Hz"	"Sound Pressure Level / dB (re 20 µPa/V)  [2.83  V @ 1. m]"	"Frequency / Hz"	"Sound Pressure Level / dB (re 20 µPa/V)  [2.83  V @ 1. m]"	"Frequency / Hz"	"Sound Pressure Level / dB (re 20 µPa/V)  [2.83  V @ 1. m]"	"Frequency / Hz"	"Sound Pressure Level / dB (re 20 µPa/V)  [2.83  V @ 1. m]"	"Frequency / Hz"	"Sound Pressure Level / dB (re 20 µPa/V)  [2.83  V @ 1. m]"	"Frequency / Hz"	"Sound Pressure Level / dB (re 20 µPa/V)  [2.83  V @ 1. m]"	"Frequency / Hz"	"Sound Pressure Level / dB (re 20 µPa/V)  [2.83  V @ 1. m]"	"Frequency / Hz"	"Sound Pressure Level / dB (re 20 µPa/V)  [2.83  V @ 1. m]"	"Frequency / Hz"	"Sound Pressure Level / dB (re 20 µPa/V)  [2.83  V @ 1. m]"	"Frequency / Hz"	"Sound Pressure Level / dB (re 20 µPa/V)  [2.83  V @ 1. m]"
20.5078	40.1092	20.5078	40.062	20.5078	40.2023	20.5078	40.0409	20.5078	40.3671	20.5078	40.0351	20.5078	40.6305	20.5078	40.0437	20.5078	41.0129	20.5078	40.0765	20.5078	41.5198	20.5078	40.1541	20.5078	42.1377	20.5078	40.3049	20.5078	42.8361	20.5078	40.5591	20.5078	43.5744	20.5078	40.9393	20.5078	44.3102	20.5078	41.4503	20.5078	45.0049	20.5078	42.0755	20.5078	45.6262	20.5078	42.7806	20.5078	46.1486	20.5078	43.5229	20.5078	46.5534	20.5078	44.26	20.5078	46.827	20.5078	44.955	20.5078	46.9616	20.5078	45.5777	20.5078	46.9535	20.5078	46.1047	20.5078	46.8039	20.5078	46.5179
21.9727	38.9974	21.9727	38.9132	21.9727	39.1138	21.9727	38.8382	21.9727	39.2937	21.9727	38.7607	21.9727	39.5723	21.9727	38.6806	21.9727	39.979	21.9727	38.6114	21.9727	40.5261	21.9727	38.5815	21.9727	41.2016	21.9727	38.6333	21.9727	41.9704	21.9727	38.8165	21.9727	42.7842	21.9727	39.1726	21.9727	43.5926	21.9727	39.7166	21.9727	44.3504	21.9727	40.4276	21.9727	45.0211	21.9727	41.256	21.9727	45.5767	21.9727	42.1406	21.9727	45.9967	21.9727	43.0236	21.9727	46.2671	21.9727	43.8581	21.9727	46.3794	21.9727	44.6082	21.9727	46.3302	21.9727	45.2476	21.9727	46.1208	21.9727	45.7566
23.4375	41.2449	23.4375	41.2824	23.4375	41.204	23.4375	41.29	23.4375	41.2011	23.4375	41.2552	23.4375	41.2887	23.4375	41.1792	23.4375	41.52	23.4375	41.0773	23.4375	41.9298	23.4375	40.9809	23.4375	42.518	23.4375	40.9378	23.4375	43.2471	23.4375	41.0075	23.4375	44.0567	23.4375	41.2464	23.4375	44.8825	23.4375	41.6853	23.4375	45.6687	23.4375	42.3133	23.4375	46.3725	23.4375	43.0814	23.4375	46.9631	23.4375	43.9223	23.4375	47.4191	23.4375	44.7708	23.4375	47.7264	23.4375	45.5736	23.4375	47.8765	23.4375	46.2916	23.4375	47.8658	23.4375	46.8966	23.4375	47.695	23.4375	47.369
24.9023	42.4875	24.9023	42.6056	24.9023	42.3357	24.9023	42.6675	24.9023	42.189	24.9023	42.6632	24.9023	42.1045	24.9023	42.5932	24.9023	42.152	24.9023	42.4685	24.9023	42.3943	24.9023	42.3132	24.9023	42.8589	24.9023	42.1673	24.9023	43.5207	24.9023	42.088	24.9023	44.3124	24.9023	42.1426	24.9023	45.1527	24.9023	42.3892	24.9023	45.969	24.9023	42.8503	24.9023	46.7065	24.9023	43.4999	24.9023	47.3273	24.9023	44.2742	24.9023	47.8067	24.9023	45.0974	24.9023	48.1292	24.9023	45.9018	24.9023	48.2859	24.9023	46.6352	24.9023	48.2737	24.9023	47.2606	24.9023	48.094	24.9023	47.7526
26.3672	41.1641	26.3672	41.2068	26.3672	41.1131	26.3672	41.198	26.3672	41.123	26.3672	41.1189	26.3672	41.2812	26.3672	40.9728	26.3672	41.6661	26.3672	40.7874	26.3672	42.3083	26.3672	40.6199	26.3672	43.1706	26.3672	40.5593	26.3672	44.1685	26.3672	40.7111	26.3672	45.2089	26.3672	41.1548	26.3672	46.2155	26.3672	41.8959	26.3672	47.135	26.3672	42.8608	26.3672	47.9328	26.3672	43.9405	26.3672	48.5869	26.3672	45.0363	26.3672	49.0835	26.3672	46.0775	26.3672	49.4139	26.3672	47.0194	26.3672	49.5735	26.3672	47.8346	26.3672	49.5605	26.3672	48.5061	26.3672	49.3757	26.3672	49.0224
27.832	44.4399	27.832	44.5573	27.832	44.279	27.832	44.6069	27.832	44.1176	27.832	44.5786	27.832	44.0196	27.832	44.4743	27.832	44.0635	27.832	44.3085	27.832	44.3188	27.832	44.1107	27.832	44.8129	27.832	43.9301	27.832	45.5136	27.832	43.8359	27.832	46.3443	27.832	43.9066	27.832	47.2175	27.832	44.203	27.832	48.0585	27.832	44.7378	27.832	48.8133	27.832	45.466	27.832	49.4457	27.832	46.3079	27.832	49.9326	27.832	47.1806	27.832	50.2602	27.832	48.0164	27.832	50.4209	27.832	48.7672	27.832	50.4119	27.832	49.4005	27.832	50.2347	27.832	49.8944
29.2969	44.8987	29.2969	45.0213	29.2969	44.7407	29.2969	45.0772	29.2969	44.6013	29.2969	45.0542	29.2969	44.5589	29.2969	44.9551	29.2969	44.7014	29.2969	44.7986	29.2969	45.093	29.2969	44.6223	29.2969	45.7378	29.2969	44.486	29.2969	46.5752	29.2969	44.4692	29.2969	47.5122	29.2969	44.6531	29.2969	48.4589	29.2969	45.0862	29.2969	49.347	29.2969	45.7571	29.2969	50.1302	29.2969	46.5996	29.2969	50.7791	29.2969	47.5252	29.2969	51.2752	29.2969	48.4533	29.2969	51.6077	29.2969	49.3236	29.2969	51.7705	29.2969	50.0948	29.2969	51.762	29.2969	50.7397	29.2969	51.5836	29.2969	51.24
30.7617	44.5083	30.7617	44.6653	30.7617	44.336	30.7617	44.7601	30.7617	44.2286	30.7617	44.7734	30.7617	44.2927	30.7617	44.7083	30.7617	44.6272	30.7617	44.5894	30.7617	45.2694	30.7617	44.4662	30.7617	46.1684	30.7617	44.4147	30.7617	47.2174	30.7617	44.5279	30.7617	48.3065	30.7617	44.8856	30.7617	49.3522	30.7617	45.5132	30.7617	50.3003	30.7617	46.3655	30.7617	51.118	30.7617	47.3527	30.7617	51.7855	30.7617	48.3812	30.7617	52.2911	30.7617	49.3768	30.7617	52.6277	30.7617	50.2891	30.7617	52.7918	30.7617	51.0856	30.7617	52.7826	30.7617	51.7452	30.7617	52.6019	30.7617	52.2539
32.2266	45.8947	32.2266	46.023	32.2266	45.7541	32.2266	46.0988	32.2266	45.6667	32.2266	46.1037	32.2266	45.7187	32.2266	46.0378	32.2266	45.9936	32.2266	45.9192	32.2266	46.533	32.2266	45.7873	32.2266	47.3104	32.2266	45.7047	32.2266	48.2453	32.2266	45.7536	32.2266	49.2419	32.2266	46.0133	32.2266	50.2188	32.2266	46.5251	32.2266	51.1179	32.2266	47.2678	32.2266	51.901	32.2266	48.1685	32.2266	52.544	32.2266	49.1377	32.2266	53.0316	32.2266	50.0974	32.2266	53.3546	32.2266	50.9905	32.2266	53.508	32.2266	51.7787	32.2266	53.49	32.2266	52.437	32.2266	53.302	32.2266	52.9485
33.6914	47.4167	33.6914	47.5379	33.6914	47.269	33.6914	47.5993	33.6914	47.1509	33.6914	47.5861	33.6914	47.1398	33.6914	47.4993	33.6914	47.3187	33.6914	47.3553	33.6914	47.7433	33.6914	47.1896	33.6914	48.4096	33.6914	47.06	33.6914	49.2548	33.6914	47.0446	33.6914	50.1885	33.6914	47.2246	33.6914	51.1257	33.6914	47.6512	33.6914	52.0017	33.6914	48.3164	33.6914	52.7725	33.6914	49.1565	33.6914	53.4097	33.6914	50.0832	33.6914	53.8955	33.6914	51.0151	33.6914	54.2189	33.6914	51.8905	33.6914	54.3739	33.6914	52.6674	33.6914	54.3585	33.6914	53.3182	33.6914	54.1738	33.6914	53.8243
35.1562	48.2832	35.1562	48.3843	35.1562	48.1693	35.1562	48.4373	35.1562	48.0997	35.1562	48.4257	35.1562	48.1495	35.1562	48.3503	35.1562	48.3935	35.1562	48.2283	35.1562	48.8746	35.1562	48.0966	35.1562	49.5787	35.1562	48.0138	35.1562	50.441	35.1562	48.0558	35.1562	51.376	35.1562	48.2963	35.1562	52.3052	35.1562	48.7751	35.1562	53.1695	35.1562	49.4756	35.1562	53.9281	35.1562	50.332	35.1562	54.5545	35.1562	51.2607	35.1562	55.0317	35.1562	52.1859	35.1562	55.3491	35.1562	53.0512	35.1562	55.5007	35.1562	53.8174	35.1562	55.4846	35.1562	54.4586	35.1562	55.3021	35.1562	54.9575
36.6211	49.6606	36.6211	49.7987	36.6211	49.4948	36.6211	49.8761	36.6211	49.3554	36.6211	49.8776	36.6211	49.3171	36.6211	49.8019	36.6211	49.4614	36.6211	49.6623	36.6211	49.8454	36.6211	49.4891	36.6211	50.4702	36.6211	49.3338	36.6211	51.2782	36.6211	49.2689	36.6211	52.1815	36.6211	49.3759	36.6211	53.0946	36.6211	49.716	36.6211	53.9513	36.6211	50.2978	36.6211	54.7059	36.6211	51.0713	36.6211	55.3284	36.6211	51.9529	36.6211	55.8003	36.6211	52.8588	36.6211	56.1101	36.6211	53.7224	36.6211	56.2516	36.6211	54.4971	36.6211	56.2231	36.6211	55.1518	36.6211	56.0262	36.6211	55.6661
38.0859	51.0498	38.0859	51.1845	38.0859	50.8795	38.0859	51.2543	38.0859	50.7228	38.0859	51.2459	38.0859	50.6495	38.0859	51.1587	38.0859	50.7403	38.0859	51.0053	38.0859	51.0582	38.0859	50.8143	38.0859	51.6168	38.0859	50.6343	38.0859	52.3696	38.0859	50.5353	38.0859	53.2333	38.0859	50.5985	38.0859	54.1213	38.0859	50.8893	38.0859	54.9637	38.0859	51.424	38.0859	55.711	38.0859	52.159	38.0859	56.3308	38.0859	53.0132	38.0859	56.8025	38.0859	53.9012	38.0859	57.1137	38.0859	54.7536	38.0859	57.2576	38.0859	55.5212	38.0859	57.2319	38.0859	56.171	38.0859	57.0381	38.0859	56.6814
39.5508	52.0352	39.5508	52.1788	39.5508	51.8494	39.5508	52.2523	39.5508	51.6694	39.5508	52.243	39.5508	51.5655	39.5508	52.1509	39.5508	51.6213	39.5508	51.9885	39.5508	51.9061	39.5508	51.7836	39.5508	52.4399	39.5508	51.5843	39.5508	53.179	39.5508	51.4605	39.5508	54.0388	39.5508	51.4953	39.5508	54.9289	39.5508	51.7585	39.5508	55.7763	39.5508	52.2713	39.5508	56.5293	39.5508	52.9927	39.5508	57.1545	39.5508	53.8408	39.5508	57.6308	39.5508	54.7279	39.5508	57.9455	39.5508	55.582	39.5508	58.0918	39.5508	56.3521	39.5508	58.0674	39.5508	57.0043	39.5508	57.8739	39.5508	57.5164
41.0156	52.0726	41.0156	52.2061	41.0156	51.8885	41.0156	52.2559	41.0156	51.7117	41.0156	52.2071	41.0156	51.6283	41.0156	52.0596	41.0156	51.7382	41.0156	51.8276	41.0156	52.1171	41.0156	51.5455	41.0156	52.7714	41.0156	51.275	41.0156	53.6328	41.0156	51.1107	41.0156	54.5965	41.0156	51.1652	41.0156	55.5649	41.0156	51.524	41.0156	56.4661	41.0156	52.1927	41.0156	57.2535	41.0156	53.0916	41.0156	57.8984	41.0156	54.1042	41.0156	58.3834	41.0156	55.1262	41.0156	58.6983	41.0156	56.0842	41.0156	58.8376	41.0156	56.9319	41.0156	58.7991	41.0156	57.6415	41.0156	58.584	41.0156	58.1958
42.4805	53.9111	42.4805	54.008	42.4805	53.7938	42.4805	54.0558	42.4805	53.7023	42.4805	54.0414	42.4805	53.6985	42.4805	53.9654	42.4805	53.8481	42.4805	53.8419	42.4805	54.1978	42.4805	53.7005	42.4805	54.7518	42.4805	53.5883	42.4805	55.468	42.4805	53.5675	42.4805	56.2767	42.4805	53.7035	42.4805	57.1049	42.4805	54.042	42.4805	57.8917	42.4805	54.5868	42.4805	58.5924	42.4805	55.2959	42.4805	59.1762	42.4805	56.1008	42.4805	59.6228	42.4805	56.9302	42.4805	59.9194	42.4805	57.7249	42.4805	60.0586	42.4805	58.4412	42.4805	60.0379	42.4805	59.0484	42.4805	59.8585	42.4805	59.5256
43.9453	55.1164	43.9453	55.21	43.9453	55.0002	43.9453	55.2556	43.9453	54.9025	43.9453	55.2417	43.9453	54.8793	43.9453	55.1693	43.9453	54.9925	43.9453	55.0519	43.9453	55.2894	43.9453	54.9164	43.9453	55.7819	43.9453	54.8058	43.9453	56.4381	43.9453	54.7763	43.9453	57.1957	43.9453	54.8883	43.9453	57.9847	43.9453	55.1863	43.9453	58.7437	43.9453	55.6785	43.9453	59.426	43.9453	56.3317	43.9453	59.9987	43.9453	57.0848	43.9453	60.4395	43.9453	57.8704	43.9453	60.7346	43.9453	58.6302	43.9453	60.8758	43.9453	59.3193	43.9453	60.8601	43.9453	59.9059	43.9453	60.6889	43.9453	60.3675
45.4102	56.2878	45.4102	56.3793	45.4102	56.174	45.4102	56.4251	45.4102	56.0759	45.4102	56.4142	45.4102	56.0449	45.4102	56.3471	45.4102	56.1381	45.4102	56.2354	45.4102	56.4016	45.4102	56.1034	45.4102	56.8502	45.4102	55.9896	45.4102	57.4586	45.4102	55.9452	45.4102	58.1712	45.4102	56.027	45.4102	58.922	45.4102	56.2798	45.4102	59.6505	45.4102	56.7181	45.4102	60.3096	45.4102	57.317	45.4102	60.8648	45.4102	58.0227	45.4102	61.2929	45.4102	58.7712	45.4102	61.5789	45.4102	59.5039	45.4102	61.7141	45.4102	60.1747	45.4102	61.6952	45.4102	60.7496	45.4102	61.5234	45.4102	61.2047
46.875	57.562	46.875	57.6523	46.875	57.4464	46.875	57.6952	46.875	57.3408	46.875	57.6805	46.875	57.2938	46.875	57.6085	46.875	57.3604	46.875	57.4898	46.875	57.5872	46.875	57.3472	46.875	57.9932	46.875	57.2167	46.875	58.5594	46.875	57.1476	46.875	59.235	46.875	57.1956	46.875	59.9563	46.875	57.4076	46.875	60.6628	46.875	57.8028	46.875	61.3059	46.875	58.3624	46.875	61.8498	46.875	59.0365	46.875	62.2697	46.875	59.7621	46.875	62.5496	46.875	60.4798	46.875	62.6803	46.875	61.1416	46.875	62.6582	46.875	61.7118	46.875	62.4845	46.875	62.1652
48.3398	59.0207	48.3398	59.0945	48.3398	58.9238	48.3398	59.1251	48.3398	58.8361	48.3398	59.1033	48.3398	58.8018	48.3398	59.0301	48.3398	58.871	48.3398	58.9164	48.3398	59.0865	48.3398	58.7841	48.3398	59.4675	48.3398	58.6674	48.3398	59.9991	48.3398	58.612	48.3398	60.637	48.3398	58.6682	48.3398	61.3227	48.3398	58.878	48.3398	61.9989	48.3398	59.2583	48.3398	62.6177	48.3398	59.7923	48.3398	63.1433	48.3398	60.4349	48.3398	63.5502	48.3398	61.1286	48.3398	63.822	48.3398	61.8175	48.3398	63.9489	48.3398	62.4554	48.3398	63.9269	48.3398	63.0071	48.3398	63.7576	48.3398	63.447
51.2695	62.302	51.2695	62.3605	51.2695	62.2272	51.2695	62.3863	51.2695	62.1616	51.2695	62.3717	51.2695	62.1391	51.2695	62.317	51.2695	62.1981	51.2695	62.2305	51.2695	62.3724	51.2695	62.129	51.2695	62.6802	51.2695	62.0386	51.2695	63.1154	51.2695	61.9938	51.2695	63.6483	51.2695	62.0332	51.2695	64.2337	51.2695	62.1913	51.2695	64.8229	51.2695	62.4868	51.2695	65.3715	51.2695	62.9143	51.2695	65.8437	51.2695	63.4451	51.2695	66.2127	51.2695	64.0349	51.2695	66.4602	51.2695	64.6357	51.2695	66.575	51.2695	65.2037	51.2695	66.5525	51.2695	65.7031	51.2695	66.3939	51.2695	66.1065
52.7344	63.8794	52.7344	63.9368	52.7344	63.8019	52.7344	63.96	52.7344	63.7271	52.7344	63.9423	52.7344	63.6854	52.7344	63.8843	52.7344	63.7124	52.7344	63.7935	52.7344	63.8418	52.7344	63.6853	52.7344	64.0948	52.7344	63.5832	52.7344	64.4717	52.7344	63.519	52.7344	64.9491	52.7344	63.5289	52.7344	65.4871	52.7344	63.6467	52.7344	66.0387	52.7344	63.8933	52.7344	66.5594	52.7344	64.2685	52.7344	67.0121	52.7344	64.7488	52.7344	67.3684	52.7344	65.2944	52.7344	67.6085	52.7344	65.8591	52.7344	67.7205	52.7344	66.3994	52.7344	67.6991	52.7344	66.8783	52.7344	67.5456	52.7344	67.2674
54.1992	65.1358	54.1992	65.1913	54.1992	65.0597	54.1992	65.2126	54.1992	64.9846	54.1992	65.1937	54.1992	64.9397	54.1992	65.1351	54.1992	64.9593	54.1992	65.0446	54.1992	65.0762	54.1992	64.9369	54.1992	65.3118	54.1992	64.835	54.1992	65.6678	54.1992	64.7691	54.1992	66.1234	54.1992	64.774	54.1992	66.6407	54.1992	64.882	54.1992	67.1743	54.1992	65.1138	54.1992	67.6806	54.1992	65.4701	54.1992	68.1223	54.1992	65.9295	54.1992	68.4708	54.1992	66.4546	54.1992	68.7063	54.1992	67.0009	54.1992	68.8162	54.1992	67.5258	54.1992	68.7954	54.1992	67.9927	54.1992	68.6451	54.1992	68.3728
55.6641	66.4018	55.6641	66.4502	55.6641	66.3358	55.6641	66.4684	55.6641	66.2717	55.6641	66.4509	55.6641	66.2359	55.6641	66.3982	55.6641	66.259	55.6641	66.3174	55.6641	66.3703	55.6641	66.222	55.6641	66.5897	55.6641	66.1326	55.6641	66.9196	55.6641	66.0766	55.6641	67.3427	55.6641	66.0849	55.6641	67.8257	55.6641	66.1865	55.6641	68.3271	55.6641	66.4008	55.6641	68.8056	55.6641	66.7297	55.6641	69.2253	55.6641	67.1555	55.6641	69.5578	55.6641	67.6453	55.6641	69.783	55.6641	68.1586	55.6641	69.8881	55.6641	68.655	55.6641	69.8678	55.6641	69.0991	55.6641	69.7233	55.6641	69.4623
58.5938	68.4849	58.5938	68.5319	58.5938	68.4163	58.5938	68.5476	58.5938	68.3428	58.5938	68.5279	58.5938	68.2872	58.5938	68.4741	58.5938	68.2779	58.5938	68.393	58.5938	68.3439	58.5938	68.2967	58.5938	68.5075	58.5938	68.2033	58.5938	68.7767	58.5938	68.1367	58.5938	69.1408	58.5938	68.1244	58.5938	69.5715	58.5938	68.1931	58.5938	70.0302	58.5938	68.3621	58.5938	70.4763	58.5938	68.6368	58.5938	70.8729	58.5938	69.005	58.5938	71.1903	58.5938	69.4393	58.5938	71.4071	58.5938	69.9036	58.5938	71.5099	58.5938	70.3596	58.5938	71.4929	58.5938	70.7722	58.5938	71.3576	58.5938	71.1122
60.0586	69.6052	60.0586	69.6472	60.0586	69.543	60.0586	69.6597	60.0586	69.4756	60.0586	69.6391	60.0586	69.4247	60.0586	69.5868	60.0586	69.4161	60.0586	69.5094	60.0586	69.4768	60.0586	69.4183	60.0586	69.6276	60.0586	69.3306	60.0586	69.8769	60.0586	69.2682	60.0586	70.2155	60.0586	69.2562	60.0586	70.6183	60.0586	69.3193	60.0586	71.0498	60.0586	69.4754	60.0586	71.4714	60.0586	69.7301	60.0586	71.8479	60.0586	70.0731	60.0586	72.15	60.0586	70.4802	60.0586	72.3564	60.0586	70.918	60.0586	72.4538	60.0586	71.3504	60.0586	72.4364	60.0586	71.7437	60.0586	72.3054	60.0586	72.0694
62.9883	71.49	62.9883	71.5205	62.9883	71.4464	62.9883	71.5298	62.9883	71.4025	62.9883	71.5147	62.9883	71.3761	62.9883	71.4763	62.9883	71.3883	62.9883	71.4202	62.9883	71.46	62.9883	71.3561	62.9883	71.6074	62.9883	71.2979	62.9883	71.8368	62.9883	71.2631	62.9883	72.1408	62.9883	71.2715	62.9883	72.4993	62.9883	71.3422	62.9883	72.8832	62.9883	71.489	62.9883	73.2597	62.9883	71.7169	62.9883	73.5972	62.9883	72.0187	62.9883	73.8691	62.9883	72.3759	62.9883	74.0552	62.9883	72.7616	62.9883	74.1425	62.9883	73.1454	62.9883	74.1255	62.9883	73.4974	62.9883	74.0056	62.9883	73.7912
64.4531	72.2855	64.4531	72.3061	64.4531	72.2549	64.4531	72.3098	64.4531	72.2253	64.4531	72.2937	64.4531	72.2115	64.4531	72.2585	64.4531	72.2308	64.4531	72.2086	64.4531	72.3006	64.4531	72.1523	64.4531	72.4348	64.4531	72.1014	64.4531	72.6392	64.4531	72.071	64.4531	72.909	64.4531	72.0782	64.4531	73.2282	64.4531	72.1398	64.4531	73.572	64.4531	72.2687	64.4531	73.9114	64.4531	72.4704	64.4531	74.2175	64.4531	72.7401	64.4531	74.4648	64.4531	73.0626	64.4531	74.6336	64.4531	73.4146	64.4531	74.711	64.4531	73.7685	64.4531	74.691	64.4531	74.0961	64.4531	74.5753	64.4531	74.372
67.3828	73.5775	67.3828	73.5888	67.3828	73.556	67.3828	73.5849	67.3828	73.5331	67.3828	73.5638	67.3828	73.5206	67.3828	73.5267	67.3828	73.5329	67.3828	73.4779	67.3828	73.5851	67.3828	73.4243	67.3828	73.6902	67.3828	73.3762	67.3828	73.855	67.3828	73.3462	67.3828	74.0779	67.3828	73.3487	67.3828	74.3473	67.3828	73.3979	67.3828	74.6431	67.3828	73.5048	67.3828	74.9398	67.3828	73.6751	67.3828	75.2109	67.3828	73.9056	67.3828	75.4322	67.3828	74.1846	67.3828	75.5842	67.3828	74.4926	67.3828	75.6541	67.3828	74.8056	67.3828	75.6357	67.3828	75.0982	67.3828	75.5304	67.3828	75.3464
68.8477	74.4002	68.8477	74.4078	68.8477	74.3835	68.8477	74.4017	68.8477	74.3651	68.8477	74.3805	68.8477	74.3557	68.8477	74.3453	68.8477	74.3679	68.8477	74.3002	68.8477	74.4154	68.8477	74.2515	68.8477	74.51	68.8477	74.2084	68.8477	74.6587	68.8477	74.1821	68.8477	74.8607	68.8477	74.1856	68.8477	75.1065	68.8477	74.2313	68.8477	75.3781	68.8477	74.3295	68.8477	75.6526	68.8477	74.4852	68.8477	75.905	68.8477	74.6965	68.8477	76.1121	68.8477	74.953	68.8477	76.2551	68.8477	75.2376	68.8477	76.3212	68.8477	75.5281	68.8477	76.3043	68.8477	75.8009	68.8477	76.2057	68.8477	76.0331
71.7773	75.9941	71.7773	75.9938	71.7773	75.9883	71.7773	75.984	71.7773	75.9819	71.7773	75.9639	71.7773	75.9832	71.7773	75.9346	71.7773	76.0019	71.7773	75.8996	71.7773	76.0487	71.7773	75.864	71.7773	76.133	71.7773	75.8349	71.7773	76.2609	71.7773	75.821	71.7773	76.4325	71.7773	75.8322	71.7773	76.6409	71.7773	75.8779	71.7773	76.8721	71.7773	75.9661	71.7773	77.1072	71.7773	76.101	71.7773	77.3249	71.7773	76.2814	71.7773	77.5046	71.7773	76.4999	71.7773	77.629	71.7773	76.743	71.7773	77.6863	71.7773	76.9927	71.7773	77.6706	71.7773	77.229	71.7773	77.5833	71.7773	77.4316
74.707	76.7101	74.707	76.7029	74.707	76.7138	74.707	76.69	74.707	76.718	74.707	76.671	74.707	76.7284	74.707	76.6469	74.707	76.7525	74.707	76.6204	74.707	76.7983	74.707	76.5953	74.707	76.8731	74.707	76.577	74.707	76.9821	74.707	76.572	74.707	77.1261	74.707	76.5874	74.707	77.3003	74.707	76.6306	74.707	77.4941	74.707	76.7077	74.707	77.6925	74.707	76.8223	74.707	77.8772	74.707	76.9743	74.707	78.0304	74.707	77.1584	74.707	78.1364	74.707	77.3643	74.707	78.1844	74.707	77.5777	74.707	78.1689	74.707	77.7813	74.707	78.091	74.707	77.9577
77.6367	77.5481	77.6367	77.5354	77.6367	77.5584	77.6367	77.519	77.6367	77.5689	77.6367	77.4989	77.6367	77.584	77.6367	77.4763	77.6367	77.6091	77.6367	77.4535	77.6367	77.6507	77.6367	77.4336	77.6367	77.7149	77.6367	77.4208	77.6367	77.8063	77.6367	77.4202	77.6367	77.9263	77.6367	77.4373	77.6367	78.0721	77.6367	77.4778	77.6367	78.2356	77.6367	77.5465	77.6367	78.4044	77.6367	77.6466	77.6367	78.5631	77.6367	77.778	77.6367	78.6958	77.6367	77.9368	77.6367	78.7883	77.6367	78.1148	77.6367	78.8303	77.6367	78.2997	77.6367	78.8167	77.6367	78.4771	77.6367	78.7482	77.6367	78.6313
79.1016	78.2078	79.1016	78.1917	79.1016	78.2223	79.1016	78.1733	79.1016	78.2373	79.1016	78.1529	79.1016	78.2565	79.1016	78.1316	79.1016	78.2844	79.1016	78.1115	79.1016	78.3268	79.1016	78.0956	79.1016	78.389	79.1016	78.0874	79.1016	78.4755	79.1016	78.0913	79.1016	78.5876	79.1016	78.1121	79.1016	78.7231	79.1016	78.1544	79.1016	78.8748	79.1016	78.2225	79.1016	79.0316	79.1016	78.3188	79.1016	79.1792	79.1016	78.4434	79.1016	79.3029	79.1016	78.5926	79.1016	79.3892	79.1016	78.759	79.1016	79.4283	79.1016	78.9318	79.1016	79.4154	79.1016	79.0975	79.1016	79.3512	79.1016	79.2417
82.0312	78.7376	82.0312	78.7172	82.0312	78.76	82.0312	78.6987	82.0312	78.7856	82.0312	78.6827	82.0312	78.8166	82.0312	78.6706	82.0312	78.8565	82.0312	78.664	82.0312	78.9093	82.0312	78.6651	82.0312	78.9789	82.0312	78.6763	82.0312	79.0683	82.0312	78.7001	82.0312	79.1782	82.0312	78.7392	82.0312	79.3062	82.0312	78.7964	82.0312	79.4461	82.0312	78.8736	82.0312	79.5886	82.0312	78.972	82.0312	79.7217	82.0312	79.0908	82.0312	79.8329	82.0312	79.227	82.0312	79.911	82.0312	79.3748	82.0312	79.9477	82.0312	79.5255	82.0312	79.9388	82.0312	79.6685	82.0312	79.8852	82.0312	79.7921
84.9609	79.0144	84.9609	78.9837	84.9609	79.0512	84.9609	78.9595	84.9609	79.0941	84.9609	78.9424	84.9609	79.1433	84.9609	78.9331	84.9609	79.1996	84.9609	78.9322	84.9609	79.2641	84.9609	78.9406	84.9609	79.3379	84.9609	78.9586	84.9609	79.4213	84.9609	78.9872	84.9609	79.5142	84.9609	79.0271	84.9609	79.6145	84.9609	79.0793	84.9609	79.7184	84.9609	79.1449	84.9609	79.8198	84.9609	79.2247	84.9609	79.9111	84.9609	79.3187	84.9609	79.9837	84.9609	79.4254	84.9609	80.0298	84.9609	79.5417	84.9609	80.0435	84.9609	79.6621	84.9609	80.0223	84.9609	79.7791	84.9609	79.9675	84.9609	79.8839
87.8906	79.7993	87.8906	79.7563	87.8906	79.8464	87.8906	79.7187	87.8906	79.8959	87.8906	79.688	87.8906	79.9463	87.8906	79.665	87.8906	79.9966	87.8906	79.6504	87.8906	80.0465	87.8906	79.6447	87.8906	80.0966	87.8906	79.6483	87.8906	80.1481	87.8906	79.6616	87.8906	80.2024	87.8906	79.6852	87.8906	80.2602	87.8906	79.7199	87.8906	80.321	87.8906	79.7666	87.8906	80.3819	87.8906	79.826	87.8906	80.4379	87.8906	79.8984	87.8906	80.4823	87.8906	79.9827	87.8906	80.5084	87.8906	80.0765	87.8906	80.5106	87.8906	80.1753	87.8906	80.4861	87.8906	80.273	87.8906	80.4353	87.8906	80.3622
90.8203	80.0549	90.8203	80.0058	90.8203	80.1112	90.8203	79.9663	90.8203	80.1725	90.8203	79.9384	90.8203	80.2368	90.8203	79.9238	90.8203	80.3023	90.8203	79.9234	90.8203	80.3683	90.8203	79.9375	90.8203	80.4346	90.8203	79.9659	90.8203	80.5014	90.8203	80.0077	90.8203	80.5695	90.8203	80.0616	90.8203	80.6388	90.8203	80.1261	90.8203	80.7085	90.8203	80.2	90.8203	80.776	90.8203	80.2817	90.8203	80.8372	90.8203	80.3699	90.8203	80.8866	90.8203	80.4628	90.8203	80.9187	90.8203	80.5579	90.8203	80.9289	90.8203	80.6517	90.8203	80.9146	90.8203	80.7396	90.8203	80.8762	90.8203	80.8163
95.2148	80.3543	95.2148	80.2979	95.2148	80.4231	95.2148	80.2573	95.2148	80.5001	95.2148	80.2346	95.2148	80.5808	95.2148	80.2305	95.2148	80.6608	95.2148	80.2444	95.2148	80.7362	95.2148	80.2745	95.2148	80.8045	95.2148	80.3182	95.2148	80.8644	95.2148	80.3724	95.2148	80.916	95.2148	80.4337	95.2148	80.96	95.2148	80.4992	95.2148	80.9977	95.2148	80.5665	95.2148	81.0297	95.2148	80.6339	95.2148	81.0557	95.2148	80.7002	95.2148	81.0741	95.2148	80.765	95.2148	81.0827	95.2148	80.8277	95.2148	81.0794	95.2148	80.8877	95.2148	81.063	95.2148	80.9436	95.2148	81.0337	95.2148	80.9931
98.1445	80.7701	98.1445	80.7101	98.1445	80.8423	98.1445	80.6662	98.1445	80.9222	98.1445	80.6409	98.1445	81.0047	98.1445	80.6351	98.1445	81.0849	98.1445	80.6484	98.1445	81.1585	98.1445	80.6791	98.1445	81.2225	98.1445	80.7243	98.1445	81.2754	98.1445	80.7804	98.1445	81.3171	98.1445	80.8435	98.1445	81.3488	98.1445	80.9099	98.1445	81.3722	98.1445	80.9762	98.1445	81.389	98.1445	81.0401	98.1445	81.4004	98.1445	81.1	98.1445	81.4065	98.1445	81.1554	98.1445	81.4064	98.1445	81.2061	98.1445	81.3991	98.1445	81.2522	98.1445	81.3839	98.1445	81.2938	98.1445	81.3607	98.1445	81.3303
101.074	81.2479	101.074	81.1805	101.074	81.3274	101.074	81.1297	101.074	81.4135	101.074	81.0984	101.074	81.5003	101.074	81.0879	101.074	81.582	101.074	81.0978	101.074	81.6535	101.074	81.126	101.074	81.7111	101.074	81.1693	101.074	81.753	101.074	81.2233	101.074	81.779	101.074	81.2834	101.074	81.7908	101.074	81.3452	101.074	81.7913	101.074	81.4047	101.074	81.7838	101.074	81.4591	101.074	81.7712	101.074	81.5067	101.074	81.7558	101.074	81.5471	101.074	81.7387	101.074	81.5811	101.074	81.7205	101.074	81.61	101.074	81.701	101.074	81.6355	101.074	81.6804	101.074	81.6587
105.469	81.1446	105.469	81.0694	105.469	81.2325	105.469	81.0126	105.469	81.3262	105.469	80.9779	105.469	81.4187	105.469	80.9674	105.469	81.5029	105.469	80.9806	105.469	81.5732	105.469	81.0151	105.469	81.6253	105.469	81.0668	105.469	81.6572	105.469	81.1302	105.469	81.6694	105.469	81.1995	105.469	81.6644	105.469	81.2685	105.469	81.6463	105.469	81.3323	105.469	81.6202	105.469	81.3866	105.469	81.5911	105.469	81.4292	105.469	81.5634	105.469	81.4595	105.469	81.5397	105.469	81.4787	105.469	81.5216	105.469	81.4892	105.469	81.5091	105.469	81.4944	105.469	81.5016	105.469	81.4975
108.398	81.6086	108.398	81.5373	108.398	81.6929	108.398	81.4849	108.398	81.7833	108.398	81.4555	108.398	81.8724	108.398	81.4509	108.398	81.9531	108.398	81.4708	108.398	82.0195	108.398	81.5123	108.398	82.0675	108.398	81.571	108.398	82.0948	108.398	81.6408	108.398	82.1019	108.398	81.715	108.398	82.0912	108.398	81.7871	108.398	82.0671	108.398	81.8511	108.398	82.0352	108.398	81.9026	108.398	82.0011	108.398	81.9388	108.398	81.97	108.398	81.9593	108.398	81.9458	108.398	81.9657	108.398	81.9306	108.398	81.9612	108.398	81.9251	108.398	81.9503	108.398	81.9282	108.398	81.9379
112.793	81.7756	112.793	81.7014	112.793	81.8637	112.793	81.6474	112.793	81.9584	112.793	81.6176	112.793	82.0517	112.793	81.614	112.793	82.1358	112.793	81.6358	112.793	82.2039	112.793	81.6798	112.793	82.2508	112.793	81.7408	112.793	82.2738	112.793	81.8121	112.793	82.2723	112.793	81.8862	112.793	82.2487	112.793	81.9558	112.793	82.2078	112.793	82.0145	112.793	82.1561	112.793	82.0573	112.793	82.1011	112.793	82.0816	112.793	82.0502	112.793	82.0873	112.793	82.0096	112.793	82.0766	112.793	81.9836	112.793	82.0541	112.793	81.974	112.793	82.0261	112.793	81.9803	112.793	81.9994
117.188	82.0886	117.188	82.0106	117.188	82.1807	117.188	81.9531	117.188	82.2787	117.188	81.9209	117.188	82.3741	117.188	81.916	117.188	82.4585	117.188	81.9377	117.188	82.5245	117.188	81.9828	117.188	82.5666	117.188	82.0456	117.188	82.5817	117.188	82.119	117.188	82.5694	117.188	82.195	117.188	82.5324	117.188	82.2655	117.188	82.4762	117.188	82.3234	117.188	82.4086	117.188	82.3633	117.188	82.3387	117.188	82.3819	117.188	82.2756	117.188	82.379	117.188	82.2271	117.188	82.357	117.188	82.1986	117.188	82.3211	117.188	82.1922	117.188	82.2786	117.188	82.2067	117.188	82.2377
120.117	82.1357	120.117	82.0607	120.117	82.2251	120.117	82.0067	120.117	82.3205	120.117	81.9784	120.117	82.4133	120.117	81.9779	120.117	82.4948	120.117	82.0043	120.117	82.5574	120.117	82.0542	120.117	82.5954	120.117	82.1217	120.117	82.6054	120.117	82.1992	120.117	82.587	120.117	82.2781	120.117	82.543	120.117	82.3501	120.117	82.4793	120.117	82.4074	120.117	82.4042	120.117	82.4443	120.117	82.3277	120.117	82.4574	120.117	82.2601	120.117	82.4461	120.117	82.2101	120.117	82.4132	120.117	82.184	120.117	82.3644	120.117	82.184	120.117	82.3077	120.117	82.2087	120.117	82.2526
124.512	82.0755	124.512	81.9989	124.512	82.1677	124.512	81.9448	124.512	82.2669	124.512	81.918	124.512	82.3637	124.512	81.9204	124.512	82.4487	124.512	81.9507	124.512	82.5137	124.512	82.005	124.512	82.5522	124.512	82.0767	124.512	82.56	124.512	82.1575	124.512	82.5363	124.512	82.2382	124.512	82.4836	124.512	82.3097	124.512	82.4079	124.512	82.3639	124.512	82.3183	124.512	82.3947	124.512	82.2261	124.512	82.3985	124.512	82.1432	124.512	82.3753	124.512	82.0807	124.512	82.3281	124.512	82.0462	124.512	82.264	124.512	82.0437	124.512	82.1923	124.512	82.0718	124.512	82.1245
128.906	82.0612	128.906	81.9841	128.906	82.1545	128.906	81.9302	128.906	82.2549	128.906	81.9043	128.906	82.3528	128.906	81.9083	128.906	82.4382	128.906	81.9407	128.906	82.5024	128.906	81.9973	128.906	82.5382	128.906	82.0711	128.906	82.5412	128.906	82.1533	128.906	82.51	128.906	82.2344	128.906	82.4472	128.906	82.3046	128.906	82.359	128.906	82.3554	128.906	82.2554	128.906	82.3804	128.906	82.1489	128.906	82.3758	128.906	82.053	128.906	82.3415	128.906	81.9804	128.906	82.2811	128.906	81.9407	128.906	82.2023	128.906	81.9382	128.906	82.1159	128.906	81.9718	128.906	82.0347
133.301	81.9922	133.301	81.911	133.301	82.0902	133.301	81.854	133.301	82.1956	133.301	81.8261	133.301	82.2981	133.301	81.829	133.301	82.3873	133.301	81.8614	133.301	82.4537	133.301	81.9188	133.301	82.4895	133.301	81.994	133.301	82.4897	133.301	82.0777	133.301	82.4527	133.301	82.1598	133.301	82.3809	133.301	82.23	133.301	82.2809	133.301	82.2794	133.301	82.1633	133.301	82.3009	133.301	82.0418	133.301	82.2905	133.301	81.9317	133.301	82.2481	133.301	81.8472	133.301	82.1777	133.301	81.7995	133.301	82.0877	133.301	81.7941	133.301	81.9901	133.301	81.8299	133.301	81.8993
139.16	81.8065	139.16	81.7209	139.16	81.9082	139.16	81.6594	139.16	82.0165	139.16	81.6273	139.16	82.1205	139.16	81.6267	139.16	82.2094	139.16	81.6565	139.16	82.2735	139.16	81.7122	139.16	82.3047	139.16	81.7866	139.16	82.2978	139.16	81.8701	139.16	82.2511	139.16	81.9519	139.16	82.1672	139.16	82.0211	139.16	82.053	139.16	82.068	139.16	81.9198	139.16	82.085	139.16	81.7827	139.16	82.0678	139.16	81.6582	139.16	82.0161	139.16	81.5625	139.16	81.9342	139.16	81.508	139.16	81.8314	139.16	81.5012	139.16	81.7209	139.16	81.5408	139.16	81.6186
143.555	81.6617	143.555	81.5751	143.555	81.7644	143.555	81.5124	143.555	81.8733	143.555	81.4791	143.555	81.9777	143.555	81.4775	143.555	82.0665	143.555	81.5065	143.555	82.1298	143.555	81.5617	143.555	82.1593	143.555	81.6358	143.555	82.1493	143.555	81.7191	143.555	82.0982	143.555	81.8006	143.555	82.0081	143.555	81.869	143.555	81.8864	143.555	81.9144	143.555	81.7448	143.555	81.9288	143.555	81.5989	143.555	81.9076	143.555	81.4665	143.555	81.8505	143.555	81.3645	143.555	81.7621	143.555	81.3064	143.555	81.6519	143.555	81.2991	143.555	81.5338	143.555	81.3415	143.555	81.4245
147.949	81.5147	147.949	81.4266	147.949	81.6181	147.949	81.3618	147.949	81.7267	147.949	81.326	147.949	81.8297	147.949	81.3216	147.949	81.9159	147.949	81.3481	147.949	81.9752	147.949	81.4013	147.949	81.9991	147.949	81.474	147.949	81.9822	147.949	81.5566	147.949	81.9228	147.949	81.6377	147.949	81.8234	147.949	81.706	147.949	81.6919	147.949	81.7507	147.949	81.5406	147.949	81.7635	147.949	81.3861	147.949	81.7394	147.949	81.247	147.949	81.6777	147.949	81.1413	147.949	81.5829	147.949	81.083	147.949	81.4647	147.949	81.079	147.949	81.3376	147.949	81.1276	147.949	81.2191
153.809	81.2755	153.809	81.1883	153.809	81.3759	153.809	81.1228	153.809	81.4796	153.809	81.0849	153.809	81.5757	153.809	81.0779	153.809	81.6535	153.809	81.1017	153.809	81.7029	153.809	81.1526	153.809	81.716	153.809	81.2237	153.809	81.6876	153.809	81.3054	153.809	81.6162	153.809	81.3861	153.809	81.505	153.809	81.454	153.809	81.3622	153.809	81.4977	153.809	81.2009	153.809	81.5083	153.809	81.0385	153.809	81.48	153.809	80.8948	153.809	81.4118	153.809	80.7885	153.809	81.3079	153.809	80.7342	153.809	81.1781	153.809	80.7385	153.809	81.0374	153.809	80.799	153.809	80.9044
159.668	81.078	159.668	80.9986	159.668	81.1734	159.668	80.9435	159.668	81.2747	159.668	80.9183	159.668	81.3709	159.668	80.9257	159.668	81.4506	159.668	80.9648	159.668	81.5034	159.668	81.031	159.668	81.5205	159.668	81.1166	159.668	81.4961	159.668	81.2107	159.668	81.4282	159.668	81.3012	159.668	81.3194	159.668	81.3753	159.668	81.178	159.668	81.4214	159.668	81.0174	159.668	81.4305	159.668	80.8555	159.668	81.3971	159.668	80.713	159.668	81.3204	159.668	80.6094	159.668	81.2054	159.668	80.5601	159.668	81.0626	159.668	80.5723	159.668	80.9079	159.668	80.6432	159.668	80.7612
165.527	80.9193	165.527	80.8443	165.527	81.0111	165.527	80.7939	165.527	81.1097	165.527	80.7735	165.527	81.2043	165.527	80.7857	165.527	81.2832	165.527	80.8296	165.527	81.3357	165.527	80.9009	165.527	81.3522	165.527	80.9916	165.527	81.3264	165.527	81.0909	165.527	81.2557	165.527	81.1861	165.527	81.1426	165.527	81.2639	165.527	80.9954	165.527	81.312	165.527	80.8281	165.527	81.3205	165.527	80.66	165.527	81.2835	165.527	80.5127	165.527	81.2	165.527	80.4074	165.527	81.0751	165.527	80.3602	165.527	80.9199	165.527	80.3786	165.527	80.7513	165.527	80.4597	165.527	80.5905
171.387	80.815	171.387	80.7327	171.387	80.9101	171.387	80.671	171.387	81.0083	171.387	80.6352	171.387	81.0987	171.387	80.6286	171.387	81.17	171.387	80.6511	171.387	81.2112	171.387	80.6997	171.387	81.2129	171.387	80.7677	171.387	81.1689	171.387	80.8456	171.387	81.0772	171.387	80.9217	171.387	80.9409	171.387	80.983	171.387	80.7694	171.387	81.0172	171.387	80.5778	171.387	81.0143	171.387	80.3865	171.387	80.9677	171.387	80.2185	171.387	80.8763	171.387	80.0958	171.387	80.7448	171.387	80.0353	171.387	80.5843	171.387	80.0447	171.387	80.4122	171.387	80.1207	171.387	80.25
177.246	80.6947	177.246	80.6099	177.246	80.789	177.246	80.5425	177.246	80.8833	177.246	80.4986	177.246	80.9672	177.246	80.4816	177.246	81.0296	177.246	80.4926	177.246	81.06	177.246	80.5294	177.246	81.0496	177.246	80.586	177.246	80.9927	177.246	80.6534	177.246	80.8874	177.246	80.7199	177.246	80.7374	177.246	80.7724	177.246	80.5522	177.246	80.7983	177.246	80.3472	177.246	80.787	177.246	80.1431	177.246	80.7318	177.246	79.9636	177.246	80.6315	177.246	79.8312	177.246	80.491	177.246	79.7636	177.246	80.3222	177.246	79.7689	177.246	80.1429	177.246	79.844	177.246	79.9756
183.105	80.4253	183.105	80.3436	183.105	80.5168	183.105	80.279	183.105	80.6093	183.105	80.2372	183.105	80.6933	183.105	80.2221	183.105	80.7585	183.105	80.2352	183.105	80.7948	183.105	80.2746	183.105	80.7933	183.105	80.3352	183.105	80.7478	183.105	80.4081	183.105	80.6558	183.105	80.4815	183.105	80.5198	183.105	80.5419	183.105	80.3481	183.105	80.5761	183.105	80.1554	183.105	80.5731	183.105	79.9614	183.105	80.5257	183.105	79.7891	183.105	80.4324	183.105	79.661	183.105	80.2982	183.105	79.5947	183.105	80.135	183.105	79.5988	183.105	79.9609	183.105	79.6709	183.105	79.7984
188.965	80.2885	188.965	80.2095	188.965	80.3765	188.965	80.1463	188.965	80.4654	188.965	80.1045	188.965	80.5457	188.965	80.0876	188.965	80.6072	188.965	80.0973	188.965	80.6395	188.965	80.1322	188.965	80.6333	188.965	80.1874	188.965	80.5819	188.965	80.2543	188.965	80.4826	188.965	80.3213	188.965	80.338	188.965	80.3751	188.965	80.1568	188.965	80.4023	188.965	79.9542	188.965	80.3917	188.965	79.7507	188.965	80.3362	188.965	79.5702	188.965	80.2342	188.965	79.4357	188.965	80.0913	188.965	79.365	188.965	79.9198	188.965	79.3672	188.965	79.7385	188.965	79.44	188.965	79.5706
196.289	80.2676	196.289	80.1932	196.289	80.3489	196.289	80.1323	196.289	80.4293	196.289	80.0904	196.289	80.4999	196.289	80.0715	196.289	80.551	196.289	80.0776	196.289	80.5725	196.289	80.1077	196.289	80.5555	196.289	80.1574	196.289	80.4934	196.289	80.218	196.289	80.3834	196.289	80.2775	196.289	80.228	196.289	80.3221	196.289	80.0359	196.289	80.3377	196.289	79.822	196.289	80.3128	196.289	79.607	196.289	80.2404	196.289	79.415	196.289	80.1197	196.289	79.2696	196.289	79.9574	196.289	79.19	196.289	79.7677	196.289	79.1865	196.289	79.5715	196.289	79.2582	196.289	79.3934
203.613	80.0786	203.613	80.0017	203.613	80.161	203.613	79.9372	203.613	80.241	203.613	79.8908	203.613	80.3097	203.613	79.8671	203.613	80.3573	203.613	79.869	203.613	80.3739	203.613	79.8962	203.613	80.3511	203.613	79.9452	203.613	80.2826	203.613	80.008	203.613	80.1665	203.613	80.073	203.613	80.0066	203.613	80.1261	203.613	79.8126	203.613	80.1528	203.613	79.6009	203.613	80.1406	203.613	79.3929	203.613	80.0813	203.613	79.2127	203.613	79.9729	203.613	79.083	203.613	79.8207	203.613	79.0207	203.613	79.6378	203.613	79.0337	203.613	79.4437	203.613	79.1188	203.613	79.2625
210.938	80.0238	210.938	79.9462	210.938	80.1042	210.938	79.8781	210.938	80.1798	210.938	79.8257	210.938	80.2427	210.938	79.7946	210.938	80.2839	210.938	79.7884	210.938	80.2947	210.938	79.8085	210.938	80.2673	210.938	79.852	210.938	80.1964	210.938	79.9115	210.938	80.0807	210.938	79.9753	210.938	79.9238	210.938	80.0285	210.938	79.7353	210.938	80.0558	210.938	79.5305	210.938	80.0437	210.938	79.3294	210.938	79.9836	210.938	79.1539	210.938	79.8737	210.938	79.0249	210.938	79.7202	210.938	78.9585	210.938	79.5375	210.938	78.9632	210.938	79.3467	210.938	79.0381	210.938	79.1722
218.262	79.9207	218.262	79.8575	218.262	79.9875	218.262	79.8047	218.262	80.0504	218.262	79.7681	218.262	80.1012	218.262	79.7529	218.262	80.1307	218.262	79.7624	218.262	80.1299	218.262	79.7973	218.262	80.0907	218.262	79.8548	218.262	80.0082	218.262	79.9277	218.262	79.8819	218.262	80.0046	218.262	79.7174	218.262	80.0713	218.262	79.5274	218.262	80.1127	218.262	79.3303	218.262	80.115	218.262	79.1485	218.262	80.0685	218.262	79.0048	218.262	79.9695	218.262	78.9182	218.262	79.8221	218.262	78.9002	218.262	79.6381	218.262	78.9535	218.262	79.4361	218.262	79.0715	218.262	79.2393
225.586	79.894	225.586	79.8344	225.586	79.9556	225.586	79.7819	225.586	80.0128	225.586	79.7419	225.586	80.0585	225.586	79.7191	225.586	80.0837	225.586	79.7176	225.586	80.0787	225.586	79.739	225.586	80.0344	225.586	79.7816	225.586	79.9443	225.586	79.8389	225.586	79.8064	225.586	79.9002	225.586	79.6258	225.586	79.9518	225.586	79.4154	225.586	79.9789	225.586	79.1954	225.586	79.9681	225.586	78.9913	225.586	79.9101	225.586	78.829	225.586	79.8016	225.586	78.7298	225.586	79.6467	225.586	78.7058	225.586	79.4568	225.586	78.7582	225.586	79.2503	225.586	78.8783	225.586	79.0495
232.91	79.7958	232.91	79.7423	232.91	79.8477	232.91	79.6928	232.91	79.8923	232.91	79.6531	232.91	79.9229	232.91	79.6289	232.91	79.932	232.91	79.6248	232.91	79.9109	232.91	79.6427	232.91	79.8514	232.91	79.6803	232.91	79.7471	232.91	79.7301	232.91	79.5963	232.91	79.7805	232.91	79.4036	232.91	79.8167	232.91	79.1814	232.91	79.8237	232.91	78.9499	232.91	79.7889	232.91	78.7346	232.91	79.7045	232.91	78.5618	232.91	79.5696	232.91	78.453	232.91	79.3907	232.91	78.4205	232.91	79.1816	232.91	78.4664	232.91	78.962	232.91	78.5828	232.91	78.7547
241.699	79.6515	241.699	79.5876	241.699	79.7104	241.699	79.5259	241.699	79.7577	241.699	79.4743	241.699	79.7867	241.699	79.4407	241.699	79.79	241.699	79.4317	241.699	79.7596	241.699	79.4503	241.699	79.6878	241.699	79.4937	241.699	79.569	241.699	79.5529	241.699	79.402	241.699	79.613	241.699	79.1918	241.699	79.6563	241.699	78.9517	241.699	79.6652	241.699	78.7029	241.699	79.6256	241.699	78.4722	241.699	79.53	241.699	78.2873	241.699	79.3784	241.699	78.1707	241.699	79.1796	241.699	78.1354	241.699	78.95	241.699	78.1831	241.699	78.7116	241.699	78.306	241.699	78.489
250.488	79.6192	250.488	79.5414	250.488	79.6871	250.488	79.4601	250.488	79.739	250.488	79.3832	250.488	79.7692	250.488	79.3194	250.488	79.7706	250.488	79.2776	250.488	79.7357	250.488	79.2636	250.488	79.6569	250.488	79.2782	250.488	79.5289	250.488	79.3147	250.488	79.3503	250.488	79.3592	250.488	79.1265	250.488	79.3929	250.488	78.8709	250.488	79.3963	250.488	78.605	250.488	79.3535	250.488	78.3557	250.488	79.2556	250.488	78.1507	250.488	79.1029	250.488	78.0127	250.488	78.9053	250.488	77.9548	250.488	78.6805	250.488	77.9797	250.488	78.452	250.488	78.0807	250.488	78.2444
259.277	79.7169	259.277	79.6471	259.277	79.7753	259.277	79.5726	259.277	79.8165	259.277	79.5012	259.277	79.8344	259.277	79.4418	259.277	79.8223	259.277	79.403	259.277	79.7734	259.277	79.3912	259.277	79.6812	259.277	79.4076	259.277	79.5414	259.277	79.446	259.277	79.3543	259.277	79.4925	259.277	79.1267	259.277	79.5278	259.277	78.8731	259.277	79.5313	259.277	78.6153	259.277	79.486	259.277	78.3798	259.277	79.3826	259.277	78.1919	259.277	79.2218	259.277	78.071	259.277	79.0146	259.277	78.027	259.277	78.7809	259.277	78.0608	259.277	78.5455	259.277	78.1666	259.277	78.3336
268.066	79.5413	268.066	79.452	268.066	79.6186	268.066	79.3558	268.066	79.679	268.066	79.2585	268.066	79.7163	268.066	79.1675	268.066	79.7234	268.066	79.0916	268.066	79.6916	268.066	79.0394	268.066	79.6127	268.066	79.0165	268.066	79.4806	268.066	79.0224	268.066	79.294	268.066	79.0478	268.066	79.0592	268.066	79.0764	268.066	78.7917	268.066	79.0876	268.066	78.5157	268.066	79.0625	268.066	78.261	268.066	78.9887	268.066	78.0558	268.066	78.8634	268.066	77.9208	268.066	78.6946	268.066	77.8648	268.066	78.4992	268.066	77.8856	268.066	78.2992	268.066	77.9742	268.066	78.1175
276.855	79.7764	276.855	79.6932	276.855	79.8435	276.855	79.5956	276.855	79.8922	276.855	79.4866	276.855	79.9176	276.855	79.3717	276.855	79.9124	276.855	79.2588	276.855	79.8669	276.855	79.1563	276.855	79.7716	276.855	79.0704	276.855	79.6199	276.855	79.0025	276.855	79.4113	276.855	78.9474	276.855	79.153	276.855	78.8942	276.855	78.8606	276.855	78.8293	276.855	78.5577	276.855	78.74	276.855	78.2716	276.855	78.619	276.855	78.0288	276.855	78.467	276.855	77.8488	276.855	78.2936	276.855	77.7406	276.855	78.1151	276.855	77.704	276.855	77.9509	276.855	77.7329	276.855	77.8187
287.109	79.5132	287.109	79.4532	287.109	79.554	287.109	79.3781	287.109	79.574	287.109	79.2952	287.109	79.5722	287.109	79.2154	287.109	79.5473	287.109	79.1515	287.109	79.4962	287.109	79.1152	287.109	79.415	287.109	79.1128	287.109	79.3003	287.109	79.1421	287.109	79.1519	287.109	79.19	287.109	78.9751	287.109	79.2354	287.109	78.7814	287.109	79.2537	287.109	78.5878	287.109	79.2241	287.109	78.4126	287.109	79.1356	287.109	78.271	287.109	78.9902	287.109	78.1724	287.109	78.804	287.109	78.1206	287.109	78.6029	287.109	78.1176	287.109	78.4158	287.109	78.1653	287.109	78.2657
297.363	79.7723	297.363	79.7522	297.363	79.7645	297.363	79.7016	297.363	79.7324	297.363	79.6212	297.363	79.6786	297.363	79.5168	297.363	79.6022	297.363	79.3996	297.363	79.4989	297.363	79.2849	297.363	79.3617	297.363	79.1886	297.363	79.1843	297.363	79.1217	297.363	78.966	297.363	79.0853	297.363	78.7155	297.363	79.0688	297.363	78.4532	297.363	79.0529	297.363	78.2083	297.363	79.016	297.363	78.0119	297.363	78.9416	297.363	77.8856	297.363	78.8239	297.363	77.835	297.363	78.6694	297.363	77.851	297.363	78.4943	297.363	77.9177	297.363	78.3183	297.363	78.0225	297.363	78.1578
307.617	79.7245	307.617	79.6747	307.617	79.7389	307.617	79.5952	307.617	79.7162	307.617	79.4957	307.617	79.6572	307.617	79.3905	307.617	79.5634	307.617	79.2951	307.617	79.4362	307.617	79.2235	307.617	79.2767	307.617	79.183	307.617	79.0859	307.617	79.1706	307.617	78.8669	307.617	79.1723	307.617	78.626	307.617	79.1658	307.617	78.375	307.617	79.1262	307.617	78.1307	307.617	79.0334	307.617	77.9125	307.617	78.8776	307.617	77.7381	307.617	78.6639	307.617	77.6191	307.617	78.4126	307.617	77.5596	307.617	78.1545	307.617	77.5594	307.617	77.9222	307.617	77.6189	307.617	77.74
319.336	79.6439	319.336	79.5933	319.336	79.6574	319.336	79.5103	319.336	79.6318	319.336	79.4034	319.336	79.5659	319.336	79.2851	319.336	79.4588	319.336	79.1713	319.336	79.3097	319.336	79.0779	319.336	79.119	319.336	79.0171	319.336	78.8909	319.336	78.9916	319.336	78.6346	319.336	78.992	319.336	78.3664	319.336	78.9981	319.336	78.1076	319.336	78.984	319.336	77.8813	319.336	78.9262	319.336	77.7067	319.336	78.811	319.336	77.5935	319.336	78.639	319.336	77.5408	319.336	78.4258	319.336	77.541	319.336	78.198	319.336	77.5863	319.336	77.9844	319.336	77.6741	319.336	77.8067
329.59	79.5448	329.59	79.478	329.59	79.5827	329.59	79.3872	329.59	79.5868	329.59	79.2786	329.59	79.5512	329.59	79.1606	329.59	79.4684	329.59	79.044	329.59	79.3296	329.59	78.9402	329.59	79.1277	329.59	78.8594	329.59	78.8611	329.59	78.8059	329.59	78.5384	329.59	78.7746	329.59	78.1815	329.59	78.75	329.59	77.8262	329.59	78.7098	329.59	77.5151	329.59	78.6322	329.59	77.2858	329.59	78.5036	329.59	77.1565	329.59	78.3246	329.59	77.1212	329.59	78.1104	329.59	77.1571	329.59	77.8861	329.59	77.2394	329.59	77.677	329.59	77.3539	329.59	77.4986
341.309	79.4246	341.309	79.3678	341.309	79.4491	341.309	79.2806	341.309	79.4423	341.309	79.1702	341.309	79.4047	341.309	79.0492	341.309	79.3346	341.309	78.9349	341.309	79.226	341.309	78.8442	341.309	79.0705	341.309	78.7879	341.309	78.8611	341.309	78.7651	341.309	78.5973	341.309	78.7616	341.309	78.2904	341.309	78.7536	341.309	77.9657	341.309	78.7151	341.309	77.6596	341.309	78.6255	341.309	77.4101	341.309	78.4766	341.309	77.2442	341.309	78.2756	341.309	77.1675	341.309	78.0441	341.309	77.1664	341.309	77.8118	341.309	77.2195	341.309	77.6054	341.309	77.3112	341.309	77.4384
353.027	79.4844	353.027	79.3958	353.027	79.5284	353.027	79.2663	353.027	79.5267	353.027	79.104	353.027	79.4781	353.027	78.9227	353.027	79.381	353.027	78.742	353.027	79.232	353.027	78.5834	353.027	79.0274	353.027	78.4649	353.027	78.7651	353.027	78.3928	353.027	78.4483	353.027	78.3574	353.027	78.0899	353.027	78.3335	353.027	77.7157	353.027	78.289	353.027	77.3636	353.027	78.1959	353.027	77.0754	353.027	78.0411	353.027	76.8819	353.027	77.8316	353.027	76.7899	353.027	77.5935	353.027	76.7813	353.027	77.3622	353.027	76.8275	353.027	77.1666	353.027	76.9072	353.027	77.0172
366.211	79.3273	366.211	79.2916	366.211	79.3099	366.211	79.2032	366.211	79.2456	366.211	79.0715	366.211	79.1452	366.211	78.915	366.211	79.0193	366.211	78.7598	366.211	78.8754	366.211	78.6351	366.211	78.7158	366.211	78.5647	366.211	78.539	366.211	78.5555	366.211	78.3426	366.211	78.5905	366.211	78.1267	366.211	78.6316	366.211	77.8965	366.211	78.6319	366.211	77.6629	366.211	78.5507	366.211	77.4396	366.211	78.3659	366.211	77.2391	366.211	78.0823	366.211	77.0702	366.211	77.7346	366.211	76.9386	366.211	77.3825	366.211	76.8535	366.211	77.0914	366.211	76.8334	366.211	76.9058
379.395	79.3804	379.395	79.3544	379.395	79.3576	379.395	79.2792	379.395	79.2898	379.395	79.1605	379.395	79.1813	379.395	79.0114	379.395	79.0352	379.395	78.8535	379.395	78.8526	379.395	78.7154	379.395	78.634	379.395	78.626	379.395	78.3838	379.395	78.6037	379.395	78.1141	379.395	78.6437	379.395	77.846	379.395	78.715	379.395	77.6052	379.395	78.7694	379.395	77.4128	379.395	78.7585	379.395	77.2769	379.395	78.6503	379.395	77.1916	379.395	78.4392	379.395	77.1437	379.395	78.1497	379.395	77.1239	379.395	77.8309	379.395	77.1347	379.395	77.5411	379.395	77.1934	379.395	77.3241
392.578	79.1505	392.578	79.123	392.578	79.1067	392.578	79.024	392.578	78.9995	392.578	78.864	392.578	78.841	392.578	78.6646	392.578	78.6444	392.578	78.4592	392.578	78.4214	392.578	78.2883	392.578	78.1822	392.578	78.1909	392.578	77.9372	392.578	78.1907	392.578	77.7009	392.578	78.2838	392.578	77.4941	392.578	78.4368	392.578	77.3424	392.578	78.5983	392.578	77.267	392.578	78.7169	392.578	77.2746	392.578	78.7562	392.578	77.3515	392.578	78.7037	392.578	77.4705	392.578	78.5717	392.578	77.6044	392.578	78.3913	392.578	77.7384	392.578	78.2	392.578	77.8745	392.578	78.0253
405.762	79.9632	405.762	79.9353	405.762	79.889	405.762	79.8058	405.762	79.7147	405.762	79.5797	405.762	79.4443	405.762	79.27	405.762	79.0848	405.762	78.9015	405.762	78.6492	405.762	78.5155	405.762	78.1618	405.762	78.1692	405.762	77.6636	405.762	77.9241	405.762	77.2124	405.762	77.8211	405.762	76.8733	405.762	77.8556	405.762	76.697	405.762	77.9786	405.762	76.6969	405.762	78.1226	405.762	76.8418	405.762	78.2315	405.762	77.0732	405.762	78.2773	405.762	77.3298	405.762	78.2602	405.762	77.5659	405.762	78.199	405.762	77.7584	405.762	78.1153	405.762	77.9055	405.762	78.0194
420.41	80.438	420.41	80.383	420.41	80.397	420.41	80.2351	420.41	80.2585	420.41	79.9999	420.41	80.0216	420.41	79.6879	420.41	79.6861	420.41	79.3181	420.41	79.2523	420.41	78.9227	420.41	78.7258	420.41	78.5477	420.41	78.1269	420.41	78.2452	420.41	77.5058	420.41	78.0559	420.41	76.9529	420.41	77.9884	420.41	76.5846	420.41	78.014	420.41	76.4859	420.41	78.0816	420.41	76.6505	420.41	78.1431	420.41	76.9827	420.41	78.1726	420.41	77.3608	420.41	78.1709	420.41	77.691	420.41	78.1557	420.41	77.9257	420.41	78.1408	420.41	78.0601	420.41	78.119
435.059	80.2704	435.059	80.2234	435.059	80.2312	435.059	80.0895	435.059	80.107	435.059	79.869	435.059	79.8974	435.059	79.5657	435.059	79.5996	435.059	79.1917	435.059	79.2086	435.059	78.7738	435.059	78.7208	435.059	78.3587	435.059	78.1436	435.059	78.0069	435.059	77.5109	435.059	77.7731	435.059	76.8987	435.059	77.6779	435.059	76.4247	435.059	77.6952	435.059	76.2068	435.059	77.7688	435.059	76.2882	435.059	77.8442	435.059	76.5995	435.059	77.8924	435.059	77.0081	435.059	77.9143	435.059	77.3927	435.059	77.9259	435.059	77.6809	435.059	77.9348	435.059	77.8516	435.059	77.923
451.172	80.8135	451.172	80.7123	451.172	80.8193	451.172	80.5124	451.172	80.7278	451.172	80.2086	451.172	80.5314	451.172	79.7995	451.172	80.219	451.172	79.2947	451.172	79.7813	451.172	78.7209	451.172	79.217	451.172	78.1264	451.172	78.5406	451.172	77.5787	451.172	77.7912	451.172	77.1493	451.172	77.0423	451.172	76.8854	451.172	76.4064	451.172	76.7848	451.172	76.0135	451.172	76.7989	451.172	75.9452	451.172	76.8669	451.172	76.1666	451.172	76.9498	451.172	76.5423	451.172	77.0395	451.172	76.9202	451.172	77.1425	451.172	77.1958	451.172	77.2518	451.172	77.3287	451.172	77.3319
465.82	80.6896	465.82	80.6044	465.82	80.7009	465.82	80.4465	465.82	80.6319	465.82	80.2154	465.82	80.4675	465.82	79.9134	465.82	80.1852	465.82	79.5471	465.82	79.7608	465.82	79.1301	465.82	79.1796	465.82	78.6851	465.82	78.4503	465.82	78.2452	465.82	77.6206	465.82	77.8485	465.82	76.7914	465.82	77.5262	465.82	76.1132	465.82	77.2892	465.82	75.738	465.82	77.1285	465.82	75.7294	465.82	77.0304	465.82	76.0138	465.82	76.9928	465.82	76.4363	465.82	77.0233	465.82	76.8484	465.82	77.1169	465.82	77.1532	465.82	77.2377	465.82	77.3095	465.82	77.3234
483.398	80.6669	483.398	80.611	483.398	80.6377	483.398	80.4616	483.398	80.5305	483.398	80.2162	483.398	80.3448	483.398	79.8838	483.398	80.0689	483.398	79.4868	483.398	79.6818	483.398	79.0595	483.398	79.1622	483.398	78.6395	483.398	78.5049	483.398	78.257	483.398	77.7425	483.398	77.9237	483.398	76.9648	483.398	77.6297	483.398	76.3198	483.398	77.3514	483.398	75.9621	483.398	77.0708	483.398	75.9567	483.398	76.7988	483.398	76.2289	483.398	76.5894	483.398	76.6212	483.398	76.5192	483.398	76.9816	483.398	76.6272	483.398	77.2059	483.398	76.8628	483.398	77.2451	483.398	77.1079
499.512	80.5297	499.512	80.4689	499.512	80.4999	499.512	80.3127	499.512	80.3839	499.512	80.0595	499.512	80.1816	499.512	79.7156	499.512	79.8843	499.512	79.3009	499.512	79.4732	499.512	78.8535	499.512	78.9237	499.512	78.4273	499.512	78.2208	499.512	78.0771	499.512	77.3866	499.512	77.8328	499.512	76.5175	499.512	77.6796	499.512	75.8078	499.512	77.5639	499.512	75.4917	499.512	77.4256	499.512	75.665	499.512	77.2379	499.512	76.1823	499.512	77.038	499.512	76.7898	499.512	76.9206	499.512	77.2872	499.512	76.9738	499.512	77.5697	499.512	77.1888	499.512	77.6108	499.512	77.4496
517.09	80.955	517.09	80.7803	517.09	81.0384	517.09	80.5161	517.09	81.0263	517.09	80.1706	517.09	80.9066	517.09	79.7634	517.09	80.6584	517.09	79.3256	517.09	80.2565	517.09	78.8936	517.09	79.6776	517.09	78.5006	517.09	78.9091	517.09	78.1687	517.09	77.9613	517.09	77.9018	517.09	76.8958	517.09	77.6798	517.09	75.8744	517.09	77.4596	517.09	75.187	517.09	77.1949	517.09	75.1065	517.09	76.8733	517.09	75.5967	517.09	76.556	517.09	76.3268	517.09	76.3801	517.09	76.971	517.09	76.469	517.09	77.3485	517.09	76.7951	517.09	77.4032	517.09	77.175
536.133	80.4821	536.133	80.2754	536.133	80.5628	536.133	79.9535	536.133	80.5087	536.133	79.533	536.133	80.3148	536.133	79.0429	536.133	79.9837	536.133	78.5301	536.133	79.5273	536.133	78.0566	536.133	78.962	536.133	77.6858	536.133	78.3004	536.133	77.4582	536.133	77.5487	536.133	77.3687	536.133	76.7253	536.133	77.3629	536.133	75.9069	536.133	77.3575	536.133	75.2739	536.133	77.273	536.133	75.0557	536.133	77.0654	536.133	75.3217	536.133	76.7567	536.133	75.8742	536.133	76.4548	536.133	76.4227	536.133	76.3173	536.133	76.7648	536.133	76.4207	536.133	76.8274	536.133	76.6593
555.176	80.5637	555.176	80.4123	555.176	80.6051	555.176	80.1444	555.176	80.5441	555.176	79.7699	555.176	80.3767	555.176	79.3225	555.176	80.0831	555.176	78.8527	555.176	79.6325	555.176	78.4062	555.176	78.9947	555.176	78.0061	555.176	78.1595	555.176	77.6541	555.176	77.1645	555.176	77.35	555.176	76.1266	555.176	77.0994	555.176	75.2495	555.176	76.8927	555.176	74.7529	555.176	76.6824	555.176	74.7234	555.176	76.4054	555.176	75.0488	555.176	76.0504	555.176	75.5206	555.176	75.7178	555.176	75.949	555.176	75.5833	555.176	76.2016	555.176	75.7243	555.176	76.2128	555.176	76.007
574.219	81.0568	574.219	80.8747	574.219	81.1115	574.219	80.551	574.219	81.0565	574.219	80.088	574.219	80.8989	574.219	79.5131	574.219	80.626	574.219	78.8817	574.219	80.2054	574.219	78.274	574.219	79.5946	574.219	77.7795	574.219	78.756	574.219	77.4637	574.219	77.6741	574.219	77.3269	574.219	76.3956	574.219	77.2926	574.219	75.1305	574.219	77.2398	574.219	74.3569	574.219	77.055	574.219	74.505	574.219	76.6813	574.219	75.3389	574.219	76.1737	574.219	76.2717	574.219	75.7464	574.219	76.9409	574.219	75.6914	574.219	77.2215	574.219	76.0825	574.219	77.1041	574.219	76.6607
594.727	80.5598	594.727	80.3123	594.727	80.7223	594.727	79.9882	594.727	80.7898	594.727	79.5944	594.727	80.7468	594.727	79.1349	594.727	80.568	594.727	78.6168	594.727	80.2196	594.727	78.0717	594.727	79.665	594.727	77.5754	594.727	78.8755	594.727	77.2336	594.727	77.84	594.727	77.1088	594.727	76.5823	594.727	77.1478	594.727	75.2205	594.727	77.1979	594.727	74.1097	594.727	77.0979	594.727	73.8276	594.727	76.7593	594.727	74.5061	594.727	76.2215	594.727	75.5546	594.727	75.699	594.727	76.4116	594.727	75.5253	594.727	76.8417	594.727	75.8421	594.727	76.8071	594.727	76.3948
615.234	80.2673	615.234	80.1123	615.234	80.328	615.234	79.8314	615.234	80.3193	615.234	79.4146	615.234	80.2366	615.234	78.8895	615.234	80.0427	615.234	78.3151	615.234	79.6882	615.234	77.7626	615.234	79.1402	615.234	77.3065	615.234	78.3967	615.234	77.0279	615.234	77.4724	615.234	76.982	615.234	76.3803	615.234	77.1213	615.234	75.1709	615.234	77.2827	615.234	74.0725	615.234	77.2719	615.234	73.5456	615.234	76.9458	615.234	73.8317	615.234	76.2642	615.234	74.5656	615.234	75.3714	615.234	75.244	615.234	74.6833	615.234	75.587	615.234	74.6296	615.234	75.5043	615.234	75.0743
637.207	80.2898	637.207	80.0902	637.207	80.3956	637.207	79.7813	637.207	80.4256	637.207	79.3709	637.207	80.3707	637.207	78.8956	637.207	80.179	637.207	78.409	637.207	79.7756	637.207	77.9514	637.207	79.1077	637.207	77.5274	637.207	78.1824	637.207	77.1277	637.207	77.0663	637.207	76.7825	637.207	75.8519	637.207	76.563	637.207	74.6542	637.207	76.4857	637.207	73.7316	637.207	76.4434	637.207	73.5603	637.207	76.2731	637.207	74.2993	637.207	75.887	637.207	75.3973	637.207	75.3883	637.207	76.2598	637.207	75.1048	637.207	76.6261	637.207	75.3315	637.207	76.4697	637.207	75.9291
659.18	80.0552	659.18	79.8513	659.18	80.1821	659.18	79.5607	659.18	80.259	659.18	79.2081	659.18	80.293	659.18	78.8315	659.18	80.2466	659.18	78.4388	659.18	80.0513	659.18	77.9938	659.18	79.6404	659.18	77.4763	659.18	78.958	659.18	76.9707	659.18	77.94	659.18	76.6591	659.18	76.5111	659.18	76.6446	659.18	74.675	659.18	76.777	659.18	72.8117	659.18	76.7364	659.18	71.9389	659.18	76.2547	659.18	72.527	659.18	75.3021	659.18	73.6986	659.18	74.2998	659.18	74.7535	659.18	74.0501	659.18	75.4574	659.18	74.667	659.18	75.6919	659.18	75.3907
682.617	80.1038	682.617	80.1179	682.617	79.8497	682.617	79.8392	682.617	79.4789	682.617	79.2864	682.617	79.1444	682.617	78.531	682.617	78.9409	682.617	77.6792	682.617	78.8426	682.617	76.8643	682.617	78.7296	682.617	76.2253	682.617	78.4324	682.617	75.88	682.617	77.766	682.617	75.9288	682.617	76.605	682.617	76.3674	682.617	74.9978	682.617	76.9366	682.617	73.3376	682.617	77.2292	682.617	72.4643	682.617	76.9178	682.617	72.8938	682.617	75.8276	682.617	73.9857	682.617	74.0072	682.617	74.8989	682.617	72.2035	682.617	75.2018	682.617	72.1007	682.617	74.7236	682.617	73.4896
707.52	80.4407	707.52	80.2173	707.52	80.3761	707.52	79.7803	707.52	80.057	707.52	79.2536	707.52	79.6587	707.52	78.7523	707.52	79.4122	707.52	78.3196	707.52	79.3761	707.52	77.9043	707.52	79.3503	707.52	77.4431	707.52	79.0741	707.52	76.9738	707.52	78.4008	707.52	76.6407	707.52	77.2923	707.52	76.5974	707.52	75.7816	707.52	76.8837	707.52	74.0891	707.52	77.3141	707.52	72.8804	707.52	77.511	707.52	72.9465	707.52	77.077	707.52	74.0176	707.52	75.7213	707.52	75.0947	707.52	73.525	707.52	75.4741	707.52	72.0698	707.52	74.8206	707.52	73.2028
732.422	80.7616	732.422	80.7304	732.422	80.5066	732.422	80.4571	732.422	79.9859	732.422	80.0243	732.422	79.3394	732.422	79.5195	732.422	78.8285	732.422	78.9504	732.422	78.6278	732.422	78.1999	732.422	78.5844	732.422	77.1628	732.422	78.3558	732.422	76.0226	732.422	77.6918	732.422	75.3364	732.422	76.5336	732.422	75.4555	732.422	74.9756	732.422	76.1026	732.422	73.1523	732.422	76.8379	732.422	71.2893	732.422	77.3082	732.422	70.3333	732.422	77.2185	732.422	71.2212	732.422	76.3375	732.422	72.5946	732.422	74.5857	732.422	73.1186	732.422	72.4825	732.422	72.5691	732.422	71.7355
757.324	81.0362	757.324	81.1709	757.324	80.6094	757.324	81.1149	757.324	79.8195	757.324	80.9552	757.324	78.6957	757.324	80.6817	757.324	77.5204	757.324	80.117	757.324	76.8654	757.324	78.986	757.324	76.9816	757.324	77.0765	757.324	77.3943	757.324	74.407	757.324	77.568	757.324	71.7022	757.324	77.2135	757.324	71.2657	757.324	76.1142	757.324	73.5354	757.324	74.0045	757.324	75.8838	757.324	70.7018	757.324	77.2928	757.324	67.5159	757.324	77.6965	757.324	68.1488	757.324	77.1259	757.324	69.9831	757.324	75.557	757.324	70.6381	757.324	73.1147	757.324	70.367	757.324	70.8334
785.156	82.1022	785.156	81.5324	785.156	82.2355	785.156	80.7955	785.156	81.66	785.156	80.0452	785.156	80.2145	785.156	79.2461	785.156	78.0151	785.156	78.2774	785.156	75.6479	785.156	77.1728	785.156	73.9476	785.156	76.0481	785.156	73.1271	785.156	74.6072	785.156	72.7259	785.156	72.2686	785.156	72.5901	785.156	69.9065	785.156	72.4974	785.156	71.3301	785.156	71.3691	785.156	74.1543	785.156	68.8278	785.156	75.8927	785.156	68.9736	785.156	76.5103	785.156	72.0366	785.156	76.3125	785.156	73.7432	785.156	75.6648	785.156	74.1247	785.156	74.8872	785.156	74.0576	785.156	74.2641
811.523	80.8808	811.523	80.7652	811.523	80.7208	811.523	80.4686	811.523	80.2089	811.523	80.0495	811.523	79.3625	811.523	79.4844	811.523	78.3654	811.523	78.6731	811.523	77.5125	811.523	77.5248	811.523	76.9525	811.523	76.067	811.523	76.5282	811.523	74.4642	811.523	76.0634	811.523	72.8375	811.523	75.7643	811.523	71.0094	811.523	75.8795	811.523	70.1791	811.523	75.8843	811.523	72.8005	811.523	74.9169	811.523	75.7543	811.523	72.8387	811.523	77.4284	811.523	71.6256	811.523	77.9625	811.523	72.7808	811.523	77.6525	811.523	74.0306	811.523	76.7907	811.523	74.8424	811.523	75.7371
840.82	80.3854	840.82	80.3515	840.82	80.4102	840.82	80.2918	840.82	80.2609	840.82	80.0231	840.82	79.7419	840.82	79.3277	840.82	78.8395	840.82	78.0875	840.82	77.8702	840.82	76.4532	840.82	77.316	840.82	74.9444	840.82	77.1934	840.82	73.8302	840.82	76.9736	840.82	72.3338	840.82	76.3388	840.82	69.5882	840.82	75.4913	840.82	67.2341	840.82	74.6201	840.82	68.8002	840.82	73.4822	840.82	71.7683	840.82	72.1619	840.82	74.1184	840.82	71.8033	840.82	75.7543	840.82	73.0985	840.82	76.934	840.82	74.9587	840.82	77.5449	840.82	76.4935	840.82	77.3982
870.117	80.5671	870.117	79.9818	870.117	80.9105	870.117	79.2315	870.117	80.9179	870.117	78.4415	870.117	80.4416	870.117	77.642	870.117	79.4819	870.117	76.614	870.117	78.4812	870.117	75.1546	870.117	78.1186	870.117	73.6436	870.117	78.372	870.117	72.7376	870.117	78.5133	870.117	72.0652	870.117	78.2945	870.117	71.3035	870.117	78.0489	870.117	69.9402	870.117	77.5547	870.117	66.5099	870.117	76.1367	870.117	69.9385	870.117	73.7472	870.117	74.7088	870.117	72.1142	870.117	77.1675	870.117	72.9206	870.117	78.5528	870.117	74.8355	870.117	79.0252	870.117	76.8711	870.117	78.4203
900.879	80.6	900.879	80.0998	900.879	80.8011	900.879	79.3557	900.879	80.6375	900.879	78.444	900.879	80.1573	900.879	77.4892	900.879	79.5466	900.879	76.5151	900.879	78.777	900.879	75.3781	900.879	77.6459	900.879	74.2884	900.879	76.4247	900.879	74.1952	900.879	75.6524	900.879	75.3501	900.879	75.5403	900.879	76.5553	900.879	76.137	900.879	76.6405	900.879	76.9436	900.879	75.3148	900.879	77.2968	900.879	73.509	900.879	77.0651	900.879	73.2841	900.879	76.6084	900.879	75.1872	900.879	76.3859	900.879	77.2591	900.879	76.6624	900.879	78.2791	900.879	77.42	900.879	78.1842
933.105	81.0708	933.105	81.7015	933.105	79.9415	933.105	81.5648	933.105	78.8427	933.105	80.4998	933.105	78.3511	933.105	78.2617	933.105	78.5497	933.105	74.6462	933.105	78.9611	933.105	70.4093	933.105	78.9767	933.105	69.093	933.105	78.1804	933.105	71.7173	933.105	76.3779	933.105	74.3394	933.105	73.495	933.105	75.5155	933.105	70.4561	933.105	75.3669	933.105	70.7257	933.105	74.3244	933.105	73.0774	933.105	72.5506	933.105	75.3208	933.105	69.6568	933.105	77.3383	933.105	68.2104	933.105	78.8908	933.105	72.7681	933.105	79.6869	933.105	76.5653	933.105	79.6347	933.105	78.6821
965.332	81.3448	965.332	81.5319	965.332	81.0618	965.332	81.5566	965.332	80.7259	965.332	81.3256	965.332	80.4434	965.332	80.7219	965.332	80.2682	965.332	79.5597	965.332	79.9577	965.332	77.6573	965.332	79.1717	965.332	74.8176	965.332	77.8712	965.332	70.6688	965.332	76.241	965.332	68.2887	965.332	74.3418	965.332	71.9708	965.332	72.7674	965.332	74.6462	965.332	73.0017	965.332	75.197	965.332	74.6419	965.332	74.059	965.332	76.2012	965.332	71.0334	965.332	77.3182	965.332	66.8771	965.332	78.1919	965.332	71.4786	965.332	78.7936	965.332	75.8207	965.332	78.8372	965.332	77.9946
1,000.49	82.3612	1,000.49	81.979	1,000.49	82.2919	1,000.49	81.4974	1,000.49	81.4285	1,000.49	80.9667	1,000.49	79.7538	1,000.49	80.0151	1,000.49	77.9653	1,000.49	78.3107	1,000.49	77.2062	1,000.49	76.2896	1,000.49	77.2965	1,000.49	74.8371	1,000.49	76.8229	1,000.49	73.4646	1,000.49	74.9067	1,000.49	70.8468	1,000.49	71.2346	1,000.49	70.5582	1,000.49	64.3804	1,000.49	74.2884	1,000.49	61.3101	1,000.49	76.1	1,000.49	69.7035	1,000.49	75.4554	1,000.49	74.1913	1,000.49	72.8571	1,000.49	76.9915	1,000.49	67.4165	1,000.49	78.7458	1,000.49	56.1275	1,000.49	79.5512	1,000.49	71.6785	1,000.49	79.1288	1,000.49	76.9203
1,035.64	81.7852	1,035.64	81.0942	1,035.64	82.3799	1,035.64	80.8708	1,035.64	82.2878	1,035.64	81.0386	1,035.64	81.2871	1,035.64	80.9424	1,035.64	79.645	1,035.64	80.0818	1,035.64	78.1587	1,035.64	78.5434	1,035.64	77.6386	1,035.64	76.2964	1,035.64	77.7656	1,035.64	72.2909	1,035.64	77.5742	1,035.64	64.8763	1,035.64	76.5226	1,035.64	63.8003	1,035.64	74.6417	1,035.64	69.0423	1,035.64	71.8251	1,035.64	71.3539	1,035.64	67.597	1,035.64	73.6685	1,035.64	69.5735	1,035.64	74.9451	1,035.64	74.584	1,035.64	72.8577	1,035.64	77.5278	1,035.64	61.3432	1,035.64	79.0689	1,035.64	70.5812	1,035.64	79.1433	1,035.64	77.0356
1,072.27	82.4083	1,072.27	81.9257	1,072.27	82.673	1,072.27	81.3022	1,072.27	82.6194	1,072.27	80.5666	1,072.27	82.0897	1,072.27	79.6669	1,072.27	80.8879	1,072.27	78.948	1,072.27	78.9847	1,072.27	79.0185	1,072.27	77.381	1,072.27	78.9262	1,072.27	77.1297	1,072.27	77.6207	1,072.27	76.53	1,072.27	75.3875	1,072.27	73.9781	1,072.27	72.1756	1,072.27	68.9764	1,072.27	67.8051	1,072.27	67.0057	1,072.27	71.6509	1,072.27	69.8008	1,072.27	76.1818	1,072.27	72.4109	1,072.27	77.4516	1,072.27	74.9116	1,072.27	75.3367	1,072.27	76.573	1,072.27	66.8388	1,072.27	77.3234	1,072.27	67.964	1,072.27	77.1799	1,072.27	75.1525
1,108.89	82.4382	1,108.89	80.0722	1,108.89	83.6015	1,108.89	77.3899	1,108.89	83.3697	1,108.89	76.3159	1,108.89	81.8985	1,108.89	77.3026	1,108.89	79.6308	1,108.89	79.1099	1,108.89	77.0343	1,108.89	80.8214	1,108.89	74.4654	1,108.89	81.3428	1,108.89	73.2075	1,108.89	80.3697	1,108.89	73.5694	1,108.89	78.5613	1,108.89	73.4727	1,108.89	76.0859	1,108.89	70.3987	1,108.89	72.0837	1,108.89	59.0417	1,108.89	73.1251	1,108.89	68.7615	1,108.89	78.1243	1,108.89	71.594	1,108.89	80.2527	1,108.89	73.2664	1,108.89	79.2731	1,108.89	75.9243	1,108.89	74.2464	1,108.89	77.2067	1,108.89	59.4676	1,108.89	76.3507	1,108.89	72.3813
1,148.44	82.1367	1,148.44	80.4085	1,148.44	82.7734	1,148.44	77.6829	1,148.44	82.4327	1,148.44	74.7873	1,148.44	81.3814	1,148.44	74.0783	1,148.44	80.1532	1,148.44	76.1616	1,148.44	79.1794	1,148.44	78.6673	1,148.44	78.2384	1,148.44	80.1584	1,148.44	77.4226	1,148.44	80.4229	1,148.44	77.5579	1,148.44	79.5599	1,148.44	77.9276	1,148.44	77.4381	1,148.44	76.725	1,148.44	73.9817	1,148.44	72.0219	1,148.44	73.0735	1,148.44	53.9787	1,148.44	76.8203	1,148.44	69.0972	1,148.44	79.2063	1,148.44	73.7068	1,148.44	79.077	1,148.44	75.3143	1,148.44	75.6295	1,148.44	76.0232	1,148.44	62.9971	1,148.44	75.2843	1,148.44	70.1228
1,189.45	81.8394	1,189.45	80.0748	1,189.45	82.1722	1,189.45	77.7112	1,189.45	81.1975	1,189.45	75.2505	1,189.45	80.1646	1,189.45	71.9314	1,189.45	80.1545	1,189.45	73.2779	1,189.45	80.173	1,189.45	77.6467	1,189.45	79.4911	1,189.45	79.559	1,189.45	78.7201	1,189.45	79.8579	1,189.45	78.4724	1,189.45	79.6961	1,189.45	78.007	1,189.45	78.6015	1,189.45	75.9377	1,189.45	75.7032	1,189.45	70.7375	1,189.45	74.259	1,189.45	63.1949	1,189.45	77.8648	1,189.45	70.5503	1,189.45	80.2049	1,189.45	74.5219	1,189.45	79.6119	1,189.45	75.5898	1,189.45	75.3102	1,189.45	74.4705	1,189.45	65.0967	1,189.45	72.3238	1,189.45	68.9544
1,230.47	79.148	1,230.47	79.808	1,230.47	79.5826	1,230.47	80.7444	1,230.47	80.7389	1,230.47	80.3326	1,230.47	81.7215	1,230.47	78.0418	1,230.47	81.6711	1,230.47	74.0625	1,230.47	80.6068	1,230.47	71.3013	1,230.47	79.2198	1,230.47	73.7361	1,230.47	78.4399	1,230.47	76.0957	1,230.47	78.5854	1,230.47	76.7757	1,230.47	78.7496	1,230.47	74.1939	1,230.47	77.5593	1,230.47	64.7307	1,230.47	74.4356	1,230.47	66.8193	1,230.47	69.1159	1,230.47	74.8809	1,230.47	51.6238	1,230.47	78.1629	1,230.47	67.5072	1,230.47	78.6806	1,230.47	73.0876	1,230.47	76.4889	1,230.47	73.9666	1,230.47	70.4582	1,230.47	70.6707	1,230.47	56.5197
1,274.41	79.7345	1,274.41	80.0086	1,274.41	80.205	1,274.41	80.5021	1,274.41	80.881	1,274.41	80.2602	1,274.41	81.1908	1,274.41	78.929	1,274.41	80.9356	1,274.41	75.798	1,274.41	79.9717	1,274.41	69.3884	1,274.41	78.2053	1,274.41	69.9593	1,274.41	76.5254	1,274.41	73.5156	1,274.41	76.151	1,274.41	75.9007	1,274.41	76.3984	1,274.41	77.2137	1,274.41	75.8233	1,274.41	75.7277	1,274.41	73.4325	1,274.41	67.9814	1,274.41	68.1897	1,274.41	74.9168	1,274.41	64.7928	1,274.41	79.254	1,274.41	70.8563	1,274.41	79.1746	1,274.41	73.2124	1,274.41	76.2421	1,274.41	71.5798	1,274.41	71.8635	1,274.41	65.1611	1,274.41	67.034
1,319.82	80.5907	1,319.82	80.8108	1,319.82	80.4886	1,319.82	80.7596	1,319.82	80.1867	1,319.82	80.1769	1,319.82	79.5145	1,319.82	79.3414	1,319.82	79.0894	1,319.82	77.4997	1,319.82	78.6675	1,319.82	72.4355	1,319.82	76.8156	1,319.82	62.8754	1,319.82	73.4776	1,319.82	67.6156	1,319.82	74.0669	1,319.82	73.6888	1,319.82	76.5282	1,319.82	75.1904	1,319.82	76.6717	1,319.82	72.979	1,319.82	75.3877	1,319.82	63.6587	1,319.82	72.6982	1,319.82	68.0467	1,319.82	66.9559	1,319.82	75.9601	1,319.82	62.6115	1,319.82	78.3452	1,319.82	70.4598	1,319.82	77.9338	1,319.82	71.8758	1,319.82	74.7934	1,319.82	66.4783	1,319.82	65.6065
1,366.7	81.6642	1,366.7	82.3335	1,366.7	80.6664	1,366.7	81.6513	1,366.7	80.1147	1,366.7	79.8363	1,366.7	79.6277	1,366.7	78.4899	1,366.7	78.8054	1,366.7	77.6116	1,366.7	77.8905	1,366.7	76.0108	1,366.7	76.596	1,366.7	74.7931	1,366.7	74.4664	1,366.7	70.8903	1,366.7	72.796	1,366.7	70.7921	1,366.7	73.284	1,366.7	75.8237	1,366.7	73.4478	1,366.7	76.1526	1,366.7	71.5492	1,366.7	73.8076	1,366.7	68.5412	1,366.7	66.3965	1,366.7	63.7124	1,366.7	71.1442	1,366.7	55.9763	1,366.7	77.7412	1,366.7	62.5589	1,366.7	79.1427	1,366.7	64.1266	1,366.7	76.6239	1,366.7	59.1445	1,366.7	69.1673
1,413.57	81.8478	1,413.57	82.1146	1,413.57	80.9813	1,413.57	80.7574	1,413.57	80.6047	1,413.57	78.8872	1,413.57	80.416	1,413.57	78.2154	1,413.57	79.7164	1,413.57	76.5163	1,413.57	78.3376	1,413.57	75.0457	1,413.57	76.3688	1,413.57	76.2516	1,413.57	74.176	1,413.57	74.8884	1,413.57	72.4608	1,413.57	71.3143	1,413.57	72.8667	1,413.57	74.6403	1,413.57	73.7557	1,413.57	77.2717	1,413.57	73.0103	1,413.57	76.1528	1,413.57	70.5992	1,413.57	69.7735	1,413.57	67.9655	1,413.57	61.6164	1,413.57	63.636	1,413.57	74.2631	1,413.57	63.7455	1,413.57	77.0047	1,413.57	64.5901	1,413.57	75.4749	1,413.57	53.8094	1,413.57	68.8885
1,463.38	81.0067	1,463.38	80.2831	1,463.38	81.1189	1,463.38	78.8982	1,463.38	81.0795	1,463.38	78.5993	1,463.38	80.7364	1,463.38	78.1952	1,463.38	80.0037	1,463.38	76.0616	1,463.38	78.6256	1,463.38	74.8163	1,463.38	75.9958	1,463.38	74.7748	1,463.38	72.97	1,463.38	72.665	1,463.38	69.7664	1,463.38	65.9875	1,463.38	67.0856	1,463.38	69.732	1,463.38	70.985	1,463.38	75.3701	1,463.38	73.4231	1,463.38	75.9215	1,463.38	72.0288	1,463.38	72.3829	1,463.38	67.8415	1,463.38	59.7957	1,463.38	63.2685	1,463.38	70.5647	1,463.38	67.1718	1,463.38	75.5966	1,463.38	66.5323	1,463.38	74.7616	1,463.38	59.3476	1,463.38	68.4469
1,516.11	80.0796	1,516.11	78.5368	1,516.11	80.4032	1,516.11	77.7428	1,516.11	79.8982	1,516.11	78.6026	1,516.11	79.549	1,516.11	77.8253	1,516.11	79.149	1,516.11	76.1811	1,516.11	77.864	1,516.11	75.6093	1,516.11	76.3924	1,516.11	72.6167	1,516.11	75.272	1,516.11	67.6363	1,516.11	72.9037	1,516.11	64.6998	1,516.11	70.4341	1,516.11	57.9252	1,516.11	71.3205	1,516.11	65.558	1,516.11	72.5028	1,516.11	70.0942	1,516.11	71.4148	1,516.11	70.1541	1,516.11	67.9802	1,516.11	67.6046	1,516.11	68.3352	1,516.11	69.9266	1,516.11	67.023	1,516.11	73.3075	1,516.11	62.1578	1,516.11	72.7075	1,516.11	61.0919	1,516.11	67.9319
1,568.85	79.0845	1,568.85	77.6363	1,568.85	79.6581	1,568.85	77.1627	1,568.85	79.2166	1,568.85	77.1957	1,568.85	78.973	1,568.85	76.7174	1,568.85	78.8018	1,568.85	77.1109	1,568.85	77.9884	1,568.85	76.9314	1,568.85	76.9533	1,568.85	74.1952	1,568.85	75.4923	1,568.85	72.7021	1,568.85	74.9065	1,568.85	72.3645	1,568.85	74.7357	1,568.85	69.6597	1,568.85	74.3494	1,568.85	67.3405	1,568.85	73.7036	1,568.85	69.0565	1,568.85	71.3729	1,568.85	68.088	1,568.85	60.6373	1,568.85	66.3737	1,568.85	67.7921	1,568.85	71.1323	1,568.85	69.4543	1,568.85	73.3954	1,568.85	64.0825	1,568.85	71.2547	1,568.85	59.2842	1,568.85	64.4801
1,624.51	78.5924	1,624.51	76.1276	1,624.51	79.9972	1,624.51	75.2668	1,624.51	79.3743	1,624.51	76.3137	1,624.51	77.3223	1,624.51	76.8066	1,624.51	75.9969	1,624.51	76.8423	1,624.51	76.6967	1,624.51	75.0518	1,624.51	76.4847	1,624.51	70.9008	1,624.51	74.5487	1,624.51	68.1473	1,624.51	72.8684	1,624.51	64.166	1,624.51	72.052	1,624.51	64.6307	1,624.51	70.5117	1,624.51	70.2086	1,624.51	69.9932	1,624.51	71.6591	1,624.51	69.8802	1,624.51	66.3927	1,624.51	62.8998	1,624.51	63.8011	1,624.51	62.348	1,624.51	70.2654	1,624.51	67.2909	1,624.51	72.0937	1,624.51	64.8274	1,624.51	69.5348	1,624.51	61.0865	1,624.51	61.8662
1,681.64	78.1528	1,681.64	76.9368	1,681.64	79.3336	1,681.64	76.5233	1,681.64	78.8935	1,681.64	74.6356	1,681.64	77.5544	1,681.64	73.4849	1,681.64	77.1118	1,681.64	75.5724	1,681.64	77.1382	1,681.64	76.0309	1,681.64	75.4862	1,681.64	74.0418	1,681.64	71.5744	1,681.64	72.7251	1,681.64	69.6001	1,681.64	70.4656	1,681.64	70.3913	1,681.64	68.0225	1,681.64	70.7224	1,681.64	69.8269	1,681.64	72.0607	1,681.64	73.1916	1,681.64	71.0716	1,681.64	71.2102	1,681.64	62.3795	1,681.64	62.0524	1,681.64	64.1343	1,681.64	71.2748	1,681.64	68.4026	1,681.64	73.8537	1,681.64	65.0755	1,681.64	70.6013	1,681.64	61.377	1,681.64	53.0309
1,741.7	78.076	1,741.7	76.7351	1,741.7	80.0015	1,741.7	75.9558	1,741.7	79.2763	1,741.7	75.15	1,741.7	76.2736	1,741.7	76.414	1,741.7	75.4243	1,741.7	75.3995	1,741.7	76.0445	1,741.7	70.9218	1,741.7	75.316	1,741.7	73.2665	1,741.7	73.3374	1,741.7	75.0213	1,741.7	67.9059	1,741.7	71.139	1,741.7	65.7998	1,741.7	69.7429	1,741.7	68.7571	1,741.7	72.368	1,741.7	69.617	1,741.7	73.7205	1,741.7	71.1319	1,741.7	72.5657	1,741.7	65.0449	1,741.7	60.5322	1,741.7	62.5044	1,741.7	71.5397	1,741.7	64.9587	1,741.7	75.452	1,741.7	60.9316	1,741.7	72.1478	1,741.7	51.8938	1,741.7	62.9335
1,803.22	78.8254	1,803.22	79.5694	1,803.22	79.7193	1,803.22	78.9504	1,803.22	80.2498	1,803.22	77.1629	1,803.22	79.8232	1,803.22	76.4421	1,803.22	78.7264	1,803.22	75.9955	1,803.22	77.1739	1,803.22	74.1304	1,803.22	73.9921	1,803.22	72.7741	1,803.22	70.6033	1,803.22	74.6551	1,803.22	66.8717	1,803.22	74.5461	1,803.22	65.9028	1,803.22	71.1672	1,803.22	66.2311	1,803.22	69.4838	1,803.22	70.1785	1,803.22	74.7556	1,803.22	71.5662	1,803.22	75.9579	1,803.22	67.9454	1,803.22	70.9247	1,803.22	63.8024	1,803.22	65.1571	1,803.22	47.419	1,803.22	75.062	1,803.22	64.1512	1,803.22	75.6458	1,803.22	58.9281	1,803.22	70.7578
1,866.21	81.8032	1,866.21	82.0821	1,866.21	81.1818	1,866.21	80.8554	1,866.21	81.0887	1,866.21	80.2623	1,866.21	81.2933	1,866.21	80.8666	1,866.21	80.6592	1,866.21	80.8141	1,866.21	78.4424	1,866.21	79.3185	1,866.21	76.0121	1,866.21	76.1343	1,866.21	74.4649	1,866.21	72.258	1,866.21	72.3148	1,866.21	67.6924	1,866.21	71.4075	1,866.21	67.7201	1,866.21	72.281	1,866.21	67.4536	1,866.21	70.7638	1,866.21	73.5879	1,866.21	69.6601	1,866.21	75.2718	1,866.21	69.3817	1,866.21	73.8762	1,866.21	67.3065	1,866.21	68.2648	1,866.21	58.3175	1,866.21	71.8738	1,866.21	56.9417	1,866.21	76.6273	1,866.21	57.3063	1,866.21	73.1128
1,932.13	81.3646	1,932.13	81.9734	1,932.13	81.4676	1,932.13	81.7572	1,932.13	82.6335	1,932.13	81.5478	1,932.13	82.4982	1,932.13	81.0108	1,932.13	80.1143	1,932.13	79.6372	1,932.13	78.6044	1,932.13	78.9556	1,932.13	78.7031	1,932.13	77.3614	1,932.13	77.0703	1,932.13	75.9415	1,932.13	75.2031	1,932.13	75.4409	1,932.13	72.7551	1,932.13	73.4599	1,932.13	72.8028	1,932.13	66.8043	1,932.13	72.4027	1,932.13	58.8752	1,932.13	67.533	1,932.13	72.9357	1,932.13	72.5469	1,932.13	73.2776	1,932.13	72.0588	1,932.13	70.774	1,932.13	65.4909	1,932.13	71.4917	1,932.13	68.5161	1,932.13	74.6839	1,932.13	65.624	1,932.13	72.902
1,999.51	81.388	1,999.51	81.7223	1,999.51	82.09	1,999.51	82.7839	1,999.51	82.3263	1,999.51	81.5788	1,999.51	82.2136	1,999.51	80.7451	1,999.51	81.0363	1,999.51	80.76	1,999.51	79.5298	1,999.51	77.8437	1,999.51	77.3126	1,999.51	77.8575	1,999.51	74.7468	1,999.51	76.4181	1,999.51	72.5254	1,999.51	72.0011	1,999.51	69.19	1,999.51	72.1942	1,999.51	68.9196	1,999.51	69.9324	1,999.51	71.1297	1,999.51	66.0233	1,999.51	71.4202	1,999.51	73.0873	1,999.51	71.2367	1,999.51	72.2013	1,999.51	67.5844	1,999.51	67.3517	1,999.51	65.0626	1,999.51	73.2046	1,999.51	66.2183	1,999.51	73.5167	1,999.51	64.3932	1,999.51	68.7536
2,069.82	81.629	2,069.82	82.3786	2,069.82	81.8433	2,069.82	81.469	2,069.82	81.7468	2,069.82	79.9536	2,069.82	81.1238	2,069.82	81.1454	2,069.82	80.6136	2,069.82	79.5337	2,069.82	80.376	2,069.82	77.8815	2,069.82	78.3903	2,069.82	76.2625	2,069.82	75.3853	2,069.82	71.2625	2,069.82	72.2577	2,069.82	72.4388	2,069.82	67.5019	2,069.82	68.5699	2,069.82	71.4907	2,069.82	68.699	2,069.82	71.8932	2,069.82	69.5341	2,069.82	69.7305	2,069.82	71.1348	2,069.82	67.6486	2,069.82	71.3626	2,069.82	65.6777	2,069.82	65.6015	2,069.82	66.3171	2,069.82	72.2123	2,069.82	67.7365	2,069.82	72.0849	2,069.82	62.0846	2,069.82	64.6856
2,143.07	82.304	2,143.07	82.3203	2,143.07	82.2427	2,143.07	80.6805	2,143.07	81.9899	2,143.07	80.4345	2,143.07	80.8085	2,143.07	80.6512	2,143.07	80.1936	2,143.07	78.8986	2,143.07	79.9226	2,143.07	76.612	2,143.07	78.0075	2,143.07	74.5783	2,143.07	76.5081	2,143.07	73.9632	2,143.07	76.0948	2,143.07	72.1765	2,143.07	71.5036	2,143.07	71.5571	2,143.07	71.0088	2,143.07	67.2738	2,143.07	71.6128	2,143.07	69.6007	2,143.07	65.3822	2,143.07	72.8895	2,143.07	59.7295	2,143.07	71.2216	2,143.07	59.1238	2,143.07	63.6959	2,143.07	66.3388	2,143.07	72.6899	2,143.07	68.528	2,143.07	73.7415	2,143.07	55.4292	2,143.07	68.72
2,219.24	81.701	2,219.24	81.7063	2,219.24	81.7182	2,219.24	81.4497	2,219.24	82.3817	2,219.24	81.2398	2,219.24	81.2394	2,219.24	79.2787	2,219.24	79.7878	2,219.24	77.3802	2,219.24	79.1471	2,219.24	76.4846	2,219.24	76.0722	2,219.24	73.9125	2,219.24	75.9995	2,219.24	69.7355	2,219.24	75.6097	2,219.24	69.2907	2,219.24	70.0715	2,219.24	70.5899	2,219.24	69.3543	2,219.24	66.217	2,219.24	71.5614	2,219.24	65.0578	2,219.24	65.6162	2,219.24	72.5706	2,219.24	58.4146	2,219.24	71.4125	2,219.24	43.1661	2,219.24	61.3155	2,219.24	64.2075	2,219.24	72.2607	2,219.24	67.0343	2,219.24	73.4589	2,219.24	51.7924	2,219.24	67.964
2,296.88	80.8887	2,296.88	81.3639	2,296.88	80.7272	2,296.88	81.9679	2,296.88	81.5349	2,296.88	80.9057	2,296.88	81.2787	2,296.88	77.2508	2,296.88	79.9731	2,296.88	76.4851	2,296.88	78.5164	2,296.88	77.3884	2,296.88	75.2761	2,296.88	76.7103	2,296.88	72.0493	2,296.88	74.9809	2,296.88	72.2871	2,296.88	71.5642	2,296.88	70.737	2,296.88	71.4325	2,296.88	69.7513	2,296.88	69.6531	2,296.88	71.3171	2,296.88	59.6976	2,296.88	69.9392	2,296.88	73.4944	2,296.88	64.5257	2,296.88	74.2639	2,296.88	50.2567	2,296.88	61.2798	2,296.88	63.9051	2,296.88	71.8007	2,296.88	64.6301	2,296.88	73.5689	2,296.88	53.7001	2,296.88	68.4413
2,378.91	79.8901	2,378.91	80.5762	2,378.91	79.455	2,378.91	81.4797	2,378.91	79.9958	2,378.91	80.2002	2,378.91	80.7392	2,378.91	79.2417	2,378.91	80.1949	2,378.91	77.2328	2,378.91	78.7492	2,378.91	76.6126	2,378.91	75.4349	2,378.91	77.9053	2,378.91	71.156	2,378.91	73.624	2,378.91	73.047	2,378.91	67.3608	2,378.91	71.4837	2,378.91	68.1796	2,378.91	71.5649	2,378.91	72.9855	2,378.91	72.9091	2,378.91	66.9137	2,378.91	71.9287	2,378.91	73.5979	2,378.91	70.1357	2,378.91	77.2615	2,378.91	60.9914	2,378.91	65.5968	2,378.91	62.3045	2,378.91	72.3273	2,378.91	66.7788	2,378.91	75.7818	2,378.91	57.3147	2,378.91	72.0726
2,462.4	81.3794	2,462.4	82.3582	2,462.4	80.1163	2,462.4	81.1018	2,462.4	78.8822	2,462.4	80.3014	2,462.4	79.3372	2,462.4	80.8268	2,462.4	79.9459	2,462.4	78.7877	2,462.4	78.9515	2,462.4	73.8408	2,462.4	77.3599	2,462.4	72.5209	2,462.4	72.4066	2,462.4	75.8831	2,462.4	65.847	2,462.4	71.9409	2,462.4	65.4846	2,462.4	63.4612	2,462.4	69.6283	2,462.4	72.4428	2,462.4	74.0273	2,462.4	71.4739	2,462.4	72.4976	2,462.4	69.1144	2,462.4	70.7132	2,462.4	77.2519	2,462.4	63.1226	2,462.4	71.7473	2,462.4	61.6343	2,462.4	69.9131	2,462.4	68.0653	2,462.4	77.3704	2,462.4	65.9674	2,462.4	74.5012
2,548.83	82.2407	2,548.83	82.6331	2,548.83	81.0666	2,548.83	81.0321	2,548.83	80.005	2,548.83	80.4376	2,548.83	78.3572	2,548.83	79.8609	2,548.83	78.0125	2,548.83	78.3535	2,548.83	77.3418	2,548.83	75.3578	2,548.83	76.1965	2,548.83	70.1428	2,548.83	72.5025	2,548.83	69.6976	2,548.83	70.7854	2,548.83	73.2178	2,548.83	69.6242	2,548.83	64.1327	2,548.83	62.4316	2,548.83	71.0095	2,548.83	72.6514	2,548.83	74.1763	2,548.83	72.8049	2,548.83	63.7361	2,548.83	70.2775	2,548.83	75.6064	2,548.83	66.2348	2,548.83	75.3122	2,548.83	67.5823	2,548.83	64.5036	2,548.83	70.2434	2,548.83	77.8574	2,548.83	70.3824	2,548.83	77.0578
2,639.65	81.8953	2,639.65	82.1148	2,639.65	80.7578	2,639.65	81.7472	2,639.65	79.8828	2,639.65	80.9474	2,639.65	79.4427	2,639.65	78.883	2,639.65	78.97	2,639.65	78.4473	2,639.65	76.3078	2,639.65	77.0897	2,639.65	74.9256	2,639.65	75.8524	2,639.65	75.5116	2,639.65	73.3629	2,639.65	72.0089	2,639.65	73.0563	2,639.65	70.2555	2,639.65	70.1819	2,639.65	60.482	2,639.65	61.3811	2,639.65	65.2892	2,639.65	74.1321	2,639.65	70.3401	2,639.65	68.9371	2,639.65	70.3228	2,639.65	70.8727	2,639.65	69.328	2,639.65	75.0259	2,639.65	66.7991	2,639.65	56.8576	2,639.65	67.2408	2,639.65	74.8404	2,639.65	69.1258	2,639.65	75.6021
2,731.93	80.3743	2,731.93	80.6124	2,731.93	79.4299	2,731.93	81.2947	2,731.93	78.8686	2,731.93	80.3077	2,731.93	79.4444	2,731.93	78.3485	2,731.93	79.1835	2,731.93	77.6409	2,731.93	77.4812	2,731.93	76.5897	2,731.93	76.3858	2,731.93	75.0565	2,731.93	73.4856	2,731.93	70.5719	2,731.93	71.8056	2,731.93	68.9808	2,731.93	70.3749	2,731.93	67.9457	2,731.93	61.8612	2,731.93	61.9255	2,731.93	51.6637	2,731.93	69.8729	2,731.93	68.3049	2,731.93	70.101	2,731.93	69.056	2,731.93	66.8434	2,731.93	69.32	2,731.93	73.8113	2,731.93	63.7935	2,731.93	64.4171	2,731.93	64.0847	2,731.93	70.1474	2,731.93	64.9509	2,731.93	72.2168
2,828.61	80.7239	2,828.61	81.2578	2,828.61	79.5038	2,828.61	80.6605	2,828.61	77.7075	2,828.61	79.0701	2,828.61	79.0086	2,828.61	78.9179	2,828.61	79.4089	2,828.61	77.1063	2,828.61	77.7825	2,828.61	76.8706	2,828.61	76.3969	2,828.61	75.0821	2,828.61	73.8694	2,828.61	70.2471	2,828.61	73.4853	2,828.61	69.7111	2,828.61	68.2731	2,828.61	70.1538	2,828.61	67.8895	2,828.61	64.9793	2,828.61	64.6434	2,828.61	69.8792	2,828.61	71.1712	2,828.61	70.558	2,828.61	67.1579	2,828.61	66.6382	2,828.61	66.8365	2,828.61	72.8738	2,828.61	61.5054	2,828.61	64.4226	2,828.61	61.6891	2,828.61	69.5557	2,828.61	65.788	2,828.61	71.7607
2,928.22	81.0676	2,928.22	82.0609	2,928.22	79.6932	2,928.22	80.7745	2,928.22	79.3357	2,928.22	80.0275	2,928.22	78.8766	2,928.22	79.9432	2,928.22	78.9204	2,928.22	78.6025	2,928.22	78.5722	2,928.22	76.5313	2,928.22	76.4507	2,928.22	74.0928	2,928.22	73.6204	2,928.22	73.3308	2,928.22	69.0356	2,928.22	72.528	2,928.22	60.8063	2,928.22	69.4694	2,928.22	71.1154	2,928.22	59.7021	2,928.22	71.4101	2,928.22	67.6237	2,928.22	69.319	2,928.22	71.1512	2,928.22	69.11	2,928.22	61.3975	2,928.22	61.852	2,928.22	73.7053	2,928.22	63.856	2,928.22	66.5973	2,928.22	60.9737	2,928.22	70.9872	2,928.22	67.4589	2,928.22	73.7734
3,030.76	81.8675	3,030.76	81.9585	3,030.76	80.4424	3,030.76	80.5337	3,030.76	80.2039	3,030.76	79.5487	3,030.76	79.4049	3,030.76	79.8924	3,030.76	79.91	3,030.76	79.3954	3,030.76	79.4717	3,030.76	75.5688	3,030.76	75.8711	3,030.76	74.4161	3,030.76	74.8465	3,030.76	72.2716	3,030.76	68.0948	3,030.76	64.7845	3,030.76	69.766	3,030.76	65.6869	3,030.76	73.7381	3,030.76	67.0922	3,030.76	71.4073	3,030.76	59.8971	3,030.76	69.6296	3,030.76	70.6864	3,030.76	68.8772	3,030.76	63.7795	3,030.76	64.1993	3,030.76	71.2153	3,030.76	64.2785	3,030.76	68.8104	3,030.76	61.002	3,030.76	67.5814	3,030.76	67.7776	3,030.76	73.5275
3,137.7	82.2143	3,137.7	81.6153	3,137.7	80.394	3,137.7	80.5304	3,137.7	79.7793	3,137.7	80.0147	3,137.7	80.0775	3,137.7	80.2812	3,137.7	80.8578	3,137.7	77.5146	3,137.7	80.0173	3,137.7	76.1439	3,137.7	76.0143	3,137.7	73.5629	3,137.7	74.5817	3,137.7	66.3015	3,137.7	70.8998	3,137.7	66.8798	3,137.7	72.3661	3,137.7	65.6757	3,137.7	73.3317	3,137.7	67.164	3,137.7	67.5352	3,137.7	62.6305	3,137.7	64.3701	3,137.7	69.0566	3,137.7	66.0859	3,137.7	66.192	3,137.7	65.0366	3,137.7	69.2453	3,137.7	62.3442	3,137.7	69.4665	3,137.7	57.9892	3,137.7	66.5875	3,137.7	66.6806	3,137.7	71.8314
3,249.02	81.6921	3,249.02	80.6745	3,249.02	80.6658	3,249.02	79.5671	3,249.02	79.6808	3,249.02	81.5758	3,249.02	80.9093	3,249.02	80.5312	3,249.02	81.1144	3,249.02	78.6396	3,249.02	80.0279	3,249.02	74.5497	3,249.02	78.5446	3,249.02	69.7581	3,249.02	77.5531	3,249.02	72.502	3,249.02	76.1202	3,249.02	71.6425	3,249.02	73.0205	3,249.02	63.2451	3,249.02	69.7846	3,249.02	66.6039	3,249.02	63.8245	3,249.02	46.6571	3,249.02	65.9649	3,249.02	70.1054	3,249.02	63.2574	3,249.02	64.8869	3,249.02	61.7775	3,249.02	70.8437	3,249.02	56.4011	3,249.02	66.9121	3,249.02	63.0986	3,249.02	67.3276	3,249.02	65.1413	3,249.02	72.6123
3,363.28	81.3122	3,363.28	79.5228	3,363.28	81.4133	3,363.28	80.2571	3,363.28	79.252	3,363.28	81.3995	3,363.28	81.0777	3,363.28	79.8277	3,363.28	81.1889	3,363.28	76.4196	3,363.28	79.5875	3,363.28	74.508	3,363.28	80.2043	3,363.28	74.3811	3,363.28	79.0807	3,363.28	72.8064	3,363.28	76.9327	3,363.28	67.5518	3,363.28	73.3065	3,363.28	63.343	3,363.28	67.4391	3,363.28	67.227	3,363.28	61.2874	3,363.28	64.2892	3,363.28	70.2074	3,363.28	68.4989	3,363.28	64.9072	3,363.28	67.7923	3,363.28	64.9958	3,363.28	69.974	3,363.28	59.3045	3,363.28	69.8961	3,363.28	65.7555	3,363.28	62.2252	3,363.28	66.6949	3,363.28	70.9517
3,481.93	81.478	3,481.93	81.0062	3,481.93	81.8399	3,481.93	82.2027	3,481.93	80.4416	3,481.93	81.0358	3,481.93	80.5513	3,481.93	79.2636	3,481.93	81.2995	3,481.93	78.0588	3,481.93	79.6892	3,481.93	76.6384	3,481.93	80.4387	3,481.93	76.6761	3,481.93	78.8503	3,481.93	71.0731	3,481.93	77.4499	3,481.93	71.8124	3,481.93	70.7001	3,481.93	69.795	3,481.93	57.745	3,481.93	63.6324	3,481.93	67.4236	3,481.93	67.7966	3,481.93	69.8744	3,481.93	63.5783	3,481.93	65.2004	3,481.93	70.4948	3,481.93	65.5603	3,481.93	68.6233	3,481.93	61.6983	3,481.93	70.5416	3,481.93	65.7683	3,481.93	65.1491	3,481.93	68.2734	3,481.93	69.5192
3,604.98	80.9462	3,604.98	81.747	3,604.98	81.2653	3,604.98	82.9301	3,604.98	81.0558	3,604.98	81.5187	3,604.98	80.9922	3,604.98	79.8775	3,604.98	81.2484	3,604.98	78.47	3,604.98	80.7433	3,604.98	78.0671	3,604.98	81.2178	3,604.98	73.7096	3,604.98	77.9915	3,604.98	74.1223	3,604.98	76.159	3,604.98	71.3437	3,604.98	62.9479	3,604.98	67.8019	3,604.98	63.1119	3,604.98	63.6882	3,604.98	67.3432	3,604.98	64.4129	3,604.98	66.2469	3,604.98	62.9596	3,604.98	64.1186	3,604.98	69.3651	3,604.98	63.7027	3,604.98	68.562	3,604.98	62.4992	3,604.98	69.6659	3,604.98	64.5361	3,604.98	68.0672	3,604.98	64.5921	3,604.98	68.7585
3,732.42	81.0384	3,732.42	81.7105	3,732.42	81.3585	3,732.42	82.2692	3,732.42	80.1574	3,732.42	81.2237	3,732.42	80.5945	3,732.42	79.6348	3,732.42	81.0601	3,732.42	78.822	3,732.42	80.9524	3,732.42	77.8219	3,732.42	80.8907	3,732.42	74.3756	3,732.42	76.1413	3,732.42	73.6673	3,732.42	68.5102	3,732.42	66.0382	3,732.42	65.6671	3,732.42	68.0392	3,732.42	66.2635	3,732.42	63.7176	3,732.42	62.9629	3,732.42	67.0183	3,732.42	47.86	3,732.42	62.806	3,732.42	67.5741	3,732.42	69.2826	3,732.42	58.4681	3,732.42	69.2148	3,732.42	63.2312	3,732.42	70.1611	3,732.42	63.306	3,732.42	69.8635	3,732.42	64.4213	3,732.42	68.1691
3,864.26	80.9101	3,864.26	81.1924	3,864.26	82.3066	3,864.26	81.625	3,864.26	81.5113	3,864.26	80.0077	3,864.26	79.2334	3,864.26	80.8886	3,864.26	80.6975	3,864.26	79.8499	3,864.26	81.4625	3,864.26	76.944	3,864.26	79.1504	3,864.26	75.1281	3,864.26	76.1955	3,864.26	71.6964	3,864.26	70.1941	3,864.26	67.7095	3,864.26	69.2545	3,864.26	65.3502	3,864.26	66.0306	3,864.26	63.9383	3,864.26	59.1439	3,864.26	62.5559	3,864.26	65.0317	3,864.26	63.7587	3,864.26	66.4454	3,864.26	68.5878	3,864.26	60.9352	3,864.26	68.853	3,864.26	63.7546	3,864.26	69.2509	3,864.26	63.3859	3,864.26	68.9883	3,864.26	64.8993	3,864.26	67.2763
4,000.49	79.9558	4,000.49	81.3192	4,000.49	81.123	4,000.49	81.6371	4,000.49	81.9761	4,000.49	81.1788	4,000.49	79.2757	4,000.49	80.973	4,000.49	78.8402	4,000.49	78.1149	4,000.49	81.9905	4,000.49	76.7441	4,000.49	79.6831	4,000.49	72.0432	4,000.49	75.7837	4,000.49	70.6742	4,000.49	70.8973	4,000.49	69.7475	4,000.49	60.811	4,000.49	66.3575	4,000.49	56.4994	4,000.49	63.8107	4,000.49	63.7679	4,000.49	61.4054	4,000.49	63.5122	4,000.49	64.0165	4,000.49	64.3335	4,000.49	66.1935	4,000.49	61.4924	4,000.49	68.42	4,000.49	64.9722	4,000.49	67.6161	4,000.49	63.1492	4,000.49	67.4281	4,000.49	61.6029	4,000.49	67.1605
4,141.11	80.8637	4,141.11	82.1353	4,141.11	80.931	4,141.11	81.3428	4,141.11	81.2511	4,141.11	81.4373	4,141.11	79.9221	4,141.11	80.2213	4,141.11	78.6622	4,141.11	78.8957	4,141.11	82.2781	4,141.11	76.7646	4,141.11	79.653	4,141.11	73.3742	4,141.11	74.1145	4,141.11	74.8386	4,141.11	69.4445	4,141.11	67.439	4,141.11	69.1352	4,141.11	66.1058	4,141.11	63.3155	4,141.11	61.448	4,141.11	60.2446	4,141.11	66.2359	4,141.11	61.6571	4,141.11	58.7933	4,141.11	55.12	4,141.11	68.326	4,141.11	55.744	4,141.11	68.5527	4,141.11	63.9862	4,141.11	68.9238	4,141.11	61.5493	4,141.11	67.9453	4,141.11	55.9113	4,141.11	65.4786
4,287.6	80.8477	4,287.6	82.6558	4,287.6	81.0518	4,287.6	80.9153	4,287.6	81.3511	4,287.6	79.9145	4,287.6	80.0084	4,287.6	80.5189	4,287.6	80.1894	4,287.6	77.8476	4,287.6	83.0177	4,287.6	75.7793	4,287.6	78.6096	4,287.6	75.6232	4,287.6	72.9027	4,287.6	69.0369	4,287.6	72.8234	4,287.6	70.5439	4,287.6	71.4543	4,287.6	64.0406	4,287.6	61.0005	4,287.6	64.5071	4,287.6	57.1331	4,287.6	60.9241	4,287.6	63.7865	4,287.6	63.4833	4,287.6	65.5788	4,287.6	69.8527	4,287.6	41.8961	4,287.6	63.9717	4,287.6	56.8947	4,287.6	70.7018	4,287.6	58.5697	4,287.6	67.6068	4,287.6	50.3705	4,287.6	65.6141
4,438.48	80.6708	4,438.48	81.15	4,438.48	81.1421	4,438.48	80.3806	4,438.48	82.8853	4,438.48	81.804	4,438.48	79.4823	4,438.48	80.6706	4,438.48	80.7836	4,438.48	78.2223	4,438.48	82.3978	4,438.48	76.7533	4,438.48	75.1913	4,438.48	72.4479	4,438.48	74.6789	4,438.48	73.2721	4,438.48	75.68	4,438.48	70.6751	4,438.48	71.0017	4,438.48	65.7589	4,438.48	61.2525	4,438.48	67.9062	4,438.48	67.0702	4,438.48	54.336	4,438.48	66.1461	4,438.48	67.6113	4,438.48	64.7865	4,438.48	66.7369	4,438.48	62.889	4,438.48	65.669	4,438.48	51.4527	4,438.48	70.9637	4,438.48	64.9187	4,438.48	63.6581	4,438.48	54.8092	4,438.48	66.5228
4,595.21	81.9355	4,595.21	78.8628	4,595.21	80.8446	4,595.21	80.7519	4,595.21	82.915	4,595.21	80.8237	4,595.21	80.7497	4,595.21	79.3406	4,595.21	81.2617	4,595.21	78.6871	4,595.21	80.2756	4,595.21	76.25	4,595.21	74.939	4,595.21	74.8731	4,595.21	77.1271	4,595.21	73.6405	4,595.21	76.0208	4,595.21	62.7555	4,595.21	69.1792	4,595.21	67.1871	4,595.21	62.7063	4,595.21	48.797	4,595.21	66.0695	4,595.21	60.2109	4,595.21	61.5237	4,595.21	64.9444	4,595.21	61.3066	4,595.21	62.5948	4,595.21	64.5252	4,595.21	68.8323	4,595.21	41.0431	4,595.21	69.0109	4,595.21	65.9468	4,595.21	60.979	4,595.21	55.0022	4,595.21	66.4128
4,756.35	82.0485	4,756.35	81.9	4,756.35	80.7028	4,756.35	82.2549	4,756.35	82.2292	4,756.35	80.0034	4,756.35	81.7542	4,756.35	80.6869	4,756.35	80.5363	4,756.35	78.6794	4,756.35	75.8626	4,756.35	75.976	4,756.35	78.6054	4,756.35	72.6496	4,756.35	78.82	4,756.35	68.1484	4,756.35	74.2869	4,756.35	68.8865	4,756.35	67.6951	4,756.35	64.3845	4,756.35	60.6364	4,756.35	60.0572	4,756.35	55.2908	4,756.35	64.4984	4,756.35	43.2178	4,756.35	61.3613	4,756.35	60.003	4,756.35	61.4996	4,756.35	62.069	4,756.35	69.2899	4,756.35	51.7131	4,756.35	68.8262	4,756.35	62.5494	4,756.35	63.9276	4,756.35	56.2701	4,756.35	65.5594
4,924.8	81.087	4,924.8	80.9739	4,924.8	81.4914	4,924.8	80.2187	4,924.8	81.1004	4,924.8	80.6166	4,924.8	81.2519	4,924.8	80.0384	4,924.8	80.1578	4,924.8	77.3204	4,924.8	75.0192	4,924.8	74.8951	4,924.8	80.8632	4,924.8	72.81	4,924.8	78.0978	4,924.8	72.7063	4,924.8	73.2143	4,924.8	65.4004	4,924.8	63.8062	4,924.8	64.1732	4,924.8	62.3566	4,924.8	57.7761	4,924.8	61.6407	4,924.8	63.2505	4,924.8	59.8651	4,924.8	57.264	4,924.8	61.8306	4,924.8	60.1368	4,924.8	58.7047	4,924.8	68.9041	4,924.8	43.9574	4,924.8	66.7487	4,924.8	60.1587	4,924.8	60.9702	4,924.8	58.6014	4,924.8	66.7568
5,097.66	80.611	5,097.66	79.8389	5,097.66	81.6203	5,097.66	79.4161	5,097.66	81.8967	5,097.66	80.7249	5,097.66	81.107	5,097.66	78.4409	5,097.66	77.2564	5,097.66	77.9105	5,097.66	76.7852	5,097.66	74.7166	5,097.66	80.2974	5,097.66	73.7219	5,097.66	75.3713	5,097.66	66.0598	5,097.66	70.8537	5,097.66	68.7406	5,097.66	63.5191	5,097.66	60.1449	5,097.66	53.6417	5,097.66	62.1817	5,097.66	58.1978	5,097.66	61.8345	5,097.66	63.4961	5,097.66	50.3799	5,097.66	62.1711	5,097.66	61.8575	5,097.66	62.86	5,097.66	68.5139	5,097.66	48.9987	5,097.66	66.8243	5,097.66	62.2481	5,097.66	56.4433	5,097.66	56.7964	5,097.66	66.0451
5,277.83	81.7579	5,277.83	81.0602	5,277.83	81.3336	5,277.83	81.093	5,277.83	81.2391	5,277.83	79.4461	5,277.83	80.7843	5,277.83	79.9869	5,277.83	75.5213	5,277.83	76.8353	5,277.83	78.6261	5,277.83	75.0206	5,277.83	79.0109	5,277.83	70.4162	5,277.83	72.0557	5,277.83	71.5302	5,277.83	68.0415	5,277.83	65.2946	5,277.83	64.6823	5,277.83	61.8194	5,277.83	59.7754	5,277.83	59.613	5,277.83	53.9327	5,277.83	45.6514	5,277.83	59.1632	5,277.83	57.2829	5,277.83	58.9959	5,277.83	63.0996	5,277.83	61.532	5,277.83	66.5423	5,277.83	52.965	5,277.83	64.8764	5,277.83	62.4754	5,277.83	62.4605	5,277.83	55.3733	5,277.83	62.4734
5,463.87	81.9098	5,463.87	81.3777	5,463.87	82.1767	5,463.87	80.6041	5,463.87	79.333	5,463.87	79.863	5,463.87	81.1835	5,463.87	78.8482	5,463.87	75.1092	5,463.87	77.4726	5,463.87	79.6354	5,463.87	74.1608	5,463.87	76.1261	5,463.87	72.296	5,463.87	71.7834	5,463.87	66.3416	5,463.87	67.9087	5,463.87	65.6546	5,463.87	67.7476	5,463.87	62.5033	5,463.87	60.5801	5,463.87	57.4351	5,463.87	39.619	5,463.87	54.0967	5,463.87	44.6627	5,463.87	59.2533	5,463.87	61.4779	5,463.87	61.0346	5,463.87	57.0833	5,463.87	65.032	5,463.87	58.2452	5,463.87	62.9777	5,463.87	55.5974	5,463.87	64.5537	5,463.87	55.6547	5,463.87	62.9628
5,657.23	81.3771	5,657.23	80.1617	5,657.23	81.6748	5,657.23	80.1931	5,657.23	80.2517	5,657.23	79.9555	5,657.23	79.6385	5,657.23	79.4752	5,657.23	78.6524	5,657.23	76.7778	5,657.23	77.4825	5,657.23	73.5209	5,657.23	73.7476	5,657.23	70.1315	5,657.23	72.3316	5,657.23	68.8965	5,657.23	68.2149	5,657.23	62.5064	5,657.23	66.1113	5,657.23	60.9991	5,657.23	56.7709	5,657.23	48.3675	5,657.23	50.7436	5,657.23	56.0372	5,657.23	49.6783	5,657.23	53.4805	5,657.23	62.1072	5,657.23	59.7205	5,657.23	57.6692	5,657.23	62.4969	5,657.23	57.4071	5,657.23	60.9478	5,657.23	51.9953	5,657.23	61.048	5,657.23	60.7337	5,657.23	61.705
5,856.45	80.9279	5,856.45	80.722	5,856.45	81.0107	5,856.45	80.2831	5,856.45	81.6268	5,856.45	78.8326	5,856.45	79.2216	5,856.45	78.9081	5,856.45	78.4259	5,856.45	76.2832	5,856.45	76.046	5,856.45	72.6224	5,856.45	74.1702	5,856.45	71.1515	5,856.45	70.6795	5,856.45	64.6996	5,856.45	69.3848	5,856.45	64.8173	5,856.45	59.421	5,856.45	58.9389	5,856.45	51.585	5,856.45	57.3436	5,856.45	52.1788	5,856.45	56.8577	5,856.45	50.0558	5,856.45	46.2058	5,856.45	61.8341	5,856.45	56.9109	5,856.45	48.539	5,856.45	62.4618	5,856.45	47.3159	5,856.45	60.6707	5,856.45	55.5337	5,856.45	57.1767	5,856.45	60.0419	5,856.45	58.9306
6,062.99	81.7922	6,062.99	81.1022	6,062.99	81.2051	6,062.99	80.2429	6,062.99	81.8338	6,062.99	79.3667	6,062.99	78.8948	6,062.99	78.3386	6,062.99	77.7197	6,062.99	76.0438	6,062.99	74.6948	6,062.99	72.6357	6,062.99	73.4972	6,062.99	69.96	6,062.99	70.526	6,062.99	66.7022	6,062.99	69.9771	6,062.99	62.7811	6,062.99	59.1708	6,062.99	57.8762	6,062.99	50.6444	6,062.99	56.4538	6,062.99	52.6549	6,062.99	51.5031	6,062.99	51.4373	6,062.99	52.9542	6,062.99	61.1946	6,062.99	58.6749	6,062.99	50.1823	6,062.99	63.0459	6,062.99	54.6985	6,062.99	59.0402	6,062.99	55.4728	6,062.99	62.2143	6,062.99	58.9135	6,062.99	57.2564
6,276.86	80.969	6,276.86	80.9009	6,276.86	81.3358	6,276.86	79.3903	6,276.86	79.4341	6,276.86	79.3234	6,276.86	78.3301	6,276.86	77.6206	6,276.86	76.568	6,276.86	75.556	6,276.86	73.395	6,276.86	72.182	6,276.86	72.0727	6,276.86	68.9853	6,276.86	70.57	6,276.86	63.354	6,276.86	67.5612	6,276.86	61.3327	6,276.86	59.8885	6,276.86	54.4793	6,276.86	56.8394	6,276.86	52.9905	6,276.86	52.7944	6,276.86	46.7514	6,276.86	44.2248	6,276.86	56.3968	6,276.86	57.155	6,276.86	56.4547	6,276.86	52.4436	6,276.86	62.0359	6,276.86	55.5689	6,276.86	58.8846	6,276.86	56.085	6,276.86	62.1346	6,276.86	58.1027	6,276.86	54.3354
6,498.05	80.8943	6,498.05	80.5107	6,498.05	79.78	6,498.05	79.4613	6,498.05	77.5088	6,498.05	78.6164	6,498.05	77.9211	6,498.05	77.2512	6,498.05	74.9441	6,498.05	74.7826	6,498.05	73.3376	6,498.05	71.3629	6,498.05	70.4359	6,498.05	67.4943	6,498.05	69.4611	6,498.05	63.5416	6,498.05	62.4594	6,498.05	60.3549	6,498.05	55.6987	6,498.05	57.3183	6,498.05	58.7565	6,498.05	50.7165	6,498.05	51.7593	6,498.05	45.4304	6,498.05	44.9954	6,498.05	51.7096	6,498.05	56.6797	6,498.05	50.525	6,498.05	53.1094	6,498.05	59.9408	6,498.05	50.623	6,498.05	60.207	6,498.05	54.9935	6,498.05	61.0927	6,498.05	57.0811	6,498.05	38.3644
6,726.56	81.3489	6,726.56	80.6913	6,726.56	80.5487	6,726.56	79.4035	6,726.56	78.8683	6,726.56	78.1557	6,726.56	78.026	6,726.56	76.6337	6,726.56	74.9319	6,726.56	73.919	6,726.56	72.7649	6,726.56	69.4215	6,726.56	70.6127	6,726.56	66.9195	6,726.56	66.7091	6,726.56	60.0994	6,726.56	53.9282	6,726.56	58.6165	6,726.56	59.8945	6,726.56	49.4041	6,726.56	50.4129	6,726.56	53.2092	6,726.56	43.0836	6,726.56	45.0408	6,726.56	47.576	6,726.56	47.7897	6,726.56	54.1104	6,726.56	51.2461	6,726.56	47.8802	6,726.56	55.9565	6,726.56	52.7375	6,726.56	59.1147	6,726.56	53.4325	6,726.56	58.8787	6,726.56	55.5946	6,726.56	35.2335
6,963.87	80.6871	6,963.87	80.287	6,963.87	80.9822	6,963.87	79.2749	6,963.87	80.4383	6,963.87	77.5255	6,963.87	76.9423	6,963.87	76.3289	6,963.87	75.6362	6,963.87	72.7883	6,963.87	71.5927	6,963.87	68.5865	6,963.87	70.0939	6,963.87	65.4309	6,963.87	59.661	6,963.87	60.7677	6,963.87	61.5884	6,963.87	55.8926	6,963.87	55.5013	6,963.87	52.8339	6,963.87	51.4716	6,963.87	48.2213	6,963.87	46.3454	6,963.87	41.6897	6,963.87	50.8085	6,963.87	45.6236	6,963.87	47.5312	6,963.87	52.1614	6,963.87	40.1161	6,963.87	55.4906	6,963.87	52.6387	6,963.87	57.5485	6,963.87	54.279	6,963.87	54.0513	6,963.87	52.7249	6,963.87	40.3782
7,209.96	80.9371	7,209.96	80.3779	7,209.96	80.1333	7,209.96	78.9716	7,209.96	79.9282	7,209.96	77.2387	7,209.96	77.0136	7,209.96	75.2449	7,209.96	75.1737	7,209.96	71.3869	7,209.96	70.911	7,209.96	66.753	7,209.96	68.4836	7,209.96	62.7867	7,209.96	58.4921	7,209.96	55.7289	7,209.96	58.2087	7,209.96	53.8959	7,209.96	56.4086	7,209.96	49.0427	7,209.96	55.0069	7,209.96	47.4797	7,209.96	48.217	7,209.96	43.9068	7,209.96	48.8006	7,209.96	39.3511	7,209.96	47.952	7,209.96	45.2156	7,209.96	44.0003	7,209.96	54.4051	7,209.96	48.1163	7,209.96	56.6917	7,209.96	49.7848	7,209.96	53.9077	7,209.96	46.9482	7,209.96	44.367
7,464.84	80.641	7,464.84	80.0423	7,464.84	79.5481	7,464.84	78.8533	7,464.84	78.284	7,464.84	76.6839	7,464.84	77.119	7,464.84	74.6579	7,464.84	74.6325	7,464.84	69.8356	7,464.84	70.3784	7,464.84	65.0246	7,464.84	66.274	7,464.84	59.7936	7,464.84	64.0349	7,464.84	51.6926	7,464.84	60.6733	7,464.84	51.0677	7,464.84	59.1163	7,464.84	48.2296	7,464.84	47.1922	7,464.84	37.1579	7,464.84	43.1238	7,464.84	33.7163	7,464.84	41.5651	7,464.84	43.0176	7,464.84	45.3051	7,464.84	42.3918	7,464.84	48.7054	7,464.84	53.9881	7,464.84	43.7145	7,464.84	53.7381	7,464.84	43.2436	7,464.84	52.8717	7,464.84	47.3693	7,464.84	35.1033
7,727.05	79.9098	7,727.05	79.4984	7,727.05	78.5027	7,727.05	77.7257	7,727.05	77.7408	7,727.05	75.7401	7,727.05	76.9944	7,727.05	72.7067	7,727.05	73.0183	7,727.05	68.5627	7,727.05	69.4883	7,727.05	61.1858	7,727.05	61.6174	7,727.05	55.9023	7,727.05	62.8483	7,727.05	53.7973	7,727.05	56.2013	7,727.05	47.0532	7,727.05	55.3625	7,727.05	48.2919	7,727.05	45.6223	7,727.05	43.9797	7,727.05	40.2261	7,727.05	35.9593	7,727.05	36.6469	7,727.05	42.3277	7,727.05	40.4127	7,727.05	39.1272	7,727.05	43.6115	7,727.05	50.9645	7,727.05	39.3579	7,727.05	49.9115	7,727.05	44.2842	7,727.05	48.1635	7,727.05	41.3552	7,727.05	43.0655
7,999.51	79.0468	7,999.51	78.6904	7,999.51	79.3482	7,999.51	76.2959	7,999.51	76.7667	7,999.51	74.6163	7,999.51	76.1389	7,999.51	71.4867	7,999.51	69.9368	7,999.51	65.7206	7,999.51	67.5844	7,999.51	58.1726	7,999.51	59.9249	7,999.51	54.5397	7,999.51	57.8819	7,999.51	51.153	7,999.51	48.4519	7,999.51	49.7272	7,999.51	43.4118	7,999.51	42.3429	7,999.51	23.7834	7,999.51	44.7493	7,999.51	38.7643	7,999.51	39.1647	7,999.51	37.0318	7,999.51	39.726	7,999.51	31.3371	7,999.51	40.8493	7,999.51	38.6368	7,999.51	49.4271	7,999.51	43.0062	7,999.51	47.1445	7,999.51	29.4811	7,999.51	46.5222	7,999.51	43.9898	7,999.51	39.761
8,282.23	79.1093	8,282.23	78.3118	8,282.23	78.2617	8,282.23	76.7319	8,282.23	77.5974	8,282.23	74.2106	8,282.23	73.7471	8,282.23	70.8543	8,282.23	68.9466	8,282.23	64.823	8,282.23	62.2044	8,282.23	57.4871	8,282.23	58.9809	8,282.23	53.8592	8,282.23	50.6864	8,282.23	52.2239	8,282.23	48.8068	8,282.23	50.8727	8,282.23	45.458	8,282.23	46.9518	8,282.23	45.3626	8,282.23	44.8403	8,282.23	42.1701	8,282.23	37.2516	8,282.23	39.7618	8,282.23	37.3354	8,282.23	41.5152	8,282.23	42.7263	8,282.23	38.1356	8,282.23	50.3712	8,282.23	42.4523	8,282.23	51.6343	8,282.23	38.6925	8,282.23	49.3661	8,282.23	44.5846	8,282.23	38.0248
8,573.73	80.1177	8,573.73	79.4062	8,573.73	79.1303	8,573.73	77.2425	8,573.73	77.6486	8,573.73	74.5747	8,573.73	73.4789	8,573.73	71.2055	8,573.73	68.9673	8,573.73	64.7252	8,573.73	61.3209	8,573.73	58.8092	8,573.73	60.1185	8,573.73	55.6992	8,573.73	53.2302	8,573.73	55.9706	8,573.73	55.2433	8,573.73	51.6423	8,573.73	56.1225	8,573.73	50.496	8,573.73	45.2833	8,573.73	44.7812	8,573.73	46.0401	8,573.73	32.881	8,573.73	41.6266	8,573.73	35.4084	8,573.73	43.8101	8,573.73	41.2405	8,573.73	42.8139	8,573.73	50.4346	8,573.73	42.9901	8,573.73	53.4558	8,573.73	37.2763	8,573.73	51.4296	8,573.73	48.9893	8,573.73	38.1568
8,876.95	80.7175	8,876.95	80.0599	8,876.95	80.2279	8,876.95	77.9776	8,876.95	78.4571	8,876.95	74.7427	8,876.95	74.114	8,876.95	71.0896	8,876.95	69.1263	8,876.95	64.4155	8,876.95	59.1233	8,876.95	58.8864	8,876.95	58.3306	8,876.95	58.6025	8,876.95	62.0046	8,876.95	57.6874	8,876.95	56.4553	8,876.95	52.7971	8,876.95	53.3082	8,876.95	48.7859	8,876.95	45.305	8,876.95	46.064	8,876.95	43.8196	8,876.95	39.5299	8,876.95	42.0136	8,876.95	32.5003	8,876.95	44.4127	8,876.95	42.9022	8,876.95	46.5219	8,876.95	51.0737	8,876.95	44.8694	8,876.95	53.7826	8,876.95	40.6477	8,876.95	51.4016	8,876.95	47.8351	8,876.95	37.1658
9,188.96	81.1896	9,188.96	80.5529	9,188.96	80.4212	9,188.96	77.9519	9,188.96	78.5283	9,188.96	74.7426	9,188.96	74.3935	9,188.96	70.5046	9,188.96	68.0561	9,188.96	63.7767	9,188.96	61.2623	9,188.96	59.5406	9,188.96	46.8744	9,188.96	57.908	9,188.96	62.9259	9,188.96	56.8515	9,188.96	54.7621	9,188.96	53.2493	9,188.96	56.0762	9,188.96	51.1611	9,188.96	46.4165	9,188.96	43.9399	9,188.96	45.4235	9,188.96	41.6249	9,188.96	46.9937	9,188.96	43.9673	9,188.96	46.4714	9,188.96	41.4013	9,188.96	46.7839	9,188.96	50.2517	9,188.96	44.5202	9,188.96	54.175	9,188.96	43.9037	9,188.96	51.1299	9,188.96	47.5859	9,188.96	34.7889
9,514.16	81.2481	9,514.16	80.6263	9,514.16	80.4727	9,514.16	78.1229	9,514.16	78.8252	9,514.16	74.6011	9,514.16	74.4234	9,514.16	69.837	9,514.16	68.3208	9,514.16	62.057	9,514.16	60.0381	9,514.16	58.6015	9,514.16	54.3096	9,514.16	57.8046	9,514.16	59.4627	9,514.16	56.1834	9,514.16	58.1058	9,514.16	54.7137	9,514.16	55.124	9,514.16	48.1944	9,514.16	52.1234	9,514.16	44.6314	9,514.16	48.6964	9,514.16	27.4797	9,514.16	48.718	9,514.16	35.5138	9,514.16	35.878	9,514.16	37.3704	9,514.16	44.7733	9,514.16	48.0519	9,514.16	44.5831	9,514.16	53.4516	9,514.16	34.054	9,514.16	51.2749	9,514.16	47.7099	9,514.16	31.1122
9,849.61	81.4053	9,849.61	80.8176	9,849.61	80.6858	9,849.61	78.2029	9,849.61	78.3945	9,849.61	74.225	9,849.61	74.544	9,849.61	68.8789	9,849.61	66.8432	9,849.61	58.2952	9,849.61	51.702	9,849.61	57.5604	9,849.61	55.7969	9,849.61	58.1184	9,849.61	60.9532	9,849.61	55.2057	9,849.61	53.5373	9,849.61	51.0821	9,849.61	55.318	9,849.61	47.8904	9,849.61	41.592	9,849.61	43.958	9,849.61	53.355	9,849.61	42.5909	9,849.61	51.8907	9,849.61	42.2312	9,849.61	43.4652	9,849.61	41.7348	9,849.61	42.5335	9,849.61	48.3822	9,849.61	44.3272	9,849.61	50.7998	9,849.61	45.1356	9,849.61	46.4534	9,849.61	45.5743	9,849.61	38.7199
10,196.8	81.5679	10,196.8	80.8179	10,196.8	80.8773	10,196.8	77.7303	10,196.8	78.5474	10,196.8	73.251	10,196.8	74.2368	10,196.8	66.7332	10,196.8	66.3772	10,196.8	51.227	10,196.8	51.932	10,196.8	58.9187	10,196.8	53.1877	10,196.8	60.1009	10,196.8	56.4665	10,196.8	56.7634	10,196.8	58.5123	10,196.8	53.1973	10,196.8	53.1816	10,196.8	49.6204	10,196.8	35.0832	10,196.8	32.9646	10,196.8	54.7672	10,196.8	39.6927	10,196.8	53.5003	10,196.8	44.5042	10,196.8	47.6355	10,196.8	43.569	10,196.8	45.0441	10,196.8	45.5988	10,196.8	48.9219	10,196.8	50.4986	10,196.8	42.1037	10,196.8	49.5511	10,196.8	45.1287	10,196.8	33.9457
10,555.7	81.9502	10,555.7	81.1073	10,555.7	81.0401	10,555.7	77.8782	10,555.7	77.7969	10,555.7	72.3268	10,555.7	73.0989	10,555.7	63.9645	10,555.7	63.7682	10,555.7	57.0076	10,555.7	57.5279	10,555.7	63.4246	10,555.7	55.8501	10,555.7	62.559	10,555.7	58.9809	10,555.7	59.1988	10,555.7	57.0733	10,555.7	56.1358	10,555.7	50.3725	10,555.7	50.984	10,555.7	44.3403	10,555.7	45.0044	10,555.7	58.1691	10,555.7	37.9797	10,555.7	56.2145	10,555.7	43.8196	10,555.7	45.1728	10,555.7	41.9894	10,555.7	46.8901	10,555.7	47.3591	10,555.7	47.258	10,555.7	52.6303	10,555.7	44.4703	10,555.7	49.5249	10,555.7	42.5401	10,555.7	32.1013
10,927.7	83.1611	10,927.7	82.1712	10,927.7	81.7711	10,927.7	78.5669	10,927.7	77.9191	10,927.7	71.4832	10,927.7	70.898	10,927.7	58.0565	10,927.7	62.5745	10,927.7	62.9571	10,927.7	64.5969	10,927.7	66.6535	10,927.7	61.1411	10,927.7	64.9888	10,927.7	64.289	10,927.7	60.8143	10,927.7	56.5492	10,927.7	57.1568	10,927.7	53.7401	10,927.7	50.4503	10,927.7	48.8454	10,927.7	46.842	10,927.7	58.3036	10,927.7	44.0759	10,927.7	57.8314	10,927.7	46.9961	10,927.7	45.9049	10,927.7	44.8699	10,927.7	51.8651	10,927.7	47.0374	10,927.7	52.5164	10,927.7	57.1238	10,927.7	41.5391	10,927.7	53.6678	10,927.7	43.6901	10,927.7	39.0477
11,313	84.9714	11,313	83.9653	11,313	83.4945	11,313	79.9678	11,313	78.8774	11,313	71.4536	11,313	70.9049	11,313	60.7342	11,313	60.765	11,313	68.1149	11,313	66.2345	11,313	68.8884	11,313	66.3714	11,313	67.146	11,313	64.0756	11,313	62.0267	11,313	61.674	11,313	58.467	11,313	53.6104	11,313	52.1614	11,313	50.6537	11,313	38.8741	11,313	61.9193	11,313	46.4504	11,313	59.1469	11,313	50.161	11,313	52.9391	11,313	44.8666	11,313	48.8221	11,313	51.2799	11,313	47.2659	11,313	57.3438	11,313	44.4331	11,313	56.8053	11,313	50.1936	11,313	41.2005
11,712.9	84.7857	11,712.9	83.7753	11,712.9	82.5736	11,712.9	80.2032	11,712.9	77.5553	11,712.9	72.782	11,712.9	71.0712	11,712.9	60.1275	11,712.9	62.6112	11,712.9	65.3959	11,712.9	64.5686	11,712.9	67.1683	11,712.9	63.4451	11,712.9	64.8095	11,712.9	62.7934	11,712.9	60.3428	11,712.9	62.1326	11,712.9	57.349	11,712.9	56.7188	11,712.9	50.891	11,712.9	43.0859	11,712.9	41.7996	11,712.9	61.054	11,712.9	39.689	11,712.9	58.9931	11,712.9	47.338	11,712.9	50.4384	11,712.9	43.1901	11,712.9	43.8978	11,712.9	50.1165	11,712.9	47.4637	11,712.9	55.9494	11,712.9	41.0629	11,712.9	53.2245	11,712.9	47.7963	11,712.9	12.0025
12,126	82.7545	12,126	81.8981	12,126	79.8699	12,126	77.3292	12,126	71.337	12,126	66.4375	12,126	66.0226	12,126	58.2937	12,126	69.1245	12,126	64.9422	12,126	69.3395	12,126	64.6556	12,126	65.861	12,126	60.7522	12,126	65.5239	12,126	54.9285	12,126	61.9467	12,126	51.4614	12,126	54.8344	12,126	43.6529	12,126	52.9153	12,126	37.2098	12,126	57.5179	12,126	37.3204	12,126	56.0104	12,126	41.4853	12,126	46.8477	12,126	37.4185	12,126	47.499	12,126	46.3429	12,126	43.0951	12,126	52.4818	12,126	47.2373	12,126	51.7048	12,126	44.6011	12,126	37.9567
12,553.7	83.3369	12,553.7	81.7078	12,553.7	80.843	12,553.7	76.2651	12,553.7	73.2978	12,553.7	62.5986	12,553.7	63.0697	12,553.7	63.4416	12,553.7	68.559	12,553.7	66.1948	12,553.7	69.2196	12,553.7	63.2106	12,553.7	66.1937	12,553.7	57.155	12,553.7	65.8502	12,553.7	49.6499	12,553.7	57.523	12,553.7	43.0687	12,553.7	55.6587	12,553.7	41.5331	12,553.7	50.1839	12,553.7	35.809	12,553.7	56.2819	12,553.7	41.7808	12,553.7	55.3595	12,553.7	40.2182	12,553.7	43.389	12,553.7	38.6435	12,553.7	49.6287	12,553.7	36.7826	12,553.7	46.0809	12,553.7	48.2271	12,553.7	45.4662	12,553.7	48.0939	12,553.7	45.7993	12,553.7	35.5895
12,996.1	83.0078	12,996.1	80.9885	12,996.1	80.683	12,996.1	74.6339	12,996.1	73.2092	12,996.1	61.5126	12,996.1	62.0828	12,996.1	65.3971	12,996.1	68.1548	12,996.1	65.505	12,996.1	68.5434	12,996.1	62.5467	12,996.1	63.9282	12,996.1	54.5317	12,996.1	61.2557	12,996.1	50.4334	12,996.1	56.325	12,996.1	45.9848	12,996.1	55.0728	12,996.1	41.2433	12,996.1	25.2276	12,996.1	35.6995	12,996.1	58.531	12,996.1	38.6173	12,996.1	56.885	12,996.1	41.2376	12,996.1	46.3181	12,996.1	31.217	12,996.1	42.8212	12,996.1	33.5428	12,996.1	46.2476	12,996.1	45.8238	12,996.1	30.0513	12,996.1	50.6757	12,996.1	43.0089	12,996.1	41.0533
13,454.6	83.5513	13,454.6	81.2126	13,454.6	81.1517	13,454.6	73.6528	13,454.6	73.0451	13,454.6	64.5653	13,454.6	62.968	13,454.6	67.197	13,454.6	68.9164	13,454.6	65.6919	13,454.6	67.3485	13,454.6	61.1104	13,454.6	62.8798	13,454.6	54.4163	13,454.6	61.2673	13,454.6	51.9245	13,454.6	56.2512	13,454.6	48.2414	13,454.6	52.377	13,454.6	47.4902	13,454.6	49.0132	13,454.6	30.3482	13,454.6	60.4024	13,454.6	37.698	13,454.6	58.9084	13,454.6	40.6253	13,454.6	51.4419	13,454.6	32.7779	13,454.6	42.5786	13,454.6	33.5301	13,454.6	43.8808	13,454.6	47.1902	13,454.6	35.4071	13,454.6	49.3358	13,454.6	46.0844	13,454.6	42.0722
13,929.2	83.7856	13,929.2	81.2079	13,929.2	81.4498	13,929.2	73.4947	13,929.2	73.2943	13,929.2	68.0792	13,929.2	63.2491	13,929.2	67.9173	13,929.2	68.8122	13,929.2	65.4552	13,929.2	66.31	13,929.2	61.1813	13,929.2	60.9287	13,929.2	55.7224	13,929.2	56.1773	13,929.2	53.4337	13,929.2	55.1078	13,929.2	49.5596	13,929.2	52.9442	13,929.2	49.1241	13,929.2	48.7455	13,929.2	28.2946	13,929.2	60.402	13,929.2	39.4925	13,929.2	59.6803	13,929.2	41.8842	13,929.2	46.8074	13,929.2	37.7485	13,929.2	39.7051	13,929.2	34.5207	13,929.2	33.3155	13,929.2	47.0953	13,929.2	37.3737	13,929.2	50.4237	13,929.2	44.5882	13,929.2	38.3658
14,419.9	84.113	14,419.9	81.4843	14,419.9	81.5193	14,419.9	73.6995	14,419.9	72.4125	14,419.9	70.1985	14,419.9	66.061	14,419.9	68.3949	14,419.9	68.4272	14,419.9	64.756	14,419.9	64.5679	14,419.9	59.9692	14,419.9	50.1071	14,419.9	56.8311	14,419.9	55.5616	14,419.9	53.7175	14,419.9	56.1864	14,419.9	50.3383	14,419.9	51.174	14,419.9	50.1632	14,419.9	50.0024	14,419.9	30.8757	14,419.9	60.3138	14,419.9	39.3314	14,419.9	59.1758	14,419.9	43.0724	14,419.9	49.093	14,419.9	39.7261	14,419.9	46.4561	14,419.9	32.985	14,419.9	41.7698	14,419.9	48.2191	14,419.9	43.4142	14,419.9	52.2226	14,419.9	46.6406	14,419.9	43.5743
14,928.2	84.6643	14,928.2	82.1342	14,928.2	81.5007	14,928.2	74.5837	14,928.2	70.6027	14,928.2	71.9902	14,928.2	66.2816	14,928.2	68.868	14,928.2	65.3978	14,928.2	63.6843	14,928.2	54.3243	14,928.2	60.1714	14,928.2	56.2425	14,928.2	59.3439	14,928.2	61.1014	14,928.2	56.4328	14,928.2	62.1738	14,928.2	52.7481	14,928.2	55.9649	14,928.2	52.1035	14,928.2	50.6186	14,928.2	40.7971	14,928.2	61.0429	14,928.2	36.0015	14,928.2	59.6459	14,928.2	44.1557	14,928.2	53.7315	14,928.2	43.005	14,928.2	46.8226	14,928.2	38.4903	14,928.2	42.9091	14,928.2	48.3027	14,928.2	42.8463	14,928.2	51.1378	14,928.2	46.0142	14,928.2	44.7069
15,455.6	85.0338	15,455.6	82.7723	15,455.6	81.1929	15,455.6	75.7889	15,455.6	69.4681	15,455.6	73.0252	15,455.6	66.3474	15,455.6	67.9076	15,455.6	61.6887	15,455.6	61.3177	15,455.6	56.0918	15,455.6	62.5797	15,455.6	61.5865	15,455.6	62.5254	15,455.6	64.7155	15,455.6	58.6642	15,455.6	58.9946	15,455.6	53.7674	15,455.6	52.3721	15,455.6	51.9326	15,455.6	55.5268	15,455.6	47.061	15,455.6	61.2377	15,455.6	32.493	15,455.6	60.609	15,455.6	44.289	15,455.6	45.7852	15,455.6	45.9818	15,455.6	46.6676	15,455.6	41.3075	15,455.6	44.2949	15,455.6	49.4786	15,455.6	43.6907	15,455.6	51.2603	15,455.6	40.2812	15,455.6	46.7551
16,000.5	85.3361	16,000.5	83.1371	16,000.5	81.2848	16,000.5	76.5827	16,000.5	70.488	16,000.5	73.9643	16,000.5	67.2877	16,000.5	67.1768	16,000.5	61.1815	16,000.5	60.2769	16,000.5	64.607	16,000.5	63.9215	16,000.5	65.0646	16,000.5	62.6878	16,000.5	65.244	16,000.5	58.3629	16,000.5	60.7384	16,000.5	55.0178	16,000.5	54.5463	16,000.5	51.2821	16,000.5	56.2617	16,000.5	49.2281	16,000.5	62.2011	16,000.5	34.2268	16,000.5	60.2198	16,000.5	40.0212	16,000.5	48.4689	16,000.5	47.1286	16,000.5	46.3007	16,000.5	39.3497	16,000.5	43.7313	16,000.5	49.7574	16,000.5	45.9403	16,000.5	51.8116	16,000.5	39.1298	16,000.5	46.5841
16,564.5	85.159	16,564.5	83.0329	16,564.5	81.1203	16,564.5	76.4666	16,564.5	72.2525	16,564.5	73.4674	16,564.5	66.1819	16,564.5	65.4323	16,564.5	61.894	16,564.5	57.5064	16,564.5	65.7405	16,564.5	63.3307	16,564.5	64.6613	16,564.5	61.7326	16,564.5	63.226	16,564.5	56.9129	16,564.5	57.7459	16,564.5	53.1915	16,564.5	52.0033	16,564.5	48.0792	16,564.5	57.6652	16,564.5	46.2131	16,564.5	61.6042	16,564.5	31.6863	16,564.5	59.1892	16,564.5	36.9259	16,564.5	48.5705	16,564.5	43.6895	16,564.5	50.2342	16,564.5	40.6829	16,564.5	42.8897	16,564.5	47.9792	16,564.5	42.5936	16,564.5	49.2944	16,564.5	34.393	16,564.5	45.3294
17,148.9	84.2233	17,148.9	81.9044	17,148.9	79.756	17,148.9	75.188	17,148.9	68.7947	17,148.9	72.2178	17,148.9	62.4938	17,148.9	62.4645	17,148.9	58.4495	17,148.9	51.8394	17,148.9	64.6861	17,148.9	63.8842	17,148.9	63.2836	17,148.9	62.043	17,148.9	60.7294	17,148.9	56.7142	17,148.9	53.0868	17,148.9	53.8925	17,148.9	49.7991	17,148.9	46.7557	17,148.9	57.9331	17,148.9	47.4462	17,148.9	58.8222	17,148.9	26.7124	17,148.9	54.9073	17,148.9	38.7818	17,148.9	43.254	17,148.9	44.3687	17,148.9	43.5438	17,148.9	40.427	17,148.9	41.6262	17,148.9	45.6954	17,148.9	44.8862	17,148.9	48.2787	17,148.9	37.2194	17,148.9	45.979
17,752.4	81.9753	17,752.4	79.5059	17,752.4	76.2298	17,752.4	73.0531	17,752.4	64.8559	17,752.4	69.5656	17,752.4	63.079	17,752.4	54.0863	17,752.4	65.6575	17,752.4	61.4304	17,752.4	67.3521	17,752.4	65.622	17,752.4	64.0162	17,752.4	62.5713	17,752.4	58.7492	17,752.4	57.0135	17,752.4	55.169	17,752.4	52.9214	17,752.4	49.931	17,752.4	46.1931	17,752.4	57.7264	17,752.4	46.6677	17,752.4	56.8456	17,752.4	25.3198	17,752.4	50.0135	17,752.4	39.2971	17,752.4	37.1779	17,752.4	45.1548	17,752.4	46.7129	17,752.4	39.0557	17,752.4	22.4146	17,752.4	38.7162	17,752.4	44.7067	17,752.4	48.149	17,752.4	34.5436	17,752.4	44.4802
18,379.4	79.3079	18,379.4	77.2051	18,379.4	72.7347	18,379.4	73.7153	18,379.4	69.4067	18,379.4	68.739	18,379.4	66.3251	18,379.4	55.21	18,379.4	66.6832	18,379.4	63.0667	18,379.4	65.9849	18,379.4	64.4607	18,379.4	61.447	18,379.4	59.7355	18,379.4	57.9117	18,379.4	53.948	18,379.4	52.5236	18,379.4	49.618	18,379.4	50.1204	18,379.4	41.0753	18,379.4	58.4545	18,379.4	45.2655	18,379.4	57.5659	18,379.4	27.1801	18,379.4	52.5919	18,379.4	38.4223	18,379.4	38.977	18,379.4	42.5757	18,379.4	40.58	18,379.4	33.1156	18,379.4	42.4101	18,379.4	26.6389	18,379.4	40.9588	18,379.4	46.5542	18,379.4	41.8112	18,379.4	39.6541
19,026.9	77.5361	19,026.9	76.9433	19,026.9	73.5018	19,026.9	74.7473	19,026.9	72.1188	19,026.9	66.396	19,026.9	65.8639	19,026.9	62.0734	19,026.9	67.2829	19,026.9	63.5297	19,026.9	65.701	19,026.9	62.9436	19,026.9	59.4332	19,026.9	57.4103	19,026.9	56.7158	19,026.9	51.1881	19,026.9	52.8919	19,026.9	47.4222	19,026.9	50.3779	19,026.9	41.5366	19,026.9	58.7221	19,026.9	41.7693	19,026.9	58.8559	19,026.9	25.8496	19,026.9	53.135	19,026.9	35.681	19,026.9	37.885	19,026.9	39.4716	19,026.9	35.2002	19,026.9	34.0725	19,026.9	37.0437	19,026.9	24.8369	19,026.9	42.5197	19,026.9	44.3676	19,026.9	33.4388	19,026.9	37.1917
19,697.8	77.2385	19,697.8	77.2168	19,697.8	75.2009	19,697.8	74.6439	19,697.8	72.3919	19,697.8	62.0523	19,697.8	66.0062	19,697.8	65.0443	19,697.8	65.4589	19,697.8	63.8985	19,697.8	62.1379	19,697.8	61.2774	19,697.8	57.7224	19,697.8	54.4504	19,697.8	54.2881	19,697.8	48.3928	19,697.8	51.3742	19,697.8	42.5129	19,697.8	46.5417	19,697.8	38.8632	19,697.8	58.666	19,697.8	38.9547	19,697.8	58.8492	19,697.8	25.0196	19,697.8	52.5915	19,697.8	32.6441	19,697.8	28.8543	19,697.8	35.3179	19,697.8	32.9252	19,697.8	21.7347	19,697.8	32.897	19,697.8	34.6401	19,697.8	37.9857	19,697.8	39.3698	19,697.8	40.8848	19,697.8	30.5082
19,999.5	77.1649	19,999.5	77.3872	19,999.5	74.9745	19,999.5	74.0639	19,999.5	71.2787	19,999.5	60.1169	19,999.5	64.2643	19,999.5	65.2718	19,999.5	62.708	19,999.5	63.0861	19,999.5	60.3759	19,999.5	59.2884	19,999.5	57.6559	19,999.5	53.1457	19,999.5	55.2432	19,999.5	43.7067	19,999.5	48.154	19,999.5	36.092	19,999.5	37.4643	19,999.5	40.6917	19,999.5	58.3622	19,999.5	31.8076	19,999.5	58.5594	19,999.5	38.288	19,999.5	51.4194	19,999.5	43.1901	19,999.5	41.6591	19,999.5	46.5356	19,999.5	39.0761	19,999.5	47.34	19,999.5	40.504	19,999.5	31.0837	19,999.5	51.8679	19,999.5	43.0512	19,999.5	45.2936	19,999.5	44.111
