"Horizontal Reflections"							
"Front"		"Side"		"Rear"		"Total Horizontal Reflection"	
"Frequency [Hz]"	"Sound Pessure Level [dB]  / [2.83V 1m] "	"Frequency [Hz]"	"Sound Pessure Level [dB]  / [2.83V 1m] "	"Frequency [Hz]"	"Sound Pessure Level [dB]  / [2.83V 1m] "	"Frequency [Hz]"	"Sound Pessure Level [dB]  / [2.83V 1m] "
20.5078	51.9635	20.5078	51.4085	20.5078	53.991	20.5078	53.0379
23.4375	51.8732	23.4375	54.7748	23.4375	61.1919	23.4375	59.073
26.3672	60.6649	26.3672	61.7189	26.3672	65.8822	26.3672	64.2881
29.2969	64.0649	29.2969	65.1527	29.2969	69.4785	29.2969	67.8435
32.2266	69.9348	32.2266	70.7042	32.2266	74.1165	32.2266	72.7415
35.1563	74.4038	35.1563	75.0853	35.1563	78.1135	35.1563	76.8575
38.0859	79.0382	38.0859	79.6493	38.0859	82.2503	38.0859	81.1332
41.0156	83.2227	41.0156	83.7579	41.0156	85.9773	41.0156	84.9948
43.9453	86.9255	43.9453	87.4024	43.9453	89.2927	43.9453	88.4322
46.875	89.7192	46.875	90.1509	46.875	91.7797	46.875	91.0208
49.8047	91.5543	49.8047	91.9501	49.8047	93.3581	49.8047	92.6879
55.6641	92.9766	55.6641	93.3173	55.6641	94.3852	55.6641	93.8575
58.5938	93.1477	58.5938	93.465	58.5938	94.3943	58.5938	93.9269
61.5234	93.0902	61.5234	93.3887	61.5234	94.2049	61.5234	93.7876
67.3828	93.0253	67.3828	93.2876	67.3828	93.9111	67.3828	93.5818
73.2422	93.0545	73.2422	93.2843	73.2422	93.7519	73.2422	93.4961
76.1719	93.0208	76.1719	93.2406	76.1719	93.6552	76.1719	93.4246
82.0313	93.0919	82.0313	93.2738	82.0313	93.5493	82.0313	93.3878
87.8906	93.2441	87.8906	93.375	87.8906	93.4687	87.8906	93.3998
93.75	93.1482	93.75	93.3321	93.75	93.5649	93.75	93.4223
102.539	93.4058	102.539	93.5276	102.539	93.5809	102.539	93.5325
108.398	93.5196	108.398	93.6215	108.398	93.6366	108.398	93.6099
117.188	93.8469	117.188	93.903	117.188	93.8291	117.188	93.8532
125.977	93.947	125.977	93.9624	125.977	93.7804	125.977	93.8642
134.766	93.9943	134.766	93.9924	134.766	93.8071	134.766	93.896
143.555	94.1273	143.555	94.0801	143.555	93.8193	143.555	93.954
155.273	94.2167	155.273	94.121	155.273	93.7923	155.273	93.9701
164.063	94.364	164.063	94.2222	164.063	93.8132	164.063	94.0405
175.781	94.0048	175.781	93.8591	175.781	93.4423	175.781	93.6743
190.43	93.8256	190.43	93.6428	190.43	93.2957	190.43	93.5007
202.148	93.6092	202.148	93.3347	202.148	92.9092	202.148	93.1729
216.797	93.2504	216.797	92.9074	216.797	92.5293	216.797	92.7839
234.375	92.7596	234.375	92.4006	234.375	91.8471	234.375	92.1943
249.023	92.5706	249.023	92.0641	249.023	91.6601	249.023	91.9638
266.602	92.5995	266.602	91.8951	266.602	91.4324	266.602	91.8114
287.109	92.7602	287.109	91.8979	287.109	91.187	287.109	91.7342
307.617	92.4763	307.617	91.4866	307.617	90.7955	307.617	91.3638
331.055	92.4629	331.055	91.2343	331.055	90.1792	331.055	91.0104
354.492	92.4213	354.492	91.0598	354.492	89.3533	354.492	90.6028
377.93	92.4874	377.93	91.1106	377.93	89.1708	377.93	90.5673
407.227	92.0356	407.227	90.5456	407.227	88.3677	407.227	89.948
436.523	92.1099	436.523	90.7327	436.523	87.7822	436.523	89.83
465.82	91.986	465.82	90.7584	465.82	87.4267	465.82	89.6838
500.977	91.41	500.977	90.3876	500.977	87.2273	500.977	89.3017
536.133	91.365	536.133	90.0627	536.133	86.6867	536.133	88.9992
574.219	92.0352	574.219	90.3252	574.219	86.0288	574.219	89.1465
615.234	91.7227	615.234	90.2263	615.234	85.8658	615.234	88.9513
659.18	91.4586	659.18	89.8533	659.18	85.7777	659.18	88.6937
706.055	91.9924	706.055	89.999	706.055	85.6644	706.055	88.92
758.789	93.0732	758.789	90.7116	758.789	86.3988	758.789	89.7869
811.523	93.4633	811.523	90.3783	811.523	86.4394	811.523	89.8551
870.117	93.2272	870.117	89.6924	870.117	85.3745	870.117	89.2917
931.641	92.9714	931.641	89.6882	931.641	84.4833	931.641	88.988
999.023	93.0195	999.023	90.0863	999.023	83.8929	999.023	89.044
1,072.27	92.6655	1,072.27	89.5947	1,072.27	83.3326	1,072.27	88.6089
1,148.44	92.2194	1,148.44	88.5955	1,148.44	82.0462	1,148.44	87.8512
1,230.47	92.8485	1,230.47	89.4839	1,230.47	83.1269	1,230.47	88.6317
1,318.36	93.045	1,318.36	89.0468	1,318.36	82.7936	1,318.36	88.5458
1,415.04	93.4544	1,415.04	88.5812	1,415.04	83.0436	1,415.04	88.6776
1,514.65	94.1334	1,514.65	89.9561	1,514.65	82.3244	1,514.65	89.3891
1,623.05	94.8789	1,623.05	90.6153	1,623.05	82.0566	1,623.05	90.0121
1,740.23	96.8043	1,740.23	92.1367	1,740.23	82.8143	1,740.23	91.7226
1,866.21	95.4581	1,866.21	90.4867	1,866.21	81.5971	1,866.21	90.2949
2,000.98	94.57	2,000.98	89.644	2,000.98	80.8061	2,000.98	89.4269
2,144.53	94.4634	2,144.53	89.4422	2,144.53	80.1611	2,144.53	89.2557
2,296.88	93.8891	2,296.88	89.475	2,296.88	79.4437	2,296.88	88.8575
2,460.94	94.3625	2,460.94	89.8097	2,460.94	79.9556	2,460.94	89.2893
2,639.65	94.3615	2,639.65	89.5139	2,639.65	79.7415	2,639.65	89.1851
2,827.15	94.3447	2,827.15	89.7691	2,827.15	79.155	2,827.15	89.22
3,032.23	94.9131	3,032.23	90.4041	3,032.23	79.6297	3,032.23	89.8047
3,249.02	95.7177	3,249.02	91.2369	3,249.02	80.2492	3,249.02	90.6092
3,483.4	95.2547	3,483.4	90.8931	3,483.4	79.7915	3,483.4	90.1851
3,732.42	94.7225	3,732.42	90.2868	3,732.42	78.7972	3,732.42	89.6075
3,999.02	94.5475	3,999.02	89.7451	3,999.02	78.1622	3,999.02	89.297
4,286.13	94.7877	4,286.13	90.0312	4,286.13	77.9256	4,286.13	89.5331
4,593.75	95.2003	4,593.75	90.7943	4,593.75	78.027	4,593.75	90.0473
4,924.8	95.3865	4,924.8	91.1995	4,924.8	78.1247	4,924.8	90.3041
5,279.3	95.1365	5,279.3	91.024	5,279.3	78.4622	5,279.3	90.0996
5,657.23	94.0994	5,657.23	90.2752	5,657.23	77.3882	5,657.23	89.1625
6,061.52	93.9984	6,061.52	89.9856	6,061.52	76.4925	6,061.52	88.9688
6,498.05	94.7328	6,498.05	90.8487	6,498.05	76.9523	6,498.05	89.7409
6,963.87	94.9008	6,963.87	91.4301	6,963.87	77.3344	6,963.87	90.0676
7,464.84	93.7226	7,464.84	90.585	7,464.84	76.6655	7,464.84	89.0337
8,000.98	92.8758	8,000.98	89.224	8,000.98	74.2431	8,000.98	87.9475
8,575.2	95.1029	8,575.2	90.7302	8,575.2	74.4745	8,575.2	89.8814
9,190.43	94.6982	9,190.43	89.8678	9,190.43	73.9923	9,190.43	89.3263
9,849.61	93.8108	9,849.61	87.7605	9,849.61	71.1143	9,849.61	88.0637
10,555.7	94.896	10,555.7	88.1908	10,555.7	71.0457	10,555.7	88.9774
11,314.5	94.5449	11,314.5	87.6659	11,314.5	71.758	11,314.5	88.5968
12,126	93.4304	12,126	86.5532	12,126	71.5292	12,126	87.4935
12,996.1	94.0618	12,996.1	86.8618	12,996.1	72.9248	12,996.1	88.0661
13,927.7	93.9479	13,927.7	86.4022	13,927.7	73.0879	13,927.7	87.8864
14,929.7	95.0373	14,929.7	85.2983	14,929.7	72.0704	14,929.7	88.5901
15,999	96.3847	15,999	84.7329	15,999	71.9203	15,999	89.7155
17,147.5	96.239	17,147.5	82.5848	17,147.5	69.0343	17,147.5	89.4075
18,377.9	94.8722	18,377.9	79.2783	18,377.9	66.8575	18,377.9	87.9459
19,699.2	92.9167	19,699.2	75.6809	19,699.2	64.6147	19,699.2	85.9373
19,998	92.3611	19,998	75.3653	19,998	64.7472	19,998	85.3911
