"SPL Vertical"																																																																							
"On-Axis"		"10°"		"-10°"		"20°"		"-20°"		"30°"		"-30°"		"40°"		"-40°"		"50°"		"-50°"		"60°"		"-60°"		"70°"		"-70°"		"80°"		"-80°"		"90°"		"-90°"		"100°"		"-100°"		"110°"		"-110°"		"120°"		"-120°"		"130°"		"-130°"		"140°"		"-140°"		"150°"		"-150°"		"160°"		"-160°"		"170°"		"-170°"		"180°"	
"Frequency [Hz]"	"Sound Pessure Level [dB]  / [2.83V 1m] "	"Frequency [Hz]"	"Sound Pessure Level [dB]  / [2.83V 1m] "	"Frequency [Hz]"	"Sound Pessure Level [dB]  / [2.83V 1m] "	"Frequency [Hz]"	"Sound Pessure Level [dB]  / [2.83V 1m] "	"Frequency [Hz]"	"Sound Pessure Level [dB]  / [2.83V 1m] "	"Frequency [Hz]"	"Sound Pessure Level [dB]  / [2.83V 1m] "	"Frequency [Hz]"	"Sound Pessure Level [dB]  / [2.83V 1m] "	"Frequency [Hz]"	"Sound Pessure Level [dB]  / [2.83V 1m] "	"Frequency [Hz]"	"Sound Pessure Level [dB]  / [2.83V 1m] "	"Frequency [Hz]"	"Sound Pessure Level [dB]  / [2.83V 1m] "	"Frequency [Hz]"	"Sound Pessure Level [dB]  / [2.83V 1m] "	"Frequency [Hz]"	"Sound Pessure Level [dB]  / [2.83V 1m] "	"Frequency [Hz]"	"Sound Pessure Level [dB]  / [2.83V 1m] "	"Frequency [Hz]"	"Sound Pessure Level [dB]  / [2.83V 1m] "	"Frequency [Hz]"	"Sound Pessure Level [dB]  / [2.83V 1m] "	"Frequency [Hz]"	"Sound Pessure Level [dB]  / [2.83V 1m] "	"Frequency [Hz]"	"Sound Pessure Level [dB]  / [2.83V 1m] "	"Frequency [Hz]"	"Sound Pessure Level [dB]  / [2.83V 1m] "	"Frequency [Hz]"	"Sound Pessure Level [dB]  / [2.83V 1m] "	"Frequency [Hz]"	"Sound Pessure Level [dB]  / [2.83V 1m] "	"Frequency [Hz]"	"Sound Pessure Level [dB]  / [2.83V 1m] "	"Frequency [Hz]"	"Sound Pessure Level [dB]  / [2.83V 1m] "	"Frequency [Hz]"	"Sound Pessure Level [dB]  / [2.83V 1m] "	"Frequency [Hz]"	"Sound Pessure Level [dB]  / [2.83V 1m] "	"Frequency [Hz]"	"Sound Pessure Level [dB]  / [2.83V 1m] "	"Frequency [Hz]"	"Sound Pessure Level [dB]  / [2.83V 1m] "	"Frequency [Hz]"	"Sound Pessure Level [dB]  / [2.83V 1m] "	"Frequency [Hz]"	"Sound Pessure Level [dB]  / [2.83V 1m] "	"Frequency [Hz]"	"Sound Pessure Level [dB]  / [2.83V 1m] "	"Frequency [Hz]"	"Sound Pessure Level [dB]  / [2.83V 1m] "	"Frequency [Hz]"	"Sound Pessure Level [dB]  / [2.83V 1m] "	"Frequency [Hz]"	"Sound Pessure Level [dB]  / [2.83V 1m] "	"Frequency [Hz]"	"Sound Pessure Level [dB]  / [2.83V 1m] "	"Frequency [Hz]"	"Sound Pessure Level [dB]  / [2.83V 1m] "	"Frequency [Hz]"	"Sound Pessure Level [dB]  / [2.83V 1m] "	"Frequency [Hz]"	"Sound Pessure Level [dB]  / [2.83V 1m] "
20.5078	52.0829	20.5078	51.6491	20.5078	52.4706	20.5078	51.2008	20.5078	52.7919	20.5078	50.7844	20.5078	53.0339	20.5078	50.4616	20.5078	53.1897	20.5078	50.3013	20.5078	53.2574	20.5078	50.3595	20.5078	53.2411	20.5078	50.655	20.5078	53.1544	20.5078	51.1589	20.5078	53.0236	20.5078	51.8074	20.5078	52.8919	20.5078	52.5267	20.5078	52.8181	20.5078	53.251	20.5078	52.8645	20.5078	53.9291	20.5078	53.0722	20.5078	54.5236	20.5078	53.438	20.5078	55.0069	20.5078	53.9124	20.5078	55.3593	20.5078	54.4213	20.5078	55.5667	20.5078	54.8925	20.5078	55.6207	20.5078	55.2705	20.5078	55.5197
23.4375	51.5701	23.4375	52.0184	23.4375	51.288	23.4375	52.642	23.4375	51.1488	23.4375	53.4247	23.4375	51.1348	23.4375	54.3287	23.4375	51.2525	23.4375	55.3068	23.4375	51.5398	23.4375	56.314	23.4375	52.0528	23.4375	57.314	23.4375	52.8303	23.4375	58.2794	23.4375	53.8579	23.4375	59.19	23.4375	55.0636	23.4375	60.0307	23.4375	56.349	23.4375	60.7891	23.4375	57.6233	23.4375	61.4539	23.4375	58.8195	23.4375	62.0145	23.4375	59.8944	23.4375	62.4604	23.4375	60.8226	23.4375	62.7813	23.4375	61.5905	23.4375	62.9672	23.4375	62.1924	23.4375	63.0087	23.4375	62.6273	23.4375	62.8977
26.3672	60.588	26.3672	60.6371	26.3672	60.5919	26.3672	60.7599	26.3672	60.6312	26.3672	60.9748	26.3672	60.6958	26.3672	61.293	26.3672	60.7858	26.3672	61.7143	26.3672	60.9137	26.3672	62.227	26.3672	61.1031	26.3672	62.8105	26.3672	61.3842	26.3672	63.4392	26.3672	61.7833	26.3672	64.0862	26.3672	62.3107	26.3672	64.726	26.3672	62.9519	26.3672	65.3357	26.3672	63.6697	26.3672	65.8947	26.3672	64.4147	26.3672	66.3851	26.3672	65.1374	26.3672	66.7907	26.3672	65.7959	26.3672	67.0975	26.3672	66.3593	26.3672	67.2931	26.3672	66.8068	26.3672	67.3676	26.3672	67.1266	26.3672	67.3134
29.2969	63.9882	29.2969	64.0297	29.2969	63.9977	29.2969	64.1443	29.2969	64.0404	29.2969	64.353	29.2969	64.1074	29.2969	64.6694	29.2969	64.2017	29.2969	65.0952	29.2969	64.3393	29.2969	65.6193	29.2969	64.5478	29.2969	66.22	29.2969	64.8595	29.2969	66.8698	29.2969	65.2996	29.2969	67.54	29.2969	65.8731	29.2969	68.2036	29.2969	66.5584	29.2969	68.8366	29.2969	67.3119	29.2969	69.4179	29.2969	68.0811	29.2969	69.9294	29.2969	68.8163	29.2969	70.3552	29.2969	69.4774	29.2969	70.6812	29.2969	70.036	29.2969	70.8954	29.2969	70.4734	29.2969	70.9878	29.2969	70.7796	29.2969	70.9508
32.2266	69.8789	32.2266	69.8896	32.2266	69.9044	32.2266	69.9511	32.2266	69.9544	32.2266	70.0787	32.2266	70.0233	32.2266	70.2845	32.2266	70.1124	32.2266	70.5746	32.2266	70.2315	32.2266	70.9469	32.2266	70.3974	32.2266	71.3911	32.2266	70.6312	32.2266	71.8905	32.2266	70.9518	32.2266	72.4239	32.2266	71.3683	32.2266	72.9689	32.2266	71.8734	32.2266	73.5028	32.2266	72.4431	32.2266	74.0046	32.2266	73.0417	32.2266	74.4548	32.2266	73.6298	32.2266	74.836	32.2266	74.171	32.2266	75.1329	32.2266	74.6362	32.2266	75.3326	32.2266	75.0042	32.2266	75.4248	32.2266	75.2618	32.2266	75.4023
35.1563	74.3509	35.1563	74.3621	35.1563	74.3719	35.1563	74.417	35.1563	74.4167	35.1563	74.5274	35.1563	74.481	35.1563	74.7032	35.1563	74.5665	35.1563	74.9503	35.1563	74.6808	35.1563	75.2685	35.1563	74.8371	35.1563	75.6513	35.1563	75.052	35.1563	76.0863	35.1563	75.3402	35.1563	76.5567	35.1563	75.7091	35.1563	77.0434	35.1563	76.1537	35.1563	77.5259	35.1563	76.6552	35.1563	77.9844	35.1563	77.1846	35.1563	78.3997	35.1563	77.7079	35.1563	78.7546	35.1563	78.1927	35.1563	79.0336	35.1563	78.6114	35.1563	79.2237	35.1563	78.9434	35.1563	79.3146	35.1563	79.1752	35.1563	79.2995
38.0859	78.9851	38.0859	78.9949	38.0859	79.0056	38.0859	79.0425	38.0859	79.0504	38.0859	79.1363	38.0859	79.1168	38.0859	79.2835	38.0859	79.2061	38.0859	79.4887	38.0859	79.3235	38.0859	79.7527	38.0859	79.478	38.0859	80.0716	38.0859	79.6805	38.0859	80.4372	38.0859	79.9406	38.0859	80.8371	38.0859	80.2629	38.0859	81.2561	38.0859	80.6435	38.0859	81.6773	38.0859	81.0686	38.0859	82.0828	38.0859	81.5163	38.0859	82.4552	38.0859	81.9597	38.0859	82.7777	38.0859	82.3718	38.0859	83.0353	38.0859	82.7286	38.0859	83.2152	38.0859	83.0108	38.0859	83.3073	38.0859	83.2054	38.0859	83.3049
41.0156	83.1728	41.0156	83.1765	41.0156	83.1965	41.0156	83.2129	41.0156	83.2434	41.0156	83.2881	41.0156	83.3118	41.0156	83.4074	41.0156	83.4022	41.0156	83.5744	41.0156	83.5182	41.0156	83.7905	41.0156	83.6657	41.0156	84.0536	41.0156	83.8518	41.0156	84.3583	41.0156	84.0827	41.0156	84.6956	41.0156	84.3613	41.0156	85.0538	41.0156	84.6846	41.0156	85.4189	41.0156	85.0423	41.0156	85.7754	41.0156	85.418	41.0156	86.1074	41.0156	85.7903	41.0156	86.3993	41.0156	86.1369	41.0156	86.6365	41.0156	86.4369	41.0156	86.8066	41.0156	86.6731	41.0156	86.8996	41.0156	86.8329	41.0156	86.9092
43.9453	86.8778	43.9453	86.8719	43.9453	86.9093	43.9453	86.8953	43.9453	86.9635	43.9453	86.9524	43.9453	87.0387	43.9453	87.0468	43.9453	87.1351	43.9453	87.1815	43.9453	87.2545	43.9453	87.3576	43.9453	87.4001	43.9453	87.5741	43.9453	87.5757	43.9453	87.8273	43.9453	87.7848	43.9453	88.111	43.9453	88.0282	43.9453	88.4161	43.9453	88.3033	43.9453	88.7313	43.9453	88.6022	43.9453	89.0436	43.9453	88.9125	43.9453	89.3389	43.9453	89.218	43.9453	89.6029	43.9453	89.5009	43.9453	89.8222	43.9453	89.7439	43.9453	89.9847	43.9453	89.9324	43.9453	90.0812	43.9453	90.0551	43.9453	90.1054
46.875	89.6736	46.875	89.6642	46.875	89.7071	46.875	89.6815	46.875	89.7626	46.875	89.7284	46.875	89.8389	46.875	89.8073	46.875	89.9356	46.875	89.9203	46.875	90.0533	46.875	90.0682	46.875	90.1937	46.875	90.2504	46.875	90.3585	46.875	90.4644	46.875	90.549	46.875	90.7055	46.875	90.765	46.875	90.9668	46.875	91.0036	46.875	91.2394	46.875	91.2586	46.875	91.5124	46.875	91.5201	46.875	91.7736	46.875	91.7754	46.875	92.0103	46.875	92.0101	46.875	92.2102	46.875	92.21	46.875	92.3622	46.875	92.3624	46.875	92.4574	46.875	92.4577	46.875	92.49
49.8047	91.5102	49.8047	91.4972	49.8047	91.5462	49.8047	91.5089	49.8047	91.6037	49.8047	91.5469	49.8047	91.6816	49.8047	91.6128	49.8047	91.7793	49.8047	91.7077	49.8047	91.8965	49.8047	91.8323	49.8047	92.0334	49.8047	91.9858	49.8047	92.1901	49.8047	92.1666	49.8047	92.3663	49.8047	92.3713	49.8047	92.5607	49.8047	92.5948	49.8047	92.77	49.8047	92.8299	49.8047	92.9889	49.8047	93.068	49.8047	93.2094	49.8047	93.2988	49.8047	93.4213	49.8047	93.5113	49.8047	93.6133	49.8047	93.6943	49.8047	93.7737	49.8047	93.8377	49.8047	93.8923	49.8047	93.9332	49.8047	93.961	49.8047	93.9751
55.6641	92.9355	55.6641	92.9152	55.6641	92.9769	55.6641	92.9166	55.6641	93.0387	55.6641	92.9398	55.6641	93.1201	55.6641	92.985	55.6641	93.2198	55.6641	93.0522	55.6641	93.3363	55.6641	93.1412	55.6641	93.4678	55.6641	93.2513	55.6641	93.6123	55.6641	93.3815	55.6641	93.767	55.6641	93.5301	55.6641	93.9291	55.6641	93.6943	55.6641	94.0946	55.6641	93.87	55.6641	94.2589	55.6641	94.052	55.6641	94.4163	55.6641	94.2332	55.6641	94.5604	55.6641	94.4057	55.6641	94.6839	55.6641	94.561	55.6641	94.7797	55.6641	94.6908	55.6641	94.8416	55.6641	94.7879	55.6641	94.8648	55.6641	94.8468
58.5938	93.1081	58.5938	93.0832	58.5938	93.1533	58.5938	93.0788	58.5938	93.2184	58.5938	93.0946	58.5938	93.3025	58.5938	93.1305	58.5938	93.404	58.5938	93.1857	58.5938	93.5208	58.5938	93.2599	58.5938	93.6506	58.5938	93.3523	58.5938	93.7902	58.5938	93.4621	58.5938	93.9364	58.5938	93.5879	58.5938	94.0854	58.5938	93.7279	58.5938	94.2332	58.5938	93.8792	58.5938	94.3752	58.5938	94.0377	58.5938	94.5065	58.5938	94.1981	58.5938	94.6219	58.5938	94.3538	58.5938	94.7159	58.5938	94.4977	58.5938	94.7833	58.5938	94.6223	58.5938	94.8197	58.5938	94.721	58.5938	94.8219	58.5938	94.7887
61.5234	93.0518	61.5234	93.0242	61.5234	93.0991	61.5234	93.0162	61.5234	93.1658	61.5234	93.0272	61.5234	93.2509	61.5234	93.0565	61.5234	93.3527	61.5234	93.103	61.5234	93.4688	61.5234	93.1661	61.5234	93.596	61.5234	93.2447	61.5234	93.7309	61.5234	93.3382	61.5234	93.8695	61.5234	93.4457	61.5234	94.0076	61.5234	93.5657	61.5234	94.1408	61.5234	93.6963	61.5234	94.265	61.5234	93.8348	61.5234	94.3757	61.5234	93.977	61.5234	94.4686	61.5234	94.1177	61.5234	94.5396	61.5234	94.2508	61.5234	94.5848	61.5234	94.37	61.5234	94.6012	61.5234	94.4689	61.5234	94.5872	61.5234	94.5425
67.3828	92.9899	67.3828	92.9565	67.3828	93.0415	67.3828	92.9407	67.3828	93.1112	67.3828	92.9415	67.3828	93.1977	67.3828	92.9576	67.3828	93.2992	67.3828	92.9875	67.3828	93.4127	67.3828	93.03	67.3828	93.5345	67.3828	93.0841	67.3828	93.6602	67.3828	93.1491	67.3828	93.7851	67.3828	93.2245	67.3828	93.9044	67.3828	93.3102	67.3828	94.0135	67.3828	93.4057	67.3828	94.1081	67.3828	93.51	67.3828	94.1845	67.3828	93.6215	67.3828	94.2397	67.3828	93.7371	67.3828	94.2715	67.3828	93.8528	67.3828	94.2784	67.3828	93.9638	67.3828	94.2598	67.3828	94.0647	67.3828	94.2165	67.3828	94.1504
73.2422	93.0222	73.2422	92.9845	73.2422	93.0766	73.2422	92.9629	73.2422	93.1475	73.2422	92.9558	73.2422	93.2339	73.2422	92.9618	73.2422	93.3335	73.2422	92.9789	73.2422	93.4431	73.2422	93.0056	73.2422	93.5585	73.2422	93.0407	73.2422	93.6749	73.2422	93.0835	73.2422	93.7871	73.2422	93.1338	73.2422	93.8901	73.2422	93.1922	73.2422	93.9789	73.2422	93.2592	73.2422	94.0494	73.2422	93.3353	73.2422	94.0986	73.2422	93.4207	73.2422	94.1242	73.2422	93.5142	73.2422	94.1254	73.2422	93.6138	73.2422	94.1025	73.2422	93.7159	73.2422	94.057	73.2422	93.8162	73.2422	93.9915	73.2422	93.9097
76.1719	92.9893	76.1719	92.9499	76.1719	93.0452	76.1719	92.9261	76.1719	93.1174	76.1719	92.9165	76.1719	93.2046	76.1719	92.9193	76.1719	93.3045	76.1719	92.9325	76.1719	93.4137	76.1719	92.9543	76.1719	93.5278	76.1719	92.9833	76.1719	93.6418	76.1719	93.0188	76.1719	93.7503	76.1719	93.0607	76.1719	93.848	76.1719	93.1095	76.1719	93.9301	76.1719	93.1663	76.1719	93.9924	76.1719	93.2322	76.1719	94.0318	76.1719	93.3079	76.1719	94.0466	76.1719	93.3933	76.1719	94.0364	76.1719	93.4869	76.1719	94.0021	76.1719	93.586	76.1719	93.946	76.1719	93.6864	76.1719	93.8716	76.1719	93.7834
82.0313	93.0649	82.0313	93.0179	82.0313	93.1263	82.0313	92.9846	82.0313	93.2016	82.0313	92.9637	82.0313	93.2894	82.0313	92.9534	82.0313	93.3871	82.0313	92.9517	82.0313	93.4912	82.0313	92.9567	82.0313	93.5973	82.0313	92.9672	82.0313	93.7002	82.0313	92.9822	82.0313	93.7946	82.0313	93.0021	82.0313	93.8754	82.0313	93.0277	82.0313	93.9377	82.0313	93.0608	82.0313	93.9777	82.0313	93.1036	82.0313	93.9926	82.0313	93.1583	82.0313	93.9814	82.0313	93.2262	82.0313	93.9446	82.0313	93.3075	82.0313	93.8844	82.0313	93.4006	82.0313	93.8045	82.0313	93.5021	82.0313	93.7101	82.0313	93.6073
87.8906	93.2228	87.8906	93.1708	87.8906	93.2867	87.8906	93.1299	87.8906	93.362	87.8906	93.0985	87.8906	93.4472	87.8906	93.0746	87.8906	93.5397	87.8906	93.0558	87.8906	93.6355	87.8906	93.0403	87.8906	93.73	87.8906	93.0265	87.8906	93.8179	87.8906	93.014	87.8906	93.8938	87.8906	93.0035	87.8906	93.9523	87.8906	92.9968	87.8906	93.989	87.8906	92.9971	87.8906	94.0003	87.8906	93.0082	87.8906	93.9844	87.8906	93.034	87.8906	93.9411	87.8906	93.0779	87.8906	93.8721	87.8906	93.1417	87.8906	93.7812	87.8906	93.2252	87.8906	93.674	87.8906	93.3259	87.8906	93.5573	87.8906	93.4388
93.75	93.1204	93.75	93.0681	93.75	93.1874	93.75	93.0301	93.75	93.2686	93.75	93.0051	93.75	93.3622	93.75	92.9911	93.75	93.4651	93.75	92.9856	93.75	93.5736	93.75	92.9865	93.75	93.6829	93.75	92.9918	93.75	93.7877	93.75	93.0005	93.75	93.8824	93.75	93.0126	93.75	93.9615	93.75	93.0292	93.75	94.02	93.75	93.0526	93.75	94.0537	93.75	93.0857	93.75	94.0597	93.75	93.1316	93.75	94.0368	93.75	93.193	93.75	93.986	93.75	93.271	93.75	93.91	93.75	93.3652	93.75	93.8138	93.75	93.4723	93.75	93.7038	93.75	93.5875
102.539	93.386	102.539	93.3294	102.539	93.4538	102.539	93.2839	102.539	93.5319	102.539	93.2484	102.539	93.6183	102.539	93.221	102.539	93.71	102.539	93.1993	102.539	93.8031	102.539	93.1812	102.539	93.8933	102.539	93.1647	102.539	93.9757	102.539	93.1489	102.539	94.0454	102.539	93.134	102.539	94.0976	102.539	93.1218	102.539	94.1278	102.539	93.115	102.539	94.1327	102.539	93.1179	102.539	94.1101	102.539	93.135	102.539	94.0595	102.539	93.1705	102.539	93.9827	102.539	93.2275	102.539	93.8837	102.539	93.3066	102.539	93.7684	102.539	93.4061	102.539	93.6447	102.539	93.5211
108.398	93.5027	108.398	93.4378	108.398	93.5774	108.398	93.3832	108.398	93.6608	108.398	93.338	108.398	93.7503	108.398	93.3009	108.398	93.843	108.398	93.2699	108.398	93.9351	108.398	93.2429	108.398	94.0223	108.398	93.2183	108.398	94.1002	108.398	93.1952	108.398	94.1643	108.398	93.174	108.398	94.21	108.398	93.1563	108.398	94.2332	108.398	93.1452	108.398	94.2308	108.398	93.145	108.398	94.2006	108.398	93.1604	108.398	94.1421	108.398	93.1957	108.398	94.0572	108.398	93.2542	108.398	93.9496	108.398	93.3367	108.398	93.8259	108.398	93.4412	108.398	93.6939	108.398	93.5628
117.188	93.8366	117.188	93.7659	117.188	93.9138	117.188	93.7023	117.188	93.9956	117.188	93.6458	117.188	94.0798	117.188	93.5955	117.188	94.1633	117.188	93.5501	117.188	94.2427	117.188	93.5083	117.188	94.3146	117.188	93.4688	117.188	94.3752	117.188	93.4315	117.188	94.421	117.188	93.397	117.188	94.4486	117.188	93.3672	117.188	94.4547	117.188	93.3455	117.188	94.4368	117.188	93.3361	117.188	94.3933	117.188	93.3436	117.188	94.324	117.188	93.3723	117.188	94.2307	117.188	93.4253	117.188	94.1172	117.188	93.5035	117.188	93.9896	117.188	93.6049	117.188	93.8558	117.188	93.7247
125.977	93.942	125.977	93.8712	125.977	94.0179	125.977	93.8065	125.977	94.0973	125.977	93.7476	125.977	94.1775	125.977	93.6931	125.977	94.2552	125.977	93.6414	125.977	94.3269	125.977	93.5907	125.977	94.3889	125.977	93.5396	125.977	94.4377	125.977	93.4876	125.977	94.4699	125.977	93.4358	125.977	94.4824	125.977	93.3865	125.977	94.4722	125.977	93.3438	125.977	94.4371	125.977	93.3129	125.977	94.376	125.977	93.2997	125.977	94.2892	125.977	93.3096	125.977	94.1788	125.977	93.3471	125.977	94.0497	125.977	93.4142	125.977	93.909	125.977	93.5098	125.977	93.7656	125.977	93.6294
134.766	93.9924	134.766	93.9086	134.766	94.0802	134.766	93.8307	134.766	94.1692	134.766	93.7592	134.766	94.256	134.766	93.6938	134.766	94.337	134.766	93.6333	134.766	94.4085	134.766	93.5764	134.766	94.4673	134.766	93.5217	134.766	94.5104	134.766	93.4688	134.766	94.5354	134.766	93.4187	134.766	94.5402	134.766	93.3735	134.766	94.5229	134.766	93.3369	134.766	94.482	134.766	93.3134	134.766	94.4168	134.766	93.3082	134.766	94.3275	134.766	93.3262	134.766	94.2163	134.766	93.371	134.766	94.0872	134.766	93.444	134.766	93.9468	134.766	93.5439	134.766	93.8033	134.766	93.666
143.555	94.132	143.555	94.0349	143.555	94.2301	143.555	93.9414	143.555	94.3259	143.555	93.8528	143.555	94.4157	143.555	93.7693	143.555	94.4956	143.555	93.6906	143.555	94.5623	143.555	93.6157	143.555	94.6128	143.555	93.544	143.555	94.6447	143.555	93.4758	143.555	94.6565	143.555	93.4125	143.555	94.6468	143.555	93.3567	143.555	94.6145	143.555	93.3125	143.555	94.5589	143.555	93.2846	143.555	94.4795	143.555	93.2781	143.555	94.3768	143.555	93.2973	143.555	94.2529	143.555	93.3456	143.555	94.1121	143.555	93.4239	143.555	93.9607	143.555	93.5306	143.555	93.8071	143.555	93.6607
155.273	94.2286	155.273	94.12	155.273	94.3348	155.273	94.0126	155.273	94.4347	155.273	93.9086	155.273	94.5239	155.273	93.809	155.273	94.5984	155.273	93.7141	155.273	94.655	155.273	93.6237	155.273	94.6913	155.273	93.5377	155.273	94.7061	155.273	93.4569	155.273	94.6991	155.273	93.3833	155.273	94.6705	155.273	93.3201	155.273	94.6208	155.273	93.2713	155.273	94.5501	155.273	93.2415	155.273	94.459	155.273	93.2353	155.273	94.3481	155.273	93.2561	155.273	94.2192	155.273	93.3064	155.273	94.0758	155.273	93.3864	155.273	93.9236	155.273	93.4938	155.273	93.7701	155.273	93.6241
164.063	94.3822	164.063	94.2644	164.063	94.4945	164.063	94.1449	164.063	94.5968	164.063	94.0265	164.063	94.6848	164.063	93.9111	164.063	94.7545	164.063	93.7994	164.063	94.8027	164.063	93.6921	164.063	94.8278	164.063	93.59	164.063	94.8289	164.063	93.4946	164.063	94.8065	164.063	93.4086	164.063	94.7617	164.063	93.3356	164.063	94.6956	164.063	93.28	164.063	94.6095	164.063	93.2462	164.063	94.5043	164.063	93.2381	164.063	94.3813	164.063	93.2585	164.063	94.2424	164.063	93.309	164.063	94.0914	164.063	93.3893	164.063	93.9337	164.063	93.4974	164.063	93.7767	164.063	93.6287
175.781	94.0238	175.781	93.9	175.781	94.1418	175.781	93.775	175.781	94.2492	175.781	93.6517	175.781	94.3411	175.781	93.5321	175.781	94.4134	175.781	93.4168	175.781	94.4631	175.781	93.3061	175.781	94.4887	175.781	93.2005	175.781	94.4898	175.781	93.1015	175.781	94.4674	175.781	93.0122	175.781	94.4226	175.781	92.9365	175.781	94.3569	175.781	92.8793	175.781	94.2711	175.781	92.8454	175.781	94.1655	175.781	92.8385	175.781	94.0406	175.781	92.8617	175.781	93.8979	175.781	92.9161	175.781	93.741	175.781	93.0015	175.781	93.5759	175.781	93.1158	175.781	93.4107	175.781	93.2544
190.43	93.8529	190.43	93.7168	190.43	93.976	190.43	93.5727	190.43	94.0814	190.43	93.4251	190.43	94.1653	190.43	93.278	190.43	94.2252	190.43	93.1346	190.43	94.2607	190.43	92.9979	190.43	94.2729	190.43	92.8713	190.43	94.265	190.43	92.7587	190.43	94.2407	190.43	92.6649	190.43	94.2036	190.43	92.5954	190.43	94.1556	190.43	92.5548	190.43	94.0963	190.43	92.547	190.43	94.0226	190.43	92.5741	190.43	93.9303	190.43	92.6361	190.43	93.8158	190.43	92.7316	190.43	93.678	190.43	92.8572	190.43	93.5201	190.43	93.0074	190.43	93.349	190.43	93.1746
202.148	93.6498	202.148	93.5398	202.148	93.7417	202.148	93.4158	202.148	93.811	202.148	93.2814	202.148	93.854	202.148	93.1396	202.148	93.8684	202.148	92.9934	202.148	93.854	202.148	92.846	202.148	93.8133	202.148	92.7024	202.148	93.7518	202.148	92.5691	202.148	93.6772	202.148	92.4539	202.148	93.5983	202.148	92.3653	202.148	93.5222	202.148	92.3104	202.148	93.4528	202.148	92.2934	202.148	93.3888	202.148	92.3149	202.148	93.3248	202.148	92.3721	202.148	93.2533	202.148	92.4591	202.148	93.1682	202.148	92.5686	202.148	93.0664	202.148	92.6925	202.148	92.9494	202.148	92.8223
216.797	93.3033	216.797	93.1902	216.797	93.4023	216.797	93.0697	216.797	93.4791	216.797	92.947	216.797	93.5263	216.797	92.8247	216.797	93.5378	216.797	92.7043	216.797	93.5109	216.797	92.5871	216.797	93.4469	216.797	92.4752	216.797	93.3519	216.797	92.3727	216.797	93.2368	216.797	92.2855	216.797	93.1158	216.797	92.2199	216.797	93.0029	216.797	92.1813	216.797	92.909	216.797	92.1722	216.797	92.838	216.797	92.1919	216.797	92.7863	216.797	92.2361	216.797	92.7449	216.797	92.2985	216.797	92.7038	216.797	92.3721	216.797	92.6554	216.797	92.4501	216.797	92.5961	216.797	92.5265
234.375	92.8111	234.375	92.6541	234.375	92.9576	234.375	92.4967	234.375	93.082	234.375	92.3461	234.375	93.1735	234.375	92.2056	234.375	93.2232	234.375	92.076	234.375	93.2261	234.375	91.9572	234.375	93.1814	234.375	91.8496	234.375	93.0932	234.375	91.756	234.375	92.97	234.375	91.6807	234.375	92.8235	234.375	91.628	234.375	92.6665	234.375	91.6002	234.375	92.5103	234.375	91.5956	234.375	92.3627	234.375	91.6091	234.375	92.2272	234.375	91.6336	234.375	92.1049	234.375	91.6627	234.375	91.9967	234.375	91.6937	234.375	91.9043	234.375	91.7284	234.375	91.8293	234.375	91.7718
249.023	92.6516	249.023	92.3991	249.023	92.8724	249.023	92.1325	249.023	93.0461	249.023	91.8696	249.023	93.1613	249.023	91.6261	249.023	93.2117	249.023	91.4137	249.023	93.1964	249.023	91.24	249.023	93.1202	249.023	91.1093	249.023	92.9941	249.023	91.0239	249.023	92.835	249.023	90.9842	249.023	92.6638	249.023	90.9884	249.023	92.5014	249.023	91.0315	249.023	92.3633	249.023	91.1055	249.023	92.2548	249.023	91.2003	249.023	92.1705	249.023	91.3063	249.023	92.0977	249.023	91.4162	249.023	92.0234	249.023	91.5262	249.023	91.9397	249.023	91.6351	249.023	91.845	249.023	91.7422
266.602	92.7071	266.602	92.4447	266.602	92.9161	266.602	92.1398	266.602	93.0635	266.602	91.8062	266.602	93.1444	266.602	91.4603	266.602	93.1577	266.602	91.1214	266.602	93.1065	266.602	90.8117	266.602	92.999	266.602	90.5558	266.602	92.8492	266.602	90.3769	266.602	92.6767	266.602	90.2916	266.602	92.5044	266.602	90.3043	266.602	92.354	266.602	90.4044	266.602	92.2389	266.602	90.5693	266.602	92.1599	266.602	90.7708	266.602	92.1051	266.602	90.983	266.602	92.0564	266.602	91.1874	266.602	91.9968	266.602	91.3742	266.602	91.9164	266.602	91.5404	266.602	91.8124	266.602	91.6865
287.109	92.8839	287.109	92.7037	287.109	93.0138	287.109	92.4816	287.109	93.0838	287.109	92.2242	287.109	93.0848	287.109	91.9365	287.109	93.0104	287.109	91.6244	287.109	92.8588	287.109	91.2982	287.109	92.6351	287.109	90.9763	287.109	92.3548	287.109	90.6865	287.109	92.0467	287.109	90.4623	287.109	91.7526	287.109	90.3336	287.109	91.5196	287.109	90.3157	287.109	91.3844	287.109	90.4016	287.109	91.3551	287.109	90.5655	287.109	91.4064	287.109	90.7729	287.109	91.4927	287.109	90.991	287.109	91.5682	287.109	91.195	287.109	91.6016	287.109	91.3682	287.109	91.5789	287.109	91.4991
307.617	92.6169	307.617	92.3696	307.617	92.8078	307.617	92.082	307.617	92.9277	307.617	91.7692	307.617	92.9643	307.617	91.4447	307.617	92.9088	307.617	91.1209	307.617	92.7564	307.617	90.8119	307.617	92.5086	307.617	90.5359	307.617	92.1756	307.617	90.3168	307.617	91.7817	307.617	90.1798	307.617	91.3693	307.617	90.1432	307.617	90.9988	307.617	90.2091	307.617	90.7346	307.617	90.3606	307.617	90.6193	307.617	90.5657	307.617	90.651	307.617	90.7871	307.617	90.7851	307.617	90.9907	307.617	90.9596	307.617	91.1503	307.617	91.1205	307.617	91.2488	307.617	91.2322	307.617	91.2768
331.055	92.6265	331.055	92.3484	331.055	92.8358	331.055	92.0147	331.055	92.963	331.055	91.6378	331.055	92.997	331.055	91.2291	331.055	92.9293	331.055	90.8008	331.055	92.7548	331.055	90.3716	331.055	92.473	331.055	89.9723	331.055	92.0921	331.055	89.6463	331.055	91.6341	331.055	89.4418	331.055	91.1417	331.055	89.3924	331.055	90.681	331.055	89.4987	331.055	90.3294	331.055	89.7244	331.055	90.1454	331.055	90.0115	331.055	90.1366	331.055	90.3013	331.055	90.2574	331.055	90.5482	331.055	90.4383	331.055	90.7242	331.055	90.6176	331.055	90.8168	331.055	90.7541	331.055	90.8248
354.492	92.5904	354.492	92.3304	354.492	92.7755	354.492	92.0029	354.492	92.8761	354.492	91.6119	354.492	92.8822	354.492	91.1583	354.492	92.7846	354.492	90.6446	354.492	92.5761	354.492	90.0836	354.492	92.2529	354.492	89.509	354.492	91.8181	354.492	88.9836	354.492	91.2879	354.492	88.5936	354.492	90.7003	354.492	88.4182	354.492	90.1213	354.492	88.4839	354.492	89.6389	354.492	88.7438	354.492	89.3333	354.492	89.1046	354.492	89.2359	354.492	89.4707	354.492	89.3133	354.492	89.7719	354.492	89.4939	354.492	89.9689	354.492	89.7054	354.492	90.0485	354.492	89.8928	354.492	90.0167
377.93	92.652	377.93	92.4216	377.93	92.8181	377.93	92.1342	377.93	92.9078	377.93	91.7897	377.93	92.9078	377.93	91.3809	377.93	92.8051	377.93	90.8984	377.93	92.5882	377.93	90.3417	377.93	92.2482	377.93	89.7323	377.93	91.7822	377.93	89.1265	377.93	91.2	377.93	88.6187	377.93	90.5362	377.93	88.3165	377.93	89.8623	377.93	88.2848	377.93	89.2876	377.93	88.4994	377.93	88.926	377.93	88.8615	377.93	88.8313	377.93	89.2559	377.93	88.9622	377.93	89.5933	377.93	89.2179	377.93	89.8211	377.93	89.499	377.93	89.9179	377.93	89.7356	377.93	89.8843
407.227	92.2069	407.227	91.9409	407.227	92.416	407.227	91.6329	407.227	92.5481	407.227	91.286	407.227	92.5841	407.227	90.8894	407.227	92.5074	407.227	90.4239	407.227	92.3043	407.227	89.876	407.227	91.963	407.227	89.2561	407.227	91.4753	407.227	88.6171	407.227	90.8431	407.227	88.0635	407.227	90.0904	407.227	87.7278	407.227	89.2819	407.227	87.6993	407.227	88.5364	407.227	87.9552	407.227	88.0085	407.227	88.3755	407.227	87.812	407.227	88.8192	407.227	87.9387	407.227	89.1799	407.227	88.2738	407.227	89.3959	407.227	88.6798	407.227	89.4419	407.227	89.0513	407.227	89.3195
436.523	92.2509	436.523	91.9866	436.523	92.4569	436.523	91.6813	436.523	92.5822	436.523	91.3378	436.523	92.6073	436.523	90.9399	436.523	92.5175	436.523	90.4584	436.523	92.302	436.523	89.8677	436.523	91.9526	436.523	89.1677	436.523	91.4635	436.523	88.4088	436.523	90.8363	436.523	87.712	436.523	90.0887	436.523	87.2544	436.523	89.2667	436.523	87.1763	436.523	88.4559	436.523	87.4632	436.523	87.7772	436.523	87.954	436.523	87.3544	436.523	88.4596	436.523	87.257	436.523	88.8429	436.523	87.4623	436.523	89.0289	436.523	87.8677	436.523	88.991	436.523	88.337	436.523	88.7426
465.82	92.1068	465.82	91.8706	465.82	92.301	465.82	91.617	465.82	92.421	465.82	91.3469	465.82	92.4404	465.82	91.0302	465.82	92.3413	465.82	90.6165	465.82	92.1121	465.82	90.0565	465.82	91.7438	465.82	89.3274	465.82	91.2296	465.82	88.4585	465.82	90.5702	465.82	87.5621	465.82	89.7848	465.82	86.8484	465.82	88.9255	465.82	86.5473	465.82	88.0854	465.82	86.722	465.82	87.3858	465.82	87.2013	465.82	86.9319	465.82	87.7369	465.82	86.7706	465.82	88.1469	465.82	86.8838	465.82	88.3394	465.82	87.2046	465.82	88.29	465.82	87.6278	465.82	88.0275
500.977	91.501	500.977	91.156	500.977	91.8042	500.977	90.8387	500.977	92.0098	500.977	90.5942	500.977	92.0885	500.977	90.4061	500.977	92.0312	500.977	90.2	500.977	91.837	500.977	89.885	500.977	91.5041	500.977	89.3978	500.977	91.0275	500.977	88.7297	500.977	90.403	500.977	87.9478	500.977	89.6371	500.977	87.2107	500.977	88.7605	500.977	86.7398	500.977	87.8442	500.977	86.6874	500.977	87.0098	500.977	87.0015	500.977	86.4183	500.977	87.4761	500.977	86.2103	500.977	87.9058	500.977	86.4111	500.977	88.1566	500.977	86.8938	500.977	88.1632	500.977	87.4546	500.977	87.9146
536.133	91.5674	536.133	91.1756	536.133	91.7915	536.133	90.6604	536.133	91.8293	536.133	90.095	536.133	91.6761	536.133	89.559	536.133	91.3335	536.133	89.0894	536.133	90.8098	536.133	88.6466	536.133	90.1282	536.133	88.1408	536.133	89.3444	536.133	87.498	536.133	88.5618	536.133	86.7285	536.133	87.9122	536.133	85.9876	536.133	87.4675	536.133	85.581	536.133	87.1511	536.133	85.7623	536.133	86.7896	536.133	86.4419	536.133	86.2835	536.133	87.2806	536.133	85.7788	536.133	87.9829	536.133	85.6852	536.133	88.379	536.133	86.2504	536.133	88.3808	536.133	87.1635	536.133	87.9561
574.219	92.2909	574.219	91.8672	574.219	92.5164	574.219	91.2743	574.219	92.546	574.219	90.5933	574.219	92.3915	574.219	89.9527	574.219	92.0627	574.219	89.4635	574.219	91.5647	574.219	89.1272	574.219	90.9017	574.219	88.8273	574.219	90.0883	574.219	88.4194	574.219	89.1669	574.219	87.8165	574.219	88.2239	574.219	87.0314	574.219	87.3741	574.219	86.2053	574.219	86.6818	574.219	85.6033	574.219	86.0896	574.219	85.4631	574.219	85.4865	574.219	85.7515	574.219	84.8919	574.219	86.1886	574.219	84.5686	574.219	86.4887	574.219	84.7962	574.219	86.4787	574.219	85.4446	574.219	86.1022
615.234	91.9399	615.234	91.6158	615.234	92.0812	615.234	91.1158	615.234	92.0399	615.234	90.4728	615.234	91.8166	615.234	89.7658	615.234	91.4109	615.234	89.1127	615.234	90.8218	615.234	88.6023	615.234	90.0478	615.234	88.2104	615.234	89.097	615.234	87.8091	615.234	88.0147	615.234	87.2658	615.234	86.9275	615.234	86.5417	615.234	86.0445	615.234	85.7641	615.234	85.5146	615.234	85.2542	615.234	85.2551	615.234	85.3286	615.234	85.0684	615.234	85.9221	615.234	84.9224	615.234	86.645	615.234	85.0257	615.234	87.1542	615.234	85.5482	615.234	87.2763	615.234	86.3136	615.234	86.9694
659.18	91.7407	659.18	91.4548	659.18	91.836	659.18	90.9701	659.18	91.7521	659.18	90.3007	659.18	91.4998	659.18	89.518	659.18	91.0921	659.18	88.7666	659.18	90.5439	659.18	88.1987	659.18	89.872	659.18	87.8335	659.18	89.1004	659.18	87.5194	659.18	88.268	659.18	87.0666	659.18	87.4205	659.18	86.3854	659.18	86.5738	659.18	85.5715	659.18	85.6771	659.18	84.9577	659.18	84.6707	659.18	84.9473	659.18	83.6995	659.18	85.5485	659.18	83.3214	659.18	86.349	659.18	83.9799	659.18	86.9661	659.18	85.2057	659.18	87.2083	659.18	86.3121	659.18	86.9986
706.055	92.357	706.055	92.0967	706.055	92.3932	706.055	91.6103	706.055	92.2038	706.055	90.884	706.055	91.7985	706.055	89.9137	706.055	91.2043	706.055	88.7683	706.055	90.4633	706.055	87.6632	706.055	89.6297	706.055	86.9018	706.055	88.7672	706.055	86.574	706.055	87.9349	706.055	86.4168	706.055	87.1436	706.055	86.1087	706.055	86.307	706.055	85.5344	706.055	85.2715	706.055	84.8848	706.055	83.988	706.055	84.6447	706.055	82.8621	706.055	85.1478	706.055	82.8334	706.055	86.0873	706.055	84.0331	706.055	86.9297	706.055	85.5101	706.055	87.3639	706.055	86.6492	706.055	87.2775
758.789	93.5299	758.789	93.2257	758.789	93.5672	758.789	92.6844	758.789	93.3351	758.789	91.9522	758.789	92.8527	758.789	91.0727	758.789	92.1477	758.789	90.0885	758.789	91.25	758.789	89.0736	758.789	90.1988	758.789	88.1434	758.789	89.0671	758.789	87.3731	758.789	87.9878	758.789	86.6923	758.789	87.1092	758.789	85.9289	758.789	86.4175	758.789	85.0063	758.789	85.6286	758.789	84.1973	758.789	84.3787	758.789	84.1766	758.789	82.6819	758.789	85.1846	758.789	81.8505	758.789	86.5453	758.789	83.3268	758.789	87.6132	758.789	85.5193	758.789	88.1234	758.789	87.1341	758.789	87.9844
811.523	93.9728	811.523	93.7437	811.523	93.8628	811.523	93.1812	811.523	93.4524	811.523	92.3466	811.523	92.8044	811.523	91.3447	811.523	91.983	811.523	90.285	811.523	91.0319	811.523	89.257	811.523	89.9637	811.523	88.3547	811.523	88.7754	811.523	87.6687	811.523	87.5013	811.523	87.1755	811.523	86.2828	811.523	86.6784	811.523	85.3431	811.523	85.9476	811.523	84.6949	811.523	84.9604	811.523	83.9011	811.523	84.2056	811.523	82.3865	811.523	84.5542	811.523	80.509	811.523	85.9134	811.523	81.4571	811.523	87.3106	811.523	84.6475	811.523	88.1282	811.523	86.9955	811.523	88.0924
870.117	93.6814	870.117	93.6789	870.117	93.3821	870.117	93.3231	870.117	92.8376	870.117	92.5961	870.117	92.0936	870.117	91.5335	870.117	91.1868	870.117	90.2281	870.117	90.1416	870.117	88.8458	870.117	88.9544	870.117	87.6605	870.117	87.6008	870.117	86.9629	870.117	86.1273	870.117	86.7337	870.117	84.8364	870.117	86.5772	870.117	84.2253	870.117	86.0906	870.117	84.1989	870.117	85.1517	870.117	83.8777	870.117	84.1738	870.117	82.3538	870.117	84.1845	870.117	79.1304	870.117	85.4139	870.117	78.2431	870.117	86.8015	870.117	82.6496	870.117	87.5588	870.117	85.8333	870.117	87.3333
931.641	93.2886	931.641	93.525	931.641	92.7223	931.641	93.3916	931.641	91.8615	931.641	92.8392	931.641	90.7876	931.641	91.8689	931.641	89.6466	931.641	90.5997	931.641	88.5861	931.641	89.2543	931.641	87.6381	931.641	88.0232	931.641	86.6606	931.641	86.97	931.641	85.4002	931.641	86.1201	931.641	83.7073	931.641	85.4871	931.641	82.1168	931.641	84.9382	931.641	81.9627	931.641	84.2533	931.641	82.5961	931.641	83.4989	931.641	82.0568	931.641	83.3436	931.641	79.2171	931.641	84.2729	931.641	76.1755	931.641	85.5491	931.641	80.5135	931.641	86.2647	931.641	84.2187	931.641	85.9448
999.023	93.3055	999.023	93.5839	999.023	92.5291	999.023	93.3874	999.023	91.3456	999.023	92.7593	999.023	89.946	999.023	91.6913	999.023	88.5316	999.023	90.2143	999.023	87.2912	999.023	88.5961	999.023	86.4047	999.023	87.3388	999.023	85.8834	999.023	86.6442	999.023	85.3883	999.023	86.1517	999.023	84.3343	999.023	85.5209	999.023	82.2315	999.023	84.7547	999.023	79.8038	999.023	84.0656	999.023	79.9247	999.023	83.6874	999.023	80.6878	999.023	83.829	999.023	79.1764	999.023	84.5085	999.023	76.2461	999.023	85.3082	999.023	79.2763	999.023	85.6375	999.023	83.0968	999.023	85.0422
1,072.27	93.0929	1,072.27	93.4441	1,072.27	92.2688	1,072.27	93.2811	1,072.27	91.0553	1,072.27	92.621	1,072.27	89.6199	1,072.27	91.5767	1,072.27	88.1835	1,072.27	90.2542	1,072.27	86.8903	1,072.27	88.555	1,072.27	85.7847	1,072.27	86.3249	1,072.27	84.8875	1,072.27	84.2605	1,072.27	84.1128	1,072.27	84.1565	1,072.27	83.1213	1,072.27	85.1835	1,072.27	81.5222	1,072.27	85.4963	1,072.27	79.5778	1,072.27	84.5912	1,072.27	78.5082	1,072.27	82.6034	1,072.27	77.7856	1,072.27	81.0718	1,072.27	75.6807	1,072.27	82.5538	1,072.27	74.8637	1,072.27	84.7733	1,072.27	78.9427	1,072.27	85.6745	1,072.27	82.6831	1,072.27	84.9566
1,148.44	92.6655	1,148.44	93.1905	1,148.44	91.7066	1,148.44	93.3615	1,148.44	90.2709	1,148.44	92.9662	1,148.44	88.6343	1,148.44	91.7335	1,148.44	87.21	1,148.44	89.847	1,148.44	86.1808	1,148.44	88.0289	1,148.44	85.458	1,148.44	86.3224	1,148.44	84.8529	1,148.44	83.511	1,148.44	84.1133	1,148.44	78.0896	1,148.44	82.8403	1,148.44	75.5618	1,148.44	80.6594	1,148.44	81.1393	1,148.44	78.7089	1,148.44	83.9053	1,148.44	79.4776	1,148.44	84.4929	1,148.44	79.6167	1,148.44	83.5895	1,148.44	75.3189	1,148.44	82.4502	1,148.44	69.9495	1,148.44	82.9465	1,148.44	79.3159	1,148.44	83.9816	1,148.44	82.7154	1,148.44	83.9815
1,230.47	93.4816	1,230.47	93.5698	1,230.47	92.594	1,230.47	93.1222	1,230.47	91.0652	1,230.47	92.5198	1,230.47	89.2443	1,230.47	91.5451	1,230.47	87.5049	1,230.47	89.6933	1,230.47	86.1846	1,230.47	87.1501	1,230.47	85.3582	1,230.47	85.4081	1,230.47	85.0913	1,230.47	85.0274	1,230.47	85.3738	1,230.47	84.1593	1,230.47	85.4344	1,230.47	81.3254	1,230.47	84.0571	1,230.47	75.7988	1,230.47	80.1585	1,230.47	76.4806	1,230.47	78.6284	1,230.47	80.9723	1,230.47	81.8223	1,230.47	83.23	1,230.47	80.7111	1,230.47	84.3446	1,230.47	69.5679	1,230.47	85.0592	1,230.47	78.1964	1,230.47	85.5216	1,230.47	83.8125	1,230.47	85.396
1,318.36	93.9601	1,318.36	94.1084	1,318.36	92.9093	1,318.36	93.4063	1,318.36	91.2093	1,318.36	92.3641	1,318.36	89.0734	1,318.36	91.1752	1,318.36	87.0057	1,318.36	89.2089	1,318.36	85.8636	1,318.36	86.0133	1,318.36	85.2553	1,318.36	82.5564	1,318.36	84.4155	1,318.36	81.1246	1,318.36	83.7308	1,318.36	80.5694	1,318.36	83.5965	1,318.36	78.6555	1,318.36	82.6414	1,318.36	74.7283	1,318.36	78.2975	1,318.36	74.3146	1,318.36	75.0041	1,318.36	78.4894	1,318.36	81.5153	1,318.36	81.3625	1,318.36	81.8755	1,318.36	83.327	1,318.36	75.087	1,318.36	84.8263	1,318.36	78.5438	1,318.36	85.7341	1,318.36	84.2018	1,318.36	85.7786
1,415.04	94.0889	1,415.04	94.5627	1,415.04	92.6784	1,415.04	93.8534	1,415.04	90.2577	1,415.04	92.0052	1,415.04	86.7755	1,415.04	90.0707	1,415.04	84.0299	1,415.04	88.9101	1,415.04	84.182	1,415.04	87.2716	1,415.04	84.8728	1,415.04	83.6957	1,415.04	84.85	1,415.04	78.1681	1,415.04	84.3962	1,415.04	79.3059	1,415.04	84.6955	1,415.04	81.4311	1,415.04	85.5785	1,415.04	80.177	1,415.04	84.5463	1,415.04	74.8325	1,415.04	77.5103	1,415.04	59.2254	1,415.04	77.376	1,415.04	77.7465	1,415.04	84.2543	1,415.04	83.1978	1,415.04	83.8738	1,415.04	85.4892	1,415.04	81.2164	1,415.04	86.2707	1,415.04	84.018	1,415.04	86.0688
1,514.65	94.3619	1,514.65	95.2756	1,514.65	92.232	1,514.65	95.0654	1,514.65	88.6013	1,514.65	93.5966	1,514.65	83.7749	1,514.65	90.8251	1,514.65	82.3271	1,514.65	87.5628	1,514.65	84.3312	1,514.65	85.2796	1,514.65	85.4057	1,514.65	82.9451	1,514.65	85.4558	1,514.65	78.467	1,514.65	84.8374	1,514.65	69.2092	1,514.65	83.8672	1,514.65	66.0901	1,514.65	83.9132	1,514.65	73.7755	1,514.65	85.0513	1,514.65	76.5894	1,514.65	84.1775	1,514.65	75.871	1,514.65	76.9999	1,514.65	68.1033	1,514.65	74.8259	1,514.65	74.8969	1,514.65	81.3279	1,514.65	81.3742	1,514.65	77.7367	1,514.65	83.7842	1,514.65	76.8242	1,514.65	83.0496
1,623.05	95.4579	1,623.05	96.0166	1,623.05	93.5568	1,623.05	95.6361	1,623.05	89.7002	1,623.05	94.3116	1,623.05	83.768	1,623.05	91.6219	1,623.05	83.6425	1,623.05	87.1775	1,623.05	86.6367	1,623.05	81.6755	1,623.05	87.6385	1,623.05	77.9884	1,623.05	87.5564	1,623.05	75.9684	1,623.05	87.1478	1,623.05	74.3525	1,623.05	86.2715	1,623.05	71.6516	1,623.05	84.5958	1,623.05	63.312	1,623.05	83.8895	1,623.05	67.2125	1,623.05	84.3186	1,623.05	72.0876	1,623.05	81.5897	1,623.05	68.8478	1,623.05	69.032	1,623.05	67.9435	1,623.05	75.5077	1,623.05	77.8385	1,623.05	73.1195	1,623.05	81.3228	1,623.05	72.1321	1,623.05	80.6227
1,740.23	97.5947	1,740.23	97.5135	1,740.23	96.1052	1,740.23	95.968	1,740.23	92.6347	1,740.23	93.2353	1,740.23	86.2246	1,740.23	89.6316	1,740.23	84.3792	1,740.23	84.8851	1,740.23	88.2068	1,740.23	78.8852	1,740.23	89.1194	1,740.23	71.9859	1,740.23	88.3344	1,740.23	67.8965	1,740.23	87.495	1,740.23	70.2578	1,740.23	87.263	1,740.23	71.1686	1,740.23	86.1752	1,740.23	71.7746	1,740.23	84.6752	1,740.23	67.3573	1,740.23	85.3234	1,740.23	58.4971	1,740.23	83.9026	1,740.23	68.5516	1,740.23	74.9527	1,740.23	63.4281	1,740.23	73.1408	1,740.23	72.7566	1,740.23	69.9518	1,740.23	79.5086	1,740.23	74.2359	1,740.23	80.6477
1,866.21	96.2471	1,866.21	95.5059	1,866.21	95.2245	1,866.21	93.3217	1,866.21	91.7504	1,866.21	89.7708	1,866.21	83.4142	1,866.21	84.918	1,866.21	80.9097	1,866.21	80.4274	1,866.21	87.8608	1,866.21	79.5639	1,866.21	89.4055	1,866.21	80.017	1,866.21	88.6048	1,866.21	80.2486	1,866.21	87.0476	1,866.21	80.4115	1,866.21	86.304	1,866.21	80.2705	1,866.21	85.3476	1,866.21	79.1458	1,866.21	82.8832	1,866.21	77.0166	1,866.21	82.1413	1,866.21	75.873	1,866.21	82.061	1,866.21	75.744	1,866.21	78.815	1,866.21	72.8075	1,866.21	74.9758	1,866.21	70.8165	1,866.21	69.9604	1,866.21	77.3995	1,866.21	75.7561	1,866.21	79.3052
2,000.98	95.3413	2,000.98	95.0532	2,000.98	93.7977	2,000.98	93.0525	2,000.98	89.8587	2,000.98	89.5814	2,000.98	84.5117	2,000.98	85.9039	2,000.98	87.9336	2,000.98	84.2783	2,000.98	90.8316	2,000.98	84.2321	2,000.98	91.1572	2,000.98	83.7749	2,000.98	89.6353	2,000.98	82.6927	2,000.98	87.3631	2,000.98	81.9825	2,000.98	86.5033	2,000.98	81.6235	2,000.98	86.0109	2,000.98	80.3316	2,000.98	83.1705	2,000.98	77.7846	2,000.98	79.6828	2,000.98	77.1844	2,000.98	80.237	2,000.98	78.422	2,000.98	78.4114	2,000.98	77.0762	2,000.98	74.9737	2,000.98	75.5022	2,000.98	70.3124	2,000.98	79.5569	2,000.98	76.6298	2,000.98	80.7294
2,144.53	95.2788	2,144.53	94.93	2,144.53	93.5427	2,144.53	92.9235	2,144.53	89.1922	2,144.53	90.055	2,144.53	85.8407	2,144.53	87.6828	2,144.53	89.9334	2,144.53	86.3083	2,144.53	92.0281	2,144.53	85.0697	2,144.53	91.6996	2,144.53	83.5513	2,144.53	89.4589	2,144.53	82.1954	2,144.53	86.2806	2,144.53	81.6213	2,144.53	85.1529	2,144.53	81.4201	2,144.53	85.0951	2,144.53	80.3679	2,144.53	83.5994	2,144.53	78.6522	2,144.53	82.0615	2,144.53	78.7914	2,144.53	79.2805	2,144.53	79.4305	2,144.53	70.1802	2,144.53	77.2306	2,144.53	75.8929	2,144.53	74.9385	2,144.53	75.8086	2,144.53	80.2885	2,144.53	79.0507	2,144.53	82.0384
2,296.88	94.3684	2,296.88	94.411	2,296.88	92.9126	2,296.88	93.3446	2,296.88	89.7652	2,296.88	91.2403	2,296.88	88.0192	2,296.88	88.7133	2,296.88	90.4189	2,296.88	87.0254	2,296.88	92.0455	2,296.88	86.5302	2,296.88	91.7477	2,296.88	86.1541	2,296.88	89.519	2,296.88	84.8309	2,296.88	85.5081	2,296.88	82.9079	2,296.88	82.0982	2,296.88	81.8431	2,296.88	82.0716	2,296.88	81.0592	2,296.88	79.8849	2,296.88	78.8114	2,296.88	79.4958	2,296.88	77.5151	2,296.88	82.1973	2,296.88	80.2079	2,296.88	78.56	2,296.88	80.6413	2,296.88	68.6386	2,296.88	77.3085	2,296.88	73.5478	2,296.88	77.0762	2,296.88	74.7715	2,296.88	78.729
2,460.94	94.8819	2,460.94	94.9128	2,460.94	93.2163	2,460.94	93.7774	2,460.94	90.2999	2,460.94	92.2201	2,460.94	89.3914	2,460.94	90.7437	2,460.94	91.1859	2,460.94	89.1456	2,460.94	92.15	2,460.94	87.3035	2,460.94	91.5663	2,460.94	85.7689	2,460.94	89.4952	2,460.94	84.787	2,460.94	86.1536	2,460.94	83.8542	2,460.94	83.4436	2,460.94	82.7864	2,460.94	83.5273	2,460.94	81.5463	2,460.94	82.1571	2,460.94	79.5089	2,460.94	77.9639	2,460.94	77.7484	2,460.94	79.2687	2,460.94	79.5415	2,460.94	78.2715	2,460.94	81.0124	2,460.94	72.6507	2,460.94	80.2579	2,460.94	70.9025	2,460.94	80.123	2,460.94	76.8669	2,460.94	80.6541
2,639.65	95.1065	2,639.65	95.4608	2,639.65	93.654	2,639.65	94.6146	2,639.65	91.7985	2,639.65	92.8024	2,639.65	90.8239	2,639.65	90.6047	2,639.65	90.9324	2,639.65	88.9362	2,639.65	90.9585	2,639.65	87.9381	2,639.65	90.204	2,639.65	86.8142	2,639.65	88.3733	2,639.65	85.1374	2,639.65	85.1415	2,639.65	83.1778	2,639.65	81.2501	2,639.65	81.8059	2,639.65	79.8083	2,639.65	81.2664	2,639.65	77.4896	2,639.65	80.3022	2,639.65	74.5197	2,639.65	78.2637	2,639.65	77.2032	2,639.65	77.8809	2,639.65	75.0807	2,639.65	79.3007	2,639.65	68.1277	2,639.65	78.9028	2,639.65	72.3795	2,639.65	79.0259	2,639.65	79.0928	2,639.65	80.8711
2,827.15	95.0089	2,827.15	95.8641	2,827.15	93.4052	2,827.15	95.1556	2,827.15	92.4805	2,827.15	92.9467	2,827.15	92.2827	2,827.15	90.2273	2,827.15	91.6933	2,827.15	88.4334	2,827.15	90.4087	2,827.15	87.3604	2,827.15	88.6697	2,827.15	86.1858	2,827.15	86.4604	2,827.15	84.9822	2,827.15	83.3294	2,827.15	83.8453	2,827.15	79.0923	2,827.15	82.6131	2,827.15	74.7002	2,827.15	81.2592	2,827.15	66.6857	2,827.15	79.735	2,827.15	67.626	2,827.15	78.2972	2,827.15	75.5707	2,827.15	78.3021	2,827.15	75.3051	2,827.15	79.3342	2,827.15	70.7997	2,827.15	78.9988	2,827.15	74.103	2,827.15	77.5642	2,827.15	77.4343	2,827.15	77.796
3,032.23	95.3172	3,032.23	96.2324	3,032.23	93.1672	3,032.23	95.186	3,032.23	92.2878	3,032.23	92.4307	3,032.23	92.9553	3,032.23	89.7092	3,032.23	92.9216	3,032.23	88.887	3,032.23	91.6817	3,032.23	87.9954	3,032.23	89.4038	3,032.23	86.3779	3,032.23	86.43	3,032.23	85.0344	3,032.23	83.4171	3,032.23	84.2271	3,032.23	80.6481	3,032.23	83.2828	3,032.23	78.045	3,032.23	82.0769	3,032.23	74.8508	3,032.23	81.0279	3,032.23	69.5475	3,032.23	79.9233	3,032.23	74.3622	3,032.23	78.8392	3,032.23	75.748	3,032.23	78.8912	3,032.23	72.9352	3,032.23	78.8723	3,032.23	74.7315	3,032.23	77.9908	3,032.23	77.6858	3,032.23	78.1651
3,249.02	96.1297	3,249.02	96.4886	3,249.02	94.4648	3,249.02	94.973	3,249.02	93.1901	3,249.02	92.156	3,249.02	93.2871	3,249.02	90.5575	3,249.02	93.3114	3,249.02	90.3754	3,249.02	92.4948	3,249.02	89.6523	3,249.02	90.9434	3,249.02	88.1154	3,249.02	89.0534	3,249.02	86.0423	3,249.02	87.0484	3,249.02	83.9654	3,249.02	84.7072	3,249.02	82.4705	3,249.02	82.2082	3,249.02	81.3237	3,249.02	79.4493	3,249.02	80.2602	3,249.02	72.2092	3,249.02	80.1638	3,249.02	71.731	3,249.02	80.5814	3,249.02	73.7325	3,249.02	80.3096	3,249.02	69.1656	3,249.02	79.2067	3,249.02	74.6396	3,249.02	77.9377	3,249.02	77.6213	3,249.02	77.777
3,483.4	95.6352	3,483.4	95.7981	3,483.4	94.4685	3,483.4	94.2219	3,483.4	93.7324	3,483.4	92.1005	3,483.4	93.4635	3,483.4	91.6452	3,483.4	92.7142	3,483.4	90.9945	3,483.4	91.4375	3,483.4	88.7578	3,483.4	90.2134	3,483.4	86.0731	3,483.4	89.1339	3,483.4	84.2855	3,483.4	87.2188	3,483.4	82.7775	3,483.4	83.8431	3,483.4	81.2796	3,483.4	81.1486	3,483.4	79.6176	3,483.4	77.9822	3,483.4	77.6824	3,483.4	67.5984	3,483.4	77.1962	3,483.4	73.6144	3,483.4	78.7143	3,483.4	72.9648	3,483.4	79.3703	3,483.4	70.8657	3,483.4	77.9776	3,483.4	75.3469	3,483.4	76.7917	3,483.4	76.4953	3,483.4	76.7604
3,732.42	94.8343	3,732.42	95.1434	3,732.42	93.6884	3,732.42	93.9539	3,732.42	93.155	3,732.42	92.3847	3,732.42	92.9891	3,732.42	91.6298	3,732.42	92.1471	3,732.42	90.3633	3,732.42	90.8278	3,732.42	87.9182	3,732.42	89.7663	3,732.42	85.2671	3,732.42	88.9445	3,732.42	82.9839	3,732.42	86.8689	3,732.42	81.4604	3,732.42	81.6498	3,732.42	80.7807	3,732.42	74.0497	3,732.42	79.5491	3,732.42	74.3848	3,732.42	77.3657	3,732.42	72.7077	3,732.42	75.7615	3,732.42	71.6611	3,732.42	77.0221	3,732.42	72.7285	3,732.42	78.8332	3,732.42	68.1738	3,732.42	77.0005	3,732.42	73.8471	3,732.42	72.8669	3,732.42	75.6147	3,732.42	74.2315
3,999.02	94.8999	3,999.02	95.0481	3,999.02	93.6756	3,999.02	93.8559	3,999.02	92.716	3,999.02	92.4301	3,999.02	92.4209	3,999.02	91.344	3,999.02	91.8068	3,999.02	89.6601	3,999.02	90.6248	3,999.02	87.481	3,999.02	89.4148	3,999.02	85.1686	3,999.02	88.3557	3,999.02	82.1941	3,999.02	86.0285	3,999.02	80.5913	3,999.02	80.5322	3,999.02	80.4012	3,999.02	68.3758	3,999.02	78.72	3,999.02	74.5427	3,999.02	76.5083	3,999.02	73.4394	3,999.02	75.6688	3,999.02	65.7447	3,999.02	74.6455	3,999.02	72.4633	3,999.02	75.7903	3,999.02	70.0262	3,999.02	74.5293	3,999.02	73.2435	3,999.02	69.7191	3,999.02	72.6793	3,999.02	70.7284
4,286.13	95.3344	4,286.13	95.3999	4,286.13	94.1623	4,286.13	94.0744	4,286.13	92.8235	4,286.13	92.1761	4,286.13	91.7961	4,286.13	90.6283	4,286.13	90.7233	4,286.13	89.0129	4,286.13	89.5056	4,286.13	87.1969	4,286.13	88.6802	4,286.13	85.0231	4,286.13	88.1954	4,286.13	82.0221	4,286.13	86.8863	4,286.13	80.3539	4,286.13	83.7475	4,286.13	80.1864	4,286.13	76.3833	4,286.13	78.471	4,286.13	61.1029	4,286.13	76.3502	4,286.13	63.9597	4,286.13	76.7195	4,286.13	74.6389	4,286.13	76.4891	4,286.13	72.0062	4,286.13	74.7395	4,286.13	65.9728	4,286.13	72.6617	4,286.13	72.1556	4,286.13	68.841	4,286.13	73.1478	4,286.13	71.4175
4,593.75	95.7225	4,593.75	95.6272	4,593.75	94.6585	4,593.75	94.0898	4,593.75	93.0894	4,593.75	91.9645	4,593.75	91.4418	4,593.75	90.4911	4,593.75	89.8395	4,593.75	88.7088	4,593.75	88.6023	4,593.75	86.0835	4,593.75	88.2017	4,593.75	83.9767	4,593.75	88.2349	4,593.75	82.076	4,593.75	87.3329	4,593.75	79.9477	4,593.75	83.697	4,593.75	78.891	4,593.75	75.6662	4,593.75	78.08	4,593.75	69.1009	4,593.75	76.719	4,593.75	58.7046	4,593.75	75.972	4,593.75	70.5073	4,593.75	75.6932	4,593.75	67.3909	4,593.75	75.0588	4,593.75	65.519	4,593.75	73.6801	4,593.75	70.4841	4,593.75	71.2518	4,593.75	72.7579	4,593.75	72.3536
4,924.8	96.1004	4,924.8	95.5381	4,924.8	95.5735	4,924.8	93.7764	4,924.8	94.2267	4,924.8	91.8123	4,924.8	92.1127	4,924.8	90.2097	4,924.8	89.3065	4,924.8	87.8013	4,924.8	86.7348	4,924.8	85.0779	4,924.8	86.565	4,924.8	83.0265	4,924.8	87.5434	4,924.8	79.8147	4,924.8	86.2064	4,924.8	77.431	4,924.8	80.5153	4,924.8	77.6802	4,924.8	68.9175	4,924.8	76.5954	4,924.8	65.1834	4,924.8	74.2735	4,924.8	65.56	4,924.8	74.2989	4,924.8	66.377	4,924.8	75.1895	4,924.8	66.4793	4,924.8	74.2885	4,924.8	64.248	4,924.8	72.4691	4,924.8	72.8833	4,924.8	71.766	4,924.8	74.0421	4,924.8	73.1279
5,279.3	95.9226	5,279.3	95.04	5,279.3	95.7644	5,279.3	93.4256	5,279.3	94.6627	5,279.3	91.8528	5,279.3	92.6984	5,279.3	89.9114	5,279.3	89.8129	5,279.3	86.829	5,279.3	86.4097	5,279.3	84.033	5,279.3	84.6263	5,279.3	82.3298	5,279.3	84.9903	5,279.3	80.5443	5,279.3	84.2101	5,279.3	79.672	5,279.3	81.0553	5,279.3	78.1942	5,279.3	74.025	5,279.3	75.4243	5,279.3	65.5307	5,279.3	74.118	5,279.3	68.5422	5,279.3	74.3849	5,279.3	65.2444	5,279.3	72.872	5,279.3	70.9953	5,279.3	73.4696	5,279.3	58.7528	5,279.3	70.8557	5,279.3	72.125	5,279.3	67.7878	5,279.3	74.4234	5,279.3	73.3625
5,657.23	94.7348	5,657.23	94.1026	5,657.23	94.8061	5,657.23	93.1476	5,657.23	94.0556	5,657.23	91.714	5,657.23	92.3725	5,657.23	89.4756	5,657.23	89.5486	5,657.23	86.6661	5,657.23	86.012	5,657.23	84.0609	5,657.23	83.5412	5,657.23	81.4599	5,657.23	82.9156	5,657.23	79.1235	5,657.23	82.4039	5,657.23	78.3398	5,657.23	80.8665	5,657.23	77.1685	5,657.23	76.3152	5,657.23	74.4456	5,657.23	63.2596	5,657.23	73.7248	5,657.23	50.2546	5,657.23	74.5108	5,657.23	67.8953	5,657.23	72.4948	5,657.23	69.8526	5,657.23	71.39	5,657.23	63.645	5,657.23	70.5217	5,657.23	68.6703	5,657.23	65.9561	5,657.23	71.3534	5,657.23	70.3291
6,061.52	94.4042	6,061.52	94.2465	6,061.52	94.078	6,061.52	93.2642	6,061.52	93.3046	6,061.52	91.4267	6,061.52	91.7097	6,061.52	89.2302	6,061.52	89.1722	6,061.52	86.7511	6,061.52	86.3244	6,061.52	83.6792	6,061.52	84.3904	6,061.52	80.4384	6,061.52	83.9689	6,061.52	77.608	6,061.52	83.3319	6,061.52	76.7178	6,061.52	81.151	6,061.52	76.7317	6,061.52	77.4404	6,061.52	74.8055	6,061.52	70.0705	6,061.52	73.1622	6,061.52	59.1068	6,061.52	74.7545	6,061.52	53.4323	6,061.52	74.1065	6,061.52	61.6644	6,061.52	71.6893	6,061.52	63.299	6,061.52	71.4956	6,061.52	66.3298	6,061.52	67.3316	6,061.52	67.8709	6,061.52	68.8956
6,498.05	95.0556	6,498.05	94.7607	6,498.05	94.3498	6,498.05	93.2309	6,498.05	92.8639	6,498.05	90.8489	6,498.05	90.6076	6,498.05	88.255	6,498.05	87.9133	6,498.05	85.7535	6,498.05	85.4679	6,498.05	84.1421	6,498.05	84.2923	6,498.05	82.4236	6,498.05	83.6381	6,498.05	79.3942	6,498.05	81.744	6,498.05	77.0956	6,498.05	79.1283	6,498.05	76.3333	6,498.05	76.7153	6,498.05	75.166	6,498.05	72.8879	6,498.05	73.3984	6,498.05	67.3225	6,498.05	73.4582	6,498.05	55.6997	6,498.05	73.6537	6,498.05	66.4712	6,498.05	72.0426	6,498.05	62.725	6,498.05	71.239	6,498.05	64.7877	6,498.05	68.8739	6,498.05	69.0539	6,498.05	70.2645
6,963.87	94.6361	6,963.87	94.1192	6,963.87	94.1427	6,963.87	92.6891	6,963.87	92.6338	6,963.87	90.6132	6,963.87	90.072	6,963.87	87.8275	6,963.87	86.9528	6,963.87	85.2144	6,963.87	84.3088	6,963.87	83.5608	6,963.87	82.801	6,963.87	81.3808	6,963.87	80.7337	6,963.87	79.1071	6,963.87	77.2188	6,963.87	77.4951	6,963.87	75.4826	6,963.87	75.1718	6,963.87	70.6749	6,963.87	72.8188	6,963.87	64.1428	6,963.87	72.4173	6,963.87	67.9309	6,963.87	73.3142	6,963.87	56.1954	6,963.87	73.6888	6,963.87	64.0495	6,963.87	72.2368	6,963.87	64.0359	6,963.87	70.3942	6,963.87	59.1417	6,963.87	68.9977	6,963.87	66.7492	6,963.87	68.4085
7,464.84	93.1911	7,464.84	92.3266	7,464.84	93.4869	7,464.84	91.3437	7,464.84	92.4202	7,464.84	89.307	7,464.84	89.8432	7,464.84	86.6891	7,464.84	86.6431	7,464.84	85.5295	7,464.84	83.8016	7,464.84	83.3014	7,464.84	82.4002	7,464.84	79.8733	7,464.84	82.0289	7,464.84	77.0305	7,464.84	81.0005	7,464.84	74.1525	7,464.84	79.2289	7,464.84	72.6017	7,464.84	75.5778	7,464.84	72.0274	7,464.84	68.815	7,464.84	70.4768	7,464.84	68.5214	7,464.84	69.6261	7,464.84	65.5481	7,464.84	70.9083	7,464.84	59.9281	7,464.84	70.2009	7,464.84	66.7348	7,464.84	68.4218	7,464.84	59.405	7,464.84	67.879	7,464.84	68.255	7,464.84	69.8265
8,000.98	92.6017	8,000.98	92.3216	8,000.98	92.4104	8,000.98	91.2519	8,000.98	91.1662	8,000.98	88.9571	8,000.98	88.7849	8,000.98	87.0914	8,000.98	86.0235	8,000.98	85.3462	8,000.98	83.3893	8,000.98	81.7596	8,000.98	81.1376	8,000.98	78.7727	8,000.98	78.5494	8,000.98	76.0349	8,000.98	75.2114	8,000.98	73.5254	8,000.98	73.997	8,000.98	72.4687	8,000.98	75.5973	8,000.98	70.6916	8,000.98	75.4549	8,000.98	69.145	8,000.98	71.7693	8,000.98	69.2788	8,000.98	67.3628	8,000.98	69.9742	8,000.98	61.5005	8,000.98	70.2554	8,000.98	60.5467	8,000.98	68.1384	8,000.98	59.185	8,000.98	65.6381	8,000.98	63.0692	8,000.98	61.3178
8,575.2	95.1236	8,575.2	94.6355	8,575.2	94.0642	8,575.2	92.2322	8,575.2	91.7579	8,575.2	89.3064	8,575.2	88.3818	8,575.2	87.5302	8,575.2	85.6974	8,575.2	84.2088	8,575.2	83.4702	8,575.2	81.33	8,575.2	80.292	8,575.2	79.6009	8,575.2	76.3681	8,575.2	75.1318	8,575.2	71.8968	8,575.2	73.5806	8,575.2	70.444	8,575.2	72.4322	8,575.2	70.0748	8,575.2	69.9089	8,575.2	73.4106	8,575.2	68.2521	8,575.2	73.1044	8,575.2	69.1402	8,575.2	66.4207	8,575.2	71.0502	8,575.2	62.2193	8,575.2	69.1814	8,575.2	62.6567	8,575.2	68.5673	8,575.2	56.0787	8,575.2	65.1344	8,575.2	62.8798	8,575.2	65.3752
9,190.43	94.9382	9,190.43	93.6353	9,190.43	94.5658	9,190.43	91.4489	9,190.43	92.3242	9,190.43	89.4481	9,190.43	89.1562	9,190.43	86.8765	9,190.43	87.0147	9,190.43	84.2851	9,190.43	84.0998	9,190.43	82.1492	9,190.43	81.1819	9,190.43	79.2697	9,190.43	77.466	9,190.43	76.1596	9,190.43	73.8158	9,190.43	73.9383	9,190.43	73.8784	9,190.43	70.6854	9,190.43	72.0231	9,190.43	69.31	9,190.43	65.7521	9,190.43	70.3913	9,190.43	60.2355	9,190.43	68.4377	9,190.43	64.0105	9,190.43	69.1809	9,190.43	64.4751	9,190.43	69.9543	9,190.43	65.0829	9,190.43	65.6089	9,190.43	53.3853	9,190.43	64.8642	9,190.43	62.9115	9,190.43	60.1276
9,849.61	94.2696	9,849.61	93.2936	9,849.61	93.7552	9,849.61	91.7549	9,849.61	91.5134	9,849.61	90.1996	9,849.61	89.5712	9,849.61	88.475	9,849.61	88.1068	9,849.61	86.0093	9,849.61	85.5496	9,849.61	83.5473	9,849.61	83.442	9,849.61	80.2698	9,849.61	80.0892	9,849.61	76.7244	9,849.61	73.6691	9,849.61	75.3566	9,849.61	69.3179	9,849.61	72.0743	9,849.61	73.105	9,849.61	67.1503	9,849.61	73.1197	9,849.61	69.0664	9,849.61	66.2641	9,849.61	72.1197	9,849.61	56.6664	9,849.61	68.7148	9,849.61	54.9126	9,849.61	71.1021	9,849.61	61.7726	9,849.61	67.6331	9,849.61	56.3626	9,849.61	65.6089	9,849.61	61.1387	9,849.61	38.3338
10,555.7	95.4489	10,555.7	94.5165	10,555.7	94.2961	10,555.7	92.4238	10,555.7	92.0389	10,555.7	90.8655	10,555.7	90.484	10,555.7	88.9251	10,555.7	88.4999	10,555.7	86.5572	10,555.7	85.9241	10,555.7	84.2613	10,555.7	84.6667	10,555.7	80.2235	10,555.7	82.0323	10,555.7	77.1845	10,555.7	76.6561	10,555.7	74.5202	10,555.7	71.1388	10,555.7	70.3246	10,555.7	71.4568	10,555.7	69.2937	10,555.7	71.3702	10,555.7	69.6496	10,555.7	58.0613	10,555.7	70.9255	10,555.7	63.1385	10,555.7	69.6231	10,555.7	64.2817	10,555.7	67.9792	10,555.7	67.4125	10,555.7	68.9024	10,555.7	64.8195	10,555.7	67.6129	10,555.7	65.1748	10,555.7	49.4219
11,314.5	95.0683	11,314.5	93.5035	11,314.5	94.3074	11,314.5	92.2274	11,314.5	92.8501	11,314.5	91.3159	11,314.5	91.2956	11,314.5	88.9132	11,314.5	88.4866	11,314.5	87.1158	11,314.5	86.3489	11,314.5	83.5354	11,314.5	84.8279	11,314.5	81.1931	11,314.5	81.3155	11,314.5	77.5717	11,314.5	73.692	11,314.5	72.8704	11,314.5	65.9454	11,314.5	71.7216	11,314.5	71.2978	11,314.5	70.351	11,314.5	76.3737	11,314.5	69.0217	11,314.5	74.2167	11,314.5	69.3842	11,314.5	69.6348	11,314.5	68.466	11,314.5	71.7031	11,314.5	66.5794	11,314.5	69.4355	11,314.5	68.5405	11,314.5	70.495	11,314.5	67.0278	11,314.5	69.8781	11,314.5	57.6859
12,126	93.9841	12,126	93.5646	12,126	93.5492	12,126	93.3415	12,126	92.7822	12,126	91.9938	12,126	91.5681	12,126	89.9661	12,126	89.7821	12,126	87.6344	12,126	88.0492	12,126	84.5661	12,126	86.1737	12,126	80.9577	12,126	82.2723	12,126	74.031	12,126	68.0014	12,126	73.3084	12,126	63.4794	12,126	69.9583	12,126	73.1186	12,126	66.0386	12,126	78.4568	12,126	67.4314	12,126	76.6706	12,126	71.3472	12,126	65.2169	12,126	68.8832	12,126	67.9469	12,126	67.1828	12,126	65.4207	12,126	68.6473	12,126	69.0872	12,126	66.4502	12,126	71.5368	12,126	67.6348
12,996.1	94.6033	12,996.1	93.9098	12,996.1	94.0048	12,996.1	93.3158	12,996.1	93.446	12,996.1	92.3137	12,996.1	91.6893	12,996.1	89.9366	12,996.1	89.4528	12,996.1	87.8793	12,996.1	87.6416	12,996.1	83.6967	12,996.1	85.5007	12,996.1	79.1208	12,996.1	81.0386	12,996.1	74.8012	12,996.1	69.0337	12,996.1	71.2021	12,996.1	69.8821	12,996.1	66.3157	12,996.1	72.5324	12,996.1	67.8164	12,996.1	79.138	12,996.1	67.3482	12,996.1	76.2693	12,996.1	68.2671	12,996.1	62.7188	12,996.1	69.2045	12,996.1	68.6665	12,996.1	59.9361	12,996.1	68.9042	12,996.1	67.7321	12,996.1	69.9046	12,996.1	61.6644	12,996.1	73.5552	12,996.1	69.3406
13,927.7	94.5234	13,927.7	94.4478	13,927.7	94.7587	13,927.7	94.7455	13,927.7	94.6798	13,927.7	93.0635	13,927.7	92.3978	13,927.7	90.4907	13,927.7	91.1178	13,927.7	87.8568	13,927.7	87.933	13,927.7	81.9961	13,927.7	85.3239	13,927.7	79.6852	13,927.7	80.8389	13,927.7	70.9268	13,927.7	71.4863	13,927.7	72.8785	13,927.7	69.3355	13,927.7	66.9008	13,927.7	77.8176	13,927.7	61.4528	13,927.7	82.2575	13,927.7	68.0806	13,927.7	81.3601	13,927.7	68.198	13,927.7	73.2859	13,927.7	70.8957	13,927.7	73.3169	13,927.7	66.5387	13,927.7	71.0338	13,927.7	70.772	13,927.7	73.511	13,927.7	66.1356	13,927.7	75.0113	13,927.7	73.011
14,929.7	96.2376	14,929.7	96.0141	14,929.7	96.7216	14,929.7	95.603	14,929.7	95.8004	14,929.7	93.6957	14,929.7	93.1785	14,929.7	91.0709	14,929.7	91.1576	14,929.7	87.4357	14,929.7	86.9043	14,929.7	81.9362	14,929.7	85.5433	14,929.7	77.2174	14,929.7	80.333	14,929.7	70.3138	14,929.7	75.9027	14,929.7	70.3528	14,929.7	73.7552	14,929.7	55.222	14,929.7	79.8873	14,929.7	64.3819	14,929.7	82.4965	14,929.7	67.2666	14,929.7	80.2902	14,929.7	67.5336	14,929.7	72.1788	14,929.7	68.795	14,929.7	69.0888	14,929.7	68.8451	14,929.7	67.263	14,929.7	69.992	14,929.7	70.1696	14,929.7	66.1208	14,929.7	74.9104	14,929.7	74.4089
15,999	98.1223	15,999	97.3947	15,999	98.0962	15,999	96.2124	15,999	96.1685	15,999	93.764	15,999	92.6681	15,999	89.6732	15,999	90.1378	15,999	85.3988	15,999	85.2689	15,999	77.4341	15,999	83.1375	15,999	74.2424	15,999	79.0535	15,999	65.6457	15,999	73.1295	15,999	66.8336	15,999	74.672	15,999	57.9693	15,999	79.6124	15,999	64.3245	15,999	82.0944	15,999	63.8302	15,999	80.502	15,999	67.5048	15,999	72.3362	15,999	67.3378	15,999	72.3788	15,999	70.6936	15,999	70.5297	15,999	69.4454	15,999	72.834	15,999	65.12	15,999	74.8511	15,999	75.6422
17,147.5	98.5557	17,147.5	97.5926	17,147.5	97.8666	17,147.5	95.1607	17,147.5	95.0186	17,147.5	91.6793	17,147.5	91.0938	17,147.5	87.0937	17,147.5	87.8491	17,147.5	82.1089	17,147.5	82.063	17,147.5	74.4671	17,147.5	80.5763	17,147.5	70.4791	17,147.5	77.8298	17,147.5	61.235	17,147.5	69.1051	17,147.5	57.3865	17,147.5	74.2119	17,147.5	60.8028	17,147.5	78.4198	17,147.5	61.4412	17,147.5	80.4223	17,147.5	58.5247	17,147.5	78.0168	17,147.5	66.3736	17,147.5	69.8882	17,147.5	62.5805	17,147.5	69.9747	17,147.5	70.577	17,147.5	67.6117	17,147.5	65.4015	17,147.5	66.0354	17,147.5	63.2432	17,147.5	72.1541	17,147.5	72.923
18,377.9	97.5883	18,377.9	96.0173	18,377.9	96.2639	18,377.9	92.0774	18,377.9	92.991	18,377.9	88.2139	18,377.9	88.2814	18,377.9	81.455	18,377.9	84.068	18,377.9	75.9901	18,377.9	79.0014	18,377.9	57.8856	18,377.9	74.7982	18,377.9	64.9911	18,377.9	73.4571	18,377.9	60.4683	18,377.9	63.9621	18,377.9	58.7663	18,377.9	72.2066	18,377.9	63.4835	18,377.9	75.7257	18,377.9	56.4206	18,377.9	78.3687	18,377.9	55.5075	18,377.9	78.093	18,377.9	63.8874	18,377.9	70.9658	18,377.9	62.5975	18,377.9	72.2335	18,377.9	68.6831	18,377.9	65.8891	18,377.9	68.4342	18,377.9	69.3019	18,377.9	55.5073	18,377.9	70.3085	18,377.9	72.4731
19,699.2	96.0616	19,699.2	94.5185	19,699.2	94.0103	19,699.2	89.2123	19,699.2	90.3301	19,699.2	84.0597	19,699.2	85.2354	19,699.2	75.7949	19,699.2	79.653	19,699.2	64.5211	19,699.2	74.0541	19,699.2	64.6292	19,699.2	60.7084	19,699.2	46.9908	19,699.2	68.3559	19,699.2	63.934	19,699.2	49.3624	19,699.2	57.4877	19,699.2	67.4382	19,699.2	62.0881	19,699.2	69.0288	19,699.2	56.583	19,699.2	73.6805	19,699.2	46.8566	19,699.2	74.7912	19,699.2	62.4192	19,699.2	65.7047	19,699.2	60.0633	19,699.2	70.5263	19,699.2	65.7834	19,699.2	60.3202	19,699.2	66.9423	19,699.2	67.2601	19,699.2	57.0906	19,699.2	67.9443	19,699.2	70.752
19,998	95.4633	19,998	93.9585	19,998	93.4175	19,998	88.5967	19,998	90.034	19,998	83.167	19,998	84.7701	19,998	73.2553	19,998	79.5451	19,998	62.0398	19,998	73.1008	19,998	66.433	19,998	57.8001	19,998	51.8705	19,998	68.2692	19,998	65.0102	19,998	55.2196	19,998	60.4157	19,998	68.6405	19,998	63.6818	19,998	68.4387	19,998	58.6526	19,998	72.9833	19,998	46.2232	19,998	75.3443	19,998	62.6954	19,998	66.8877	19,998	62.9282	19,998	72.1252	19,998	66.4155	19,998	61.8407	19,998	67.747	19,998	69.2575	19,998	58.111	19,998	67.1973	19,998	71.7162
