Freq[Hz]     dBSPL  Phase[Deg]
5.00000     -8.420    12.947
5.07273     -7.697    10.513
5.14651     -7.144     7.742
5.22137     -7.065     4.028
5.29732     -6.985     0.313
5.37437     -6.905    -3.401
5.45254     -6.826    -7.116
5.53185     -7.130   -11.281
5.61231     -7.839   -15.923
5.69394     -8.549   -20.565
5.77676     -9.258   -25.208
5.86079    -10.018   -29.944
5.94604    -13.750   -40.230
6.03252    -17.482   -50.516
6.12027    -21.214   -60.802
6.20929    -24.946   -71.088
6.29961    -22.665   -33.590
6.39124    -19.050    14.506
6.48420    -15.436    62.601
6.57851    -11.821   110.696
6.67420    -10.005   111.538
6.77128     -8.482   104.707
6.86977     -6.958    97.877
6.96969     -5.567    90.977
7.07107     -5.182    83.560
7.17392     -4.798    76.143
7.27827     -4.413    68.725
7.38413     -4.543    60.014
7.49154     -5.072    50.304
7.60050     -5.600    40.594
7.71105     -6.318    29.097
7.82321     -7.874     9.753
7.93701     -9.430    -9.591
8.05245    -10.985   -28.935
8.16958    -10.151   -60.438
8.28841     -9.227   -92.396
8.40896     -8.303  -124.353
8.53128     -6.780  -143.306
8.65537     -5.180  -160.580
8.78126     -3.579  -177.855
8.90899     -2.859   165.952
9.03857     -2.196   149.830
9.17004     -1.544   133.240
9.30342     -0.972   112.925
9.43874     -0.400    92.611
9.57603      0.467    72.463
9.71532      1.784    52.571
9.85663      3.100    32.678
10.0000      4.425    17.220
10.1455      5.752     2.997
10.2930      6.927   -10.043
10.4427      7.677   -19.779
10.5946      8.428   -29.515
10.7487      8.610   -35.561
10.9051      8.678   -40.869
11.0637      8.535   -42.167
11.2246      8.168   -39.222
11.3879      8.089   -34.501
11.5535      9.057   -23.307
11.7216     10.046   -12.238
11.8921     12.287    -8.582
12.0650     14.529    -4.925
12.2405     16.436    -7.196
12.4186     18.301   -10.231
12.5992     19.686   -15.154
12.7825     20.964   -20.494
12.9684     21.817   -26.149
13.1570     22.571   -31.877
13.3484     22.922   -36.872
13.5426     23.208   -41.747
13.7395     23.124   -44.463
13.9394     23.012   -46.655
14.1421     22.792   -45.498
14.3478     22.702   -43.257
14.5565     22.892   -38.685
14.7683     23.440   -34.494
14.9831     24.264   -30.598
15.2010     25.243   -29.472
15.4221     26.209   -29.228
15.6464     27.000   -30.784
15.8740     27.617   -32.535
16.1049     28.094   -34.442
16.3392     28.360   -35.180
16.5768     28.627   -35.077
16.8179     28.910   -33.817
17.0626     29.452   -31.649
17.3107     30.151   -29.771
17.5625     31.038   -28.511
17.8180     32.000   -29.162
18.0771     32.903   -30.723
18.3401     33.720   -33.084
18.6068     34.356   -35.846
18.8775     34.873   -38.174
19.1521     35.338   -39.871
19.4306     35.796   -40.762
19.7133     36.387   -40.718
20.0000     37.161   -40.683
20.2909     38.075   -41.198
20.5860     39.081   -42.610
20.8855     40.107   -45.108
21.1893     41.051   -48.665
21.4975     41.884   -52.671
21.8102     42.610   -56.775
22.1274     43.247   -60.720
22.4492     43.826   -64.344
22.7758     44.384   -67.615
23.1071     44.951   -70.649
23.4432     45.541   -73.658
23.7841     46.138   -76.867
24.1301     46.711   -80.346
24.4811     47.233   -84.018
24.8372     47.689   -87.720
25.1984     48.085   -91.267
25.5649     48.441   -94.525
25.9368     48.787   -97.466
26.3141     49.151  -100.191
26.6968     49.542  -102.883
27.0851     49.953  -105.719
27.4791     50.361  -108.785
27.8788     50.739  -112.026
28.2843     51.080  -115.297
28.6957     51.391  -118.466
29.1131     51.689  -121.478
29.5365     51.989  -124.373
29.9661     52.292  -127.240
30.4020     52.588  -130.140
30.8442     52.856  -133.022
31.2929     53.096  -135.753
31.7480     53.322  -138.236
32.2098     53.558  -140.486
32.6783     53.817  -142.650
33.1536     54.081  -144.891
33.6359     54.329  -147.194
34.1251     54.550  -149.402
34.6215     54.769  -151.403
35.1250     55.014  -153.306
35.6359     55.284  -155.347
36.1543     55.549  -157.576
36.6802     55.793  -159.817
37.2137     56.041  -161.906
37.7550     56.323  -163.979
38.3041     56.625  -166.286
38.8613     56.904  -168.718
39.4265     57.160  -170.922
40.0000     57.460  -172.895
40.5818     57.814  -175.105
41.1721     58.133  -177.809
41.7710     58.357   179.522
42.3785     58.545   177.489
42.9949     58.783   175.612
43.6203     58.997   173.364
44.2548     59.070   171.462
44.8985     59.172   171.163
45.5515     59.587   171.236
46.2141     60.202   169.266
46.8863     60.614   165.256
47.5683     60.710   161.778
48.2602     60.831   160.032
48.9621     61.169   158.331
49.6743     61.530   155.595
50.3968     61.783   152.890
51.1299     62.068   150.889
51.8736     62.457   148.766
52.6281     62.839   146.148
53.3936     63.175   143.615
54.1702     63.530   141.267
54.9581     63.906   138.700
55.7575     64.255   135.936
56.5685     64.588   133.178
57.3914     64.923   130.342
58.2261     65.250   127.315
59.0730     65.545   124.213
59.9323     65.823   121.253
60.8040     66.123   118.455
61.6884     66.466   115.572
62.5857     66.822   112.389
63.4960     67.150   108.964
64.4196     67.453   105.519
65.3566     67.748   102.010
66.3073     68.018    98.397
67.2717     68.268    94.923
68.2502     68.548    91.486
69.2429     68.838    87.816
70.2501     69.122    84.019
71.2719     69.411    79.998
72.3086     69.671    75.681
73.3603     69.890    71.182
74.4274     70.046    66.538
75.5099     70.139    62.107
76.6083     70.223    57.866
77.7226     70.280    53.735
78.8531     70.349    49.916
80.0000     70.458    45.961
81.1636     70.547    41.810
82.3442     70.622    37.628
83.5419     70.678    33.287
84.7570     70.683    28.860
85.9899     70.646    24.616
87.2406     70.596    20.557
88.5096     70.552    16.605
89.7970     70.503    12.512
91.1031     70.421     8.322
92.4282     70.270     4.043
93.7726     70.035     0.226
95.1366     69.795    -2.966
96.5204     69.586    -5.674
97.9243     69.441    -8.106
99.3486     69.353   -10.656
100.794     69.274   -13.363
102.260     69.188   -16.164
103.747     69.113   -18.878
105.256     69.042   -21.797
106.787     68.955   -24.730
108.340     68.843   -27.766
109.916     68.683   -30.544
111.515     68.535   -32.958
113.137     68.429   -35.164
114.783     68.349   -37.568
116.452     68.256   -39.883
118.146     68.196   -42.145
119.865     68.152   -44.476
121.608     68.111   -46.940
123.377     68.077   -49.374
125.171     68.039   -51.879
126.992     68.024   -54.540
128.839     67.995   -57.370
130.713     67.939   -60.480
132.615     67.804   -63.595
134.543     67.644   -66.009
136.500     67.572   -68.476
138.486     67.461   -71.096
140.500     67.308   -73.571
142.544     67.143   -76.082
144.617     66.962   -78.109
146.721     66.834   -79.360
148.855     66.853   -81.122
151.020     66.828   -83.947
153.217     66.589   -86.548
155.445     66.330   -87.668
157.706     66.193   -88.266
160.000     66.085   -87.936
162.327     66.311   -87.125
164.688     66.650   -87.726
167.084     67.214   -88.820
169.514     67.765   -93.656
171.980     67.838   -98.347
174.481     67.885  -101.467
177.019     67.987  -104.436
179.594     68.081  -107.840
182.206     68.138  -111.210
184.856     68.234  -114.319
187.545     68.352  -117.465
190.273     68.490  -120.971
193.041     68.602  -124.918
195.849     68.659  -128.662
198.697     68.780  -133.004
201.587     68.685  -138.047
204.520     68.591  -141.498
207.494     68.522  -145.556
210.512     68.305  -149.642
213.574     68.020  -153.054
216.681     67.892  -154.577
219.833     67.847  -157.506
223.030     67.932  -160.085
226.274     67.807  -164.067
229.565     67.670  -166.826
232.905     67.536  -169.004
236.292     67.588  -171.349
239.729     67.475  -174.087
243.216     67.430  -175.568
246.754     67.591  -176.237
250.343     67.960  -179.182
253.984     68.261   176.309
257.678     68.343   171.206
261.426     68.256   166.156
265.229     68.107   159.969
269.087     67.350   157.469
273.001     67.260   157.731
276.972     67.312   154.232
281.000     67.034   153.024
285.088     67.138   151.616
289.234     67.301   149.766
293.441     67.502   147.077
297.709     67.722   142.541
302.040     67.608   137.245
306.433     67.017   134.273
310.890     66.973   133.792
315.412     66.881   130.686
320.000     66.704   128.582
324.655     66.569   128.547
329.377     66.707   127.069
334.168     66.847   124.736
339.028     66.763   120.885
343.959     66.263   119.867
348.962     66.427   122.857
354.038     66.983   122.491
359.188     67.594   119.392
364.412     68.058   113.623
369.713     67.636   109.780
375.090     67.622   107.393
380.546     67.797   106.578
386.081     68.150   103.456
391.697     68.260    99.205
397.394     68.388    93.065
403.175     67.669    90.180
409.039     67.804    89.731
414.989     67.535    86.393
421.025     67.642    85.468
427.149     67.638    83.973
433.362     67.750    81.682
439.665     67.822    78.413
446.060     67.470    75.497
452.548     67.674    74.115
459.131     67.260    72.388
465.809     67.739    71.628
472.584     67.539    67.259
479.458     67.442    66.094
486.432     67.398    64.732
493.507     67.562    61.647
500.686     67.108    60.505
507.968     67.365    60.995
515.357     67.539    58.228
522.853     67.498    55.792
530.458     67.571    55.632
538.174     67.859    53.265
546.002     68.383    51.144
553.943     68.248    44.616
562.001     68.233    42.569
570.175     68.200    38.325
578.469     68.000    35.094
586.883     67.926    31.870
595.419     67.623    29.066
604.080     67.556    26.977
612.866     67.502    24.116
621.780     67.253    19.785
630.824     66.921    17.199
640.000     66.546    14.947
649.309     66.253    13.100
658.753     65.927    11.272
668.335     65.545    10.114
678.056     65.223     8.756
687.919     64.843     8.377
697.925     64.477     8.297
708.077     64.176     8.970
718.376     63.963    10.697
728.825     63.896    12.875
739.426     64.030    14.927
750.181     64.322    16.470
761.093     64.714    17.155
772.163     65.164    16.975
783.394     65.629    15.969
794.789     66.090    14.259
806.349     66.517    11.806
818.078     66.899     8.842
829.977     67.225     5.395
842.050     67.486     1.580
854.298     67.674    -2.505
866.724     67.790    -6.764
879.330     67.834   -11.204
892.120     67.804   -15.655
905.097     67.697   -20.040
918.262     67.514   -24.301
931.618     67.262   -28.340
945.169     66.943   -32.055
958.917     66.581   -35.340
972.864     66.163   -38.108
987.015     65.745   -40.375
1001.37     65.333   -41.963
1015.94     64.953   -43.082
1030.71     64.666   -43.775
1045.71     64.462   -44.260
1060.92     64.341   -44.948
1076.35     64.305   -46.011
1092.00     64.301   -47.572
1107.89     64.290   -49.885
1124.00     64.239   -52.735
1140.35     64.096   -56.071
1156.94     63.832   -59.794
1173.77     63.424   -63.534
1190.84     62.850   -66.964
1208.16     62.094   -69.685
1225.73     61.164   -70.943
1243.56     60.116   -70.040
1261.65     59.141   -65.964
1280.00     58.561   -58.782
1298.62     58.638   -50.640
1317.51     59.375   -44.283
1336.67     60.439   -41.568
1356.11     61.506   -42.162
1375.84     62.417   -45.194
1395.85     63.098   -49.837
1416.15     63.527   -55.411
1436.75     63.724   -61.283
1457.65     63.696   -66.994
1478.85     63.465   -72.267
1500.36     63.101   -76.465
1522.19     62.668   -79.499
1544.33     62.277   -81.245
1566.79     62.041   -82.075
1589.58     61.992   -82.836
1612.70     62.092   -84.337
1636.16     62.240   -87.062
1659.95     62.306   -90.967
1684.10     62.211   -95.644
1708.60     61.906  -100.332
1733.45     61.395  -104.341
1758.66     60.749  -106.977
1784.24     60.122  -107.610
1810.19     59.729  -106.762
1836.52     59.643  -105.620
1863.24     59.834  -106.008
1890.34     60.053  -108.546
1917.83     60.129  -112.774
1945.73     59.898  -117.679
1974.03     59.354  -122.220
2002.74     58.572  -124.876
2031.87     57.739  -124.782
2061.43     57.219  -122.362
2091.41     57.173  -119.706
2121.83     57.437  -119.207
2152.69     57.663  -121.207
2184.01     57.622  -124.662
2215.77     57.251  -127.895
2248.00     56.672  -129.319
2280.70     56.163  -128.261
2313.87     55.997  -125.915
2347.53     56.187  -124.589
2381.68     56.481  -125.444
2416.32     56.590  -127.956
2451.46     56.397  -130.626
2487.12     56.019  -132.103
2523.30     55.648  -131.476
2560.00     55.499  -129.788
2597.24     55.622  -128.333
2635.01     55.847  -128.155
2673.34     56.036  -128.839
2712.23     56.152  -129.691
2751.68     56.223  -130.577
2791.70     56.315  -131.359
2832.31     56.374  -132.145
2873.50     56.384  -132.763
2915.30     56.395  -132.543
2957.70     56.543  -131.529
3000.72     56.932  -130.737
3044.37     57.471  -131.466
3088.65     57.943  -133.924
3133.58     58.214  -137.190
3179.16     58.270  -140.052
3225.40     58.278  -141.666
3272.31     58.423  -142.754
3319.91     58.674  -144.479
3368.20     58.888  -147.240
3417.19     58.920  -150.408
3466.89     58.820  -152.894
3517.32     58.677  -154.567
3568.48     58.580  -155.746
3620.39     58.510  -156.836
3673.05     58.377  -157.998
3726.47     58.132  -158.655
3780.67     57.787  -157.605
3835.67     57.589  -153.942
3891.46     57.929  -149.038
3948.06     58.699  -146.052
4005.49     59.566  -145.119
4063.75     60.544  -145.309
4122.86     61.724  -148.193
4182.82     62.689  -155.467
4243.66     62.875  -165.312
4305.39     62.090  -172.497
4368.01     61.076  -171.228
4431.55     61.359  -165.320
4496.01     62.545  -166.162
4561.40     63.188  -173.036
4627.75     63.072  -179.676
4695.06     62.734   176.551
4763.35     62.508   173.626
4832.64     62.130   170.544
4902.93     61.573   169.621
4974.24     61.306   171.064
5046.60     61.442   171.594
5120.00     61.637   169.182
5194.47     61.359   164.245
5270.03     60.176   161.415
5346.68     58.873   167.626
5424.45     58.904   177.124
5503.35     59.358  -177.787
5583.40     59.887  -172.040
5664.61     61.079  -168.126
5747.01     62.311  -169.261
5830.60     63.162  -172.723
5915.41     63.784  -176.514
6001.45     64.333   178.527
6088.74     64.472   172.113
6177.30     64.209   167.189
6267.15     63.883   163.218
6358.31     63.212   160.288
6450.80     62.587   160.887
6544.62     62.202   161.606
6639.82     61.674   163.236
6736.40     61.243   167.869
6834.38     61.494   174.168
6933.79     62.171   177.174
7034.64     62.948   178.443
7136.96     63.604   175.787
7240.77     63.778   173.768
7346.09     64.074   170.873
7452.94     64.021   168.444
7561.35     64.026   166.354
7671.33     63.792   165.401
7782.91     63.813   164.595
7896.12     63.640   164.039
8010.97     63.689   162.896
8127.49     63.382   161.545
8245.71     63.010   160.600
8365.65     62.436   161.823
8487.33     62.126   164.390
8610.78     62.044   166.251
8736.03     61.953   167.562
8863.09     61.929   166.605
8992.01     61.565   165.738
9122.80     60.844   164.078
9255.50     60.122   168.033
9390.12     59.919   170.433
9526.70     59.674   172.653
9665.27     59.566   173.836
9805.86     59.290   175.660
9948.49     59.109   177.120
10093.2     58.959  -179.312
10240.0     59.094  -175.534
10388.9     59.663  -172.726
10540.1     60.190  -174.134
10693.4     60.257  -176.324
10848.9     60.007  -177.953
11006.7     59.591  -178.353
11166.8     59.017  -176.783
11329.2     58.646  -171.771
11494.0     58.903  -167.216
11661.2     59.201  -165.190
11830.8     59.547  -163.749
12002.9     59.878  -163.597
12177.5     60.150  -164.699
12354.6     60.152  -166.350
12534.3     60.090  -168.358
12716.6     59.717  -170.071
12901.6     59.341  -170.089
13089.2     58.921  -170.205
13279.6     58.701  -167.306
13472.8     58.979  -168.897
13668.8     58.652  -173.082
13867.6     57.917  -175.608
14069.3     57.091  -177.043
14273.9     56.249  -178.160
14481.5     55.480  -178.415
14692.2     54.806   176.768
14905.9     52.990   168.312
15122.7     49.476   161.059
15342.7     43.954   166.800
15565.8     35.927  -142.819
15792.2     43.100   -81.302
16021.9     46.778   -85.492
16255.0     48.120   -81.592
16491.4     50.284   -86.681
16731.3     49.652   -91.020
16974.7     49.616   -91.191
17221.6     48.715   -94.044
17472.1     46.730   -90.805
17726.2     44.801   -76.257
17984.0     44.502   -52.664
18245.6     46.550   -34.187
18511.0     49.024   -29.312
18780.2     50.689   -32.525
19053.4     51.279   -39.202
19330.5     50.866   -43.548
19611.7     50.198   -44.509
19897.0     49.374   -41.639
20186.4     49.050   -36.294
20480.0     48.951   -34.293
20777.9     48.628   -31.370
21080.1     48.048   -28.857
21386.7     47.968   -25.651
21697.8     47.413   -22.067
22013.4     47.418   -20.582
22333.6     47.096   -20.693
22658.4     46.551   -23.460
22988.0     45.216   -27.203
23322.4     43.323   -27.753
23661.6     40.373   -25.567
24005.8     38.423   -11.430
24355.0     35.425    -3.159
24709.2     33.969    34.433
25068.6     37.459    46.082
25433.2     36.284    37.332
25803.2     33.636    52.644
26178.5     33.239    72.133
26559.3     32.631    95.087
26945.6     36.251   117.172
27337.5     38.490   110.466
27735.2     38.848   109.643
28138.6     39.865   102.172
28547.9     38.201    86.821
28963.1     34.729    91.099
29384.4     34.000    95.349
29811.8     30.804    88.326
30245.4     30.486    93.452
30685.3     30.169    98.579
31131.7     29.852   103.705
31584.5     29.534   108.832
32043.9     29.217   113.958
32510.0     28.900   119.084
32982.8     28.582   124.211
33462.6     28.265   129.337
33949.3     27.947   134.464
34443.1     27.630   139.590
34944.1     27.313   144.717
35452.4     26.995   149.843
35968.0     26.678   154.970
36491.2     26.360   160.096
37022.0     26.043   165.223
37560.5     25.726   170.349
38106.8     25.408   175.476
38661.1     25.091  -179.398
39223.4     24.774  -174.272
39793.9     24.456  -169.145
