Freq[Hz]     dBSPL  Phase[Deg]
5.00000     -8.167    11.947
5.07273     -7.445     9.513
5.14651     -6.893     6.742
5.22137     -6.815     3.028
5.29732     -6.736    -0.687
5.37437     -6.658    -4.401
5.45254     -6.579    -8.116
5.53185     -6.884   -12.281
5.61231     -7.595   -16.923
5.69394     -8.305   -21.565
5.77676     -9.016   -26.207
5.86079     -9.777   -30.943
5.94604    -13.510   -41.229
6.03252    -17.243   -51.515
6.12027    -20.976   -61.801
6.20929    -24.709   -72.087
6.29961    -22.429   -34.588
6.39124    -18.815    13.507
6.48420    -15.202    61.603
6.57851    -11.588   109.698
6.67420     -9.773   110.540
6.77128     -8.251   103.710
6.86977     -6.728    96.879
6.96969     -5.338    89.980
7.07107     -4.955    82.563
7.17392     -4.571    75.145
7.27827     -4.187    67.728
7.38413     -4.319    59.017
7.49154     -4.848    49.307
7.60050     -5.377    39.597
7.71105     -6.097    28.100
7.82321     -7.654     8.757
7.93701     -9.210   -10.587
8.05245    -10.767   -29.931
8.16958     -9.934   -61.434
8.28841     -9.011   -93.392
8.40896     -8.088  -125.349
8.53128     -6.566  -144.301
8.65537     -4.967  -161.576
8.78126     -3.367  -178.850
8.90899     -2.648   164.957
9.03857     -1.987   148.835
9.17004     -1.335   132.245
9.30342     -0.764   111.931
9.43874     -0.193    91.616
9.57603      0.673    71.469
9.71532      1.988    51.576
9.85663      3.304    31.684
10.0000      4.628    16.226
10.1455      5.954     2.003
10.2930      7.128   -11.036
10.4427      7.877   -20.772
10.5946      8.626   -30.508
10.7487      8.807   -36.553
10.9051      8.875   -41.862
11.0637      8.730   -43.160
11.2246      8.362   -40.214
11.3879      8.282   -35.493
11.5535      9.249   -24.299
11.7216     10.237   -13.230
11.8921     12.477    -9.573
12.0650     14.718    -5.917
12.2405     16.624    -8.187
12.4186     18.488   -11.222
12.5992     19.872   -16.144
12.7825     21.149   -21.485
12.9684     22.001   -27.139
13.1570     22.754   -32.867
13.3484     23.103   -37.861
13.5426     23.388   -42.737
13.7395     23.303   -45.452
13.9394     23.190   -47.644
14.1421     22.969   -46.487
14.3478     22.878   -44.246
14.5565     23.067   -39.673
14.7683     23.614   -35.482
14.9831     24.437   -31.585
15.2010     25.415   -30.459
15.4221     26.380   -30.215
15.6464     27.170   -31.771
15.8740     27.786   -33.522
16.1049     28.262   -35.428
16.3392     28.526   -36.166
16.5768     28.793   -36.063
16.8179     29.074   -34.802
17.0626     29.616   -32.634
17.3107     30.314   -30.755
17.5625     31.200   -29.495
17.8180     32.161   -30.147
18.0771     33.062   -31.707
18.3401     33.878   -34.068
18.6068     34.514   -36.829
18.8775     35.030   -39.156
19.1521     35.493   -40.854
19.4306     35.950   -41.744
19.7133     36.540   -41.700
20.0000     37.313   -41.664
20.2909     38.226   -42.179
20.5860     39.231   -43.591
20.8855     40.256   -46.088
21.1893     41.199   -49.645
21.4975     42.030   -53.651
21.8102     42.755   -57.754
22.1274     43.391   -61.698
22.4492     43.970   -65.322
22.7758     44.527   -68.593
23.1071     45.093   -71.626
23.4432     45.681   -74.635
23.7841     46.278   -77.844
24.1301     46.849   -81.323
24.4811     47.370   -84.994
24.8372     47.825   -88.695
25.1984     48.220   -92.242
25.5649     48.575   -95.500
25.9368     48.920   -98.440
26.3141     49.283  -101.164
26.6968     49.673  -103.856
27.0851     50.083  -106.691
27.4791     50.489  -109.757
27.8788     50.866  -112.998
28.2843     51.207  -116.269
28.6957     51.517  -119.437
29.1131     51.814  -122.448
29.5365     52.112  -125.342
29.9661     52.415  -128.209
30.4020     52.709  -131.109
30.8442     52.976  -133.990
31.2929     53.215  -136.721
31.7480     53.440  -139.202
32.2098     53.675  -141.452
32.6783     53.933  -143.616
33.1536     54.196  -145.856
33.6359     54.443  -148.159
34.1251     54.663  -150.366
34.6215     54.881  -152.366
35.1250     55.125  -154.269
35.6359     55.394  -156.309
36.1543     55.658  -158.537
36.6802     55.901  -160.778
37.2137     56.148  -162.866
37.7550     56.428  -164.939
38.3041     56.730  -167.244
38.8613     57.007  -169.676
39.4265     57.263  -171.879
40.0000     57.561  -173.851
40.5818     57.914  -176.061
41.1721     58.232  -178.764
41.7710     58.456   178.568
42.3785     58.642   176.535
42.9949     58.879   174.659
43.6203     59.092   172.412
44.2548     59.164   170.511
44.8985     59.265   170.212
45.5515     59.679   170.286
46.2141     60.293   168.317
46.8863     60.704   164.308
47.5683     60.799   160.831
48.2602     60.919   159.086
48.9621     61.256   157.385
49.6743     61.615   154.650
50.3968     61.868   151.946
51.1299     62.151   149.946
51.8736     62.540   147.824
52.6281     62.920   145.207
53.3936     63.255   142.675
54.1702     63.609   140.328
54.9581     63.984   137.762
55.7575     64.333   134.999
56.5685     64.664   132.242
57.3914     64.998   129.407
58.2261     65.324   126.381
59.0730     65.618   123.280
59.9323     65.895   120.321
60.8040     66.194   117.524
61.6884     66.536   114.643
62.5857     66.890   111.460
63.4960     67.218   108.037
64.4196     67.519   104.593
65.3566     67.814   101.085
66.3073     68.082    97.473
67.2717     68.331    94.001
68.2502     68.610    90.564
69.2429     68.899    86.896
70.2501     69.183    83.101
71.2719     69.470    79.080
72.3086     69.729    74.765
73.3603     69.947    70.267
74.4274     70.102    65.624
75.5099     70.194    61.194
76.6083     70.277    56.955
77.7226     70.332    52.826
78.8531     70.401    49.008
80.0000     70.509    45.055
81.1636     70.597    40.905
82.3442     70.670    36.724
83.5419     70.726    32.384
84.7570     70.730    27.959
85.9899     70.692    23.717
87.2406     70.640    19.660
88.5096     70.595    15.708
89.7970     70.546    11.618
91.1031     70.462     7.429
92.4282     70.310     3.152
93.7726     70.074    -0.663
95.1366     69.833    -3.854
96.5204     69.623    -6.560
97.9243     69.477    -8.991
99.3486     69.388   -11.539
100.794     69.308   -14.244
102.260     69.221   -17.043
103.747     69.144   -19.755
105.256     69.072   -22.673
106.787     68.984   -25.604
108.340     68.872   -28.637
109.916     68.711   -31.414
111.515     68.562   -33.826
113.137     68.454   -36.029
114.783     68.373   -38.431
116.452     68.280   -40.744
118.146     68.218   -43.004
119.865     68.173   -45.333
121.608     68.131   -47.795
123.377     68.096   -50.227
125.171     68.058   -52.729
126.992     68.041   -55.388
128.839     68.011   -58.216
130.713     67.954   -61.323
132.615     67.818   -64.436
134.543     67.657   -66.848
136.500     67.584   -69.313
138.486     67.472   -71.930
140.500     67.318   -74.403
142.544     67.152   -76.911
144.617     66.969   -78.935
146.721     66.841   -80.184
148.855     66.858   -81.943
151.020     66.833   -84.765
153.217     66.592   -87.364
155.445     66.333   -88.480
157.706     66.194   -89.076
160.000     66.085   -88.743
162.327     66.310   -87.930
164.688     66.648   -88.527
167.084     67.211   -89.619
169.514     67.761   -94.451
171.980     67.833   -99.140
174.481     67.879  -102.256
177.019     67.980  -105.222
179.594     68.073  -108.623
182.206     68.129  -111.989
184.856     68.224  -115.096
187.545     68.340  -118.238
190.273     68.477  -121.741
193.041     68.589  -125.684
195.849     68.645  -129.425
198.697     68.765  -133.763
201.587     68.668  -138.803
204.520     68.586  -142.290
207.494     68.523  -146.317
210.512     68.303  -150.418
213.574     68.029  -153.897
216.681     67.921  -155.367
219.833     67.875  -158.120
223.030     67.938  -160.659
226.274     67.808  -164.720
229.565     67.672  -167.461
232.905     67.528  -169.682
236.292     67.594  -172.092
239.729     67.483  -174.671
243.216     67.402  -176.151
246.754     67.560  -177.071
250.343     67.952   179.945
253.984     68.254   175.445
257.678     68.345   170.309
261.426     68.262   165.323
265.229     68.102   159.142
269.087     67.343   156.539
273.001     67.270   156.780
276.972     67.317   153.361
281.000     67.036   152.053
285.088     67.153   150.702
289.234     67.301   148.860
293.441     67.505   146.116
297.709     67.721   141.552
302.040     67.614   136.226
306.433     67.015   133.282
310.890     66.972   132.708
315.412     66.881   129.616
320.000     66.701   127.427
324.655     66.575   127.405
329.377     66.701   125.882
334.168     66.859   123.482
339.028     66.765   119.722
343.959     66.265   118.588
348.962     66.428   121.631
354.038     66.975   121.194
359.188     67.583   118.038
364.412     68.055   112.195
369.713     67.636   108.379
375.090     67.615   105.997
380.546     67.785   105.149
386.081     68.131   102.006
391.697     68.238    97.720
397.394     68.359    91.530
403.175     67.641    88.624
409.039     67.777    88.178
414.989     67.494    84.881
421.025     67.593    83.980
427.149     67.565    82.358
433.362     67.694    80.004
439.665     67.769    76.786
446.060     67.418    73.956
452.548     67.605    72.591
459.131     67.194    70.901
465.809     67.668    70.126
472.584     67.468    65.812
479.458     67.374    64.664
486.432     67.328    63.324
493.507     67.497    60.255
500.686     67.049    59.114
507.968     67.314    59.673
515.357     67.489    56.834
522.853     67.458    54.495
530.458     67.530    54.207
538.174     67.832    51.835
546.002     68.362    49.666
553.943     68.239    43.032
562.001     68.234    40.935
570.175     68.213    36.574
578.469     68.025    33.267
586.883     67.953    29.933
595.419     67.655    26.961
604.080     67.600    24.606
612.866     67.566    21.658
621.780     67.304    17.098
630.824     66.974    14.284
640.000     66.592    11.663
649.309     66.282     9.630
658.753     65.937     7.306
668.335     65.525     5.853
678.056     65.139     4.119
687.919     64.696     3.382
697.925     64.237     2.983
708.077     63.836     3.637
718.376     63.500     5.457
728.825     63.325     7.916
739.426     63.369    10.562
750.181     63.599    12.755
761.093     63.968    14.171
772.163     64.418    14.614
783.394     64.901    14.165
794.789     65.403    12.850
806.349     65.873    10.773
818.078     66.296     8.059
829.977     66.659     4.800
842.050     66.958     1.073
854.298     67.191    -3.014
866.724     67.342    -7.185
879.330     67.420   -11.602
892.120     67.413   -16.049
905.097     67.332   -20.525
918.262     67.175   -24.870
931.618     66.947   -29.026
945.169     66.653   -32.835
958.917     66.302   -36.273
972.864     65.907   -39.233
987.015     65.496   -41.603
1001.37     65.074   -43.489
1015.94     64.696   -44.797
1030.71     64.390   -45.673
1045.71     64.144   -46.421
1060.92     64.000   -47.217
1076.35     63.920   -48.299
1092.00     63.881   -49.979
1107.89     63.830   -52.151
1124.00     63.747   -54.947
1140.35     63.577   -58.158
1156.94     63.290   -61.697
1173.77     62.864   -65.185
1190.84     62.274   -68.463
1208.16     61.523   -70.869
1225.73     60.593   -71.895
1243.56     59.593   -70.818
1261.65     58.677   -66.690
1280.00     58.139   -59.929
1298.62     58.255   -52.287
1317.51     58.954   -46.311
1336.67     59.930   -43.648
1356.11     60.917   -44.095
1375.84     61.772   -46.915
1395.85     62.417   -51.231
1416.15     62.830   -56.343
1436.75     63.016   -61.729
1457.65     63.016   -67.112
1478.85     62.849   -71.873
1500.36     62.569   -75.847
1522.19     62.246   -78.795
1544.33     61.970   -80.884
1566.79     61.817   -82.450
1589.58     61.790   -84.163
1612.70     61.838   -86.529
1636.16     61.881   -89.973
1659.95     61.831   -94.212
1684.10     61.615   -98.857
1708.60     61.192  -103.308
1733.45     60.592  -106.853
1758.66     59.897  -108.676
1784.24     59.254  -108.516
1810.19     58.890  -107.046
1836.52     58.910  -105.734
1863.24     59.157  -106.075
1890.34     59.405  -108.596
1917.83     59.477  -112.761
1945.73     59.273  -117.593
1974.03     58.768  -121.819
2002.74     58.054  -124.390
2031.87     57.339  -124.437
2061.43     56.903  -122.727
2091.41     56.858  -120.936
2121.83     57.053  -121.072
2152.69     57.200  -123.400
2184.01     57.102  -126.736
2215.77     56.721  -129.713
2248.00     56.166  -130.967
2280.70     55.694  -130.177
2313.87     55.537  -128.380
2347.53     55.683  -127.689
2381.68     55.868  -128.858
2416.32     55.870  -131.376
2451.46     55.610  -133.774
2487.12     55.174  -134.529
2523.30     54.812  -133.595
2560.00     54.711  -131.529
2597.24     54.861  -130.232
2635.01     55.078  -130.175
2673.34     55.227  -130.750
2712.23     55.332  -131.333
2751.68     55.467  -131.696
2791.70     55.655  -132.325
2832.31     55.807  -133.691
2873.50     55.861  -135.199
2915.30     55.778  -135.828
2957.70     55.776  -135.127
3000.72     56.050  -133.840
3044.37     56.570  -133.842
3088.65     57.090  -135.933
3133.58     57.399  -139.283
3179.16     57.446  -142.258
3225.40     57.423  -143.918
3272.31     57.526  -144.667
3319.91     57.804  -146.027
3368.20     58.061  -148.594
3417.19     58.142  -151.877
3466.89     58.055  -154.619
3517.32     57.913  -156.406
3568.48     57.820  -157.564
3620.39     57.773  -158.798
3673.05     57.641  -160.335
3726.47     57.342  -161.462
3780.67     56.886  -160.502
3835.67     56.593  -156.306
3891.46     56.885  -150.808
3948.06     57.651  -147.090
4005.49     58.574  -145.338
4063.75     59.695  -145.049
4122.86     61.014  -148.307
4182.82     62.014  -156.277
4243.66     62.167  -166.497
4305.39     61.350  -173.695
4368.01     60.347  -172.410
4431.55     60.622  -166.584
4496.01     61.786  -167.323
4561.40     62.473  -174.106
4627.75     62.417   178.907
4695.06     62.051   174.336
4763.35     61.667   171.038
4832.64     61.153   168.457
4902.93     60.539   168.342
4974.24     60.222   170.368
5046.60     60.310   171.889
5120.00     60.563   170.986
5194.47     60.467   167.120
5270.03     59.501   164.834
5346.68     58.488   170.988
5424.45     58.754   179.105
5503.35     59.256  -177.217
5583.40     59.800  -172.724
5664.61     60.901  -170.099
5747.01     61.955  -171.435
5830.60     62.792  -174.453
5915.41     63.471  -178.723
6001.45     63.927   175.636
6088.74     63.998   169.374
6177.30     63.721   164.193
6267.15     63.274   159.880
6358.31     62.510   157.498
6450.80     61.869   158.567
6544.62     61.448   159.826
6639.82     61.059   162.203
6736.40     60.748   165.715
6834.38     60.852   171.869
6933.79     61.596   175.129
7034.64     62.297   175.900
7136.96     62.951   174.008
7240.77     63.193   171.670
7346.09     63.449   168.831
7452.94     63.446   166.128
7561.35     63.419   164.053
7671.33     63.296   163.042
7782.91     63.380   161.154
7896.12     63.158   159.268
8010.97     63.036   156.950
8127.49     62.458   155.033
8245.71     61.868   154.460
8365.65     61.047   156.053
8487.33     60.508   159.908
8610.78     60.313   163.594
8736.03     60.186   166.586
8863.09     60.204   167.331
8992.01     59.948   167.831
9122.80     59.337   167.546
9255.50     58.817   172.795
9390.12     58.963   175.985
9526.70     59.081   176.975
9665.27     59.037   176.141
9805.86     58.606   176.954
9948.49     58.251   179.153
10093.2     58.213  -176.220
10240.0     58.454  -171.789
10388.9     59.316  -169.243
10540.1     59.938  -172.046
10693.4     59.971  -175.107
10848.9     59.666  -177.378
11006.7     59.112  -177.556
11166.8     58.577  -174.763
11329.2     58.417  -168.908
11494.0     58.976  -164.828
11661.2     59.554  -164.580
11830.8     59.901  -165.661
12002.9     60.104  -167.431
12177.5     60.181  -169.646
12354.6     59.986  -172.031
12534.3     59.723  -174.031
12716.6     59.307  -175.260
12901.6     58.969  -176.142
13089.2     58.344  -177.775
13279.6     57.851  -174.850
13472.8     57.938  -175.985
13668.8     57.508   179.964
13867.6     56.503   177.278
14069.3     55.414   176.342
14273.9     54.325   176.945
14481.5     53.542   178.075
14692.2     52.910   172.185
14905.9     50.375   158.559
15122.7     44.003   146.103
15342.7     31.170  -142.001
15565.8     42.839   -60.275
15792.2     49.066   -75.005
16021.9     50.553   -89.327
16255.0     50.519   -95.998
16491.4     50.176   -93.869
16731.3     50.588   -95.379
16974.7     50.230   -98.867
17221.6     48.935  -102.067
17472.1     46.490   -97.129
17726.2     44.741   -77.879
17984.0     45.366   -53.715
18245.6     47.906   -40.824
18511.0     50.245   -40.353
18780.2     51.619   -47.745
19053.4     51.630   -56.645
19330.5     50.779   -61.433
19611.7     49.646   -62.403
19897.0     48.549   -58.405
20186.4     48.063   -52.875
20480.0     47.726   -50.155
20777.9     47.115   -44.895
21080.1     47.168   -38.900
21386.7     47.627   -41.806
21697.8     46.548   -44.519
22013.4     45.574   -42.533
22333.6     44.736   -40.944
22658.4     43.721   -41.656
22988.0     42.129   -43.085
23322.4     39.675   -42.051
23661.6     36.538   -32.560
24005.8     34.721   -11.875
24355.0     33.580     0.397
24709.2     32.919    23.042
25068.6     34.420    25.868
25433.2     29.915    19.159
25803.2     27.167    75.897
26178.5     31.207    94.508
26559.3     32.507   104.775
26945.6     35.045   109.189
27337.5     35.098   105.629
27735.2     36.320   114.890
28138.6     37.933    99.452
28547.9     35.459    81.362
28963.1     31.248    71.983
29384.4     21.842   120.942
29811.8     23.374   164.341
30245.4     22.931   171.354
30685.3     22.488   178.367
31131.7     22.045  -174.619
31584.5     21.602  -167.606
32043.9     21.159  -160.593
32510.0     20.716  -153.580
32982.8     20.273  -146.567
33462.6     19.830  -139.554
33949.3     19.387  -132.541
34443.1     18.944  -125.528
34944.1     18.501  -118.515
35452.4     18.058  -111.502
35968.0     17.615  -104.488
36491.2     17.172   -97.475
37022.0     16.729   -90.462
37560.5     16.286   -83.449
38106.8     15.843   -76.436
38661.1     15.400   -69.423
39223.4     14.957   -62.410
39793.9     14.514   -55.397
