Freq[Hz]     dBSPL  Phase[Deg]
5.00000     -8.541    11.185
5.07273     -7.818     8.751
5.14651     -7.265     5.979
5.22137     -7.185     2.264
5.29732     -7.105    -1.451
5.37437     -7.025    -5.166
5.45254     -6.945    -8.882
5.53185     -7.248   -13.048
5.61231     -7.958   -17.690
5.69394     -8.667   -22.333
5.77676     -9.376   -26.976
5.86079    -10.136   -31.714
5.94604    -13.867   -42.000
6.03252    -17.599   -52.287
6.12027    -21.330   -62.574
6.20929    -25.062   -72.861
6.29961    -22.780   -35.363
6.39124    -19.165    12.731
6.48420    -15.551    60.826
6.57851    -11.936   108.920
6.67420    -10.120   109.761
6.77128     -8.596   102.930
6.86977     -7.072    96.098
6.96969     -5.680    89.198
7.07107     -5.295    81.780
7.17392     -4.910    74.361
7.27827     -4.525    66.943
7.38413     -4.655    58.231
7.49154     -5.183    48.520
7.60050     -5.711    38.809
7.71105     -6.429    27.311
7.82321     -7.985     7.966
7.93701     -9.540   -11.379
8.05245    -11.095   -30.724
8.16958    -10.260   -62.228
8.28841     -9.336   -94.187
8.40896     -8.412  -126.146
8.53128     -6.888  -145.099
8.65537     -5.288  -162.375
8.78126     -3.687  -179.651
8.90899     -2.966   164.155
9.03857     -2.303   148.032
9.17004     -1.651   131.440
9.30342     -1.078   111.125
9.43874     -0.506    90.809
9.57603      0.361    70.660
9.71532      1.678    50.766
9.85663      2.995    30.872
10.0000      4.320    15.413
10.1455      5.648     1.189
10.2930      6.823   -11.852
10.4427      7.574   -21.590
10.5946      8.324   -31.327
10.7487      8.507   -37.374
10.9051      8.576   -42.684
11.0637      8.433   -43.983
11.2246      8.066   -41.040
11.3879      7.987   -36.321
11.5535      8.955   -25.127
11.7216      9.945   -14.061
11.8921     12.187   -10.405
12.0650     14.429    -6.751
12.2405     16.337    -9.023
12.4186     18.202   -12.060
12.5992     19.587   -16.984
12.7825     20.866   -22.326
12.9684     21.719   -27.983
13.1570     22.473   -33.712
13.3484     22.824   -38.709
13.5426     23.110   -43.586
13.7395     23.027   -46.303
13.9394     22.915   -48.497
14.1421     22.695   -47.342
14.3478     22.606   -45.103
14.5565     22.797   -40.532
14.7683     23.345   -36.343
14.9831     24.169   -32.449
15.2010     25.149   -31.325
15.4221     26.115   -31.084
15.6464     26.906   -32.642
15.8740     27.523   -34.395
16.1049     28.001   -36.304
16.3392     28.267   -37.044
16.5768     28.535   -36.943
16.8179     28.817   -35.685
17.0626     29.360   -33.520
17.3107     30.060   -31.643
17.5625     30.947   -30.386
17.8180     31.910   -31.040
18.0771     32.812   -32.602
18.3401     33.630   -34.966
18.6068     34.267   -37.731
18.8775     34.784   -40.060
19.1521     35.249   -41.761
19.4306     35.707   -42.654
19.7133     36.299   -42.613
20.0000     37.073   -42.579
20.2909     37.987   -43.097
20.5860     38.994   -44.512
20.8855     40.020   -47.013
21.1893     40.964   -50.573
21.4975     41.797   -54.582
21.8102     42.524   -58.688
22.1274     43.161   -62.636
22.4492     43.741   -66.263
22.7758     44.299   -69.537
23.1071     44.867   -72.573
23.4432     45.457   -75.586
23.7841     46.054   -78.798
24.1301     46.628   -82.281
24.4811     47.149   -85.955
24.8372     47.606   -89.660
25.1984     48.003   -93.211
25.5649     48.358   -96.472
25.9368     48.706   -99.417
26.3141     49.069  -102.145
26.6968     49.461  -104.840
27.0851     49.873  -107.680
27.4791     50.280  -110.749
27.8788     50.659  -113.994
28.2843     51.001  -117.269
28.6957     51.312  -120.442
29.1131     51.610  -123.457
29.5365     51.910  -126.355
29.9661     52.214  -129.227
30.4020     52.510  -132.131
30.8442     52.778  -135.017
31.2929     53.019  -137.752
31.7480     53.245  -140.238
32.2098     53.482  -142.493
32.6783     53.740  -144.662
33.1536     54.005  -146.906
33.6359     54.253  -149.214
34.1251     54.475  -151.427
34.6215     54.695  -153.432
35.1250     54.939  -155.340
35.6359     55.210  -157.385
36.1543     55.475  -159.618
36.6802     55.720  -161.864
37.2137     55.968  -163.959
37.7550     56.250  -166.036
38.3041     56.553  -168.348
38.8613     56.831  -170.785
39.4265     57.088  -172.994
40.0000     57.388  -174.972
40.5818     57.743  -177.187
41.1721     58.062  -179.897
41.7710     58.287   177.429
42.3785     58.474   175.390
42.9949     58.713   173.507
43.6203     58.928   171.254
44.2548     59.000   169.347
44.8985     59.104   169.041
45.5515     59.519   169.108
46.2141     60.134   167.133
46.8863     60.546   163.117
47.5683     60.643   159.632
48.2602     60.764   157.880
48.9621     61.103   156.173
49.6743     61.464   153.430
50.3968     61.717   150.719
51.1299     62.002   148.711
51.8736     62.392   146.581
52.6281     62.774   143.956
53.3936     63.110   141.417
54.1702     63.465   139.062
54.9581     63.842   136.488
55.7575     64.192   133.717
56.5685     64.524   130.951
57.3914     64.860   128.108
58.2261     65.188   125.074
59.0730     65.483   121.963
59.9323     65.761   118.996
60.8040     66.062   116.190
61.6884     66.405   113.300
62.5857     66.761   110.108
63.4960     67.090   106.675
64.4196     67.393   103.222
65.3566     67.688    99.704
66.3073     67.959    96.082
67.2717     68.209    92.600
68.2502     68.489    89.154
69.2429     68.780    85.476
70.2501     69.064    81.669
71.2719     69.353    77.638
72.3086     69.614    73.313
73.3603     69.833    68.804
74.4274     69.989    64.150
75.5099     70.083    59.709
76.6083     70.167    55.458
77.7226     70.224    51.318
78.8531     70.294    47.489
80.0000     70.403    43.524
81.1636     70.492    39.361
82.3442     70.567    35.169
83.5419     70.624    30.817
84.7570     70.630    26.379
85.9899     70.593    22.124
87.2406     70.543    18.054
88.5096     70.499    14.090
89.7970     70.451     9.986
91.1031     70.369     5.784
92.4282     70.218     1.493
93.7726     69.984    -2.336
95.1366     69.744    -5.541
96.5204     69.536    -8.261
97.9243     69.391   -10.706
99.3486     69.303   -13.268
100.794     69.225   -15.989
102.260     69.139   -18.802
103.747     69.064   -21.530
105.256     68.993   -24.463
106.787     68.907   -27.410
108.340     68.795   -30.459
109.916     68.636   -33.252
111.515     68.488   -35.680
113.137     68.382   -37.900
114.783     68.302   -40.319
116.452     68.210   -42.649
118.146     68.150   -44.926
119.865     68.106   -47.273
121.608     68.066   -49.753
123.377     68.032   -52.203
125.171     67.995   -54.724
126.992     67.980   -57.401
128.839     67.951   -60.248
130.713     67.896   -63.375
132.615     67.761   -66.507
134.543     67.602   -68.939
136.500     67.530   -71.423
138.486     67.419   -74.062
140.500     67.267   -76.555
142.544     67.102   -79.084
144.617     66.921   -81.129
146.721     66.794   -82.400
148.855     66.813   -84.181
151.020     66.788   -87.025
153.217     66.549   -89.646
155.445     66.291   -90.786
157.706     66.154   -91.405
160.000     66.046   -91.095
162.327     66.273   -90.305
164.688     66.612   -90.928
167.084     67.177   -92.043
169.514     67.728   -96.901
171.980     67.801  -101.615
174.481     67.849  -104.757
177.019     67.951  -107.749
179.594     68.046  -111.176
182.206     68.103  -114.569
184.856     68.199  -117.703
187.545     68.317  -120.872
190.273     68.455  -124.404
193.041     68.568  -128.375
195.849     68.626  -132.144
198.697     68.747  -136.512
201.587     68.652  -141.581
204.520     68.551  -145.025
207.494     68.481  -149.151
210.512     68.271  -153.280
213.574     67.994  -156.722
216.681     67.877  -158.216
219.833     67.825  -161.072
223.030     67.897  -163.747
226.274     67.788  -167.847
229.565     67.664  -170.554
232.905     67.529  -172.719
236.292     67.589  -175.018
239.729     67.453  -177.620
243.216     67.364  -179.297
246.754     67.539   179.672
250.343     67.943   176.676
253.984     68.248   172.168
257.678     68.340   166.992
261.426     68.261   161.928
265.229     68.118   155.693
269.087     67.362   153.208
273.001     67.260   153.358
276.972     67.330   149.711
281.000     67.061   148.566
285.088     67.149   147.045
289.234     67.328   145.027
293.441     67.543   142.339
297.709     67.758   137.856
302.040     67.614   132.439
306.433     67.032   129.152
310.890     67.010   128.650
315.412     66.905   125.489
320.000     66.729   123.176
324.655     66.607   123.108
329.377     66.715   121.506
334.168     66.876   118.844
339.028     66.799   115.043
343.959     66.285   113.875
348.962     66.436   116.740
354.038     66.987   116.134
359.188     67.591   112.918
364.412     68.049   106.920
369.713     67.622   102.944
375.090     67.600   100.479
380.546     67.741    99.532
386.081     68.072    96.211
391.697     68.158    91.761
397.394     68.266    85.447
403.175     67.519    82.474
409.039     67.625    81.883
414.989     67.316    78.481
421.025     67.392    77.517
427.149     67.333    75.899
433.362     67.429    73.620
439.665     67.454    70.425
446.060     67.072    67.570
452.548     67.239    66.400
459.131     66.793    64.868
465.809     67.237    64.246
472.584     67.026    60.215
479.458     66.914    59.260
486.432     66.876    58.176
493.507     67.042    55.484
500.686     66.607    54.665
507.968     66.881    55.330
515.357     67.094    52.879
522.853     67.106    50.642
530.458     67.219    50.622
538.174     67.580    48.453
546.002     68.163    46.346
553.943     68.099    39.851
562.001     68.163    37.712
570.175     68.222    33.328
578.469     68.117    29.911
586.883     68.126    26.359
595.419     67.935    23.125
604.080     67.969    20.571
612.866     68.020    17.137
621.780     67.877    11.902
630.824     67.656     8.411
640.000     67.376     4.918
649.309     67.192     1.752
658.753     66.932    -1.738
668.335     66.601    -4.851
678.056     66.265    -8.456
687.919     65.814   -11.546
697.925     65.303   -14.478
708.077     64.719   -16.568
718.376     64.084   -17.519
728.825     63.476   -17.336
739.426     62.947   -16.266
750.181     62.531   -14.628
761.093     62.275   -12.362
772.163     62.181    -9.886
783.394     62.256    -7.528
794.789     62.479    -5.695
806.349     62.833    -4.824
818.078     63.263    -4.690
829.977     63.698    -5.598
842.050     64.121    -7.328
854.298     64.497    -9.762
866.724     64.814   -12.824
879.330     65.054   -16.291
892.120     65.222   -20.215
905.097     65.308   -24.311
918.262     65.309   -28.513
931.618     65.214   -32.733
945.169     65.048   -36.833
958.917     64.794   -40.761
972.864     64.462   -44.299
987.015     64.087   -47.463
1001.37     63.645   -49.990
1015.94     63.201   -51.892
1030.71     62.791   -53.138
1045.71     62.430   -53.753
1060.92     62.156   -54.158
1076.35     62.012   -54.554
1092.00     61.949   -55.155
1107.89     61.939   -56.599
1124.00     61.953   -58.632
1140.35     61.899   -61.468
1156.94     61.760   -64.975
1173.77     61.467   -68.836
1190.84     60.998   -72.754
1208.16     60.319   -76.262
1225.73     59.401   -78.726
1243.56     58.242   -79.087
1261.65     57.011   -76.182
1280.00     56.072   -68.646
1298.62     55.916   -58.282
1317.51     56.714   -49.432
1336.67     58.013   -45.122
1356.11     59.346   -45.464
1375.84     60.453   -49.065
1395.85     61.271   -54.728
1416.15     61.766   -61.407
1436.75     61.945   -68.571
1457.65     61.844   -75.524
1478.85     61.452   -81.741
1500.36     60.845   -86.393
1522.19     60.108   -88.868
1544.33     59.460   -88.697
1566.79     59.186   -86.732
1589.58     59.410   -84.853
1612.70     59.978   -85.041
1636.16     60.629   -88.283
1659.95     61.129   -93.993
1684.10     61.346  -101.392
1708.60     61.212  -109.686
1733.45     60.709  -117.865
1758.66     59.819  -125.037
1784.24     58.581  -129.997
1810.19     57.196  -131.114
1836.52     56.070  -127.867
1863.24     55.667  -122.642
1890.34     55.979  -119.442
1917.83     56.483  -120.392
1945.73     56.749  -124.451
1974.03     56.582  -129.886
2002.74     55.983  -134.719
2031.87     55.075  -137.195
2061.43     54.212  -136.213
2091.41     53.776  -132.502
2121.83     53.931  -129.779
2152.69     54.336  -130.286
2184.01     54.552  -133.487
2215.77     54.401  -137.834
2248.00     53.908  -141.014
2280.70     53.217  -141.501
2313.87     52.730  -139.770
2347.53     52.716  -137.289
2381.68     53.011  -136.772
2416.32     53.284  -138.748
2451.46     53.304  -141.759
2487.12     53.055  -144.349
2523.30     52.726  -145.449
2560.00     52.501  -145.348
2597.24     52.511  -145.456
2635.01     52.546  -146.520
2673.34     52.427  -148.242
2712.23     52.163  -149.590
2751.68     51.871  -149.256
2791.70     51.769  -147.822
2832.31     51.888  -146.813
2873.50     52.053  -146.765
2915.30     52.111  -147.243
2957.70     52.171  -146.607
3000.72     52.414  -145.291
3044.37     52.941  -144.916
3088.65     53.466  -146.761
3133.58     53.745  -150.038
3179.16     53.783  -152.753
3225.40     53.809  -153.864
3272.31     54.067  -154.381
3319.91     54.463  -156.503
3368.20     54.718  -160.371
3417.19     54.666  -164.488
3466.89     54.436  -167.278
3517.32     54.206  -168.801
3568.48     54.107  -170.041
3620.39     53.996  -171.638
3673.05     53.756  -173.641
3726.47     53.251  -174.989
3780.67     52.491  -173.719
3835.67     51.910  -167.514
3891.46     52.198  -158.933
3948.06     53.199  -153.517
4005.49     54.352  -150.946
4063.75     55.741  -150.278
4122.86     57.332  -154.473
4182.82     58.431  -164.363
4243.66     58.427  -176.348
4305.39     57.277   176.000
4368.01     56.030   179.102
4431.55     56.464  -173.380
4496.01     57.786  -174.634
4561.40     58.402   177.870
4627.75     58.177   171.181
4695.06     57.789   167.673
4763.35     57.524   164.555
4832.64     56.879   161.084
4902.93     55.930   162.266
4974.24     55.697   167.266
5046.60     55.976   169.234
5120.00     56.163   169.888
5194.47     56.435   169.271
5270.03     56.240   166.746
5346.68     55.615   169.275
5424.45     55.888   175.060
5503.35     56.468   176.353
5583.40     56.843   178.056
5664.61     57.625   179.296
5747.01     58.421   177.408
5830.60     59.025   174.148
5915.41     59.455   169.801
6001.45     59.696   164.611
6088.74     59.541   158.434
6177.30     58.896   154.605
6267.15     58.408   153.177
6358.31     57.683   151.914
6450.80     57.095   155.315
6544.62     57.095   157.352
6639.82     56.847   158.871
6736.40     56.676   161.879
6834.38     56.845   166.843
6933.79     57.568   168.750
7034.64     58.076   168.939
7136.96     58.743   166.898
7240.77     58.806   163.642
7346.09     58.984   161.021
7452.94     58.818   157.306
7561.35     58.649   155.755
7671.33     58.477   154.355
7782.91     58.538   151.519
7896.12     57.960   147.650
8010.97     57.509   145.176
8127.49     56.261   142.547
8245.71     55.192   144.280
8365.65     53.691   147.208
8487.33     52.496   156.718
8610.78     52.173   168.536
8736.03     52.643   178.030
8863.09     53.417  -178.440
8992.01     53.818  -176.649
9122.80     53.879  -177.441
9255.50     53.884  -174.706
9390.12     54.107  -174.883
9526.70     54.002  -176.074
9665.27     53.665  -177.169
9805.86     52.919  -175.668
9948.49     52.295  -170.203
10093.2     52.574  -161.499
10240.0     53.577  -155.672
10388.9     54.792  -156.927
10540.1     55.306  -161.134
10693.4     55.333  -164.694
10848.9     55.037  -167.333
11006.7     54.272  -168.132
11166.8     53.836  -163.630
11329.2     54.029  -157.750
11494.0     54.776  -156.296
11661.2     55.271  -158.725
11830.8     55.366  -162.295
12002.9     55.154  -164.949
12177.5     54.866  -166.976
12354.6     54.351  -169.708
12534.3     53.613  -170.034
12716.6     53.248  -169.756
12901.6     52.807  -171.756
13089.2     51.765  -173.704
13279.6     50.874  -171.520
13472.8     49.892  -171.583
13668.8     48.891  -170.732
13867.6     47.221  -167.570
14069.3     45.983  -161.577
14273.9     45.033  -154.352
14481.5     44.446  -150.220
14692.2     43.002  -157.461
14905.9     34.198  -163.280
15122.7     32.390   -37.088
15342.7     43.882   -34.749
15565.8     48.266   -44.602
15792.2     50.788   -61.162
16021.9     51.364   -78.346
16255.0     50.291   -93.677
16491.4     48.279   -92.092
16731.3     47.772   -96.512
16974.7     45.531   -99.743
17221.6     42.346   -88.701
17472.1     40.983   -64.474
17726.2     42.343   -39.069
17984.0     45.430   -31.305
18245.6     47.281   -36.172
18511.0     47.979   -43.485
18780.2     47.698   -50.356
19053.4     47.036   -54.198
19330.5     46.318   -57.499
19611.7     44.892   -63.457
19897.0     42.149   -62.159
20186.4     40.186   -48.264
20480.0     39.946   -34.882
20777.9     39.956   -25.794
21080.1     40.655   -24.596
21386.7     40.022   -27.637
21697.8     38.686   -34.279
22013.4     36.058   -35.206
22333.6     32.311   -33.370
22658.4     27.135   -10.345
22988.0     24.127    29.566
23322.4     27.140    80.577
23661.6     30.229    90.872
24005.8     32.612   104.052
24355.0     34.757   100.681
24709.2     34.917    97.599
25068.6     34.985    99.505
25433.2     34.537    93.793
25803.2     31.690    97.168
26178.5     29.839   114.403
26559.3     30.013   138.335
26945.6     30.968   141.130
27337.5     30.267   147.365
27735.2     29.051   154.000
28138.6     29.356   173.429
28547.9     29.276   170.389
28963.1     28.058   172.121
29384.4     25.935   149.492
29811.8     26.982    61.857
30245.4     26.500    67.537
30685.3     26.018    73.216
31131.7     25.536    78.895
31584.5     25.053    84.574
32043.9     24.571    90.253
32510.0     24.089    95.933
32982.8     23.607   101.612
33462.6     23.125   107.291
33949.3     22.643   112.970
34443.1     22.160   118.649
34944.1     21.678   124.329
35452.4     21.196   130.008
35968.0     20.714   135.687
36491.2     20.232   141.366
37022.0     19.750   147.045
37560.5     19.268   152.725
38106.8     18.785   158.404
38661.1     18.303   164.083
39223.4     17.821   169.762
39793.9     17.339   175.441
