Freq[Hz]     dBSPL  Phase[Deg]
5.00000     -5.326     8.440
5.07273     -4.614     6.003
5.14651     -4.072     3.228
5.22137     -4.004    -0.490
5.29732     -3.935    -4.208
5.37437     -3.867    -7.926
5.45254     -3.798   -11.644
5.53185     -4.113   -15.813
5.61231     -4.833   -20.459
5.69394     -5.554   -25.104
5.77676     -6.275   -29.750
5.86079     -7.046   -34.491
5.94604    -10.789   -44.780
6.03252    -14.532   -55.070
6.12027    -18.274   -65.360
6.20929    -22.017   -75.651
6.29961    -19.747   -38.156
6.39124    -16.144     9.935
6.48420    -12.540    58.026
6.57851     -8.937   106.116
6.67420     -7.132   106.955
6.77128     -5.620   100.119
6.86977     -4.107    93.284
6.96969     -2.727    86.380
7.07107     -2.353    78.958
7.17392     -1.980    71.536
7.27827     -1.606    64.114
7.38413     -1.747    55.398
7.49154     -2.286    45.683
7.60050     -2.826    35.968
7.71105     -3.555    24.466
7.82321     -5.122     5.117
7.93701     -6.689   -14.232
8.05245     -8.255   -33.581
8.16958     -7.432   -65.090
8.28841     -6.519   -97.053
8.40896     -5.606  -129.016
8.53128     -4.094  -147.974
8.65537     -2.505  -165.254
8.78126     -0.915   177.465
8.90899     -0.206   161.266
9.03857      0.445   145.138
9.17004      1.087   128.542
9.30342      1.648   108.222
9.43874      2.209    87.901
9.57603      3.065    67.747
9.71532      4.370    47.848
9.85663      5.676    27.949
10.0000      6.990    12.484
10.1455      8.306    -1.745
10.2930      9.470   -14.792
10.4427     10.209   -24.535
10.5946     10.948   -34.278
10.7487     11.119   -40.330
10.9051     11.177   -45.646
11.0637     11.023   -46.951
11.2246     10.645   -44.013
11.3879     10.554   -39.300
11.5535     11.511   -28.113
11.7216     12.489   -17.052
11.8921     14.720   -13.403
12.0650     16.950    -9.755
12.2405     18.847   -12.034
12.4186     20.700   -15.077
12.5992     22.074   -20.008
12.7825     23.341   -25.357
12.9684     24.183   -31.020
13.1570     24.926   -36.757
13.3484     25.266   -41.760
13.5426     25.540   -46.644
13.7395     25.446   -49.369
13.9394     25.323   -51.570
14.1421     25.092   -50.423
14.3478     24.991   -48.191
14.5565     25.170   -43.628
14.7683     25.707   -39.447
14.9831     26.519   -35.561
15.2010     27.488   -34.444
15.4221     28.443   -34.211
15.6464     29.223   -35.777
15.8740     29.828   -37.538
16.1049     30.295   -39.456
16.3392     30.549   -40.204
16.5768     30.806   -40.113
16.8179     31.077   -38.863
17.0626     31.609   -36.707
17.3107     32.297   -34.840
17.5625     33.173   -33.592
17.8180     34.124   -34.255
18.0771     35.015   -35.827
18.3401     35.821   -38.200
18.6068     36.447   -40.974
18.8775     36.953   -43.314
19.1521     37.406   -45.024
19.4306     37.853   -45.928
19.7133     38.433   -45.897
20.0000     39.197   -45.874
20.2909     40.099   -46.403
20.5860     41.094   -47.829
20.8855     42.109   -50.340
21.1893     43.042   -53.911
21.4975     43.863   -57.931
21.8102     44.578   -62.049
22.1274     45.205   -66.008
22.4492     45.773   -69.647
22.7758     46.320   -72.934
23.1071     46.876   -75.982
23.4432     47.455   -79.006
23.7841     48.041   -82.232
24.1301     48.603   -85.727
24.4811     49.113   -89.414
24.8372     49.559   -93.132
25.1984     49.944   -96.696
25.5649     50.288   -99.971
25.9368     50.624  -102.929
26.3141     50.976  -105.670
26.6968     51.356  -108.380
27.0851     51.757  -111.234
27.4791     52.153  -114.318
27.8788     52.520  -117.578
28.2843     52.851  -120.867
28.6957     53.150  -124.055
29.1131     53.438  -127.086
29.5365     53.726  -129.999
29.9661     54.018  -132.886
30.4020     54.303  -135.806
30.8442     54.560  -138.709
31.2929     54.789  -141.460
31.7480     55.004  -143.963
32.2098     55.229  -146.235
32.6783     55.477  -148.421
33.1536     55.730  -150.683
33.6359     55.967  -153.008
34.1251     56.177  -155.238
34.6215     56.385  -157.262
35.1250     56.619  -159.188
35.6359     56.878  -161.252
36.1543     57.132  -163.504
36.6802     57.365  -165.770
37.2137     57.602  -167.883
37.7550     57.872  -169.981
38.3041     58.164  -172.313
38.8613     58.431  -174.770
39.4265     58.677  -177.000
40.0000     58.965  -178.999
40.5818     59.309   178.765
41.1721     59.617   176.033
41.7710     59.830   173.337
42.3785     60.006   171.276
42.9949     60.233   169.371
43.6203     60.437   167.095
44.2548     60.498   165.164
44.8985     60.590   164.835
45.5515     60.994   164.878
46.2141     61.597   162.878
46.8863     61.998   158.838
47.5683     62.084   155.328
48.2602     62.193   153.551
48.9621     62.521   151.818
49.6743     62.870   149.049
50.3968     63.112   146.311
51.1299     63.386   144.277
51.8736     63.764   142.120
52.6281     64.135   139.467
53.3936     64.460   136.900
54.1702     64.804   134.516
54.9581     65.169   131.913
55.7575     65.507   129.113
56.5685     65.829   126.318
57.3914     66.153   123.444
58.2261     66.469   120.379
59.0730     66.753   117.238
59.9323     67.020   114.240
60.8040     67.309   111.402
61.6884     67.641   108.479
62.5857     67.985   105.254
63.4960     68.303   101.788
64.4196     68.594    98.301
65.3566     68.879    94.749
66.3073     69.138    91.092
67.2717     69.376    87.575
68.2502     69.645    84.093
69.2429     69.924    80.378
70.2501     70.198    76.535
71.2719     70.475    72.467
72.3086     70.724    68.103
73.3603     70.932    63.555
74.4274     71.077    58.863
75.5099     71.159    54.382
76.6083     71.232    50.091
77.7226     71.278    45.910
78.8531     71.337    42.040
80.0000     71.434    38.032
81.1636     71.512    33.828
82.3442     71.576    29.592
83.5419     71.621    25.196
84.7570     71.615    20.714
85.9899     71.567    16.413
87.2406     71.506    12.298
88.5096     71.451     8.287
89.7970     71.391     4.136
91.1031     71.298    -0.114
92.4282     71.136    -4.453
93.7726     70.890    -8.331
95.1366     70.639   -11.586
96.5204     70.419   -14.357
97.9243     70.263   -16.853
99.3486     70.164   -19.468
100.794     70.074   -22.241
102.260     69.977   -25.109
103.747     69.890   -27.890
105.256     69.808   -30.879
106.787     69.710   -33.882
108.340     69.587   -36.988
109.916     69.416   -39.838
111.515     69.258   -42.325
113.137     69.140   -44.605
114.783     69.049   -47.084
116.452     68.946   -49.475
118.146     68.874   -51.814
119.865     68.819   -54.224
121.608     68.768   -56.767
123.377     68.722   -59.282
125.171     68.674   -61.869
126.992     68.647   -64.613
128.839     68.607   -67.527
130.713     68.540   -70.723
132.615     68.394   -73.925
134.543     68.223   -76.427
136.500     68.140   -78.983
138.486     68.018   -81.694
140.500     67.854   -84.261
142.544     67.678   -86.865
144.617     67.486   -88.986
146.721     67.347   -90.334
148.855     67.355   -92.193
151.020     67.319   -95.116
153.217     67.068   -97.818
155.445     66.799   -99.039
157.706     66.650   -99.741
160.000     66.532   -99.515
162.327     66.747   -98.811
164.688     67.075   -99.519
167.084     67.628  -100.723
169.514     68.168  -105.669
171.980     68.229  -110.473
174.481     68.266  -113.707
177.019     68.356  -116.792
179.594     68.440  -120.314
182.206     68.486  -123.802
184.856     68.570  -127.033
187.545     68.677  -130.300
190.273     68.804  -133.932
193.041     68.905  -138.005
195.849     68.952  -141.877
198.697     69.062  -146.349
201.587     68.955  -151.524
204.520     68.896  -154.974
207.494     68.792  -159.004
210.512     68.548  -163.527
213.574     68.305  -167.242
216.681     68.200  -168.646
219.833     68.122  -171.481
223.030     68.161  -174.316
226.274     68.046  -178.693
229.565     67.941   178.619
232.905     67.754   176.579
236.292     67.766   173.825
239.729     67.673   170.967
243.216     67.576   169.520
246.754     67.702   168.352
250.343     68.095   165.221
253.984     68.365   160.670
257.678     68.422   155.304
261.426     68.315   150.024
265.229     68.158   143.555
269.087     67.393   140.956
273.001     67.271   141.015
276.972     67.313   137.286
281.000     67.011   135.900
285.088     67.108   134.182
289.234     67.265   132.275
293.441     67.439   129.422
297.709     67.639   124.870
302.040     67.456   119.356
306.433     66.856   115.975
310.890     66.790   115.407
315.412     66.661   112.070
320.000     66.455   109.693
324.655     66.311   109.454
329.377     66.411   107.897
334.168     66.522   105.275
339.028     66.410   101.331
343.959     65.874   100.098
348.962     66.001   102.995
354.038     66.516   102.364
359.188     67.097    99.094
364.412     67.545    93.182
369.713     67.071    89.346
375.090     67.020    86.779
380.546     67.149    85.900
386.081     67.462    82.635
391.697     67.533    78.288
397.394     67.643    72.119
403.175     66.861    69.355
409.039     66.953    68.810
414.989     66.646    65.348
421.025     66.720    64.586
427.149     66.687    62.956
433.362     66.772    60.818
439.665     66.830    57.573
446.060     66.455    54.908
452.548     66.620    53.578
459.131     66.202    51.960
465.809     66.651    51.319
472.584     66.448    47.093
479.458     66.326    45.939
486.432     66.285    44.612
493.507     66.450    41.728
500.686     65.990    40.569
507.968     66.269    41.189
515.357     66.432    38.691
522.853     66.382    36.392
530.458     66.452    36.238
538.174     66.762    33.980
546.002     67.311    32.152
553.943     67.188    25.839
562.001     67.186    24.092
570.175     67.199    20.107
578.469     67.036    17.143
586.883     67.040    14.236
595.419     66.820    11.897
604.080     66.860    10.097
612.866     66.938     7.670
621.780     66.853     3.578
630.824     66.728     1.225
640.000     66.597    -0.905
649.309     66.563    -2.935
658.753     66.555    -5.350
668.335     66.535    -7.457
678.056     66.569   -10.325
687.919     66.566   -12.983
697.925     66.548   -15.932
708.077     66.484   -18.754
718.376     66.416   -21.328
728.825     66.386   -23.739
739.426     66.378   -26.099
750.181     66.377   -29.006
761.093     66.383   -32.165
772.163     66.342   -35.553
783.394     66.275   -39.111
794.789     66.161   -42.832
806.349     65.986   -46.502
818.078     65.791   -50.285
829.977     65.534   -53.814
842.050     65.211   -57.242
854.298     64.848   -60.475
866.724     64.452   -63.310
879.330     64.014   -65.703
892.120     63.569   -67.697
905.097     63.154   -69.171
918.262     62.788   -70.068
931.618     62.497   -70.643
945.169     62.278   -70.932
958.917     62.130   -71.504
972.864     62.088   -72.461
987.015     62.099   -73.788
1001.37     62.103   -75.783
1015.94     62.096   -78.592
1030.71     62.071   -81.556
1045.71     61.918   -84.709
1060.92     61.679   -88.559
1076.35     61.370   -92.195
1092.00     60.955   -95.564
1107.89     60.423   -98.488
1124.00     59.813  -100.846
1140.35     59.165  -102.374
1156.94     58.527  -103.086
1173.77     57.914  -102.497
1190.84     57.439  -101.590
1208.16     57.053   -99.829
1225.73     56.802   -98.401
1243.56     56.645   -97.073
1261.65     56.556   -95.713
1280.00     56.523   -94.561
1298.62     56.533   -93.255
1317.51     56.602   -91.527
1336.67     56.856   -90.378
1356.11     57.252   -89.421
1375.84     57.792   -89.665
1395.85     58.430   -90.995
1416.15     59.039   -93.770
1436.75     59.562   -97.734
1457.65     59.952  -102.834
1478.85     60.232  -108.654
1500.36     60.311  -114.723
1522.19     60.267  -120.884
1544.33     60.019  -126.684
1566.79     59.674  -132.325
1589.58     59.251  -136.816
1612.70     58.788  -140.590
1636.16     58.352  -143.586
1659.95     58.010  -146.380
1684.10     57.733  -149.157
1708.60     57.492  -152.131
1733.45     57.200  -155.740
1758.66     56.858  -159.461
1784.24     56.370  -163.032
1810.19     55.784  -165.665
1836.52     55.194  -167.027
1863.24     54.717  -166.886
1890.34     54.512  -166.489
1917.83     54.588  -166.546
1945.73     54.799  -168.665
1974.03     54.976  -172.599
2002.74     54.937  -177.861
2031.87     54.590   176.246
2061.43     53.970   171.253
2091.41     53.093   168.316
2121.83     52.273   167.906
2152.69     51.798   169.894
2184.01     51.779   171.445
2215.77     52.029   170.241
2248.00     52.176   166.832
2280.70     51.953   162.414
2313.87     51.401   158.812
2347.53     50.716   157.866
2381.68     50.382   159.910
2416.32     50.560   162.037
2451.46     51.126   161.007
2487.12     51.619   156.614
2523.30     51.667   150.554
2560.00     51.345   144.340
2597.24     50.758   140.109
2635.01     50.161   137.479
2673.34     49.682   136.237
2712.23     49.320   134.401
2751.68     48.869   132.778
2791.70     48.296   132.529
2832.31     47.847   134.569
2873.50     47.819   137.053
2915.30     48.047   137.757
2957.70     48.208   136.924
3000.72     48.174   137.213
3044.37     48.368   139.108
3088.65     49.011   139.754
3133.58     49.816   136.747
3179.16     50.151   130.720
3225.40     50.042   125.715
3272.31     49.749   124.562
3319.91     49.972   124.803
3368.20     50.688   121.910
3417.19     51.095   114.833
3466.89     50.850   107.169
3517.32     50.061   102.460
3568.48     49.387   101.750
3620.39     49.164   101.554
3673.05     49.032    98.930
3726.47     48.356    95.767
3780.67     47.177    96.129
3835.67     46.207   104.095
3891.46     46.562   116.280
3948.06     47.961   123.135
4005.49     49.432   125.296
4063.75     51.148   125.369
4122.86     53.159   120.118
4182.82     54.653   107.159
4243.66     54.871    90.546
4305.39     53.604    77.374
4368.01     51.711    76.944
4431.55     51.690    84.636
4496.01     52.889    82.665
4561.40     53.182    73.807
4627.75     52.571    67.428
4695.06     52.005    66.287
4763.35     52.023    64.451
4832.64     51.726    58.903
4902.93     50.514    57.479
4974.24     50.098    64.722
5046.60     51.016    66.267
5120.00     51.258    62.921
5194.47     51.417    61.820
5270.03     51.679    57.047
5346.68     50.772    53.489
5424.45     50.409    59.621
5503.35     51.212    60.316
5583.40     51.193    58.869
5664.61     51.686    62.832
5747.01     52.975    60.892
5830.60     53.759    53.862
5915.41     53.846    46.236
6001.45     53.765    41.928
6088.74     53.979    35.297
6177.30     53.219    26.716
6267.15     52.206    24.990
6358.31     51.562    24.573
6450.80     51.084    27.251
6544.62     51.090    26.856
6639.82     50.761    29.030
6736.40     51.052    28.443
6834.38     50.608    32.552
6933.79     52.249    33.463
7034.64     52.018    25.607
7136.96     52.401    28.714
7240.77     52.959    21.024
7346.09     52.799    17.516
7452.94     52.894    11.780
7561.35     52.799     6.770
7671.33     52.220     0.695
7782.91     52.093    -1.776
7896.12     51.213   -11.037
8010.97     49.978   -11.057
8127.49     48.896   -14.908
8245.71     47.175   -11.177
8365.65     46.098    -4.939
8487.33     45.304     5.411
8610.78     46.136    14.895
8736.03     46.454    18.445
8863.09     47.568    19.487
8992.01     47.883    16.738
9122.80     47.994    13.479
9255.50     48.000    11.841
9390.12     48.002     9.294
9526.70     47.853     3.151
9665.27     47.085     1.818
9805.86     46.145     0.870
9948.49     45.771     6.634
10093.2     46.145    12.520
10240.0     47.381    14.582
10388.9     48.401     9.245
10540.1     48.912     1.351
10693.4     48.666    -3.971
10848.9     48.329   -10.944
11006.7     47.709   -14.763
11166.8     46.850   -14.517
11329.2     46.532   -12.545
11494.0     47.028   -10.588
11661.2     47.637   -14.038
11830.8     47.835   -21.173
12002.9     47.381   -27.949
12177.5     46.916   -33.370
12354.6     46.152   -37.044
12534.3     45.190   -40.723
12716.6     44.989   -42.808
12901.6     44.578   -46.103
13089.2     43.053   -54.627
13279.6     41.399   -53.542
13472.8     40.519   -47.317
13668.8     40.186   -48.583
13867.6     39.180   -49.989
14069.3     38.046   -47.560
14273.9     36.880   -42.668
14481.5     36.368   -42.612
14692.2     34.898   -47.295
14905.9     29.271   -38.311
15122.7     29.321    27.475
15342.7     36.059    38.258
15565.8     40.014    28.432
15792.2     42.156     9.615
16021.9     42.406   -10.006
16255.0     41.714   -27.057
16491.4     38.289   -34.536
16731.3     37.276   -35.450
16974.7     35.030   -33.359
17221.6     33.327   -27.513
17472.1     32.145    -9.836
17726.2     32.998     5.655
17984.0     35.489    11.198
18245.6     37.181     3.366
18511.0     37.611    -7.434
18780.2     37.363   -16.236
19053.4     36.575   -24.236
19330.5     35.873   -31.901
19611.7     34.208   -40.279
19897.0     31.694   -43.120
20186.4     28.912   -32.890
20480.0     28.207   -19.339
20777.9     29.370   -15.497
21080.1     29.626   -18.648
21386.7     28.824   -30.324
21697.8     25.998   -44.660
22013.4     22.146     7.298
22333.6     18.724   -36.283
22658.4     15.347     5.753
22988.0     11.198    50.413
23322.4     18.232   -19.205
23661.6     24.517    99.541
24005.8     27.480    80.911
24355.0     28.090    44.663
24709.2     25.362    35.482
25068.6     25.020    19.679
25433.2     18.248    66.152
25803.2     18.079   112.509
26178.5     17.973    28.576
26559.3     16.935   -41.890
26945.6     22.415    71.798
27337.5     23.356    36.890
27735.2     21.268     6.118
28138.6     14.615   -43.149
28547.9     14.101  -157.945
28963.1     16.989   148.125
29384.4     18.815   104.172
29811.8     21.119  -102.337
30245.4     20.594   -72.487
30685.3     20.069   -42.638
31131.7     19.544   -12.788
31584.5     19.019    17.062
32043.9     18.494    46.912
32510.0     17.969    76.762
32982.8     17.444   106.612
33462.6     16.919   136.462
33949.3     16.394   166.311
34443.1     15.869  -163.839
34944.1     15.345  -133.989
35452.4     14.820  -104.139
35968.0     14.295   -74.289
36491.2     13.770   -44.439
37022.0     13.245   -14.589
37560.5     12.720    15.260
38106.8     12.195    45.110
38661.1     11.670    74.960
39223.4     11.145   104.810
39793.9     10.620   134.660
