Freq[Hz]     dBSPL  Phase[Deg]
5.00000      1.652    14.790
5.07273      2.339    12.371
5.14651      2.856     9.615
5.22137      2.899     5.915
5.29732      2.943     2.216
5.37437      2.986    -1.483
5.45254      3.030    -5.181
5.53185      2.690    -9.331
5.61231      1.944   -13.956
5.69394      1.199   -18.582
5.77676      0.453   -23.208
5.86079     -0.343   -27.927
5.94604     -4.111   -38.196
6.03252     -7.879   -48.464
6.12027    -11.647   -58.733
6.20929    -15.415   -69.001
6.29961    -13.170   -31.484
6.39124     -9.592    16.630
6.48420     -6.013    64.744
6.57851     -2.435   112.858
6.67420     -0.655   113.719
6.77128      0.832   106.908
6.86977      2.320   100.097
6.96969      3.675    93.218
7.07107      4.023    85.821
7.17392      4.372    78.425
7.27827      4.720    71.028
7.38413      4.554    62.339
7.49154      3.990    52.650
7.60050      3.425    42.962
7.71105      2.671    31.487
7.82321      1.079    12.166
7.93701     -0.513    -7.154
8.05245     -2.105   -26.475
8.16958     -1.306   -57.955
8.28841     -0.419   -89.888
8.40896      0.469  -121.822
8.53128      1.956  -140.750
8.65537      3.520  -157.999
8.78126      5.085  -175.248
8.90899      5.769   168.584
9.03857      6.395   152.488
9.17004      7.012   135.925
9.30342      7.548   115.637
9.43874      8.084    95.350
9.57603      8.914    75.230
9.71532     10.195    55.366
9.85663     11.475    35.501
10.0000     12.764    20.072
10.1455     14.055     5.879
10.2930     15.194    -7.131
10.4427     15.908   -16.837
10.5946     16.622   -26.542
10.7487     16.768   -32.557
10.9051     16.801   -37.834
11.0637     16.622   -39.100
11.2246     16.218   -36.122
11.3879     16.102   -31.368
11.5535     17.034   -20.140
11.7216     17.988    -9.038
11.8921     20.193    -5.347
12.0650     22.398    -1.656
12.2405     24.270    -3.891
12.4186     26.098    -6.890
12.5992     27.447   -11.776
12.7825     28.689   -17.080
12.9684     29.506   -22.697
13.1570     30.224   -28.387
13.3484     30.539   -33.343
13.5426     30.788   -38.179
13.7395     30.669   -40.855
13.9394     30.521   -43.007
14.1421     30.264   -41.809
14.3478     30.138   -39.527
14.5565     30.292   -34.912
14.7683     30.804   -30.678
14.9831     31.592   -26.739
15.2010     32.535   -25.569
15.4221     33.465   -25.281
15.6464     34.220   -26.791
15.8740     34.800   -28.496
16.1049     35.241   -30.356
16.3392     35.471   -31.047
16.5768     35.702   -30.896
16.8179     35.949   -29.587
17.0626     36.455   -27.370
17.3107     37.118   -25.442
17.5625     37.969   -24.131
17.8180     38.895   -24.731
18.0771     39.761   -26.239
18.3401     40.542   -28.548
18.6068     41.142   -31.256
18.8775     41.624   -33.528
19.1521     42.052   -35.171
19.4306     42.474   -36.005
19.7133     43.029   -35.904
20.0000     43.767   -35.811
20.2909     44.645   -36.267
20.5860     45.615   -37.620
20.8855     46.604   -40.057
21.1893     47.512   -43.553
21.4975     48.309   -47.497
21.8102     48.998   -51.537
22.1274     49.600   -55.418
22.4492     50.143   -58.977
22.7758     50.665   -62.183
23.1071     51.196   -65.149
23.4432     51.749   -68.090
23.7841     52.311   -71.231
24.1301     52.847   -74.640
24.4811     53.333   -78.241
24.8372     53.753   -81.871
25.1984     54.113   -85.346
25.5649     54.432   -88.529
25.9368     54.743   -91.395
26.3141     55.070   -94.044
26.6968     55.425   -96.659
27.0851     55.801   -99.416
27.4791     56.172  -102.402
27.8788     56.514  -105.564
28.2843     56.819  -108.753
28.6957     57.094  -111.839
29.1131     57.356  -114.766
29.5365     57.619  -117.575
29.9661     57.887  -120.356
30.4020     58.146  -123.168
30.8442     58.378  -125.961
31.2929     58.582  -128.601
31.7480     58.772  -130.991
32.2098     58.972  -133.149
32.6783     59.194  -135.218
33.1536     59.423  -137.363
33.6359     59.635  -139.569
34.1251     59.820  -141.678
34.6215     60.003  -143.578
35.1250     60.211  -145.380
35.6359     60.445  -147.318
36.1543     60.674  -149.442
36.6802     60.882  -151.577
37.2137     61.094  -153.559
37.7550     61.339  -155.522
38.3041     61.606  -157.718
38.8613     61.848  -160.037
39.4265     62.069  -162.127
40.0000     62.332  -163.984
40.5818     62.650  -166.077
41.1721     62.933  -168.662
41.7710     63.121  -171.210
42.3785     63.272  -173.120
42.9949     63.475  -174.873
43.6203     63.653  -176.995
44.2548     63.689  -178.768
44.8985     63.756  -178.938
45.5515     64.134  -178.733
46.2141     64.713   179.431
46.8863     65.089   175.557
47.5683     65.149   172.217
48.2602     65.234   170.610
48.9621     65.536   169.051
49.6743     65.860   166.458
50.3968     66.078   163.900
51.1299     66.326   162.047
51.8736     66.679   160.074
52.6281     67.025   157.608
53.3936     67.324   155.230
54.1702     67.643   153.039
54.9581     67.983   150.631
55.7575     68.297   148.028
56.5685     68.593   145.434
57.3914     68.893   142.764
58.2261     69.183   139.906
59.0730     69.442   136.974
59.9323     69.684   134.188
60.8040     69.948   131.566
61.6884     70.255   128.862
62.5857     70.574   125.860
63.4960     70.867   122.619
64.4196     71.133   119.360
65.3566     71.392   116.041
66.3073     71.626   112.619
67.2717     71.840   109.341
68.2502     72.084   106.100
69.2429     72.338   102.632
70.2501     72.586    99.038
71.2719     72.839    95.222
72.3086     73.063    91.115
73.3603     73.246    86.828
74.4274     73.365    82.400
75.5099     73.422    78.187
76.6083     73.470    74.168
77.7226     73.491    70.263
78.8531     73.524    66.672
80.0000     73.597    62.949
81.1636     73.649    59.032
82.3442     73.688    55.089
83.5419     73.709    50.989
84.7570     73.678    46.808
85.9899     73.604    42.813
87.2406     73.518    39.007
88.5096     73.438    35.310
89.7970     73.353    31.478
91.1031     73.235    27.551
92.4282     73.047    23.540
93.7726     72.777    19.995
95.1366     72.500    17.077
96.5204     72.256    14.649
97.9243     72.074    12.501
99.3486     71.950    10.238
100.794     71.835     7.823
102.260     71.713     5.318
103.747     71.601     2.905
105.256     71.494     0.290
106.787     71.371    -2.334
108.340     71.223    -5.056
109.916     71.027    -7.516
111.515     70.843    -9.607
113.137     70.701   -11.485
114.783     70.585   -13.557
116.452     70.456   -15.535
118.146     70.359   -17.455
119.865     70.279   -19.439
121.608     70.203   -21.551
123.377     70.132   -23.628
125.171     70.059   -25.770
126.992     70.007   -28.064
128.839     69.942   -30.521
130.713     69.850   -33.252
132.615     69.679   -35.984
134.543     69.483   -38.008
136.500     69.375   -40.080
138.486     69.227   -42.300
140.500     69.039   -44.368
142.544     68.837   -46.466
144.617     68.620   -48.074
146.721     68.456   -48.901
148.855     68.439   -50.231
151.020     68.378   -52.619
153.217     68.102   -54.777
155.445     67.808   -55.446
157.706     67.634   -55.588
160.000     67.490   -54.795
162.327     67.680   -53.514
164.688     67.983   -53.638
167.084     68.511   -54.249
169.514     69.026   -58.594
171.980     69.063   -62.787
174.481     69.074   -65.402
177.019     69.140   -67.859
179.594     69.198   -70.743
182.206     69.219   -73.585
184.856     69.278   -76.159
187.545     69.360   -78.762
190.273     69.462   -81.718
193.041     69.538   -85.106
195.849     69.559   -88.282
198.697     69.644   -92.049
201.587     69.512   -96.509
204.520     69.382   -99.500
207.494     69.290  -103.092
210.512     69.045  -106.603
213.574     68.726  -109.477
216.681     68.575  -110.489
219.833     68.498  -112.779
223.030     68.534  -114.770
226.274     68.380  -118.243
229.565     68.218  -120.313
232.905     68.033  -121.859
236.292     68.057  -123.645
239.729     67.902  -125.544
243.216     67.774  -126.422
246.754     67.905  -126.706
250.343     68.256  -128.869
253.984     68.500  -132.667
257.678     68.554  -137.116
261.426     68.424  -141.266
265.229     68.213  -146.670
269.087     67.406  -148.418
273.001     67.267  -147.361
276.972     67.266  -150.047
281.000     66.933  -150.403
285.088     66.975  -150.860
289.234     67.065  -151.849
293.441     67.214  -153.712
297.709     67.388  -157.250
302.040     67.203  -161.502
306.433     66.538  -163.538
310.890     66.439  -162.931
315.412     66.271  -164.892
320.000     66.030  -165.885
324.655     65.824  -164.674
329.377     65.874  -164.990
334.168     65.949  -166.111
339.028     65.792  -168.520
343.959     65.213  -168.210
348.962     65.309  -163.742
354.038     65.784  -162.653
359.188     66.321  -164.217
364.412     66.715  -168.361
369.713     66.229  -170.524
375.090     66.157  -171.151
380.546     66.273  -170.137
386.081     66.580  -171.396
391.697     66.649  -173.700
397.394     66.761  -177.801
403.175     66.019  -178.603
409.039     66.156  -177.050
414.989     65.891  -178.177
421.025     66.017  -177.133
427.149     66.066  -176.578
433.362     66.216  -176.876
439.665     66.353  -178.165
446.060     66.077  -179.192
452.548     66.345  -178.682
459.131     66.007  -178.613
465.809     66.544  -177.727
472.584     66.411   179.570
479.458     66.366   179.879
486.432     66.371  -179.919
493.507     66.559   178.524
500.686     66.121   178.901
507.968     66.385  -179.097
515.357     66.553   179.686
522.853     66.497   178.993
530.458     66.521  -179.401
538.174     66.767  -179.905
546.002     67.234   179.881
553.943     67.039   175.431
562.001     66.973   175.658
570.175     66.883   173.861
578.469     66.632   173.329
586.883     66.518   172.887
595.419     66.217   173.088
604.080     66.148   174.213
612.866     66.138   174.756
621.780     65.978   173.878
630.824     65.795   174.940
640.000     65.631   176.181
649.309     65.617   177.757
658.753     65.631   178.976
668.335     65.674  -179.423
678.056     65.804  -178.668
687.919     65.912  -177.767
697.925     66.015  -177.354
708.077     66.112  -177.019
718.376     66.189  -176.353
728.825     66.275  -175.683
739.426     66.396  -175.223
750.181     66.527  -175.120
761.093     66.635  -175.298
772.163     66.701  -175.671
783.394     66.718  -176.137
794.789     66.690  -176.625
806.349     66.624  -177.054
818.078     66.521  -177.345
829.977     66.381  -177.427
842.050     66.213  -177.334
854.298     66.030  -176.963
866.724     65.843  -176.320
879.330     65.660  -175.497
892.120     65.503  -174.412
905.097     65.362  -173.159
918.262     65.249  -171.926
931.618     65.161  -170.678
945.169     65.090  -169.632
958.917     65.026  -168.683
972.864     64.943  -167.959
987.015     64.842  -167.382
1001.37     64.700  -166.925
1015.94     64.515  -166.499
1030.71     64.298  -166.062
1045.71     64.035  -165.473
1060.92     63.729  -164.715
1076.35     63.413  -163.834
1092.00     63.078  -162.760
1107.89     62.730  -161.617
1124.00     62.374  -160.493
1140.35     61.981  -159.442
1156.94     61.529  -158.600
1173.77     60.988  -157.825
1190.84     60.315  -156.964
1208.16     59.457  -155.716
1225.73     58.397  -153.496
1243.56     57.121  -149.271
1261.65     55.749  -141.822
1280.00     54.599  -130.256
1298.62     54.153  -115.529
1317.51     54.597  -101.722
1336.67     55.564   -92.011
1356.11     56.566   -86.582
1375.84     57.353   -84.124
1395.85     57.844   -83.158
1416.15     58.014   -82.752
1436.75     57.919   -82.136
1457.65     57.638   -80.746
1478.85     57.240   -78.122
1500.36     56.848   -74.488
1522.19     56.525   -70.260
1544.33     56.276   -66.165
1566.79     56.013   -62.555
1589.58     55.629   -59.351
1612.70     55.055   -56.081
1636.16     54.273   -51.684
1659.95     53.417   -45.393
1684.10     52.637   -36.963
1708.60     52.119   -27.643
1733.45     51.787   -19.077
1758.66     51.343   -11.311
1784.24     50.569    -2.822
1810.19     49.524     9.835
1836.52     48.968    28.795
1863.24     49.880    49.562
1890.34     51.716    63.260
1917.83     53.414    69.891
1945.73     54.560    72.997
1974.03     55.131    75.727
2002.74     55.317    79.891
2031.87     55.441    86.410
2061.43     55.775    94.394
2091.41     56.358   101.874
2121.83     56.993   107.895
2152.69     57.482   113.054
2184.01     57.824   118.662
2215.77     58.169   125.221
2248.00     58.700   132.020
2280.70     59.359   137.833
2313.87     59.976   142.140
2347.53     60.409   145.761
2381.68     60.651   149.864
2416.32     60.861   154.918
2451.46     61.177   160.378
2487.12     61.579   165.174
2523.30     61.910   168.978
2560.00     62.050   172.610
2597.24     62.060   177.023
2635.01     62.103  -177.498
2673.34     62.291  -171.939
2712.23     62.511  -167.312
2751.68     62.605  -163.417
2791.70     62.527  -159.140
2832.31     62.410  -153.940
2873.50     62.372  -148.430
2915.30     62.357  -143.569
2957.70     62.191  -139.117
3000.72     61.850  -133.912
3044.37     61.514  -127.322
3088.65     61.337  -120.344
3133.58     61.212  -114.181
3179.16     60.955  -108.428
3225.40     60.604  -102.003
3272.31     60.305   -95.187
3319.91     60.013   -89.142
3368.20     59.483   -83.552
3417.19     58.719   -76.538
3466.89     58.028   -67.670
3517.32     57.499   -58.958
3568.48     56.784   -51.055
3620.39     55.805   -41.466
3673.05     54.965   -29.596
3726.47     54.255   -18.424
3780.67     53.143    -6.979
3835.67     51.903     9.899
3891.46     51.479    29.310
3948.06     51.252    46.581
4005.49     51.064    67.020
4063.75     51.973    87.606
4122.86     53.026   100.662
4182.82     53.232   113.784
4243.66     53.766   133.156
4305.39     55.612   150.355
4368.01     57.744   159.090
4431.55     59.301   161.717
4496.01     59.974   162.227
4561.40     59.969   164.777
4627.75     59.945   170.023
4695.06     60.029   174.373
4763.35     59.845   177.989
4832.64     59.595  -177.991
4902.93     59.242  -175.860
4974.24     58.381  -173.776
5046.60     57.593  -169.286
5120.00     57.187  -168.062
5194.47     56.333  -170.871
5270.03     55.253  -173.896
5346.68     54.336  -178.951
5424.45     53.550   175.975
5503.35     53.768   172.215
5583.40     54.666   166.188
5664.61     55.727   162.562
5747.01     57.202   159.536
5830.60     58.177   156.494
5915.41     59.014   158.174
6001.45     60.049   159.393
6088.74     60.686   161.076
6177.30     61.379   163.265
6267.15     61.665   164.354
6358.31     61.859   167.554
6450.80     62.035   168.769
6544.62     61.887   170.374
6639.82     61.736   170.407
6736.40     61.112   170.653
6834.38     60.768   171.192
6933.79     60.333   169.501
7034.64     60.183   166.048
7136.96     59.654   159.016
7240.77     59.280   155.182
7346.09     59.076   150.213
7452.94     59.004   148.945
7561.35     59.124   147.185
7671.33     59.225   148.899
7782.91     59.352   150.553
7896.12     59.489   155.877
8010.97     59.886   161.196
8127.49     60.526   164.394
8245.71     60.519   166.339
8365.65     60.657   168.509
8487.33     60.404   169.412
8610.78     60.000   168.415
8736.03     59.069   168.823
8863.09     58.083   170.716
8992.01     57.681   174.185
9122.80     57.439   173.785
9255.50     56.891   171.679
9390.12     56.530   172.630
9526.70     56.163   171.740
9665.27     56.085   171.566
9805.86     55.843   172.038
9948.49     55.682   172.539
10093.2     55.781   173.681
10240.0     55.709   176.422
10388.9     55.954   178.422
10540.1     56.202  -179.746
10693.4     56.509  -178.170
10848.9     56.499  -176.561
11006.7     56.704  -174.661
11166.8     56.988  -173.399
11329.2     57.184  -172.747
11494.0     57.403  -174.000
11661.2     57.294  -176.648
11830.8     57.122  -175.864
12002.9     57.493  -174.748
12177.5     57.836  -177.161
12354.6     57.720  -178.236
12534.3     57.787  -178.122
12716.6     57.661  -178.375
12901.6     57.433  -177.378
13089.2     57.205  -177.450
13279.6     56.880  -176.810
13472.8     56.718  -178.486
13668.8     56.101   177.915
13867.6     55.110   176.532
14069.3     54.199   178.778
14273.9     53.556  -178.052
14481.5     53.201  -172.138
14692.2     53.344  -168.761
14905.9     53.452  -169.071
15122.7     52.858  -173.665
15342.7     51.027  -174.378
15565.8     48.786  -166.505
15792.2     47.893  -145.257
16021.9     49.859  -131.983
16255.0     51.511  -134.434
16491.4     51.149  -143.007
16731.3     50.262  -139.547
16974.7     50.157  -137.462
17221.6     49.719  -138.185
17472.1     49.193  -139.876
17726.2     47.883  -143.958
17984.0     45.336  -144.731
18245.6     42.290  -133.032
18511.0     40.401  -111.196
18780.2     40.126   -86.873
19053.4     40.805   -68.059
19330.5     42.704   -50.591
19611.7     44.778   -49.681
19897.0     45.544   -51.028
20186.4     45.765   -51.108
20480.0     45.269   -48.067
20777.9     45.187   -36.964
21080.1     46.258   -29.218
21386.7     47.715   -29.812
21697.8     48.006   -35.581
22013.4     47.758   -37.419
22333.6     47.254   -40.247
22658.4     46.121   -39.807
22988.0     45.254   -37.846
23322.4     44.175   -36.170
23661.6     42.789   -29.644
24005.8     42.685   -19.686
24355.0     42.511   -20.942
24709.2     40.592   -21.476
25068.6     38.300    -8.552
25433.2     37.690    14.811
25803.2     39.248    26.339
26178.5     39.728    28.267
26559.3     39.697    31.021
26945.6     40.067    34.186
27337.5     39.799    30.629
27735.2     38.251    30.305
28138.6     35.721    27.825
28547.9     31.241    49.870
28963.1     30.589    82.822
29384.4     33.254   113.182
29811.8     35.253   120.839
30245.4     34.926   126.137
30685.3     34.599   131.435
31131.7     34.272   136.733
31584.5     33.945   142.031
32043.9     33.618   147.329
32510.0     33.291   152.627
32982.8     32.963   157.924
33462.6     32.636   163.222
33949.3     32.309   168.520
34443.1     31.982   173.818
34944.1     31.655   179.116
35452.4     31.328  -175.586
35968.0     31.001  -170.288
36491.2     30.674  -164.990
37022.0     30.346  -159.692
37560.5     30.019  -154.395
38106.8     29.692  -149.097
38661.1     29.365  -143.799
39223.4     29.038  -138.501
39793.9     28.711  -133.203
