Freq[Hz]     dBSPL  Phase[Deg]
5.00000    -14.640  -112.569
5.07273    -13.896  -114.700
5.14651    -13.322  -117.164
5.22137    -13.222  -120.566
5.29732    -13.121  -123.964
5.37437    -13.021  -127.358
5.45254    -12.920  -130.747
5.53185    -13.204  -134.582
5.61231    -13.892  -138.889
5.69394    -14.581  -143.191
5.77676    -15.270  -147.488
5.86079    -16.009  -151.875
5.94604    -19.720  -161.806
6.03252    -23.431  -171.732
6.12027    -27.142   178.348
6.20929    -30.853   168.432
6.29961    -28.551  -153.693
6.39124    -24.916  -105.216
6.48420    -21.280   -56.734
6.57851    -17.645    -8.246
6.67420    -15.809    -7.005
6.77128    -14.264   -13.432
6.86977    -12.720   -19.853
6.96969    -11.308   -26.336
7.07107    -10.902   -33.331
7.17392    -10.497   -40.320
7.27827    -10.091   -47.303
7.38413    -10.201   -55.573
7.49154    -10.708   -64.836
7.60050    -11.216   -74.092
7.71105    -11.913   -85.129
7.82321    -13.448  -104.005
7.93701    -14.983  -122.875
8.05245    -16.518  -141.739
8.16958    -15.662  -172.754
8.28841    -14.718   155.783
8.40896    -13.773   124.327
8.53128    -12.229   105.884
8.65537    -10.608    89.127
8.78126     -8.987    72.376
8.90899     -8.246    56.715
9.03857     -7.562    41.133
9.17004     -6.889    25.090
9.30342     -6.296     5.331
9.43874     -5.703   -14.420
9.57603     -4.816   -33.996
9.71532     -3.478   -53.308
9.85663     -2.141   -72.613
10.0000     -0.795   -87.474
10.1455      0.553  -101.091
10.2930      1.749  -113.516
10.4427      2.520  -122.629
10.5946      3.291  -131.732
10.7487      3.494  -137.136
10.9051      3.583  -141.793
11.0637      3.461  -142.431
11.2246      3.115  -138.816
11.3879      3.056  -133.415
11.5535      4.045  -121.530
11.7216      5.055  -109.762
11.8921      7.317  -105.395
12.0650      9.580  -101.019
12.2405     11.508  -102.559
12.4186     13.393  -104.852
12.5992     14.799  -109.022
12.7825     16.098  -113.600
12.9684     16.972  -118.480
13.1570     17.747  -123.423
13.3484     18.119  -127.620
13.5426     18.425  -131.688
13.7395     18.362  -133.583
13.9394     18.271  -134.943
14.1421     18.072  -132.941
14.3478     18.002  -129.844
14.5565     18.214  -124.402
14.7683     18.782  -119.330
14.9831     19.627  -114.539
15.2010     20.627  -112.505
15.4221     21.614  -111.341
15.6464     22.426  -111.963
15.8740     23.063  -112.766
16.1049     23.561  -113.711
16.3392     23.848  -113.474
16.5768     24.136  -112.381
16.8179     24.439  -110.117
17.0626     25.003  -106.930
17.3107     25.723  -104.018
17.5625     26.630  -101.710
17.8180     27.613  -101.298
18.0771     28.536  -101.779
18.3401     29.374  -103.046
18.6068     30.032  -104.696
18.8775     30.570  -105.897
19.1521     31.055  -106.451
19.4306     31.534  -106.182
19.7133     32.146  -104.961
20.0000     32.941  -103.731
20.2909     33.876  -103.034
20.5860     34.902  -103.218
20.8855     35.949  -104.469
21.1893     36.914  -106.761
21.4975     37.767  -109.483
21.8102     38.514  -112.285
22.1274     39.172  -114.908
22.4492     39.773  -117.192
22.7758     40.351  -119.104
23.1071     40.939  -120.758
23.4432     41.550  -122.367
23.7841     42.168  -124.157
24.1301     42.762  -126.195
24.4811     43.304  -128.405
24.8372     43.781  -130.624
25.1984     44.198  -132.667
25.5649     44.574  -134.398
25.9368     44.942  -135.791
26.3141     45.326  -136.944
26.6968     45.738  -138.043
27.0851     46.170  -139.261
27.4791     46.599  -140.686
27.8788     46.997  -142.264
28.2843     47.360  -143.846
28.6957     47.691  -145.302
29.1131     48.011  -146.575
29.5365     48.331  -147.706
29.9661     48.655  -148.784
30.4020     48.971  -149.869
30.8442     49.260  -150.910
31.2929     49.521  -151.773
31.7480     49.768  -152.359
32.2098     50.025  -152.687
32.6783     50.304  -152.900
33.1536     50.589  -153.161
33.6359     50.858  -153.456
34.1251     51.101  -153.627
34.6215     51.341  -153.560
35.1250     51.606  -153.366
35.6359     51.897  -153.279
36.1543     52.183  -153.349
36.6802     52.447  -153.401
37.2137     52.716  -153.268
37.7550     53.019  -153.087
38.3041     53.342  -153.107
38.8613     53.641  -153.219
39.4265     53.919  -153.068
40.0000     54.239  -152.653
40.5818     54.614  -152.440
41.1721     54.954  -152.686
41.7710     55.199  -152.861
42.3785     55.407  -152.364
42.9949     55.666  -151.674
43.6203     55.902  -151.318
44.2548     55.995  -150.577
44.8985     56.118  -148.196
45.5515     56.554  -145.403
46.2141     57.189  -144.614
46.8863     57.622  -145.824
47.5683     57.740  -146.462
48.2602     57.881  -145.327
48.9621     58.240  -144.105
49.6743     58.622  -143.875
50.3968     58.896  -143.571
51.1299     59.201  -142.519
51.8736     59.611  -141.545
52.6281     60.014  -141.021
53.3936     60.370  -140.366
54.1702     60.746  -139.480
54.9581     61.143  -138.765
55.7575     61.514  -138.200
56.5685     61.867  -137.581
57.3914     62.223  -136.991
58.2261     62.571  -136.541
59.0730     62.887  -136.116
59.9323     63.186  -135.497
60.8040     63.507  -134.665
61.6884     63.870  -133.865
62.5857     64.247  -133.311
63.4960     64.596  -132.945
64.4196     64.919  -132.544
65.3566     65.235  -132.151
66.3073     65.526  -131.806
67.2717     65.797  -131.262
68.2502     66.098  -130.625
69.2429     66.409  -130.160
70.2501     66.714  -129.763
71.2719     67.023  -129.529
72.3086     67.304  -129.528
73.3603     67.544  -129.648
74.4274     67.721  -129.848
75.5099     67.835  -129.771
76.6083     67.939  -129.438
77.7226     68.017  -128.928
78.8531     68.108  -128.039
80.0000     68.237  -127.217
81.1636     68.347  -126.523
82.3442     68.442  -125.788
83.5419     68.520  -125.142
84.7570     68.546  -124.508
85.9899     68.529  -123.618
87.2406     68.499  -122.468
88.5096     68.476  -121.136
89.7970     68.449  -119.867
91.1031     68.387  -118.618
92.4282     68.257  -117.378
93.7726     68.043  -115.596
95.1366     67.824  -113.109
96.5204     67.636  -110.054
97.9243     67.512  -106.639
99.3486     67.445  -103.258
100.794     67.386   -99.947
102.260     67.321   -96.642
103.747     67.266   -93.162
105.256     67.216   -89.797
106.787     67.150   -86.354
108.340     67.059   -82.921
109.916     66.920   -79.137
111.515     66.793   -74.893
113.137     66.707   -70.343
114.783     66.648   -65.894
116.452     66.577   -61.256
118.146     66.537   -56.464
119.865     66.514   -51.639
121.608     66.494   -46.842
123.377     66.480   -41.910
125.171     66.464   -36.941
126.992     66.470   -32.020
128.839     66.461   -27.158
130.713     66.426   -22.463
132.615     66.312   -17.661
134.543     66.173   -12.042
136.500     66.122    -6.359
138.486     66.031    -0.711
140.500     65.900     5.203
142.544     65.755    11.202
144.617     65.595    17.810
146.721     65.488    25.319
148.855     65.527    32.445
151.020     65.524    38.637
153.217     65.305    45.183
155.445     65.067    53.345
157.706     64.950    62.162
160.000     64.863    72.045
162.327     65.110    82.548
164.688     65.470    91.779
167.084     66.055   100.661
169.514     66.627   105.946
171.980     66.720   111.523
174.481     66.789   118.821
177.019     66.911   126.421
179.594     67.027   133.739
182.206     67.104   141.249
184.856     67.221   149.176
187.545     67.359   157.228
190.273     67.518   165.082
193.041     67.651   172.661
195.849     67.730  -179.390
198.697     67.871  -171.869
201.587     67.797  -164.876
204.520     67.734  -157.327
207.494     67.693  -150.091
210.512     67.456  -142.253
213.574     67.161  -134.069
216.681     67.061  -124.713
219.833     67.071  -115.895
223.030     67.193  -105.732
226.274     67.037   -97.123
229.565     66.901   -87.847
232.905     66.848   -77.682
236.292     66.918   -67.282
239.729     66.784   -57.104
243.216     66.788   -45.801
246.754     67.001   -33.425
250.343     67.417   -22.684
253.984     67.765   -13.462
257.678     67.890    -4.933
261.426     67.866     4.424
265.229     67.738    12.652
269.087     67.025    24.136
273.001     67.044    38.634
276.972     67.152    49.698
281.000     66.910    63.319
285.088     67.107    77.499
289.234     67.305    91.330
293.441     67.581   103.847
297.709     67.902   114.942
302.040     67.840   125.029
306.433     67.360   138.030
310.890     67.433   154.396
315.412     67.420   168.244
320.000     67.320  -177.462
324.655     67.335  -160.707
329.377     67.532  -145.484
334.168     67.813  -130.037
339.028     67.827  -115.841
343.959     67.436   -99.121
348.962     67.698   -78.488
354.038     68.416   -61.280
359.188     69.149   -45.823
364.412     69.729   -32.741
369.713     69.433   -17.802
375.090     69.554    -1.492
380.546     69.879    17.060
386.081     70.354    33.256
391.697     70.600    48.906
397.394     70.843    63.098
403.175     70.246    79.896
409.039     70.507    99.685
414.989     70.327   117.132
421.025     70.547   136.912
427.149     70.627   156.005
433.362     70.821   174.433
439.665     70.946  -167.116
446.060     70.665  -148.175
452.548     70.876  -127.655
459.131     70.488  -107.051
465.809     70.953   -84.734
472.584     70.750   -65.909
479.458     70.617   -43.942
486.432     70.543   -21.364
493.507     70.653     0.262
500.686     70.128    24.525
507.968     70.324    50.318
515.357     70.456    73.172
522.853     70.358    97.153
530.458     70.378   123.897
538.174     70.631   148.645
546.002     71.142   173.681
553.943     70.998  -165.056
562.001     70.992  -138.606
570.175     71.004  -113.928
578.469     70.870   -87.441
586.883     70.895   -61.107
595.419     70.697   -34.329
604.080     70.770    -6.582
612.866     70.877    21.095
621.780     70.817    47.406
630.824     70.693    75.982
640.000     70.542   104.383
649.309     70.488   132.826
658.753     70.382   161.280
668.335     70.263  -168.993
678.056     70.113  -140.043
687.919     69.867  -110.484
697.925     69.546   -80.878
708.077     69.136   -51.062
718.376     68.649   -20.377
728.825     68.100    11.102
739.426     67.488    42.979
750.181     66.822    75.022
761.093     66.038   107.358
772.163     65.115   139.045
783.394     64.030   171.040
794.789     62.653  -156.601
806.349     61.039  -125.572
818.078     59.049   -95.444
829.977     56.468   -68.961
842.050     53.412   -50.936
854.298     51.383   -47.378
866.724     52.564   -46.750
879.330     55.377   -31.136
892.120     58.043    -3.889
905.097     60.077    28.810
918.262     61.676    64.395
931.618     62.942   101.646
945.169     63.939   140.606
958.917     64.673  -179.642
972.864     65.260  -139.022
987.015     65.664   -97.404
1001.37     65.898   -54.528
1015.94     65.974   -10.779
1030.71     65.897    33.096
1045.71     65.656    78.404
1060.92     65.259   125.175
1076.35     64.648   172.332
1092.00     63.861  -139.431
1107.89     62.802   -89.230
1124.00     61.467   -37.150
1140.35     59.798    17.649
1156.94     57.757    77.444
1173.77     55.551   144.782
1190.84     54.084  -137.852
1208.16     54.628   -58.162
1225.73     56.522    15.480
1243.56     58.560    81.933
1261.65     60.220   144.072
1280.00     61.482  -155.738
1298.62     62.434   -96.477
1317.51     63.061   -36.927
1336.67     63.448    23.477
1356.11     63.560    84.185
1375.84     63.438   145.925
1395.85     63.061  -150.872
1416.15     62.383   -86.927
1436.75     61.396   -21.800
1457.65     60.037    45.501
1478.85     58.168   115.890
1500.36     55.732  -169.134
1522.19     52.652   -82.840
1544.33     50.577    20.297
1566.79     52.102   127.473
1589.58     55.108  -140.679
1612.70     57.623   -59.096
1636.16     59.487    19.268
1659.95     60.844    96.840
1684.10     61.783   174.475
1708.60     62.416  -107.203
1733.45     62.733   -28.430
1758.66     62.795    52.096
1784.24     62.571   133.892
1810.19     62.132  -143.392
1836.52     61.427   -58.314
1863.24     60.465    29.160
1890.34     59.202   119.112
1917.83     57.733  -147.507
1945.73     56.074   -49.697
1974.03     54.518    53.568
2002.74     53.443   161.304
2031.87     53.087   -88.711
2061.43     53.104    19.539
2091.41     53.332   127.140
2121.83     53.313  -125.518
2152.69     53.044   -18.277
2184.01     52.455    91.700
2215.77     51.858  -155.270
2248.00     51.247   -37.800
2280.70     50.959    81.560
2313.87     51.061  -157.905
2347.53     51.361   -36.915
2381.68     51.652    83.280
2416.32     51.744  -156.177
2451.46     51.679   -33.825
2487.12     51.335    91.080
2523.30     50.800  -140.957
2560.00     50.369    -9.629
2597.24     50.204   124.789
2635.01     50.285   -98.224
2673.34     50.639    38.984
2712.23     51.095   176.085
2751.68     51.468   -45.593
2791.70     51.611    93.254
2832.31     51.464  -125.959
2873.50     51.135    18.011
2915.30     50.653   165.364
2957.70     50.279   -42.297
3000.72     50.104   112.531
3044.37     50.292   -90.947
3088.65     50.551    67.080
3133.58     50.779  -133.892
3179.16     50.922    27.742
3225.40     51.006  -168.216
3272.31     51.191    -1.833
3319.91     51.505   166.970
3368.20     51.811   -22.859
3417.19     52.118   148.188
3466.89     52.210   -39.628
3517.32     52.034   135.237
3568.48     51.537   -47.354
3620.39     50.794   134.768
3673.05     49.996   -36.677
3726.47     49.585   156.012
3780.67     49.643    -9.489
3835.67     49.710  -174.313
3891.46     49.488    22.767
3948.06     49.007  -136.514
4005.49     48.441    69.338
4063.75     48.340   -78.150
4122.86     48.522   135.863
4182.82     49.006   -10.810
4243.66     49.268  -154.091
4305.39     49.321    64.277
4368.01     49.412   -73.151
4431.55     49.466   152.259
4496.01     49.399    19.976
4561.40     49.139  -107.969
4627.75     48.792   129.770
4695.06     49.012    12.638
4763.35     49.475  -105.850
4832.64     49.591   134.619
4902.93     48.535    17.421
4974.24     46.281   -91.069
5046.60     43.682   179.527
5120.00     43.980   103.485
5194.47     46.137    13.774
5270.03     46.721   -82.302
5346.68     45.597  -168.920
5424.45     45.631   120.590
5503.35     47.820    44.328
5583.40     48.878   -42.410
5664.61     47.617  -123.366
5747.01     45.867   175.128
5830.60     46.445   121.705
5915.41     47.179    61.161
6001.45     46.748     5.971
6088.74     46.896   -41.831
6177.30     47.031   -91.786
6267.15     45.579  -134.265
6358.31     44.635  -158.542
6450.80     45.656   175.936
6544.62     45.712   150.300
6639.82     46.236   135.757
6736.40     47.876   115.491
6834.38     48.437    91.506
6933.79     48.119    70.559
7034.64     47.209    43.722
7136.96     43.655    -0.147
7240.77     39.191   -80.092
7346.09     40.272  -147.515
7452.94     39.777  -156.645
7561.35     40.007  -130.687
7671.33     40.761  -104.522
7782.91     40.136   -67.755
7896.12     40.821   -23.103
8010.97     40.689    23.440
8127.49     40.813    75.617
8245.71     39.484   125.076
8365.65     34.778  -162.233
8487.33     34.462   -55.212
8610.78     35.268    36.018
8736.03     37.143   129.923
8863.09     37.612  -151.887
8992.01     33.874   -45.067
9122.80     35.529    84.105
9255.50     35.343   179.298
9390.12     31.780   -34.110
9526.70     35.803    99.197
9665.27     34.320  -136.408
9805.86     34.691    12.538
9948.49     32.861   150.160
10093.2     29.219   -33.032
10240.0     31.848   166.691
10388.9     36.471   -41.393
10540.1     34.245   122.743
10693.4     34.600   -41.746
10848.9     33.047   147.652
11006.7     32.373     6.530
11166.8     33.774  -150.552
11329.2     32.006    57.691
11494.0     28.734   -61.005
11661.2     28.070  -174.493
11830.8     30.815    80.355
12002.9     28.867   -68.061
12177.5     24.347  -129.002
12354.6     28.225   131.179
12534.3     26.764    34.420
12716.6     18.783   161.883
12901.6     17.344   145.937
13089.2     22.599   -50.149
13279.6     18.169   169.225
13472.8     24.688   -93.670
13668.8     17.531    12.446
13867.6     18.636   -16.353
14069.3     17.031    -2.505
14273.9     20.945    35.088
14481.5     20.679    28.341
14692.2     17.772     7.226
14905.9     16.354   -51.264
15122.7     18.448    96.908
15342.7     14.482   -58.799
15565.8     15.297  -128.460
15792.2     18.200     0.995
16021.9     21.995   -46.471
16255.0     24.599   -21.953
16491.4     23.666    74.500
16731.3     19.924    19.383
16974.7     23.737    25.558
17221.6     22.287   108.898
17472.1     23.902    -7.806
17726.2     23.631    43.380
17984.0     22.908  -179.495
18245.6     19.022   -41.041
18511.0     19.716  -118.440
18780.2     16.261   -65.409
19053.4     17.073   -83.407
19330.5     17.541    88.699
19611.7     18.148    87.002
19897.0     16.871    74.830
20186.4     17.779     2.567
20480.0     16.552   -36.225
20777.9     18.227    76.735
21080.1     19.783  -167.201
21386.7     17.545  -103.663
21697.8     19.286   151.968
22013.4     18.407   112.169
22333.6     17.853   124.729
22658.4     18.461   -27.956
22988.0     17.035     4.323
23322.4     17.802   162.726
23661.6     18.346  -164.949
24005.8     19.905  -173.968
24355.0     17.934   151.037
24709.2     18.149   140.350
25068.6     21.303   111.866
25433.2     21.544   168.955
25803.2     21.307  -168.729
26178.5     19.322   117.225
26559.3     20.653   -16.559
26945.6     23.352  -109.988
27337.5     21.135   -77.788
27735.2     19.769   134.055
28138.6     19.078  -145.472
28547.9     18.576  -104.535
28963.1     18.371   -99.563
29384.4     18.466    35.267
29811.8     18.495    75.349
30245.4     18.482  -160.311
30685.3     18.470   -35.972
31131.7     18.457    88.368
31584.5     18.444  -147.292
32043.9     18.431   -22.953
32510.0     18.419   101.387
32982.8     18.406  -134.273
33462.6     18.393    -9.934
33949.3     18.381   114.406
34443.1     18.368  -121.255
34944.1     18.355     3.085
35452.4     18.342   127.425
35968.0     18.330  -108.236
36491.2     18.317    16.104
37022.0     18.304   140.444
37560.5     18.291   -95.217
38106.8     18.279    29.123
38661.1     18.266   153.463
39223.4     18.253   -82.198
39793.9     18.241    42.142
