Freq[Hz]     dBSPL  Phase[Deg]
5.00000    -20.316  -153.587
5.07273    -19.551  -155.402
5.14651    -18.957  -157.546
5.22137    -18.835  -160.623
5.29732    -18.714  -163.692
5.37437    -18.593  -166.751
5.45254    -18.471  -169.801
5.53185    -18.733  -173.291
5.61231    -19.401  -177.249
5.69394    -20.069   178.803
5.77676    -20.737   174.865
5.86079    -21.456   170.843
5.94604    -25.146   161.283
6.03252    -28.836   151.732
6.12027    -32.526   142.192
6.20929    -36.216   132.663
6.29961    -33.893   170.930
6.39124    -30.237  -140.196
6.48420    -26.581   -91.310
6.57851    -22.925   -42.412
6.67420    -21.067   -40.756
6.77128    -19.502   -46.761
6.86977    -17.937   -52.755
6.96969    -16.504   -58.804
7.07107    -16.078   -65.359
7.17392    -15.651   -71.902
7.27827    -15.225   -78.432
7.38413    -15.313   -86.242
7.49154    -15.800   -95.039
7.60050    -16.286  -103.822
7.71105    -16.963  -114.379
7.82321    -18.477  -132.769
7.93701    -19.991  -151.145
8.05245    -21.505  -169.507
8.16958    -20.629   159.986
8.28841    -19.663   129.039
8.40896    -18.698    98.106
8.53128    -17.133    80.194
8.65537    -15.491    63.975
8.78126    -13.849    47.771
8.90899    -13.087    32.664
9.03857    -12.383    17.644
9.17004    -11.689     2.172
9.30342    -11.075   -17.008
9.43874    -10.461   -36.171
9.57603     -9.552   -55.151
9.71532     -8.194   -73.859
9.85663     -6.836   -92.550
10.0000     -5.469  -106.789
10.1455     -4.101  -119.775
10.2930     -2.884  -131.559
10.4427     -2.092  -140.022
10.5946     -1.300  -148.467
10.7487     -1.076  -153.201
10.9051     -0.966  -157.180
11.0637     -1.067  -157.129
11.2246     -1.393  -152.815
11.3879     -1.431  -146.706
11.5535     -0.421  -134.103
11.7216      0.610  -121.605
11.8921      2.893  -116.498
12.0650      5.177  -111.371
12.2405      7.126  -112.149
12.4186      9.032  -113.670
12.5992     10.459  -117.056
12.7825     11.779  -120.838
12.9684     12.674  -124.912
13.1570     13.469  -129.035
13.3484     13.862  -132.402
13.5426     14.189  -135.627
13.7395     14.147  -136.667
13.9394     14.077  -137.159
14.1421     13.898  -134.278
14.3478     13.850  -130.288
14.5565     14.082  -123.940
14.7683     14.671  -117.948
14.9831     15.537  -112.225
15.2010     16.558  -109.246
15.4221     17.566  -107.122
15.6464     18.398  -106.770
15.8740     19.057  -106.585
16.1049     19.576  -106.529
16.3392     19.883  -105.274
16.5768     20.192  -103.150
16.8179     20.516   -99.839
17.0626     21.101   -95.591
17.3107     21.841   -91.602
17.5625     22.770   -88.201
17.8180     23.774   -86.679
18.0771     24.718   -86.035
18.3401     25.577   -86.161
18.6068     26.255   -86.654
18.8775     26.814   -86.680
19.1521     27.320   -86.042
19.4306     27.820   -84.564
19.7133     28.452   -82.116
20.0000     29.268   -79.641
20.2909     30.224   -77.682
20.5860     31.272   -76.585
20.8855     32.339   -76.536
21.1893     33.325   -77.510
21.4975     34.199   -78.894
21.8102     34.967   -80.338
22.1274     35.646   -81.585
22.4492     36.267   -82.472
22.7758     36.866   -82.966
23.1071     37.475   -83.182
23.4432     38.107   -83.332
23.7841     38.746   -83.642
24.1301     39.360   -84.179
24.4811     39.923   -84.865
24.8372     40.422   -85.539
25.1984     40.859   -86.014
25.5649     41.256   -86.154
25.9368     41.645   -85.933
26.3141     42.050   -85.449
26.6968     42.483   -84.886
27.0851     42.936   -84.419
27.4791     43.385   -84.134
27.8788     43.805   -83.977
28.2843     44.188   -83.799
28.6957     44.540   -83.469
29.1131     44.880   -82.931
29.5365     45.222   -82.224
29.9661     45.567   -81.437
30.4020     45.904   -80.630
30.8442     46.214   -79.752
31.2929     46.495   -78.667
31.7480     46.764   -77.278
32.2098     47.041   -75.601
32.6783     47.341   -73.781
33.1536     47.647   -71.979
33.6359     47.937   -70.181
34.1251     48.200   -68.228
34.6215     48.461   -66.006
35.1250     48.747   -63.627
35.6359     49.059   -61.322
36.1543     49.366   -59.143
36.6802     49.651   -56.912
37.2137     49.941   -54.463
37.7550     50.264   -51.933
38.3041     50.608   -49.568
38.8613     50.929   -47.262
39.4265     51.227   -44.658
40.0000     51.568   -41.754
40.5818     51.964   -39.016
41.1721     52.325   -36.700
41.7710     52.591   -34.275
42.3785     52.820   -31.141
42.9949     53.100   -27.776
43.6203     53.356   -24.705
44.2548     53.470   -21.210
44.8985     53.614   -16.035
45.5515     54.071   -10.408
46.2141     54.727    -6.742
46.8863     55.181    -5.035
47.5683     55.319    -2.713
48.2602     55.481     1.425
48.9621     55.861     5.694
49.6743     56.264     9.015
50.3968     56.559    12.455
51.1299     56.885    16.689
51.8736     57.316    20.891
52.6281     57.740    24.690
53.3936     58.117    28.668
54.1702     58.514    32.925
54.9581     58.931    37.059
55.7575     59.323    41.094
56.5685     59.697    45.234
57.3914     60.074    49.395
58.2261     60.443    53.468
59.0730     60.779    57.569
59.9323     61.099    61.917
60.8040     61.441    66.533
61.6884     61.825    71.173
62.5857     62.223    75.620
63.4960     62.593    79.938
64.4196     62.937    84.348
65.3566     63.274    88.808
66.3073     63.586    93.280
67.2717     63.877    98.009
68.2502     64.199   102.894
69.2429     64.531   107.667
70.2501     64.857   112.436
71.2719     65.187   117.105
72.3086     65.489   121.605
73.3603     65.750   126.051
74.4274     65.947   130.482
75.5099     66.082   135.259
76.6083     66.208   140.359
77.7226     66.306   145.705
78.8531     66.417   151.501
80.0000     66.568   157.301
81.1636     66.698   163.046
82.3442     66.815   168.905
83.5419     66.913   174.750
84.7570     66.960  -179.342
85.9899     66.964  -173.101
87.2406     66.955  -166.522
88.5096     66.953  -159.682
89.7970     66.947  -152.825
91.1031     66.906  -145.907
92.4282     66.796  -138.916
93.7726     66.604  -131.298
95.1366     66.405  -122.890
96.5204     66.238  -113.829
97.9243     66.135  -104.321
99.3486     66.088   -94.757
100.794     66.051   -85.174
102.260     66.007   -75.505
103.747     65.973   -65.569
105.256     65.943   -55.654
106.787     65.898   -45.566
108.340     65.828   -35.391
109.916     65.710   -24.767
111.515     65.604   -13.584
113.137     65.539    -1.994
114.783     65.501     9.598
116.452     65.450    21.483
118.146     65.431    33.627
119.865     65.429    45.911
121.608     65.430    58.275
123.377     65.437    70.885
125.171     65.442    83.643
126.992     65.468    96.466
128.839     65.481   109.346
130.713     65.467   122.175
132.615     65.373   135.230
134.543     65.255   149.221
136.500     65.225   163.398
138.486     65.155   177.664
140.500     65.044  -167.679
142.544     64.921  -152.809
144.617     64.781  -137.202
146.721     64.695  -120.563
148.855     64.755  -104.174
151.020     64.773   -88.585
153.217     64.575   -72.504
155.445     64.358   -54.669
157.706     64.262   -36.038
160.000     64.196   -16.198
162.327     64.464     4.406
164.688     64.844    23.886
167.084     65.450    43.165
169.514     66.043    58.999
171.980     66.157    75.278
174.481     66.246    93.433
177.019     66.390   112.049
179.594     66.526   130.543
182.206     66.625   149.391
184.856     66.762   168.822
187.545     66.921  -171.455
190.273     67.101  -151.761
193.041     67.255  -132.170
195.849     67.354  -112.033
198.697     67.517   -92.147
201.587     67.463   -72.610
204.520     67.399   -53.490
207.494     67.362   -34.958
210.512     67.185   -15.087
213.574     66.951     5.513
216.681     66.866    26.656
219.833     66.851    47.851
223.030     66.937    70.622
226.274     66.857    91.600
229.565     66.835   114.198
232.905     66.743   137.766
236.292     66.807   160.711
239.729     66.747  -175.258
243.216     66.696  -150.026
246.754     66.902  -124.565
250.343     67.396   -99.531
253.984     67.761   -75.818
257.678     67.902   -52.919
261.426     67.881   -28.581
265.229     67.812    -5.421
269.087     67.123    21.580
273.001     67.081    51.118
276.972     67.213    76.842
281.000     67.014   106.351
285.088     67.191   137.013
289.234     67.417   167.104
293.441     67.707  -163.816
297.709     68.047  -136.412
302.040     68.022  -109.580
306.433     67.496   -79.254
310.890     67.536   -45.185
315.412     67.533   -13.833
320.000     67.471    18.514
324.655     67.439    53.088
329.377     67.654    86.009
334.168     67.916   120.762
339.028     67.929   154.113
343.959     67.521  -169.884
348.962     67.777  -130.001
354.038     68.444   -93.422
359.188     69.132   -58.262
364.412     69.690   -24.595
369.713     69.348    10.941
375.090     69.428    47.816
380.546     69.687    87.625
386.081     70.109   125.076
391.697     70.288   162.574
397.394     70.465  -160.411
403.175     69.774  -121.642
409.039     69.921   -79.213
414.989     69.652   -38.356
421.025     69.716     4.851
427.149     69.671    47.357
433.362     69.697    89.112
439.665     69.647   132.588
446.060     69.165   176.252
452.548     69.172  -138.171
459.131     68.529   -91.737
465.809     68.729   -42.781
472.584     68.196     2.654
479.458     67.733    51.527
486.432     67.288   101.752
493.507     66.978   151.991
500.686     66.018  -154.078
507.968     65.739   -98.141
515.357     65.349   -44.768
522.853     64.724    10.992
530.458     64.128    70.994
538.174     63.875   129.603
546.002     63.847  -170.308
553.943     63.248  -112.739
562.001     62.923   -47.815
570.175     62.786    17.017
578.469     62.685    84.700
586.883     62.935   151.889
595.419     63.227  -141.196
604.080     63.924   -72.969
612.866     64.758    -5.063
621.780     65.478    61.529
630.824     66.180   129.980
640.000     66.838  -162.142
649.309     67.569   -94.859
658.753     68.264   -27.380
668.335     68.922    42.714
678.056     69.573   111.564
687.919     70.109  -178.275
697.925     70.558  -107.313
708.077     70.932   -36.462
718.376     71.227    36.151
728.825     71.490   110.100
739.426     71.748  -174.646
750.181     71.999   -98.417
761.093     72.208   -21.021
772.163     72.363    56.174
783.394     72.458   134.596
794.789     72.511  -144.463
806.349     72.511   -63.541
818.078     72.465    18.676
829.977     72.355   102.115
842.050     72.211  -173.188
854.298     71.995   -87.163
866.724     71.730    -1.138
879.330     71.399    87.445
892.120     71.002   177.312
905.097     70.534   -91.545
918.262     69.995     0.958
931.618     69.364    94.694
945.169     68.643  -170.272
958.917     67.842   -74.020
972.864     66.914    23.642
987.015     65.851   122.468
1001.37     64.614  -136.305
1015.94     63.219   -33.991
1030.71     61.596    68.133
1045.71     59.670   172.065
1060.92     57.328   -82.544
1076.35     54.437    20.336
1092.00     50.781   118.369
1107.89     46.858  -157.655
1124.00     46.210   -88.578
1140.35     49.205    -3.088
1156.94     52.044   102.247
1173.77     54.138  -144.061
1190.84     55.609   -26.375
1208.16     56.671    93.772
1225.73     57.461  -142.681
1243.56     58.024   -16.480
1261.65     58.379   111.233
1280.00     58.605  -120.130
1298.62     58.659     9.667
1317.51     58.609   141.579
1336.67     58.415   -84.557
1356.11     58.118    49.756
1375.84     57.746  -174.227
1395.85     57.287   -36.537
1416.15     56.754   101.378
1436.75     56.257  -120.904
1457.65     55.838    18.837
1478.85     55.464   160.678
1500.36     55.214   -56.254
1522.19     54.959    90.406
1544.33     54.660  -119.720
1566.79     54.214    34.496
1589.58     53.465  -167.577
1612.70     52.319    -6.330
1636.16     50.485   160.271
1659.95     47.689   -25.775
1684.10     43.511   165.992
1708.60     41.628    32.194
1733.45     45.924  -114.357
1758.66     50.186    78.798
1784.24     52.964   -93.563
1810.19     54.843    92.748
1836.52     56.161   -77.783
1863.24     57.019   114.751
1890.34     57.462   -49.752
1917.83     57.571   149.414
1945.73     57.412    -7.864
1974.03     57.055  -159.553
2002.74     56.556    53.147
2031.87     56.034   -89.809
2061.43     55.563   131.298
2091.41     55.197    -2.980
2121.83     54.883  -133.112
2152.69     54.628    98.219
2184.01     54.263   -26.288
2215.77     53.885  -146.163
2248.00     53.498    97.654
2280.70     53.190   -15.401
2313.87     53.194  -123.668
2347.53     53.246   130.870
2381.68     53.387    26.205
2416.32     53.391   -75.268
2451.46     53.126  -173.730
2487.12     52.615    91.896
2523.30     51.925     3.020
2560.00     51.096   -81.081
2597.24     50.528  -160.912
2635.01     50.102   121.922
2673.34     49.716    46.388
2712.23     49.133   -29.039
2751.68     47.981  -102.388
2791.70     46.059  -176.613
2832.31     43.005   105.786
2873.50     39.166    14.072
2915.30     38.646   -92.316
2957.70     41.483  -175.962
3000.72     43.607   122.934
3044.37     44.396    72.952
3088.65     43.992    35.564
3133.58     42.865    10.270
3179.16     41.814     1.406
3225.40     42.937     2.400
3272.31     45.236    -3.709
3319.91     47.200   -13.899
3368.20     48.217   -24.648
3417.19     48.224   -34.272
3466.89     47.269   -40.325
3517.32     45.131   -39.517
3568.48     41.289   -31.201
3620.39     35.583     3.606
3673.05     35.128    77.353
3726.47     39.663   118.226
3780.67     42.347   142.569
3835.67     44.008   166.326
3891.46     44.934  -162.512
3948.06     45.399  -123.864
4005.49     45.624   -76.094
4063.75     45.911   -14.888
4122.86     46.478    54.559
4182.82     47.350   130.204
4243.66     48.351  -147.390
4305.39     49.181   -61.089
4368.01     49.687    31.425
4431.55     49.861   130.663
4496.01     49.744  -122.981
4561.40     49.396    -9.439
4627.75     48.584   110.749
4695.06     47.500  -120.962
4763.35     45.603    15.001
4832.64     42.460   160.564
4902.93     37.524   -32.225
4974.24     35.124  -178.425
5046.60     40.026    22.448
5120.00     43.660  -159.713
5194.47     45.819    18.047
5270.03     47.047  -160.841
5346.68     47.905    26.588
5424.45     48.704  -136.091
5503.35     49.645    70.062
5583.40     50.719   -74.390
5664.61     51.584   150.568
5747.01     51.879    23.432
5830.60     51.275   -94.958
5915.41     49.461   161.221
6001.45     46.775    73.273
6088.74     44.181     3.986
6177.30     42.287   -50.905
6267.15     40.433   -90.304
6358.31     41.077  -110.588
6450.80     44.239  -140.827
6544.62     46.511   179.538
6639.82     47.507   142.501
6736.40     47.696   111.087
6834.38     47.215    85.075
6933.79     46.273    68.202
7034.64     44.956    65.011
7136.96     44.105    77.186
7240.77     44.451   105.223
7346.09     44.963   142.369
7452.94     43.833  -175.563
7561.35     39.667  -119.234
7671.33     26.551    -8.920
7782.91     32.220  -156.357
7896.12     37.698   -36.620
8010.97     41.608    98.128
8127.49     44.660  -130.269
8245.71     45.356     3.183
8365.65     43.710   146.297
8487.33     40.012   -55.846
8610.78     36.097   120.352
8736.03     34.585   -55.657
8863.09     32.958   118.334
8992.01     29.582  -106.491
9122.80     34.654    35.610
9255.50     38.628  -113.230
9390.12     39.718   135.854
9526.70     40.072    44.091
9665.27     39.367   -37.465
9805.86     37.302  -104.224
9948.49     34.007  -167.975
10093.2     31.361   117.113
10240.0     31.182    61.492
10388.9     31.791    50.740
10540.1     31.202    32.565
10693.4     32.238    -4.687
10848.9     34.921     2.278
11006.7     35.145    63.972
11166.8     35.050   149.715
11329.2     31.965  -116.690
11494.0     25.217   -28.451
11661.2     21.957    -9.028
11830.8     27.683    62.175
12002.9     28.095  -155.308
12177.5     29.775    32.228
12354.6     31.599  -137.782
12534.3     33.139    68.944
12716.6     31.884   -96.632
12901.6     27.053   104.079
13089.2     24.868   -14.346
13279.6     29.453   -98.042
13472.8     28.887  -150.761
13668.8     23.865  -175.829
13867.6     19.835   105.639
14069.3     24.968  -105.006
14273.9     25.442   -28.944
14481.5     28.461    57.156
14692.2     30.503   149.865
14905.9     30.302  -103.508
15122.7     29.218    37.748
15342.7     27.930  -161.499
15565.8     25.252    42.938
15792.2     22.331   -93.193
16021.9     22.388    33.571
16255.0     26.684    87.805
16491.4     26.985    -9.754
16731.3     26.797   -62.097
16974.7     25.085   -51.731
17221.6     25.248   -34.270
17472.1     23.758   -12.729
17726.2     19.911  -177.216
17984.0     17.818  -121.678
18245.6     19.390  -179.115
18511.0     17.640  -145.059
18780.2     16.458    70.439
19053.4     17.709   111.756
19330.5     15.974     4.792
19611.7     17.541   143.856
19897.0     16.359  -133.385
20186.4     13.911   -95.284
20480.0     16.140    70.875
20777.9     17.170  -166.943
21080.1     17.531  -140.416
21386.7     16.618    88.541
21697.8     15.112  -176.248
22013.4     15.624    29.084
22333.6     15.963   103.662
22658.4     17.617   143.655
22988.0     14.776   100.343
23322.4     15.097    98.572
23661.6     18.048   -79.437
24005.8     18.253   -55.413
24355.0     15.785   -42.893
24709.2     18.838  -179.639
25068.6     17.647   -73.968
25433.2     16.931  -142.960
25803.2     15.995   -14.691
26178.5     15.867   118.529
26559.3     18.283   148.047
26945.6     16.478  -134.714
27337.5     14.760    86.095
27735.2     17.685  -139.646
28138.6     18.012   126.051
28547.9     17.498    14.045
28963.1     17.745    89.458
29384.4     17.939   136.272
29811.8     15.847   158.264
30245.4     15.648    -1.393
30685.3     15.448  -161.051
31131.7     15.248    39.292
31584.5     15.049  -120.365
32043.9     14.849    79.978
32510.0     14.649   -79.679
32982.8     14.450   120.664
33462.6     14.250   -38.993
33949.3     14.050   161.349
34443.1     13.851     1.692
34944.1     13.651  -157.965
35452.4     13.451    42.378
35968.0     13.251  -117.279
36491.2     13.052    83.064
37022.0     12.852   -76.593
37560.5     12.652   123.749
38106.8     12.453   -35.908
38661.1     12.253   164.435
39223.4     12.053     4.778
39793.9     11.854  -154.879
