Freq[Hz]     dBSPL  Phase[Deg]
5.00000     -7.934   -36.249
5.07273     -7.213   -38.406
5.14651     -6.661   -40.897
5.22137     -6.583   -44.326
5.29732     -6.504   -47.752
5.37437     -6.426   -51.173
5.45254     -6.348   -54.590
5.53185     -6.653   -58.454
5.61231     -7.364   -62.790
5.69394     -8.075   -67.121
5.77676     -8.786   -71.449
5.86079     -9.547   -75.865
5.94604    -13.280   -85.827
6.03252    -17.014   -95.784
6.12027    -20.747  -105.736
6.20929    -24.480  -115.684
6.29961    -22.200   -77.842
6.39124    -18.587   -29.398
6.48420    -14.974    19.051
6.57851    -11.361    67.505
6.67420     -9.546    68.711
6.77128     -8.024    62.250
6.86977     -6.502    55.794
6.96969     -5.112    49.275
7.07107     -4.729    42.243
7.17392     -4.346    35.217
7.27827     -3.962    28.196
7.38413     -4.094    19.888
7.49154     -4.624    10.587
7.60050     -5.153     1.291
7.71105     -5.873    -9.785
7.82321     -7.430   -28.703
7.93701     -8.987   -47.613
8.05245    -10.544   -66.518
8.16958     -9.711   -97.576
8.28841     -8.788  -129.081
8.40896     -7.866  -160.581
8.53128     -6.344  -179.068
8.65537     -4.745   164.130
8.78126     -3.146   147.334
8.90899     -2.427   131.627
9.03857     -1.766   115.998
9.17004     -1.115    99.908
9.30342     -0.544    80.101
9.43874      0.027    60.301
9.57603      0.892    40.676
9.71532      2.207    21.313
9.85663      3.522     1.958
10.0000      4.846   -12.955
10.1455      6.172   -26.624
10.2930      7.345   -39.103
10.4427      8.094   -48.269
10.5946      8.843   -57.428
10.7487      9.024   -62.887
10.9051      9.091   -67.601
11.0637      8.947   -68.295
11.2246      8.578   -64.738
11.3879      8.497   -59.396
11.5535      9.464   -47.571
11.7216     10.452   -35.863
11.8921     12.692   -31.558
12.0650     14.932   -27.244
12.2405     16.838   -28.847
12.4186     18.701   -31.205
12.5992     20.085   -35.440
12.7825     21.362   -40.083
12.9684     22.214   -45.031
13.1570     22.966   -50.041
13.3484     23.316   -54.308
13.5426     23.600   -58.445
13.7395     23.515   -60.411
13.9394     23.402   -61.843
14.1421     23.180   -59.915
14.3478     23.089   -56.891
14.5565     23.278   -51.525
14.7683     23.824   -46.528
14.9831     24.646   -41.815
15.2010     25.625   -39.860
15.4221     26.589   -38.775
15.6464     27.379   -39.478
15.8740     27.994   -40.363
16.1049     28.470   -41.391
16.3392     28.734   -41.238
16.5768     29.000   -40.231
16.8179     29.282   -38.054
17.0626     29.823   -34.955
17.3107     30.521   -32.133
17.5625     31.406   -29.915
17.8180     32.367   -29.595
18.0771     33.268   -30.169
18.3401     34.083   -31.531
18.6068     34.719   -33.278
18.8775     35.234   -34.575
19.1521     35.697   -35.228
19.4306     36.154   -35.060
19.7133     36.744   -33.940
20.0000     37.517   -32.814
20.2909     38.429   -32.222
20.5860     39.434   -32.512
20.8855     40.458   -33.871
21.1893     41.401   -36.272
21.4975     42.232   -39.106
21.8102     42.957   -42.020
22.1274     43.593   -44.758
22.4492     44.171   -47.157
22.7758     44.727   -49.187
23.1071     45.293   -50.960
23.4432     45.882   -52.690
23.7841     46.477   -54.603
24.1301     47.049   -56.766
24.4811     47.569   -59.102
24.8372     48.024   -61.449
25.1984     48.419   -63.622
25.5649     48.773   -65.486
25.9368     49.119   -67.012
26.3141     49.480   -68.301
26.6968     49.870   -69.538
27.0851     50.280   -70.896
27.4791     50.686   -72.463
27.8788     51.063   -74.184
28.2843     51.403   -75.913
28.6957     51.713   -77.517
29.1131     52.010   -78.941
29.5365     52.308   -80.224
29.9661     52.609   -81.457
30.4020     52.904   -82.699
30.8442     53.171   -83.899
31.2929     53.409   -84.923
31.7480     53.634   -85.674
32.2098     53.869   -86.167
32.6783     54.126   -86.549
33.1536     54.389   -86.982
33.6359     54.636   -87.451
34.1251     54.855   -87.797
34.6215     55.073   -87.909
35.1250     55.316   -87.897
35.6359     55.585   -87.994
36.1543     55.849   -88.251
36.6802     56.091   -88.492
37.2137     56.338   -88.551
37.7550     56.618   -88.565
38.3041     56.919   -88.782
38.8613     57.197   -89.095
39.4265     57.452   -89.148
40.0000     57.750   -88.940
40.5818     58.103   -88.936
41.1721     58.420   -89.395
41.7710     58.643   -89.785
42.3785     58.829   -89.507
42.9949     59.066   -89.040
43.6203     59.279   -88.908
44.2548     59.350   -88.396
44.8985     59.452   -86.247
45.5515     59.865   -83.690
46.2141     60.478   -83.138
46.8863     60.889   -84.591
47.5683     60.984   -85.475
48.2602     61.103   -84.589
48.9621     61.440   -83.620
49.6743     61.800   -83.646
50.3968     62.052   -83.602
51.1299     62.335   -82.814
51.8736     62.723   -82.109
52.6281     63.103   -81.856
53.3936     63.437   -81.477
54.1702     63.791   -80.870
54.9581     64.166   -80.440
55.7575     64.514   -80.162
56.5685     64.845   -79.835
57.3914     65.179   -79.541
58.2261     65.505   -79.392
59.0730     65.798   -79.273
59.9323     66.075   -78.963
60.8040     66.374   -78.445
61.6884     66.715   -77.963
62.5857     67.070   -77.733
63.4960     67.397   -77.694
64.4196     67.698   -77.626
65.3566     67.992   -77.570
66.3073     68.260   -77.567
67.2717     68.509   -77.371
68.2502     68.788   -77.087
69.2429     69.076   -76.979
70.2501     69.359   -76.945
71.2719     69.647   -77.079
72.3086     69.905   -77.452
73.3603     70.123   -77.950
74.4274     70.277   -78.535
75.5099     70.369   -78.847
76.6083     70.452   -78.910
77.7226     70.507   -78.801
78.8531     70.576   -78.319
80.0000     70.683   -77.911
81.1636     70.770   -77.636
82.3442     70.844   -77.326
83.5419     70.899   -77.111
84.7570     70.903   -76.915
85.9899     70.864   -76.469
87.2406     70.812   -75.770
88.5096     70.767   -74.895
89.7970     70.717   -74.090
91.1031     70.633   -73.311
92.4282     70.481   -72.549
93.7726     70.245   -71.251
95.1366     70.003   -69.254
96.5204     69.793   -66.698
97.9243     69.647   -63.789
99.3486     69.558   -60.920
100.794     69.477   -58.130
102.260     69.390   -55.353
103.747     69.313   -52.409
105.256     69.241   -49.587
106.787     69.152   -46.696
108.340     69.039   -43.822
109.916     68.878   -40.606
111.515     68.729   -36.938
113.137     68.621   -32.972
114.783     68.540   -29.116
116.452     68.446   -25.079
118.146     68.384   -20.897
119.865     68.338   -16.691
121.608     68.297   -12.522
123.377     68.261    -8.227
125.171     68.222    -3.905
126.992     68.205     0.360
128.839     68.175     4.558
130.713     68.118     8.577
132.615     67.981    12.695
134.543     67.820    17.619
136.500     67.747    22.597
138.486     67.634    27.530
140.500     67.480    32.718
142.544     67.313    37.981
144.617     67.131    43.843
146.721     67.002    50.593
148.855     67.019    56.951
151.020     66.993    62.363
153.217     66.752    68.118
155.445     66.493    75.477
157.706     66.354    83.480
160.000     66.244    92.537
162.327     66.469   102.201
164.688     66.807   110.583
167.084     67.370   118.601
169.514     67.919   123.011
171.980     67.990   127.700
174.481     68.037   134.097
177.019     68.137   140.782
179.594     68.230   147.174
182.206     68.286   153.742
184.856     68.380   160.715
187.545     68.496   167.799
190.273     68.633   174.670
193.041     68.744  -178.748
195.849     68.800  -171.810
198.697     68.919  -165.315
201.587     68.822  -159.363
204.520     68.715  -152.544
207.494     68.614  -146.521
210.512     68.388  -140.104
213.574     68.132  -132.910
216.681     68.022  -124.226
219.833     67.967  -116.371
223.030     68.057  -107.660
226.274     67.944  -100.180
229.565     67.784   -91.464
232.905     67.620   -82.435
236.292     67.680   -73.665
239.729     67.600   -64.456
243.216     67.562   -53.744
246.754     67.682   -42.398
250.343     68.034   -33.013
253.984     68.354   -25.037
257.678     68.439   -17.560
261.426     68.359    -9.429
265.229     68.204    -2.328
269.087     67.426     8.282
273.001     67.348    21.637
276.972     67.393    31.457
281.000     67.083    43.994
285.088     67.181    56.892
289.234     67.328    69.411
293.441     67.523    81.034
297.709     67.728    90.911
302.040     67.594    99.880
306.433     67.000   111.890
310.890     66.932   127.018
315.412     66.823   139.560
320.000     66.593   153.048
324.655     66.438   168.443
329.377     66.537  -177.380
334.168     66.630  -163.040
339.028     66.509  -150.091
343.959     65.961  -134.276
348.962     66.047  -114.445
354.038     66.533   -98.140
359.188     67.060   -83.878
364.412     67.455   -71.672
369.713     66.916   -57.389
375.090     66.804   -41.872
380.546     66.848   -23.841
386.081     67.052    -8.385
391.697     67.024     6.752
397.394     66.988    20.788
403.175     66.076    37.484
409.039     66.020    57.481
414.989     65.515    75.166
421.025     65.383    95.635
427.149     65.170   115.404
433.362     65.052   135.099
439.665     64.885   155.143
446.060     64.329   175.843
452.548     64.360  -161.471
459.131     63.794  -138.183
465.809     64.148  -113.210
472.584     63.928   -91.746
479.458     63.856   -67.158
486.432     63.925   -42.009
493.507     64.250   -18.207
500.686     63.999     7.906
507.968     64.548    35.342
515.357     64.984    59.154
522.853     65.266    83.639
530.458     65.654   110.726
538.174     66.261   135.291
546.002     67.086   159.763
553.943     67.257  -179.923
562.001     67.576  -154.569
570.175     67.840  -130.993
578.469     67.932  -106.158
586.883     68.148   -81.487
595.419     68.126   -56.583
604.080     68.319   -30.634
612.866     68.530    -5.092
621.780     68.535    19.205
630.824     68.443    45.440
640.000     68.299    71.729
649.309     68.202    97.949
658.753     68.048   124.130
668.335     67.808   151.591
678.056     67.516   178.272
687.919     67.067  -154.632
697.925     66.510  -127.420
708.077     65.821  -100.141
718.376     64.959   -71.972
728.825     63.953   -43.380
739.426     62.834   -14.588
750.181     61.471    14.031
761.093     59.790    41.745
772.163     57.730    67.310
783.394     55.186    89.634
794.789     52.095   103.018
806.349     50.273   101.731
818.078     51.640   100.490
829.977     54.455   113.265
842.050     57.043   137.395
854.298     58.952   167.069
866.724     60.379  -161.584
879.330     61.675  -127.771
892.120     62.556   -92.690
905.097     63.277   -56.249
918.262     63.833   -19.105
931.618     64.192    19.154
945.169     64.382    58.362
958.917     64.432    97.915
972.864     64.395   138.683
987.015     64.175  -179.795
1001.37     63.825  -136.802
1015.94     63.327   -92.870
1030.71     62.707   -48.321
1045.71     61.901    -1.729
1060.92     60.862    46.541
1076.35     59.700    96.127
1092.00     58.378   148.126
1107.89     56.874  -155.926
1124.00     55.419   -95.616
1140.35     54.337   -30.967
1156.94     53.950    38.031
1173.77     54.367   105.424
1190.84     55.400   170.120
1208.16     56.415  -127.927
1225.73     57.340   -67.709
1243.56     58.117    -8.036
1261.65     58.643    51.243
1280.00     59.009   110.349
1298.62     59.178   169.953
1317.51     59.161  -129.379
1336.67     59.010   -67.297
1356.11     58.682    -4.210
1375.84     58.251    60.713
1395.85     57.686   127.805
1416.15     57.065  -163.294
1436.75     56.464   -92.553
1457.65     55.918   -19.372
1478.85     55.538    56.199
1500.36     55.376   132.628
1522.19     55.397  -150.267
1544.33     55.595   -72.676
1566.79     55.808     4.888
1589.58     56.030    82.703
1612.70     56.171   160.323
1636.16     56.203  -121.457
1659.95     56.171   -42.132
1684.10     55.999    38.182
1708.60     55.791   119.607
1733.45     55.497  -158.318
1758.66     55.170   -74.724
1784.24     54.723     9.704
1810.19     54.169    94.123
1836.52     53.406   179.977
1863.24     52.358   -93.440
1890.34     50.873    -6.225
1917.83     48.782    83.244
1945.73     45.728   176.071
1974.03     41.143   -80.692
2002.74     36.454    53.122
2031.87     38.686  -161.179
2061.43     42.410   -48.013
2091.41     44.436    55.796
2121.83     45.267   159.289
2152.69     45.495   -95.009
2184.01     45.392    16.634
2215.77     45.732   132.999
2248.00     46.712  -109.862
2280.70     48.035     4.326
2313.87     49.238   116.651
2347.53     50.056  -132.137
2381.68     50.390   -20.916
2416.32     50.206    91.754
2451.46     49.555  -152.668
2487.12     48.376   -32.162
2523.30     46.999    95.389
2560.00     46.127  -128.625
2597.24     46.479     9.634
2635.01     47.582   143.634
2673.34     48.430   -87.343
2712.23     48.585    40.482
2751.68     47.849   170.952
2791.70     46.304   -52.123
2832.31     44.766    95.605
2873.50     44.554  -109.421
2915.30     45.567    40.448
2957.70     46.112  -174.547
3000.72     45.549   -28.255
3044.37     44.366   126.120
3088.65     44.275   -67.950
3133.58     45.730    94.741
3179.16     47.043  -111.774
3225.40     47.248    39.025
3272.31     46.029  -166.858
3319.91     43.584    -1.681
3368.20     42.039  -178.763
3417.19     43.006     4.409
3466.89     44.000   175.952
3517.32     43.912   -12.896
3568.48     42.667   165.338
3620.39     41.773    -5.670
3673.05     42.342  -174.795
3726.47     43.184    10.953
3780.67     42.901  -165.327
3835.67     41.492    24.001
3891.46     39.902  -133.960
3948.06     39.380    75.155
4005.49     39.606   -76.616
4063.75     39.642   135.843
4122.86     40.624    -8.237
4182.82     42.210  -158.262
4243.66     42.872    48.381
4305.39     42.182  -100.522
4368.01     41.399   123.992
4431.55     41.884    -8.523
4496.01     42.359  -145.768
4561.40     41.847    80.918
4627.75     41.431   -44.270
4695.06     41.663  -169.859
4763.35     40.297    62.122
4832.64     36.945   -45.492
4902.93     38.096  -130.695
4974.24     41.171   116.138
5046.60     40.941    -6.658
5120.00     37.918  -113.183
5194.47     36.831   163.195
5270.03     37.177    62.824
5346.68     32.936   -40.442
5424.45     27.349   -71.265
5503.35     33.108  -125.492
5583.40     35.628   158.438
5664.61     37.725    77.409
5747.01     36.074    -7.875
5830.60     33.418   -39.918
5915.41     40.004   -92.478
6001.45     41.186   178.083
6088.74     35.740   112.219
6177.30     36.079   101.996
6267.15     38.338    43.289
6358.31     35.179    11.201
6450.80     38.415   -12.236
6544.62     36.991   -67.477
6639.82     32.884   -49.518
6736.40     40.043   -64.849
6834.38     39.984  -104.478
6933.79     39.180  -112.687
7034.64     40.928  -140.586
7136.96     36.915   157.375
7240.77     32.198    36.109
7346.09     35.424   -22.003
7452.94     36.061   -13.992
7561.35     38.132     2.155
7671.33     38.393    18.300
7782.91     37.507    49.743
7896.12     36.956    86.590
8010.97     36.865   136.719
8127.49     36.859   178.363
8245.71     33.626  -121.518
8365.65     33.765   -36.873
8487.33     35.709    35.070
8610.78     35.544   108.579
8736.03     36.036  -171.977
8863.09     34.614   -86.062
8992.01     33.618    12.358
9122.80     33.748   122.436
9255.50     32.685  -134.139
9390.12     32.170    -4.177
9526.70     31.391   112.980
9665.27     31.383  -104.399
9805.86     30.784    19.272
9948.49     28.705   173.717
10093.2     28.634   -24.601
10240.0     32.197   130.209
10388.9     29.202   -94.601
10540.1     27.835    89.909
10693.4     24.417   -91.262
10848.9     23.467    72.551
11006.7     19.552   -72.883
11166.8     16.015   174.449
11329.2     10.671   -71.348
11494.0     18.707   -72.081
11661.2     20.832    84.186
11830.8     24.902   -83.828
12002.9     21.458   121.239
12177.5     25.734    30.637
12354.6     25.418  -107.754
12534.3     23.243   159.045
12716.6     23.733    89.831
12901.6     20.509    25.919
13089.2     23.705   -18.716
13279.6     23.574   -69.587
13472.8     21.163  -117.686
13668.8     19.420  -109.620
13867.6     22.810  -116.752
14069.3     22.841  -107.282
14273.9     25.231  -100.619
14481.5     27.998   -85.122
14692.2     27.373   -68.279
14905.9     24.230   -26.656
15122.7     21.962    49.201
15342.7     24.500   135.535
15565.8     26.401  -155.588
15792.2     28.938   -73.260
16021.9     30.962     7.363
16255.0     32.764   101.033
16491.4     31.999  -158.705
16731.3     30.096   -22.821
16974.7     29.718   125.805
17221.6     29.259   -70.807
17472.1     28.746   101.132
17726.2     28.504   -79.126
17984.0     26.914   117.211
18245.6     27.219   -20.721
18511.0     27.622  -160.341
18780.2     26.703    74.616
19053.4     25.923   -41.947
19330.5     24.388  -144.388
19611.7     22.309   131.662
19897.0     17.794   -27.621
20186.4     15.581    56.514
20480.0     15.160   -41.858
20777.9     17.082    57.614
21080.1     19.627  -156.937
21386.7     19.956    29.692
21697.8     17.841   171.181
22013.4     13.624   129.200
22333.6     12.311   -45.156
22658.4     13.618   116.438
22988.0     12.404   161.608
23322.4     15.268    70.459
23661.6     18.735    66.418
24005.8     20.252  -140.168
24355.0     20.146     6.135
24709.2     15.429   149.327
25068.6     17.030  -129.089
25433.2     17.422   100.026
25803.2     18.088   -70.498
26178.5     18.456  -166.941
26559.3     15.102   -31.301
26945.6     14.056   108.588
27337.5     13.592  -153.396
27735.2     14.916   167.950
28138.6     15.681    70.508
28547.9     14.415   -48.441
28963.1     12.988  -170.602
29384.4     14.671    47.561
29811.8     15.741    92.708
30245.4     15.372   -59.902
30685.3     15.003   147.489
31131.7     14.635    -5.121
31584.5     14.266  -157.731
32043.9     13.897    49.660
32510.0     13.528  -102.950
32982.8     13.159   104.440
33462.6     12.790   -48.170
33949.3     12.422   159.221
34443.1     12.053     6.611
34944.1     11.684  -145.999
35452.4     11.315    61.392
35968.0     10.946   -91.218
36491.2     10.577   116.172
37022.0     10.209   -36.438
37560.5      9.840   170.953
38106.8      9.471    18.343
38661.1      9.102  -134.267
39223.4      8.733    73.124
39793.9      8.364   -79.486
