"SPL Horizontal"																																																																							
"On-Axis"		"10°"		"-10°"		"20°"		"-20°"		"30°"		"-30°"		"40°"		"-40°"		"50°"		"-50°"		"60°"		"-60°"		"70°"		"-70°"		"80°"		"-80°"		"90°"		"-90°"		"100°"		"-100°"		"110°"		"-110°"		"120°"		"-120°"		"130°"		"-130°"		"140°"		"-140°"		"150°"		"-150°"		"160°"		"-160°"		"170°"		"-170°"		"180°"	
"Frequency [Hz]"	"Sound Pessure Level [dB]  / [2.83V 1m] "	"Frequency [Hz]"	"Sound Pessure Level [dB]  / [2.83V 1m] "	"Frequency [Hz]"	"Sound Pessure Level [dB]  / [2.83V 1m] "	"Frequency [Hz]"	"Sound Pessure Level [dB]  / [2.83V 1m] "	"Frequency [Hz]"	"Sound Pessure Level [dB]  / [2.83V 1m] "	"Frequency [Hz]"	"Sound Pessure Level [dB]  / [2.83V 1m] "	"Frequency [Hz]"	"Sound Pessure Level [dB]  / [2.83V 1m] "	"Frequency [Hz]"	"Sound Pessure Level [dB]  / [2.83V 1m] "	"Frequency [Hz]"	"Sound Pessure Level [dB]  / [2.83V 1m] "	"Frequency [Hz]"	"Sound Pessure Level [dB]  / [2.83V 1m] "	"Frequency [Hz]"	"Sound Pessure Level [dB]  / [2.83V 1m] "	"Frequency [Hz]"	"Sound Pessure Level [dB]  / [2.83V 1m] "	"Frequency [Hz]"	"Sound Pessure Level [dB]  / [2.83V 1m] "	"Frequency [Hz]"	"Sound Pessure Level [dB]  / [2.83V 1m] "	"Frequency [Hz]"	"Sound Pessure Level [dB]  / [2.83V 1m] "	"Frequency [Hz]"	"Sound Pessure Level [dB]  / [2.83V 1m] "	"Frequency [Hz]"	"Sound Pessure Level [dB]  / [2.83V 1m] "	"Frequency [Hz]"	"Sound Pessure Level [dB]  / [2.83V 1m] "	"Frequency [Hz]"	"Sound Pessure Level [dB]  / [2.83V 1m] "	"Frequency [Hz]"	"Sound Pessure Level [dB]  / [2.83V 1m] "	"Frequency [Hz]"	"Sound Pessure Level [dB]  / [2.83V 1m] "	"Frequency [Hz]"	"Sound Pessure Level [dB]  / [2.83V 1m] "	"Frequency [Hz]"	"Sound Pessure Level [dB]  / [2.83V 1m] "	"Frequency [Hz]"	"Sound Pessure Level [dB]  / [2.83V 1m] "	"Frequency [Hz]"	"Sound Pessure Level [dB]  / [2.83V 1m] "	"Frequency [Hz]"	"Sound Pessure Level [dB]  / [2.83V 1m] "	"Frequency [Hz]"	"Sound Pessure Level [dB]  / [2.83V 1m] "	"Frequency [Hz]"	"Sound Pessure Level [dB]  / [2.83V 1m] "	"Frequency [Hz]"	"Sound Pessure Level [dB]  / [2.83V 1m] "	"Frequency [Hz]"	"Sound Pessure Level [dB]  / [2.83V 1m] "	"Frequency [Hz]"	"Sound Pessure Level [dB]  / [2.83V 1m] "	"Frequency [Hz]"	"Sound Pessure Level [dB]  / [2.83V 1m] "	"Frequency [Hz]"	"Sound Pessure Level [dB]  / [2.83V 1m] "	"Frequency [Hz]"	"Sound Pessure Level [dB]  / [2.83V 1m] "	"Frequency [Hz]"	"Sound Pessure Level [dB]  / [2.83V 1m] "	"Frequency [Hz]"	"Sound Pessure Level [dB]  / [2.83V 1m] "
20.5078	60.4671	20.5078	60.4679	20.5078	60.4681	20.5078	60.4706	20.5078	60.4707	20.5078	60.4753	20.5078	60.4748	20.5078	60.4818	20.5078	60.48	20.5078	60.4901	20.5078	60.486	20.5078	60.4997	20.5078	60.4926	20.5078	60.5104	20.5078	60.4994	20.5078	60.5215	20.5078	60.5061	20.5078	60.5325	20.5078	60.5124	20.5078	60.5427	20.5078	60.5181	20.5078	60.5515	20.5078	60.5233	20.5078	60.5583	20.5078	60.5279	20.5078	60.5628	20.5078	60.5321	20.5078	60.5649	20.5078	60.5362	20.5078	60.5646	20.5078	60.5405	20.5078	60.5625	20.5078	60.5449	20.5078	60.5589	20.5078	60.5497	20.5078	60.5545
21.2402	58.9541	21.2402	58.9629	21.2402	58.9431	21.2402	58.9693	21.2402	58.9299	21.2402	58.9734	21.2402	58.9147	21.2402	58.9751	21.2402	58.8979	21.2402	58.9745	21.2402	58.8798	21.2402	58.9716	21.2402	58.8608	21.2402	58.9667	21.2402	58.8417	21.2402	58.9598	21.2402	58.8232	21.2402	58.9509	21.2402	58.806	21.2402	58.9403	21.2402	58.791	21.2402	58.9279	21.2402	58.7791	21.2402	58.9139	21.2402	58.7709	21.2402	58.8984	21.2402	58.7671	21.2402	58.8816	21.2402	58.7678	21.2402	58.8639	21.2402	58.7729	21.2402	58.8457	21.2402	58.7822	21.2402	58.8276	21.2402	58.795	21.2402	58.8104
21.9727	60.4746	21.9727	60.4716	21.9727	60.4761	21.9727	60.4671	21.9727	60.476	21.9727	60.461	21.9727	60.4742	21.9727	60.4535	21.9727	60.4707	21.9727	60.4446	21.9727	60.4652	21.9727	60.4343	21.9727	60.4578	21.9727	60.4226	21.9727	60.4484	21.9727	60.4098	21.9727	60.4369	21.9727	60.396	21.9727	60.4235	21.9727	60.3815	21.9727	60.4084	21.9727	60.3668	21.9727	60.3921	21.9727	60.3522	21.9727	60.3751	21.9727	60.3385	21.9727	60.3583	21.9727	60.3262	21.9727	60.3425	21.9727	60.3162	21.9727	60.3285	21.9727	60.309	21.9727	60.3172	21.9727	60.3052	21.9727	60.3094	21.9727	60.3053
22.7051	60.4766	22.7051	60.4734	22.7051	60.4758	22.7051	60.4664	22.7051	60.471	22.7051	60.4557	22.7051	60.462	22.7051	60.4416	22.7051	60.4489	22.7051	60.4244	22.7051	60.4316	22.7051	60.4042	22.7051	60.4105	22.7051	60.3814	22.7051	60.3858	22.7051	60.3564	22.7051	60.3579	22.7051	60.3296	22.7051	60.3277	22.7051	60.3015	22.7051	60.2959	22.7051	60.2729	22.7051	60.2637	22.7051	60.2444	22.7051	60.2324	22.7051	60.217	22.7051	60.2033	22.7051	60.1917	22.7051	60.1779	22.7051	60.1697	22.7051	60.1574	22.7051	60.1521	22.7051	60.1429	22.7051	60.14	22.7051	60.135	22.7051	60.1341
23.4375	60.9825	23.4375	60.9795	23.4375	60.9816	23.4375	60.9728	23.4375	60.9767	23.4375	60.9623	23.4375	60.9679	23.4375	60.9484	23.4375	60.9553	23.4375	60.9312	23.4375	60.9388	23.4375	60.911	23.4375	60.9187	23.4375	60.8881	23.4375	60.8953	23.4375	60.8629	23.4375	60.8691	23.4375	60.8361	23.4375	60.8406	23.4375	60.8081	23.4375	60.8107	23.4375	60.7798	23.4375	60.7804	23.4375	60.7519	23.4375	60.7507	23.4375	60.7256	23.4375	60.7229	23.4375	60.7017	23.4375	60.6982	23.4375	60.6814	23.4375	60.6779	23.4375	60.6658	23.4375	60.6629	23.4375	60.6556	23.4375	60.654	23.4375	60.6515
24.1699	61.208	24.1699	61.2045	24.1699	61.2071	24.1699	61.1965	24.1699	61.2016	24.1699	61.1842	24.1699	61.1916	24.1699	61.1678	24.1699	61.1772	24.1699	61.1477	24.1699	61.1586	24.1699	61.1241	24.1699	61.1361	24.1699	61.0976	24.1699	61.1101	24.1699	61.0688	24.1699	61.0811	24.1699	61.0382	24.1699	61.0499	24.1699	61.0067	24.1699	61.0173	24.1699	60.9753	24.1699	60.9845	24.1699	60.9449	24.1699	60.9524	24.1699	60.9166	24.1699	60.9225	24.1699	60.8915	24.1699	60.8958	24.1699	60.8707	24.1699	60.8736	24.1699	60.8552	24.1699	60.8569	24.1699	60.8456	24.1699	60.8465	24.1699	60.8427
25.6348	62.2293	25.6348	62.2257	25.6348	62.228	25.6348	62.2174	25.6348	62.222	25.6348	62.2045	25.6348	62.2111	25.6348	62.1871	25.6348	62.1957	25.6348	62.1657	25.6348	62.1758	25.6348	62.1404	25.6348	62.1519	25.6348	62.112	25.6348	62.1243	25.6348	62.081	25.6348	62.0936	25.6348	62.0481	25.6348	62.0606	25.6348	62.0143	25.6348	62.0261	25.6348	61.9805	25.6348	61.9912	25.6348	61.9478	25.6348	61.9571	25.6348	61.9174	25.6348	61.9251	25.6348	61.8905	25.6348	61.8964	25.6348	61.8682	25.6348	61.8725	25.6348	61.8516	25.6348	61.8544	25.6348	61.8415	25.6348	61.8429	25.6348	61.8385
26.3672	62.8725	26.3672	62.8683	26.3672	62.8719	26.3672	62.8594	26.3672	62.8664	26.3672	62.8458	26.3672	62.8561	26.3672	62.8279	26.3672	62.8411	26.3672	62.8058	26.3672	62.8216	26.3672	62.78	26.3672	62.7978	26.3672	62.7509	26.3672	62.7702	26.3672	62.7192	26.3672	62.7394	26.3672	62.6857	26.3672	62.706	26.3672	62.6512	26.3672	62.671	26.3672	62.6167	26.3672	62.6354	26.3672	62.5835	26.3672	62.6005	26.3672	62.5527	26.3672	62.5675	26.3672	62.5256	26.3672	62.5378	26.3672	62.5034	26.3672	62.5128	26.3672	62.4871	26.3672	62.4935	26.3672	62.4777	26.3672	62.4809	26.3672	62.4755
27.0996	63.2694	27.0996	63.2653	27.0996	63.2685	27.0996	63.2564	27.0996	63.2626	27.0996	63.2428	27.0996	63.2519	27.0996	63.2247	27.0996	63.2364	27.0996	63.2024	27.0996	63.2163	27.0996	63.1764	27.0996	63.1919	27.0996	63.147	27.0996	63.1638	27.0996	63.1149	27.0996	63.1324	27.0996	63.081	27.0996	63.0986	27.0996	63.0461	27.0996	63.0632	27.0996	63.0112	27.0996	63.0273	27.0996	62.9776	27.0996	62.9922	27.0996	62.9464	27.0996	62.9591	27.0996	62.9189	27.0996	62.9294	27.0996	62.8964	27.0996	62.9044	27.0996	62.8798	27.0996	62.8852	27.0996	62.87	27.0996	62.8728	27.0996	62.8676
27.832	63.7	27.832	63.6956	27.832	63.6995	27.832	63.6865	27.832	63.6943	27.832	63.6728	27.832	63.6842	27.832	63.6547	27.832	63.6696	27.832	63.6325	27.832	63.6505	27.832	63.6067	27.832	63.6272	27.832	63.5777	27.832	63.6002	27.832	63.5462	27.832	63.5702	27.832	63.513	27.832	63.5376	27.832	63.479	27.832	63.5036	27.832	63.4452	27.832	63.469	27.832	63.4129	27.832	63.4351	27.832	63.3833	27.832	63.4031	27.832	63.3575	27.832	63.3743	27.832	63.3366	27.832	63.3498	27.832	63.3216	27.832	63.3307	27.832	63.3133	27.832	63.3179	27.832	63.312
29.2969	64.397	29.2969	64.3913	29.2969	64.3972	29.2969	64.3804	29.2969	64.3919	29.2969	64.3643	29.2969	64.3812	29.2969	64.3433	29.2969	64.365	29.2969	64.3179	29.2969	64.3437	29.2969	64.2886	29.2969	64.3177	29.2969	64.256	29.2969	64.2873	29.2969	64.2207	29.2969	64.2533	29.2969	64.1837	29.2969	64.2164	29.2969	64.1461	29.2969	64.1778	29.2969	64.1088	29.2969	64.1386	29.2969	64.0732	29.2969	64.1002	29.2969	64.0405	29.2969	64.064	29.2969	64.0121	29.2969	64.0315	29.2969	63.9891	29.2969	64.0039	29.2969	63.9725	29.2969	63.9826	29.2969	63.9633	29.2969	63.9683	29.2969	63.9618
30.0293	64.9305	30.0293	64.9253	30.0293	64.9313	30.0293	64.9156	30.0293	64.9275	30.0293	64.9018	30.0293	64.9192	30.0293	64.884	30.0293	64.9065	30.0293	64.8625	30.0293	64.8896	30.0293	64.8377	30.0293	64.8688	30.0293	64.8102	30.0293	64.8443	30.0293	64.7806	30.0293	64.8168	30.0293	64.7497	30.0293	64.7869	30.0293	64.7183	30.0293	64.7554	30.0293	64.6874	30.0293	64.7232	30.0293	64.6581	30.0293	64.6914	30.0293	64.6315	30.0293	64.6612	30.0293	64.6086	30.0293	64.6337	30.0293	64.5904	30.0293	64.6101	30.0293	64.5778	30.0293	64.5913	30.0293	64.5714	30.0293	64.5783	30.0293	64.5716
31.4941	65.5261	31.4941	65.518	31.4941	65.5288	31.4941	65.5048	31.4941	65.5263	31.4941	65.4866	31.4941	65.5184	31.4941	65.4638	31.4941	65.5054	31.4941	65.4369	31.4941	65.4874	31.4941	65.4063	31.4941	65.4646	31.4941	65.3727	31.4941	65.4376	31.4941	65.337	31.4941	65.4068	31.4941	65.3002	31.4941	65.373	31.4941	65.2634	31.4941	65.337	31.4941	65.2277	31.4941	65.2998	31.4941	65.1945	31.4941	65.2625	31.4941	65.165	31.4941	65.2264	31.4941	65.1404	31.4941	65.193	31.4941	65.1219	31.4941	65.1634	31.4941	65.1103	31.4941	65.139	31.4941	65.1062	31.4941	65.1208	31.4941	65.1097
32.2266	65.9569	32.2266	65.9511	32.2266	65.9567	32.2266	65.9394	32.2266	65.9504	32.2266	65.922	32.2266	65.9381	32.2266	65.8992	32.2266	65.92	32.2266	65.8714	32.2266	65.8964	32.2266	65.8392	32.2266	65.8676	32.2266	65.8032	32.2266	65.8343	32.2266	65.7644	32.2266	65.7973	32.2266	65.7237	32.2266	65.7573	32.2266	65.6823	32.2266	65.7156	32.2266	65.6415	32.2266	65.6735	32.2266	65.6027	32.2266	65.6323	32.2266	65.5672	32.2266	65.5935	32.2266	65.5365	32.2266	65.5586	32.2266	65.5118	32.2266	65.529	32.2266	65.4943	32.2266	65.506	32.2266	65.4846	32.2266	65.4906	32.2266	65.4833
33.6914	66.5471	33.6914	66.5415	33.6914	66.5465	33.6914	66.5298	33.6914	66.5397	33.6914	66.5122	33.6914	66.5267	33.6914	66.489	33.6914	66.5077	33.6914	66.4608	33.6914	66.483	33.6914	66.4281	33.6914	66.4531	33.6914	66.3916	33.6914	66.4186	33.6914	66.3523	33.6914	66.3803	33.6914	66.311	33.6914	66.3391	33.6914	66.2691	33.6914	66.2964	33.6914	66.2277	33.6914	66.2534	33.6914	66.1882	33.6914	66.2115	33.6914	66.1521	33.6914	66.1723	33.6914	66.1206	33.6914	66.1373	33.6914	66.0951	33.6914	66.1079	33.6914	66.0767	33.6914	66.0853	33.6914	66.0662	33.6914	66.0705	33.6914	66.064
34.4238	66.949	34.4238	66.9412	34.4238	66.9505	34.4238	66.9272	34.4238	66.9456	34.4238	66.9073	34.4238	66.9344	34.4238	66.8819	34.4238	66.9171	34.4238	66.8514	34.4238	66.894	34.4238	66.8167	34.4238	66.8655	34.4238	66.7785	34.4238	66.8322	34.4238	66.7377	34.4238	66.795	34.4238	66.6955	34.4238	66.7547	34.4238	66.6532	34.4238	66.7125	34.4238	66.6121	34.4238	66.6696	34.4238	66.5737	34.4238	66.6275	34.4238	66.5393	34.4238	66.5875	34.4238	66.5102	34.4238	66.5511	34.4238	66.4876	34.4238	66.5198	34.4238	66.4726	34.4238	66.4947	34.4238	66.4656	34.4238	66.4769	34.4238	66.467
35.8887	67.6311	35.8887	67.6257	35.8887	67.63	35.8887	67.6141	35.8887	67.6226	35.8887	67.5965	35.8887	67.609	35.8887	67.5732	35.8887	67.5895	35.8887	67.5448	35.8887	67.5643	35.8887	67.5118	35.8887	67.5341	35.8887	67.475	35.8887	67.4995	35.8887	67.4354	35.8887	67.4615	35.8887	67.394	35.8887	67.4209	35.8887	67.3522	35.8887	67.3791	35.8887	67.3111	35.8887	67.3371	35.8887	67.2722	35.8887	67.2965	35.8887	67.2368	35.8887	67.2586	35.8887	67.2063	35.8887	67.2248	35.8887	67.1819	35.8887	67.1964	35.8887	67.1644	35.8887	67.1744	35.8887	67.1547	35.8887	67.1598	35.8887	67.1532
37.3535	68.3204	37.3535	68.3138	37.3535	68.3204	37.3535	68.3006	37.3535	68.3137	37.3535	68.2811	37.3535	68.3005	37.3535	68.2558	37.3535	68.281	37.3535	68.2252	37.3535	68.2555	37.3535	68.1899	37.3535	68.2248	37.3535	68.1508	37.3535	68.1894	37.3535	68.109	37.3535	68.1503	37.3535	68.0656	37.3535	68.1084	37.3535	68.0219	37.3535	68.065	37.3535	67.9794	37.3535	68.0213	37.3535	67.9394	37.3535	67.9788	37.3535	67.9034	37.3535	67.9389	37.3535	67.8728	37.3535	67.903	37.3535	67.8486	37.3535	67.8724	37.3535	67.8319	37.3535	67.8484	37.3535	67.8234	37.3535	67.8318	37.3535	67.8234
38.8184	68.8358	38.8184	68.8293	38.8184	68.8347	38.8184	68.8151	38.8184	68.8259	38.8184	68.7937	38.8184	68.8096	38.8184	68.7653	38.8184	68.7861	38.8184	68.7307	38.8184	68.7559	38.8184	68.6907	38.8184	68.7197	38.8184	68.646	38.8184	68.6782	38.8184	68.5981	38.8184	68.6325	38.8184	68.5481	38.8184	68.5839	38.8184	68.4975	38.8184	68.5337	38.8184	68.4481	38.8184	68.4834	38.8184	68.4013	38.8184	68.4346	38.8184	68.359	38.8184	68.389	38.8184	68.3227	38.8184	68.3483	38.8184	68.2937	38.8184	68.3139	38.8184	68.2732	38.8184	68.2872	38.8184	68.2621	38.8184	68.2692	38.8184	68.2608
39.5508	69.2297	39.5508	69.2223	39.5508	69.2297	39.5508	69.2077	39.5508	69.2224	39.5508	69.1862	39.5508	69.2078	39.5508	69.1582	39.5508	69.1863	39.5508	69.1244	39.5508	69.1584	39.5508	69.0856	39.5508	69.1246	39.5508	69.0427	39.5508	69.0857	39.5508	68.9969	39.5508	69.0428	39.5508	68.9495	39.5508	68.9969	39.5508	68.9019	39.5508	68.9495	39.5508	68.8557	39.5508	68.9019	39.5508	68.8123	39.5508	68.8556	39.5508	68.7733	39.5508	68.8123	39.5508	68.7402	39.5508	68.7733	39.5508	68.7142	39.5508	68.7402	39.5508	68.6963	39.5508	68.7142	39.5508	68.6871	39.5508	68.6963	39.5508	68.6871
41.0156	69.9766	41.0156	69.9692	41.0156	69.9765	41.0156	69.9542	41.0156	69.9686	41.0156	69.932	41.0156	69.9533	41.0156	69.9031	41.0156	69.9308	41.0156	69.8681	41.0156	69.9017	41.0156	69.8279	41.0156	69.8665	41.0156	69.7834	41.0156	69.8262	41.0156	69.736	41.0156	69.7817	41.0156	69.687	41.0156	69.7344	41.0156	69.6379	41.0156	69.6857	41.0156	69.5904	41.0156	69.6369	41.0156	69.5461	41.0156	69.5898	41.0156	69.5066	41.0156	69.5459	41.0156	69.4731	41.0156	69.5066	41.0156	69.447	41.0156	69.4734	41.0156	69.4292	41.0156	69.4474	41.0156	69.4202	41.0156	69.4294	41.0156	69.4202
42.4805	70.2942	42.4805	70.2898	42.4805	70.2899	42.4805	70.2766	42.4805	70.2768	42.4805	70.255	42.4805	70.2552	42.4805	70.2253	42.4805	70.2257	42.4805	70.1883	42.4805	70.1889	42.4805	70.1446	42.4805	70.1455	42.4805	70.0955	42.4805	70.0967	42.4805	70.0421	42.4805	70.0437	42.4805	69.9861	42.4805	69.988	42.4805	69.929	42.4805	69.9312	42.4805	69.8727	42.4805	69.8752	42.4805	69.8191	42.4805	69.8217	42.4805	69.77	42.4805	69.7725	42.4805	69.7272	42.4805	69.7295	42.4805	69.6923	42.4805	69.6942	42.4805	69.6665	42.4805	69.6679	42.4805	69.6508	42.4805	69.6515	42.4805	69.6458
43.9453	70.8948	43.9453	70.8894	43.9453	70.8905	43.9453	70.8743	43.9453	70.8766	43.9453	70.8498	43.9453	70.8532	43.9453	70.8164	43.9453	70.8209	43.9453	70.7746	43.9453	70.7803	43.9453	70.7253	43.9453	70.7321	43.9453	70.6696	43.9453	70.6775	43.9453	70.6088	43.9453	70.6178	43.9453	70.5445	43.9453	70.5543	43.9453	70.4786	43.9453	70.4891	43.9453	70.4131	43.9453	70.4239	43.9453	70.3503	43.9453	70.361	43.9453	70.2924	43.9453	70.3026	43.9453	70.2417	43.9453	70.2508	43.9453	70.2003	43.9453	70.2076	43.9453	70.1697	43.9453	70.175	43.9453	70.1515	43.9453	70.1542	43.9453	70.1462
45.4102	71.4179	45.4102	71.4102	45.4102	71.4162	45.4102	71.3934	45.4102	71.4052	45.4102	71.3675	45.4102	71.3849	45.4102	71.3333	45.4102	71.3557	45.4102	71.2912	45.4102	71.3181	45.4102	71.2421	45.4102	71.2726	45.4102	71.187	45.4102	71.2204	45.4102	71.1272	45.4102	71.1625	45.4102	71.0642	45.4102	71.1003	45.4102	70.9999	45.4102	71.0357	45.4102	70.9361	45.4102	70.9706	45.4102	70.875	45.4102	70.907	45.4102	70.8189	45.4102	70.8474	45.4102	70.7699	45.4102	70.794	45.4102	70.7302	45.4102	70.749	45.4102	70.7014	45.4102	70.7143	45.4102	70.6849	45.4102	70.6915	45.4102	70.6816
47.6074	72.2168	47.6074	72.2075	47.6074	72.2182	47.6074	72.1904	47.6074	72.2115	47.6074	72.1658	47.6074	72.197	47.6074	72.1343	47.6074	72.1749	47.6074	72.0965	47.6074	72.1457	47.6074	72.0533	47.6074	72.1098	47.6074	72.0057	47.6074	72.0683	47.6074	71.955	47.6074	72.0219	47.6074	71.9026	47.6074	71.9719	47.6074	71.8501	47.6074	71.9198	47.6074	71.7991	47.6074	71.867	47.6074	71.7515	47.6074	71.8152	47.6074	71.7089	47.6074	71.7662	47.6074	71.673	47.6074	71.7218	47.6074	71.6451	47.6074	71.6836	47.6074	71.6265	47.6074	71.653	47.6074	71.6178	47.6074	71.6313	47.6074	71.6194
49.0723	72.774	49.0723	72.765	49.0723	72.7757	49.0723	72.7488	49.0723	72.7701	49.0723	72.7259	49.0723	72.7573	49.0723	72.6967	49.0723	72.7376	49.0723	72.6619	49.0723	72.7114	49.0723	72.6224	49.0723	72.6794	49.0723	72.5792	49.0723	72.6424	49.0723	72.5335	49.0723	72.6013	49.0723	72.4867	49.0723	72.5573	49.0723	72.4403	49.0723	72.5115	49.0723	72.3958	49.0723	72.4653	49.0723	72.3547	49.0723	72.4202	49.0723	72.3185	49.0723	72.3776	49.0723	72.2885	49.0723	72.339	49.0723	72.2658	49.0723	72.3056	49.0723	72.2511	49.0723	72.2786	49.0723	72.245	49.0723	72.2591	49.0723	72.2478
50.5371	73.2679	50.5371	73.261	50.5371	73.2678	50.5371	73.2471	50.5371	73.2606	50.5371	73.2265	50.5371	73.2465	50.5371	73.1999	50.5371	73.2259	50.5371	73.1678	50.5371	73.1994	50.5371	73.1311	50.5371	73.1676	50.5371	73.0909	50.5371	73.1314	50.5371	73.0483	50.5371	73.0919	50.5371	73.0047	50.5371	73.0501	50.5371	72.9614	50.5371	73.0073	50.5371	72.9198	50.5371	72.9648	50.5371	72.8815	50.5371	72.9239	50.5371	72.8475	50.5371	72.8859	50.5371	72.8191	50.5371	72.852	50.5371	72.7973	50.5371	72.8232	50.5371	72.7826	50.5371	72.8005	50.5371	72.7755	50.5371	72.7847	50.5371	72.7762
52.7344	73.9592	52.7344	73.9539	52.7344	73.9569	52.7344	73.9412	52.7344	73.9471	52.7344	73.9214	52.7344	73.9301	52.7344	73.8951	52.7344	73.9063	52.7344	73.8629	52.7344	73.8764	52.7344	73.8257	52.7344	73.8411	52.7344	73.7847	52.7344	73.8016	52.7344	73.741	52.7344	73.7589	52.7344	73.696	52.7344	73.7144	52.7344	73.6511	52.7344	73.6694	52.7344	73.6078	52.7344	73.6254	52.7344	73.5673	52.7344	73.5838	52.7344	73.5311	52.7344	73.5458	52.7344	73.5003	52.7344	73.5127	52.7344	73.4757	52.7344	73.4855	52.7344	73.4582	52.7344	73.4649	52.7344	73.4482	52.7344	73.4516	52.7344	73.446
54.1992	74.4555	54.1992	74.4517	54.1992	74.4513	54.1992	74.4401	54.1992	74.4393	54.1992	74.4209	54.1992	74.4196	54.1992	74.3947	54.1992	74.3929	54.1992	74.3623	54.1992	74.3597	54.1992	74.3244	54.1992	74.3211	54.1992	74.2823	54.1992	74.2782	54.1992	74.2372	54.1992	74.2322	54.1992	74.1903	54.1992	74.1846	54.1992	74.1432	54.1992	74.1369	54.1992	74.0974	54.1992	74.0906	54.1992	74.0541	54.1992	74.0473	54.1992	74.0148	54.1992	74.0083	54.1992	73.9807	54.1992	73.9749	54.1992	73.9529	54.1992	73.9481	54.1992	73.9321	54.1992	73.9286	54.1992	73.919	54.1992	73.9172	54.1992	73.9139
56.3965	75.1615	56.3965	75.1562	56.3965	75.1589	56.3965	75.1431	56.3965	75.1483	56.3965	75.1226	56.3965	75.1299	56.3965	75.0953	56.3965	75.1044	56.3965	75.062	56.3965	75.0722	56.3965	75.0237	56.3965	75.0343	56.3965	74.9814	56.3965	74.9919	56.3965	74.9365	56.3965	74.9462	56.3965	74.8903	56.3965	74.8987	56.3965	74.8442	56.3965	74.8509	56.3965	74.7995	56.3965	74.8044	56.3965	74.7576	56.3965	74.7608	56.3965	74.7198	56.3965	74.7215	56.3965	74.6872	56.3965	74.6878	56.3965	74.6607	56.3965	74.6606	56.3965	74.6412	56.3965	74.6407	56.3965	74.6291	56.3965	74.6288	56.3965	74.6249
58.5938	75.8267	58.5938	75.8195	58.5938	75.8262	58.5938	75.8049	58.5938	75.8178	58.5938	75.7832	58.5938	75.8019	58.5938	75.7552	58.5938	75.7787	58.5938	75.7219	58.5938	75.7491	58.5938	75.6843	58.5938	75.7139	58.5938	75.6436	58.5938	75.6742	58.5938	75.6011	58.5938	75.6315	58.5938	75.5582	58.5938	75.587	58.5938	75.5161	58.5938	75.5424	58.5938	75.4761	58.5938	75.4991	58.5938	75.4394	58.5938	75.4587	58.5938	75.4069	58.5938	75.4223	58.5938	75.3794	58.5938	75.3912	58.5938	75.3576	58.5938	75.366	58.5938	75.3421	58.5938	75.3474	58.5938	75.3331	58.5938	75.3356	58.5938	75.3309
60.0586	76.1867	60.0586	76.1783	60.0586	76.1876	60.0586	76.1629	60.0586	76.181	60.0586	76.1407	60.0586	76.1671	60.0586	76.1128	60.0586	76.1464	60.0586	76.0799	60.0586	76.1195	60.0586	76.0432	60.0586	76.0874	60.0586	76.004	60.0586	76.0511	60.0586	75.9637	60.0586	76.0119	60.0586	75.9236	60.0586	75.9713	60.0586	75.8849	60.0586	75.9305	60.0586	75.849	60.0586	75.891	60.0586	75.8167	60.0586	75.8541	60.0586	75.789	60.0586	75.8209	60.0586	75.7663	60.0586	75.7922	60.0586	75.7491	60.0586	75.7686	60.0586	75.7377	60.0586	75.7507	60.0586	75.7321	60.0586	75.7386	60.0586	75.7323
62.2559	76.8637	62.2559	76.8568	62.2559	76.8629	62.2559	76.8422	62.2559	76.8544	62.2559	76.8207	62.2559	76.8384	62.2559	76.7928	62.2559	76.8155	62.2559	76.7595	62.2559	76.7865	62.2559	76.7221	62.2559	76.7524	62.2559	76.6818	62.2559	76.7144	62.2559	76.64	62.2559	76.6739	62.2559	76.5983	62.2559	76.6323	62.2559	76.558	62.2559	76.5909	62.2559	76.5203	62.2559	76.5512	62.2559	76.4865	62.2559	76.5144	62.2559	76.4573	62.2559	76.4815	62.2559	76.4335	62.2559	76.4533	62.2559	76.4153	62.2559	76.4305	62.2559	76.4029	62.2559	76.4132	62.2559	76.3966	62.2559	76.4017	62.2559	76.3962
64.4531	77.4868	64.4531	77.4796	64.4531	77.4861	64.4531	77.4647	64.4531	77.4774	64.4531	77.4426	64.4531	77.4611	64.4531	77.4143	64.4531	77.4378	64.4531	77.3806	64.4531	77.4083	64.4531	77.3428	64.4531	77.3736	64.4531	77.3024	64.4531	77.3351	64.4531	77.2607	64.4531	77.2941	64.4531	77.2193	64.4531	77.2523	64.4531	77.1796	64.4531	77.2109	64.4531	77.1427	64.4531	77.1715	64.4531	77.1098	64.4531	77.1352	64.4531	77.0815	64.4531	77.1032	64.4531	77.0585	64.4531	77.0759	64.4531	77.041	64.4531	77.0541	64.4531	77.0291	64.4531	77.0378	64.4531	77.0228	64.4531	77.0271	64.4531	77.0222
66.6504	78.0678	66.6504	78.0594	66.6504	78.068	66.6504	78.0431	66.6504	78.06	66.6504	78.0194	66.6504	78.0442	66.6504	77.9894	66.6504	78.0211	66.6504	77.954	66.6504	77.9916	66.6504	77.9147	66.6504	77.9569	66.6504	77.8729	66.6504	77.9184	66.6504	77.8303	66.6504	77.8773	66.6504	77.7883	66.6504	77.8354	66.6504	77.7485	66.6504	77.7941	66.6504	77.7121	66.6504	77.7548	66.6504	77.6802	66.6504	77.7186	66.6504	77.6534	66.6504	77.6866	66.6504	77.6321	66.6504	77.6593	66.6504	77.6164	66.6504	77.6372	66.6504	77.6064	66.6504	77.6204	66.6504	77.6019	66.6504	77.609	66.6504	77.6028
69.5801	78.8184	69.5801	78.81	69.5801	78.8185	69.5801	78.7935	69.5801	78.8102	69.5801	78.7696	69.5801	78.7939	69.5801	78.7393	69.5801	78.7704	69.5801	78.7036	69.5801	78.7405	69.5801	78.6642	69.5801	78.7055	69.5801	78.6225	69.5801	78.6669	69.5801	78.5802	69.5801	78.6262	69.5801	78.5391	69.5801	78.585	69.5801	78.5004	69.5801	78.545	69.5801	78.4656	69.5801	78.5073	69.5801	78.4355	69.5801	78.4732	69.5801	78.4106	69.5801	78.4434	69.5801	78.3914	69.5801	78.4183	69.5801	78.3776	69.5801	78.3982	69.5801	78.369	69.5801	78.383	69.5801	78.3655	69.5801	78.3725	69.5801	78.3667
71.7773	79.3777	71.7773	79.3672	71.7773	79.3795	71.7773	79.3485	71.7773	79.3727	71.7773	79.3222	71.7773	79.3577	71.7773	79.2895	71.7773	79.335	71.7773	79.2517	71.7773	79.3057	71.7773	79.2105	71.7773	79.2712	71.7773	79.1675	71.7773	79.233	71.7773	79.1246	71.7773	79.1926	71.7773	79.0835	71.7773	79.1519	71.7773	79.0458	71.7773	79.1122	71.7773	79.0126	71.7773	79.0751	71.7773	78.9848	71.7773	79.0416	71.7773	78.9629	71.7773	79.0123	71.7773	78.9469	71.7773	78.9877	71.7773	78.9363	71.7773	78.9677	71.7773	78.9309	71.7773	78.9521	71.7773	78.9301	71.7773	78.9408	71.7773	78.9334
73.9746	79.9162	73.9746	79.9051	73.9746	79.9184	73.9746	79.8853	73.9746	79.9115	73.9746	79.8576	73.9746	79.8959	73.9746	79.8231	73.9746	79.8725	73.9746	79.7833	73.9746	79.8423	73.9746	79.7398	73.9746	79.8066	73.9746	79.6945	73.9746	79.7671	73.9746	79.6494	73.9746	79.7254	73.9746	79.6063	73.9746	79.6833	73.9746	79.5668	73.9746	79.6423	73.9746	79.5324	73.9746	79.604	73.9746	79.5038	73.9746	79.5693	73.9746	79.4815	73.9746	79.539	73.9746	79.4655	73.9746	79.5134	73.9746	79.4555	73.9746	79.4924	73.9746	79.4508	73.9746	79.4759	73.9746	79.4508	73.9746	79.4635	73.9746	79.4552
76.9043	80.5716	76.9043	80.5643	76.9043	80.5695	76.9043	80.5479	76.9043	80.5582	76.9043	80.5231	76.9043	80.5382	76.9043	80.4911	76.9043	80.5103	76.9043	80.4532	76.9043	80.4759	76.9043	80.4111	76.9043	80.4365	76.9043	80.3667	76.9043	80.3939	76.9043	80.322	76.9043	80.35	76.9043	80.2788	76.9043	80.3067	76.9043	80.2387	76.9043	80.2656	76.9043	80.2032	76.9043	80.2283	76.9043	80.1732	76.9043	80.1957	76.9043	80.149	76.9043	80.1684	76.9043	80.1306	76.9043	80.1465	76.9043	80.1177	76.9043	80.1298	76.9043	80.1097	76.9043	80.1179	76.9043	80.106	76.9043	80.1101	76.9043	80.1062
79.834	81.227	79.834	81.2195	79.834	81.2245	79.834	81.2023	79.834	81.2121	79.834	81.1761	79.834	81.1903	79.834	81.1422	79.834	81.1601	79.834	81.1021	79.834	81.1229	79.834	81.0575	79.834	81.0804	79.834	81.0106	79.834	81.0345	79.834	80.9634	79.834	80.9873	79.834	80.9179	79.834	80.9409	79.834	80.8758	79.834	80.8971	79.834	80.8386	79.834	80.8575	79.834	80.8072	79.834	80.8233	79.834	80.7819	79.834	80.795	79.834	80.7626	79.834	80.7727	79.834	80.7489	79.834	80.7562	79.834	80.7401	79.834	80.7448	79.834	80.7356	79.834	80.7379	79.834	80.7349
82.7637	81.7834	82.7637	81.7748	82.7637	81.7819	82.7637	81.7565	82.7637	81.7704	82.7637	81.7292	82.7637	81.7494	82.7637	81.6943	82.7637	81.7199	82.7637	81.6532	82.7637	81.6834	82.7637	81.6078	82.7637	81.6414	82.7637	81.5603	82.7637	81.596	82.7637	81.5128	82.7637	81.5491	82.7637	81.4672	82.7637	81.5029	82.7637	81.4253	82.7637	81.4593	82.7637	81.3886	82.7637	81.4197	82.7637	81.3579	82.7637	81.3853	82.7637	81.3335	82.7637	81.3567	82.7637	81.3153	82.7637	81.3339	82.7637	81.3027	82.7637	81.3167	82.7637	81.2951	82.7637	81.3044	82.7637	81.2918	82.7637	81.2964	82.7637	81.2923
85.6934	82.3094	85.6934	82.3029	85.6934	82.306	85.6934	82.2868	85.6934	82.2927	85.6934	82.2619	85.6934	82.2702	85.6934	82.2294	85.6934	82.2398	85.6934	82.1911	85.6934	82.2028	85.6934	82.1489	85.6934	82.1612	85.6934	82.105	85.6934	82.1171	85.6934	82.0614	85.6934	82.0728	85.6934	82.0203	85.6934	82.0303	85.6934	81.9833	85.6934	81.9915	85.6934	81.9517	85.6934	81.9578	85.6934	81.9259	85.6934	81.9301	85.6934	81.9062	85.6934	81.9086	85.6934	81.892	85.6934	81.893	85.6934	81.8824	85.6934	81.8825	85.6934	81.8764	85.6934	81.8762	85.6934	81.8731	85.6934	81.8729	85.6934	81.872
88.623	82.7914	88.623	82.7851	88.623	82.7874	88.623	82.769	88.623	82.7733	88.623	82.744	88.623	82.75	88.623	82.7113	88.623	82.7186	88.623	82.6729	88.623	82.6808	88.623	82.6309	88.623	82.6388	88.623	82.5875	88.623	82.5948	88.623	82.5451	88.623	82.5512	88.623	82.5058	88.623	82.5103	88.623	82.4713	88.623	82.4739	88.623	82.4427	88.623	82.4435	88.623	82.4206	88.623	82.4197	88.623	82.4047	88.623	82.4025	88.623	82.3942	88.623	82.3913	88.623	82.3878	88.623	82.3849	88.623	82.3843	88.623	82.382	88.623	82.3824	88.623	82.3811	88.623	82.3814
91.5527	83.2618	91.5527	83.2553	91.5527	83.2569	91.5527	83.2378	91.5527	83.2409	91.5527	83.2104	91.5527	83.2144	91.5527	83.1745	91.5527	83.179	91.5527	83.1321	91.5527	83.1363	91.5527	83.0856	91.5527	83.0889	91.5527	83.0376	91.5527	83.0392	91.5527	82.9905	91.5527	82.99	91.5527	82.9467	91.5527	82.9439	91.5527	82.9082	91.5527	82.9031	91.5527	82.8763	91.5527	82.8692	91.5527	82.8514	91.5527	82.8429	91.5527	82.8335	91.5527	82.8243	91.5527	82.8214	91.5527	82.8126	91.5527	82.814	91.5527	82.8064	91.5527	82.8096	91.5527	82.8041	91.5527	82.807	91.5527	82.804	91.5527	82.8052
94.4824	83.7669	94.4824	83.7605	94.4824	83.7605	94.4824	83.742	94.4824	83.7416	94.4824	83.7122	94.4824	83.711	94.4824	83.6727	94.4824	83.67	94.4824	83.6256	94.4824	83.6206	94.4824	83.5732	94.4824	83.5652	94.4824	83.5182	94.4824	83.5066	94.4824	83.4632	94.4824	83.4476	94.4824	83.4109	94.4824	83.3913	94.4824	83.3634	94.4824	83.3402	94.4824	83.3223	94.4824	83.2963	94.4824	83.2883	94.4824	83.261	94.4824	83.2616	94.4824	83.2347	94.4824	83.2415	94.4824	83.2168	94.4824	83.2268	94.4824	83.2063	94.4824	83.2163	94.4824	83.2016	94.4824	83.2089	94.4824	83.2012	94.4824	83.2039
98.1445	84.1618	98.1445	84.1562	98.1445	84.1561	98.1445	84.1396	98.1445	84.1392	98.1445	84.1132	98.1445	84.1119	98.1445	84.0785	98.1445	84.0756	98.1445	84.0375	98.1445	84.0323	98.1445	83.9927	98.1445	83.9844	98.1445	83.9466	98.1445	83.9345	98.1445	83.9017	98.1445	83.8855	98.1445	83.8602	98.1445	83.8401	98.1445	83.8239	98.1445	83.8004	98.1445	83.7941	98.1445	83.7681	98.1445	83.7709	98.1445	83.7439	98.1445	83.7541	98.1445	83.7278	98.1445	83.7427	98.1445	83.7189	98.1445	83.7351	98.1445	83.7155	98.1445	83.73	98.1445	83.7161	98.1445	83.726	98.1445	83.7187	98.1445	83.7222
101.807	84.5363	101.807	84.5296	101.807	84.5312	101.807	84.5115	101.807	84.5143	101.807	84.4832	101.807	84.4864	101.807	84.4467	101.807	84.4492	101.807	84.4041	101.807	84.4045	101.807	84.3582	101.807	84.3553	101.807	84.3117	101.807	84.3043	101.807	84.2673	101.807	84.2547	101.807	84.2275	101.807	84.2095	101.807	84.1941	101.807	84.1711	101.807	84.168	101.807	84.141	101.807	84.1494	101.807	84.1202	101.807	84.1375	101.807	84.1081	101.807	84.1307	101.807	84.1036	101.807	84.1273	101.807	84.1046	101.807	84.1252	101.807	84.1089	101.807	84.1229	101.807	84.1143	101.807	84.1192
105.469	84.8819	105.469	84.8727	105.469	84.878	105.469	84.851	105.469	84.8611	105.469	84.8181	105.469	84.832	105.469	84.7762	105.469	84.7924	105.469	84.7278	105.469	84.7447	105.469	84.6761	105.469	84.6917	105.469	84.6242	105.469	84.6368	105.469	84.5752	105.469	84.5832	105.469	84.532	105.469	84.5343	105.469	84.4964	105.469	84.4928	105.469	84.4696	105.469	84.4604	105.469	84.4517	105.469	84.438	105.469	84.4414	105.469	84.4251	105.469	84.4371	105.469	84.4203	105.469	84.4364	105.469	84.4213	105.469	84.4369	105.469	84.4256	105.469	84.4367	105.469	84.4306	105.469	84.4346
109.131	85.2345	109.131	85.2266	109.131	85.2282	109.131	85.2053	109.131	85.2079	109.131	85.172	109.131	85.1745	109.131	85.1288	109.131	85.1298	109.131	85.0785	109.131	85.0763	109.131	85.0242	109.131	85.0171	109.131	84.9695	109.131	84.9558	109.131	84.9174	109.131	84.896	109.131	84.871	109.131	84.8415	109.131	84.8323	109.131	84.7953	109.131	84.8025	109.131	84.7594	109.131	84.7815	109.131	84.7349	109.131	84.7683	109.131	84.7214	109.131	84.7609	109.131	84.7173	109.131	84.7569	109.131	84.7203	109.131	84.7539	109.131	84.7275	109.131	84.75	109.131	84.7361	109.131	84.744
112.793	85.4925	112.793	85.4819	112.793	85.4887	112.793	85.4577	112.793	85.4706	112.793	85.4215	112.793	85.4391	112.793	85.3756	112.793	85.396	112.793	85.3231	112.793	85.3439	112.793	85.2673	112.793	85.2859	112.793	85.2118	112.793	85.2258	112.793	85.1602	112.793	85.1673	112.793	85.1154	112.793	85.1142	112.793	85.0795	112.793	85.0697	112.793	85.0536	112.793	85.0357	112.793	85.0375	112.793	85.0132	112.793	85.0296	112.793	85.0018	112.793	85.0277	112.793	84.9997	112.793	85.029	112.793	85.0041	112.793	85.0306	112.793	85.012	112.793	85.0303	112.793	85.0203	112.793	85.0269
116.455	85.6999	116.455	85.6879	116.455	85.6968	116.455	85.6617	116.455	85.6787	116.455	85.6228	116.455	85.6466	116.455	85.5739	116.455	85.6024	116.455	85.5181	116.455	85.5488	116.455	85.4589	116.455	85.4892	116.455	85.4004	116.455	85.4275	116.455	85.3463	116.455	85.3677	116.455	85.2998	116.455	85.3137	116.455	85.2633	116.455	85.2687	116.455	85.2378	116.455	85.2349	116.455	85.2231	116.455	85.2131	116.455	85.2176	116.455	85.2027	116.455	85.2186	116.455	85.2015	116.455	85.223	116.455	85.2067	116.455	85.2276	116.455	85.215	116.455	85.2299	116.455	85.223	116.455	85.2284
120.85	85.8819	120.85	85.8662	120.85	85.8817	120.85	85.8357	120.85	85.8658	120.85	85.792	120.85	85.8351	120.85	85.738	120.85	85.7918	120.85	85.677	120.85	85.7385	120.85	85.613	120.85	85.6789	120.85	85.5503	120.85	85.6169	120.85	85.4931	120.85	85.5569	120.85	85.4448	120.85	85.5026	120.85	85.4081	120.85	85.4575	120.85	85.384	120.85	85.4238	120.85	85.3724	120.85	85.4021	120.85	85.3711	120.85	85.3916	120.85	85.3774	120.85	85.3902	120.85	85.3875	120.85	85.3945	120.85	85.3977	120.85	85.4011	120.85	85.4053	120.85	85.4065	120.85	85.4083
125.244	86.0121	125.244	85.998	125.244	86.0095	125.244	85.968	125.244	85.9906	125.244	85.9241	125.244	85.9565	125.244	85.8689	125.244	85.9095	125.244	85.8059	125.244	85.8527	125.244	85.7395	125.244	85.7899	125.244	85.6741	125.244	85.7255	125.244	85.6142	125.244	85.6641	125.244	85.5637	125.244	85.6097	125.244	85.5254	125.244	85.5656	125.244	85.5008	125.244	85.5341	125.244	85.4894	125.244	85.5154	125.244	85.4895	125.244	85.5085	125.244	85.4976	125.244	85.5106	125.244	85.51	125.244	85.5181	125.244	85.5224	125.244	85.527	125.244	85.5317	125.244	85.5337	125.244	85.5356
129.639	86.0932	129.639	86.0831	129.639	86.0853	129.639	86.0558	129.639	86.0598	129.639	86.0132	129.639	86.0179	129.639	85.9583	129.639	85.9624	129.639	85.8948	129.639	85.8966	129.639	85.8271	129.639	85.8251	129.639	85.7601	129.639	85.7526	129.639	85.6983	129.639	85.6844	129.639	85.6459	129.639	85.625	129.639	85.6058	129.639	85.5784	129.639	85.5794	129.639	85.5468	129.639	85.5663	129.639	85.5306	129.639	85.5643	129.639	85.5282	129.639	85.57	129.639	85.5365	129.639	85.5793	129.639	85.5511	129.639	85.5878	129.639	85.5675	129.639	85.5922	129.639	85.5816	129.639	85.5903
134.033	86.1852	134.033	86.176	134.033	86.1754	134.033	86.1486	134.033	86.1468	134.033	86.105	134.033	86.1008	134.033	86.0485	134.033	86.04	134.033	85.9831	134.033	85.9683	134.033	85.9136	134.033	85.8903	134.033	85.845	134.033	85.8113	134.033	85.7823	134.033	85.737	134.033	85.7297	134.033	85.6727	134.033	85.6902	134.033	85.6226	134.033	85.665	134.033	85.5894	134.033	85.6533	134.033	85.5739	134.033	85.6527	134.033	85.5745	134.033	85.659	134.033	85.5876	134.033	85.6677	134.033	85.6085	134.033	85.6743	134.033	85.6319	134.033	85.675	134.033	85.6529	134.033	85.6679
138.428	86.2094	138.428	86.1967	138.428	86.202	138.428	86.165	138.428	86.1748	138.428	86.1167	138.428	86.1289	138.428	86.055	138.428	86.0672	138.428	85.9843	138.428	85.9933	138.428	85.9097	138.428	85.9122	138.428	85.8366	138.428	85.8293	138.428	85.7702	138.428	85.7507	138.428	85.7151	138.428	85.6821	138.428	85.6743	138.428	85.6281	138.428	85.6492	138.428	85.5918	138.428	85.6387	138.428	85.5741	138.428	85.6402	138.428	85.5734	138.428	85.6492	138.428	85.5861	138.428	85.6607	138.428	85.6071	138.428	85.6696	138.428	85.6307	138.428	85.6723	138.428	85.6518	138.428	85.6663
143.555	86.1897	143.555	86.1725	143.555	86.1861	143.555	86.1357	143.555	86.1618	143.555	86.0816	143.555	86.1181	143.555	86.014	143.555	86.0578	143.555	85.9373	143.555	85.9846	143.555	85.8572	143.555	85.9034	143.555	85.7794	143.555	85.8201	143.555	85.7096	143.555	85.7407	143.555	85.6527	143.555	85.6709	143.555	85.612	143.555	85.6157	143.555	85.5888	143.555	85.5783	143.555	85.582	143.555	85.5594	143.555	85.5883	143.555	85.5577	143.555	85.603	143.555	85.5693	143.555	85.6203	143.555	85.589	143.555	85.6349	143.555	85.6109	143.555	85.6425	143.555	85.6295	143.555	85.6408
148.682	86.1786	148.682	86.1598	148.682	86.1753	148.682	86.12	148.682	86.15	148.682	86.062	148.682	86.1044	148.682	85.9896	148.682	86.0413	148.682	85.9077	148.682	85.9649	148.682	85.8224	148.682	85.8806	148.682	85.7399	148.682	85.7944	148.682	85.6665	148.682	85.713	148.682	85.6074	148.682	85.6423	148.682	85.5663	148.682	85.5875	148.682	85.5445	148.682	85.5516	148.682	85.5408	148.682	85.5354	148.682	85.5515	148.682	85.5367	148.682	85.5713	148.682	85.5514	148.682	85.594	148.682	85.5737	148.682	85.6135	148.682	85.5972	148.682	85.6251	148.682	85.6161	148.682	85.6261
153.809	86.1212	153.809	86.101	153.809	86.1178	153.809	86.0585	153.809	86.0911	153.809	85.9965	153.809	86.0426	153.809	85.9191	153.809	85.9755	153.809	85.8316	153.809	85.8943	153.809	85.7402	153.809	85.8045	153.809	85.6517	153.809	85.7127	153.809	85.5729	153.809	85.6259	153.809	85.5094	153.809	85.5505	153.809	85.4652	153.809	85.4921	153.809	85.4418	153.809	85.4539	153.809	85.4379	153.809	85.4366	153.809	85.4495	153.809	85.438	153.809	85.471	153.809	85.4536	153.809	85.4956	153.809	85.4771	153.809	85.5169	153.809	85.5017	153.809	85.5299	153.809	85.5214	153.809	85.5315
159.668	86.1438	159.668	86.1233	159.668	86.1392	159.668	86.0788	159.668	86.1096	159.668	86.0135	159.668	86.0569	159.668	85.9315	159.668	85.9846	159.668	85.8388	159.668	85.8974	159.668	85.7421	159.668	85.8016	159.668	85.649	159.668	85.7045	159.668	85.5668	159.668	85.6137	159.668	85.5019	159.668	85.5364	159.668	85.4586	159.668	85.4785	159.668	85.4383	159.668	85.4434	159.668	85.4396	159.668	85.4315	159.668	85.4578	159.668	85.4401	159.668	85.4863	159.668	85.4637	159.668	85.5174	159.668	85.4949	159.668	85.5439	159.668	85.526	159.668	85.56	159.668	85.5501	159.668	85.5623
164.795	86.1475	164.795	86.1277	164.795	86.141	164.795	86.0832	164.795	86.1085	164.795	86.0168	164.795	86.0518	164.795	85.9332	164.795	85.9744	164.795	85.8383	164.795	85.8812	164.795	85.7391	164.795	85.7788	164.795	85.6433	164.795	85.6746	164.795	85.5585	164.795	85.5768	164.795	85.4913	164.795	85.4931	164.795	85.4459	164.795	85.43	164.795	85.424	164.795	85.3913	164.795	85.4238	164.795	85.3779	164.795	85.4406	164.795	85.387	164.795	85.4674	164.795	85.4129	164.795	85.4963	164.795	85.4479	164.795	85.5199	164.795	85.4837	164.795	85.5322	164.795	85.513	164.795	85.53
170.654	86.0554	170.654	86.0293	170.654	86.054	170.654	85.9773	170.654	86.0254	170.654	85.9027	170.654	85.9715	170.654	85.8105	170.654	85.8958	170.654	85.7073	170.654	85.8038	170.654	85.601	170.654	85.7021	170.654	85.5001	170.654	85.5987	170.654	85.4133	170.654	85.5022	170.654	85.3475	170.654	85.4206	170.654	85.3077	170.654	85.3605	170.654	85.2951	170.654	85.326	170.654	85.3071	170.654	85.3176	170.654	85.338	170.654	85.332	170.654	85.3793	170.654	85.3629	170.654	85.4219	170.654	85.4018	170.654	85.4574	170.654	85.4399	170.654	85.4789	170.654	85.4689	170.654	85.4829
176.514	85.9543	176.514	85.9309	176.514	85.9481	176.514	85.8792	176.514	85.9129	176.514	85.8022	176.514	85.8509	176.514	85.7048	176.514	85.7663	176.514	85.5939	176.514	85.665	176.514	85.4776	176.514	85.5543	176.514	85.3652	176.514	85.4428	176.514	85.2663	176.514	85.3397	176.514	85.1894	176.514	85.2537	176.514	85.1402	176.514	85.1916	176.514	85.1211	176.514	85.1575	176.514	85.1301	176.514	85.1514	176.514	85.1613	176.514	85.1695	176.514	85.2058	176.514	85.2044	176.514	85.2533	176.514	85.2469	176.514	85.2941	176.514	85.287	176.514	85.3207	176.514	85.3163	176.514	85.3284
183.105	85.8605	183.105	85.8444	183.105	85.8452	183.105	85.7981	183.105	85.7991	183.105	85.7247	183.105	85.7245	183.105	85.6291	183.105	85.6259	183.105	85.5179	183.105	85.5095	183.105	85.3993	183.105	85.3833	183.105	85.2826	183.105	85.2569	183.105	85.1774	183.105	85.1403	183.105	85.0923	183.105	85.0433	183.105	85.0337	183.105	84.9737	183.105	85.0046	183.105	84.936	183.105	85.0035	183.105	84.9302	183.105	85.025	183.105	84.952	183.105	85.0604	183.105	84.9933	183.105	85.0994	183.105	85.0436	183.105	85.1324	183.105	85.0924	183.105	85.1511	183.105	85.1303	183.105	85.1508
189.697	85.8063	189.697	85.7842	189.697	85.7956	189.697	85.7315	189.697	85.7524	189.697	85.6517	189.697	85.6785	189.697	85.5504	189.697	85.5779	189.697	85.4351	189.697	85.4567	189.697	85.3143	189.697	85.323	189.697	85.1978	189.697	85.1868	189.697	85.0951	189.697	85.0589	189.697	85.0145	189.697	84.9501	189.697	84.9618	189.697	84.8698	189.697	84.9386	189.697	84.8236	189.697	84.9427	189.697	84.8129	189.697	84.9675	189.697	84.8339	189.697	85.0036	189.697	84.8782	189.697	85.0407	189.697	84.935	189.697	85.0688	189.697	84.9926	189.697	85.0803	189.697	85.0405	189.697	85.071
196.289	85.7363	196.289	85.7038	196.289	85.7341	196.289	85.639	196.289	85.6974	196.289	85.5459	196.289	85.6281	196.289	85.431	196.289	85.5306	196.289	85.3025	196.289	85.4113	196.289	85.1703	196.289	85.2787	196.289	85.0455	196.289	85.1432	196.289	84.9388	196.289	85.016	196.289	84.8593	196.289	84.9085	196.289	84.813	196.289	84.8299	196.289	84.8012	196.289	84.7861	196.289	84.8202	196.289	84.7781	196.289	84.862	196.289	84.8017	196.289	84.9155	196.289	84.8482	196.289	84.9689	196.289	84.906	196.289	85.0111	196.289	84.9629	196.289	85.034	196.289	85.0079	196.289	85.0329
202.881	85.6485	202.881	85.608	202.881	85.6517	202.881	85.5324	202.881	85.6177	202.881	85.426	202.881	85.5486	202.881	85.2955	202.881	85.4488	202.881	85.1499	202.881	85.3252	202.881	85.0003	202.881	85.1867	202.881	84.859	202.881	85.0443	202.881	84.7384	202.881	84.9101	202.881	84.6493	202.881	84.7961	202.881	84.5987	202.881	84.7126	202.881	84.5886	202.881	84.666	202.881	84.6147	202.881	84.6573	202.881	84.6679	202.881	84.6816	202.881	84.7355	202.881	84.7294	202.881	84.8037	202.881	84.788	202.881	84.8601	202.881	84.8438	202.881	84.8953	202.881	84.8853	202.881	84.9039
210.205	85.5367	210.205	85.4984	210.205	85.5365	210.205	85.4232	210.205	85.4983	210.205	85.3151	210.205	85.4248	210.205	85.1801	210.205	85.3208	210.205	85.027	210.205	85.1934	210.205	84.8669	210.205	85.0518	210.205	84.7123	210.205	84.9069	210.205	84.5767	210.205	84.7707	210.205	84.4722	210.205	84.6552	210.205	84.4076	210.205	84.5703	210.205	84.3864	210.205	84.5219	210.205	84.4055	210.205	84.5108	210.205	84.4563	210.205	84.5321	210.205	84.5256	210.205	84.5759	210.205	84.599	210.205	84.6293	210.205	84.6627	210.205	84.679	210.205	84.7064	210.205	84.7132	210.205	84.7236
217.529	85.4143	217.529	85.3796	217.529	85.4093	217.529	85.3068	217.529	85.3654	217.529	85.2	217.529	85.2855	217.529	85.0659	217.529	85.1751	217.529	84.9139	217.529	85.0422	217.529	84.7555	217.529	84.8971	217.529	84.6044	217.529	84.7521	217.529	84.4746	217.529	84.6202	217.529	84.3786	217.529	84.5141	217.529	84.3251	217.529	84.4434	217.529	84.3169	217.529	84.4135	217.529	84.3501	217.529	84.4232	217.529	84.4146	217.529	84.4655	217.529	84.4964	217.529	84.5286	217.529	84.58	217.529	84.5982	217.529	84.6511	217.529	84.6601	217.529	84.6987	217.529	84.7022	217.529	84.7162
225.586	85.3659	225.586	85.3434	225.586	85.3435	225.586	85.2776	225.586	85.2769	225.586	85.1727	225.586	85.1693	225.586	85.0356	225.586	85.0266	225.586	84.876	225.586	84.8579	225.586	84.7061	225.586	84.675	225.586	84.5405	225.586	84.4928	225.586	84.3948	225.586	84.3278	225.586	84.2833	225.586	84.1964	225.586	84.2167	225.586	84.1118	225.586	84.199	225.586	84.0812	225.586	84.2267	225.586	84.1034	225.586	84.2891	225.586	84.1691	225.586	84.3703	225.586	84.2625	225.586	84.4528	225.586	84.3649	225.586	84.5201	225.586	84.4581	225.586	84.5592	225.586	84.5272	225.586	84.5622
232.91	85.426	232.91	85.3977	232.91	85.4078	232.91	85.3256	232.91	85.3428	232.91	85.2145	232.91	85.2327	232.91	85.0716	232.91	85.0823	232.91	84.9065	232.91	84.899	232.91	84.7314	232.91	84.6939	232.91	84.5602	232.91	84.4815	232.91	84.4078	232.91	84.2793	232.91	84.2877	232.91	84.1061	232.91	84.2098	232.91	83.9791	232.91	84.1779	232.91	83.91	232.91	84.1885	232.91	83.9022	232.91	84.2314	232.91	83.949	232.91	84.2911	232.91	84.0352	232.91	84.3507	232.91	84.141	232.91	84.3942	232.91	84.2461	232.91	84.4094	232.91	84.3329	232.91	84.3892
241.699	85.1275	241.699	85.0679	241.699	85.1409	241.699	84.9645	241.699	85.108	241.699	84.8225	241.699	85.0307	241.699	84.6495	241.699	84.9134	241.699	84.4567	241.699	84.763	241.699	84.2581	241.699	84.5888	241.699	84.0701	241.699	84.4032	241.699	83.91	241.699	84.2207	241.699	83.7932	241.699	84.0574	241.699	83.7299	241.699	83.9281	241.699	83.7223	241.699	83.8446	241.699	83.7636	241.699	83.812	241.699	83.8398	241.699	83.8274	241.699	83.9319	241.699	83.8802	241.699	84.0208	241.699	83.9542	241.699	84.0898	241.699	84.031	241.699	84.1273	241.699	84.0934	241.699	84.1281
249.756	85.2202	249.756	85.1776	249.756	85.2115	249.756	85.0855	249.756	85.1525	249.756	84.948	249.756	85.0459	249.756	84.7719	249.756	84.8973	249.756	84.5673	249.756	84.7149	249.756	84.3477	249.756	84.5097	249.756	84.1297	249.756	84.2959	249.756	83.9318	249.756	84.0899	249.756	83.7723	249.756	83.9093	249.756	83.6655	249.756	83.77	249.756	83.6183	249.756	83.6834	249.756	83.6281	249.756	83.6533	249.756	83.6827	249.756	83.6741	249.756	83.7637	249.756	83.7328	249.756	83.8501	249.756	83.8106	249.756	83.9227	249.756	83.8879	249.756	83.9673	249.756	83.9472	249.756	83.9757
258.545	85.1621	258.545	85.1149	258.545	85.1607	258.545	85.0211	258.545	85.1109	258.545	84.8853	258.545	85.0153	258.545	84.7146	258.545	84.8788	258.545	84.5191	258.545	84.7091	258.545	84.3118	258.545	84.5164	258.545	84.1084	258.545	84.3139	258.545	83.9258	258.545	84.1171	258.545	83.7802	258.545	83.9422	258.545	83.6839	258.545	83.8047	258.545	83.6424	258.545	83.7156	258.545	83.6528	258.545	83.6794	258.545	83.7038	258.545	83.692	258.545	83.7783	258.545	83.7418	258.545	83.8572	258.545	83.8117	258.545	83.9229	258.545	83.8832	258.545	83.9622	258.545	83.9394	258.545	83.9679
268.066	84.9082	268.066	84.8479	268.066	84.9193	268.066	84.7397	268.066	84.8818	268.066	84.5877	268.066	84.7988	268.066	84.399	268.066	84.6749	268.066	84.1837	268.066	84.5167	268.066	83.9556	268.066	84.3328	268.066	83.7316	268.066	84.1338	268.066	83.53	268.066	83.932	268.066	83.3684	268.066	83.7414	268.066	83.2603	268.066	83.5764	268.066	83.2113	268.066	83.4496	268.066	83.2174	268.066	83.3692	268.066	83.2657	268.066	83.3369	268.066	83.3377	268.066	83.3469	268.066	83.4131	268.066	83.3864	268.066	83.4742	268.066	83.4382	268.066	83.5086	268.066	83.4848	268.066	83.5114
277.588	84.9279	277.588	84.9079	277.588	84.8976	277.588	84.8377	277.588	84.8201	277.588	84.721	277.588	84.7025	277.588	84.5649	277.588	84.5553	277.588	84.379	277.588	84.3919	277.588	84.1757	277.588	84.2275	277.588	83.9696	277.588	84.0769	277.588	83.7763	277.588	83.9528	277.588	83.6112	277.588	83.8635	277.588	83.4873	277.588	83.8112	277.588	83.4134	277.588	83.7927	277.588	83.3917	277.588	83.8	277.588	83.4176	277.588	83.8225	277.588	83.4802	277.588	83.8486	277.588	83.565	277.588	83.8676	277.588	83.6565	277.588	83.8707	277.588	83.7409	277.588	83.8516	277.588	83.8079
287.109	84.6009	287.109	84.5732	287.109	84.577	287.109	84.4995	287.109	84.5002	287.109	84.3895	287.109	84.3738	287.109	84.2558	287.109	84.2068	287.109	84.113	287.109	84.0138	287.109	83.9766	287.109	83.8141	287.109	83.8607	287.109	83.6304	287.109	83.776	287.109	83.4849	287.109	83.7279	287.109	83.3945	287.109	83.7163	287.109	83.3666	287.109	83.7357	287.109	83.3974	287.109	83.7772	287.109	83.4736	287.109	83.8303	287.109	83.5769	287.109	83.8852	287.109	83.6883	287.109	83.9332	287.109	83.7922	287.109	83.9672	287.109	83.8777	287.109	83.9819	287.109	83.9388	287.109	83.9733
297.363	84.5368	297.363	84.4621	297.363	84.5404	297.363	84.3209	297.363	84.4723	297.363	84.1231	297.363	84.3363	297.363	83.8844	297.363	84.1406	297.363	83.6273	297.363	83.8988	297.363	83.3804	297.363	83.6306	297.363	83.176	297.363	83.3626	297.363	83.0439	297.363	83.1264	297.363	83.0036	297.363	82.9546	297.363	83.0583	297.363	82.8727	297.363	83.1935	297.363	82.892	297.363	83.3813	297.363	83.0048	297.363	83.5893	297.363	83.1874	297.363	83.7865	297.363	83.4071	297.363	83.948	297.363	83.6306	297.363	84.0561	297.363	83.8293	297.363	84.0998	297.363	83.982	297.363	84.0747
307.617	84.7471	307.617	84.6749	307.617	84.7547	307.617	84.5402	307.617	84.6987	307.617	84.3486	307.617	84.5829	307.617	84.11	307.617	84.4143	307.617	83.839	307.617	84.2031	307.617	83.5557	307.617	83.9633	307.617	83.2855	307.617	83.7127	307.617	83.0565	307.617	83.4726	307.617	82.8955	307.617	83.2663	307.617	82.8208	307.617	83.1155	307.617	82.8368	307.617	83.0361	307.617	82.9314	307.617	83.033	307.617	83.0794	307.617	83.0982	307.617	83.2491	307.617	83.2118	307.617	83.4095	307.617	83.347	307.617	83.5348	307.617	83.4755	307.617	83.6077	307.617	83.5726	307.617	83.62
318.604	84.5635	318.604	84.5152	318.604	84.5591	318.604	84.4158	318.604	84.5034	318.604	84.2701	318.604	84.4011	318.604	84.0863	318.604	84.2597	318.604	83.8754	318.604	84.0891	318.604	83.6512	318.604	83.9011	318.604	83.4293	318.604	83.7086	318.604	83.2256	318.604	83.5244	318.604	83.0549	318.604	83.3602	318.604	82.9285	318.604	83.2251	318.604	82.852	318.604	83.1249	318.604	82.8242	318.604	83.0609	318.604	82.8377	318.604	83.0302	318.604	82.8797	318.604	83.0257	318.604	82.9353	318.604	83.0372	318.604	82.9902	318.604	83.0533	318.604	83.0331	318.604	83.063	318.604	83.0576
329.59	83.7216	329.59	83.6968	329.59	83.7351	329.59	83.6636	329.59	83.7384	329.59	83.6281	329.59	83.7361	329.59	83.5974	329.59	83.7344	329.59	83.5772	329.59	83.7391	329.59	83.5696	329.59	83.7529	329.59	83.5721	329.59	83.7743	329.59	83.5781	329.59	83.7973	329.59	83.5788	329.59	83.8129	329.59	83.566	329.59	83.812	329.59	83.5342	329.59	83.787	329.59	83.4828	329.59	83.7345	329.59	83.416	329.59	83.6561	329.59	83.343	329.59	83.5587	329.59	83.2757	329.59	83.4535	329.59	83.2269	329.59	83.3539	329.59	83.2072	329.59	83.2734	329.59	83.2226
341.309	78.9016	341.309	78.9174	341.309	78.916	341.309	79.0264	341.309	78.9656	341.309	79.3277	341.309	79.1179	341.309	79.8913	341.309	79.4651	341.309	80.6994	341.309	80.0587	341.309	81.6544	341.309	80.8653	341.309	82.6393	341.309	81.7869	341.309	83.5635	341.309	82.7166	341.309	84.3733	341.309	83.5754	341.309	85.0445	341.309	84.3188	341.309	85.572	341.309	84.9292	341.309	85.9627	341.309	85.4067	341.309	86.2314	341.309	85.7634	341.309	86.3976	341.309	86.0184	341.309	86.4832	341.309	86.1946	341.309	86.5101	341.309	86.315	341.309	86.4974	341.309	86.3988	341.309	86.4584
353.76	85.1984	353.76	84.9575	353.76	85.1281	353.76	84.3882	353.76	84.7446	353.76	83.4499	353.76	84.0275	353.76	82.0729	353.76	82.939	353.76	80.1599	353.76	81.4322	353.76	77.6814	353.76	79.512	353.76	75.3462	353.76	77.522	353.76	75.6485	353.76	76.7584	353.76	78.3874	353.76	78.1992	353.76	81.1511	353.76	80.5358	353.76	83.3551	353.76	82.6928	353.76	85.0532	353.76	84.4509	353.76	86.3506	353.76	85.8374	353.76	87.3257	353.76	86.91	353.76	88.0307	353.76	87.7162	353.76	88.4993	353.76	88.2881	353.76	88.7518	353.76	88.6457	353.76	88.7993
366.211	86.7311	366.211	86.5947	366.211	86.6802	366.211	86.2648	366.211	86.4413	366.211	85.7279	366.211	86.0069	366.211	84.9639	366.211	85.3636	366.211	83.9479	366.211	84.4946	366.211	82.6619	366.211	83.3873	366.211	81.1344	366.211	82.0585	366.211	79.5625	366.211	80.6249	366.211	78.5234	366.211	79.4445	366.211	78.7353	366.211	79.1192	366.211	80.0382	366.211	79.8857	366.211	81.6567	366.211	81.2548	366.211	83.1288	366.211	82.6825	366.211	84.3174	366.211	83.9191	366.211	85.2065	366.211	84.8931	366.211	85.8099	366.211	85.5963	366.211	86.1433	366.211	86.0353	366.211	86.217
378.662	86.8496	378.662	86.7219	378.662	86.8128	378.662	86.4255	378.662	86.6101	378.662	85.9508	378.662	86.235	378.662	85.2836	378.662	85.6767	378.662	84.4076	378.662	84.9224	378.662	83.3129	378.662	83.9634	378.662	82.0208	378.662	82.8118	378.662	80.6502	378.662	81.5425	378.662	79.5345	378.662	80.3767	378.662	79.2034	378.662	79.7315	378.662	79.8652	378.662	79.9558	378.662	81.102	378.662	80.8987	378.662	82.4159	378.662	82.1059	378.662	83.5568	378.662	83.2506	378.662	84.4431	378.662	84.1915	378.662	85.0586	378.662	84.8836	378.662	85.4062	378.662	85.317	378.662	85.4913
392.578	86.4041	392.578	86.2994	392.578	86.3612	392.578	86.0429	392.578	86.1698	392.578	85.6258	392.578	85.8243	392.578	85.0359	392.578	85.3147	392.578	84.2597	392.578	84.6291	392.578	83.2899	392.578	83.758	392.578	82.1429	392.578	82.7068	392.578	80.9032	392.578	81.5261	392.578	79.8014	392.578	80.3718	392.578	79.238	392.578	79.566	392.578	79.5037	392.578	79.4734	392.578	80.4184	392.578	80.1252	392.578	81.5562	392.578	81.1715	392.578	82.618	392.578	82.2545	392.578	83.4726	392.578	83.1817	392.578	84.0764	392.578	83.8777	392.578	84.4191	392.578	84.3188	392.578	84.4996
405.762	86.4519	405.762	86.3593	405.762	86.3956	405.762	86.1141	405.762	86.1887	405.762	85.7068	405.762	85.8243	405.762	85.1233	405.762	85.2908	405.762	84.3467	405.762	84.5738	405.762	83.363	405.762	83.6606	405.762	82.1785	405.762	82.5526	405.762	80.8639	405.762	81.2979	405.762	79.6478	405.762	80.0631	405.762	78.98	405.762	79.2135	405.762	79.2371	405.762	79.169	405.762	80.2348	405.762	79.9381	405.762	81.4747	405.762	81.0983	405.762	82.6188	405.762	82.2619	405.762	83.5301	405.762	83.2407	405.762	84.1692	405.762	83.9685	405.762	84.5301	405.762	84.4278	405.762	84.6154
420.41	86.8201	420.41	86.7035	420.41	86.7923	420.41	86.4377	420.41	86.6175	420.41	86.0114	420.41	86.2868	420.41	85.406	420.41	85.7844	420.41	84.5978	420.41	85.0889	420.41	83.5608	420.41	84.1748	420.41	82.2797	420.41	83.0186	420.41	80.7904	420.41	81.6195	420.41	79.2893	420.41	80.0631	420.41	78.2944	420.41	78.6713	420.41	78.4052	420.41	78.0852	420.41	79.4905	420.41	78.6805	420.41	80.8844	420.41	79.9837	420.41	82.1494	420.41	81.368	420.41	83.1333	420.41	82.5373	420.41	83.8039	420.41	83.4072	420.41	84.1628	420.41	83.9653	420.41	84.216
435.059	87.1367	435.059	87.038	435.059	87.0945	435.059	86.7915	435.059	86.9094	435.059	86.3812	435.059	86.5705	435.059	85.7819	435.059	86.0583	435.059	84.9584	435.059	85.3441	435.059	83.8651	435.059	84.3908	435.059	82.4491	435.059	83.1541	435.059	80.6751	435.059	81.5964	435.059	78.6449	435.059	79.7484	435.059	76.9896	435.059	77.9309	435.059	76.9808	435.059	77.0954	435.059	78.5958	435.059	77.9727	435.059	80.5454	435.059	79.7442	435.059	82.1917	435.059	81.4792	435.059	83.4169	435.059	82.8681	435.059	84.2355	435.059	83.8676	435.059	84.6768	435.059	84.4928	435.059	84.7604
450.439	87.7713	450.439	87.7003	450.439	87.7417	450.439	87.5221	450.439	87.6074	450.439	87.2189	450.439	87.3536	450.439	86.7617	450.439	86.9553	450.439	86.1085	450.439	86.3769	450.439	85.2008	450.439	85.5696	450.439	83.9533	450.439	84.4649	450.439	82.2323	450.439	82.9617	450.439	79.8079	450.439	80.9	450.439	76.2617	450.439	78.0262	450.439	71.3633	450.439	74.1678	450.439	71.189	450.439	71.8249	450.439	75.9377	450.439	74.9341	450.439	79.3144	450.439	78.419	450.439	81.4804	450.439	80.8377	450.439	82.8229	450.439	82.4119	450.439	83.5333	450.439	83.3328	450.439	83.6962
466.553	87.0611	466.553	87.0453	466.553	87.0755	466.553	87.0192	466.553	87.0827	466.553	86.9607	466.553	87.063	466.553	86.8377	466.553	86.9863	466.553	86.6119	466.553	86.8154	466.553	86.2411	466.553	86.509	466.553	85.6787	466.553	86.0221	466.553	84.8717	466.553	85.3041	466.553	83.7562	466.553	84.2939	466.553	82.2515	466.553	82.9134	466.553	80.2622	466.553	81.0598	466.553	77.7351	466.553	78.6217	466.553	75.0151	466.553	75.6648	466.553	73.7237	466.553	73.3569	466.553	74.8408	466.553	73.8557	466.553	76.4815	466.553	75.7445	466.553	77.5191	466.553	77.163	466.553	77.7554
482.666	86.1468	482.666	86.1348	482.666	86.1237	482.666	86.082	482.666	86.0656	482.666	85.9771	482.666	85.9662	482.666	85.8044	482.666	85.8132	482.666	85.5443	482.666	85.5888	482.666	85.1748	482.666	85.2707	482.666	84.6736	482.666	84.8347	482.666	84.0206	482.666	84.2566	482.666	83.2043	482.666	83.5177	482.666	82.2343	482.666	82.6136	482.666	81.1662	482.666	81.5737	482.666	80.138	482.666	80.4955	482.666	79.375	482.666	79.5765	482.666	79.0728	482.666	79.0604	482.666	79.2035	482.666	79.0388	482.666	79.5267	482.666	79.3362	482.666	79.7909	482.666	79.673	482.666	79.8505
500.244	86.4466	500.244	86.3811	500.244	86.4414	500.244	86.2436	500.244	86.3629	500.244	86.0289	500.244	86.2053	500.244	85.727	500.244	85.9601	500.244	85.3243	500.244	85.6167	500.244	84.8056	500.244	85.1628	500.244	84.1575	500.244	84.5863	500.244	83.3758	500.244	83.8793	500.244	82.4797	500.244	83.0458	500.244	81.5368	500.244	82.1182	500.244	80.6918	500.244	81.1834	500.244	80.1536	500.244	80.4059	500.244	80.0729	500.244	79.9895	500.244	80.3921	500.244	80.0354	500.244	80.8872	500.244	80.4326	500.244	81.3357	500.244	80.9489	500.244	81.599	500.244	81.383	500.244	81.6161
517.822	86.1232	517.822	86.0591	517.822	86.1201	517.822	85.9257	517.822	86.0494	517.822	85.717	517.822	85.9074	517.822	85.423	517.822	85.6869	517.822	85.0279	517.822	85.376	517.822	84.5113	517.822	84.9582	517.822	83.8508	517.822	84.4136	517.822	83.0288	517.822	83.7233	517.822	82.0497	517.822	82.8779	517.822	80.975	517.822	81.8976	517.822	79.9799	517.822	80.87	517.822	79.3699	517.822	79.9977	517.822	79.3921	517.822	79.568	517.822	79.9511	517.822	79.7321	517.822	80.7014	517.822	80.3186	517.822	81.3469	517.822	81.0026	517.822	81.7316	517.822	81.5373	517.822	81.7962
536.133	86.6344	536.133	86.5791	536.133	86.5947	536.133	86.4308	536.133	86.4577	536.133	86.1897	536.133	86.2209	536.133	85.8518	536.133	85.8798	536.133	85.4059	536.133	85.4256	536.133	84.8317	536.133	84.8434	536.133	84.0998	536.133	84.1117	536.133	83.1763	536.133	83.2055	536.133	82.035	536.133	82.1079	536.133	80.6944	536.133	80.8416	536.133	79.3109	536.133	79.5446	536.133	78.3144	536.133	78.5754	536.133	78.2438	536.133	78.4019	536.133	79.0595	536.133	79.0656	536.133	80.1703	536.133	80.0898	536.133	81.1157	536.133	81.0247	536.133	81.7058	536.133	81.6503	536.133	81.8857
554.443	86.8417	554.443	86.7689	554.443	86.8361	554.443	86.6149	554.443	86.7532	554.443	86.374	554.443	86.5913	554.443	86.0366	554.443	86.3438	554.443	85.5878	554.443	85.9973	554.443	85.0071	554.443	85.5292	554.443	84.2704	554.443	84.9085	554.443	83.3558	554.443	84.0979	554.443	82.2596	554.443	83.0613	554.443	81.0327	554.443	81.7842	554.443	79.8518	554.443	80.3296	554.443	79.0673	554.443	78.9639	554.443	79.0076	554.443	78.2345	554.443	79.5891	554.443	78.519	554.443	80.4004	554.443	79.457	554.443	81.095	554.443	80.4522	554.443	81.4971	554.443	81.1801	554.443	81.5337
574.219	87.2847	574.219	87.2252	574.219	87.2648	574.219	87.0915	574.219	87.1602	574.219	86.8861	574.219	86.9668	574.219	86.604	574.219	86.6798	574.219	86.2296	574.219	86.2913	574.219	85.7336	574.219	85.7871	574.219	85.0749	574.219	85.145	574.219	84.2049	574.219	84.3348	574.219	83.079	574.219	83.3261	574.219	81.69	574.219	82.1111	574.219	80.1647	574.219	80.766	574.219	78.9521	574.219	79.5735	574.219	78.7438	574.219	79.0557	574.219	79.5896	574.219	79.4951	574.219	80.7827	574.219	80.4963	574.219	81.7772	574.219	81.5035	574.219	82.3706	574.219	82.2141	574.219	82.5152
594.727	87.6658	594.727	87.5788	594.727	87.6725	594.727	87.4105	594.727	87.6017	594.727	87.1603	594.727	87.4564	594.727	86.8234	594.727	87.2357	594.727	86.3857	594.727	86.9291	594.727	85.8191	594.727	86.5134	594.727	85.0811	594.727	85.9512	594.727	84.1181	594.727	85.1934	594.727	82.8805	594.727	84.183	594.727	81.3682	594.727	82.8696	594.727	79.772	594.727	81.2584	594.727	78.7179	594.727	79.5739	594.727	78.9458	594.727	78.5424	594.727	80.1608	594.727	78.9299	594.727	81.5012	594.727	80.2662	594.727	82.5071	594.727	81.6295	594.727	83.0422	594.727	82.6007	594.727	83.0758
615.234	87.442	615.234	87.396	615.234	87.4079	615.234	87.2713	615.234	87.294	615.234	87.068	615.234	87.102	615.234	86.7813	615.234	86.8308	615.234	86.3965	615.234	86.4715	615.234	85.8866	615.234	86.0027	615.234	85.2125	615.234	85.3898	615.234	84.3238	615.234	84.5862	615.234	83.1671	615.234	83.541	615.234	81.7126	615.234	82.218	615.234	80.0498	615.234	80.6597	615.234	78.6285	615.234	79.1622	615.234	78.3085	615.234	78.4457	615.234	79.2621	615.234	79.0024	615.234	80.6285	615.234	80.2582	615.234	81.7543	615.234	81.4567	615.234	82.4242	615.234	82.2659	615.234	82.5949
637.207	87.443	637.207	87.3633	637.207	87.4396	637.207	87.2094	637.207	87.3519	637.207	86.993	637.207	87.186	637.207	86.7186	637.207	86.9495	637.207	86.3736	637.207	86.6421	637.207	85.9233	637.207	86.2474	637.207	85.3122	637.207	85.7271	637.207	84.4689	637.207	85.0218	637.207	83.3126	637.207	84.0548	637.207	81.7722	637.207	82.7446	637.207	79.8705	637.207	81.0505	637.207	78.0445	637.207	79.1527	637.207	77.5148	637.207	77.888	637.207	78.7377	637.207	78.3339	637.207	80.4538	637.207	79.8878	637.207	81.8056	637.207	81.3798	637.207	82.5849	637.207	82.3677	637.207	82.7712
659.912	87.2966	659.912	87.2079	659.912	87.302	659.912	87.0402	659.912	87.2281	659.912	86.8034	659.912	87.0843	659.912	86.5036	659.912	86.8775	659.912	86.132	659.912	86.6026	659.912	85.6562	659.912	86.236	659.912	85.0183	659.912	85.7342	659.912	84.1374	659.912	85.0358	659.912	82.9149	659.912	84.0653	659.912	81.2491	659.912	82.7419	659.912	79.1255	659.912	81.0143	659.912	77.0371	659.912	79.0188	659.912	76.5877	659.912	77.5314	659.912	78.1848	659.912	77.7824	659.912	80.1108	659.912	79.331	659.912	81.5163	659.912	80.8921	659.912	82.2786	659.912	81.9521	659.912	82.4178
683.35	87.4759	683.35	87.4241	683.35	87.4391	683.35	87.293	683.35	87.3165	683.35	87.0978	683.35	87.1232	683.35	86.8477	683.35	86.8772	683.35	86.5347	683.35	86.5849	683.35	86.127	683.35	86.2274	683.35	85.5674	683.35	85.7566	683.35	84.7752	683.35	85.1007	683.35	83.6474	683.35	84.1739	683.35	82.0664	683.35	82.8894	683.35	79.9594	683.35	81.1984	683.35	77.6382	683.35	79.2557	683.35	76.6596	683.35	77.8742	683.35	78.0891	683.35	78.2363	683.35	80.1416	683.35	79.8115	683.35	81.6863	683.35	81.3487	683.35	82.5542	683.35	82.3651	683.35	82.7717
706.787	87.0381	706.787	86.9268	706.787	87.0423	706.787	86.7309	706.787	86.9449	706.787	86.4934	706.787	86.7745	706.787	86.2576	706.787	86.5686	706.787	86.0371	706.787	86.3501	706.787	85.7941	706.787	86.1053	706.787	85.4441	706.787	85.7765	706.787	84.8754	706.787	85.2707	706.787	83.9646	706.787	84.471	706.787	82.5794	706.787	83.2401	706.787	80.6022	706.787	81.4248	706.787	78.16	706.787	78.9551	706.787	76.6016	706.787	76.5422	706.787	77.7952	706.787	76.6788	706.787	80.0578	706.787	79.0095	706.787	81.7973	706.787	81.12	706.787	82.7576	706.787	82.4326	706.787	82.9651
731.689	87.1835	731.689	87.1188	731.689	87.1119	731.689	86.939	731.689	86.9126	731.689	86.6873	731.689	86.6234	731.689	86.4103	731.689	86.2997	731.689	86.1319	731.689	85.9894	731.689	85.8325	731.689	85.7011	731.689	85.4461	731.689	85.3853	731.689	84.8729	731.689	84.9426	731.689	83.989	731.689	84.2469	731.689	82.646	731.689	83.1617	731.689	80.6714	731.689	81.5506	731.689	77.98	731.689	79.3536	731.689	75.4715	731.689	77.0623	731.689	76.0478	731.689	76.6261	731.689	78.6333	731.689	78.4884	731.689	80.7255	731.689	80.5011	731.689	81.9177	731.689	81.7896	731.689	82.2603
758.057	87.5504	758.057	87.4205	758.057	87.5015	758.057	87.1383	758.057	87.2825	758.057	86.7616	758.057	86.9353	758.057	86.366	758.057	86.5272	758.057	86.0132	758.057	86.1283	758.057	85.7118	758.057	85.775	758.057	85.3972	758.057	85.4386	758.057	84.9462	758.057	85.0236	758.057	84.2037	758.057	84.3913	758.057	82.9971	758.057	83.3799	758.057	81.1439	758.057	81.8101	758.057	78.5628	758.057	79.5255	758.057	76.1197	758.057	76.8134	758.057	76.5871	758.057	75.9254	758.057	79.0575	758.057	78.0622	758.057	81.0792	758.057	80.4044	758.057	82.2063	758.057	81.8851	758.057	82.4702
784.424	87.2683	784.424	87.0933	784.424	87.2218	784.424	86.7255	784.424	86.9607	784.424	86.2335	784.424	86.526	784.424	85.7202	784.424	85.9932	784.424	85.2838	784.424	85.4595	784.424	84.9517	784.424	84.9989	784.424	84.6468	784.424	84.6043	784.424	84.2243	784.424	84.174	784.424	83.5256	784.424	83.5533	784.424	82.3946	784.424	82.5763	784.424	80.668	784.424	81.0754	784.424	78.2441	784.424	78.9078	784.424	75.7578	784.424	76.3115	784.424	75.8409	784.424	75.2785	784.424	78.2646	784.424	77.248	784.424	80.3803	784.424	79.6225	784.424	81.5603	784.424	81.1778	784.424	81.8167
812.256	87.8174	812.256	87.6224	812.256	87.7638	812.256	87.2013	812.256	87.4764	812.256	86.6183	812.256	87.0059	812.256	85.9789	812.256	86.4343	812.256	85.4023	812.256	85.8595	812.256	84.9579	812.256	85.356	812.256	84.6069	812.256	84.9266	812.256	84.2084	812.256	84.4821	812.256	83.5729	812.256	83.8638	812.256	82.4972	812.256	82.8753	812.256	80.7694	812.256	81.2865	812.256	78.2403	812.256	78.817	812.256	75.5616	812.256	75.3886	812.256	75.7095	812.256	73.6096	812.256	78.2942	812.256	76.4705	812.256	80.4595	812.256	79.4392	812.256	81.6544	812.256	81.2071	812.256	81.9063
840.82	87.9568	840.82	87.7652	840.82	87.8745	840.82	87.3196	840.82	87.5294	840.82	86.6759	840.82	86.9676	840.82	85.9333	840.82	86.2777	840.82	85.2236	840.82	85.5843	840.82	84.6549	840.82	85.001	840.82	84.2287	840.82	84.557	840.82	83.8133	840.82	84.1675	840.82	83.1985	840.82	83.6752	840.82	82.1482	840.82	82.8981	840.82	80.4013	840.82	81.634	840.82	77.6854	840.82	79.6461	840.82	74.3906	840.82	76.7895	840.82	74.339	840.82	74.3022	840.82	77.4508	840.82	75.647	840.82	79.8531	840.82	78.4762	840.82	81.0734	840.82	80.3972	840.82	81.2413
870.85	88.4828	870.85	88.2755	870.85	88.3852	870.85	87.7753	870.85	87.9969	870.85	87.0316	870.85	87.3615	870.85	86.1508	870.85	86.5642	870.85	85.3003	870.85	85.74	870.85	84.6448	870.85	85.0411	870.85	84.2158	870.85	84.5461	870.85	83.8541	870.85	84.1826	870.85	83.299	870.85	83.7531	870.85	82.2753	870.85	83.0124	870.85	80.4797	870.85	81.694	870.85	77.5184	870.85	79.4753	870.85	73.5208	870.85	76.0641	870.85	73.7783	870.85	73.3275	870.85	77.7793	870.85	76.0328	870.85	80.5277	870.85	79.3876	870.85	81.9171	870.85	81.3848	870.85	82.1857
901.611	88.8247	901.611	88.6002	901.611	88.7469	901.611	88.0845	901.611	88.3718	901.611	87.3123	901.611	87.7238	901.611	86.3597	901.611	86.8596	901.611	85.3598	901.611	85.8887	901.611	84.4795	901.611	84.975	901.611	83.8222	901.611	84.2675	901.611	83.3273	901.611	83.7709	901.611	82.785	901.611	83.3017	901.611	81.9183	901.611	82.5847	901.611	80.4052	901.611	81.3339	901.611	77.8277	901.611	79.2422	901.611	73.9287	901.611	76.0527	901.611	72.6088	901.611	73.2242	901.611	76.5255	901.611	75.3092	901.611	79.5561	901.611	78.5784	901.611	81.0929	901.611	80.6027	901.611	81.4113
933.105	89.7582	933.105	89.5352	933.105	89.6643	933.105	88.9964	933.105	89.2606	933.105	88.1611	933.105	88.5654	933.105	87.0877	933.105	87.6212	933.105	85.9027	933.105	86.5183	933.105	84.8064	933.105	85.4118	933.105	83.9853	933.105	84.4808	933.105	83.4376	933.105	83.7937	933.105	82.9147	933.105	83.2039	933.105	82.0429	933.105	82.4167	933.105	80.391	933.105	81.088	933.105	77.298	933.105	78.777	933.105	71.1355	933.105	74.7396	933.105	67.9213	933.105	69.9133	933.105	75.8341	933.105	74.3585	933.105	79.7501	933.105	78.8301	933.105	81.6018	933.105	81.1869	933.105	82.042
966.064	89.3019	966.064	89.096	966.064	89.2185	966.064	88.6068	966.064	88.8479	966.064	87.8559	966.064	88.2049	966.064	86.8997	966.064	87.3316	966.064	85.8515	966.064	86.3158	966.064	84.8759	966.064	85.2969	966.064	84.1093	966.064	84.4254	966.064	83.543	966.064	83.7675	966.064	83.0048	966.064	83.2339	966.064	82.2473	966.064	82.6096	966.064	80.9976	966.064	81.612	966.064	78.8961	966.064	79.8735	966.064	75.3038	966.064	76.7832	966.064	69.5693	966.064	71.1753	966.064	70.9539	966.064	69.1404	966.064	76.0385	966.064	75.1788	966.064	78.61	966.064	78.3047	966.064	79.3108
999.756	88.968	999.756	88.7613	999.756	88.8572	999.756	88.2417	999.756	88.4311	999.756	87.4297	999.756	87.705	999.756	86.3865	999.756	86.7286	999.756	85.2479	999.756	85.6134	999.756	84.2297	999.756	84.5382	999.756	83.5273	999.756	83.6869	999.756	83.1367	999.756	83.1242	999.756	82.8262	999.756	82.7306	999.756	82.2859	999.756	82.2623	999.756	81.2125	999.756	81.4196	999.756	79.2457	999.756	79.8323	999.756	75.7802	999.756	76.9394	999.756	70.243	999.756	71.9278	999.756	71.1863	999.756	70.0996	999.756	76.1057	999.756	75.278	999.756	78.616	999.756	78.2743	999.756	79.2779
1,034.91	88.2887	1,034.91	88.0863	1,034.91	88.1814	1,034.91	87.5812	1,034.91	87.7572	1,034.91	86.7859	1,034.91	87.0146	1,034.91	85.7401	1,034.91	85.9758	1,034.91	84.545	1,034.91	84.7201	1,034.91	83.3892	1,034.91	83.4274	1,034.91	82.4943	1,034.91	82.3746	1,034.91	81.9504	1,034.91	81.7678	1,034.91	81.6115	1,034.91	81.5101	1,034.91	81.1818	1,034.91	81.2492	1,034.91	80.3167	1,034.91	80.5882	1,034.91	78.6078	1,034.91	79.1305	1,034.91	75.5004	1,034.91	76.3259	1,034.91	71.0058	1,034.91	71.1766	1,034.91	71.8307	1,034.91	67.889	1,034.91	75.8318	1,034.91	73.6734	1,034.91	77.9399	1,034.91	77.0463	1,034.91	78.316
1,071.53	87.2177	1,071.53	86.9926	1,071.53	87.1148	1,071.53	86.4456	1,071.53	86.682	1,071.53	85.5922	1,071.53	85.9222	1,071.53	84.4708	1,071.53	84.8585	1,071.53	83.171	1,071.53	83.5684	1,071.53	81.8794	1,071.53	82.2344	1,071.53	80.8837	1,071.53	81.1541	1,071.53	80.3838	1,071.53	80.5749	1,071.53	80.2285	1,071.53	80.4177	1,071.53	80.0009	1,071.53	80.2964	1,071.53	79.2624	1,071.53	79.7624	1,071.53	77.5658	1,071.53	78.38	1,071.53	74.2665	1,071.53	75.5723	1,071.53	68.9226	1,071.53	70.1171	1,071.53	69.9392	1,071.53	64.4797	1,071.53	74.4208	1,071.53	71.4686	1,071.53	76.5052	1,071.53	75.2592	1,071.53	76.7337
1,109.62	85.8672	1,109.62	85.5639	1,109.62	85.8313	1,109.62	84.9325	1,109.62	85.4544	1,109.62	83.9965	1,109.62	84.7459	1,109.62	82.8056	1,109.62	83.7327	1,109.62	81.4613	1,109.62	82.4745	1,109.62	80.1458	1,109.62	81.0918	1,109.62	79.1034	1,109.62	79.7983	1,109.62	78.4882	1,109.62	78.8616	1,109.62	78.1744	1,109.62	78.3956	1,109.62	77.8121	1,109.62	78.184	1,109.62	77.0256	1,109.62	77.8207	1,109.62	75.4664	1,109.62	76.9003	1,109.62	72.7489	1,109.62	75.0107	1,109.62	69.0195	1,109.62	71.6389	1,109.62	69.029	1,109.62	67.5112	1,109.62	72.5209	1,109.62	69.6123	1,109.62	74.5871	1,109.62	73.2263	1,109.62	74.8321
1,148.44	87.477	1,148.44	87.0892	1,148.44	87.4434	1,148.44	86.2793	1,148.44	86.9903	1,148.44	85.0653	1,148.44	86.1214	1,148.44	83.528	1,148.44	84.865	1,148.44	81.893	1,148.44	83.3382	1,148.44	80.5786	1,148.44	81.8518	1,148.44	79.9271	1,148.44	80.8824	1,148.44	79.7612	1,148.44	80.6058	1,148.44	79.5665	1,148.44	80.6116	1,148.44	78.8961	1,148.44	80.3553	1,148.44	77.3503	1,148.44	79.4319	1,148.44	74.2557	1,148.44	77.4434	1,148.44	67.7673	1,148.44	73.7026	1,148.44	66.1094	1,148.44	68.0877	1,148.44	73.9298	1,148.44	71.5644	1,148.44	77.7145	1,148.44	76.4684	1,148.44	79.5109	1,148.44	79.0008	1,148.44	79.9183
1,189.45	90.1604	1,189.45	89.9294	1,189.45	90.1074	1,189.45	89.3797	1,189.45	89.7652	1,189.45	88.4479	1,189.45	89.0838	1,189.45	87.0538	1,189.45	87.9797	1,189.45	85.1315	1,189.45	86.3654	1,189.45	82.7625	1,189.45	84.2215	1,189.45	80.6304	1,189.45	81.8455	1,189.45	80.1207	1,189.45	80.3706	1,189.45	81.0356	1,189.45	80.814	1,189.45	81.8809	1,189.45	82.0517	1,189.45	81.8882	1,189.45	82.7946	1,189.45	80.6512	1,189.45	82.4525	1,189.45	77.4643	1,189.45	80.4699	1,189.45	69.9562	1,189.45	75.393	1,189.45	69.71	1,189.45	59.9752	1,189.45	77.2551	1,189.45	75.0053	1,189.45	80.271	1,189.45	79.6237	1,189.45	80.9858
1,231.2	89.9555	1,231.2	89.7783	1,231.2	89.8649	1,231.2	89.3129	1,231.2	89.5102	1,231.2	88.5261	1,231.2	88.8747	1,231.2	87.3742	1,231.2	87.921	1,231.2	85.8106	1,231.2	86.6016	1,231.2	83.8155	1,231.2	84.8874	1,231.2	81.5398	1,231.2	82.8564	1,231.2	79.7401	1,231.2	80.9465	1,231.2	79.5702	1,231.2	80.1074	1,231.2	80.4819	1,231.2	80.5789	1,231.2	81.0697	1,231.2	81.272	1,231.2	80.6014	1,231.2	81.2534	1,231.2	78.4802	1,231.2	79.9585	1,231.2	73.0733	1,231.2	76.54	1,231.2	52.1835	1,231.2	67.7695	1,231.2	73.5012	1,231.2	68.8196	1,231.2	77.6967	1,231.2	76.1421	1,231.2	78.3495
1,274.41	89.6838	1,274.41	89.5197	1,274.41	89.5459	1,274.41	89.0341	1,274.41	89.1229	1,274.41	88.2081	1,274.41	88.4229	1,274.41	87.0257	1,274.41	87.4356	1,274.41	85.4753	1,274.41	86.1286	1,274.41	83.5571	1,274.41	84.4592	1,274.41	81.3551	1,274.41	82.4377	1,274.41	79.3372	1,274.41	80.3487	1,274.41	78.5637	1,274.41	79.0753	1,274.41	79.1593	1,274.41	79.2368	1,274.41	79.8213	1,274.41	79.879	1,274.41	79.5803	1,274.41	79.8464	1,274.41	77.7518	1,274.41	78.4117	1,274.41	72.819	1,274.41	74.5475	1,274.41	54.4765	1,274.41	64.1946	1,274.41	72.4543	1,274.41	69.8485	1,274.41	76.9543	1,274.41	75.9344	1,274.41	77.8049
1,319.82	88.7828	1,319.82	88.6388	1,319.82	88.6481	1,319.82	88.1905	1,319.82	88.2507	1,319.82	87.4135	1,319.82	87.5923	1,319.82	86.3009	1,319.82	86.6575	1,319.82	84.8744	1,319.82	85.4082	1,319.82	83.1815	1,319.82	83.7815	1,319.82	81.2999	1,319.82	81.7266	1,319.82	79.4396	1,319.82	79.372	1,319.82	78.1401	1,319.82	77.4449	1,319.82	77.8817	1,319.82	77.0765	1,319.82	78.135	1,319.82	77.8072	1,319.82	77.8762	1,319.82	78.2146	1,319.82	76.1938	1,319.82	77.4109	1,319.82	71.463	1,319.82	74.4649	1,319.82	52.2764	1,319.82	65.8453	1,319.82	71.2625	1,319.82	65.3926	1,319.82	75.8193	1,319.82	74.1015	1,319.82	76.5244
1,365.97	87.7488	1,365.97	87.5889	1,365.97	87.6257	1,365.97	87.1281	1,365.97	87.2443	1,365.97	86.3593	1,365.97	86.6169	1,365.97	85.2814	1,365.97	85.7202	1,365.97	83.8974	1,365.97	84.4971	1,365.97	82.21	1,365.97	82.8888	1,365.97	80.2394	1,365.97	80.8756	1,365.97	78.1614	1,365.97	78.5418	1,365.97	76.6288	1,365.97	76.3068	1,365.97	76.4221	1,365.97	75.3171	1,365.97	76.9801	1,365.97	76.1015	1,365.97	77.0701	1,365.97	77.1346	1,365.97	75.8249	1,365.97	76.9987	1,365.97	72.1101	1,365.97	74.6099	1,365.97	60.0562	1,365.97	66.8192	1,365.97	67.5896	1,365.97	64.6156	1,365.97	73.9579	1,365.97	73.4911	1,365.97	75.4682
1,414.31	87.2683	1,414.31	87.0091	1,414.31	87.1451	1,414.31	86.3783	1,414.31	86.6533	1,414.31	85.4147	1,414.31	85.8214	1,414.31	84.1712	1,414.31	84.6813	1,414.31	82.6932	1,414.31	83.2605	1,414.31	80.9974	1,414.31	81.5889	1,414.31	79.0807	1,414.31	79.7269	1,414.31	77.0612	1,414.31	77.8077	1,414.31	75.5421	1,414.31	76.1309	1,414.31	75.3295	1,414.31	75.2371	1,414.31	75.9035	1,414.31	75.324	1,414.31	76.0649	1,414.31	75.6365	1,414.31	75.0031	1,414.31	75.164	1,414.31	71.6335	1,414.31	72.8516	1,414.31	61.0627	1,414.31	66.1206	1,414.31	66.8419	1,414.31	63.746	1,414.31	73.2327	1,414.31	72.2147	1,414.31	74.5229
1,464.11	87.0723	1,464.11	86.7797	1,464.11	87.0414	1,464.11	86.207	1,464.11	86.6664	1,464.11	85.395	1,464.11	85.9446	1,464.11	84.3417	1,464.11	84.8756	1,464.11	82.9849	1,464.11	83.467	1,464.11	81.2371	1,464.11	81.7646	1,464.11	79.0835	1,464.11	79.8709	1,464.11	76.7785	1,464.11	77.9286	1,464.11	75.1516	1,464.11	76.1793	1,464.11	75.0496	1,464.11	75.1421	1,464.11	75.7093	1,464.11	75.1026	1,464.11	75.7659	1,464.11	75.268	1,464.11	74.2976	1,464.11	74.5557	1,464.11	69.9098	1,464.11	71.9449	1,464.11	52.3269	1,464.11	64.6679	1,464.11	68.0284	1,464.11	60.0072	1,464.11	72.8379	1,464.11	70.5109	1,464.11	73.382
1,515.38	87.198	1,515.38	86.9631	1,515.38	87.1192	1,515.38	86.4549	1,515.38	86.7281	1,515.38	85.7259	1,515.38	86.0535	1,515.38	84.7896	1,515.38	85.1213	1,515.38	83.5949	1,515.38	83.9474	1,515.38	82.0431	1,515.38	82.5374	1,515.38	80.0291	1,515.38	80.8631	1,515.38	77.5423	1,515.38	78.847	1,515.38	75.0925	1,515.38	76.5261	1,515.38	74.3014	1,515.38	74.7388	1,515.38	75.3606	1,515.38	74.8999	1,515.38	76.2075	1,515.38	75.989	1,515.38	75.6071	1,515.38	76.2077	1,515.38	72.5348	1,515.38	74.5177	1,515.38	62.7065	1,515.38	69.1084	1,515.38	64.7544	1,515.38	48.7697	1,515.38	71.9091	1,515.38	69.5968	1,515.38	72.9151
1,568.85	86.7217	1,568.85	86.4745	1,568.85	86.5963	1,568.85	85.9132	1,568.85	86.1152	1,568.85	85.1297	1,568.85	85.365	1,568.85	84.1985	1,568.85	84.4232	1,568.85	83.1239	1,568.85	83.2769	1,568.85	81.8046	1,568.85	81.8459	1,568.85	80.066	1,568.85	80.0866	1,568.85	77.7886	1,568.85	78.0436	1,568.85	75.1744	1,568.85	75.8684	1,568.85	73.4373	1,568.85	74.1806	1,568.85	74.021	1,568.85	74.2214	1,568.85	75.3376	1,568.85	75.4094	1,568.85	75.4704	1,568.85	75.7625	1,568.85	73.2424	1,568.85	73.9332	1,568.85	65.443	1,568.85	67.6009	1,568.85	63.0401	1,568.85	58.6297	1,568.85	71.9458	1,568.85	70.9188	1,568.85	73.511
1,624.51	86.7164	1,624.51	86.4615	1,624.51	86.4906	1,624.51	85.7902	1,624.51	85.8108	1,624.51	84.8348	1,624.51	84.8029	1,624.51	83.763	1,624.51	83.6309	1,624.51	82.668	1,624.51	82.3954	1,624.51	81.4421	1,624.51	81.1024	1,624.51	79.8545	1,624.51	79.7027	1,624.51	77.802	1,624.51	78.065	1,624.51	75.4951	1,624.51	75.9116	1,624.51	73.6383	1,624.51	73.1317	1,624.51	73.3266	1,624.51	71.5198	1,624.51	74.162	1,624.51	73.022	1,624.51	74.3271	1,624.51	74.2771	1,624.51	72.2623	1,624.51	73.3315	1,624.51	64.6109	1,624.51	69.0712	1,624.51	61.9204	1,624.51	62.4994	1,624.51	70.7906	1,624.51	69.1454	1,624.51	72.0724
1,681.64	86.7307	1,681.64	86.3898	1,681.64	86.5945	1,681.64	85.6068	1,681.64	85.9521	1,681.64	84.4332	1,681.64	84.8577	1,681.64	83.0117	1,681.64	83.4891	1,681.64	81.5534	1,681.64	82.0467	1,681.64	80.1588	1,681.64	80.6263	1,681.64	78.7364	1,681.64	79.2443	1,681.64	77.1948	1,681.64	77.8701	1,681.64	75.5523	1,681.64	76.3125	1,681.64	74.0127	1,681.64	74.2429	1,681.64	73.2487	1,681.64	72.029	1,681.64	73.585	1,681.64	72.2066	1,681.64	73.7897	1,681.64	74.0514	1,681.64	72.1599	1,681.64	74.3895	1,681.64	65.7792	1,681.64	71.7806	1,681.64	58.4807	1,681.64	62.6853	1,681.64	69.222	1,681.64	64.297	1,681.64	70.0898
1,740.97	86.5551	1,740.97	86.1725	1,740.97	86.4475	1,740.97	85.394	1,740.97	85.8002	1,740.97	84.2844	1,740.97	84.6944	1,740.97	82.8879	1,740.97	83.3302	1,740.97	81.285	1,740.97	81.8957	1,740.97	79.5969	1,740.97	80.4515	1,740.97	77.8782	1,740.97	78.9294	1,740.97	76.0521	1,740.97	77.2198	1,740.97	74.1139	1,740.97	75.3633	1,740.97	72.5412	1,740.97	73.6032	1,740.97	72.3009	1,740.97	72.1629	1,740.97	73.1984	1,740.97	71.9148	1,740.97	73.4828	1,740.97	73.165	1,740.97	71.5173	1,740.97	73.5854	1,740.97	64.3402	1,740.97	71.1068	1,740.97	59.1831	1,740.97	60.7996	1,740.97	69.039	1,740.97	64.2705	1,740.97	70.0119
1,802.49	87.0491	1,802.49	86.6679	1,802.49	86.8622	1,802.49	85.8176	1,802.49	86.0996	1,802.49	84.6515	1,802.49	84.8538	1,802.49	83.2752	1,802.49	83.3048	1,802.49	81.6987	1,802.49	81.6425	1,802.49	79.9607	1,802.49	80.0044	1,802.49	78.2173	1,802.49	78.4995	1,802.49	76.5356	1,802.49	77.0959	1,802.49	74.6587	1,802.49	75.4584	1,802.49	72.3768	1,802.49	73.2364	1,802.49	71.0277	1,802.49	70.8369	1,802.49	72.235	1,802.49	70.2892	1,802.49	73.2164	1,802.49	71.6723	1,802.49	71.695	1,802.49	72.1396	1,802.49	64.9865	1,802.49	69.6568	1,802.49	59.7513	1,802.49	58.4823	1,802.49	68.94	1,802.49	64.1064	1,802.49	69.7197
1,866.21	86.5415	1,866.21	86.2034	1,866.21	86.2741	1,866.21	85.3673	1,866.21	85.4243	1,866.21	84.2655	1,866.21	84.1105	1,866.21	83.0541	1,866.21	82.5357	1,866.21	81.6467	1,866.21	80.8975	1,866.21	79.9584	1,866.21	79.2381	1,866.21	78.1785	1,866.21	77.4357	1,866.21	76.5128	1,866.21	75.423	1,866.21	74.8056	1,866.21	73.4915	1,866.21	72.901	1,866.21	71.9938	1,866.21	71.6746	1,866.21	70.7885	1,866.21	72.3839	1,866.21	70.6012	1,866.21	73.3861	1,866.21	71.9685	1,866.21	72.5302	1,866.21	72.5152	1,866.21	67.9346	1,866.21	69.9883	1,866.21	57.9506	1,866.21	58.4924	1,866.21	67.3254	1,866.21	64.3833	1,866.21	69.1767
1,932.13	85.7613	1,932.13	85.26	1,932.13	85.4941	1,932.13	84.0413	1,932.13	84.499	1,932.13	82.3678	1,932.13	82.9263	1,932.13	80.6646	1,932.13	81.084	1,932.13	79.1068	1,932.13	79.3074	1,932.13	77.5758	1,932.13	77.7514	1,932.13	76.1769	1,932.13	76.3227	1,932.13	75.0735	1,932.13	74.8085	1,932.13	73.7761	1,932.13	72.9982	1,932.13	71.5147	1,932.13	70.627	1,932.13	69.1978	1,932.13	67.7182	1,932.13	70.9115	1,932.13	67.3523	1,932.13	73.4156	1,932.13	70.7168	1,932.13	73.2007	1,932.13	72.458	1,932.13	68.116	1,932.13	70.6479	1,932.13	57.4673	1,932.13	63.2319	1,932.13	69.7485	1,932.13	68.1115	1,932.13	71.5556
2,000.24	85.6637	2,000.24	85.5164	2,000.24	85.326	2,000.24	84.7815	2,000.24	84.5976	2,000.24	83.4849	2,000.24	83.5077	2,000.24	81.7543	2,000.24	82.1637	2,000.24	79.7287	2,000.24	80.7337	2,000.24	77.6108	2,000.24	79.1958	2,000.24	75.673	2,000.24	77.4331	2,000.24	74.0539	2,000.24	75.6021	2,000.24	72.611	2,000.24	74.115	2,000.24	70.6995	2,000.24	73.0289	2,000.24	67.716	2,000.24	71.5701	2,000.24	66.5553	2,000.24	68.8405	2,000.24	69.0974	2,000.24	67.131	2,000.24	69.4506	2,000.24	69.4211	2,000.24	65.335	2,000.24	69.8731	2,000.24	61.3905	2,000.24	66.1188	2,000.24	66.2916	2,000.24	61.3912	2,000.24	65.9399
2,070.56	86.397	2,070.56	86.0986	2,070.56	86.1295	2,070.56	85.2879	2,070.56	85.3403	2,070.56	84.0913	2,070.56	84.1007	2,070.56	82.6139	2,070.56	82.5459	2,070.56	80.9345	2,070.56	80.9262	2,070.56	79.0779	2,070.56	79.3964	2,070.56	76.9973	2,070.56	77.8393	2,070.56	74.8527	2,070.56	76.147	2,070.56	73.1701	2,070.56	74.5064	2,070.56	71.5794	2,070.56	73.1653	2,070.56	68.5518	2,070.56	71.8434	2,070.56	65.6275	2,070.56	70.3111	2,070.56	68.5765	2,070.56	70.0343	2,070.56	70.0495	2,070.56	71.1542	2,070.56	68.1039	2,070.56	70.5959	2,070.56	61.9075	2,070.56	65.9929	2,070.56	61.2466	2,070.56	51.6643	2,070.56	61.9747
2,143.8	85.9298	2,143.8	85.6396	2,143.8	85.6673	2,143.8	84.8475	2,143.8	84.8172	2,143.8	83.6068	2,143.8	83.4089	2,143.8	82.0417	2,143.8	81.6145	2,143.8	80.3663	2,143.8	79.7882	2,143.8	78.7319	2,143.8	78.2074	2,143.8	77.0154	2,143.8	76.6687	2,143.8	74.9353	2,143.8	74.7933	2,143.8	73.023	2,143.8	72.7788	2,143.8	71.9553	2,143.8	71.3372	2,143.8	70.3029	2,143.8	70.0972	2,143.8	67.3186	2,143.8	68.1558	2,143.8	68.4012	2,143.8	68.0173	2,143.8	70.5325	2,143.8	69.9918	2,143.8	69.1661	2,143.8	69.6685	2,143.8	62.558	2,143.8	64.4507	2,143.8	56.063	2,143.8	54.5663	2,143.8	61.2418
2,219.24	85.1	2,219.24	84.7139	2,219.24	84.868	2,219.24	83.6852	2,219.24	84.0719	2,219.24	82.0205	2,219.24	82.8124	2,219.24	79.9955	2,219.24	81.1252	2,219.24	78.2268	2,219.24	79.0333	2,219.24	76.9677	2,219.24	76.8829	2,219.24	75.5035	2,219.24	75.1549	2,219.24	73.1269	2,219.24	73.5341	2,219.24	70.7503	2,219.24	71.2425	2,219.24	70.2883	2,219.24	69.0066	2,219.24	69.7304	2,219.24	68.0853	2,219.24	67.203	2,219.24	66.0404	2,219.24	68.2248	2,219.24	63.7011	2,219.24	70.3664	2,219.24	68.1817	2,219.24	68.4231	2,219.24	69.9627	2,219.24	60.77	2,219.24	66.9614	2,219.24	48.5529	2,219.24	56.6047	2,219.24	53.3577
2,297.61	85.731	2,297.61	85.4404	2,297.61	85.6149	2,297.61	84.5429	2,297.61	85.1233	2,297.61	82.9917	2,297.61	84.0876	2,297.61	80.9723	2,297.61	82.411	2,297.61	78.5907	2,297.61	80.2366	2,297.61	76.0392	2,297.61	77.9712	2,297.61	73.8291	2,297.61	76.1603	2,297.61	71.7613	2,297.61	74.6793	2,297.61	69.0088	2,297.61	72.6038	2,297.61	67.2094	2,297.61	69.8859	2,297.61	67.1182	2,297.61	68.3822	2,297.61	64.5499	2,297.61	68.0867	2,297.61	63.412	2,297.61	66.1552	2,297.61	66.6349	2,297.61	66.438	2,297.61	65.0613	2,297.61	68.7028	2,297.61	54.5195	2,297.61	66.8189	2,297.61	54.7427	2,297.61	56.7936	2,297.61	54.0893
2,378.17	86.8719	2,378.17	86.5603	2,378.17	86.5431	2,378.17	85.5864	2,378.17	85.6359	2,378.17	83.9739	2,378.17	84.258	2,378.17	81.7709	2,378.17	82.5484	2,378.17	79.1564	2,378.17	80.6138	2,378.17	76.7394	2,378.17	78.5433	2,378.17	74.9776	2,378.17	76.4314	2,378.17	73.1733	2,378.17	74.2483	2,378.17	70.6065	2,378.17	72.2412	2,378.17	68.2204	2,378.17	70.8298	2,378.17	67.8604	2,378.17	69.9504	2,378.17	66.9172	2,378.17	68.6639	2,378.17	63.9255	2,378.17	66.2175	2,378.17	66.0646	2,378.17	66.9582	2,378.17	66.417	2,378.17	68.5264	2,378.17	60.2542	2,378.17	66.1099	2,378.17	46.7435	2,378.17	57.8597	2,378.17	54.6505
2,462.4	86.6699	2,462.4	86.3503	2,462.4	86.3073	2,462.4	85.3411	2,462.4	85.3216	2,462.4	83.7061	2,462.4	83.7821	2,462.4	81.5574	2,462.4	81.792	2,462.4	79.1614	2,462.4	79.4836	2,462.4	76.9637	2,462.4	77.0578	2,462.4	75.0927	2,462.4	74.8074	2,462.4	73.0628	2,462.4	72.8486	2,462.4	70.7294	2,462.4	70.9371	2,462.4	69.1887	2,462.4	68.9946	2,462.4	69.0391	2,462.4	68.0215	2,462.4	67.7069	2,462.4	67.3895	2,462.4	65.0363	2,462.4	65.3275	2,462.4	66.2807	2,462.4	65.6689	2,462.4	66.1763	2,462.4	67.8214	2,462.4	59.4673	2,462.4	65.7162	2,462.4	54.2951	2,462.4	55.0003	2,462.4	57.5226
2,548.83	86.9011	2,548.83	86.3333	2,548.83	86.7188	2,548.83	85.096	2,548.83	85.7845	2,548.83	83.1849	2,548.83	84.257	2,548.83	80.5644	2,548.83	82.2619	2,548.83	77.4843	2,548.83	79.6968	2,548.83	74.7136	2,548.83	76.6282	2,548.83	72.7612	2,548.83	73.9914	2,548.83	70.845	2,548.83	72.5902	2,548.83	68.2985	2,548.83	71.4224	2,548.83	65.9967	2,548.83	69.142	2,548.83	67.1595	2,548.83	67.2949	2,548.83	67.3982	2,548.83	67.3477	2,548.83	64.4174	2,548.83	65.4349	2,548.83	65.8233	2,548.83	63.4654	2,548.83	67.5571	2,548.83	66.7411	2,548.83	61.9817	2,548.83	65.9969	2,548.83	53.4072	2,548.83	57.6476	2,548.83	58.5648
2,638.92	87.6232	2,638.92	87.2039	2,638.92	87.4143	2,638.92	86.1109	2,638.92	86.5891	2,638.92	84.2744	2,638.92	85.1229	2,638.92	81.5718	2,638.92	83.0146	2,638.92	77.9564	2,638.92	80.169	2,638.92	74.0367	2,638.92	76.5963	2,638.92	71.5112	2,638.92	73.5639	2,638.92	70.3912	2,638.92	72.3122	2,638.92	68.7453	2,638.92	70.8613	2,638.92	65.0696	2,638.92	67.7464	2,638.92	65.2636	2,638.92	66.0219	2,638.92	66.7537	2,638.92	67.3074	2,638.92	63.4601	2,638.92	65.7764	2,638.92	62.6309	2,638.92	63.0864	2,638.92	64.9839	2,638.92	66.0152	2,638.92	60.8643	2,638.92	64.1855	2,638.92	52.5376	2,638.92	51.1805	2,638.92	57.8596
2,731.93	88.1467	2,731.93	87.6073	2,731.93	87.8602	2,731.93	86.2578	2,731.93	86.7517	2,731.93	84.2016	2,731.93	84.9163	2,731.93	81.4392	2,731.93	82.5001	2,731.93	77.4534	2,731.93	79.266	2,731.93	71.8319	2,731.93	74.7551	2,731.93	67.497	2,731.93	70.1448	2,731.93	67.877	2,731.93	68.7086	2,731.93	68.6651	2,731.93	69.0388	2,731.93	67.1939	2,731.93	68.3003	2,731.93	62.6008	2,731.93	64.9501	2,731.93	66.6647	2,731.93	66.287	2,731.93	67.3781	2,731.93	67.8204	2,731.93	64.4185	2,731.93	64.9229	2,731.93	65.4896	2,731.93	65.1283	2,731.93	60.3141	2,731.93	64.4629	2,731.93	56.5444	2,731.93	54.7839	2,731.93	56.8179
2,828.61	88.944	2,828.61	88.3426	2,828.61	88.6297	2,828.61	86.6947	2,828.61	87.3305	2,828.61	83.9546	2,828.61	84.9832	2,828.61	80.4531	2,828.61	81.7234	2,828.61	76.1321	2,828.61	77.5867	2,828.61	70.2195	2,828.61	72.2922	2,828.61	64.4521	2,828.61	67.0746	2,828.61	61.3282	2,828.61	63.43	2,828.61	66.7157	2,828.61	65.059	2,828.61	69.7414	2,828.61	69.6905	2,828.61	66.2689	2,828.61	69.4114	2,828.61	64.8499	2,828.61	65.1081	2,828.61	69.9449	2,828.61	69.2266	2,828.61	69.093	2,828.61	69.3756	2,828.61	67.1711	2,828.61	66.7118	2,828.61	65.8052	2,828.61	65.3925	2,828.61	57.0385	2,828.61	54.8016	2,828.61	49.1746
2,928.22	88.7006	2,928.22	88.1035	2,928.22	88.3091	2,928.22	86.4682	2,928.22	86.8314	2,928.22	83.6746	2,928.22	84.1981	2,928.22	79.2804	2,928.22	80.2524	2,928.22	71.7599	2,928.22	73.8216	2,928.22	60.0453	2,928.22	62.7843	2,928.22	64.1821	2,928.22	62.0397	2,928.22	67.4606	2,928.22	65.3741	2,928.22	69.9282	2,928.22	68.9803	2,928.22	70.6152	2,928.22	70.3611	2,928.22	69.0851	2,928.22	70.0397	2,928.22	66.3599	2,928.22	67.908	2,928.22	68.1371	2,928.22	67.3338	2,928.22	70.6889	2,928.22	70.8092	2,928.22	70.2424	2,928.22	71.7399	2,928.22	63.9426	2,928.22	68.8903	2,928.22	55.6856	2,928.22	55.9179	2,928.22	60.1195
3,031.49	87.7235	3,031.49	86.554	3,031.49	87.1077	3,031.49	83.6558	3,031.49	84.5568	3,031.49	78.9767	3,031.49	80.1053	3,031.49	71.8591	3,031.49	73.8575	3,031.49	59.3241	3,031.49	63.0516	3,031.49	70.0045	3,031.49	69.1539	3,031.49	72.7386	3,031.49	73.0115	3,031.49	72.7381	3,031.49	73.4068	3,031.49	73.5975	3,031.49	73.0356	3,031.49	74.3418	3,031.49	73.4331	3,031.49	73.229	3,031.49	73.7427	3,031.49	70.9213	3,031.49	72.5831	3,031.49	67.6297	3,031.49	69.4022	3,031.49	68.8054	3,031.49	67.3158	3,031.49	70.7117	3,031.49	70.6914	3,031.49	66.202	3,031.49	70.6523	3,031.49	56.4213	3,031.49	61.5807	3,031.49	59.2816
3,138.43	86.1842	3,138.43	85.1676	3,138.43	85.351	3,138.43	82.1076	3,138.43	82.5864	3,138.43	76.8049	3,138.43	77.5448	3,138.43	69.3709	3,138.43	70.3433	3,138.43	68.1815	3,138.43	69.8981	3,138.43	72.7641	3,138.43	73.4832	3,138.43	74.0087	3,138.43	75.0014	3,138.43	73.532	3,138.43	74.1078	3,138.43	73.6561	3,138.43	72.8614	3,138.43	74.2534	3,138.43	73.3859	3,138.43	73.7686	3,138.43	74.0086	3,138.43	72.654	3,138.43	74.3306	3,138.43	71.1728	3,138.43	72.8583	3,138.43	69.7944	3,138.43	69.7814	3,138.43	70.6418	3,138.43	71.2818	3,138.43	66.5089	3,138.43	70.104	3,138.43	48.603	3,138.43	62.7597	3,138.43	58.8712
3,249.02	86.1669	3,249.02	85.094	3,249.02	85.56	3,249.02	82.0722	3,249.02	83.0784	3,249.02	76.6708	3,249.02	78.4648	3,249.02	70.2734	3,249.02	73.6113	3,249.02	71.5661	3,249.02	73.4218	3,249.02	75.2773	3,249.02	75.9182	3,249.02	75.9245	3,249.02	77.1718	3,249.02	74.0886	3,249.02	76.4527	3,249.02	73.5234	3,249.02	75.4541	3,249.02	74.1738	3,249.02	75.8198	3,249.02	73.0324	3,249.02	75.1823	3,249.02	72.7174	3,249.02	73.3716	3,249.02	72.909	3,249.02	74.0837	3,249.02	72.8555	3,249.02	72.467	3,249.02	73.9172	3,249.02	72.7591	3,249.02	69.8079	3,249.02	72.2854	3,249.02	62.3103	3,249.02	49.7951	3,249.02	69.5028
3,363.28	87.4883	3,363.28	86.4004	3,363.28	86.8218	3,363.28	83.4027	3,363.28	84.3679	3,363.28	78.2064	3,363.28	80.1189	3,363.28	71.4712	3,363.28	75.9084	3,363.28	74.4471	3,363.28	76.8098	3,363.28	77.5494	3,363.28	77.8759	3,363.28	77.7083	3,363.28	77.8246	3,363.28	76.3787	3,363.28	77.8373	3,363.28	75.1151	3,363.28	76.449	3,363.28	75.2659	3,363.28	75.3224	3,363.28	74.7991	3,363.28	76.1431	3,363.28	73.7218	3,363.28	75.2242	3,363.28	72.5568	3,363.28	74.6613	3,363.28	72.1089	3,363.28	72.5487	3,363.28	74.0576	3,363.28	71.6573	3,363.28	70.6215	3,363.28	72.6344	3,363.28	59.8844	3,363.28	54.8076	3,363.28	69.3324
3,481.93	89.0048	3,481.93	87.7472	3,481.93	88.2736	3,481.93	84.3966	3,481.93	85.5644	3,481.93	78.8316	3,481.93	81.5825	3,481.93	75.0746	3,481.93	78.9048	3,481.93	77.6909	3,481.93	79.8009	3,481.93	78.5977	3,481.93	80.5745	3,481.93	78.45	3,481.93	80.0771	3,481.93	78.0872	3,481.93	79.6271	3,481.93	76.6983	3,481.93	78.5009	3,481.93	75.6219	3,481.93	76.7518	3,481.93	74.8079	3,481.93	76.915	3,481.93	74.2836	3,481.93	76.5847	3,481.93	74.2891	3,481.93	76.0025	3,481.93	72.2255	3,481.93	75.3336	3,481.93	72.992	3,481.93	73.3006	3,481.93	68.227	3,481.93	73.4992	3,481.93	63.0904	3,481.93	64.3847	3,481.93	66.8996
3,604.98	90.9373	3,604.98	89.8599	3,604.98	90.2464	3,604.98	87.0018	3,604.98	87.9227	3,604.98	81.9068	3,604.98	84.1793	3,604.98	75.8894	3,604.98	80.0817	3,604.98	76.7311	3,604.98	79.9556	3,604.98	78.1012	3,604.98	80.6653	3,604.98	78.5837	3,604.98	80.8411	3,604.98	78.6183	3,604.98	80.5553	3,604.98	77.9883	3,604.98	79.5034	3,604.98	76.812	3,604.98	77.859	3,604.98	75.5054	3,604.98	77.0804	3,604.98	74.7513	3,604.98	76.1692	3,604.98	74.2224	3,604.98	75.661	3,604.98	72.8809	3,604.98	74.9825	3,604.98	74.4069	3,604.98	73.851	3,604.98	70.5936	3,604.98	74.3978	3,604.98	61.8828	3,604.98	64.5705	3,604.98	67.2113
3,732.42	92.4737	3,732.42	91.227	3,732.42	91.8669	3,732.42	88.1069	3,732.42	89.5393	3,732.42	82.498	3,732.42	85.3329	3,732.42	71.0696	3,732.42	78.6065	3,732.42	71.0555	3,732.42	75.529	3,732.42	76.4046	3,732.42	78.5921	3,732.42	77.8436	3,732.42	79.6253	3,732.42	77.7501	3,732.42	79.8048	3,732.42	76.8899	3,732.42	78.9501	3,732.42	76.8541	3,732.42	77.4054	3,732.42	76.3798	3,732.42	77.5641	3,732.42	75.4884	3,732.42	76.3378	3,732.42	74.3137	3,732.42	75.9821	3,732.42	71.6186	3,732.42	75.5072	3,732.42	74.0765	3,732.42	71.391	3,732.42	70.9909	3,732.42	74.0699	3,732.42	62.6036	3,732.42	59.9499	3,732.42	70.7161
3,863.53	91.9423	3,863.53	90.7847	3,863.53	91.2831	3,863.53	87.7943	3,863.53	88.8731	3,863.53	82.4967	3,863.53	84.3272	3,863.53	75.3098	3,863.53	76.3689	3,863.53	74.8876	3,863.53	67.3468	3,863.53	75.4057	3,863.53	75.0938	3,863.53	76.3827	3,863.53	77.1367	3,863.53	76.5771	3,863.53	78.0012	3,863.53	74.5656	3,863.53	77.3473	3,863.53	73.1419	3,863.53	74.2432	3,863.53	72.9914	3,863.53	73.6897	3,863.53	73.6093	3,863.53	74.1203	3,863.53	75.1899	3,863.53	73.8668	3,863.53	72.8807	3,863.53	74.6635	3,863.53	71.3658	3,863.53	69.2694	3,863.53	69.2866	3,863.53	70.0499	3,863.53	64.8462	3,863.53	67.4072	3,863.53	68.365
3,999.76	88.8725	3,999.76	87.7612	3,999.76	88.219	3,999.76	85.6589	3,999.76	85.7362	3,999.76	82.813	3,999.76	82.413	3,999.76	80.0985	3,999.76	80.8761	3,999.76	79.3703	3,999.76	79.9995	3,999.76	78.7163	3,999.76	79.2298	3,999.76	77.6684	3,999.76	78.84	3,999.76	76.3447	3,999.76	77.189	3,999.76	74.1511	3,999.76	75.5731	3,999.76	72.5674	3,999.76	73.6143	3,999.76	71.8674	3,999.76	72.1785	3,999.76	68.3516	3,999.76	73.6542	3,999.76	70.6757	3,999.76	71.8832	3,999.76	70.4999	3,999.76	74.4074	3,999.76	70.6649	3,999.76	73.1352	3,999.76	70.2243	3,999.76	69.8295	3,999.76	65.6436	3,999.76	68.2059	3,999.76	62.4466
4,141.11	83.4544	4,141.11	81.8861	4,141.11	82.0278	4,141.11	80.9935	4,141.11	78.8626	4,141.11	82.162	4,141.11	79.0538	4,141.11	82.5177	4,141.11	82.0425	4,141.11	82.8117	4,141.11	83.2705	4,141.11	82.7969	4,141.11	82.8664	4,141.11	81.5348	4,141.11	81.7458	4,141.11	79.7079	4,141.11	80.511	4,141.11	78.1626	4,141.11	78.6237	4,141.11	76.4096	4,141.11	77.1518	4,141.11	75.0855	4,141.11	74.8992	4,141.11	73.8712	4,141.11	74.0478	4,141.11	74.3546	4,141.11	73.5204	4,141.11	72.8818	4,141.11	74.567	4,141.11	70.8253	4,141.11	75.7805	4,141.11	73.3044	4,141.11	74.5371	4,141.11	63.8151	4,141.11	69.6498	4,141.11	48.274
4,286.87	86.6483	4,286.87	84.3813	4,286.87	85.5325	4,286.87	78.9745	4,286.87	81.2343	4,286.87	76.2852	4,286.87	75.4046	4,286.87	78.7671	4,286.87	77.2523	4,286.87	80.196	4,286.87	80.8482	4,286.87	80.0088	4,286.87	81.449	4,286.87	79.2362	4,286.87	81.0611	4,286.87	77.6832	4,286.87	80.0034	4,286.87	75.8719	4,286.87	78.5513	4,286.87	75.0998	4,286.87	76.7731	4,286.87	75.0526	4,286.87	75.0053	4,286.87	72.7987	4,286.87	74.7646	4,286.87	74.9388	4,286.87	74.7029	4,286.87	75.1544	4,286.87	74.8644	4,286.87	69.5168	4,286.87	74.5302	4,286.87	71.5841	4,286.87	73.5525	4,286.87	57.2854	4,286.87	67.9506	4,286.87	63.3146
4,438.48	85.5956	4,438.48	83.7455	4,438.48	84.74	4,438.48	81.481	4,438.48	81.7594	4,438.48	81.2744	4,438.48	80.4021	4,438.48	81.9871	4,438.48	81.2753	4,438.48	82.3282	4,438.48	81.7148	4,438.48	81.9903	4,438.48	81.7313	4,438.48	80.7035	4,438.48	81.0842	4,438.48	78.9246	4,438.48	79.5804	4,438.48	77.5037	4,438.48	77.1305	4,438.48	74.7059	4,438.48	75.4077	4,438.48	72.426	4,438.48	73.8816	4,438.48	71.9857	4,438.48	71.9046	4,438.48	70.6525	4,438.48	72.2387	4,438.48	75.0022	4,438.48	73.7133	4,438.48	72.7899	4,438.48	73.023	4,438.48	73.0438	4,438.48	73.5863	4,438.48	66.3768	4,438.48	70.6151	4,438.48	54.2059
4,594.48	83.998	4,594.48	82.1195	4,594.48	83.0336	4,594.48	79.7837	4,594.48	80.4365	4,594.48	80.9823	4,594.48	80.3915	4,594.48	82.5902	4,594.48	82.4777	4,594.48	82.9186	4,594.48	83.4302	4,594.48	82.2278	4,594.48	82.9675	4,594.48	81.0356	4,594.48	81.9952	4,594.48	78.5122	4,594.48	80.6382	4,594.48	75.5971	4,594.48	78.9491	4,594.48	74.7256	4,594.48	76.6875	4,594.48	73.3835	4,594.48	74.7855	4,594.48	72.9297	4,594.48	73.1609	4,594.48	71.188	4,594.48	72.5293	4,594.48	72.4497	4,594.48	72.5949	4,594.48	71.6745	4,594.48	72.8301	4,594.48	70.7811	4,594.48	74.2855	4,594.48	55.4198	4,594.48	71.0107	4,594.48	57.9143
4,757.08	83.5596	4,757.08	81.9431	4,757.08	83.1166	4,757.08	79.9371	4,757.08	80.8911	4,757.08	80.8548	4,757.08	80.2961	4,757.08	82.7424	4,757.08	82.6574	4,757.08	83.5116	4,757.08	84.0553	4,757.08	82.8476	4,757.08	84.1084	4,757.08	80.7998	4,757.08	82.7517	4,757.08	78.7257	4,757.08	80.7932	4,757.08	77.1043	4,757.08	77.8456	4,757.08	74.6038	4,757.08	75.4069	4,757.08	72.5531	4,757.08	74.7589	4,757.08	72.6287	4,757.08	72.4579	4,757.08	71.8362	4,757.08	72.5323	4,757.08	72.7363	4,757.08	75.319	4,757.08	71.3701	4,757.08	72.6717	4,757.08	70.9834	4,757.08	71.783	4,757.08	57.9156	4,757.08	68.2296	4,757.08	61.2569
4,924.8	83.0841	4,924.8	81.5683	4,924.8	81.9405	4,924.8	79.8874	4,924.8	79.6958	4,924.8	81.4664	4,924.8	79.8294	4,924.8	83.3998	4,924.8	82.501	4,924.8	84.0545	4,924.8	84.2571	4,924.8	83.1874	4,924.8	83.7994	4,924.8	81.6713	4,924.8	82.0938	4,924.8	79.1142	4,924.8	80.1847	4,924.8	76.0784	4,924.8	78.4148	4,924.8	74.8408	4,924.8	76.0306	4,924.8	71.9412	4,924.8	73.7209	4,924.8	71.0299	4,924.8	72.5328	4,924.8	70.8033	4,924.8	68.7012	4,924.8	72.4533	4,924.8	72.9138	4,924.8	71.5218	4,924.8	73.2078	4,924.8	69.4126	4,924.8	70.6548	4,924.8	50.2465	4,924.8	67.5668	4,924.8	61.5009
5,098.39	82.3395	5,098.39	80.8171	5,098.39	81.7571	5,098.39	79.3493	5,098.39	79.7843	5,098.39	80.3212	5,098.39	79.8773	5,098.39	82.2623	5,098.39	82.4785	5,098.39	83.0067	5,098.39	83.742	5,098.39	81.8148	5,098.39	83.6068	5,098.39	79.5576	5,098.39	82.2841	5,098.39	77.2234	5,098.39	79.8424	5,098.39	75.3338	5,098.39	77.0418	5,098.39	73.2577	5,098.39	75.5241	5,098.39	71.684	5,098.39	73.6972	5,098.39	70.547	5,098.39	72.2214	5,098.39	70.9519	5,098.39	71.0066	5,098.39	70.9638	5,098.39	71.1306	5,098.39	70.7102	5,098.39	72.6876	5,098.39	69.1894	5,098.39	69.6692	5,098.39	44.2486	5,098.39	63.9782	5,098.39	64.105
5,277.83	79.929	5,277.83	77.881	5,277.83	78.799	5,277.83	77.0331	5,277.83	76.3273	5,277.83	78.9244	5,277.83	76.7385	5,277.83	80.2421	5,277.83	79.6223	5,277.83	81.204	5,277.83	81.4041	5,277.83	80.9231	5,277.83	80.9818	5,277.83	78.7616	5,277.83	79.2308	5,277.83	76.1987	5,277.83	77.2229	5,277.83	73.7797	5,277.83	74.7086	5,277.83	71.9637	5,277.83	71.2965	5,277.83	69.8924	5,277.83	70.6424	5,277.83	67.1374	5,277.83	70.5344	5,277.83	67.6381	5,277.83	68.8627	5,277.83	68.1592	5,277.83	69.6105	5,277.83	67.3489	5,277.83	69.8153	5,277.83	66.2793	5,277.83	67.2628	5,277.83	58.6824	5,277.83	61.6478	5,277.83	57.1599
5,463.87	82.3158	5,463.87	81.9311	5,463.87	81.7626	5,463.87	81.0093	5,463.87	80.6751	5,463.87	81.3627	5,463.87	80.68	5,463.87	82.4113	5,463.87	82.1631	5,463.87	82.0882	5,463.87	82.1956	5,463.87	79.9662	5,463.87	81.1718	5,463.87	77.5245	5,463.87	79.7178	5,463.87	74.6938	5,463.87	77.1304	5,463.87	72.955	5,463.87	73.7761	5,463.87	70.1655	5,463.87	73.0676	5,463.87	69.3615	5,463.87	70.0034	5,463.87	70.1695	5,463.87	68.5982	5,463.87	68.6777	5,463.87	68.7339	5,463.87	70.5005	5,463.87	68.3099	5,463.87	69.2103	5,463.87	70.2752	5,463.87	68.2362	5,463.87	65.8021	5,463.87	56.6604	5,463.87	63.338	5,463.87	53.2902
5,656.49	83.8432	5,656.49	83.5198	5,656.49	83.6709	5,656.49	83.238	5,656.49	82.7367	5,656.49	83.4897	5,656.49	82.752	5,656.49	84.1581	5,656.49	84.4375	5,656.49	83.77	5,656.49	84.6635	5,656.49	82.5691	5,656.49	83.2509	5,656.49	80.5333	5,656.49	81.3172	5,656.49	78.1273	5,656.49	79.1754	5,656.49	75.7674	5,656.49	76.8598	5,656.49	73.9846	5,656.49	74.3737	5,656.49	70.3543	5,656.49	72.431	5,656.49	69.1728	5,656.49	70.3542	5,656.49	71.0914	5,656.49	71.916	5,656.49	72.9858	5,656.49	71.2587	5,656.49	71.543	5,656.49	72.5628	5,656.49	69.3363	5,656.49	70.3832	5,656.49	61.2951	5,656.49	69.2354	5,656.49	57.0343
5,856.45	82.6693	5,856.45	82.9247	5,856.45	82.7394	5,856.45	82.8825	5,856.45	82.8858	5,856.45	83.2864	5,856.45	83.0906	5,856.45	83.7554	5,856.45	83.8038	5,856.45	83.3561	5,856.45	83.485	5,856.45	81.9312	5,856.45	82.5834	5,856.45	80.1819	5,856.45	81.2462	5,856.45	78.081	5,856.45	79.2106	5,856.45	75.6132	5,856.45	76.5709	5,856.45	73.1978	5,856.45	74.6981	5,856.45	71.5044	5,856.45	72.3786	5,856.45	70.5698	5,856.45	69.6002	5,856.45	70.7886	5,856.45	70.755	5,856.45	72.2915	5,856.45	70.476	5,856.45	71.6162	5,856.45	72.5054	5,856.45	68.9085	5,856.45	68.4019	5,856.45	32.45	5,856.45	65.8566	5,856.45	63.5662
6,062.99	80.8499	6,062.99	81.9718	6,062.99	80.5007	6,062.99	82.4206	6,062.99	81.2431	6,062.99	82.2466	6,062.99	81.4188	6,062.99	82.0138	6,062.99	81.4706	6,062.99	81.8952	6,062.99	81.432	6,062.99	81.177	6,062.99	80.8305	6,062.99	79.4445	6,062.99	79.194	6,062.99	77.3516	6,062.99	77.2779	6,062.99	74.8192	6,062.99	74.9139	6,062.99	71.7601	6,062.99	72.1578	6,062.99	68.0857	6,062.99	70.8528	6,062.99	66.6646	6,062.99	67.3815	6,062.99	68.6893	6,062.99	67.0535	6,062.99	70.9845	6,062.99	68.1471	6,062.99	69.8317	6,062.99	69.5977	6,062.99	67.8958	6,062.99	66.3698	6,062.99	52.6113	6,062.99	64.8436	6,062.99	59.2839
6,276.86	80.6595	6,276.86	80.9335	6,276.86	80.4728	6,276.86	80.3503	6,276.86	80.0577	6,276.86	79.7594	6,276.86	79.3637	6,276.86	79.9751	6,276.86	79.3459	6,276.86	80.0688	6,276.86	79.3542	6,276.86	79.2202	6,276.86	79.2685	6,276.86	77.5189	6,276.86	77.9974	6,276.86	74.5847	6,276.86	75.5963	6,276.86	71.8644	6,276.86	73.2633	6,276.86	70.6403	6,276.86	70.1601	6,276.86	70.2457	6,276.86	67.9646	6,276.86	67.2337	6,276.86	64.9011	6,276.86	64.7342	6,276.86	62.8137	6,276.86	67.107	6,276.86	64.9666	6,276.86	67.7292	6,276.86	65.957	6,276.86	63.3514	6,276.86	62.8461	6,276.86	57.0247	6,276.86	63.0175	6,276.86	50.2949
6,498.05	79.7985	6,498.05	79.5368	6,498.05	80.006	6,498.05	78.7753	6,498.05	79.5178	6,498.05	78.5622	6,498.05	78.181	6,498.05	78.5572	6,498.05	78.4221	6,498.05	78.1757	6,498.05	79.5177	6,498.05	77.17	6,498.05	79.2905	6,498.05	75.3992	6,498.05	77.6402	6,498.05	72.9385	6,498.05	75.4789	6,498.05	69.9908	6,498.05	71.3164	6,498.05	66.4117	6,498.05	68.6292	6,498.05	63.3849	6,498.05	67.1145	6,498.05	60.5332	6,498.05	65.8253	6,498.05	60.2038	6,498.05	64.0714	6,498.05	63.0753	6,498.05	63.0031	6,498.05	63.2673	6,498.05	65.565	6,498.05	59.7709	6,498.05	57.1348	6,498.05	55.8158	6,498.05	58.8874	6,498.05	51.5017
6,727.29	81.9776	6,727.29	81.8487	6,727.29	82.1224	6,727.29	80.6133	6,727.29	81.6747	6,727.29	80.5102	6,727.29	80.2343	6,727.29	81.2655	6,727.29	80.896	6,727.29	81.3625	6,727.29	82.269	6,727.29	80.0937	6,727.29	81.9483	6,727.29	77.4358	6,727.29	80.0135	6,727.29	73.6039	6,727.29	77.0745	6,727.29	70.0051	6,727.29	73.9627	6,727.29	66.7381	6,727.29	71.2415	6,727.29	65.8249	6,727.29	68.6743	6,727.29	64.8173	6,727.29	66.2293	6,727.29	63.9247	6,727.29	64.7099	6,727.29	62.5507	6,727.29	66.2777	6,727.29	66.1511	6,727.29	69.0773	6,727.29	57.2881	6,727.29	63.8242	6,727.29	37.5504	6,727.29	52.9121	6,727.29	59.1002
6,964.6	83.3034	6,964.6	83.0091	6,964.6	83.2226	6,964.6	81.6764	6,964.6	82.5271	6,964.6	81.1624	6,964.6	80.787	6,964.6	82.0802	6,964.6	81.2469	6,964.6	82.492	6,964.6	82.7402	6,964.6	81.052	6,964.6	82.4246	6,964.6	78.2259	6,964.6	80.5067	6,964.6	74.4296	6,964.6	76.9726	6,964.6	72.1621	6,964.6	74.0576	6,964.6	68.5432	6,964.6	71.5684	6,964.6	65.2961	6,964.6	68.479	6,964.6	65.9409	6,964.6	67.004	6,964.6	66.9816	6,964.6	65.8862	6,964.6	67.1201	6,964.6	66.6157	6,964.6	68.466	6,964.6	68.3845	6,964.6	60.9993	6,964.6	64.7729	6,964.6	40.8352	6,964.6	55.5386	6,964.6	58.4862
7,209.96	82.433	7,209.96	82.8941	7,209.96	82.5498	7,209.96	81.9389	7,209.96	82.493	7,209.96	81.0248	7,209.96	80.7089	7,209.96	81.866	7,209.96	80.6699	7,209.96	82.4344	7,209.96	82.1484	7,209.96	81.5068	7,209.96	81.6824	7,209.96	78.8411	7,209.96	79.2933	7,209.96	75.3049	7,209.96	76.34	7,209.96	72.2219	7,209.96	73.1791	7,209.96	68.875	7,209.96	69.9011	7,209.96	65.6531	7,209.96	67.7814	7,209.96	65.0012	7,209.96	65.676	7,209.96	66.5903	7,209.96	65.0081	7,209.96	67.5092	7,209.96	65.0862	7,209.96	68.8697	7,209.96	68.4016	7,209.96	63.1281	7,209.96	63.3829	7,209.96	53.8788	7,209.96	56.419	7,209.96	59.8047
7,464.11	81.2258	7,464.11	82.1951	7,464.11	81.5984	7,464.11	81.4374	7,464.11	81.6195	7,464.11	80.3817	7,464.11	80.0896	7,464.11	81.1585	7,464.11	80.02	7,464.11	81.7349	7,464.11	80.8848	7,464.11	80.6338	7,464.11	80.1354	7,464.11	78.2136	7,464.11	77.7227	7,464.11	75.0716	7,464.11	74.7483	7,464.11	72.3919	7,464.11	71.9146	7,464.11	69.6108	7,464.11	68.6131	7,464.11	66.2203	7,464.11	65.6473	7,464.11	65.3699	7,464.11	63.5027	7,464.11	66.3474	7,464.11	62.5935	7,464.11	67.3147	7,464.11	65.073	7,464.11	67.5569	7,464.11	67.0164	7,464.11	62.2068	7,464.11	61.8188	7,464.11	52.739	7,464.11	51.8383	7,464.11	55.5961
7,727.78	80.8742	7,727.78	81.5185	7,727.78	80.9603	7,727.78	81.3022	7,727.78	80.8783	7,727.78	80.3049	7,727.78	79.822	7,727.78	80.6242	7,727.78	79.1641	7,727.78	81.3404	7,727.78	79.5052	7,727.78	80.4738	7,727.78	78.359	7,727.78	78.5736	7,727.78	76.373	7,727.78	75.7055	7,727.78	72.618	7,727.78	73.0719	7,727.78	70.4709	7,727.78	69.6648	7,727.78	67.9586	7,727.78	65.8862	7,727.78	63.7079	7,727.78	64.6985	7,727.78	62.3747	7,727.78	66.6701	7,727.78	61.1352	7,727.78	66.9219	7,727.78	63.4154	7,727.78	67.7924	7,727.78	65.5318	7,727.78	60.5353	7,727.78	60.7581	7,727.78	51.4652	7,727.78	48.5842	7,727.78	58.4568
8,000.24	81.6584	8,000.24	82.3098	8,000.24	81.5998	8,000.24	82.0497	8,000.24	81.5206	8,000.24	80.4901	8,000.24	80.3943	8,000.24	80.5413	8,000.24	79.1755	8,000.24	81.4644	8,000.24	79.275	8,000.24	80.637	8,000.24	78.5968	8,000.24	78.5513	8,000.24	77.3215	8,000.24	75.5451	8,000.24	73.793	8,000.24	72.6268	8,000.24	71.3097	8,000.24	68.955	8,000.24	69.453	8,000.24	65.9097	8,000.24	64.9244	8,000.24	64.6963	8,000.24	61.8339	8,000.24	66.2274	8,000.24	60.6842	8,000.24	67.9699	8,000.24	64.402	8,000.24	67.7892	8,000.24	65.8361	8,000.24	57.4148	8,000.24	61.2442	8,000.24	49.0889	8,000.24	44.9192	8,000.24	58.3106
8,282.23	85.1202	8,282.23	85.082	8,282.23	85.0757	8,282.23	84.9785	8,282.23	84.411	8,282.23	83.1096	8,282.23	83.5967	8,282.23	82.3404	8,282.23	81.7981	8,282.23	83.3566	8,282.23	81.4731	8,282.23	82.9527	8,282.23	81.6107	8,282.23	80.1966	8,282.23	80.2738	8,282.23	76.8747	8,282.23	77.0492	8,282.23	73.9617	8,282.23	74.0171	8,282.23	69.975	8,282.23	71.4672	8,282.23	67.2762	8,282.23	67.07	8,282.23	65.8315	8,282.23	63.8582	8,282.23	68.1927	8,282.23	64.2128	8,282.23	67.3743	8,282.23	65.8007	8,282.23	68.064	8,282.23	67.7534	8,282.23	58.6511	8,282.23	63.0933	8,282.23	49.7316	8,282.23	52.7189	8,282.23	57.7699
8,574.46	86.0008	8,574.46	86.0788	8,574.46	85.9254	8,574.46	86.2627	8,574.46	85.6722	8,574.46	84.5513	8,574.46	84.8734	8,574.46	83.1441	8,574.46	82.3083	8,574.46	84.1292	8,574.46	81.8924	8,574.46	84.1865	8,574.46	82.387	8,574.46	81.7834	8,574.46	81.105	8,574.46	78.2598	8,574.46	77.7345	8,574.46	74.5318	8,574.46	74.6424	8,574.46	70.9504	8,574.46	71.7808	8,574.46	68.0802	8,574.46	67.0667	8,574.46	66.6134	8,574.46	65.0177	8,574.46	68.0752	8,574.46	63.7421	8,574.46	67.2225	8,574.46	65.8064	8,574.46	68.8651	8,574.46	67.455	8,574.46	60.7391	8,574.46	64.2218	8,574.46	46.4498	8,574.46	54.9098	8,574.46	59.5894
8,876.22	85.5857	8,876.22	85.2791	8,876.22	85.2395	8,876.22	85.465	8,876.22	84.836	8,876.22	83.9713	8,876.22	83.8913	8,876.22	82.0335	8,876.22	80.821	8,876.22	82.983	8,876.22	80.9696	8,876.22	83.2522	8,876.22	81.3292	8,876.22	81.0898	8,876.22	80.1747	8,876.22	77.7564	8,876.22	76.6719	8,876.22	73.489	8,876.22	73.7356	8,876.22	70.4411	8,876.22	70.4836	8,876.22	67.4222	8,876.22	65.8619	8,876.22	64.0722	8,876.22	65.0339	8,876.22	67.0136	8,876.22	62.1451	8,876.22	66.8026	8,876.22	63.9851	8,876.22	67.9839	8,876.22	66.5803	8,876.22	59.1119	8,876.22	63.7668	8,876.22	50.0364	8,876.22	55.5697	8,876.22	58.5367
9,189.7	84.983	9,189.7	84.5428	9,189.7	84.484	9,189.7	84.7798	9,189.7	84.431	9,189.7	83.0842	9,189.7	83.3959	9,189.7	81.0686	9,189.7	80.691	9,189.7	81.8846	9,189.7	80.9648	9,189.7	81.6797	9,189.7	81.0264	9,189.7	79.0949	9,189.7	79.6855	9,189.7	75.8421	9,189.7	76.1338	9,189.7	72.2333	9,189.7	73.3848	9,189.7	68.6166	9,189.7	70.6478	9,189.7	66.2852	9,189.7	65.6296	9,189.7	64.1138	9,189.7	65.2549	9,189.7	65.8229	9,189.7	62.6883	9,189.7	64.4173	9,189.7	63.7774	9,189.7	66.602	9,189.7	66.2734	9,189.7	55.7077	9,189.7	62.9646	9,189.7	49.0818	9,189.7	57.11	9,189.7	57.5129
9,513.43	85.296	9,513.43	84.3457	9,513.43	84.916	9,513.43	84.3214	9,513.43	84.5121	9,513.43	82.2856	9,513.43	83.8347	9,513.43	80.8051	9,513.43	81.8254	9,513.43	80.7678	9,513.43	81.4176	9,513.43	79.7631	9,513.43	81.3494	9,513.43	76.5687	9,513.43	79.8214	9,513.43	73.9771	9,513.43	76.6152	9,513.43	69.5636	9,513.43	73.7889	9,513.43	66.7991	9,513.43	70.8513	9,513.43	63.7148	9,513.43	64.9022	9,513.43	62.1226	9,513.43	65.5613	9,513.43	62.9273	9,513.43	63.8576	9,513.43	61.2449	9,513.43	65.2606	9,513.43	64.8223	9,513.43	66.4836	9,513.43	49.2122	9,513.43	61.921	9,513.43	52.7195	9,513.43	52.1976	9,513.43	61.2142
9,848.88	86.2576	9,848.88	85.5763	9,848.88	85.781	9,848.88	84.9683	9,848.88	85.5381	9,848.88	83.1219	9,848.88	84.8474	9,848.88	81.6876	9,848.88	83.0967	9,848.88	80.5935	9,848.88	82.146	9,848.88	79.7488	9,848.88	81.6382	9,848.88	77.8153	9,848.88	80.3778	9,848.88	74.0034	9,848.88	77.7971	9,848.88	69.7512	9,848.88	73.8272	9,848.88	68.3634	9,848.88	70.6168	9,848.88	62.313	9,848.88	65.4812	9,848.88	62.7938	9,848.88	64.9817	9,848.88	61.7889	9,848.88	62.8337	9,848.88	59.417	9,848.88	66.2451	9,848.88	64.5069	9,848.88	65.4151	9,848.88	35.8783	9,848.88	63.408	9,848.88	53.9745	9,848.88	53.8208	9,848.88	62.3382
10,196.8	87.4649	10,196.8	86.3858	10,196.8	87.0733	10,196.8	85.7736	10,196.8	86.4542	10,196.8	84.2147	10,196.8	85.7483	10,196.8	82.4737	10,196.8	84.0842	10,196.8	80.7559	10,196.8	82.5472	10,196.8	80.2986	10,196.8	81.7003	10,196.8	78.5079	10,196.8	81.2169	10,196.8	74.515	10,196.8	78.4726	10,196.8	70.5953	10,196.8	73.7972	10,196.8	68.61	10,196.8	70.4355	10,196.8	62.8239	10,196.8	66.7032	10,196.8	63.2242	10,196.8	64.1214	10,196.8	59.631	10,196.8	59.9191	10,196.8	60.3879	10,196.8	65.509	10,196.8	64.6062	10,196.8	65.5409	10,196.8	53.2094	10,196.8	63.8184	10,196.8	51.2286	10,196.8	56.4127	10,196.8	61.5223
10,556.4	88.3101	10,556.4	87.5822	10,556.4	88.0514	10,556.4	87.0274	10,556.4	87.4003	10,556.4	85.7763	10,556.4	86.4656	10,556.4	83.9999	10,556.4	84.8441	10,556.4	82.2573	10,556.4	82.3553	10,556.4	82.2491	10,556.4	81.6897	10,556.4	80.2707	10,556.4	81.3169	10,556.4	76.6029	10,556.4	78.5355	10,556.4	70.986	10,556.4	74.1154	10,556.4	69.6254	10,556.4	69.9857	10,556.4	65.1296	10,556.4	67.0157	10,556.4	64.7644	10,556.4	63.3779	10,556.4	56.6558	10,556.4	60.1759	10,556.4	61.4989	10,556.4	64.248	10,556.4	63.8608	10,556.4	63.8179	10,556.4	53.3047	10,556.4	63.6408	10,556.4	54.8722	10,556.4	59.5985	10,556.4	61.9859
10,928.5	88.876	10,928.5	88.19	10,928.5	88.4609	10,928.5	87.6093	10,928.5	87.5987	10,928.5	86.3803	10,928.5	86.7455	10,928.5	84.2061	10,928.5	84.8047	10,928.5	83.163	10,928.5	82.6233	10,928.5	83.1643	10,928.5	82.1924	10,928.5	81.3228	10,928.5	81.2342	10,928.5	77.4185	10,928.5	78.5866	10,928.5	71.1521	10,928.5	73.9878	10,928.5	70.8201	10,928.5	68.3697	10,928.5	65.7826	10,928.5	67.4695	10,928.5	63.8317	10,928.5	62.6821	10,928.5	56.0585	10,928.5	60.7272	10,928.5	64.3202	10,928.5	63.4418	10,928.5	63.8279	10,928.5	61.5822	10,928.5	47.4275	10,928.5	63.8289	10,928.5	57.0438	10,928.5	59.1162	10,928.5	62.3284
11,313.7	89.2285	11,313.7	88.9139	11,313.7	88.7369	11,313.7	88.1256	11,313.7	88.125	11,313.7	87.0071	11,313.7	87.0635	11,313.7	85.295	11,313.7	85.3516	11,313.7	84.3462	11,313.7	83.7014	11,313.7	83.3826	11,313.7	82.5044	11,313.7	81.8891	11,313.7	81.5942	11,313.7	78.0783	11,313.7	78.3081	11,313.7	73.4936	11,313.7	74.5482	11,313.7	71.5143	11,313.7	69.4938	11,313.7	66.7262	11,313.7	69.2217	11,313.7	63.4793	11,313.7	63.6853	11,313.7	53.7338	11,313.7	62.186	11,313.7	64.4584	11,313.7	62.6771	11,313.7	64.2997	11,313.7	61.1915	11,313.7	41.186	11,313.7	64.5996	11,313.7	57.0186	11,313.7	59.8458	11,313.7	62.687
11,712.9	88.6453	11,712.9	87.795	11,712.9	88.4344	11,712.9	87.4417	11,712.9	87.4943	11,712.9	86.1396	11,712.9	86.7311	11,712.9	84.354	11,712.9	84.6833	11,712.9	82.8915	11,712.9	83.1462	11,712.9	81.8542	11,712.9	82.4308	11,712.9	79.4362	11,712.9	80.9165	11,712.9	76.015	11,712.9	77.822	11,712.9	72.2443	11,712.9	73.5277	11,712.9	70.0338	11,712.9	70.1064	11,712.9	65.4683	11,712.9	68.7692	11,712.9	63.2407	11,712.9	63.7082	11,712.9	53.4389	11,712.9	63.1099	11,712.9	61.465	11,712.9	64.6315	11,712.9	62.7774	11,712.9	60.0883	11,712.9	42.6456	11,712.9	61.9425	11,712.9	51.7225	11,712.9	57.9797	11,712.9	62.0599
12,126	88.8836	12,126	88.3228	12,126	88.3107	12,126	87.4276	12,126	87.8049	12,126	86.0409	12,126	86.8526	12,126	84.2268	12,126	84.7966	12,126	82.7863	12,126	83.8821	12,126	81.0849	12,126	81.9057	12,126	78.819	12,126	80.9898	12,126	75.7821	12,126	77.3927	12,126	71.8204	12,126	74.7248	12,126	69.3607	12,126	71.0709	12,126	65.0305	12,126	68.041	12,126	62.6844	12,126	61.0858	12,126	53.321	12,126	61.4509	12,126	60.7018	12,126	65.9122	12,126	62.0046	12,126	59.6939	12,126	43.2438	12,126	62.9954	12,126	46.5873	12,126	60.5375	12,126	60.4477
12,553.7	88.7966	12,553.7	88.0195	12,553.7	88.4383	12,553.7	87.0622	12,553.7	87.9552	12,553.7	85.5605	12,553.7	86.8866	12,553.7	83.9911	12,553.7	85.1971	12,553.7	81.4995	12,553.7	83.121	12,553.7	80.0644	12,553.7	81.7446	12,553.7	77.4959	12,553.7	80.8022	12,553.7	75.2296	12,553.7	77.1868	12,553.7	70.3216	12,553.7	74.4272	12,553.7	66.7904	12,553.7	69.5444	12,553.7	64.3722	12,553.7	67.1658	12,553.7	60.7411	12,553.7	59.8741	12,553.7	55.0611	12,553.7	58.9684	12,553.7	58.1115	12,553.7	64.343	12,553.7	58.2626	12,553.7	56.5326	12,553.7	45.9144	12,553.7	59.1618	12,553.7	40.8648	12,553.7	58.2027	12,553.7	59.5413
12,996.1	87.588	12,996.1	86.6804	12,996.1	87.393	12,996.1	85.9024	12,996.1	86.5094	12,996.1	84.3959	12,996.1	85.4265	12,996.1	82.3297	12,996.1	83.4045	12,996.1	80.2846	12,996.1	81.3873	12,996.1	79.1177	12,996.1	80.0868	12,996.1	76.0773	12,996.1	78.039	12,996.1	73.887	12,996.1	74.5735	12,996.1	67.1412	12,996.1	71.6533	12,996.1	66.1289	12,996.1	66.0979	12,996.1	63.5258	12,996.1	64.9896	12,996.1	57.5878	12,996.1	54	12,996.1	50.4247	12,996.1	54.4619	12,996.1	57.733	12,996.1	61.1792	12,996.1	59.4942	12,996.1	52.3261	12,996.1	40.6384	12,996.1	61.4562	12,996.1	47.5667	12,996.1	54.2505	12,996.1	57.5435
13,454.6	86.5231	13,454.6	86.1737	13,454.6	86.0354	13,454.6	84.9131	13,454.6	85.4725	13,454.6	83.3907	13,454.6	84.1011	13,454.6	81.4072	13,454.6	82.2115	13,454.6	79.6727	13,454.6	80.1089	13,454.6	77.6007	13,454.6	78.5337	13,454.6	74.6799	13,454.6	76.456	13,454.6	72.0285	13,454.6	73.4669	13,454.6	65.741	13,454.6	70.6276	13,454.6	64.4133	13,454.6	64.7137	13,454.6	61.304	13,454.6	62.2942	13,454.6	57.237	13,454.6	57.4151	13,454.6	48.7032	13,454.6	55.5388	13,454.6	56.0101	13,454.6	58.5783	13,454.6	57.5988	13,454.6	54.3693	13,454.6	49.3588	13,454.6	59.1409	13,454.6	40.8362	13,454.6	54.775	13,454.6	53.4211
13,928.5	84.6917	13,928.5	83.6754	13,928.5	84.5341	13,928.5	82.4335	13,928.5	83.8394	13,928.5	80.6488	13,928.5	82.5855	13,928.5	78.1378	13,928.5	80.7127	13,928.5	76.1204	13,928.5	79.2898	13,928.5	72.8532	13,928.5	77.8323	13,928.5	70.6122	13,928.5	76.2887	13,928.5	67.8682	13,928.5	73.1208	13,928.5	56.9629	13,928.5	70.5985	13,928.5	59.5647	13,928.5	61.6619	13,928.5	58.2684	13,928.5	63.0407	13,928.5	49.4683	13,928.5	58.0712	13,928.5	41.6908	13,928.5	56.7108	13,928.5	54.3281	13,928.5	57.5987	13,928.5	55.8386	13,928.5	46.7275	13,928.5	43.4313	13,928.5	58.0196	13,928.5	47.9382	13,928.5	57.0692	13,928.5	51.4292
14,419.9	84.5581	14,419.9	84.0413	14,419.9	84.2055	14,419.9	82.8856	14,419.9	83.2874	14,419.9	81.0191	14,419.9	81.7685	14,419.9	79.0735	14,419.9	79.5751	14,419.9	76.9586	14,419.9	77.3691	14,419.9	73.9033	14,419.9	74.6578	14,419.9	73.334	14,419.9	73.4721	14,419.9	68.772	14,419.9	69.8696	14,419.9	63.7062	14,419.9	67.7084	14,419.9	60.2799	14,419.9	58.9855	14,419.9	57.5831	14,419.9	59.8629	14,419.9	44.6664	14,419.9	58.1733	14,419.9	48.2596	14,419.9	53.5026	14,419.9	54.4987	14,419.9	54.2565	14,419.9	53.7292	14,419.9	40.7701	14,419.9	43.3154	14,419.9	55.6649	14,419.9	44.5117	14,419.9	54.8926	14,419.9	51.9516
14,928.2	85.1337	14,928.2	83.9725	14,928.2	85.1813	14,928.2	82.5252	14,928.2	84.5772	14,928.2	80.4613	14,928.2	83.4196	14,928.2	77.826	14,928.2	81.3865	14,928.2	74.5996	14,928.2	79.6477	14,928.2	72.7106	14,928.2	77.8651	14,928.2	71.0439	14,928.2	76.7645	14,928.2	65.6024	14,928.2	72.8842	14,928.2	63.2735	14,928.2	71.0971	14,928.2	56.3988	14,928.2	63.5252	14,928.2	56.4488	14,928.2	63.5997	14,928.2	41.6834	14,928.2	59.6267	14,928.2	51.4648	14,928.2	55.0539	14,928.2	53.4572	14,928.2	55.7957	14,928.2	51.1086	14,928.2	44.1761	14,928.2	43.1111	14,928.2	52.4796	14,928.2	41.2034	14,928.2	52.2648	14,928.2	54.2195
15,454.8	84.3775	15,454.8	83.6519	15,454.8	84.4101	15,454.8	82.2847	15,454.8	83.7873	15,454.8	80.4824	15,454.8	82.5505	15,454.8	77.7793	15,454.8	80.5451	15,454.8	75.0247	15,454.8	78.4882	15,454.8	72.4351	15,454.8	76.0832	15,454.8	70.4464	15,454.8	74.4813	15,454.8	66.6445	15,454.8	70.2796	15,454.8	64.4745	15,454.8	68.645	15,454.8	56.4205	15,454.8	62.6134	15,454.8	57.1513	15,454.8	60.6916	15,454.8	38.7529	15,454.8	56.272	15,454.8	51.6235	15,454.8	50.6383	15,454.8	52.5503	15,454.8	53.0013	15,454.8	47.7401	15,454.8	43.539	15,454.8	42.671	15,454.8	51.1335	15,454.8	36.7229	15,454.8	49.2577	15,454.8	48.519
15,999.8	82.0659	15,999.8	81.4662	15,999.8	81.932	15,999.8	80.1046	15,999.8	81.2815	15,999.8	78.3004	15,999.8	79.8517	15,999.8	75.5803	15,999.8	77.6239	15,999.8	72.8726	15,999.8	75.2209	15,999.8	69.7786	15,999.8	72.4487	15,999.8	68.1006	15,999.8	70.5725	15,999.8	64.4169	15,999.8	66.5446	15,999.8	62.1795	15,999.8	65.4465	15,999.8	52.4961	15,999.8	59.1119	15,999.8	53.4301	15,999.8	56.5091	15,999.8	37.3007	15,999.8	53.4505	15,999.8	49.3463	15,999.8	47.5217	15,999.8	49.1361	15,999.8	49.5341	15,999.8	40.6775	15,999.8	41.9668	15,999.8	40.3927	15,999.8	46.8499	15,999.8	43.5619	15,999.8	47.7274	15,999.8	39.3222
16,564.5	81.4996	16,564.5	81.1532	16,564.5	81.2796	16,564.5	79.9331	16,564.5	80.3199	16,564.5	78.0052	16,564.5	78.4856	16,564.5	75.4028	16,564.5	75.7085	16,564.5	72.6037	16,564.5	72.6739	16,564.5	70.2162	16,564.5	69.3188	16,564.5	68.7906	16,564.5	68.179	16,564.5	64.98	16,564.5	63.3053	16,564.5	63.3881	16,564.5	62.1359	16,564.5	53.7614	16,564.5	56.2864	16,564.5	55.1477	16,564.5	53.9724	16,564.5	45.4407	16,564.5	51.7896	16,564.5	50.7278	16,564.5	41.6408	16,564.5	49.6166	16,564.5	47.9151	16,564.5	43.8062	16,564.5	42.0283	16,564.5	45.7145	16,564.5	47.9845	16,564.5	42.4875	16,564.5	46.2878	16,564.5	37.6719
17,148.2	83.1242	17,148.2	82.6615	17,148.2	82.993	17,148.2	81.4227	17,148.2	81.8283	17,148.2	79.1791	17,148.2	79.7109	17,148.2	75.7296	17,148.2	76.4726	17,148.2	72.4395	17,148.2	73.7463	17,148.2	70.2021	17,148.2	70.3653	17,148.2	67.5803	17,148.2	68.6675	17,148.2	64.5363	17,148.2	63.6406	17,148.2	63.2963	17,148.2	62.5722	17,148.2	51.4528	17,148.2	59.7693	17,148.2	54.3803	17,148.2	52.1714	17,148.2	43.9656	17,148.2	48.4871	17,148.2	50.452	17,148.2	44.2485	17,148.2	49.8026	17,148.2	50.8077	17,148.2	47.3894	17,148.2	37.4179	17,148.2	48.3937	17,148.2	50.5962	17,148.2	36.1807	17,148.2	31.7734	17,148.2	41.4509
17,753.2	84.6918	17,753.2	84.3627	17,753.2	84.7095	17,753.2	83.0742	17,753.2	83.718	17,753.2	80.9121	17,753.2	81.5833	17,753.2	77.8058	17,753.2	78.2619	17,753.2	75.0032	17,753.2	75.8416	17,753.2	72.7355	17,753.2	72.7833	17,753.2	70.6191	17,753.2	70.3201	17,753.2	67.2211	17,753.2	68.7172	17,753.2	65.8958	17,753.2	66.5869	17,753.2	54.3563	17,753.2	62.2202	17,753.2	56.9576	17,753.2	55.5018	17,753.2	45.4888	17,753.2	53.5924	17,753.2	50.5942	17,753.2	52.511	17,753.2	48.6437	17,753.2	51.9665	17,753.2	45.3924	17,753.2	44.1398	17,753.2	45.3938	17,753.2	48.0533	17,753.2	39.4412	17,753.2	42.7454	17,753.2	34.4229
18,379.4	83.5097	18,379.4	83.0677	18,379.4	83.4448	18,379.4	81.9064	18,379.4	82.4388	18,379.4	79.8063	18,379.4	80.5231	18,379.4	76.7757	18,379.4	77.5569	18,379.4	73.9209	18,379.4	75.4592	18,379.4	71.4734	18,379.4	72.2627	18,379.4	68.5281	18,379.4	69.8693	18,379.4	64.8616	18,379.4	67.8956	18,379.4	62.9791	18,379.4	65.3185	18,379.4	51.5814	18,379.4	60.2612	18,379.4	52.5417	18,379.4	53.5628	18,379.4	44.618	18,379.4	52.1257	18,379.4	46.4596	18,379.4	51.7002	18,379.4	38.8592	18,379.4	51.4964	18,379.4	43.0791	18,379.4	45.2143	18,379.4	45.8223	18,379.4	43.8443	18,379.4	40.8334	18,379.4	44.5755	18,379.4	36.0858
19,027.6	81.8887	19,027.6	81.2942	19,027.6	81.8057	19,027.6	79.6377	19,027.6	80.6723	19,027.6	77.1409	19,027.6	78.6145	19,027.6	73.9835	19,027.6	75.5946	19,027.6	70.1401	19,027.6	72.9065	19,027.6	67.35	19,027.6	69.0153	19,027.6	61.4427	19,027.6	66.4147	19,027.6	58.1765	19,027.6	62.8959	19,027.6	54.0873	19,027.6	60.4917	19,027.6	42.4162	19,027.6	54.6517	19,027.6	44.33	19,027.6	48.1852	19,027.6	41.8017	19,027.6	48.1345	19,027.6	41.9114	19,027.6	45.9649	19,027.6	41.0627	19,027.6	47.6794	19,027.6	39.73	19,027.6	42.9058	19,027.6	45.0038	19,027.6	42.4707	19,027.6	34.7586	19,027.6	36.7226	19,027.6	32.2561
19,698.5	81.8922	19,698.5	81.2499	19,698.5	81.6168	19,698.5	79.0928	19,698.5	80.4168	19,698.5	76.2091	19,698.5	77.8203	19,698.5	72.0165	19,698.5	74.0623	19,698.5	67.6469	19,698.5	70.1671	19,698.5	61.875	19,698.5	65.1899	19,698.5	53.3443	19,698.5	60.3812	19,698.5	46.4885	19,698.5	57.2103	19,698.5	43.7734	19,698.5	54.1771	19,698.5	39.0016	19,698.5	41.906	19,698.5	40.2873	19,698.5	46.4456	19,698.5	39.0172	19,698.5	45.8085	19,698.5	38.5595	19,698.5	33.4253	19,698.5	24.0583	19,698.5	44.5465	19,698.5	37.3635	19,698.5	25.2187	19,698.5	44.3244	19,698.5	37.0991	19,698.5	27.1388	19,698.5	38.4974	19,698.5	38.3507
19,999.5	81.438	19,999.5	81.2322	19,999.5	81.2506	19,999.5	78.7273	19,999.5	80.3354	19,999.5	75.8425	19,999.5	77.4752	19,999.5	71.6506	19,999.5	73.2694	19,999.5	67.8467	19,999.5	69.638	19,999.5	60.9596	19,999.5	64.0367	19,999.5	54.5108	19,999.5	58.7141	19,999.5	41.6074	19,999.5	56.5403	19,999.5	41.5627	19,999.5	54.9923	19,999.5	40.6787	19,999.5	45.7056	19,999.5	42.6106	19,999.5	45.5859	19,999.5	42.7523	19,999.5	40.9151	19,999.5	41.3307	19,999.5	39.0389	19,999.5	43.8212	19,999.5	43.9926	19,999.5	40.8865	19,999.5	40.5397	19,999.5	42.2031	19,999.5	39.2497	19,999.5	24.386	19,999.5	47.7986	19,999.5	42.8681
