"SPL Vertical"																																																																							
"On-Axis"		"10°"		"-10°"		"20°"		"-20°"		"30°"		"-30°"		"40°"		"-40°"		"50°"		"-50°"		"60°"		"-60°"		"70°"		"-70°"		"80°"		"-80°"		"90°"		"-90°"		"100°"		"-100°"		"110°"		"-110°"		"120°"		"-120°"		"130°"		"-130°"		"140°"		"-140°"		"150°"		"-150°"		"160°"		"-160°"		"170°"		"-170°"		"180°"	
"Frequency [Hz]"	"Sound Pessure Level [dB]  / [2.83V 1m] "	"Frequency [Hz]"	"Sound Pessure Level [dB]  / [2.83V 1m] "	"Frequency [Hz]"	"Sound Pessure Level [dB]  / [2.83V 1m] "	"Frequency [Hz]"	"Sound Pessure Level [dB]  / [2.83V 1m] "	"Frequency [Hz]"	"Sound Pessure Level [dB]  / [2.83V 1m] "	"Frequency [Hz]"	"Sound Pessure Level [dB]  / [2.83V 1m] "	"Frequency [Hz]"	"Sound Pessure Level [dB]  / [2.83V 1m] "	"Frequency [Hz]"	"Sound Pessure Level [dB]  / [2.83V 1m] "	"Frequency [Hz]"	"Sound Pessure Level [dB]  / [2.83V 1m] "	"Frequency [Hz]"	"Sound Pessure Level [dB]  / [2.83V 1m] "	"Frequency [Hz]"	"Sound Pessure Level [dB]  / [2.83V 1m] "	"Frequency [Hz]"	"Sound Pessure Level [dB]  / [2.83V 1m] "	"Frequency [Hz]"	"Sound Pessure Level [dB]  / [2.83V 1m] "	"Frequency [Hz]"	"Sound Pessure Level [dB]  / [2.83V 1m] "	"Frequency [Hz]"	"Sound Pessure Level [dB]  / [2.83V 1m] "	"Frequency [Hz]"	"Sound Pessure Level [dB]  / [2.83V 1m] "	"Frequency [Hz]"	"Sound Pessure Level [dB]  / [2.83V 1m] "	"Frequency [Hz]"	"Sound Pessure Level [dB]  / [2.83V 1m] "	"Frequency [Hz]"	"Sound Pessure Level [dB]  / [2.83V 1m] "	"Frequency [Hz]"	"Sound Pessure Level [dB]  / [2.83V 1m] "	"Frequency [Hz]"	"Sound Pessure Level [dB]  / [2.83V 1m] "	"Frequency [Hz]"	"Sound Pessure Level [dB]  / [2.83V 1m] "	"Frequency [Hz]"	"Sound Pessure Level [dB]  / [2.83V 1m] "	"Frequency [Hz]"	"Sound Pessure Level [dB]  / [2.83V 1m] "	"Frequency [Hz]"	"Sound Pessure Level [dB]  / [2.83V 1m] "	"Frequency [Hz]"	"Sound Pessure Level [dB]  / [2.83V 1m] "	"Frequency [Hz]"	"Sound Pessure Level [dB]  / [2.83V 1m] "	"Frequency [Hz]"	"Sound Pessure Level [dB]  / [2.83V 1m] "	"Frequency [Hz]"	"Sound Pessure Level [dB]  / [2.83V 1m] "	"Frequency [Hz]"	"Sound Pessure Level [dB]  / [2.83V 1m] "	"Frequency [Hz]"	"Sound Pessure Level [dB]  / [2.83V 1m] "	"Frequency [Hz]"	"Sound Pessure Level [dB]  / [2.83V 1m] "	"Frequency [Hz]"	"Sound Pessure Level [dB]  / [2.83V 1m] "	"Frequency [Hz]"	"Sound Pessure Level [dB]  / [2.83V 1m] "	"Frequency [Hz]"	"Sound Pessure Level [dB]  / [2.83V 1m] "	"Frequency [Hz]"	"Sound Pessure Level [dB]  / [2.83V 1m] "
20.5078	60.4671	20.5078	60.3535	20.5078	60.5851	20.5078	60.2473	20.5078	60.7041	20.5078	60.1512	20.5078	60.8204	20.5078	60.0673	20.5078	60.9302	20.5078	59.9976	20.5078	61.0293	20.5078	59.9433	20.5078	61.1141	20.5078	59.9056	20.5078	61.1809	20.5078	59.8851	20.5078	61.2267	20.5078	59.8822	20.5078	61.2495	20.5078	59.897	20.5078	61.2479	20.5078	59.9293	20.5078	61.2219	20.5078	59.9785	20.5078	61.1724	20.5078	60.0438	20.5078	61.1017	20.5078	60.1239	20.5078	61.0127	20.5078	60.2173	20.5078	60.9093	20.5078	60.3219	20.5078	60.7955	20.5078	60.4353	20.5078	60.6758	20.5078	60.5545
21.2402	58.9541	21.2402	58.8486	21.2402	59.0599	21.2402	58.7463	21.2402	59.1624	21.2402	58.6504	21.2402	59.2581	21.2402	58.5633	21.2402	59.3436	21.2402	58.4871	21.2402	59.4154	21.2402	58.4238	21.2402	59.4707	21.2402	58.3747	21.2402	59.5071	21.2402	58.3409	21.2402	59.523	21.2402	58.3229	21.2402	59.5178	21.2402	58.3211	21.2402	59.4917	21.2402	58.3354	21.2402	59.446	21.2402	58.3654	21.2402	59.3829	21.2402	58.4103	21.2402	59.3049	21.2402	58.4689	21.2402	59.2155	21.2402	58.54	21.2402	59.118	21.2402	58.6219	21.2402	59.0159	21.2402	58.7128	21.2402	58.9123	21.2402	58.8104
21.9727	60.4746	21.9727	60.3572	21.9727	60.5928	21.9727	60.2437	21.9727	60.7081	21.9727	60.1371	21.9727	60.8169	21.9727	60.0399	21.9727	60.9153	21.9727	59.9544	21.9727	60.9996	21.9727	59.8824	21.9727	61.0664	21.9727	59.8254	21.9727	61.1126	21.9727	59.7846	21.9727	61.1358	21.9727	59.7609	21.9727	61.1348	21.9727	59.755	21.9727	61.1091	21.9727	59.7669	21.9727	61.0595	21.9727	59.7968	21.9727	60.988	21.9727	59.8443	21.9727	60.8975	21.9727	59.9086	21.9727	60.7917	21.9727	59.9887	21.9727	60.6751	21.9727	60.083	21.9727	60.5522	21.9727	60.1894	21.9727	60.4275	21.9727	60.3053
22.7051	60.4766	22.7051	60.3639	22.7051	60.5877	22.7051	60.2528	22.7051	60.6939	22.7051	60.1462	22.7051	60.7915	22.7051	60.0468	22.7051	60.877	22.7051	59.9567	22.7051	60.9467	22.7051	59.8778	22.7051	60.9977	22.7051	59.8119	22.7051	61.0271	22.7051	59.7602	22.7051	61.0333	22.7051	59.7238	22.7051	61.0153	22.7051	59.7035	22.7051	60.9735	22.7051	59.6999	22.7051	60.9092	22.7051	59.7134	22.7051	60.8251	22.7051	59.744	22.7051	60.7246	22.7051	59.7916	22.7051	60.6121	22.7051	59.8556	22.7051	60.4922	22.7051	59.9351	22.7051	60.3696	22.7051	60.0286	22.7051	60.2489	22.7051	60.1341
23.4375	60.9825	23.4375	60.8786	23.4375	61.0848	23.4375	60.7761	23.4375	61.1821	23.4375	60.6779	23.4375	61.2711	23.4375	60.5863	23.4375	61.3483	23.4375	60.5035	23.4375	61.4104	23.4375	60.4313	23.4375	61.4545	23.4375	60.3711	23.4375	61.4783	23.4375	60.3241	23.4375	61.4803	23.4375	60.2912	23.4375	61.46	23.4375	60.2729	23.4375	61.4179	23.4375	60.2697	23.4375	61.3557	23.4375	60.2817	23.4375	61.2761	23.4375	60.3088	23.4375	61.1826	23.4375	60.3507	23.4375	61.0793	23.4375	60.4069	23.4375	60.9706	23.4375	60.4766	23.4375	60.8605	23.4375	60.5587	23.4375	60.7531	23.4375	60.6515
24.1699	61.208	24.1699	61.0984	24.1699	61.3154	24.1699	60.9896	24.1699	61.417	24.1699	60.8848	24.1699	61.5092	24.1699	60.7865	24.1699	61.5886	24.1699	60.6972	24.1699	61.6519	24.1699	60.6188	24.1699	61.6961	24.1699	60.553	24.1699	61.719	24.1699	60.5013	24.1699	61.7191	24.1699	60.4646	24.1699	61.6961	24.1699	60.4437	24.1699	61.6505	24.1699	60.439	24.1699	61.5843	24.1699	60.4509	24.1699	61.5002	24.1699	60.4791	24.1699	61.4018	24.1699	60.5234	24.1699	61.2932	24.1699	60.5831	24.1699	61.1789	24.1699	60.6572	24.1699	61.0632	24.1699	60.7443	24.1699	60.9499	24.1699	60.8427
25.6348	62.2293	25.6348	62.1186	25.6348	62.3375	25.6348	62.0087	25.6348	62.4398	25.6348	61.9025	25.6348	62.5325	25.6348	61.8027	25.6348	62.6122	25.6348	61.7116	25.6348	62.6754	25.6348	61.6314	25.6348	62.7193	25.6348	61.5636	25.6348	62.7415	25.6348	61.5096	25.6348	62.7405	25.6348	61.4707	25.6348	62.7158	25.6348	61.4475	25.6348	62.6681	25.6348	61.4407	25.6348	62.5993	25.6348	61.4504	25.6348	62.5122	25.6348	61.4768	25.6348	62.4106	25.6348	61.5196	25.6348	62.2988	25.6348	61.5783	25.6348	62.1814	25.6348	61.6519	25.6348	62.0629	25.6348	61.7392	25.6348	61.9474	25.6348	61.8385
26.3672	62.8725	26.3672	62.758	26.3672	62.9846	26.3672	62.6444	26.3672	63.0907	26.3672	62.5347	26.3672	63.1872	26.3672	62.4316	26.3672	63.2704	26.3672	62.3375	26.3672	63.3369	26.3672	62.2546	26.3672	63.3836	26.3672	62.1845	26.3672	63.4081	26.3672	62.1289	26.3672	63.4086	26.3672	62.0887	26.3672	63.3847	26.3672	62.065	26.3672	63.3367	26.3672	62.0582	26.3672	63.2666	26.3672	62.0687	26.3672	63.1771	26.3672	62.0965	26.3672	63.0721	26.3672	62.1414	26.3672	62.9561	26.3672	62.2029	26.3672	62.8339	26.3672	62.2801	26.3672	62.7102	26.3672	62.3716	26.3672	62.5895	26.3672	62.4755
27.0996	63.2694	27.0996	63.1563	27.0996	63.3799	27.0996	63.044	27.0996	63.4843	27.0996	62.9355	27.0996	63.579	27.0996	62.8334	27.0996	63.6605	27.0996	62.7403	27.0996	63.7252	27.0996	62.6581	27.0996	63.7702	27.0996	62.5887	27.0996	63.7931	27.0996	62.5335	27.0996	63.7922	27.0996	62.4935	27.0996	63.7671	27.0996	62.4697	27.0996	63.7184	27.0996	62.4625	27.0996	63.6479	27.0996	62.4723	27.0996	63.5585	27.0996	62.499	27.0996	63.4542	27.0996	62.5425	27.0996	63.3394	27.0996	62.6022	27.0996	63.2189	27.0996	62.6772	27.0996	63.0973	27.0996	62.7663	27.0996	62.979	27.0996	62.8676
27.832	63.7	27.832	63.582	27.832	63.8155	27.832	63.465	27.832	63.9251	27.832	63.352	27.832	64.0252	27.832	63.2458	27.832	64.1121	27.832	63.1488	27.832	64.1822	27.832	63.0633	27.832	64.2325	27.832	62.991	27.832	64.2604	27.832	62.9336	27.832	64.2642	27.832	62.8924	27.832	64.2429	27.832	62.8683	27.832	64.1971	27.832	62.8622	27.832	64.1282	27.832	62.8743	27.832	64.0389	27.832	62.9049	27.832	63.9327	27.832	62.9538	27.832	63.8142	27.832	63.0203	27.832	63.6881	27.832	63.1033	27.832	63.5594	27.832	63.2013	27.832	63.4326	27.832	63.312
29.2969	64.397	29.2969	64.2817	29.2969	64.5093	29.2969	64.1666	29.2969	64.615	29.2969	64.0548	29.2969	64.7104	29.2969	63.9492	29.2969	64.7921	29.2969	63.8521	29.2969	64.8565	29.2969	63.7659	29.2969	64.9007	29.2969	63.6924	29.2969	64.9223	29.2969	63.6331	29.2969	64.9198	29.2969	63.5894	29.2969	64.8926	29.2969	63.5622	29.2969	64.8415	29.2969	63.5523	29.2969	64.7681	29.2969	63.56	29.2969	64.6756	29.2969	63.5855	29.2969	64.5677	29.2969	63.6287	29.2969	64.4492	29.2969	63.6891	29.2969	64.3247	29.2969	63.7657	29.2969	64.1991	29.2969	63.8573	29.2969	64.0768	29.2969	63.9618
30.0293	64.9305	30.0293	64.8115	30.0293	65.0475	30.0293	64.6937	30.0293	65.1588	30.0293	64.5803	30.0293	65.2607	30.0293	64.4742	30.0293	65.3496	30.0293	64.3777	30.0293	65.4219	30.0293	64.2932	30.0293	65.4744	30.0293	64.2225	30.0293	65.5046	30.0293	64.1671	30.0293	65.5107	30.0293	64.1283	30.0293	65.4918	30.0293	64.107	30.0293	65.4483	30.0293	64.1038	30.0293	65.3816	30.0293	64.1191	30.0293	65.2943	30.0293	64.1529	30.0293	65.19	30.0293	64.2048	30.0293	65.073	30.0293	64.2741	30.0293	64.9479	30.0293	64.3596	30.0293	64.8197	30.0293	64.4595	30.0293	64.6928	30.0293	64.5716
31.4941	65.5261	31.4941	65.4113	31.4941	65.6377	31.4941	65.2969	31.4941	65.7428	31.4941	65.1859	31.4941	65.8378	31.4941	65.081	31.4941	65.9191	31.4941	64.9849	31.4941	65.9832	31.4941	64.8997	31.4941	66.0274	31.4941	64.8273	31.4941	66.0494	31.4941	64.7693	31.4941	66.0475	31.4941	64.7269	31.4941	66.0215	31.4941	64.7013	31.4941	65.972	31.4941	64.693	31.4941	65.9008	31.4941	64.7024	31.4941	65.8108	31.4941	64.7296	31.4941	65.7057	31.4941	64.7743	31.4941	65.5898	31.4941	64.836	31.4941	65.4679	31.4941	64.9135	31.4941	65.3445	31.4941	65.0054	31.4941	65.2238	31.4941	65.1097
32.2266	65.9569	32.2266	65.8415	32.2266	66.0686	32.2266	65.7258	32.2266	66.1731	32.2266	65.6128	32.2266	66.2667	32.2266	65.5054	32.2266	66.346	32.2266	65.4062	32.2266	66.4076	32.2266	65.3174	32.2266	66.4486	32.2266	65.2409	32.2266	66.4666	32.2266	65.1785	32.2266	66.4604	32.2266	65.1315	32.2266	66.4295	32.2266	65.101	32.2266	66.3748	32.2266	65.0878	32.2266	66.2982	32.2266	65.0925	32.2266	66.2029	32.2266	65.1152	32.2266	66.0927	32.2266	65.156	32.2266	65.9724	32.2266	65.2143	32.2266	65.8467	32.2266	65.2893	32.2266	65.7204	32.2266	65.3796	32.2266	65.598	32.2266	65.4833
33.6914	66.5471	33.6914	66.4344	33.6914	66.6559	33.6914	66.3211	33.6914	66.7572	33.6914	66.2103	33.6914	66.8473	33.6914	66.105	33.6914	66.9228	33.6914	66.0078	33.6914	66.9804	33.6914	65.9208	33.6914	67.0172	33.6914	65.846	33.6914	67.0313	33.6914	65.785	33.6914	67.0213	33.6914	65.739	33.6914	66.9872	33.6914	65.7091	33.6914	66.9301	33.6914	65.6958	33.6914	66.8522	33.6914	65.6996	33.6914	66.7568	33.6914	65.7205	33.6914	66.6481	33.6914	65.7582	33.6914	66.5307	33.6914	65.8124	33.6914	66.4092	33.6914	65.8823	33.6914	66.2884	33.6914	65.9667	33.6914	66.1722	33.6914	66.064
34.4238	66.949	34.4238	66.8336	34.4238	67.0606	34.4238	66.7176	34.4238	67.1647	34.4238	66.6044	34.4238	67.2576	34.4238	66.4967	34.4238	67.3359	34.4238	66.3973	34.4238	67.3962	34.4238	66.3084	34.4238	67.4355	34.4238	66.232	34.4238	67.4518	34.4238	66.1697	34.4238	67.4436	34.4238	66.123	34.4238	67.4108	34.4238	66.0927	34.4238	67.3544	34.4238	66.0797	34.4238	67.2764	34.4238	66.0843	34.4238	67.1801	34.4238	66.1067	34.4238	67.0696	34.4238	66.1467	34.4238	66.9495	34.4238	66.2037	34.4238	66.8248	34.4238	66.2771	34.4238	66.7	34.4238	66.3654	34.4238	66.5796	34.4238	66.467
35.8887	67.6311	35.8887	67.5159	35.8887	67.7422	35.8887	67.4002	35.8887	67.8458	35.8887	67.2872	35.8887	67.9382	35.8887	67.1798	35.8887	68.0158	35.8887	67.0808	35.8887	68.0752	35.8887	66.9924	35.8887	68.1137	35.8887	66.9166	35.8887	68.1291	35.8887	66.8551	35.8887	68.1202	35.8887	66.8091	35.8887	68.0869	35.8887	66.7797	35.8887	68.0302	35.8887	66.7676	35.8887	67.9523	35.8887	66.7729	35.8887	67.8566	35.8887	66.7958	35.8887	67.7471	35.8887	66.836	35.8887	67.6285	35.8887	66.8929	35.8887	67.5055	35.8887	66.9657	35.8887	67.3826	35.8887	67.053	35.8887	67.264	35.8887	67.1532
37.3535	68.3204	37.3535	68.2036	37.3535	68.433	37.3535	68.0861	37.3535	68.5378	37.3535	67.9713	37.3535	68.631	37.3535	67.8621	37.3535	68.709	37.3535	67.7611	37.3535	68.7685	37.3535	67.6709	37.3535	68.8066	37.3535	67.5934	37.3535	68.8211	37.3535	67.5303	37.3535	68.8109	37.3535	67.483	37.3535	68.7758	37.3535	67.4523	37.3535	68.7169	37.3535	67.439	37.3535	68.6367	37.3535	67.4435	37.3535	68.5384	37.3535	67.4657	37.3535	68.4264	37.3535	67.5054	37.3535	68.3053	37.3535	67.562	37.3535	68.1801	37.3535	67.6348	37.3535	68.0553	37.3535	67.7225	37.3535	67.9353	37.3535	67.8234
38.8184	68.8358	38.8184	68.7203	38.8184	68.946	38.8184	68.6031	38.8184	69.0472	38.8184	68.4875	38.8184	69.1358	38.8184	68.3766	38.8184	69.208	38.8184	68.2732	38.8184	69.2607	38.8184	68.1798	38.8184	69.2912	38.8184	68.0984	38.8184	69.2975	38.8184	68.0308	38.8184	69.2787	38.8184	67.9783	38.8184	69.235	38.8184	67.942	38.8184	69.168	38.8184	67.9226	38.8184	69.0803	38.8184	67.9206	38.8184	68.9759	38.8184	67.9359	38.8184	68.8592	38.8184	67.9686	38.8184	68.7353	38.8184	68.0182	38.8184	68.6093	38.8184	68.0841	38.8184	68.4856	38.8184	68.1654	38.8184	68.3683	38.8184	68.2608
39.5508	69.2297	39.5508	69.1118	39.5508	69.3427	39.5508	68.9928	39.5508	69.447	39.5508	68.8759	39.5508	69.539	39.5508	68.7643	39.5508	69.6149	39.5508	68.6608	39.5508	69.6714	39.5508	68.5679	39.5508	69.7057	39.5508	68.4877	39.5508	69.7159	39.5508	68.422	39.5508	69.7007	39.5508	68.372	39.5508	69.6604	39.5508	68.3387	39.5508	69.5962	39.5508	68.3228	39.5508	69.5109	39.5508	68.3245	39.5508	69.4081	39.5508	68.3438	39.5508	69.2923	39.5508	68.3805	39.5508	69.1685	39.5508	68.4341	39.5508	69.0417	39.5508	68.5038	39.5508	68.9166	39.5508	68.5886	39.5508	68.7973	39.5508	68.6871
41.0156	69.9766	41.0156	69.8572	41.0156	70.0911	41.0156	69.7364	41.0156	70.1967	41.0156	69.6177	41.0156	70.2897	41.0156	69.5043	41.0156	70.3664	41.0156	69.399	41.0156	70.4234	41.0156	69.3043	41.0156	70.4579	41.0156	69.2224	41.0156	70.4678	41.0156	69.1552	41.0156	70.452	41.0156	69.104	41.0156	70.4105	41.0156	69.0697	41.0156	70.3449	41.0156	69.0531	41.0156	70.2577	41.0156	69.0544	41.0156	70.1527	41.0156	69.0737	41.0156	70.0347	41.0156	69.1106	41.0156	69.9087	41.0156	69.1646	41.0156	69.7798	41.0156	69.235	41.0156	69.6528	41.0156	69.3207	41.0156	69.5318	41.0156	69.4202
42.4805	70.2942	42.4805	70.1611	42.4805	70.4212	42.4805	70.0258	42.4805	70.538	42.4805	69.892	42.4805	70.6405	42.4805	69.7634	42.4805	70.7247	42.4805	69.643	42.4805	70.7872	42.4805	69.5339	42.4805	70.8249	42.4805	69.4386	42.4805	70.8354	42.4805	69.3593	42.4805	70.8175	42.4805	69.2978	42.4805	70.7713	42.4805	69.2555	42.4805	70.6979	42.4805	69.2334	42.4805	70.6003	42.4805	69.232	42.4805	70.4823	42.4805	69.2516	42.4805	70.349	42.4805	69.292	42.4805	70.2059	42.4805	69.3527	42.4805	70.0588	42.4805	69.4328	42.4805	69.9133	42.4805	69.5311	42.4805	69.7742	42.4805	69.6458
43.9453	70.8948	43.9453	70.7635	43.9453	71.0188	43.9453	70.6287	43.9453	71.1317	43.9453	70.4939	43.9453	71.2295	43.9453	70.3626	43.9453	71.3086	43.9453	70.2379	43.9453	71.3654	43.9453	70.1228	43.9453	71.3972	43.9453	70.0198	43.9453	71.4016	43.9453	69.9315	43.9453	71.3775	43.9453	69.8598	43.9453	71.3248	43.9453	69.8066	43.9453	71.245	43.9453	69.7734	43.9453	71.1407	43.9453	69.7613	43.9453	71.0159	43.9453	69.7711	43.9453	70.8757	43.9453	69.8033	43.9453	70.7259	43.9453	69.8577	43.9453	70.5724	43.9453	69.934	43.9453	70.4212	43.9453	70.0308	43.9453	70.2776	43.9453	70.1462
45.4102	71.4179	45.4102	71.2872	45.4102	71.5416	45.4102	71.1533	45.4102	71.6544	45.4102	71.0196	45.4102	71.7524	45.4102	70.8896	45.4102	71.8318	45.4102	70.7664	45.4102	71.8892	45.4102	70.6527	45.4102	71.9216	45.4102	70.5512	45.4102	71.9267	45.4102	70.4642	45.4102	71.9035	45.4102	70.3937	45.4102	71.8518	45.4102	70.3414	45.4102	71.7729	45.4102	70.3088	45.4102	71.6697	45.4102	70.2972	45.4102	71.546	45.4102	70.3073	45.4102	71.4069	45.4102	70.3395	45.4102	71.2581	45.4102	70.3939	45.4102	71.1056	45.4102	70.47	45.4102	70.9553	45.4102	70.5665	45.4102	70.8124	45.4102	70.6816
47.6074	72.2168	47.6074	72.091	47.6074	72.3369	47.6074	71.9632	47.6074	72.4475	47.6074	71.837	47.6074	72.5447	47.6074	71.7156	47.6074	72.625	47.6074	71.6021	47.6074	72.6849	47.6074	71.4992	47.6074	72.7217	47.6074	71.4094	47.6074	72.733	47.6074	71.3347	47.6074	72.7179	47.6074	71.2768	47.6074	72.6762	47.6074	71.2373	47.6074	72.6091	47.6074	71.2169	47.6074	72.5191	47.6074	71.2165	47.6074	72.4097	47.6074	71.2363	47.6074	72.2855	47.6074	71.2761	47.6074	72.1515	47.6074	71.3355	47.6074	72.013	47.6074	71.4136	47.6074	71.8752	47.6074	71.5089	47.6074	71.7426	47.6074	71.6194
49.0723	72.774	49.0723	72.6507	49.0723	72.8923	49.0723	72.526	49.0723	73.0017	49.0723	72.4034	49.0723	73.0987	49.0723	72.2861	49.0723	73.1795	49.0723	72.1773	49.0723	73.2408	49.0723	72.0795	49.0723	73.28	49.0723	71.9951	49.0723	73.2948	49.0723	71.9261	49.0723	73.2841	49.0723	71.8743	49.0723	73.2479	49.0723	71.8408	49.0723	73.1872	49.0723	71.8265	49.0723	73.1042	49.0723	71.8317	49.0723	73.0024	49.0723	71.8566	49.0723	72.8859	49.0723	71.9007	49.0723	72.7594	49.0723	71.9633	49.0723	72.6278	49.0723	72.0431	49.0723	72.4958	49.0723	72.1386	49.0723	72.3679	49.0723	72.2478
50.5371	73.2679	50.5371	73.1449	50.5371	73.3861	50.5371	73.0207	50.5371	73.4958	50.5371	72.8989	50.5371	73.5931	50.5371	72.7828	50.5371	73.6744	50.5371	72.6755	50.5371	73.7366	50.5371	72.5796	50.5371	73.7768	50.5371	72.4976	50.5371	73.7931	50.5371	72.4314	50.5371	73.7842	50.5371	72.3826	50.5371	73.7501	50.5371	72.3525	50.5371	73.692	50.5371	72.3416	50.5371	73.6121	50.5371	72.3503	50.5371	73.5137	50.5371	72.3784	50.5371	73.4008	50.5371	72.4254	50.5371	73.2779	50.5371	72.4902	50.5371	73.1497	50.5371	72.5715	50.5371	73.0207	50.5371	72.6675	50.5371	72.895	50.5371	72.7762
52.7344	73.9592	52.7344	73.8377	52.7344	74.0753	52.7344	73.7148	52.7344	74.1825	52.7344	73.5938	52.7344	74.2769	52.7344	73.478	52.7344	74.355	52.7344	73.3707	52.7344	74.4138	52.7344	73.2745	52.7344	74.4504	52.7344	73.1918	52.7344	74.4631	52.7344	73.1247	52.7344	74.4508	52.7344	73.0748	52.7344	74.4137	52.7344	73.0431	52.7344	74.3532	52.7344	73.0305	52.7344	74.2716	52.7344	73.0372	52.7344	74.1723	52.7344	73.063	52.7344	74.0594	52.7344	73.1074	52.7344	73.9374	52.7344	73.1694	52.7344	73.811	52.7344	73.2476	52.7344	73.6844	52.7344	73.3405	52.7344	73.5616	52.7344	73.446
54.1992	74.4555	54.1992	74.3359	54.1992	74.5695	54.1992	74.2144	54.1992	74.6742	54.1992	74.0945	54.1992	74.7658	54.1992	73.9795	54.1992	74.8409	54.1992	73.8725	54.1992	74.8963	54.1992	73.7761	54.1992	74.9295	54.1992	73.6929	54.1992	74.9386	54.1992	73.6248	54.1992	74.9227	54.1992	73.5733	54.1992	74.8822	54.1992	73.5397	54.1992	74.8186	54.1992	73.5246	54.1992	74.7343	54.1992	73.5283	54.1992	74.633	54.1992	73.5507	54.1992	74.519	54.1992	73.5914	54.1992	74.3968	54.1992	73.6493	54.1992	74.2712	54.1992	73.7235	54.1992	74.1464	54.1992	73.8123	54.1992	74.0262	54.1992	73.9139
56.3965	75.1615	56.3965	75.0406	56.3965	75.2769	56.3965	74.9179	56.3965	75.383	56.3965	74.7971	56.3965	75.476	56.3965	74.6814	56.3965	75.5523	56.3965	74.574	56.3965	75.6088	56.3965	74.4776	56.3965	75.6428	56.3965	74.3946	56.3965	75.6525	56.3965	74.327	56.3965	75.6371	56.3965	74.2763	56.3965	75.5967	56.3965	74.2437	56.3965	75.5329	56.3965	74.2297	56.3965	75.4483	56.3965	74.2345	56.3965	75.3466	56.3965	74.258	56.3965	75.2321	56.3965	74.2997	56.3965	75.1095	56.3965	74.3585	56.3965	74.9833	56.3965	74.4334	56.3965	74.8581	56.3965	74.5227	56.3965	74.7375	56.3965	74.6249
58.5938	75.8267	58.5938	75.703	58.5938	75.9453	58.5938	75.5779	58.5938	76.0547	58.5938	75.4552	58.5938	76.1513	58.5938	75.3382	58.5938	76.2315	58.5938	75.2301	58.5938	76.2919	58.5938	75.1339	58.5938	76.3299	58.5938	75.0519	58.5938	76.3436	58.5938	74.9862	58.5938	76.3322	58.5938	74.9382	58.5938	76.2958	58.5938	74.9091	58.5938	76.2357	58.5938	74.8995	58.5938	76.1545	58.5938	74.9093	58.5938	76.0556	58.5938	74.9382	58.5938	75.9432	58.5938	74.9855	58.5938	75.8217	58.5938	75.05	58.5938	75.6958	58.5938	75.1303	58.5938	75.5695	58.5938	75.2246	58.5938	75.4468	58.5938	75.3309
60.0586	76.1867	60.0586	76.0661	60.0586	76.3024	60.0586	75.9443	60.0586	76.4093	60.0586	75.825	60.0586	76.5037	60.0586	75.7116	60.0586	76.5822	60.0586	75.6073	60.0586	76.6415	60.0586	75.5149	60.0586	76.6792	60.0586	75.4368	60.0586	76.6935	60.0586	75.375	60.0586	76.6836	60.0586	75.3309	60.0586	76.6497	60.0586	75.3054	60.0586	76.5932	60.0586	75.2991	60.0586	76.5166	60.0586	75.3118	60.0586	76.4231	60.0586	75.3431	60.0586	76.3168	60.0586	75.3918	60.0586	76.2017	60.0586	75.4569	60.0586	76.082	60.0586	75.5366	60.0586	75.9616	60.0586	75.6291	60.0586	75.8441	60.0586	75.7323
62.2559	76.8637	62.2559	76.7447	62.2559	76.9774	62.2559	76.6242	62.2559	77.082	62.2559	76.5058	62.2559	77.1738	62.2559	76.3931	62.2559	77.2492	62.2559	76.2892	62.2559	77.3052	62.2559	76.1971	62.2559	77.3395	62.2559	76.1191	62.2559	77.3504	62.2559	76.0572	62.2559	77.3372	62.2559	76.0129	62.2559	77.3005	62.2559	75.987	62.2559	77.2418	62.2559	75.98	62.2559	77.1638	62.2559	75.9918	62.2559	77.0701	62.2559	76.0216	62.2559	76.9645	62.2559	76.0685	62.2559	76.8512	62.2559	76.1311	62.2559	76.7344	62.2559	76.2077	62.2559	76.6175	62.2559	76.2968	62.2559	76.5039	62.2559	76.3962
64.4531	77.4868	64.4531	77.3674	64.4531	77.6008	64.4531	77.2465	64.4531	77.7054	64.4531	77.1278	64.4531	77.7971	64.4531	77.0149	64.4531	77.8722	64.4531	76.911	64.4531	77.9277	64.4531	76.819	64.4531	77.9613	64.4531	76.7414	64.4531	77.9714	64.4531	76.6801	64.4531	77.9574	64.4531	76.6366	64.4531	77.9199	64.4531	76.6116	64.4531	77.8607	64.4531	76.6056	64.4531	77.7825	64.4531	76.6183	64.4531	77.6889	64.4531	76.6489	64.4531	77.5838	64.4531	76.6963	64.4531	77.4716	64.4531	76.759	64.4531	77.356	64.4531	76.8355	64.4531	77.2407	64.4531	76.9238	64.4531	77.1285	64.4531	77.0222
66.6504	78.0678	66.6504	77.9463	66.6504	78.1837	66.6504	77.8233	66.6504	78.29	66.6504	77.7025	66.6504	78.383	66.6504	77.5876	66.6504	78.4591	66.6504	77.4821	66.6504	78.5153	66.6504	77.3888	66.6504	78.5491	66.6504	77.3104	66.6504	78.5591	66.6504	77.2488	66.6504	78.5447	66.6504	77.2054	66.6504	78.5065	66.6504	77.1811	66.6504	78.4465	66.6504	77.1762	66.6504	78.3675	66.6504	77.1903	66.6504	78.2731	66.6504	77.2225	66.6504	78.1674	66.6504	77.2716	66.6504	78.0545	66.6504	77.3359	66.6504	77.9385	66.6504	77.4139	66.6504	77.8226	66.6504	77.5034	66.6504	77.7099	66.6504	77.6028
69.5801	78.8184	69.5801	78.6969	69.5801	78.9342	69.5801	78.5736	69.5801	79.0403	69.5801	78.4526	69.5801	79.1327	69.5801	78.3376	69.5801	79.2081	69.5801	78.2321	69.5801	79.2633	69.5801	78.1392	69.5801	79.2962	69.5801	78.0615	69.5801	79.3053	69.5801	78.001	69.5801	79.2902	69.5801	77.9593	69.5801	79.2519	69.5801	77.9369	69.5801	79.1923	69.5801	77.9341	69.5801	79.1143	69.5801	77.9503	69.5801	79.0216	69.5801	77.9846	69.5801	78.9182	69.5801	78.0353	69.5801	78.8082	69.5801	78.1009	69.5801	78.6951	69.5801	78.1793	69.5801	78.5821	69.5801	78.2685	69.5801	78.4719	69.5801	78.3667
71.7773	79.3777	71.7773	79.2567	71.7773	79.4926	71.7773	79.1339	71.7773	79.5975	71.7773	79.0131	71.7773	79.6885	71.7773	78.8984	71.7773	79.7623	71.7773	78.7932	71.7773	79.8157	71.7773	78.7007	71.7773	79.8468	71.7773	78.6236	71.7773	79.8542	71.7773	78.564	71.7773	79.8378	71.7773	78.5234	71.7773	79.7986	71.7773	78.5024	71.7773	79.7388	71.7773	78.5011	71.7773	79.6613	71.7773	78.5188	71.7773	79.57	71.7773	78.5543	71.7773	79.4688	71.7773	78.6059	71.7773	79.3617	71.7773	78.6717	71.7773	79.252	71.7773	78.7495	71.7773	79.1425	71.7773	78.8374	71.7773	79.0357	71.7773	78.9334
73.9746	79.9162	73.9746	79.7954	73.9746	80.0307	73.9746	79.6725	73.9746	80.1348	73.9746	79.5514	73.9746	80.2248	73.9746	79.4361	73.9746	80.2971	73.9746	79.3303	73.9746	80.3488	73.9746	79.2371	73.9746	80.3778	73.9746	79.1593	73.9746	80.3829	73.9746	79.0989	73.9746	80.364	73.9746	79.0575	73.9746	80.3223	73.9746	79.0357	73.9746	80.2601	73.9746	79.0335	73.9746	80.1806	73.9746	79.0502	73.9746	80.0878	73.9746	79.0845	73.9746	79.9857	73.9746	79.1348	73.9746	79.8784	73.9746	79.1991	73.9746	79.7692	73.9746	79.2752	73.9746	79.6609	73.9746	79.3611	73.9746	79.5556	73.9746	79.4552
76.9043	80.5716	76.9043	80.4496	76.9043	80.687	76.9043	80.3254	76.9043	80.7916	76.9043	80.2029	76.9043	80.8818	76.9043	80.0864	76.9043	80.9538	76.9043	79.9794	76.9043	81.0049	76.9043	79.8853	76.9043	81.033	76.9043	79.8069	76.9043	81.0369	76.9043	79.7463	76.9043	81.0166	76.9043	79.7049	76.9043	80.9736	76.9043	79.6835	76.9043	80.9101	76.9043	79.682	76.9043	80.8297	76.9043	79.6994	76.9043	80.7363	76.9043	79.7346	76.9043	80.634	76.9043	79.7856	76.9043	80.5269	76.9043	79.8503	76.9043	80.4182	76.9043	79.9267	76.9043	80.3106	76.9043	80.0126	76.9043	80.2061	76.9043	80.1062
79.834	81.227	79.834	81.1038	79.834	81.3431	79.834	80.9776	79.834	81.4478	79.834	80.8529	79.834	81.5373	79.834	80.7338	79.834	81.6081	79.834	80.624	79.834	81.6573	79.834	80.5272	79.834	81.6829	79.834	80.4462	79.834	81.684	79.834	80.3832	79.834	81.6606	79.834	80.3399	79.834	81.6142	79.834	80.3169	79.834	81.5475	79.834	80.3142	79.834	81.4641	79.834	80.3308	79.834	81.3682	79.834	80.3654	79.834	81.264	79.834	80.416	79.834	81.1556	79.834	80.4803	79.834	81.0463	79.834	80.5563	79.834	80.9385	79.834	80.6417	79.834	80.8343	79.834	80.7349
82.7637	81.7834	82.7637	81.6598	82.7637	81.8999	82.7637	81.5335	82.7637	82.0051	82.7637	81.4088	82.7637	82.0951	82.7637	81.2897	82.7637	82.1662	82.7637	81.1803	82.7637	82.2157	82.7637	81.0838	82.7637	82.2414	82.7637	81.0032	82.7637	82.2424	82.7637	80.9406	82.7637	82.2189	82.7637	80.8976	82.7637	82.1722	82.7637	80.8749	82.7637	82.1052	82.7637	80.8723	82.7637	82.0215	82.7637	80.889	82.7637	81.9254	82.7637	80.9235	82.7637	81.8211	82.7637	80.974	82.7637	81.7127	82.7637	81.0382	82.7637	81.6034	82.7637	81.114	82.7637	81.4957	82.7637	81.1993	82.7637	81.3916	82.7637	81.2923
85.6934	82.3094	85.6934	82.1851	85.6934	82.4269	85.6934	82.0582	85.6934	82.5331	85.6934	81.9334	85.6934	82.624	85.6934	81.8149	85.6934	82.6961	85.6934	81.7068	85.6934	82.7466	85.6934	81.6126	85.6934	82.7735	85.6934	81.5353	85.6934	82.776	85.6934	81.4771	85.6934	82.7544	85.6934	81.4393	85.6934	82.7105	85.6934	81.4225	85.6934	82.647	85.6934	81.4263	85.6934	82.5677	85.6934	81.4495	85.6934	82.4767	85.6934	81.4901	85.6934	82.3781	85.6934	81.546	85.6934	82.2756	85.6934	81.6145	85.6934	82.172	85.6934	81.6931	85.6934	82.0693	85.6934	81.7796	85.6934	81.969	85.6934	81.872
88.623	82.7914	88.623	82.6668	88.623	82.9088	88.623	82.5397	88.623	83.0148	88.623	82.4147	88.623	83.1053	88.623	82.2963	88.623	83.1768	88.623	82.1887	88.623	83.2265	88.623	82.0955	88.623	83.2526	88.623	82.0199	88.623	83.2545	88.623	81.9639	88.623	83.2327	88.623	81.9291	88.623	83.1892	88.623	81.9158	88.623	83.127	88.623	81.9234	88.623	83.0498	88.623	81.9504	88.623	82.9619	88.623	81.9947	88.623	82.8672	88.623	82.0537	88.623	82.7693	88.623	82.1244	88.623	82.6704	88.623	82.2042	88.623	82.5722	88.623	82.2905	88.623	82.4756	88.623	82.3814
91.5527	83.2618	91.5527	83.1373	91.5527	83.378	91.5527	83.0093	91.5527	83.4816	91.5527	82.8825	91.5527	83.5685	91.5527	82.7615	91.5527	83.6352	91.5527	82.6509	91.5527	83.6792	91.5527	82.5544	91.5527	83.6988	91.5527	82.4754	91.5527	83.6937	91.5527	82.4162	91.5527	83.6649	91.5527	82.3785	91.5527	83.6145	91.5527	82.3625	91.5527	83.5462	91.5527	82.3677	91.5527	83.4642	91.5527	82.3925	91.5527	83.3731	91.5527	82.4346	91.5527	83.2771	91.5527	82.4912	91.5527	83.1796	91.5527	82.5592	91.5527	83.0827	91.5527	82.6358	91.5527	82.9877	91.5527	82.7184	91.5527	82.8951	91.5527	82.8052
94.4824	83.7669	94.4824	83.6404	94.4824	83.8838	94.4824	83.5091	94.4824	83.9867	94.4824	83.3777	94.4824	84.0717	94.4824	83.2509	94.4824	84.1354	94.4824	83.1332	94.4824	84.1749	94.4824	83.0287	94.4824	84.1889	94.4824	82.9409	94.4824	84.1769	94.4824	82.8725	94.4824	84.1399	94.4824	82.8253	94.4824	84.0805	94.4824	82.8	94.4824	84.0023	94.4824	82.7964	94.4824	83.91	94.4824	82.8132	94.4824	83.8087	94.4824	82.8483	94.4824	83.703	94.4824	82.899	94.4824	83.5967	94.4824	82.9625	94.4824	83.4926	94.4824	83.0359	94.4824	83.3921	94.4824	83.1169	94.4824	83.2958	94.4824	83.2039
98.1445	84.1618	98.1445	84.0375	98.1445	84.278	98.1445	83.91	98.1445	84.3816	98.1445	83.7842	98.1445	84.4683	98.1445	83.6647	98.1445	84.5347	98.1445	83.556	98.1445	84.5781	98.1445	83.4621	98.1445	84.5968	98.1445	83.3861	98.1445	84.5906	98.1445	83.3302	98.1445	84.5606	98.1445	83.2957	98.1445	84.5092	98.1445	83.2828	98.1445	84.4403	98.1445	83.2907	98.1445	84.3585	98.1445	83.3175	98.1445	84.2684	98.1445	83.3608	98.1445	84.1744	98.1445	83.4176	98.1445	84.0799	98.1445	83.4847	98.1445	83.9869	98.1445	83.5593	98.1445	83.8962	98.1445	83.6391	98.1445	83.808	98.1445	83.7222
101.807	84.5363	101.807	84.4127	101.807	84.6516	101.807	84.2855	101.807	84.7537	101.807	84.1597	101.807	84.8387	101.807	84.0404	101.807	84.903	101.807	83.932	101.807	84.9441	101.807	83.8387	101.807	84.9606	101.807	83.7637	101.807	84.9524	101.807	83.7096	101.807	84.921	101.807	83.6775	101.807	84.8692	101.807	83.6675	101.807	84.8009	101.807	83.6788	101.807	84.7211	101.807	83.7092	101.807	84.6344	101.807	83.7558	101.807	84.5451	101.807	83.8154	101.807	84.4562	101.807	83.8844	101.807	84.3691	101.807	83.9596	101.807	84.2842	101.807	84.0385	101.807	84.2011	101.807	84.1192
105.469	84.8819	105.469	84.7571	105.469	84.9974	105.469	84.628	105.469	85.0984	105.469	84.4999	105.469	85.1808	105.469	84.3783	105.469	85.2411	105.469	84.2678	105.469	85.2766	105.469	84.1728	105.469	85.2863	105.469	84.0969	105.469	85.2704	105.469	84.0423	105.469	85.2309	105.469	84.0103	105.469	85.1713	105.469	84.0008	105.469	85.0964	105.469	84.0126	105.469	85.0116	105.469	84.0432	105.469	84.9224	105.469	84.0895	105.469	84.8333	105.469	84.1478	105.469	84.747	105.469	84.2145	105.469	84.6647	105.469	84.286	105.469	84.5861	105.469	84.3599	105.469	84.5098	105.469	84.4346
109.131	85.2345	109.131	85.1049	109.131	85.3539	109.131	84.9705	109.131	85.458	109.131	84.8371	109.131	85.5423	109.131	84.71	109.131	85.6031	109.131	84.5946	109.131	85.6378	109.131	84.4953	109.131	85.6451	109.131	84.4158	109.131	85.6254	109.131	84.3586	109.131	85.5807	109.131	84.325	109.131	85.5148	109.131	84.3146	109.131	85.4329	109.131	84.3261	109.131	85.3409	109.131	84.3567	109.131	85.245	109.131	84.403	109.131	85.15	109.131	84.4612	109.131	85.0594	109.131	84.5272	109.131	84.9744	109.131	84.5978	109.131	84.8945	109.131	84.6705	109.131	84.8183	109.131	84.744
112.793	85.4925	112.793	85.3593	112.793	85.6153	112.793	85.2213	112.793	85.7225	112.793	85.0843	112.793	85.8096	112.793	84.9541	112.793	85.8727	112.793	84.8363	112.793	85.9093	112.793	84.7355	112.793	85.9183	112.793	84.6556	112.793	85.8999	112.793	84.5994	112.793	85.8563	112.793	84.568	112.793	85.7914	112.793	84.5613	112.793	85.7105	112.793	84.5773	112.793	85.6197	112.793	84.6133	112.793	85.5249	112.793	84.6652	112.793	85.4313	112.793	84.729	112.793	85.342	112.793	84.8001	112.793	85.258	112.793	84.8751	112.793	85.1787	112.793	84.9511	112.793	85.1023	112.793	85.0269
116.455	85.6999	116.455	85.5654	116.455	85.8233	116.455	85.4257	116.455	85.9305	116.455	85.2866	116.455	86.0167	116.455	85.1543	116.455	86.0783	116.455	85.0343	116.455	86.1128	116.455	84.9318	116.455	86.119	116.455	84.8507	116.455	86.0975	116.455	84.794	116.455	86.0507	116.455	84.7628	116.455	85.9828	116.455	84.757	116.455	85.8995	116.455	84.7745	116.455	85.8072	116.455	84.8123	116.455	85.7121	116.455	84.8662	116.455	85.6194	116.455	84.9315	116.455	85.5321	116.455	85.0038	116.455	85.4509	116.455	85.079	116.455	85.3747	116.455	85.1543	116.455	85.3014	116.455	85.2284
120.85	85.8819	120.85	85.746	120.85	86.0062	120.85	85.6047	120.85	86.1137	120.85	85.4639	120.85	86.1996	120.85	85.3298	120.85	86.2602	120.85	85.2084	120.85	86.2931	120.85	85.1049	120.85	86.2971	120.85	85.0235	120.85	86.2729	120.85	84.967	120.85	86.2233	120.85	84.9369	120.85	86.1526	120.85	84.9326	120.85	86.0669	120.85	84.9521	120.85	85.9731	120.85	84.992	120.85	85.8775	120.85	85.0477	120.85	85.7855	120.85	85.1145	120.85	85.7	120.85	85.1874	120.85	85.6216	120.85	85.2623	120.85	85.5486	120.85	85.3364	120.85	85.4784	120.85	85.4083
125.244	86.0121	125.244	85.8723	125.244	86.1397	125.244	85.7266	125.244	86.2497	125.244	85.5814	125.244	86.3372	125.244	85.4433	125.244	86.3983	125.244	85.3184	125.244	86.4306	125.244	85.2122	125.244	86.4331	125.244	85.1293	125.244	86.4066	125.244	85.0726	125.244	86.3542	125.244	85.0435	125.244	86.2805	125.244	85.0413	125.244	86.192	125.244	85.0638	125.244	86.0959	125.244	85.1071	125.244	85.9991	125.244	85.1664	125.244	85.9068	125.244	85.2365	125.244	85.822	125.244	85.312	125.244	85.7449	125.244	85.3888	125.244	85.6735	125.244	85.4638	125.244	85.6048	125.244	85.5356
129.639	86.0932	129.639	85.9521	129.639	86.2211	129.639	85.8042	129.639	86.3301	129.639	85.6563	129.639	86.4152	129.639	85.5152	129.639	86.4727	129.639	85.3872	129.639	86.5	129.639	85.2783	129.639	86.4965	129.639	85.1931	129.639	86.4634	129.639	85.1348	129.639	86.4041	129.639	85.1046	129.639	86.3239	129.639	85.102	129.639	86.2301	129.639	85.1246	129.639	86.1305	129.639	85.1683	129.639	86.0322	129.639	85.228	129.639	85.9407	129.639	85.2982	129.639	85.8587	129.639	85.3733	129.639	85.7858	129.639	85.4489	129.639	85.7193	129.639	85.5217	129.639	85.6553	129.639	85.5903
134.033	86.1852	134.033	86.039	134.033	86.3175	134.033	85.8856	134.033	86.4298	134.033	85.7321	134.033	86.5168	134.033	85.5858	134.033	86.5746	134.033	85.4537	134.033	86.6008	134.033	85.3419	134.033	86.5945	134.033	85.2553	134.033	86.5572	134.033	85.1971	134.033	86.4924	134.033	85.1687	134.033	86.4062	134.033	85.1691	134.033	86.3063	134.033	85.1954	134.033	86.2012	134.033	85.243	134.033	86.0989	134.033	85.3062	134.033	86.0054	134.033	85.379	134.033	85.9234	134.033	85.4555	134.033	85.8524	134.033	85.531	134.033	85.7893	134.033	85.6022	134.033	85.7292	134.033	85.6679
138.428	86.2094	138.428	86.0602	138.428	86.3437	138.428	85.9032	138.428	86.457	138.428	85.7457	138.428	86.544	138.428	85.5953	138.428	86.6006	138.428	85.4592	138.428	86.6244	138.428	85.3441	138.428	86.6146	138.428	85.2551	138.428	86.5728	138.428	85.1956	138.428	86.5028	138.428	85.1669	138.428	86.411	138.428	85.168	138.428	86.3055	138.428	85.1956	138.428	86.1954	138.428	85.2449	138.428	86.0895	138.428	85.3095	138.428	85.9938	138.428	85.3832	138.428	85.9116	138.428	85.4598	138.428	85.8419	138.428	85.5342	138.428	85.7813	138.428	85.6034	138.428	85.7244	138.428	85.6663
143.555	86.1897	143.555	86.0331	143.555	86.3309	143.555	85.8682	143.555	86.4502	143.555	85.7029	143.555	86.542	143.555	85.5454	143.555	86.6022	143.555	85.4032	143.555	86.6282	143.555	85.2834	143.555	86.6193	143.555	85.1915	143.555	86.577	143.555	85.1312	143.555	86.5053	143.555	85.1037	143.555	86.4108	143.555	85.1077	143.555	86.3018	143.555	85.1397	143.555	86.188	143.555	85.194	143.555	86.0781	143.555	85.2642	143.555	85.9791	143.555	85.3432	143.555	85.8939	143.555	85.4245	143.555	85.822	143.555	85.503	143.555	85.7595	143.555	85.5754	143.555	85.7008	143.555	85.6408
148.682	86.1786	148.682	86.0162	148.682	86.3241	148.682	85.8446	148.682	86.4462	148.682	85.672	148.682	86.5393	148.682	85.5071	148.682	86.5994	148.682	85.3581	148.682	86.624	148.682	85.2326	148.682	86.6126	148.682	85.1369	148.682	86.5671	148.682	85.075	148.682	86.4919	148.682	85.0481	148.682	86.3939	148.682	85.055	148.682	86.2821	148.682	85.0916	148.682	86.1665	148.682	85.1518	148.682	86.0562	148.682	85.2283	148.682	85.9578	148.682	85.3136	148.682	85.8744	148.682	85.4005	148.682	85.8045	148.682	85.4835	148.682	85.7438	148.682	85.5591	148.682	85.6863	148.682	85.6261
153.809	86.1212	153.809	85.9567	153.809	86.2673	153.809	85.7816	153.809	86.3886	153.809	85.6043	153.809	86.4796	153.809	85.4336	153.809	86.5362	153.809	85.2785	153.809	86.5562	153.809	85.147	153.809	86.5395	153.809	85.0457	153.809	86.4881	153.809	84.9791	153.809	86.4068	153.809	84.949	153.809	86.3031	153.809	84.954	153.809	86.1865	153.809	84.9901	153.809	86.0673	153.809	85.0509	153.809	85.955	153.809	85.1288	153.809	85.8563	153.809	85.2158	153.809	85.7737	153.809	85.3043	153.809	85.7055	153.809	85.3886	153.809	85.6467	153.809	85.4647	153.809	85.5908	153.809	85.5315
159.668	86.1438	159.668	85.9726	159.668	86.2953	159.668	85.7898	159.668	86.4201	159.668	85.6041	159.668	86.5128	159.668	85.4252	159.668	86.5694	159.668	85.2626	159.668	86.5878	159.668	85.1253	159.668	86.5679	159.668	85.0205	159.668	86.5122	159.668	84.9533	159.668	86.4261	159.668	84.9256	159.668	86.3176	159.668	84.9358	159.668	86.1971	159.668	84.9792	159.668	86.0757	159.668	85.0488	159.668	85.9634	159.668	85.1358	159.668	85.8668	159.668	85.2312	159.668	85.7883	159.668	85.3269	159.668	85.7252	159.668	85.4163	159.668	85.6714	159.668	85.4952	159.668	85.6194	159.668	85.5623
164.795	86.1475	164.795	85.9777	164.795	86.2964	164.795	85.7949	164.795	86.4177	164.795	85.608	164.795	86.5059	164.795	85.4266	164.795	86.5573	164.795	85.2603	164.795	86.5697	164.795	85.1185	164.795	86.5435	164.795	85.0088	164.795	86.4813	164.795	84.9367	164.795	86.3889	164.795	84.9045	164.795	86.2748	164.795	84.9112	164.795	86.1499	164.795	84.9522	164.795	86.0256	164.795	85.0203	164.795	85.9125	164.795	85.1067	164.795	85.8172	164.795	85.2021	164.795	85.7416	164.795	85.2978	164.795	85.6823	164.795	85.3869	164.795	85.6326	164.795	85.4648	164.795	85.5843	164.795	85.53
170.654	86.0554	170.654	85.8833	170.654	86.2059	170.654	85.6982	170.654	86.3278	170.654	85.5092	170.654	86.4153	170.654	85.3266	170.654	86.4646	170.654	85.1607	170.654	86.4735	170.654	85.0209	170.654	86.4424	170.654	84.9154	170.654	86.3745	170.654	84.8497	170.654	86.2763	170.654	84.8257	170.654	86.1572	170.654	84.8417	170.654	86.0291	170.654	84.8924	170.654	85.905	170.654	84.9697	170.654	85.7958	170.654	85.0638	170.654	85.7084	170.654	85.1646	170.654	85.644	170.654	85.2629	170.654	85.5981	170.654	85.3513	170.654	85.5622	170.654	85.4251	170.654	85.5267	170.654	85.4829
176.514	85.9543	176.514	85.7745	176.514	86.1109	176.514	85.5799	176.514	86.2366	176.514	85.3807	176.514	86.3258	176.514	85.1876	176.514	86.3742	176.514	85.0115	176.514	86.3798	176.514	84.863	176.514	86.3428	176.514	84.7509	176.514	86.2667	176.514	84.6812	176.514	86.1582	176.514	84.6562	176.514	86.0273	176.514	84.6739	176.514	85.8872	176.514	84.7283	176.514	85.7518	176.514	84.8103	176.514	85.6336	176.514	84.9091	176.514	85.5406	176.514	85.0138	176.514	85.4743	176.514	85.1142	176.514	85.4298	176.514	85.2028	176.514	85.3978	176.514	85.2745	176.514	85.3673	176.514	85.3284
183.105	85.8605	183.105	85.6721	183.105	86.0232	183.105	85.4667	183.105	86.153	183.105	85.2541	183.105	86.2443	183.105	85.0457	183.105	86.2932	183.105	84.8531	183.105	86.2978	183.105	84.6877	183.105	86.2586	183.105	84.5598	183.105	86.1789	183.105	84.4765	183.105	86.0658	183.105	84.4413	183.105	85.9292	183.105	84.4527	183.105	85.7824	183.105	84.5048	183.105	85.6394	183.105	84.5881	183.105	85.5129	183.105	84.6912	183.105	85.4109	183.105	84.8021	183.105	85.3352	183.105	84.9101	183.105	85.2811	183.105	85.007	183.105	85.2393	183.105	85.0877	183.105	85.1991	183.105	85.1508
189.697	85.8063	189.697	85.6255	189.697	85.9604	189.697	85.4267	189.697	86.0805	189.697	85.2199	189.697	86.1611	189.697	85.016	189.697	86.1983	189.697	84.8264	189.697	86.1903	189.697	84.6624	189.697	86.1382	189.697	84.5338	189.697	86.0461	189.697	84.448	189.697	85.9218	189.697	84.4085	189.697	85.7769	189.697	84.4144	189.697	85.6259	189.697	84.4604	189.697	85.4839	189.697	84.5376	189.697	85.3636	189.697	84.6351	189.697	85.2724	189.697	84.741	189.697	85.2102	189.697	84.8448	189.697	85.1701	189.697	84.9376	189.697	85.1411	189.697	85.0137	189.697	85.1114	189.697	85.071
196.289	85.7363	196.289	85.5513	196.289	85.8934	196.289	85.3481	196.289	86.0151	196.289	85.1372	196.289	86.0951	196.289	84.9307	196.289	86.1294	196.289	84.7411	196.289	86.116	196.289	84.5802	196.289	86.0561	196.289	84.4584	196.289	85.954	196.289	84.3828	196.289	85.8182	196.289	84.3562	196.289	85.6617	196.289	84.3762	196.289	85.5005	196.289	84.4358	196.289	85.3519	196.289	84.5245	196.289	85.2307	196.289	84.6299	196.289	85.1451	196.289	84.7392	196.289	85.095	196.289	84.8413	196.289	85.0721	196.289	84.9273	196.289	85.0633	196.289	84.9917	196.289	85.0542	196.289	85.0329
202.881	85.6485	202.881	85.455	202.881	85.8121	202.881	85.2413	202.881	85.9378	202.881	85.0186	202.881	86.0194	202.881	84.7997	202.881	86.0528	202.881	84.5981	202.881	86.0361	202.881	84.4268	202.881	85.9703	202.881	84.2975	202.881	85.86	202.881	84.2182	202.881	85.714	202.881	84.1919	202.881	85.546	202.881	84.216	202.881	85.373	202.881	84.2825	202.881	85.214	202.881	84.3795	202.881	85.0849	202.881	84.493	202.881	84.9953	202.881	84.6091	202.881	84.9452	202.881	84.7156	202.881	84.9258	202.881	84.8032	202.881	84.9225	202.881	84.8664	202.881	84.9196	202.881	84.9039
210.205	85.5367	210.205	85.3453	210.205	85.697	210.205	85.1319	210.205	85.8185	210.205	84.9074	210.205	85.8952	210.205	84.6841	210.205	85.923	210.205	84.4751	210.205	85.9002	210.205	84.2937	210.205	85.8278	210.205	84.1523	210.205	85.7105	210.205	84.0598	210.205	85.5577	210.205	84.0208	210.205	85.3832	210.205	84.0341	210.205	85.205	210.205	84.0925	210.205	85.0424	210.205	84.1846	210.205	84.9115	210.205	84.2963	210.205	84.8216	210.205	84.4132	210.205	84.7718	210.205	84.5225	210.205	84.7524	210.205	84.6141	210.205	84.7481	210.205	84.6817	210.205	84.7429	210.205	84.7236
217.529	85.4143	217.529	85.2159	217.529	85.582	217.529	84.9974	217.529	85.7102	217.529	84.7709	217.529	85.7919	217.529	84.5498	217.529	85.8225	217.529	84.3482	217.529	85.7997	217.529	84.1796	217.529	85.7246	217.529	84.0557	217.529	85.6024	217.529	83.9844	217.529	85.4432	217.529	83.9682	217.529	85.2625	217.529	84.0037	217.529	85.0802	217.529	84.0818	217.529	84.9176	217.529	84.1894	217.529	84.7928	217.529	84.3118	217.529	84.7152	217.529	84.4341	217.529	84.6832	217.529	84.5436	217.529	84.6849	217.529	84.6303	217.529	84.7024	217.529	84.6883	217.529	84.7178	217.529	84.7162
225.586	85.3659	225.586	85.1566	225.586	85.5387	225.586	84.9217	225.586	85.666	225.586	84.6744	225.586	85.7408	225.586	84.4295	225.586	85.7587	225.586	84.2029	225.586	85.7176	225.586	84.0109	225.586	85.6191	225.586	83.8677	225.586	85.4694	225.586	83.7835	225.586	85.2803	225.586	83.7622	225.586	85.0697	225.586	83.8001	225.586	84.861	225.586	83.887	225.586	84.6795	225.586	84.0074	225.586	84.5464	225.586	84.1436	225.586	84.4723	225.586	84.2784	225.586	84.4537	225.586	84.3967	225.586	84.4751	225.586	84.4873	225.586	84.5142	225.586	84.543	225.586	84.549	225.586	84.5622
232.91	85.426	232.91	85.2125	232.91	85.6022	232.91	84.9728	232.91	85.7317	232.91	84.7197	232.91	85.8072	232.91	84.468	232.91	85.8231	232.91	84.2332	232.91	85.7766	232.91	84.0313	232.91	85.6678	232.91	83.8767	232.91	85.5015	232.91	83.7798	232.91	85.2881	232.91	83.7449	232.91	85.0453	232.91	83.7688	232.91	84.7975	232.91	83.8414	232.91	84.5734	232.91	83.947	232.91	84.3993	232.91	84.0678	232.91	84.2919	232.91	84.1858	232.91	84.2522	232.91	84.2858	232.91	84.2659	232.91	84.3563	232.91	84.3094	232.91	84.3909	232.91	84.3575	232.91	84.3892
241.699	85.1275	241.699	84.8905	241.699	85.3292	241.699	84.6313	241.699	85.4848	241.699	84.3646	241.699	85.5857	241.699	84.1069	241.699	85.6254	241.699	83.8751	241.699	85.6004	241.699	83.6851	241.699	85.5102	241.699	83.5499	241.699	85.3585	241.699	83.4773	241.699	85.1545	241.699	83.4682	241.699	84.9145	241.699	83.5156	241.699	84.6612	241.699	83.6065	241.699	84.4226	241.699	83.7235	241.699	84.2264	241.699	83.8482	241.699	84.0923	241.699	83.9635	241.699	84.0263	241.699	84.0555	241.699	84.0188	241.699	84.1152	241.699	84.0491	241.699	84.1386	241.699	84.0929	241.699	84.1281
249.756	85.2202	249.756	84.9572	249.756	85.4378	249.756	84.661	249.756	85.6009	249.756	84.3464	249.756	85.7026	249.756	84.0314	249.756	85.7387	249.756	83.7366	249.756	85.707	249.756	83.4832	249.756	85.6087	249.756	83.2907	249.756	85.4484	249.756	83.173	249.756	85.236	249.756	83.135	249.756	84.9875	249.756	83.171	249.756	84.725	249.756	83.2658	249.756	84.4751	249.756	83.3982	249.756	84.2632	249.756	83.5457	249.756	84.1076	249.756	83.6877	249.756	84.0139	249.756	83.8085	249.756	83.9735	249.756	83.8982	249.756	83.9681	249.756	83.9529	249.756	83.9756	249.756	83.9757
258.545	85.1621	258.545	84.9207	258.545	85.3634	258.545	84.6511	258.545	85.5149	258.545	84.3673	258.545	85.609	258.545	84.0854	258.545	85.6404	258.545	83.8226	258.545	85.6063	258.545	83.5966	258.545	85.5071	258.545	83.4233	258.545	85.347	258.545	83.3142	258.545	85.1359	258.545	83.2737	258.545	84.89	258.545	83.2977	258.545	84.6318	258.545	83.3742	258.545	84.3883	258.545	83.4856	258.545	84.1854	258.545	83.612	258.545	84.041	258.545	83.7347	258.545	83.9596	258.545	83.8386	258.545	83.9318	258.545	83.9139	258.545	83.9383	258.545	83.9563	258.545	83.957	258.545	83.9679
268.066	84.9082	268.066	84.6173	268.066	85.1559	268.066	84.2978	268.066	85.3487	268.066	83.9676	268.066	85.4785	268.066	83.6471	268.066	85.5395	268.066	83.3576	268.066	85.5287	268.066	83.1191	268.066	85.446	268.066	82.9476	268.066	85.2945	268.066	82.8514	268.066	85.082	268.066	82.83	268.066	84.822	268.066	82.8735	268.066	84.5348	268.066	82.9649	268.066	84.2463	268.066	83.0837	268.066	83.9847	268.066	83.2091	268.066	83.7738	268.066	83.3236	268.066	83.6272	268.066	83.4144	268.066	83.5439	268.066	83.4749	268.066	83.5107	268.066	83.505	268.066	83.5071	268.066	83.5114
277.588	84.9279	277.588	84.6587	277.588	85.1501	277.588	84.3541	277.588	85.3175	277.588	84.0309	277.588	85.426	277.588	83.7101	277.588	85.4743	277.588	83.4167	277.588	85.4635	277.588	83.1759	277.588	85.3971	277.588	83.0089	277.588	85.2807	277.588	82.9278	277.588	85.1229	277.588	82.9316	277.588	84.9348	277.588	83.007	277.588	84.7301	277.588	83.1318	277.588	84.524	277.588	83.2804	277.588	84.3314	277.588	83.4293	277.588	84.1645	277.588	83.5605	277.588	84.0315	277.588	83.6633	277.588	83.935	277.588	83.7348	277.588	83.872	277.588	83.7795	277.588	83.8338	277.588	83.8079
287.109	84.6009	287.109	84.325	287.109	84.8235	287.109	84.0069	287.109	84.9874	287.109	83.6642	287.109	85.0917	287.109	83.322	287.109	85.1396	287.109	83.0113	287.109	85.1377	287.109	82.7654	287.109	85.0953	287.109	82.6126	287.109	85.024	287.109	82.5673	287.109	84.9364	287.109	82.6249	287.109	84.8438	287.109	82.7631	287.109	84.7542	287.109	82.9501	287.109	84.6702	287.109	83.1533	287.109	84.5887	287.109	83.3469	287.109	84.5033	287.109	83.5156	287.109	84.4087	287.109	83.6551	287.109	84.3033	287.109	83.7705	287.109	84.1912	287.109	83.8727	287.109	84.0794	287.109	83.9733
297.363	84.5368	297.363	84.2918	297.363	84.7075	297.363	83.9789	297.363	84.8008	297.363	83.6095	297.363	84.8174	297.363	83.2017	297.363	84.7615	297.363	82.7821	297.363	84.6422	297.363	82.3868	297.363	84.4751	297.363	82.0588	297.363	84.2842	297.363	81.8397	297.363	84.1022	297.363	81.7577	297.363	83.9659	297.363	81.8176	297.363	83.9059	297.363	81.9994	297.363	83.9332	297.363	82.2682	297.363	84.0312	297.363	82.5866	297.363	84.1614	297.363	82.9233	297.363	84.278	297.363	83.2556	297.363	84.3427	297.363	83.5674	297.363	84.3327	297.363	83.8451	297.363	84.2414	297.363	84.0747
307.617	84.7471	307.617	84.5252	307.617	84.9083	307.617	84.2502	307.617	85.0029	307.617	83.9326	307.617	85.0266	307.617	83.5863	307.617	84.9774	307.617	83.23	307.617	84.8559	307.617	82.8885	307.617	84.6674	307.617	82.5909	307.617	84.4239	307.617	82.3673	307.617	84.1472	307.617	82.2418	307.617	83.87	307.617	82.2251	307.617	83.6321	307.617	82.3106	307.617	83.4707	307.617	82.4765	307.617	83.4047	307.617	82.6928	307.617	83.4255	307.617	82.9286	307.617	83.5003	307.617	83.1573	307.617	83.5873	307.617	83.3582	307.617	83.65	307.617	83.5159	307.617	83.6644	307.617	83.62
318.604	84.5635	318.604	84.3628	318.604	84.7183	318.604	84.1238	318.604	84.8203	318.604	83.8552	318.604	84.8643	318.604	83.5671	318.604	84.8466	318.604	83.2723	318.604	84.7664	318.604	82.9868	318.604	84.6268	318.604	82.7295	318.604	84.4361	318.604	82.5205	318.604	84.2093	318.604	82.3768	318.604	83.9684	318.604	82.3074	318.604	83.7394	318.604	82.311	318.604	83.5465	318.604	82.3753	318.604	83.4041	318.604	82.4813	318.604	83.3118	318.604	82.6086	318.604	83.256	318.604	82.7397	318.604	83.2172	318.604	82.8623	318.604	83.178	318.604	82.9693	318.604	83.1266	318.604	83.0576
329.59	83.7216	329.59	83.5662	329.59	83.8766	329.59	83.4225	329.59	84.0186	329.59	83.2988	329.59	84.1368	329.59	83.1976	329.59	84.2248	329.59	83.1162	329.59	84.2807	329.59	83.0482	329.59	84.3076	329.59	82.9875	329.59	84.3119	329.59	82.9297	329.59	84.3017	329.59	82.8744	329.59	84.284	329.59	82.8238	329.59	84.2612	329.59	82.7825	329.59	84.2296	329.59	82.756	329.59	84.1794	329.59	82.7501	329.59	84.0988	329.59	82.7706	329.59	83.9788	329.59	82.8242	329.59	83.8184	329.59	82.9166	329.59	83.6266	329.59	83.0505	329.59	83.4209	329.59	83.2226
341.309	78.9016	341.309	78.6807	341.309	79.2258	341.309	78.692	341.309	79.5655	341.309	79.0324	341.309	79.8949	341.309	79.6883	341.309	80.2405	341.309	80.5419	341.309	80.6591	341.309	81.452	341.309	81.2064	341.309	82.3155	341.309	81.9035	341.309	83.0775	341.309	82.7204	341.309	83.7193	341.309	83.5893	341.309	84.2437	341.309	84.4332	341.309	84.6657	341.309	85.1872	341.309	85.0066	341.309	85.8076	341.309	85.2906	341.309	86.2711	341.309	85.5411	341.309	86.5716	341.309	85.778	341.309	86.7172	341.309	86.0125	341.309	86.7274	341.309	86.244	341.309	86.6303	341.309	86.4584
353.76	85.1984	353.76	84.632	353.76	85.4699	353.76	83.7428	353.76	85.4596	353.76	82.4926	353.76	85.1643	353.76	80.8572	353.76	84.5623	353.76	78.9389	353.76	83.6104	353.76	77.3319	353.76	82.2455	353.76	77.2895	353.76	80.4243	353.76	78.9244	353.76	78.3665	353.76	81.0017	353.76	77.3249	353.76	82.8627	353.76	78.7565	353.76	84.3916	353.76	81.3238	353.76	85.6206	353.76	83.6563	353.76	86.6013	353.76	85.4787	353.76	87.3767	353.76	86.8259	353.76	87.9761	353.76	87.7708	353.76	88.4146	353.76	88.3793	353.76	88.6933	353.76	88.7068	353.76	88.7993
366.211	86.7311	366.211	86.3417	366.211	86.9383	366.211	85.7593	366.211	86.9685	366.211	84.97	366.211	86.8194	366.211	83.9632	366.211	86.4804	366.211	82.7485	366.211	85.931	366.211	81.3994	366.211	85.1406	366.211	80.14	366.211	84.0722	366.211	79.4062	366.211	82.7048	366.211	79.5784	366.211	81.1162	366.211	80.5133	366.211	79.7145	366.211	81.7456	366.211	79.3737	366.211	82.9473	366.211	80.4274	366.211	83.9861	366.211	82.0614	366.211	84.8281	366.211	83.5728	366.211	85.4724	366.211	84.7382	366.211	85.9227	366.211	85.5407	366.211	86.1759	366.211	86.0184	366.211	86.217
378.662	86.8496	378.662	86.4853	378.662	87.0574	378.662	85.9581	378.662	87.1108	378.662	85.2599	378.662	87.0066	378.662	84.3861	378.662	86.7344	378.662	83.3479	378.662	86.276	378.662	82.1983	378.662	85.6039	378.662	81.0789	378.662	84.6843	378.662	80.2597	378.662	83.4894	378.662	80.0461	378.662	82.0463	378.662	80.5049	378.662	80.578	378.662	81.3895	378.662	79.7058	378.662	82.3975	378.662	80.0671	378.662	83.3428	378.662	81.3399	378.662	84.1442	378.662	82.7593	378.662	84.7724	378.662	83.9327	378.662	85.2158	378.662	84.7661	378.662	85.4621	378.662	85.2725	378.662	85.4913
392.578	86.4041	392.578	86.0694	392.578	86.5987	392.578	85.5865	392.578	86.657	392.578	84.9464	392.578	86.577	392.578	84.1438	392.578	86.35	392.578	83.1881	392.578	85.9594	392.578	82.1247	392.578	85.3801	392.578	81.0704	392.578	84.5812	392.578	80.2449	392.578	83.5345	392.578	79.9121	392.578	82.2478	392.578	80.1783	392.578	80.8534	392.578	80.882	392.578	79.7677	392.578	81.7591	392.578	79.6057	392.578	82.616	392.578	80.4406	392.578	83.354	392.578	81.6753	392.578	83.9304	392.578	82.8148	392.578	84.3252	392.578	83.6749	392.578	84.5221	392.578	84.2285	392.578	84.4996
405.762	86.4519	405.762	86.1159	405.762	86.6477	405.762	85.6297	405.762	86.7074	405.762	84.9798	405.762	86.6284	405.762	84.1536	405.762	86.4011	405.762	83.1502	405.762	86.0077	405.762	82.0036	405.762	85.4225	405.762	80.8273	405.762	84.613	405.762	79.8695	405.762	83.549	405.762	79.4699	405.762	82.2352	405.762	79.7867	405.762	80.8052	405.762	80.6141	405.762	79.6954	405.762	81.6177	405.762	79.5584	405.762	82.5732	405.762	80.4542	405.762	83.3792	405.762	81.7398	405.762	83.9995	405.762	82.9089	405.762	84.4206	405.762	83.7841	405.762	84.6319	405.762	84.3441	405.762	84.6154
420.41	86.8201	420.41	86.5007	420.41	87.0022	420.41	86.0314	420.41	87.0529	420.41	85.3946	420.41	86.971	420.41	84.5713	420.41	86.7471	420.41	83.5481	420.41	86.3625	420.41	82.3359	420.41	85.7883	420.41	81.0103	420.41	84.9847	420.41	79.7875	420.41	83.9061	420.41	79.06	420.41	82.5232	420.41	79.1518	420.41	80.9005	420.41	79.9362	420.41	79.4053	420.41	81.0026	420.41	78.8475	420.41	82.0431	420.41	79.616	420.41	82.9203	420.41	81.0005	420.41	83.5884	420.41	82.3021	420.41	84.0344	420.41	83.2788	420.41	84.2492	420.41	83.9056	420.41	84.216
435.059	87.1367	435.059	86.8604	435.059	87.2773	435.059	86.4292	435.059	87.2912	435.059	85.8146	435.059	87.1767	435.059	84.9813	435.059	86.9212	435.059	83.8913	435.059	86.5006	435.059	82.5154	435.059	85.8772	435.059	80.8715	435.059	84.9986	435.059	79.1413	435.059	83.7994	435.059	77.8914	435.059	82.2219	435.059	77.8857	435.059	80.3167	435.059	79.0273	435.059	78.5901	435.059	80.5284	435.059	78.2708	435.059	81.9053	435.059	79.6218	435.059	83.017	435.059	81.398	435.059	83.8496	435.059	82.8653	435.059	84.4159	435.059	83.8868	435.059	84.7228	435.059	84.4983	435.059	84.7604
450.439	87.7713	450.439	87.5783	450.439	87.8753	450.439	87.2736	450.439	87.8984	450.439	86.8212	450.439	87.8336	450.439	86.1747	450.439	87.66	450.439	85.2785	450.439	87.3437	450.439	84.0665	450.439	86.8349	450.439	82.4567	450.439	86.0627	450.439	80.3535	450.439	84.923	450.439	77.7176	450.439	83.2543	450.439	75.0549	450.439	80.7856	450.439	74.4585	450.439	77.0455	450.439	76.4813	450.439	72.1309	450.439	78.865	450.439	73.2848	450.439	80.7622	450.439	77.7449	450.439	82.1416	450.439	80.6497	450.439	83.072	450.439	82.3842	450.439	83.5921	450.439	83.3309	450.439	83.6962
466.553	87.0611	466.553	86.8991	466.553	87.2246	466.553	86.7326	466.553	87.3759	466.553	86.533	466.553	87.4895	466.553	86.2552	466.553	87.536	466.553	85.8472	466.553	87.4854	466.553	85.2594	466.553	87.3049	466.553	84.4488	466.553	86.9552	466.553	83.3817	466.553	86.3847	466.553	82.0379	466.553	85.5247	466.553	80.4324	466.553	84.2826	466.553	78.6795	466.553	82.5302	466.553	77.1252	466.553	80.084	466.553	76.3464	466.553	76.7225	466.553	76.5655	466.553	72.7851	466.553	77.2843	466.553	71.8721	466.553	77.9172	466.553	74.4445	466.553	78.137	466.553	76.5892	466.553	77.7554
482.666	86.1468	482.666	85.909	482.666	86.3511	482.666	85.6517	482.666	86.5014	482.666	85.375	482.666	86.5785	482.666	85.0616	482.666	86.5671	482.666	84.6822	482.666	86.455	482.666	84.2058	482.666	86.2293	482.666	83.6124	482.666	85.8736	482.666	82.9044	482.666	85.366	482.666	82.1173	482.666	84.6814	482.666	81.3289	482.666	83.7982	482.666	80.6552	482.666	82.7128	482.666	80.212	482.666	81.4686	482.666	80.0453	482.666	80.2069	482.666	80.0902	482.666	79.2062	482.666	80.2094	482.666	78.7678	482.666	80.2642	482.666	78.9212	482.666	80.1575	482.666	79.3838	482.666	79.8505
500.244	86.4466	500.244	86.1757	500.244	86.6558	500.244	85.8606	500.244	86.7816	500.244	85.5065	500.244	86.8045	500.244	85.1028	500.244	86.7093	500.244	84.627	500.244	86.4838	500.244	84.0566	500.244	86.115	500.244	83.3836	500.244	85.5867	500.244	82.6299	500.244	84.8821	500.244	81.8617	500.244	83.9938	500.244	81.1933	500.244	82.9468	500.244	80.7585	500.244	81.8355	500.244	80.6377	500.244	80.857	500.244	80.796	500.244	80.2636	500.244	81.1064	500.244	80.1786	500.244	81.427	500.244	80.4777	500.244	81.6528	500.244	80.9244	500.244	81.7236	500.244	81.3362	500.244	81.6161
517.822	86.1232	517.822	85.8407	517.822	86.3352	517.822	85.5143	517.822	86.4552	517.822	85.1668	517.822	86.4698	517.822	84.806	517.822	86.3717	517.822	84.4188	517.822	86.1563	517.822	83.9767	517.822	85.8184	517.822	83.4508	517.822	85.3496	517.822	82.8314	517.822	84.7392	517.822	82.1479	517.822	83.9784	517.822	81.4855	517.822	83.0712	517.822	80.9821	517.822	82.0567	517.822	80.7732	517.822	81.0465	517.822	80.8924	517.822	80.2589	517.822	81.2333	517.822	79.9502	517.822	81.6217	517.822	80.1898	517.822	81.9038	517.822	80.7605	517.822	81.9784	517.822	81.3624	517.822	81.7962
536.133	86.6344	536.133	86.2528	536.133	86.8633	536.133	85.75	536.133	86.9251	536.133	85.1727	536.133	86.8196	536.133	84.573	536.133	86.5583	536.133	83.9893	536.133	86.1616	536.133	83.4292	536.133	85.6572	536.133	82.8697	536.133	85.0773	536.133	82.2812	536.133	84.4542	536.133	81.6622	536.133	83.8095	536.133	81.0727	536.133	83.1415	536.133	80.6431	536.133	82.426	536.133	80.5207	536.133	81.6499	536.133	80.75	536.133	80.8848	536.133	81.2107	536.133	80.3501	536.133	81.6998	536.133	80.3055	536.133	82.0396	536.133	80.7485	536.133	82.1172	536.133	81.3774	536.133	81.8857
554.443	86.8417	554.443	86.5295	554.443	87.0042	554.443	86.0837	554.443	87.0105	554.443	85.5302	554.443	86.8618	554.443	84.9003	554.443	86.5638	554.443	84.2235	554.443	86.1244	554.443	83.5184	554.443	85.5532	554.443	82.7913	554.443	84.8634	554.443	82.0467	554.443	84.0788	554.443	81.311	554.443	83.2409	554.443	80.6582	554.443	82.4111	554.443	80.2128	554.443	81.6597	554.443	80.092	554.443	81.0494	554.443	80.3053	554.443	80.6341	554.443	80.7258	554.443	80.4659	554.443	81.1738	554.443	80.5671	554.443	81.5033	554.443	80.8756	554.443	81.631	554.443	81.2483	554.443	81.5337
574.219	87.2847	574.219	86.993	574.219	87.4087	574.219	86.5462	574.219	87.3605	574.219	85.9646	574.219	87.1425	574.219	85.2751	574.219	86.7639	574.219	84.5084	574.219	86.2417	574.219	83.6951	574.219	85.6028	574.219	82.8645	574.219	84.8892	574.219	82.0504	574.219	84.1574	574.219	81.3075	574.219	83.4658	574.219	80.7288	574.219	82.8442	574.219	80.4362	574.219	82.2758	574.219	80.5112	574.219	81.7319	574.219	80.9128	574.219	81.2564	574.219	81.4858	574.219	81.009	574.219	82.0491	574.219	81.1447	574.219	82.4604	574.219	81.6031	574.219	82.6296	574.219	82.1357	574.219	82.5152
594.727	87.6658	594.727	87.4341	594.727	87.7381	594.727	87.059	594.727	87.6413	594.727	86.5603	594.727	87.3741	594.727	85.9578	594.727	86.9448	594.727	85.2674	594.727	86.3731	594.727	84.4981	594.727	85.6939	594.727	83.6519	594.727	84.9606	594.727	82.7309	594.727	84.2375	594.727	81.7593	594.727	83.5705	594.727	80.8277	594.727	82.9478	594.727	80.1414	594.727	82.3019	594.727	79.9701	594.727	81.5935	594.727	80.4083	594.727	80.9501	594.727	81.2317	594.727	80.711	594.727	82.1023	594.727	81.1059	594.727	82.7759	594.727	81.8921	594.727	83.1206	594.727	82.6369	594.727	83.0758
615.234	87.442	615.234	87.1001	615.234	87.6086	615.234	86.611	615.234	87.5799	615.234	86.0081	615.234	87.3438	615.234	85.3259	615.234	86.8977	615.234	84.5947	615.234	86.2519	615.234	83.8376	615.234	85.4426	615.234	83.0688	615.234	84.5504	615.234	82.2949	615.234	83.7129	615.234	81.5237	615.234	83.0808	615.234	80.79	615.234	82.7007	615.234	80.1948	615.234	82.4523	615.234	79.9168	615.234	82.1639	615.234	80.1061	615.234	81.7902	615.234	80.7084	615.234	81.4937	615.234	81.4739	615.234	81.5172	615.234	82.1401	615.234	81.881	615.234	82.5379	615.234	82.3302	615.234	82.5949
637.207	87.443	637.207	87.0756	637.207	87.6423	637.207	86.5656	637.207	87.6529	637.207	85.942	637.207	87.4613	637.207	85.2349	637.207	87.0632	637.207	84.4738	637.207	86.4654	637.207	83.6844	637.207	85.6904	637.207	82.8832	637.207	84.7844	637.207	82.0722	637.207	83.8283	637.207	81.2441	637.207	82.9336	637.207	80.4137	637.207	82.1947	637.207	79.6811	637.207	81.6197	637.207	79.2838	637.207	81.1523	637.207	79.4781	637.207	80.8141	637.207	80.2355	637.207	80.7861	637.207	81.2201	637.207	81.2036	637.207	82.0876	637.207	81.8876	637.207	82.6343	637.207	82.4913	637.207	82.7712
659.912	87.2966	659.912	86.9639	659.912	87.456	659.912	86.4906	659.912	87.4205	659.912	85.9131	659.912	87.1832	659.912	85.2623	659.912	86.7517	659.912	84.5593	659.912	86.1484	659.912	83.8197	659.912	85.4136	659.912	83.0619	659.912	84.6111	659.912	82.3068	659.912	83.8272	659.912	81.5658	659.912	83.1406	659.912	80.8372	659.912	82.5606	659.912	80.1413	659.912	81.998	659.912	79.5981	659.912	81.3462	659.912	79.4553	659.912	80.6584	659.912	79.8923	659.912	80.2829	659.912	80.748	659.912	80.584	659.912	81.6395	659.912	81.3646	659.912	82.2521	659.912	82.0895	659.912	82.4178
683.35	87.4759	683.35	87.1301	683.35	87.6234	683.35	86.6187	683.35	87.5537	683.35	85.9821	683.35	87.2619	683.35	85.2567	683.35	86.7553	683.35	84.4646	683.35	86.0534	683.35	83.6177	683.35	85.1948	683.35	82.7403	683.35	84.2573	683.35	81.8918	683.35	83.3767	683.35	81.1574	683.35	82.7155	683.35	80.6009	683.35	82.3433	683.35	80.2349	683.35	82.1527	683.35	80.0704	683.35	81.9664	683.35	80.1812	683.35	81.7241	683.35	80.641	683.35	81.5618	683.35	81.3657	683.35	81.6862	683.35	82.1086	683.35	82.0993	683.35	82.6229	683.35	82.551	683.35	82.7717
706.787	87.0381	706.787	86.6598	706.787	87.2175	706.787	86.1159	706.787	87.183	706.787	85.4596	706.787	86.9321	706.787	84.7526	706.787	86.468	706.787	84.0398	706.787	85.7985	706.787	83.3253	706.787	84.9457	706.787	82.5775	706.787	83.9704	706.787	81.7695	706.787	83.006	706.787	80.9245	706.787	82.2438	706.787	80.1351	706.787	81.7928	706.787	79.5432	706.787	81.5352	706.787	79.2974	706.787	81.2424	706.787	79.5104	706.787	80.8625	706.787	80.1846	706.787	80.6908	706.787	81.1399	706.787	81.0988	706.787	82.0825	706.787	81.9303	706.787	82.7482	706.787	82.6649	706.787	82.9651
731.689	87.1835	731.689	86.877	731.689	87.2704	731.689	86.3693	731.689	87.1382	731.689	85.7016	731.689	86.7978	731.689	84.9303	731.689	86.2606	731.689	84.108	731.689	85.5332	731.689	83.2643	731.689	84.6232	731.689	82.4076	731.689	83.5645	731.689	81.554	731.689	82.4642	731.689	80.7533	731.689	81.5349	731.689	80.0787	731.689	80.9863	731.689	79.5843	731.689	80.7836	731.689	79.3035	731.689	80.6574	731.689	79.3147	731.689	80.4305	731.689	79.734	731.689	80.2593	731.689	80.5273	731.689	80.5095	731.689	81.4182	731.689	81.2102	731.689	82.0702	731.689	81.9265	731.689	82.2603
758.057	87.5504	758.057	87.214	758.057	87.705	758.057	86.7128	758.057	87.6697	758.057	86.0738	758.057	87.4392	758.057	85.3271	758.057	87.0051	758.057	84.4882	758.057	86.3513	758.057	83.5405	758.057	85.4602	758.057	82.4391	758.057	84.3348	758.057	81.1519	758.057	83.0462	758.057	79.7408	758.057	81.7918	758.057	78.4602	758.057	80.858	758.057	77.7193	758.057	80.3751	758.057	77.7398	758.057	80.1797	758.057	78.3755	758.057	80.0843	758.057	79.3854	758.057	80.1438	758.057	80.5476	758.057	80.5696	758.057	81.6018	758.057	81.3425	758.057	82.2964	758.057	82.0984	758.057	82.4702
784.424	87.2683	784.424	86.9079	784.424	87.4366	784.424	86.4063	784.424	87.4028	784.424	85.8453	784.424	87.1823	784.424	85.2974	784.424	86.7905	784.424	84.7782	784.424	86.2209	784.424	84.2293	784.424	85.4453	784.424	83.5469	784.424	84.4429	784.424	82.6238	784.424	83.2656	784.424	81.3859	784.424	82.115	784.424	79.8524	784.424	81.2777	784.424	78.2736	784.424	80.7864	784.424	77.2686	784.424	80.3063	784.424	77.4025	784.424	79.5879	784.424	78.4321	784.424	78.9497	784.424	79.7372	784.424	79.1803	784.424	80.8946	784.424	80.2637	784.424	81.646	784.424	81.3214	784.424	81.8167
812.256	87.8174	812.256	87.4524	812.256	87.896	812.256	86.8284	812.256	87.7158	812.256	86.0399	812.256	87.336	812.256	85.2374	812.256	86.8133	812.256	84.5706	812.256	86.1713	812.256	84.0931	812.256	85.3928	812.256	83.7196	812.256	84.4471	812.256	83.2895	812.256	83.3499	812.256	82.6586	812.256	82.248	812.256	81.7479	812.256	81.4406	812.256	80.5666	812.256	81.1071	812.256	79.2653	812.256	80.9654	812.256	78.2666	812.256	80.5478	812.256	78.2307	812.256	79.7806	812.256	79.2752	812.256	79.4042	812.256	80.6543	812.256	80.1729	812.256	81.6502	812.256	81.3242	812.256	81.9063
840.82	87.9568	840.82	87.6952	840.82	87.9106	840.82	87.1143	840.82	87.6062	840.82	86.2648	840.82	87.1099	840.82	85.2745	840.82	86.4861	840.82	84.3252	840.82	85.7845	840.82	83.5598	840.82	85.0295	840.82	82.9753	840.82	84.2181	840.82	82.4339	840.82	83.3322	840.82	81.7713	840.82	82.3647	840.82	80.8858	840.82	81.3565	840.82	79.7975	840.82	80.4284	840.82	78.7364	840.82	79.7483	840.82	78.1966	840.82	79.3678	840.82	78.5716	840.82	79.1957	840.82	79.5864	840.82	79.2969	840.82	80.617	840.82	79.8643	840.82	81.23	840.82	80.683	840.82	81.2413
870.85	88.4828	870.85	88.2158	870.85	88.3557	870.85	87.5713	870.85	87.8584	870.85	86.6155	870.85	87.049	870.85	85.4721	870.85	86.0136	870.85	84.3143	870.85	84.8597	870.85	83.3191	870.85	83.714	870.85	82.5858	870.85	82.7258	870.85	82.0798	870.85	82.0452	870.85	81.6551	870.85	81.7368	870.85	81.121	870.85	81.6917	870.85	80.301	870.85	81.6621	870.85	79.1147	870.85	81.3756	870.85	77.842	870.85	80.6488	870.85	77.5366	870.85	79.6432	870.85	78.8563	870.85	79.2862	870.85	80.6454	870.85	80.2672	870.85	81.8668	870.85	81.562	870.85	82.1857
901.611	88.8247	901.611	88.5325	901.611	88.717	901.611	87.84	901.611	88.2522	901.611	86.8073	901.611	87.5009	901.611	85.5711	901.611	86.5455	901.611	84.3358	901.611	85.461	901.611	83.2932	901.611	84.2996	901.611	82.5032	901.611	83.0983	901.611	81.877	901.611	81.9266	901.611	81.2922	901.611	80.964	901.611	80.6898	901.611	80.4753	901.611	80.0813	901.611	80.5011	901.611	79.5161	901.611	80.6513	901.611	79.1078	901.611	80.4466	901.611	79.1033	901.611	79.764	901.611	79.6965	901.611	79.2009	901.611	80.6266	901.611	79.6647	901.611	81.3362	901.611	80.735	901.611	81.4113
933.105	89.7582	933.105	89.427	933.105	89.5798	933.105	88.5671	933.105	88.953	933.105	87.2235	933.105	87.9629	933.105	85.5509	933.105	86.6882	933.105	83.8685	933.105	85.1651	933.105	82.5852	933.105	83.3913	933.105	81.8753	933.105	81.434	933.105	81.5375	933.105	79.6719	933.105	81.2923	933.105	78.7851	933.105	80.9692	933.105	78.8794	933.105	80.4423	933.105	79.3737	933.105	79.5896	933.105	79.8386	933.105	78.5086	933.105	79.9411	933.105	78.0488	933.105	79.4126	933.105	79.1635	933.105	78.7258	933.105	80.903	933.105	79.3387	933.105	82.0127	933.105	80.9636	933.105	82.042
966.064	89.3019	966.064	89.0309	966.064	89.1204	966.064	88.2502	966.064	88.5755	966.064	86.9434	966.064	87.7733	966.064	85.1512	966.064	86.808	966.064	83.0289	966.064	85.7289	966.064	80.9669	966.064	84.5187	966.064	79.5614	966.064	83.0929	966.064	79.0276	966.064	81.3364	966.064	78.9328	966.064	79.2361	966.064	78.8576	966.064	77.2259	966.064	78.681	966.064	76.3867	966.064	78.397	966.064	76.9599	966.064	78.0156	966.064	77.7369	966.064	77.7323	966.064	77.8309	966.064	77.995	966.064	77.2569	966.064	78.8144	966.064	77.1602	966.064	79.4661	966.064	78.2606	966.064	79.3108
999.756	88.968	999.756	88.763	999.756	88.7262	999.756	88.072	999.756	88.1154	999.756	86.8923	999.756	87.2426	999.756	85.2622	999.756	86.2118	999.756	83.2887	999.756	85.0821	999.756	81.2237	999.756	83.8641	999.756	79.5344	999.756	82.5605	999.756	78.6247	999.756	81.2061	999.756	78.3189	999.756	79.8575	999.756	78.1277	999.756	78.5613	999.756	77.7716	999.756	77.4953	999.756	77.2005	999.756	77.1082	999.756	76.5297	999.756	77.3	999.756	76.2377	999.756	77.1101	999.756	76.9809	999.756	76.2535	999.756	78.377	999.756	76.3252	999.756	79.3578	999.756	77.9925	999.756	79.2779
1,034.91	88.2887	1,034.91	88.1133	1,034.91	88.0855	1,034.91	87.5113	1,034.91	87.5834	1,034.91	86.4718	1,034.91	86.8606	1,034.91	85.0202	1,034.91	85.9593	1,034.91	83.2183	1,034.91	84.9046	1,034.91	81.1588	1,034.91	83.7581	1,034.91	78.9617	1,034.91	82.6092	1,034.91	76.849	1,034.91	81.4812	1,034.91	75.3436	1,034.91	80.2665	1,034.91	75.0631	1,034.91	78.8369	1,034.91	75.755	1,034.91	77.4097	1,034.91	76.5633	1,034.91	76.9017	1,034.91	76.9802	1,034.91	77.5507	1,034.91	77.0002	1,034.91	77.9866	1,034.91	77.1091	1,034.91	77.4024	1,034.91	77.7571	1,034.91	76.6431	1,034.91	78.435	1,034.91	77.2896	1,034.91	78.316
1,071.53	87.2177	1,071.53	87.1504	1,071.53	87.0303	1,071.53	86.7452	1,071.53	86.6546	1,071.53	85.946	1,071.53	86.1027	1,071.53	84.7573	1,071.53	85.3355	1,071.53	83.2636	1,071.53	84.3024	1,071.53	81.6124	1,071.53	82.9966	1,071.53	79.9269	1,071.53	81.5582	1,071.53	78.2088	1,071.53	80.3754	1,071.53	76.4096	1,071.53	79.7404	1,071.53	74.7388	1,071.53	79.2468	1,071.53	73.8236	1,071.53	78.2207	1,071.53	73.8344	1,071.53	76.6323	1,071.53	74.0309	1,071.53	75.6744	1,071.53	74.0386	1,071.53	75.8605	1,071.53	74.4421	1,071.53	75.8069	1,071.53	75.6215	1,071.53	75.4476	1,071.53	76.6619	1,071.53	75.9353	1,071.53	76.7337
1,109.62	85.8672	1,109.62	85.7547	1,109.62	85.7504	1,109.62	85.3496	1,109.62	85.4536	1,109.62	84.5916	1,109.62	84.9982	1,109.62	83.4662	1,109.62	84.3577	1,109.62	82.0797	1,109.62	83.4589	1,109.62	80.7212	1,109.62	82.2397	1,109.62	79.7046	1,109.62	80.7964	1,109.62	78.9388	1,109.62	79.5647	1,109.62	77.8982	1,109.62	78.9711	1,109.62	76.0895	1,109.62	78.5186	1,109.62	73.6457	1,109.62	77.1862	1,109.62	72.5261	1,109.62	74.6483	1,109.62	73.7907	1,109.62	73.3029	1,109.62	75.1026	1,109.62	74.5901	1,109.62	75.6431	1,109.62	75.1166	1,109.62	75.6935	1,109.62	74.4398	1,109.62	75.4639	1,109.62	74.1332	1,109.62	74.8321
1,148.44	87.477	1,148.44	87.358	1,148.44	87.277	1,148.44	86.8943	1,148.44	86.8619	1,148.44	86.1013	1,148.44	86.3538	1,148.44	84.9418	1,148.44	85.802	1,148.44	83.2882	1,148.44	85.1429	1,148.44	81.0682	1,148.44	84.2092	1,148.44	78.8649	1,148.44	82.7598	1,148.44	78.3688	1,148.44	80.6285	1,148.44	79.2703	1,148.44	78.5293	1,148.44	79.5819	1,148.44	78.7084	1,148.44	78.4345	1,148.44	80.1465	1,148.44	75.43	1,148.44	80.3282	1,148.44	71.3303	1,148.44	78.3697	1,148.44	73.044	1,148.44	74.6222	1,148.44	76.7326	1,148.44	74.9855	1,148.44	78.8051	1,148.44	77.9994	1,148.44	79.7176	1,148.44	79.4948	1,148.44	79.9183
1,189.45	90.1604	1,189.45	90.0445	1,189.45	89.8101	1,189.45	89.4243	1,189.45	89.0886	1,189.45	88.3505	1,189.45	88.1012	1,189.45	86.9725	1,189.45	86.9364	1,189.45	85.4913	1,189.45	85.6863	1,189.45	84.023	1,189.45	84.51	1,189.45	82.5514	1,189.45	83.6523	1,189.45	81.2119	1,189.45	83.1943	1,189.45	80.5406	1,189.45	82.7649	1,189.45	80.7043	1,189.45	81.8808	1,189.45	80.9133	1,189.45	80.7214	1,189.45	80.3181	1,189.45	80.4589	1,189.45	78.2796	1,189.45	80.8329	1,189.45	74.5534	1,189.45	79.8171	1,189.45	74.5322	1,189.45	75.7114	1,189.45	78.7378	1,189.45	72.4809	1,189.45	81.0043	1,189.45	78.2877	1,189.45	80.9858
1,231.2	89.9555	1,231.2	89.8599	1,231.2	89.6526	1,231.2	89.2353	1,231.2	89.1178	1,231.2	88.0377	1,231.2	88.4576	1,231.2	86.3092	1,231.2	87.6627	1,231.2	84.1794	1,231.2	86.6242	1,231.2	81.9019	1,231.2	85.1877	1,231.2	79.8961	1,231.2	83.2908	1,231.2	78.6389	1,231.2	81.3166	1,231.2	78.2921	1,231.2	80.3149	1,231.2	78.5634	1,231.2	80.4162	1,231.2	79.0026	1,231.2	80.4941	1,231.2	79.1428	1,231.2	80.4436	1,231.2	78.5033	1,231.2	80.9359	1,231.2	76.8001	1,231.2	81.2095	1,231.2	75.1907	1,231.2	79.9111	1,231.2	76.4222	1,231.2	77.1454	1,231.2	78.2502	1,231.2	76.7827	1,231.2	78.3495
1,274.41	89.6838	1,274.41	89.6187	1,274.41	89.3483	1,274.41	88.9891	1,274.41	88.8541	1,274.41	87.751	1,274.41	88.3547	1,274.41	85.9508	1,274.41	87.8091	1,274.41	83.6974	1,274.41	87.0818	1,274.41	81.2038	1,274.41	86.0286	1,274.41	78.9973	1,274.41	84.514	1,274.41	77.7483	1,274.41	82.5807	1,274.41	77.0875	1,274.41	80.9354	1,274.41	76.0378	1,274.41	80.5898	1,274.41	74.8013	1,274.41	80.8246	1,274.41	75.0439	1,274.41	80.5522	1,274.41	76.2028	1,274.41	80.0686	1,274.41	76.3345	1,274.41	79.7637	1,274.41	75.157	1,274.41	78.6082	1,274.41	75.1486	1,274.41	76.4334	1,274.41	77.1527	1,274.41	76.5215	1,274.41	77.8049
1,319.82	88.7828	1,319.82	88.7294	1,319.82	88.6015	1,319.82	88.2037	1,319.82	88.4014	1,319.82	87.1284	1,319.82	88.1454	1,319.82	85.5364	1,319.82	87.6512	1,319.82	83.4227	1,319.82	86.7727	1,319.82	80.5998	1,319.82	85.3959	1,319.82	76.819	1,319.82	83.4083	1,319.82	73.6681	1,319.82	80.8474	1,319.82	74.7334	1,319.82	78.7039	1,319.82	76.2455	1,319.82	78.6859	1,319.82	76.3303	1,319.82	79.3822	1,319.82	75.7035	1,319.82	79.3956	1,319.82	75.6972	1,319.82	79.7773	1,319.82	76.1161	1,319.82	80.5251	1,319.82	75.8939	1,319.82	79.6152	1,319.82	75.7583	1,319.82	76.3703	1,319.82	76.589	1,319.82	74.8444	1,319.82	76.5244
1,365.97	87.7488	1,365.97	87.7534	1,365.97	87.7622	1,365.97	87.4727	1,365.97	87.8511	1,365.97	86.7	1,365.97	87.7751	1,365.97	85.424	1,365.97	87.3291	1,365.97	83.725	1,365.97	86.4741	1,365.97	81.5608	1,365.97	85.242	1,365.97	78.5729	1,365.97	83.6238	1,365.97	74.4577	1,365.97	81.5759	1,365.97	72.3491	1,365.97	79.3781	1,365.97	74.4982	1,365.97	78.0972	1,365.97	75.5239	1,365.97	78.0127	1,365.97	74.7062	1,365.97	78.1105	1,365.97	73.4739	1,365.97	78.6447	1,365.97	73.6088	1,365.97	79.3182	1,365.97	74.1895	1,365.97	78.53	1,365.97	74.7484	1,365.97	75.7797	1,365.97	75.5984	1,365.97	74.1793	1,365.97	75.4682
1,414.31	87.2683	1,414.31	87.2758	1,414.31	87.3525	1,414.31	87.1986	1,414.31	87.4597	1,414.31	86.8099	1,414.31	87.4191	1,414.31	86.029	1,414.31	87.1318	1,414.31	84.9207	1,414.31	86.4907	1,414.31	83.4576	1,414.31	85.3432	1,414.31	81.269	1,414.31	83.5177	1,414.31	77.8365	1,414.31	80.8208	1,414.31	74.2297	1,414.31	77.6451	1,414.31	74.699	1,414.31	76.9774	1,414.31	75.8441	1,414.31	78.403	1,414.31	75.2247	1,414.31	78.2168	1,414.31	73.6337	1,414.31	76.7741	1,414.31	73.1528	1,414.31	77.3525	1,414.31	73.871	1,414.31	77.7641	1,414.31	74.7118	1,414.31	75.5421	1,414.31	75.3427	1,414.31	72.9662	1,414.31	74.5229
1,464.11	87.0723	1,464.11	87.1577	1,464.11	87.1365	1,464.11	87.3162	1,464.11	87.2117	1,464.11	87.1681	1,464.11	87.2022	1,464.11	86.4232	1,464.11	86.9877	1,464.11	85.2178	1,464.11	86.3693	1,464.11	83.9191	1,464.11	85.2344	1,464.11	82.3775	1,464.11	83.5698	1,464.11	79.8383	1,464.11	81.2511	1,464.11	76.2216	1,464.11	78.1585	1,464.11	75.4538	1,464.11	76.128	1,464.11	77.153	1,464.11	77.3002	1,464.11	77.3828	1,464.11	77.724	1,464.11	76.2183	1,464.11	76.8071	1,464.11	75.047	1,464.11	77.571	1,464.11	74.8522	1,464.11	77.8903	1,464.11	74.8824	1,464.11	75.1596	1,464.11	74.7417	1,464.11	71.4453	1,464.11	73.382
1,515.38	87.198	1,515.38	87.117	1,515.38	87.1984	1,515.38	86.954	1,515.38	87.1606	1,515.38	86.6027	1,515.38	87.078	1,515.38	85.8178	1,515.38	86.7842	1,515.38	84.576	1,515.38	86.0688	1,515.38	83.2805	1,515.38	84.8639	1,515.38	82.0228	1,515.38	83.215	1,515.38	79.9562	1,515.38	81.0776	1,515.38	76.4414	1,515.38	78.3301	1,515.38	74.7146	1,515.38	75.6435	1,515.38	76.827	1,515.38	75.0965	1,515.38	77.9753	1,515.38	75.4056	1,515.38	77.4526	1,515.38	75.7844	1,515.38	75.8998	1,515.38	77.7166	1,515.38	74.8534	1,515.38	78.5394	1,515.38	74.8311	1,515.38	76.7723	1,515.38	74.5099	1,515.38	73.2219	1,515.38	72.9151
1,568.85	86.7217	1,568.85	86.849	1,568.85	86.625	1,568.85	86.778	1,568.85	86.7857	1,568.85	86.3567	1,568.85	87.0115	1,568.85	85.3355	1,568.85	86.8166	1,568.85	83.5989	1,568.85	85.9361	1,568.85	81.7328	1,568.85	84.4614	1,568.85	80.4663	1,568.85	82.5901	1,568.85	78.8604	1,568.85	80.3128	1,568.85	75.1889	1,568.85	77.5387	1,568.85	70.4665	1,568.85	75.1585	1,568.85	74.164	1,568.85	74.9498	1,568.85	77.0745	1,568.85	75.198	1,568.85	77.4098	1,568.85	75.3724	1,568.85	75.7248	1,568.85	76.8974	1,568.85	73.4184	1,568.85	77.6722	1,568.85	73.5056	1,568.85	76.4129	1,568.85	74.2283	1,568.85	73.8937	1,568.85	73.511
1,624.51	86.7164	1,624.51	86.7962	1,624.51	86.8242	1,624.51	86.673	1,624.51	87.2126	1,624.51	86.193	1,624.51	87.3877	1,624.51	85.1343	1,624.51	86.9301	1,624.51	83.1372	1,624.51	85.8003	1,624.51	80.4561	1,624.51	84.253	1,624.51	78.7132	1,624.51	82.5334	1,624.51	78.1234	1,624.51	80.5796	1,624.51	76.5002	1,624.51	78.4714	1,624.51	72.1664	1,624.51	77.2804	1,624.51	63.3191	1,624.51	76.999	1,624.51	70.0964	1,624.51	75.1547	1,624.51	75.1207	1,624.51	71.5132	1,624.51	76.1547	1,624.51	74.2341	1,624.51	74.0886	1,624.51	76.7121	1,624.51	71.7411	1,624.51	75.8276	1,624.51	72.5522	1,624.51	72.6213	1,624.51	72.0724
1,681.64	86.7307	1,681.64	86.7035	1,681.64	87.1004	1,681.64	86.561	1,681.64	87.649	1,681.64	85.9815	1,681.64	87.9174	1,681.64	85.0233	1,681.64	87.5613	1,681.64	83.5185	1,681.64	86.4597	1,681.64	81.0098	1,681.64	84.7661	1,681.64	77.4042	1,681.64	82.563	1,681.64	74.7959	1,681.64	79.5116	1,681.64	75.5798	1,681.64	75.7849	1,681.64	76.1841	1,681.64	75.9232	1,681.64	74.6548	1,681.64	78.8315	1,681.64	71.371	1,681.64	79.313	1,681.64	73.4779	1,681.64	76.6797	1,681.64	76.1675	1,681.64	75.8168	1,681.64	75.3957	1,681.64	77.6463	1,681.64	71.6297	1,681.64	76.2572	1,681.64	69.9164	1,681.64	71.8634	1,681.64	70.0898
1,740.97	86.5551	1,740.97	86.3097	1,740.97	87.0738	1,740.97	86.051	1,740.97	87.6587	1,740.97	85.4093	1,740.97	87.8171	1,740.97	84.2856	1,740.97	87.281	1,740.97	82.8851	1,740.97	86.1295	1,740.97	81.3954	1,740.97	84.5257	1,740.97	79.5703	1,740.97	82.3799	1,740.97	76.8612	1,740.97	79.3153	1,740.97	73.8747	1,740.97	75.1386	1,740.97	73.8346	1,740.97	73.6981	1,740.97	74.8171	1,740.97	76.8153	1,740.97	73.9816	1,740.97	77.6283	1,740.97	72.1022	1,740.97	76.0123	1,740.97	74.0727	1,740.97	76.3509	1,740.97	75.58	1,740.97	77.6253	1,740.97	74.1692	1,740.97	75.8393	1,740.97	71.669	1,740.97	71.1164	1,740.97	70.0119
1,802.49	87.0491	1,802.49	86.7488	1,802.49	87.4505	1,802.49	86.3754	1,802.49	87.8163	1,802.49	85.756	1,802.49	87.8045	1,802.49	84.7817	1,802.49	87.1244	1,802.49	83.3577	1,802.49	85.704	1,802.49	81.5548	1,802.49	83.7477	1,802.49	79.7527	1,802.49	81.4889	1,802.49	78.1714	1,802.49	79.0242	1,802.49	76.3095	1,802.49	76.2979	1,802.49	74.5082	1,802.49	73.8531	1,802.49	74.9996	1,802.49	75.4262	1,802.49	76.254	1,802.49	76.9983	1,802.49	75.7359	1,802.49	74.7556	1,802.49	74.1106	1,802.49	74.5832	1,802.49	73.8107	1,802.49	77.2034	1,802.49	73.7502	1,802.49	75.7359	1,802.49	72.5156	1,802.49	70.4013	1,802.49	69.7197
1,866.21	86.5415	1,866.21	86.5672	1,866.21	87.0403	1,866.21	86.2388	1,866.21	87.747	1,866.21	85.2163	1,866.21	87.8189	1,866.21	83.9651	1,866.21	86.9661	1,866.21	82.6992	1,866.21	85.3031	1,866.21	81.0231	1,866.21	83.0802	1,866.21	78.6248	1,866.21	80.6046	1,866.21	76.1369	1,866.21	78.287	1,866.21	74.648	1,866.21	75.7656	1,866.21	73.501	1,866.21	71.9263	1,866.21	73.4132	1,866.21	74.9876	1,866.21	75.5978	1,866.21	78.1344	1,866.21	77.0274	1,866.21	76.225	1,866.21	76.139	1,866.21	74.2298	1,866.21	73.6653	1,866.21	77.4403	1,866.21	72.9477	1,866.21	77.1084	1,866.21	72.7404	1,866.21	72.0576	1,866.21	69.1767
1,932.13	85.7613	1,932.13	85.7334	1,932.13	86.9127	1,932.13	86.0167	1,932.13	87.938	1,932.13	85.3871	1,932.13	88.0986	1,932.13	84.0491	1,932.13	87.2137	1,932.13	82.7898	1,932.13	85.2607	1,932.13	81.7115	1,932.13	82.3224	1,932.13	79.9268	1,932.13	78.5989	1,932.13	77.2256	1,932.13	75.3687	1,932.13	75.422	1,932.13	73.8867	1,932.13	74.752	1,932.13	70.1646	1,932.13	72.4717	1,932.13	67.2204	1,932.13	70.353	1,932.13	76.1748	1,932.13	74.5522	1,932.13	77.1614	1,932.13	75.6864	1,932.13	73.2046	1,932.13	73.2553	1,932.13	75.3301	1,932.13	71.3415	1,932.13	76.9752	1,932.13	72.8214	1,932.13	73.2859	1,932.13	71.5556
2,000.24	85.6637	2,000.24	85.0947	2,000.24	86.9235	2,000.24	85.6479	2,000.24	87.7172	2,000.24	86.1598	2,000.24	87.4984	2,000.24	85.8208	2,000.24	86.3856	2,000.24	84.4793	2,000.24	84.7828	2,000.24	82.2435	2,000.24	82.716	2,000.24	79.722	2,000.24	79.7552	2,000.24	77.9639	2,000.24	75.5275	2,000.24	77.0211	2,000.24	73.156	2,000.24	75.8279	2,000.24	73.2101	2,000.24	73.758	2,000.24	67.6922	2,000.24	71.8173	2,000.24	69.2351	2,000.24	72.7541	2,000.24	74.009	2,000.24	73.9472	2,000.24	72.7254	2,000.24	72.3941	2,000.24	72.9083	2,000.24	68.4755	2,000.24	73.1133	2,000.24	68.798	2,000.24	68.3977	2,000.24	65.9399
2,070.56	86.397	2,070.56	85.8713	2,070.56	87.4603	2,070.56	85.8103	2,070.56	88.0848	2,070.56	85.6455	2,070.56	87.6813	2,070.56	85.0822	2,070.56	86.3259	2,070.56	84.1225	2,070.56	84.3217	2,070.56	82.7547	2,070.56	81.8374	2,070.56	80.3483	2,070.56	78.6139	2,070.56	76.2149	2,070.56	73.8182	2,070.56	73.2724	2,070.56	68.8224	2,070.56	74.0327	2,070.56	71.6457	2,070.56	73.5292	2,070.56	69.4326	2,070.56	70.7127	2,070.56	68.3991	2,070.56	71.2714	2,070.56	73.7332	2,070.56	74.0472	2,070.56	72.4145	2,070.56	73.3891	2,070.56	72.833	2,070.56	69.609	2,070.56	73.9841	2,070.56	67.2872	2,070.56	70.0591	2,070.56	61.9747
2,143.8	85.9298	2,143.8	85.6584	2,143.8	87.2486	2,143.8	85.9778	2,143.8	88.147	2,143.8	85.7821	2,143.8	87.7653	2,143.8	84.9893	2,143.8	86.0758	2,143.8	83.7853	2,143.8	83.709	2,143.8	82.2752	2,143.8	81.2572	2,143.8	80.1538	2,143.8	78.5373	2,143.8	76.556	2,143.8	74.6683	2,143.8	71.6527	2,143.8	68.3046	2,143.8	71.9251	2,143.8	69.5712	2,143.8	73.1089	2,143.8	69.4006	2,143.8	71.1997	2,143.8	62.371	2,143.8	70.6417	2,143.8	71.8959	2,143.8	73.5949	2,143.8	71.2825	2,143.8	73.2801	2,143.8	71.5943	2,143.8	69.432	2,143.8	73.0807	2,143.8	66.799	2,143.8	69.5762	2,143.8	61.2418
2,219.24	85.1	2,219.24	84.6079	2,219.24	87.0008	2,219.24	85.8413	2,219.24	87.9414	2,219.24	86.1045	2,219.24	87.6164	2,219.24	84.8662	2,219.24	86.1744	2,219.24	82.6826	2,219.24	83.947	2,219.24	80.9023	2,219.24	81.476	2,219.24	79.539	2,219.24	78.9	2,219.24	76.5145	2,219.24	75.5152	2,219.24	70.8115	2,219.24	70.9771	2,219.24	69.646	2,219.24	72.7437	2,219.24	72.444	2,219.24	73.9793	2,219.24	71.3068	2,219.24	67.4111	2,219.24	70.02	2,219.24	68.9706	2,219.24	73.1487	2,219.24	70.6162	2,219.24	73.3941	2,219.24	70.5755	2,219.24	69.6777	2,219.24	73.2363	2,219.24	64.8231	2,219.24	69.8158	2,219.24	53.3577
2,297.61	85.731	2,297.61	84.3885	2,297.61	87.3842	2,297.61	85.1455	2,297.61	88.1118	2,297.61	86.081	2,297.61	87.6069	2,297.61	85.5479	2,297.61	86.072	2,297.61	83.0319	2,297.61	84.0301	2,297.61	78.6728	2,297.61	81.7363	2,297.61	75.3709	2,297.61	78.9724	2,297.61	74.1035	2,297.61	74.5525	2,297.61	72.0612	2,297.61	67.6055	2,297.61	64.3091	2,297.61	70.1461	2,297.61	68.1923	2,297.61	71.7474	2,297.61	68.2284	2,297.61	70.0473	2,297.61	64.7567	2,297.61	70.4073	2,297.61	70.2058	2,297.61	71.5734	2,297.61	71.9541	2,297.61	69.9036	2,297.61	68.4785	2,297.61	72.467	2,297.61	63.6056	2,297.61	70.2005	2,297.61	54.0893
2,378.17	86.8719	2,378.17	85.9616	2,378.17	88.1644	2,378.17	85.9153	2,378.17	88.7385	2,378.17	86.0189	2,378.17	87.9793	2,378.17	85.1531	2,378.17	86.0354	2,378.17	82.8236	2,378.17	83.4618	2,378.17	79.1658	2,378.17	80.8561	2,378.17	75.7394	2,378.17	78.0463	2,378.17	74.5654	2,378.17	73.6047	2,378.17	71.7952	2,378.17	68.0337	2,378.17	65.3625	2,378.17	73.6392	2,378.17	65.2827	2,378.17	73.6748	2,378.17	67.0025	2,378.17	69.3564	2,378.17	64.7722	2,378.17	70.1901	2,378.17	67.9465	2,378.17	71.2199	2,378.17	70.4761	2,378.17	70.9665	2,378.17	68.158	2,378.17	70.7588	2,378.17	61.171	2,378.17	69.2567	2,378.17	54.6505
2,462.4	86.6699	2,462.4	86.3208	2,462.4	88.3805	2,462.4	86.8229	2,462.4	89.2631	2,462.4	86.5517	2,462.4	88.4565	2,462.4	85.3011	2,462.4	86.2136	2,462.4	83.1373	2,462.4	83.0588	2,462.4	79.6801	2,462.4	79.4391	2,462.4	75.1761	2,462.4	75.7399	2,462.4	71.9552	2,462.4	71.1156	2,462.4	69.2863	2,462.4	55.7523	2,462.4	64.0405	2,462.4	73.5547	2,462.4	63.7094	2,462.4	74.3644	2,462.4	67.0444	2,462.4	69.1621	2,462.4	64.328	2,462.4	70.5067	2,462.4	66.7808	2,462.4	69.4435	2,462.4	70.284	2,462.4	70.9332	2,462.4	68.3239	2,462.4	72.0839	2,462.4	61.5643	2,462.4	70.4529	2,462.4	57.5226
2,548.83	86.9011	2,548.83	86.1392	2,548.83	88.8365	2,548.83	87.2259	2,548.83	89.6255	2,548.83	87.3226	2,548.83	88.7808	2,548.83	85.6919	2,548.83	86.4538	2,548.83	83.0583	2,548.83	82.8548	2,548.83	79.7862	2,548.83	78.5706	2,548.83	75.1227	2,548.83	75.7995	2,548.83	70.1318	2,548.83	73.1022	2,548.83	66.7483	2,548.83	46.5114	2,548.83	63.9739	2,548.83	74.0087	2,548.83	62.3565	2,548.83	75.3577	2,548.83	66.9471	2,548.83	69.5843	2,548.83	66.0673	2,548.83	70.3226	2,548.83	64.9613	2,548.83	69.6578	2,548.83	68.5427	2,548.83	68.5925	2,548.83	68.2274	2,548.83	69.6731	2,548.83	62.6005	2,548.83	68.8914	2,548.83	58.5648
2,638.92	87.6232	2,638.92	86.7403	2,638.92	89.4734	2,638.92	87.3011	2,638.92	90.3334	2,638.92	87.496	2,638.92	89.4931	2,638.92	85.9886	2,638.92	86.9734	2,638.92	82.7166	2,638.92	83.2421	2,638.92	78.1497	2,638.92	79.5343	2,638.92	72.4792	2,638.92	77.2078	2,638.92	68.3571	2,638.92	72.9411	2,638.92	67.2149	2,638.92	63.6108	2,638.92	63.1165	2,638.92	74.9587	2,638.92	58.0044	2,638.92	73.8472	2,638.92	62.5827	2,638.92	70.4234	2,638.92	62.7759	2,638.92	68.4281	2,638.92	64.3463	2,638.92	67.922	2,638.92	67.5017	2,638.92	69.5129	2,638.92	67.6727	2,638.92	70.7362	2,638.92	63.7723	2,638.92	69.4904	2,638.92	57.8596
2,731.93	88.1467	2,731.93	87.8197	2,731.93	90.2393	2,731.93	88.2024	2,731.93	91.1835	2,731.93	87.7741	2,731.93	90.1063	2,731.93	86.0568	2,731.93	87.3124	2,731.93	82.0466	2,731.93	83.2934	2,731.93	75.573	2,731.93	79.3428	2,731.93	68.5586	2,731.93	77.7436	2,731.93	64.9534	2,731.93	74.6999	2,731.93	61.9998	2,731.93	73.1626	2,731.93	57.8476	2,731.93	76.9303	2,731.93	54.5285	2,731.93	72.8253	2,731.93	55.6424	2,731.93	66.0741	2,731.93	54.7872	2,731.93	69.3469	2,731.93	59.1112	2,731.93	67.776	2,731.93	67.3359	2,731.93	67.1621	2,731.93	67.7063	2,731.93	71.2459	2,731.93	63.4582	2,731.93	69.672	2,731.93	56.8179
2,828.61	88.944	2,828.61	88.7191	2,828.61	91.0411	2,828.61	89.3509	2,828.61	91.8492	2,828.61	88.0562	2,828.61	90.6139	2,828.61	84.9232	2,828.61	87.2433	2,828.61	79.8297	2,828.61	82.2264	2,828.61	73.1935	2,828.61	77.6357	2,828.61	66.4779	2,828.61	77.0955	2,828.61	53.7245	2,828.61	75.8336	2,828.61	60.4355	2,828.61	76.9688	2,828.61	62.9318	2,828.61	78.8054	2,828.61	61.693	2,828.61	73.8091	2,828.61	56.3812	2,828.61	66.0696	2,828.61	61.2068	2,828.61	64.0595	2,828.61	55.6927	2,828.61	65.8928	2,828.61	63.8982	2,828.61	66.5924	2,828.61	68.2873	2,828.61	71.2804	2,828.61	65.6719	2,828.61	69.6608	2,828.61	49.1746
2,928.22	88.7006	2,928.22	88.7143	2,928.22	91.0905	2,928.22	89.3713	2,928.22	92.3304	2,928.22	88.0223	2,928.22	91.0057	2,928.22	84.497	2,928.22	87.2474	2,928.22	78.8933	2,928.22	80.7994	2,928.22	70.9159	2,928.22	74.5278	2,928.22	64.5823	2,928.22	75.1815	2,928.22	68.2452	2,928.22	76.8219	2,928.22	69.8016	2,928.22	79.9158	2,928.22	69.7406	2,928.22	80.0166	2,928.22	67.0726	2,928.22	71.6404	2,928.22	57.6778	2,928.22	65.6657	2,928.22	59.7146	2,928.22	68.6503	2,928.22	64.4949	2,928.22	64.378	2,928.22	57.8449	2,928.22	56.4878	2,928.22	57.966	2,928.22	69.764	2,928.22	60.864	2,928.22	71.0827	2,928.22	60.1195
3,031.49	87.7235	3,031.49	88.5415	3,031.49	90.3588	3,031.49	89.6026	3,031.49	91.8134	3,031.49	88.3698	3,031.49	90.7148	3,031.49	84.6111	3,031.49	86.6999	3,031.49	77.5904	3,031.49	78.797	3,031.49	68.4078	3,031.49	73.0029	3,031.49	70.1251	3,031.49	75.798	3,031.49	72.2933	3,031.49	78.6386	3,031.49	70.9397	3,031.49	81.2143	3,031.49	64.2187	3,031.49	80.3172	3,031.49	64.4202	3,031.49	72.1311	3,031.49	66.9215	3,031.49	57.0821	3,031.49	61.0414	3,031.49	59.2533	3,031.49	62.4899	3,031.49	66.9112	3,031.49	68.357	3,031.49	66.0963	3,031.49	66.6858	3,031.49	71.5075	3,031.49	63.3948	3,031.49	72.4273	3,031.49	59.2816
3,138.43	86.1842	3,138.43	87.4878	3,138.43	89.7184	3,138.43	88.6656	3,138.43	91.5309	3,138.43	86.9919	3,138.43	90.108	3,138.43	82.7327	3,138.43	84.9363	3,138.43	75.7011	3,138.43	73.7905	3,138.43	75.1841	3,138.43	76.1424	3,138.43	75.2969	3,138.43	78.3488	3,138.43	70.5132	3,138.43	80.5979	3,138.43	65.8717	3,138.43	82.3209	3,138.43	67.8247	3,138.43	80.6012	3,138.43	66.2222	3,138.43	71.4904	3,138.43	64.4849	3,138.43	65.0402	3,138.43	62.6973	3,138.43	71.8522	3,138.43	58.2171	3,138.43	56.3098	3,138.43	68.2337	3,138.43	56.7982	3,138.43	68.8874	3,138.43	72.6077	3,138.43	65.087	3,138.43	73.1675	3,138.43	58.8712
3,249.02	86.1669	3,249.02	87.1654	3,249.02	90.2777	3,249.02	88.903	3,249.02	92.1028	3,249.02	87.7424	3,249.02	90.3598	3,249.02	82.9725	3,249.02	84.2748	3,249.02	77.1038	3,249.02	76.1711	3,249.02	77.8378	3,249.02	80.3567	3,249.02	75.1292	3,249.02	81.6955	3,249.02	70.1939	3,249.02	83.9873	3,249.02	70.3675	3,249.02	85.8944	3,249.02	67.1665	3,249.02	84.0598	3,249.02	65.5111	3,249.02	74.4178	3,249.02	64.0412	3,249.02	64.6932	3,249.02	60.9668	3,249.02	72.514	3,249.02	53.8645	3,249.02	62.8842	3,249.02	65.0662	3,249.02	58.93	3,249.02	67.6024	3,249.02	72.3172	3,249.02	60.2211	3,249.02	74.9703	3,249.02	69.5028
3,363.28	87.4883	3,363.28	88.7877	3,363.28	91.2756	3,363.28	90.1361	3,363.28	92.9516	3,363.28	88.191	3,363.28	91.0302	3,363.28	83.3673	3,363.28	84.8227	3,363.28	80.2347	3,363.28	80.8851	3,363.28	77.9157	3,363.28	84.5821	3,363.28	73.8319	3,363.28	84.915	3,363.28	73.757	3,363.28	86.1865	3,363.28	71.4124	3,363.28	87.4837	3,363.28	58.7909	3,363.28	84.917	3,363.28	52.9298	3,363.28	74.5204	3,363.28	57.4451	3,363.28	67.2509	3,363.28	59.8339	3,363.28	73.9181	3,363.28	53.2822	3,363.28	64.8457	3,363.28	63.4255	3,363.28	63.0504	3,363.28	64.0021	3,363.28	72.5877	3,363.28	60.319	3,363.28	73.7495	3,363.28	69.3324
3,481.93	89.0048	3,481.93	90.0595	3,481.93	92.4372	3,481.93	90.8619	3,481.93	94.1721	3,481.93	88.569	3,481.93	92.5127	3,481.93	84.0846	3,481.93	86.5772	3,481.93	80.8855	3,481.93	83.5821	3,481.93	78.4283	3,481.93	86.8858	3,481.93	75.3779	3,481.93	87.255	3,481.93	72.2294	3,481.93	87.8698	3,481.93	67.188	3,481.93	87.5024	3,481.93	67.4259	3,481.93	84.2268	3,481.93	63.6653	3,481.93	75.9271	3,481.93	61.8768	3,481.93	69.6183	3,481.93	66.555	3,481.93	75.9331	3,481.93	65.9896	3,481.93	69.7761	3,481.93	64.7844	3,481.93	68.2925	3,481.93	63.303	3,481.93	70.8993	3,481.93	58.7036	3,481.93	70.8175	3,481.93	66.8996
3,604.98	90.9373	3,604.98	92.5666	3,604.98	93.7104	3,604.98	92.4189	3,604.98	95.7205	3,604.98	89.2287	3,604.98	94.0821	3,604.98	83.419	3,604.98	87.9975	3,604.98	78.8081	3,604.98	86.1025	3,604.98	77.6141	3,604.98	89.327	3,604.98	77.11	3,604.98	88.8618	3,604.98	75.0744	3,604.98	88.2836	3,604.98	72.5114	3,604.98	87.3082	3,604.98	72.7537	3,604.98	87.1065	3,604.98	73.2018	3,604.98	80.7038	3,604.98	72.0889	3,604.98	73.6183	3,604.98	73.4306	3,604.98	76.1386	3,604.98	73.3716	3,604.98	72.5754	3,604.98	70.5419	3,604.98	71.4252	3,604.98	64.4251	3,604.98	70.8158	3,604.98	60.3227	3,604.98	70.6985	3,604.98	67.2113
3,732.42	92.4737	3,732.42	94.5948	3,732.42	93.9616	3,732.42	93.9077	3,732.42	96.4277	3,732.42	88.8309	3,732.42	94.998	3,732.42	80.4329	3,732.42	88.9968	3,732.42	78.8141	3,732.42	86.7887	3,732.42	82.2672	3,732.42	89.7505	3,732.42	82.8049	3,732.42	88.7165	3,732.42	79.1511	3,732.42	87.1868	3,732.42	75.1841	3,732.42	88.2109	3,732.42	76.6945	3,732.42	89.8425	3,732.42	77.435	3,732.42	82.9122	3,732.42	75.6926	3,732.42	75.3922	3,732.42	77.359	3,732.42	74.0568	3,732.42	78.3921	3,732.42	71.3507	3,732.42	75.2057	3,732.42	71.9573	3,732.42	67.3674	3,732.42	73.1916	3,732.42	67.6414	3,732.42	73.2476	3,732.42	70.7161
3,863.53	91.9423	3,863.53	94.6829	3,863.53	91.6918	3,863.53	92.3544	3,863.53	95.0696	3,863.53	84.9297	3,863.53	94.1686	3,863.53	65.9516	3,863.53	88.2341	3,863.53	83.0008	3,863.53	82.8323	3,863.53	85.7566	3,863.53	88.5853	3,863.53	83.5198	3,863.53	88.4728	3,863.53	81.2002	3,863.53	87.3113	3,863.53	80.8178	3,863.53	88.2111	3,863.53	79.576	3,863.53	89.9321	3,863.53	78.4125	3,863.53	83.0093	3,863.53	76.9457	3,863.53	71.5532	3,863.53	78.1319	3,863.53	66.5989	3,863.53	79.6471	3,863.53	69.8	3,863.53	77.0849	3,863.53	66.8431	3,863.53	68.527	3,863.53	75.3353	3,863.53	67.9962	3,863.53	72.5306	3,863.53	68.365
3,999.76	88.8725	3,999.76	92.3552	3,999.76	85.7436	3,999.76	89.8647	3,999.76	91.7491	3,999.76	81.3651	3,999.76	91.635	3,999.76	77.2238	3,999.76	85.5035	3,999.76	85.0562	3,999.76	78.1298	3,999.76	84.4342	3,999.76	87.5489	3,999.76	82.5696	3,999.76	87.4728	3,999.76	82.32	3,999.76	84.5453	3,999.76	78.7592	3,999.76	84.9268	3,999.76	76.6842	3,999.76	87.2891	3,999.76	77.3435	3,999.76	79.7492	3,999.76	75.4999	3,999.76	66.4688	3,999.76	76.3749	3,999.76	60.8522	3,999.76	77.6279	3,999.76	66.7457	3,999.76	75.9799	3,999.76	54.6086	3,999.76	69.2993	3,999.76	73.5535	3,999.76	65.0046	3,999.76	69.9659	3,999.76	62.4466
4,141.11	83.4544	4,141.11	90.214	4,141.11	81.3048	4,141.11	89.3398	4,141.11	88.8985	4,141.11	82.2843	4,141.11	88.4093	4,141.11	81.8344	4,141.11	80.9632	4,141.11	83.3582	4,141.11	81.1257	4,141.11	82.7513	4,141.11	86.1762	4,141.11	80.8196	4,141.11	85.2733	4,141.11	78.0227	4,141.11	81.4609	4,141.11	78.7797	4,141.11	80.5465	4,141.11	77.8652	4,141.11	76.8242	4,141.11	76.5273	4,141.11	67.0591	4,141.11	74.1797	4,141.11	66.0415	4,141.11	73.8943	4,141.11	68.409	4,141.11	76.1156	4,141.11	70.1266	4,141.11	75.1632	4,141.11	67.0366	4,141.11	70.9582	4,141.11	71.16	4,141.11	66.7098	4,141.11	68.9701	4,141.11	48.274
4,286.87	86.6483	4,286.87	92.5358	4,286.87	84.5679	4,286.87	90.384	4,286.87	90.9879	4,286.87	81.6953	4,286.87	89.3011	4,286.87	81.2817	4,286.87	76.2977	4,286.87	84.9603	4,286.87	83.779	4,286.87	85.1684	4,286.87	87.3426	4,286.87	83.9219	4,286.87	85.4732	4,286.87	83.3649	4,286.87	83.0106	4,286.87	80.387	4,286.87	83.3248	4,286.87	78.0657	4,286.87	83.8741	4,286.87	77.6208	4,286.87	80.7466	4,286.87	76.0318	4,286.87	63.8924	4,286.87	75.9256	4,286.87	69.0146	4,286.87	77.2229	4,286.87	66.7337	4,286.87	77.12	4,286.87	66.22	4,286.87	70.4275	4,286.87	69.9541	4,286.87	68.4495	4,286.87	72.306	4,286.87	63.3146
4,438.48	85.5956	4,438.48	91.1432	4,438.48	79.5705	4,438.48	89.0842	4,438.48	88.5593	4,438.48	81.7509	4,438.48	87.8765	4,438.48	84.7798	4,438.48	81.8976	4,438.48	85.6525	4,438.48	82.0525	4,438.48	85.3881	4,438.48	84.8255	4,438.48	83.4451	4,438.48	84.8808	4,438.48	79.969	4,438.48	84.1466	4,438.48	79.2708	4,438.48	82.9299	4,438.48	78.1596	4,438.48	81.8201	4,438.48	76.486	4,438.48	77.8521	4,438.48	74.2902	4,438.48	63.3133	4,438.48	74.0549	4,438.48	66.0954	4,438.48	75.2718	4,438.48	68.9116	4,438.48	75.57	4,438.48	61.5167	4,438.48	73.0966	4,438.48	70.8261	4,438.48	59.5144	4,438.48	72.0366	4,438.48	54.2059
4,594.48	83.998	4,594.48	90.2883	4,594.48	83.007	4,594.48	87.7982	4,594.48	88.4207	4,594.48	82.8489	4,594.48	85.326	4,594.48	84.7783	4,594.48	80.6232	4,594.48	85.2916	4,594.48	84.1744	4,594.48	85.1355	4,594.48	84.2321	4,594.48	81.4375	4,594.48	84.6283	4,594.48	80.2936	4,594.48	84.6562	4,594.48	76.8202	4,594.48	82.8861	4,594.48	73.2367	4,594.48	79.9526	4,594.48	74.8393	4,594.48	74.1575	4,594.48	73.8107	4,594.48	57.3484	4,594.48	71.7861	4,594.48	69.2911	4,594.48	74.4259	4,594.48	69.3741	4,594.48	73.56	4,594.48	57.3741	4,594.48	70.6672	4,594.48	70.5369	4,594.48	67.3533	4,594.48	67.5556	4,594.48	57.9143
4,757.08	83.5596	4,757.08	89.5081	4,757.08	83.2191	4,757.08	86.648	4,757.08	88.2236	4,757.08	82.1209	4,757.08	84.6085	4,757.08	84.261	4,757.08	78.8949	4,757.08	84.6286	4,757.08	82.9713	4,757.08	82.7135	4,757.08	82.7577	4,757.08	80.5838	4,757.08	84.6745	4,757.08	77.4472	4,757.08	84.591	4,757.08	75.2319	4,757.08	80.3602	4,757.08	74.1631	4,757.08	76.8877	4,757.08	70.703	4,757.08	73.0419	4,757.08	70.0577	4,757.08	64.6102	4,757.08	69.5121	4,757.08	66.6513	4,757.08	71.3369	4,757.08	69.524	4,757.08	73.0045	4,757.08	66.1109	4,757.08	69.7004	4,757.08	71.9119	4,757.08	65.2628	4,757.08	67.0621	4,757.08	61.2569
4,924.8	83.0841	4,924.8	88.8582	4,924.8	83.554	4,924.8	85.6312	4,924.8	87.8966	4,924.8	82.0575	4,924.8	84.6263	4,924.8	84.1956	4,924.8	80.873	4,924.8	83.5721	4,924.8	82.1084	4,924.8	81.3632	4,924.8	80.4226	4,924.8	78.5555	4,924.8	83.8662	4,924.8	77.9453	4,924.8	83.6452	4,924.8	73.7106	4,924.8	79.6094	4,924.8	71.3836	4,924.8	77.3753	4,924.8	71.2928	4,924.8	70.0853	4,924.8	68.5736	4,924.8	71.9068	4,924.8	68.6592	4,924.8	56.1684	4,924.8	70.2763	4,924.8	68.523	4,924.8	69.9871	4,924.8	63.6479	4,924.8	68.4158	4,924.8	68.7011	4,924.8	64.2902	4,924.8	65.3021	4,924.8	61.5009
5,098.39	82.3395	5,098.39	87.4337	5,098.39	83.1522	5,098.39	83.491	5,098.39	86.7228	5,098.39	81.8286	5,098.39	82.4849	5,098.39	83.277	5,098.39	80.6521	5,098.39	81.4674	5,098.39	81.9387	5,098.39	79.164	5,098.39	76.0976	5,098.39	77.5564	5,098.39	81.2957	5,098.39	72.6366	5,098.39	82.1004	5,098.39	72.5977	5,098.39	77.3036	5,098.39	69.4633	5,098.39	76.3992	5,098.39	68.6862	5,098.39	70.5665	5,098.39	67.6213	5,098.39	71.0993	5,098.39	64.0157	5,098.39	55.7621	5,098.39	67.4132	5,098.39	67.6348	5,098.39	69.6119	5,098.39	60.1936	5,098.39	68.1622	5,098.39	62.413	5,098.39	63.1623	5,098.39	61.6714	5,098.39	64.105
5,277.83	79.929	5,277.83	85.5801	5,277.83	81.3867	5,277.83	81.551	5,277.83	85.2048	5,277.83	81.0459	5,277.83	81.7433	5,277.83	80.7235	5,277.83	79.2906	5,277.83	79.3927	5,277.83	81.4978	5,277.83	76.1489	5,277.83	77.1687	5,277.83	73.4559	5,277.83	79.0339	5,277.83	74.2124	5,277.83	79.923	5,277.83	71.1602	5,277.83	77.3164	5,277.83	68.0176	5,277.83	76.4071	5,277.83	67.6108	5,277.83	70.5701	5,277.83	65.4774	5,277.83	66.4388	5,277.83	65.0221	5,277.83	61.9738	5,277.83	66.019	5,277.83	67.315	5,277.83	66.4046	5,277.83	62.2319	5,277.83	67.6485	5,277.83	60.8557	5,277.83	63.2603	5,277.83	50.1596	5,277.83	57.1599
5,463.87	82.3158	5,463.87	85.5037	5,463.87	80.279	5,463.87	81.4609	5,463.87	85.7596	5,463.87	82.966	5,463.87	84.5499	5,463.87	81.9336	5,463.87	82.8901	5,463.87	79.5125	5,463.87	83.4855	5,463.87	77.0479	5,463.87	79.3994	5,463.87	75.5546	5,463.87	80.3173	5,463.87	74.1343	5,463.87	80.8421	5,463.87	74.9442	5,463.87	77.6542	5,463.87	69.3632	5,463.87	75.5656	5,463.87	69.9266	5,463.87	71.1076	5,463.87	67.3655	5,463.87	67.1962	5,463.87	64.6775	5,463.87	67.426	5,463.87	67.5162	5,463.87	70.0932	5,463.87	66.4816	5,463.87	64.0931	5,463.87	67.7864	5,463.87	62.5287	5,463.87	62.067	5,463.87	54.1894	5,463.87	53.2902
5,656.49	83.8432	5,656.49	86.8546	5,656.49	83.79	5,656.49	85.1454	5,656.49	86.65	5,656.49	84.9457	5,656.49	85.9862	5,656.49	84.1545	5,656.49	86.7681	5,656.49	82.4151	5,656.49	86.2052	5,656.49	79.0539	5,656.49	81.2029	5,656.49	79.2197	5,656.49	82.6252	5,656.49	76.822	5,656.49	83.3897	5,656.49	73.1216	5,656.49	81.2799	5,656.49	71.1279	5,656.49	79.4304	5,656.49	71.1939	5,656.49	70.4693	5,656.49	68.684	5,656.49	65.1889	5,656.49	68.0292	5,656.49	69.4282	5,656.49	67.6665	5,656.49	67.6472	5,656.49	69.9468	5,656.49	64.1994	5,656.49	70.2546	5,656.49	65.2814	5,656.49	66.6601	5,656.49	55.3114	5,656.49	57.0343
5,856.45	82.6693	5,856.45	86.7654	5,856.45	83.8592	5,856.45	84.8075	5,856.45	86.5429	5,856.45	84.6579	5,856.45	86.086	5,856.45	85.0615	5,856.45	87.6145	5,856.45	82.2547	5,856.45	86.861	5,856.45	80.7421	5,856.45	81.4334	5,856.45	76.8276	5,856.45	81.988	5,856.45	76.1743	5,856.45	81.5223	5,856.45	74.6851	5,856.45	79.7528	5,856.45	71.0443	5,856.45	77.6558	5,856.45	70.4981	5,856.45	66.3367	5,856.45	69.1502	5,856.45	66.8482	5,856.45	67.047	5,856.45	64.3973	5,856.45	67.5465	5,856.45	69.3369	5,856.45	70.308	5,856.45	65.7576	5,856.45	70.8855	5,856.45	62.191	5,856.45	67.4805	5,856.45	55.887	5,856.45	63.5662
6,062.99	80.8499	6,062.99	85.3679	6,062.99	82.4385	6,062.99	82.9135	6,062.99	85.2387	6,062.99	82.7138	6,062.99	84.3187	6,062.99	82.4875	6,062.99	86.9203	6,062.99	81.3093	6,062.99	85.935	6,062.99	78.8442	6,062.99	79.3368	6,062.99	75.6709	6,062.99	79.3241	6,062.99	72.142	6,062.99	79.5519	6,062.99	73.3186	6,062.99	78.5073	6,062.99	72.0733	6,062.99	77.0478	6,062.99	69.6874	6,062.99	67.4049	6,062.99	68.7531	6,062.99	58.2545	6,062.99	66.8993	6,062.99	66.6767	6,062.99	66.2807	6,062.99	64.8661	6,062.99	68.7919	6,062.99	62.5694	6,062.99	70.5622	6,062.99	56.7278	6,062.99	66.8592	6,062.99	61.4758	6,062.99	59.2839
6,276.86	80.6595	6,276.86	83.417	6,276.86	80.2806	6,276.86	78.3639	6,276.86	83.1014	6,276.86	78.2043	6,276.86	81.7077	6,276.86	78.0659	6,276.86	84.5966	6,276.86	77.5718	6,276.86	83.5549	6,276.86	73.5121	6,276.86	77.3186	6,276.86	74.2022	6,276.86	77.1807	6,276.86	70.1639	6,276.86	79.1947	6,276.86	66.083	6,276.86	77.8989	6,276.86	66.3388	6,276.86	75.0903	6,276.86	66.122	6,276.86	64.875	6,276.86	62.1087	6,276.86	63.3548	6,276.86	62.509	6,276.86	62.9821	6,276.86	61.8598	6,276.86	60.692	6,276.86	64.3612	6,276.86	63.9513	6,276.86	65.8404	6,276.86	53.3381	6,276.86	63.6762	6,276.86	59.2417	6,276.86	50.2949
6,498.05	79.7985	6,498.05	80.4635	6,498.05	78.8186	6,498.05	73.0418	6,498.05	81.4242	6,498.05	77.1791	6,498.05	78.8774	6,498.05	74.2436	6,498.05	81.9994	6,498.05	73.4112	6,498.05	81.7802	6,498.05	71.6495	6,498.05	75.2831	6,498.05	68.6777	6,498.05	76.4648	6,498.05	65.0866	6,498.05	79.9006	6,498.05	65.7388	6,498.05	76.6822	6,498.05	58.5073	6,498.05	74.0085	6,498.05	64.011	6,498.05	60.0892	6,498.05	60.9751	6,498.05	66.1543	6,498.05	61.4856	6,498.05	63.1921	6,498.05	56.877	6,498.05	53.3507	6,498.05	56.3921	6,498.05	62.9149	6,498.05	63.6896	6,498.05	57.2514	6,498.05	58.1622	6,498.05	55.2342	6,498.05	51.5017
6,727.29	81.9776	6,727.29	82.2347	6,727.29	80.0142	6,727.29	78.3104	6,727.29	82.1889	6,727.29	81.6738	6,727.29	78.5923	6,727.29	78.9534	6,727.29	80.7698	6,727.29	78.9065	6,727.29	80.4276	6,727.29	74.4749	6,727.29	73.2336	6,727.29	74.934	6,727.29	76.0291	6,727.29	73.3686	6,727.29	77.4893	6,727.29	71.8999	6,727.29	72.6757	6,727.29	66.2752	6,727.29	72.1982	6,727.29	67.4703	6,727.29	58.3444	6,727.29	65.0188	6,727.29	65.1732	6,727.29	65.9423	6,727.29	54.3272	6,727.29	62.7734	6,727.29	52.9643	6,727.29	59.3623	6,727.29	64.5453	6,727.29	66.8174	6,727.29	56.8668	6,727.29	64.3735	6,727.29	54.7363	6,727.29	59.1002
6,964.6	83.3034	6,964.6	82.7102	6,964.6	81.432	6,964.6	81.0707	6,964.6	82.409	6,964.6	83.1412	6,964.6	79.2724	6,964.6	80.688	6,964.6	78.9405	6,964.6	79.5864	6,964.6	78.7791	6,964.6	76.9784	6,964.6	73.0189	6,964.6	76.6661	6,964.6	72.2785	6,964.6	72.7508	6,964.6	71.7152	6,964.6	71.7476	6,964.6	69.5154	6,964.6	67.6417	6,964.6	72.175	6,964.6	67.5297	6,964.6	60.1049	6,964.6	65.2094	6,964.6	63.7235	6,964.6	65.3504	6,964.6	58.6817	6,964.6	63.7257	6,964.6	53.0952	6,964.6	61.6717	6,964.6	63.0827	6,964.6	67.6889	6,964.6	57.6648	6,964.6	64.7641	6,964.6	56.8128	6,964.6	58.4862
7,209.96	82.433	7,209.96	81.529	7,209.96	81.7975	7,209.96	81.4206	7,209.96	82.0909	7,209.96	82.5401	7,209.96	79.189	7,209.96	80.2892	7,209.96	78.7114	7,209.96	79.6958	7,209.96	78.4428	7,209.96	77.1495	7,209.96	72.4472	7,209.96	75.4218	7,209.96	64.6744	7,209.96	73.2761	7,209.96	69.6873	7,209.96	72.1373	7,209.96	67.8399	7,209.96	68.0292	7,209.96	66.6186	7,209.96	67.6083	7,209.96	55.1803	7,209.96	65.245	7,209.96	65.0428	7,209.96	65.4994	7,209.96	43.6151	7,209.96	63.9137	7,209.96	56.7606	7,209.96	61.0774	7,209.96	61.9063	7,209.96	66.8081	7,209.96	53.277	7,209.96	64.3946	7,209.96	51.4046	7,209.96	59.8047
7,464.11	81.2258	7,464.11	80.3422	7,464.11	81.1777	7,464.11	80.597	7,464.11	81.748	7,464.11	81.2344	7,464.11	79.3349	7,464.11	79.8075	7,464.11	78.6526	7,464.11	78.4478	7,464.11	78.4293	7,464.11	76.711	7,464.11	74.761	7,464.11	75.6314	7,464.11	68.8986	7,464.11	73.0554	7,464.11	74.6917	7,464.11	70.2684	7,464.11	73.5613	7,464.11	66.7322	7,464.11	45.2969	7,464.11	66.9359	7,464.11	47.6157	7,464.11	64.8088	7,464.11	64.3467	7,464.11	63.2338	7,464.11	49.3561	7,464.11	61.3022	7,464.11	59.4971	7,464.11	60.9628	7,464.11	55.2559	7,464.11	64.6984	7,464.11	56.0663	7,464.11	62.476	7,464.11	48.4064	7,464.11	55.5961
7,727.78	80.8742	7,727.78	80.4011	7,727.78	81.4194	7,727.78	80.74	7,727.78	82.0622	7,727.78	81.2526	7,727.78	79.3686	7,727.78	80.3826	7,727.78	79.136	7,727.78	78.4289	7,727.78	79.408	7,727.78	78.6787	7,727.78	76.5233	7,727.78	75.5204	7,727.78	73.8704	7,727.78	72.7503	7,727.78	77.9864	7,727.78	69.9046	7,727.78	76.5023	7,727.78	67.6241	7,727.78	61.5078	7,727.78	66.4505	7,727.78	52.0541	7,727.78	65.912	7,727.78	64.2256	7,727.78	63.2169	7,727.78	44.3896	7,727.78	59.7707	7,727.78	59.1431	7,727.78	60.7516	7,727.78	57.3649	7,727.78	64.9701	7,727.78	52.977	7,727.78	60.8788	7,727.78	51.2536	7,727.78	58.4568
8,000.24	81.6584	8,000.24	81.9702	8,000.24	81.5596	8,000.24	81.9744	8,000.24	82.2419	8,000.24	82.5907	8,000.24	79.8331	8,000.24	81.7916	8,000.24	79.332	8,000.24	81.1895	8,000.24	80.073	8,000.24	79.9639	8,000.24	77.2248	8,000.24	76.1902	8,000.24	72.2364	8,000.24	74.1684	8,000.24	77.0771	8,000.24	70.0446	8,000.24	75.6852	8,000.24	68.8231	8,000.24	62.8451	8,000.24	66.1583	8,000.24	55.1159	8,000.24	66.6691	8,000.24	64.6151	8,000.24	65.2903	8,000.24	53.0441	8,000.24	60.7683	8,000.24	57.8391	8,000.24	62.4841	8,000.24	57.266	8,000.24	66.4815	8,000.24	52.8689	8,000.24	62.5388	8,000.24	41.7721	8,000.24	58.3106
8,282.23	85.1202	8,282.23	85.0942	8,282.23	83.8962	8,282.23	84.3514	8,282.23	83.4944	8,282.23	84.3677	8,282.23	81.4578	8,282.23	83.6462	8,282.23	80.8691	8,282.23	83.5653	8,282.23	81.5674	8,282.23	80.6614	8,282.23	79.1457	8,282.23	77.5942	8,282.23	72.7295	8,282.23	74.4911	8,282.23	74.3295	8,282.23	71.3998	8,282.23	74.105	8,282.23	69.7156	8,282.23	66.6014	8,282.23	67.1792	8,282.23	59.2334	8,282.23	68.246	8,282.23	63.52	8,282.23	65.25	8,282.23	59.3989	8,282.23	63.0544	8,282.23	56.8488	8,282.23	63.8452	8,282.23	56.6738	8,282.23	68.4144	8,282.23	58.7534	8,282.23	65.2352	8,282.23	39.2514	8,282.23	57.7699
8,574.46	86.0008	8,574.46	85.3811	8,574.46	85.3261	8,574.46	84.6186	8,574.46	83.8679	8,574.46	83.6305	8,574.46	81.6504	8,574.46	83.5298	8,574.46	81.652	8,574.46	82.8756	8,574.46	82.4849	8,574.46	79.7516	8,574.46	79.3784	8,574.46	77.1895	8,574.46	74.775	8,574.46	74.5236	8,574.46	71.8226	8,574.46	71.9462	8,574.46	74.5944	8,574.46	68.963	8,574.46	67.2604	8,574.46	65.7871	8,574.46	52.3488	8,574.46	67.5214	8,574.46	58.434	8,574.46	64.121	8,574.46	57.0921	8,574.46	62.5764	8,574.46	58.7443	8,574.46	63.2933	8,574.46	61.9272	8,574.46	67.8899	8,574.46	57.6682	8,574.46	65.9494	8,574.46	41.1929	8,574.46	59.5894
8,876.22	85.5857	8,876.22	84.9306	8,876.22	85.0854	8,876.22	83.6266	8,876.22	84.1613	8,876.22	83.0527	8,876.22	81.0222	8,876.22	82.844	8,876.22	79.9455	8,876.22	81.5475	8,876.22	80.6822	8,876.22	79.8039	8,876.22	78.3289	8,876.22	76.7714	8,876.22	74.329	8,876.22	72.6487	8,876.22	72.5851	8,876.22	69.7693	8,876.22	72.7843	8,876.22	67.2058	8,876.22	63.8559	8,876.22	62.4366	8,876.22	60.7315	8,876.22	65.4874	8,876.22	43.0513	8,876.22	62.5395	8,876.22	51.5422	8,876.22	63.0547	8,876.22	56.4012	8,876.22	63.8345	8,876.22	57.1214	8,876.22	66.2798	8,876.22	53.7564	8,876.22	64.3415	8,876.22	40.3897	8,876.22	58.5367
9,189.7	84.983	9,189.7	83.502	9,189.7	84.8362	9,189.7	83.022	9,189.7	84.3961	9,189.7	82.798	9,189.7	82.3333	9,189.7	82.1037	9,189.7	80.6233	9,189.7	80.5919	9,189.7	80.879	9,189.7	78.6891	9,189.7	80.0231	9,189.7	74.5637	9,189.7	76.0673	9,189.7	72.3669	9,189.7	72.8708	9,189.7	68.7602	9,189.7	71.7374	9,189.7	66.958	9,189.7	58.0678	9,189.7	60.6131	9,189.7	52.9062	9,189.7	65.2999	9,189.7	56.0814	9,189.7	61.3047	9,189.7	48.1282	9,189.7	60.9073	9,189.7	58.832	9,189.7	64.5483	9,189.7	58.3775	9,189.7	62.9185	9,189.7	48.1195	9,189.7	61.4143	9,189.7	36.0711	9,189.7	57.5129
9,513.43	85.296	9,513.43	84.0402	9,513.43	85.5134	9,513.43	84.0191	9,513.43	84.9269	9,513.43	83.8103	9,513.43	83.7982	9,513.43	84.2093	9,513.43	82.007	9,513.43	80.8999	9,513.43	80.5929	9,513.43	77.7894	9,513.43	80.324	9,513.43	75.5671	9,513.43	76.6018	9,513.43	72.6201	9,513.43	70.8199	9,513.43	69.2094	9,513.43	69.9545	9,513.43	66.3272	9,513.43	66.0722	9,513.43	64.818	9,513.43	50.3735	9,513.43	63.428	9,513.43	55.8659	9,513.43	63.8847	9,513.43	43.4857	9,513.43	61.8269	9,513.43	56.4179	9,513.43	64.6951	9,513.43	55.8715	9,513.43	60.8952	9,513.43	52.6866	9,513.43	61.8147	9,513.43	44.8194	9,513.43	61.2142
9,848.88	86.2576	9,848.88	86.1031	9,848.88	86.0081	9,848.88	84.6266	9,848.88	85.4622	9,848.88	85.5247	9,848.88	84.4419	9,848.88	85.7082	9,848.88	83.0572	9,848.88	81.7453	9,848.88	81.5412	9,848.88	79.548	9,848.88	79.8589	9,848.88	76.9261	9,848.88	77.2944	9,848.88	75.6513	9,848.88	73.8681	9,848.88	71.0191	9,848.88	71.1836	9,848.88	67.161	9,848.88	64.0289	9,848.88	66.5677	9,848.88	58.0983	9,848.88	62.3806	9,848.88	55.4123	9,848.88	64.98	9,848.88	55.6631	9,848.88	63.3252	9,848.88	55.5785	9,848.88	64.2566	9,848.88	47.2046	9,848.88	62.2892	9,848.88	55.584	9,848.88	64.1131	9,848.88	50.5625	9,848.88	62.3382
10,196.8	87.4649	10,196.8	87.533	10,196.8	86.3433	10,196.8	85.9806	10,196.8	85.1349	10,196.8	85.9182	10,196.8	83.8687	10,196.8	85.4285	10,196.8	82.336	10,196.8	83.2933	10,196.8	81.0818	10,196.8	80.1833	10,196.8	78.1523	10,196.8	77.7646	10,196.8	75.2585	10,196.8	74.7229	10,196.8	67.8539	10,196.8	71.8044	10,196.8	63.652	10,196.8	66.2796	10,196.8	57.6524	10,196.8	65.7595	10,196.8	63.0878	10,196.8	65.2853	10,196.8	55.711	10,196.8	62.4543	10,196.8	54.6474	10,196.8	63.9846	10,196.8	56.4906	10,196.8	63.2854	10,196.8	54.4771	10,196.8	62.2083	10,196.8	51.7555	10,196.8	65.1984	10,196.8	52.2046	10,196.8	61.5223
10,556.4	88.3101	10,556.4	88.0292	10,556.4	87.0745	10,556.4	86.0336	10,556.4	85.6609	10,556.4	85.322	10,556.4	84.3083	10,556.4	84.4889	10,556.4	82.847	10,556.4	82.1273	10,556.4	81.2917	10,556.4	80.9739	10,556.4	79.0666	10,556.4	77.4894	10,556.4	75.1272	10,556.4	74.8922	10,556.4	68.8145	10,556.4	72.0904	10,556.4	61.9901	10,556.4	67.2137	10,556.4	59.2438	10,556.4	63.8265	10,556.4	55.9223	10,556.4	66.4056	10,556.4	50.0285	10,556.4	60.0275	10,556.4	54.6275	10,556.4	63.8843	10,556.4	52.1955	10,556.4	63.6287	10,556.4	57.1762	10,556.4	62.033	10,556.4	53.1043	10,556.4	64.6679	10,556.4	52.1207	10,556.4	61.9859
10,928.5	88.876	10,928.5	87.7097	10,928.5	87.5849	10,928.5	85.9957	10,928.5	86.5256	10,928.5	85.214	10,928.5	85.4216	10,928.5	83.2098	10,928.5	83.4317	10,928.5	82.6192	10,928.5	81.6716	10,928.5	81.0467	10,928.5	79.4188	10,928.5	78.2116	10,928.5	76.1517	10,928.5	73.3435	10,928.5	73.4282	10,928.5	70.7334	10,928.5	66.764	10,928.5	68.2491	10,928.5	69.1739	10,928.5	63.19	10,928.5	60.9532	10,928.5	65.2414	10,928.5	58.9534	10,928.5	62.4712	10,928.5	57.6987	10,928.5	62.4452	10,928.5	55.1649	10,928.5	66.078	10,928.5	54.7296	10,928.5	59.9312	10,928.5	56.5086	10,928.5	63.1593	10,928.5	50.8411	10,928.5	62.3284
11,313.7	89.2285	11,313.7	87.7522	11,313.7	88.8745	11,313.7	87.46	11,313.7	87.7559	11,313.7	85.63	11,313.7	86.6145	11,313.7	83.9436	11,313.7	84.8165	11,313.7	82.6639	11,313.7	82.7433	11,313.7	81.4022	11,313.7	79.736	11,313.7	78.0493	11,313.7	77.3271	11,313.7	73.6982	11,313.7	70.7805	11,313.7	70.6307	11,313.7	62.8621	11,313.7	66.3867	11,313.7	69.7012	11,313.7	63.7256	11,313.7	60.8815	11,313.7	62.6845	11,313.7	61.943	11,313.7	63.5574	11,313.7	58.4244	11,313.7	60.1507	11,313.7	59.9578	11,313.7	65.5918	11,313.7	53.6911	11,313.7	59.968	11,313.7	60.1544	11,313.7	62.797	11,313.7	52.0899	11,313.7	62.687
11,712.9	88.6453	11,712.9	88.2426	11,712.9	89.1201	11,712.9	88.0839	11,712.9	88.0786	11,712.9	85.3188	11,712.9	86.9847	11,712.9	83.4322	11,712.9	85.3973	11,712.9	81.6323	11,712.9	83.2345	11,712.9	79.5173	11,712.9	80.0664	11,712.9	75.1689	11,712.9	78.6197	11,712.9	69.718	11,712.9	70.7894	11,712.9	65.3537	11,712.9	68.7615	11,712.9	59.7478	11,712.9	68.4623	11,712.9	59.1415	11,712.9	67.2759	11,712.9	55.5329	11,712.9	62.6273	11,712.9	62.117	11,712.9	61.8576	11,712.9	55.7974	11,712.9	58.0798	11,712.9	62.9085	11,712.9	54.3897	11,712.9	60.4435	11,712.9	59.268	11,712.9	62.2163	11,712.9	52.9922	11,712.9	62.0599
12,126	88.8836	12,126	89.3669	12,126	89.2678	12,126	88.57	12,126	88.6682	12,126	85.7622	12,126	87.0305	12,126	84.4608	12,126	85.8066	12,126	82.0229	12,126	83.2196	12,126	78.1841	12,126	79.25	12,126	73.1723	12,126	76.2017	12,126	68.3408	12,126	70.8651	12,126	62.2375	12,126	67.3685	12,126	59.9173	12,126	61.9047	12,126	59.0088	12,126	61.9832	12,126	55.8812	12,126	54.7042	12,126	60.4119	12,126	56.8821	12,126	59.8977	12,126	54.6294	12,126	61.427	12,126	57.4175	12,126	58.8571	12,126	55.4423	12,126	59.1637	12,126	47.1475	12,126	60.4477
12,553.7	88.7966	12,553.7	88.8304	12,553.7	88.6749	12,553.7	86.8266	12,553.7	87.872	12,553.7	84.5683	12,553.7	86.2282	12,553.7	83.8137	12,553.7	84.6878	12,553.7	80.449	12,553.7	82.4999	12,553.7	76.0721	12,553.7	79.9191	12,553.7	69.6314	12,553.7	76.2287	12,553.7	68.3617	12,553.7	68.7162	12,553.7	63.5173	12,553.7	66.1962	12,553.7	59.4001	12,553.7	65.1386	12,553.7	57.8517	12,553.7	57.3282	12,553.7	58.6904	12,553.7	58.1903	12,553.7	56.795	12,553.7	47.7366	12,553.7	61.3513	12,553.7	48.5097	12,553.7	57.3637	12,553.7	50.5575	12,553.7	56.0811	12,553.7	54.9521	12,553.7	56.8278	12,553.7	25.2852	12,553.7	59.5413
12,996.1	87.588	12,996.1	87.3158	12,996.1	87.4638	12,996.1	84.9586	12,996.1	86.416	12,996.1	82.3431	12,996.1	85.0499	12,996.1	82.385	12,996.1	83.2491	12,996.1	78.4242	12,996.1	82.1555	12,996.1	74.1341	12,996.1	78.4259	12,996.1	70.5654	12,996.1	74.8942	12,996.1	67.6226	12,996.1	65.8215	12,996.1	65.7152	12,996.1	64.8944	12,996.1	60.8992	12,996.1	65.3072	12,996.1	58.0947	12,996.1	60.2009	12,996.1	59.8535	12,996.1	57.8088	12,996.1	53.0712	12,996.1	51.849	12,996.1	61.1447	12,996.1	52.4818	12,996.1	56.2342	12,996.1	50.6799	12,996.1	59.7453	12,996.1	47.9927	12,996.1	55.4427	12,996.1	47.5648	12,996.1	57.5435
13,454.6	86.5231	13,454.6	86.8003	13,454.6	87.0735	13,454.6	84.38	13,454.6	85.7957	13,454.6	82.6112	13,454.6	83.3679	13,454.6	81.2475	13,454.6	82.4316	13,454.6	77.7676	13,454.6	81.4348	13,454.6	74.6658	13,454.6	77.2081	13,454.6	72.2446	13,454.6	72.4846	13,454.6	67.4834	13,454.6	61.772	13,454.6	63.5079	13,454.6	63.8294	13,454.6	61.0862	13,454.6	67.371	13,454.6	54.9088	13,454.6	61.9897	13,454.6	58.37	13,454.6	55.9572	13,454.6	55.9531	13,454.6	52.2018	13,454.6	60.942	13,454.6	34.0656	13,454.6	52.3346	13,454.6	35.3709	13,454.6	60.3656	13,454.6	41.5338	13,454.6	57.5237	13,454.6	50.0987	13,454.6	53.4211
13,928.5	84.6917	13,928.5	85.3871	13,928.5	85.5589	13,928.5	82.9303	13,928.5	84.7269	13,928.5	82.261	13,928.5	81.8763	13,928.5	79.2768	13,928.5	80.3707	13,928.5	77.1329	13,928.5	79.1947	13,928.5	74.655	13,928.5	75.5711	13,928.5	71.4804	13,928.5	68.4405	13,928.5	67.1124	13,928.5	64.7054	13,928.5	61.569	13,928.5	62.1898	13,928.5	58.2235	13,928.5	67.3485	13,928.5	53.8224	13,928.5	60.0065	13,928.5	55.1571	13,928.5	51.6639	13,928.5	55.8255	13,928.5	51.1921	13,928.5	60.2002	13,928.5	49.5175	13,928.5	51.8557	13,928.5	45.8108	13,928.5	57.7465	13,928.5	42.6904	13,928.5	56.2116	13,928.5	51.5682	13,928.5	51.4292
14,419.9	84.5581	14,419.9	84.544	14,419.9	84.2124	14,419.9	83.0171	14,419.9	84.0904	14,419.9	82.2846	14,419.9	82.0984	14,419.9	78.57	14,419.9	79.1094	14,419.9	76.3488	14,419.9	77.171	14,419.9	73.9554	14,419.9	74.1942	14,419.9	69.2255	14,419.9	69.5755	14,419.9	65.7442	14,419.9	63.9529	14,419.9	61.0242	14,419.9	64.2346	14,419.9	55.1068	14,419.9	70.2643	14,419.9	53.9373	14,419.9	63.8735	14,419.9	50.2158	14,419.9	55.4402	14,419.9	53.2133	14,419.9	49.8656	14,419.9	58.1765	14,419.9	54.6915	14,419.9	46.1951	14,419.9	46.8684	14,419.9	56.9921	14,419.9	47.3689	14,419.9	51.1117	14,419.9	51.095	14,419.9	51.9516
14,928.2	85.1337	14,928.2	83.61	14,928.2	84.3097	14,928.2	82.6567	14,928.2	82.9032	14,928.2	80.1498	14,928.2	81.5836	14,928.2	77.3105	14,928.2	78.7677	14,928.2	73.444	14,928.2	75.4376	14,928.2	70.3029	14,928.2	71.9615	14,928.2	64.7037	14,928.2	68.9742	14,928.2	60.7569	14,928.2	62.0373	14,928.2	56.898	14,928.2	62.5153	14,928.2	48.6745	14,928.2	66.2638	14,928.2	50.4888	14,928.2	62.0492	14,928.2	48.7203	14,928.2	55.6087	14,928.2	47.5575	14,928.2	50.7628	14,928.2	52.7843	14,928.2	53.2898	14,928.2	38.9441	14,928.2	50.3538	14,928.2	52.3664	14,928.2	48.195	14,928.2	51.5012	14,928.2	48.2321	14,928.2	54.2195
15,454.8	84.3775	15,454.8	83.3175	15,454.8	84.0331	15,454.8	81.6858	15,454.8	81.997	15,454.8	78.627	15,454.8	79.7467	15,454.8	75.7311	15,454.8	76.8389	15,454.8	71.1381	15,454.8	73.0979	15,454.8	65.62	15,454.8	67.1306	15,454.8	60.4363	15,454.8	63.7131	15,454.8	53.7659	15,454.8	55.5444	15,454.8	46.7698	15,454.8	54.1104	15,454.8	47.4003	15,454.8	58.6663	15,454.8	38.6831	15,454.8	57.6132	15,454.8	47.1795	15,454.8	47.81	15,454.8	43.4187	15,454.8	45.4024	15,454.8	47.0397	15,454.8	45.9953	15,454.8	40.466	15,454.8	47.239	15,454.8	48.6217	15,454.8	36.8592	15,454.8	47.0051	15,454.8	34.5484	15,454.8	48.519
15,999.8	82.0659	15,999.8	81.5619	15,999.8	82.0861	15,999.8	79.6895	15,999.8	80.1565	15,999.8	76.6109	15,999.8	76.9203	15,999.8	72.671	15,999.8	73.0464	15,999.8	66.984	15,999.8	68.8094	15,999.8	60.8973	15,999.8	60.8276	15,999.8	52.3609	15,999.8	55.2754	15,999.8	45.0402	15,999.8	44.3698	15,999.8	41.5642	15,999.8	48.1179	15,999.8	41.329	15,999.8	58.2217	15,999.8	43.6	15,999.8	48.1505	15,999.8	42.794	15,999.8	40.8857	15,999.8	44.6522	15,999.8	33.9393	15,999.8	39.3837	15,999.8	40.4723	15,999.8	38.1938	15,999.8	41.093	15,999.8	46.9743	15,999.8	37.2376	15,999.8	42.7871	15,999.8	43.2961	15,999.8	39.3222
16,564.5	81.4996	16,564.5	81.2265	16,564.5	81.1574	16,564.5	79.8783	16,564.5	79.7819	16,564.5	76.7892	16,564.5	76.4271	16,564.5	72.9114	16,564.5	71.6145	16,564.5	65.5971	16,564.5	67.1166	16,564.5	60.6227	16,564.5	60.8476	16,564.5	57.3696	16,564.5	58.3739	16,564.5	49.7012	16,564.5	53.7261	16,564.5	46.592	16,564.5	58.4195	16,564.5	46.9639	16,564.5	63.5253	16,564.5	44.0336	16,564.5	57.4812	16,564.5	39.6296	16,564.5	51.5093	16,564.5	45.9526	16,564.5	47.9061	16,564.5	36.8788	16,564.5	48.8279	16,564.5	46.3824	16,564.5	40.291	16,564.5	51.6422	16,564.5	43.1342	16,564.5	26.8492	16,564.5	44.4534	16,564.5	37.6719
17,148.2	83.1242	17,148.2	82.492	17,148.2	82.456	17,148.2	81.0654	17,148.2	80.7074	17,148.2	78.2246	17,148.2	78.6482	17,148.2	75.8305	17,148.2	75.6767	17,148.2	70.0593	17,148.2	71.963	17,148.2	64.0228	17,148.2	66.3994	17,148.2	61.1967	17,148.2	62.6444	17,148.2	54.9106	17,148.2	59.2844	17,148.2	45.0065	17,148.2	62.1487	17,148.2	49.6724	17,148.2	66.069	17,148.2	45.3589	17,148.2	62.3089	17,148.2	45.0132	17,148.2	51.8996	17,148.2	48.3989	17,148.2	49.7537	17,148.2	44.9416	17,148.2	48.5835	17,148.2	46.4579	17,148.2	48.1357	17,148.2	53.0844	17,148.2	43.9414	17,148.2	45.6763	17,148.2	34.7155	17,148.2	41.4509
17,753.2	84.6918	17,753.2	83.6939	17,753.2	84.1277	17,753.2	81.3068	17,753.2	81.9127	17,753.2	78.1717	17,753.2	78.9636	17,753.2	74.046	17,753.2	75.4188	17,753.2	68.2564	17,753.2	71.4557	17,753.2	59.5735	17,753.2	63.7977	17,753.2	56.6285	17,753.2	59.3757	17,753.2	53.3763	17,753.2	53.7624	17,753.2	49.5195	17,753.2	57.4394	17,753.2	43.2586	17,753.2	64.5716	17,753.2	47.989	17,753.2	57.5067	17,753.2	40.0334	17,753.2	43.4052	17,753.2	49.7417	17,753.2	42.7419	17,753.2	34.1189	17,753.2	38.2158	17,753.2	45.597	17,753.2	48.7557	17,753.2	48.7192	17,753.2	35.5133	17,753.2	46.0456	17,753.2	41.8463	17,753.2	34.4229
18,379.4	83.5097	18,379.4	82.7234	18,379.4	83.4267	18,379.4	80.4158	18,379.4	81.3993	18,379.4	77.5142	18,379.4	77.7681	18,379.4	72.5402	18,379.4	73.5642	18,379.4	67.1791	18,379.4	69.2857	18,379.4	59.2888	18,379.4	59.7318	18,379.4	58.6094	18,379.4	43.0749	18,379.4	53.7347	18,379.4	54.4293	18,379.4	49.7482	18,379.4	59.3424	18,379.4	35.8001	18,379.4	66.7623	18,379.4	44.4288	18,379.4	56.7344	18,379.4	26.9541	18,379.4	44.2169	18,379.4	46.3971	18,379.4	30.5694	18,379.4	31.9362	18,379.4	42.8919	18,379.4	41.8869	18,379.4	46.5409	18,379.4	50.0644	18,379.4	40.4723	18,379.4	41.5938	18,379.4	43.0678	18,379.4	36.0858
19,027.6	81.8887	19,027.6	81.5567	19,027.6	81.3887	19,027.6	79.3588	19,027.6	79.9782	19,027.6	77.1521	19,027.6	76.7403	19,027.6	72.2308	19,027.6	73.0341	19,027.6	66.8213	19,027.6	67.5726	19,027.6	61.5002	19,027.6	58.7965	19,027.6	59.2602	19,027.6	54.7131	19,027.6	52.4318	19,027.6	54.6794	19,027.6	49.0344	19,027.6	59.2622	19,027.6	20.8683	19,027.6	67.4524	19,027.6	41.8537	19,027.6	59.0573	19,027.6	16.7509	19,027.6	45.3247	19,027.6	47.9332	19,027.6	43.6867	19,027.6	35.2358	19,027.6	41.3887	19,027.6	44.8552	19,027.6	45.1445	19,027.6	52.2651	19,027.6	41.0852	19,027.6	39.1621	19,027.6	43.624	19,027.6	32.2561
19,698.5	81.8922	19,698.5	80.9586	19,698.5	80.7886	19,698.5	78.3423	19,698.5	78.7599	19,698.5	75.5912	19,698.5	75.3177	19,698.5	70.9811	19,698.5	72.0439	19,698.5	64.9874	19,698.5	66.7628	19,698.5	60.3005	19,698.5	60.1048	19,698.5	54.0965	19,698.5	55.5234	19,698.5	50.1201	19,698.5	50.8171	19,698.5	34.208	19,698.5	55.8182	19,698.5	29.8974	19,698.5	65.1395	19,698.5	41.6174	19,698.5	55.8041	19,698.5	33.8878	19,698.5	42.4098	19,698.5	47.1284	19,698.5	44.2424	19,698.5	35.4886	19,698.5	44.5195	19,698.5	46.8528	19,698.5	44.0478	19,698.5	51.4876	19,698.5	36.1196	19,698.5	34.9195	19,698.5	41.2068	19,698.5	38.3507
19,999.5	81.438	19,999.5	80.5764	19,999.5	80.5467	19,999.5	77.5547	19,999.5	78.5044	19,999.5	74.7734	19,999.5	74.9096	19,999.5	69.5123	19,999.5	71.4047	19,999.5	63.4858	19,999.5	66.591	19,999.5	58.3449	19,999.5	60.2115	19,999.5	51.5516	19,999.5	56.2077	19,999.5	48.3153	19,999.5	56.9976	19,999.5	32.8444	19,999.5	56.7711	19,999.5	14.6157	19,999.5	63.8745	19,999.5	42.7409	19,999.5	53.7662	19,999.5	36.8699	19,999.5	37.0451	19,999.5	47.9491	19,999.5	45.7766	19,999.5	38.9882	19,999.5	46.7799	19,999.5	46.6478	19,999.5	43.7267	19,999.5	51.6663	19,999.5	39.4856	19,999.5	34.4895	19,999.5	38.3683	19,999.5	42.8681
