"SPL Horizontal"																																																																							
"On-Axis"		"10°"		"-10°"		"20°"		"-20°"		"30°"		"-30°"		"40°"		"-40°"		"50°"		"-50°"		"60°"		"-60°"		"70°"		"-70°"		"80°"		"-80°"		"90°"		"-90°"		"100°"		"-100°"		"110°"		"-110°"		"120°"		"-120°"		"130°"		"-130°"		"140°"		"-140°"		"150°"		"-150°"		"160°"		"-160°"		"170°"		"-170°"		"180°"	
"Frequency [Hz]"	"Sound Pessure Level [dB]  / [2.83V 1m] "	"Frequency [Hz]"	"Sound Pessure Level [dB]  / [2.83V 1m] "	"Frequency [Hz]"	"Sound Pessure Level [dB]  / [2.83V 1m] "	"Frequency [Hz]"	"Sound Pessure Level [dB]  / [2.83V 1m] "	"Frequency [Hz]"	"Sound Pessure Level [dB]  / [2.83V 1m] "	"Frequency [Hz]"	"Sound Pessure Level [dB]  / [2.83V 1m] "	"Frequency [Hz]"	"Sound Pessure Level [dB]  / [2.83V 1m] "	"Frequency [Hz]"	"Sound Pessure Level [dB]  / [2.83V 1m] "	"Frequency [Hz]"	"Sound Pessure Level [dB]  / [2.83V 1m] "	"Frequency [Hz]"	"Sound Pessure Level [dB]  / [2.83V 1m] "	"Frequency [Hz]"	"Sound Pessure Level [dB]  / [2.83V 1m] "	"Frequency [Hz]"	"Sound Pessure Level [dB]  / [2.83V 1m] "	"Frequency [Hz]"	"Sound Pessure Level [dB]  / [2.83V 1m] "	"Frequency [Hz]"	"Sound Pessure Level [dB]  / [2.83V 1m] "	"Frequency [Hz]"	"Sound Pessure Level [dB]  / [2.83V 1m] "	"Frequency [Hz]"	"Sound Pessure Level [dB]  / [2.83V 1m] "	"Frequency [Hz]"	"Sound Pessure Level [dB]  / [2.83V 1m] "	"Frequency [Hz]"	"Sound Pessure Level [dB]  / [2.83V 1m] "	"Frequency [Hz]"	"Sound Pessure Level [dB]  / [2.83V 1m] "	"Frequency [Hz]"	"Sound Pessure Level [dB]  / [2.83V 1m] "	"Frequency [Hz]"	"Sound Pessure Level [dB]  / [2.83V 1m] "	"Frequency [Hz]"	"Sound Pessure Level [dB]  / [2.83V 1m] "	"Frequency [Hz]"	"Sound Pessure Level [dB]  / [2.83V 1m] "	"Frequency [Hz]"	"Sound Pessure Level [dB]  / [2.83V 1m] "	"Frequency [Hz]"	"Sound Pessure Level [dB]  / [2.83V 1m] "	"Frequency [Hz]"	"Sound Pessure Level [dB]  / [2.83V 1m] "	"Frequency [Hz]"	"Sound Pessure Level [dB]  / [2.83V 1m] "	"Frequency [Hz]"	"Sound Pessure Level [dB]  / [2.83V 1m] "	"Frequency [Hz]"	"Sound Pessure Level [dB]  / [2.83V 1m] "	"Frequency [Hz]"	"Sound Pessure Level [dB]  / [2.83V 1m] "	"Frequency [Hz]"	"Sound Pessure Level [dB]  / [2.83V 1m] "	"Frequency [Hz]"	"Sound Pessure Level [dB]  / [2.83V 1m] "	"Frequency [Hz]"	"Sound Pessure Level [dB]  / [2.83V 1m] "	"Frequency [Hz]"	"Sound Pessure Level [dB]  / [2.83V 1m] "	"Frequency [Hz]"	"Sound Pessure Level [dB]  / [2.83V 1m] "	"Frequency [Hz]"	"Sound Pessure Level [dB]  / [2.83V 1m] "
20.5078	57.2074	20.5078	57.2095	20.5078	57.1928	20.5078	57.1991	20.5078	57.1661	20.5078	57.1757	20.5078	57.1272	20.5078	57.1389	20.5078	57.0761	20.5078	57.0883	20.5078	57.0128	20.5078	57.0234	20.5078	56.9371	20.5078	56.9442	20.5078	56.8492	20.5078	56.8505	20.5078	56.7492	20.5078	56.7429	20.5078	56.638	20.5078	56.6228	20.5078	56.5172	20.5078	56.4926	20.5078	56.3895	20.5078	56.3562	20.5078	56.2589	20.5078	56.219	20.5078	56.1311	20.5078	56.0881	20.5078	56.0129	20.5078	55.9715	20.5078	55.9121	20.5078	55.8775	20.5078	55.8364	20.5078	55.8133	20.5078	55.7924	20.5078	55.7842
21.2402	58.4481	21.2402	58.4271	21.2402	58.4667	21.2402	58.404	21.2402	58.4827	21.2402	58.379	21.2402	58.4959	21.2402	58.3526	21.2402	58.506	21.2402	58.3252	21.2402	58.5128	21.2402	58.2972	21.2402	58.516	21.2402	58.2694	21.2402	58.515	21.2402	58.2425	21.2402	58.5096	21.2402	58.2173	21.2402	58.4992	21.2402	58.1948	21.2402	58.4836	21.2402	58.176	21.2402	58.4626	21.2402	58.1621	21.2402	58.4362	21.2402	58.1541	21.2402	58.405	21.2402	58.1529	21.2402	58.3699	21.2402	58.1593	21.2402	58.3324	21.2402	58.1735	21.2402	58.2941	21.2402	58.1953	21.2402	58.2572	21.2402	58.2236
21.9727	57.2479	21.9727	57.2424	21.9727	57.2465	21.9727	57.2304	21.9727	57.2384	21.9727	57.2119	21.9727	57.2233	21.9727	57.1874	21.9727	57.2012	21.9727	57.1574	21.9727	57.1723	21.9727	57.1224	21.9727	57.1364	21.9727	57.0833	21.9727	57.094	21.9727	57.0408	21.9727	57.0453	21.9727	56.996	21.9727	56.9914	21.9727	56.9495	21.9727	56.9337	21.9727	56.9023	21.9727	56.8743	21.9727	56.8552	21.9727	56.8159	21.9727	56.8091	21.9727	56.7617	21.9727	56.7653	21.9727	56.715	21.9727	56.7253	21.9727	56.6787	21.9727	56.691	21.9727	56.6551	21.9727	56.6647	21.9727	56.6452	21.9727	56.6488
22.7051	58.2454	22.7051	58.2435	22.7051	58.236	22.7051	58.2301	22.7051	58.2157	22.7051	58.205	22.7051	58.1845	22.7051	58.1682	22.7051	58.1427	22.7051	58.1197	22.7051	58.0906	22.7051	58.0598	22.7051	58.0285	22.7051	57.989	22.7051	57.957	22.7051	57.9084	22.7051	57.8766	22.7051	57.8194	22.7051	57.7885	22.7051	57.7239	22.7051	57.6945	22.7051	57.6246	22.7051	57.5967	22.7051	57.5246	22.7051	57.4985	22.7051	57.4279	22.7051	57.4039	22.7051	57.3387	22.7051	57.3175	22.7051	57.2618	22.7051	57.2443	22.7051	57.2016	22.7051	57.1891	22.7051	57.1623	22.7051	57.1557	22.7051	57.1466
23.4375	60.0904	23.4375	60.083	23.4375	60.0894	23.4375	60.0671	23.4375	60.0798	23.4375	60.0428	23.4375	60.0615	23.4375	60.0105	23.4375	60.0347	23.4375	59.9702	23.4375	59.9994	23.4375	59.9225	23.4375	59.9557	23.4375	59.8679	23.4375	59.904	23.4375	59.8072	23.4375	59.8447	23.4375	59.7417	23.4375	59.7789	23.4375	59.6726	23.4375	59.7078	23.4375	59.602	23.4375	59.6334	23.4375	59.532	23.4375	59.5582	23.4375	59.4651	23.4375	59.4854	23.4375	59.4043	23.4375	59.4188	23.4375	59.3526	23.4375	59.362	23.4375	59.3131	23.4375	59.3184	23.4375	59.2885	23.4375	59.2908	23.4375	59.2807
24.1699	61.209	24.1699	61.1925	24.1699	61.2174	24.1699	61.1684	24.1699	61.2174	24.1699	61.1371	24.1699	61.2085	24.1699	61.0991	24.1699	61.1906	24.1699	61.055	24.1699	61.1635	24.1699	61.0052	24.1699	61.1271	24.1699	60.9506	24.1699	61.0818	24.1699	60.8921	24.1699	61.0281	24.1699	60.8306	24.1699	60.967	24.1699	60.7675	24.1699	60.8997	24.1699	60.7045	24.1699	60.8284	24.1699	60.6436	24.1699	60.7554	24.1699	60.587	24.1699	60.6837	24.1699	60.5374	24.1699	60.6168	24.1699	60.4974	24.1699	60.5579	24.1699	60.4696	24.1699	60.5102	24.1699	60.456	24.1699	60.4764	24.1699	60.4581
25.6348	62.9899	25.6348	62.9807	25.6348	62.9903	25.6348	62.9627	25.6348	62.9818	25.6348	62.9362	25.6348	62.9644	25.6348	62.9014	25.6348	62.9383	25.6348	62.8588	25.6348	62.9035	25.6348	62.8087	25.6348	62.8603	25.6348	62.7521	25.6348	62.8092	25.6348	62.6898	25.6348	62.7508	25.6348	62.6231	25.6348	62.6861	25.6348	62.5536	25.6348	62.6165	25.6348	62.4833	25.6348	62.5438	25.6348	62.4144	25.6348	62.4704	25.6348	62.3496	25.6348	62.3992	25.6348	62.292	25.6348	62.3335	25.6348	62.2444	25.6348	62.2765	25.6348	62.2096	25.6348	62.2315	25.6348	62.19	25.6348	62.2011	25.6348	62.187
26.3672	63.8093	26.3672	63.7945	26.3672	63.8148	26.3672	63.7708	26.3672	63.8107	26.3672	63.7387	26.3672	63.7966	26.3672	63.6986	26.3672	63.7724	26.3672	63.6512	26.3672	63.738	26.3672	63.5974	26.3672	63.6936	26.3672	63.5378	26.3672	63.6397	26.3672	63.4738	26.3672	63.5771	26.3672	63.4064	26.3672	63.5072	26.3672	63.3375	26.3672	63.4317	26.3672	63.2687	26.3672	63.3532	26.3672	63.2022	26.3672	63.2747	26.3672	63.1402	26.3672	63.1994	26.3672	63.0853	26.3672	63.131	26.3672	63.04	26.3672	63.0728	26.3672	63.0068	26.3672	63.0277	26.3672	62.9878	26.3672	62.9979	26.3672	62.9845
27.0996	65.0191	27.0996	65.0018	27.0996	65.0276	27.0996	64.976	27.0996	65.027	27.0996	64.9422	27.0996	65.0172	27.0996	64.9008	27.0996	64.998	27.0996	64.8525	27.0996	64.9696	27.0996	64.7981	27.0996	64.932	27.0996	64.7386	27.0996	64.8858	27.0996	64.6753	27.0996	64.8316	27.0996	64.6098	27.0996	64.7705	27.0996	64.5437	27.0996	64.7039	27.0996	64.4794	27.0996	64.6338	27.0996	64.4189	27.0996	64.5625	27.0996	64.3648	27.0996	64.4927	27.0996	64.3194	27.0996	64.4273	27.0996	64.2849	27.0996	64.3691	27.0996	64.2632	27.0996	64.321	27.0996	64.2556	27.0996	64.285	27.0996	64.263
27.832	65.5866	27.832	65.5729	27.832	65.5909	27.832	65.5501	27.832	65.5856	27.832	65.5187	27.832	65.5705	27.832	65.4792	27.832	65.5457	27.832	65.4323	27.832	65.5112	27.832	65.3789	27.832	65.4674	27.832	65.3199	27.832	65.4149	27.832	65.2566	27.832	65.3547	27.832	65.1906	27.832	65.2881	27.832	65.1235	27.832	65.2168	27.832	65.0572	27.832	65.1432	27.832	64.9939	27.832	65.0698	27.832	64.9357	27.832	64.9998	27.832	64.8849	27.832	64.9361	27.832	64.8438	27.832	64.8817	27.832	64.8143	27.832	64.8392	27.832	64.7982	27.832	64.8106	27.832	64.7968
29.2969	67.4911	29.2969	67.4796	29.2969	67.4922	29.2969	67.458	29.2969	67.4827	29.2969	67.4268	29.2969	67.4625	29.2969	67.3866	29.2969	67.4318	29.2969	67.3379	29.2969	67.3907	29.2969	67.2816	29.2969	67.3397	29.2969	67.2188	29.2969	67.2798	29.2969	67.1507	29.2969	67.2121	29.2969	67.0788	29.2969	67.1382	29.2969	67.005	29.2969	67.0601	29.2969	66.9312	29.2969	66.9804	29.2969	66.8599	29.2969	66.9018	29.2969	66.7935	29.2969	66.8276	29.2969	66.7347	29.2969	66.761	29.2969	66.6861	29.2969	66.7049	29.2969	66.6501	29.2969	66.6621	29.2969	66.6287	29.2969	66.6345	29.2969	66.6233
30.0293	68.3082	30.0293	68.297	30.0293	68.3096	30.0293	68.2763	30.0293	68.3011	30.0293	68.2466	30.0293	68.2828	30.0293	68.2083	30.0293	68.2549	30.0293	68.1623	30.0293	68.2177	30.0293	68.1093	30.0293	68.1718	30.0293	68.0505	30.0293	68.1183	30.0293	67.9873	30.0293	68.0582	30.0293	67.9212	30.0293	67.9931	30.0293	67.854	30.0293	67.9247	30.0293	67.7879	30.0293	67.8552	30.0293	67.725	30.0293	67.7869	30.0293	67.6677	30.0293	67.7224	30.0293	67.6182	30.0293	67.6641	30.0293	67.5788	30.0293	67.6144	30.0293	67.551	30.0293	67.5754	30.0293	67.5364	30.0293	67.5488	30.0293	67.5356
31.4941	69.754	31.4941	69.7404	31.4941	69.7578	31.4941	69.7176	31.4941	69.7518	31.4941	69.686	31.4941	69.7357	31.4941	69.6462	31.4941	69.7098	31.4941	69.5991	31.4941	69.6742	31.4941	69.5455	31.4941	69.6295	31.4941	69.4868	31.4941	69.5765	31.4941	69.4241	31.4941	69.5163	31.4941	69.3591	31.4941	69.4505	31.4941	69.2934	31.4941	69.3809	31.4941	69.2291	31.4941	69.3098	31.4941	69.1682	31.4941	69.2397	31.4941	69.1127	31.4941	69.1735	31.4941	69.0648	31.4941	69.1137	31.4941	69.0264	31.4941	69.063	31.4941	68.9992	31.4941	69.0235	31.4941	68.9847	31.4941	68.9968	31.4941	68.9838
32.2266	70.4492	32.2266	70.435	32.2266	70.4543	32.2266	70.4121	32.2266	70.4502	32.2266	70.3811	32.2266	70.4368	32.2266	70.3426	32.2266	70.4142	32.2266	70.2975	32.2266	70.3826	32.2266	70.2467	32.2266	70.3426	32.2266	70.1915	32.2266	70.2949	32.2266	70.1332	32.2266	70.2406	32.2266	70.0734	32.2266	70.1811	32.2266	70.0137	32.2266	70.118	32.2266	69.9561	32.2266	70.0536	32.2266	69.9022	32.2266	69.9899	32.2266	69.8539	32.2266	69.9295	32.2266	69.813	32.2266	69.8748	32.2266	69.7811	32.2266	69.8279	32.2266	69.7594	32.2266	69.7908	32.2266	69.7491	32.2266	69.7648	32.2266	69.7508
33.6914	71.7909	33.6914	71.7756	33.6914	71.7965	33.6914	71.7509	33.6914	71.7921	33.6914	71.7174	33.6914	71.7777	33.6914	71.6758	33.6914	71.7536	33.6914	71.6271	33.6914	71.72	33.6914	71.5724	33.6914	71.6777	33.6914	71.5132	33.6914	71.6276	33.6914	71.4509	33.6914	71.571	33.6914	71.3874	33.6914	71.5092	33.6914	71.3246	33.6914	71.4443	33.6914	71.2646	33.6914	71.3782	33.6914	71.2092	33.6914	71.3133	33.6914	71.1605	33.6914	71.2518	33.6914	71.1201	33.6914	71.196	33.6914	71.0894	33.6914	71.1479	33.6914	71.0696	33.6914	71.1093	33.6914	71.0615	33.6914	71.0816	33.6914	71.0655
34.4238	72.3527	34.4238	72.3381	34.4238	72.3573	34.4238	72.3138	34.4238	72.3516	34.4238	72.2804	34.4238	72.3358	34.4238	72.2385	34.4238	72.3101	34.4238	72.1892	34.4238	72.2748	34.4238	72.1336	34.4238	72.2307	34.4238	72.073	34.4238	72.1789	34.4238	72.0092	34.4238	72.1205	34.4238	71.9438	34.4238	72.0571	34.4238	71.8789	34.4238	71.9905	34.4238	71.8166	34.4238	71.923	34.4238	71.7588	34.4238	71.8566	34.4238	71.7077	34.4238	71.7938	34.4238	71.6649	34.4238	71.7369	34.4238	71.6322	34.4238	71.6879	34.4238	71.6108	34.4238	71.6487	34.4238	71.6015	34.4238	71.6207	34.4238	71.6048
35.8887	73.3826	35.8887	73.3665	35.8887	73.3884	35.8887	73.3407	35.8887	73.3838	35.8887	73.3056	35.8887	73.3687	35.8887	73.2623	35.8887	73.3435	35.8887	73.2116	35.8887	73.3086	35.8887	73.155	35.8887	73.2648	35.8887	73.094	35.8887	73.2132	35.8887	73.0302	35.8887	73.1553	35.8887	72.9655	35.8887	73.0925	35.8887	72.902	35.8887	73.027	35.8887	72.8417	35.8887	72.9607	35.8887	72.7867	35.8887	72.896	35.8887	72.7386	35.8887	72.8351	35.8887	72.6993	35.8887	72.7799	35.8887	72.6699	35.8887	72.7325	35.8887	72.6515	35.8887	72.6942	35.8887	72.6447	35.8887	72.6663	35.8887	72.6496
37.3535	74.3372	37.3535	74.3213	37.3535	74.3428	37.3535	74.2952	37.3535	74.3378	37.3535	74.2598	37.3535	74.3223	37.3535	74.2158	37.3535	74.2966	37.3535	74.1644	37.3535	74.2614	37.3535	74.1069	37.3535	74.2173	37.3535	74.045	37.3535	74.1657	37.3535	73.9804	37.3535	74.1079	37.3535	73.9151	37.3535	74.0456	37.3535	73.8512	37.3535	73.9807	37.3535	73.7909	37.3535	73.9153	37.3535	73.7362	37.3535	73.8514	37.3535	73.6888	37.3535	73.7912	37.3535	73.6505	37.3535	73.7366	37.3535	73.6223	37.3535	73.6894	37.3535	73.6051	37.3535	73.6511	37.3535	73.5994	37.3535	73.6228	37.3535	73.6054
38.8184	75.092	38.8184	75.0736	38.8184	75.1	38.8184	75.0454	38.8184	75.0976	38.8184	75.008	38.8184	75.0848	38.8184	74.9624	38.8184	75.062	38.8184	74.9098	38.8184	75.0299	38.8184	74.8517	38.8184	74.9892	38.8184	74.7898	38.8184	74.9412	38.8184	74.7261	38.8184	74.8873	38.8184	74.6627	38.8184	74.8291	38.8184	74.6017	38.8184	74.7685	38.8184	74.5452	38.8184	74.7072	38.8184	74.4953	38.8184	74.6471	38.8184	74.4536	38.8184	74.59	38.8184	74.4215	38.8184	74.5375	38.8184	74.3998	38.8184	74.4911	38.8184	74.3891	38.8184	74.4521	38.8184	74.3894	38.8184	74.4215	38.8184	74.4004
39.5508	75.417	39.5508	75.3988	39.5508	75.4244	39.5508	75.3702	39.5508	75.421	39.5508	75.332	39.5508	75.4067	39.5508	75.2852	39.5508	75.382	39.5508	75.2309	39.5508	75.3474	39.5508	75.1707	39.5508	75.304	39.5508	75.1064	39.5508	75.253	39.5508	75.04	39.5508	75.1958	39.5508	74.9735	39.5508	75.1342	39.5508	74.9093	39.5508	75.0699	39.5508	74.8494	39.5508	75.0051	39.5508	74.7961	39.5508	74.9416	39.5508	74.751	39.5508	74.8815	39.5508	74.7157	39.5508	74.8264	39.5508	74.6912	39.5508	74.7781	39.5508	74.678	39.5508	74.7379	39.5508	74.6764	39.5508	74.7069	39.5508	74.6862
41.0156	76.0919	41.0156	76.0747	41.0156	76.0988	41.0156	76.0478	41.0156	76.0954	41.0156	76.0117	41.0156	76.0819	41.0156	75.9675	41.0156	76.0586	41.0156	75.9164	41.0156	76.0265	41.0156	75.86	41.0156	75.9863	41.0156	75.8001	41.0156	75.9394	41.0156	75.7388	41.0156	75.8873	41.0156	75.6782	41.0156	75.8315	41.0156	75.6205	41.0156	75.7739	41.0156	75.5677	41.0156	75.7163	41.0156	75.5216	41.0156	75.6603	41.0156	75.4836	41.0156	75.6078	41.0156	75.4548	41.0156	75.5599	41.0156	75.4357	41.0156	75.5181	41.0156	75.4265	41.0156	75.4831	41.0156	75.427	41.0156	75.4559	41.0156	75.437
42.4805	76.3915	42.4805	76.3768	42.4805	76.3956	42.4805	76.3516	42.4805	76.3888	42.4805	76.3168	42.4805	76.3714	42.4805	76.2735	42.4805	76.3441	42.4805	76.2229	42.4805	76.3078	42.4805	76.1668	42.4805	76.2638	42.4805	76.1071	42.4805	76.2136	42.4805	76.0461	42.4805	76.159	42.4805	75.986	42.4805	76.102	42.4805	75.929	42.4805	76.0446	42.4805	75.8772	42.4805	75.9889	42.4805	75.8324	42.4805	75.9365	42.4805	75.7958	42.4805	75.8889	42.4805	75.7682	42.4805	75.8471	42.4805	75.7498	42.4805	75.8116	42.4805	75.7404	42.4805	75.7829	42.4805	75.7394	42.4805	75.7611	42.4805	75.7465
43.9453	76.8731	43.9453	76.8599	43.9453	76.8747	43.9453	76.8357	43.9453	76.865	43.9453	76.8011	43.9453	76.844	43.9453	76.7571	43.9453	76.8124	43.9453	76.705	43.9453	76.7713	43.9453	76.6463	43.9453	76.7217	43.9453	76.5829	43.9453	76.6654	43.9453	76.517	43.9453	76.6042	43.9453	76.4508	43.9453	76.54	43.9453	76.3866	43.9453	76.4752	43.9453	76.3265	43.9453	76.4117	43.9453	76.2726	43.9453	76.3517	43.9453	76.2265	43.9453	76.297	43.9453	76.1894	43.9453	76.2489	43.9453	76.1621	43.9453	76.2087	43.9453	76.145	43.9453	76.177	43.9453	76.1381	43.9453	76.1544	43.9453	76.1414
45.4102	77.1767	45.4102	77.1647	45.4102	77.1768	45.4102	77.1412	45.4102	77.165	45.4102	77.1069	45.4102	77.1416	45.4102	77.063	45.4102	77.1073	45.4102	77.0107	45.4102	77.063	45.4102	76.9517	45.4102	77.0101	45.4102	76.888	45.4102	76.9504	45.4102	76.8216	45.4102	76.8859	45.4102	76.7547	45.4102	76.8187	45.4102	76.6897	45.4102	76.7513	45.4102	76.6287	45.4102	76.686	45.4102	76.5734	45.4102	76.625	45.4102	76.5256	45.4102	76.57	45.4102	76.4863	45.4102	76.5227	45.4102	76.4563	45.4102	76.4841	45.4102	76.4361	45.4102	76.4549	45.4102	76.4259	45.4102	76.4353	45.4102	76.4256
47.6074	77.6179	47.6074	77.6037	47.6074	77.62	47.6074	77.578	47.6074	77.6102	47.6074	77.5417	47.6074	77.5885	47.6074	77.4958	47.6074	77.5558	47.6074	77.442	47.6074	77.513	47.6074	77.382	47.6074	77.4615	47.6074	77.3178	47.6074	77.4031	47.6074	77.2518	47.6074	77.3398	47.6074	77.1862	47.6074	77.2739	47.6074	77.1232	47.6074	77.2076	47.6074	77.0648	47.6074	77.1433	47.6074	77.0127	47.6074	77.0831	47.6074	76.9683	47.6074	77.0288	47.6074	76.9325	47.6074	76.9819	47.6074	76.9059	47.6074	76.9433	47.6074	76.8885	47.6074	76.9137	47.6074	76.8807	47.6074	76.8933	47.6074	76.8823
49.0723	77.8572	49.0723	77.8429	49.0723	77.8591	49.0723	77.8168	49.0723	77.8486	49.0723	77.7796	49.0723	77.8259	49.0723	77.7326	49.0723	77.7917	49.0723	77.6775	49.0723	77.7473	49.0723	77.616	49.0723	77.694	49.0723	77.5504	49.0723	77.6338	49.0723	77.4829	49.0723	77.5687	49.0723	77.416	49.0723	77.5011	49.0723	77.3519	49.0723	77.4336	49.0723	77.2927	49.0723	77.3683	49.0723	77.2401	49.0723	77.3076	49.0723	77.1954	49.0723	77.2531	49.0723	77.1595	49.0723	77.2064	49.0723	77.1328	49.0723	77.1682	49.0723	77.1154	49.0723	77.1391	49.0723	77.1074	49.0723	77.1192	49.0723	77.1087
50.5371	78.077	50.5371	78.0616	50.5371	78.0797	50.5371	78.034	50.5371	78.0695	50.5371	77.995	50.5371	78.0467	50.5371	77.9461	50.5371	78.0119	50.5371	77.8887	50.5371	77.9663	50.5371	77.8249	50.5371	77.9113	50.5371	77.7569	50.5371	77.8488	50.5371	77.687	50.5371	77.781	50.5371	77.6176	50.5371	77.7103	50.5371	77.551	50.5371	77.6392	50.5371	77.4894	50.5371	77.5703	50.5371	77.4344	50.5371	77.5059	50.5371	77.3874	50.5371	77.4479	50.5371	77.3494	50.5371	77.398	50.5371	77.3209	50.5371	77.3573	50.5371	77.3021	50.5371	77.3262	50.5371	77.2932	50.5371	77.3052	50.5371	77.2942
52.7344	78.3598	52.7344	78.3424	52.7344	78.3645	52.7344	78.3128	52.7344	78.3562	52.7344	78.272	52.7344	78.3354	52.7344	78.2213	52.7344	78.3027	52.7344	78.1626	52.7344	78.2594	52.7344	78.0979	52.7344	78.2068	52.7344	78.0297	52.7344	78.147	52.7344	77.9603	52.7344	78.0821	52.7344	77.8925	52.7344	78.0146	52.7344	77.8286	52.7344	77.9468	52.7344	77.7706	52.7344	77.8813	52.7344	77.7203	52.7344	77.8201	52.7344	77.6787	52.7344	77.765	52.7344	77.6465	52.7344	77.7173	52.7344	77.6239	52.7344	77.6778	52.7344	77.6106	52.7344	77.6469	52.7344	77.6065	52.7344	77.6247	52.7344	77.6112
54.1992	78.5542	54.1992	78.5384	54.1992	78.5571	54.1992	78.5101	54.1992	78.5468	54.1992	78.4703	54.1992	78.5237	54.1992	78.4205	54.1992	78.4885	54.1992	78.3622	54.1992	78.4426	54.1992	78.2978	54.1992	78.3874	54.1992	78.2294	54.1992	78.325	54.1992	78.1596	54.1992	78.2578	54.1992	78.091	54.1992	78.1882	54.1992	78.0258	54.1992	78.1188	54.1992	77.9661	54.1992	78.0521	54.1992	77.9138	54.1992	77.9904	54.1992	77.8699	54.1992	77.9353	54.1992	77.8351	54.1992	77.8881	54.1992	77.8097	54.1992	77.8498	54.1992	77.7937	54.1992	77.8205	54.1992	77.7869	54.1992	77.8003	54.1992	77.7891
56.3965	78.7905	56.3965	78.7705	56.3965	78.798	56.3965	78.7385	56.3965	78.7926	56.3965	78.6958	56.3965	78.7747	56.3965	78.6439	56.3965	78.7448	56.3965	78.5848	56.3965	78.7043	56.3965	78.5207	56.3965	78.6545	56.3965	78.4541	56.3965	78.5975	56.3965	78.3877	56.3965	78.5355	56.3965	78.3238	56.3965	78.4708	56.3965	78.2649	56.3965	78.4059	56.3965	78.2126	56.3965	78.3432	56.3965	78.1683	56.3965	78.2847	56.3965	78.1327	56.3965	78.2321	56.3965	78.1061	56.3965	78.1867	56.3965	78.0883	56.3965	78.149	56.3965	78.0788	56.3965	78.1193	56.3965	78.0774	56.3965	78.0976	56.3965	78.0836
58.5938	79.0871	58.5938	79.0652	58.5938	79.0967	58.5938	79.0318	58.5938	79.0941	58.5938	78.9881	58.5938	79.0793	58.5938	78.9356	58.5938	79.0532	58.5938	78.8764	58.5938	79.017	58.5938	78.8128	58.5938	78.9723	58.5938	78.7474	58.5938	78.9208	58.5938	78.6829	58.5938	78.8647	58.5938	78.622	58.5938	78.8063	58.5938	78.5668	58.5938	78.7476	58.5938	78.5193	58.5938	78.6906	58.5938	78.4806	58.5938	78.6372	58.5938	78.4514	58.5938	78.5886	58.5938	78.4317	58.5938	78.5456	58.5938	78.421	58.5938	78.5087	58.5938	78.4185	58.5938	78.478	58.5938	78.4236	58.5938	78.4536	58.5938	78.4354
60.0586	79.1492	60.0586	79.1302	60.0586	79.1555	60.0586	79.0991	60.0586	79.1489	60.0586	79.0571	60.0586	79.1298	60.0586	79.0059	60.0586	79.0993	60.0586	78.9477	60.0586	79.0588	60.0586	78.8851	60.0586	79.0102	60.0586	78.8208	60.0586	78.9558	60.0586	78.7576	60.0586	78.8979	60.0586	78.6982	60.0586	78.8391	60.0586	78.6449	60.0586	78.7818	60.0586	78.5994	60.0586	78.728	60.0586	78.5629	60.0586	78.6792	60.0586	78.5357	60.0586	78.6366	60.0586	78.5173	60.0586	78.6004	60.0586	78.5071	60.0586	78.5706	60.0586	78.504	60.0586	78.5468	60.0586	78.507	60.0586	78.5285	60.0586	78.5152
62.2559	79.3829	62.2559	79.3634	62.2559	79.3881	62.2559	79.3303	62.2559	79.3787	62.2559	79.2849	62.2559	79.3551	62.2559	79.2291	62.2559	79.3184	62.2559	79.1652	62.2559	79.27	62.2559	79.0959	62.2559	79.2121	62.2559	79.0242	62.2559	79.1472	62.2559	78.9531	62.2559	79.078	62.2559	78.8855	62.2559	79.0075	62.2559	78.8239	62.2559	78.9387	62.2559	78.7702	62.2559	78.8742	62.2559	78.7256	62.2559	78.8161	62.2559	78.6906	62.2559	78.766	62.2559	78.6648	62.2559	78.7245	62.2559	78.6477	62.2559	78.6917	62.2559	78.6383	62.2559	78.6671	62.2559	78.6358	62.2559	78.65	62.2559	78.6397
64.4531	79.6342	64.4531	79.6134	64.4531	79.6402	64.4531	79.5786	64.4531	79.6313	64.4531	79.5313	64.4531	79.6079	64.4531	79.4734	64.4531	79.5709	64.4531	79.4073	64.4531	79.522	64.4531	79.3359	64.4531	79.4634	64.4531	79.2624	64.4531	79.3975	64.4531	79.1898	64.4531	79.3274	64.4531	79.1212	64.4531	79.256	64.4531	79.0592	64.4531	79.1864	64.4531	79.0056	64.4531	79.1212	64.4531	78.9618	64.4531	79.0627	64.4531	78.928	64.4531	79.0123	64.4531	78.9038	64.4531	78.9707	64.4531	78.8884	64.4531	78.9377	64.4531	78.8805	64.4531	78.9129	64.4531	78.8794	64.4531	78.8954	64.4531	78.8844
66.6504	79.8432	66.6504	79.8205	66.6504	79.8503	66.6504	79.7831	66.6504	79.8417	66.6504	79.7325	66.6504	79.8177	66.6504	79.6708	66.6504	79.7793	66.6504	79.6006	66.6504	79.7283	66.6504	79.5251	66.6504	79.6669	66.6504	79.4475	66.6504	79.5977	66.6504	79.3712	66.6504	79.5239	66.6504	79.2994	66.6504	79.4487	66.6504	79.2349	66.6504	79.3752	66.6504	79.1796	66.6504	79.3065	66.6504	79.1347	66.6504	79.2448	66.6504	79.1004	66.6504	79.1916	66.6504	79.0761	66.6504	79.1479	66.6504	79.0609	66.6504	79.1134	66.6504	79.0533	66.6504	79.0875	66.6504	79.0525	66.6504	79.0693	66.6504	79.0578
69.5801	80.1779	69.5801	80.152	69.5801	80.1877	69.5801	80.1108	69.5801	80.181	69.5801	80.0559	69.5801	80.1582	69.5801	79.9895	69.5801	80.1203	69.5801	79.9145	69.5801	80.069	69.5801	79.8338	69.5801	80.0063	69.5801	79.751	69.5801	79.9351	69.5801	79.6697	69.5801	79.8584	69.5801	79.5931	69.5801	79.7793	69.5801	79.5241	69.5801	79.7012	69.5801	79.465	69.5801	79.6271	69.5801	79.4168	69.5801	79.5594	69.5801	79.3799	69.5801	79.4999	69.5801	79.354	69.5801	79.4498	69.5801	79.3381	69.5801	79.4092	69.5801	79.3309	69.5801	79.3778	69.5801	79.3316	69.5801	79.3548	69.5801	79.3396
71.7773	80.3552	71.7773	80.3252	71.7773	80.3693	71.7773	80.2802	71.7773	80.3673	71.7773	80.2221	71.7773	80.3494	71.7773	80.153	71.7773	80.3168	71.7773	80.0761	71.7773	80.2711	71.7773	79.9947	71.7773	80.2146	71.7773	79.9126	71.7773	80.1499	71.7773	79.8336	71.7773	80.0801	71.7773	79.7614	71.7773	80.0084	71.7773	79.6987	71.7773	79.9377	71.7773	79.6478	71.7773	79.8708	71.7773	79.6096	71.7773	79.8099	71.7773	79.5839	71.7773	79.7562	71.7773	79.5699	71.7773	79.7104	71.7773	79.5656	71.7773	79.6721	71.7773	79.5694	71.7773	79.6407	71.7773	79.5796	71.7773	79.6153	71.7773	79.595
73.9746	80.6238	73.9746	80.5946	73.9746	80.6366	73.9746	80.5497	73.9746	80.6327	73.9746	80.4907	73.9746	80.6127	73.9746	80.4199	73.9746	80.5778	73.9746	80.3402	73.9746	80.5299	73.9746	80.2551	73.9746	80.4714	73.9746	80.1685	73.9746	80.405	73.9746	80.0843	73.9746	80.3337	73.9746	80.0064	73.9746	80.2608	73.9746	79.9382	73.9746	80.1891	73.9746	79.8821	73.9746	80.1213	73.9746	79.8396	73.9746	80.0592	73.9746	79.8109	73.9746	80.004	73.9746	79.7952	73.9746	79.9561	73.9746	79.791	73.9746	79.9151	73.9746	79.7961	73.9746	79.8805	73.9746	79.8088	73.9746	79.8515	73.9746	79.8275
76.9043	80.8758	76.9043	80.8493	76.9043	80.8855	76.9043	80.807	76.9043	80.8786	76.9043	80.7504	76.9043	80.8556	76.9043	80.6819	76.9043	80.818	76.9043	80.6046	76.9043	80.7679	76.9043	80.5219	76.9043	80.7079	76.9043	80.438	76.9043	80.6411	76.9043	80.3568	76.9043	80.5707	76.9043	80.2823	76.9043	80.5001	76.9043	80.2175	76.9043	80.4321	76.9043	80.165	76.9043	80.3692	76.9043	80.1258	76.9043	80.3131	76.9043	80.1	76.9043	80.2645	76.9043	80.0864	76.9043	80.2233	76.9043	80.0833	76.9043	80.1889	76.9043	80.0885	76.9043	80.1602	76.9043	80.0999	76.9043	80.1362	76.9043	80.1161
79.834	81.0987	79.834	81.0766	79.834	81.103	79.834	81.0377	79.834	81.0896	79.834	80.9835	79.834	81.0594	79.834	80.9167	79.834	81.0141	79.834	80.8407	79.834	80.9563	79.834	80.7592	79.834	80.8893	79.834	80.6767	79.834	80.8167	79.834	80.5975	79.834	80.7426	79.834	80.5257	79.834	80.6709	79.834	80.4645	79.834	80.6049	79.834	80.4161	79.834	80.5472	79.834	80.3815	79.834	80.4994	79.834	80.36	79.834	80.4617	79.834	80.35	79.834	80.4332	79.834	80.3487	79.834	80.412	79.834	80.3536	79.834	80.3961	79.834	80.3619	79.834	80.3832	79.834	80.372
82.7637	81.4534	82.7637	81.4324	82.7637	81.4544	82.7637	81.3924	82.7637	81.4354	82.7637	81.3351	82.7637	81.3974	82.7637	81.2634	82.7637	81.3421	82.7637	81.1806	82.7637	81.2723	82.7637	81.091	82.7637	81.1915	82.7637	80.999	82.7637	81.1039	82.7637	80.9096	82.7637	81.0142	82.7637	80.8271	82.7637	80.9269	82.7637	80.7552	82.7637	80.8465	82.7637	80.6965	82.7637	80.7765	82.7637	80.652	82.7637	80.719	82.7637	80.6214	82.7637	80.6748	82.7637	80.6028	82.7637	80.6431	82.7637	80.5935	82.7637	80.6219	82.7637	80.5907	82.7637	80.6085	82.7637	80.5917	82.7637	80.6003	82.7637	80.595
85.6934	81.7799	85.6934	81.7598	85.6934	81.778	85.6934	81.7188	85.6934	81.7541	85.6934	81.6586	85.6934	81.7088	85.6934	81.5815	85.6934	81.6439	85.6934	81.491	85.6934	81.5618	85.6934	81.3908	85.6934	81.4659	85.6934	81.2854	85.6934	81.3602	85.6934	81.1792	85.6934	81.2497	85.6934	81.077	85.6934	81.1394	85.6934	80.9828	85.6934	81.0344	85.6934	80.8999	85.6934	80.9394	85.6934	80.8304	85.6934	80.8577	85.6934	80.775	85.6934	80.7914	85.6934	80.7332	85.6934	80.741	85.6934	80.7033	85.6934	80.7056	85.6934	80.6836	85.6934	80.6832	85.6934	80.6722	85.6934	80.6713	85.6934	80.6681
88.623	81.9186	88.623	81.8972	88.623	81.9229	88.623	81.8598	88.623	81.9096	88.623	81.8082	88.623	81.8788	88.623	81.7449	88.623	81.8317	88.623	81.6725	88.623	81.7698	88.623	81.5943	88.623	81.6955	88.623	81.5133	88.623	81.6118	88.623	81.4326	88.623	81.522	88.623	81.3548	88.623	81.4301	88.623	81.2823	88.623	81.3399	88.623	81.2166	88.623	81.2551	88.623	81.1586	88.623	81.1789	88.623	81.1088	88.623	81.1139	88.623	81.0672	88.623	81.0617	88.623	81.0337	88.623	81.023	88.623	81.0082	88.623	80.9976	88.623	80.9911	88.623	80.9846	88.623	80.9829
91.5527	81.722	91.5527	81.6829	91.5527	81.7448	91.5527	81.6293	91.5527	81.7511	91.5527	81.564	91.5527	81.7417	91.5527	81.4911	91.5527	81.7186	91.5527	81.4154	91.5527	81.6846	91.5527	81.3426	91.5527	81.6434	91.5527	81.2782	91.5527	81.5992	91.5527	81.2271	91.5527	81.5559	91.5527	81.1932	91.5527	81.5172	91.5527	81.1783	91.5527	81.4859	91.5527	81.1823	91.5527	81.4634	91.5527	81.2028	91.5527	81.4499	91.5527	81.2359	91.5527	81.4439	91.5527	81.2765	91.5527	81.4428	91.5527	81.3192	91.5527	81.443	91.5527	81.3591	91.5527	81.441	91.5527	81.3927	91.5527	81.4333	91.5527	81.4176
94.4824	82.365	94.4824	82.3359	94.4824	82.3699	94.4824	82.2839	94.4824	82.3511	94.4824	82.2113	94.4824	82.3098	94.4824	82.1214	94.4824	82.2488	94.4824	82.0192	94.4824	82.1718	94.4824	81.9103	94.4824	82.0837	94.4824	81.8012	94.4824	81.9899	94.4824	81.6987	94.4824	81.8965	94.4824	81.6088	94.4824	81.8091	94.4824	81.5369	94.4824	81.7326	94.4824	81.4858	94.4824	81.6703	94.4824	81.4564	94.4824	81.6236	94.4824	81.4468	94.4824	81.5918	94.4824	81.4528	94.4824	81.572	94.4824	81.4693	94.4824	81.5602	94.4824	81.4906	94.4824	81.5517	94.4824	81.5117	94.4824	81.5424	94.4824	81.5294
98.1445	82.5811	98.1445	82.5568	98.1445	82.5817	98.1445	82.51	98.1445	82.5583	98.1445	82.4431	98.1445	82.512	98.1445	82.3596	98.1445	82.4446	98.1445	82.2638	98.1445	82.3596	98.1445	82.1608	98.1445	82.2613	98.1445	82.0562	98.1445	82.1548	98.1445	81.9554	98.1445	82.046	98.1445	81.8637	98.1445	81.9412	98.1445	81.7851	98.1445	81.8459	98.1445	81.7222	98.1445	81.7648	98.1445	81.6756	98.1445	81.7009	98.1445	81.6442	98.1445	81.6549	98.1445	81.6253	98.1445	81.6255	98.1445	81.6153	98.1445	81.6099	98.1445	81.6105	98.1445	81.6039	98.1445	81.6077	98.1445	81.6035	98.1445	81.6053
101.807	82.8073	101.807	82.7807	101.807	82.8102	101.807	82.7316	101.807	82.7892	101.807	82.6628	101.807	82.7454	101.807	82.578	101.807	82.6813	101.807	82.4818	101.807	82.6003	101.807	82.38	101.807	82.5071	101.807	82.2784	101.807	82.4073	101.807	82.1829	101.807	82.3068	101.807	82.0989	101.807	82.2116	101.807	82.0302	101.807	82.1272	101.807	81.979	101.807	82.0573	101.807	81.9452	101.807	82.0043	101.807	81.927	101.807	81.9681	101.807	81.9206	101.807	81.9467	101.807	81.9219	101.807	81.9368	101.807	81.9265	101.807	81.9339	101.807	81.9311	101.807	81.9339	101.807	81.9335
105.469	83.0409	105.469	83.0107	105.469	83.0458	105.469	82.9568	105.469	83.025	105.469	82.8822	105.469	82.9797	105.469	82.7914	105.469	82.9122	105.469	82.6897	105.469	82.8266	105.469	82.5834	105.469	82.7278	105.469	82.4791	105.469	82.6221	105.469	82.3833	105.469	82.5161	105.469	82.3016	105.469	82.4168	105.469	82.2379	105.469	82.3303	105.469	82.1937	105.469	82.261	105.469	82.1683	105.469	82.2114	105.469	82.1588	105.469	82.1811	105.469	82.1604	105.469	82.1675	105.469	82.168	105.469	82.1661	105.469	82.1765	105.469	82.1715	105.469	82.1821	105.469	82.1784	105.469	82.1827
109.131	83.3264	109.131	83.2904	109.131	83.3356	109.131	83.2291	109.131	83.3179	109.131	83.1456	109.131	83.2746	109.131	83.0441	109.131	83.2083	109.131	82.9305	109.131	83.1229	109.131	82.8115	109.131	83.0239	109.131	82.6947	109.131	82.9173	109.131	82.5876	109.131	82.81	109.131	82.4971	109.131	82.7089	109.131	82.4279	109.131	82.6202	109.131	82.3826	109.131	82.5485	109.131	82.3604	109.131	82.4963	109.131	82.3579	109.131	82.4631	109.131	82.3695	109.131	82.4461	109.131	82.3888	109.131	82.4406	109.131	82.4094	109.131	82.4408	109.131	82.4264	109.131	82.441	109.131	82.437
112.793	83.5826	112.793	83.5535	112.793	83.5841	112.793	83.4983	112.793	83.558	112.793	83.4199	112.793	83.5056	112.793	83.3228	112.793	83.4298	112.793	83.2124	112.793	83.3348	112.793	83.0956	112.793	83.2264	112.793	82.9796	112.793	83.1113	112.793	82.872	112.793	82.997	112.793	82.7795	112.793	82.8911	112.793	82.7072	112.793	82.8002	112.793	82.6576	112.793	82.7293	112.793	82.6304	112.793	82.6806	112.793	82.6225	112.793	82.6534	112.793	82.6285	112.793	82.6443	112.793	82.6419	112.793	82.6475	112.793	82.6563	112.793	82.6567	112.793	82.6665	112.793	82.6657	112.793	82.6698
116.455	83.7872	116.455	83.7542	116.455	83.7916	116.455	83.6943	116.455	83.7668	116.455	83.6111	116.455	83.7141	116.455	83.5093	116.455	83.6362	116.455	83.3953	116.455	83.5375	116.455	83.2764	116.455	83.4239	116.455	83.1605	116.455	83.3026	116.455	83.0554	116.455	83.1816	116.455	82.9676	116.455	83.0694	116.455	82.9019	116.455	82.9734	116.455	82.86	116.455	82.8992	116.455	82.8404	116.455	82.8497	116.455	82.8388	116.455	82.8246	116.455	82.8488	116.455	82.8202	116.455	82.8634	116.455	82.8303	116.455	82.876	116.455	82.8479	116.455	82.8817	116.455	82.8657	116.455	82.8781
120.85	84.0397	120.85	83.9933	120.85	84.055	120.85	83.9177	120.85	84.0389	120.85	83.8167	120.85	83.9928	120.85	83.6956	120.85	83.9196	120.85	83.5615	120.85	83.8242	120.85	83.423	120.85	83.7126	120.85	83.2894	120.85	83.5926	120.85	83.1702	120.85	83.4726	120.85	83.0735	120.85	83.3611	120.85	83.0052	120.85	83.2658	120.85	82.9677	120.85	83.1922	120.85	82.9592	120.85	83.1429	120.85	82.9744	120.85	83.1168	120.85	83.0055	120.85	83.1095	120.85	83.0433	120.85	83.1141	120.85	83.0795	120.85	83.1227	120.85	83.1075	120.85	83.1278	120.85	83.1238
125.244	84.2541	125.244	84.2051	125.244	84.2696	125.244	84.1243	125.244	84.2517	125.244	84.0153	125.244	84.2019	125.244	83.8832	125.244	84.1235	125.244	83.7355	125.244	84.0214	125.244	83.5811	125.244	83.9021	125.244	83.4304	125.244	83.7735	125.244	83.2942	125.244	83.6444	125.244	83.1823	125.244	83.5238	125.244	83.1022	125.244	83.4199	125.244	83.0571	125.244	83.3389	125.244	83.0459	125.244	83.2834	125.244	83.0628	125.244	83.2526	125.244	83.0987	125.244	83.2418	125.244	83.1433	125.244	83.2437	125.244	83.1868	125.244	83.2497	125.244	83.2215	125.244	83.2516	125.244	83.2433
129.639	84.4366	129.639	84.3998	129.639	84.4393	129.639	84.33	129.639	84.4083	129.639	84.23	129.639	84.3456	129.639	84.1043	129.639	84.2549	129.639	83.9594	129.639	84.1416	129.639	83.8033	129.639	84.0127	129.639	83.6458	129.639	83.8768	129.639	83.4976	129.639	83.7431	129.639	83.3694	129.639	83.6212	129.639	83.2701	129.639	83.5193	129.639	83.2056	129.639	83.443	129.639	83.1769	129.639	83.394	129.639	83.1806	129.639	83.3701	129.639	83.2088	129.639	83.3652	129.639	83.251	129.639	83.3707	129.639	83.2965	129.639	83.3772	129.639	83.3361	129.639	83.3767	129.639	83.3636
134.033	84.5046	134.033	84.4819	134.033	84.493	134.033	84.4266	134.033	84.4473	134.033	84.342	134.033	84.3692	134.033	84.2333	134.033	84.2625	134.033	84.107	134.033	84.1328	134.033	83.9714	134.033	83.9878	134.033	83.8355	134.033	83.8368	134.033	83.7086	134.033	83.6902	134.033	83.5994	134.033	83.559	134.033	83.5146	134.033	83.4526	134.033	83.4576	134.033	83.3776	134.033	83.4281	134.033	83.3367	134.033	83.422	134.033	83.3275	134.033	83.432	134.033	83.3434	134.033	83.4492	134.033	83.3748	134.033	83.4647	134.033	83.4112	134.033	83.4713	134.033	83.4433	134.033	83.4644
138.428	84.6917	138.428	84.6565	138.428	84.6899	138.428	84.5868	138.428	84.6506	138.428	84.487	138.428	84.575	138.428	84.3635	138.428	84.4665	138.428	84.2242	138.428	84.3306	138.428	84.079	138.428	84.1752	138.428	83.9384	138.428	84.0103	138.428	83.813	138.428	83.8474	138.428	83.7117	138.428	83.6992	138.428	83.6408	138.428	83.5775	138.428	83.6019	138.428	83.4911	138.428	83.592	138.428	83.4446	138.428	83.6039	138.428	83.4368	138.428	83.6276	138.428	83.4609	138.428	83.6523	138.428	83.5061	138.428	83.6681	138.428	83.56	138.428	83.6678	138.428	83.6105	138.428	83.6483
143.555	84.8486	143.555	84.7935	143.555	84.8646	143.555	84.7015	143.555	84.8411	143.555	84.5769	143.555	84.7797	143.555	84.4263	143.555	84.6838	143.555	84.2586	143.555	84.559	143.555	84.0848	143.555	84.4128	143.555	83.9176	143.555	84.2547	143.555	83.7698	143.555	84.0957	143.555	83.6532	143.555	83.9477	143.555	83.5757	143.555	83.8218	143.555	83.5401	143.555	83.7269	143.555	83.5427	143.555	83.6678	143.555	83.5747	143.555	83.6441	143.555	83.6234	143.555	83.6499	143.555	83.6755	143.555	83.6753	143.555	83.7191	143.555	83.7082	143.555	83.7455	143.555	83.7366	143.555	83.751
148.682	85.0134	148.682	84.9596	148.682	85.0254	148.682	84.866	148.682	84.9957	148.682	84.7365	148.682	84.9264	148.682	84.5778	148.682	84.8219	148.682	84.3987	148.682	84.6883	148.682	84.2108	148.682	84.5344	148.682	84.0276	148.682	84.3708	148.682	83.8636	148.682	84.2098	148.682	83.7324	148.682	84.0642	148.682	83.6444	148.682	83.9456	148.682	83.6041	148.682	83.8622	148.682	83.6091	148.682	83.8172	148.682	83.6506	148.682	83.8078	148.682	83.7147	148.682	83.8256	148.682	83.786	148.682	83.8584	148.682	83.8502	148.682	83.8926	148.682	83.8965	148.682	83.9157	148.682	83.9185
153.809	85.2028	153.809	85.1502	153.809	85.2111	153.809	85.0552	153.809	85.175	153.809	84.9215	153.809	85.0967	153.809	84.7556	153.809	84.9799	153.809	84.566	153.809	84.8311	153.809	84.3641	153.809	84.6587	153.809	84.1635	153.809	84.4736	153.809	83.979	153.809	84.2888	153.809	83.8253	153.809	84.118	153.809	83.714	153.809	83.9743	153.809	83.6511	153.809	83.8678	153.809	83.6358	153.809	83.8034	153.809	83.6599	153.809	83.7793	153.809	83.7099	153.809	83.7877	153.809	83.7702	153.809	83.8158	153.809	83.8257	153.809	83.8492	153.809	83.8649	153.809	83.8745	153.809	83.8814
159.668	85.4631	159.668	85.4131	159.668	85.4669	159.668	85.3189	159.668	85.4248	159.668	85.1845	159.668	85.3387	159.668	85.0159	159.668	85.2126	159.668	84.8222	159.668	85.0531	159.668	84.6148	159.668	84.8694	159.668	84.4078	159.668	84.673	159.668	84.2169	159.668	84.4781	159.668	84.0575	159.668	84.2998	159.668	83.942	159.668	84.1524	159.668	83.8769	159.668	84.0465	159.668	83.8613	159.668	83.987	159.668	83.8867	159.668	83.9711	159.668	83.9389	159.668	83.9893	159.668	84.0014	159.668	84.0273	159.668	84.0583	159.668	84.0694	159.668	84.0976	159.668	84.1011	159.668	84.1122
164.795	85.5476	164.795	85.5068	164.795	85.5431	164.795	85.4229	164.795	85.4932	164.795	85.2997	164.795	85.3996	164.795	85.1433	164.795	85.266	164.795	84.9622	164.795	85.0985	164.795	84.7673	164.795	84.9059	164.795	84.5717	164.795	84.6995	164.795	84.3897	164.795	84.4934	164.795	84.2354	164.795	84.3033	164.795	84.12	164.795	84.1443	164.795	84.0496	164.795	84.0288	164.795	84.0233	164.795	83.9632	164.795	84.0335	164.795	83.9461	164.795	84.067	164.795	83.9687	164.795	84.1086	164.795	84.0165	164.795	84.1437	164.795	84.0729	164.795	84.1608	164.795	84.1225	164.795	84.1538
170.654	85.5316	170.654	85.4657	170.654	85.5496	170.654	85.3545	170.654	85.5191	170.654	85.2033	170.654	85.4419	170.654	85.0202	170.654	85.3217	170.654	84.8163	170.654	85.1647	170.654	84.6062	170.654	84.9798	170.654	84.4065	170.654	84.7788	170.654	84.2348	170.654	84.5763	170.654	84.1067	170.654	84.3886	170.654	84.0321	170.654	84.2323	170.654	84.013	170.654	84.121	170.654	84.0421	170.654	84.0623	170.654	84.1051	170.654	84.0557	170.654	84.1834	170.654	84.092	170.654	84.2583	170.654	84.1555	170.654	84.3139	170.654	84.2279	170.654	84.3398	170.654	84.2913	170.654	84.3315
176.514	85.6414	176.514	85.5845	176.514	85.6465	176.514	85.4766	176.514	85.6013	176.514	85.3205	176.514	85.5093	176.514	85.1221	176.514	85.3759	176.514	84.8909	176.514	85.209	176.514	84.6409	176.514	85.0188	176.514	84.3903	176.514	84.8181	176.514	84.1614	176.514	84.622	176.514	83.977	176.514	84.4465	176.514	83.8566	176.514	84.3065	176.514	83.8102	176.514	84.2131	176.514	83.8354	176.514	84.1706	176.514	83.9171	176.514	84.1752	176.514	84.032	176.514	84.2151	176.514	84.1543	176.514	84.2731	176.514	84.2614	176.514	84.3299	176.514	84.3368	176.514	84.3675	176.514	84.3722
183.105	85.6986	183.105	85.6626	183.105	85.681	183.105	85.5743	183.105	85.6103	183.105	85.4372	183.105	85.4888	183.105	85.2569	183.105	85.3216	183.105	85.0419	183.105	85.1166	183.105	84.8044	183.105	84.8852	183.105	84.56	183.105	84.6424	183.105	84.3281	183.105	84.4069	183.105	84.1294	183.105	84.1992	183.105	83.983	183.105	84.0386	183.105	83.9013	183.105	83.9388	183.105	83.8863	183.105	83.9045	183.105	83.9279	183.105	83.929	183.105	84.0071	183.105	83.9959	183.105	84.0998	183.105	84.083	183.105	84.1829	183.105	84.1671	183.105	84.238	183.105	84.2287	183.105	84.2542
189.697	85.7942	189.697	85.7461	189.697	85.7877	189.697	85.6464	189.697	85.7255	189.697	85.4995	189.697	85.6085	189.697	85.3122	189.697	85.4397	189.697	85.0936	189.697	85.2249	189.697	84.8559	189.697	84.9739	189.697	84.6142	189.697	84.7004	189.697	84.3866	189.697	84.4234	189.697	84.1919	189.697	84.1654	189.697	84.0467	189.697	83.9506	189.697	83.9615	189.697	83.7999	189.697	83.9367	189.697	83.7251	189.697	83.9623	189.697	83.7251	189.697	84.0193	189.697	83.7855	189.697	84.085	189.697	83.8824	189.697	84.1372	189.697	83.9888	189.697	84.1588	189.697	84.0806	189.697	84.1401
196.289	85.8708	196.289	85.7967	196.289	85.8879	196.289	85.6692	196.289	85.8471	196.289	85.4942	196.289	85.7497	196.289	85.2806	196.289	85.5994	196.289	85.0404	196.289	85.403	196.289	84.789	196.289	85.1703	196.289	84.5448	196.289	84.9151	196.289	84.3278	196.289	84.655	196.289	84.1569	196.289	84.4109	196.289	84.0465	196.289	84.2047	196.289	84.0022	196.289	84.056	196.289	84.0191	196.289	83.9766	196.289	84.0818	196.289	83.9672	196.289	84.1687	196.289	84.0161	196.289	84.2559	196.289	84.1022	196.289	84.3223	196.289	84.2001	196.289	84.3527	196.289	84.2855	196.289	84.3399
202.881	86.0036	202.881	85.9232	202.881	86.0194	202.881	85.7811	202.881	85.9703	202.881	85.5827	202.881	85.8583	202.881	85.3369	202.881	85.6881	202.881	85.0567	202.881	85.468	202.881	84.7601	202.881	85.2099	202.881	84.4698	202.881	84.9306	202.881	84.2119	202.881	84.6514	202.881	84.0119	202.881	84.3965	202.881	83.8894	202.881	84.1907	202.881	83.8514	202.881	84.0532	202.881	83.8905	202.881	83.9932	202.881	83.986	202.881	84.0059	202.881	84.1097	202.881	84.0743	202.881	84.2329	202.881	84.1729	202.881	84.3315	202.881	84.2745	202.881	84.3885	202.881	84.3548	202.881	84.396
210.205	86.0201	210.205	85.9298	210.205	86.0445	210.205	85.7756	210.205	86.0028	210.205	85.5617	210.205	85.8962	210.205	85.2948	210.205	85.7284	210.205	84.9859	210.205	85.5055	210.205	84.6513	210.205	85.2377	210.205	84.3142	210.205	84.94	210.205	84.0036	210.205	84.6332	210.205	83.752	210.205	84.3432	210.205	83.5878	210.205	84.0983	210.205	83.5266	210.205	83.9238	210.205	83.5643	210.205	83.8346	210.205	83.6776	210.205	83.8295	210.205	83.8312	210.205	83.8914	210.205	83.988	210.205	83.9914	210.205	84.1166	210.205	84.0973	210.205	84.1961	210.205	84.1796	210.205	84.2166
217.529	85.9963	217.529	85.9233	217.529	86.0025	217.529	85.7846	217.529	85.9431	217.529	85.5832	217.529	85.8209	217.529	85.3253	217.529	85.6411	217.529	85.0207	217.529	85.4122	217.529	84.6847	217.529	85.146	217.529	84.3391	217.529	84.8592	217.529	84.0124	217.529	84.5732	217.529	83.7375	217.529	84.313	217.529	83.5459	217.529	84.1039	217.529	83.4585	217.529	83.966	217.529	83.4771	217.529	83.9082	217.529	83.5832	217.529	83.9241	217.529	83.7431	217.529	83.9937	217.529	83.9182	217.529	84.0883	217.529	84.0741	217.529	84.1772	217.529	84.1858	217.529	84.2339	217.529	84.2398
225.586	86.2317	225.586	86.1852	225.586	86.2055	225.586	86.0674	225.586	86.107	225.586	85.881	225.586	85.9377	225.586	85.6314	225.586	85.7017	225.586	85.3278	225.586	85.4062	225.586	84.9845	225.586	85.0636	225.586	84.6234	225.586	84.6931	225.586	84.2742	225.586	84.3227	225.586	83.9728	225.586	83.9881	225.586	83.7551	225.586	83.7284	225.586	83.6464	225.586	83.5764	225.586	83.6516	225.586	83.5462	225.586	83.7514	225.586	83.6262	225.586	83.9086	225.586	83.7824	225.586	84.0798	225.586	83.97	225.586	84.2253	225.586	84.1451	225.586	84.3155	225.586	84.2733	225.586	84.333
232.91	86.3769	232.91	86.3128	232.91	86.3715	232.91	86.1828	232.91	86.2937	232.91	85.9912	232.91	86.1416	232.91	85.744	232.91	85.9144	232.91	85.4491	232.91	85.6143	232.91	85.1184	232.91	85.2478	232.91	84.7693	232.91	84.829	232.91	84.4255	232.91	84.3827	232.91	84.1173	232.91	83.9474	232.91	83.877	232.91	83.5737	232.91	83.7314	232.91	83.3149	232.91	83.6914	232.91	83.2078	232.91	83.7461	232.91	83.2551	232.91	83.864	232.91	83.4212	232.91	84.0024	232.91	83.6477	232.91	84.1188	232.91	83.8746	232.91	84.1784	232.91	84.0547	232.91	84.1593
241.699	86.2361	241.699	86.1304	241.699	86.2725	241.699	85.9563	241.699	86.2393	241.699	85.7162	241.699	86.1372	241.699	85.4152	241.699	85.9669	241.699	85.0617	241.699	85.7305	241.699	84.6704	241.699	85.4316	241.699	84.2632	241.699	85.0774	241.699	83.8711	241.699	84.6809	241.699	83.5318	241.699	84.2638	241.699	83.2831	241.699	83.8585	241.699	83.1509	241.699	83.5062	241.699	83.1379	241.699	83.2496	241.699	83.2201	241.699	83.1179	241.699	83.355	241.699	83.1135	241.699	83.4946	241.699	83.2082	241.699	83.5977	241.699	83.3538	241.699	83.637	241.699	83.4988	241.699	83.6016
249.756	86.3316	249.756	86.2601	249.756	86.3353	249.756	86.121	249.756	86.2718	249.756	85.916	249.756	86.1422	249.756	85.6481	249.756	85.948	249.756	85.3235	249.756	85.6918	249.756	84.9525	249.756	85.3781	249.756	84.5516	249.756	85.0149	249.756	84.1448	249.756	84.6158	249.756	83.7645	249.756	84.2031	249.756	83.4474	249.756	83.8088	249.756	83.2267	249.756	83.4724	249.756	83.1201	249.756	83.232	249.756	83.1215	249.756	83.111	249.756	83.2008	249.756	83.106	249.756	83.3146	249.756	83.186	249.756	83.4189	249.756	83.3042	249.756	83.4795	249.756	83.4133	249.756	83.4778
258.545	86.297	258.545	86.2282	258.545	86.3023	258.545	86.0963	258.545	86.2447	258.545	85.9031	258.545	86.1264	258.545	85.6517	258.545	85.9509	258.545	85.3475	258.545	85.7227	258.545	84.9993	258.545	85.4477	258.545	84.6213	258.545	85.1337	258.545	84.2359	258.545	84.791	258.545	83.8736	258.545	84.4345	258.545	83.5711	258.545	84.085	258.545	83.3619	258.545	83.77	258.545	83.2639	258.545	83.5196	258.545	83.2699	258.545	83.3592	258.545	83.3482	258.545	83.2985	258.545	83.4536	258.545	83.325	258.545	83.5428	258.545	83.4062	258.545	83.5851	258.545	83.5002	258.545	83.5684
268.066	85.6609	268.066	85.569	268.066	85.6888	268.066	85.4156	268.066	85.6527	268.066	85.2064	268.066	85.5557	268.066	84.9497	268.066	85.4031	268.066	84.6564	268.066	85.2011	268.066	84.3396	268.066	84.9569	268.066	84.0155	268.066	84.6776	268.066	83.7029	268.066	84.3712	268.066	83.4232	268.066	84.0476	268.066	83.1973	268.066	83.7213	268.066	83.0412	268.066	83.4122	268.066	82.9593	268.066	83.1451	268.066	82.9419	268.066	82.9447	268.066	82.9661	268.066	82.8277	268.066	83.0025	268.066	82.7947	268.066	83.0241	268.066	82.8277	268.066	83.0131	268.066	82.8959	268.066	82.9663
277.588	85.6663	277.588	85.5992	277.588	85.6429	277.588	85.4464	277.588	85.5315	277.588	85.2188	277.588	85.3424	277.588	84.9327	277.588	85.0952	277.588	84.6088	277.588	84.8183	277.588	84.2701	277.588	84.5461	277.588	83.9397	277.588	84.3134	277.588	83.6389	277.588	84.1457	277.588	83.3852	277.588	84.0522	277.588	83.1923	277.588	84.0231	277.588	83.0704	277.588	84.0359	277.588	83.025	277.588	84.0642	277.588	83.0552	277.588	84.0855	277.588	83.1509	277.588	84.0849	277.588	83.2932	277.588	84.055	277.588	83.4587	277.588	83.9931	277.588	83.6249	277.588	83.8993	277.588	83.7751
287.109	85.8138	287.109	85.7066	287.109	85.8044	287.109	85.4916	287.109	85.6738	287.109	85.1831	287.109	85.4228	287.109	84.803	287.109	85.0607	287.109	84.3834	287.109	84.6107	287.109	83.9682	287.109	84.1167	287.109	83.6099	287.109	83.6478	287.109	83.3583	287.109	83.2907	287.109	83.244	287.109	83.1208	287.109	83.2666	287.109	83.1632	287.109	83.396	287.109	83.3767	287.109	83.5883	287.109	83.6795	287.109	83.8018	287.109	83.99	287.109	84.0071	287.109	84.2513	287.109	84.1882	287.109	84.4356	287.109	84.3386	287.109	84.5377	287.109	84.4553	287.109	84.5658	287.109	84.534
297.363	86.7441	297.363	86.6094	297.363	86.7588	297.363	86.3596	297.363	86.6491	297.363	86.0016	297.363	86.4099	297.363	85.5476	297.363	86.0363	297.363	85.0188	297.363	85.5257	297.363	84.452	297.363	84.8833	297.363	83.9033	297.363	84.1318	297.363	83.4468	297.363	83.3277	297.363	83.1582	297.363	82.5799	297.363	83.0831	297.363	82.0461	297.363	83.2123	297.363	81.8693	297.363	83.4861	297.363	82.0747	297.363	83.8245	297.363	82.5475	297.363	84.1561	297.363	83.1228	297.363	84.4298	297.363	83.6723	297.363	84.6127	297.363	84.1237	297.363	84.6845	297.363	84.4462	297.363	84.632
307.617	86.8558	307.617	86.6513	307.617	86.9386	307.617	86.3253	307.617	86.8999	307.617	85.8807	307.617	86.7398	307.617	85.3268	307.617	86.4585	307.617	84.6863	307.617	86.0583	307.617	84.0056	307.617	85.5472	307.617	83.3647	307.617	84.945	307.617	82.8754	307.617	84.2934	307.617	82.6479	307.617	83.6669	307.617	82.7292	307.617	83.1732	307.617	83.0695	307.617	82.9249	307.617	83.5561	307.617	82.9789	307.617	84.0749	307.617	83.2942	307.617	84.5432	307.617	83.7591	307.617	84.9115	307.617	84.2543	307.617	85.153	307.617	84.6914	307.617	85.2542	307.617	85.0183	307.617	85.2091
318.604	87.4086	318.604	87.291	318.604	87.4067	318.604	87.047	318.604	87.2885	318.604	86.6668	318.604	87.0533	318.604	86.1397	318.604	86.6983	318.604	85.4584	318.604	86.2201	318.604	84.6289	318.604	85.6188	318.604	83.6879	318.604	84.9054	318.604	82.7341	318.604	84.1133	318.604	81.9563	318.604	83.316	318.604	81.5923	318.604	82.6408	318.604	81.7608	318.604	82.2469	318.604	82.3385	318.604	82.2407	318.604	83.0798	318.604	82.5891	318.604	83.7863	318.604	83.1443	318.604	84.3503	318.604	83.7437	318.604	84.7264	318.604	84.2711	318.604	84.9013	318.604	84.6602	318.604	84.8762
329.59	87.4396	329.59	87.3412	329.59	87.443	329.59	87.1423	329.59	87.3523	329.59	86.8329	329.59	87.1645	329.59	86.3998	329.59	86.874	329.59	85.8293	329.59	86.4743	329.59	85.1136	329.59	85.9618	329.59	84.2627	329.59	85.3412	329.59	83.3279	329.59	84.6346	329.59	82.438	329.59	83.8955	329.59	81.8141	329.59	83.2224	329.59	81.6774	329.59	82.7526	329.59	82.0544	329.59	82.6072	329.59	82.7416	329.59	82.8069	329.59	83.4889	329.59	83.2509	329.59	84.1295	329.59	83.7861	329.59	84.5828	329.59	84.2808	329.59	84.8195	329.59	84.6481	329.59	84.8371
341.309	87.0127	341.309	86.9392	341.309	86.9926	341.309	86.7694	341.309	86.8762	341.309	86.4961	341.309	86.6556	341.309	86.1091	341.309	86.3191	341.309	85.5981	341.309	85.853	341.309	84.9579	341.309	85.2466	341.309	84.1982	341.309	84.5006	341.309	83.3615	341.309	83.6445	341.309	82.5486	341.309	82.7656	341.309	81.934	341.309	82.0374	341.309	81.7127	341.309	81.6898	341.309	81.9594	341.309	81.8553	341.309	82.552	341.309	82.4336	341.309	83.2766	341.309	83.1848	341.309	83.9574	341.309	83.9009	341.309	84.4906	341.309	84.4621	341.309	84.8244	341.309	84.8134	341.309	84.935
353.76	87.0955	353.76	87.0191	353.76	87.0957	353.76	86.8619	353.76	87.0174	353.76	86.6122	353.76	86.8519	353.76	86.2528	353.76	86.5849	353.76	85.763	353.76	86.1976	353.76	85.1228	353.76	85.6692	353.76	84.3228	353.76	84.9802	353.76	83.3823	353.76	84.1216	353.76	82.3871	353.76	83.1137	353.76	81.5367	353.76	82.0467	353.76	81.124	353.76	81.1361	353.76	81.3247	353.76	80.7049	353.76	81.996	353.76	80.9452	353.76	82.8247	353.76	81.6901	353.76	83.5655	353.76	82.5962	353.76	84.0909	353.76	83.4077	353.76	84.3475	353.76	83.9982	353.76	84.3168
366.211	87.2249	366.211	87.0882	366.211	87.29	366.211	86.872	366.211	87.283	366.211	86.5609	366.211	87.1951	366.211	86.1326	366.211	87.0105	366.211	85.5612	366.211	86.7077	366.211	84.8217	366.211	86.2616	366.211	83.9	366.211	85.646	366.211	82.8157	366.211	84.8395	366.211	81.6711	366.211	83.8375	366.211	80.7204	366.211	82.6829	366.211	80.3364	366.211	81.5272	366.211	80.6923	366.211	80.6898	366.211	81.5353	366.211	80.5317	366.211	82.4761	366.211	81.0767	366.211	83.2645	366.211	81.97	366.211	83.7906	366.211	82.8526	366.211	84.0147	366.211	83.5306	366.211	83.9266
378.662	87.2105	378.662	87.1503	378.662	87.2382	378.662	87.05	378.662	87.2318	378.662	86.8927	378.662	87.1811	378.662	86.6514	378.662	87.0684	378.662	86.2911	378.662	86.869	378.662	85.7704	378.662	86.5542	378.662	85.0458	378.662	86.0943	378.662	84.0805	378.662	85.4645	378.662	82.8676	378.662	84.6548	378.662	81.4975	378.662	83.6916	378.662	80.2978	378.662	82.68	378.662	79.8616	378.662	81.8528	378.662	80.4611	378.662	81.5215	378.662	81.6155	378.662	81.8151	378.662	82.7505	378.662	82.5143	378.662	83.5917	378.662	83.276	378.662	84.0568	378.662	83.8584	378.662	84.1378
392.578	86.69	392.578	86.6484	392.578	86.6798	392.578	86.5527	392.578	86.6185	392.578	86.3975	392.578	86.505	392.578	86.172	392.578	86.334	392.578	85.8587	392.578	86.0947	392.578	85.4336	392.578	85.7692	392.578	84.8692	392.578	85.3346	392.578	84.1417	392.578	84.7678	392.578	83.247	392.578	84.0556	392.578	82.2324	392.578	83.2134	392.578	81.2522	392.578	82.3182	392.578	80.5976	392.578	81.5466	392.578	80.5451	392.578	81.1477	392.578	81.0574	392.578	81.2639	392.578	81.8078	392.578	81.765	392.578	82.4844	392.578	82.3663	392.578	82.9146	392.578	82.8317	392.578	83.0317
405.762	86.5795	405.762	86.4939	405.762	86.5811	405.762	86.3294	405.762	86.4962	405.762	86.0913	405.762	86.3244	405.762	85.7819	405.762	86.0657	405.762	85.3961	405.762	85.7173	405.762	84.9205	405.762	85.273	405.762	84.3358	405.762	84.7247	405.762	83.6269	405.762	84.0697	405.762	82.8018	405.762	83.3257	405.762	81.9272	405.762	82.5562	405.762	81.1725	405.762	81.8971	405.762	80.7992	405.762	81.542	405.762	80.9849	405.762	81.6267	405.762	81.6232	405.762	82.0925	405.762	82.4218	405.762	82.724	405.762	83.1291	405.762	83.3023	405.762	83.6057	405.762	83.6836	405.762	83.7938
420.41	86.9656	420.41	86.8582	420.41	87.029	420.41	86.7055	420.41	87.0437	420.41	86.4996	420.41	86.9985	420.41	86.225	420.41	86.875	420.41	85.8586	420.41	86.6473	420.41	85.3716	420.41	86.2828	420.41	84.734	420.41	85.7434	420.41	83.9249	420.41	84.9888	420.41	82.9536	420.41	83.9823	420.41	81.9026	420.41	82.712	420.41	80.9899	420.41	81.2513	420.41	80.5522	420.41	79.8996	420.41	80.7811	420.41	79.26	420.41	81.4789	420.41	79.7002	420.41	82.272	420.41	80.7806	420.41	82.8911	420.41	81.8842	420.41	83.2022	420.41	82.7041	420.41	83.1472
435.059	86.6952	435.059	86.6425	435.059	86.6799	435.059	86.51	435.059	86.6097	435.059	86.2865	435.059	86.4959	435.059	85.9597	435.059	86.3436	435.059	85.5148	435.059	86.1464	435.059	84.9344	435.059	85.8833	435.059	84.2035	435.059	85.5213	435.059	83.3205	435.059	85.0217	435.059	82.3233	435.059	84.3503	435.059	81.336	435.059	83.4962	435.059	80.6102	435.059	82.5061	435.059	80.437	435.059	81.5439	435.059	80.8711	435.059	80.9199	435.059	81.6462	435.059	80.9158	435.059	82.4334	435.059	81.4674	435.059	83.021	435.059	82.2247	435.059	83.3081	435.059	82.8761	435.059	83.2577
450.439	86.7831	450.439	86.7665	450.439	86.7549	450.439	86.706	450.439	86.681	450.439	86.5962	450.439	86.5622	450.439	86.4182	450.439	86.3973	450.439	86.1377	450.439	86.1761	450.439	85.7061	450.439	85.8745	450.439	85.066	450.439	85.4545	450.439	84.1581	450.439	84.8703	450.439	82.9374	450.439	84.0795	450.439	81.4294	450.439	83.065	450.439	79.9054	450.439	81.8869	450.439	79.1198	450.439	80.7887	450.439	79.713	450.439	80.2595	450.439	81.1275	450.439	80.6559	450.439	82.5173	450.439	81.6883	450.439	83.516	450.439	82.7977	450.439	84.0345	450.439	83.6383	450.439	84.0681
466.553	86.8558	466.553	86.7769	466.553	86.8816	466.553	86.656	466.553	86.8534	466.553	86.5072	466.553	86.7771	466.553	86.3338	466.553	86.6561	466.553	86.1175	466.553	86.4813	466.553	85.8156	466.553	86.2259	466.553	85.3689	466.553	85.8484	466.553	84.7148	466.553	85.2997	466.553	83.8041	466.553	84.5325	466.553	82.6377	466.553	83.5209	466.553	81.3607	466.553	82.3087	466.553	80.4164	466.553	81.1218	466.553	80.4011	466.553	80.4682	466.553	81.2989	466.553	80.78	466.553	82.4742	466.553	81.7871	466.553	83.4363	466.553	82.8821	466.553	83.9882	466.553	83.6919	466.553	84.0743
482.666	87.0869	482.666	87.0058	482.666	87.0624	482.666	86.8319	482.666	86.9385	482.666	86.5906	482.666	86.7393	482.666	86.3065	482.666	86.497	482.666	85.9869	482.666	86.2365	482.666	85.6096	482.666	85.9584	482.666	85.1213	482.666	85.6309	482.666	84.4461	482.666	85.1958	482.666	83.5014	482.666	84.5839	482.666	82.2291	482.666	83.7366	482.666	80.6912	482.666	82.6425	482.666	79.3298	482.666	81.4296	482.666	79.0853	482.666	80.5187	482.666	80.198	482.666	80.5009	482.666	81.7232	482.666	81.3796	482.666	82.9493	482.666	82.5142	482.666	83.6524	482.666	83.3907	482.666	83.7938
500.244	87.2267	500.244	87.1347	500.244	87.1997	500.244	86.9372	500.244	87.0573	500.244	86.6582	500.244	86.821	500.244	86.321	500.244	86.5242	500.244	85.9351	500.244	86.1982	500.244	85.4862	500.244	85.8535	500.244	84.9362	500.244	85.466	500.244	84.2342	500.244	84.9782	500.244	83.3378	500.244	84.3149	500.244	82.2554	500.244	83.41	500.244	81.1305	500.244	82.2552	500.244	80.3483	500.244	81.0106	500.244	80.3761	500.244	80.1605	500.244	81.1878	500.244	80.2835	500.244	82.2628	500.244	81.2524	500.244	83.158	500.244	82.4007	500.244	83.6657	500.244	83.2757	500.244	83.7104
517.822	87.8436	517.822	87.7122	517.822	87.8064	517.822	87.4228	517.822	87.6071	517.822	87.0047	517.822	87.268	517.822	86.5022	517.822	86.8265	517.822	85.9628	517.822	86.3282	517.822	85.4115	517.822	85.8115	517.822	84.8256	517.822	85.2837	517.822	84.1278	517.822	84.7023	517.822	83.2062	517.822	83.9784	517.822	81.9584	517.822	83.0025	517.822	80.4013	517.822	81.6949	517.822	78.9888	517.822	80.1406	517.822	78.8305	517.822	78.9307	517.822	80.1883	517.822	79.1202	517.822	81.9039	517.822	80.5957	517.822	83.2129	517.822	82.226	517.822	83.9131	517.822	83.4046	517.822	83.9759
536.133	87.9264	536.133	87.7534	536.133	87.9373	536.133	87.4349	536.133	87.7793	536.133	86.9983	536.133	87.4537	536.133	86.4803	536.133	86.9712	536.133	85.9169	536.133	86.3535	536.133	85.3238	536.133	85.6337	536.133	84.6741	536.133	84.8473	536.133	83.8886	536.133	84.0107	536.133	82.8438	536.133	83.0939	536.133	81.3961	536.133	82.0109	536.133	79.4545	536.133	80.6524	536.133	77.3237	536.133	79.0142	536.133	76.5187	536.133	77.5726	536.133	78.0416	536.133	77.5251	536.133	80.1496	536.133	79.0321	536.133	81.7169	536.133	80.7969	536.133	82.5518	536.133	82.0674	536.133	82.6625
554.443	87.6958	554.443	87.5722	554.443	87.7027	554.443	87.3421	554.443	87.6002	554.443	87.0274	554.443	87.4143	554.443	86.6512	554.443	87.1809	554.443	86.2252	554.443	86.9271	554.443	85.7344	554.443	86.6469	554.443	85.1288	554.443	86.2897	554.443	84.3234	554.443	85.7659	554.443	83.206	554.443	84.9626	554.443	81.65	554.443	83.7497	554.443	79.5669	554.443	81.9748	554.443	77.1915	554.443	79.4712	554.443	75.9028	554.443	76.31	554.443	76.998	554.443	74.3166	554.443	78.8966	554.443	75.9463	554.443	80.3139	554.443	78.4156	554.443	81.0007	554.443	80.1068	554.443	80.9419
574.219	87.7274	574.219	87.5352	574.219	87.7437	574.219	87.1989	574.219	87.5783	574.219	86.7805	574.219	87.2483	574.219	86.3647	574.219	86.7963	574.219	86.0236	574.219	86.2917	574.219	85.764	574.219	85.8178	574.219	85.5008	574.219	85.4295	574.219	85.0842	574.219	85.1036	574.219	84.3422	574.219	84.728	574.219	83.0996	574.219	84.1423	574.219	81.1804	574.219	83.1846	574.219	78.512	574.219	81.7291	574.219	75.9291	574.219	79.7872	574.219	76.1205	574.219	77.9034	574.219	78.3089	574.219	77.488	574.219	80.0657	574.219	78.7186	574.219	80.9201	574.219	80.1179	574.219	80.9131
594.727	87.6235	594.727	87.4301	594.727	87.6152	594.727	87.0441	594.727	87.4133	594.727	86.5	594.727	87.0429	594.727	85.8705	594.727	86.5547	594.727	85.2646	594.727	86.0325	594.727	84.784	594.727	85.5759	594.727	84.4395	594.727	85.2405	594.727	84.1085	594.727	84.9711	594.727	83.5902	594.727	84.6051	594.727	82.6899	594.727	83.937	594.727	81.2945	594.727	82.7714	594.727	79.5563	594.727	80.9705	594.727	78.3741	594.727	78.701	594.727	78.933	594.727	77.3213	594.727	80.5278	594.727	78.4376	594.727	81.9157	594.727	80.4619	594.727	82.6649	594.727	81.9635	594.727	82.6918
615.234	87.6322	615.234	87.4585	615.234	87.6102	615.234	87.1098	615.234	87.389	615.234	86.6286	615.234	86.9871	615.234	86.0829	615.234	86.4544	615.234	85.5552	615.234	85.8772	615.234	85.1007	615.234	85.3559	615.234	84.6916	615.234	84.944	615.234	84.2028	615.234	84.5906	615.234	83.4499	615.234	84.151	615.234	82.2297	615.234	83.4457	615.234	80.3379	615.234	82.3084	615.234	77.6759	615.234	80.6255	615.234	75.1226	615.234	78.5193	615.234	75.5714	615.234	76.9843	615.234	78.0241	615.234	77.5194	615.234	79.9763	615.234	79.2096	615.234	81.0175	615.234	80.5786	615.234	81.2026
637.207	88.5456	637.207	88.3206	637.207	88.5124	637.207	87.8319	637.207	88.2298	637.207	87.0932	637.207	87.7084	637.207	86.1729	637.207	86.9754	637.207	85.2393	637.207	86.1088	637.207	84.5418	637.207	85.2794	637.207	84.218	637.207	84.7179	637.207	84.0928	637.207	84.5158	637.207	83.7918	637.207	84.4594	637.207	82.9519	637.207	84.1695	637.207	81.2595	637.207	83.2957	637.207	78.4812	637.207	81.5474	637.207	75.5745	637.207	78.7741	637.207	76.7109	637.207	76.2025	637.207	79.844	637.207	77.4771	637.207	82.0066	637.207	80.3119	637.207	83.0558	637.207	82.2436	637.207	83.1279
659.912	88.4953	659.912	88.2916	659.912	88.4993	659.912	87.8934	659.912	88.2985	659.912	87.3133	659.912	87.8904	659.912	86.5875	659.912	87.2883	659.912	85.8014	659.912	86.546	659.912	85.0947	659.912	85.7826	659.912	84.585	659.912	85.1626	659.912	84.2259	659.912	84.7798	659.912	83.772	659.912	84.5318	659.912	82.8969	659.912	84.1546	659.912	81.2799	659.912	83.3465	659.912	78.6231	659.912	81.8147	659.912	75.1086	659.912	79.2726	659.912	74.1395	659.912	75.8994	659.912	76.9735	659.912	74.9643	659.912	79.4069	659.912	77.6508	659.912	80.6706	659.912	79.8665	659.912	80.8351
683.35	89.1767	683.35	88.9917	683.35	89.1472	683.35	88.5916	683.35	88.9043	683.35	87.9872	683.35	88.446	683.35	87.2196	683.35	87.7728	683.35	86.3856	683.35	86.9079	683.35	85.6444	683.35	85.9436	683.35	85.1483	683.35	85.0887	683.35	84.8937	683.35	84.5902	683.35	84.663	683.35	84.4583	683.35	84.1396	683.35	84.3684	683.35	83.0183	683.35	83.9133	683.35	81.0294	683.35	82.7758	683.35	78.1332	683.35	80.7361	683.35	76.0995	683.35	77.9733	683.35	77.8268	683.35	76.7228	683.35	80.2944	683.35	78.7094	683.35	81.6794	683.35	80.8438	683.35	81.8599
706.787	90.6337	706.787	90.3764	706.787	90.653	706.787	89.8692	706.787	90.439	706.787	89.1027	706.787	89.9844	706.787	88.0949	706.787	89.2721	706.787	86.9529	706.787	88.2995	706.787	85.9556	706.787	87.1445	706.787	85.4668	706.787	86.0615	706.787	85.5056	706.787	85.4244	706.787	85.6114	706.787	85.2966	706.787	85.2561	706.787	85.2318	706.787	84.0381	706.787	84.6805	706.787	81.5948	706.787	83.2141	706.787	77.837	706.787	80.4593	706.787	76.2726	706.787	76.7274	706.787	79.4675	706.787	76.8128	706.787	82.0988	706.787	80.2104	706.787	83.3719	706.787	82.5064	706.787	83.4983
731.689	90.9786	731.689	90.832	731.689	90.9299	731.689	90.4815	731.689	90.6743	731.689	89.9024	731.689	90.1905	731.689	89.0763	731.689	89.465	731.689	88.0344	731.689	88.5111	731.689	86.9171	731.689	87.3964	731.689	85.9923	731.689	86.2943	731.689	85.4749	731.689	85.5032	731.689	85.2285	731.689	85.2339	731.689	84.8161	731.689	85.2739	731.689	83.772	731.689	85.1035	731.689	81.6702	731.689	84.2212	731.689	78.255	731.689	82.1771	731.689	75.9659	731.689	78.6044	731.689	78.7826	731.689	75.7961	731.689	81.6251	731.689	78.7314	731.689	82.9973	731.689	81.6765	731.689	83.0249
758.057	91.2141	758.057	91.0069	758.057	91.1842	758.057	90.5354	758.057	90.9353	758.057	89.7757	758.057	90.4587	758.057	88.7243	758.057	89.7105	758.057	87.4479	758.057	88.6365	758.057	86.1927	758.057	87.2582	758.057	85.414	758.057	85.8353	758.057	85.3385	758.057	84.9232	758.057	85.5419	758.057	84.7932	758.057	85.3988	758.057	84.9278	758.057	84.4578	758.057	84.6511	758.057	82.3408	758.057	83.5299	758.057	78.7301	758.057	81.2472	758.057	76.0288	758.057	77.7908	758.057	79.0716	758.057	76.2726	758.057	82.0311	758.057	79.2712	758.057	83.3657	758.057	81.972	758.057	83.3159
784.424	90.7315	784.424	90.5323	784.424	90.753	784.424	90.1532	784.424	90.5742	784.424	89.548	784.424	90.1649	784.424	88.6267	784.424	89.4908	784.424	87.3061	784.424	88.5075	784.424	85.6748	784.424	87.1808	784.424	84.3368	784.424	85.5971	784.424	84.1694	784.424	84.2142	784.424	84.7892	784.424	83.7836	784.424	85.05	784.424	84.2127	784.424	84.2649	784.424	84.5105	784.424	81.923	784.424	83.8617	784.424	76.9875	784.424	81.5642	784.424	70.7228	784.424	76.152	784.424	77.5391	784.424	70.0408	784.424	81.7022	784.424	78.4112	784.424	83.496	784.424	82.2615	784.424	83.6861
812.256	90.3896	812.256	90.2827	812.256	90.3838	812.256	90.0394	812.256	90.2634	812.256	89.6038	812.256	89.9965	812.256	88.8762	812.256	89.5184	812.256	87.7094	812.256	88.741	812.256	85.9444	812.256	87.5657	812.256	83.6408	812.256	85.9127	812.256	81.9424	812.256	83.9	812.256	82.5404	812.256	82.3925	812.256	83.9487	812.256	82.5569	812.256	84.4312	812.256	83.469	812.256	83.4028	812.256	83.6648	812.256	80.3035	812.256	82.4699	812.256	73.9862	812.256	79.2131	812.256	73.3839	812.256	72.0814	812.256	78.712	812.256	71.6988	812.256	80.8016	812.256	78.1365	812.256	80.6288
840.82	89.9113	840.82	89.746	840.82	89.9276	840.82	89.4454	840.82	89.7882	840.82	89.0067	840.82	89.5061	840.82	88.3889	840.82	89.096	840.82	87.5043	840.82	88.5206	840.82	86.2456	840.82	87.6545	840.82	84.5944	840.82	86.3381	840.82	82.9348	840.82	84.5562	840.82	82.2331	840.82	82.8222	840.82	82.5926	840.82	82.2084	840.82	82.756	840.82	82.622	840.82	81.7531	840.82	82.7903	840.82	78.9204	840.82	81.8619	840.82	73.4356	840.82	79.2063	840.82	71.8161	840.82	74.1456	840.82	76.8159	840.82	73.1201	840.82	79.2522	840.82	77.5746	840.82	79.5164
870.85	90.4347	870.85	90.2424	870.85	90.4442	870.85	89.8758	870.85	90.2797	870.85	89.3531	870.85	89.9437	870.85	88.6534	870.85	89.415	870.85	87.6744	870.85	88.656	870.85	86.269	870.85	87.6234	870.85	84.3876	870.85	86.2535	870.85	82.3979	870.85	84.4841	870.85	81.4223	870.85	82.5383	870.85	81.9231	870.85	81.499	870.85	82.5545	870.85	82.0227	870.85	82.1338	870.85	82.654	870.85	79.9367	870.85	82.1075	870.85	75.0511	870.85	79.6772	870.85	71.9188	870.85	74.6513	870.85	77.0389	870.85	72.7817	870.85	79.5729	870.85	77.4297	870.85	79.6574
901.611	90.1315	901.611	89.9494	901.611	90.1747	901.611	89.655	901.611	90.0506	901.611	89.2538	901.611	89.7482	901.611	88.7168	901.611	89.276	901.611	87.9698	901.611	88.6307	901.611	86.8802	901.611	87.7496	901.611	85.271	901.611	86.5085	901.611	83.0947	901.611	84.8165	901.611	81.1447	901.611	82.8713	901.611	81.0713	901.611	81.5446	901.611	81.9399	901.611	81.5533	901.611	81.8447	901.611	81.9301	901.611	79.9036	901.611	81.4636	901.611	75.182	901.611	79.4543	901.611	70.877	901.611	75.3897	901.611	75.9823	901.611	72.5711	901.611	78.5656	901.611	76.1788	901.611	78.5354
933.105	90.1811	933.105	89.916	933.105	90.2087	933.105	89.421	933.105	90.0275	933.105	88.7522	933.105	89.6785	933.105	87.9897	933.105	89.1916	933.105	87.1546	933.105	88.5616	933.105	86.1383	933.105	87.7146	933.105	84.7656	933.105	86.4786	933.105	83.0595	933.105	84.6553	933.105	81.6723	933.105	82.3879	933.105	81.4709	933.105	80.8984	933.105	81.9752	933.105	81.2329	933.105	82.0315	933.105	81.891	933.105	80.7321	933.105	81.4384	933.105	77.0602	933.105	79.1652	933.105	70.3174	933.105	74.6054	933.105	73.3216	933.105	72.4531	933.105	77.0313	933.105	75.9788	933.105	77.6898
966.064	88.4429	966.064	88.3603	966.064	88.3861	966.064	88.1054	966.064	88.2146	966.064	87.6747	966.064	87.9308	966.064	87.1174	966.064	87.5326	966.064	86.4891	966.064	87.0375	966.064	85.7336	966.064	86.4563	966.064	84.6226	966.064	85.6989	966.064	82.8963	966.064	84.5166	966.064	80.7178	966.064	82.6146	966.064	79.2971	966.064	80.1319	966.064	79.2318	966.064	78.7951	966.064	78.994	966.064	79.5348	966.064	77.5641	966.064	79.8863	966.064	75.0731	966.064	78.3405	966.064	73.5211	966.064	73.9304	966.064	75.2018	966.064	69.9299	966.064	77.2465	966.064	75.036	966.064	77.4942
999.756	87.1967	999.756	86.9248	999.756	87.1787	999.756	86.4417	999.756	86.883	999.756	85.8756	999.756	86.425	999.756	85.3385	999.756	85.9534	999.756	84.8293	999.756	85.5163	999.756	84.2001	999.756	84.9937	999.756	83.2275	999.756	84.1718	999.756	81.7442	999.756	82.8654	999.756	79.9113	999.756	81.0213	999.756	78.5828	999.756	78.9947	999.756	78.4042	999.756	77.9708	999.756	78.3714	999.756	78.3025	999.756	77.2043	999.756	78.3845	999.756	73.7786	999.756	77.031	999.756	67.3477	999.756	73.5347	999.756	71.6764	999.756	70.0798	999.756	75.8185	999.756	73.9252	999.756	76.4137
1,034.91	88.9252	1,034.91	88.6748	1,034.91	88.8935	1,034.91	88.1544	1,034.91	88.6078	1,034.91	87.4672	1,034.91	88.0943	1,034.91	86.7841	1,034.91	87.3656	1,034.91	86.1907	1,034.91	86.4344	1,034.91	85.5783	1,034.91	85.3686	1,034.91	84.7174	1,034.91	84.326	1,034.91	83.3202	1,034.91	83.3525	1,034.91	81.1775	1,034.91	82.1905	1,034.91	78.872	1,034.91	80.6676	1,034.91	78.0169	1,034.91	79.394	1,034.91	77.9477	1,034.91	79.1353	1,034.91	76.676	1,034.91	78.9735	1,034.91	73.7943	1,034.91	77.5492	1,034.91	72.3767	1,034.91	74.0158	1,034.91	74.4064	1,034.91	70.9671	1,034.91	76.1468	1,034.91	74.1993	1,034.91	76.2885
1,071.53	89.7974	1,071.53	89.5691	1,071.53	89.7366	1,071.53	89.0688	1,071.53	89.3909	1,071.53	88.3313	1,071.53	88.776	1,071.53	87.4381	1,071.53	87.9244	1,071.53	86.5418	1,071.53	86.9172	1,071.53	85.6753	1,071.53	85.8639	1,071.53	84.5545	1,071.53	84.8292	1,071.53	82.886	1,071.53	83.7943	1,071.53	80.9572	1,071.53	82.6065	1,071.53	79.9128	1,071.53	81.0843	1,071.53	80.1365	1,071.53	79.7298	1,071.53	80.3396	1,071.53	79.6678	1,071.53	79.2186	1,071.53	79.9432	1,071.53	75.6668	1,071.53	78.7489	1,071.53	71.9453	1,071.53	75.1037	1,071.53	76.1191	1,071.53	71.4489	1,071.53	78.5645	1,071.53	75.3511	1,071.53	78.2381
1,109.62	89.3473	1,109.62	88.8847	1,109.62	89.4264	1,109.62	88.1298	1,109.62	89.0837	1,109.62	87.2051	1,109.62	88.3694	1,109.62	86.2537	1,109.62	87.4041	1,109.62	85.3533	1,109.62	86.2805	1,109.62	84.4814	1,109.62	85.0058	1,109.62	83.5952	1,109.62	83.6681	1,109.62	82.4873	1,109.62	82.4874	1,109.62	80.7792	1,109.62	81.3677	1,109.62	78.7492	1,109.62	79.9393	1,109.62	77.9772	1,109.62	78.8809	1,109.62	78.4143	1,109.62	79.3318	1,109.62	78.1751	1,109.62	79.6135	1,109.62	75.9008	1,109.62	78.1547	1,109.62	72.3654	1,109.62	74.5034	1,109.62	75.4018	1,109.62	71.3914	1,109.62	77.9835	1,109.62	74.8566	1,109.62	77.6684
1,148.44	88.6779	1,148.44	88.3404	1,148.44	88.6971	1,148.44	87.6794	1,148.44	88.3899	1,148.44	86.665	1,148.44	87.7208	1,148.44	85.3255	1,148.44	86.6627	1,148.44	83.9495	1,148.44	85.3541	1,148.44	82.9433	1,148.44	84.1264	1,148.44	82.1283	1,148.44	83.1097	1,148.44	80.9531	1,148.44	82.0632	1,148.44	79.4051	1,148.44	80.871	1,148.44	78.1206	1,148.44	79.5424	1,148.44	77.9295	1,148.44	77.9172	1,148.44	78.2284	1,148.44	76.7755	1,148.44	76.731	1,148.44	76.9011	1,148.44	71.3926	1,148.44	76.0182	1,148.44	70.2446	1,148.44	71.0555	1,148.44	75.3797	1,148.44	68.065	1,148.44	77.7236	1,148.44	75.6919	1,148.44	78.0583
1,189.45	87.5757	1,189.45	87.1595	1,189.45	87.617	1,189.45	86.4197	1,189.45	87.2367	1,189.45	85.375	1,189.45	86.4749	1,189.45	84.0874	1,189.45	85.4559	1,189.45	82.7735	1,189.45	84.3062	1,189.45	81.7031	1,189.45	83.1291	1,189.45	80.8122	1,189.45	82.0442	1,189.45	79.6128	1,189.45	81.0178	1,189.45	77.6832	1,189.45	79.6429	1,189.45	75.5751	1,189.45	77.6426	1,189.45	75.3864	1,189.45	76.226	1,189.45	76.5515	1,189.45	76.9426	1,189.45	76.4681	1,189.45	77.8203	1,189.45	73.2235	1,189.45	77.0526	1,189.45	61.6086	1,189.45	73.2051	1,189.45	70.9349	1,189.45	64.1734	1,189.45	75.4378	1,189.45	72.0003	1,189.45	75.6591
1,231.2	86.6032	1,231.2	86.2986	1,231.2	86.5714	1,231.2	85.6297	1,231.2	86.2453	1,231.2	84.6242	1,231.2	85.5731	1,231.2	83.3328	1,231.2	84.4563	1,231.2	81.8541	1,231.2	83.0098	1,231.2	80.4281	1,231.2	81.6504	1,231.2	79.2472	1,231.2	80.5898	1,231.2	77.9672	1,231.2	79.4825	1,231.2	76.0843	1,231.2	78.0678	1,231.2	73.9373	1,231.2	76.5557	1,231.2	73.2623	1,231.2	75.3522	1,231.2	74.5741	1,231.2	75.2402	1,231.2	75.2116	1,231.2	76.1209	1,231.2	72.8609	1,231.2	75.9614	1,231.2	65.3369	1,231.2	72.8807	1,231.2	69.0548	1,231.2	64.8748	1,231.2	73.3541	1,231.2	69.3951	1,231.2	73.4201
1,274.41	85.1674	1,274.41	84.9239	1,274.41	85.197	1,274.41	84.4171	1,274.41	84.9844	1,274.41	83.579	1,274.41	84.4436	1,274.41	82.3818	1,274.41	83.4726	1,274.41	80.8797	1,274.41	82.012	1,274.41	79.3277	1,274.41	80.3036	1,274.41	78.1855	1,274.41	78.9602	1,274.41	77.3341	1,274.41	78.1061	1,274.41	76.0161	1,274.41	77.0528	1,274.41	74.0278	1,274.41	75.2468	1,274.41	72.5255	1,274.41	72.9269	1,274.41	73.1	1,274.41	72.4836	1,274.41	73.6558	1,274.41	73.8769	1,274.41	71.7834	1,274.41	73.7544	1,274.41	64.6904	1,274.41	70.6341	1,274.41	68.3329	1,274.41	62.958	1,274.41	72.8477	1,274.41	67.5137	1,274.41	72.3736
1,319.82	83.4233	1,319.82	83.1758	1,319.82	83.2765	1,319.82	82.6057	1,319.82	82.7958	1,319.82	81.8604	1,319.82	82.1151	1,319.82	80.9566	1,319.82	81.2926	1,319.82	79.7036	1,319.82	80.1962	1,319.82	78.0146	1,319.82	78.7356	1,319.82	76.3144	1,319.82	77.2467	1,319.82	75.1596	1,319.82	76.0306	1,319.82	74.3913	1,319.82	74.6285	1,319.82	73.1821	1,319.82	72.8879	1,319.82	71.8655	1,319.82	71.5	1,319.82	72.3921	1,319.82	71.1688	1,319.82	72.181	1,319.82	72.2994	1,319.82	68.7264	1,319.82	72.6473	1,319.82	59.7507	1,319.82	69.7573	1,319.82	62.9608	1,319.82	58.594	1,319.82	68.5145	1,319.82	64.1546	1,319.82	69.1292
1,365.97	81.2567	1,365.97	81.0376	1,365.97	81.096	1,365.97	80.4436	1,365.97	80.6403	1,365.97	79.6013	1,365.97	79.97	1,365.97	78.608	1,365.97	79.0866	1,365.97	77.3462	1,365.97	77.9351	1,365.97	75.7128	1,365.97	76.496	1,365.97	74.0158	1,365.97	75.0628	1,365.97	72.8172	1,365.97	74.1841	1,365.97	71.9702	1,365.97	73.4188	1,365.97	70.5258	1,365.97	71.4907	1,365.97	69.2723	1,365.97	68.183	1,365.97	70.2241	1,365.97	66.5669	1,365.97	71.0401	1,365.97	69.0352	1,365.97	69.9243	1,365.97	70.8966	1,365.97	65.5078	1,365.97	69.7682	1,365.97	60.0083	1,365.97	63.6009	1,365.97	65.9524	1,365.97	61.0922	1,365.97	66.7939
1,414.31	78.8583	1,414.31	78.6309	1,414.31	78.8309	1,414.31	78.0801	1,414.31	78.6242	1,414.31	77.3695	1,414.31	78.1687	1,414.31	76.5543	1,414.31	77.4321	1,414.31	75.2446	1,414.31	76.4811	1,414.31	73.3139	1,414.31	75.2811	1,414.31	71.5586	1,414.31	73.8699	1,414.31	70.712	1,414.31	72.7222	1,414.31	70.534	1,414.31	71.7876	1,414.31	69.7498	1,414.31	70.172	1,414.31	66.7637	1,414.31	67.7049	1,414.31	65.7187	1,414.31	64.6569	1,414.31	68.1974	1,414.31	65.4365	1,414.31	67.0068	1,414.31	68.5715	1,414.31	60.2284	1,414.31	68.2483	1,414.31	61.0169	1,414.31	63.2901	1,414.31	65.1446	1,414.31	57.0467	1,414.31	63.9623
1,464.11	78.2683	1,464.11	77.9114	1,464.11	78.4127	1,464.11	77.3989	1,464.11	78.3024	1,464.11	76.7958	1,464.11	77.8216	1,464.11	76.031	1,464.11	76.9177	1,464.11	74.8234	1,464.11	75.8493	1,464.11	73.1636	1,464.11	74.8695	1,464.11	71.5662	1,464.11	73.8037	1,464.11	70.4363	1,464.11	72.6975	1,464.11	70.3035	1,464.11	71.8953	1,464.11	70.1465	1,464.11	70.4882	1,464.11	67.8299	1,464.11	68.1884	1,464.11	64.1168	1,464.11	65.0008	1,464.11	64.0073	1,464.11	63.0096	1,464.11	64.2002	1,464.11	66.3445	1,464.11	61.1421	1,464.11	66.5874	1,464.11	61.9395	1,464.11	62.5159	1,464.11	65.2217	1,464.11	57.8848	1,464.11	63.5863
1,515.38	78.6145	1,515.38	78.2334	1,515.38	78.864	1,515.38	77.8043	1,515.38	78.8079	1,515.38	77.2039	1,515.38	78.2759	1,515.38	76.2887	1,515.38	77.1874	1,515.38	75.0048	1,515.38	75.8159	1,515.38	73.4166	1,515.38	74.7788	1,515.38	71.7707	1,515.38	73.9748	1,515.38	69.9796	1,515.38	72.6263	1,515.38	68.7315	1,515.38	71.0949	1,515.38	68.7718	1,515.38	69.4976	1,515.38	67.8187	1,515.38	67.6338	1,515.38	65.4187	1,515.38	66.9305	1,515.38	64.8983	1,515.38	66.7253	1,515.38	65.1191	1,515.38	67.0602	1,515.38	59.0262	1,515.38	66.1979	1,515.38	58.5688	1,515.38	61.8064	1,515.38	64.375	1,515.38	61.1459	1,515.38	64.0675
1,568.85	79.7668	1,568.85	79.309	1,568.85	79.9018	1,568.85	78.8403	1,568.85	79.6556	1,568.85	78.1406	1,568.85	79.0993	1,568.85	76.8755	1,568.85	78.1152	1,568.85	75.7564	1,568.85	76.9365	1,568.85	74.9285	1,568.85	76.027	1,568.85	73.486	1,568.85	74.8457	1,568.85	71.6147	1,568.85	72.605	1,568.85	69.4721	1,568.85	70.1	1,568.85	67.7913	1,568.85	69.5593	1,568.85	67.1774	1,568.85	70.2579	1,568.85	66.1926	1,568.85	69.5401	1,568.85	66.967	1,568.85	67.4997	1,568.85	67.6067	1,568.85	67.4539	1,568.85	62.2581	1,568.85	66.9259	1,568.85	57.9125	1,568.85	62.21	1,568.85	64.5811	1,568.85	60.988	1,568.85	64.584
1,624.51	80.5684	1,624.51	80.2906	1,624.51	80.4968	1,624.51	79.8948	1,624.51	80.0714	1,624.51	79.3289	1,624.51	79.4501	1,624.51	78.1752	1,624.51	78.7427	1,624.51	76.6672	1,624.51	78.0314	1,624.51	75.6201	1,624.51	77.012	1,624.51	74.8298	1,624.51	75.289	1,624.51	73.5236	1,624.51	73.1905	1,624.51	71.4126	1,624.51	71.4166	1,624.51	69.118	1,624.51	70.681	1,624.51	67.2222	1,624.51	70.6842	1,624.51	66.9199	1,624.51	69.1156	1,624.51	68.7623	1,624.51	65.6377	1,624.51	69.3713	1,624.51	64.3368	1,624.51	65.9486	1,624.51	64.3161	1,624.51	58.4932	1,624.51	60.901	1,624.51	66.2499	1,624.51	62.2475	1,624.51	67.3875
1,681.64	81.2708	1,681.64	80.8864	1,681.64	81.382	1,681.64	80.1743	1,681.64	81.0856	1,681.64	79.2796	1,681.64	80.3701	1,681.64	78.2416	1,681.64	79.627	1,681.64	77.1683	1,681.64	78.8727	1,681.64	76.5301	1,681.64	77.7226	1,681.64	75.8423	1,681.64	75.9278	1,681.64	73.8707	1,681.64	73.8069	1,681.64	71.2983	1,681.64	72.3974	1,681.64	70.0855	1,681.64	71.2375	1,681.64	69.624	1,681.64	70.3862	1,681.64	68.9909	1,681.64	69.192	1,681.64	70.4185	1,681.64	66.8626	1,681.64	69.993	1,681.64	67.389	1,681.64	63.8454	1,681.64	68.1916	1,681.64	58.2075	1,681.64	63.3115	1,681.64	64.7788	1,681.64	59.3172	1,681.64	65.7565
1,740.97	82.3783	1,740.97	82.2043	1,740.97	82.5389	1,740.97	81.4833	1,740.97	82.541	1,740.97	80.15	1,740.97	82.0535	1,740.97	79.1617	1,740.97	81.3163	1,740.97	78.2647	1,740.97	80.4985	1,740.97	76.3798	1,740.97	79.2352	1,740.97	74.4666	1,740.97	77.4613	1,740.97	73.031	1,740.97	75.6335	1,740.97	71.3552	1,740.97	74.641	1,740.97	70.3906	1,740.97	73.541	1,740.97	69.9939	1,740.97	71.1903	1,740.97	68.1113	1,740.97	70.2601	1,740.97	66.4223	1,740.97	69.0697	1,740.97	67.5652	1,740.97	68.7037	1,740.97	63.5145	1,740.97	69.8662	1,740.97	60.8424	1,740.97	67.6419	1,740.97	67.2524	1,740.97	63.5728	1,740.97	67.4742
1,802.49	84.4769	1,802.49	84.2778	1,802.49	84.38	1,802.49	83.5301	1,802.49	84.0858	1,802.49	82.198	1,802.49	83.5289	1,802.49	81.1964	1,802.49	82.6312	1,802.49	80.3788	1,802.49	81.6402	1,802.49	78.2733	1,802.49	80.4398	1,802.49	75.0327	1,802.49	78.8143	1,802.49	72.7931	1,802.49	76.9793	1,802.49	71.5992	1,802.49	75.797	1,802.49	70.2263	1,802.49	74.1112	1,802.49	70.2972	1,802.49	70.9892	1,802.49	68.5232	1,802.49	70.3508	1,802.49	64.2329	1,802.49	67.8127	1,802.49	66.7361	1,802.49	68.0822	1,802.49	65.7165	1,802.49	70.6658	1,802.49	58.8069	1,802.49	68.2947	1,802.49	67.4437	1,802.49	65.2737	1,802.49	68.3073
1,866.21	85.0448	1,866.21	84.6892	1,866.21	84.7174	1,866.21	83.9053	1,866.21	84.0137	1,866.21	83.1886	1,866.21	83.4303	1,866.21	82.4857	1,866.21	82.6006	1,866.21	81.1111	1,866.21	81.0919	1,866.21	79.1204	1,866.21	79.1125	1,866.21	77.1054	1,866.21	77.3384	1,866.21	75.0363	1,866.21	76.3093	1,866.21	72.8812	1,866.21	75.5348	1,866.21	70.5095	1,866.21	74.6227	1,866.21	70.709	1,866.21	71.7599	1,866.21	69.8245	1,866.21	70.1767	1,866.21	67.4261	1,866.21	70.1984	1,866.21	69.7605	1,866.21	67.3045	1,866.21	69.2755	1,866.21	69.5807	1,866.21	60.9275	1,866.21	66.6147	1,866.21	69.8894	1,866.21	64.8553	1,866.21	69.7176
1,932.13	84.9111	1,932.13	84.3605	1,932.13	84.8988	1,932.13	83.5657	1,932.13	84.2806	1,932.13	82.884	1,932.13	83.3334	1,932.13	81.9355	1,932.13	82.3143	1,932.13	80.3075	1,932.13	81.1449	1,932.13	78.2612	1,932.13	79.8075	1,932.13	76.8673	1,932.13	77.6676	1,932.13	76.7073	1,932.13	75.1148	1,932.13	75.5627	1,932.13	74.5109	1,932.13	70.3455	1,932.13	74.0151	1,932.13	66.0677	1,932.13	70.8486	1,932.13	69.5697	1,932.13	68.0929	1,932.13	69.6517	1,932.13	69.3273	1,932.13	70.9754	1,932.13	66.1738	1,932.13	68.7395	1,932.13	66.3401	1,932.13	60.5645	1,932.13	63.1893	1,932.13	67.7497	1,932.13	60.2699	1,932.13	68.6722
2,000.24	85.404	2,000.24	84.9935	2,000.24	85.5774	2,000.24	84.2305	2,000.24	85.5074	2,000.24	82.9502	2,000.24	84.8838	2,000.24	81.0681	2,000.24	83.6699	2,000.24	79.6677	2,000.24	82.3942	2,000.24	78.5259	2,000.24	81.2679	2,000.24	76.0557	2,000.24	79.6683	2,000.24	74.8174	2,000.24	77.2801	2,000.24	75.1838	2,000.24	75.4063	2,000.24	73.1682	2,000.24	73.686	2,000.24	67.3297	2,000.24	71.6136	2,000.24	70.9233	2,000.24	70.6952	2,000.24	70.3284	2,000.24	71.6706	2,000.24	67.6888	2,000.24	70.5994	2,000.24	68.5226	2,000.24	66.6559	2,000.24	65.9723	2,000.24	64.7219	2,000.24	65.7329	2,000.24	61.8983	2,000.24	67.1361
2,070.56	85.7972	2,070.56	85.3524	2,070.56	85.587	2,070.56	84.6609	2,070.56	85.374	2,070.56	84.0065	2,070.56	84.941	2,070.56	82.6534	2,070.56	84.0031	2,070.56	80.6372	2,070.56	83.0211	2,070.56	79.4894	2,070.56	81.4646	2,070.56	77.7561	2,070.56	80.1969	2,070.56	74.5978	2,070.56	78.5641	2,070.56	74.2304	2,070.56	75.5267	2,070.56	72.6105	2,070.56	73.8578	2,070.56	67.7168	2,070.56	72.9104	2,070.56	68.2258	2,070.56	70.0995	2,070.56	69.3803	2,070.56	70.5189	2,070.56	68.1828	2,070.56	71.2755	2,070.56	64.1239	2,070.56	69.3976	2,070.56	63.8225	2,070.56	63.7268	2,070.56	70.4004	2,070.56	64.6992	2,070.56	71.0898
2,143.8	84.1693	2,143.8	84.0898	2,143.8	84.0983	2,143.8	83.8906	2,143.8	84.0893	2,143.8	83.3579	2,143.8	83.696	2,143.8	82.8103	2,143.8	83.1159	2,143.8	81.637	2,143.8	82.336	2,143.8	79.6596	2,143.8	80.5831	2,143.8	78.3422	2,143.8	79.2074	2,143.8	76.1973	2,143.8	77.4277	2,143.8	73.6182	2,143.8	74.9008	2,143.8	73.0261	2,143.8	74.5442	2,143.8	70.0933	2,143.8	72.4356	2,143.8	69.3838	2,143.8	67.2155	2,143.8	69.3925	2,143.8	69.8282	2,143.8	67.3001	2,143.8	70.6899	2,143.8	67.5501	2,143.8	71.1192	2,143.8	60.3572	2,143.8	69.2209	2,143.8	69.5767	2,143.8	60.6422	2,143.8	68.9508
2,219.24	83.4925	2,219.24	84.0187	2,219.24	83.5258	2,219.24	83.3871	2,219.24	83.6705	2,219.24	82.1751	2,219.24	82.9243	2,219.24	81.5063	2,219.24	82.3383	2,219.24	80.23	2,219.24	81.8184	2,219.24	78.7555	2,219.24	80.3959	2,219.24	77.2345	2,219.24	78.3654	2,219.24	74.785	2,219.24	76.2476	2,219.24	73.5481	2,219.24	73.105	2,219.24	73.4593	2,219.24	71.7897	2,219.24	72.1361	2,219.24	72.4014	2,219.24	67.8791	2,219.24	66.3693	2,219.24	67.5672	2,219.24	61.4056	2,219.24	66.4548	2,219.24	64.3239	2,219.24	67.8724	2,219.24	65.8839	2,219.24	62.1521	2,219.24	67.1035	2,219.24	72.4249	2,219.24	59.2984	2,219.24	71.2375
2,297.61	84.298	2,297.61	83.6118	2,297.61	84.7396	2,297.61	83.2195	2,297.61	84.4151	2,297.61	82.2434	2,297.61	84.4879	2,297.61	80.8656	2,297.61	83.5035	2,297.61	79.4117	2,297.61	81.9592	2,297.61	77.3718	2,297.61	81.3116	2,297.61	75.7447	2,297.61	78.5422	2,297.61	74.4306	2,297.61	76.1542	2,297.61	72.1312	2,297.61	76.1747	2,297.61	72.4214	2,297.61	72.2837	2,297.61	68.733	2,297.61	71.0914	2,297.61	67.7743	2,297.61	71.8768	2,297.61	66.2425	2,297.61	69.0633	2,297.61	68.0978	2,297.61	69.6988	2,297.61	66.5705	2,297.61	64.8708	2,297.61	59.8948	2,297.61	64.8098	2,297.61	69.5874	2,297.61	52.5452	2,297.61	67.9044
2,378.17	85.0305	2,378.17	84.6574	2,378.17	85.3666	2,378.17	84.2163	2,378.17	84.8897	2,378.17	83.4293	2,378.17	83.9769	2,378.17	82.2515	2,378.17	83.335	2,378.17	80.1136	2,378.17	82.7479	2,378.17	78.3508	2,378.17	80.1998	2,378.17	77.082	2,378.17	76.9943	2,378.17	74.848	2,378.17	77.4751	2,378.17	69.0927	2,378.17	74.9115	2,378.17	66.2802	2,378.17	68.8767	2,378.17	66.3525	2,378.17	72.236	2,378.17	61.5441	2,378.17	73.1272	2,378.17	65.5257	2,378.17	69.3278	2,378.17	64.7065	2,378.17	68.6544	2,378.17	64.9042	2,378.17	66.9779	2,378.17	48.9588	2,378.17	69.1404	2,378.17	65.0032	2,378.17	58.9609	2,378.17	68.0019
2,462.4	84.5264	2,462.4	84.4221	2,462.4	84.4558	2,462.4	83.7727	2,462.4	84.03	2,462.4	82.6916	2,462.4	83.1899	2,462.4	81.3351	2,462.4	81.9969	2,462.4	79.5494	2,462.4	80.6136	2,462.4	77.9496	2,462.4	79.1233	2,462.4	76.1804	2,462.4	76.8555	2,462.4	74.1248	2,462.4	74.5146	2,462.4	71.2507	2,462.4	72.9538	2,462.4	69.6039	2,462.4	70.4651	2,462.4	69.495	2,462.4	69.5189	2,462.4	64.9578	2,462.4	68.7434	2,462.4	66.3171	2,462.4	64.6251	2,462.4	65.5803	2,462.4	66.2883	2,462.4	66.0846	2,462.4	62.9618	2,462.4	55.0552	2,462.4	65.6324	2,462.4	67.426	2,462.4	48.6193	2,462.4	68.4784
2,548.83	84.1472	2,548.83	83.9074	2,548.83	84.2164	2,548.83	83.1908	2,548.83	83.935	2,548.83	81.9932	2,548.83	83.1991	2,548.83	80.631	2,548.83	82.1547	2,548.83	78.9438	2,548.83	80.6592	2,548.83	76.6407	2,548.83	78.8921	2,548.83	74.5744	2,548.83	77.032	2,548.83	73.4729	2,548.83	74.7577	2,548.83	71.137	2,548.83	72.6906	2,548.83	68.8941	2,548.83	69.8974	2,548.83	68.3969	2,548.83	68.6062	2,548.83	64.6841	2,548.83	67.9495	2,548.83	64.9469	2,548.83	63.1743	2,548.83	64.382	2,548.83	65.7982	2,548.83	66.6749	2,548.83	64.9111	2,548.83	56.8309	2,548.83	63.6343	2,548.83	66.6878	2,548.83	56.8687	2,548.83	64.5806
2,638.92	84.1714	2,638.92	83.7927	2,638.92	84.1785	2,638.92	83.0673	2,638.92	83.8172	2,638.92	82.0145	2,638.92	83.0941	2,638.92	80.37	2,638.92	82.0939	2,638.92	78.5618	2,638.92	80.5568	2,638.92	76.6536	2,638.92	78.6993	2,638.92	74.5168	2,638.92	76.7196	2,638.92	72.9104	2,638.92	74.641	2,638.92	70.9867	2,638.92	72.4888	2,638.92	67.6106	2,638.92	70.144	2,638.92	67.6813	2,638.92	67.145	2,638.92	63.3199	2,638.92	68.0117	2,638.92	63.0724	2,638.92	63.9625	2,638.92	61.5242	2,638.92	65.1314	2,638.92	62.8805	2,638.92	63.2129	2,638.92	46.7195	2,638.92	65.2243	2,638.92	62.9595	2,638.92	52.0123	2,638.92	65.2848
2,731.93	83.8812	2,731.93	83.5347	2,731.93	83.9192	2,731.93	82.8344	2,731.93	83.6755	2,731.93	81.8179	2,731.93	83.0067	2,731.93	80.4056	2,731.93	81.8349	2,731.93	78.3852	2,731.93	80.1436	2,731.93	76.2186	2,731.93	78.1348	2,731.93	74.2883	2,731.93	76.222	2,731.93	72.7593	2,731.93	74.2577	2,731.93	71.4881	2,731.93	72.2996	2,731.93	68.7407	2,731.93	70.0983	2,731.93	68.1006	2,731.93	68.0771	2,731.93	65.1191	2,731.93	67.6582	2,731.93	63.7763	2,731.93	62.1192	2,731.93	61.9542	2,731.93	63.8217	2,731.93	64.3035	2,731.93	64.104	2,731.93	53.7086	2,731.93	64.2171	2,731.93	65.5358	2,731.93	51.3579	2,731.93	65.2987
2,828.61	84.2421	2,828.61	83.7963	2,828.61	84.2458	2,828.61	83.0728	2,828.61	83.9444	2,828.61	82.1122	2,828.61	83.325	2,828.61	80.4716	2,828.61	82.1862	2,828.61	78.2558	2,828.61	80.5084	2,828.61	75.871	2,828.61	78.6691	2,828.61	73.6162	2,828.61	76.8855	2,828.61	71.4369	2,828.61	74.9399	2,828.61	70.8326	2,828.61	72.8982	2,828.61	68.5224	2,828.61	71.3645	2,828.61	67.2545	2,828.61	67.9104	2,828.61	65.0173	2,828.61	69.0199	2,828.61	63.4128	2,828.61	67.6892	2,828.61	62.2679	2,828.61	62.7418	2,828.61	63.4995	2,828.61	60.3111	2,828.61	54.2171	2,828.61	64.6871	2,828.61	62.0721	2,828.61	52.7785	2,828.61	65.6382
2,928.22	84.1747	2,928.22	83.6886	2,928.22	84.2622	2,928.22	83.0684	2,928.22	83.8323	2,928.22	81.9125	2,928.22	83.0342	2,928.22	80.4054	2,928.22	81.8174	2,928.22	78.8339	2,928.22	80.2873	2,928.22	76.978	2,928.22	78.4599	2,928.22	75.1681	2,928.22	76.4795	2,928.22	72.7129	2,928.22	74.3638	2,928.22	70.5862	2,928.22	72.8482	2,928.22	69.2961	2,928.22	71.2547	2,928.22	67.9014	2,928.22	68.7356	2,928.22	65.8645	2,928.22	68.0245	2,928.22	64.5173	2,928.22	66.3835	2,928.22	62.9083	2,928.22	66.0321	2,928.22	64.392	2,928.22	64.4656	2,928.22	59.4537	2,928.22	64.7469	2,928.22	66.1162	2,928.22	57.4409	2,928.22	66.6255
3,031.49	84.4605	3,031.49	83.9152	3,031.49	84.5033	3,031.49	82.9493	3,031.49	84.1741	3,031.49	81.7716	3,031.49	83.2011	3,031.49	79.8918	3,031.49	81.8281	3,031.49	77.7522	3,031.49	80.1523	3,031.49	76.2251	3,031.49	78.0987	3,031.49	74.5382	3,031.49	76.208	3,031.49	71.9824	3,031.49	74.3299	3,031.49	69.9862	3,031.49	72.1029	3,031.49	67.6106	3,031.49	70.8878	3,031.49	66.13	3,031.49	69.0824	3,031.49	66.6188	3,031.49	67.2935	3,031.49	63.1617	3,031.49	67.0002	3,031.49	62.3815	3,031.49	63.697	3,031.49	63.1957	3,031.49	62.6295	3,031.49	59.1922	3,031.49	62.2056	3,031.49	62.7948	3,031.49	56.938	3,031.49	64.0346
3,138.43	85.8337	3,138.43	85.2752	3,138.43	85.8006	3,138.43	84.0033	3,138.43	85.2072	3,138.43	82.1801	3,138.43	83.9282	3,138.43	79.8349	3,138.43	82.1454	3,138.43	77.4145	3,138.43	80.1813	3,138.43	75.323	3,138.43	78.0755	3,138.43	73.3311	3,138.43	75.9947	3,138.43	71.307	3,138.43	73.9043	3,138.43	69.9024	3,138.43	72.1801	3,138.43	68.6723	3,138.43	70.4238	3,138.43	65.4837	3,138.43	68.6992	3,138.43	64.7994	3,138.43	67.0861	3,138.43	62.4859	3,138.43	63.8572	3,138.43	63.0764	3,138.43	61.5301	3,138.43	61.5285	3,138.43	64.8534	3,138.43	58.2123	3,138.43	62.4806	3,138.43	65.4659	3,138.43	56.9323	3,138.43	62.9506
3,249.02	86.6463	3,249.02	85.8717	3,249.02	86.5488	3,249.02	84.3786	3,249.02	85.8052	3,249.02	82.2785	3,249.02	84.3639	3,249.02	79.6645	3,249.02	82.0734	3,249.02	77.1754	3,249.02	79.774	3,249.02	75.2778	3,249.02	77.3938	3,249.02	73.8667	3,249.02	75.1522	3,249.02	72.0872	3,249.02	73.9468	3,249.02	70.0729	3,249.02	72.6402	3,249.02	68.9763	3,249.02	70.7485	3,249.02	66.3166	3,249.02	69.3577	3,249.02	66.1007	3,249.02	66.466	3,249.02	60.4419	3,249.02	66.6599	3,249.02	62.1048	3,249.02	60.953	3,249.02	61.5085	3,249.02	61.6229	3,249.02	61.2225	3,249.02	61.9269	3,249.02	58.8697	3,249.02	57.3506	3,249.02	62.9585
3,363.28	87.1266	3,363.28	86.2269	3,363.28	87.0865	3,363.28	84.3569	3,363.28	86.1429	3,363.28	82.1363	3,363.28	84.374	3,363.28	79.5504	3,363.28	82.0714	3,363.28	77.5112	3,363.28	79.4632	3,363.28	75.3907	3,363.28	77.3866	3,363.28	74.0183	3,363.28	75.7036	3,363.28	72.9882	3,363.28	74.2465	3,363.28	71.1655	3,363.28	72.3159	3,363.28	69.5095	3,363.28	71.4267	3,363.28	68.1471	3,363.28	69.7823	3,363.28	66.4812	3,363.28	66.3545	3,363.28	64.4301	3,363.28	64.5677	3,363.28	64.5775	3,363.28	61.3997	3,363.28	59.4782	3,363.28	64.1765	3,363.28	61.6055	3,363.28	59.8243	3,363.28	62.0042	3,363.28	59.8749	3,363.28	62.2761
3,481.93	87.366	3,481.93	86.3061	3,481.93	87.4851	3,481.93	84.5457	3,481.93	86.621	3,481.93	81.9289	3,481.93	84.9738	3,481.93	79.721	3,481.93	82.6095	3,481.93	77.7652	3,481.93	80.0631	3,481.93	76.3416	3,481.93	78.2141	3,481.93	75.0395	3,481.93	77.2006	3,481.93	74.088	3,481.93	75.661	3,481.93	71.5161	3,481.93	74.2454	3,481.93	70.2131	3,481.93	72.1132	3,481.93	69.0783	3,481.93	70.9758	3,481.93	67.908	3,481.93	69.3797	3,481.93	63.8254	3,481.93	66.3429	3,481.93	63.4048	3,481.93	65.9877	3,481.93	54.5364	3,481.93	64.422	3,481.93	61.5535	3,481.93	59.1614	3,481.93	61.8239	3,481.93	61.9131	3,481.93	62.204
3,604.98	87.1903	3,604.98	86.0231	3,604.98	87.2183	3,604.98	83.9262	3,604.98	85.9109	3,604.98	81.2219	3,604.98	83.6769	3,604.98	79.1722	3,604.98	81.075	3,604.98	78.0136	3,604.98	78.8423	3,604.98	77.1824	3,604.98	77.2174	3,604.98	75.4532	3,604.98	76.2561	3,604.98	73.2929	3,604.98	75.0592	3,604.98	72.1867	3,604.98	73.414	3,604.98	70.4571	3,604.98	71.595	3,604.98	68.9936	3,604.98	69.7315	3,604.98	67.7573	3,604.98	68.8553	3,604.98	65.0422	3,604.98	68.391	3,604.98	62.7532	3,604.98	63.2205	3,604.98	58.7958	3,604.98	61.9977	3,604.98	61.9954	3,604.98	59.0503	3,604.98	56.646	3,604.98	60.6932	3,604.98	61.1269
3,732.42	87.1666	3,732.42	85.9215	3,732.42	87.174	3,732.42	83.5036	3,732.42	85.9037	3,732.42	80.5823	3,732.42	83.5097	3,732.42	78.1866	3,732.42	80.7552	3,732.42	77.1072	3,732.42	78.4136	3,732.42	76.28	3,732.42	77.3289	3,732.42	75.2645	3,732.42	76.2693	3,732.42	72.4795	3,732.42	75.2712	3,732.42	70.9672	3,732.42	73.0479	3,732.42	68.727	3,732.42	71.7626	3,732.42	66.9011	3,732.42	69.6591	3,732.42	63.942	3,732.42	67.1303	3,732.42	64.0478	3,732.42	65.1228	3,732.42	64.5495	3,732.42	62.7529	3,732.42	59.2612	3,732.42	63.5655	3,732.42	62.6316	3,732.42	56.1928	3,732.42	60.4931	3,732.42	60.7701	3,732.42	63.1569
3,863.53	87.3473	3,863.53	86.0897	3,863.53	87.3048	3,863.53	83.4643	3,863.53	85.765	3,863.53	80.5432	3,863.53	83.2043	3,863.53	78.7785	3,863.53	80.5293	3,863.53	76.8078	3,863.53	78.6755	3,863.53	75.9096	3,863.53	77.3084	3,863.53	74.6439	3,863.53	76.3245	3,863.53	73.7859	3,863.53	74.6704	3,863.53	69.8292	3,863.53	72.5226	3,863.53	68.8758	3,863.53	70.1879	3,863.53	67.7492	3,863.53	69.4644	3,863.53	64.9631	3,863.53	67.7699	3,863.53	63.5298	3,863.53	64.4626	3,863.53	62.9257	3,863.53	65.0561	3,863.53	55.0458	3,863.53	64.4731	3,863.53	60.137	3,863.53	57.4172	3,863.53	58.0666	3,863.53	58.736	3,863.53	57.9424
3,999.76	87.44	3,999.76	85.934	3,999.76	87.4307	3,999.76	83.4492	3,999.76	85.8014	3,999.76	80.4044	3,999.76	83.2171	3,999.76	78.678	3,999.76	80.412	3,999.76	78.2316	3,999.76	78.398	3,999.76	76.7491	3,999.76	77.9783	3,999.76	75.0207	3,999.76	76.9491	3,999.76	73.3083	3,999.76	74.9339	3,999.76	71.7594	3,999.76	73.2522	3,999.76	70.0999	3,999.76	70.6622	3,999.76	67.5229	3,999.76	68.738	3,999.76	65.3984	3,999.76	67.8754	3,999.76	64.8343	3,999.76	66.8539	3,999.76	63.3734	3,999.76	62.3978	3,999.76	58.1033	3,999.76	62.3431	3,999.76	57.7384	3,999.76	60.2483	3,999.76	54.6623	3,999.76	59.1616	3,999.76	50.3325
4,141.11	86.9181	4,141.11	85.3738	4,141.11	86.9133	4,141.11	82.6226	4,141.11	85.3484	4,141.11	80.4169	4,141.11	82.6563	4,141.11	79.0657	4,141.11	80.0357	4,141.11	79.0498	4,141.11	78.7195	4,141.11	77.8945	4,141.11	78.5076	4,141.11	75.4135	4,141.11	76.2663	4,141.11	72.3468	4,141.11	74.9424	4,141.11	71.3893	4,141.11	73.1559	4,141.11	68.1195	4,141.11	71.256	4,141.11	65.9214	4,141.11	68.3226	4,141.11	65.1921	4,141.11	66.9006	4,141.11	63.1887	4,141.11	66.0109	4,141.11	60.813	4,141.11	63.592	4,141.11	60.1272	4,141.11	61.3289	4,141.11	58.0379	4,141.11	59.2671	4,141.11	47.2059	4,141.11	57.6192	4,141.11	54.5829
4,286.87	87.006	4,286.87	85.2748	4,286.87	87.0771	4,286.87	82.3814	4,286.87	85.3979	4,286.87	80.3897	4,286.87	82.5	4,286.87	80.15	4,286.87	80.8889	4,286.87	78.0932	4,286.87	80.3197	4,286.87	77.1236	4,286.87	79.3398	4,286.87	74.9833	4,286.87	77.8079	4,286.87	73.0062	4,286.87	75.8678	4,286.87	70.2688	4,286.87	73.2018	4,286.87	68.0223	4,286.87	70.5121	4,286.87	66.4362	4,286.87	68.994	4,286.87	66.1229	4,286.87	65.9853	4,286.87	63.5901	4,286.87	65.6581	4,286.87	64.5529	4,286.87	64.3139	4,286.87	60.0657	4,286.87	62.5888	4,286.87	56.4017	4,286.87	60.7457	4,286.87	58.4638	4,286.87	56.029	4,286.87	57.6137
4,438.48	86.4777	4,438.48	84.8959	4,438.48	86.4374	4,438.48	82.6104	4,438.48	84.6104	4,438.48	80.8659	4,438.48	82.6935	4,438.48	80.7497	4,438.48	81.0967	4,438.48	80.1973	4,438.48	80.6153	4,438.48	77.5258	4,438.48	78.8683	4,438.48	75.9525	4,438.48	77.5761	4,438.48	74.1262	4,438.48	74.8689	4,438.48	70.5999	4,438.48	72.712	4,438.48	69.2316	4,438.48	70.1372	4,438.48	67.4468	4,438.48	68.2085	4,438.48	63.226	4,438.48	66.456	4,438.48	60.4022	4,438.48	64.4325	4,438.48	61.3337	4,438.48	64.1552	4,438.48	60.5801	4,438.48	64.534	4,438.48	54.0875	4,438.48	62.4969	4,438.48	57.454	4,438.48	58.998	4,438.48	56.4163
4,594.48	86.9445	4,594.48	85.3878	4,594.48	86.8939	4,594.48	83.0545	4,594.48	85.5401	4,594.48	82.2899	4,594.48	83.5776	4,594.48	80.6288	4,594.48	82.3848	4,594.48	79.1682	4,594.48	81.0803	4,594.48	77.0824	4,594.48	80.1015	4,594.48	73.7543	4,594.48	77.4995	4,594.48	70.5697	4,594.48	75.0335	4,594.48	71.4698	4,594.48	72.9199	4,594.48	70.2004	4,594.48	70.5834	4,594.48	68.3639	4,594.48	69.0881	4,594.48	66.8573	4,594.48	66.5572	4,594.48	64.3507	4,594.48	66.5028	4,594.48	63.321	4,594.48	63.6669	4,594.48	62.9061	4,594.48	60.777	4,594.48	55.9419	4,594.48	60.942	4,594.48	45.579	4,594.48	57.6066	4,594.48	52.8536
4,757.08	87.6301	4,757.08	85.8469	4,757.08	87.6394	4,757.08	83.9967	4,757.08	86.0724	4,757.08	82.6215	4,757.08	84.1607	4,757.08	82.0289	4,757.08	83.602	4,757.08	79.9491	4,757.08	82.4811	4,757.08	78.6624	4,757.08	80.0697	4,757.08	76.3279	4,757.08	77.9262	4,757.08	73.9347	4,757.08	75.7868	4,757.08	70.4861	4,757.08	72.6176	4,757.08	67.1893	4,757.08	70.8333	4,757.08	64.76	4,757.08	67.8641	4,757.08	64.4814	4,757.08	66.0121	4,757.08	63.7626	4,757.08	64.8681	4,757.08	63.3261	4,757.08	64.2802	4,757.08	65.4587	4,757.08	65.4733	4,757.08	58.9325	4,757.08	64.5084	4,757.08	42.6363	4,757.08	59.3759	4,757.08	45.9594
4,924.8	87.474	4,924.8	86.313	4,924.8	87.457	4,924.8	84.622	4,924.8	85.9411	4,924.8	83.4246	4,924.8	84.8028	4,924.8	81.2695	4,924.8	83.508	4,924.8	79.8918	4,924.8	81.8069	4,924.8	76.2798	4,924.8	79.6654	4,924.8	74.0102	4,924.8	77.6787	4,924.8	71.9734	4,924.8	75.0016	4,924.8	68.8945	4,924.8	72.9508	4,924.8	66.7744	4,924.8	70.4592	4,924.8	66.2549	4,924.8	69.5276	4,924.8	65.0856	4,924.8	67.5853	4,924.8	64.2611	4,924.8	64.7393	4,924.8	62.259	4,924.8	65.1626	4,924.8	62.1606	4,924.8	62.1111	4,924.8	57.4601	4,924.8	59.6679	4,924.8	37.1982	4,924.8	60.3618	4,924.8	50.2743
5,098.39	86.6153	5,098.39	85.3914	5,098.39	86.7724	5,098.39	84.2839	5,098.39	86.0704	5,098.39	82.9425	5,098.39	84.7402	5,098.39	80.8597	5,098.39	83.5284	5,098.39	77.7087	5,098.39	81.2583	5,098.39	75.6994	5,098.39	79.4539	5,098.39	72.721	5,098.39	76.4139	5,098.39	69.7744	5,098.39	74.6427	5,098.39	69.3094	5,098.39	72.4998	5,098.39	68.1013	5,098.39	70.6118	5,098.39	65.3052	5,098.39	68.1483	5,098.39	62.0436	5,098.39	65.0464	5,098.39	58.987	5,098.39	65.7542	5,098.39	59.0734	5,098.39	62.537	5,098.39	62.239	5,098.39	63.5315	5,098.39	58.5277	5,098.39	63.4341	5,098.39	43.7182	5,098.39	57.9912	5,098.39	52.2182
5,277.83	85.8336	5,277.83	85.0046	5,277.83	86.0804	5,277.83	83.9166	5,277.83	85.263	5,277.83	82.1364	5,277.83	84.1587	5,277.83	80.3056	5,277.83	82.4544	5,277.83	78.0168	5,277.83	80.5372	5,277.83	74.552	5,277.83	77.8459	5,277.83	71.6343	5,277.83	75.8531	5,277.83	69.7286	5,277.83	73.1612	5,277.83	66.5382	5,277.83	70.4013	5,277.83	63.1414	5,277.83	68.1654	5,277.83	61.1669	5,277.83	66.0924	5,277.83	61.5923	5,277.83	64.7872	5,277.83	58.9606	5,277.83	62.5497	5,277.83	57.8704	5,277.83	58.4687	5,277.83	60.6027	5,277.83	59.7344	5,277.83	54.1027	5,277.83	61.8062	5,277.83	44.6565	5,277.83	56.1356	5,277.83	44.0856
5,463.87	86.2994	5,463.87	85.4657	5,463.87	86.4947	5,463.87	83.8508	5,463.87	85.7993	5,463.87	82.0483	5,463.87	84.3689	5,463.87	78.6989	5,463.87	82.5089	5,463.87	75.2184	5,463.87	79.7425	5,463.87	72.0026	5,463.87	78.2887	5,463.87	70.6306	5,463.87	75.2062	5,463.87	68.748	5,463.87	72.284	5,463.87	67.2114	5,463.87	69.9778	5,463.87	65.2717	5,463.87	68.2365	5,463.87	62.9583	5,463.87	66.0983	5,463.87	59.1596	5,463.87	62.9119	5,463.87	58.0516	5,463.87	61.1981	5,463.87	57.4708	5,463.87	61.9054	5,463.87	59.4839	5,463.87	59.7575	5,463.87	51.0101	5,463.87	60.8963	5,463.87	37.4467	5,463.87	56.5974	5,463.87	43.4906
5,656.49	85.8228	5,656.49	84.647	5,656.49	86.1022	5,656.49	83.4604	5,656.49	85.1877	5,656.49	81.3081	5,656.49	83.791	5,656.49	79.1177	5,656.49	81.7091	5,656.49	76.4683	5,656.49	79.6443	5,656.49	74.6921	5,656.49	76.6758	5,656.49	71.3635	5,656.49	73.8403	5,656.49	68.154	5,656.49	71.4849	5,656.49	66.4262	5,656.49	68.5385	5,656.49	64.6609	5,656.49	67.5116	5,656.49	61.9229	5,656.49	65.048	5,656.49	59.0314	5,656.49	62.2691	5,656.49	58.56	5,656.49	61.6352	5,656.49	58.0039	5,656.49	61.4802	5,656.49	58.6775	5,656.49	58.7153	5,656.49	56.0765	5,656.49	60.6805	5,656.49	40.9824	5,656.49	55.9158	5,656.49	39.722
5,856.45	85.8733	5,856.45	85.668	5,856.45	86.0504	5,856.45	84.391	5,856.45	85.6095	5,856.45	82.2143	5,856.45	84.1586	5,856.45	79.2999	5,856.45	81.9186	5,856.45	76.7482	5,856.45	78.9104	5,856.45	72.6372	5,856.45	76.5039	5,856.45	69.8934	5,856.45	72.9748	5,856.45	67.8223	5,856.45	69.8971	5,856.45	65.6368	5,856.45	67.7543	5,856.45	64.5164	5,856.45	65.8895	5,856.45	62.1345	5,856.45	63.4375	5,856.45	60.5738	5,856.45	61.6522	5,856.45	60.1593	5,856.45	58.4278	5,856.45	57.5826	5,856.45	59.6165	5,856.45	60.2839	5,856.45	58.0016	5,856.45	53.1106	5,856.45	60.4712	5,856.45	45.6517	5,856.45	53.311	5,856.45	50.794
6,062.99	86.3668	6,062.99	86.0522	6,062.99	86.315	6,062.99	84.9312	6,062.99	85.8658	6,062.99	82.8537	6,062.99	84.4471	6,062.99	80.1628	6,062.99	82.4801	6,062.99	76.159	6,062.99	79.5781	6,062.99	72.1256	6,062.99	75.8202	6,062.99	68.2541	6,062.99	71.053	6,062.99	66.6279	6,062.99	68.0745	6,062.99	65.8716	6,062.99	65.9197	6,062.99	63.3732	6,062.99	64.1897	6,062.99	62.2952	6,062.99	63.1199	6,062.99	58.3497	6,062.99	61.6	6,062.99	56.9012	6,062.99	59.7272	6,062.99	56.7507	6,062.99	57.0018	6,062.99	59.0711	6,062.99	53.946	6,062.99	54.0322	6,062.99	58.1924	6,062.99	47.1213	6,062.99	54.2085	6,062.99	51.5923
6,276.86	87.089	6,276.86	86.6067	6,276.86	87.1124	6,276.86	85.0521	6,276.86	86.4526	6,276.86	83.0099	6,276.86	85.4764	6,276.86	79.9926	6,276.86	83.5434	6,276.86	75.8146	6,276.86	80.1879	6,276.86	71.2006	6,276.86	75.5074	6,276.86	69.4191	6,276.86	70.7746	6,276.86	68.1389	6,276.86	67.7756	6,276.86	64.9257	6,276.86	67.182	6,276.86	63.9336	6,276.86	66.0819	6,276.86	61.3678	6,276.86	63.0811	6,276.86	58.5465	6,276.86	60.8908	6,276.86	57.916	6,276.86	59.4054	6,276.86	55.3304	6,276.86	59.2542	6,276.86	57.4302	6,276.86	57.9793	6,276.86	55.5548	6,276.86	60.8839	6,276.86	46.6218	6,276.86	55.2376	6,276.86	40.4822
6,498.05	87.0813	6,498.05	86.5362	6,498.05	86.6875	6,498.05	85.3661	6,498.05	86.479	6,498.05	83.8809	6,498.05	85.6788	6,498.05	80.9057	6,498.05	84.0674	6,498.05	76.0419	6,498.05	80.3416	6,498.05	73.4928	6,498.05	75.5927	6,498.05	72.5004	6,498.05	71.6152	6,498.05	70.0065	6,498.05	69.8795	6,498.05	68.5824	6,498.05	68.5049	6,498.05	64.9444	6,498.05	66.5607	6,498.05	63.8599	6,498.05	65.7646	6,498.05	61.8762	6,498.05	63.2156	6,498.05	61.0955	6,498.05	59.6317	6,498.05	56.8268	6,498.05	56.2148	6,498.05	61.3664	6,498.05	58.0698	6,498.05	57.9831	6,498.05	59.6477	6,498.05	48.5265	6,498.05	57.0898	6,498.05	49.7709
6,727.29	86.2164	6,727.29	86.1201	6,727.29	86.0514	6,727.29	85.6207	6,727.29	85.5628	6,727.29	84.2134	6,727.29	85.401	6,727.29	80.5661	6,727.29	83.8327	6,727.29	76.9538	6,727.29	80.03	6,727.29	75.6644	6,727.29	74.8827	6,727.29	74.1076	6,727.29	72.1916	6,727.29	72.2563	6,727.29	72.1451	6,727.29	69.7778	6,727.29	70.2221	6,727.29	67.5827	6,727.29	67.4898	6,727.29	65.054	6,727.29	65.4015	6,727.29	62.9831	6,727.29	63.2508	6,727.29	61.65	6,727.29	61.1348	6,727.29	59.9131	6,727.29	60.6748	6,727.29	61.0771	6,727.29	58.7024	6,727.29	56.3052	6,727.29	60.0808	6,727.29	46.5893	6,727.29	56.6196	6,727.29	46.3746
6,964.6	86.0116	6,964.6	86.239	6,964.6	85.2173	6,964.6	85.8923	6,964.6	85.1391	6,964.6	84.2212	6,964.6	84.6761	6,964.6	80.6687	6,964.6	82.8906	6,964.6	77.5228	6,964.6	78.5718	6,964.6	76.5147	6,964.6	74.0331	6,964.6	75.1858	6,964.6	74.4961	6,964.6	73.2112	6,964.6	73.1068	6,964.6	71.003	6,964.6	71.0663	6,964.6	68.0605	6,964.6	68.5937	6,964.6	65.2371	6,964.6	65.9214	6,964.6	63.4439	6,964.6	64.3797	6,964.6	62.4301	6,964.6	59.1325	6,964.6	59.1403	6,964.6	58.9702	6,964.6	61.358	6,964.6	57.2706	6,964.6	57.5126	6,964.6	59.3328	6,964.6	47.1329	6,964.6	57.5428	6,964.6	49.2451
7,209.96	85.6495	7,209.96	85.9811	7,209.96	85.1183	7,209.96	85.715	7,209.96	84.8921	7,209.96	83.9395	7,209.96	84.9914	7,209.96	80.1025	7,209.96	82.6105	7,209.96	77.9923	7,209.96	77.6739	7,209.96	77.1228	7,209.96	75.6011	7,209.96	75.0755	7,209.96	75.1561	7,209.96	72.46	7,209.96	73.5013	7,209.96	69.6603	7,209.96	70.7533	7,209.96	67.2029	7,209.96	68.5676	7,209.96	63.1422	7,209.96	65.1397	7,209.96	60.438	7,209.96	62.4857	7,209.96	59.2217	7,209.96	62.2488	7,209.96	57.7708	7,209.96	62.1024	7,209.96	60.8064	7,209.96	56.6491	7,209.96	54.2091	7,209.96	59.6814	7,209.96	51.0953	7,209.96	56.42	7,209.96	53.231
7,464.11	85.3998	7,464.11	85.5187	7,464.11	84.8487	7,464.11	85.2997	7,464.11	84.9063	7,464.11	83.1695	7,464.11	84.4482	7,464.11	79.3304	7,464.11	81.7805	7,464.11	77.9907	7,464.11	77.5087	7,464.11	76.571	7,464.11	75.7216	7,464.11	73.4369	7,464.11	74.9807	7,464.11	71.0204	7,464.11	72.2204	7,464.11	67.403	7,464.11	69.0976	7,464.11	65.2181	7,464.11	66.7988	7,464.11	62.5192	7,464.11	63.8426	7,464.11	60.4955	7,464.11	60.9443	7,464.11	59.4981	7,464.11	58.3205	7,464.11	57.2311	7,464.11	56.7226	7,464.11	59.3457	7,464.11	56.5722	7,464.11	54.8452	7,464.11	56.2385	7,464.11	46.7062	7,464.11	55.5698	7,464.11	48.5978
7,727.78	84.7528	7,727.78	85.3171	7,727.78	84.2718	7,727.78	85.1489	7,727.78	84.6419	7,727.78	82.5187	7,727.78	84.3651	7,727.78	79.1655	7,727.78	80.9595	7,727.78	77.668	7,727.78	76.8576	7,727.78	75.5557	7,727.78	76.0741	7,727.78	72.3251	7,727.78	73.7666	7,727.78	68.6855	7,727.78	69.6995	7,727.78	65.8144	7,727.78	66.2396	7,727.78	62.5805	7,727.78	63.2164	7,727.78	61.4891	7,727.78	60.2794	7,727.78	58.6581	7,727.78	57.1281	7,727.78	57.7218	7,727.78	54.5173	7,727.78	54.2773	7,727.78	57.7359	7,727.78	56.6471	7,727.78	52.087	7,727.78	53.5417	7,727.78	56.2264	7,727.78	50.4959	7,727.78	50.56	7,727.78	48.8085
8,000.24	84.9236	8,000.24	85.7944	8,000.24	84.7038	8,000.24	85.4048	8,000.24	85.2278	8,000.24	82.4455	8,000.24	84.4772	8,000.24	79.2211	8,000.24	80.4583	8,000.24	77.5713	8,000.24	77.2408	8,000.24	74.3634	8,000.24	75.4997	8,000.24	69.9562	8,000.24	72.2379	8,000.24	66.4078	8,000.24	67.1455	8,000.24	63.9438	8,000.24	62.3015	8,000.24	62.1599	8,000.24	58.7406	8,000.24	59.4289	8,000.24	57.2275	8,000.24	57.2583	8,000.24	54.8409	8,000.24	54.7319	8,000.24	51.8504	8,000.24	54.859	8,000.24	52.559	8,000.24	54.5261	8,000.24	49.1087	8,000.24	51.3424	8,000.24	54.172	8,000.24	50.1869	8,000.24	46.3636	8,000.24	44.9017
8,282.23	85.8889	8,282.23	86.674	8,282.23	85.6325	8,282.23	86.1702	8,282.23	86.2755	8,282.23	82.8182	8,282.23	85.1652	8,282.23	79.7802	8,282.23	80.6665	8,282.23	77.5043	8,282.23	77.9226	8,282.23	73.6472	8,282.23	75.399	8,282.23	68.6753	8,282.23	70.4709	8,282.23	66.2407	8,282.23	63.8389	8,282.23	63.9377	8,282.23	60.7066	8,282.23	61.6173	8,282.23	59.5839	8,282.23	60.4887	8,282.23	57.6731	8,282.23	58.2435	8,282.23	55.419	8,282.23	55.7024	8,282.23	54.5645	8,282.23	51.464	8,282.23	55.4225	8,282.23	52.1383	8,282.23	47.9145	8,282.23	53.2211	8,282.23	51.2191	8,282.23	48.1695	8,282.23	48.1506	8,282.23	48.8558
8,574.46	85.9969	8,574.46	87.0837	8,574.46	85.7877	8,574.46	86.4286	8,574.46	86.6797	8,574.46	82.7776	8,574.46	85.1597	8,574.46	80.1451	8,574.46	80.3415	8,574.46	77.7854	8,574.46	78.6449	8,574.46	73.2266	8,574.46	75.1053	8,574.46	69.0011	8,574.46	68.7707	8,574.46	66.4771	8,574.46	64.5205	8,574.46	65.2361	8,574.46	64.0403	8,574.46	62.5509	8,574.46	63.2786	8,574.46	59.5827	8,574.46	61.0021	8,574.46	57.5385	8,574.46	58.3231	8,574.46	56.5069	8,574.46	57.4754	8,574.46	52.075	8,574.46	54.5675	8,574.46	53.9321	8,574.46	51.5187	8,574.46	53.3712	8,574.46	52.9993	8,574.46	43.3202	8,574.46	52	8,574.46	48.7815
8,876.22	84.7903	8,876.22	86.6118	8,876.22	84.5824	8,876.22	86.1124	8,876.22	86.1823	8,876.22	82.1363	8,876.22	84.5796	8,876.22	80.3675	8,876.22	80.067	8,876.22	77.4955	8,876.22	79.3204	8,876.22	72.1382	8,876.22	74.4878	8,876.22	69.0762	8,876.22	68.7852	8,876.22	67.7986	8,876.22	68.4709	8,876.22	66.1629	8,876.22	67.7686	8,876.22	64.6914	8,876.22	66.2694	8,876.22	61.9478	8,876.22	63.5382	8,876.22	60.0188	8,876.22	61.3377	8,876.22	57.5971	8,876.22	60.0891	8,876.22	54.6846	8,876.22	58.0136	8,876.22	53.8548	8,876.22	54.9473	8,876.22	55.1961	8,876.22	54.5014	8,876.22	43.7065	8,876.22	53.5501	8,876.22	49.6271
9,189.7	82.877	9,189.7	85.8059	9,189.7	82.942	9,189.7	85.0556	9,189.7	85.5259	9,189.7	81.2838	9,189.7	83.8582	9,189.7	80.2155	9,189.7	80.5879	9,189.7	75.6606	9,189.7	79.5987	9,189.7	70.4558	9,189.7	73.7431	9,189.7	70.1791	9,189.7	70.6823	9,189.7	68.9551	9,189.7	70.6372	9,189.7	67.3301	9,189.7	69.4601	9,189.7	64.0282	9,189.7	67.4232	9,189.7	62.6705	9,189.7	64.1555	9,189.7	60.8498	9,189.7	62.3544	9,189.7	58.0432	9,189.7	61.0136	9,189.7	54.3604	9,189.7	58.0715	9,189.7	54.7426	9,189.7	53.1788	9,189.7	54.1279	9,189.7	54.1261	9,189.7	39.6971	9,189.7	52.5932	9,189.7	50.1805
9,513.43	83.5286	9,513.43	85.1863	9,513.43	83.6305	9,513.43	83.2822	9,513.43	85.1749	9,513.43	80.6154	9,513.43	82.6447	9,513.43	78.1084	9,513.43	80.3749	9,513.43	71.9863	9,513.43	78.1276	9,513.43	69.8264	9,513.43	71.5311	9,513.43	70.0733	9,513.43	70.2175	9,513.43	67.5795	9,513.43	69.257	9,513.43	65.6136	9,513.43	67.4686	9,513.43	62.7289	9,513.43	65.0858	9,513.43	60.2211	9,513.43	62.4017	9,513.43	58.962	9,513.43	59.6624	9,513.43	56.3623	9,513.43	59.2104	9,513.43	56.0585	9,513.43	57.1426	9,513.43	47.2785	9,513.43	52.4587	9,513.43	51.5524	9,513.43	52.227	9,513.43	41.0546	9,513.43	49.1579	9,513.43	48.7436
9,848.88	85.0119	9,848.88	85.2184	9,848.88	85.0266	9,848.88	82.6027	9,848.88	85.1163	9,848.88	80.0522	9,848.88	81.6112	9,848.88	75.8794	9,848.88	79.4375	9,848.88	70.9724	9,848.88	75.3374	9,848.88	70.0599	9,848.88	69.4483	9,848.88	68.1774	9,848.88	69.455	9,848.88	65.5112	9,848.88	67.4249	9,848.88	62.9948	9,848.88	64.181	9,848.88	60.9302	9,848.88	61.524	9,848.88	58.0681	9,848.88	58.959	9,848.88	56.8526	9,848.88	56.5702	9,848.88	54.088	9,848.88	56.6801	9,848.88	51.5931	9,848.88	52.2592	9,848.88	48.7017	9,848.88	43.0079	9,848.88	51.4661	9,848.88	49.7203	9,848.88	45.4879	9,848.88	45.1001	9,848.88	40.5191
10,196.8	85.4558	10,196.8	85.0437	10,196.8	85.5454	10,196.8	82.5991	10,196.8	84.7617	10,196.8	80.1043	10,196.8	81.2297	10,196.8	75.592	10,196.8	79.0185	10,196.8	72.2586	10,196.8	73.3905	10,196.8	70.5665	10,196.8	70.0898	10,196.8	67.5956	10,196.8	69.5219	10,196.8	65.0759	10,196.8	65.5983	10,196.8	61.5816	10,196.8	62.0485	10,196.8	59.5911	10,196.8	58.7679	10,196.8	56.2482	10,196.8	55.8147	10,196.8	55.2589	10,196.8	53.6996	10,196.8	51.4626	10,196.8	53.1862	10,196.8	45.0546	10,196.8	48.0622	10,196.8	47.9096	10,196.8	45.6981	10,196.8	49.2273	10,196.8	44.9297	10,196.8	39.4393	10,196.8	48.0888	10,196.8	37.467
10,556.4	86.7143	10,556.4	86.1022	10,556.4	86.8272	10,556.4	83.4921	10,556.4	85.8642	10,556.4	80.7507	10,556.4	82.7596	10,556.4	75.9077	10,556.4	79.5544	10,556.4	72.353	10,556.4	73.9593	10,556.4	70.097	10,556.4	71.1133	10,556.4	66.9656	10,556.4	68.8269	10,556.4	63.7876	10,556.4	64.2835	10,556.4	60.8171	10,556.4	61.2546	10,556.4	58.3129	10,556.4	58.526	10,556.4	55.2118	10,556.4	55.6375	10,556.4	54.2194	10,556.4	53.6298	10,556.4	49.758	10,556.4	52.1396	10,556.4	48.1911	10,556.4	45.6877	10,556.4	47.1158	10,556.4	45.6848	10,556.4	49.0474	10,556.4	40.5366	10,556.4	33.3166	10,556.4	45.6529	10,556.4	36.7913
10,928.5	86.2819	10,928.5	85.7929	10,928.5	86.2268	10,928.5	82.9908	10,928.5	85.2497	10,928.5	80.4946	10,928.5	82.6857	10,928.5	75.0184	10,928.5	79.2618	10,928.5	71.3746	10,928.5	74.1637	10,928.5	69.0331	10,928.5	71.1532	10,928.5	65.3573	10,928.5	68.0896	10,928.5	61.1034	10,928.5	63.5367	10,928.5	58.7243	10,928.5	61.2	10,928.5	56.34	10,928.5	59.1348	10,928.5	53.261	10,928.5	57.1442	10,928.5	51.8764	10,928.5	54.8776	10,928.5	46.95	10,928.5	52.1541	10,928.5	45.9777	10,928.5	45.445	10,928.5	45.6996	10,928.5	46.8895	10,928.5	47.6573	10,928.5	41.7369	10,928.5	37.2225	10,928.5	43.854	10,928.5	18.8329
11,313.7	84.7824	11,313.7	84.179	11,313.7	84.6538	11,313.7	81.6919	11,313.7	83.7439	11,313.7	78.8058	11,313.7	81.5277	11,313.7	72.8424	11,313.7	77.918	11,313.7	69.1736	11,313.7	72.6737	11,313.7	66.4827	11,313.7	69.7459	11,313.7	59.8774	11,313.7	65.8282	11,313.7	56.5488	11,313.7	59.9993	11,313.7	55.3702	11,313.7	59.7264	11,313.7	53.2578	11,313.7	58.7143	11,313.7	51.777	11,313.7	56.4403	11,313.7	49.9882	11,313.7	53.8551	11,313.7	48.0318	11,313.7	51.814	11,313.7	43.0995	11,313.7	47.1573	11,313.7	40.7711	11,313.7	46.3323	11,313.7	46.1421	11,313.7	41.4892	11,313.7	38.7109	11,313.7	41.4114	11,313.7	38.966
11,712.9	84.0823	11,712.9	82.565	11,712.9	84.142	11,712.9	80.1992	11,712.9	82.3815	11,712.9	76.3311	11,712.9	80.2578	11,712.9	69.3949	11,712.9	75.6141	11,712.9	65.7646	11,712.9	69.3945	11,712.9	60.9034	11,712.9	66.2285	11,712.9	53.0858	11,712.9	59.7845	11,712.9	56.5236	11,712.9	56.967	11,712.9	55.6642	11,712.9	58.3947	11,712.9	53.4181	11,712.9	57.4059	11,712.9	51.279	11,712.9	54.5115	11,712.9	49.0319	11,712.9	52.2902	11,712.9	46.0396	11,712.9	50.2618	11,712.9	44.5785	11,712.9	46.2134	11,712.9	41.9721	11,712.9	43.2086	11,712.9	42.0821	11,712.9	41.3711	11,712.9	39.4239	11,712.9	39.5439	11,712.9	39.8369
12,126	86.2567	12,126	83.9321	12,126	86.468	12,126	80.8296	12,126	84.2145	12,126	75.5329	12,126	81.4027	12,126	67.5259	12,126	75.3551	12,126	65.2077	12,126	67.6866	12,126	57.0571	12,126	64.5947	12,126	60.3937	12,126	58.4667	12,126	60.1785	12,126	61.0097	12,126	58.0062	12,126	60.0932	12,126	55.2075	12,126	58.6557	12,126	52.4578	12,126	54.5011	12,126	51.3863	12,126	53.9045	12,126	47.6661	12,126	51.3975	12,126	44.7886	12,126	45.1236	12,126	41.1667	12,126	44.558	12,126	43.8405	12,126	33.9405	12,126	47.1761	12,126	39.4039	12,126	43.7577
12,553.7	86.3045	12,553.7	83.9234	12,553.7	86.4071	12,553.7	80.4628	12,553.7	84.0535	12,553.7	74.29	12,553.7	80.7782	12,553.7	66.3664	12,553.7	73.6795	12,553.7	63.1591	12,553.7	66.633	12,553.7	57.5971	12,553.7	62.5763	12,553.7	61.9661	12,553.7	61.7897	12,553.7	59.2006	12,553.7	61.9266	12,553.7	56.4369	12,553.7	59.8297	12,553.7	53.1229	12,553.7	57.0345	12,553.7	51.1735	12,553.7	53.9376	12,553.7	49.8128	12,553.7	52.397	12,553.7	44.1959	12,553.7	48.4836	12,553.7	41.2698	12,553.7	43.2976	12,553.7	38.2993	12,553.7	42.3904	12,553.7	40.3252	12,553.7	23.4182	12,553.7	43.3191	12,553.7	35.9951	12,553.7	44.3147
12,996.1	85.577	12,996.1	83.299	12,996.1	85.5527	12,996.1	79.8768	12,996.1	83.3605	12,996.1	73.2168	12,996.1	79.8202	12,996.1	66.3167	12,996.1	71.7491	12,996.1	57.8893	12,996.1	66.0129	12,996.1	60.3859	12,996.1	59.2211	12,996.1	60.5708	12,996.1	62.7276	12,996.1	55.4248	12,996.1	60.3548	12,996.1	52.2839	12,996.1	57.3879	12,996.1	49.6822	12,996.1	54.2158	12,996.1	48.5107	12,996.1	51.8967	12,996.1	43.8411	12,996.1	48.8229	12,996.1	32.3908	12,996.1	44.2636	12,996.1	33.2946	12,996.1	38.5645	12,996.1	31.2231	12,996.1	34.1108	12,996.1	34.5795	12,996.1	28.9311	12,996.1	37.1952	12,996.1	39.0255	12,996.1	42.2036
13,454.6	84.3336	13,454.6	82.3613	13,454.6	84.2872	13,454.6	78.8818	13,454.6	81.9467	13,454.6	69.6264	13,454.6	78.1019	13,454.6	65.4794	13,454.6	67.6037	13,454.6	57.2249	13,454.6	66.2163	13,454.6	63.1515	13,454.6	60.9087	13,454.6	57.4504	13,454.6	64.4801	13,454.6	51.2017	13,454.6	58.145	13,454.6	49.3723	13,454.6	55.3822	13,454.6	50.3308	13,454.6	52.817	13,454.6	47.1113	13,454.6	52.1342	13,454.6	43.348	13,454.6	48.2416	13,454.6	38.4455	13,454.6	44.3967	13,454.6	14.6406	13,454.6	38.3058	13,454.6	32.1385	13,454.6	33.523	13,454.6	32.0946	13,454.6	30.3653	13,454.6	28.832	13,454.6	37.9685	13,454.6	35.2829
13,928.5	83.7021	13,928.5	80.3898	13,928.5	83.3703	13,928.5	79.4337	13,928.5	79.3312	13,928.5	71.1287	13,928.5	78.5106	13,928.5	69.1846	13,928.5	71.5099	13,928.5	65.9187	13,928.5	68.629	13,928.5	64.9288	13,928.5	67.0455	13,928.5	55.9807	13,928.5	65.533	13,928.5	57.9819	13,928.5	56.8486	13,928.5	56.8319	13,928.5	57.0756	13,928.5	56.1271	13,928.5	57.5463	13,928.5	51.9278	13,928.5	54.5024	13,928.5	48.2422	13,928.5	51.6612	13,928.5	46.2296	13,928.5	48.2864	13,928.5	39.4981	13,928.5	45.2759	13,928.5	39.424	13,928.5	41.0523	13,928.5	38.3779	13,928.5	33.5237	13,928.5	39.749	13,928.5	34.9415	13,928.5	23.0171
14,419.9	83.8164	14,419.9	77.9679	14,419.9	83.0153	14,419.9	78.3797	14,419.9	77.1477	14,419.9	72.9625	14,419.9	77.4766	14,419.9	66.4672	14,419.9	73.2812	14,419.9	66.8736	14,419.9	63.805	14,419.9	57.8454	14,419.9	66.2064	14,419.9	58.4357	14,419.9	57.1163	14,419.9	59.7969	14,419.9	57.4238	14,419.9	57.5575	14,419.9	56.461	14,419.9	55.8224	14,419.9	58.098	14,419.9	50.3471	14,419.9	51.9473	14,419.9	47.9243	14,419.9	51.6225	14,419.9	49.1904	14,419.9	49.4832	14,419.9	42.7544	14,419.9	46.0827	14,419.9	40.8365	14,419.9	41.7831	14,419.9	40.2413	14,419.9	26.598	14,419.9	46.4909	14,419.9	33.8981	14,419.9	35.4077
14,928.2	83.2341	14,928.2	76.0519	14,928.2	82.4042	14,928.2	77.5284	14,928.2	77.5132	14,928.2	74.4652	14,928.2	74.5298	14,928.2	67.4639	14,928.2	71.5992	14,928.2	66.068	14,928.2	63.8643	14,928.2	55.4676	14,928.2	59.7229	14,928.2	60.19	14,928.2	57.2227	14,928.2	58.4394	14,928.2	60.4449	14,928.2	55.8946	14,928.2	54.3467	14,928.2	54.1028	14,928.2	56.7138	14,928.2	48.383	14,928.2	45.261	14,928.2	47.0723	14,928.2	51.6301	14,928.2	49.2298	14,928.2	48.7017	14,928.2	42.5382	14,928.2	41.7892	14,928.2	40.6317	14,928.2	39.6039	14,928.2	39.8749	14,928.2	24.5143	14,928.2	49.8646	14,928.2	41.5173	14,928.2	43.1281
15,454.8	83.5197	15,454.8	77.3606	15,454.8	82.6496	15,454.8	76.5104	15,454.8	77.3465	15,454.8	74.8564	15,454.8	72.7932	15,454.8	68.6029	15,454.8	71.7247	15,454.8	61.9285	15,454.8	70.4946	15,454.8	59.5094	15,454.8	61.2475	15,454.8	59.5917	15,454.8	62.637	15,454.8	55.6641	15,454.8	61.6863	15,454.8	51.5896	15,454.8	53.3611	15,454.8	50.673	15,454.8	56.8278	15,454.8	39.379	15,454.8	49.4618	15,454.8	47.5966	15,454.8	54.21	15,454.8	49.7292	15,454.8	50.5902	15,454.8	44.5301	15,454.8	46.5564	15,454.8	42.471	15,454.8	36.4422	15,454.8	44.5806	15,454.8	36.3388	15,454.8	50.0744	15,454.8	47.3045	15,454.8	47.1614
15,999.8	82.4297	15,999.8	78.117	15,999.8	81.2614	15,999.8	74.8119	15,999.8	77.4738	15,999.8	72.5931	15,999.8	72.8684	15,999.8	68.9198	15,999.8	72.1727	15,999.8	57.0842	15,999.8	71.502	15,999.8	61.2113	15,999.8	63.8692	15,999.8	55.2394	15,999.8	62.4623	15,999.8	48.9622	15,999.8	60.0711	15,999.8	48.4028	15,999.8	53.8823	15,999.8	42.0518	15,999.8	54.8922	15,999.8	43.6208	15,999.8	51.5262	15,999.8	49.1034	15,999.8	54.0953	15,999.8	49.127	15,999.8	50.6627	15,999.8	41.882	15,999.8	47.2421	15,999.8	39.7003	15,999.8	33.8023	15,999.8	44.3327	15,999.8	36.1779	15,999.8	46.8793	15,999.8	48.3539	15,999.8	48.7951
16,564.5	80.4901	16,564.5	77.1358	16,564.5	79.2774	16,564.5	73.8521	16,564.5	77.2415	16,564.5	68.7564	16,564.5	71.8041	16,564.5	67.8105	16,564.5	71.1541	16,564.5	64.036	16,564.5	71.86	16,564.5	59.6483	16,564.5	65.6344	16,564.5	54.5056	16,564.5	62.1374	16,564.5	39.3858	16,564.5	57.9608	16,564.5	48.7347	16,564.5	53.322	16,564.5	42.481	16,564.5	50.7765	16,564.5	50.7393	16,564.5	51.2369	16,564.5	50.1478	16,564.5	53.303	16,564.5	49.7536	16,564.5	49.6872	16,564.5	38.6392	16,564.5	45.3091	16,564.5	32.6895	16,564.5	32.0853	16,564.5	41.406	16,564.5	33.8789	16,564.5	47.0355	16,564.5	47.7895	16,564.5	47.3892
17,148.2	79.937	17,148.2	76.194	17,148.2	78.4958	17,148.2	71.4501	17,148.2	77.6882	17,148.2	69.8454	17,148.2	71.9808	17,148.2	70.1644	17,148.2	70.3388	17,148.2	67.4283	17,148.2	71.5015	17,148.2	58.4925	17,148.2	66.5571	17,148.2	55.9475	17,148.2	60.0496	17,148.2	54.1166	17,148.2	51.7716	17,148.2	50.7054	17,148.2	55.303	17,148.2	52.1688	17,148.2	31.9183	17,148.2	54.0694	17,148.2	54.0795	17,148.2	52.017	17,148.2	52.4944	17,148.2	52.753	17,148.2	48.0161	17,148.2	42.7315	17,148.2	44.3645	17,148.2	34.9417	17,148.2	28.6915	17,148.2	27.2771	17,148.2	39.0323	17,148.2	46.8927	17,148.2	49.0997	17,148.2	48.9192
17,753.2	79.3962	17,753.2	75.6596	17,753.2	78.3593	17,753.2	71.2301	17,753.2	76.3796	17,753.2	71.5216	17,753.2	72.2929	17,753.2	68.7717	17,753.2	70.338	17,753.2	66.3022	17,753.2	68.9035	17,753.2	57.8936	17,753.2	64.9799	17,753.2	55.231	17,753.2	56.0451	17,753.2	57.8253	17,753.2	50.4602	17,753.2	50.0324	17,753.2	57.6159	17,753.2	54.2216	17,753.2	50.6347	17,753.2	52.9195	17,753.2	53.9363	17,753.2	49.6111	17,753.2	47.0455	17,753.2	52.38	17,753.2	44.4012	17,753.2	43.5468	17,753.2	43.2064	17,753.2	36.2917	17,753.2	27.7686	17,753.2	35.8142	17,753.2	40.3732	17,753.2	43.7799	17,753.2	48.6359	17,753.2	46.8468
18,379.4	75.9968	18,379.4	75.434	18,379.4	75.0255	18,379.4	73.1453	18,379.4	74.361	18,379.4	71.626	18,379.4	72.8466	18,379.4	68.6237	18,379.4	70.2831	18,379.4	65.8576	18,379.4	67.0775	18,379.4	60.1006	18,379.4	63.0617	18,379.4	55.3781	18,379.4	57.1022	18,379.4	57.2535	18,379.4	55.9759	18,379.4	48.6888	18,379.4	56.0838	18,379.4	52.2332	18,379.4	49.1175	18,379.4	47.8194	18,379.4	49.4185	18,379.4	44.8288	18,379.4	38.1702	18,379.4	48.3389	18,379.4	40.3356	18,379.4	39.0519	18,379.4	42.3889	18,379.4	37.5974	18,379.4	33.9477	18,379.4	42.1862	18,379.4	40.4015	18,379.4	46.2931	18,379.4	45.0917	18,379.4	38.3379
19,027.6	73.9574	19,027.6	73.7762	19,027.6	72.668	19,027.6	71.603	19,027.6	72.6107	19,027.6	70.5964	19,027.6	70.7409	19,027.6	68.1541	19,027.6	69.323	19,027.6	64.6773	19,027.6	67.4734	19,027.6	59.9595	19,027.6	62.4069	19,027.6	53.8557	19,027.6	60.2184	19,027.6	53.0381	19,027.6	52.487	19,027.6	43.1824	19,027.6	51.5344	19,027.6	47.2364	19,027.6	44.2267	19,027.6	42.566	19,027.6	43.2	19,027.6	41.681	19,027.6	38.1867	19,027.6	47.1787	19,027.6	35.6883	19,027.6	39.1928	19,027.6	41.4682	19,027.6	39.7357	19,027.6	31.6905	19,027.6	41.5616	19,027.6	36.7235	19,027.6	46.274	19,027.6	44.5997	19,027.6	34.2268
19,698.5	74.8786	19,698.5	72.5725	19,698.5	73.6761	19,698.5	70.989	19,698.5	71.5662	19,698.5	70.1258	19,698.5	70.456	19,698.5	66.9114	19,698.5	68.8309	19,698.5	62.9423	19,698.5	66.5184	19,698.5	60.032	19,698.5	60.2234	19,698.5	34.7795	19,698.5	60.3249	19,698.5	47.2484	19,698.5	41.4791	19,698.5	44.5161	19,698.5	37.936	19,698.5	45.0255	19,698.5	48.1962	19,698.5	35.8961	19,698.5	34.8608	19,698.5	38.9001	19,698.5	45.0276	19,698.5	48.801	19,698.5	41.1299	19,698.5	42.5181	19,698.5	39.6274	19,698.5	40.7611	19,698.5	25.089	19,698.5	41.4825	19,698.5	37.6878	19,698.5	48.5701	19,698.5	42.4159	19,698.5	39.0168
19,999.5	75.9009	19,999.5	73.2349	19,999.5	75.0383	19,999.5	70.9765	19,999.5	72.017	19,999.5	69.4779	19,999.5	70.0417	19,999.5	66.5623	19,999.5	67.2826	19,999.5	63.2182	19,999.5	64.6518	19,999.5	60.5329	19,999.5	59.5828	19,999.5	45.2713	19,999.5	59.5216	19,999.5	46.4931	19,999.5	48.5744	19,999.5	48.1107	19,999.5	41.7435	19,999.5	45.6533	19,999.5	49.3988	19,999.5	30.669	19,999.5	19.6025	19,999.5	37.5169	19,999.5	46.2003	19,999.5	48.647	19,999.5	43.4966	19,999.5	43.8799	19,999.5	42.8527	19,999.5	40.3992	19,999.5	38.7243	19,999.5	40.6071	19,999.5	34.4359	19,999.5	49.2916	19,999.5	41.6163	19,999.5	40.5187
