"SPL Vertical"																																																																							
"On-Axis"		"10°"		"-10°"		"20°"		"-20°"		"30°"		"-30°"		"40°"		"-40°"		"50°"		"-50°"		"60°"		"-60°"		"70°"		"-70°"		"80°"		"-80°"		"90°"		"-90°"		"100°"		"-100°"		"110°"		"-110°"		"120°"		"-120°"		"130°"		"-130°"		"140°"		"-140°"		"150°"		"-150°"		"160°"		"-160°"		"170°"		"-170°"		"180°"	
"Frequency [Hz]"	"Sound Pessure Level [dB]  / [2.83V 1m] "	"Frequency [Hz]"	"Sound Pessure Level [dB]  / [2.83V 1m] "	"Frequency [Hz]"	"Sound Pessure Level [dB]  / [2.83V 1m] "	"Frequency [Hz]"	"Sound Pessure Level [dB]  / [2.83V 1m] "	"Frequency [Hz]"	"Sound Pessure Level [dB]  / [2.83V 1m] "	"Frequency [Hz]"	"Sound Pessure Level [dB]  / [2.83V 1m] "	"Frequency [Hz]"	"Sound Pessure Level [dB]  / [2.83V 1m] "	"Frequency [Hz]"	"Sound Pessure Level [dB]  / [2.83V 1m] "	"Frequency [Hz]"	"Sound Pessure Level [dB]  / [2.83V 1m] "	"Frequency [Hz]"	"Sound Pessure Level [dB]  / [2.83V 1m] "	"Frequency [Hz]"	"Sound Pessure Level [dB]  / [2.83V 1m] "	"Frequency [Hz]"	"Sound Pessure Level [dB]  / [2.83V 1m] "	"Frequency [Hz]"	"Sound Pessure Level [dB]  / [2.83V 1m] "	"Frequency [Hz]"	"Sound Pessure Level [dB]  / [2.83V 1m] "	"Frequency [Hz]"	"Sound Pessure Level [dB]  / [2.83V 1m] "	"Frequency [Hz]"	"Sound Pessure Level [dB]  / [2.83V 1m] "	"Frequency [Hz]"	"Sound Pessure Level [dB]  / [2.83V 1m] "	"Frequency [Hz]"	"Sound Pessure Level [dB]  / [2.83V 1m] "	"Frequency [Hz]"	"Sound Pessure Level [dB]  / [2.83V 1m] "	"Frequency [Hz]"	"Sound Pessure Level [dB]  / [2.83V 1m] "	"Frequency [Hz]"	"Sound Pessure Level [dB]  / [2.83V 1m] "	"Frequency [Hz]"	"Sound Pessure Level [dB]  / [2.83V 1m] "	"Frequency [Hz]"	"Sound Pessure Level [dB]  / [2.83V 1m] "	"Frequency [Hz]"	"Sound Pessure Level [dB]  / [2.83V 1m] "	"Frequency [Hz]"	"Sound Pessure Level [dB]  / [2.83V 1m] "	"Frequency [Hz]"	"Sound Pessure Level [dB]  / [2.83V 1m] "	"Frequency [Hz]"	"Sound Pessure Level [dB]  / [2.83V 1m] "	"Frequency [Hz]"	"Sound Pessure Level [dB]  / [2.83V 1m] "	"Frequency [Hz]"	"Sound Pessure Level [dB]  / [2.83V 1m] "	"Frequency [Hz]"	"Sound Pessure Level [dB]  / [2.83V 1m] "	"Frequency [Hz]"	"Sound Pessure Level [dB]  / [2.83V 1m] "	"Frequency [Hz]"	"Sound Pessure Level [dB]  / [2.83V 1m] "	"Frequency [Hz]"	"Sound Pessure Level [dB]  / [2.83V 1m] "	"Frequency [Hz]"	"Sound Pessure Level [dB]  / [2.83V 1m] "	"Frequency [Hz]"	"Sound Pessure Level [dB]  / [2.83V 1m] "	"Frequency [Hz]"	"Sound Pessure Level [dB]  / [2.83V 1m] "
20.5078	57.2074	20.5078	56.9163	20.5078	57.5013	20.5078	56.6344	20.5078	57.7898	20.5078	56.3653	20.5078	58.0627	20.5078	56.1107	20.5078	58.3087	20.5078	55.871	20.5078	58.5163	20.5078	55.6458	20.5078	58.6745	20.5078	55.4353	20.5078	58.7736	20.5078	55.2407	20.5078	58.8056	20.5078	55.0657	20.5078	58.7649	20.5078	54.9162	20.5078	58.6486	20.5078	54.8009	20.5078	58.4568	20.5078	54.7308	20.5078	58.1933	20.5078	54.7184	20.5078	57.8654	20.5078	54.7755	20.5078	57.4843	20.5078	54.9111	20.5078	57.0655	20.5078	55.1284	20.5078	56.6278	20.5078	55.4233	20.5078	56.193	20.5078	55.7842
21.2402	58.4481	21.2402	58.3014	21.2402	58.6147	21.2402	58.1773	21.2402	58.7957	21.2402	58.0752	21.2402	58.9826	21.2402	57.9925	21.2402	59.1651	21.2402	57.9252	21.2402	59.3318	21.2402	57.8693	21.2402	59.4716	21.2402	57.8215	21.2402	59.5751	21.2402	57.7798	21.2402	59.6348	21.2402	57.7437	21.2402	59.6463	21.2402	57.7148	21.2402	59.6081	21.2402	57.6961	21.2402	59.5221	21.2402	57.6922	21.2402	59.3932	21.2402	57.7081	21.2402	59.2285	21.2402	57.7491	21.2402	59.0374	21.2402	57.8198	21.2402	58.8305	21.2402	57.9228	21.2402	58.6187	21.2402	58.0583	21.2402	58.4132	21.2402	58.2236
21.9727	57.2479	21.9727	57.0094	21.9727	57.5097	21.9727	56.8013	21.9727	57.7835	21.9727	56.6263	21.9727	58.0553	21.9727	56.4827	21.9727	58.3094	21.9727	56.3657	21.9727	58.5307	21.9727	56.2694	21.9727	58.7055	21.9727	56.1875	21.9727	58.8227	21.9727	56.1156	21.9727	58.8747	21.9727	56.0514	21.9727	58.8576	21.9727	55.996	21.9727	58.7713	21.9727	55.9533	21.9727	58.6198	21.9727	55.9302	21.9727	58.4106	21.9727	55.9358	21.9727	58.1539	21.9727	55.9795	21.9727	57.8626	21.9727	56.0699	21.9727	57.5511	21.9727	56.2122	21.9727	57.2348	21.9727	56.4067	21.9727	56.9291	21.9727	56.6488
22.7051	58.2454	22.7051	57.9321	22.7051	58.5673	22.7051	57.6375	22.7051	58.8857	22.7051	57.3681	22.7051	59.1869	22.7051	57.1274	22.7051	59.4567	22.7051	56.9161	22.7051	59.6819	22.7051	56.7329	22.7051	59.8503	22.7051	56.5756	22.7051	59.9522	22.7051	56.4427	22.7051	59.9804	22.7051	56.3338	22.7051	59.9312	22.7051	56.2505	22.7051	59.8042	22.7051	56.1968	22.7051	59.6031	22.7051	56.1785	22.7051	59.3355	22.7051	56.2027	22.7051	59.0127	22.7051	56.2766	22.7051	58.6493	22.7051	56.4064	22.7051	58.2626	22.7051	56.5957	22.7051	57.8713	22.7051	56.8441	22.7051	57.4936	22.7051	57.1466
23.4375	60.0904	23.4375	59.8205	23.4375	60.3674	23.4375	59.5656	23.4375	60.6416	23.4375	59.3312	23.4375	60.9015	23.4375	59.1206	23.4375	61.1352	23.4375	58.9348	23.4375	61.3313	23.4375	58.7741	23.4375	61.4791	23.4375	58.6379	23.4375	61.5702	23.4375	58.5262	23.4375	61.5985	23.4375	58.44	23.4375	61.561	23.4375	58.3813	23.4375	61.4581	23.4375	58.3533	23.4375	61.2936	23.4375	58.3598	23.4375	61.0744	23.4375	58.4049	23.4375	60.8107	23.4375	58.4924	23.4375	60.5148	23.4375	58.6245	23.4375	60.2001	23.4375	58.8017	23.4375	59.8808	23.4375	59.022	23.4375	59.5703	23.4375	59.2807
24.1699	61.209	24.1699	60.9842	24.1699	61.4431	24.1699	60.7758	24.1699	61.6774	24.1699	60.5881	24.1699	61.9013	24.1699	60.4233	24.1699	62.1033	24.1699	60.2815	24.1699	62.2722	24.1699	60.1616	24.1699	62.3976	24.1699	60.0619	24.1699	62.4711	24.1699	59.981	24.1699	62.4871	24.1699	59.9182	24.1699	62.4429	24.1699	59.8735	24.1699	62.3392	24.1699	59.8483	24.1699	62.1807	24.1699	59.8449	24.1699	61.9753	24.1699	59.8663	24.1699	61.7342	24.1699	59.9162	24.1699	61.4703	24.1699	59.998	24.1699	61.198	24.1699	60.1149	24.1699	60.9308	24.1699	60.2683	24.1699	60.6811	24.1699	60.4581
25.6348	62.9899	25.6348	62.7745	25.6348	63.2112	25.6348	62.5712	25.6348	63.4304	25.6348	62.3843	25.6348	63.6382	25.6348	62.2163	25.6348	63.8249	25.6348	62.0679	25.6348	63.9806	25.6348	61.9389	25.6348	64.0963	25.6348	61.8285	25.6348	64.1645	25.6348	61.7362	25.6348	64.1799	25.6348	61.6616	25.6348	64.1396	25.6348	61.6057	25.6348	64.0437	25.6348	61.5702	25.6348	63.8955	25.6348	61.5583	25.6348	63.7012	25.6348	61.5738	25.6348	63.4699	25.6348	61.6212	25.6348	63.2131	25.6348	61.7044	25.6348	62.9435	25.6348	61.8263	25.6348	62.6744	25.6348	61.9878	25.6348	62.4186	25.6348	62.187
26.3672	63.8093	26.3672	63.5968	26.3672	64.0253	26.3672	63.394	26.3672	64.2369	26.3672	63.2053	26.3672	64.4355	26.3672	63.0336	26.3672	64.6115	26.3672	62.8802	26.3672	64.7559	26.3672	62.7456	26.3672	64.86	26.3672	62.6299	26.3672	64.9172	26.3672	62.5331	26.3672	64.9227	26.3672	62.4557	26.3672	64.8744	26.3672	62.3987	26.3672	64.7732	26.3672	62.3644	26.3672	64.6232	26.3672	62.3554	26.3672	64.4311	26.3672	62.375	26.3672	64.2061	26.3672	62.4264	26.3672	63.9594	26.3672	62.5125	26.3672	63.7026	26.3672	62.6346	26.3672	63.4476	26.3672	62.7928	26.3672	63.2052	26.3672	62.9845
27.0996	65.0191	27.0996	64.8301	27.0996	65.212	27.0996	64.6504	27.0996	65.4021	27.0996	64.4839	27.0996	65.5813	27.0996	64.3328	27.0996	65.7409	27.0996	64.1982	27.0996	65.8724	27.0996	64.0802	27.0996	65.9678	27.0996	63.9786	27.0996	66.0204	27.0996	63.8934	27.0996	66.0256	27.0996	63.8249	27.0996	65.9812	27.0996	63.7739	27.0996	65.888	27.0996	63.7421	27.0996	65.7495	27.0996	63.7318	27.0996	65.5722	27.0996	63.7457	27.0996	65.365	27.0996	63.7869	27.0996	65.1387	27.0996	63.8579	27.0996	64.9047	27.0996	63.9608	27.0996	64.6743	27.0996	64.0962	27.0996	64.4576	27.0996	64.263
27.832	65.5866	27.832	65.3996	27.832	65.7752	27.832	65.2196	27.832	65.9588	27.832	65.0507	27.832	66.1297	27.832	64.8954	27.832	66.2796	27.832	64.7555	27.832	66.4006	27.832	64.6317	27.832	66.4852	27.832	64.5246	27.832	66.5274	27.832	64.4347	27.832	66.5233	27.832	64.3628	27.832	66.4715	27.832	64.3102	27.832	66.3731	27.832	64.2783	27.832	66.2325	27.832	64.2694	27.832	66.0564	27.832	64.2855	27.832	65.8538	27.832	64.3288	27.832	65.6348	27.832	64.4012	27.832	65.4102	27.832	64.5035	27.832	65.1901	27.832	64.6359	27.832	64.9833	27.832	64.7968
29.2969	67.4911	29.2969	67.3293	29.2969	67.6528	29.2969	67.1719	29.2969	67.8087	29.2969	67.0224	29.2969	67.9522	29.2969	66.883	29.2969	68.0761	29.2969	66.7552	29.2969	68.1735	29.2969	66.6397	29.2969	68.2378	29.2969	66.537	29.2969	68.2637	29.2969	66.4476	29.2969	68.2477	29.2969	66.372	29.2969	68.1884	29.2969	66.3115	29.2969	68.0873	29.2969	66.2677	29.2969	67.9484	29.2969	66.2426	29.2969	67.7782	29.2969	66.2389	29.2969	67.5852	29.2969	66.2593	29.2969	67.3794	29.2969	66.3064	29.2969	67.1712	29.2969	66.3823	29.2969	66.9704	29.2969	66.4881	29.2969	66.7856	29.2969	66.6233
30.0293	68.3082	30.0293	68.1588	30.0293	68.4577	30.0293	68.0139	30.0293	68.6021	30.0293	67.8765	30.0293	68.7354	30.0293	67.7488	30.0293	68.8508	30.0293	67.632	30.0293	68.9418	30.0293	67.5267	30.0293	69.0022	30.0293	67.4335	30.0293	69.0273	30.0293	67.3527	30.0293	69.0138	30.0293	67.2849	30.0293	68.9606	30.0293	67.2311	30.0293	68.8691	30.0293	67.1928	30.0293	68.7431	30.0293	67.1721	30.0293	68.5886	30.0293	67.1712	30.0293	68.4135	30.0293	67.1927	30.0293	68.2267	30.0293	67.2386	30.0293	68.0374	30.0293	67.3109	30.0293	67.8543	30.0293	67.4101	30.0293	67.6851	30.0293	67.5356
31.4941	69.754	31.4941	69.6206	31.4941	69.8862	31.4941	69.4899	31.4941	70.0126	31.4941	69.3649	31.4941	70.1276	31.4941	69.2476	31.4941	70.2253	31.4941	69.1393	31.4941	70.2997	31.4941	69.0409	31.4941	70.3456	31.4941	68.9529	31.4941	70.3586	31.4941	68.8759	31.4941	70.3363	31.4941	68.8107	31.4941	70.2779	31.4941	68.7582	31.4941	70.1855	31.4941	68.7196	31.4941	70.063	31.4941	68.6967	31.4941	69.9169	31.4941	68.6913	31.4941	69.7547	31.4941	68.7052	31.4941	69.585	31.4941	68.7403	31.4941	69.4163	31.4941	68.798	31.4941	69.256	31.4941	68.8792	31.4941	69.1103	31.4941	68.9838
32.2266	70.4492	32.2266	70.3228	32.2266	70.574	32.2266	70.1986	32.2266	70.6929	32.2266	70.0795	32.2266	70.8007	32.2266	69.9675	32.2266	70.8921	32.2266	69.8641	32.2266	70.9617	32.2266	69.7703	32.2266	71.0047	32.2266	69.6869	32.2266	71.0173	32.2266	69.6148	32.2266	70.9973	32.2266	69.5546	32.2266	70.9442	32.2266	69.5074	32.2266	70.8598	32.2266	69.4745	32.2266	70.7481	32.2266	69.457	32.2266	70.6145	32.2266	69.4566	32.2266	70.4661	32.2266	69.4746	32.2266	70.3105	32.2266	69.5124	32.2266	70.1551	32.2266	69.5709	32.2266	70.0065	32.2266	69.6505	32.2266	69.8704	32.2266	69.7508
33.6914	71.7909	33.6914	71.6738	33.6914	71.905	33.6914	71.5571	33.6914	72.012	33.6914	71.4436	33.6914	72.1073	33.6914	71.3356	33.6914	72.1859	33.6914	71.2346	33.6914	72.2433	33.6914	71.1419	33.6914	72.275	33.6914	71.0587	33.6914	72.278	33.6914	70.9858	33.6914	72.2504	33.6914	70.9243	33.6914	72.1924	33.6914	70.8753	33.6914	72.1058	33.6914	70.8397	33.6914	71.9949	33.6914	70.8189	33.6914	71.8652	33.6914	70.8141	33.6914	71.7235	33.6914	70.8265	33.6914	71.577	33.6914	70.8572	33.6914	71.4326	33.6914	70.9071	33.6914	71.2962	33.6914	70.9766	33.6914	71.1727	33.6914	71.0655
34.4238	72.3527	34.4238	72.2424	34.4238	72.4594	34.4238	72.1317	34.4238	72.5584	34.4238	72.0233	34.4238	72.6455	34.4238	71.9193	34.4238	72.7162	34.4238	71.8214	34.4238	72.7659	34.4238	71.7308	34.4238	72.7909	34.4238	71.6486	34.4238	72.7881	34.4238	71.5758	34.4238	72.756	34.4238	71.5134	34.4238	72.695	34.4238	71.4623	34.4238	72.6072	34.4238	71.4237	34.4238	72.4966	34.4238	71.3987	34.4238	72.3689	34.4238	71.3888	34.4238	72.2307	34.4238	71.3952	34.4238	72.089	34.4238	71.4192	34.4238	71.9504	34.4238	71.4618	34.4238	71.8207	34.4238	71.5236	34.4238	71.7045	34.4238	71.6048
35.8887	73.3826	35.8887	73.2804	35.8887	73.48	35.8887	73.1767	35.8887	73.5691	35.8887	73.074	35.8887	73.646	35.8887	72.9745	35.8887	73.7066	35.8887	72.88	35.8887	73.747	35.8887	72.7921	35.8887	73.7639	35.8887	72.7118	35.8887	73.755	35.8887	72.6405	35.8887	73.7192	35.8887	72.5792	35.8887	73.6571	35.8887	72.5289	35.8887	73.5712	35.8887	72.4908	35.8887	73.4656	35.8887	72.4661	35.8887	73.3457	35.8887	72.4557	35.8887	73.2176	35.8887	72.4607	35.8887	73.0876	35.8887	72.4821	35.8887	72.9616	35.8887	72.5206	35.8887	72.8442	35.8887	72.5765	35.8887	72.7394	35.8887	72.6496
37.3535	74.3372	37.3535	74.243	37.3535	74.4258	37.3535	74.146	37.3535	74.5052	37.3535	74.0489	37.3535	74.5721	37.3535	73.9538	37.3535	74.6227	37.3535	73.8627	37.3535	74.6538	37.3535	73.7772	37.3535	74.6625	37.3535	73.6987	37.3535	74.6469	37.3535	73.6285	37.3535	74.6065	37.3535	73.5679	37.3535	74.5423	37.3535	73.5178	37.3535	74.4569	37.3535	73.4794	37.3535	74.3544	37.3535	73.4536	37.3535	74.2402	37.3535	73.4414	37.3535	74.12	37.3535	73.4434	37.3535	73.9997	37.3535	73.4605	37.3535	73.8845	37.3535	73.493	37.3535	73.7785	37.3535	73.5413	37.3535	73.6848	37.3535	73.6054
38.8184	75.092	38.8184	75.0039	38.8184	75.1737	38.8184	74.9123	38.8184	75.2459	38.8184	74.8198	38.8184	75.3055	38.8184	74.7286	38.8184	75.3494	38.8184	74.6409	38.8184	75.3745	38.8184	74.5583	38.8184	75.3787	38.8184	74.4827	38.8184	75.3606	38.8184	74.4153	38.8184	75.32	38.8184	74.3576	38.8184	75.258	38.8184	74.3106	38.8184	75.1774	38.8184	74.2753	38.8184	75.0822	38.8184	74.2524	38.8184	74.9772	38.8184	74.2426	38.8184	74.8675	38.8184	74.2463	38.8184	74.7584	38.8184	74.2639	38.8184	74.6541	38.8184	74.2955	38.8184	74.5582	38.8184	74.341	38.8184	74.4731	38.8184	74.4004
39.5508	75.417	39.5508	75.3333	39.5508	75.4935	39.5508	75.2453	39.5508	75.5601	39.5508	75.1555	39.5508	75.6135	39.5508	75.0662	39.5508	75.6509	39.5508	74.9794	39.5508	75.6696	39.5508	74.897	39.5508	75.6674	39.5508	74.8207	39.5508	75.6432	39.5508	74.7519	39.5508	75.5972	39.5508	74.6918	39.5508	75.5306	39.5508	74.6418	39.5508	75.4464	39.5508	74.6027	39.5508	75.3487	39.5508	74.5753	39.5508	75.2426	39.5508	74.5603	39.5508	75.1332	39.5508	74.5582	39.5508	75.0257	39.5508	74.5695	39.5508	74.9245	39.5508	74.5944	39.5508	74.8327	39.5508	74.6333	39.5508	74.7529	39.5508	74.6862
41.0156	76.0919	41.0156	76.0192	41.0156	76.1574	41.0156	75.9421	41.0156	76.2133	41.0156	75.8629	41.0156	76.2567	41.0156	75.7838	41.0156	76.2852	41.0156	75.7067	41.0156	76.2965	41.0156	75.6335	41.0156	76.2891	41.0156	75.5659	41.0156	76.2623	41.0156	75.5051	41.0156	76.2164	41.0156	75.4525	41.0156	76.1534	41.0156	75.4089	41.0156	76.0761	41.0156	75.3751	41.0156	75.9886	41.0156	75.3516	41.0156	75.8957	41.0156	75.3387	41.0156	75.8019	41.0156	75.3365	41.0156	75.7116	41.0156	75.3452	41.0156	75.6281	41.0156	75.3648	41.0156	75.5537	41.0156	75.3953	41.0156	75.4898	41.0156	75.437
42.4805	76.3915	42.4805	76.3145	42.4805	76.4608	42.4805	76.2324	42.4805	76.5196	42.4805	76.1476	42.4805	76.5655	42.4805	76.0628	42.4805	76.5959	42.4805	75.9801	42.4805	76.609	42.4805	75.9018	42.4805	76.6033	42.4805	75.8299	42.4805	76.5784	42.4805	75.7661	42.4805	76.5347	42.4805	75.7119	42.4805	76.4741	42.4805	75.6684	42.4805	76.3992	42.4805	75.6367	42.4805	76.314	42.4805	75.617	42.4805	76.2226	42.4805	75.6096	42.4805	76.1296	42.4805	75.6143	42.4805	76.0387	42.4805	75.6307	42.4805	75.9531	42.4805	75.6586	42.4805	75.875	42.4805	75.6973	42.4805	75.8059	42.4805	75.7465
43.9453	76.8731	43.9453	76.8019	43.9453	76.935	43.9453	76.724	43.9453	76.9855	43.9453	76.6416	43.9453	77.0221	43.9453	76.5572	43.9453	77.043	43.9453	76.473	43.9453	77.0466	43.9453	76.3912	43.9453	77.0318	43.9453	76.314	43.9453	76.9986	43.9453	76.2432	43.9453	76.9476	43.9453	76.1806	43.9453	76.8809	43.9453	76.1277	43.9453	76.8012	43.9453	76.0858	43.9453	76.7123	43.9453	76.0557	43.9453	76.6182	43.9453	76.038	43.9453	76.5233	43.9453	76.0332	43.9453	76.4311	43.9453	76.0413	43.9453	76.3449	43.9453	76.0623	43.9453	76.2668	43.9453	76.0957	43.9453	76.1986	43.9453	76.1414
45.4102	77.1767	45.4102	77.11	45.4102	77.2333	45.4102	77.0358	45.4102	77.2778	45.4102	76.9562	45.4102	77.3081	45.4102	76.8736	45.4102	77.3224	45.4102	76.7904	45.4102	77.3195	45.4102	76.7089	45.4102	77.2986	45.4102	76.6311	45.4102	77.2601	45.4102	76.5592	45.4102	77.2049	45.4102	76.4949	45.4102	77.1353	45.4102	76.4399	45.4102	77.0543	45.4102	76.3954	45.4102	76.9658	45.4102	76.3624	45.4102	76.8738	45.4102	76.3417	45.4102	76.7823	45.4102	76.3336	45.4102	76.6946	45.4102	76.3382	45.4102	76.6135	45.4102	76.3553	45.4102	76.5408	45.4102	76.3846	45.4102	76.4779	45.4102	76.4256
47.6074	77.6179	47.6074	77.5574	47.6074	77.6678	47.6074	77.4885	47.6074	77.7051	47.6074	77.4136	47.6074	77.728	47.6074	77.3351	47.6074	77.7351	47.6074	77.2553	47.6074	77.7255	47.6074	77.1767	47.6074	77.699	47.6074	77.1014	47.6074	77.6562	47.6074	77.0316	47.6074	77.5985	47.6074	76.9691	47.6074	77.5285	47.6074	76.9155	47.6074	77.4493	47.6074	76.872	47.6074	77.3648	47.6074	76.8395	47.6074	77.2788	47.6074	76.8184	47.6074	77.1948	47.6074	76.8088	47.6074	77.1159	47.6074	76.8108	47.6074	77.044	47.6074	76.824	47.6074	76.9807	47.6074	76.8479	47.6074	76.9266	47.6074	76.8823
49.0723	77.8572	49.0723	77.8	49.0723	77.9032	49.0723	77.7337	49.0723	77.936	49.0723	77.6607	49.0723	77.954	49.0723	77.5835	49.0723	77.9559	49.0723	77.5045	49.0723	77.941	49.0723	77.4262	49.0723	77.9095	49.0723	77.3509	49.0723	77.8622	49.0723	77.2809	49.0723	77.8009	49.0723	77.2179	49.0723	77.7283	49.0723	77.1636	49.0723	77.6478	49.0723	77.1192	49.0723	77.5633	49.0723	77.0853	49.0723	77.4786	49.0723	77.0625	49.0723	77.3973	49.0723	77.0507	49.0723	77.3222	49.0723	77.0498	49.0723	77.2549	49.0723	77.0594	49.0723	77.1967	49.0723	77.0791	49.0723	77.1479	49.0723	77.1087
50.5371	78.077	50.5371	78.0216	50.5371	78.1205	50.5371	77.9564	50.5371	78.1503	50.5371	77.8836	50.5371	78.1647	50.5371	77.8059	50.5371	78.1628	50.5371	77.7256	50.5371	78.1441	50.5371	77.6454	50.5371	78.1088	50.5371	77.5676	50.5371	78.058	50.5371	77.4947	50.5371	77.9936	50.5371	77.4285	50.5371	77.9184	50.5371	77.3707	50.5371	77.8359	50.5371	77.3227	50.5371	77.7498	50.5371	77.2854	50.5371	77.664	50.5371	77.2593	50.5371	77.582	50.5371	77.2445	50.5371	77.5063	50.5371	77.2408	50.5371	77.4389	50.5371	77.2481	50.5371	77.3808	50.5371	77.266	50.5371	77.3325	50.5371	77.2942
52.7344	78.3598	52.7344	78.3091	52.7344	78.3982	52.7344	78.2481	52.7344	78.4226	52.7344	78.1792	52.7344	78.4316	52.7344	78.1048	52.7344	78.4246	52.7344	78.0276	52.7344	78.4014	52.7344	77.9502	52.7344	78.3625	52.7344	77.8751	52.7344	78.3096	52.7344	77.8048	52.7344	78.2448	52.7344	77.7412	52.7344	78.1712	52.7344	77.6861	52.7344	78.0923	52.7344	77.6407	52.7344	78.0118	52.7344	77.6058	52.7344	77.9334	52.7344	77.5817	52.7344	77.8599	52.7344	77.5682	52.7344	77.7933	52.7344	77.565	52.7344	77.7349	52.7344	77.5714	52.7344	77.6851	52.7344	77.587	52.7344	77.6439	52.7344	77.6112
54.1992	78.5542	54.1992	78.5046	54.1992	78.5911	54.1992	78.4443	54.1992	78.6136	54.1992	78.3756	54.1992	78.6204	54.1992	78.3011	54.1992	78.611	54.1992	78.2234	54.1992	78.5853	54.1992	78.1452	54.1992	78.5441	54.1992	78.0692	54.1992	78.4889	54.1992	77.9977	54.1992	78.4222	54.1992	77.9329	54.1992	78.347	54.1992	77.8764	54.1992	78.267	54.1992	77.8296	54.1992	78.1859	54.1992	77.7931	54.1992	78.1072	54.1992	77.7674	54.1992	78.0337	54.1992	77.7523	54.1992	77.9674	54.1992	77.7474	54.1992	77.9096	54.1992	77.7522	54.1992	77.8607	54.1992	77.7663	54.1992	77.8205	54.1992	77.7891
56.3965	78.7905	56.3965	78.7459	56.3965	78.8225	56.3965	78.6905	56.3965	78.8403	56.3965	78.6266	56.3965	78.843	56.3965	78.5569	56.3965	78.8302	56.3965	78.484	56.3965	78.8022	56.3965	78.4106	56.3965	78.7601	56.3965	78.3393	56.3965	78.7057	56.3965	78.2726	56.3965	78.6417	56.3965	78.2124	56.3965	78.5712	56.3965	78.1606	56.3965	78.4977	56.3965	78.118	56.3965	78.4246	56.3965	78.0855	56.3965	78.3549	56.3965	78.063	56.3965	78.291	56.3965	78.0502	56.3965	78.2343	56.3965	78.0466	56.3965	78.1853	56.3965	78.0514	56.3965	78.1441	56.3965	78.0639	56.3965	78.1103	56.3965	78.0836
58.5938	79.0871	58.5938	79.0423	58.5938	79.1192	58.5938	78.9869	58.5938	79.1372	58.5938	78.923	58.5938	79.1404	58.5938	78.8534	58.5938	79.1286	58.5938	78.7808	58.5938	79.1023	58.5938	78.7082	58.5938	79.0629	58.5938	78.6384	58.5938	79.0122	58.5938	78.5739	58.5938	78.9531	58.5938	78.517	58.5938	78.8885	58.5938	78.4692	58.5938	78.8215	58.5938	78.4317	58.5938	78.7554	58.5938	78.4048	58.5938	78.6925	58.5938	78.3885	58.5938	78.6347	58.5938	78.3821	58.5938	78.5829	58.5938	78.3847	58.5938	78.5374	58.5938	78.3951	58.5938	78.4978	58.5938	78.4123	58.5938	78.4639	58.5938	78.4354
60.0586	79.1492	60.0586	79.106	60.0586	79.1792	60.0586	79.0514	60.0586	79.1946	60.0586	78.9877	60.0586	79.195	60.0586	78.9176	60.0586	79.1804	60.0586	78.8442	60.0586	79.1516	60.0586	78.7704	60.0586	79.1104	60.0586	78.6995	60.0586	79.0591	60.0586	78.634	60.0586	79.0006	60.0586	78.5766	60.0586	78.938	60.0586	78.5289	60.0586	78.8746	60.0586	78.4923	60.0586	78.8131	60.0586	78.4672	60.0586	78.7556	60.0586	78.4534	60.0586	78.7033	60.0586	78.4502	60.0586	78.6564	60.0586	78.4562	60.0586	78.6147	60.0586	78.47	60.0586	78.5776	60.0586	78.4901	60.0586	78.5445	60.0586	78.5152
62.2559	79.3829	62.2559	79.3426	62.2559	79.4082	62.2559	79.2892	62.2559	79.4172	62.2559	79.2249	62.2559	79.4094	62.2559	79.1527	62.2559	79.385	62.2559	79.0757	62.2559	79.3452	62.2559	78.9969	62.2559	79.2918	62.2559	78.9197	62.2559	79.2278	62.2559	78.847	62.2559	79.1564	62.2559	78.7814	62.2559	79.0815	62.2559	78.725	62.2559	79.0069	62.2559	78.6791	62.2559	78.936	62.2559	78.6445	62.2559	78.8713	62.2559	78.6212	62.2559	78.8145	62.2559	78.6084	62.2559	78.7659	62.2559	78.6052	62.2559	78.7249	62.2559	78.6101	62.2559	78.6908	62.2559	78.622	62.2559	78.6626	62.2559	78.6397
64.4531	79.6342	64.4531	79.596	64.4531	79.6565	64.4531	79.5439	64.4531	79.662	64.4531	79.4801	64.4531	79.6502	64.4531	79.4076	64.4531	79.6218	64.4531	79.3295	64.4531	79.578	64.4531	79.2493	64.4531	79.5213	64.4531	79.1703	64.4531	79.4546	64.4531	79.0957	64.4531	79.3817	64.4531	79.0284	64.4531	79.3065	64.4531	78.9705	64.4531	79.2329	64.4531	78.9235	64.4531	79.1639	64.4531	78.8883	64.4531	79.102	64.4531	78.8649	64.4531	79.0483	64.4531	78.8523	64.4531	79.0028	64.4531	78.8496	64.4531	78.9648	64.4531	78.8549	64.4531	78.933	64.4531	78.867	64.4531	78.9064	64.4531	78.8844
66.6504	79.8432	66.6504	79.8058	66.6504	79.8636	66.6504	79.7533	66.6504	79.8662	66.6504	79.6879	66.6504	79.8508	66.6504	79.6127	66.6504	79.8181	66.6504	79.5309	66.6504	79.7701	66.6504	79.4461	66.6504	79.7091	66.6504	79.362	66.6504	79.6388	66.6504	79.282	66.6504	79.5631	66.6504	79.2093	66.6504	79.486	66.6504	79.1464	66.6504	79.4114	66.6504	79.0953	66.6504	79.3423	66.6504	79.0569	66.6504	79.2809	66.6504	79.0315	66.6504	79.2277	66.6504	79.0184	66.6504	79.1824	66.6504	79.0163	66.6504	79.144	66.6504	79.0234	66.6504	79.111	66.6504	79.0378	66.6504	79.0824	66.6504	79.0578
69.5801	80.1779	69.5801	80.1441	69.5801	80.1942	69.5801	80.0946	69.5801	80.1922	69.5801	80.0316	69.5801	80.1717	69.5801	79.9582	69.5801	80.1336	69.5801	79.8774	69.5801	80.0796	69.5801	79.7927	69.5801	80.0126	69.5801	79.7077	69.5801	79.9361	69.5801	79.6256	69.5801	79.8544	69.5801	79.5496	69.5801	79.7717	69.5801	79.4821	69.5801	79.6922	69.5801	79.4252	69.5801	79.6192	69.5801	79.3801	69.5801	79.5548	69.5801	79.3473	69.5801	79.5	69.5801	79.3264	69.5801	79.4542	69.5801	79.3167	69.5801	79.4165	69.5801	79.3167	69.5801	79.3854	69.5801	79.3248	69.5801	79.3599	69.5801	79.3396
71.7773	80.3552	71.7773	80.3227	71.7773	80.3704	71.7773	80.2745	71.7773	80.3672	71.7773	80.213	71.7773	80.3457	71.7773	80.1415	71.7773	80.3069	71.7773	80.0632	71.7773	80.2529	71.7773	79.9818	71.7773	80.1867	71.7773	79.9012	71.7773	80.1121	71.7773	79.8247	71.7773	80.0337	71.7773	79.7555	71.7773	79.9557	71.7773	79.6959	71.7773	79.8825	71.7773	79.6477	71.7773	79.8172	71.7773	79.6114	71.7773	79.7617	71.7773	79.5872	71.7773	79.7164	71.7773	79.5738	71.7773	79.6805	71.7773	79.5698	71.7773	79.6522	71.7773	79.5733	71.7773	79.6295	71.7773	79.5822	71.7773	79.6108	71.7773	79.595
73.9746	80.6238	73.9746	80.5933	73.9746	80.636	73.9746	80.5462	73.9746	80.6292	73.9746	80.4849	73.9746	80.6034	73.9746	80.4125	73.9746	80.5601	73.9746	80.3324	73.9746	80.5015	73.9746	80.2485	73.9746	80.4309	73.9746	80.1647	73.9746	80.3524	73.9746	80.0844	73.9746	80.2708	73.9746	80.0111	73.9746	80.1905	73.9746	79.9473	73.9746	80.1158	73.9746	79.895	73.9746	80.0497	73.9746	79.8549	73.9746	79.9939	73.9746	79.8272	73.9746	79.9487	73.9746	79.8111	73.9746	79.913	73.9746	79.805	73.9746	79.8848	73.9746	79.807	73.9746	79.8621	73.9746	79.8151	73.9746	79.8433	73.9746	79.8275
76.9043	80.8758	76.9043	80.8471	76.9043	80.886	76.9043	80.8016	76.9043	80.877	76.9043	80.742	76.9043	80.8491	76.9043	80.6714	76.9043	80.8036	76.9043	80.5934	76.9043	80.7431	76.9043	80.5121	76.9043	80.6712	76.9043	80.4313	76.9043	80.5921	76.9043	80.3548	76.9043	80.5109	76.9043	80.2857	76.9043	80.4322	76.9043	80.2265	76.9043	80.3603	76.9043	80.1787	76.9043	80.2982	76.9043	80.1429	76.9043	80.2474	76.9043	80.1187	76.9043	80.208	76.9043	80.1049	76.9043	80.1785	76.9043	80.0998	76.9043	80.1567	76.9043	80.1012	76.9043	80.1402	76.9043	80.1072	76.9043	80.1271	76.9043	80.1161
79.834	81.0987	79.834	81.071	79.834	81.1066	79.834	81.0251	79.834	81.0942	79.834	80.9636	79.834	81.0621	79.834	80.8898	79.834	81.0123	79.834	80.8079	79.834	80.948	79.834	80.7221	79.834	80.8734	79.834	80.637	79.834	80.7934	79.834	80.557	79.834	80.7134	79.834	80.4858	79.834	80.6385	79.834	80.4266	79.834	80.5728	79.834	80.3812	79.834	80.5189	79.834	80.3502	79.834	80.4775	79.834	80.3332	79.834	80.4476	79.834	80.3282	79.834	80.4266	79.834	80.3326	79.834	80.4113	79.834	80.3434	79.834	80.3985	79.834	80.3573	79.834	80.3858	79.834	80.372
82.7637	81.4534	82.7637	81.4285	82.7637	81.4561	82.7637	81.3829	82.7637	81.4361	82.7637	81.3193	82.7637	81.3942	82.7637	81.2411	82.7637	81.3328	82.7637	81.1523	82.7637	81.2552	82.7637	81.0576	82.7637	81.1663	82.7637	80.9618	82.7637	81.0716	82.7637	80.8695	82.7637	80.9775	82.7637	80.7852	82.7637	80.8896	82.7637	80.7123	82.7637	80.8129	82.7637	80.6535	82.7637	80.7504	82.7637	80.6103	82.7637	80.7031	82.7637	80.5824	82.7637	80.6695	82.7637	80.5685	82.7637	80.6469	82.7637	80.5661	82.7637	80.6313	82.7637	80.5719	82.7637	80.619	82.7637	80.5826	82.7637	80.6073	82.7637	80.595
85.6934	81.7799	85.6934	81.7559	85.6934	81.7795	85.6934	81.7092	85.6934	81.7545	85.6934	81.6423	85.6934	81.7055	85.6934	81.5583	85.6934	81.6345	85.6934	81.4612	85.6934	81.5449	85.6934	81.3553	85.6934	81.4412	85.6934	81.2453	85.6934	81.329	85.6934	81.1358	85.6934	81.2144	85.6934	81.0316	85.6934	81.1038	85.6934	80.9365	85.6934	81.0025	85.6934	80.8539	85.6934	80.9148	85.6934	80.7861	85.6934	80.843	85.6934	80.734	85.6934	80.7871	85.6934	80.6975	85.6934	80.7454	85.6934	80.6751	85.6934	80.7154	85.6934	80.6644	85.6934	80.6938	85.6934	80.6629	85.6934	80.6785	85.6934	80.6681
88.623	81.9186	88.623	81.8917	88.623	81.9252	88.623	81.8464	88.623	81.911	88.623	81.785	88.623	81.8764	88.623	81.7108	88.623	81.8232	88.623	81.6275	88.623	81.7539	88.623	81.539	88.623	81.6726	88.623	81.449	88.623	81.5836	88.623	81.3611	88.623	81.4919	88.623	81.2785	88.623	81.402	88.623	81.2036	88.623	81.3179	88.623	81.1384	88.623	81.2426	88.623	81.0841	88.623	81.1776	88.623	81.0411	88.623	81.1233	88.623	81.0096	88.623	81.0791	88.623	80.9889	88.623	81.0439	88.623	80.9783	88.623	81.0166	88.623	80.9766	88.623	80.9963	88.623	80.9829
91.5527	81.722	91.5527	81.7011	91.5527	81.7242	91.5527	81.6631	91.5527	81.7078	91.5527	81.6108	91.5527	81.6745	91.5527	81.5482	91.5527	81.6276	91.5527	81.4802	91.5527	81.5716	91.5527	81.412	91.5527	81.5122	91.5527	81.3491	91.5527	81.4556	91.5527	81.2961	91.5527	81.4075	91.5527	81.257	91.5527	81.3724	91.5527	81.234	91.5527	81.3527	91.5527	81.228	91.5527	81.3486	91.5527	81.2378	91.5527	81.3577	91.5527	81.2607	91.5527	81.3755	91.5527	81.2928	91.5527	81.3966	91.5527	81.3293	91.5527	81.4153	91.5527	81.3652	91.5527	81.4269	91.5527	81.3958	91.5527	81.4281	91.5527	81.4176
94.4824	82.365	94.4824	82.348	94.4824	82.3551	94.4824	82.3055	94.4824	82.3188	94.4824	82.24	94.4824	82.258	94.4824	82.1556	94.4824	82.1767	94.4824	82.0574	94.4824	82.0804	94.4824	81.951	94.4824	81.9758	94.4824	81.8429	94.4824	81.8706	94.4824	81.7394	94.4824	81.7727	94.4824	81.6467	94.4824	81.6888	94.4824	81.5696	94.4824	81.6235	94.4824	81.5118	94.4824	81.5787	94.4824	81.4745	94.4824	81.5531	94.4824	81.4573	94.4824	81.5429	94.4824	81.4572	94.4824	81.5424	94.4824	81.4698	94.4824	81.5454	94.4824	81.4896	94.4824	81.5463	94.4824	81.5111	94.4824	81.5415	94.4824	81.5294
98.1445	82.5811	98.1445	82.5651	98.1445	82.57	98.1445	82.5234	98.1445	82.532	98.1445	82.4586	98.1445	82.469	98.1445	82.3744	98.1445	82.3844	98.1445	82.2757	98.1445	82.2835	98.1445	82.1675	98.1445	82.173	98.1445	82.0556	98.1445	82.0605	98.1445	81.9458	98.1445	81.9537	98.1445	81.8434	98.1445	81.8595	98.1445	81.7534	98.1445	81.7827	98.1445	81.6795	98.1445	81.7253	98.1445	81.624	98.1445	81.6866	98.1445	81.5877	98.1445	81.6631	98.1445	81.5694	98.1445	81.6496	98.1445	81.5664	98.1445	81.6407	98.1445	81.5745	98.1445	81.6318	98.1445	81.589	98.1445	81.6202	98.1445	81.6053
101.807	82.8073	101.807	82.7958	101.807	82.7921	101.807	82.7588	101.807	82.7502	101.807	82.6992	101.807	82.6837	101.807	82.621	101.807	82.5966	101.807	82.529	101.807	82.4943	101.807	82.4287	101.807	82.3843	101.807	82.3257	101.807	82.2743	101.807	82.2258	101.807	82.1727	101.807	82.1341	101.807	82.0861	101.807	82.055	101.807	82.0193	101.807	81.9915	101.807	81.974	101.807	81.9453	101.807	81.9484	101.807	81.9165	101.807	81.9384	101.807	81.9034	101.807	81.9381	101.807	81.9028	101.807	81.9414	101.807	81.9107	101.807	81.9434	101.807	81.9223	101.807	81.941	101.807	81.9335
105.469	83.0409	105.469	83.0334	105.469	83.0193	105.469	82.9986	105.469	82.969	105.469	82.9395	105.469	82.892	105.469	82.8606	105.469	82.7927	105.469	82.7674	105.469	82.6775	105.469	82.6658	105.469	82.5546	105.469	82.5623	105.469	82.4331	105.469	82.463	105.469	82.3226	105.469	82.3733	105.469	82.231	105.469	82.2977	105.469	82.1641	105.469	82.2391	105.469	82.1236	105.469	82.1984	105.469	82.1077	105.469	82.1748	105.469	82.1112	105.469	82.1656	105.469	82.1269	105.469	82.1668	105.469	82.1472	105.469	82.1733	105.469	82.1658	105.469	82.18	105.469	82.1782	105.469	82.1827
109.131	83.3264	109.131	83.3146	109.131	83.3079	109.131	83.2741	109.131	83.259	109.131	83.2083	109.131	83.182	109.131	83.1219	109.131	83.0811	109.131	83.0206	109.131	82.9627	109.131	82.9109	109.131	82.8352	109.131	82.7995	109.131	82.7082	109.131	82.6932	109.131	82.5916	109.131	82.5981	109.131	82.4943	109.131	82.5191	109.131	82.4224	109.131	82.4595	109.131	82.3786	109.131	82.4204	109.131	82.361	109.131	82.4007	109.131	82.3645	109.131	82.3972	109.131	82.3812	109.131	82.405	109.131	82.403	109.131	82.418	109.131	82.4225	109.131	82.4304	109.131	82.4346	109.131	82.437
112.793	83.5826	112.793	83.5704	112.793	83.5634	112.793	83.5285	112.793	83.5132	112.793	83.4602	112.793	83.4341	112.793	83.3702	112.793	83.3308	112.793	83.2645	112.793	83.21	112.793	83.1497	112.793	83.0805	112.793	83.0329	112.793	82.952	112.793	82.9211	112.793	82.8347	112.793	82.8207	112.793	82.7375	112.793	82.7373	112.793	82.6662	112.793	82.6744	112.793	82.6233	112.793	82.6336	112.793	82.6065	112.793	82.614	112.793	82.6103	112.793	82.6123	112.793	82.6265	112.793	82.6234	112.793	82.6468	112.793	82.6408	112.793	82.6636	112.793	82.6582	112.793	82.6719	112.793	82.6698
116.455	83.7872	116.455	83.7769	116.455	83.7651	116.455	83.7355	116.455	83.7107	116.455	83.6667	116.455	83.6267	116.455	83.5752	116.455	83.518	116.455	83.4671	116.455	83.3921	116.455	83.3494	116.455	83.2581	116.455	83.2294	116.455	83.1268	116.455	83.1145	116.455	83.0087	116.455	83.0116	116.455	82.913	116.455	82.9262	116.455	82.8458	116.455	82.8625	116.455	82.8087	116.455	82.822	116.455	82.7988	116.455	82.8041	116.455	82.8093	116.455	82.8052	116.455	82.8313	116.455	82.82	116.455	82.8555	116.455	82.8417	116.455	82.8742	116.455	82.8631	116.455	82.8823	116.455	82.8781
120.85	84.0397	120.85	84.0332	120.85	84.0119	120.85	83.9942	120.85	83.9499	120.85	83.9267	120.85	83.8562	120.85	83.8358	120.85	83.7361	120.85	83.7282	120.85	83.5973	120.85	83.611	120.85	83.4499	120.85	83.4921	120.85	83.3056	120.85	83.3787	120.85	83.1764	120.85	83.2778	120.85	83.0729	120.85	83.1947	120.85	83.0022	120.85	83.1331	120.85	82.9667	120.85	83.0942	120.85	82.9633	120.85	83.0767	120.85	82.9845	120.85	83.0768	120.85	83.0201	120.85	83.0886	120.85	83.0594	120.85	83.105	120.85	83.0933	120.85	83.1189	120.85	83.1156	120.85	83.1238
125.244	84.2541	125.244	84.2403	125.244	84.2305	125.244	84.1912	125.244	84.1698	125.244	84.1107	125.244	84.0747	125.244	84.0046	125.244	83.9505	125.244	83.8801	125.244	83.8054	125.244	83.7453	125.244	83.6497	125.244	83.609	125.244	83.4955	125.244	83.4802	125.244	83.3555	125.244	83.3669	125.244	83.2407	125.244	83.2758	125.244	83.1591	125.244	83.2109	125.244	83.1137	125.244	83.1734	125.244	83.1021	125.244	83.1611	125.244	83.1172	125.244	83.1689	125.244	83.1486	125.244	83.1892	125.244	83.1854	125.244	83.2137	125.244	83.2175	125.244	83.2339	125.244	83.238	125.244	83.2433
129.639	84.4366	129.639	84.424	129.639	84.4106	129.639	84.3747	129.639	84.3463	129.639	84.2924	129.639	84.2467	129.639	84.1826	129.639	84.1175	129.639	84.0522	129.639	83.967	129.639	83.9095	129.639	83.8063	129.639	83.7631	129.639	83.648	129.639	83.6225	129.639	83.505	129.639	83.4964	129.639	83.3888	129.639	83.3925	129.639	83.3071	129.639	83.3164	129.639	83.2623	129.639	83.2706	129.639	83.2514	129.639	83.2538	129.639	83.2661	129.639	83.2612	129.639	83.2956	129.639	83.2851	129.639	83.3284	129.639	83.3161	129.639	83.3546	129.639	83.3449	129.639	83.3673	129.639	83.3636
134.033	84.5046	134.033	84.4908	134.033	84.4794	134.033	84.44	134.033	84.4157	134.033	84.3562	134.033	84.3164	134.033	84.2452	134.033	84.1875	134.033	84.1141	134.033	84.0379	134.033	83.9711	134.033	83.8789	134.033	83.8252	134.033	83.7237	134.033	83.6856	134.033	83.5854	134.033	83.561	134.033	83.4755	134.033	83.4589	134.033	83.4012	134.033	83.3848	134.033	83.3642	134.033	83.3412	134.033	83.3601	134.033	83.3272	134.033	83.3799	134.033	83.3381	134.033	83.4119	134.033	83.3666	134.033	83.4442	134.033	83.4033	134.033	83.4672	134.033	83.4387	134.033	83.4746	134.033	83.4644
138.428	84.6917	138.428	84.6748	138.428	84.6675	138.428	84.6192	138.428	84.6025	138.428	84.5293	138.428	84.4997	138.428	84.411	138.428	84.3651	138.428	84.2721	138.428	84.2082	138.428	84.1212	138.428	84.0413	138.428	83.9676	138.428	83.8788	138.428	83.8212	138.428	83.7353	138.428	83.6913	138.428	83.6235	138.428	83.5861	138.428	83.5512	138.428	83.5115	138.428	83.52	138.428	83.4706	138.428	83.5245	138.428	83.4623	138.428	83.5537	138.428	83.4817	138.428	83.5942	138.428	83.5206	138.428	83.6326	138.428	83.5684	138.428	83.658	138.428	83.6142	138.428	83.6638	138.428	83.6483
143.555	84.8486	143.555	84.8268	143.555	84.8279	143.555	84.7648	143.555	84.7645	143.555	84.6673	143.555	84.6614	143.555	84.5409	143.555	84.5243	143.555	84.3938	143.555	84.3624	143.555	84.2351	143.555	84.188	143.555	84.0751	143.555	84.0156	143.555	83.9241	143.555	83.8604	143.555	83.7917	143.555	83.736	143.555	83.6861	143.555	83.6519	143.555	83.6131	143.555	83.6109	143.555	83.5748	143.555	83.6089	143.555	83.5694	143.555	83.6354	143.555	83.5911	143.555	83.6768	143.555	83.631	143.555	83.7187	143.555	83.678	143.555	83.7494	143.555	83.7212	143.555	83.7611	143.555	83.751
148.682	85.0134	148.682	84.9956	148.682	84.985	148.682	84.9339	148.682	84.9113	148.682	84.8325	148.682	84.7959	148.682	84.6982	148.682	84.6458	148.682	84.5396	148.682	84.4715	148.682	84.3667	148.682	84.2864	148.682	84.1913	148.682	84.1065	148.682	84.0256	148.682	83.9481	148.682	83.8813	148.682	83.8254	148.682	83.7688	148.682	83.7478	148.682	83.6952	148.682	83.7173	148.682	83.6631	148.682	83.7283	148.682	83.6697	148.682	83.7689	148.682	83.7073	148.682	83.8236	148.682	83.7641	148.682	83.8768	148.682	83.8266	148.682	83.9153	148.682	83.8817	148.682	83.9304	148.682	83.9185
153.809	85.2028	153.809	85.1895	153.809	85.1673	153.809	85.1291	153.809	85.0839	153.809	85.0257	153.809	84.9565	153.809	84.8854	153.809	84.7924	153.809	84.7162	153.809	84.6024	153.809	84.5277	153.809	84.4004	153.809	84.3311	153.809	84.203	153.809	84.1388	153.809	84.027	153.809	83.9636	153.809	83.8874	153.809	83.8178	153.809	83.7943	153.809	83.7115	153.809	83.75	153.809	83.6505	153.809	83.7491	153.809	83.6349	153.809	83.7794	153.809	83.6586	153.809	83.8248	153.809	83.7098	153.809	83.8689	153.809	83.7738	153.809	83.8981	153.809	83.8354	153.809	83.9033	153.809	83.8814
159.668	85.4631	159.668	85.4487	159.668	85.4262	159.668	85.3851	159.668	85.3389	159.668	85.2767	159.668	85.2052	159.668	85.1301	159.668	85.0329	159.668	84.9537	159.668	84.8336	159.668	84.7577	159.668	84.6226	159.668	84.5537	159.668	84.4181	159.668	84.3544	159.668	84.2384	159.668	84.173	159.668	84.0994	159.668	84.0221	159.668	84.0111	159.668	83.9123	159.668	83.9746	159.668	83.8496	159.668	83.9825	159.668	83.8346	159.668	84.0203	159.668	83.8611	159.668	84.0704	159.668	83.9175	159.668	84.1155	159.668	83.9884	159.668	84.142	159.668	84.0579	159.668	84.1416	159.668	84.1122
164.795	85.5476	164.795	85.5325	164.795	85.512	164.795	85.4691	164.795	85.4261	164.795	85.362	164.795	85.2935	164.795	85.2178	164.795	85.1214	164.795	85.0445	164.795	84.9211	164.795	84.8518	164.795	84.7077	164.795	84.6503	164.795	84.4993	164.795	84.4519	164.795	84.3145	164.795	84.2688	164.795	84.1699	164.795	84.1133	164.795	84.076	164.795	83.9959	164.795	84.0347	164.795	83.9235	164.795	84.0388	164.795	83.8981	164.795	84.0737	164.795	83.9152	164.795	84.1213	164.795	83.9643	164.795	84.164	164.795	84.0308	164.795	84.188	164.795	84.0988	164.795	84.1851	164.795	84.1538
170.654	85.5316	170.654	85.5213	170.654	85.4896	170.654	85.4614	170.654	85.3958	170.654	85.3571	170.654	85.254	170.654	85.2154	170.654	85.0723	170.654	85.0455	170.654	84.8631	170.654	84.8578	170.654	84.6432	170.654	84.664	170.654	84.4327	170.654	84.4766	170.654	84.2524	170.654	84.3087	170.654	84.1203	170.654	84.1723	170.654	84.0471	170.654	84.0771	170.654	84.0336	170.654	84.0289	170.654	84.0699	170.654	84.0273	170.654	84.1385	170.654	84.0657	170.654	84.2184	170.654	84.1315	170.654	84.2899	170.654	84.2086	170.654	84.3375	170.654	84.2802	170.654	84.3521	170.654	84.3315
176.514	85.6414	176.514	85.6247	176.514	85.6014	176.514	85.554	176.514	85.5053	176.514	85.4346	176.514	85.357	176.514	85.274	176.514	85.1648	176.514	85.0817	176.514	84.9413	176.514	84.8695	176.514	84.7041	176.514	84.6506	176.514	84.4744	176.514	84.4399	176.514	84.2751	176.514	84.2528	176.514	84.1264	176.514	84.1042	176.514	84.0419	176.514	84.0059	176.514	84.0238	176.514	83.9641	176.514	84.0629	176.514	83.9777	176.514	84.1402	176.514	84.0371	176.514	84.2325	176.514	84.1259	176.514	84.3168	176.514	84.2241	176.514	84.3747	176.514	84.3117	176.514	84.3945	176.514	84.3722
183.105	85.6986	183.105	85.6818	183.105	85.6565	183.105	85.6078	183.105	85.5563	183.105	85.4813	183.105	85.4026	183.105	85.3091	183.105	85.2042	183.105	85.0999	183.105	84.9743	183.105	84.8647	183.105	84.7309	183.105	84.6169	183.105	84.4955	183.105	84.3721	183.105	84.2911	183.105	84.1478	183.105	84.1376	183.105	83.9623	183.105	84.0478	183.105	83.832	183.105	84.0233	183.105	83.7676	183.105	84.0538	183.105	83.7709	183.105	84.1202	183.105	83.8328	183.105	84.1986	183.105	83.9353	183.105	84.2661	183.105	84.0548	183.105	84.3042	183.105	84.1677	183.105	84.3014	183.105	84.2542
189.697	85.7942	189.697	85.7952	189.697	85.7328	189.697	85.738	189.697	85.6123	189.697	85.6266	189.697	85.4371	189.697	85.4674	189.697	85.2162	189.697	85.268	189.697	84.9635	189.697	85.0378	189.697	84.6979	189.697	84.7881	189.697	84.4421	189.697	84.5321	189.697	84.2208	189.697	84.2858	189.697	84.0552	189.697	84.0669	189.697	83.9586	189.697	83.8938	189.697	83.9319	189.697	83.7816	189.697	83.9632	189.697	83.7384	189.697	84.0308	189.697	83.7614	189.697	84.1089	189.697	83.8364	189.697	84.1733	189.697	83.9411	189.697	84.2053	189.697	84.05	189.697	84.1946	189.697	84.1401
196.289	85.8708	196.289	85.8825	196.289	85.7963	196.289	85.8342	196.289	85.6598	196.289	85.7316	196.289	85.4663	196.289	85.5824	196.289	85.226	196.289	85.3959	196.289	84.9549	196.289	85.1827	196.289	84.6746	196.289	84.9545	196.289	84.4111	196.289	84.724	196.289	84.1913	196.289	84.5052	196.289	84.0374	196.289	84.3129	196.289	83.9617	196.289	84.1616	196.289	83.9619	196.289	84.063	196.289	84.0223	196.289	84.0231	196.289	84.1182	196.289	84.0393	196.289	84.2221	196.289	84.0995	196.289	84.3096	196.289	84.1844	196.289	84.3631	196.289	84.2716	196.289	84.3732	196.289	84.3399
202.881	86.0036	202.881	86	202.881	85.9365	202.881	85.9297	202.881	85.798	202.881	85.7996	202.881	85.592	202.881	85.619	202.881	85.3275	202.881	85.3993	202.881	85.0197	202.881	85.154	202.881	84.6914	202.881	84.8984	202.881	84.3716	202.881	84.6494	202.881	84.0934	202.881	84.4249	202.881	83.8877	202.881	84.2423	202.881	83.7753	202.881	84.1157	202.881	83.76	202.881	84.0531	202.881	83.8275	202.881	84.053	202.881	83.9499	202.881	84.1043	202.881	84.0943	202.881	84.1874	202.881	84.23	202.881	84.2786	202.881	84.3334	202.881	84.3546	202.881	84.3904	202.881	84.396
210.205	86.0201	210.205	86.026	210.205	85.9418	210.205	85.9621	210.205	85.792	210.205	85.8333	210.205	85.5756	210.205	85.6466	210.205	85.3028	210.205	85.4108	210.205	84.9901	210.205	85.1364	210.205	84.6607	210.205	84.8366	210.205	84.344	210.205	84.5282	210.205	84.0722	210.205	84.2323	210.205	83.8744	210.205	83.9736	210.205	83.7688	210.205	83.778	210.205	83.7569	210.205	83.6661	210.205	83.8225	210.205	83.6464	210.205	83.9366	210.205	83.7098	210.205	84.0654	210.205	83.8318	210.205	84.1774	210.205	83.9785	210.205	84.2483	210.205	84.1159	210.205	84.2629	210.205	84.2166
217.529	85.9963	217.529	86.0077	217.529	85.9112	217.529	85.9495	217.529	85.7519	217.529	85.8283	217.529	85.523	217.529	85.6528	217.529	85.2344	217.529	85.4329	217.529	84.9037	217.529	85.1796	217.529	84.5562	217.529	84.9052	217.529	84.2241	217.529	84.6238	217.529	83.9435	217.529	84.3526	217.529	83.7464	217.529	84.1116	217.529	83.6523	217.529	83.9223	217.529	83.6607	217.529	83.8037	217.529	83.7514	217.529	83.7659	217.529	83.8907	217.529	83.8049	217.529	84.0414	217.529	83.9021	217.529	84.1705	217.529	84.0279	217.529	84.2536	217.529	84.1499	217.529	84.2774	217.529	84.2398
225.586	86.2317	225.586	86.2331	225.586	86.1465	225.586	86.1563	225.586	85.9754	225.586	86.0091	225.586	85.7208	225.586	85.8012	225.586	85.3915	225.586	85.5433	225.586	85.0046	225.586	85.2477	225.586	84.5877	225.586	84.9287	225.586	84.1794	225.586	84.6037	225.586	83.8262	225.586	84.2944	225.586	83.5738	225.586	84.027	225.586	83.4533	225.586	83.8286	225.586	83.4683	225.586	83.7213	225.586	83.5938	225.586	83.7133	225.586	83.7854	225.586	83.7938	225.586	83.9939	225.586	83.934	225.586	84.177	225.586	84.0953	225.586	84.3039	225.586	84.2388	225.586	84.3574	225.586	84.333
232.91	86.3769	232.91	86.3591	232.91	86.3123	232.91	86.266	232.91	86.1607	232.91	86.1063	232.91	85.9219	232.91	85.8897	232.91	85.6008	232.91	85.6252	232.91	85.2102	232.91	85.3222	232.91	84.7728	232.91	84.9902	232.91	84.3234	232.91	84.6412	232.91	83.9081	232.91	84.2923	232.91	83.5788	232.91	83.9683	232.91	83.3799	232.91	83.7018	232.91	83.3314	232.91	83.5272	232.91	83.419	232.91	83.4685	232.91	83.599	232.91	83.5262	232.91	83.8145	232.91	83.6725	232.91	84.0113	232.91	83.8601	232.91	84.148	232.91	84.0368	232.91	84.1998	232.91	84.1593
241.699	86.2361	241.699	86.2057	241.699	86.1901	241.699	86.1062	241.699	86.0628	241.699	85.9467	241.699	85.8532	241.699	85.7365	241.699	85.5651	241.699	85.4846	241.699	85.2091	241.699	85.1984	241.699	84.8041	241.699	84.8845	241.699	84.3793	241.699	84.55	241.699	83.9732	241.699	84.2049	241.699	83.6304	241.699	83.8659	241.699	83.3903	241.699	83.5583	241.699	83.2746	241.699	83.3144	241.699	83.2769	241.699	83.165	241.699	83.3643	241.699	83.1265	241.699	83.4895	241.699	83.1899	241.699	83.6047	241.699	83.3212	241.699	83.6731	241.699	83.4735	241.699	83.6732	241.699	83.6016
249.756	86.3316	249.756	86.2786	249.756	86.3021	249.756	86.1517	249.756	86.1853	249.756	85.9617	249.756	85.9804	249.756	85.7202	249.756	85.6923	249.756	85.4387	249.756	85.3327	249.756	85.1269	249.756	84.9214	249.756	84.7929	249.756	84.4876	249.756	84.4438	249.756	84.0695	249.756	84.0888	249.756	83.7097	249.756	83.7428	249.756	83.4468	249.756	83.4294	249.756	83.3027	249.756	83.1798	249.756	83.2735	249.756	83.0254	249.756	83.3302	249.756	82.9837	249.756	83.4284	249.756	83.047	249.756	83.5219	249.756	83.1819	249.756	83.5733	249.756	83.3408	249.756	83.5602	249.756	83.4778
258.545	86.297	258.545	86.2255	258.545	86.2942	258.545	86.0909	258.545	86.209	258.545	85.9067	258.545	86.0375	258.545	85.6869	258.545	85.7811	258.545	85.4443	258.545	85.4476	258.545	85.1885	258.545	85.0532	258.545	84.9248	258.545	84.6242	258.545	84.6547	258.545	84.1974	258.545	84.3784	258.545	83.8173	258.545	84.0996	258.545	83.5279	258.545	83.8294	258.545	83.3584	258.545	83.5892	258.545	83.3114	258.545	83.407	258.545	83.3602	258.545	83.3076	258.545	83.4594	258.545	83.2993	258.545	83.5598	258.545	83.3656	258.545	83.6224	258.545	83.4698	258.545	83.6257	258.545	83.5684
268.066	85.6609	268.066	85.5251	268.066	85.7323	268.066	85.3329	268.066	85.7342	268.066	85.0963	268.066	85.664	268.066	84.8314	268.066	85.5214	268.066	84.5575	268.066	85.3091	268.066	84.2935	268.066	85.034	268.066	84.0539	268.066	84.709	268.066	83.8439	268.066	84.3546	268.066	83.659	268.066	83.9994	268.066	83.4885	268.066	83.6776	268.066	83.3223	268.066	83.4212	268.066	83.1584	268.066	83.2495	268.066	83.0075	268.066	83.1598	268.066	82.8899	268.066	83.1276	268.066	82.8272	268.066	83.1169	268.066	82.8288	268.066	83.0949	268.066	82.8842	268.066	83.0437	268.066	82.9663
277.588	85.6663	277.588	85.7244	277.588	85.5172	277.588	85.684	277.588	85.295	277.588	85.5471	277.588	85.0284	277.588	85.3239	277.588	84.754	277.588	85.0316	277.588	84.5096	277.588	84.6946	277.588	84.3241	277.588	84.3424	277.588	84.2083	277.588	84.0082	277.588	84.1522	277.588	83.7245	277.588	84.1322	277.588	83.5168	277.588	84.1216	277.588	83.3979	277.588	84.1008	277.588	83.364	277.588	84.0619	277.588	83.3976	277.588	84.0082	277.588	83.4732	277.588	83.9495	277.588	83.5647	277.588	83.8961	277.588	83.6517	277.588	83.8523	277.588	83.7226	277.588	83.815	277.588	83.7751
287.109	85.8138	287.109	85.8731	287.109	85.6172	287.109	85.8039	287.109	85.2846	287.109	85.6216	287.109	84.8334	287.109	85.3467	287.109	84.3046	287.109	85.0035	287.109	83.7702	287.109	84.6199	287.109	83.3296	287.109	84.2269	287.109	83.0825	287.109	83.8589	287.109	83.0789	287.109	83.5511	287.109	83.2888	287.109	83.336	287.109	83.6247	287.109	83.236	287.109	83.9913	287.109	83.2573	287.109	84.3182	287.109	83.3864	287.109	84.5668	287.109	83.5937	287.109	84.7228	287.109	83.8427	287.109	84.7878	287.109	84.0988	287.109	84.7705	287.109	84.3354	287.109	84.6824	287.109	84.534
297.363	86.7441	297.363	86.6897	297.363	86.6555	297.363	86.513	297.363	86.406	297.363	86.2358	297.363	85.9826	297.363	85.881	297.363	85.3822	297.363	85.4719	297.363	84.6218	297.363	85.0322	297.363	83.7584	297.363	84.5854	297.363	82.9162	297.363	84.1552	297.363	82.2962	297.363	83.7668	297.363	82.0981	297.363	83.4472	297.363	82.3632	297.363	83.2259	297.363	82.9321	297.363	83.1298	297.363	83.586	297.363	83.1748	297.363	84.1671	297.363	83.3553	297.363	84.5963	297.363	83.6412	297.363	84.847	297.363	83.9848	297.363	84.9221	297.363	84.332	297.363	84.8408	297.363	84.632
307.617	86.8558	307.617	86.8064	307.617	86.7777	307.617	86.6394	307.617	86.5639	307.617	86.3661	307.617	86.2084	307.617	86.0011	307.617	85.7106	307.617	85.5628	307.617	85.0806	307.617	85.0769	307.617	84.3511	307.617	84.5779	307.617	83.5933	307.617	84.1106	307.617	82.932	307.617	83.7281	307.617	82.5281	307.617	83.4826	307.617	82.499	307.617	83.4089	307.617	82.8263	307.617	83.5101	307.617	83.369	307.617	83.7541	307.617	83.9642	307.617	84.0857	307.617	84.4948	307.617	84.4447	307.617	84.8985	307.617	84.7778	307.617	85.1512	307.617	85.0432	307.617	85.2511	307.617	85.2091
318.604	87.4086	318.604	87.3344	318.604	87.3425	318.604	87.1363	318.604	87.1208	318.604	86.8301	318.604	86.7295	318.604	86.4312	318.604	86.1587	318.604	85.9541	318.604	85.407	318.604	85.4131	318.604	84.4928	318.604	84.8253	318.604	83.4776	318.604	84.215	318.604	82.5025	318.604	83.6217	318.604	81.8065	318.604	83.1073	318.604	81.6288	318.604	82.7535	318.604	81.9998	318.604	82.637	318.604	82.7037	318.604	82.7862	318.604	83.4788	318.604	83.1553	318.604	84.1533	318.604	83.6453	318.604	84.646	318.604	84.1487	318.604	84.9289	318.604	84.579	318.604	85.0012	318.604	84.8762
329.59	87.4396	329.59	87.3297	329.59	87.4401	329.59	87.1217	329.59	87.3184	329.59	86.8255	329.59	87.0612	329.59	86.4502	329.59	86.6555	329.59	86.0043	329.59	86.0919	329.59	85.4977	329.59	85.3711	329.59	84.9439	329.59	84.5168	329.59	84.3648	329.59	83.6004	329.59	83.7975	329.59	82.7712	329.59	83.3008	329.59	82.2502	329.59	82.952	329.59	82.2122	329.59	82.8243	329.59	82.6235	329.59	82.947	329.59	83.2689	329.59	83.2798	329.59	83.9251	329.59	83.7302	329.59	84.4526	329.59	84.1937	329.59	84.7879	329.59	84.5834	329.59	84.9135	329.59	84.8371
341.309	87.0127	341.309	86.9247	341.309	86.9862	341.309	86.733	341.309	86.8348	341.309	86.4482	341.309	86.5485	341.309	86.081	341.309	86.1184	341.309	85.6414	341.309	85.5397	341.309	85.1391	341.309	84.8179	341.309	84.5848	341.309	83.9832	341.309	83.9958	341.309	83.1154	341.309	83.4053	341.309	82.373	341.309	82.8735	341.309	81.9753	341.309	82.4924	341.309	82.0715	341.309	82.3623	341.309	82.5958	341.309	82.5351	341.309	83.3216	341.309	82.9676	341.309	84.0313	341.309	83.5416	341.309	84.5909	341.309	84.1248	341.309	84.9375	341.309	84.6124	341.309	85.0508	341.309	84.935
353.76	87.0955	353.76	86.9882	353.76	87.0952	353.76	86.7848	353.76	86.9741	353.76	86.4946	353.76	86.7184	353.76	86.1239	353.76	86.3144	353.76	85.6757	353.76	85.7505	353.76	85.1499	353.76	85.0223	353.76	84.5461	353.76	84.1432	353.76	83.8702	353.76	83.1661	353.76	83.147	353.76	82.2204	353.76	82.4401	353.76	81.5338	353.76	81.8692	353.76	81.3471	353.76	81.5908	353.76	81.7052	353.76	81.7083	353.76	82.3988	353.76	82.1761	353.76	83.1569	353.76	82.8259	353.76	83.7946	353.76	83.4761	353.76	84.2194	353.76	83.9979	353.76	84.3955	353.76	84.3168
366.211	87.2249	366.211	87.1513	366.211	87.1886	366.211	86.9809	366.211	87.0283	366.211	86.7245	366.211	86.7292	366.211	86.389	366.211	86.277	366.211	85.9751	366.211	85.6593	366.211	85.4763	366.211	84.8709	366.211	84.8794	366.211	83.9256	366.211	84.1701	366.211	82.8813	366.211	83.3448	366.211	81.8832	366.211	82.4357	366.211	81.1863	366.211	81.5525	366.211	81.0454	366.211	80.9152	366.211	81.4743	366.211	80.7782	366.211	82.2188	366.211	81.2023	366.211	82.9919	366.211	81.9709	366.211	83.6124	366.211	82.7946	366.211	83.9939	366.211	83.4783	366.211	84.1016	366.211	83.9266
378.662	87.2105	378.662	87.0565	378.662	87.2835	378.662	86.8412	378.662	87.2555	378.662	86.5839	378.662	87.1058	378.662	86.3005	378.662	86.812	378.662	85.9976	378.662	86.3503	378.662	85.6676	378.662	85.6982	378.662	85.2859	378.662	84.8407	378.662	84.8156	378.662	83.7883	378.662	84.217	378.662	82.6198	378.662	83.4668	378.662	81.5602	378.662	82.5911	378.662	81.0032	378.662	81.7233	378.662	81.2295	378.662	81.1496	378.662	82.0433	378.662	81.1776	378.662	83.0018	378.662	81.8084	378.662	83.791	378.662	82.7121	378.662	84.2687	378.662	83.5523	378.662	84.3859	378.662	84.1378
392.578	86.69	392.578	86.5211	392.578	86.7699	392.578	86.2744	392.578	86.7516	392.578	85.9657	392.578	86.6246	392.578	85.6165	392.578	86.3748	392.578	85.2515	392.578	85.9843	392.578	84.8913	392.578	85.4334	392.578	84.5436	392.578	84.7071	392.578	84.1965	392.578	83.8081	392.578	83.821	392.578	82.7873	392.578	83.3821	392.578	81.7982	392.578	82.8607	392.578	81.1295	392.578	82.2823	392.578	81.0603	392.578	81.7496	392.578	81.5545	392.578	81.4411	392.578	82.2775	392.578	81.512	392.578	82.9076	392.578	81.94	392.578	83.2705	392.578	82.5232	392.578	83.3071	392.578	83.0317
405.762	86.5795	405.762	86.4579	405.762	86.5772	405.762	86.2206	405.762	86.4493	405.762	85.8832	405.762	86.1975	405.762	85.4669	405.762	85.8237	405.762	84.9955	405.762	85.3272	405.762	84.4893	405.762	84.7048	405.762	83.96	405.762	83.9561	405.762	83.4101	405.762	83.0985	405.762	82.8396	405.762	82.1984	405.762	82.2626	405.762	81.4137	405.762	81.7327	405.762	80.9939	405.762	81.3606	405.762	81.1274	405.762	81.285	405.762	81.7336	405.762	81.5742	405.762	82.5252	405.762	82.1463	405.762	83.2375	405.762	82.8171	405.762	83.719	405.762	83.4073	405.762	83.9074	405.762	83.7938
420.41	86.9656	420.41	86.7855	420.41	87.0611	420.41	86.5317	420.41	87.0622	420.41	86.2178	420.41	86.9571	420.41	85.86	420.41	86.7294	420.41	85.4733	420.41	86.3576	420.41	85.0659	420.41	85.8149	420.41	84.6324	420.41	85.0715	420.41	84.1526	420.41	84.102	420.41	83.5965	420.41	82.9081	420.41	82.9391	420.41	81.5806	420.41	82.1887	420.41	80.4227	420.41	81.4302	420.41	79.9637	420.41	80.866	420.41	80.4469	420.41	80.7536	420.41	81.4427	420.41	81.1737	420.41	82.4052	420.41	81.909	420.41	83.0543	420.41	82.6426	420.41	83.3019	420.41	83.1472
435.059	86.6952	435.059	86.5683	435.059	86.7227	435.059	86.3451	435.059	86.6554	435.059	86.0382	435.059	86.5001	435.059	85.6684	435.059	86.2608	435.059	85.2598	435.059	85.9333	435.059	84.8318	435.059	85.5044	435.059	84.3915	435.059	84.9549	435.059	83.93	435.059	84.2686	435.059	83.4275	435.059	83.4505	435.059	82.8683	435.059	82.5609	435.059	82.2664	435.059	81.764	435.059	81.6982	435.059	81.3253	435.059	81.3179	435.059	81.4335	435.059	81.2952	435.059	81.9753	435.059	81.6649	435.059	82.6341	435.059	82.2648	435.059	83.1426	435.059	82.8574	435.059	83.3634	435.059	83.2577
450.439	86.7831	450.439	86.6349	450.439	86.8087	450.439	86.3718	450.439	86.7181	450.439	86.0159	450.439	86.5265	450.439	85.5996	450.439	86.2512	450.439	85.1567	450.439	85.9026	450.439	84.7096	450.439	85.4792	450.439	84.2581	450.439	84.967	450.439	83.7766	450.439	84.3496	450.439	83.2249	450.439	83.6289	450.439	82.5707	450.439	82.8623	450.439	81.8298	450.439	82.2105	450.439	81.1266	450.439	81.9257	450.439	80.7329	450.439	82.1692	450.439	80.9274	450.439	82.8067	450.439	81.6798	450.439	83.5218	450.439	82.6516	450.439	84.0507	450.439	83.5101	450.439	84.2507	450.439	84.0681
466.553	86.8558	466.553	86.5868	466.553	86.982	466.553	86.1968	466.553	86.9601	466.553	85.7251	466.553	86.7965	466.553	85.2232	466.553	86.5027	466.553	84.7403	466.553	86.0894	466.553	84.3025	466.553	85.5626	466.553	83.8972	466.553	84.9249	466.553	83.4729	466.553	84.1859	466.553	82.9565	466.553	83.3849	466.553	82.2822	466.553	82.6283	466.553	81.4369	466.553	82.1136	466.553	80.5443	466.553	82.0542	466.553	79.9679	466.553	82.4802	466.553	80.1595	466.553	83.1726	466.553	81.107	466.553	83.8419	466.553	82.3183	466.553	84.2804	466.553	83.3706	466.553	84.375	466.553	84.0743
482.666	87.0869	482.666	86.7823	482.666	87.2115	482.666	86.3154	482.666	87.1576	482.666	85.7293	482.666	86.9403	482.666	85.0941	482.666	86.5815	482.666	84.4993	482.666	86.1035	482.666	84.0237	482.666	85.5226	482.666	83.6898	482.666	84.8465	482.666	83.436	482.666	84.081	482.666	83.1356	482.666	83.2518	482.666	82.6409	482.666	82.4514	482.666	81.8255	482.666	81.8891	482.666	80.6419	482.666	81.8331	482.666	79.2987	482.666	82.3502	482.666	78.5963	482.666	83.1713	482.666	79.3868	482.666	83.9288	482.666	81.0817	482.666	84.3665	482.666	82.6829	482.666	84.3457	482.666	83.7938
500.244	87.2267	500.244	86.8883	500.244	87.4109	500.244	86.4037	500.244	87.4354	500.244	85.7891	500.244	87.294	500.244	85.0778	500.244	86.9782	500.244	84.3306	500.244	86.4777	500.244	83.6363	500.244	85.781	500.244	83.0851	500.244	84.8812	500.244	82.7096	500.244	83.7944	500.244	82.4425	500.244	82.61	500.244	82.1419	500.244	81.5881	500.244	81.6624	500.244	81.1809	500.244	80.9307	500.244	81.6451	500.244	80.0516	500.244	82.6519	500.244	79.4694	500.244	83.6761	500.244	79.8116	500.244	84.3938	500.244	81.0524	500.244	84.6661	500.244	82.5181	500.244	84.4414	500.244	83.7104
517.822	87.8436	517.822	87.7414	517.822	87.783	517.822	87.4673	517.822	87.5942	517.822	87.0362	517.822	87.3318	517.822	86.4824	517.822	87.0484	517.822	85.8549	517.822	86.7616	517.822	85.2135	517.822	86.4312	517.822	84.6166	517.822	85.9652	517.822	84.0969	517.822	85.243	517.822	83.6309	517.822	84.1397	517.822	83.1252	517.822	82.5733	517.822	82.4371	517.822	80.7224	517.822	81.4248	517.822	79.6408	517.822	80.0602	517.822	80.5806	517.822	78.7737	517.822	82.4736	517.822	78.7939	517.822	83.9911	517.822	80.4683	517.822	84.7633	517.822	82.4762	517.822	84.7527	517.822	83.9759
536.133	87.9264	536.133	87.6281	536.133	87.9682	536.133	87.1142	536.133	87.735	536.133	86.4366	536.133	87.2485	536.133	85.6529	536.133	86.5919	536.133	84.8292	536.133	85.9196	536.133	84.048	536.133	85.403	536.133	83.4065	536.133	85.1006	536.133	82.9822	536.133	84.8829	536.133	82.7703	536.133	84.5205	536.133	82.651	536.133	83.8148	536.133	82.4298	536.133	82.6949	536.133	81.9097	536.133	81.4113	536.133	80.9627	536.133	80.8021	536.133	79.6927	536.133	81.4801	536.133	78.8401	536.133	82.6604	536.133	79.4927	536.133	83.4314	536.133	81.1708	536.133	83.4518	536.133	82.6625
554.443	87.6958	554.443	87.5071	554.443	87.7167	554.443	87.1616	554.443	87.5626	554.443	86.6753	554.443	87.2306	554.443	86.0683	554.443	86.7266	554.443	85.3629	554.443	86.0743	554.443	84.5846	554.443	85.3232	554.443	83.7729	554.443	84.5446	554.443	82.9988	554.443	83.8028	554.443	82.3625	554.443	83.1118	554.443	81.9283	554.443	82.4242	554.443	81.6291	554.443	81.6954	554.443	81.2616	554.443	81.0103	554.443	80.6021	554.443	80.6626	554.443	79.5741	554.443	80.9006	554.443	78.5367	554.443	81.4906	554.443	78.4482	554.443	81.9066	554.443	79.5883	554.443	81.7692	554.443	80.9419
574.219	87.7274	574.219	87.4053	574.219	87.8558	574.219	86.922	574.219	87.7691	574.219	86.3207	574.219	87.4573	574.219	85.6516	574.219	86.9251	574.219	84.96	574.219	86.1975	574.219	84.2686	574.219	85.3291	574.219	83.568	574.219	84.4076	574.219	82.8378	574.219	83.5343	574.219	82.1007	574.219	82.7744	574.219	81.4641	574.219	82.1218	574.219	81.0542	574.219	81.5486	574.219	80.8366	574.219	81.1259	574.219	80.5698	574.219	81.0577	574.219	80.0198	574.219	81.4318	574.219	79.2605	574.219	81.9631	574.219	78.9276	574.219	82.2096	574.219	79.65	574.219	81.8761	574.219	80.9131
594.727	87.6235	594.727	87.458	594.727	87.563	594.727	87.0684	594.727	87.3165	594.727	86.4943	594.727	86.9529	594.727	85.8026	594.727	86.5345	594.727	85.0722	594.727	86.0747	594.727	84.3717	594.727	85.5228	594.727	83.7285	594.727	84.7884	594.727	83.1055	594.727	83.7822	594.727	82.4154	594.727	82.4627	594.727	81.5833	594.727	80.9337	594.727	80.6379	594.727	79.6677	594.727	79.7849	594.727	79.4887	594.727	79.3314	594.727	80.4965	594.727	79.4129	594.727	81.8387	594.727	79.9288	594.727	82.8719	594.727	80.7575	594.727	83.3665	594.727	81.7609	594.727	83.2845	594.727	82.6918
615.234	87.6322	615.234	87.3067	615.234	87.6762	615.234	86.7515	615.234	87.4277	615.234	86.0474	615.234	86.9315	615.234	85.2974	615.234	86.2898	615.234	84.6146	615.234	85.626	615.234	84.0831	615.234	85.0085	615.234	83.7048	615.234	84.4025	615.234	83.3944	615.234	83.7088	615.234	83.0344	615.234	82.8317	615.234	82.5329	615.234	81.7074	615.234	81.845	615.234	80.3412	615.234	80.9647	615.234	79.0185	615.234	79.9209	615.234	78.6109	615.234	78.851	615.234	79.6016	615.234	78.203	615.234	81.0018	615.234	78.6043	615.234	81.8801	615.234	79.8918	615.234	81.942	615.234	81.2026
637.207	88.5456	637.207	88.1676	637.207	88.5973	637.207	87.4982	637.207	88.308	637.207	86.5784	637.207	87.7003	637.207	85.4569	637.207	86.8511	637.207	84.2186	637.207	85.8956	637.207	83.0351	637.207	85.0023	637.207	82.1582	637.207	84.3049	637.207	81.7465	637.207	83.8208	637.207	81.6824	637.207	83.421	637.207	81.6939	637.207	82.879	637.207	81.5748	637.207	81.9773	637.207	81.229	637.207	80.7273	637.207	80.6268	637.207	79.8983	637.207	79.8584	637.207	80.6965	637.207	79.4069	637.207	82.3922	637.207	80.066	637.207	83.601	637.207	81.6521	637.207	83.8513	637.207	83.1279
659.912	88.4953	659.912	88.1714	659.912	88.5513	659.912	87.612	659.912	88.3307	659.912	86.8599	659.912	87.8558	659.912	85.9596	659.912	87.1753	659.912	84.9591	659.912	86.3521	659.912	83.9185	659.912	85.453	659.912	82.9107	659.912	84.5428	659.912	82.008	659.912	83.6687	659.912	81.2658	659.912	82.8247	659.912	80.71	659.912	81.9373	659.912	80.3121	659.912	80.9453	659.912	79.9539	659.912	80.0091	659.912	79.4482	659.912	79.6847	659.912	78.6763	659.912	80.3328	659.912	77.8932	659.912	81.356	659.912	77.9682	659.912	81.9743	659.912	79.2735	659.912	81.8199	659.912	80.8351
683.35	89.1767	683.35	88.806	683.35	89.2854	683.35	88.2173	683.35	89.0904	683.35	87.442	683.35	88.5766	683.35	86.5068	683.35	87.7739	683.35	85.4577	683.35	86.7649	683.35	84.3835	683.35	85.6884	683.35	83.4103	683.35	84.7237	683.35	82.6328	683.35	84.0083	683.35	82.0222	683.35	83.4973	683.35	81.4631	683.35	82.9448	683.35	80.9228	683.35	82.0739	683.35	80.4935	683.35	80.8192	683.35	80.1263	683.35	79.7213	683.35	79.4943	683.35	79.9272	683.35	78.5293	683.35	81.2886	683.35	78.382	683.35	82.4715	683.35	80.0192	683.35	82.7353	683.35	81.8599
706.787	90.6337	706.787	90.1913	706.787	90.7836	706.787	89.4889	706.787	90.6129	706.787	88.559	706.787	90.1106	706.787	87.4448	706.787	89.2974	706.787	86.22	706.787	88.2465	706.787	85.0028	706.787	87.103	706.787	83.9447	706.787	86.0583	706.787	83.1789	706.787	85.2323	706.787	82.7255	706.787	84.5668	706.787	82.4347	706.787	83.8871	706.787	82.0828	706.787	83.0374	706.787	81.5501	706.787	82.0223	706.787	80.8975	706.787	81.3448	706.787	80.2521	706.787	81.9432	706.787	79.7641	706.787	83.4618	706.787	80.031	706.787	84.5783	706.787	81.5953	706.787	84.6211	706.787	83.4983
731.689	90.9786	731.689	90.5393	731.689	91.1668	731.689	89.8768	731.689	91.0761	731.689	89.0078	731.689	90.6926	731.689	87.9558	731.689	90.013	731.689	86.7949	731.689	89.0466	731.689	85.6693	731.689	87.8664	731.689	84.7279	731.689	86.6965	731.689	84.0038	731.689	85.8369	731.689	83.4125	731.689	85.2837	731.689	82.9036	731.689	84.646	731.689	82.556	731.689	83.6037	731.689	82.4478	731.689	82.311	731.689	82.4072	731.689	81.6353	731.689	82.0089	731.689	82.3467	731.689	80.9167	731.689	83.7101	731.689	79.7707	731.689	84.6119	731.689	80.7451	731.689	84.4575	731.689	83.0249
758.057	91.2141	758.057	90.8196	758.057	91.3577	758.057	90.1643	758.057	91.2266	758.057	89.217	758.057	90.7879	758.057	87.9726	758.057	90.024	758.057	86.4998	758.057	88.9379	758.057	84.9768	758.057	87.5775	758.057	83.7021	758.057	86.1204	758.057	82.9292	758.057	84.9379	758.057	82.5229	758.057	84.2946	758.057	82.0243	758.057	83.8868	758.057	81.144	758.057	83.1215	758.057	80.1554	758.057	81.6813	758.057	79.7963	758.057	80.1788	758.057	80.0526	758.057	80.6211	758.057	80.171	758.057	82.6439	758.057	80.3144	758.057	84.1277	758.057	81.5241	758.057	84.3583	758.057	83.3159
784.424	90.7315	784.424	90.4107	784.424	90.9211	784.424	89.8582	784.424	91.0004	784.424	88.9639	784.424	90.8888	784.424	87.6751	784.424	90.4504	784.424	86.0395	784.424	89.5823	784.424	84.2538	784.424	88.3035	784.424	82.7666	784.424	86.822	784.424	82.1698	784.424	85.5026	784.424	82.4267	784.424	84.6155	784.424	82.7874	784.424	84.0578	784.424	82.6647	784.424	83.4161	784.424	81.8886	784.424	82.2373	784.424	80.6478	784.424	80.5708	784.424	79.4129	784.424	80.4466	784.424	78.5673	784.424	82.8063	784.424	78.8026	784.424	84.7317	784.424	81.0591	784.424	85.0493	784.424	83.6861
812.256	90.3896	812.256	90.0525	812.256	90.4467	812.256	89.3772	812.256	90.308	812.256	88.3721	812.256	90.0377	812.256	87.1236	812.256	89.6289	812.256	85.7211	812.256	88.9809	812.256	84.1174	812.256	87.9535	812.256	82.1357	812.256	86.5043	812.256	79.8901	812.256	84.9119	812.256	78.7442	812.256	83.8767	812.256	79.8752	812.256	83.6625	812.256	81.4757	812.256	83.4422	812.256	82.1902	812.256	82.3582	812.256	81.7886	812.256	80.2906	812.256	80.5746	812.256	79.2422	812.256	79.167	812.256	81.0709	812.256	77.936	812.256	82.6804	812.256	78.1652	812.256	82.551	812.256	80.6288
840.82	89.9113	840.82	89.3935	840.82	90.154	840.82	88.6505	840.82	90.1251	840.82	87.8021	840.82	89.8687	840.82	87.0095	840.82	89.4202	840.82	86.3293	840.82	88.7418	840.82	85.5924	840.82	87.7478	840.82	84.512	840.82	86.4098	840.82	82.8817	840.82	84.8359	840.82	80.8125	840.82	83.3611	840.82	79.2464	840.82	82.5543	840.82	79.4144	840.82	82.4889	840.82	80.4202	840.82	82.3039	840.82	80.8241	840.82	81.2141	840.82	79.9998	840.82	79.4921	840.82	77.7173	840.82	79.3142	840.82	75.1847	840.82	80.6038	840.82	76.6476	840.82	80.9131	840.82	79.5164
870.85	90.4347	870.85	89.7795	870.85	90.6594	870.85	88.7924	870.85	90.4603	870.85	87.7038	870.85	89.9427	870.85	86.797	870.85	89.2792	870.85	86.2005	870.85	88.5494	870.85	85.8025	870.85	87.6544	870.85	85.3383	870.85	86.5094	870.85	84.4752	870.85	85.2155	870.85	82.8539	870.85	83.9589	870.85	80.1827	870.85	82.8148	870.85	77.3675	870.85	81.8068	870.85	78.1323	870.85	81.0248	870.85	80.3062	870.85	80.4293	870.85	80.9381	870.85	80.0872	870.85	79.7141	870.85	80.6007	870.85	77.1141	870.85	81.5707	870.85	76.7185	870.85	81.5198	870.85	79.6574
901.611	90.1315	901.611	89.4037	901.611	90.487	901.611	88.4319	901.611	90.4607	901.611	87.451	901.611	90.1196	901.611	86.6175	901.611	89.5603	901.611	85.8647	901.611	88.8015	901.611	85.117	901.611	87.7068	901.611	84.5241	901.611	86.1509	901.611	84.1996	901.611	84.442	901.611	83.7929	901.611	83.4758	901.611	82.7053	901.611	83.3669	901.611	80.6573	901.611	83.078	901.611	78.9923	901.611	81.904	901.611	80.1166	901.611	79.7713	901.611	81.5588	901.611	78.4741	901.611	81.194	901.611	80.316	901.611	78.377	901.611	81.9662	901.611	75.0052	901.611	81.5267	901.611	78.5354
933.105	90.1811	933.105	89.1893	933.105	90.6214	933.105	88.1631	933.105	90.3689	933.105	87.6249	933.105	89.639	933.105	87.4264	933.105	88.866	933.105	86.9774	933.105	88.2737	933.105	85.8712	933.105	87.5766	933.105	84.1559	933.105	86.3291	933.105	82.7014	933.105	84.3586	933.105	82.535	933.105	82.4773	933.105	82.7285	933.105	82.3732	933.105	81.8033	933.105	83.0401	933.105	79.2584	933.105	82.8282	933.105	77.8217	933.105	81.3931	933.105	80.1977	933.105	79.388	933.105	81.7599	933.105	79.9437	933.105	81.0799	933.105	81.7021	933.105	78.0556	933.105	81.041	933.105	77.6898
966.064	88.4429	966.064	87.4839	966.064	89.3997	966.064	87.1377	966.064	89.7537	966.064	87.3094	966.064	89.3657	966.064	87.5473	966.064	88.5729	966.064	87.5284	966.064	87.9314	966.064	87.005	966.064	87.4559	966.064	85.8216	966.064	86.634	966.064	84.1231	966.064	85.2021	966.064	82.5702	966.064	83.4745	966.064	81.7948	966.064	82.3967	966.064	81.1974	966.064	82.4282	966.064	79.6058	966.064	82.353	966.064	76.9271	966.064	80.8845	966.064	76.9935	966.064	78.1334	966.064	79.1445	966.064	78.6175	966.064	79.1242	966.064	80.8544	966.064	76.751	966.064	80.5313	966.064	77.4942
999.756	87.1967	999.756	87.4625	999.756	87.8391	999.756	88.3531	999.756	88.3783	999.756	88.9687	999.756	88.1754	999.756	88.9755	999.756	87.5671	999.756	88.3983	999.756	87.2874	999.756	87.3811	999.756	87.1935	999.756	86.1745	999.756	86.6368	999.756	85.1245	999.756	85.5642	999.756	84.3135	999.756	84.4305	999.756	83.2868	999.756	83.5971	999.756	81.6677	999.756	83.2669	999.756	80.1664	999.756	83.2163	999.756	79.9785	999.756	82.6104	999.756	80.3358	999.756	80.9786	999.756	80.5223	999.756	79.9056	999.756	80.2486	999.756	80.5763	999.756	78.2851	999.756	79.4387	999.756	76.4137
1,034.91	88.9252	1,034.91	89.9469	1,034.91	87.8139	1,034.91	90.4389	1,034.91	86.9312	1,034.91	90.2606	1,034.91	85.8399	1,034.91	89.4172	1,034.91	84.1438	1,034.91	87.9295	1,034.91	82.7881	1,034.91	85.8794	1,034.91	82.8404	1,034.91	83.535	1,034.91	82.8279	1,034.91	81.4249	1,034.91	81.7224	1,034.91	80.3979	1,034.91	80.5414	1,034.91	80.82	1,034.91	80.7019	1,034.91	81.3601	1,034.91	81.0859	1,034.91	80.6246	1,034.91	80.2776	1,034.91	78.3599	1,034.91	77.7215	1,034.91	77.3073	1,034.91	74.9335	1,034.91	79.1406	1,034.91	75.8385	1,034.91	79.9094	1,034.91	76.7307	1,034.91	78.6289	1,034.91	75.98	1,034.91	76.2885
1,071.53	89.7974	1,071.53	89.799	1,071.53	89.6553	1,071.53	89.3292	1,071.53	89.3843	1,071.53	88.2387	1,071.53	88.4838	1,071.53	86.6788	1,071.53	86.4689	1,071.53	84.9308	1,071.53	83.5022	1,071.53	83.0354	1,071.53	81.3256	1,071.53	80.6103	1,071.53	80.956	1,071.53	77.8171	1,071.53	79.9727	1,071.53	76.8588	1,071.53	77.2292	1,071.53	77.4982	1,071.53	75.0592	1,071.53	77.7046	1,071.53	76.464	1,071.53	77.2397	1,071.53	78.0721	1,071.53	76.7914	1,071.53	78.2903	1,071.53	77.9266	1,071.53	75.9732	1,071.53	79.6941	1,071.53	71.0713	1,071.53	80.3478	1,071.53	74.5156	1,071.53	79.6253	1,071.53	77.1982	1,071.53	78.2381
1,109.62	89.3473	1,109.62	89.08	1,109.62	89.36	1,109.62	88.2582	1,109.62	89.3898	1,109.62	86.9811	1,109.62	89.128	1,109.62	85.7018	1,109.62	88.0213	1,109.62	84.7159	1,109.62	85.9988	1,109.62	83.7295	1,109.62	83.7604	1,109.62	82.1501	1,109.62	82.032	1,109.62	79.4958	1,109.62	80.5052	1,109.62	76.0392	1,109.62	78.3687	1,109.62	75.1761	1,109.62	75.282	1,109.62	76.5722	1,109.62	75.0044	1,109.62	76.4268	1,109.62	77.3002	1,109.62	74.8848	1,109.62	78.0762	1,109.62	73.8738	1,109.62	76.9207	1,109.62	75.2047	1,109.62	75.4761	1,109.62	77.8504	1,109.62	76.4998	1,109.62	78.6223	1,109.62	77.2544	1,109.62	77.6684
1,148.44	88.6779	1,148.44	88.1874	1,148.44	88.7158	1,148.44	87.2153	1,148.44	88.7328	1,148.44	86.3113	1,148.44	88.5253	1,148.44	85.672	1,148.44	87.432	1,148.44	84.9374	1,148.44	85.3514	1,148.44	83.9516	1,148.44	83.2315	1,148.44	82.7263	1,148.44	81.8469	1,148.44	81.0235	1,148.44	80.1507	1,148.44	78.2088	1,148.44	77.816	1,148.44	74.8743	1,148.44	75.2335	1,148.44	76.1963	1,148.44	72.9209	1,148.44	78.1331	1,148.44	75.1579	1,148.44	77.9308	1,148.44	78.1725	1,148.44	77.1596	1,148.44	78.3417	1,148.44	76.8267	1,148.44	76.7166	1,148.44	76.9965	1,148.44	77.6879	1,148.44	77.6689	1,148.44	78.5891	1,148.44	78.0583
1,189.45	87.5757	1,189.45	86.9385	1,189.45	87.6723	1,189.45	86.0889	1,189.45	87.3572	1,189.45	85.3498	1,189.45	86.9089	1,189.45	84.5863	1,189.45	86.0722	1,189.45	83.6494	1,189.45	84.4185	1,189.45	82.7207	1,189.45	82.2265	1,189.45	81.917	1,189.45	80.2677	1,189.45	81.0184	1,189.45	78.4951	1,189.45	79.7759	1,189.45	77.1441	1,189.45	77.8511	1,189.45	76.2648	1,189.45	74.6446	1,189.45	75.2599	1,189.45	71.6158	1,189.45	75.0417	1,189.45	72.2421	1,189.45	75.0788	1,189.45	73.5912	1,189.45	74.3819	1,189.45	74.1976	1,189.45	74.2526	1,189.45	73.7775	1,189.45	75.3051	1,189.45	74.6574	1,189.45	75.8393	1,189.45	75.6591
1,231.2	86.6032	1,231.2	85.8302	1,231.2	86.7514	1,231.2	85.0408	1,231.2	86.3414	1,231.2	84.4217	1,231.2	85.8576	1,231.2	83.513	1,231.2	85.1349	1,231.2	82.2997	1,231.2	83.5894	1,231.2	81.2436	1,231.2	81.279	1,231.2	80.4564	1,231.2	79.4651	1,231.2	79.627	1,231.2	78.2546	1,231.2	78.6694	1,231.2	75.8329	1,231.2	77.6202	1,231.2	72.2093	1,231.2	76.6533	1,231.2	71.7014	1,231.2	75.7949	1,231.2	72.8111	1,231.2	73.3686	1,231.2	73.1679	1,231.2	71.4057	1,231.2	73.1611	1,231.2	74.8959	1,231.2	73.0762	1,231.2	75.3479	1,231.2	74.2353	1,231.2	73.3862	1,231.2	74.6363	1,231.2	73.4201
1,274.41	85.1674	1,274.41	84.544	1,274.41	85.4753	1,274.41	83.9858	1,274.41	85.1769	1,274.41	83.2952	1,274.41	84.5275	1,274.41	82.2095	1,274.41	83.6118	1,274.41	80.9068	1,274.41	81.9975	1,274.41	79.8322	1,274.41	79.8819	1,274.41	79.0986	1,274.41	78.2646	1,274.41	77.998	1,274.41	76.5381	1,274.41	75.8519	1,274.41	74.7149	1,274.41	74.4664	1,274.41	73.3968	1,274.41	75.1371	1,274.41	71.9694	1,274.41	74.9456	1,274.41	73.8811	1,274.41	73.3957	1,274.41	75.9708	1,274.41	72.2747	1,274.41	74.3025	1,274.41	72.6781	1,274.41	70.2335	1,274.41	72.5034	1,274.41	72.2086	1,274.41	71.7657	1,274.41	73.3607	1,274.41	72.3736
1,319.82	83.4233	1,319.82	83.0832	1,319.82	83.5295	1,319.82	82.6829	1,319.82	83.2862	1,319.82	81.983	1,319.82	82.7875	1,319.82	80.6518	1,319.82	82.0826	1,319.82	78.8949	1,319.82	80.7636	1,319.82	77.1854	1,319.82	78.6877	1,319.82	75.8984	1,319.82	76.8568	1,319.82	75.2097	1,319.82	75.0161	1,319.82	74.3416	1,319.82	72.002	1,319.82	72.6784	1,319.82	69.2661	1,319.82	72.2319	1,319.82	68.3555	1,319.82	73.6454	1,319.82	70.7203	1,319.82	72.6079	1,319.82	72.7353	1,319.82	67.3873	1,319.82	72.025	1,319.82	70.391	1,319.82	70.0167	1,319.82	71.7473	1,319.82	70.3613	1,319.82	68.2156	1,319.82	71.1194	1,319.82	69.1292
1,365.97	81.2567	1,365.97	81.0664	1,365.97	81.592	1,365.97	80.9847	1,365.97	81.593	1,365.97	80.2837	1,365.97	81.2104	1,365.97	78.8859	1,365.97	80.6918	1,365.97	77.6188	1,365.97	79.639	1,365.97	76.6376	1,365.97	77.44	1,365.97	74.9979	1,365.97	74.8557	1,365.97	72.3848	1,365.97	73.2552	1,365.97	71.203	1,365.97	72.0462	1,365.97	70.9396	1,365.97	70.726	1,365.97	69.5671	1,365.97	68.1335	1,365.97	70.9826	1,365.97	66.8889	1,365.97	73.0789	1,365.97	71.2732	1,365.97	70.5227	1,365.97	71.8609	1,365.97	66.3035	1,365.97	67.7252	1,365.97	70.9088	1,365.97	66.6698	1,365.97	69.6962	1,365.97	68.4944	1,365.97	66.7939
1,414.31	78.8583	1,414.31	78.811	1,414.31	79.3749	1,414.31	79.1106	1,414.31	79.5692	1,414.31	78.8686	1,414.31	79.3908	1,414.31	78.1293	1,414.31	79.0643	1,414.31	77.1696	1,414.31	77.8928	1,414.31	75.7238	1,414.31	75.1104	1,414.31	73.5512	1,414.31	72.6766	1,414.31	70.4871	1,414.31	72.3583	1,414.31	66.1017	1,414.31	70.2629	1,414.31	63.4362	1,414.31	67.2861	1,414.31	66.0826	1,414.31	66.0526	1,414.31	67.9655	1,414.31	65.702	1,414.31	70.3729	1,414.31	69.0706	1,414.31	70.0207	1,414.31	68.9452	1,414.31	65.9306	1,414.31	66.6906	1,414.31	68.0216	1,414.31	66.9777	1,414.31	68.0583	1,414.31	65.9856	1,414.31	63.9623
1,464.11	78.2683	1,464.11	78.2937	1,464.11	78.5331	1,464.11	78.5328	1,464.11	78.9189	1,464.11	78.4945	1,464.11	78.8504	1,464.11	77.8691	1,464.11	78.3459	1,464.11	76.7036	1,464.11	77.5748	1,464.11	75.0213	1,464.11	75.7175	1,464.11	73.1226	1,464.11	72.9167	1,464.11	71.5075	1,464.11	70.5696	1,464.11	69.6536	1,464.11	68.8811	1,464.11	65.4269	1,464.11	68.7584	1,464.11	58.7796	1,464.11	68.2053	1,464.11	63.213	1,464.11	67.7789	1,464.11	68.2531	1,464.11	67.9461	1,464.11	69.3492	1,464.11	66.5926	1,464.11	65.7122	1,464.11	64.5802	1,464.11	66.0006	1,464.11	63.7849	1,464.11	67.1308	1,464.11	63.7798	1,464.11	63.5863
1,515.38	78.6145	1,515.38	78.8918	1,515.38	79.0311	1,515.38	79.1512	1,515.38	79.2404	1,515.38	78.6245	1,515.38	78.9046	1,515.38	77.7424	1,515.38	78.4924	1,515.38	76.5108	1,515.38	78.174	1,515.38	74.646	1,515.38	76.7755	1,515.38	72.6331	1,515.38	73.828	1,515.38	71.4603	1,515.38	71.4676	1,515.38	71.5893	1,515.38	68.8173	1,515.38	71.261	1,515.38	65.6743	1,515.38	69.3207	1,515.38	65.2645	1,515.38	64.8041	1,515.38	65.5231	1,515.38	63.1031	1,515.38	68.852	1,515.38	68.1204	1,515.38	69.2882	1,515.38	66.1454	1,515.38	64.7759	1,515.38	67.5268	1,515.38	63.3151	1,515.38	68.4295	1,515.38	64.4502	1,515.38	64.0675
1,568.85	79.7668	1,568.85	80.1342	1,568.85	79.7738	1,568.85	79.899	1,568.85	79.8031	1,568.85	79.4871	1,568.85	79.8333	1,568.85	79.205	1,568.85	79.5697	1,568.85	77.4883	1,568.85	79.0581	1,568.85	74.8061	1,568.85	78.109	1,568.85	73.7256	1,568.85	75.0545	1,568.85	73.6143	1,568.85	70.9627	1,568.85	72.9196	1,568.85	67.876	1,568.85	71.6547	1,568.85	67.3193	1,568.85	71.3077	1,568.85	69.7337	1,568.85	70.16	1,568.85	67.1075	1,568.85	60.8135	1,568.85	70.2236	1,568.85	66.8925	1,568.85	70.4687	1,568.85	68.7396	1,568.85	65.1063	1,568.85	67.4536	1,568.85	64.2154	1,568.85	67.4831	1,568.85	64.8211	1,568.85	64.584
1,624.51	80.5684	1,624.51	81.3575	1,624.51	80.0042	1,624.51	81.4653	1,624.51	80.8434	1,624.51	81.1786	1,624.51	81.3169	1,624.51	80.1697	1,624.51	80.5125	1,624.51	78.3451	1,624.51	79.2602	1,624.51	76.2083	1,624.51	77.7241	1,624.51	74.5878	1,624.51	75.0291	1,624.51	74.3956	1,624.51	73.2623	1,624.51	73.5017	1,624.51	72.9419	1,624.51	69.8671	1,624.51	71.5472	1,624.51	65.1947	1,624.51	70.1068	1,624.51	71.5337	1,624.51	68.657	1,624.51	70.2295	1,624.51	68.959	1,624.51	56.0232	1,624.51	69.3175	1,624.51	66.871	1,624.51	66.0258	1,624.51	66.7776	1,624.51	63.1055	1,624.51	69.7035	1,624.51	63.5324	1,624.51	67.3875
1,681.64	81.2708	1,681.64	82.4276	1,681.64	80.5339	1,681.64	82.7431	1,681.64	81.1355	1,681.64	82.0726	1,681.64	81.9154	1,681.64	80.6671	1,681.64	81.7291	1,681.64	79.2879	1,681.64	80.3487	1,681.64	77.8749	1,681.64	78.5031	1,681.64	75.6141	1,681.64	76.5502	1,681.64	73.1696	1,681.64	74.6339	1,681.64	71.1165	1,681.64	71.4068	1,681.64	70.5127	1,681.64	65.8141	1,681.64	66.7165	1,681.64	69.0786	1,681.64	66.2204	1,681.64	70.1127	1,681.64	71.4357	1,681.64	69.3786	1,681.64	68.3397	1,681.64	70.8773	1,681.64	65.6799	1,681.64	69.7392	1,681.64	68.0572	1,681.64	63.2893	1,681.64	67.6188	1,681.64	61.6144	1,681.64	65.7565
1,740.97	82.3783	1,740.97	83.3447	1,740.97	81.6843	1,740.97	83.3816	1,740.97	81.3606	1,740.97	82.3711	1,740.97	81.9328	1,740.97	81.63	1,740.97	82.5815	1,740.97	80.8104	1,740.97	81.6255	1,740.97	78.418	1,740.97	79.6696	1,740.97	75.2507	1,740.97	77.8421	1,740.97	73.4288	1,740.97	74.6881	1,740.97	68.5132	1,740.97	71.349	1,740.97	61.8208	1,740.97	70.0498	1,740.97	65.2195	1,740.97	69.1242	1,740.97	59.3335	1,740.97	67.9263	1,740.97	70.9096	1,740.97	67.9674	1,740.97	71.8075	1,740.97	71.2397	1,740.97	64.8254	1,740.97	69.2026	1,740.97	68.6663	1,740.97	63.2101	1,740.97	69.9876	1,740.97	64.1381	1,740.97	67.4742
1,802.49	84.4769	1,802.49	84.6639	1,802.49	83.0446	1,802.49	83.8337	1,802.49	81.8246	1,802.49	83.0514	1,802.49	82.1605	1,802.49	81.9314	1,802.49	83.1364	1,802.49	80.3706	1,802.49	82.0267	1,802.49	78.9793	1,802.49	79.6488	1,802.49	76.6223	1,802.49	78.5261	1,802.49	73.8842	1,802.49	75.969	1,802.49	75.0346	1,802.49	74.4975	1,802.49	73.9334	1,802.49	73.2005	1,802.49	71.4887	1,802.49	69.6971	1,802.49	68.8068	1,802.49	69.2044	1,802.49	66.1072	1,802.49	68.1766	1,802.49	72.9217	1,802.49	73.1497	1,802.49	71.8068	1,802.49	70.2244	1,802.49	69.1434	1,802.49	65.8014	1,802.49	72.3155	1,802.49	63.9423	1,802.49	68.3073
1,866.21	85.0448	1,866.21	85.6284	1,866.21	82.8493	1,866.21	84.3124	1,866.21	82.0427	1,866.21	83.1808	1,866.21	82.292	1,866.21	82.24	1,866.21	83.522	1,866.21	80.3926	1,866.21	83.4149	1,866.21	79.002	1,866.21	80.3731	1,866.21	79.3439	1,866.21	78.0699	1,866.21	77.8433	1,866.21	76.246	1,866.21	75.4792	1,866.21	74.3182	1,866.21	75.5173	1,866.21	74.07	1,866.21	75.9404	1,866.21	70.7583	1,866.21	75.5038	1,866.21	72.4288	1,866.21	67.2025	1,866.21	69.3576	1,866.21	71.2915	1,866.21	72.9636	1,866.21	70.5574	1,866.21	70.8577	1,866.21	68.8667	1,866.21	63.4841	1,866.21	71.702	1,866.21	65.0118	1,866.21	69.7176
1,932.13	84.9111	1,932.13	85.018	1,932.13	83.5297	1,932.13	84.3571	1,932.13	82.4033	1,932.13	83.8023	1,932.13	82.4863	1,932.13	82.5644	1,932.13	83.2825	1,932.13	81.1682	1,932.13	83.8462	1,932.13	80.1007	1,932.13	81.5078	1,932.13	78.2537	1,932.13	77.2844	1,932.13	76.8615	1,932.13	75.9645	1,932.13	75.3823	1,932.13	74.3883	1,932.13	73.6739	1,932.13	75.637	1,932.13	71.5341	1,932.13	72.9993	1,932.13	74.2439	1,932.13	70.4243	1,932.13	71.7031	1,932.13	70.5993	1,932.13	60.9237	1,932.13	72.2032	1,932.13	68.2079	1,932.13	72.2035	1,932.13	69.2624	1,932.13	65.9788	1,932.13	70.1042	1,932.13	66.1816	1,932.13	68.6722
2,000.24	85.404	2,000.24	84.5987	2,000.24	84.7863	2,000.24	83.8501	2,000.24	83.3353	2,000.24	82.9549	2,000.24	82.3785	2,000.24	81.8883	2,000.24	82.5003	2,000.24	81.9481	2,000.24	82.822	2,000.24	81.3162	2,000.24	80.832	2,000.24	79.3722	2,000.24	78.064	2,000.24	76.1854	2,000.24	76.1608	2,000.24	73.3369	2,000.24	74.6772	2,000.24	70.6037	2,000.24	76.4297	2,000.24	62.5352	2,000.24	75.3488	2,000.24	68.9357	2,000.24	72.8805	2,000.24	73.6665	2,000.24	73.4668	2,000.24	70.5947	2,000.24	73.891	2,000.24	67.082	2,000.24	73.3733	2,000.24	68.2623	2,000.24	67.3966	2,000.24	70.8436	2,000.24	62.5204	2,000.24	67.1361
2,070.56	85.7972	2,070.56	84.2323	2,070.56	85.8528	2,070.56	83.7653	2,070.56	84.14	2,070.56	83.9886	2,070.56	83.1056	2,070.56	85.0001	2,070.56	82.5057	2,070.56	84.5025	2,070.56	82.7698	2,070.56	82.0611	2,070.56	81.4716	2,070.56	78.6252	2,070.56	77.6829	2,070.56	75.019	2,070.56	75.6225	2,070.56	73.6277	2,070.56	75.9876	2,070.56	72.4034	2,070.56	75.9367	2,070.56	72.4097	2,070.56	73.5546	2,070.56	67.0151	2,070.56	73.5756	2,070.56	68.607	2,070.56	72.5314	2,070.56	72.9313	2,070.56	70.3894	2,070.56	72.2274	2,070.56	67.2576	2,070.56	69.6656	2,070.56	59.085	2,070.56	72.9446	2,070.56	58.4359	2,070.56	71.0898
2,143.8	84.1693	2,143.8	84.3678	2,143.8	84.9747	2,143.8	84.6704	2,143.8	84.2686	2,143.8	84.7027	2,143.8	83.6679	2,143.8	84.9222	2,143.8	83.4249	2,143.8	83.1173	2,143.8	82.4696	2,143.8	79.0817	2,143.8	81.4352	2,143.8	76.6003	2,143.8	77.9885	2,143.8	75.3557	2,143.8	76.358	2,143.8	73.4969	2,143.8	74.6023	2,143.8	72.1099	2,143.8	71.872	2,143.8	73.2387	2,143.8	72.8466	2,143.8	73.6668	2,143.8	70.2654	2,143.8	67.8795	2,143.8	69.7267	2,143.8	70.6982	2,143.8	68.5644	2,143.8	69.6435	2,143.8	67.0814	2,143.8	67.6744	2,143.8	62.3487	2,143.8	70.971	2,143.8	61.1324	2,143.8	68.9508
2,219.24	83.4925	2,219.24	84.0909	2,219.24	84.403	2,219.24	84.6088	2,219.24	84.6037	2,219.24	84.7395	2,219.24	83.4721	2,219.24	84.0729	2,219.24	82.7544	2,219.24	81.5841	2,219.24	82.4265	2,219.24	78.4907	2,219.24	81.5798	2,219.24	76.6577	2,219.24	77.3249	2,219.24	74.1025	2,219.24	73.6839	2,219.24	71.8953	2,219.24	75.8643	2,219.24	73.0066	2,219.24	69.1329	2,219.24	72.8165	2,219.24	68.569	2,219.24	73.2922	2,219.24	68.4863	2,219.24	69.9143	2,219.24	67.8399	2,219.24	69.5397	2,219.24	65.7305	2,219.24	66.0382	2,219.24	69.8931	2,219.24	66.4512	2,219.24	59.9498	2,219.24	69.3105	2,219.24	58.8692	2,219.24	71.2375
2,297.61	84.298	2,297.61	84.2208	2,297.61	83.9965	2,297.61	84.4106	2,297.61	83.3433	2,297.61	85.0937	2,297.61	82.1471	2,297.61	83.7495	2,297.61	82.6045	2,297.61	81.0839	2,297.61	81.645	2,297.61	78.4318	2,297.61	80.2109	2,297.61	76.2008	2,297.61	78.3152	2,297.61	75.9029	2,297.61	73.0395	2,297.61	72.2041	2,297.61	74.1867	2,297.61	68.0224	2,297.61	73.6802	2,297.61	62.7415	2,297.61	63.6207	2,297.61	66.7676	2,297.61	68.2842	2,297.61	60.0067	2,297.61	72.1979	2,297.61	67.5635	2,297.61	69.3538	2,297.61	67.7005	2,297.61	70.9755	2,297.61	67.1507	2,297.61	57.4553	2,297.61	63.5947	2,297.61	53.3762	2,297.61	67.9044
2,378.17	85.0305	2,378.17	84.8145	2,378.17	84.2442	2,378.17	84.6073	2,378.17	83.388	2,378.17	84.3252	2,378.17	82.5247	2,378.17	82.7515	2,378.17	82.482	2,378.17	80.3405	2,378.17	81.6894	2,378.17	78.3733	2,378.17	79.9715	2,378.17	76.1205	2,378.17	77.6469	2,378.17	74.1705	2,378.17	72.1406	2,378.17	69.042	2,378.17	72.3633	2,378.17	62.2905	2,378.17	73.4965	2,378.17	69.4776	2,378.17	67.3938	2,378.17	63.5509	2,378.17	66.6635	2,378.17	67.5439	2,378.17	71.0762	2,378.17	58.6756	2,378.17	69.7006	2,378.17	68.1906	2,378.17	66.584	2,378.17	67.3456	2,378.17	59.7337	2,378.17	67.1037	2,378.17	59.9465	2,378.17	68.0019
2,462.4	84.5264	2,462.4	84.3999	2,462.4	84.3249	2,462.4	84.5183	2,462.4	84.199	2,462.4	83.3711	2,462.4	82.1381	2,462.4	81.8593	2,462.4	81.5111	2,462.4	80.7234	2,462.4	81.4594	2,462.4	76.9034	2,462.4	80.111	2,462.4	74.0898	2,462.4	78.7274	2,462.4	73.6383	2,462.4	71.7676	2,462.4	72.1617	2,462.4	64.9089	2,462.4	67.3701	2,462.4	68.7907	2,462.4	66.7228	2,462.4	70.5134	2,462.4	63.8787	2,462.4	66.3631	2,462.4	65.1223	2,462.4	69.1476	2,462.4	64.9641	2,462.4	67.5879	2,462.4	67.04	2,462.4	67.9392	2,462.4	67.4578	2,462.4	54.1718	2,462.4	66.9675	2,462.4	58.7419	2,462.4	68.4784
2,548.83	84.1472	2,548.83	83.5322	2,548.83	83.9012	2,548.83	83.9136	2,548.83	83.3229	2,548.83	83.3769	2,548.83	82.8722	2,548.83	81.9703	2,548.83	80.9934	2,548.83	79.271	2,548.83	81.0577	2,548.83	76.9556	2,548.83	79.0392	2,548.83	74.7614	2,548.83	77.1068	2,548.83	71.7804	2,548.83	73.2788	2,548.83	70.9666	2,548.83	65.1267	2,548.83	69.6254	2,548.83	67.5691	2,548.83	67.8014	2,548.83	71.5238	2,548.83	64.869	2,548.83	67.4035	2,548.83	64.0568	2,548.83	67.9701	2,548.83	65.9162	2,548.83	66.6919	2,548.83	66.2446	2,548.83	68.7151	2,548.83	66.6348	2,548.83	56.171	2,548.83	66.2335	2,548.83	55.4963	2,548.83	64.5806
2,638.92	84.1714	2,638.92	83.591	2,638.92	84.5015	2,638.92	83.03	2,638.92	82.9845	2,638.92	82.9892	2,638.92	82.341	2,638.92	81.668	2,638.92	80.8308	2,638.92	78.7698	2,638.92	79.4389	2,638.92	77.328	2,638.92	78.1576	2,638.92	75.4135	2,638.92	75.775	2,638.92	73.3179	2,638.92	74.5988	2,638.92	70.9857	2,638.92	70.8862	2,638.92	68.6822	2,638.92	66.5793	2,638.92	65.0611	2,638.92	70.1466	2,638.92	64.9219	2,638.92	70.299	2,638.92	63.4981	2,638.92	65.3494	2,638.92	64.4174	2,638.92	67.2352	2,638.92	65.3473	2,638.92	66.9138	2,638.92	66.3663	2,638.92	52.2245	2,638.92	66.5448	2,638.92	54.5922	2,638.92	65.2848
2,731.93	83.8812	2,731.93	83.7648	2,731.93	84.596	2,731.93	83.336	2,731.93	83.6279	2,731.93	82.3854	2,731.93	81.7212	2,731.93	80.8318	2,731.93	81.4165	2,731.93	79.1691	2,731.93	79.2269	2,731.93	76.4359	2,731.93	77.4935	2,731.93	73.6812	2,731.93	73.5737	2,731.93	72.07	2,731.93	71.506	2,731.93	69.5393	2,731.93	70.6302	2,731.93	65.1405	2,731.93	68.1197	2,731.93	66.5989	2,731.93	68.4725	2,731.93	62.7223	2,731.93	69.9489	2,731.93	62.0919	2,731.93	66.9573	2,731.93	64.2549	2,731.93	68.0571	2,731.93	65.4439	2,731.93	66.4481	2,731.93	66.3074	2,731.93	57.8041	2,731.93	66.2631	2,731.93	55.35	2,731.93	65.2987
2,828.61	84.2421	2,828.61	83.7464	2,828.61	84.618	2,828.61	83.8644	2,828.61	84.1828	2,828.61	82.5221	2,828.61	81.7592	2,828.61	80.4837	2,828.61	81.0239	2,828.61	78.2372	2,828.61	79.5809	2,828.61	76.286	2,828.61	77.045	2,828.61	73.9774	2,828.61	73.6343	2,828.61	70.9885	2,828.61	71.132	2,828.61	70.1415	2,828.61	73.2887	2,828.61	68.3617	2,828.61	66.8985	2,828.61	67.1072	2,828.61	68.1256	2,828.61	63.8862	2,828.61	69.0014	2,828.61	64.0608	2,828.61	66.1471	2,828.61	64.319	2,828.61	67.8858	2,828.61	65.1065	2,828.61	66.5321	2,828.61	66.2378	2,828.61	58.1199	2,828.61	66.1608	2,828.61	53.4633	2,828.61	65.6382
2,928.22	84.1747	2,928.22	84.2748	2,928.22	84.9557	2,928.22	83.9747	2,928.22	84.7043	2,928.22	82.4652	2,928.22	82.125	2,928.22	80.3426	2,928.22	80.4735	2,928.22	78.7017	2,928.22	79.5073	2,928.22	76.8466	2,928.22	76.8365	2,928.22	74.4231	2,928.22	74.1761	2,928.22	73.6517	2,928.22	72.0161	2,928.22	72.2936	2,928.22	71.8607	2,928.22	68.7691	2,928.22	68.5381	2,928.22	66.2476	2,928.22	54.4447	2,928.22	63.9358	2,928.22	68.3641	2,928.22	60.9631	2,928.22	65.1196	2,928.22	64.7815	2,928.22	66.8122	2,928.22	65.7044	2,928.22	61.8219	2,928.22	66.451	2,928.22	60.3421	2,928.22	64.195	2,928.22	51.7433	2,928.22	66.6255
3,031.49	84.4605	3,031.49	84.7615	3,031.49	84.5029	3,031.49	83.779	3,031.49	85.0113	3,031.49	81.9908	3,031.49	82.9695	3,031.49	80.4263	3,031.49	80.4311	3,031.49	78.6312	3,031.49	79.0092	3,031.49	76.651	3,031.49	76.6002	3,031.49	76.322	3,031.49	75.1672	3,031.49	73.285	3,031.49	72.2424	3,031.49	69.1209	3,031.49	67.922	3,031.49	67.315	3,031.49	66.0573	3,031.49	66.8509	3,031.49	62.0679	3,031.49	66.6299	3,031.49	64.1007	3,031.49	61.0285	3,031.49	65.2369	3,031.49	64.4113	3,031.49	66.2837	3,031.49	65.6291	3,031.49	64.5005	3,031.49	66.4359	3,031.49	61.8326	3,031.49	64.6432	3,031.49	51.5489	3,031.49	64.0346
3,138.43	85.8337	3,138.43	85.768	3,138.43	85.0922	3,138.43	84.057	3,138.43	84.9348	3,138.43	81.657	3,138.43	83.4645	3,138.43	80.4914	3,138.43	81.1743	3,138.43	79.5726	3,138.43	80.0455	3,138.43	78.35	3,138.43	77.3201	3,138.43	75.1015	3,138.43	74.6573	3,138.43	71.7432	3,138.43	72.9125	3,138.43	70.8938	3,138.43	68.1809	3,138.43	68.8684	3,138.43	57.0363	3,138.43	66.4627	3,138.43	58.7775	3,138.43	65.9901	3,138.43	63.1811	3,138.43	63.175	3,138.43	62.7655	3,138.43	64.6891	3,138.43	66.1365	3,138.43	65.233	3,138.43	64.3212	3,138.43	66.9097	3,138.43	60.9274	3,138.43	65.8579	3,138.43	52.3231	3,138.43	62.9506
3,249.02	86.6463	3,249.02	85.8958	3,249.02	85.9035	3,249.02	83.8052	3,249.02	85.0633	3,249.02	82.3875	3,249.02	83.4926	3,249.02	81.1825	3,249.02	81.4687	3,249.02	80.2392	3,249.02	80.8128	3,249.02	77.483	3,249.02	79.0026	3,249.02	74.46	3,249.02	75.5471	3,249.02	73.6528	3,249.02	72.232	3,249.02	71.8706	3,249.02	66.7534	3,249.02	68.3827	3,249.02	47.8437	3,249.02	64.089	3,249.02	47.3801	3,249.02	64.1534	3,249.02	59.2736	3,249.02	59.8372	3,249.02	68.6678	3,249.02	63.8684	3,249.02	67.534	3,249.02	64.1926	3,249.02	66.695	3,249.02	66.2092	3,249.02	61.1238	3,249.02	66.8352	3,249.02	54.471	3,249.02	62.9585
3,363.28	87.1266	3,363.28	86.0884	3,363.28	86.626	3,363.28	84.3579	3,363.28	85.3121	3,363.28	83.1944	3,363.28	83.5757	3,363.28	81.8986	3,363.28	81.4617	3,363.28	79.9894	3,363.28	81.2781	3,363.28	76.9811	3,363.28	80.4018	3,363.28	75.3325	3,363.28	77.494	3,363.28	72.7658	3,363.28	73.4886	3,363.28	67.9246	3,363.28	65.5428	3,363.28	68.2474	3,363.28	64.4177	3,363.28	66.8034	3,363.28	51.187	3,363.28	65.6507	3,363.28	64.5604	3,363.28	61.5347	3,363.28	69.7619	3,363.28	63.9445	3,363.28	69.3228	3,363.28	65.108	3,363.28	64.7264	3,363.28	66.8671	3,363.28	59.0726	3,363.28	67.0007	3,363.28	57.5284	3,363.28	62.2761
3,481.93	87.366	3,481.93	86.6525	3,481.93	87.1317	3,481.93	84.7744	3,481.93	85.5059	3,481.93	83.0232	3,481.93	83.0072	3,481.93	82.0879	3,481.93	81.0562	3,481.93	79.44	3,481.93	81.5783	3,481.93	77.0413	3,481.93	81.0093	3,481.93	74.7276	3,481.93	78.641	3,481.93	72.7629	3,481.93	74.0898	3,481.93	73.1367	3,481.93	68.4552	3,481.93	69.1733	3,481.93	69.9012	3,481.93	66.2996	3,481.93	66.1318	3,481.93	64.3091	3,481.93	63.202	3,481.93	62.5233	3,481.93	71.236	3,481.93	63.1883	3,481.93	69.2498	3,481.93	66.2772	3,481.93	63.2856	3,481.93	67.7116	3,481.93	58.425	3,481.93	66.2588	3,481.93	58.2347	3,481.93	62.204
3,604.98	87.1903	3,604.98	86.5415	3,604.98	86.7587	3,604.98	84.1918	3,604.98	85.3207	3,604.98	82.5336	3,604.98	82.2542	3,604.98	81.1257	3,604.98	79.4643	3,604.98	78.9506	3,604.98	80.2631	3,604.98	76.971	3,604.98	80.6055	3,604.98	74.6488	3,604.98	79.1123	3,604.98	75.1169	3,604.98	74.4705	3,604.98	70.1054	3,604.98	69.4877	3,604.98	68.8591	3,604.98	72.6884	3,604.98	66.7283	3,604.98	67.8489	3,604.98	64.5944	3,604.98	57.424	3,604.98	60.7897	3,604.98	70.8143	3,604.98	61.6925	3,604.98	69.207	3,604.98	64.8708	3,604.98	61.3344	3,604.98	66.001	3,604.98	58.2403	3,604.98	66.7817	3,604.98	57.0802	3,604.98	61.1269
3,732.42	87.1666	3,732.42	86.0362	3,732.42	85.8234	3,732.42	84.1324	3,732.42	85.1249	3,732.42	82.6548	3,732.42	82.5802	3,732.42	80.8753	3,732.42	79.1229	3,732.42	78.9221	3,732.42	80.0779	3,732.42	77.0518	3,732.42	81.5076	3,732.42	76.5882	3,732.42	80.065	3,732.42	71.7882	3,732.42	75.6331	3,732.42	70.9275	3,732.42	70.9664	3,732.42	69.4305	3,732.42	73.3236	3,732.42	65.9704	3,732.42	69.8004	3,732.42	64.9307	3,732.42	62.4544	3,732.42	60.561	3,732.42	68.6558	3,732.42	63.1685	3,732.42	67.9745	3,732.42	63.8492	3,732.42	61.5468	3,732.42	64.9637	3,732.42	51.1301	3,732.42	66.0379	3,732.42	59.0139	3,732.42	63.1569
3,863.53	87.3473	3,863.53	86.2723	3,863.53	86.5045	3,863.53	83.2717	3,863.53	83.4655	3,863.53	82.6203	3,863.53	82.1747	3,863.53	80.1946	3,863.53	78.356	3,863.53	78.7106	3,863.53	79.0019	3,863.53	77.4413	3,863.53	81.1231	3,863.53	74.1401	3,863.53	80.3219	3,863.53	74.6348	3,863.53	76.0185	3,863.53	72.1983	3,863.53	69.0622	3,863.53	69.3761	3,863.53	70.4524	3,863.53	65.4132	3,863.53	70.0434	3,863.53	63.5771	3,863.53	63.8363	3,863.53	62.374	3,863.53	67.7988	3,863.53	60.623	3,863.53	68.287	3,863.53	65.545	3,863.53	62.5177	3,863.53	67.07	3,863.53	52.2432	3,863.53	66.4948	3,863.53	61.784	3,863.53	57.9424
3,999.76	87.44	3,999.76	85.625	3,999.76	86.1889	3,999.76	83.7801	3,999.76	83.5033	3,999.76	81.4286	3,999.76	80.2269	3,999.76	79.8957	3,999.76	78.3732	3,999.76	78.1357	3,999.76	78.3129	3,999.76	77.1925	3,999.76	79.8524	3,999.76	76.0715	3,999.76	79.3171	3,999.76	74.3737	3,999.76	76.8277	3,999.76	69.6518	3,999.76	73.3324	3,999.76	68.5274	3,999.76	69.2744	3,999.76	66.5002	3,999.76	68.5228	3,999.76	65.7385	3,999.76	57.5484	3,999.76	57.6693	3,999.76	66.26	3,999.76	60.0455	3,999.76	65.8846	3,999.76	63.4863	3,999.76	60.3737	3,999.76	66.1757	3,999.76	60.0747	3,999.76	65.6488	3,999.76	60.2166	3,999.76	50.3325
4,141.11	86.9181	4,141.11	84.8929	4,141.11	85.7819	4,141.11	83.4753	4,141.11	83.1227	4,141.11	81.6515	4,141.11	80.271	4,141.11	78.5575	4,141.11	77.8137	4,141.11	78.6306	4,141.11	77.7422	4,141.11	77.3289	4,141.11	78.425	4,141.11	75.9902	4,141.11	76.6344	4,141.11	71.7162	4,141.11	74.2158	4,141.11	72.9197	4,141.11	74.4174	4,141.11	68.3929	4,141.11	68.8399	4,141.11	66.5617	4,141.11	64.2832	4,141.11	62.9473	4,141.11	53.9577	4,141.11	62.9614	4,141.11	65.0787	4,141.11	61.1203	4,141.11	66.0247	4,141.11	63.1262	4,141.11	56.8399	4,141.11	63.7557	4,141.11	62.298	4,141.11	65.4295	4,141.11	47.9283	4,141.11	54.5829
4,286.87	87.006	4,286.87	85.0237	4,286.87	86.0014	4,286.87	83.6523	4,286.87	83.0124	4,286.87	79.9857	4,286.87	81.2115	4,286.87	79.4457	4,286.87	78.8217	4,286.87	78.4798	4,286.87	78.1726	4,286.87	77.8238	4,286.87	77.5944	4,286.87	75.1282	4,286.87	75.6341	4,286.87	75.7006	4,286.87	75.352	4,286.87	68.7812	4,286.87	75.7683	4,286.87	67.4596	4,286.87	57.8546	4,286.87	65.8696	4,286.87	60.7209	4,286.87	63.6184	4,286.87	53.9094	4,286.87	63.1602	4,286.87	65.8815	4,286.87	59.7273	4,286.87	60.5826	4,286.87	62.0707	4,286.87	59.682	4,286.87	65.2858	4,286.87	58.642	4,286.87	63.5645	4,286.87	56.761	4,286.87	57.6137
4,438.48	86.4777	4,438.48	85.7294	4,438.48	86.7677	4,438.48	83.7738	4,438.48	82.8605	4,438.48	80.3679	4,438.48	80.9118	4,438.48	79.1997	4,438.48	78.3574	4,438.48	79.3434	4,438.48	78.3043	4,438.48	77.1721	4,438.48	78.5965	4,438.48	76.4173	4,438.48	77.3621	4,438.48	68.2651	4,438.48	76.5503	4,438.48	71.4414	4,438.48	69.9009	4,438.48	66.1954	4,438.48	61.3044	4,438.48	65.0077	4,438.48	62.8662	4,438.48	59.8989	4,438.48	56.7765	4,438.48	60.9297	4,438.48	63.5977	4,438.48	57.5889	4,438.48	61.9087	4,438.48	59.6881	4,438.48	57.4593	4,438.48	65.5585	4,438.48	51.1474	4,438.48	64.436	4,438.48	59.8008	4,438.48	56.4163
4,594.48	86.9445	4,594.48	86.4709	4,594.48	86.7607	4,594.48	83.3996	4,594.48	83.7796	4,594.48	81.555	4,594.48	81.2157	4,594.48	80.296	4,594.48	78.6954	4,594.48	78.9655	4,594.48	77.8164	4,594.48	78.235	4,594.48	78.6396	4,594.48	73.8296	4,594.48	78.767	4,594.48	76.3716	4,594.48	76.6345	4,594.48	69.3755	4,594.48	70.1966	4,594.48	68.1842	4,594.48	68.5228	4,594.48	65.4331	4,594.48	66.3301	4,594.48	62.2133	4,594.48	57.9649	4,594.48	62.7146	4,594.48	63.5831	4,594.48	50.656	4,594.48	60.9279	4,594.48	61.7206	4,594.48	57.9034	4,594.48	65.0924	4,594.48	46.9277	4,594.48	64.7991	4,594.48	59.7133	4,594.48	52.8536
4,757.08	87.6301	4,757.08	87.1681	4,757.08	87.56	4,757.08	84.9557	4,757.08	85.8392	4,757.08	82.6169	4,757.08	83.8048	4,757.08	81.3673	4,757.08	80.7075	4,757.08	80.3239	4,757.08	76.6671	4,757.08	77.521	4,757.08	80.1715	4,757.08	77.5319	4,757.08	79.5148	4,757.08	70.8452	4,757.08	75.2924	4,757.08	71.774	4,757.08	72.0332	4,757.08	68.0774	4,757.08	72.4977	4,757.08	63.4374	4,757.08	60.8905	4,757.08	63.9915	4,757.08	51.4638	4,757.08	60.2097	4,757.08	53.2756	4,757.08	56.335	4,757.08	63.8961	4,757.08	61.4585	4,757.08	57.2603	4,757.08	66.102	4,757.08	55.5674	4,757.08	65.0245	4,757.08	58.7661	4,757.08	45.9594
4,924.8	87.474	4,924.8	86.9904	4,924.8	87.1017	4,924.8	84.8994	4,924.8	85.7372	4,924.8	82.4111	4,924.8	84.1643	4,924.8	81.0062	4,924.8	81.6007	4,924.8	79.3231	4,924.8	77.9994	4,924.8	78.4312	4,924.8	79.5606	4,924.8	74.8878	4,924.8	78.7474	4,924.8	74.6525	4,924.8	73.826	4,924.8	69.4885	4,924.8	70.3341	4,924.8	66.4132	4,924.8	69.6882	4,924.8	66.1681	4,924.8	60.0568	4,924.8	61.7219	4,924.8	62.9777	4,924.8	59.5646	4,924.8	56.1491	4,924.8	56.0399	4,924.8	59.7399	4,924.8	62.7339	4,924.8	48.7538	4,924.8	65.2945	4,924.8	54.6572	4,924.8	62.2273	4,924.8	58.4449	4,924.8	50.2743
5,098.39	86.6153	5,098.39	86.4248	5,098.39	86.5295	5,098.39	84.1073	5,098.39	84.9934	5,098.39	81.9993	5,098.39	83.1115	5,098.39	80.1352	5,098.39	82.2775	5,098.39	78.4617	5,098.39	77.9832	5,098.39	75.9784	5,098.39	77.5084	5,098.39	75.0157	5,098.39	75.9427	5,098.39	69.9378	5,098.39	69.2308	5,098.39	68.245	5,098.39	64.8696	5,098.39	65.1907	5,098.39	66.7888	5,098.39	59.8381	5,098.39	55.3792	5,098.39	59.6177	5,098.39	60.5293	5,098.39	58.7205	5,098.39	59.0747	5,098.39	53.4113	5,098.39	59.6562	5,098.39	55.6871	5,098.39	56.1066	5,098.39	60.112	5,098.39	51.2296	5,098.39	61.4028	5,098.39	59.6474	5,098.39	52.2182
5,277.83	85.8336	5,277.83	85.6694	5,277.83	86.1958	5,277.83	83.5586	5,277.83	85.5974	5,277.83	81.3952	5,277.83	82.8717	5,277.83	79.1604	5,277.83	81.2072	5,277.83	77.5757	5,277.83	78.337	5,277.83	75.7859	5,277.83	77.0336	5,277.83	70.9311	5,277.83	72.8372	5,277.83	70.2036	5,277.83	68.9151	5,277.83	63.6402	5,277.83	65.8516	5,277.83	60.7898	5,277.83	50.6646	5,277.83	61.1716	5,277.83	52.0872	5,277.83	57.6314	5,277.83	59.591	5,277.83	55.2183	5,277.83	54.059	5,277.83	45.8522	5,277.83	59.5813	5,277.83	55.6686	5,277.83	56.1211	5,277.83	59.4589	5,277.83	53.3487	5,277.83	60.6518	5,277.83	57.9966	5,277.83	44.0856
5,463.87	86.2994	5,463.87	85.2361	5,463.87	85.4976	5,463.87	83.1583	5,463.87	85.2606	5,463.87	81.0179	5,463.87	82.7634	5,463.87	79.1836	5,463.87	81.0451	5,463.87	77.1658	5,463.87	78.8869	5,463.87	72.5676	5,463.87	77.0694	5,463.87	68.2924	5,463.87	71.312	5,463.87	63.8588	5,463.87	66.252	5,463.87	65.4326	5,463.87	65.5459	5,463.87	60.6407	5,463.87	60.6227	5,463.87	55.6918	5,463.87	58.5619	5,463.87	54.4438	5,463.87	57.0133	5,463.87	54.3666	5,463.87	56.5725	5,463.87	48.8203	5,463.87	57.3452	5,463.87	53.8372	5,463.87	56.5866	5,463.87	57.2725	5,463.87	50.38	5,463.87	59.5076	5,463.87	47.5916	5,463.87	43.4906
5,656.49	85.8228	5,656.49	85.0104	5,656.49	85.3026	5,656.49	84.074	5,656.49	84.6998	5,656.49	81.6823	5,656.49	82.8251	5,656.49	80.3015	5,656.49	81.1595	5,656.49	77.5232	5,656.49	78.6433	5,656.49	72.8038	5,656.49	75.9563	5,656.49	69.0432	5,656.49	70.1868	5,656.49	67.669	5,656.49	67.9403	5,656.49	63.4784	5,656.49	64.1999	5,656.49	62.5735	5,656.49	61.6489	5,656.49	61.5355	5,656.49	58.3167	5,656.49	58.4294	5,656.49	56.6673	5,656.49	53.6265	5,656.49	60.3664	5,656.49	54.14	5,656.49	58.5757	5,656.49	52.9289	5,656.49	56.6499	5,656.49	58.2413	5,656.49	29.2036	5,656.49	58.5559	5,656.49	54.4758	5,656.49	39.722
5,856.45	85.8733	5,856.45	85.6634	5,856.45	85.3907	5,856.45	84.136	5,856.45	84.8358	5,856.45	82.3791	5,856.45	82.875	5,856.45	81.0451	5,856.45	81.4453	5,856.45	77.5904	5,856.45	78.273	5,856.45	71.8345	5,856.45	73.5703	5,856.45	70.2884	5,856.45	69.9397	5,856.45	68.6397	5,856.45	70.0624	5,856.45	66.8904	5,856.45	66.1616	5,856.45	63.6398	5,856.45	63.6058	5,856.45	59.8736	5,856.45	56.9901	5,856.45	59.4687	5,856.45	55.1671	5,856.45	57.3455	5,856.45	61.143	5,856.45	51.9245	5,856.45	58.4421	5,856.45	48.2744	5,856.45	55.4425	5,856.45	54.8672	5,856.45	35.7714	5,856.45	58.3253	5,856.45	54.1203	5,856.45	50.794
6,062.99	86.3668	6,062.99	85.9844	6,062.99	85.8232	6,062.99	84.9298	6,062.99	85.1025	6,062.99	83.2292	6,062.99	83.3933	6,062.99	81.2265	6,062.99	81.9184	6,062.99	76.9674	6,062.99	78.3926	6,062.99	74.141	6,062.99	72.6483	6,062.99	70.7267	6,062.99	70.5853	6,062.99	67.9032	6,062.99	70.3527	6,062.99	64.2068	6,062.99	65.3306	6,062.99	62.5425	6,062.99	66.4113	6,062.99	60.8232	6,062.99	63.5448	6,062.99	59.6838	6,062.99	49.3391	6,062.99	55.4749	6,062.99	59.2625	6,062.99	54.7185	6,062.99	58.2944	6,062.99	55.9169	6,062.99	50.3554	6,062.99	59.6756	6,062.99	52.1947	6,062.99	59.736	6,062.99	53.3722	6,062.99	51.5923
6,276.86	87.089	6,276.86	86.5645	6,276.86	86.2141	6,276.86	85.5391	6,276.86	85.3335	6,276.86	83.9147	6,276.86	84.158	6,276.86	81.0532	6,276.86	82.2261	6,276.86	76.1871	6,276.86	77.2878	6,276.86	72.4765	6,276.86	71.2608	6,276.86	70.2104	6,276.86	71.0369	6,276.86	67.9751	6,276.86	71.6395	6,276.86	65.0674	6,276.86	67.6474	6,276.86	62.5821	6,276.86	63.0207	6,276.86	60.6568	6,276.86	54.2134	6,276.86	56.6096	6,276.86	54.3245	6,276.86	54.6261	6,276.86	59.3195	6,276.86	55.7108	6,276.86	59.0156	6,276.86	50.4247	6,276.86	45.9138	6,276.86	57.4471	6,276.86	49.8674	6,276.86	58.0696	6,276.86	55.2538	6,276.86	40.4822
6,498.05	87.0813	6,498.05	86.5817	6,498.05	86.7172	6,498.05	85.6759	6,498.05	85.5546	6,498.05	84.3808	6,498.05	84.6134	6,498.05	80.1402	6,498.05	82.162	6,498.05	76.4098	6,498.05	76.7964	6,498.05	72.4063	6,498.05	71.1447	6,498.05	71.2749	6,498.05	72.4728	6,498.05	69.7673	6,498.05	71.0353	6,498.05	66.6168	6,498.05	67.6496	6,498.05	63.3537	6,498.05	69.3051	6,498.05	61.7909	6,498.05	64.502	6,498.05	57.8653	6,498.05	56.8988	6,498.05	55.2478	6,498.05	52.3544	6,498.05	58.1141	6,498.05	55.5482	6,498.05	53.3717	6,498.05	50.7563	6,498.05	58.9967	6,498.05	48.3489	6,498.05	59.1663	6,498.05	51.3542	6,498.05	49.7709
6,727.29	86.2164	6,727.29	85.8171	6,727.29	86.1547	6,727.29	85.572	6,727.29	85.2934	6,727.29	84.0624	6,727.29	84.337	6,727.29	79.7773	6,727.29	81.7212	6,727.29	75.3889	6,727.29	77.2333	6,727.29	73.1654	6,727.29	73.1371	6,727.29	73.5671	6,727.29	73.041	6,727.29	70.9595	6,727.29	68.6512	6,727.29	67.3285	6,727.29	65.3412	6,727.29	64.2273	6,727.29	70.3288	6,727.29	62.3876	6,727.29	65.8802	6,727.29	59.788	6,727.29	55.2584	6,727.29	57.4709	6,727.29	52.2581	6,727.29	56.4171	6,727.29	59.8214	6,727.29	41.5701	6,727.29	55.7498	6,727.29	56.8105	6,727.29	45.549	6,727.29	56.2654	6,727.29	51.1021	6,727.29	46.3746
6,964.6	86.0116	6,964.6	85.5461	6,964.6	85.504	6,964.6	86.1371	6,964.6	85.4454	6,964.6	84.5285	6,964.6	84.7366	6,964.6	80.5122	6,964.6	80.4665	6,964.6	76.1056	6,964.6	76.3762	6,964.6	75.6069	6,964.6	74.1549	6,964.6	73.8713	6,964.6	72.8348	6,964.6	71.1657	6,964.6	68.4508	6,964.6	67.3047	6,964.6	64.2854	6,964.6	63.9217	6,964.6	67.6692	6,964.6	61.2732	6,964.6	66.99	6,964.6	58.6554	6,964.6	57.6176	6,964.6	58.5152	6,964.6	48.6413	6,964.6	56.0018	6,964.6	55.9989	6,964.6	50.3315	6,964.6	53.6403	6,964.6	57.8833	6,964.6	49.9098	6,964.6	57.2559	6,964.6	54.6076	6,964.6	49.2451
7,209.96	85.6495	7,209.96	85.3814	7,209.96	85.5222	7,209.96	86.3868	7,209.96	86.181	7,209.96	84.5408	7,209.96	84.9893	7,209.96	80.3538	7,209.96	79.7362	7,209.96	77.079	7,209.96	77.4904	7,209.96	75.7477	7,209.96	75.6176	7,209.96	73.2764	7,209.96	72.1888	7,209.96	70.2899	7,209.96	69.1068	7,209.96	67.5897	7,209.96	68.1743	7,209.96	62.622	7,209.96	57.8329	7,209.96	60.1304	7,209.96	58.6161	7,209.96	56.2172	7,209.96	55.7079	7,209.96	56.6506	7,209.96	49.7723	7,209.96	56.2515	7,209.96	52.966	7,209.96	52.6119	7,209.96	56.1113	7,209.96	56.9917	7,209.96	52.4608	7,209.96	54.7126	7,209.96	55.802	7,209.96	53.231
7,464.11	85.3998	7,464.11	85.3241	7,464.11	85.1747	7,464.11	86.1264	7,464.11	86.2849	7,464.11	84.1164	7,464.11	84.6839	7,464.11	79.8926	7,464.11	79.8276	7,464.11	77.4129	7,464.11	78.3232	7,464.11	74.622	7,464.11	76.0061	7,464.11	72.7798	7,464.11	72.8091	7,464.11	68.9825	7,464.11	73.6421	7,464.11	66.6824	7,464.11	66.8785	7,464.11	62.8653	7,464.11	59.5261	7,464.11	60.7739	7,464.11	61.9946	7,464.11	56.1681	7,464.11	50.5384	7,464.11	54.3504	7,464.11	53.1479	7,464.11	53.9403	7,464.11	53.4075	7,464.11	45.5118	7,464.11	54.6254	7,464.11	53.2055	7,464.11	51.5817	7,464.11	54.9479	7,464.11	53.1732	7,464.11	48.5978
7,727.78	84.7528	7,727.78	85.2504	7,727.78	84.8278	7,727.78	85.6909	7,727.78	86.0285	7,727.78	83.5026	7,727.78	83.7878	7,727.78	79.6273	7,727.78	79.2933	7,727.78	77.4831	7,727.78	77.0956	7,727.78	74.551	7,727.78	74.6995	7,727.78	71.9332	7,727.78	73.4024	7,727.78	68.109	7,727.78	71.1959	7,727.78	64.7069	7,727.78	65.5531	7,727.78	61.9861	7,727.78	50.2676	7,727.78	57.5209	7,727.78	50.0659	7,727.78	55.518	7,727.78	40.0155	7,727.78	54.8857	7,727.78	57.7677	7,727.78	52.044	7,727.78	54.5981	7,727.78	50.6003	7,727.78	54.9125	7,727.78	53.2208	7,727.78	51.2177	7,727.78	50.1469	7,727.78	53.0868	7,727.78	48.8085
8,000.24	84.9236	8,000.24	85.6919	8,000.24	84.9806	8,000.24	85.798	8,000.24	85.6418	8,000.24	83.1025	8,000.24	82.714	8,000.24	79.8049	8,000.24	79.3223	8,000.24	77.1259	8,000.24	76.5552	8,000.24	73.7586	8,000.24	72.7813	8,000.24	69.8409	8,000.24	73.9617	8,000.24	65.6695	8,000.24	68.1403	8,000.24	62.8512	8,000.24	61.5039	8,000.24	59.1548	8,000.24	54.8968	8,000.24	55.719	8,000.24	56.9072	8,000.24	54.0434	8,000.24	47.3727	8,000.24	53.3515	8,000.24	56.7161	8,000.24	49.4787	8,000.24	50.778	8,000.24	53.3289	8,000.24	53.9472	8,000.24	54.1853	8,000.24	48.333	8,000.24	47.9623	8,000.24	47.9055	8,000.24	44.9017
8,282.23	85.8889	8,282.23	86.6017	8,282.23	85.787	8,282.23	86.0004	8,282.23	85.79	8,282.23	82.5469	8,282.23	82.5053	8,282.23	79.3781	8,282.23	78.9968	8,282.23	76.1135	8,282.23	76.5858	8,282.23	72.5248	8,282.23	73.6642	8,282.23	68.9917	8,282.23	71.1575	8,282.23	65.4691	8,282.23	64.3186	8,282.23	60.1969	8,282.23	58.6588	8,282.23	59.1475	8,282.23	44.8632	8,282.23	54.3861	8,282.23	50.6768	8,282.23	52.5693	8,282.23	42.4171	8,282.23	52.8164	8,282.23	54.5164	8,282.23	51.415	8,282.23	36.3867	8,282.23	50.5679	8,282.23	40.1606	8,282.23	53.7834	8,282.23	45.491	8,282.23	45.8413	8,282.23	49.6428	8,282.23	48.8558
8,574.46	85.9969	8,574.46	86.6708	8,574.46	86.3478	8,574.46	85.8121	8,574.46	85.9528	8,574.46	82.0765	8,574.46	82.0158	8,574.46	78.8626	8,574.46	78.0853	8,574.46	75.8197	8,574.46	75.3662	8,574.46	71.9439	8,574.46	73.3059	8,574.46	68.7217	8,574.46	67.6232	8,574.46	65.3168	8,574.46	59.0699	8,574.46	59.4978	8,574.46	55.0933	8,574.46	59.1584	8,574.46	52.4984	8,574.46	53.9077	8,574.46	51.0342	8,574.46	51.6348	8,574.46	43.7834	8,574.46	52.5819	8,574.46	49.8527	8,574.46	52.556	8,574.46	48.9933	8,574.46	55.002	8,574.46	52.145	8,574.46	57.3818	8,574.46	45.7658	8,574.46	45.2361	8,574.46	50.7356	8,574.46	48.7815
8,876.22	84.7903	8,876.22	86.3513	8,876.22	86.0687	8,876.22	85.8101	8,876.22	85.9741	8,876.22	82.4921	8,876.22	81.9163	8,876.22	79.3324	8,876.22	77.9624	8,876.22	75.8136	8,876.22	74.0853	8,876.22	73.0964	8,876.22	71.5507	8,876.22	68.0899	8,876.22	64.3628	8,876.22	64.8655	8,876.22	61.8936	8,876.22	61.5535	8,876.22	58.3627	8,876.22	59.8657	8,876.22	57.1103	8,876.22	53.9064	8,876.22	61.2757	8,876.22	53.7937	8,876.22	48.6196	8,876.22	52.9346	8,876.22	39.3411	8,876.22	53.0693	8,876.22	52.943	8,876.22	55.0803	8,876.22	51.3937	8,876.22	58.0054	8,876.22	49.1617	8,876.22	46.1519	8,876.22	50.8028	8,876.22	49.6271
9,189.7	82.877	9,189.7	85.7787	9,189.7	85.4886	9,189.7	85.501	9,189.7	85.1015	9,189.7	82.7364	9,189.7	82.0808	9,189.7	79.7343	9,189.7	79.2625	9,189.7	75.6402	9,189.7	75.753	9,189.7	72.0094	9,189.7	68.7673	9,189.7	67.155	9,189.7	66.5133	9,189.7	65.4205	9,189.7	66.4105	9,189.7	62.8086	9,189.7	64.0116	9,189.7	60.2399	9,189.7	56.2522	9,189.7	55.2662	9,189.7	63.8493	9,189.7	56.1409	9,189.7	55.9051	9,189.7	54.4266	9,189.7	52.8441	9,189.7	54.6721	9,189.7	53.1684	9,189.7	55.8195	9,189.7	54.1014	9,189.7	59.058	9,189.7	48.7747	9,189.7	44.7196	9,189.7	51.8876	9,189.7	50.1805
9,513.43	83.5286	9,513.43	85.3246	9,513.43	85.314	9,513.43	84.2685	9,513.43	84.2717	9,513.43	81.9391	9,513.43	81.608	9,513.43	78.3904	9,513.43	78.579	9,513.43	74.1496	9,513.43	75.3371	9,513.43	67.3162	9,513.43	66.3305	9,513.43	66.979	9,513.43	67.5317	9,513.43	66.6231	9,513.43	69.6283	9,513.43	62.8471	9,513.43	64.1351	9,513.43	58.8297	9,513.43	53.608	9,513.43	55.7122	9,513.43	59.4266	9,513.43	55.2251	9,513.43	55.0709	9,513.43	53.4922	9,513.43	51.1134	9,513.43	52.5024	9,513.43	54.7752	9,513.43	55.1669	9,513.43	50.213	9,513.43	58.1685	9,513.43	48.8802	9,513.43	44.7972	9,513.43	44.6559	9,513.43	48.7436
9,848.88	85.0119	9,848.88	85.644	9,848.88	85.5592	9,848.88	83.7104	9,848.88	83.5819	9,848.88	80.6792	9,848.88	80.3315	9,848.88	77.1575	9,848.88	76.5361	9,848.88	71.8359	9,848.88	71.9025	9,848.88	66.9433	9,848.88	65.7459	9,848.88	67.1503	9,848.88	69.2686	9,848.88	64.5606	9,848.88	68.5068	9,848.88	60.8008	9,848.88	61.1473	9,848.88	55.7318	9,848.88	57.3226	9,848.88	52.3532	9,848.88	59.6805	9,848.88	52.8278	9,848.88	48.6943	9,848.88	50.4156	9,848.88	54.5698	9,848.88	49.7164	9,848.88	52.4468	9,848.88	52.3876	9,848.88	48.2487	9,848.88	56.3728	9,848.88	44.9951	9,848.88	34.8881	9,848.88	42.9172	9,848.88	40.5191
10,196.8	85.4558	10,196.8	85.4557	10,196.8	85.1208	10,196.8	83.3992	10,196.8	83.1452	10,196.8	79.8491	10,196.8	79.5697	10,196.8	76.6281	10,196.8	76.3155	10,196.8	71.0599	10,196.8	71.2462	10,196.8	67.8258	10,196.8	66.6634	10,196.8	66.3111	10,196.8	68.8577	10,196.8	63.4122	10,196.8	64.79	10,196.8	59.4621	10,196.8	60.1476	10,196.8	54.5896	10,196.8	56.3073	10,196.8	48.8733	10,196.8	52.3929	10,196.8	48.7287	10,196.8	42.6344	10,196.8	46.4329	10,196.8	50.8708	10,196.8	47.3072	10,196.8	45.3969	10,196.8	53.7517	10,196.8	44.4619	10,196.8	51.6447	10,196.8	44.6532	10,196.8	31.8544	10,196.8	40.7563	10,196.8	37.467
10,556.4	86.7143	10,556.4	86.2192	10,556.4	86.2033	10,556.4	84.0491	10,556.4	84.312	10,556.4	80.0012	10,556.4	80.2987	10,556.4	76.3719	10,556.4	76.4491	10,556.4	70.6578	10,556.4	71.3221	10,556.4	68.253	10,556.4	66.8678	10,556.4	65.6779	10,556.4	66.3757	10,556.4	62.144	10,556.4	57.3105	10,556.4	56.1808	10,556.4	51.3946	10,556.4	53.063	10,556.4	53.9707	10,556.4	46.6045	10,556.4	55.379	10,556.4	44.6006	10,556.4	36.7167	10,556.4	45.0238	10,556.4	45.8123	10,556.4	46.4524	10,556.4	32.2052	10,556.4	52.6933	10,556.4	38.1881	10,556.4	46.803	10,556.4	36.632	10,556.4	38.4989	10,556.4	30.3438	10,556.4	36.7913
10,928.5	86.2819	10,928.5	85.5524	10,928.5	85.7787	10,928.5	83.563	10,928.5	84.0206	10,928.5	79.8722	10,928.5	80.2731	10,928.5	75.6632	10,928.5	75.8987	10,928.5	68.7555	10,928.5	69.8608	10,928.5	67.3437	10,928.5	68.215	10,928.5	63.7629	10,928.5	61.7199	10,928.5	57.109	10,928.5	57.9752	10,928.5	51.8739	10,928.5	51.1367	10,928.5	49.0839	10,928.5	42.2487	10,928.5	46.2215	10,928.5	54.0138	10,928.5	41.4314	10,928.5	43.2948	10,928.5	43.9839	10,928.5	41.0817	10,928.5	46.1327	10,928.5	41.1643	10,928.5	50.9183	10,928.5	25.0866	10,928.5	42.3494	10,928.5	25.829	10,928.5	43.1539	10,928.5	42.4844	10,928.5	18.8329
11,313.7	84.7824	11,313.7	84.2031	11,313.7	84.3938	11,313.7	82.5375	11,313.7	82.7318	11,313.7	79.4779	11,313.7	79.6903	11,313.7	74.1826	11,313.7	75.0566	11,313.7	67.9809	11,313.7	69.12	11,313.7	65.8364	11,313.7	67.2109	11,313.7	59.0432	11,313.7	58.9175	11,313.7	52.386	11,313.7	58.2154	11,313.7	52.4865	11,313.7	55.1619	11,313.7	47.7092	11,313.7	18.0898	11,313.7	46.0214	11,313.7	56.9257	11,313.7	42.7763	11,313.7	45.2744	11,313.7	43.1564	11,313.7	44.0142	11,313.7	45.3444	11,313.7	41.964	11,313.7	51.0346	11,313.7	43.1544	11,313.7	41.5603	11,313.7	38.6138	11,313.7	44.7832	11,313.7	45.1966	11,313.7	38.966
11,712.9	84.0823	11,712.9	83.5577	11,712.9	83.618	11,712.9	81.4344	11,712.9	81.5301	11,712.9	78.5902	11,712.9	78.7316	11,712.9	71.375	11,712.9	73.0703	11,712.9	66.1827	11,712.9	67.1487	11,712.9	61.9777	11,712.9	63.8872	11,712.9	51.4551	11,712.9	55.2191	11,712.9	51.0454	11,712.9	57.8944	11,712.9	53.1084	11,712.9	54.8233	11,712.9	46.3977	11,712.9	41.5746	11,712.9	47.0637	11,712.9	56.3846	11,712.9	43.881	11,712.9	47.256	11,712.9	40.9693	11,712.9	41.1292	11,712.9	44.4132	11,712.9	46.9767	11,712.9	50.0173	11,712.9	44.8302	11,712.9	41.4239	11,712.9	41.7164	11,712.9	43.8195	11,712.9	47.0635	11,712.9	39.8369
12,126	86.2567	12,126	85.409	12,126	85.3005	12,126	81.928	12,126	82.6602	12,126	78.2023	12,126	78.8753	12,126	68.8284	12,126	70.8346	12,126	64.214	12,126	66.3819	12,126	57.4436	12,126	58.4794	12,126	58.8451	12,126	50.6102	12,126	54.9878	12,126	53.9363	12,126	53.8852	12,126	56.8438	12,126	48.9219	12,126	47.6565	12,126	46.7904	12,126	59.5317	12,126	43.636	12,126	48.4974	12,126	43.7145	12,126	38.0195	12,126	45.7276	12,126	44.8308	12,126	52.317	12,126	46.8606	12,126	42.8548	12,126	48.1582	12,126	47.8083	12,126	49.1507	12,126	43.7577
12,553.7	86.3045	12,553.7	84.9077	12,553.7	85.0162	12,553.7	80.4182	12,553.7	81.5836	12,553.7	76.5821	12,553.7	77.8639	12,553.7	66.028	12,553.7	65.5746	12,553.7	62.3545	12,553.7	62.2786	12,553.7	51.5168	12,553.7	56.6169	12,553.7	58.7479	12,553.7	57.691	12,553.7	55.8067	12,553.7	55.2779	12,553.7	51.9636	12,553.7	52.2571	12,553.7	48.2897	12,553.7	49.7351	12,553.7	45.9965	12,553.7	59.095	12,553.7	44.1032	12,553.7	44.4959	12,553.7	42.2313	12,553.7	35.6982	12,553.7	45.1089	12,553.7	42.784	12,553.7	51.8467	12,553.7	43.3657	12,553.7	43.0197	12,553.7	47.2404	12,553.7	47.3334	12,553.7	49.2951	12,553.7	44.3147
12,996.1	85.577	12,996.1	84.3223	12,996.1	84.727	12,996.1	79.7815	12,996.1	80.5596	12,996.1	75.2185	12,996.1	76.7308	12,996.1	65.6981	12,996.1	65.4932	12,996.1	58.5812	12,996.1	61.161	12,996.1	56.657	12,996.1	55.1398	12,996.1	55.7201	12,996.1	58.904	12,996.1	53.1663	12,996.1	54.1267	12,996.1	49.0498	12,996.1	49.6107	12,996.1	44.6686	12,996.1	50.4824	12,996.1	42.8257	12,996.1	56.6268	12,996.1	40.2682	12,996.1	40.0782	12,996.1	34.7535	12,996.1	35.7922	12,996.1	40.0941	12,996.1	23.579	12,996.1	47.5103	12,996.1	40.772	12,996.1	39.1744	12,996.1	44.321	12,996.1	43.8304	12,996.1	44.0667	12,996.1	42.2036
13,454.6	84.3336	13,454.6	83.8172	13,454.6	84.126	13,454.6	78.9082	13,454.6	79.3103	13,454.6	73.2668	13,454.6	74.9423	13,454.6	66.0092	13,454.6	66.5725	13,454.6	57.9289	13,454.6	59.759	13,454.6	60.1104	13,454.6	60.3296	13,454.6	58.4492	13,454.6	58.8011	13,454.6	49.6923	13,454.6	55.2851	13,454.6	47.7506	13,454.6	47.5945	13,454.6	44.9024	13,454.6	54.1986	13,454.6	43.8396	13,454.6	60.032	13,454.6	33.3176	13,454.6	44.682	13,454.6	36.0212	13,454.6	37.9345	13,454.6	30.3701	13,454.6	34.3211	13,454.6	39.222	13,454.6	30.8091	13,454.6	33.7531	13,454.6	34.7922	13,454.6	37.6376	13,454.6	39.1842	13,454.6	35.2829
13,928.5	83.7021	13,928.5	82.3563	13,928.5	82.2122	13,928.5	79.2649	13,928.5	78.5579	13,928.5	73.6208	13,928.5	74.5168	13,928.5	71.495	13,928.5	72.0193	13,928.5	62.9041	13,928.5	63.8752	13,928.5	63.7169	13,928.5	63.9579	13,928.5	57.8441	13,928.5	54.6959	13,928.5	53.8155	13,928.5	56.3127	13,928.5	51.3024	13,928.5	52.3941	13,928.5	50.1704	13,928.5	56.9965	13,928.5	47.3917	13,928.5	61.8046	13,928.5	36.9573	13,928.5	51.0359	13,928.5	42.5468	13,928.5	41.5081	13,928.5	43.1802	13,928.5	24.6723	13,928.5	47.8435	13,928.5	25.8279	13,928.5	45.3596	13,928.5	37.516	13,928.5	29.7518	13,928.5	32.71	13,928.5	23.0171
14,419.9	83.8164	14,419.9	79.4633	14,419.9	79.5141	14,419.9	78.5971	14,419.9	78.2909	14,419.9	72.3667	14,419.9	72.2479	14,419.9	70.5839	14,419.9	70.7811	14,419.9	63.8967	14,419.9	61.421	14,419.9	59.9535	14,419.9	60.9337	14,419.9	52.2735	14,419.9	44.0839	14,419.9	55.4958	14,419.9	57.7305	14,419.9	50.2222	14,419.9	45.6545	14,419.9	50.6668	14,419.9	53.3962	14,419.9	46.0751	14,419.9	59.9251	14,419.9	38.0018	14,419.9	55.0753	14,419.9	42.4875	14,419.9	44.6161	14,419.9	45.2632	14,419.9	42.166	14,419.9	50.1592	14,419.9	46.8309	14,419.9	49.9035	14,419.9	43.8026	14,419.9	39.3833	14,419.9	35.9706	14,419.9	35.4077
14,928.2	83.2341	14,928.2	77.5881	14,928.2	78.6482	14,928.2	77.3205	14,928.2	77.326	14,928.2	71.9773	14,928.2	68.9131	14,928.2	68.2747	14,928.2	65.0724	14,928.2	64.6264	14,928.2	63.4154	14,928.2	51.4069	14,928.2	48.2036	14,928.2	52.6104	14,928.2	56.3841	14,928.2	57.3293	14,928.2	55.37	14,928.2	48.5993	14,928.2	47.1043	14,928.2	51.5503	14,928.2	51.0517	14,928.2	43.4215	14,928.2	60.1782	14,928.2	41.6919	14,928.2	54.6452	14,928.2	42.4067	14,928.2	44.8444	14,928.2	47.747	14,928.2	45.5066	14,928.2	52.5856	14,928.2	47.7457	14,928.2	52.1179	14,928.2	49.1197	14,928.2	44.5226	14,928.2	43.2258	14,928.2	43.1281
15,454.8	83.5197	15,454.8	77.9924	15,454.8	78.8376	15,454.8	76.763	15,454.8	76.699	15,454.8	73.5231	15,454.8	71.9337	15,454.8	68.3981	15,454.8	67.2511	15,454.8	65.0559	15,454.8	65.715	15,454.8	54.7056	15,454.8	54.6736	15,454.8	54.4551	15,454.8	58.782	15,454.8	56.221	15,454.8	57.6018	15,454.8	46.5741	15,454.8	45.1473	15,454.8	50.0253	15,454.8	54.2896	15,454.8	38.5462	15,454.8	62.6749	15,454.8	44.3719	15,454.8	55.0581	15,454.8	40.5811	15,454.8	42.2671	15,454.8	48.4687	15,454.8	45.8524	15,454.8	53.425	15,454.8	48.9602	15,454.8	51.8408	15,454.8	50.557	15,454.8	49.5394	15,454.8	45.5918	15,454.8	47.1614
15,999.8	82.4297	15,999.8	77.7835	15,999.8	77.9264	15,999.8	75.7565	15,999.8	76.3213	15,999.8	73.8377	15,999.8	73.5549	15,999.8	68.0433	15,999.8	69.8365	15,999.8	62.3911	15,999.8	65.9397	15,999.8	57.8783	15,999.8	55.1853	15,999.8	53.0953	15,999.8	57.3183	15,999.8	52.4331	15,999.8	56.6777	15,999.8	46.5507	15,999.8	38.3361	15,999.8	45.9677	15,999.8	54.6234	15,999.8	38.5569	15,999.8	63.6858	15,999.8	45.6944	15,999.8	54.8805	15,999.8	39.8501	15,999.8	35.2428	15,999.8	46.9643	15,999.8	42.1838	15,999.8	53.0596	15,999.8	46.8861	15,999.8	51.507	15,999.8	49.9621	15,999.8	51.375	15,999.8	46.9347	15,999.8	48.7951
16,564.5	80.4901	16,564.5	77.3583	16,564.5	77.2761	16,564.5	74.441	16,564.5	75.2382	16,564.5	72.4283	16,564.5	73.3522	16,564.5	67.4588	16,564.5	70.0744	16,564.5	62.1384	16,564.5	64.9763	16,564.5	58.6028	16,564.5	57.3461	16,564.5	55.0199	16,564.5	54.6327	16,564.5	48.171	16,564.5	54.6374	16,564.5	45.3059	16,564.5	44.3313	16,564.5	42.1484	16,564.5	55.1597	16,564.5	40.3685	16,564.5	64.5495	16,564.5	47.7943	16,564.5	54.0458	16,564.5	43.604	16,564.5	0.620209	16,564.5	47.9302	16,564.5	36.9173	16,564.5	54.1872	16,564.5	44.4316	16,564.5	52.1567	16,564.5	48.4652	16,564.5	51.3763	16,564.5	48.0019	16,564.5	47.3892
17,148.2	79.937	17,148.2	78.6216	17,148.2	78.7435	17,148.2	71.8072	17,148.2	73.1186	17,148.2	70.5265	17,148.2	72.9777	17,148.2	69.6553	17,148.2	71.8229	17,148.2	66.0662	17,148.2	66.2152	17,148.2	59.5138	17,148.2	56.96	17,148.2	57.6776	17,148.2	49.0164	17,148.2	44.4419	17,148.2	55.6682	17,148.2	46.7224	17,148.2	51.4703	17,148.2	37.9812	17,148.2	56.3389	17,148.2	47.7476	17,148.2	65.5473	17,148.2	50.8172	17,148.2	52.8661	17,148.2	48.1006	17,148.2	34.4625	17,148.2	50.8724	17,148.2	40.3877	17,148.2	56.6767	17,148.2	45.5551	17,148.2	52.622	17,148.2	49.7961	17,148.2	51.2846	17,148.2	50.9973	17,148.2	48.9192
17,753.2	79.3962	17,753.2	78.7333	17,753.2	79.184	17,753.2	70.3165	17,753.2	69.1477	17,753.2	67.1146	17,753.2	70.5082	17,753.2	67.5526	17,753.2	71.3919	17,753.2	65.3831	17,753.2	66.1782	17,753.2	54.2923	17,753.2	59.0024	17,753.2	54.5733	17,753.2	39.1884	17,753.2	48.0708	17,753.2	50.2812	17,753.2	45.4751	17,753.2	51.5913	17,753.2	33.9212	17,753.2	52.5839	17,753.2	47.2748	17,753.2	65.2384	17,753.2	48.1621	17,753.2	51.0697	17,753.2	47.2995	17,753.2	40.5537	17,753.2	47.7059	17,753.2	46.4682	17,753.2	53.3675	17,753.2	35.645	17,753.2	47.0158	17,753.2	47.5558	17,753.2	48.3313	17,753.2	50.4791	17,753.2	46.8468
18,379.4	75.9968	18,379.4	77.3212	18,379.4	77.1346	18,379.4	74.0743	18,379.4	72.565	18,379.4	68.881	18,379.4	70.0175	18,379.4	65.4483	18,379.4	69.1087	18,379.4	63.9534	18,379.4	64.2203	18,379.4	54.4704	18,379.4	58.5504	18,379.4	50.9284	18,379.4	52.2921	18,379.4	47.1411	18,379.4	37.7784	18,379.4	44.4034	18,379.4	43.854	18,379.4	24.4501	18,379.4	52.9253	18,379.4	44.1952	18,379.4	66.4141	18,379.4	38.5224	18,379.4	53.9131	18,379.4	40.0436	18,379.4	44.4536	18,379.4	36.4084	18,379.4	47.8543	18,379.4	43.9474	18,379.4	37.2681	18,379.4	45.4432	18,379.4	44.5176	18,379.4	43.5402	18,379.4	46.813	18,379.4	38.3379
19,027.6	73.9574	19,027.6	75.3418	19,027.6	74.5559	19,027.6	72.6279	19,027.6	71.4255	19,027.6	68.2825	19,027.6	67.9866	19,027.6	65.6984	19,027.6	67.2492	19,027.6	63.0185	19,027.6	62.6765	19,027.6	54.2407	19,027.6	57.2293	19,027.6	52.7831	19,027.6	51.4654	19,027.6	38.1411	19,027.6	47.5297	19,027.6	43.1112	19,027.6	39.6018	19,027.6	35.7222	19,027.6	52.7372	19,027.6	43.4038	19,027.6	64.8284	19,027.6	34.5302	19,027.6	53.5293	19,027.6	23.3071	19,027.6	43.5346	19,027.6	34.2605	19,027.6	47.1298	19,027.6	41.1749	19,027.6	43.6099	19,027.6	47.8084	19,027.6	45.3892	19,027.6	44.3225	19,027.6	41.0648	19,027.6	34.2268
19,698.5	74.8786	19,698.5	74.1446	19,698.5	74.1078	19,698.5	70.9735	19,698.5	69.7316	19,698.5	67.393	19,698.5	67.0376	19,698.5	64.1745	19,698.5	65.7046	19,698.5	61.1008	19,698.5	60.2986	19,698.5	54.3886	19,698.5	55.3369	19,698.5	49.2388	19,698.5	46.4817	19,698.5	40.2722	19,698.5	37.711	19,698.5	39.5326	19,698.5	41.487	19,698.5	41.8651	19,698.5	50.8686	19,698.5	44.1919	19,698.5	62.9727	19,698.5	33.6551	19,698.5	51.8123	19,698.5	33.367	19,698.5	43.1377	19,698.5	35.1941	19,698.5	48.2757	19,698.5	40.1978	19,698.5	45.6898	19,698.5	48.2259	19,698.5	45.9962	19,698.5	44.6238	19,698.5	37.2878	19,698.5	39.0168
19,999.5	75.9009	19,999.5	74.3786	19,999.5	74.827	19,999.5	71.4744	19,999.5	69.7406	19,999.5	67.1704	19,999.5	66.4474	19,999.5	62.959	19,999.5	64.6458	19,999.5	60.8285	19,999.5	57.7255	19,999.5	56.1558	19,999.5	56.3008	19,999.5	47.7979	19,999.5	46.7862	19,999.5	43.9005	19,999.5	46.8599	19,999.5	33.1627	19,999.5	45.6859	19,999.5	42.0493	19,999.5	48.7573	19,999.5	44.1008	19,999.5	63.076	19,999.5	23.273	19,999.5	50.6884	19,999.5	28.0406	19,999.5	34.3526	19,999.5	43.4805	19,999.5	50.7025	19,999.5	40.9047	19,999.5	41.9389	19,999.5	51.7128	19,999.5	48.2582	19,999.5	44.8445	19,999.5	33.4129	19,999.5	40.5187
