"Vertical Reflections"					
"Floor Reflection"		"Ceiling Reflection"		"Total Vertical Reflection"	
"Frequency [Hz]"	"Sound Pessure Level [dB]  / [2.83V 1m] "	"Frequency [Hz]"	"Sound Pessure Level [dB]  / [2.83V 1m] "	"Frequency [Hz]"	"Sound Pessure Level [dB]  / [2.83V 1m] "
20.5078	58.0589	20.5078	55.88	20.5078	57.1047
21.2402	58.9837	21.2402	57.9293	21.2402	58.4884
21.9727	58.0547	21.9727	56.3735	21.9727	57.2949
22.7051	59.1827	22.7051	56.9285	22.7051	58.2002
23.4375	60.8974	23.4375	58.9455	23.4375	60.0302
24.1699	61.8975	24.1699	60.2901	24.1699	61.1678
25.6348	63.6342	25.6348	62.0758	25.6348	62.9245
26.3672	64.4307	26.3672	62.888	26.3672	63.7275
27.0996	65.577	27.0996	64.205	27.0996	64.9449
27.832	66.1247	27.832	64.7622	27.832	65.4967
29.2969	67.947	29.2969	66.7605	29.2969	67.3941
30.0293	68.7306	30.0293	67.6368	30.0293	68.218
31.4941	70.1227	31.4941	69.1434	31.4941	69.6606
32.2266	70.796	32.2266	69.868	32.2266	70.3568
33.6914	72.1023	33.6914	71.2381	33.6914	71.6917
34.4238	72.6405	34.4238	71.8245	34.4238	72.2516
35.8887	73.641	35.8887	72.8828	35.8887	73.2784
37.3535	74.5669	37.3535	73.8652	37.3535	74.2302
38.8184	75.3005	38.8184	74.6432	38.8184	74.9842
39.5508	75.6083	39.5508	74.9814	39.5508	75.3062
41.0156	76.2518	41.0156	75.7085	41.0156	75.9886
42.4805	76.5605	42.4805	75.9821	42.4805	76.2809
43.9453	77.0169	43.9453	76.4743	43.9453	76.7541
45.4102	77.3028	45.4102	76.7915	45.4102	77.0547
47.6074	77.7228	47.6074	77.2562	47.6074	77.4957
49.0723	77.9486	49.0723	77.5052	49.0723	77.7326
50.5371	78.1592	50.5371	77.7261	50.5371	77.9481
52.7344	78.4263	52.7344	78.028	52.7344	78.2317
54.1992	78.615	54.1992	78.2237	54.1992	78.4237
56.3965	78.8379	56.3965	78.4842	56.3965	78.6646
58.5938	79.1354	58.5938	78.7812	58.5938	78.9619
60.0586	79.19	60.0586	78.8445	60.0586	79.0207
62.2559	79.4039	62.2559	79.0756	62.2559	79.2428
64.4531	79.6447	64.4531	79.3293	64.4531	79.4899
66.6504	79.8451	66.6504	79.5304	66.6504	79.6906
69.5801	80.1659	69.5801	79.8766	69.5801	80.0237
71.7773	80.34	71.7773	80.0627	71.7773	80.2035
73.9746	80.5977	73.9746	80.3316	73.9746	80.4667
76.9043	80.8433	76.9043	80.5928	76.9043	80.7199
79.834	81.0563	79.834	80.8071	79.834	80.9335
82.7637	81.3879	82.7637	81.151	82.7637	81.2711
85.6934	81.6985	85.6934	81.459	85.6934	81.5804
88.623	81.8704	88.623	81.6264	88.623	81.7501
91.5527	81.6701	91.5527	81.4805	91.5527	81.5763
94.4824	82.2516	94.4824	82.0555	94.4824	82.1546
98.1445	82.4622	98.1445	82.2734	98.1445	82.3688
101.807	82.6773	101.807	82.5269	101.807	82.6028
105.469	82.8851	105.469	82.7653	105.469	82.8257
109.131	83.1746	109.131	83.0186	109.131	83.0973
112.793	83.4267	112.793	83.2624	112.793	83.3453
116.455	83.6192	116.455	83.4649	116.455	83.5427
120.85	83.8483	120.85	83.726	120.85	83.7876
125.244	84.066	125.244	83.8779	125.244	83.973
129.639	84.2379	129.639	84.0495	129.639	84.1447
134.033	84.3075	134.033	84.1115	134.033	84.2106
138.428	84.4902	138.428	84.2697	138.428	84.3813
143.555	84.6512	143.555	84.3917	143.555	84.5234
148.682	84.7857	148.682	84.537	148.682	84.6631
153.809	84.9459	153.809	84.7122	153.809	84.8307
159.668	85.1941	159.668	84.9498	159.668	85.0737
164.795	85.2821	164.795	85.0406	164.795	85.163
170.654	85.2427	170.654	85.042	170.654	85.1435
176.514	85.3446	176.514	85.0782	176.514	85.2134
183.105	85.3901	183.105	85.095	183.105	85.245
189.697	85.4249	189.697	85.2613	189.697	85.3438
196.289	85.4543	196.289	85.3901	196.289	85.4223
202.881	85.5768	202.881	85.3949	202.881	85.4868
210.205	85.5614	210.205	85.4029	210.205	85.4829
217.529	85.5083	217.529	85.4261	217.529	85.4674
225.586	85.7024	225.586	85.5366	225.586	85.6203
232.91	85.9005	232.91	85.6186	232.91	85.7618
241.699	85.8318	241.699	85.4787	241.699	85.6588
249.756	85.9574	249.756	85.4353	249.756	85.7042
258.545	86.0127	258.545	85.4446	258.545	85.738
268.066	85.6408	268.066	84.5664	268.066	85.1367
277.588	85.0314	277.588	85.0243	277.588	85.0279
287.109	84.8259	287.109	85.0002	287.109	84.9139
297.363	85.9438	297.363	85.4755	297.363	85.716
307.617	86.175	307.617	85.5633	307.617	85.8799
318.604	86.6875	318.604	85.9527	318.604	86.3356
329.59	87.0202	329.59	86.0014	329.59	86.5406
341.309	86.5105	341.309	85.6375	341.309	86.0959
353.76	86.6774	353.76	85.668	353.76	86.202
366.211	86.6891	366.211	85.9628	366.211	86.3411
378.662	87.0617	378.662	85.9962	378.662	86.5615
392.578	86.5865	392.578	85.2632	392.578	85.975
405.762	86.1644	405.762	85.0022	405.762	85.6221
420.41	86.9184	420.41	85.4785	420.41	86.2579
435.059	86.4751	435.059	85.2667	435.059	85.9128
450.439	86.5028	450.439	85.1705	450.439	85.8875
466.553	86.7572	466.553	84.7716	466.553	85.8769
482.666	86.8996	482.666	84.5612	482.666	85.8859
500.244	87.2401	500.244	84.3881	500.244	86.0441
517.822	87.3305	517.822	85.8811	517.822	86.666
536.133	87.2169	536.133	84.8927	536.133	86.2084
554.443	87.1868	554.443	85.3807	554.443	86.3769
574.219	87.3977	574.219	84.9967	574.219	86.361
594.727	86.9464	594.727	85.1215	594.727	86.1291
615.234	86.9078	615.234	84.6936	615.234	85.9403
637.207	87.6604	637.207	84.3489	637.207	86.3129
659.912	87.8129	659.912	85.0252	659.912	86.639
683.35	88.5137	683.35	85.5354	683.35	87.275
706.787	90.0403	706.787	86.3362	706.787	88.5718
731.689	90.6159	731.689	86.9066	731.689	89.1458
758.057	90.7075	758.057	86.6533	758.057	89.1373
784.424	90.7863	784.424	86.2101	784.424	89.075
812.256	90.0005	812.256	85.8247	812.256	88.3962
840.82	89.8144	840.82	86.3488	840.82	88.4185
870.85	89.9208	870.85	86.286	870.85	88.473
901.611	90.0626	901.611	85.9095	901.611	88.4647
933.105	89.6678	933.105	86.8063	933.105	88.4686
966.064	89.2581	966.064	87.3674	966.064	88.4148
999.756	88.0538	999.756	88.3007	999.756	88.179
1,034.91	85.7851	1,034.91	87.976	1,034.91	87.0172
1,071.53	88.275	1,071.53	85.1315	1,071.53	86.9817
1,109.62	88.8857	1,109.62	84.79	1,109.62	87.3038
1,148.44	88.2664	1,148.44	84.9101	1,148.44	86.9047
1,189.45	86.8116	1,189.45	83.7187	1,189.45	85.5348
1,231.2	85.806	1,231.2	82.4511	1,231.2	84.4448
1,274.41	84.4856	1,274.41	81.0919	1,274.41	83.1121
1,319.82	82.7466	1,319.82	79.1387	1,319.82	81.307
1,365.97	81.1807	1,365.97	77.8121	1,365.97	79.8151
1,414.31	79.3464	1,414.31	77.1174	1,414.31	78.3734
1,464.11	78.7125	1,464.11	76.6843	1,464.11	77.8157
1,515.38	78.8899	1,515.38	76.48	1,515.38	77.85
1,568.85	79.7369	1,568.85	77.523	1,568.85	78.7695
1,624.51	80.9036	1,624.51	78.5342	1,624.51	79.8785
1,681.64	81.6059	1,681.64	79.4248	1,681.64	80.6508
1,740.97	81.987	1,740.97	80.4861	1,740.97	81.3011
1,802.49	82.4102	1,802.49	80.594	1,802.49	81.5963
1,866.21	82.6684	1,866.21	80.7485	1,866.21	81.8137
1,932.13	82.7425	1,932.13	81.3956	1,932.13	82.1211
2,000.24	82.7593	2,000.24	81.7268	2,000.24	82.2736
2,070.56	83.3036	2,070.56	84.031	2,070.56	83.6825
2,143.8	83.8018	2,143.8	82.9852	2,143.8	83.4127
2,219.24	83.6776	2,219.24	81.9507	2,219.24	82.8994
2,297.61	82.7265	2,297.61	81.6151	2,297.61	82.2063
2,378.17	82.8187	2,378.17	80.8558	2,378.17	81.9472
2,462.4	82.7737	2,462.4	80.2881	2,462.4	81.7064
2,548.83	82.5072	2,548.83	79.8762	2,548.83	81.3879
2,638.92	82.1426	2,638.92	79.6412	2,638.92	81.0695
2,731.93	82.3701	2,731.93	79.1682	2,731.93	81.0578
2,828.61	82.5408	2,828.61	78.6715	2,828.61	81.0235
2,928.22	82.7879	2,928.22	78.8602	2,928.22	81.2537
3,031.49	83.1919	3,031.49	78.8372	3,031.49	81.5389
3,138.43	83.4545	3,138.43	79.5584	3,138.43	81.9295
3,249.02	83.5831	3,249.02	79.8971	3,249.02	82.12
3,363.28	83.7267	3,363.28	80.0645	3,363.28	82.2707
3,481.93	83.571	3,481.93	80.0033	3,481.93	82.1437
3,604.98	82.9878	3,604.98	79.3434	3,604.98	81.5372
3,732.42	82.9249	3,732.42	79.2267	3,732.42	81.4581
3,863.53	81.8145	3,863.53	78.9279	3,863.53	80.6067
3,999.76	81.2294	3,999.76	78.5555	3,999.76	80.0951
4,141.11	80.9357	4,141.11	78.212	4,141.11	79.784
4,286.87	81.3408	4,286.87	78.6347	4,286.87	80.1952
4,438.48	81.0844	4,438.48	78.6783	4,438.48	80.0459
4,594.48	81.7135	4,594.48	79.2508	4,594.48	80.6544
4,757.08	83.9298	4,757.08	80.0181	4,757.08	82.4002
4,924.8	84.1507	4,924.8	79.7208	4,924.8	82.4777
5,098.39	83.6135	5,098.39	78.5115	5,098.39	81.7723
5,277.83	83.6086	5,277.83	77.7218	5,277.83	81.5945
5,463.87	83.3709	5,463.87	77.0755	5,463.87	81.2761
5,656.49	83.1342	5,656.49	77.8484	5,656.49	81.2502
5,856.45	83.276	5,856.45	78.2365	5,856.45	81.4495
6,062.99	83.6658	6,062.99	78.4162	6,062.99	81.7902
6,276.86	84.0876	6,276.86	77.9401	6,276.86	82.0213
6,498.05	84.3303	6,498.05	77.3887	6,498.05	82.1199
6,727.29	84.0279	6,727.29	76.9988	6,727.29	81.8029
6,964.6	84.0331	6,964.6	78.0088	6,964.6	81.9912
7,209.96	84.3912	7,209.96	78.1754	7,209.96	82.3117
7,464.11	84.3416	7,464.11	77.8214	7,464.11	82.205
7,727.78	83.8317	7,727.78	77.6915	7,727.78	81.7668
8,000.24	83.2834	8,000.24	77.5577	8,000.24	81.3029
8,282.23	83.2683	8,282.23	76.8546	8,282.23	81.1513
8,574.46	83.1332	8,574.46	76.3947	8,574.46	80.9576
8,876.22	83.1087	8,876.22	76.8211	8,876.22	81.0154
9,189.7	82.7841	9,189.7	76.89	9,189.7	80.7685
9,513.43	82.08	9,513.43	75.247	9,513.43	79.888
9,848.88	81.0393	9,848.88	73.8128	9,848.88	78.7822
10,196.8	80.5396	10,196.8	73.3466	10,196.8	78.2879
10,556.4	81.4733	10,556.4	73.1312	10,556.4	79.0567
10,928.5	81.225	10,928.5	72.1987	10,928.5	78.7268
11,313.7	80.1805	11,313.7	70.8295	11,313.7	77.6473
11,712.9	78.9797	11,712.9	68.1188	11,712.9	76.3118
12,126	79.6033	12,126	65.5748	12,126	76.7615
12,553.7	78.4252	12,553.7	62.9139	12,553.7	75.5353
12,996.1	77.3878	12,996.1	62.1291	12,996.1	74.5051
13,454.6	76.0589	13,454.6	62.7385	13,454.6	73.2462
13,928.5	75.8718	13,928.5	67.8803	13,928.5	73.5016
14,419.9	75.0613	14,419.9	66.9552	14,419.9	72.6756
14,928.2	73.3597	14,928.2	65.1239	14,928.2	70.9568
15,454.8	73.5335	15,454.8	65.405	15,454.8	71.1448
15,999.8	73.9892	15,999.8	64.6342	15,999.8	71.4556
16,564.5	73.3724	16,564.5	64.2223	16,564.5	70.8605
17,148.2	72.6773	17,148.2	66.7435	17,148.2	70.6536
17,753.2	70.4451	17,753.2	64.9668	17,753.2	68.5179
18,379.4	70.8202	18,379.4	63.2023	18,379.4	68.5031
19,027.6	69.2913	19,027.6	62.9981	19,027.6	67.197
19,698.5	67.8236	19,698.5	61.4385	19,698.5	65.7119
19,999.5	67.4684	19,999.5	60.791	19,999.5	65.3035
