"SPL Horizontal"																																																																							
"On-Axis"		"10°"		"-10°"		"20°"		"-20°"		"30°"		"-30°"		"40°"		"-40°"		"50°"		"-50°"		"60°"		"-60°"		"70°"		"-70°"		"80°"		"-80°"		"90°"		"-90°"		"100°"		"-100°"		"110°"		"-110°"		"120°"		"-120°"		"130°"		"-130°"		"140°"		"-140°"		"150°"		"-150°"		"160°"		"-160°"		"170°"		"-170°"		"180°"	
"Frequency [Hz]"	"Sound Pessure Level [dB]  / [2.83V 1m] "	"Frequency [Hz]"	"Sound Pessure Level [dB]  / [2.83V 1m] "	"Frequency [Hz]"	"Sound Pessure Level [dB]  / [2.83V 1m] "	"Frequency [Hz]"	"Sound Pessure Level [dB]  / [2.83V 1m] "	"Frequency [Hz]"	"Sound Pessure Level [dB]  / [2.83V 1m] "	"Frequency [Hz]"	"Sound Pessure Level [dB]  / [2.83V 1m] "	"Frequency [Hz]"	"Sound Pessure Level [dB]  / [2.83V 1m] "	"Frequency [Hz]"	"Sound Pessure Level [dB]  / [2.83V 1m] "	"Frequency [Hz]"	"Sound Pessure Level [dB]  / [2.83V 1m] "	"Frequency [Hz]"	"Sound Pessure Level [dB]  / [2.83V 1m] "	"Frequency [Hz]"	"Sound Pessure Level [dB]  / [2.83V 1m] "	"Frequency [Hz]"	"Sound Pessure Level [dB]  / [2.83V 1m] "	"Frequency [Hz]"	"Sound Pessure Level [dB]  / [2.83V 1m] "	"Frequency [Hz]"	"Sound Pessure Level [dB]  / [2.83V 1m] "	"Frequency [Hz]"	"Sound Pessure Level [dB]  / [2.83V 1m] "	"Frequency [Hz]"	"Sound Pessure Level [dB]  / [2.83V 1m] "	"Frequency [Hz]"	"Sound Pessure Level [dB]  / [2.83V 1m] "	"Frequency [Hz]"	"Sound Pessure Level [dB]  / [2.83V 1m] "	"Frequency [Hz]"	"Sound Pessure Level [dB]  / [2.83V 1m] "	"Frequency [Hz]"	"Sound Pessure Level [dB]  / [2.83V 1m] "	"Frequency [Hz]"	"Sound Pessure Level [dB]  / [2.83V 1m] "	"Frequency [Hz]"	"Sound Pessure Level [dB]  / [2.83V 1m] "	"Frequency [Hz]"	"Sound Pessure Level [dB]  / [2.83V 1m] "	"Frequency [Hz]"	"Sound Pessure Level [dB]  / [2.83V 1m] "	"Frequency [Hz]"	"Sound Pessure Level [dB]  / [2.83V 1m] "	"Frequency [Hz]"	"Sound Pessure Level [dB]  / [2.83V 1m] "	"Frequency [Hz]"	"Sound Pessure Level [dB]  / [2.83V 1m] "	"Frequency [Hz]"	"Sound Pessure Level [dB]  / [2.83V 1m] "	"Frequency [Hz]"	"Sound Pessure Level [dB]  / [2.83V 1m] "	"Frequency [Hz]"	"Sound Pessure Level [dB]  / [2.83V 1m] "	"Frequency [Hz]"	"Sound Pessure Level [dB]  / [2.83V 1m] "	"Frequency [Hz]"	"Sound Pessure Level [dB]  / [2.83V 1m] "	"Frequency [Hz]"	"Sound Pessure Level [dB]  / [2.83V 1m] "	"Frequency [Hz]"	"Sound Pessure Level [dB]  / [2.83V 1m] "	"Frequency [Hz]"	"Sound Pessure Level [dB]  / [2.83V 1m] "	"Frequency [Hz]"	"Sound Pessure Level [dB]  / [2.83V 1m] "
20.5078	56.0831	20.5078	56.4354	20.5078	55.7151	20.5078	56.7614	20.5078	55.3428	20.5078	57.052	20.5078	54.9787	20.5078	57.2994	20.5078	54.636	20.5078	57.4969	20.5078	54.3278	20.5078	57.6396	20.5078	54.0663	20.5078	57.7242	20.5078	53.8621	20.5078	57.7493	20.5078	53.7232	20.5078	57.7153	20.5078	53.6543	20.5078	57.6245	20.5078	53.6566	20.5078	57.481	20.5078	53.728	20.5078	57.2901	20.5078	53.8631	20.5078	57.0581	20.5078	54.0546	20.5078	56.7918	20.5078	54.2932	20.5078	56.4982	20.5078	54.5691	20.5078	56.1846	20.5078	54.8726	20.5078	55.8579	20.5078	55.1942	20.5078	55.5253
23.4375	57.0707	23.4375	57.4979	23.4375	56.6208	23.4375	57.8898	23.4375	56.1623	23.4375	58.2358	23.4375	55.7109	23.4375	58.527	23.4375	55.2834	23.4375	58.7562	23.4375	54.8962	23.4375	58.918	23.4375	54.5643	23.4375	59.0086	23.4375	54.3	23.4375	59.0265	23.4375	54.1121	23.4375	58.9719	23.4375	54.0053	23.4375	58.8472	23.4375	53.981	23.4375	58.6566	23.4375	54.0375	23.4375	58.4062	23.4375	54.1706	23.4375	58.1033	23.4375	54.3741	23.4375	57.7565	23.4375	54.6401	23.4375	57.3753	23.4375	54.9592	23.4375	56.9697	23.4375	55.321	23.4375	56.5502	23.4375	55.7145	23.4375	56.128
26.3672	58.6811	26.3672	59.147	26.3672	58.1888	26.3672	59.5733	26.3672	57.6856	26.3672	59.9493	26.3672	57.189	26.3672	60.266	26.3672	56.7182	26.3672	60.5165	26.3672	56.2922	26.3672	60.6956	26.3672	55.9288	26.3672	60.8003	26.3672	55.6425	26.3672	60.8289	26.3672	55.4434	26.3672	60.7822	26.3672	55.3371	26.3672	60.6625	26.3672	55.3247	26.3672	60.4739	26.3672	55.4042	26.3672	60.222	26.3672	55.5704	26.3672	59.9135	26.3672	55.8157	26.3672	59.5561	26.3672	56.1301	26.3672	59.1582	26.3672	56.5012	26.3672	58.729	26.3672	56.9156	26.3672	58.2785	26.3672	57.3592	26.3672	57.8179
29.2969	59.7221	29.2969	60.2603	29.2969	59.1486	29.2969	60.7488	29.2969	58.5573	29.2969	61.1767	29.2969	57.9691	29.2969	61.535	29.2969	57.4076	29.2969	61.8173	29.2969	56.8975	29.2969	62.0188	29.2969	56.4617	29.2969	62.1365	29.2969	56.1189	29.2969	62.1694	29.2969	55.8814	29.2969	62.118	29.2969	55.7556	29.2969	61.9847	29.2969	55.7423	29.2969	61.7736	29.2969	55.8389	29.2969	61.4902	29.2969	56.0395	29.2969	61.1414	29.2969	56.335	29.2969	60.7348	29.2969	56.7133	29.2969	60.2792	29.2969	57.1588	29.2969	59.7844	29.2969	57.654	29.2969	59.2611	29.2969	58.1809	29.2969	58.7219
32.2266	60.6099	32.2266	61.2202	32.2266	59.9559	32.2266	61.7714	32.2266	59.2781	32.2266	62.2519	32.2266	58.6018	32.2266	62.6534	32.2266	57.9564	32.2266	62.9698	32.2266	57.373	32.2266	63.1972	32.2266	56.8804	32.2266	63.3333	32.2266	56.5006	32.2266	63.3776	32.2266	56.2466	32.2266	63.3311	32.2266	56.1227	32.2266	63.1966	32.2266	56.1278	32.2266	62.978	32.2266	56.2574	32.2266	62.6805	32.2266	56.5052	32.2266	62.3102	32.2266	56.8615	32.2266	61.874	32.2266	57.3119	32.2266	61.3796	32.2266	57.8377	32.2266	60.8358	32.2266	58.4168	32.2266	60.2532	32.2266	59.0264	32.2266	59.6448
35.1563	61.1531	35.1563	61.8957	35.1563	60.3409	35.1563	62.5549	35.1563	59.4799	35.1563	63.1214	35.1563	58.5999	35.1563	63.5894	35.1563	57.7404	35.1563	63.9552	35.1563	56.9483	35.1563	64.2165	35.1563	56.2715	35.1563	64.3725	35.1563	55.7491	35.1563	64.4235	35.1563	55.4035	35.1563	64.3711	35.1563	55.2403	35.1563	64.2177	35.1563	55.2553	35.1563	63.9672	35.1563	55.4411	35.1563	63.624	35.1563	55.7886	35.1563	63.1933	35.1563	56.2836	35.1563	62.681	35.1563	56.903	35.1563	62.0934	35.1563	57.6153	35.1563	61.4381	35.1563	58.3851	35.1563	60.7247	35.1563	59.1783	35.1563	59.9658
38.0859	61.7195	38.0859	62.6082	38.0859	60.7278	38.0859	63.3844	38.0859	59.6509	38.0859	64.0437	38.0859	58.5204	38.0859	64.5843	38.0859	57.3863	38.0859	65.0059	38.0859	56.3184	38.0859	65.309	38.0859	55.3972	38.0859	65.4946	38.0859	54.6931	38.0859	65.5641	38.0859	54.2436	38.0859	65.5196	38.0859	54.0511	38.0859	65.3638	38.0859	54.1019	38.0859	65.0997	38.0859	54.385	38.0859	64.7304	38.0859	54.8926	38.0859	64.2592	38.0859	55.605	38.0859	63.6892	38.0859	56.481	38.0859	63.0237	38.0859	57.463	38.0859	62.2664	38.0859	58.4913	38.0859	61.4226	38.0859	59.516	38.0859	60.501
41.0156	61.6657	41.0156	62.8365	41.0156	60.2929	41.0156	63.8231	41.0156	58.6969	41.0156	64.6399	41.0156	56.8551	41.0156	65.2981	41.0156	54.7503	41.0156	65.8059	41.0156	52.3892	41.0156	66.1698	41.0156	49.8497	41.0156	66.3948	41.0156	47.3746	41.0156	66.4846	41.0156	45.4498	41.0156	66.4425	41.0156	44.6043	41.0156	66.2711	41.0156	44.9976	41.0156	65.9725	41.0156	46.4229	41.0156	65.5475	41.0156	48.4997	41.0156	64.9959	41.0156	50.8173	41.0156	64.3157	41.0156	53.0902	41.0156	63.5021	41.0156	55.1844	41.0156	62.5478	41.0156	57.0592	41.0156	61.442	41.0156	58.7159	41.0156	60.1705
43.9453	62.9798	43.9453	64.1977	43.9453	61.5596	43.9453	65.2264	43.9453	59.9292	43.9453	66.0789	43.9453	58.0994	43.9453	66.7667	43.9453	56.1282	43.9453	67.2989	43.9453	54.1693	43.9453	67.6828	43.9453	52.4952	43.9453	67.9239	43.9453	51.3618	43.9453	68.0269	43.9453	50.7556	43.9453	67.9953	43.9453	50.4327	43.9453	67.8317	43.9453	50.238	43.9453	67.5381	43.9453	50.3059	43.9453	67.1149	43.9453	50.9898	43.9453	66.5611	43.9453	52.448	43.9453	65.8733	43.9453	54.3949	43.9453	65.0454	43.9453	56.4411	43.9453	64.0677	43.9453	58.3656	43.9453	62.9272	43.9453	60.0912	43.9453	61.6076
46.875	65.786	46.875	66.7065	46.875	64.8092	46.875	67.5351	46.875	63.8338	46.875	68.252	46.875	62.9388	46.875	68.8473	46.875	62.2076	46.875	69.3169	46.875	61.6931	46.875	69.6596	46.875	61.3863	46.875	69.8759	46.875	61.2224	46.875	69.9671	46.875	61.1175	46.875	69.935	46.875	61.0072	46.875	69.7815	46.875	60.8658	46.875	69.5087	46.875	60.7142	46.875	69.1185	46.875	60.6204	46.875	68.6125	46.875	60.6858	46.875	67.9927	46.875	61.006	46.875	67.2615	46.875	61.6156	46.875	66.4243	46.875	62.4651	46.875	65.4923	46.875	63.4555	46.875	64.4884
49.8047	69.6894	49.8047	70.2452	49.8047	69.147	49.8047	70.7813	49.8047	68.6535	49.8047	71.2713	49.8047	68.2397	49.8047	71.6954	49.8047	67.923	49.8047	72.04	49.8047	67.7014	49.8047	72.2964	49.8047	67.5546	49.8047	72.4594	49.8047	67.4525	49.8047	72.5265	49.8047	67.3659	49.8047	72.4975	49.8047	67.275	49.8047	72.3736	49.8047	67.1743	49.8047	72.1576	49.8047	67.075	49.8047	71.8537	49.8047	67.0035	49.8047	71.4674	49.8047	66.9967	49.8047	71.0067	49.8047	67.093	49.8047	70.4821	49.8047	67.319	49.8047	69.9093	49.8047	67.6797	49.8047	69.3097	49.8047	68.1561	49.8047	68.713
52.7344	73.2216	52.7344	73.5637	52.7344	72.8967	52.7344	73.9036	52.7344	72.6059	52.7344	74.2228	52.7344	72.3611	52.7344	74.5054	52.7344	72.1661	52.7344	74.7383	52.7344	72.0164	52.7344	74.9119	52.7344	71.9009	52.7344	75.0199	52.7344	71.8057	52.7344	75.0585	52.7344	71.7184	52.7344	75.0263	52.7344	71.6314	52.7344	74.9244	52.7344	71.5448	52.7344	74.7556	52.7344	71.4662	52.7344	74.5246	52.7344	71.4103	52.7344	74.238	52.7344	71.3963	52.7344	73.9048	52.7344	71.4432	52.7344	73.5362	52.7344	71.565	52.7344	73.1468	52.7344	71.7669	52.7344	72.7542	52.7344	72.0431	52.7344	72.3789
55.6641	76.2043	55.6641	76.426	55.6641	75.9916	55.6641	76.646	55.6641	75.7964	55.6641	76.8535	55.6641	75.624	55.6641	77.038	55.6641	75.476	55.6641	77.1905	55.6641	75.3503	55.6641	77.3036	55.6641	75.242	55.6641	77.3723	55.6641	75.1455	55.6641	77.3932	55.6641	75.0565	55.6641	77.365	55.6641	74.9734	55.6641	77.2883	55.6641	74.8986	55.6641	77.1653	55.6641	74.8386	55.6641	76.9995	55.6641	74.8028	55.6641	76.7962	55.6641	74.8019	55.6641	76.562	55.6641	74.8456	55.6641	76.3054	55.6641	74.94	55.6641	76.0365	55.6641	75.086	55.6641	75.7671	55.6641	75.2791	55.6641	75.5102
58.5938	78.617	58.5938	78.7668	58.5938	78.4661	58.5938	78.9093	58.5938	78.3191	58.5938	79.0384	58.5938	78.1797	58.5938	79.1483	58.5938	78.0497	58.5938	79.2336	58.5938	77.9296	58.5938	79.2902	58.5938	77.8185	58.5938	79.3154	58.5938	77.7152	58.5938	79.3075	58.5938	77.6195	58.5938	79.2662	58.5938	77.5323	58.5938	79.1923	58.5938	77.4569	58.5938	79.0877	58.5938	77.3983	58.5938	78.9552	58.5938	77.363	58.5938	78.7988	58.5938	77.3573	58.5938	78.6231	58.5938	77.3865	58.5938	78.4339	58.5938	77.4533	58.5938	78.2383	58.5938	77.5574	58.5938	78.0441	58.5938	77.6952	58.5938	77.8601
61.5234	80.3041	61.5234	80.413	61.5234	80.1869	61.5234	80.5098	61.5234	80.0648	61.5234	80.5912	61.5234	79.941	61.5234	80.6538	61.5234	79.8181	61.5234	80.6954	61.5234	79.6978	61.5234	80.7142	61.5234	79.582	61.5234	80.7093	61.5234	79.4721	61.5234	80.6806	61.5234	79.3702	61.5234	80.6289	61.5234	79.2792	61.5234	80.5555	61.5234	79.2028	61.5234	80.4622	61.5234	79.1456	61.5234	80.3512	61.5234	79.1121	61.5234	80.2254	61.5234	79.1062	61.5234	80.0877	61.5234	79.1303	61.5234	79.9419	61.5234	79.1848	61.5234	79.7923	61.5234	79.268	61.5234	79.6442	61.5234	79.3759	61.5234	79.5033
64.4531	81.4733	64.4531	81.5603	64.4531	81.3736	64.4531	81.6321	64.4531	81.2638	64.4531	81.6869	64.4531	81.1472	64.4531	81.7234	64.4531	81.0267	64.4531	81.7411	64.4531	80.9057	64.4531	81.74	64.4531	80.7874	64.4531	81.7206	64.4531	80.6754	64.4531	81.6839	64.4531	80.5733	64.4531	81.631	64.4531	80.4849	64.4531	81.5635	64.4531	80.4141	64.4531	81.4828	64.4531	80.3648	64.4531	81.3902	64.4531	80.3398	64.4531	81.2874	64.4531	80.341	64.4531	81.1762	64.4531	80.3689	64.4531	81.0587	64.4531	80.4221	64.4531	80.9377	64.4531	80.4978	64.4531	80.8167	64.4531	80.592	64.4531	80.6999
67.3828	82.2784	67.3828	82.3547	67.3828	82.1846	67.3828	82.4114	67.3828	82.076	67.3828	82.4475	67.3828	81.9558	67.3828	82.4629	67.3828	81.8283	67.3828	82.4583	67.3828	81.6978	67.3828	82.4348	67.3828	81.5689	67.3828	82.3946	67.3828	81.4464	67.3828	82.3396	67.3828	81.3351	67.3828	82.2722	67.3828	81.2394	67.3828	82.1946	67.3828	81.1633	67.3828	82.1084	67.3828	81.11	67.3828	82.0152	67.3828	81.0816	67.3828	81.9162	67.3828	81.0788	67.3828	81.8124	67.3828	81.101	67.3828	81.7055	67.3828	81.1463	67.3828	81.5972	67.3828	81.2117	67.3828	81.4902	67.3828	81.2935	67.3828	81.3877
70.3125	82.7066	70.3125	82.7815	70.3125	82.6139	70.3125	82.8367	70.3125	82.5062	70.3125	82.8716	70.3125	82.3874	70.3125	82.8864	70.3125	82.2619	70.3125	82.8822	70.3125	82.1349	70.3125	82.861	70.3125	82.012	70.3125	82.825	70.3125	81.8986	70.3125	82.7767	70.3125	81.7998	70.3125	82.7187	70.3125	81.72	70.3125	82.6529	70.3125	81.6624	70.3125	82.581	70.3125	81.629	70.3125	82.5039	70.3125	81.6204	70.3125	82.4222	70.3125	81.6356	70.3125	82.3362	70.3125	81.6723	70.3125	82.2465	70.3125	81.7276	70.3125	82.1541	70.3125	81.7978	70.3125	82.0604	70.3125	81.8791	70.3125	81.9678
73.2422	83.0262	73.2422	83.0963	73.2422	82.9366	73.2422	83.1453	73.2422	82.8304	73.2422	83.1729	73.2422	82.7116	73.2422	83.1798	73.2422	82.5856	73.2422	83.1679	73.2422	82.4583	73.2422	83.1398	73.2422	82.3361	73.2422	83.0989	73.2422	82.2256	73.2422	83.0484	73.2422	82.1327	73.2422	82.9917	73.2422	82.0623	73.2422	82.9314	73.2422	82.0178	73.2422	82.8694	73.2422	82.0002	73.2422	82.8068	73.2422	82.0088	73.2422	82.7434	73.2422	82.0407	73.2422	82.6786	73.2422	82.0918	73.2422	82.6114	73.2422	82.157	73.2422	82.5409	73.2422	82.2312	73.2422	82.4667	73.2422	82.3098	73.2422	82.3892
76.1719	83.3898	76.1719	83.4616	76.1719	83.2969	76.1719	83.5108	76.1719	83.1859	76.1719	83.537	76.1719	83.0612	76.1719	83.5414	76.1719	82.9285	76.1719	83.5259	76.1719	82.7943	76.1719	83.4937	76.1719	82.6657	76.1719	83.4481	76.1719	82.5496	76.1719	83.3929	76.1719	82.4526	76.1719	83.3317	76.1719	82.3797	76.1719	83.2675	76.1719	82.3341	76.1719	83.2023	76.1719	82.3168	76.1719	83.1372	76.1719	82.3266	76.1719	83.0721	76.1719	82.3602	76.1719	83.0062	76.1719	82.413	76.1719	82.9384	76.1719	82.4798	76.1719	82.8675	76.1719	82.5553	76.1719	82.793	76.1719	82.635	76.1719	82.715
79.1016	83.5824	79.1016	83.663	79.1016	83.4792	79.1016	83.7189	79.1016	83.3567	79.1016	83.7501	79.1016	83.2199	79.1016	83.7573	79.1016	83.0752	79.1016	83.743	79.1016	82.9301	79.1016	83.7102	79.1016	82.7929	79.1016	83.6628	79.1016	82.6716	79.1016	83.605	79.1016	82.5733	79.1016	83.5408	79.1016	82.5036	79.1016	83.4737	79.1016	82.4654	79.1016	83.4064	79.1016	82.459	79.1016	83.3403	79.1016	82.4819	79.1016	83.2755	79.1016	82.5294	79.1016	83.2111	79.1016	82.5955	79.1016	83.1456	79.1016	82.6736	79.1016	83.077	79.1016	82.7578	79.1016	83.0039	79.1016	82.843	79.1016	82.9257
82.0313	83.7025	82.0313	83.7885	82.0313	83.5931	82.0313	83.8493	82.0313	83.4634	82.0313	83.8849	82.0313	83.3185	82.0313	83.8962	82.0313	83.1648	82.0313	83.8855	82.0313	83.0102	82.0313	83.8559	82.0313	82.863	82.0313	83.8107	82.0313	82.7321	82.0313	83.7539	82.0313	82.6253	82.0313	83.689	82.0313	82.5486	82.0313	83.6193	82.0313	82.5058	82.0313	83.5472	82.0313	82.4972	82.0313	83.4744	82.0313	82.5207	82.0313	83.4013	82.0313	82.5712	82.0313	83.3276	82.0313	82.6422	82.0313	83.2522	82.0313	82.7269	82.0313	83.1738	82.0313	82.8186	82.0313	83.0911	82.0313	82.9122	82.0313	83.0037
84.9609	83.8352	84.9609	83.9115	84.9609	83.733	84.9609	83.9607	84.9609	83.6075	84.9609	83.9835	84.9609	83.4635	84.9609	83.9819	84.9609	83.3072	84.9609	83.9591	84.9609	83.1466	84.9609	83.9189	84.9609	82.9905	84.9609	83.8657	84.9609	82.8478	84.9609	83.8035	84.9609	82.7271	84.9609	83.7359	84.9609	82.6352	84.9609	83.6655	84.9609	82.5766	84.9609	83.5939	84.9609	82.5527	84.9609	83.5214	84.9609	82.5622	84.9609	83.4473	84.9609	82.6009	84.9609	83.3708	84.9609	82.6632	84.9609	83.2905	84.9609	82.7424	84.9609	83.2057	84.9609	82.8322	84.9609	83.1163	84.9609	82.9271	84.9609	83.0228
87.8906	83.8742	87.8906	83.9386	87.8906	83.7835	87.8906	83.9755	87.8906	83.6694	87.8906	83.9858	87.8906	83.5369	87.8906	83.9718	87.8906	83.3924	87.8906	83.9374	87.8906	83.2441	87.8906	83.8871	87.8906	83.1006	87.8906	83.8263	87.8906	82.9709	87.8906	83.7602	87.8906	82.8627	87.8906	83.6934	87.8906	82.7821	87.8906	83.629	87.8906	82.7329	87.8906	83.5688	87.8906	82.7157	87.8906	83.5126	87.8906	82.7286	87.8906	83.4587	87.8906	82.7673	87.8906	83.4046	87.8906	82.8261	87.8906	83.3476	87.8906	82.8987	87.8906	83.2853	87.8906	82.9788	87.8906	83.2165	87.8906	83.0611	87.8906	83.1413
90.8203	83.8183	90.8203	83.8847	90.8203	83.7269	90.8203	83.9247	90.8203	83.6138	90.8203	83.9391	90.8203	83.4842	90.8203	83.93	90.8203	83.3453	90.8203	83.9011	90.8203	83.2054	90.8203	83.8571	90.8203	83.0737	90.8203	83.8031	90.8203	82.959	90.8203	83.7446	90.8203	82.8687	90.8203	83.6863	90.8203	82.8083	90.8203	83.6322	90.8203	82.7801	90.8203	83.5839	90.8203	82.7834	90.8203	83.5415	90.8203	82.8148	90.8203	83.503	90.8203	82.8688	90.8203	83.4651	90.8203	82.939	90.8203	83.4241	90.8203	83.0185	90.8203	83.3768	90.8203	83.101	90.8203	83.3208	90.8203	83.1813	90.8203	83.2553
93.75	84.1224	93.75	84.2114	93.75	84.0074	93.75	84.2716	93.75	83.871	93.75	84.3019	93.75	83.7199	93.75	84.303	93.75	83.5622	93.75	84.2775	93.75	83.4075	93.75	84.2293	93.75	83.266	93.75	84.164	93.75	83.1471	93.75	84.0881	93.75	83.0591	93.75	84.0087	93.75	83.0071	93.75	83.9324	93.75	82.9927	93.75	83.8644	93.75	83.0138	93.75	83.8074	93.75	83.065	93.75	83.7612	93.75	83.1382	93.75	83.7231	93.75	83.2248	93.75	83.6882	93.75	83.3158	93.75	83.6511	93.75	83.404	93.75	83.6068	93.75	83.4836	93.75	83.5515
96.6797	84.1992	96.6797	84.2992	96.6797	84.0679	96.6797	84.3657	96.6797	83.9099	96.6797	84.3983	96.6797	83.7315	96.6797	84.3982	96.6797	83.5413	96.6797	84.3684	96.6797	83.3493	96.6797	84.3128	96.6797	83.1664	96.6797	84.2364	96.6797	83.0032	96.6797	84.1449	96.6797	82.8691	96.6797	84.0438	96.6797	82.7709	96.6797	83.9386	96.6797	82.7121	96.6797	83.8335	96.6797	82.6924	96.6797	83.7317	96.6797	82.7082	96.6797	83.6344	96.6797	82.7536	96.6797	83.5415	96.6797	82.8212	96.6797	83.4515	96.6797	82.9036	96.6797	83.3626	96.6797	82.9942	96.6797	83.2729	96.6797	83.0879	96.6797	83.1813
102.539	83.9847	102.539	84.0819	102.539	83.8584	102.539	84.1476	102.539	83.7077	102.539	84.1815	102.539	83.5395	102.539	84.185	102.539	83.3628	102.539	84.1615	102.539	83.1881	102.539	84.1152	102.539	83.0266	102.539	84.0515	102.539	82.8889	102.539	83.9765	102.539	82.7838	102.539	83.8961	102.539	82.7171	102.539	83.8158	102.539	82.6907	102.539	83.7395	102.539	82.703	102.539	83.6697	102.539	82.7487	102.539	83.6063	102.539	82.8204	102.539	83.5474	102.539	82.9093	102.539	83.4896	102.539	83.007	102.539	83.429	102.539	83.1058	102.539	83.3618	102.539	83.1999	102.539	83.2857
105.469	83.9731	105.469	84.0776	105.469	83.8362	105.469	84.1472	105.469	83.6719	105.469	84.1817	105.469	83.4877	105.469	84.1829	105.469	83.2935	105.469	84.1542	105.469	83.101	105.469	84.1004	105.469	82.9229	105.469	84.0273	105.469	82.7713	105.469	83.9413	105.469	82.6563	105.469	83.8488	105.469	82.5844	105.469	83.756	105.469	82.5576	105.469	83.6674	105.469	82.5732	105.469	83.5861	105.469	82.6246	105.469	83.5128	105.469	82.7025	105.469	83.4462	105.469	82.7969	105.469	83.3834	105.469	82.8983	105.469	83.3203	105.469	82.9987	105.469	83.2528	105.469	83.0928	105.469	83.1776
108.398	83.9901	108.398	84.0943	108.398	83.8514	108.398	84.1618	108.398	83.6831	108.398	84.1926	108.398	83.4924	108.398	84.189	108.398	83.2895	108.398	84.1546	108.398	83.0864	108.398	84.0946	108.398	82.8962	108.398	84.0151	108.398	82.7317	108.398	83.9228	108.398	82.604	108.398	83.8245	108.398	82.5205	108.398	83.7263	108.398	82.4839	108.398	83.6327	108.398	82.4922	108.398	83.5467	108.398	82.5389	108.398	83.4688	108.398	82.6149	108.398	83.3973	108.398	82.7096	108.398	83.3292	108.398	82.8131	108.398	83.2604	108.398	82.9172	108.398	83.1871	108.398	83.0159	108.398	83.1061
111.328	83.9499	111.328	84.0561	111.328	83.8091	111.328	84.1254	111.328	83.6383	111.328	84.1581	111.328	83.4451	111.328	84.1565	111.328	83.2396	111.328	84.1245	111.328	83.0338	111.328	84.0674	111.328	82.841	111.328	83.9915	111.328	82.6741	111.328	83.9034	111.328	82.5443	111.328	83.8097	111.328	82.459	111.328	83.7161	111.328	82.4212	111.328	83.6267	111.328	82.4289	111.328	83.5436	111.328	82.476	111.328	83.4666	111.328	82.5535	111.328	83.3937	111.328	82.6512	111.328	83.3215	111.328	82.7595	111.328	83.2464	111.328	82.8699	111.328	83.1651	111.328	82.9765	111.328	83.0753
117.188	83.8806	117.188	83.9763	117.188	83.7467	117.188	84.0318	117.188	83.5793	117.188	84.048	117.188	83.3862	117.188	84.0277	117.188	83.1781	117.188	83.9758	117.188	82.9679	117.188	83.8991	117.188	82.7701	117.188	83.8051	117.188	82.599	117.188	83.7025	117.188	82.4669	117.188	83.5998	117.188	82.3824	117.188	83.5045	117.188	82.349	117.188	83.422	117.188	82.3645	117.188	83.3546	117.188	82.4222	117.188	83.3011	117.188	82.5116	117.188	83.2571	117.188	82.6207	117.188	83.2161	117.188	82.7375	117.188	83.1709	117.188	82.8517	117.188	83.1148	117.188	82.9553	117.188	83.0435
120.117	83.8766	120.117	83.9607	120.117	83.7534	120.117	84.004	120.117	83.5959	120.117	84.007	120.117	83.4117	120.117	83.9727	120.117	83.2113	120.117	83.9062	120.117	83.0076	120.117	83.8138	120.117	82.8148	120.117	83.7035	120.117	82.6471	120.117	83.5844	120.117	82.5165	120.117	83.4656	120.117	82.4315	120.117	83.3558	120.117	82.3953	120.117	83.2619	120.117	82.4055	120.117	83.1878	120.117	82.4549	120.117	83.1336	120.117	82.5327	120.117	83.0955	120.117	82.6266	120.117	83.067	120.117	82.7249	120.117	83.0399	120.117	82.8173	120.117	83.0063	120.117	82.8969	120.117	82.9598
125.977	83.4963	125.977	83.5853	125.977	83.3696	125.977	83.6342	125.977	83.2102	125.977	83.6432	125.977	83.0262	125.977	83.6144	125.977	82.8281	125.977	83.5518	125.977	82.6289	125.977	83.4608	125.977	82.4424	125.977	83.348	125.977	82.2821	125.977	83.2211	125.977	82.159	125.977	83.0887	125.977	82.0803	125.977	82.9595	125.977	82.0478	125.977	82.8419	125.977	82.058	125.977	82.7425	125.977	82.1026	125.977	82.6649	125.977	82.1703	125.977	82.6093	125.977	82.2491	125.977	82.5719	125.977	82.3277	125.977	82.5458	125.977	82.3973	125.977	82.5225	125.977	82.453	125.977	82.4937
128.906	83.2264	128.906	83.3326	128.906	83.081	128.906	83.3974	128.906	82.9013	128.906	83.4211	128.906	82.6953	128.906	83.4063	128.906	82.4739	128.906	83.3569	128.906	82.2506	128.906	83.2781	128.906	82.0397	128.906	83.1758	128.906	81.8555	128.906	83.0564	128.906	81.7101	128.906	82.9269	128.906	81.6113	128.906	82.7937	128.906	81.5615	128.906	82.6631	128.906	81.5579	128.906	82.5404	128.906	81.5926	128.906	82.4297	128.906	81.655	128.906	82.3328	128.906	81.7335	128.906	82.2494	128.906	81.8177	128.906	82.177	128.906	81.9	128.906	82.1107	128.906	81.976	128.906	82.0453
134.766	82.9287	134.766	83.0432	134.766	82.7742	134.766	83.1156	134.766	82.5851	134.766	83.1467	134.766	82.3702	134.766	83.14	134.766	82.1411	134.766	83.1009	134.766	81.9118	134.766	83.0367	134.766	81.6977	134.766	82.9558	134.766	81.5133	134.766	82.8666	134.766	81.3711	134.766	82.7768	134.766	81.2797	134.766	82.6924	134.766	81.2426	134.766	82.6164	134.766	81.2581	134.766	82.5488	134.766	81.3198	134.766	82.4864	134.766	81.4181	134.766	82.4243	134.766	81.5417	134.766	82.3567	134.766	81.6789	134.766	82.2786	134.766	81.8193	134.766	82.1861	134.766	81.9543	134.766	82.0777
137.695	82.8508	137.695	82.9655	137.695	82.694	137.695	83.0353	137.695	82.5018	137.695	83.0604	137.695	82.2843	137.695	83.0442	137.695	82.0551	137.695	82.9926	137.695	81.8298	137.695	82.9137	137.695	81.625	137.695	82.8171	137.695	81.4563	137.695	82.7134	137.695	81.3357	137.695	82.613	137.695	81.2705	137.695	82.5246	137.695	81.2621	137.695	82.4537	137.695	81.3062	137.695	82.4016	137.695	81.3935	137.695	82.3651	137.695	81.5122	137.695	82.3374	137.695	81.6487	137.695	82.3097	137.695	81.7902	137.695	82.2727	137.695	81.9253	137.695	82.219	137.695	82.0449	137.695	82.1435
143.555	82.707	143.555	82.808	143.555	82.56	143.555	82.8606	143.555	82.3736	143.555	82.8653	143.555	82.1583	143.555	82.8261	143.555	81.9278	143.555	82.7493	143.555	81.6988	143.555	82.6435	143.555	81.4891	143.555	82.5188	143.555	81.3153	143.555	82.3868	143.555	81.1908	143.555	82.2592	143.555	81.1236	143.555	82.147	143.555	81.1148	143.555	82.0584	143.555	81.1591	143.555	81.9976	143.555	81.2459	143.555	81.9635	143.555	81.3612	143.555	81.9499	143.555	81.4895	143.555	81.9467	143.555	81.6166	143.555	81.9422	143.555	81.7301	143.555	81.925	143.555	81.8215	143.555	81.8864
149.414	82.5591	149.414	82.6706	149.414	82.3976	149.414	82.7292	149.414	82.1934	149.414	82.7355	149.414	81.9579	149.414	82.6933	149.414	81.7067	149.414	82.6089	149.414	81.4584	149.414	82.4905	149.414	81.2327	149.414	82.3482	149.414	81.0477	149.414	82.1933	149.414	80.9173	149.414	82.0379	149.414	80.8487	149.414	81.8938	149.414	80.8412	149.414	81.7714	149.414	80.8873	149.414	81.6778	149.414	80.974	149.414	81.6155	149.414	81.0854	149.414	81.5815	149.414	81.2052	149.414	81.5681	149.414	81.319	149.414	81.5637	149.414	81.4153	149.414	81.5557	149.414	81.4872	149.414	81.5329
155.273	82.6003	155.273	82.7152	155.273	82.4291	155.273	82.7715	155.273	82.2085	155.273	82.7706	155.273	81.95	155.273	82.717	155.273	81.6696	155.273	82.6181	155.273	81.3872	155.273	82.4832	155.273	81.1245	155.273	82.3236	155.273	80.9024	155.273	82.1517	155.273	80.7374	155.273	81.9802	155.273	80.6388	155.273	81.8213	155.273	80.6077	155.273	81.685	155.273	80.6367	155.273	81.5776	155.273	80.7129	155.273	81.5006	155.273	80.8199	155.273	81.4502	155.273	80.9412	155.273	81.4184	155.273	81.0617	155.273	81.3938	155.273	81.1696	155.273	81.365	155.273	81.2572	155.273	81.3216
158.203	82.6644	158.203	82.776	158.203	82.4945	158.203	82.8269	158.203	82.2725	158.203	82.8191	158.203	82.0098	158.203	82.7572	158.203	81.7222	158.203	82.6486	158.203	81.4298	158.203	82.5029	158.203	81.1549	158.203	82.3312	158.203	80.9193	158.203	82.146	158.203	80.7411	158.203	81.9604	158.203	80.6311	158.203	81.7871	158.203	80.5912	158.203	81.6373	158.203	80.6145	158.203	81.5184	158.203	80.6873	158.203	81.4332	158.203	80.7923	158.203	81.3787	158.203	80.9116	158.203	81.347	158.203	81.0289	158.203	81.3265	158.203	81.1318	158.203	81.3043	158.203	81.2126	158.203	81.2691
164.063	82.7176	164.063	82.8287	164.063	82.5475	164.063	82.8792	164.063	82.3245	164.063	82.8711	164.063	82.0595	164.063	82.8096	164.063	81.7678	164.063	82.7024	164.063	81.4688	164.063	82.5593	164.063	81.1841	164.063	82.3914	164.063	80.9354	164.063	82.2111	164.063	80.7411	164.063	82.0308	164.063	80.6134	164.063	81.8625	164.063	80.5563	164.063	81.7163	164.063	80.5655	164.063	81.5986	164.063	80.6292	164.063	81.5111	164.063	80.7316	164.063	81.4503	164.063	80.855	164.063	81.4079	164.063	80.9826	164.063	81.3725	164.063	81.1009	164.063	81.3324	164.063	81.2005	164.063	81.2771
169.922	82.3317	169.922	82.4481	169.922	82.1582	169.922	82.5053	169.922	81.9343	169.922	82.5055	169.922	81.6716	169.922	82.4541	169.922	81.3866	169.922	82.3591	169.922	81.0993	169.922	82.2307	169.922	80.8314	169.922	82.0801	169.922	80.6039	169.922	81.9192	169.922	80.4333	169.922	81.7599	169.922	80.3298	169.922	81.613	169.922	80.2955	169.922	81.4873	169.922	80.3247	169.922	81.388	169.922	80.4055	169.922	81.3158	169.922	80.5221	169.922	81.2668	169.922	80.6575	169.922	81.2326	169.922	80.7953	169.922	81.2023	169.922	80.9217	169.922	81.164	169.922	81.0273	169.922	81.1077
175.781	82.2706	175.781	82.3718	175.781	82.1059	175.781	82.4069	175.781	81.8861	175.781	82.3781	175.781	81.6253	175.781	82.2919	175.781	81.3431	175.781	82.1583	175.781	81.0635	175.781	81.9904	175.781	80.8115	175.781	81.8035	175.781	80.6101	175.781	81.6145	175.781	80.4758	175.781	81.4408	175.781	80.4157	175.781	81.2978	175.781	80.4268	175.781	81.197	175.781	80.4978	175.781	81.1432	175.781	80.6122	175.781	81.1331	175.781	80.7511	175.781	81.1563	175.781	80.8959	175.781	81.1971	175.781	81.0302	175.781	81.2379	175.781	81.1406	175.781	81.2624	175.781	81.218	175.781	81.2582
181.641	82.53	181.641	82.6536	181.641	82.3377	181.641	82.7056	181.641	82.0849	181.641	82.688	181.641	81.7864	181.641	82.6069	181.641	81.4632	181.641	82.4712	181.641	81.1412	181.641	82.2922	181.641	80.8489	181.641	82.0837	181.641	80.6125	181.641	81.861	181.641	80.4515	181.641	81.6412	181.641	80.3745	181.641	81.442	181.641	80.378	181.641	81.2798	181.641	80.4484	181.641	81.1666	181.641	80.566	181.641	81.1066	181.641	80.7087	181.641	81.0946	181.641	80.8553	181.641	81.1163	181.641	80.9877	181.641	81.1523	181.641	81.0921	181.641	81.182	181.641	81.1597	181.641	81.1883
190.43	82.703	190.43	82.8115	190.43	82.515	190.43	82.841	190.43	82.2533	190.43	82.7968	190.43	81.9304	190.43	82.6887	190.43	81.5664	190.43	82.529	190.43	81.1888	190.43	82.3326	190.43	80.8303	190.43	82.115	190.43	80.5251	190.43	81.8921	190.43	80.3022	190.43	81.6788	190.43	80.1791	190.43	81.4887	190.43	80.1577	190.43	81.3332	190.43	80.2246	190.43	81.2201	190.43	80.3561	190.43	81.1523	190.43	80.5242	190.43	81.1258	190.43	80.7017	190.43	81.1296	190.43	80.8658	190.43	81.1465	190.43	80.9995	190.43	81.1572	190.43	81.0929	190.43	81.1435
196.289	82.8908	196.289	82.979	196.289	82.721	196.289	82.9861	196.289	82.4753	196.289	82.9179	196.289	82.1667	196.289	82.7849	196.289	81.8149	196.289	82.6012	196.289	81.447	196.289	82.3834	196.289	81.0944	196.289	82.15	196.289	80.79	196.289	81.9196	196.289	80.5622	196.289	81.71	196.289	80.4293	196.289	81.5365	196.289	80.3954	196.289	81.4097	196.289	80.4507	196.289	81.3342	196.289	80.5746	196.289	81.3074	196.289	80.7408	196.289	81.3192	196.289	80.9222	196.289	81.3535	196.289	81.0945	196.289	81.3906	196.289	81.2384	196.289	81.4109	196.289	81.3413	196.289	81.3978
202.148	83.0763	202.148	83.1561	202.148	82.909	202.148	83.1482	202.148	82.6605	202.148	83.0583	202.148	82.3442	202.148	82.8968	202.148	81.981	202.148	82.6779	202.148	81.5989	202.148	82.4197	202.148	81.2313	202.148	82.1428	202.148	80.913	202.148	81.8699	202.148	80.6746	202.148	81.6239	202.148	80.5359	202.148	81.4254	202.148	80.5017	202.148	81.2897	202.148	80.5615	202.148	81.2234	202.148	80.6931	202.148	81.2222	202.148	80.8681	202.148	81.2714	202.148	81.0567	202.148	81.3487	202.148	81.2323	202.148	81.4283	202.148	81.3732	202.148	81.4857	202.148	81.4652	202.148	81.5018
210.938	83.3231	210.938	83.4061	210.938	83.1504	210.938	83.3999	210.938	82.8941	210.938	83.311	210.938	82.5679	210.938	83.15	210.938	82.1933	210.938	82.9311	210.938	81.7998	210.938	82.671	210.938	81.4221	210.938	82.3878	210.938	81.0966	210.938	82.1006	210.938	80.8542	210.938	81.829	210.938	80.7141	210.938	81.5925	210.938	80.6792	210.938	81.409	210.938	80.7362	210.938	81.2917	210.938	80.8607	210.938	81.2455	210.938	81.0228	210.938	81.2635	210.938	81.1925	210.938	81.3273	210.938	81.3438	210.938	81.4104	210.938	81.4567	210.938	81.4847	210.938	81.5187	210.938	81.526
216.797	83.4864	216.797	83.5608	216.797	83.3181	216.797	83.5422	216.797	83.0623	216.797	83.4377	216.797	82.7332	216.797	83.2597	216.797	82.354	216.797	83.0247	216.797	81.956	216.797	82.752	216.797	81.5762	216.797	82.4631	216.797	81.2532	216.797	82.1798	216.797	81.0194	216.797	81.9233	216.797	80.8938	216.797	81.7125	216.797	80.8777	216.797	81.5624	216.797	80.9558	216.797	81.4818	216.797	81.1011	216.797	81.4704	216.797	81.282	216.797	81.5178	216.797	81.4678	216.797	81.6037	216.797	81.6318	216.797	81.7017	216.797	81.7537	216.797	81.7845	216.797	81.8208	216.797	81.8292
225.586	84.0581	225.586	84.1212	225.586	83.8827	225.586	84.0748	225.586	83.5997	225.586	83.9283	225.586	83.2228	225.586	83.6971	225.586	82.7759	225.586	83.4009	225.586	82.2937	225.586	83.0633	225.586	81.8212	225.586	82.7103	225.586	81.4096	225.586	82.369	225.586	81.1067	225.586	82.066	225.586	80.9451	225.586	81.8253	225.586	80.9311	225.586	81.6654	225.586	81.0441	225.586	81.596	225.586	81.2449	225.586	81.6144	225.586	81.4878	225.586	81.7042	225.586	81.7302	225.586	81.8373	225.586	81.9382	225.586	81.9798	225.586	82.0876	225.586	82.0984	225.586	82.1646	225.586	82.1659
234.375	84.61	234.375	84.6097	234.375	84.4976	234.375	84.5011	234.375	84.2745	234.375	84.2949	234.375	83.9499	234.375	84.0073	234.375	83.5409	234.375	83.6595	234.375	83.0735	234.375	83.2764	234.375	82.5828	234.375	82.8855	234.375	82.1121	234.375	82.5148	234.375	81.7091	234.375	82.1909	234.375	81.4182	234.375	81.9366	234.375	81.2685	234.375	81.7687	234.375	81.2645	234.375	81.6959	234.375	81.3836	234.375	81.715	234.375	81.5837	234.375	81.8098	234.375	81.8152	234.375	81.9514	234.375	82.0317	234.375	82.1034	234.375	82.1969	234.375	82.2287	234.375	82.2882	234.375	82.2968
240.234	84.6698	240.234	84.6483	240.234	84.5796	240.234	84.5178	240.234	84.3823	240.234	84.2876	240.234	84.0897	240.234	83.9736	240.234	83.7207	240.234	83.5973	240.234	83.3015	240.234	83.1855	240.234	82.8648	240.234	82.7681	240.234	82.4477	240.234	82.377	240.234	82.0891	240.234	82.0425	240.234	81.8232	240.234	81.7911	240.234	81.6729	240.234	81.6411	240.234	81.6438	240.234	81.5991	240.234	81.7211	240.234	81.6578	240.234	81.8734	240.234	81.7951	240.234	82.0595	240.234	81.9773	240.234	82.2371	240.234	82.1653	240.234	82.3704	240.234	82.3216	240.234	82.4342	240.234	82.417
249.023	85.1404	249.023	85.0953	249.023	85.0582	249.023	84.9272	249.023	84.8519	249.023	84.6471	249.023	84.5326	249.023	84.2729	249.023	84.1204	249.023	83.8277	249.023	83.6439	249.023	83.3401	249.023	83.1406	249.023	82.8422	249.023	82.654	249.023	82.3684	249.023	82.2288	249.023	81.9528	249.023	81.9027	249.023	81.6257	249.023	81.6984	249.023	81.4093	249.023	81.6181	249.023	81.3132	249.023	81.6437	249.023	81.3311	249.023	81.7423	249.023	81.4408	249.023	81.8743	249.023	81.6077	249.023	82.0006	249.023	81.7919	249.023	82.0883	249.023	81.9555	249.023	82.1144	249.023	82.0689
257.813	85.4585	257.813	85.3751	257.813	85.4209	257.813	85.1761	257.813	85.2642	257.813	84.8727	257.813	84.9974	257.813	84.4821	257.813	84.6382	257.813	84.0256	257.813	84.2128	257.813	83.5288	257.813	83.7558	257.813	83.0213	257.813	83.308	257.813	82.5363	257.813	82.9117	257.813	82.1111	257.813	82.6033	257.813	81.7844	257.813	82.4049	257.813	81.5897	257.813	82.3193	257.813	81.5443	257.813	82.3308	257.813	81.6392	257.813	82.4106	257.813	81.8379	257.813	82.5236	257.813	82.0879	257.813	82.6345	257.813	82.3359	257.813	82.7119	257.813	82.5402	257.813	82.7306	257.813	82.6749
266.602	85.2798	266.602	85.1187	266.602	85.3166	266.602	84.8406	266.602	85.2282	266.602	84.46	266.602	85.0205	266.602	83.9976	266.602	84.7059	266.602	83.4803	266.602	84.3045	266.602	82.9383	266.602	83.8437	266.602	82.4029	266.602	83.3587	266.602	81.9035	266.602	82.891	266.602	81.4666	266.602	82.4844	266.602	81.1177	266.602	82.1767	266.602	80.8833	266.602	81.9911	266.602	80.7884	266.602	81.9276	266.602	80.8446	266.602	81.9627	266.602	81.0368	266.602	82.0551	266.602	81.3196	266.602	82.1563	266.602	81.6298	266.602	82.2203	266.602	81.9067	266.602	82.211	266.602	82.1072
278.32	85.4046	278.32	85.258	278.32	85.4167	278.32	84.9779	278.32	85.3032	278.32	84.575	278.32	85.0822	278.32	84.0689	278.32	84.7802	278.32	83.4873	278.32	84.4295	278.32	82.8644	278.32	84.0652	278.32	82.2395	278.32	83.7214	278.32	81.6548	278.32	83.4272	278.32	81.1512	278.32	83.2026	278.32	80.765	278.32	83.0554	278.32	80.5237	278.32	82.9802	278.32	80.4428	278.32	82.9585	278.32	80.5242	278.32	82.9622	278.32	80.753	278.32	82.9576	278.32	81.0955	278.32	82.9108	278.32	81.502	278.32	82.7935	278.32	81.9168	278.32	82.5875	278.32	82.2902
287.109	85.4753	287.109	85.2703	287.109	85.5344	287.109	84.9278	287.109	85.4486	287.109	84.4643	287.109	85.2294	287.109	83.9028	287.109	84.9002	287.109	83.2721	287.109	84.4956	287.109	82.6054	287.109	84.0602	287.109	81.9411	287.109	83.6432	287.109	81.3231	287.109	83.2903	287.109	80.8007	287.109	83.0331	287.109	80.4247	287.109	82.8822	287.109	80.2363	287.109	82.8262	287.109	80.2516	287.109	82.8371	287.109	80.4524	287.109	82.8779	287.109	80.7909	287.109	82.9102	287.109	81.206	287.109	82.8992	287.109	81.6399	287.109	82.8178	287.109	82.0456	287.109	82.6492	287.109	82.389
295.898	85.7242	295.898	85.4228	295.898	85.8651	295.898	84.9747	295.898	85.8401	295.898	84.4013	295.898	85.6524	295.898	83.731	295.898	85.3152	295.898	82.9971	295.898	84.8539	295.898	82.2343	295.898	84.3079	295.898	81.4764	295.898	83.7321	295.898	80.7551	295.898	83.1917	295.898	80.1057	295.898	82.7501	295.898	79.5749	295.898	82.4481	295.898	79.225	295.898	82.2889	295.898	79.1189	295.898	82.2401	295.898	79.2821	295.898	82.2503	295.898	79.6739	295.898	82.2668	295.898	80.1995	295.898	82.2459	295.898	80.7547	295.898	82.154	295.898	81.2599	295.898	81.9669	295.898	81.6696
307.617	84.9731	307.617	84.637	307.617	85.1798	307.617	84.179	307.617	85.2566	307.617	83.6156	307.617	85.2089	307.617	82.9722	307.617	85.0461	307.617	82.2817	307.617	84.7812	307.617	81.5815	307.617	84.4319	307.617	80.9084	307.617	84.0223	307.617	80.2937	307.617	83.5854	307.617	79.7603	307.617	83.1624	307.617	79.3249	307.617	82.7961	307.617	79.0048	307.617	82.5185	307.617	78.8253	307.617	82.3353	307.617	78.819	307.617	82.2205	307.617	79.01	307.617	82.1241	307.617	79.3883	307.617	81.9897	307.617	79.8995	307.617	81.7705	307.617	80.4613	307.617	81.4391	307.617	80.9936
319.336	84.6904	319.336	84.3585	319.336	84.8676	319.336	83.8822	319.336	84.8917	319.336	83.2838	319.336	84.7763	319.336	82.5955	319.336	84.5454	319.336	81.8575	319.336	84.2297	319.336	81.1148	319.336	83.862	319.336	80.4125	319.336	83.4722	319.336	79.7921	319.336	83.0848	319.336	79.2888	319.336	82.7204	319.336	78.932	319.336	82.3983	319.336	78.7451	319.336	82.1378	319.336	78.7423	319.336	81.9522	319.336	78.9206	319.336	81.8386	319.336	79.2539	319.336	81.7704	319.336	79.6939	319.336	81.7017	319.336	80.1804	319.336	81.5823	319.336	80.6529	319.336	81.3742	319.336	81.0614
331.055	84.624	331.055	84.3301	331.055	84.7764	331.055	83.9073	331.055	84.784	331.055	83.3758	331.055	84.6527	331.055	82.7622	331.055	84.3977	331.055	82.0957	331.055	84.0441	331.055	81.4036	331.055	83.6258	331.055	80.7085	331.055	83.1827	331.055	80.0288	331.055	82.7547	331.055	79.3861	331.055	82.374	331.055	78.8153	331.055	82.0575	331.055	78.3733	331.055	81.8058	331.055	78.1325	331.055	81.6068	331.055	78.1483	331.055	81.4425	331.055	78.417	331.055	81.2922	331.055	78.8659	331.055	81.1328	331.055	79.3903	331.055	80.9377	331.055	79.8986	331.055	80.6791	331.055	80.3349
342.773	84.351	342.773	84.0467	342.773	84.4854	342.773	83.5826	342.773	84.4538	342.773	82.9843	342.773	84.2722	342.773	82.2922	342.773	83.9669	342.773	81.5591	342.773	83.5724	342.773	80.8424	342.773	83.1285	342.773	80.1922	342.773	82.6768	342.773	79.6402	342.773	82.2572	342.773	79.1981	342.773	81.9033	342.773	78.8669	342.773	81.6376	342.773	78.6516	342.773	81.4678	342.773	78.57	342.773	81.3831	342.773	78.6462	342.773	81.3556	342.773	78.8904	342.773	81.3444	342.773	79.2783	342.773	81.3035	342.773	79.7496	342.773	81.1912	342.773	80.2295	342.773	80.9777	342.773	80.6525
354.492	84.8519	354.492	84.5542	354.492	84.9731	354.492	84.0902	354.492	84.9202	354.492	83.4829	354.492	84.707	354.492	82.7677	354.492	84.3569	354.492	81.9892	354.492	83.9009	354.492	81.1955	354.492	83.375	354.492	80.4305	354.492	82.8182	354.492	79.7263	354.492	82.2695	354.492	79.1023	354.492	81.7669	354.492	78.5722	354.492	81.3437	354.492	78.1573	354.492	81.0236	354.492	77.8963	354.492	80.8134	354.492	77.8383	354.492	80.6969	354.492	78.0119	354.492	80.6342	354.492	78.3914	354.492	80.5705	354.492	78.8946	354.492	80.4491	354.492	79.4186	354.492	80.2254	354.492	79.8784
366.211	85.0387	366.211	84.7214	366.211	85.1725	366.211	84.2372	366.211	85.1197	366.211	83.6154	366.211	84.8916	366.211	82.8957	366.211	84.5145	366.211	82.1233	366.211	84.0278	366.211	81.3422	366.211	83.4814	366.211	80.588	366.211	82.9273	366.211	79.8839	366.211	82.4088	366.211	79.2442	366.211	81.9502	366.211	78.6838	366.211	81.5537	366.211	78.2278	366.211	81.2073	366.211	77.9125	366.211	80.8963	366.211	77.7742	366.211	80.6108	366.211	77.8286	366.211	80.3446	366.211	78.0545	366.211	80.0878	366.211	78.3979	366.211	79.8217	366.211	78.7916	366.211	79.5234	366.211	79.1779
377.93	85.1555	377.93	84.8186	377.93	85.3261	377.93	84.3296	377.93	85.3252	377.93	83.7131	377.93	85.1566	377.93	83.0033	377.93	84.8323	377.93	82.2416	377.93	84.3736	377.93	81.4709	377.93	83.8117	377.93	80.7278	377.93	83.1897	377.93	80.0378	377.93	82.5617	377.93	79.4159	377.93	81.9875	377.93	78.8771	377.93	81.5191	377.93	78.4493	377.93	81.1848	377.93	78.1804	377.93	80.9796	377.93	78.1245	377.93	80.8693	377.93	78.3051	377.93	80.8046	377.93	78.6841	377.93	80.7344	377.93	79.1704	377.93	80.613	377.93	79.6628	377.93	80.4039	377.93	80.0862
392.578	84.4259	392.578	84.1405	392.578	84.566	392.578	83.7162	392.578	84.5662	392.578	83.1723	392.578	84.4401	392.578	82.5392	392.578	84.205	392.578	81.8518	392.578	83.878	392.578	81.1421	392.578	83.4742	392.578	80.4314	392.578	83.0073	392.578	79.7304	392.578	82.4924	392.578	79.0459	392.578	81.9489	392.578	78.3939	392.578	81.4026	392.578	77.8124	392.578	80.8836	392.578	77.364	392.578	80.4208	392.578	77.1186	392.578	80.0314	392.578	77.116	392.578	79.7128	392.578	77.3355	392.578	79.4407	392.578	77.7018	392.578	79.1762	392.578	78.1236	392.578	78.8804	392.578	78.5288
407.227	84.3474	407.227	84.0528	407.227	84.4476	407.227	83.5798	407.227	84.3614	407.227	82.9672	407.227	84.1194	407.227	82.2726	407.227	83.77	407.227	81.5623	407.227	83.3693	407.227	80.8939	407.227	82.9656	407.227	80.2967	407.227	82.5857	407.227	79.7613	407.227	82.2292	407.227	79.2483	407.227	81.8765	407.227	78.7107	407.227	81.5027	407.227	78.1213	407.227	81.0909	407.227	77.5022	407.227	80.6399	407.227	76.9498	407.227	80.1663	407.227	76.6231	407.227	79.6983	407.227	76.6447	407.227	79.2602	407.227	76.9833	407.227	78.8516	407.227	77.4809	407.227	78.4417	407.227	77.9884
421.875	84.406	421.875	84.148	421.875	84.483	421.875	83.7327	421.875	84.3768	421.875	83.2032	421.875	84.1075	421.875	82.6142	421.875	83.7159	421.875	82.017	421.875	83.26	421.875	81.4422	421.875	82.8058	421.875	80.8897	421.875	82.4092	421.875	80.332	421.875	82.0952	421.875	79.7277	421.875	81.8448	421.875	79.0367	421.875	81.6028	421.875	78.2312	421.875	81.2973	421.875	77.309	421.875	80.8613	421.875	76.3157	421.875	80.2494	421.875	75.3786	421.875	79.4508	421.875	74.7129	421.875	78.4976	421.875	74.5232	421.875	77.463	421.875	74.8416	421.875	76.4426	421.875	75.5323
436.523	85.2917	436.523	84.9109	436.523	85.4215	436.523	84.304	436.523	85.2957	436.523	83.5194	436.523	84.9304	436.523	82.6318	436.523	84.3637	436.523	81.7425	436.523	83.6602	436.523	80.9632	436.523	82.9122	436.523	80.3806	436.523	82.232	436.523	80.017	436.523	81.7215	436.523	79.8225	436.523	81.4266	436.523	79.7077	436.523	81.3107	436.523	79.5832	436.523	81.2773	436.523	79.3853	436.523	81.2169	436.523	79.0893	436.523	81.0435	436.523	78.719	436.523	80.7093	436.523	78.3525	436.523	80.2109	436.523	78.1119	436.523	79.593	436.523	78.1168	436.523	78.9503	436.523	78.4156
451.172	86.2746	451.172	85.8535	451.172	86.4466	451.172	85.2058	451.172	86.3697	451.172	84.3818	451.172	86.0607	451.172	83.4603	451.172	85.5489	451.172	82.5382	451.172	84.8734	451.172	81.7042	451.172	84.0854	451.172	81.0054	451.172	83.2521	451.172	80.4349	451.172	82.4593	451.172	79.9522	451.172	81.7968	451.172	79.5185	451.172	81.3219	451.172	79.1172	451.172	81.0211	451.172	78.754	451.172	80.8126	451.172	78.4458	451.172	80.5928	451.172	78.2126	451.172	80.287	451.172	78.0774	451.172	79.875	451.172	78.0667	451.172	79.3912	451.172	78.2028	451.172	78.9048	451.172	78.4903
465.82	85.8456	465.82	85.5009	465.82	85.9322	465.82	84.903	465.82	85.7812	465.82	84.0866	465.82	85.4323	465.82	83.1219	465.82	84.9358	465.82	82.1172	465.82	84.3417	465.82	81.2062	465.82	83.6917	465.82	80.5076	465.82	83.0198	465.82	80.0672	465.82	82.3636	465.82	79.838	465.82	81.7775	465.82	79.7187	465.82	81.3287	465.82	79.6096	465.82	81.0608	465.82	79.4455	465.82	80.9476	465.82	79.2082	465.82	80.8912	465.82	78.9309	465.82	80.7737	465.82	78.6944	465.82	80.5145	465.82	78.6025	465.82	80.1	465.82	78.7336	465.82	79.5877	465.82	79.0898
483.398	87.1096	483.398	86.8352	483.398	87.097	483.398	86.2836	483.398	86.8064	483.398	85.4815	483.398	86.2669	483.398	84.4713	483.398	85.5287	483.398	83.3108	483.398	84.6626	483.398	82.0774	483.398	83.7542	483.398	80.874	483.398	82.8898	483.398	79.8303	483.398	82.1351	483.398	79.0788	483.398	81.5248	483.398	78.6989	483.398	81.0726	483.398	78.6691	483.398	80.7903	483.398	78.8871	483.398	80.6861	483.398	79.2355	483.398	80.7407	483.398	79.629	483.398	80.8905	483.398	80.0202	483.398	81.0462	483.398	80.3844	483.398	81.1296	483.398	80.7024	483.398	81.0989	483.398	80.9498
500.977	86.4204	500.977	86.0982	500.977	86.5162	500.977	85.5711	500.977	86.3753	500.977	84.8712	500.977	86	500.977	84.0419	500.977	85.409	500.977	83.1379	500.977	84.6424	500.977	82.2222	500.977	83.7686	500.977	81.3589	500.977	82.8854	500.977	80.602	500.977	82.1074	500.977	79.9884	500.977	81.5304	500.977	79.542	500.977	81.1924	500.977	79.2862	500.977	81.0648	500.977	79.25	500.977	81.0855	500.977	79.4507	500.977	81.197	500.977	79.8599	500.977	81.3591	500.977	80.3901	500.977	81.5354	500.977	80.9236	500.977	81.678	500.977	81.3573	500.977	81.7274	500.977	81.6297
518.555	85.8182	518.555	85.5017	518.555	85.9259	518.555	84.9964	518.555	85.8201	518.555	84.3367	518.555	85.5097	518.555	83.5688	518.555	85.0167	518.555	82.7444	518.555	84.3763	518.555	81.9156	518.555	83.6387	518.555	81.1327	518.555	82.8698	518.555	80.4446	518.555	82.1468	518.555	79.8966	518.555	81.5451	518.555	79.5168	518.555	81.1179	518.555	79.2985	518.555	80.8778	518.555	79.1987	518.555	80.792	518.555	79.1676	518.555	80.7948	518.555	79.1867	518.555	80.8095	518.555	79.2789	518.555	80.7707	518.555	79.4745	518.555	80.6391	518.555	79.7656	518.555	80.4072	518.555	80.0989
536.133	86.0426	536.133	85.6929	536.133	86.1304	536.133	85.1002	536.133	85.9601	536.133	84.3055	536.133	85.5574	536.133	83.3746	536.133	84.9667	536.133	82.4015	536.133	84.2445	536.133	81.5008	536.133	83.4496	536.133	80.7732	536.133	82.6395	536.133	80.2506	536.133	81.8777	536.133	79.8775	536.133	81.2468	536.133	79.5586	536.133	80.834	536.133	79.2331	536.133	80.6705	536.133	78.9248	536.133	80.6816	536.133	78.7456	536.133	80.7286	536.133	78.8183	536.133	80.7054	536.133	79.1455	536.133	80.5969	536.133	79.582	536.133	80.4597	536.133	79.9585	536.133	80.3385	536.133	80.1989
553.711	86.268	553.711	86.0095	553.711	86.274	553.711	85.5105	553.711	86.0353	553.711	84.8007	553.711	85.5813	553.711	83.929	553.711	84.9638	553.711	82.9656	553.711	84.254	553.711	82.0031	553.711	83.5311	553.711	81.1475	553.711	82.8621	553.711	80.492	553.711	82.2835	553.711	80.078	553.711	81.8028	553.711	79.8651	553.711	81.4199	553.711	79.7355	553.711	81.14	553.711	79.5364	553.711	80.9534	553.711	79.1401	553.711	80.7996	553.711	78.5138	553.711	80.5685	553.711	77.7967	553.711	80.1546	553.711	77.315	553.711	79.5194	553.711	77.3656	553.711	78.7223	553.711	77.9216
574.219	85.4529	574.219	85.0134	574.219	85.6176	574.219	84.3392	574.219	85.5082	574.219	83.5146	574.219	85.1557	574.219	82.6538	574.219	84.608	574.219	81.8642	574.219	83.9182	574.219	81.2051	574.219	83.1402	574.219	80.6782	574.219	82.3353	574.219	80.2644	574.219	81.5921	574.219	79.9687	574.219	81.0431	574.219	79.8251	574.219	80.8305	574.219	79.8567	574.219	80.9951	574.219	80.0322	574.219	81.3993	574.219	80.268	574.219	81.8097	574.219	80.4744	574.219	82.0355	574.219	80.6076	574.219	81.9967	574.219	80.692	574.219	81.7296	574.219	80.8043	574.219	81.3571	574.219	81.0214
594.727	85.9274	594.727	85.5682	594.727	85.9976	594.727	84.9428	594.727	85.7823	594.727	84.1023	594.727	85.3109	594.727	83.1273	594.727	84.6397	594.727	82.1245	594.727	83.8535	594.727	81.2061	594.727	83.055	594.727	80.4508	594.727	82.3289	594.727	79.8804	594.727	81.6945	594.727	79.5004	594.727	81.1088	594.727	79.356	594.727	80.5485	594.727	79.4919	594.727	80.1035	594.727	79.8334	594.727	79.9524	594.727	80.1908	594.727	80.1546	594.727	80.4119	594.727	80.5307	594.727	80.4929	594.727	80.847	594.727	80.5475	594.727	80.9934	594.727	80.6711	594.727	80.9748	594.727	80.8424
615.234	86.6109	615.234	86.2231	615.234	86.6826	615.234	85.5467	615.234	86.4335	615.234	84.628	615.234	85.8879	615.234	83.5341	615.234	85.1052	615.234	82.3621	615.234	84.1823	615.234	81.2396	615.234	83.2379	615.234	80.2862	615.234	82.3691	615.234	79.5459	615.234	81.6092	615.234	78.985	615.234	80.9439	615.234	78.5933	615.234	80.3805	615.234	78.4562	615.234	79.9885	615.234	78.6501	615.234	79.8533	615.234	79.0659	615.234	79.9742	615.234	79.4607	615.234	80.2214	615.234	79.6783	615.234	80.4116	615.234	79.7538	615.234	80.4239	615.234	79.8365	615.234	80.2592	615.234	80.0207
638.672	86.7348	638.672	86.3943	638.672	86.769	638.672	85.7736	638.672	86.5069	638.672	84.9365	638.672	85.9863	638.672	83.9723	638.672	85.2598	638.672	82.9688	638.672	84.3848	638.672	81.9866	638.672	83.4204	638.672	81.0633	638.672	82.436	638.672	80.2516	638.672	81.5193	638.672	79.6314	638.672	80.766	638.672	79.249	638.672	80.2533	638.672	79.0532	638.672	80.018	638.672	78.9364	638.672	80.0266	638.672	78.823	638.672	80.1406	638.672	78.7045	638.672	80.1599	638.672	78.6206	638.672	79.9556	638.672	78.6156	638.672	79.5676	638.672	78.7007	638.672	79.1638	638.672	78.8738
659.18	86.3728	659.18	86.0094	659.18	86.409	659.18	85.352	659.18	86.12	659.18	84.4666	659.18	85.5501	659.18	83.4516	659.18	84.7881	659.18	82.4307	659.18	83.9489	659.18	81.5169	659.18	83.1267	659.18	80.754	659.18	82.3504	659.18	80.1031	659.18	81.5968	659.18	79.5212	659.18	80.8539	659.18	79.0616	659.18	80.1779	659.18	78.8742	659.18	79.7116	659.18	79.0368	659.18	79.6326	659.18	79.4004	659.18	79.9664	659.18	79.7223	659.18	80.4659	659.18	79.8984	659.18	80.8148	659.18	80.0076	659.18	80.8712	659.18	80.172	659.18	80.6922	659.18	80.4203
682.617	87.19	682.617	86.8506	682.617	87.1742	682.617	86.1838	682.617	86.8075	682.617	85.2505	682.617	86.1243	682.617	84.1453	682.617	85.1926	682.617	82.9934	682.617	84.1257	682.617	81.921	682.617	83.0796	682.617	80.9812	682.617	82.1978	682.617	80.1119	682.617	81.5208	682.617	79.2433	682.617	80.9806	682.617	78.5074	682.617	80.5087	682.617	78.2705	682.617	80.1255	682.617	78.6654	682.617	79.9177	682.617	79.2958	682.617	79.9399	682.617	79.7507	682.617	80.1419	682.617	79.9643	682.617	80.3986	682.617	80.1122	682.617	80.5929	682.617	80.3277	682.617	80.6522	682.617	80.5487
706.055	87.0184	706.055	86.6738	706.055	86.9872	706.055	85.9712	706.055	86.6093	706.055	84.9818	706.055	85.9539	706.055	83.834	706.055	85.1178	706.055	82.6964	706.055	84.2041	706.055	81.7114	706.055	83.2971	706.055	80.9173	706.055	82.4386	706.055	80.2608	706.055	81.6123	706.055	79.687	706.055	80.7733	706.055	79.19	706.055	79.953	706.055	78.8186	706.055	79.3234	706.055	78.652	706.055	79.0215	706.055	78.6647	706.055	78.9175	706.055	78.6662	706.055	78.7722	706.055	78.5536	706.055	78.5416	706.055	78.4914	706.055	78.4204	706.055	78.5977	706.055	78.5315	706.055	78.6602
732.422	86.3949	732.422	86.0629	732.422	86.3586	732.422	85.4221	732.422	85.9608	732.422	84.5746	732.422	85.2757	732.422	83.6283	732.422	84.43	732.422	82.6771	732.422	83.5726	732.422	81.8003	732.422	82.8124	732.422	81.0318	732.422	82.1387	732.422	80.3204	732.422	81.4325	732.422	79.5795	732.422	80.5967	732.422	78.8117	732.422	79.6903	732.422	78.2042	732.422	78.9986	732.422	78.0475	732.422	78.8872	732.422	78.337	732.422	79.3074	732.422	78.6612	732.422	79.7432	732.422	78.7228	732.422	79.8069	732.422	78.6402	732.422	79.5244	732.422	78.6845	732.422	79.1658	732.422	78.8851
758.789	87.3425	758.789	87.065	758.789	87.2812	758.789	86.46	758.789	86.893	758.789	85.5573	758.789	86.2067	758.789	84.4156	758.789	85.2584	758.789	83.1628	758.789	84.1027	758.789	82.0113	758.789	82.8572	758.789	81.1128	758.789	81.7297	758.789	80.3693	758.789	80.9034	758.789	79.5934	758.789	80.3286	758.789	78.8084	758.789	79.7625	758.789	78.1379	758.789	79.0555	758.789	77.5469	758.789	78.3398	758.789	77.2327	758.789	77.9707	758.789	77.6469	758.789	78.1225	758.789	78.4395	758.789	78.5073	758.789	78.9903	758.789	78.8085	758.789	79.2014	758.789	79.0142	758.789	79.1741
785.156	86.3218	785.156	86.0245	785.156	86.2331	785.156	85.3543	785.156	85.8187	785.156	84.3877	785.156	85.1928	785.156	83.2295	785.156	84.4807	785.156	82.0062	785.156	83.7797	785.156	80.9286	785.156	83.1389	785.156	80.2384	785.156	82.5325	785.156	79.8956	785.156	81.8626	785.156	79.538	785.156	81.0388	785.156	78.8986	785.156	80.0595	785.156	78.166	785.156	79.0674	785.156	77.8968	785.156	78.3816	785.156	78.0041	785.156	78.1077	785.156	77.6434	785.156	77.6622	785.156	76.478	785.156	76.3881	785.156	75.2597	785.156	74.5405	785.156	74.7913	785.156	73.7932	785.156	74.372
811.523	85.6948	811.523	85.4268	811.523	85.694	811.523	84.9337	811.523	85.4198	811.523	84.2629	811.523	84.8988	811.523	83.4226	811.523	84.1725	811.523	82.3934	811.523	83.3235	811.523	81.2358	811.523	82.4956	811.523	80.2224	811.523	81.8172	811.523	79.5907	811.523	81.2983	811.523	79.0321	811.523	80.8542	811.523	78.0976	811.523	80.3849	811.523	77.0992	811.523	79.788	811.523	76.9762	811.523	79.0319	811.523	77.4581	811.523	78.3493	811.523	77.4964	811.523	78.0157	811.523	76.685	811.523	77.6463	811.523	75.3385	811.523	76.6164	811.523	74.3614	811.523	75.1263	811.523	74.2457
840.82	85.4051	840.82	85.1672	840.82	85.2898	840.82	84.6125	840.82	84.8694	840.82	83.8338	840.82	84.2345	840.82	82.9227	840.82	83.4847	840.82	81.9868	840.82	82.7603	840.82	81.1904	840.82	82.2286	840.82	80.6399	840.82	81.9341	840.82	80.2058	840.82	81.7325	840.82	79.6245	840.82	81.4164	840.82	78.7479	840.82	80.7951	840.82	77.6309	840.82	79.7684	840.82	76.6533	840.82	78.7062	840.82	76.5132	840.82	78.5468	840.82	76.8871	840.82	79.0238	840.82	76.5022	840.82	78.7643	840.82	74.8579	840.82	77.1276	840.82	72.784	840.82	74.4407	840.82	72.3584
870.117	86.1481	870.117	85.9132	870.117	86.1268	870.117	85.4498	870.117	85.8112	870.117	84.7182	870.117	85.1894	870.117	83.6603	870.117	84.2603	870.117	82.353	870.117	83.0674	870.117	81.1137	870.117	81.8528	870.117	80.3736	870.117	81.0843	870.117	80.2365	870.117	80.9049	870.117	80.2252	870.117	80.8635	870.117	79.7174	870.117	80.5371	870.117	78.5274	870.117	79.812	870.117	77.3423	870.117	78.8544	870.117	77.2758	870.117	78.3494	870.117	78.0767	870.117	78.9287	870.117	78.7757	870.117	79.7055	870.117	78.9068	870.117	79.7151	870.117	78.6416	870.117	79.0832	870.117	78.5811
902.344	85.6567	902.344	85.5316	902.344	85.6054	902.344	85.2433	902.344	85.3778	902.344	84.7477	902.344	84.9606	902.344	83.9363	902.344	84.2915	902.344	82.7741	902.344	83.3934	902.344	81.5028	902.344	82.4854	902.344	80.6014	902.344	81.7549	902.344	80.1726	902.344	81.1594	902.344	79.8209	902.344	80.6965	902.344	79.283	902.344	80.3758	902.344	78.4866	902.344	79.8969	902.344	77.4548	902.344	79.0612	902.344	76.6356	902.344	78.4815	902.344	76.4865	902.344	78.6876	902.344	76.3569	902.344	78.6314	902.344	75.5213	902.344	77.3195	902.344	74.31	902.344	75.0909	902.344	73.82
931.641	85.9783	931.641	85.8426	931.641	86.0143	931.641	85.6055	931.641	85.9349	931.641	85.1623	931.641	85.666	931.641	84.3417	931.641	85.0206	931.641	83.0811	931.641	83.8734	931.641	81.6138	931.641	82.4605	931.641	80.5897	931.641	81.428	931.641	80.5299	931.641	81.1061	931.641	80.9023	931.641	81.168	931.641	80.7931	931.641	81.2062	931.641	79.842	931.641	80.7798	931.641	78.5421	931.641	79.5745	931.641	77.9443	931.641	78.2907	931.641	78.0773	931.641	78.5552	931.641	78.1927	931.641	79.3593	931.641	77.9473	931.641	79.1372	931.641	77.5047	931.641	78.1001	931.641	77.3952
966.797	84.7677	966.797	84.8308	966.797	84.8502	966.797	84.9506	966.797	85.0754	966.797	84.9108	966.797	85.2306	966.797	84.4214	966.797	84.9512	966.797	83.3349	966.797	84.0444	966.797	81.8777	966.797	82.7317	966.797	80.7362	966.797	81.6069	966.797	80.4838	966.797	81.1098	966.797	80.78	966.797	81.1509	966.797	80.7999	966.797	81.2871	966.797	80.0776	966.797	80.914	966.797	79.0058	966.797	79.7945	966.797	78.3268	966.797	78.8044	966.797	77.5283	966.797	78.7775	966.797	75.8998	966.797	78.2348	966.797	73.7986	966.797	75.8812	966.797	72.4637	966.797	72.7636	966.797	72.0802
999.023	83.9692	999.023	84.2791	999.023	84.3002	999.023	84.8404	999.023	85.0355	999.023	85.0998	999.023	85.5387	999.023	84.722	999.023	85.3044	999.023	83.554	999.023	84.1202	999.023	81.5623	999.023	82.1312	999.023	79.4076	999.023	80.3507	999.023	79.3195	999.023	80.262	999.023	80.847	999.023	81.0877	999.023	81.4873	999.023	81.5636	999.023	80.5091	999.023	81.3151	999.023	78.3867	999.023	80.0544	999.023	77.4001	999.023	77.9644	999.023	78.0537	999.023	77.6845	999.023	77.711	999.023	78.9362	999.023	75.3176	999.023	78.2827	999.023	71.673	999.023	75.09	999.023	71.1488
1,034.18	83.9597	1,034.18	84.1998	1,034.18	84.053	1,034.18	84.5508	1,034.18	84.4187	1,034.18	84.6823	1,034.18	84.7359	1,034.18	84.3304	1,034.18	84.5889	1,034.18	83.3416	1,034.18	83.6408	1,034.18	81.7363	1,034.18	81.7939	1,034.18	79.8574	1,034.18	79.4356	1,034.18	78.533	1,034.18	77.7538	1,034.18	78.6833	1,034.18	78.0181	1,034.18	79.6891	1,034.18	79.4188	1,034.18	80.0835	1,034.18	80.2275	1,034.18	79.1759	1,034.18	79.6518	1,034.18	77.3473	1,034.18	77.9992	1,034.18	76.4368	1,034.18	76.9462	1,034.18	76.5431	1,034.18	76.755	1,034.18	75.78	1,034.18	75.9842	1,034.18	74.2425	1,034.18	74.5619	1,034.18	73.5947
1,072.27	83.2338	1,072.27	83.4675	1,072.27	83.4063	1,072.27	83.8704	1,072.27	83.8899	1,072.27	84.1716	1,072.27	84.323	1,072.27	84.1872	1,072.27	84.339	1,072.27	83.6601	1,072.27	83.6419	1,072.27	82.2228	1,072.27	82.0206	1,072.27	79.7369	1,072.27	79.5474	1,072.27	77.4597	1,072.27	77.1673	1,072.27	77.6176	1,072.27	76.7116	1,072.27	78.6517	1,072.27	77.8235	1,072.27	79.0872	1,072.27	78.7384	1,072.27	78.8272	1,072.27	78.6275	1,072.27	77.7206	1,072.27	77.361	1,072.27	76.2555	1,072.27	76.4734	1,072.27	76.0551	1,072.27	77.2392	1,072.27	75.3865	1,072.27	77.0097	1,072.27	73.0776	1,072.27	74.6985	1,072.27	72.1811
1,110.35	81.898	1,110.35	82.5031	1,110.35	82.1696	1,110.35	83.5132	1,110.35	83.2453	1,110.35	84.3753	1,110.35	84.3809	1,110.35	84.6734	1,110.35	84.8148	1,110.35	84.0935	1,110.35	84.1359	1,110.35	82.4037	1,110.35	82.2666	1,110.35	79.6855	1,110.35	79.6282	1,110.35	77.2254	1,110.35	77.2666	1,110.35	77.1286	1,110.35	76.0937	1,110.35	78.1807	1,110.35	76.6988	1,110.35	79.106	1,110.35	78.3161	1,110.35	79.6646	1,110.35	78.9605	1,110.35	79.035	1,110.35	77.7907	1,110.35	77.0378	1,110.35	76.0596	1,110.35	75.6832	1,110.35	76.3805	1,110.35	74.6421	1,110.35	75.8881	1,110.35	71.9219	1,110.35	72.8891	1,110.35	70.1881
1,148.44	82.1514	1,148.44	82.8722	1,148.44	82.603	1,148.44	84.0254	1,148.44	83.9196	1,148.44	84.8182	1,148.44	85.1139	1,148.44	84.888	1,148.44	85.5326	1,148.44	84.165	1,148.44	84.9329	1,148.44	82.634	1,148.44	83.2706	1,148.44	80.2522	1,148.44	80.7805	1,148.44	77.2505	1,148.44	78.3261	1,148.44	75.4964	1,148.44	76.8548	1,148.44	76.4604	1,148.44	76.5667	1,148.44	77.5101	1,148.44	77.657	1,148.44	77.7659	1,148.44	78.6555	1,148.44	77.4286	1,148.44	78.0612	1,148.44	76.3834	1,148.44	76.5084	1,148.44	75.34	1,148.44	76.7582	1,148.44	74.3999	1,148.44	76.5286	1,148.44	72.4205	1,148.44	73.8008	1,148.44	71.2631
1,189.45	82.7706	1,189.45	83.5906	1,189.45	83.1776	1,189.45	84.7663	1,189.45	84.5075	1,189.45	85.491	1,189.45	85.7397	1,189.45	85.4888	1,189.45	86.2548	1,189.45	84.7227	1,189.45	85.8264	1,189.45	83.1844	1,189.45	84.3151	1,189.45	80.9044	1,189.45	81.7541	1,189.45	77.888	1,189.45	78.8542	1,189.45	75.3521	1,189.45	76.8223	1,189.45	76.3195	1,189.45	76.4451	1,189.45	77.424	1,189.45	77.9563	1,189.45	77.1292	1,189.45	79.0406	1,189.45	76.8028	1,189.45	78.2265	1,189.45	76.4868	1,189.45	76.538	1,189.45	75.4684	1,189.45	76.1437	1,189.45	72.5978	1,189.45	74.9244	1,189.45	66.8687	1,189.45	70.2405	1,189.45	63.9894
1,230.47	83.093	1,230.47	83.7257	1,230.47	83.7578	1,230.47	84.964	1,230.47	85.139	1,230.47	85.7955	1,230.47	86.2823	1,230.47	85.8163	1,230.47	86.7061	1,230.47	85.1127	1,230.47	86.2021	1,230.47	83.8457	1,230.47	84.5891	1,230.47	82.0117	1,230.47	81.9733	1,230.47	79.2761	1,230.47	79.4093	1,230.47	75.7578	1,230.47	78.1131	1,230.47	75.8855	1,230.47	77.8069	1,230.47	77.7818	1,230.47	78.3751	1,230.47	77.842	1,230.47	78.7973	1,230.47	77.1042	1,230.47	78.1685	1,230.47	75.887	1,230.47	76.9834	1,230.47	74.8181	1,230.47	76.8349	1,230.47	72.9342	1,230.47	76.2519	1,230.47	67.008	1,230.47	71.9594	1,230.47	64.5105
1,274.41	81.7209	1,274.41	82.9132	1,274.41	82.7613	1,274.41	85.0308	1,274.41	84.7041	1,274.41	86.2016	1,274.41	86.0687	1,274.41	85.9202	1,274.41	86.4272	1,274.41	84.6668	1,274.41	85.7934	1,274.41	83.1731	1,274.41	84.1721	1,274.41	81.667	1,274.41	81.508	1,274.41	79.9522	1,274.41	78.0447	1,274.41	78.0006	1,274.41	76.051	1,274.41	76.9358	1,274.41	76.6208	1,274.41	77.6192	1,274.41	77.6418	1,274.41	78.1711	1,274.41	78.5876	1,274.41	77.6351	1,274.41	78.2853	1,274.41	75.8832	1,274.41	76.2905	1,274.41	74.4238	1,274.41	75.5044	1,274.41	73.157	1,274.41	74.5719	1,274.41	69.516	1,274.41	69.4566	1,274.41	68.1159
1,318.36	82.2914	1,318.36	83.0343	1,318.36	83.1187	1,318.36	84.8286	1,318.36	84.6114	1,318.36	85.9637	1,318.36	85.5307	1,318.36	85.664	1,318.36	85.4632	1,318.36	84.2286	1,318.36	84.6778	1,318.36	82.4195	1,318.36	83.3324	1,318.36	80.7463	1,318.36	81.2463	1,318.36	79.1982	1,318.36	78.1249	1,318.36	77.5499	1,318.36	74.4125	1,318.36	75.9706	1,318.36	73.659	1,318.36	76.3281	1,318.36	76.0955	1,318.36	77.9411	1,318.36	77.7625	1,318.36	78.318	1,318.36	77.7314	1,318.36	76.6427	1,318.36	76.5278	1,318.36	74.4073	1,318.36	76.2632	1,318.36	73.779	1,318.36	75.517	1,318.36	71.744	1,318.36	72.3735	1,318.36	70.7585
1,365.23	83.0749	1,365.23	83.556	1,365.23	83.7161	1,365.23	84.7047	1,365.23	85.0039	1,365.23	85.5634	1,365.23	85.759	1,365.23	85.3847	1,365.23	85.5655	1,365.23	84.1085	1,365.23	84.6829	1,365.23	82.0913	1,365.23	83.2354	1,365.23	80.0221	1,365.23	81.1008	1,365.23	78.1041	1,365.23	78.4435	1,365.23	75.915	1,365.23	75.3834	1,365.23	75.2006	1,365.23	72.2846	1,365.23	76.1169	1,365.23	73.3598	1,365.23	76.692	1,365.23	75.4261	1,365.23	77.6797	1,365.23	75.3962	1,365.23	77.4946	1,365.23	73.4659	1,365.23	75.2634	1,365.23	73.9561	1,365.23	73.048	1,365.23	74.0525	1,365.23	69.464	1,365.23	69.8323	1,365.23	65.8638
1,415.04	83.8223	1,415.04	84.0525	1,415.04	84.2133	1,415.04	84.7861	1,415.04	85.1363	1,415.04	85.3219	1,415.04	85.7457	1,415.04	85.1345	1,415.04	85.4871	1,415.04	84.1833	1,415.04	84.5954	1,415.04	82.4543	1,415.04	83.3608	1,415.04	80.0449	1,415.04	81.558	1,415.04	77.5051	1,415.04	78.8995	1,415.04	75.2598	1,415.04	75.9964	1,415.04	74.7349	1,415.04	73.7448	1,415.04	75.7952	1,415.04	73.8454	1,415.04	76.0503	1,415.04	75.9316	1,415.04	76.6125	1,415.04	76.523	1,415.04	76.7103	1,415.04	74.1125	1,415.04	75.6187	1,415.04	70.3938	1,415.04	73.319	1,415.04	72.546	1,415.04	68.71	1,415.04	71.1914	1,415.04	69.6447
1,464.84	84.4598	1,464.84	84.5263	1,464.84	84.6839	1,464.84	84.937	1,464.84	85.3671	1,464.84	85.2141	1,464.84	85.9117	1,464.84	84.8944	1,464.84	85.4404	1,464.84	83.9304	1,464.84	84.2257	1,464.84	82.477	1,464.84	83.0585	1,464.84	80.4567	1,464.84	81.8019	1,464.84	77.7447	1,464.84	79.5752	1,464.84	75.591	1,464.84	77.0207	1,464.84	74.9879	1,464.84	75.3831	1,464.84	75.0306	1,464.84	74.2152	1,464.84	75.6122	1,464.84	76.2024	1,464.84	75.85	1,464.84	77.8025	1,464.84	75.0428	1,464.84	75.9963	1,464.84	73.8937	1,464.84	71.7158	1,464.84	71.3843	1,464.84	71.9397	1,464.84	65.3003	1,464.84	69.8275	1,464.84	68.7102
1,514.65	85.4885	1,514.65	85.0114	1,514.65	85.4311	1,514.65	85.0615	1,514.65	85.5494	1,514.65	85.5531	1,514.65	85.8477	1,514.65	85.1695	1,514.65	85.4151	1,514.65	83.9888	1,514.65	84.4411	1,514.65	82.8175	1,514.65	83.1904	1,514.65	81.2088	1,514.65	81.6014	1,514.65	78.2377	1,514.65	79.585	1,514.65	74.9193	1,514.65	77.2722	1,514.65	73.4709	1,514.65	76.2608	1,514.65	74.2658	1,514.65	76.3308	1,514.65	74.8436	1,514.65	76.7065	1,514.65	76.0117	1,514.65	78.1126	1,514.65	75.3412	1,514.65	77.1158	1,514.65	72.9899	1,514.65	74.13	1,514.65	71.5737	1,514.65	73.2409	1,514.65	67.9157	1,514.65	70.5916	1,514.65	69.3798
1,570.31	86.2398	1,570.31	85.7962	1,570.31	86.0478	1,570.31	85.4134	1,570.31	85.6251	1,570.31	85.2681	1,570.31	85.464	1,570.31	84.9128	1,570.31	85.0709	1,570.31	84.06	1,570.31	84.0373	1,570.31	82.5028	1,570.31	82.424	1,570.31	80.2478	1,570.31	80.6144	1,570.31	77.7754	1,570.31	78.1254	1,570.31	74.8645	1,570.31	75.2575	1,570.31	72.6951	1,570.31	74.6926	1,570.31	75.0545	1,570.31	74.9605	1,570.31	75.164	1,570.31	75.8018	1,570.31	74.9031	1,570.31	77.0299	1,570.31	74.8808	1,570.31	76.26	1,570.31	73.0092	1,570.31	72.6129	1,570.31	69.4467	1,570.31	71.8457	1,570.31	66.249	1,570.31	70.8531	1,570.31	71.1789
1,623.05	85.9396	1,623.05	85.6944	1,623.05	85.6986	1,623.05	85.3033	1,623.05	84.9749	1,623.05	84.8387	1,623.05	84.4142	1,623.05	84.3369	1,623.05	84.2111	1,623.05	83.6181	1,623.05	83.5791	1,623.05	82.4486	1,623.05	82.308	1,623.05	80.7369	1,623.05	80.4155	1,623.05	78.0575	1,623.05	77.3778	1,623.05	75.2716	1,623.05	73.9203	1,623.05	74.2891	1,623.05	72.5267	1,623.05	74.3206	1,623.05	73.0422	1,623.05	75.0061	1,623.05	74.4916	1,623.05	73.9031	1,623.05	76.0089	1,623.05	73.006	1,623.05	76.1462	1,623.05	71.7684	1,623.05	71.9823	1,623.05	70.507	1,623.05	72.0233	1,623.05	69.5186	1,623.05	70.5775	1,623.05	71.3237
1,681.64	86.0935	1,681.64	85.2151	1,681.64	85.551	1,681.64	84.6097	1,681.64	84.5181	1,681.64	84.2511	1,681.64	84.0816	1,681.64	83.4487	1,681.64	83.4084	1,681.64	82.6436	1,681.64	82.5073	1,681.64	81.7042	1,681.64	81.6443	1,681.64	80.4567	1,681.64	80.2936	1,681.64	78.8023	1,681.64	78.2232	1,681.64	76.5477	1,681.64	75.7868	1,681.64	74.721	1,681.64	73.8559	1,681.64	74.3499	1,681.64	73.2523	1,681.64	74.8315	1,681.64	73.072	1,681.64	74.2152	1,681.64	73.6071	1,681.64	73.3054	1,681.64	74.722	1,681.64	72.4419	1,681.64	72.7043	1,681.64	69.7307	1,681.64	70.7908	1,681.64	67.9222	1,681.64	69.1956	1,681.64	71.5585
1,740.23	87.0383	1,740.23	85.6551	1,740.23	86.2242	1,740.23	84.1698	1,740.23	84.1304	1,740.23	83.995	1,740.23	83.6106	1,740.23	83.7882	1,740.23	83.8269	1,740.23	82.9324	1,740.23	83.08	1,740.23	81.1995	1,740.23	81.1859	1,740.23	78.8433	1,740.23	79.7479	1,740.23	77.7654	1,740.23	78.904	1,740.23	76.6835	1,740.23	76.4191	1,740.23	73.7926	1,740.23	73.6423	1,740.23	74.875	1,740.23	73.0284	1,740.23	74.0852	1,740.23	74.0957	1,740.23	73.1581	1,740.23	75.2333	1,740.23	74.3617	1,740.23	74.1259	1,740.23	68.4115	1,740.23	72.9462	1,740.23	67.7342	1,740.23	70.4511	1,740.23	68.5468	1,740.23	66.7681	1,740.23	71.3606
1,801.76	87.6767	1,801.76	86.2447	1,801.76	86.9331	1,801.76	84.213	1,801.76	84.5635	1,801.76	83.7016	1,801.76	82.9991	1,801.76	84.1439	1,801.76	83.1182	1,801.76	83.7464	1,801.76	83.2867	1,801.76	81.6626	1,801.76	82.2994	1,801.76	78.9606	1,801.76	80.352	1,801.76	78.0589	1,801.76	78.5253	1,801.76	76.433	1,801.76	76.7199	1,801.76	72.2553	1,801.76	74.5201	1,801.76	73.7412	1,801.76	72.5984	1,801.76	74.9375	1,801.76	74.2967	1,801.76	72.9583	1,801.76	75.5521	1,801.76	71.9905	1,801.76	74.3733	1,801.76	67.6248	1,801.76	70.9143	1,801.76	68.9625	1,801.76	69.3485	1,801.76	66.3672	1,801.76	64.1907	1,801.76	70.7984
1,866.21	86.6992	1,866.21	85.8652	1,866.21	85.4827	1,866.21	84.2525	1,866.21	83.0412	1,866.21	83.4568	1,866.21	82.2543	1,866.21	83.4603	1,866.21	83.0426	1,866.21	83.4075	1,866.21	82.9309	1,866.21	82.1527	1,866.21	81.6718	1,866.21	79.507	1,866.21	80.1227	1,866.21	77.5532	1,866.21	77.8035	1,866.21	76.6566	1,866.21	76.0307	1,866.21	74.3512	1,866.21	75.3213	1,866.21	71.9502	1,866.21	71.6965	1,866.21	75.6109	1,866.21	73.3882	1,866.21	73.9397	1,866.21	73.1316	1,866.21	72.0848	1,866.21	72.0183	1,866.21	62.6063	1,866.21	64.9641	1,866.21	65.4583	1,866.21	66.9578	1,866.21	63.6967	1,866.21	63.9374	1,866.21	73.063
1,930.66	86.2883	1,930.66	84.8363	1,930.66	85.4406	1,930.66	82.6437	1,930.66	83.3414	1,930.66	82.5682	1,930.66	81.7216	1,930.66	83.0431	1,930.66	81.6266	1,930.66	82.5767	1,930.66	82.5922	1,930.66	81.3922	1,930.66	82.3189	1,930.66	79.3295	1,930.66	79.8648	1,930.66	75.9221	1,930.66	76.6368	1,930.66	75.34	1,930.66	74.6795	1,930.66	74.9751	1,930.66	74.2644	1,930.66	72.7102	1,930.66	71.624	1,930.66	75.4465	1,930.66	71.9801	1,930.66	74.2876	1,930.66	73.8491	1,930.66	72.8837	1,930.66	69.8728	1,930.66	63.7025	1,930.66	70.0138	1,930.66	54.8906	1,930.66	60.4713	1,930.66	70.3881	1,930.66	59.6	1,930.66	73.9771
2,000.98	86.4812	2,000.98	84.8649	2,000.98	85.8699	2,000.98	82.6989	2,000.98	83.9561	2,000.98	82.0299	2,000.98	82.777	2,000.98	82.442	2,000.98	83.2322	2,000.98	82.4038	2,000.98	83.9919	2,000.98	81.0588	2,000.98	83.1706	2,000.98	78.9447	2,000.98	80.7856	2,000.98	76.1859	2,000.98	77.7842	2,000.98	73.4023	2,000.98	75.0729	2,000.98	71.6955	2,000.98	74.2566	2,000.98	70.9389	2,000.98	72.9305	2,000.98	75.1734	2,000.98	74.0189	2,000.98	73.04	2,000.98	74.2815	2,000.98	70.9034	2,000.98	72.6688	2,000.98	63.0866	2,000.98	70.5291	2,000.98	60.6437	2,000.98	60.2451	2,000.98	61.9518	2,000.98	57.5424	2,000.98	66.9867
2,071.29	87.8556	2,071.29	86.0822	2,071.29	86.8432	2,071.29	83.5187	2,071.29	84.5674	2,071.29	83.1145	2,071.29	83.907	2,071.29	83.6534	2,071.29	84.3839	2,071.29	83.5692	2,071.29	84.3934	2,071.29	82.4545	2,071.29	83.1554	2,071.29	80.2973	2,071.29	80.3951	2,071.29	77.9949	2,071.29	77.3524	2,071.29	75.7053	2,071.29	75.8495	2,071.29	73.3481	2,071.29	76.1783	2,071.29	71.0373	2,071.29	74.1958	2,071.29	72.9323	2,071.29	72.8671	2,071.29	73.416	2,071.29	75.2037	2,071.29	69.9687	2,071.29	72.2966	2,071.29	67.745	2,071.29	70.776	2,071.29	65.3294	2,071.29	54.5858	2,071.29	62.298	2,071.29	61.2012	2,071.29	70.1366
2,144.53	87.1427	2,144.53	86.2168	2,144.53	86.1819	2,144.53	83.7157	2,144.53	84.6165	2,144.53	83.2406	2,144.53	83.1988	2,144.53	84.1764	2,144.53	83.0947	2,144.53	83.6782	2,144.53	83.5749	2,144.53	82.6897	2,144.53	82.9436	2,144.53	81.1731	2,144.53	80.2009	2,144.53	78.6328	2,144.53	76.5252	2,144.53	76.7013	2,144.53	74.5351	2,144.53	75.6875	2,144.53	71.5838	2,144.53	73.2145	2,144.53	69.989	2,144.53	68.888	2,144.53	70.1159	2,144.53	74.5687	2,144.53	73.312	2,144.53	71.771	2,144.53	71.1387	2,144.53	67.5835	2,144.53	69.1579	2,144.53	61.741	2,144.53	56.6991	2,144.53	66.2289	2,144.53	58.8493	2,144.53	71.3599
2,217.77	86.0816	2,217.77	84.4101	2,217.77	85.1717	2,217.77	83.0429	2,217.77	83.5163	2,217.77	83.1916	2,217.77	82.6844	2,217.77	83.2297	2,217.77	82.3818	2,217.77	83.0108	2,217.77	82.6265	2,217.77	82.0966	2,217.77	82.5095	2,217.77	79.4983	2,217.77	81.0337	2,217.77	76.4796	2,217.77	77.7057	2,217.77	73.2782	2,217.77	74.916	2,217.77	75.31	2,217.77	74.314	2,217.77	76.1913	2,217.77	72.9502	2,217.77	72.9567	2,217.77	70.1916	2,217.77	73.9697	2,217.77	72.0336	2,217.77	71.6627	2,217.77	69.6903	2,217.77	61.3319	2,217.77	68.1555	2,217.77	56.6516	2,217.77	60.4922	2,217.77	67.7384	2,217.77	52.5843	2,217.77	69.0575
2,296.88	86.4483	2,296.88	86.1297	2,296.88	86.3467	2,296.88	85.1273	2,296.88	86.0032	2,296.88	83.7235	2,296.88	85.0772	2,296.88	83.7478	2,296.88	85.0457	2,296.88	83.6079	2,296.88	85.1618	2,296.88	82.28	2,296.88	84.233	2,296.88	79.7444	2,296.88	82.5706	2,296.88	77.5918	2,296.88	79.6086	2,296.88	75.0931	2,296.88	74.8311	2,296.88	68.8106	2,296.88	72.4723	2,296.88	74.6049	2,296.88	73.3119	2,296.88	73.2289	2,296.88	74.4843	2,296.88	72.8925	2,296.88	73.2729	2,296.88	69.2291	2,296.88	73.068	2,296.88	61.8001	2,296.88	66.7561	2,296.88	64.5509	2,296.88	60.064	2,296.88	64.1004	2,296.88	66.7498	2,296.88	69.9951
2,378.91	86.4089	2,378.91	86.7967	2,378.91	86.4823	2,378.91	86.5757	2,378.91	86.2132	2,378.91	84.5668	2,378.91	84.941	2,378.91	83.994	2,378.91	84.4237	2,378.91	84.5488	2,378.91	84.3884	2,378.91	83.8846	2,378.91	83.6853	2,378.91	81.6799	2,378.91	82.4378	2,378.91	79.3945	2,378.91	79.1594	2,378.91	78.5621	2,378.91	74.519	2,378.91	74.2749	2,378.91	73.7358	2,378.91	72.6828	2,378.91	75.2816	2,378.91	72.7216	2,378.91	74.6083	2,378.91	74.9582	2,378.91	73.2341	2,378.91	71.5947	2,378.91	71.8167	2,378.91	65.4154	2,378.91	69.8806	2,378.91	63.8926	2,378.91	66.1264	2,378.91	64.846	2,378.91	66.9258	2,378.91	71.6414
2,460.94	84.6588	2,460.94	85.5842	2,460.94	85.4098	2,460.94	85.7606	2,460.94	86.0843	2,460.94	84.0599	2,460.94	84.0533	2,460.94	83.6601	2,460.94	82.8424	2,460.94	84.1188	2,460.94	83.3535	2,460.94	83.1261	2,460.94	82.9196	2,460.94	81.2284	2,460.94	81.6294	2,460.94	78.706	2,460.94	79.1365	2,460.94	76.1834	2,460.94	75.2245	2,460.94	74.7405	2,460.94	72.6577	2,460.94	74.7823	2,460.94	72.5321	2,460.94	74.138	2,460.94	73.3444	2,460.94	73.4941	2,460.94	72.2698	2,460.94	73.2889	2,460.94	73.0577	2,460.94	56.8274	2,460.94	64.0279	2,460.94	64.9375	2,460.94	58.721	2,460.94	66.6292	2,460.94	64.6001	2,460.94	68.8295
2,548.83	83.6415	2,548.83	85.7209	2,548.83	85.2168	2,548.83	85.8641	2,548.83	86.6038	2,548.83	83.2263	2,548.83	85.1883	2,548.83	82.7857	2,548.83	83.4885	2,548.83	83.151	2,548.83	83.7714	2,548.83	81.942	2,548.83	83.2862	2,548.83	79.2951	2,548.83	81.5292	2,548.83	75.7966	2,548.83	79.3705	2,548.83	73.939	2,548.83	75.5765	2,548.83	73.0366	2,548.83	73.0227	2,548.83	72.882	2,548.83	71.8381	2,548.83	72.7709	2,548.83	72.6648	2,548.83	73.5129	2,548.83	71.787	2,548.83	72.0877	2,548.83	72.8853	2,548.83	60.7416	2,548.83	64.9001	2,548.83	60.8073	2,548.83	60.811	2,548.83	51.0377	2,548.83	69.0288	2,548.83	64.6361
2,639.65	83.3994	2,639.65	85.6137	2,639.65	84.8802	2,639.65	85.7704	2,639.65	86.4277	2,639.65	83.4858	2,639.65	85.0578	2,639.65	82.4696	2,639.65	83.5897	2,639.65	82.8522	2,639.65	83.5752	2,639.65	81.7364	2,639.65	82.8953	2,639.65	79.5181	2,639.65	80.9226	2,639.65	76.5645	2,639.65	78.3823	2,639.65	72.7508	2,639.65	75.6928	2,639.65	71.0791	2,639.65	73.0501	2,639.65	72.2026	2,639.65	71.7071	2,639.65	71.7944	2,639.65	72.0115	2,639.65	72.463	2,639.65	71.5812	2,639.65	74.188	2,639.65	73.2315	2,639.65	40.7464	2,639.65	65.3738	2,639.65	64.1676	2,639.65	59.2101	2,639.65	67.4948	2,639.65	65.9722	2,639.65	66.5906
2,733.4	83.7288	2,733.4	85.2571	2,733.4	84.5729	2,733.4	84.9699	2,733.4	85.5434	2,733.4	83.1936	2,733.4	84.0299	2,733.4	82.0711	2,733.4	82.5641	2,733.4	81.9224	2,733.4	82.6834	2,733.4	81.1398	2,733.4	82.3189	2,733.4	79.2469	2,733.4	80.4943	2,733.4	76.3621	2,733.4	77.3013	2,733.4	73.2418	2,733.4	74.2521	2,733.4	70.115	2,733.4	72.767	2,733.4	68.9091	2,733.4	70.643	2,733.4	71.9558	2,733.4	70.3964	2,733.4	67.6939	2,733.4	71.2542	2,733.4	70.9069	2,733.4	72.7012	2,733.4	55.0228	2,733.4	66.9386	2,733.4	62.3394	2,733.4	62.1089	2,733.4	65.0033	2,733.4	66.857	2,733.4	62.8576
2,827.15	84.6833	2,827.15	85.5835	2,827.15	84.9932	2,827.15	85.1841	2,827.15	85.8011	2,827.15	83.7417	2,827.15	84.5263	2,827.15	82.1171	2,827.15	82.3188	2,827.15	81.6787	2,827.15	82.3673	2,827.15	81.166	2,827.15	82.5231	2,827.15	79.3936	2,827.15	80.856	2,827.15	76.6073	2,827.15	77.7582	2,827.15	73.3723	2,827.15	73.9608	2,827.15	70.9123	2,827.15	71.6148	2,827.15	69.5614	2,827.15	72.1271	2,827.15	70.9499	2,827.15	70.8397	2,827.15	70.0713	2,827.15	71.517	2,827.15	71.3352	2,827.15	70.81	2,827.15	46.9927	2,827.15	64.6285	2,827.15	55.7972	2,827.15	62.5834	2,827.15	60.9718	2,827.15	66.5942	2,827.15	60.6649
2,926.76	84.5278	2,926.76	85.0324	2,926.76	84.6618	2,926.76	85.2416	2,926.76	85.2049	2,926.76	84.0818	2,926.76	84.3675	2,926.76	81.9202	2,926.76	82.044	2,926.76	82.0579	2,926.76	81.2584	2,926.76	81.445	2,926.76	81.6691	2,926.76	79.2487	2,926.76	80.5508	2,926.76	76.4641	2,926.76	77.9538	2,926.76	73.6163	2,926.76	74.7101	2,926.76	71.1959	2,926.76	70.6388	2,926.76	69.4537	2,926.76	71.2301	2,926.76	71.1018	2,926.76	70.0632	2,926.76	66.5152	2,926.76	72.3786	2,926.76	70.4287	2,926.76	70.3622	2,926.76	61.1858	2,926.76	59.4312	2,926.76	63.7559	2,926.76	65.7655	2,926.76	66.9448	2,926.76	66.6181	2,926.76	58.7761
3,032.23	84.6149	3,032.23	84.392	3,032.23	84.5929	3,032.23	84.97	3,032.23	84.5074	3,032.23	83.5329	3,032.23	84.2966	3,032.23	81.1392	3,032.23	82.0535	3,032.23	81.3526	3,032.23	81.1702	3,032.23	80.9695	3,032.23	81.6104	3,032.23	78.8321	3,032.23	80.3866	3,032.23	75.433	3,032.23	77.627	3,032.23	73.0628	3,032.23	74.3572	3,032.23	70.4237	3,032.23	70.2895	3,032.23	71.4404	3,032.23	71.6794	3,032.23	70.7552	3,032.23	71.0094	3,032.23	69.8494	3,032.23	69.9813	3,032.23	68.3608	3,032.23	70.9901	3,032.23	57.8841	3,032.23	64.5173	3,032.23	57.3771	3,032.23	66.1811	3,032.23	64.4852	3,032.23	67.0163	3,032.23	55.553
3,137.7	85.1168	3,137.7	84.2509	3,137.7	84.669	3,137.7	85.0507	3,137.7	84.666	3,137.7	84.1705	3,137.7	84.6927	3,137.7	81.3012	3,137.7	82.5932	3,137.7	81.4904	3,137.7	81.8858	3,137.7	81.0921	3,137.7	81.6562	3,137.7	78.9463	3,137.7	79.8856	3,137.7	75.6208	3,137.7	76.2711	3,137.7	72.7364	3,137.7	74.2871	3,137.7	68.276	3,137.7	71.332	3,137.7	70.2715	3,137.7	69.7324	3,137.7	71.4847	3,137.7	71.6573	3,137.7	68.5466	3,137.7	70.401	3,137.7	64.7321	3,137.7	70.3945	3,137.7	57.4145	3,137.7	64.5873	3,137.7	60.9296	3,137.7	64.0202	3,137.7	62.9759	3,137.7	64.9584	3,137.7	51.2144
3,249.02	84.8139	3,249.02	84.0823	3,249.02	84.1517	3,249.02	84.7556	3,249.02	84.4008	3,249.02	83.5716	3,249.02	84.6888	3,249.02	81.3303	3,249.02	82.2544	3,249.02	81.3242	3,249.02	81.6122	3,249.02	80.572	3,249.02	81.5719	3,249.02	78.3737	3,249.02	79.4349	3,249.02	74.2623	3,249.02	75.5326	3,249.02	71.7814	3,249.02	72.7096	3,249.02	68.9424	3,249.02	69.503	3,249.02	68.6656	3,249.02	67.931	3,249.02	70.7894	3,249.02	70.9081	3,249.02	68.928	3,249.02	70.0468	3,249.02	58.0294	3,249.02	68.3883	3,249.02	58.0433	3,249.02	63.238	3,249.02	58.514	3,249.02	63.1805	3,249.02	51.5775	3,249.02	64.393	3,249.02	52.8719
3,363.28	83.7553	3,363.28	83.4915	3,363.28	83.2163	3,363.28	84.0169	3,363.28	83.7738	3,363.28	82.5806	3,363.28	83.9748	3,363.28	81.1851	3,363.28	81.6605	3,363.28	81.3069	3,363.28	80.931	3,363.28	80.0564	3,363.28	80.5143	3,363.28	76.5261	3,363.28	78.3085	3,363.28	72.0149	3,363.28	75.025	3,363.28	70.5338	3,363.28	72.5966	3,363.28	69.0634	3,363.28	69.5647	3,363.28	66.1433	3,363.28	65.2996	3,363.28	70.7908	3,363.28	69.0889	3,363.28	68.6799	3,363.28	68.7828	3,363.28	63.8369	3,363.28	68.2832	3,363.28	59.1802	3,363.28	61.2936	3,363.28	59.5826	3,363.28	62.2225	3,363.28	48.8127	3,363.28	62.3291	3,363.28	54.8408
3,483.4	83.7973	3,483.4	83.5458	3,483.4	83.715	3,483.4	84.0205	3,483.4	84.3708	3,483.4	82.6221	3,483.4	84.3934	3,483.4	80.6451	3,483.4	82.5249	3,483.4	80.5973	3,483.4	81.467	3,483.4	79.9269	3,483.4	80.6457	3,483.4	76.1446	3,483.4	78.6532	3,483.4	73.2405	3,483.4	75.7006	3,483.4	71.0979	3,483.4	73.44	3,483.4	68.5304	3,483.4	69.8304	3,483.4	65.807	3,483.4	65.4489	3,483.4	69.0638	3,483.4	69.7921	3,483.4	69.7868	3,483.4	70.6491	3,483.4	64.141	3,483.4	67.0089	3,483.4	56.2112	3,483.4	61.5578	3,483.4	62.4123	3,483.4	62.7453	3,483.4	52.1301	3,483.4	61.5671	3,483.4	50.8657
3,606.45	83.7117	3,606.45	83.4766	3,606.45	83.5372	3,606.45	84.136	3,606.45	84.0083	3,606.45	83.3427	3,606.45	84.168	3,606.45	81.0567	3,606.45	81.9348	3,606.45	79.9629	3,606.45	80.0705	3,606.45	79.9519	3,606.45	79.7079	3,606.45	77.6379	3,606.45	78.8617	3,606.45	76.199	3,606.45	76.5783	3,606.45	72.2609	3,606.45	73.7936	3,606.45	68.5096	3,606.45	69.8477	3,606.45	68.8297	3,606.45	67.7881	3,606.45	70.2456	3,606.45	68.446	3,606.45	67.9254	3,606.45	70.316	3,606.45	64.323	3,606.45	67.1347	3,606.45	60.4185	3,606.45	56.5689	3,606.45	62.0376	3,606.45	63.939	3,606.45	58.4194	3,606.45	58.0916	3,606.45	50.5294
3,732.42	83.4966	3,732.42	82.8286	3,732.42	83.0528	3,732.42	83.1737	3,732.42	83.1025	3,732.42	83.2276	3,732.42	83.5543	3,732.42	80.1507	3,732.42	81.6922	3,732.42	78.1092	3,732.42	78.9537	3,732.42	79.5941	3,732.42	80.0662	3,732.42	78.7223	3,732.42	79.949	3,732.42	76.552	3,732.42	76.5505	3,732.42	71.5672	3,732.42	73.4246	3,732.42	67.7764	3,732.42	68.6189	3,732.42	69.1298	3,732.42	68.8455	3,732.42	69.8547	3,732.42	69.5825	3,732.42	67.9645	3,732.42	69.4571	3,732.42	64.2848	3,732.42	66.1184	3,732.42	60.3373	3,732.42	58.7261	3,732.42	64.1975	3,732.42	63.415	3,732.42	56.1569	3,732.42	54.8571	3,732.42	49.2719
3,864.26	83.8655	3,864.26	82.4651	3,864.26	83.4722	3,864.26	82.6179	3,864.26	83.0041	3,864.26	83.224	3,864.26	83.0467	3,864.26	79.6498	3,864.26	81.1527	3,864.26	77.7324	3,864.26	78.258	3,864.26	80.6167	3,864.26	80.1762	3,864.26	79.694	3,864.26	80.0621	3,864.26	76.6644	3,864.26	76.584	3,864.26	72.191	3,864.26	72.0721	3,864.26	67.4824	3,864.26	68.4059	3,864.26	67.8562	3,864.26	69.6514	3,864.26	70.059	3,864.26	70.6119	3,864.26	63.8208	3,864.26	70.2693	3,864.26	61.2846	3,864.26	64.5559	3,864.26	63.226	3,864.26	58.1891	3,864.26	65.8558	3,864.26	61.8491	3,864.26	53.5974	3,864.26	57.6894	3,864.26	47.6345
3,999.02	84.3008	3,999.02	82.3121	3,999.02	83.8219	3,999.02	82.0358	3,999.02	82.4984	3,999.02	81.9011	3,999.02	83.0053	3,999.02	78.7299	3,999.02	81.1518	3,999.02	78.7052	3,999.02	77.9666	3,999.02	81.0781	3,999.02	80.1217	3,999.02	78.7765	3,999.02	79.7473	3,999.02	74.1333	3,999.02	76.8993	3,999.02	71.7823	3,999.02	73.1931	3,999.02	69.439	3,999.02	68.0843	3,999.02	67.8437	3,999.02	68.7762	3,999.02	69.4266	3,999.02	69.2861	3,999.02	65.3481	3,999.02	69.9145	3,999.02	60.3327	3,999.02	63.3244	3,999.02	62.4723	3,999.02	55.1452	3,999.02	66.2626	3,999.02	63.6476	3,999.02	61.578	3,999.02	59.2617	3,999.02	48.6375
4,139.65	84.7017	4,139.65	82.8875	4,139.65	83.9632	4,139.65	82.3965	4,139.65	82.1861	4,139.65	81.2242	4,139.65	82.9144	4,139.65	78.5139	4,139.65	81.195	4,139.65	78.8635	4,139.65	78.3197	4,139.65	80.3592	4,139.65	79.8054	4,139.65	76.8943	4,139.65	78.7974	4,139.65	73.2356	4,139.65	75.8809	4,139.65	70.2917	4,139.65	72.107	4,139.65	68.6768	4,139.65	67.699	4,139.65	65.9273	4,139.65	68.1073	4,139.65	67.9768	4,139.65	69.2215	4,139.65	65.8071	4,139.65	69.3705	4,139.65	58.401	4,139.65	59.2626	4,139.65	59.1376	4,139.65	51.8416	4,139.65	64.5783	4,139.65	63.319	4,139.65	59.013	4,139.65	59.0229	4,139.65	54.1707
4,286.13	85.096	4,286.13	83.7853	4,286.13	83.951	4,286.13	82.6666	4,286.13	82.526	4,286.13	81.7719	4,286.13	82.9088	4,286.13	80.5038	4,286.13	80.9851	4,286.13	77.97	4,286.13	78.8024	4,286.13	76.9408	4,286.13	79.3332	4,286.13	75.0704	4,286.13	78.4831	4,286.13	73.9664	4,286.13	76.5192	4,286.13	67.9457	4,286.13	73.9323	4,286.13	67.2525	4,286.13	69.808	4,286.13	67.1209	4,286.13	66.6748	4,286.13	67.7838	4,286.13	68.5929	4,286.13	66.1784	4,286.13	69.1932	4,286.13	55.9543	4,286.13	54.6077	4,286.13	59.6857	4,286.13	54.191	4,286.13	60.5096	4,286.13	62.7563	4,286.13	52.2728	4,286.13	56.1901	4,286.13	59.1719
4,438.48	84.2741	4,438.48	83.161	4,438.48	82.5936	4,438.48	80.7181	4,438.48	81.6445	4,438.48	81.1421	4,438.48	81.1088	4,438.48	80.3693	4,438.48	80.1105	4,438.48	75.3933	4,438.48	77.0651	4,438.48	75.2097	4,438.48	77.5168	4,438.48	77.6258	4,438.48	78.3664	4,438.48	75.226	4,438.48	76.0595	4,438.48	69.4148	4,438.48	72.4701	4,438.48	66.8678	4,438.48	69.0025	4,438.48	65.145	4,438.48	66.9706	4,438.48	66.9664	4,438.48	65.6163	4,438.48	62.6572	4,438.48	68.9188	4,438.48	48.3322	4,438.48	56.7699	4,438.48	53.3449	4,438.48	59.4027	4,438.48	63.3766	4,438.48	60.5966	4,438.48	53.329	4,438.48	55.1342	4,438.48	56.3077
4,593.75	83.3209	4,593.75	82.5012	4,593.75	83.8372	4,593.75	79.9532	4,593.75	82.606	4,593.75	80.7915	4,593.75	80.1547	4,593.75	79.1292	4,593.75	81.3675	4,593.75	73.199	4,593.75	77.3659	4,593.75	78.3018	4,593.75	77.0004	4,593.75	79.5488	4,593.75	78.75	4,593.75	74.6685	4,593.75	76.8244	4,593.75	67.3024	4,593.75	70.943	4,593.75	63.4529	4,593.75	67.3556	4,593.75	68.2019	4,593.75	68.0919	4,593.75	67.7169	4,593.75	67.4821	4,593.75	64.0813	4,593.75	69.8099	4,593.75	56.1517	4,593.75	58.7976	4,593.75	53.0059	4,593.75	58.4731	4,593.75	63.2506	4,593.75	56.1178	4,593.75	44.3784	4,593.75	52.2228	4,593.75	54.6045
4,757.81	82.1996	4,757.81	81.7254	4,757.81	84.2543	4,757.81	80.1153	4,757.81	81.855	4,757.81	79.5622	4,757.81	80.8192	4,757.81	76.9573	4,757.81	81.8607	4,757.81	75.3792	4,757.81	76.4607	4,757.81	79.9116	4,757.81	77.3872	4,757.81	78.8366	4,757.81	77.9314	4,757.81	74.2656	4,757.81	76.0514	4,757.81	71.3881	4,757.81	70.3438	4,757.81	68.0497	4,757.81	66.4568	4,757.81	65.423	4,757.81	67.8403	4,757.81	65.8047	4,757.81	66.7664	4,757.81	56.9517	4,757.81	69.0281	4,757.81	58.1077	4,757.81	59.6971	4,757.81	62.7186	4,757.81	56.7727	4,757.81	61.0345	4,757.81	57.9751	4,757.81	52.6951	4,757.81	47.5003	4,757.81	50.2418
4,924.8	83.3841	4,924.8	83.5474	4,924.8	84.0328	4,924.8	80.6731	4,924.8	81.9628	4,924.8	80.998	4,924.8	81.2284	4,924.8	80.2253	4,924.8	81.1282	4,924.8	77.6777	4,924.8	76.7733	4,924.8	77.2218	4,924.8	76.4701	4,924.8	77.4206	4,924.8	77.3085	4,924.8	74.2413	4,924.8	76.0229	4,924.8	69.9827	4,924.8	69.3782	4,924.8	69.5356	4,924.8	67.0268	4,924.8	64.9506	4,924.8	65.6217	4,924.8	67.2579	4,924.8	63.9184	4,924.8	61.6709	4,924.8	66.8541	4,924.8	56.1978	4,924.8	57.4715	4,924.8	62.6014	4,924.8	58.075	4,924.8	59.8579	4,924.8	59.4321	4,924.8	56.5813	4,924.8	55.5138	4,924.8	45.1296
5,097.66	84.2298	5,097.66	84.4869	5,097.66	83.1992	5,097.66	81.5437	5,097.66	82.6005	5,097.66	82.5881	5,097.66	81.3936	5,097.66	82.1989	5,097.66	80.5963	5,097.66	78.4834	5,097.66	79.6241	5,097.66	74.3455	5,097.66	75.8694	5,097.66	78.5181	5,097.66	76.8624	5,097.66	75.1999	5,097.66	77.5893	5,097.66	69.3382	5,097.66	69.6639	5,097.66	70.6757	5,097.66	70.2185	5,097.66	60.963	5,097.66	63.674	5,097.66	68.2295	5,097.66	60.8472	5,097.66	67.6702	5,097.66	69.7697	5,097.66	50.516	5,097.66	61.2452	5,097.66	64.0469	5,097.66	61.5291	5,097.66	62.2479	5,097.66	60.3813	5,097.66	56.9399	5,097.66	54.7732	5,097.66	56.1102
5,279.3	83.6599	5,279.3	83.485	5,279.3	82.7927	5,279.3	82.6893	5,279.3	82.1363	5,279.3	83.2329	5,279.3	81.0124	5,279.3	82.309	5,279.3	81.1984	5,279.3	78.4053	5,279.3	79.7569	5,279.3	74.4201	5,279.3	74.2768	5,279.3	79.5269	5,279.3	76.6536	5,279.3	75.1336	5,279.3	76.6812	5,279.3	59.5646	5,279.3	68.0375	5,279.3	67.505	5,279.3	68.5847	5,279.3	60.0299	5,279.3	65.3523	5,279.3	66.4777	5,279.3	62.0607	5,279.3	70.0623	5,279.3	68.5991	5,279.3	54.372	5,279.3	64.3754	5,279.3	56.0872	5,279.3	62.4734	5,279.3	58.701	5,279.3	54.2591	5,279.3	51.077	5,279.3	58.3981	5,279.3	52.8191
5,463.87	83.676	5,463.87	83.7529	5,463.87	83.5277	5,463.87	83.7102	5,463.87	82.7979	5,463.87	83.1419	5,463.87	82.5421	5,463.87	80.7162	5,463.87	82.1631	5,463.87	77.9782	5,463.87	78.1026	5,463.87	75.1024	5,463.87	74.5608	5,463.87	78.4141	5,463.87	77.5902	5,463.87	73.2628	5,463.87	76.5005	5,463.87	67.6594	5,463.87	69.6937	5,463.87	68.4847	5,463.87	68.1152	5,463.87	68.0329	5,463.87	59.7382	5,463.87	54.8082	5,463.87	61.4465	5,463.87	68.567	5,463.87	68.6867	5,463.87	54.1827	5,463.87	62.6722	5,463.87	57.689	5,463.87	59.5042	5,463.87	55.2659	5,463.87	56.0191	5,463.87	47.4248	5,463.87	57.5441	5,463.87	57.8997
5,657.23	82.8275	5,657.23	84.0019	5,657.23	82.0989	5,657.23	83.199	5,657.23	83.2052	5,657.23	81.8864	5,657.23	82.9639	5,657.23	80.7362	5,657.23	81.4621	5,657.23	78.2823	5,657.23	78.7407	5,657.23	73.7331	5,657.23	73.9634	5,657.23	77.3587	5,657.23	75.1859	5,657.23	73.9541	5,657.23	77.3992	5,657.23	72.4352	5,657.23	68.6916	5,657.23	69.0694	5,657.23	68.4716	5,657.23	62.265	5,657.23	60.9102	5,657.23	55.2139	5,657.23	63.3167	5,657.23	61.924	5,657.23	67.8304	5,657.23	58.0205	5,657.23	61.1609	5,657.23	57.2245	5,657.23	54.6412	5,657.23	57.0699	5,657.23	53.3993	5,657.23	54.0695	5,657.23	49.4354	5,657.23	56.7394
5,856.45	82.8839	5,856.45	84.4617	5,856.45	82.7816	5,856.45	84.1476	5,856.45	83.5111	5,856.45	82.0692	5,856.45	82.445	5,856.45	82.1424	5,856.45	80.3716	5,856.45	79.0226	5,856.45	79.6559	5,856.45	76.5097	5,856.45	75.8579	5,856.45	77.3908	5,856.45	76.6176	5,856.45	75.0129	5,856.45	77.5381	5,856.45	69.91	5,856.45	68.5476	5,856.45	68.2625	5,856.45	68.8421	5,856.45	51.1876	5,856.45	63.1429	5,856.45	59.6698	5,856.45	63.4277	5,856.45	60.8319	5,856.45	66.9517	5,856.45	62.3039	5,856.45	62.4185	5,856.45	59.3157	5,856.45	61.565	5,856.45	59.8055	5,856.45	55.1499	5,856.45	45.6537	5,856.45	56.7226	5,856.45	55.9041
6,061.52	84.2683	6,061.52	84.7627	6,061.52	84.5882	6,061.52	84.5787	6,061.52	83.8897	6,061.52	83.4254	6,061.52	82.6121	6,061.52	82.7936	6,061.52	80.7151	6,061.52	80.2264	6,061.52	80.227	6,061.52	77.8232	6,061.52	78.2914	6,061.52	77.7275	6,061.52	78.8713	6,061.52	75.3615	6,061.52	76.7511	6,061.52	67.2734	6,061.52	71.3116	6,061.52	64.3131	6,061.52	67.8223	6,061.52	64.3042	6,061.52	63.5531	6,061.52	56.7388	6,061.52	62.146	6,061.52	62.263	6,061.52	65.5135	6,061.52	61.0481	6,061.52	61.3107	6,061.52	58.6296	6,061.52	57.4884	6,061.52	60.413	6,061.52	55.6053	6,061.52	46.9238	6,061.52	51.6904	6,061.52	44.8229
6,275.39	85.0241	6,275.39	84.4759	6,275.39	84.8411	6,275.39	83.3763	6,275.39	83.6938	6,275.39	82.7655	6,275.39	82.4767	6,275.39	82.7777	6,275.39	81.7876	6,275.39	81.5455	6,275.39	82.4155	6,275.39	78.89	6,275.39	79.6597	6,275.39	76.9576	6,275.39	78.6942	6,275.39	73.78	6,275.39	76.1888	6,275.39	70.3317	6,275.39	70.0652	6,275.39	62.6859	6,275.39	67.9691	6,275.39	62.9671	6,275.39	60.1443	6,275.39	54.6431	6,275.39	58.5269	6,275.39	63.4837	6,275.39	63.263	6,275.39	62.8744	6,275.39	65.9321	6,275.39	51.225	6,275.39	60.6664	6,275.39	56.3313	6,275.39	56.5555	6,275.39	54.3891	6,275.39	59.4392	6,275.39	52.3772
6,498.05	85.3973	6,498.05	84.0444	6,498.05	84.4754	6,498.05	82.5932	6,498.05	83.2127	6,498.05	82.9065	6,498.05	82.2583	6,498.05	83.4975	6,498.05	82.7106	6,498.05	82.1139	6,498.05	82.9559	6,498.05	79.8896	6,498.05	79.0243	6,498.05	76.1505	6,498.05	77.9442	6,498.05	71.1906	6,498.05	75.224	6,498.05	70.0706	6,498.05	70.4942	6,498.05	62.8771	6,498.05	63.5866	6,498.05	58.3522	6,498.05	62.3228	6,498.05	59.4788	6,498.05	60.0814	6,498.05	60.8195	6,498.05	63.8604	6,498.05	61.886	6,498.05	64.4773	6,498.05	47.7198	6,498.05	59.0562	6,498.05	46.8307	6,498.05	54.335	6,498.05	56.9694	6,498.05	57.2266	6,498.05	53.3608
6,726.56	85.6637	6,726.56	84.0104	6,726.56	85.1936	6,726.56	83.2539	6,726.56	83.6771	6,726.56	83.6078	6,726.56	82.8609	6,726.56	83.402	6,726.56	83.2493	6,726.56	80.6432	6,726.56	81.7598	6,726.56	78.5046	6,726.56	77.7457	6,726.56	74.2641	6,726.56	78.0738	6,726.56	71.3976	6,726.56	74.2408	6,726.56	67.9453	6,726.56	72.2623	6,726.56	59.6276	6,726.56	67.1937	6,726.56	58.0488	6,726.56	59.5365	6,726.56	56.0569	6,726.56	62.2531	6,726.56	59.6463	6,726.56	61.9865	6,726.56	64.4149	6,726.56	65.0824	6,726.56	58.0389	6,726.56	56.0423	6,726.56	45.3049	6,726.56	36.8033	6,726.56	57.9804	6,726.56	57.9314	6,726.56	47.4231
6,963.87	84.3549	6,963.87	83.3459	6,963.87	84.4862	6,963.87	82.3665	6,963.87	83.9424	6,963.87	82.6661	6,963.87	83.4824	6,963.87	81.9824	6,963.87	83.9009	6,963.87	78.3319	6,963.87	81.7369	6,963.87	75.0106	6,963.87	79.1761	6,963.87	70.5052	6,963.87	78.5048	6,963.87	72.1928	6,963.87	75.461	6,963.87	68.7278	6,963.87	75.271	6,963.87	60.7006	6,963.87	69.3263	6,963.87	59.2744	6,963.87	61.4416	6,963.87	56.2591	6,963.87	64.1147	6,963.87	61.6327	6,963.87	61.5195	6,963.87	61.567	6,963.87	65.6609	6,963.87	57.5643	6,963.87	54.3268	6,963.87	49.1391	6,963.87	46.7539	6,963.87	57.9649	6,963.87	58.524	6,963.87	20.7982
7,209.96	83.3147	7,209.96	83.3224	7,209.96	83.2985	7,209.96	82.5028	7,209.96	83.5645	7,209.96	82.1989	7,209.96	83.8149	7,209.96	80.2775	7,209.96	83.6506	7,209.96	78.0219	7,209.96	81.2776	7,209.96	74.2019	7,209.96	79.1969	7,209.96	72.1927	7,209.96	77.5646	7,209.96	71.4121	7,209.96	74.1669	7,209.96	68.6843	7,209.96	74.7017	7,209.96	61.5158	7,209.96	70.1535	7,209.96	56.806	7,209.96	62.4311	7,209.96	53.8041	7,209.96	61.004	7,209.96	61.502	7,209.96	55.7361	7,209.96	57.693	7,209.96	60.8845	7,209.96	59.6988	7,209.96	56.8553	7,209.96	48.5707	7,209.96	48.7452	7,209.96	50.9328	7,209.96	48.495	7,209.96	43.3897
7,464.84	83.1697	7,464.84	82.559	7,464.84	83.3061	7,464.84	83.1712	7,464.84	83.2292	7,464.84	82.1766	7,464.84	83.8668	7,464.84	80.1958	7,464.84	82.8982	7,464.84	78.6638	7,464.84	80.2577	7,464.84	75.9525	7,464.84	77.696	7,464.84	71.4962	7,464.84	76.3427	7,464.84	71.6408	7,464.84	72.2939	7,464.84	69.4715	7,464.84	73.9153	7,464.84	62.8113	7,464.84	68.7911	7,464.84	55.0283	7,464.84	56.6593	7,464.84	48.9713	7,464.84	57.265	7,464.84	62.4381	7,464.84	55.1086	7,464.84	60.5708	7,464.84	61.068	7,464.84	53.9923	7,464.84	56.7122	7,464.84	49.9229	7,464.84	47.1357	7,464.84	55.4465	7,464.84	59.2482	7,464.84	47.2366
7,728.52	82.5498	7,728.52	82.6856	7,728.52	82.6407	7,728.52	83.1283	7,728.52	83.7197	7,728.52	82.4142	7,728.52	83.7745	7,728.52	81.4901	7,728.52	82.4614	7,728.52	79.0885	7,728.52	79.1213	7,728.52	76.3985	7,728.52	78.5045	7,728.52	73.9101	7,728.52	75.8363	7,728.52	74.3695	7,728.52	73.9146	7,728.52	71.7956	7,728.52	74.9892	7,728.52	65.0887	7,728.52	67.6811	7,728.52	60.9296	7,728.52	61.7664	7,728.52	47.281	7,728.52	61.2438	7,728.52	64.107	7,728.52	49.0091	7,728.52	60.6805	7,728.52	58.5645	7,728.52	56.97	7,728.52	54.3527	7,728.52	36.2106	7,728.52	50.3334	7,728.52	56.1015	7,728.52	59.8239	7,728.52	45.6858
8,000.98	81.7748	8,000.98	83.4262	8,000.98	82.8564	8,000.98	83.5846	8,000.98	83.4884	8,000.98	82.9318	8,000.98	83.4746	8,000.98	81.4815	8,000.98	82.2532	8,000.98	80.2893	8,000.98	79.8981	8,000.98	78.0671	8,000.98	79.8656	8,000.98	75.0726	8,000.98	76.4635	8,000.98	73.3997	8,000.98	74.2261	8,000.98	70.6773	8,000.98	74.3021	8,000.98	65.8071	8,000.98	68.0419	8,000.98	60.5322	8,000.98	58.5261	8,000.98	53.4268	8,000.98	59.0416	8,000.98	64.8068	8,000.98	54.9169	8,000.98	56.0752	8,000.98	44.5869	8,000.98	56.9635	8,000.98	56.0464	8,000.98	49.629	8,000.98	57.7315	8,000.98	57.0557	8,000.98	56.0956	8,000.98	47.0358
8,282.23	80.9474	8,282.23	82.665	8,282.23	81.7085	8,282.23	84.3004	8,282.23	83.1265	8,282.23	84.0989	8,282.23	84.0001	8,282.23	82.1448	8,282.23	81.6844	8,282.23	81.9388	8,282.23	81.4067	8,282.23	79.013	8,282.23	80.0339	8,282.23	72.5299	8,282.23	75.5231	8,282.23	73.3632	8,282.23	72.7016	8,282.23	73.5655	8,282.23	74.5661	8,282.23	64.2434	8,282.23	67.7275	8,282.23	61.902	8,282.23	51.7608	8,282.23	55.7779	8,282.23	57.0199	8,282.23	65.788	8,282.23	55.0663	8,282.23	57.3686	8,282.23	49.7964	8,282.23	60.2515	8,282.23	55.5552	8,282.23	50.1606	8,282.23	57.6482	8,282.23	54.7719	8,282.23	60.4503	8,282.23	47.5564
8,575.2	79.752	8,575.2	81.7337	8,575.2	80.7783	8,575.2	83.6519	8,575.2	83.2159	8,575.2	84.0005	8,575.2	82.868	8,575.2	82.4637	8,575.2	81.0258	8,575.2	81.7047	8,575.2	81.6472	8,575.2	77.1508	8,575.2	79.8144	8,575.2	76.1966	8,575.2	74.6848	8,575.2	75.8489	8,575.2	74.2871	8,575.2	73.6929	8,575.2	75.0412	8,575.2	67.3962	8,575.2	68.6697	8,575.2	57.7924	8,575.2	62.4768	8,575.2	53.8748	8,575.2	56.7283	8,575.2	66.6079	8,575.2	54.1507	8,575.2	53.973	8,575.2	41.8753	8,575.2	60.0007	8,575.2	55.9041	8,575.2	54.0319	8,575.2	46.1511	8,575.2	43.786	8,575.2	60.2109	8,575.2	53.836
8,876.95	79.3091	8,876.95	81.6518	8,876.95	80.2457	8,876.95	83.7001	8,876.95	82.565	8,876.95	83.3762	8,876.95	82.5626	8,876.95	82.1988	8,876.95	81.5222	8,876.95	81.5711	8,876.95	81.6525	8,876.95	78.7818	8,876.95	79.3286	8,876.95	75.9374	8,876.95	73.6042	8,876.95	72.4991	8,876.95	72.5938	8,876.95	71.4487	8,876.95	73.6915	8,876.95	63.8213	8,876.95	65.9004	8,876.95	58.2125	8,876.95	59.8123	8,876.95	59.4713	8,876.95	57.8584	8,876.95	66.328	8,876.95	61.1295	8,876.95	50.7466	8,876.95	60.3653	8,876.95	57.3654	8,876.95	52.1202	8,876.95	54.6709	8,876.95	51.5256	8,876.95	55.1402	8,876.95	55.9239	8,876.95	50.2376
9,190.43	81.1779	9,190.43	82.0111	9,190.43	81.8464	9,190.43	83.4556	9,190.43	83.3446	9,190.43	83.2194	9,190.43	82.7891	9,190.43	81.9527	9,190.43	81.9869	9,190.43	80.2893	9,190.43	81.248	9,190.43	76.4996	9,190.43	77.5095	9,190.43	75.9666	9,190.43	74.7251	9,190.43	73.788	9,190.43	74.598	9,190.43	72.315	9,190.43	73.8092	9,190.43	64.4639	9,190.43	67.1033	9,190.43	51.3065	9,190.43	58.2335	9,190.43	59.886	9,190.43	57.3276	9,190.43	64.4469	9,190.43	59.5341	9,190.43	56.0478	9,190.43	62.1916	9,190.43	57.0459	9,190.43	49.2678	9,190.43	56.9958	9,190.43	45.561	9,190.43	46.8517	9,190.43	50.4774	9,190.43	44.7231
9,512.7	83.4038	9,512.7	83.331	9,512.7	83.6746	9,512.7	83.6487	9,512.7	84.2964	9,512.7	82.9037	9,512.7	82.7982	9,512.7	82.192	9,512.7	82.0648	9,512.7	79.7811	9,512.7	80.5268	9,512.7	78.289	9,512.7	78.0928	9,512.7	76.3013	9,512.7	74.8575	9,512.7	73.7082	9,512.7	73.4662	9,512.7	70.0126	9,512.7	72.842	9,512.7	61.4433	9,512.7	64.6203	9,512.7	55.3564	9,512.7	61.1278	9,512.7	59.6917	9,512.7	45.1582	9,512.7	61.7723	9,512.7	60.6113	9,512.7	55.588	9,512.7	57.6045	9,512.7	58.9331	9,512.7	50.5116	9,512.7	58.4068	9,512.7	43.3508	9,512.7	54.6942	9,512.7	55.6809	9,512.7	45.8336
9,849.61	84.41	9,849.61	84.2167	9,849.61	84.4056	9,849.61	83.8237	9,849.61	84.226	9,849.61	83.3681	9,849.61	83.8655	9,849.61	82.5671	9,849.61	83.1114	9,849.61	80.1627	9,849.61	80.0624	9,849.61	78.3751	9,849.61	78.8733	9,849.61	75.6323	9,849.61	74.0023	9,849.61	72.0569	9,849.61	71.6055	9,849.61	69.9285	9,849.61	72.0886	9,849.61	60.5489	9,849.61	65.5028	9,849.61	57.4362	9,849.61	58.1567	9,849.61	60.8507	9,849.61	55.7552	9,849.61	62.6295	9,849.61	56.4802	9,849.61	58.5148	9,849.61	62.9798	9,849.61	57.8043	9,849.61	58.6451	9,849.61	49.3692	9,849.61	52.8655	9,849.61	54.7757	9,849.61	55.4481	9,849.61	47.394
10,195.3	86.6956	10,195.3	85.8887	10,195.3	86.4395	10,195.3	84.973	10,195.3	85.4666	10,195.3	84.54	10,195.3	85.1389	10,195.3	83.1447	10,195.3	83.7863	10,195.3	81.7699	10,195.3	81.6541	10,195.3	78.9116	10,195.3	79.3614	10,195.3	75.2979	10,195.3	73.2543	10,195.3	71.1834	10,195.3	70.7784	10,195.3	70.3617	10,195.3	69.8674	10,195.3	63.023	10,195.3	63.7519	10,195.3	54.5125	10,195.3	61.4913	10,195.3	59.3871	10,195.3	48.9358	10,195.3	58.7275	10,195.3	53.5269	10,195.3	58.4278	10,195.3	58.0121	10,195.3	56.2521	10,195.3	56.0848	10,195.3	51.9654	10,195.3	37.4275	10,195.3	50.9456	10,195.3	53.9666	10,195.3	48.3783
10,555.7	88.6502	10,555.7	88.0334	10,555.7	88.0064	10,555.7	86.6716	10,555.7	86.9736	10,555.7	85.2024	10,555.7	86.0078	10,555.7	83.1299	10,555.7	84.1311	10,555.7	80.3534	10,555.7	82.4992	10,555.7	76.7273	10,555.7	78.789	10,555.7	72.012	10,555.7	73.4148	10,555.7	66.5371	10,555.7	71.3805	10,555.7	65.0065	10,555.7	69.2819	10,555.7	58.1416	10,555.7	62.7956	10,555.7	51.9327	10,555.7	50.9721	10,555.7	49.8813	10,555.7	50.5285	10,555.7	50.2562	10,555.7	52.3075	10,555.7	55.6594	10,555.7	59.6968	10,555.7	52.3494	10,555.7	55.8104	10,555.7	43.6523	10,555.7	50.5604	10,555.7	46.0595	10,555.7	40.7886	10,555.7	52.041
10,927.7	88.8624	10,927.7	88.0095	10,927.7	88.342	10,927.7	86.3948	10,927.7	87.1035	10,927.7	85.0618	10,927.7	85.9867	10,927.7	82.4765	10,927.7	84.2901	10,927.7	80.3009	10,927.7	82.5507	10,927.7	75.4376	10,927.7	78.5629	10,927.7	70.2249	10,927.7	74.1964	10,927.7	64.7538	10,927.7	71.4224	10,927.7	64.8802	10,927.7	68.963	10,927.7	57.6223	10,927.7	61.6198	10,927.7	51.3719	10,927.7	57.7622	10,927.7	49.5111	10,927.7	49.7553	10,927.7	53.0852	10,927.7	53.1191	10,927.7	52.0944	10,927.7	57.4362	10,927.7	40.8463	10,927.7	53.6099	10,927.7	48.2931	10,927.7	46.616	10,927.7	41.1318	10,927.7	44.3062	10,927.7	40.506
11,314.5	89.0082	11,314.5	87.8935	11,314.5	88.5024	11,314.5	86.4579	11,314.5	87.3587	11,314.5	84.6651	11,314.5	86.0967	11,314.5	82.4397	11,314.5	84.2867	11,314.5	79.4366	11,314.5	82.5632	11,314.5	74.4948	11,314.5	77.8793	11,314.5	70.8627	11,314.5	74.2774	11,314.5	65.7579	11,314.5	71.1596	11,314.5	65.6093	11,314.5	68.4364	11,314.5	58.0692	11,314.5	60.1073	11,314.5	54.4085	11,314.5	52.6432	11,314.5	52.8831	11,314.5	48.1094	11,314.5	50.3596	11,314.5	51.9443	11,314.5	51.0792	11,314.5	52.0392	11,314.5	42.7269	11,314.5	53.5995	11,314.5	50.7831	11,314.5	37.568	11,314.5	45.3878	11,314.5	48.0918	11,314.5	45.4796
11,712.9	88.8667	11,712.9	87.6546	11,712.9	88.1253	11,712.9	85.9853	11,712.9	87.0671	11,712.9	84.6815	11,712.9	85.7125	11,712.9	82.6644	11,712.9	83.9661	11,712.9	78.9932	11,712.9	81.1998	11,712.9	74.9295	11,712.9	76.8672	11,712.9	71.3222	11,712.9	74.2288	11,712.9	65.7766	11,712.9	69.235	11,712.9	65.3539	11,712.9	63.7911	11,712.9	55.8558	11,712.9	57.706	11,712.9	57.11	11,712.9	53.3136	11,712.9	52.6255	11,712.9	48.6043	11,712.9	47.9773	11,712.9	52.2637	11,712.9	51.2068	11,712.9	56.9556	11,712.9	41.1233	11,712.9	43.6589	11,712.9	49.6491	11,712.9	46.4562	11,712.9	35.0754	11,712.9	42.0633	11,712.9	47.1564
12,126	88.9712	12,126	87.6735	12,126	88.1742	12,126	86.4241	12,126	87.1855	12,126	85.253	12,126	86.2732	12,126	83.3437	12,126	84.6796	12,126	78.9291	12,126	80.7973	12,126	77.6988	12,126	78.1914	12,126	73.1931	12,126	73.9903	12,126	70.1073	12,126	70.6794	12,126	66.6141	12,126	62.1612	12,126	54.4882	12,126	57.5087	12,126	55.4627	12,126	52.9576	12,126	56.573	12,126	48.7309	12,126	46.227	12,126	52.9216	12,126	51.6463	12,126	57.6138	12,126	51.7621	12,126	49.1136	12,126	44.8493	12,126	38.9477	12,126	48.649	12,126	51.3093	12,126	47.013
12,553.7	89.0204	12,553.7	87.7606	12,553.7	88.3591	12,553.7	86.7256	12,553.7	87.5951	12,553.7	85.5886	12,553.7	86.8549	12,553.7	83.5888	12,553.7	84.8668	12,553.7	80.2215	12,553.7	81.3587	12,553.7	78.5322	12,553.7	79.2826	12,553.7	73.8406	12,553.7	75.2594	12,553.7	70.9083	12,553.7	71.4471	12,553.7	66.401	12,553.7	62.6688	12,553.7	57.7865	12,553.7	60.0855	12,553.7	56.6905	12,553.7	56.3012	12,553.7	53.6154	12,553.7	50.8515	12,553.7	50.2378	12,553.7	53.7921	12,553.7	48.8755	12,553.7	58.9886	12,553.7	53.0349	12,553.7	48.9632	12,553.7	41.1208	12,553.7	36.1569	12,553.7	45.0772	12,553.7	49.723	12,553.7	41.0273
12,996.1	88.9988	12,996.1	87.985	12,996.1	88.5808	12,996.1	86.729	12,996.1	87.788	12,996.1	85.1489	12,996.1	86.4445	12,996.1	82.528	12,996.1	83.8496	12,996.1	79.0429	12,996.1	80.67	12,996.1	76.9067	12,996.1	77.7787	12,996.1	72.4028	12,996.1	74.4361	12,996.1	69.5007	12,996.1	69.6406	12,996.1	63.4661	12,996.1	57.5366	12,996.1	54.4039	12,996.1	56.6593	12,996.1	51.4357	12,996.1	53.3701	12,996.1	50.5862	12,996.1	47.671	12,996.1	48.0587	12,996.1	47.6267	12,996.1	42.7721	12,996.1	56.2656	12,996.1	50.4103	12,996.1	49.0176	12,996.1	39.1537	12,996.1	34.3613	12,996.1	41.3792	12,996.1	45.3299	12,996.1	42.6138
13,453.1	88.8594	13,453.1	88.0199	13,453.1	88.5449	13,453.1	86.6303	13,453.1	87.4537	13,453.1	84.486	13,453.1	85.319	13,453.1	81.3621	13,453.1	82.2646	13,453.1	77.9611	13,453.1	78.6894	13,453.1	75.0513	13,453.1	74.9588	13,453.1	70.3006	13,453.1	70.9396	13,453.1	67.3695	13,453.1	65.0775	13,453.1	59.6521	13,453.1	52.437	13,453.1	52.1935	13,453.1	53.0486	13,453.1	50.0225	13,453.1	38.5294	13,453.1	41.2378	13,453.1	47.5335	13,453.1	43.6743	13,453.1	40.4205	13,453.1	30.273	13,453.1	51.5284	13,453.1	43.1103	13,453.1	43.4158	13,453.1	40.089	13,453.1	33.9823	13,453.1	38.5361	13,453.1	38.8677	13,453.1	37.474
13,927.7	88.6438	13,927.7	87.8831	13,927.7	88.195	13,927.7	86.0703	13,927.7	86.8583	13,927.7	83.4732	13,927.7	84.0033	13,927.7	79.7242	13,927.7	80.0256	13,927.7	75.9765	13,927.7	74.754	13,927.7	72.0274	13,927.7	69.2172	13,927.7	67.8373	13,927.7	62.0729	13,927.7	63.5187	13,927.7	52.5298	13,927.7	54.5412	13,927.7	42.1948	13,927.7	44.4029	13,927.7	44.2088	13,927.7	45.1634	13,927.7	37.9487	13,927.7	37.2724	13,927.7	40.1602	13,927.7	39.0102	13,927.7	34.1665	13,927.7	37.8444	13,927.7	45.1663	13,927.7	41.8015	13,927.7	42.4332	13,927.7	36.8497	13,927.7	37.4177	13,927.7	39.1802	13,927.7	33.5939	13,927.7	39.5392
14,419.9	89.2666	14,419.9	88.4099	14,419.9	88.7202	14,419.9	86.287	14,419.9	87.0584	14,419.9	82.76	14,419.9	83.7832	14,419.9	77.1241	14,419.9	79.0591	14,419.9	69.6762	14,419.9	72.2867	14,419.9	62.0374	14,419.9	64.0878	14,419.9	59.5546	14,419.9	55.086	14,419.9	49.1345	14,419.9	52.989	14,419.9	49.3873	14,419.9	50.4583	14,419.9	28.9519	14,419.9	43.9471	14,419.9	37.8637	14,419.9	36.0386	14,419.9	38.1984	14,419.9	38.1696	14,419.9	43.955	14,419.9	45.1582	14,419.9	24.4262	14,419.9	44.631	14,419.9	37.7832	14,419.9	43.7948	14,419.9	38.3513	14,419.9	41.1193	14,419.9	39.6385	14,419.9	38.7689	14,419.9	38.319
14,929.7	89.4802	14,929.7	88.2578	14,929.7	88.8175	14,929.7	85.7262	14,929.7	86.7531	14,929.7	81.9621	14,929.7	83.4525	14,929.7	76.452	14,929.7	78.5271	14,929.7	69.4704	14,929.7	71.129	14,929.7	63.6607	14,929.7	62.5707	14,929.7	59.3176	14,929.7	48.0853	14,929.7	53.2162	14,929.7	43.6738	14,929.7	39.8978	14,929.7	47.0912	14,929.7	34.7964	14,929.7	38.682	14,929.7	37.918	14,929.7	40.3035	14,929.7	40.5168	14,929.7	41.7121	14,929.7	37.0282	14,929.7	44.4143	14,929.7	42.3609	14,929.7	42.0536	14,929.7	42.3379	14,929.7	40.8383	14,929.7	34.4446	14,929.7	38.4637	14,929.7	41.5401	14,929.7	40.7015	14,929.7	34.8003
15,454.1	89.2838	15,454.1	87.8237	15,454.1	88.6133	15,454.1	85.172	15,454.1	86.4578	15,454.1	80.8434	15,454.1	82.8125	15,454.1	73.37	15,454.1	76.3362	15,454.1	63.9333	15,454.1	64.4456	15,454.1	65.9474	15,454.1	50.5447	15,454.1	66.2481	15,454.1	64.1087	15,454.1	60.1428	15,454.1	59.3738	15,454.1	50.3855	15,454.1	54.2045	15,454.1	37.7819	15,454.1	45.9103	15,454.1	43.0211	15,454.1	40.1	15,454.1	32.9697	15,454.1	39.6113	15,454.1	35.7023	15,454.1	42.9441	15,454.1	38.4526	15,454.1	41.1214	15,454.1	40.4504	15,454.1	39.9803	15,454.1	41.0993	15,454.1	43.5958	15,454.1	41.861	15,454.1	28.3507	15,454.1	40.883
15,999	88.3014	15,999	86.7809	15,999	87.5837	15,999	84.3769	15,999	85.3943	15,999	79.2165	15,999	81.4741	15,999	69.2437	15,999	73.6688	15,999	61.9984	15,999	62.4062	15,999	69.1145	15,999	64.5677	15,999	68.39	15,999	67.9322	15,999	62.9885	15,999	61.5184	15,999	51.307	15,999	57.46	15,999	43.3955	15,999	47.5747	15,999	42.8911	15,999	43.7924	15,999	35.5282	15,999	42.4228	15,999	43.2824	15,999	44.2439	15,999	39.1745	15,999	38.4176	15,999	36.1728	15,999	42.3974	15,999	48.0005	15,999	41.6818	15,999	44.5779	15,999	42.0289	15,999	42.5392
16,564.5	86.2327	16,564.5	85.168	16,564.5	85.5912	16,564.5	83.3536	16,564.5	83.9837	16,564.5	77.3328	16,564.5	80.5869	16,564.5	66.6875	16,564.5	73.1958	16,564.5	68.0537	16,564.5	63.7131	16,564.5	72.482	16,564.5	68.0908	16,564.5	70.6536	16,564.5	68.2379	16,564.5	65.1947	16,564.5	62.7551	16,564.5	51.2723	16,564.5	56.7738	16,564.5	43.8913	16,564.5	48.0674	16,564.5	44.1953	16,564.5	42.0007	16,564.5	34.1945	16,564.5	40.6661	16,564.5	41.7607	16,564.5	46.4386	16,564.5	40.8753	16,564.5	41.3249	16,564.5	43.9243	16,564.5	38.9503	16,564.5	49.8971	16,564.5	41.7732	16,564.5	44.8624	16,564.5	41.2423	16,564.5	44.9965
17,147.5	85.2795	17,147.5	84.8315	17,147.5	84.3475	17,147.5	82.4421	17,147.5	82.7986	17,147.5	74.497	17,147.5	78.2215	17,147.5	64.9078	17,147.5	69.1925	17,147.5	73.2448	17,147.5	64.624	17,147.5	73.8075	17,147.5	69.2464	17,147.5	71.3226	17,147.5	67.7993	17,147.5	63.0988	17,147.5	61.3556	17,147.5	51.6381	17,147.5	57.7597	17,147.5	47.0261	17,147.5	41.3706	17,147.5	40.5169	17,147.5	38.786	17,147.5	31.9043	17,147.5	36.719	17,147.5	49.827	17,147.5	37.4011	17,147.5	45.745	17,147.5	40.2584	17,147.5	44.5393	17,147.5	44.9584	17,147.5	49.1125	17,147.5	40.4796	17,147.5	47.4298	17,147.5	40.7985	17,147.5	44.8899
17,753.9	85.8267	17,753.9	84.957	17,753.9	84.9649	17,753.9	81.321	17,753.9	82.764	17,753.9	70.8862	17,753.9	76.2148	17,753.9	66.6462	17,753.9	68.5886	17,753.9	74.0942	17,753.9	71.5027	17,753.9	73.0769	17,753.9	70.54	17,753.9	70.2797	17,753.9	69.6054	17,753.9	61.4921	17,753.9	65.0657	17,753.9	49.0101	17,753.9	59.183	17,753.9	49.2757	17,753.9	40.3183	17,753.9	47.819	17,753.9	45.8075	17,753.9	41.9994	17,753.9	43.9296	17,753.9	47.8586	17,753.9	41.1476	17,753.9	46.4066	17,753.9	36.0611	17,753.9	38.0227	17,753.9	46.0777	17,753.9	48.2737	17,753.9	43.0724	17,753.9	32.4612	17,753.9	39.9349	17,753.9	42.898
18,377.9	85.0659	18,377.9	83.7264	18,377.9	84.5415	18,377.9	79.2734	18,377.9	82.1331	18,377.9	68.5109	18,377.9	76.0226	18,377.9	70.516	18,377.9	71.4435	18,377.9	73.7837	18,377.9	72.9186	18,377.9	72.4957	18,377.9	71.38	18,377.9	70.253	18,377.9	70.1777	18,377.9	62.4993	18,377.9	65.931	18,377.9	46.7115	18,377.9	57.448	18,377.9	51.7198	18,377.9	34.3077	18,377.9	44.4841	18,377.9	47.8757	18,377.9	42.6681	18,377.9	43.9721	18,377.9	45.6177	18,377.9	35.419	18,377.9	41.8145	18,377.9	30.5314	18,377.9	40.0787	18,377.9	46.6456	18,377.9	43.3642	18,377.9	44.586	18,377.9	42.4905	18,377.9	41.2639	18,377.9	47.1588
19,028.3	84.1529	19,028.3	82.2756	19,028.3	84.2987	19,028.3	77.3214	19,028.3	82.219	19,028.3	69.2366	19,028.3	76.6919	19,028.3	73.6298	19,028.3	73.389	19,028.3	73.6796	19,028.3	73.0669	19,028.3	72.1867	19,028.3	72.0597	19,028.3	69.8487	19,028.3	69.9984	19,028.3	60.138	19,028.3	62.8717	19,028.3	51.5415	19,028.3	56.1845	19,028.3	48.2522	19,028.3	48.0271	19,028.3	45.6542	19,028.3	40.7217	19,028.3	43.9159	19,028.3	39.8931	19,028.3	39.8945	19,028.3	45.3975	19,028.3	42.2413	19,028.3	48.2773	19,028.3	39.9382	19,028.3	47.2012	19,028.3	47.3895	19,028.3	40.4893	19,028.3	49.7918	19,028.3	41.6276	19,028.3	48.266
19,699.2	83.1027	19,699.2	79.9819	19,699.2	83.8747	19,699.2	74.0698	19,699.2	81.9574	19,699.2	73.1965	19,699.2	76.3906	19,699.2	75.7906	19,699.2	72.8897	19,699.2	74.0812	19,699.2	72.8442	19,699.2	71.7112	19,699.2	72.0753	19,699.2	68.975	19,699.2	68.4498	19,699.2	57.724	19,699.2	64.5975	19,699.2	50.7484	19,699.2	56.7182	19,699.2	41.456	19,699.2	46.9476	19,699.2	41.0629	19,699.2	36.0761	19,699.2	39.0118	19,699.2	42.7537	19,699.2	40.6989	19,699.2	45.2789	19,699.2	44.7631	19,699.2	50.2653	19,699.2	36.8803	19,699.2	47.6636	19,699.2	46.6055	19,699.2	42.3037	19,699.2	51.345	19,699.2	35.4843	19,699.2	47.8003
19,998	82.3098	19,998	78.167	19,998	83.4808	19,998	71.7322	19,998	81.5128	19,998	74.4476	19,998	75.8663	19,998	76.1975	19,998	72.0892	19,998	73.5723	19,998	72.5886	19,998	70.5533	19,998	72.0557	19,998	67.217	19,998	68.7839	19,998	53.6107	19,998	65.584	19,998	49.9991	19,998	57.6378	19,998	45.7771	19,998	48.7039	19,998	31.4535	19,998	46.4332	19,998	27.4897	19,998	46.7812	19,998	42.4872	19,998	48.1909	19,998	46.0935	19,998	51.2117	19,998	44.6482	19,998	47.9195	19,998	45.4692	19,998	42.4575	19,998	52.346	19,998	46.5997	19,998	44.9708
