"SPL Vertical"																																																																							
"On-Axis"		"10°"		"-10°"		"20°"		"-20°"		"30°"		"-30°"		"40°"		"-40°"		"50°"		"-50°"		"60°"		"-60°"		"70°"		"-70°"		"80°"		"-80°"		"90°"		"-90°"		"100°"		"-100°"		"110°"		"-110°"		"120°"		"-120°"		"130°"		"-130°"		"140°"		"-140°"		"150°"		"-150°"		"160°"		"-160°"		"170°"		"-170°"		"180°"	
"Frequency [Hz]"	"Sound Pessure Level [dB]  / [2.83V 1m] "	"Frequency [Hz]"	"Sound Pessure Level [dB]  / [2.83V 1m] "	"Frequency [Hz]"	"Sound Pessure Level [dB]  / [2.83V 1m] "	"Frequency [Hz]"	"Sound Pessure Level [dB]  / [2.83V 1m] "	"Frequency [Hz]"	"Sound Pessure Level [dB]  / [2.83V 1m] "	"Frequency [Hz]"	"Sound Pessure Level [dB]  / [2.83V 1m] "	"Frequency [Hz]"	"Sound Pessure Level [dB]  / [2.83V 1m] "	"Frequency [Hz]"	"Sound Pessure Level [dB]  / [2.83V 1m] "	"Frequency [Hz]"	"Sound Pessure Level [dB]  / [2.83V 1m] "	"Frequency [Hz]"	"Sound Pessure Level [dB]  / [2.83V 1m] "	"Frequency [Hz]"	"Sound Pessure Level [dB]  / [2.83V 1m] "	"Frequency [Hz]"	"Sound Pessure Level [dB]  / [2.83V 1m] "	"Frequency [Hz]"	"Sound Pessure Level [dB]  / [2.83V 1m] "	"Frequency [Hz]"	"Sound Pessure Level [dB]  / [2.83V 1m] "	"Frequency [Hz]"	"Sound Pessure Level [dB]  / [2.83V 1m] "	"Frequency [Hz]"	"Sound Pessure Level [dB]  / [2.83V 1m] "	"Frequency [Hz]"	"Sound Pessure Level [dB]  / [2.83V 1m] "	"Frequency [Hz]"	"Sound Pessure Level [dB]  / [2.83V 1m] "	"Frequency [Hz]"	"Sound Pessure Level [dB]  / [2.83V 1m] "	"Frequency [Hz]"	"Sound Pessure Level [dB]  / [2.83V 1m] "	"Frequency [Hz]"	"Sound Pessure Level [dB]  / [2.83V 1m] "	"Frequency [Hz]"	"Sound Pessure Level [dB]  / [2.83V 1m] "	"Frequency [Hz]"	"Sound Pessure Level [dB]  / [2.83V 1m] "	"Frequency [Hz]"	"Sound Pessure Level [dB]  / [2.83V 1m] "	"Frequency [Hz]"	"Sound Pessure Level [dB]  / [2.83V 1m] "	"Frequency [Hz]"	"Sound Pessure Level [dB]  / [2.83V 1m] "	"Frequency [Hz]"	"Sound Pessure Level [dB]  / [2.83V 1m] "	"Frequency [Hz]"	"Sound Pessure Level [dB]  / [2.83V 1m] "	"Frequency [Hz]"	"Sound Pessure Level [dB]  / [2.83V 1m] "	"Frequency [Hz]"	"Sound Pessure Level [dB]  / [2.83V 1m] "	"Frequency [Hz]"	"Sound Pessure Level [dB]  / [2.83V 1m] "	"Frequency [Hz]"	"Sound Pessure Level [dB]  / [2.83V 1m] "	"Frequency [Hz]"	"Sound Pessure Level [dB]  / [2.83V 1m] "	"Frequency [Hz]"	"Sound Pessure Level [dB]  / [2.83V 1m] "	"Frequency [Hz]"	"Sound Pessure Level [dB]  / [2.83V 1m] "	"Frequency [Hz]"	"Sound Pessure Level [dB]  / [2.83V 1m] "
20.5078	56.0831	20.5078	56.0852	20.5078	56.0716	20.5078	56.0778	20.5078	56.0509	20.5078	56.0611	20.5078	56.0219	20.5078	56.0357	20.5078	55.9854	20.5078	56.0027	20.5078	55.9429	20.5078	55.963	20.5078	55.8958	20.5078	55.9183	20.5078	55.8458	20.5078	55.87	20.5078	55.7948	20.5078	55.82	20.5078	55.7445	20.5078	55.7699	20.5078	55.6968	20.5078	55.7216	20.5078	55.6531	20.5078	55.6765	20.5078	55.6148	20.5078	55.6359	20.5078	55.5827	20.5078	55.6009	20.5078	55.5573	20.5078	55.5721	20.5078	55.539	20.5078	55.5498	20.5078	55.5276	20.5078	55.5342	20.5078	55.5231	20.5078	55.5253
23.4375	57.0707	23.4375	57.0592	23.4375	57.069	23.4375	57.0348	23.4375	57.0541	23.4375	56.998	23.4375	57.0262	23.4375	56.9499	23.4375	56.986	23.4375	56.8915	23.4375	56.9344	23.4375	56.8244	23.4375	56.8728	23.4375	56.7503	23.4375	56.8026	23.4375	56.6713	23.4375	56.7258	23.4375	56.5896	23.4375	56.6446	23.4375	56.5075	23.4375	56.5615	23.4375	56.4278	23.4375	56.4791	23.4375	56.3529	23.4375	56.4002	23.4375	56.2853	23.4375	56.3272	23.4375	56.2275	23.4375	56.2628	23.4375	56.1815	23.4375	56.209	23.4375	56.1489	23.4375	56.1678	23.4375	56.1309	23.4375	56.1405	23.4375	56.128
26.3672	58.6811	26.3672	58.6709	26.3672	58.6787	26.3672	58.6484	26.3672	58.6637	26.3672	58.6141	26.3672	58.6365	26.3672	58.569	26.3672	58.5977	26.3672	58.5144	26.3672	58.5485	26.3672	58.4517	26.3672	58.49	26.3672	58.3827	26.3672	58.424	26.3672	58.3095	26.3672	58.3523	26.3672	58.2343	26.3672	58.2772	26.3672	58.1593	26.3672	58.201	26.3672	58.0871	26.3672	58.1262	26.3672	58.0197	26.3672	58.0551	26.3672	57.9593	26.3672	57.9901	26.3672	57.9079	26.3672	57.9333	26.3672	57.8669	26.3672	57.8864	26.3672	57.8377	26.3672	57.8509	26.3672	57.8212	26.3672	57.8279	26.3672	57.8179
29.2969	59.7221	29.2969	59.7063	29.2969	59.7237	29.2969	59.6768	29.2969	59.711	29.2969	59.6342	29.2969	59.6842	29.2969	59.5796	29.2969	59.6439	29.2969	59.5145	29.2969	59.5911	29.2969	59.4405	29.2969	59.5271	29.2969	59.3595	29.2969	59.4537	29.2969	59.2738	29.2969	59.373	29.2969	59.1859	29.2969	59.2873	29.2969	59.0986	29.2969	59.1993	29.2969	59.0145	29.2969	59.1117	29.2969	58.9365	29.2969	59.0273	29.2969	58.8673	29.2969	58.9488	29.2969	58.8094	29.2969	58.8788	29.2969	58.7646	29.2969	58.8193	29.2969	58.7346	29.2969	58.7724	29.2969	58.7202	29.2969	58.7396	29.2969	58.7219
32.2266	60.6099	32.2266	60.582	32.2266	60.6232	32.2266	60.5402	32.2266	60.6212	32.2266	60.486	32.2266	60.6039	32.2266	60.421	32.2266	60.5715	32.2266	60.3472	32.2266	60.5249	32.2266	60.2668	32.2266	60.4655	32.2266	60.1825	32.2266	60.3949	32.2266	60.0968	32.2266	60.3154	32.2266	60.0124	32.2266	60.2298	32.2266	59.932	32.2266	60.1408	32.2266	59.8579	32.2266	60.0517	32.2266	59.7923	32.2266	59.9656	32.2266	59.7367	32.2266	59.8853	32.2266	59.6926	32.2266	59.8134	32.2266	59.6607	32.2266	59.7522	32.2266	59.6418	32.2266	59.703	32.2266	59.6364	32.2266	59.6671	32.2266	59.6448
35.1563	61.1531	35.1563	61.1233	35.1563	61.1653	35.1563	61.0768	35.1563	61.1598	35.1563	61.0147	35.1563	61.1365	35.1563	60.9387	35.1563	61.0962	35.1563	60.8508	35.1563	61.04	35.1563	60.7536	35.1563	60.9692	35.1563	60.65	35.1563	60.886	35.1563	60.5432	35.1563	60.7926	35.1563	60.4366	35.1563	60.6919	35.1563	60.3336	35.1563	60.5868	35.1563	60.2376	35.1563	60.4807	35.1563	60.1518	35.1563	60.3769	35.1563	60.0789	35.1563	60.2786	35.1563	60.021	35.1563	60.189	35.1563	59.98	35.1563	60.1108	35.1563	59.9568	35.1563	60.0463	35.1563	59.952	35.1563	59.9975	35.1563	59.9658
38.0859	61.7195	38.0859	61.6823	38.0859	61.7385	38.0859	61.6278	38.0859	61.7387	38.0859	61.5574	38.0859	61.7203	38.0859	61.4729	38.0859	61.6838	38.0859	61.3768	38.0859	61.6302	38.0859	61.2719	38.0859	61.5609	38.0859	61.1614	38.0859	61.478	38.0859	61.0488	38.0859	61.3838	38.0859	60.9379	38.0859	61.281	38.0859	60.8323	38.0859	61.173	38.0859	60.7356	38.0859	61.0629	38.0859	60.651	38.0859	60.9542	38.0859	60.5811	38.0859	60.8503	38.0859	60.5279	38.0859	60.7543	38.0859	60.4928	38.0859	60.6691	38.0859	60.4766	38.0859	60.5973	38.0859	60.4794	38.0859	60.5407	38.0859	60.501
41.0156	61.6657	41.0156	61.6303	41.0156	61.6798	41.0156	61.5745	41.0156	61.6723	41.0156	61.4994	41.0156	61.6434	41.0156	61.4069	41.0156	61.5937	41.0156	61.2993	41.0156	61.5244	41.0156	61.1793	41.0156	61.4374	41.0156	61.0504	41.0156	61.3347	41.0156	60.9163	41.0156	61.2192	41.0156	60.7812	41.0156	61.0941	41.0156	60.6495	41.0156	60.9631	41.0156	60.5257	41.0156	60.8301	41.0156	60.4142	41.0156	60.6992	41.0156	60.3188	41.0156	60.5746	41.0156	60.2428	41.0156	60.4601	41.0156	60.1888	41.0156	60.3595	41.0156	60.1583	41.0156	60.2759	41.0156	60.1522	41.0156	60.2122	41.0156	60.1705
43.9453	62.9798	43.9453	62.9484	43.9453	62.991	43.9453	62.8975	43.9453	62.9819	43.9453	62.8281	43.9453	62.9531	43.9453	62.7417	43.9453	62.9054	43.9453	62.6405	43.9453	62.8403	43.9453	62.5271	43.9453	62.7595	43.9453	62.4048	43.9453	62.6654	43.9453	62.2773	43.9453	62.5607	43.9453	62.1488	43.9453	62.4485	43.9453	62.0239	43.9453	62.3318	43.9453	61.9071	43.9453	62.2139	43.9453	61.8031	43.9453	62.0981	43.9453	61.7159	43.9453	61.9875	43.9453	61.6487	43.9453	61.8849	43.9453	61.6038	43.9453	61.793	43.9453	61.5822	43.9453	61.7145	43.9453	61.5838	43.9453	61.6519	43.9453	61.6076
46.875	65.786	46.875	65.7634	46.875	65.79	46.875	65.7228	46.875	65.7755	46.875	65.6651	46.875	65.7428	46.875	65.5914	46.875	65.693	46.875	65.5037	46.875	65.6271	46.875	65.4042	46.875	65.547	46.875	65.2955	46.875	65.4547	46.875	65.181	46.875	65.3529	46.875	65.064	46.875	65.2444	46.875	64.9485	46.875	65.1322	46.875	64.8383	46.875	65.0198	46.875	64.7374	46.875	64.9105	46.875	64.6493	46.875	64.8076	46.875	64.5774	46.875	64.7141	46.875	64.524	46.875	64.633	46.875	64.491	46.875	64.5669	46.875	64.4791	46.875	64.5181	46.875	64.4884
49.8047	69.6894	49.8047	69.6719	49.8047	69.6924	49.8047	69.6401	49.8047	69.6808	49.8047	69.5948	49.8047	69.6552	49.8047	69.5372	49.8047	69.6162	49.8047	69.4687	49.8047	69.5651	49.8047	69.3913	49.8047	69.5033	49.8047	69.3074	49.8047	69.4326	49.8047	69.2196	49.8047	69.3552	49.8047	69.1307	49.8047	69.2732	49.8047	69.0438	49.8047	69.1891	49.8047	68.9618	49.8047	69.1053	49.8047	68.8876	49.8047	69.0243	49.8047	68.8237	49.8047	68.9484	49.8047	68.7723	49.8047	68.8798	49.8047	68.7348	49.8047	68.8203	49.8047	68.7123	49.8047	68.7717	49.8047	68.705	49.8047	68.7355	49.8047	68.713
52.7344	73.2216	52.7344	73.2097	52.7344	73.2204	52.7344	73.185	52.7344	73.2062	52.7344	73.1479	52.7344	73.1796	52.7344	73.0995	52.7344	73.1414	52.7344	73.0413	52.7344	73.0931	52.7344	72.9749	52.7344	73.036	52.7344	72.9025	52.7344	72.9721	52.7344	72.8263	52.7344	72.9034	52.7344	72.7492	52.7344	72.8319	52.7344	72.6736	52.7344	72.76	52.7344	72.6022	52.7344	72.6897	52.7344	72.5376	52.7344	72.6229	52.7344	72.4819	52.7344	72.5613	52.7344	72.4368	52.7344	72.5066	52.7344	72.4035	52.7344	72.4599	52.7344	72.3828	52.7344	72.4224	52.7344	72.3746	52.7344	72.3951	52.7344	72.3789
55.6641	76.2043	55.6641	76.1955	55.6641	76.2012	55.6641	76.1748	55.6641	76.1863	55.6641	76.1427	55.6641	76.1606	55.6641	76.1003	55.6641	76.1251	55.6641	76.0489	55.6641	76.0814	55.6641	75.9903	55.6641	76.0311	55.6641	75.9267	55.6641	75.9762	55.6641	75.8605	55.6641	75.9186	55.6641	75.7942	55.6641	75.8603	55.6641	75.7304	55.6641	75.803	55.6641	75.6715	55.6641	75.7483	55.6641	75.6196	55.6641	75.6974	55.6641	75.5763	55.6641	75.6512	55.6641	75.5429	55.6641	75.6103	55.6641	75.5198	55.6641	75.5753	55.6641	75.507	55.6641	75.5465	55.6641	75.504	55.6641	75.5246	55.6641	75.5102
58.5938	78.617	58.5938	78.6122	58.5938	78.6088	58.5938	78.5944	58.5938	78.588	58.5938	78.564	58.5938	78.5555	58.5938	78.522	58.5938	78.5128	58.5938	78.4699	58.5938	78.4614	58.5938	78.4094	58.5938	78.4034	58.5938	78.3427	58.5938	78.341	58.5938	78.2724	58.5938	78.2765	58.5938	78.201	58.5938	78.2121	58.5938	78.1313	58.5938	78.1497	58.5938	78.0659	58.5938	78.0911	58.5938	78.0071	58.5938	78.0377	58.5938	77.9567	58.5938	77.9902	58.5938	77.9163	58.5938	77.9494	58.5938	77.8865	58.5938	77.9156	58.5938	77.8674	58.5938	77.8891	58.5938	77.8588	58.5938	77.8704	58.5938	77.8601
61.5234	80.3041	61.5234	80.2996	61.5234	80.2948	61.5234	80.2812	61.5234	80.272	61.5234	80.2495	61.5234	80.2367	61.5234	80.2056	61.5234	80.1902	61.5234	80.1509	61.5234	80.1345	61.5234	80.0875	61.5234	80.0715	61.5234	80.0177	61.5234	80.0038	61.5234	79.9441	61.5234	79.9337	61.5234	79.8696	61.5234	79.8639	61.5234	79.7968	61.5234	79.7966	61.5234	79.7285	61.5234	79.7337	61.5234	79.667	61.5234	79.677	61.5234	79.6141	61.5234	79.6275	61.5234	79.571	61.5234	79.5859	61.5234	79.5384	61.5234	79.5524	61.5234	79.5165	61.5234	79.5274	61.5234	79.505	61.5234	79.5109	61.5234	79.5033
64.4531	81.4733	64.4531	81.4706	64.4531	81.4623	64.4531	81.4542	64.4531	81.4381	64.4531	81.4243	64.4531	81.4021	64.4531	81.3819	64.4531	81.3556	64.4531	81.3285	64.4531	81.3007	64.4531	81.266	64.4531	81.2395	64.4531	81.1968	64.4531	81.1745	64.4531	81.1236	64.4531	81.1081	64.4531	81.0494	64.4531	81.0425	64.4531	80.977	64.4531	80.9799	64.4531	80.9094	64.4531	80.9218	64.4531	80.8489	64.4531	80.8694	64.4531	80.7975	64.4531	80.8235	64.4531	80.7565	64.4531	80.7844	64.4531	80.7266	64.4531	80.7522	64.4531	80.7075	64.4531	80.7272	64.4531	80.6989	64.4531	80.7096	64.4531	80.6999
67.3828	82.2784	67.3828	82.2799	67.3828	82.2617	67.3828	82.2657	67.3828	82.2304	67.3828	82.2364	67.3828	82.186	67.3828	82.1928	67.3828	82.1301	67.3828	82.1362	67.3828	82.0651	67.3828	82.0687	67.3828	81.9936	67.3828	81.9928	67.3828	81.9181	67.3828	81.9112	67.3828	81.8416	67.3828	81.827	67.3828	81.7665	67.3828	81.7435	67.3828	81.6951	67.3828	81.6637	67.3828	81.6292	67.3828	81.5907	67.3828	81.5701	67.3828	81.527	67.3828	81.5184	67.3828	81.4743	67.3828	81.4748	67.3828	81.4339	67.3828	81.4395	67.3828	81.4062	67.3828	81.4128	67.3828	81.3911	67.3828	81.3953	67.3828	81.3877
70.3125	82.7066	70.3125	82.7012	70.3125	82.6984	70.3125	82.6824	70.3125	82.677	70.3125	82.6508	70.3125	82.6433	70.3125	82.6079	70.3125	82.5987	70.3125	82.5553	70.3125	82.5452	70.3125	82.4953	70.3125	82.485	70.3125	82.4301	70.3125	82.4205	70.3125	82.3623	70.3125	82.3544	70.3125	82.2946	70.3125	82.289	70.3125	82.2293	70.3125	82.2267	70.3125	82.1686	70.3125	82.1692	70.3125	82.1143	70.3125	82.1179	70.3125	82.0677	70.3125	82.0738	70.3125	82.0298	70.3125	82.0372	70.3125	82.0009	70.3125	82.0082	70.3125	81.9811	70.3125	81.987	70.3125	81.9702	70.3125	81.9735	70.3125	81.9678
73.2422	83.0262	73.2422	83.0242	73.2422	83.0144	73.2422	83.0085	73.2422	82.9894	73.2422	82.9799	73.2422	82.9523	73.2422	82.9398	73.2422	82.9051	73.2422	82.8903	73.2422	82.8502	73.2422	82.8336	73.2422	82.7903	73.2422	82.7726	73.2422	82.7284	73.2422	82.7099	73.2422	82.6675	73.2422	82.6485	73.2422	82.6102	73.2422	82.5909	73.2422	82.5587	73.2422	82.539	73.2422	82.5142	73.2422	82.4946	73.2422	82.4775	73.2422	82.4583	73.2422	82.4483	73.2422	82.4304	73.2422	82.4261	73.2422	82.4105	73.2422	82.4099	73.2422	82.3976	73.2422	82.3987	73.2422	82.3909	73.2422	82.3919	73.2422	82.3892
76.1719	83.3898	76.1719	83.3888	76.1719	83.3763	76.1719	83.3735	76.1719	83.349	76.1719	83.3446	76.1719	83.3092	76.1719	83.3035	76.1719	83.2587	76.1719	83.2523	76.1719	83.2002	76.1719	83.1933	76.1719	83.1365	76.1719	83.1295	76.1719	83.0707	76.1719	83.0636	76.1719	83.0059	76.1719	82.9987	76.1719	82.945	76.1719	82.9374	76.1719	82.8902	76.1719	82.882	76.1719	82.843	76.1719	82.8341	76.1719	82.8042	76.1719	82.7947	76.1719	82.7736	76.1719	82.7639	76.1719	82.7505	76.1719	82.7415	76.1719	82.734	76.1719	82.7265	76.1719	82.7229	76.1719	82.718	76.1719	82.7167	76.1719	82.715
79.1016	83.5824	79.1016	83.581	79.1016	83.568	79.1016	83.5638	79.1016	83.5383	79.1016	83.5317	79.1016	83.4952	79.1016	83.4866	79.1016	83.4408	79.1016	83.4308	79.1016	83.3782	79.1016	83.3674	79.1016	83.3109	79.1016	83.2998	79.1016	83.2425	79.1016	83.2316	79.1016	83.1766	79.1016	83.166	79.1016	83.1163	79.1016	83.1061	79.1016	83.0639	79.1016	83.0541	79.1016	83.021	79.1016	83.0115	79.1016	82.9878	79.1016	82.9787	79.1016	82.9637	79.1016	82.9552	79.1016	82.9473	79.1016	82.9398	79.1016	82.9368	79.1016	82.9309	79.1016	82.9305	79.1016	82.9267	79.1016	82.927	79.1016	82.9257
82.0313	83.7025	82.0313	83.7007	82.0313	83.6882	82.0313	83.6829	82.0313	83.6585	82.0313	83.6498	82.0313	83.615	82.0313	83.6032	82.0313	83.5599	82.0313	83.5454	82.0313	83.4961	82.0313	83.4793	82.0313	83.4272	82.0313	83.4083	82.0313	83.3567	82.0313	83.3358	82.0313	83.2881	82.0313	83.2654	82.0313	83.2246	82.0313	83.2004	82.0313	83.1688	82.0313	83.1434	82.0313	83.1221	82.0313	83.0961	82.0313	83.0851	82.0313	83.0594	82.0313	83.0572	82.0313	83.0331	82.0313	83.037	82.0313	83.016	82.0313	83.0231	82.0313	83.0067	82.0313	83.0135	82.0313	83.0031	82.0313	83.0073	82.0313	83.0037
84.9609	83.8352	84.9609	83.8323	84.9609	83.8204	84.9609	83.8116	84.9609	83.7888	84.9609	83.7739	84.9609	83.7421	84.9609	83.7211	84.9609	83.6828	84.9609	83.6554	84.9609	83.6142	84.9609	83.5801	84.9609	83.5397	84.9609	83.4988	84.9609	83.4632	84.9609	83.4152	84.9609	83.3882	84.9609	83.3334	84.9609	83.318	84.9609	83.257	84.9609	83.2549	84.9609	83.189	84.9609	83.2003	84.9609	83.1318	84.9609	83.1547	84.9609	83.0866	84.9609	83.1176	84.9609	83.0536	84.9609	83.088	84.9609	83.0323	84.9609	83.0646	84.9609	83.0213	84.9609	83.0462	84.9609	83.0187	84.9609	83.0322	84.9609	83.0228
87.8906	83.8742	87.8906	83.8738	87.8906	83.8572	87.8906	83.8557	87.8906	83.8236	87.8906	83.8209	87.8906	83.7753	87.8906	83.7712	87.8906	83.7153	87.8906	83.7091	87.8906	83.6469	87.8906	83.638	87.8906	83.5739	87.8906	83.5615	87.8906	83.5005	87.8906	83.4836	87.8906	83.4304	87.8906	83.4082	87.8906	83.3668	87.8906	83.3388	87.8906	83.3118	87.8906	83.2782	87.8906	83.2666	87.8906	83.2283	87.8906	83.231	87.8906	83.1901	87.8906	83.204	87.8906	83.1633	87.8906	83.1839	87.8906	83.1468	87.8906	83.1687	87.8906	83.139	87.8906	83.1571	87.8906	83.1378	87.8906	83.148	87.8906	83.1413
90.8203	83.8183	90.8203	83.8167	90.8203	83.8034	90.8203	83.7987	90.8203	83.7729	90.8203	83.7655	90.8203	83.7288	90.8203	83.7191	90.8203	83.6738	90.8203	83.6623	90.8203	83.6117	90.8203	83.5986	90.8203	83.5467	90.8203	83.5317	90.8203	83.4829	90.8203	83.4657	90.8203	83.4244	90.8203	83.4041	90.8203	83.3744	90.8203	83.3502	90.8203	83.3346	90.8203	83.3063	90.8203	83.3057	90.8203	83.2737	90.8203	83.2869	90.8203	83.2525	90.8203	83.2761	90.8203	83.2417	90.8203	83.2706	90.8203	83.2391	90.8203	83.2678	90.8203	83.2423	90.8203	83.2651	90.8203	83.2485	90.8203	83.2611	90.8203	83.2553
93.75	84.1224	93.75	84.1318	93.75	84.0941	93.75	84.1218	93.75	84.0481	93.75	84.0935	93.75	83.987	93.75	84.0488	93.75	83.9146	93.75	83.9907	93.75	83.8352	93.75	83.9231	93.75	83.7542	93.75	83.8506	93.75	83.6769	93.75	83.778	93.75	83.6087	93.75	83.7101	93.75	83.5536	93.75	83.6511	93.75	83.5145	93.75	83.6042	93.75	83.4921	93.75	83.571	93.75	83.4851	93.75	83.5512	93.75	83.4905	93.75	83.5429	93.75	83.5038	93.75	83.5429	93.75	83.5203	93.75	83.5469	93.75	83.5355	93.75	83.5509	93.75	83.5464	93.75	83.5515
96.6797	84.1992	96.6797	84.2013	96.6797	84.1746	96.6797	84.1805	96.6797	84.1289	96.6797	84.1375	96.6797	84.0645	96.6797	84.0738	96.6797	83.9849	96.6797	83.9924	96.6797	83.8943	96.6797	83.8968	96.6797	83.7973	96.6797	83.7916	96.6797	83.6991	96.6797	83.6819	96.6797	83.6045	96.6797	83.5732	96.6797	83.5177	96.6797	83.471	96.6797	83.4418	96.6797	83.3801	96.6797	83.3783	96.6797	83.3042	96.6797	83.3273	96.6797	83.2457	96.6797	83.2875	96.6797	83.2051	96.6797	83.2567	96.6797	83.1811	96.6797	83.2322	96.6797	83.1714	96.6797	83.212	96.6797	83.1726	96.6797	83.195	96.6797	83.1813
102.539	83.9847	102.539	83.9946	102.539	83.9545	102.539	83.9842	102.539	83.9052	102.539	83.9547	102.539	83.8392	102.539	83.9084	102.539	83.7604	102.539	83.8485	102.539	83.6733	102.539	83.7786	102.539	83.5836	102.539	83.7031	102.539	83.497	102.539	83.6261	102.539	83.419	102.539	83.552	102.539	83.3539	102.539	83.4844	102.539	83.3047	102.539	83.4261	102.539	83.2721	102.539	83.379	102.539	83.2549	102.539	83.3436	102.539	83.2502	102.539	83.3193	102.539	83.2541	102.539	83.3041	102.539	83.2625	102.539	83.2954	102.539	83.2719	102.539	83.2903	102.539	83.2799	102.539	83.2857
105.469	83.9731	105.469	83.9855	105.469	83.9374	105.469	83.9749	105.469	83.8794	105.469	83.9429	105.469	83.8016	105.469	83.892	105.469	83.7078	105.469	83.826	105.469	83.6034	105.469	83.7492	105.469	83.4944	105.469	83.6664	105.469	83.3878	105.469	83.5826	105.469	83.2904	105.469	83.5024	105.469	83.208	105.469	83.4297	105.469	83.1451	105.469	83.3674	105.469	83.1037	105.469	83.3168	105.469	83.0831	105.469	83.2779	105.469	83.0807	105.469	83.2492	105.469	83.0919	105.469	83.228	105.469	83.1114	105.469	83.211	105.469	83.1345	105.469	83.195	105.469	83.1573	105.469	83.1776
108.398	83.9901	108.398	83.9933	108.398	83.9623	108.398	83.9725	108.398	83.9109	108.398	83.9291	108.398	83.8382	108.398	83.8662	108.398	83.7478	108.398	83.7877	108.398	83.6448	108.398	83.6982	108.398	83.5351	108.398	83.6031	108.398	83.4254	108.398	83.5079	108.398	83.3225	108.398	83.4178	108.398	83.2326	108.398	83.3374	108.398	83.1601	108.398	83.2699	108.398	83.1076	108.398	83.2169	108.398	83.0753	108.398	83.1782	108.398	83.0608	108.398	83.1521	108.398	83.0602	108.398	83.1354	108.398	83.0686	108.398	83.1244	108.398	83.0813	108.398	83.1156	108.398	83.0946	108.398	83.1061
111.328	83.9499	111.328	83.9519	111.328	83.9238	111.328	83.9301	111.328	83.8744	111.328	83.8862	111.328	83.8041	111.328	83.823	111.328	83.7165	111.328	83.7443	111.328	83.6166	111.328	83.655	111.328	83.5103	111.328	83.5601	111.328	83.4041	111.328	83.4651	111.328	83.3046	111.328	83.3752	111.328	83.2175	111.328	83.2949	111.328	83.1472	111.328	83.2276	111.328	83.0959	111.328	83.1749	111.328	83.0634	111.328	83.1368	111.328	83.0475	111.328	83.1116	111.328	83.0444	111.328	83.0964	111.328	83.0494	111.328	83.0875	111.328	83.0583	111.328	83.0815	111.328	83.0676	111.328	83.0753
117.188	83.8806	117.188	83.8886	117.188	83.8459	117.188	83.8705	117.188	83.7855	117.188	83.8282	117.188	83.702	117.188	83.765	117.188	83.5997	117.188	83.6854	117.188	83.4845	117.188	83.5946	117.188	83.3635	117.188	83.4987	117.188	83.2448	117.188	83.4038	117.188	83.1364	117.188	83.3156	117.188	83.0457	117.188	83.239	117.188	82.9779	117.188	83.1772	117.188	82.9355	117.188	83.1316	117.188	82.9178	117.188	83.1012	117.188	82.9212	117.188	83.083	117.188	82.9399	117.188	83.0729	117.188	82.9672	117.188	83.0659	117.188	82.9967	117.188	83.0573	117.188	83.0231	117.188	83.0435
120.117	83.8766	120.117	83.8837	120.117	83.8414	120.117	83.8633	120.117	83.779	120.117	83.8175	120.117	83.6919	120.117	83.7497	120.117	83.5844	120.117	83.6647	120.117	83.462	120.117	83.5681	120.117	83.3322	120.117	83.4661	120.117	83.203	120.117	83.3652	120.117	83.0832	120.117	83.2716	120.117	82.9804	120.117	83.1902	120.117	82.901	120.117	83.1243	120.117	82.8486	120.117	83.0751	120.117	82.8232	120.117	83.0414	120.117	82.8219	120.117	83.0198	120.117	82.8392	120.117	83.0057	120.117	82.868	120.117	82.9939	120.117	82.9013	120.117	82.9797	120.117	82.9332	120.117	82.9598
125.977	83.4963	125.977	83.4878	125.977	83.4745	125.977	83.4493	125.977	83.4238	125.977	83.3829	125.977	83.3467	125.977	83.292	125.977	83.2479	125.977	83.1817	125.977	83.1332	125.977	83.0585	125.977	83.0097	125.977	82.9299	125.977	82.8853	125.977	82.8044	125.977	82.7681	125.977	82.69	125.977	82.6654	125.977	82.5939	125.977	82.5828	125.977	82.521	125.977	82.5235	125.977	82.4735	125.977	82.4874	125.977	82.4499	125.977	82.4717	125.977	82.446	125.977	82.4711	125.977	82.4553	125.977	82.479	125.977	82.4704	125.977	82.4887	125.977	82.4848	125.977	82.4947	125.977	82.4937
128.906	83.2264	128.906	83.2191	128.906	83.202	128.906	83.1801	128.906	83.1472	128.906	83.1111	128.906	83.0652	128.906	83.0151	128.906	82.9605	128.906	82.8967	128.906	82.8393	128.906	82.7617	128.906	82.7089	128.906	82.6175	128.906	82.5776	128.906	82.4723	128.906	82.4533	128.906	82.3348	128.906	82.3435	128.906	82.2132	128.906	82.2531	128.906	82.1145	128.906	82.1848	128.906	82.0431	128.906	82.138	128.906	81.9998	128.906	82.1093	128.906	81.9824	128.906	82.0933	128.906	81.9853	128.906	82.0839	128.906	82.0015	128.906	82.0751	128.906	82.0235	128.906	82.0629	128.906	82.0453
134.766	82.9287	134.766	82.9328	134.766	82.8956	134.766	82.9087	134.766	82.8345	134.766	82.8587	134.766	82.7487	134.766	82.7865	134.766	82.643	134.766	82.697	134.766	82.5244	134.766	82.5961	134.766	82.4013	134.766	82.4901	134.766	82.2829	134.766	82.3855	134.766	82.1781	134.766	82.2885	134.766	82.0941	134.766	82.2046	134.766	82.0355	134.766	82.1378	134.766	82.0033	134.766	82.0903	134.766	81.9947	134.766	82.0622	134.766	82.0039	134.766	82.0511	134.766	82.0236	134.766	82.0528	134.766	82.046	134.766	82.0617	134.766	82.0648	134.766	82.0718	134.766	82.0759	134.766	82.0777
137.695	82.8508	137.695	82.8498	137.695	82.8217	137.695	82.8201	137.695	82.7635	137.695	82.7647	137.695	82.6788	137.695	82.6882	137.695	82.5728	137.695	82.5966	137.695	82.4526	137.695	82.4967	137.695	82.3271	137.695	82.3959	137.695	82.2067	137.695	82.3013	137.695	82.1012	137.695	82.2194	137.695	82.0195	137.695	82.1552	137.695	81.9673	137.695	82.1114	137.695	81.9461	137.695	82.0884	137.695	81.953	137.695	82.084	137.695	81.9813	137.695	82.0935	137.695	82.0222	137.695	82.1109	137.695	82.0659	137.695	82.1293	137.695	82.1042	137.695	82.1419	137.695	82.1311	137.695	82.1435
143.555	82.707	143.555	82.6886	143.555	82.6915	143.555	82.6378	143.555	82.6429	143.555	82.5582	143.555	82.5637	143.555	82.4551	143.555	82.4587	143.555	82.3356	143.555	82.3349	143.555	82.2085	143.555	82.2011	143.555	82.0831	143.555	82.0675	143.555	81.969	143.555	81.9449	143.555	81.8746	143.555	81.8432	143.555	81.8063	143.555	81.7699	143.555	81.7667	143.555	81.7287	143.555	81.7551	143.555	81.7187	143.555	81.7667	143.555	81.7348	143.555	81.794	143.555	81.7683	143.555	81.8279	143.555	81.8091	143.555	81.8593	143.555	81.8473	143.555	81.8806	143.555	81.8747	143.555	81.8864
149.414	82.5591	149.414	82.5372	149.414	82.5413	149.414	82.4761	149.414	82.4853	149.414	82.3785	149.414	82.3952	149.414	82.2496	149.414	82.2768	149.414	82.0967	149.414	82.1385	149.414	81.9296	149.414	81.9904	149.414	81.7599	149.414	81.8437	149.414	81.6004	149.414	81.7101	149.414	81.4637	149.414	81.5995	149.414	81.3605	149.414	81.5192	149.414	81.2974	149.414	81.4722	149.414	81.2756	149.414	81.4564	149.414	81.2905	149.414	81.4654	149.414	81.3327	149.414	81.4895	149.414	81.3898	149.414	81.5175	149.414	81.4491	149.414	81.5391	149.414	81.4994	149.414	81.5459	149.414	81.5329
155.273	82.6003	155.273	82.5898	155.273	82.5677	155.273	82.5365	155.273	82.4938	155.273	82.4431	155.273	82.3825	155.273	82.3139	155.273	82.2401	155.273	82.1559	155.273	82.0752	155.273	81.9781	155.273	81.8991	155.273	81.7916	155.273	81.7242	155.273	81.6093	155.273	81.5639	155.273	81.4444	155.273	81.43	155.273	81.3091	155.273	81.3311	155.273	81.2124	155.273	81.2708	155.273	81.1581	155.273	81.2468	155.273	81.1442	155.273	81.2517	155.273	81.1629	155.273	81.2743	155.273	81.2023	155.273	81.3023	155.273	81.2496	155.273	81.3245	155.273	81.2924	155.273	81.3324	155.273	81.3216
158.203	82.6644	158.203	82.6468	158.203	82.6378	158.203	82.5853	158.203	82.5684	158.203	82.4825	158.203	82.4598	158.203	82.3428	158.203	82.3178	158.203	82.173	158.203	82.1508	158.203	81.9821	158.203	81.9693	158.203	81.7814	158.203	81.786	158.203	81.5843	158.203	81.6142	158.203	81.405	158.203	81.4664	158.203	81.2568	158.203	81.3523	158.203	81.1498	158.203	81.2767	158.203	81.089	158.203	81.2386	158.203	81.0724	158.203	81.2315	158.203	81.0919	158.203	81.2445	158.203	81.1347	158.203	81.2653	158.203	81.1867	158.203	81.2817	158.203	81.2347	158.203	81.2847	158.203	81.2691
164.063	82.7176	164.063	82.7067	164.063	82.6842	164.063	82.6518	164.063	82.6084	164.063	82.5548	164.063	82.4943	164.063	82.4199	164.063	82.3483	164.063	82.2531	164.063	82.1794	164.063	82.0626	164.063	81.9987	164.063	81.8588	164.063	81.8188	164.063	81.6545	164.063	81.6528	164.063	81.4636	164.063	81.5124	164.063	81.3	164.063	81.4058	164.063	81.1756	164.063	81.3362	164.063	81.0977	164.063	81.3012	164.063	81.067	164.063	81.2933	164.063	81.0776	164.063	81.3012	164.063	81.1179	164.063	81.313	164.063	81.1736	164.063	81.3175	164.063	81.2305	164.063	81.3067	164.063	81.2771
169.922	82.3317	169.922	82.3299	169.922	82.2916	169.922	82.2868	169.922	82.2111	169.922	82.205	169.922	82.0945	169.922	82.089	169.922	81.9482	169.922	81.945	169.922	81.7819	169.922	81.7808	169.922	81.6071	169.922	81.606	169.922	81.4372	169.922	81.4317	169.922	81.2854	169.922	81.2694	169.922	81.1632	169.922	81.131	169.922	81.0781	169.922	81.026	169.922	81.032	169.922	80.9606	169.922	81.0211	169.922	80.9353	169.922	81.0364	169.922	80.9451	169.922	81.0661	169.922	80.98	169.922	81.0973	169.922	81.0271	169.922	81.1191	169.922	81.0733	169.922	81.1236	169.922	81.1077
175.781	82.2706	175.781	82.2612	175.781	82.2323	175.781	82.205	175.781	82.1483	175.781	82.1053	175.781	82.0232	175.781	81.968	175.781	81.8652	175.781	81.8018	175.781	81.6854	175.781	81.6179	175.781	81.4981	175.781	81.4298	175.781	81.3197	175.781	81.2526	175.781	81.1668	175.781	81.1016	175.781	81.0536	175.781	80.9896	175.781	80.9886	175.781	80.9252	175.781	80.973	175.781	80.9101	175.781	80.9999	175.781	80.9389	175.781	81.0564	175.781	80.9997	175.781	81.1263	175.781	81.0773	175.781	81.1931	175.781	81.1553	175.781	81.2431	175.781	81.2192	175.781	81.2663	175.781	81.2582
181.641	82.53	181.641	82.5084	181.641	82.5003	181.641	82.4352	181.641	82.4218	181.641	82.3126	181.641	82.2997	181.641	82.1451	181.641	82.1416	181.641	81.9403	181.641	81.9584	181.641	81.709	181.641	81.7637	181.641	81.4655	181.641	81.573	181.641	81.2278	181.641	81.4025	181.641	81.0157	181.641	81.2663	181.641	80.8488	181.641	81.1737	181.641	80.7422	181.641	81.1275	181.641	80.7026	181.641	81.1223	181.641	80.7263	181.641	81.1468	181.641	80.7996	181.641	81.1851	181.641	80.9025	181.641	81.221	181.641	81.0135	181.641	81.2398	181.641	81.1134	181.641	81.2307	181.641	81.1883
190.43	82.703	190.43	82.7218	190.43	82.629	190.43	82.6845	190.43	82.5032	190.43	82.5922	190.43	82.3318	190.43	82.448	190.43	82.1241	190.43	82.2573	190.43	81.8933	190.43	82.0284	190.43	81.6564	190.43	81.7729	190.43	81.4326	190.43	81.5069	190.43	81.2415	190.43	81.2502	190.43	81.0994	190.43	81.0254	190.43	81.0157	190.43	80.854	190.43	80.9897	190.43	80.7519	190.43	81.0115	190.43	80.7238	190.43	81.0637	190.43	80.7617	190.43	81.1256	190.43	80.8467	190.43	81.1774	190.43	80.9542	190.43	81.2033	190.43	81.0597	190.43	81.193	190.43	81.1435
196.289	82.8908	196.289	82.9349	196.289	82.7903	196.289	82.9216	196.289	82.637	196.289	82.8522	196.289	82.438	196.289	82.7299	196.289	82.2042	196.289	82.5597	196.289	81.9514	196.289	82.3492	196.289	81.6994	196.289	82.1089	196.289	81.4706	196.289	81.853	196.289	81.2869	196.289	81.5997	196.289	81.1648	196.289	81.3702	196.289	81.1111	196.289	81.1865	196.289	81.1209	196.289	81.0665	196.289	81.1787	196.289	81.0187	196.289	81.2626	196.289	81.0389	196.289	81.3491	196.289	81.1112	196.289	81.4177	196.289	81.2115	196.289	81.4529	196.289	81.3144	196.289	81.4465	196.289	81.3978
202.148	83.0763	202.148	83.1328	202.148	82.957	202.148	83.1282	202.148	82.7753	202.148	83.0665	202.148	82.5357	202.148	82.953	202.148	82.2472	202.148	82.7946	202.148	81.9249	202.148	82.6001	202.148	81.5913	202.148	82.38	202.148	81.2754	202.148	82.1473	202.148	81.01	202.148	81.9177	202.148	80.825	202.148	81.7086	202.148	80.7389	202.148	81.5372	202.148	80.7522	202.148	81.4174	202.148	80.8466	202.148	81.3555	202.148	80.9917	202.148	81.3479	202.148	81.1535	202.148	81.3805	202.148	81.3021	202.148	81.4323	202.148	81.4158	202.148	81.4798	202.148	81.4829	202.148	81.5018
210.938	83.3231	210.938	83.3336	210.938	83.25	210.938	83.2844	210.938	83.1136	210.938	83.1797	210.938	82.9163	210.938	83.0255	210.938	82.6644	210.938	82.8294	210.938	82.3694	210.938	82.6005	210.938	82.0493	210.938	82.3507	210.938	81.7288	210.938	82.0944	210.938	81.4375	210.938	81.8491	210.938	81.2053	210.938	81.6338	210.938	81.0559	210.938	81.4664	210.938	80.9985	210.938	81.3596	210.938	81.0253	210.938	81.3166	210.938	81.1135	210.938	81.3294	210.938	81.233	210.938	81.38	210.938	81.3538	210.938	81.4447	210.938	81.4517	210.938	81.4998	210.938	81.5111	210.938	81.526
216.797	83.4864	216.797	83.4978	216.797	83.4098	216.797	83.4467	216.797	83.2678	216.797	83.3377	216.797	83.0634	216.797	83.1773	216.797	82.8039	216.797	82.9739	216.797	82.5023	216.797	82.7379	216.797	82.1782	216.797	82.4827	216.797	81.8583	216.797	82.2244	216.797	81.5742	216.797	81.9819	216.797	81.3572	216.797	81.7753	216.797	81.2304	216.797	81.6231	216.797	81.2009	216.797	81.537	216.797	81.2573	216.797	81.5186	216.797	81.3732	216.797	81.5573	216.797	81.5154	216.797	81.6327	216.797	81.6522	216.797	81.7191	216.797	81.7588	216.797	81.7914	216.797	81.8197	216.797	81.8292
225.586	84.0581	225.586	84.0874	225.586	83.9516	225.586	84.0429	225.586	83.7664	225.586	83.9299	225.586	83.5045	225.586	83.7552	225.586	83.1725	225.586	83.5275	225.586	82.7839	225.586	83.258	225.586	82.3616	225.586	82.9612	225.586	81.9399	225.586	82.6557	225.586	81.5631	225.586	82.3647	225.586	81.2789	225.586	82.1142	225.586	81.1246	225.586	81.9286	225.586	81.1129	225.586	81.8249	225.586	81.2253	225.586	81.8055	225.586	81.4199	225.586	81.8564	225.586	81.6465	225.586	81.9504	225.586	81.8604	225.586	82.0537	225.586	82.0287	225.586	82.1341	225.586	82.1326	225.586	82.1659
234.375	84.61	234.375	84.6028	234.375	84.5417	234.375	84.5257	234.375	84.3939	234.375	84.3854	234.375	84.1648	234.375	84.1898	234.375	83.8562	234.375	83.9479	234.375	83.4753	234.375	83.6705	234.375	83.0371	234.375	83.3704	234.375	82.5675	234.375	83.0636	234.375	82.1057	234.375	82.7698	234.375	81.7021	234.375	82.5113	234.375	81.4097	234.375	82.3102	234.375	81.2667	234.375	82.1825	234.375	81.2795	234.375	82.1323	234.375	81.4189	234.375	82.1483	234.375	81.6326	234.375	82.2049	234.375	81.8648	234.375	82.2693	234.375	82.0697	234.375	82.3087	234.375	82.218	234.375	82.2968
240.234	84.6698	240.234	84.6327	240.234	84.6318	240.234	84.526	240.234	84.5147	240.234	84.3566	240.234	84.3167	240.234	84.1326	240.234	84.039	240.234	83.8641	240.234	83.688	240.234	83.5631	240.234	83.277	240.234	83.2449	240.234	82.8295	240.234	82.9285	240.234	82.3811	240.234	82.6368	240.234	81.9789	240.234	82.3943	240.234	81.6737	240.234	82.2229	240.234	81.5054	240.234	82.1355	240.234	81.4864	240.234	82.1301	240.234	81.5951	240.234	82.1882	240.234	81.7848	240.234	82.2792	240.234	82.0014	240.234	82.3676	240.234	82.198	240.234	82.4215	240.234	82.342	240.234	82.417
249.023	85.1404	249.023	85.0804	249.023	85.1163	249.023	84.9405	249.023	85.005	249.023	84.7262	249.023	84.805	249.023	84.4442	249.023	84.5174	249.023	84.1029	249.023	84.1473	249.023	83.7141	249.023	83.7061	249.023	83.2939	249.023	83.2136	249.023	82.865	249.023	82.7016	249.023	82.4575	249.023	82.2143	249.023	82.1072	249.023	81.8046	249.023	81.8491	249.023	81.5216	249.023	81.7064	249.023	81.3925	249.023	81.6798	249.023	81.4099	249.023	81.7447	249.023	81.5341	249.023	81.8588	249.023	81.7093	249.023	81.9752	249.023	81.8813	249.023	82.0541	249.023	82.0091	249.023	82.0689
257.813	85.4585	257.813	85.3974	257.813	85.4433	257.813	85.2634	257.813	85.3494	257.813	85.0605	257.813	85.176	257.813	84.794	257.813	84.9249	257.813	84.4704	257.813	84.6019	257.813	84.0989	257.813	84.2187	257.813	83.6935	257.813	83.7947	257.813	83.2747	257.813	83.3589	257.813	82.8719	257.813	82.9489	257.813	82.5222	257.813	82.6065	257.813	82.2645	257.813	82.368	257.813	82.1272	257.813	82.2519	257.813	82.1152	257.813	82.2512	257.813	82.2043	257.813	82.335	257.813	82.3501	257.813	82.4594	257.813	82.5025	257.813	82.5795	257.813	82.6197	257.813	82.659	257.813	82.6749
266.602	85.2798	266.602	85.1708	266.602	85.3076	266.602	84.9847	266.602	85.2505	266.602	84.7263	266.602	85.1058	266.602	84.4013	266.602	84.8721	266.602	84.0172	266.602	84.5516	266.602	83.5839	266.602	84.1522	266.602	83.1155	266.602	83.6908	266.602	82.6328	266.602	83.1964	266.602	82.1654	266.602	82.7119	266.602	81.7537	266.602	82.2903	266.602	81.4437	266.602	81.9825	266.602	81.2748	266.602	81.8185	266.602	81.261	266.602	81.7934	266.602	81.3805	266.602	81.8679	266.602	81.5819	266.602	81.9853	266.602	81.8031	266.602	82.0898	266.602	81.9902	266.602	82.1386	266.602	82.1072
278.32	85.4046	278.32	85.3971	278.32	85.3287	278.32	85.3003	278.32	85.1771	278.32	85.1099	278.32	84.9596	278.32	84.8237	278.32	84.6877	278.32	84.4422	278.32	84.3755	278.32	83.9707	278.32	84.0387	278.32	83.4223	278.32	83.6947	278.32	82.823	278.32	83.3621	278.32	82.2173	278.32	83.0596	278.32	81.6709	278.32	82.8048	278.32	81.2626	278.32	82.6119	278.32	81.0575	278.32	82.4877	278.32	81.072	278.32	82.4285	278.32	81.2624	278.32	82.4184	278.32	81.5482	278.32	82.4309	278.32	81.8488	278.32	82.4338	278.32	82.1061	278.32	82.3952	278.32	82.2902
287.109	85.4753	287.109	85.5441	287.109	85.3116	287.109	85.5165	287.109	85.0561	287.109	85.3911	287.109	84.7153	287.109	85.1656	287.109	84.3026	287.109	84.8375	287.109	83.8402	287.109	84.4046	287.109	83.3625	287.109	83.869	287.109	82.9144	287.109	83.2425	287.109	82.5451	287.109	82.5564	287.109	82.2952	287.109	81.8724	287.109	82.1813	287.109	81.2881	287.109	82.1899	287.109	80.9159	287.109	82.2834	287.109	80.8281	287.109	82.4152	287.109	81.0057	287.109	82.5411	287.109	81.3511	287.109	82.625	287.109	81.7486	287.109	82.6396	287.109	82.1108	287.109	82.565	287.109	82.389
295.898	85.7242	295.898	85.7636	295.898	85.5871	295.898	85.7131	295.898	85.3437	295.898	85.5773	295.898	84.9857	295.898	85.3569	295.898	84.5085	295.898	85.0485	295.898	83.9158	295.898	84.6453	295.898	83.2266	295.898	84.1389	295.898	82.4862	295.898	83.5243	295.898	81.7762	295.898	82.8075	295.898	81.2109	295.898	82.0185	295.898	80.9001	295.898	81.2282	295.898	80.8826	295.898	80.5585	295.898	81.0958	295.898	80.1556	295.898	81.4167	295.898	80.1083	295.898	81.7258	295.898	80.3751	295.898	81.9399	295.898	80.8158	295.898	82.0115	295.898	81.2821	295.898	81.9209	295.898	81.6696
307.617	84.9731	307.617	84.9432	307.617	84.9327	307.617	84.8504	307.617	84.8138	307.617	84.7011	307.617	84.6085	307.617	84.499	307.617	84.3102	307.617	84.2449	307.617	83.9155	307.617	83.936	307.617	83.4269	307.617	83.5673	307.617	82.8573	307.617	83.1341	307.617	82.2359	307.617	82.6376	307.617	81.615	307.617	82.0921	307.617	81.0699	307.617	81.534	307.617	80.683	307.617	81.026	307.617	80.5076	307.617	80.6472	307.617	80.5333	307.617	80.4606	307.617	80.6888	307.617	80.4734	307.617	80.8786	307.617	80.6273	307.617	81.0206	307.617	80.8293	307.617	81.0641	307.617	80.9936
319.336	84.6904	319.336	84.6808	319.336	84.6114	319.336	84.5907	319.336	84.4359	319.336	84.4282	319.336	84.1577	319.336	84.2008	319.336	83.7722	319.336	83.9138	319.336	83.2794	319.336	83.5702	319.336	82.6863	319.336	83.1711	319.336	82.014	319.336	82.7185	319.336	81.3054	319.336	82.2212	319.336	80.6338	319.336	81.7023	319.336	80.0996	319.336	81.2065	319.336	79.7996	319.336	80.7988	319.336	79.7746	319.336	80.546	319.336	79.9781	319.336	80.4819	319.336	80.304	319.336	80.5809	319.336	80.6409	319.336	80.7676	319.336	80.9056	319.336	80.9522	319.336	81.0508	319.336	81.0614
331.055	84.624	331.055	84.5909	331.055	84.5742	331.055	84.4798	331.055	84.4372	331.055	84.2954	331.055	84.2094	331.055	84.0419	331.055	83.8886	331.055	83.7213	331.055	83.4751	331.055	83.3329	331.055	82.9737	331.055	82.8739	331.055	82.3974	331.055	82.342	331.055	81.7724	331.055	81.7424	331.055	81.1437	331.055	81.098	331.055	80.5764	331.055	80.4618	331.055	80.1462	331.055	79.922	331.055	79.9107	331.055	79.5798	331.055	79.8768	331.055	79.4941	331.055	79.9927	331.055	79.6335	331.055	80.1714	331.055	79.893	331.055	80.3261	331.055	80.1551	331.055	80.392	331.055	80.3349
342.773	84.351	342.773	84.3365	342.773	84.2613	342.773	84.2242	342.773	84.0625	342.773	84.0219	342.773	83.7523	342.773	83.7376	342.773	83.3319	342.773	83.3796	342.773	82.809	342.773	82.9552	342.773	82.2016	342.773	82.4704	342.773	81.5434	342.773	81.9318	342.773	80.8895	342.773	81.3515	342.773	80.3172	342.773	80.7561	342.773	79.9124	342.773	80.1978	342.773	79.7357	342.773	79.7564	342.773	79.7877	342.773	79.5182	342.773	80.0047	342.773	79.5274	342.773	80.2906	342.773	79.7477	342.773	80.5533	342.773	80.0789	342.773	80.7244	342.773	80.4089	342.773	80.7623	342.773	80.6525
354.492	84.8519	354.492	84.8588	354.492	84.741	354.492	84.7674	354.492	84.5193	354.492	84.5823	354.492	84.1803	354.492	84.3062	354.492	83.7188	354.492	83.9389	354.492	83.133	354.492	83.4771	354.492	82.4283	354.492	82.9149	354.492	81.6245	354.492	82.2461	354.492	80.7661	354.492	81.4715	354.492	79.9356	354.492	80.6128	354.492	79.2552	354.492	79.7348	354.492	78.8529	354.492	78.9667	354.492	78.7874	354.492	78.4831	354.492	78.9992	354.492	78.4029	354.492	79.3491	354.492	78.6784	354.492	79.6949	354.492	79.1289	354.492	79.9332	354.492	79.5688	354.492	80.0029	354.492	79.8784
366.211	85.0387	366.211	85.0705	366.211	84.9054	366.211	85.0113	366.211	84.6595	366.211	84.8701	366.211	84.2908	366.211	84.6525	366.211	83.7908	366.211	84.3589	366.211	83.155	366.211	83.9836	366.211	82.3862	366.211	83.5149	366.211	81.5022	366.211	82.9379	366.211	80.548	366.211	82.2399	366.211	79.6125	366.211	81.4211	366.211	78.8334	366.211	80.5112	366.211	78.3576	366.211	79.5932	366.211	78.2508	366.211	78.8177	366.211	78.4404	366.211	78.3601	366.211	78.7688	366.211	78.2988	366.211	79.0853	366.211	78.5376	366.211	79.2879	366.211	78.8853	366.211	79.3228	366.211	79.1779
377.93	85.1555	377.93	85.1195	377.93	85.1014	377.93	85.0092	377.93	84.9405	377.93	84.8387	377.93	84.6555	377.93	84.6184	377.93	84.229	377.93	84.3517	377.93	83.6438	377.93	84.0327	377.93	82.8857	377.93	83.646	377.93	81.9504	377.93	83.1702	377.93	80.8599	377.93	82.5851	377.93	79.6954	377.93	81.8837	377.93	78.6441	377.93	81.0897	377.93	77.9913	377.93	80.2811	377.93	77.9375	377.93	79.6025	377.93	78.3806	377.93	79.2216	377.93	79.0214	377.93	79.2115	377.93	79.6069	377.93	79.4754	377.93	80.0034	377.93	79.823	377.93	80.1621	377.93	80.0862
392.578	84.4259	392.578	84.3461	392.578	84.4257	392.578	84.1978	392.578	84.334	392.578	83.9934	392.578	84.1383	392.578	83.746	392.578	83.8237	392.578	83.4666	392.578	83.3733	392.578	83.1593	392.578	82.7679	392.578	82.8171	392.578	81.9887	392.578	82.4208	392.578	81.0236	392.578	81.9439	392.578	79.8827	392.578	81.3624	392.578	78.6348	392.578	80.6713	392.578	77.4655	392.578	79.905	392.578	76.6931	392.578	79.1581	392.578	76.5687	392.578	78.5779	392.578	76.9893	392.578	78.2896	392.578	77.6075	392.578	78.2884	392.578	78.1392	392.578	78.4291	392.578	78.4527	392.578	78.5288
407.227	84.3474	407.227	84.1676	407.227	84.4203	407.227	83.8863	407.227	84.3839	407.227	83.5138	407.227	84.2361	407.227	83.0671	407.227	83.9746	407.227	82.569	407.227	83.5941	407.227	82.0435	407.227	83.086	407.227	81.5079	407.227	82.437	407.227	80.965	407.227	81.6303	407.227	80.4041	407.227	80.6521	407.227	79.8118	407.227	79.5071	407.227	79.1939	407.227	78.255	407.227	78.598	407.227	77.072	407.227	78.1181	407.227	76.2755	407.227	77.8538	407.227	76.1334	407.227	77.8281	407.227	76.5518	407.227	77.9455	407.227	77.1711	407.227	78.0462	407.227	77.694	407.227	77.9884
421.875	84.406	421.875	84.3164	421.875	84.3917	421.875	84.1233	421.875	84.2778	421.875	83.8341	421.875	84.0722	421.875	83.4635	421.875	83.784	421.875	83.0312	421.875	83.4211	421.875	82.5566	421.875	82.987	421.875	82.049	421.875	82.4772	421.875	81.4992	421.875	81.8784	421.875	80.8785	421.875	81.17	421.875	80.1463	421.875	80.3314	421.875	79.2693	421.875	79.3562	421.875	78.2502	421.875	78.2757	421.875	77.1668	421.875	77.1905	421.875	76.2025	421.875	76.2813	421.875	75.5838	421.875	75.7259	421.875	75.3868	421.875	75.5378	421.875	75.4462	421.875	75.5396	421.875	75.5323
436.523	85.2917	436.523	85.2511	436.523	85.172	436.523	85.056	436.523	84.888	436.523	84.7144	436.523	84.4395	436.523	84.2404	436.523	83.8356	436.523	83.6585	436.523	83.1024	436.523	83.0066	436.523	82.2915	436.523	82.3339	436.523	81.4848	436.523	81.6897	436.523	80.7821	436.523	81.1059	436.523	80.262	436.523	80.5854	436.523	79.9369	436.523	80.1074	436.523	79.7472	436.523	79.6503	436.523	79.6053	436.523	79.2141	436.523	79.445	436.523	78.8283	436.523	79.2415	436.523	78.5383	436.523	79.0066	436.523	78.3764	436.523	78.7709	436.523	78.3433	436.523	78.5657	436.523	78.4156
451.172	86.2746	451.172	86.1845	451.172	86.2309	451.172	85.9629	451.172	86.0488	451.172	85.6111	451.172	85.7205	451.172	85.1319	451.172	85.2364	451.172	84.5319	451.172	84.5872	451.172	83.8225	451.172	83.7674	451.172	83.0193	451.172	82.7816	451.172	82.1424	451.172	81.6554	451.172	81.2171	451.172	80.453	451.172	80.2793	451.172	79.2979	451.172	79.3865	451.172	78.3673	451.172	78.626	451.172	77.8198	451.172	78.1021	451.172	77.6825	451.172	77.8814	451.172	77.8332	451.172	77.9331	451.172	78.0996	451.172	78.1379	451.172	78.345	451.172	78.3574	451.172	78.4874	451.172	78.4903
465.82	85.8456	465.82	85.775	465.82	85.7726	465.82	85.5593	465.82	85.5577	465.82	85.198	465.82	85.2029	465.82	84.694	465.82	84.7134	465.82	84.0573	465.82	84.1008	465.82	83.3079	465.82	83.3884	465.82	82.4796	465.82	82.615	465.82	81.6214	465.82	81.8375	465.82	80.7958	465.82	81.124	465.82	80.0691	465.82	80.5353	465.82	79.4957	465.82	80.101	465.82	79.1025	465.82	79.8084	465.82	78.8834	465.82	79.6164	465.82	78.8068	465.82	79.481	465.82	78.8277	465.82	79.3717	465.82	78.9018	465.82	79.274	465.82	78.9952	465.82	79.1817	465.82	79.0898
483.398	87.1096	483.398	87.1432	483.398	86.9401	483.398	87.0387	483.398	86.6301	483.398	86.7888	483.398	86.1688	483.398	86.3821	483.398	85.5404	483.398	85.8046	483.398	84.7279	483.398	85.0384	483.398	83.7208	483.398	84.0628	483.398	82.5309	483.398	82.8565	483.398	81.2279	483.398	81.411	483.398	79.9994	483.398	79.7677	483.398	79.1708	483.398	78.1106	483.398	79.0111	483.398	76.8925	483.398	79.4338	483.398	76.6547	483.398	80.0978	483.398	77.3636	483.398	80.7174	483.398	78.4609	483.398	81.1495	483.398	79.5175	483.398	81.3405	483.398	80.3621	483.398	81.2752	483.398	80.9498
500.977	86.4204	500.977	86.4061	500.977	86.3538	500.977	86.3147	500.977	86.1964	500.977	86.1428	500.977	85.931	500.977	85.8799	500.977	85.5334	500.977	85.5067	500.977	84.9735	500.977	84.9947	500.977	84.2172	500.977	84.3075	500.977	83.2328	500.977	83.4034	500.977	82.0074	500.977	82.2417	500.977	80.5958	500.977	80.8001	500.977	79.2286	500.977	79.1342	500.977	78.4029	500.977	77.5465	500.977	78.5421	500.977	76.761	500.977	79.4081	500.977	77.2982	500.977	80.4324	500.977	78.6128	500.977	81.26	500.977	79.9507	500.977	81.7574	500.977	80.9831	500.977	81.885	500.977	81.6297
518.555	85.8182	518.555	85.8327	518.555	85.7382	518.555	85.7775	518.555	85.5946	518.555	85.6479	518.555	85.3833	518.555	85.4378	518.555	85.0905	518.555	85.1368	518.555	84.6918	518.555	84.7269	518.555	84.1539	518.555	84.1793	518.555	83.4406	518.555	83.4546	518.555	82.5226	518.555	82.5045	518.555	81.399	518.555	81.2801	518.555	80.1413	518.555	79.7605	518.555	78.9676	518.555	78.0455	518.555	78.2602	518.555	76.5803	518.555	78.2946	518.555	76.1848	518.555	78.8902	518.555	77.0332	518.555	79.6157	518.555	78.3217	518.555	80.1507	518.555	79.4156	518.555	80.3355	518.555	80.0989
536.133	86.0426	536.133	86.0296	536.133	85.9493	536.133	85.9301	536.133	85.7309	536.133	85.7614	536.133	85.3687	536.133	85.5321	536.133	84.8432	536.133	85.2351	536.133	84.1332	536.133	84.8433	536.133	83.2198	536.133	84.3095	536.133	82.0964	536.133	83.5692	536.133	80.7894	536.133	82.5438	536.133	79.3994	536.133	81.1441	536.133	78.1638	536.133	79.2857	536.133	77.4586	536.133	76.9882	536.133	77.5404	536.133	74.8272	536.133	78.2387	536.133	74.4423	536.133	79.1428	536.133	76.0429	536.133	79.9315	536.133	77.93	536.133	80.4289	536.133	79.3449	536.133	80.54	536.133	80.1989
553.711	86.268	553.711	86.1995	553.711	86.2869	553.711	86.1011	553.711	86.2353	553.711	85.9888	553.711	86.0879	553.711	85.8672	553.711	85.8096	553.711	85.7227	553.711	85.3515	553.711	85.5222	553.711	84.6508	553.711	85.2187	553.711	83.633	553.711	84.7579	553.711	82.2172	553.711	84.0825	553.711	80.335	553.711	83.132	553.711	78.0234	553.711	81.8396	553.711	75.7916	553.711	80.1391	553.711	74.9993	553.711	78.0241	553.711	75.9895	553.711	75.8038	553.711	77.3711	553.711	74.587	553.711	78.349	553.711	75.2423	553.711	78.767	553.711	76.6999	553.711	78.6225	553.711	77.9216
574.219	85.4529	574.219	85.1639	574.219	85.667	574.219	84.828	574.219	85.8011	574.219	84.5006	574.219	85.8587	574.219	84.2502	574.219	85.8333	574.219	84.1234	574.219	85.6946	574.219	84.1084	574.219	85.3852	574.219	84.13	574.219	84.8248	574.219	84.0812	574.219	83.9157	574.219	83.863	574.219	82.546	574.219	83.408	574.219	80.6026	574.219	82.6944	574.219	78.0901	574.219	81.7671	574.219	75.7782	574.219	80.7783	574.219	75.7645	574.219	80.0158	574.219	77.669	574.219	79.7774	574.219	79.4649	574.219	80.0778	574.219	80.5899	574.219	80.6097	574.219	81.0686	574.219	81.0214
594.727	85.9274	594.727	85.7783	594.727	85.9715	594.727	85.5213	594.727	85.9251	594.727	85.1685	594.727	85.8085	594.727	84.7441	594.727	85.6391	594.727	84.2748	594.727	85.4201	594.727	83.7713	594.727	85.1288	594.727	83.2121	594.727	84.7098	594.727	82.5431	594.727	84.0753	594.727	81.6949	594.727	83.1093	594.727	80.6111	594.727	81.6738	594.727	79.2966	594.727	79.6374	594.727	77.9295	594.727	77.0808	594.727	77.0228	594.727	75.2205	594.727	77.1741	594.727	76.0722	594.727	78.2223	594.727	78.1737	594.727	79.458	594.727	79.8052	594.727	80.4006	594.727	80.6748	594.727	80.8424
615.234	86.6109	615.234	86.4754	615.234	86.6061	615.234	86.2082	615.234	86.4645	615.234	85.8331	615.234	86.1971	615.234	85.3889	615.234	85.8163	615.234	84.9185	615.234	85.3292	615.234	84.4483	615.234	84.7318	615.234	83.9647	615.234	84.0041	615.234	83.4065	615.234	83.1101	615.234	82.6741	615.234	82	615.234	81.6449	615.234	80.626	615.234	80.1889	615.234	79.0041	615.234	78.2154	615.234	77.405	615.234	75.9383	615.234	76.5954	615.234	74.6701	615.234	77.1553	615.234	75.7605	615.234	78.4242	615.234	77.7221	615.234	79.5321	615.234	79.2304	615.234	80.1037	615.234	80.0207
638.672	86.7348	638.672	86.5255	638.672	86.815	638.672	86.1849	638.672	86.7868	638.672	85.7426	638.672	86.6741	638.672	85.2629	638.672	86.4909	638.672	84.8233	638.672	86.2299	638.672	84.4693	638.672	85.856	638.672	84.1733	638.672	85.3036	638.672	83.8358	638.672	84.4804	638.672	83.3252	638.672	83.2698	638.672	82.5152	638.672	81.5245	638.672	81.2962	638.672	79.0539	638.672	79.5826	638.672	75.733	638.672	77.4099	638.672	72.7338	638.672	75.3875	638.672	73.6694	638.672	75.0689	638.672	76.3156	638.672	76.4854	638.672	78.1302	638.672	78.0011	638.672	78.9439	638.672	78.8738
659.18	86.3728	659.18	86.2188	659.18	86.3426	659.18	85.8831	659.18	86.1577	659.18	85.4056	659.18	85.8689	659.18	84.8596	659.18	85.5323	659.18	84.3355	659.18	85.1916	659.18	83.9055	659.18	84.8618	659.18	83.58	659.18	84.5161	659.18	83.2879	659.18	84.0774	659.18	82.8971	659.18	83.4208	659.18	82.2493	659.18	82.3824	659.18	81.1779	659.18	80.7747	659.18	79.5249	659.18	78.4757	659.18	77.2875	659.18	76.0089	659.18	75.3549	659.18	75.671	659.18	75.7998	659.18	77.643	659.18	77.8433	659.18	79.4708	659.18	79.5496	659.18	80.4046	659.18	80.4203
682.617	87.19	682.617	87.0239	682.617	87.1195	682.617	86.6252	682.617	86.8451	682.617	86.0347	682.617	86.426	682.617	85.3204	682.617	85.931	682.617	84.5597	682.617	85.4208	682.617	83.821	682.617	84.9317	682.617	83.1518	682.617	84.4532	682.617	82.5647	682.617	83.9093	682.617	82.012	682.617	83.1662	682.617	81.3651	682.617	82.0677	682.617	80.4224	682.617	80.4806	682.617	78.9489	682.617	78.4171	682.617	76.8013	682.617	76.5298	682.617	74.6403	682.617	76.4732	682.617	74.9736	682.617	78.1387	682.617	77.4163	682.617	79.77	682.617	79.4781	682.617	80.6264	682.617	80.5487
706.055	87.0184	706.055	86.7903	706.055	87.0421	706.055	86.3699	706.055	86.883	706.055	85.8083	706.055	86.5783	706.055	85.1906	706.055	86.1594	706.055	84.6232	706.055	85.6431	706.055	84.1997	706.055	85.0423	706.055	83.9336	706.055	84.3772	706.055	83.7143	706.055	83.6537	706.055	83.3538	706.055	82.8024	706.055	82.6649	706.055	81.6297	706.055	81.4862	706.055	79.8148	706.055	79.6446	706.055	76.9246	706.055	76.9044	706.055	72.8579	706.055	73.2361	706.055	71.8991	706.055	71.5236	706.055	75.4001	706.055	74.417	706.055	77.8881	706.055	77.1874	706.055	78.904	706.055	78.6602
732.422	86.3949	732.422	86.2519	732.422	86.3232	732.422	85.8891	732.422	86.0773	732.422	85.3458	732.422	85.7149	732.422	84.7016	732.422	85.2906	732.422	84.0604	732.422	84.8425	732.422	83.5218	732.422	84.3862	732.422	83.1398	732.422	83.9077	732.422	82.8833	732.422	83.354	732.422	82.6334	732.422	82.6322	732.422	82.2183	732.422	81.618	732.422	81.4432	732.422	80.1554	732.422	80.0851	732.422	78.0552	732.422	77.865	732.422	75.3216	732.422	74.6013	732.422	73.6308	732.422	72.2225	732.422	75.3828	732.422	74.542	732.422	77.7553	732.422	77.4035	732.422	78.9857	732.422	78.8851
758.789	87.3425	758.789	87.1192	758.789	87.3098	758.789	86.6932	758.789	87.0154	758.789	86.1364	758.789	86.5115	758.789	85.4905	758.789	85.9005	758.789	84.7357	758.789	85.293	758.789	83.8398	758.789	84.736	758.789	82.8865	758.789	84.1895	758.789	82.1238	758.789	83.5798	758.789	81.6846	758.789	82.8194	758.789	81.2956	758.789	81.7432	758.789	80.5204	758.789	80.0553	758.789	79.0418	758.789	77.3848	758.789	76.5974	758.789	74.0442	758.789	72.865	758.789	74.0378	758.789	69.8381	758.789	77.0666	758.789	73.3465	758.789	79.1365	758.789	77.1026	758.789	79.8158	758.789	79.1741
785.156	86.3218	785.156	86.2303	785.156	86.2921	785.156	86.0511	785.156	86.1183	785.156	85.797	785.156	85.8072	785.156	85.4472	785.156	85.3899	785.156	84.9734	785.156	84.8969	785.156	84.3688	785.156	84.3295	785.156	83.6335	785.156	83.6641	785.156	82.7606	785.156	82.9203	785.156	81.7837	785.156	82.1871	785.156	80.8004	785.156	81.4387	785.156	79.8239	785.156	80.308	785.156	78.5982	785.156	78.0781	785.156	76.6898	785.156	73.4476	785.156	73.7493	785.156	63.2028	785.156	70.1331	785.156	69.471	785.156	69.3622	785.156	74.0058	785.156	72.1257	785.156	75.1432	785.156	74.372
811.523	85.6948	811.523	85.6067	811.523	85.7703	811.523	85.5283	811.523	85.7837	811.523	85.4489	811.523	85.6728	811.523	85.3439	811.523	85.3883	811.523	85.2124	811.523	84.9375	811.523	85.0748	811.523	84.3981	811.523	84.8949	811.523	83.8245	811.523	84.5204	811.523	83.1368	811.523	83.7547	811.523	82.1949	811.523	82.4909	811.523	80.9764	811.523	80.7761	811.523	79.5742	811.523	78.651	811.523	77.8642	811.523	75.7365	811.523	75.1969	811.523	70.8412	811.523	70.5767	811.523	62.0632	811.523	67.2794	811.523	67.7567	811.523	71.4326	811.523	72.5107	811.523	73.9403	811.523	74.2457
840.82	85.4051	840.82	85.3937	840.82	85.2115	840.82	85.1816	840.82	84.8773	840.82	84.8308	840.82	84.523	840.82	84.4478	840.82	84.2789	840.82	84.1908	840.82	84.2131	840.82	84.2385	840.82	84.2956	840.82	84.6095	840.82	84.419	840.82	85.0285	840.82	84.4296	840.82	85.1168	840.82	84.1616	840.82	84.6237	840.82	83.4631	840.82	83.4781	840.82	82.175	840.82	81.7631	840.82	80.0555	840.82	79.6433	840.82	76.7118	840.82	77.1754	840.82	71.9514	840.82	74.2028	840.82	69.6088	840.82	71.181	840.82	71.8537	840.82	70.7712	840.82	72.9912	840.82	72.3584
870.117	86.1481	870.117	86.0573	870.117	85.9904	870.117	85.7301	870.117	85.5764	870.117	85.1628	870.117	84.9175	870.117	84.3354	870.117	84.0345	870.117	83.2487	870.117	82.9527	870.117	82.0448	870.117	81.8067	870.117	81.2095	870.117	81.0096	870.117	81.2814	870.117	80.9259	870.117	81.9137	870.117	81.2247	870.117	82.2592	870.117	81.3332	870.117	81.7973	870.117	80.9805	870.117	80.2792	870.117	80.0304	870.117	77.5152	870.117	78.2498	870.117	73.641	870.117	75.6551	870.117	71.9044	870.117	74.5991	870.117	74.6824	870.117	76.6987	870.117	77.2986	870.117	78.4019	870.117	78.5811
902.344	85.6567	902.344	85.6008	902.344	85.5559	902.344	85.3661	902.344	85.2694	902.344	84.8994	902.344	84.7526	902.344	84.1647	902.344	84.0331	902.344	83.2115	902.344	83.2855	902.344	82.2265	902.344	82.747	902.344	81.4777	902.344	82.4532	902.344	81.175	902.344	82.1792	902.344	81.3326	902.344	81.6891	902.344	81.6305	902.344	80.8803	902.344	81.5359	902.344	79.6692	902.344	80.569	902.344	77.7652	902.344	78.3421	902.344	74.5941	902.344	74.4028	902.344	70.4958	902.344	68.2133	902.344	71.2443	902.344	66.3109	902.344	73.9772	902.344	71.0261	902.344	74.8069	902.344	73.82
931.641	85.9783	931.641	85.9135	931.641	85.7921	931.641	85.6632	931.641	85.2968	931.641	85.233	931.641	84.4765	931.641	84.543	931.641	83.3534	931.641	83.4925	931.641	81.9971	931.641	82.0219	931.641	80.6387	931.641	80.1126	931.641	79.8528	931.641	78.0862	931.641	80.0889	931.641	77.398	931.641	80.7778	931.641	78.6283	931.641	81.096	931.641	79.8547	931.641	80.6744	931.641	79.8305	931.641	79.32	931.641	78.004	931.641	76.6951	931.641	73.7257	931.641	72.5839	931.641	67.6149	931.641	71.8026	931.641	71.45	931.641	75.4808	931.641	75.5585	931.641	77.4235	931.641	77.3952
966.797	84.7677	966.797	84.5905	966.797	84.743	966.797	84.3144	966.797	84.4734	966.797	83.9753	966.797	83.9815	966.797	83.4708	966.797	83.3112	966.797	82.7113	966.797	82.5355	966.797	81.8239	966.797	81.7193	966.797	81.0614	966.797	80.8306	966.797	80.4629	966.797	79.8991	966.797	79.9549	966.797	79.2599	966.797	79.6586	966.797	79.0582	966.797	79.528	966.797	78.6622	966.797	78.9437	966.797	77.1735	966.797	77.1627	966.797	73.733	966.797	73.5284	966.797	66.4787	966.797	66.2108	966.797	60.5964	966.797	56.0854	966.797	69.4842	966.797	68.6495	966.797	72.3044	966.797	72.0802
999.023	83.9692	999.023	84.0701	999.023	83.7324	999.023	83.9404	999.023	83.3917	999.023	83.4581	999.023	82.8765	999.023	82.5102	999.023	82.0063	999.023	81.0815	999.023	80.6668	999.023	79.5504	999.023	79.3357	999.023	78.8105	999.023	79.1353	999.023	79.0462	999.023	79.8781	999.023	79.5181	999.023	80.5581	999.023	79.9734	999.023	80.9611	999.023	80.4838	999.023	81.0621	999.023	80.6349	999.023	80.4837	999.023	79.63	999.023	78.627	999.023	76.6781	999.023	74.8361	999.023	70.5681	999.023	68.9792	999.023	62.1159	999.023	68.3078	999.023	68.4465	999.023	70.9348	999.023	71.1488
1,034.18	83.9597	1,034.18	83.8764	1,034.18	84.004	1,034.18	83.7271	1,034.18	83.9325	1,034.18	83.3269	1,034.18	83.6033	1,034.18	82.3658	1,034.18	82.8268	1,034.18	80.509	1,034.18	81.4129	1,034.18	77.5639	1,034.18	79.2116	1,034.18	73.9329	1,034.18	76.2956	1,034.18	71.4783	1,034.18	74.1724	1,034.18	71.7842	1,034.18	75.3952	1,034.18	74.089	1,034.18	77.6183	1,034.18	76.8127	1,034.18	78.7279	1,034.18	78.3097	1,034.18	78.3061	1,034.18	77.9196	1,034.18	76.3227	1,034.18	75.4981	1,034.18	72.7236	1,034.18	70.4215	1,034.18	68.9298	1,034.18	61.3999	1,034.18	71.3957	1,034.18	69.4575	1,034.18	73.9729	1,034.18	73.5947
1,072.27	83.2338	1,072.27	83.1197	1,072.27	83.3111	1,072.27	82.9898	1,072.27	83.294	1,072.27	82.7898	1,072.27	83.052	1,072.27	82.3375	1,072.27	82.3558	1,072.27	81.3762	1,072.27	80.9701	1,072.27	79.693	1,072.27	78.8597	1,072.27	77.2709	1,072.27	76.5131	1,072.27	74.6245	1,072.27	75.1377	1,072.27	73.2179	1,072.27	75.5525	1,072.27	73.8425	1,072.27	77.1246	1,072.27	75.2243	1,072.27	78.5344	1,072.27	76.0626	1,072.27	78.715	1,072.27	75.4738	1,072.27	77.0667	1,072.27	72.7771	1,072.27	73.2284	1,072.27	67.051	1,072.27	68.6813	1,072.27	64.8499	1,072.27	69.8432	1,072.27	70.0295	1,072.27	71.9881	1,072.27	72.1811
1,110.35	81.898	1,110.35	81.8716	1,110.35	82.1721	1,110.35	82.0953	1,110.35	82.4722	1,110.35	82.3275	1,110.35	82.5238	1,110.35	82.244	1,110.35	82.1146	1,110.35	81.5878	1,110.35	81.146	1,110.35	80.2854	1,110.35	79.6051	1,110.35	78.489	1,110.35	77.4364	1,110.35	76.5278	1,110.35	74.5931	1,110.35	75.1851	1,110.35	72.3031	1,110.35	75.1301	1,110.35	73.4679	1,110.35	75.808	1,110.35	75.5747	1,110.35	76.3886	1,110.35	75.9743	1,110.35	76.0306	1,110.35	73.903	1,110.35	74.1165	1,110.35	68.7248	1,110.35	69.5467	1,110.35	63.1082	1,110.35	53.332	1,110.35	67.4757	1,110.35	65.4587	1,110.35	70.326	1,110.35	70.1881
1,148.44	82.1514	1,148.44	82.1671	1,148.44	82.1677	1,148.44	82.159	1,148.44	82.2471	1,148.44	82.0848	1,148.44	82.3545	1,148.44	81.8668	1,148.44	82.295	1,148.44	81.3245	1,148.44	81.7487	1,148.44	80.328	1,148.44	80.5066	1,148.44	78.9003	1,148.44	78.6346	1,148.44	77.2528	1,148.44	76.2634	1,148.44	75.9383	1,148.44	73.0401	1,148.44	74.9527	1,148.44	70.3994	1,148.44	74.4761	1,148.44	73.403	1,148.44	75.3322	1,148.44	75.6002	1,148.44	75.6365	1,148.44	74.3977	1,148.44	73.5594	1,148.44	68.9895	1,148.44	66.9244	1,148.44	61.4825	1,148.44	55.1764	1,148.44	68.034	1,148.44	68.5444	1,148.44	70.9747	1,148.44	71.2631
1,189.45	82.7706	1,189.45	82.8707	1,189.45	82.4087	1,189.45	82.4935	1,189.45	82.0324	1,189.45	81.6125	1,189.45	81.7238	1,189.45	80.4635	1,189.45	81.3025	1,189.45	79.4455	1,189.45	80.4929	1,189.45	78.8318	1,189.45	79.1826	1,189.45	78.4347	1,189.45	77.6094	1,189.45	77.9687	1,189.45	76.1427	1,189.45	77.6325	1,189.45	74.5134	1,189.45	77.2268	1,189.45	72.9105	1,189.45	76.3336	1,189.45	72.9506	1,189.45	75.5235	1,189.45	73.5226	1,189.45	75.2619	1,189.45	72.6471	1,189.45	74.7775	1,189.45	69.8639	1,189.45	72.7646	1,189.45	63.9866	1,189.45	67.2392	1,189.45	54.0412	1,189.45	53.9352	1,189.45	63.6854	1,189.45	63.9894
1,230.47	83.093	1,230.47	83.0435	1,230.47	82.8776	1,230.47	82.5141	1,230.47	82.5358	1,230.47	81.4219	1,230.47	81.9918	1,230.47	80.0299	1,230.47	81.1554	1,230.47	78.9914	1,230.47	80.1429	1,230.47	78.5578	1,230.47	79.0652	1,230.47	77.9376	1,230.47	77.8918	1,230.47	76.5802	1,230.47	76.6343	1,230.47	75.9332	1,230.47	75.1522	1,230.47	76.4863	1,230.47	73.0873	1,230.47	76.4505	1,230.47	71.242	1,230.47	76.2419	1,230.47	71.2539	1,230.47	76.4431	1,230.47	70.942	1,230.47	75.7957	1,230.47	68.9301	1,230.47	73.0982	1,230.47	64.3713	1,230.47	66.6448	1,230.47	58.6529	1,230.47	55.1782	1,230.47	64.2436	1,230.47	64.5105
1,274.41	81.7209	1,274.41	82.2142	1,274.41	81.7472	1,274.41	82.7201	1,274.41	82.0107	1,274.41	82.5673	1,274.41	82.0316	1,274.41	81.7172	1,274.41	81.746	1,274.41	80.8929	1,274.41	81.2761	1,274.41	80.6072	1,274.41	80.2603	1,274.41	79.9531	1,274.41	78.0087	1,274.41	77.661	1,274.41	74.8694	1,274.41	73.7935	1,274.41	73.4587	1,274.41	72.3717	1,274.41	73.9119	1,274.41	73.7625	1,274.41	74.3803	1,274.41	74.9737	1,274.41	74.8302	1,274.41	75.7302	1,274.41	74.652	1,274.41	75.6336	1,274.41	73.3709	1,274.41	74.0072	1,274.41	71.2756	1,274.41	70.126	1,274.41	69.6761	1,274.41	66.1049	1,274.41	69.31	1,274.41	68.1159
1,318.36	82.2914	1,318.36	82.9679	1,318.36	81.6414	1,318.36	82.9631	1,318.36	81.5769	1,318.36	82.0599	1,318.36	81.8603	1,318.36	80.9443	1,318.36	82.0286	1,318.36	80.803	1,318.36	81.8239	1,318.36	81.3754	1,318.36	80.93	1,318.36	81.1749	1,318.36	79.148	1,318.36	79.39	1,318.36	76.7098	1,318.36	76.3028	1,318.36	74.0033	1,318.36	73.1174	1,318.36	71.7388	1,318.36	72.4927	1,318.36	72.4112	1,318.36	74.5999	1,318.36	73.5459	1,318.36	76.3591	1,318.36	72.5216	1,318.36	76.4996	1,318.36	70.244	1,318.36	74.2687	1,318.36	70.0561	1,318.36	69.4316	1,318.36	71.077	1,318.36	67.5737	1,318.36	71.6437	1,318.36	70.7585
1,365.23	83.0749	1,365.23	83.5617	1,365.23	82.1161	1,365.23	83.1124	1,365.23	81.4622	1,365.23	81.9462	1,365.23	81.358	1,365.23	80.9221	1,365.23	81.4186	1,365.23	80.2874	1,365.23	81.3667	1,365.23	79.514	1,365.23	80.8326	1,365.23	78.5963	1,365.23	79.228	1,365.23	77.1682	1,365.23	76.8173	1,365.23	75.4189	1,365.23	75.6386	1,365.23	74.2854	1,365.23	75.6189	1,365.23	73.0941	1,365.23	74.7403	1,365.23	73.4672	1,365.23	74.1507	1,365.23	76.6412	1,365.23	74.3451	1,365.23	78.0427	1,365.23	73.1453	1,365.23	75.8916	1,365.23	69.2783	1,365.23	68.9953	1,365.23	67.3386	1,365.23	54.7284	1,365.23	68.1556	1,365.23	65.8638
1,415.04	83.8223	1,415.04	83.9872	1,415.04	83.0759	1,415.04	83.3921	1,415.04	82.1727	1,415.04	82.584	1,415.04	81.6055	1,415.04	82.3974	1,415.04	81.513	1,415.04	82.3143	1,415.04	81.5409	1,415.04	81.4577	1,415.04	81.2802	1,415.04	80.1202	1,415.04	80.2506	1,415.04	78.5507	1,415.04	78.3337	1,415.04	75.9086	1,415.04	76.4415	1,415.04	71.8272	1,415.04	75.7066	1,415.04	67.0478	1,415.04	75.1937	1,415.04	64.7833	1,415.04	75.5466	1,415.04	73.6158	1,415.04	76.4422	1,415.04	76.7833	1,415.04	75.4881	1,415.04	75.4185	1,415.04	72.0623	1,415.04	70.3577	1,415.04	70.4665	1,415.04	66.0669	1,415.04	71.1609	1,415.04	69.6447
1,464.84	84.4598	1,464.84	84.4974	1,464.84	83.9776	1,464.84	84.0508	1,464.84	82.9899	1,464.84	83.4032	1,464.84	81.6883	1,464.84	82.9222	1,464.84	80.9854	1,464.84	82.4034	1,464.84	81.2015	1,464.84	81.1388	1,464.84	81.2786	1,464.84	79.0265	1,464.84	80.1858	1,464.84	77.2169	1,464.84	77.5934	1,464.84	76.2213	1,464.84	73.9162	1,464.84	75.4311	1,464.84	72.7542	1,464.84	74.3878	1,464.84	74.2456	1,464.84	70.2699	1,464.84	75.346	1,464.84	66.077	1,464.84	76.1248	1,464.84	72.9926	1,464.84	75.4447	1,464.84	74.4732	1,464.84	72.8799	1,464.84	72.7225	1,464.84	71.4058	1,464.84	67.9902	1,464.84	71.2246	1,464.84	68.7102
1,514.65	85.4885	1,514.65	85.3374	1,514.65	85.1448	1,514.65	84.7869	1,514.65	84.1208	1,514.65	84.0695	1,514.65	82.5037	1,514.65	83.2983	1,514.65	81.0289	1,514.65	82.1394	1,514.65	80.3789	1,514.65	80.3907	1,514.65	80.2859	1,514.65	78.6239	1,514.65	79.9861	1,514.65	78.2047	1,514.65	79.0117	1,514.65	78.3943	1,514.65	76.8747	1,514.65	77.7756	1,514.65	74.6805	1,514.65	76.7635	1,514.65	74.5236	1,514.65	74.0744	1,514.65	74.3845	1,514.65	65.1336	1,514.65	75.3176	1,514.65	65.8207	1,514.65	76.0667	1,514.65	73.0099	1,514.65	73.8622	1,514.65	72.8063	1,514.65	69.9153	1,514.65	69.4213	1,514.65	69.7112	1,514.65	69.3798
1,570.31	86.2398	1,570.31	85.818	1,570.31	85.8464	1,570.31	85.1811	1,570.31	84.5536	1,570.31	84.8538	1,570.31	82.9582	1,570.31	84.2598	1,570.31	81.8565	1,570.31	82.6756	1,570.31	81.0607	1,570.31	80.2575	1,570.31	80.423	1,570.31	78.637	1,570.31	80.3903	1,570.31	78.8793	1,570.31	80.6898	1,570.31	79.4452	1,570.31	79.7706	1,570.31	78.1201	1,570.31	75.7603	1,570.31	77.0302	1,570.31	72.5353	1,570.31	77.0484	1,570.31	73.5452	1,570.31	74.8229	1,570.31	74.0322	1,570.31	70.9521	1,570.31	74.6021	1,570.31	72.5673	1,570.31	74.0537	1,570.31	71.7164	1,570.31	72.4522	1,570.31	69.7498	1,570.31	71.7116	1,570.31	71.1789
1,623.05	85.9396	1,623.05	85.9118	1,623.05	85.7707	1,623.05	85.9469	1,623.05	84.7437	1,623.05	85.4959	1,623.05	82.7018	1,623.05	83.9569	1,623.05	80.3966	1,623.05	81.4892	1,623.05	78.774	1,623.05	79.752	1,623.05	78.0934	1,623.05	79.4911	1,623.05	78.5419	1,623.05	79.0806	1,623.05	79.6126	1,623.05	78.0283	1,623.05	79.6919	1,623.05	75.7533	1,623.05	77.4508	1,623.05	73.3988	1,623.05	74.772	1,623.05	74.7272	1,623.05	75.2893	1,623.05	74.745	1,623.05	75.0815	1,623.05	72.633	1,623.05	74.5978	1,623.05	72.7947	1,623.05	75.3315	1,623.05	70.497	1,623.05	74.8563	1,623.05	66.6578	1,623.05	73.6516	1,623.05	71.3237
1,681.64	86.0935	1,681.64	86.4979	1,681.64	85.9998	1,681.64	86.5726	1,681.64	85.7047	1,681.64	85.7224	1,681.64	84.3815	1,681.64	83.9678	1,681.64	82.1508	1,681.64	81.8096	1,681.64	79.6553	1,681.64	80.1363	1,681.64	77.477	1,681.64	79.2716	1,681.64	77.4541	1,681.64	79.0916	1,681.64	79.3874	1,681.64	78.8515	1,681.64	79.6046	1,681.64	75.7417	1,681.64	77.0417	1,681.64	69.8072	1,681.64	72.7331	1,681.64	69.6799	1,681.64	72.3421	1,681.64	72.0717	1,681.64	73.2462	1,681.64	71.9721	1,681.64	71.5976	1,681.64	73.5341	1,681.64	72.5976	1,681.64	72.5236	1,681.64	74.2344	1,681.64	68.5972	1,681.64	73.8611	1,681.64	71.5585
1,740.23	87.0383	1,740.23	86.9574	1,740.23	86.3942	1,740.23	86.3468	1,740.23	85.5084	1,740.23	85.5222	1,740.23	84.4665	1,740.23	83.9762	1,740.23	82.8333	1,740.23	82.126	1,740.23	80.9551	1,740.23	81.8014	1,740.23	79.8655	1,740.23	81.0063	1,740.23	78.9114	1,740.23	77.1535	1,740.23	77.791	1,740.23	75.2289	1,740.23	77.607	1,740.23	75.4475	1,740.23	77.4781	1,740.23	74.1868	1,740.23	75.0872	1,740.23	72.5483	1,740.23	68.437	1,740.23	73.9425	1,740.23	66.9675	1,740.23	71.6418	1,740.23	69.9446	1,740.23	72.0914	1,740.23	69.0867	1,740.23	73.0082	1,740.23	70.856	1,740.23	69.7581	1,740.23	72.7076	1,740.23	71.3606
1,801.76	87.6767	1,801.76	87.4981	1,801.76	86.9494	1,801.76	86.6979	1,801.76	85.797	1,801.76	85.864	1,801.76	84.5682	1,801.76	84.4388	1,801.76	82.8875	1,801.76	82.254	1,801.76	80.3762	1,801.76	80.8391	1,801.76	78.0329	1,801.76	80.2084	1,801.76	77.1931	1,801.76	76.8341	1,801.76	77.1754	1,801.76	69.584	1,801.76	77.2476	1,801.76	71.4517	1,801.76	77.3436	1,801.76	74.0182	1,801.76	77.2469	1,801.76	69.9282	1,801.76	75.7711	1,801.76	68.3682	1,801.76	69.5533	1,801.76	69.7903	1,801.76	66.3709	1,801.76	72.5922	1,801.76	73.8118	1,801.76	75.2568	1,801.76	74.051	1,801.76	72.6486	1,801.76	72.4482	1,801.76	70.7984
1,866.21	86.6992	1,866.21	86.9219	1,866.21	86.6081	1,866.21	86.8461	1,866.21	86.219	1,866.21	85.7864	1,866.21	85.0863	1,866.21	83.9755	1,866.21	83.395	1,866.21	82.7372	1,866.21	81.0856	1,866.21	81.1933	1,866.21	78.5964	1,866.21	78.3721	1,866.21	76.9963	1,866.21	76.578	1,866.21	76.6603	1,866.21	75.6455	1,866.21	77.138	1,866.21	74.514	1,866.21	75.9867	1,866.21	75.0857	1,866.21	75.6697	1,866.21	70.1434	1,866.21	76.3094	1,866.21	59.586	1,866.21	74.2113	1,866.21	68.6132	1,866.21	64.6068	1,866.21	69.4078	1,866.21	73.1743	1,866.21	72.8351	1,866.21	75.8712	1,866.21	72.8884	1,866.21	74.9201	1,866.21	73.063
1,930.66	86.2883	1,930.66	87.0027	1,930.66	86.0023	1,930.66	87.1937	1,930.66	85.9412	1,930.66	85.9504	1,930.66	85.2502	1,930.66	83.8395	1,930.66	83.8183	1,930.66	82.7625	1,930.66	81.8177	1,930.66	81.1786	1,930.66	78.9719	1,930.66	78.1719	1,930.66	77.2206	1,930.66	77.853	1,930.66	78.0561	1,930.66	77.4217	1,930.66	77.3252	1,930.66	74.6359	1,930.66	73.8584	1,930.66	75.2137	1,930.66	72.0977	1,930.66	73.5717	1,930.66	72.1705	1,930.66	66.9507	1,930.66	71.2199	1,930.66	72.5076	1,930.66	68.8137	1,930.66	72.7389	1,930.66	67.1823	1,930.66	68.9672	1,930.66	75.0761	1,930.66	68.4547	1,930.66	76.9519	1,930.66	73.9771
2,000.98	86.4812	2,000.98	86.7923	2,000.98	85.7948	2,000.98	86.5366	2,000.98	84.9097	2,000.98	85.1516	2,000.98	83.7284	2,000.98	83.4368	2,000.98	82.5003	2,000.98	82.5168	2,000.98	81.231	2,000.98	80.368	2,000.98	79.3523	2,000.98	77.81	2,000.98	77.1931	2,000.98	78.1339	2,000.98	75.4602	2,000.98	78.4127	2,000.98	75.3619	2,000.98	74.4327	2,000.98	74.1039	2,000.98	73.9255	2,000.98	74.2985	2,000.98	75.3156	2,000.98	75.3945	2,000.98	69.724	2,000.98	71.9516	2,000.98	70.1336	2,000.98	69.4304	2,000.98	71.067	2,000.98	70.5366	2,000.98	66.4982	2,000.98	68.5443	2,000.98	66.3566	2,000.98	70.5275	2,000.98	66.9867
2,071.29	87.8556	2,071.29	87.6586	2,071.29	86.9174	2,071.29	86.7709	2,071.29	84.9881	2,071.29	85.3126	2,071.29	83.5199	2,071.29	84.3267	2,071.29	82.9273	2,071.29	83.2113	2,071.29	81.4888	2,071.29	80.9762	2,071.29	79.7275	2,071.29	79.1322	2,071.29	78.7965	2,071.29	77.0202	2,071.29	75.0051	2,071.29	75.7691	2,071.29	69.0891	2,071.29	73.9575	2,071.29	68.4628	2,071.29	72.1482	2,071.29	68.1001	2,071.29	73.0847	2,071.29	71.8839	2,071.29	70.7476	2,071.29	72.661	2,071.29	66.6214	2,071.29	72.5487	2,071.29	69.8832	2,071.29	73.0062	2,071.29	67.678	2,071.29	70.0549	2,071.29	66.6693	2,071.29	71.0137	2,071.29	70.1366
2,144.53	87.1427	2,144.53	87.2776	2,144.53	86.8935	2,144.53	86.9559	2,144.53	85.7282	2,144.53	85.8807	2,144.53	84.0753	2,144.53	84.9456	2,144.53	82.5341	2,144.53	83.023	2,144.53	80.4772	2,144.53	80.9592	2,144.53	78.964	2,144.53	80.0196	2,144.53	79.0702	2,144.53	77.0009	2,144.53	77.1477	2,144.53	73.5094	2,144.53	72.0862	2,144.53	71.4008	2,144.53	71.1755	2,144.53	68.9161	2,144.53	71.1524	2,144.53	70.2455	2,144.53	66.7583	2,144.53	68.385	2,144.53	71.0002	2,144.53	63.2915	2,144.53	70.8147	2,144.53	69.4931	2,144.53	70.6079	2,144.53	66.4845	2,144.53	72.5174	2,144.53	64.2113	2,144.53	74.0245	2,144.53	71.3599
2,217.77	86.0816	2,217.77	86.1391	2,217.77	86.3204	2,217.77	86.0301	2,217.77	85.77	2,217.77	85.7051	2,217.77	84.3533	2,217.77	85.0996	2,217.77	83.0903	2,217.77	82.9133	2,217.77	81.7246	2,217.77	81.2639	2,217.77	79.0052	2,217.77	79.4256	2,217.77	76.423	2,217.77	76.9702	2,217.77	75.7094	2,217.77	76.8618	2,217.77	73.2747	2,217.77	76.0609	2,217.77	73.512	2,217.77	72.83	2,217.77	74.8034	2,217.77	70.4677	2,217.77	71.4492	2,217.77	70.442	2,217.77	66.6766	2,217.77	64.6539	2,217.77	65.9646	2,217.77	70.3959	2,217.77	70.142	2,217.77	69.5011	2,217.77	70.8276	2,217.77	48.3624	2,217.77	70.5643	2,217.77	69.0575
2,296.88	86.4483	2,296.88	86.1439	2,296.88	85.4921	2,296.88	85.3654	2,296.88	84.562	2,296.88	85.6181	2,296.88	84.2099	2,296.88	84.5232	2,296.88	83.0079	2,296.88	81.9821	2,296.88	80.9576	2,296.88	82.0436	2,296.88	78.8291	2,296.88	79.685	2,296.88	77.3463	2,296.88	75.4255	2,296.88	76.3679	2,296.88	75.3642	2,296.88	72.9767	2,296.88	74.4184	2,296.88	69.4374	2,296.88	72.1183	2,296.88	71.2502	2,296.88	71.3526	2,296.88	70.4101	2,296.88	72.5139	2,296.88	70.7266	2,296.88	67.8278	2,296.88	66.4782	2,296.88	62.6322	2,296.88	66.6838	2,296.88	68.7518	2,296.88	68.8283	2,296.88	49.3279	2,296.88	69.6331	2,296.88	69.9951
2,378.91	86.4089	2,378.91	85.9257	2,378.91	86.3173	2,378.91	85.4302	2,378.91	85.5457	2,378.91	84.643	2,378.91	84.3424	2,378.91	83.2089	2,378.91	82.7209	2,378.91	82.4519	2,378.91	80.5088	2,378.91	81.3224	2,378.91	78.7037	2,378.91	79.0633	2,378.91	77.6049	2,378.91	78.3656	2,378.91	75.4359	2,378.91	77.3689	2,378.91	73.4087	2,378.91	75.7488	2,378.91	72.3109	2,378.91	74.6536	2,378.91	71.8314	2,378.91	70.9576	2,378.91	70.4191	2,378.91	70.9243	2,378.91	66.68	2,378.91	68.4457	2,378.91	65.0322	2,378.91	58.6517	2,378.91	62.3791	2,378.91	68.1937	2,378.91	65.6645	2,378.91	54.8386	2,378.91	71.748	2,378.91	71.6414
2,460.94	84.6588	2,460.94	84.8677	2,460.94	85.1154	2,460.94	85.2533	2,460.94	85.1961	2,460.94	84.5803	2,460.94	83.9119	2,460.94	83.7736	2,460.94	81.9441	2,460.94	82.4568	2,460.94	80.8018	2,460.94	79.7093	2,460.94	78.9064	2,460.94	79.2106	2,460.94	75.8466	2,460.94	78.1999	2,460.94	75.986	2,460.94	74.8619	2,460.94	75.645	2,460.94	73.2858	2,460.94	66.8616	2,460.94	73.3221	2,460.94	66.8564	2,460.94	70.8608	2,460.94	70.8505	2,460.94	68.1453	2,460.94	66.6701	2,460.94	68.095	2,460.94	65.4616	2,460.94	64.3655	2,460.94	64.358	2,460.94	69.5397	2,460.94	65.3864	2,460.94	55.0223	2,460.94	69.9901	2,460.94	68.8295
2,548.83	83.6415	2,548.83	83.8987	2,548.83	83.9954	2,548.83	84.7576	2,548.83	84.0949	2,548.83	84.7767	2,548.83	83.883	2,548.83	83.2831	2,548.83	82.1896	2,548.83	81.1376	2,548.83	79.4044	2,548.83	80.4538	2,548.83	77.738	2,548.83	77.6538	2,548.83	76.5271	2,548.83	75.1046	2,548.83	76.4873	2,548.83	76.3362	2,548.83	76.4545	2,548.83	73.8797	2,548.83	71.4912	2,548.83	71.1563	2,548.83	64.8723	2,548.83	71.6569	2,548.83	70.2516	2,548.83	68.6838	2,548.83	70.9607	2,548.83	68.3346	2,548.83	67.6049	2,548.83	63.6777	2,548.83	67.8187	2,548.83	65.5421	2,548.83	64.2342	2,548.83	54.7892	2,548.83	69.2452	2,548.83	64.6361
2,639.65	83.3994	2,639.65	83.8545	2,639.65	83.4077	2,639.65	83.5114	2,639.65	83.5272	2,639.65	82.8072	2,639.65	83.1839	2,639.65	82.6318	2,639.65	82.2472	2,639.65	81.4913	2,639.65	79.7012	2,639.65	79.2299	2,639.65	77.3964	2,639.65	78.7866	2,639.65	76.4919	2,639.65	77.2309	2,639.65	74.5335	2,639.65	73.9383	2,639.65	73.0616	2,639.65	72.2322	2,639.65	71.1224	2,639.65	69.0992	2,639.65	70.0295	2,639.65	68.9691	2,639.65	70.5256	2,639.65	69.8548	2,639.65	71.0502	2,639.65	67.1189	2,639.65	64.6408	2,639.65	64.5775	2,639.65	63.3356	2,639.65	64.9159	2,639.65	61.4275	2,639.65	57.0832	2,639.65	69.574	2,639.65	66.5906
2,733.4	83.7288	2,733.4	84.2991	2,733.4	83.2552	2,733.4	82.8414	2,733.4	83.2907	2,733.4	82.3347	2,733.4	82.4266	2,733.4	81.9552	2,733.4	81.1861	2,733.4	80.2712	2,733.4	78.974	2,733.4	79.3457	2,733.4	76.14	2,733.4	76.2937	2,733.4	74.3988	2,733.4	73.5658	2,733.4	72.8772	2,733.4	71.5157	2,733.4	71.4518	2,733.4	69.1792	2,733.4	73.7099	2,733.4	69.564	2,733.4	73.3182	2,733.4	66.334	2,733.4	68.3023	2,733.4	63.1195	2,733.4	67.14	2,733.4	64.494	2,733.4	66.4263	2,733.4	60.1111	2,733.4	63.0959	2,733.4	63.5033	2,733.4	59.8523	2,733.4	62.2586	2,733.4	66.469	2,733.4	62.8576
2,827.15	84.6833	2,827.15	84.031	2,827.15	83.8958	2,827.15	83.7375	2,827.15	83.3406	2,827.15	83.6626	2,827.15	82.8637	2,827.15	81.9537	2,827.15	81.12	2,827.15	81.4584	2,827.15	79.3201	2,827.15	79.5891	2,827.15	77.498	2,827.15	76.3064	2,827.15	75.3516	2,827.15	73.7034	2,827.15	70.4603	2,827.15	69.9196	2,827.15	64.611	2,827.15	70.7605	2,827.15	73.4943	2,827.15	70.3297	2,827.15	74.5805	2,827.15	65.795	2,827.15	67.6556	2,827.15	65.8493	2,827.15	65.9691	2,827.15	65.1436	2,827.15	63.4187	2,827.15	63.9912	2,827.15	65.3577	2,827.15	63.1906	2,827.15	58.2223	2,827.15	62.1437	2,827.15	68.999	2,827.15	60.6649
2,926.76	84.5278	2,926.76	83.8217	2,926.76	84.4422	2,926.76	83.9423	2,926.76	84.2768	2,926.76	83.8824	2,926.76	83.7416	2,926.76	82.3585	2,926.76	82.003	2,926.76	81.0926	2,926.76	79.6797	2,926.76	79.1148	2,926.76	77.7912	2,926.76	76.2104	2,926.76	74.7939	2,926.76	73.9693	2,926.76	67.5018	2,926.76	73.9479	2,926.76	68.2358	2,926.76	71.2623	2,926.76	71.625	2,926.76	68.3286	2,926.76	73.6427	2,926.76	68.0318	2,926.76	68.0628	2,926.76	64.9156	2,926.76	65.0838	2,926.76	66.188	2,926.76	66.8176	2,926.76	65.1323	2,926.76	61.1286	2,926.76	65.8164	2,926.76	45.4655	2,926.76	63.7446	2,926.76	63.3815	2,926.76	58.7761
3,032.23	84.6149	3,032.23	84.3103	3,032.23	84.5233	3,032.23	84.0856	3,032.23	84.4998	3,032.23	83.5072	3,032.23	84.2886	3,032.23	83.0081	3,032.23	82.3421	3,032.23	81.054	3,032.23	80.0671	3,032.23	78.6618	3,032.23	78.6539	3,032.23	77.8602	3,032.23	75.8161	3,032.23	75.323	3,032.23	71.046	3,032.23	73.1528	3,032.23	71.8039	3,032.23	69.1416	3,032.23	71.6567	3,032.23	67.8617	3,032.23	66.4642	3,032.23	70.1435	3,032.23	68.1252	3,032.23	66.141	3,032.23	69.414	3,032.23	65.2449	3,032.23	66.4285	3,032.23	65.8697	3,032.23	63.6922	3,032.23	65.2067	3,032.23	53.0188	3,032.23	63.575	3,032.23	63.118	3,032.23	55.553
3,137.7	85.1168	3,137.7	84.9791	3,137.7	84.6227	3,137.7	84.2803	3,137.7	84.478	3,137.7	83.8986	3,137.7	84.2066	3,137.7	83.3938	3,137.7	82.8741	3,137.7	81.6519	3,137.7	80.8396	3,137.7	79.3216	3,137.7	78.7336	3,137.7	78.5989	3,137.7	75.5417	3,137.7	75.4715	3,137.7	73.1922	3,137.7	69.0622	3,137.7	73.2418	3,137.7	69.8937	3,137.7	71.2196	3,137.7	69.0376	3,137.7	69.761	3,137.7	69.4296	3,137.7	68.0893	3,137.7	67.3448	3,137.7	68.9372	3,137.7	62.5855	3,137.7	67.9925	3,137.7	64.8881	3,137.7	66.8201	3,137.7	66.0901	3,137.7	58.0999	3,137.7	64.6899	3,137.7	63.2828	3,137.7	51.2144
3,249.02	84.8139	3,249.02	83.6284	3,249.02	84.815	3,249.02	83.9752	3,249.02	84.4152	3,249.02	83.9719	3,249.02	84.3115	3,249.02	83.2131	3,249.02	82.873	3,249.02	81.3466	3,249.02	80.7229	3,249.02	79.1926	3,249.02	78.7923	3,249.02	77.081	3,249.02	76.6981	3,249.02	71.2755	3,249.02	74.922	3,249.02	72.0054	3,249.02	74.1294	3,249.02	71.0529	3,249.02	72.4103	3,249.02	67.3827	3,249.02	68.345	3,249.02	67.0668	3,249.02	68.3421	3,249.02	66.7862	3,249.02	64.6168	3,249.02	64.8411	3,249.02	65.1964	3,249.02	65.0284	3,249.02	66.7544	3,249.02	65.1117	3,249.02	59.22	3,249.02	65.4801	3,249.02	66.3327	3,249.02	52.8719
3,363.28	83.7553	3,363.28	83.5224	3,363.28	84.3316	3,363.28	83.9384	3,363.28	84.6257	3,363.28	84.1304	3,363.28	84.7816	3,363.28	83.2424	3,363.28	83.5325	3,363.28	80.9348	3,363.28	81.0857	3,363.28	79.3546	3,363.28	79.0057	3,363.28	75.0462	3,363.28	76.1426	3,363.28	74.0673	3,363.28	74.6439	3,363.28	73.3352	3,363.28	74.208	3,363.28	68.7398	3,363.28	71.6784	3,363.28	66.684	3,363.28	67.474	3,363.28	68.1698	3,363.28	64.0383	3,363.28	67.1143	3,363.28	65.0204	3,363.28	65.5777	3,363.28	60.4629	3,363.28	64.7789	3,363.28	67.3021	3,363.28	65.0186	3,363.28	57.4199	3,363.28	63.1731	3,363.28	64.7153	3,363.28	54.8408
3,483.4	83.7973	3,483.4	83.7586	3,483.4	84.1344	3,483.4	84.177	3,483.4	84.27	3,483.4	84.0973	3,483.4	84.5014	3,483.4	82.9648	3,483.4	83.8887	3,483.4	81.7084	3,483.4	81.7822	3,483.4	78.6905	3,483.4	78.9402	3,483.4	76.929	3,483.4	75.5826	3,483.4	76.068	3,483.4	72.9794	3,483.4	70.813	3,483.4	70.9666	3,483.4	69.0802	3,483.4	66.7206	3,483.4	68.162	3,483.4	63.658	3,483.4	67.2553	3,483.4	63.5319	3,483.4	66.9842	3,483.4	66.371	3,483.4	64.8321	3,483.4	58.3313	3,483.4	65.2449	3,483.4	65.8905	3,483.4	65.4069	3,483.4	58.8891	3,483.4	64.6645	3,483.4	63.8832	3,483.4	50.8657
3,606.45	83.7117	3,606.45	84.0351	3,606.45	84.2855	3,606.45	84.4402	3,606.45	84.3241	3,606.45	84.0257	3,606.45	83.8663	3,606.45	83.2868	3,606.45	83.4703	3,606.45	81.2803	3,606.45	81.6493	3,606.45	78.714	3,606.45	77.9466	3,606.45	77.7474	3,606.45	74.3563	3,606.45	73.1737	3,606.45	71.6431	3,606.45	69.8402	3,606.45	67.4889	3,606.45	70.8201	3,606.45	50.6355	3,606.45	67.6737	3,606.45	54.8588	3,606.45	67.0985	3,606.45	60.497	3,606.45	67.0567	3,606.45	65.0848	3,606.45	65.4868	3,606.45	62.6685	3,606.45	65.0624	3,606.45	62.5391	3,606.45	66.205	3,606.45	56.7005	3,606.45	64.8634	3,606.45	64.1552	3,606.45	50.5294
3,732.42	83.4966	3,732.42	84.033	3,732.42	83.9112	3,732.42	84.4974	3,732.42	84.0504	3,732.42	84.042	3,732.42	83.3447	3,732.42	82.5936	3,732.42	82.9803	3,732.42	80.0605	3,732.42	81.6343	3,732.42	78.9026	3,732.42	78.1063	3,732.42	76.9335	3,732.42	73.3392	3,732.42	71.9844	3,732.42	67.9352	3,732.42	70.2565	3,732.42	63.5577	3,732.42	69.6995	3,732.42	60.805	3,732.42	66.1234	3,732.42	51.7901	3,732.42	67.4624	3,732.42	64.9522	3,732.42	67.1678	3,732.42	59.9325	3,732.42	64.9301	3,732.42	64.2304	3,732.42	64.7277	3,732.42	63.8626	3,732.42	64.6891	3,732.42	62.1114	3,732.42	64.6955	3,732.42	59.4745	3,732.42	49.2719
3,864.26	83.8655	3,864.26	84.4881	3,864.26	83.8521	3,864.26	84.2197	3,864.26	83.6363	3,864.26	83.2151	3,864.26	82.6083	3,864.26	81.8829	3,864.26	82.1038	3,864.26	80.3474	3,864.26	79.9126	3,864.26	78.3061	3,864.26	76.2312	3,864.26	74.6871	3,864.26	73.025	3,864.26	74.1979	3,864.26	69.957	3,864.26	72.8737	3,864.26	65.4499	3,864.26	69.1516	3,864.26	67.1108	3,864.26	66.4462	3,864.26	64.4086	3,864.26	64.245	3,864.26	66.4307	3,864.26	65.5864	3,864.26	61.5202	3,864.26	65.2213	3,864.26	60.0068	3,864.26	64.2362	3,864.26	61.673	3,864.26	63.5985	3,864.26	62.2851	3,864.26	64.8239	3,864.26	58.6434	3,864.26	47.6345
3,999.02	84.3008	3,999.02	85.2337	3,999.02	83.8178	3,999.02	84.2935	3,999.02	83.6327	3,999.02	83.2328	3,999.02	82.4244	3,999.02	81.4629	3,999.02	81.3567	3,999.02	79.4207	3,999.02	78.6789	3,999.02	76.8295	3,999.02	75.3884	3,999.02	75.6491	3,999.02	72.6348	3,999.02	74.9701	3,999.02	66.529	3,999.02	68.6029	3,999.02	47.8849	3,999.02	66.8238	3,999.02	67.1917	3,999.02	65.1681	3,999.02	65.8609	3,999.02	62.8144	3,999.02	63.7157	3,999.02	64.4974	3,999.02	57.8701	3,999.02	61.3766	3,999.02	61.6618	3,999.02	63.7872	3,999.02	62.7627	3,999.02	62.6878	3,999.02	59.9446	3,999.02	64.7361	3,999.02	54.6522	3,999.02	48.6375
4,139.65	84.7017	4,139.65	84.928	4,139.65	83.4447	4,139.65	84.2937	4,139.65	83.2314	4,139.65	83.2611	4,139.65	82.4406	4,139.65	81.0939	4,139.65	79.9699	4,139.65	79.0528	4,139.65	77.5653	4,139.65	77.1031	4,139.65	75.1103	4,139.65	76.277	4,139.65	71.3031	4,139.65	70.415	4,139.65	64.8147	4,139.65	69.685	4,139.65	67.1063	4,139.65	68.0924	4,139.65	68.9976	4,139.65	66.6299	4,139.65	64.207	4,139.65	61.0592	4,139.65	61.6121	4,139.65	66.1115	4,139.65	56.4106	4,139.65	61.7141	4,139.65	64.493	4,139.65	65.4143	4,139.65	62.5204	4,139.65	58.1589	4,139.65	60.9834	4,139.65	64.589	4,139.65	56.7745	4,139.65	54.1707
4,286.13	85.096	4,286.13	84.535	4,286.13	83.8233	4,286.13	83.6148	4,286.13	82.7767	4,286.13	82.2884	4,286.13	81.7559	4,286.13	80.8254	4,286.13	78.6209	4,286.13	78.7681	4,286.13	77.1716	4,286.13	77.3851	4,286.13	74.9881	4,286.13	74.0696	4,286.13	72.1215	4,286.13	72.2198	4,286.13	70.1983	4,286.13	73.2046	4,286.13	70.8765	4,286.13	67.6874	4,286.13	66.9657	4,286.13	65.6746	4,286.13	58.6441	4,286.13	64.7942	4,286.13	52.6251	4,286.13	61.4958	4,286.13	61.887	4,286.13	62.5984	4,286.13	63.8204	4,286.13	63.5157	4,286.13	57.9238	4,286.13	60.1903	4,286.13	59.8034	4,286.13	65.7662	4,286.13	60.1952	4,286.13	59.1719
4,438.48	84.2741	4,438.48	83.5021	4,438.48	83.3728	4,438.48	82.6888	4,438.48	82.3059	4,438.48	81.5872	4,438.48	80.2714	4,438.48	79.7711	4,438.48	77.9737	4,438.48	77.3016	4,438.48	77.0832	4,438.48	75.0312	4,438.48	73.9585	4,438.48	73.9654	4,438.48	71.031	4,438.48	73.8714	4,438.48	73.0042	4,438.48	68.6538	4,438.48	71.7913	4,438.48	66.7332	4,438.48	60.0842	4,438.48	65.4849	4,438.48	61.4377	4,438.48	60.5524	4,438.48	53.7141	4,438.48	59.9945	4,438.48	61.7791	4,438.48	62.7586	4,438.48	59.2053	4,438.48	63.1201	4,438.48	58.9445	4,438.48	61.7935	4,438.48	57.6281	4,438.48	64.7976	4,438.48	63.2957	4,438.48	56.3077
4,593.75	83.3209	4,593.75	82.6862	4,593.75	82.8217	4,593.75	81.7934	4,593.75	81.8846	4,593.75	81.115	4,593.75	79.5831	4,593.75	79.6926	4,593.75	79.0667	4,593.75	77.7506	4,593.75	75.7878	4,593.75	76.1381	4,593.75	73.7384	4,593.75	74.9075	4,593.75	75.4976	4,593.75	70.58	4,593.75	76.1388	4,593.75	69.269	4,593.75	70.5393	4,593.75	67.9734	4,593.75	67.1787	4,593.75	65.8269	4,593.75	66.088	4,593.75	64.1539	4,593.75	53.9465	4,593.75	65.0291	4,593.75	56.8474	4,593.75	61.6456	4,593.75	60.3658	4,593.75	62.1256	4,593.75	59.5088	4,593.75	60.7272	4,593.75	59.4987	4,593.75	63.5027	4,593.75	60.4357	4,593.75	54.6045
4,757.81	82.1996	4,757.81	81.6644	4,757.81	82.1374	4,757.81	81.4	4,757.81	80.5514	4,757.81	80.8317	4,757.81	80.7571	4,757.81	80.0925	4,757.81	79.971	4,757.81	77.5481	4,757.81	75.5004	4,757.81	76.2036	4,757.81	72.9677	4,757.81	73.6886	4,757.81	75.376	4,757.81	73.5396	4,757.81	75.417	4,757.81	71.4792	4,757.81	69.8334	4,757.81	66.7251	4,757.81	70.1604	4,757.81	66.4389	4,757.81	68.3865	4,757.81	64.7777	4,757.81	54.8311	4,757.81	61.2844	4,757.81	58.4236	4,757.81	60.2318	4,757.81	62.3967	4,757.81	61.7074	4,757.81	55.6248	4,757.81	60.0248	4,757.81	60.1305	4,757.81	61.3968	4,757.81	64.1746	4,757.81	50.2418
4,924.8	83.3841	4,924.8	81.9886	4,924.8	82.9715	4,924.8	81.5162	4,924.8	82.1823	4,924.8	81.7048	4,924.8	82.3083	4,924.8	80.2084	4,924.8	80.8994	4,924.8	78.7334	4,924.8	77.2608	4,924.8	77.8006	4,924.8	77.3776	4,924.8	76.8448	4,924.8	77.3342	4,924.8	74.8335	4,924.8	72.3992	4,924.8	70.1987	4,924.8	69.2921	4,924.8	67.1529	4,924.8	72.4359	4,924.8	66.5125	4,924.8	69.2562	4,924.8	63.7773	4,924.8	61.3214	4,924.8	63.6809	4,924.8	53.6495	4,924.8	60.8645	4,924.8	63.5154	4,924.8	60.6711	4,924.8	60.2119	4,924.8	64.0184	4,924.8	56.2607	4,924.8	61.2745	4,924.8	63.6375	4,924.8	45.1296
5,097.66	84.2298	5,097.66	83.3815	5,097.66	84.1553	5,097.66	82.5593	5,097.66	83.9825	5,097.66	82.0401	5,097.66	82.7565	5,097.66	81.405	5,097.66	80.1193	5,097.66	80.2547	5,097.66	78.2729	5,097.66	79.3356	5,097.66	79.185	5,097.66	76.2512	5,097.66	78.223	5,097.66	71.4611	5,097.66	72.3513	5,097.66	70.633	5,097.66	68.5793	5,097.66	67.1748	5,097.66	70.7871	5,097.66	65.5896	5,097.66	68.2577	5,097.66	63.4102	5,097.66	64.9686	5,097.66	60.9372	5,097.66	50.5918	5,097.66	64.5892	5,097.66	65.436	5,097.66	59.9845	5,097.66	58.6677	5,097.66	61.503	5,097.66	53.119	5,097.66	58.44	5,097.66	58.7301	5,097.66	56.1102
5,279.3	83.6599	5,279.3	83.4739	5,279.3	84.6227	5,279.3	83.8758	5,279.3	84.2831	5,279.3	82.9199	5,279.3	82.3881	5,279.3	82.228	5,279.3	80.9043	5,279.3	81.2757	5,279.3	80.0136	5,279.3	78.9702	5,279.3	79.2119	5,279.3	76.3813	5,279.3	76.5998	5,279.3	75.0983	5,279.3	70.0232	5,279.3	70.6104	5,279.3	69.0668	5,279.3	65.6925	5,279.3	70.4776	5,279.3	63.4762	5,279.3	70.6171	5,279.3	65.2424	5,279.3	68.0545	5,279.3	59.5446	5,279.3	59.5217	5,279.3	62.1097	5,279.3	62.6609	5,279.3	57.439	5,279.3	59.0126	5,279.3	61.4234	5,279.3	63.1113	5,279.3	63.1614	5,279.3	50.0356	5,279.3	52.8191
5,463.87	83.676	5,463.87	83.6643	5,463.87	83.5321	5,463.87	83.723	5,463.87	82.9133	5,463.87	83.0451	5,463.87	81.73	5,463.87	82.9635	5,463.87	81.9846	5,463.87	81.6593	5,463.87	80.7023	5,463.87	79.2568	5,463.87	78.3723	5,463.87	76.5247	5,463.87	71.8596	5,463.87	72.1141	5,463.87	66.3541	5,463.87	67.1154	5,463.87	63.0136	5,463.87	66.1852	5,463.87	67.0193	5,463.87	63.7952	5,463.87	69.2009	5,463.87	61.9325	5,463.87	65.0981	5,463.87	63.2208	5,463.87	62.9864	5,463.87	63.6122	5,463.87	61.091	5,463.87	59.9437	5,463.87	60.5203	5,463.87	59.5719	5,463.87	64.1813	5,463.87	61.5834	5,463.87	55.233	5,463.87	57.8997
5,657.23	82.8275	5,657.23	83.7725	5,657.23	82.4547	5,657.23	83.597	5,657.23	82.5588	5,657.23	83.0756	5,657.23	82.859	5,657.23	83.018	5,657.23	83.0335	5,657.23	81.1609	5,657.23	79.7186	5,657.23	79.0318	5,657.23	77.2736	5,657.23	73.9399	5,657.23	71.5441	5,657.23	73.0123	5,657.23	72.0773	5,657.23	70.7429	5,657.23	64.7523	5,657.23	65.8381	5,657.23	52.7071	5,657.23	64.8942	5,657.23	68.079	5,657.23	63.8637	5,657.23	66.7575	5,657.23	62.8576	5,657.23	60.0684	5,657.23	60.9719	5,657.23	57.1989	5,657.23	60.5609	5,657.23	58.0357	5,657.23	63.239	5,657.23	61.9958	5,657.23	58.9118	5,657.23	55.3975	5,657.23	56.7394
5,856.45	82.8839	5,856.45	83.6466	5,856.45	82.8162	5,856.45	82.9326	5,856.45	83.3082	5,856.45	82.8376	5,856.45	84.1479	5,856.45	82.7428	5,856.45	83.3256	5,856.45	80.8144	5,856.45	79.4957	5,856.45	77.8521	5,856.45	75.9355	5,856.45	76.2085	5,856.45	71.6892	5,856.45	73.6393	5,856.45	74.3412	5,856.45	69.2427	5,856.45	67.7395	5,856.45	68.286	5,856.45	62.4735	5,856.45	66.7408	5,856.45	67.9669	5,856.45	63.5078	5,856.45	66.6221	5,856.45	61.8176	5,856.45	62.6569	5,856.45	63.7404	5,856.45	38.3718	5,856.45	61.8789	5,856.45	56.9157	5,856.45	62.7042	5,856.45	54.8584	5,856.45	58.3201	5,856.45	59.9296	5,856.45	55.9041
6,061.52	84.2683	6,061.52	83.4921	6,061.52	83.7067	6,061.52	82.8278	6,061.52	83.6852	6,061.52	82.9837	6,061.52	84.7033	6,061.52	82.2598	6,061.52	83.7931	6,061.52	80.829	6,061.52	80.6071	6,061.52	79.5978	6,061.52	76.2708	6,061.52	76.0314	6,061.52	72.9148	6,061.52	73.4825	6,061.52	74.3127	6,061.52	72.1929	6,061.52	64.1205	6,061.52	67.9724	6,061.52	60.204	6,061.52	65.8808	6,061.52	67.8031	6,061.52	64.4795	6,061.52	64.825	6,061.52	64.8321	6,061.52	63.5445	6,061.52	63.4676	6,061.52	51.0819	6,061.52	62.6302	6,061.52	54.5931	6,061.52	62.5426	6,061.52	50.903	6,061.52	61.2053	6,061.52	61.8767	6,061.52	44.8229
6,275.39	85.0241	6,275.39	84.7998	6,275.39	83.4399	6,275.39	82.3459	6,275.39	83.5368	6,275.39	82.611	6,275.39	83.7346	6,275.39	82.5082	6,275.39	83.2814	6,275.39	81.1193	6,275.39	81.5777	6,275.39	79.5767	6,275.39	78.1596	6,275.39	78.1508	6,275.39	74.6639	6,275.39	75.155	6,275.39	72.5546	6,275.39	71.0131	6,275.39	65.6844	6,275.39	66.8373	6,275.39	67.1641	6,275.39	67.3974	6,275.39	65.7652	6,275.39	65.3614	6,275.39	54.2559	6,275.39	63.8438	6,275.39	58.0914	6,275.39	62.445	6,275.39	56.4912	6,275.39	61.1419	6,275.39	59.8156	6,275.39	64.01	6,275.39	54.5146	6,275.39	52.593	6,275.39	57.0612	6,275.39	52.3772
6,498.05	85.3973	6,498.05	85.0346	6,498.05	83.5627	6,498.05	82.6249	6,498.05	81.4807	6,498.05	82.6728	6,498.05	81.4478	6,498.05	82.0733	6,498.05	82.7303	6,498.05	81.2834	6,498.05	81.8015	6,498.05	79.4417	6,498.05	78.8351	6,498.05	76.3456	6,498.05	74.1259	6,498.05	72.2668	6,498.05	70.5249	6,498.05	70.6148	6,498.05	68.8369	6,498.05	67.3217	6,498.05	66.3079	6,498.05	64.7578	6,498.05	63.0023	6,498.05	63.8442	6,498.05	57.2351	6,498.05	62.2574	6,498.05	46.1004	6,498.05	65.0642	6,498.05	61.0534	6,498.05	59.5408	6,498.05	53.297	6,498.05	59.571	6,498.05	55.2585	6,498.05	54.4898	6,498.05	53.9304	6,498.05	53.3608
6,726.56	85.6637	6,726.56	84.4617	6,726.56	83.9447	6,726.56	82.9807	6,726.56	81.422	6,726.56	82.7284	6,726.56	81.2083	6,726.56	82.6194	6,726.56	80.9174	6,726.56	80.9076	6,726.56	80.0628	6,726.56	78.0875	6,726.56	77.1103	6,726.56	76.1244	6,726.56	72.0146	6,726.56	73.014	6,726.56	67.9418	6,726.56	69.3718	6,726.56	66.0534	6,726.56	66.5891	6,726.56	62.5331	6,726.56	64.2415	6,726.56	62.3419	6,726.56	63.441	6,726.56	59.3834	6,726.56	60.5786	6,726.56	59.607	6,726.56	65.113	6,726.56	55.2848	6,726.56	61.0162	6,726.56	56.5675	6,726.56	60.7753	6,726.56	50.6805	6,726.56	57.1461	6,726.56	60.1554	6,726.56	47.4231
6,963.87	84.3549	6,963.87	83.8169	6,963.87	82.3209	6,963.87	82.2777	6,963.87	81.8379	6,963.87	82.1231	6,963.87	81.5041	6,963.87	82.375	6,963.87	79.2164	6,963.87	80.1111	6,963.87	77.4642	6,963.87	77.5896	6,963.87	73.1409	6,963.87	74.9585	6,963.87	67.1018	6,963.87	71.8093	6,963.87	67.5889	6,963.87	69.7455	6,963.87	65.1142	6,963.87	66.8045	6,963.87	60.4474	6,963.87	63.1089	6,963.87	67.6939	6,963.87	63.7478	6,963.87	63.4627	6,963.87	58.9836	6,963.87	62.1882	6,963.87	64.3801	6,963.87	54.701	6,963.87	59.8545	6,963.87	54.7707	6,963.87	54.4301	6,963.87	55.8569	6,963.87	57.7822	6,963.87	59.5225	6,963.87	20.7982
7,209.96	83.3147	7,209.96	82.8586	7,209.96	82.9459	7,209.96	82.4666	7,209.96	83.6169	7,209.96	82.6116	7,209.96	82.7133	7,209.96	82.2527	7,209.96	81.014	7,209.96	79.4078	7,209.96	78.2513	7,209.96	77.3477	7,209.96	72.1187	7,209.96	74.278	7,209.96	72.4681	7,209.96	72.696	7,209.96	71.2273	7,209.96	68.0983	7,209.96	64.8035	7,209.96	66.0031	7,209.96	52.1386	7,209.96	62.6401	7,209.96	67.9888	7,209.96	63.7794	7,209.96	64.2383	7,209.96	60.6402	7,209.96	58.7418	7,209.96	62.6886	7,209.96	60.919	7,209.96	57.9809	7,209.96	57.2258	7,209.96	60.0036	7,209.96	59.4105	7,209.96	56.9537	7,209.96	54.4323	7,209.96	43.3897
7,464.84	83.1697	7,464.84	82.9194	7,464.84	82.5521	7,464.84	82.4461	7,464.84	83.6353	7,464.84	83.071	7,464.84	83.2521	7,464.84	82.7693	7,464.84	81.9068	7,464.84	79.9507	7,464.84	76.6961	7,464.84	77.2891	7,464.84	74.1879	7,464.84	74.8332	7,464.84	75.6554	7,464.84	71.5819	7,464.84	72.023	7,464.84	68.2214	7,464.84	64.4648	7,464.84	66.6885	7,464.84	57.4091	7,464.84	62.5839	7,464.84	65.6703	7,464.84	63.597	7,464.84	60.206	7,464.84	61.8388	7,464.84	53.6795	7,464.84	62.2424	7,464.84	60.6889	7,464.84	57.645	7,464.84	53.6222	7,464.84	60.3338	7,464.84	60.5869	7,464.84	53.9575	7,464.84	53.4844	7,464.84	47.2366
7,728.52	82.5498	7,728.52	82.6305	7,728.52	82.2356	7,728.52	83.3113	7,728.52	82.3433	7,728.52	83.2491	7,728.52	82.9364	7,728.52	82.2343	7,728.52	82.4191	7,728.52	79.2416	7,728.52	76.1195	7,728.52	77.2665	7,728.52	75.1054	7,728.52	74.7476	7,728.52	73.9031	7,728.52	72.4993	7,728.52	68.3478	7,728.52	69.6375	7,728.52	64.5864	7,728.52	66.9925	7,728.52	55.8403	7,728.52	61.8336	7,728.52	67.7689	7,728.52	62.5622	7,728.52	64.8697	7,728.52	61.5197	7,728.52	62.5723	7,728.52	61.5437	7,728.52	58.6225	7,728.52	60.171	7,728.52	51.8235	7,728.52	58.9125	7,728.52	58.5445	7,728.52	60.8117	7,728.52	54.8892	7,728.52	45.6858
8,000.98	81.7748	8,000.98	81.7828	8,000.98	82.798	8,000.98	82.7692	8,000.98	83.2512	8,000.98	83.2425	8,000.98	82.9926	8,000.98	82.2239	8,000.98	81.1347	8,000.98	79.041	8,000.98	75.1251	8,000.98	77.4874	8,000.98	77.4086	8,000.98	74.2493	8,000.98	73.733	8,000.98	71.0611	8,000.98	65.0305	8,000.98	68.0938	8,000.98	65.9202	8,000.98	63.6898	8,000.98	55.7662	8,000.98	59.5946	8,000.98	66.6458	8,000.98	61.8714	8,000.98	65.1589	8,000.98	61.063	8,000.98	60.7738	8,000.98	61.4325	8,000.98	52.0433	8,000.98	59.0206	8,000.98	54.477	8,000.98	60.7175	8,000.98	62.9664	8,000.98	60.1739	8,000.98	54.0028	8,000.98	47.0358
8,282.23	80.9474	8,282.23	81.9458	8,282.23	83.2299	8,282.23	83.6935	8,282.23	84.0621	8,282.23	83.3617	8,282.23	81.8889	8,282.23	81.2276	8,282.23	78.8791	8,282.23	79.3976	8,282.23	77.1546	8,282.23	78.1656	8,282.23	78.075	8,282.23	75.4771	8,282.23	62.8684	8,282.23	72.7504	8,282.23	65.7502	8,282.23	67.4439	8,282.23	66.3092	8,282.23	65.261	8,282.23	48.2738	8,282.23	63.8509	8,282.23	70.4613	8,282.23	59.4887	8,282.23	68.0429	8,282.23	62.5062	8,282.23	64.6449	8,282.23	60.927	8,282.23	36.3709	8,282.23	60.0707	8,282.23	59.8672	8,282.23	61.3577	8,282.23	59.9902	8,282.23	60.9613	8,282.23	44.2909	8,282.23	47.5564
8,575.2	79.752	8,575.2	81.2938	8,575.2	82.5515	8,575.2	83.335	8,575.2	83.1655	8,575.2	82.9064	8,575.2	80.6938	8,575.2	81.8123	8,575.2	79.2708	8,575.2	80.5985	8,575.2	79.409	8,575.2	79.658	8,575.2	78.8778	8,575.2	76.9977	8,575.2	70.5038	8,575.2	74.0018	8,575.2	74.8316	8,575.2	69.6738	8,575.2	68.9038	8,575.2	66.6126	8,575.2	47.3094	8,575.2	64.6105	8,575.2	72.8637	8,575.2	62.1746	8,575.2	71.416	8,575.2	64.3748	8,575.2	59.5258	8,575.2	63.4007	8,575.2	51.7463	8,575.2	60.4755	8,575.2	61.2614	8,575.2	63.3064	8,575.2	62.4872	8,575.2	62.6084	8,575.2	53.6481	8,575.2	53.836
8,876.95	79.3091	8,876.95	81.1065	8,876.95	83.2641	8,876.95	83.7721	8,876.95	82.7688	8,876.95	82.6207	8,876.95	83.0616	8,876.95	82.5114	8,876.95	80.9373	8,876.95	81.106	8,876.95	81.9063	8,876.95	80.1563	8,876.95	75.8998	8,876.95	77.8399	8,876.95	75.7433	8,876.95	74.8668	8,876.95	76.3602	8,876.95	70.6232	8,876.95	70.6381	8,876.95	66.886	8,876.95	59.3038	8,876.95	64.0074	8,876.95	72.3129	8,876.95	64.5479	8,876.95	70.3492	8,876.95	62.7636	8,876.95	64.2291	8,876.95	63.9632	8,876.95	60.5544	8,876.95	59.0594	8,876.95	54.9912	8,876.95	61.1843	8,876.95	59.5007	8,876.95	58.7615	8,876.95	56.3119	8,876.95	50.2376
9,190.43	81.1779	9,190.43	82.5071	9,190.43	83.8386	9,190.43	83.6604	9,190.43	84.6784	9,190.43	82.7964	9,190.43	84.6585	9,190.43	82.9651	9,190.43	82.254	9,190.43	80.4539	9,190.43	82.4856	9,190.43	80.2181	9,190.43	74.8235	9,190.43	76.6999	9,190.43	78.3462	9,190.43	74.494	9,190.43	74.6654	9,190.43	68.0376	9,190.43	70.4764	9,190.43	64.9093	9,190.43	54.8041	9,190.43	59.3992	9,190.43	71.9169	9,190.43	62.9571	9,190.43	69.5002	9,190.43	61.0146	9,190.43	59.9528	9,190.43	63.2398	9,190.43	58.0081	9,190.43	56.674	9,190.43	57.6103	9,190.43	62.115	9,190.43	54.2051	9,190.43	55.1646	9,190.43	56.6002	9,190.43	44.7231
9,512.7	83.4038	9,512.7	84.0234	9,512.7	83.5841	9,512.7	84.0061	9,512.7	83.4562	9,512.7	83.5622	9,512.7	83.8614	9,512.7	82.9186	9,512.7	83.4905	9,512.7	80.9373	9,512.7	82.5504	9,512.7	79.8693	9,512.7	76.9217	9,512.7	76.4957	9,512.7	77.5551	9,512.7	72.3842	9,512.7	72.4885	9,512.7	67.4468	9,512.7	68.9412	9,512.7	63.9564	9,512.7	58.2969	9,512.7	55.7221	9,512.7	67.8523	9,512.7	60.1169	9,512.7	67.75	9,512.7	58.9573	9,512.7	60.0082	9,512.7	62.1945	9,512.7	52.417	9,512.7	54.6948	9,512.7	56.0792	9,512.7	58.5909	9,512.7	57.6201	9,512.7	54.4936	9,512.7	56.7609	9,512.7	45.8336
9,849.61	84.41	9,849.61	84.3558	9,849.61	84.3639	9,849.61	83.7088	9,849.61	83.2627	9,849.61	83.3905	9,849.61	82.8431	9,849.61	82.4596	9,849.61	84.535	9,849.61	81.7531	9,849.61	81.7019	9,849.61	79.6813	9,849.61	79.5696	9,849.61	75.9221	9,849.61	75.5687	9,849.61	69.5712	9,849.61	70.6408	9,849.61	68.9594	9,849.61	61.9865	9,849.61	63.1699	9,849.61	68.1535	9,849.61	60.639	9,849.61	69.5608	9,849.61	57.3951	9,849.61	69.0754	9,849.61	61.0696	9,849.61	59.403	9,849.61	58.4064	9,849.61	55.7996	9,849.61	49.8379	9,849.61	61.594	9,849.61	60.9521	9,849.61	56.0192	9,849.61	57.8914	9,849.61	50.9511	9,849.61	47.394
10,195.3	86.6956	10,195.3	86.3392	10,195.3	85.5968	10,195.3	84.6584	10,195.3	84.8637	10,195.3	84.2362	10,195.3	84.6068	10,195.3	82.7538	10,195.3	84.4913	10,195.3	81.4803	10,195.3	79.7035	10,195.3	79.5143	10,195.3	79.4258	10,195.3	74.9382	10,195.3	71.262	10,195.3	69.1286	10,195.3	69.3667	10,195.3	66.0608	10,195.3	66.9433	10,195.3	61.1157	10,195.3	68.2011	10,195.3	59.4455	10,195.3	67.9844	10,195.3	58.2848	10,195.3	66.8626	10,195.3	61.823	10,195.3	57.4407	10,195.3	49.6128	10,195.3	57.051	10,195.3	57.7794	10,195.3	59.1497	10,195.3	58.7381	10,195.3	48.3871	10,195.3	59.3517	10,195.3	44.4948	10,195.3	48.3783
10,555.7	88.6502	10,555.7	88.0821	10,555.7	86.8855	10,555.7	86.2287	10,555.7	85.2003	10,555.7	85.1121	10,555.7	84.7855	10,555.7	83.0062	10,555.7	82.2068	10,555.7	80.3607	10,555.7	78.5222	10,555.7	78.147	10,555.7	75.4906	10,555.7	73.8099	10,555.7	70.1116	10,555.7	68.1386	10,555.7	65.8245	10,555.7	61.2194	10,555.7	63.9001	10,555.7	59.9167	10,555.7	58.7788	10,555.7	45.5754	10,555.7	66.6947	10,555.7	58.8217	10,555.7	63.1474	10,555.7	57.9418	10,555.7	55.0271	10,555.7	47.1544	10,555.7	55.0123	10,555.7	53.6087	10,555.7	51.5214	10,555.7	53.9056	10,555.7	51.9819	10,555.7	53.8599	10,555.7	45.7315	10,555.7	52.041
10,927.7	88.8624	10,927.7	88.3688	10,927.7	87.5123	10,927.7	86.8004	10,927.7	85.1735	10,927.7	85.457	10,927.7	83.3654	10,927.7	83.1215	10,927.7	80.8846	10,927.7	79.6283	10,927.7	78.484	10,927.7	76.4359	10,927.7	74.692	10,927.7	71.7912	10,927.7	69.3611	10,927.7	65.2001	10,927.7	59.3605	10,927.7	60.9583	10,927.7	64.1985	10,927.7	59.9955	10,927.7	59.6759	10,927.7	48.3155	10,927.7	65.2884	10,927.7	56.363	10,927.7	62.2996	10,927.7	54.6556	10,927.7	54.4265	10,927.7	46.5597	10,927.7	46.7134	10,927.7	52.2599	10,927.7	50.9405	10,927.7	52.8719	10,927.7	46.8198	10,927.7	43.9011	10,927.7	51.5103	10,927.7	40.506
11,314.5	89.0082	11,314.5	88.8053	11,314.5	87.6978	11,314.5	87.3023	11,314.5	85.4484	11,314.5	85.8086	11,314.5	83.0404	11,314.5	83.1522	11,314.5	80.5642	11,314.5	79.135	11,314.5	77.7644	11,314.5	74.9689	11,314.5	74.1982	11,314.5	69.5743	11,314.5	65.1869	11,314.5	65.0623	11,314.5	61.6999	11,314.5	62.0339	11,314.5	62.1122	11,314.5	57.0973	11,314.5	62.225	11,314.5	50.74	11,314.5	64.5197	11,314.5	54.7764	11,314.5	64.5801	11,314.5	54.0307	11,314.5	54.3778	11,314.5	53.2751	11,314.5	46.8549	11,314.5	53.8674	11,314.5	53.2197	11,314.5	48.3166	11,314.5	39.4114	11,314.5	43.3377	11,314.5	48.9764	11,314.5	45.4796
11,712.9	88.8667	11,712.9	88.9374	11,712.9	87.2394	11,712.9	87.3708	11,712.9	85.2698	11,712.9	85.9153	11,712.9	83.2978	11,712.9	83.429	11,712.9	81.0614	11,712.9	79.5075	11,712.9	76.9164	11,712.9	75.6893	11,712.9	71.8404	11,712.9	70.3932	11,712.9	66.2534	11,712.9	66.3862	11,712.9	61.9187	11,712.9	60.0953	11,712.9	60.9722	11,712.9	57.5885	11,712.9	58.7506	11,712.9	50.6234	11,712.9	66.9276	11,712.9	56.0739	11,712.9	66.3453	11,712.9	54.4042	11,712.9	57.8875	11,712.9	47.0974	11,712.9	53.8328	11,712.9	51.5155	11,712.9	53.3619	11,712.9	50.8453	11,712.9	41.3484	11,712.9	49.76	11,712.9	49.0243	11,712.9	47.1564
12,126	88.9712	12,126	88.9499	12,126	87.1648	12,126	87.0895	12,126	84.8479	12,126	85.3713	12,126	83.2402	12,126	82.9065	12,126	80.1081	12,126	78.2347	12,126	77.0176	12,126	74.1569	12,126	69.3765	12,126	68.8284	12,126	69.0429	12,126	63.3167	12,126	60.1894	12,126	57.5973	12,126	60.7765	12,126	56.7318	12,126	60.3191	12,126	49.8274	12,126	65.9065	12,126	54.0961	12,126	65.1506	12,126	46.6523	12,126	58.7246	12,126	52.475	12,126	42.9208	12,126	46.7201	12,126	48.3038	12,126	47.8433	12,126	32.5639	12,126	43.0378	12,126	48.9628	12,126	47.013
12,553.7	89.0204	12,553.7	88.5623	12,553.7	87.3189	12,553.7	86.7217	12,553.7	84.596	12,553.7	84.8846	12,553.7	82.0913	12,553.7	81.4509	12,553.7	78.9741	12,553.7	76.2753	12,553.7	73.9093	12,553.7	71.5578	12,553.7	66.2858	12,553.7	65.3526	12,553.7	64.1716	12,553.7	58.7843	12,553.7	51.9631	12,553.7	54.4788	12,553.7	55.2656	12,553.7	47.7612	12,553.7	56.7288	12,553.7	46.7463	12,553.7	64.6064	12,553.7	42.9293	12,553.7	64.2588	12,553.7	47.3852	12,553.7	55.9189	12,553.7	46.2226	12,553.7	50.5406	12,553.7	37.1565	12,553.7	41.7416	12,553.7	42.992	12,553.7	44.3417	12,553.7	40.0054	12,553.7	44.1844	12,553.7	41.0273
12,996.1	88.9988	12,996.1	88.6693	12,996.1	87.571	12,996.1	86.8745	12,996.1	84.9297	12,996.1	84.4781	12,996.1	81.5861	12,996.1	80.7135	12,996.1	77.711	12,996.1	75.534	12,996.1	69.7847	12,996.1	70.0766	12,996.1	67.1864	12,996.1	64.5099	12,996.1	58.5296	12,996.1	52.6331	12,996.1	53.7684	12,996.1	50.9163	12,996.1	52.0739	12,996.1	40.6975	12,996.1	58.8304	12,996.1	46.5152	12,996.1	64.8623	12,996.1	40.831	12,996.1	64.4222	12,996.1	42.7408	12,996.1	54.6339	12,996.1	47.6155	12,996.1	48.8394	12,996.1	43.3699	12,996.1	39.9631	12,996.1	33.3984	12,996.1	47.3759	12,996.1	31.5731	12,996.1	46.4817	12,996.1	42.6138
13,453.1	88.8594	13,453.1	89.105	13,453.1	87.4769	13,453.1	87.2874	13,453.1	84.8151	13,453.1	84.2076	13,453.1	80.9819	13,453.1	79.8875	13,453.1	75.9961	13,453.1	74.3803	13,453.1	68.7807	13,453.1	68.3713	13,453.1	65.4335	13,453.1	60.3379	13,453.1	56.6609	13,453.1	44.5121	13,453.1	51.6301	13,453.1	49.0906	13,453.1	48.9303	13,453.1	25.0379	13,453.1	57.0749	13,453.1	43.7221	13,453.1	63.8221	13,453.1	26.6397	13,453.1	64.3202	13,453.1	42.3465	13,453.1	53.5142	13,453.1	44.8512	13,453.1	47.728	13,453.1	39.8483	13,453.1	43.8553	13,453.1	32.0913	13,453.1	47.2511	13,453.1	31.9656	13,453.1	39.5375	13,453.1	37.474
13,927.7	88.6438	13,927.7	88.9839	13,927.7	87.2865	13,927.7	87.1725	13,927.7	84.5152	13,927.7	83.9141	13,927.7	79.937	13,927.7	78.9111	13,927.7	72.4353	13,927.7	72.07	13,927.7	65.7803	13,927.7	64.0431	13,927.7	61.6047	13,927.7	54.7844	13,927.7	59.698	13,927.7	47.4132	13,927.7	52.3127	13,927.7	43.3877	13,927.7	50.6819	13,927.7	42.7328	13,927.7	37.3868	13,927.7	32.0835	13,927.7	60.3626	13,927.7	34.4218	13,927.7	62.2361	13,927.7	31.6319	13,927.7	52.9884	13,927.7	33.8902	13,927.7	40.2027	13,927.7	32.8369	13,927.7	38.3878	13,927.7	42.7889	13,927.7	45.2389	13,927.7	39.2252	13,927.7	32.63	13,927.7	39.5392
14,419.9	89.2666	14,419.9	89.2121	14,419.9	87.7658	14,419.9	87.4339	14,419.9	84.4492	14,419.9	84.2245	14,419.9	79.3249	14,419.9	78.494	14,419.9	69.6253	14,419.9	68.8804	14,419.9	48.9694	14,419.9	53.7041	14,419.9	56.6414	14,419.9	54.3558	14,419.9	60.8833	14,419.9	56.9963	14,419.9	52.2342	14,419.9	45.7835	14,419.9	48.7649	14,419.9	51.7962	14,419.9	56.9515	14,419.9	36.2596	14,419.9	63.3899	14,419.9	45.2748	14,419.9	63.7779	14,419.9	47.1669	14,419.9	54.4365	14,419.9	39.5562	14,419.9	35.896	14,419.9	32.7167	14,419.9	46.502	14,419.9	49.6951	14,419.9	48.3349	14,419.9	44.8919	14,419.9	33.7472	14,419.9	38.319
14,929.7	89.4802	14,929.7	89.0701	14,929.7	87.6112	14,929.7	86.6785	14,929.7	83.9069	14,929.7	83.2673	14,929.7	78.6366	14,929.7	77.174	14,929.7	69.9576	14,929.7	66.8808	14,929.7	54.616	14,929.7	46.701	14,929.7	55.1381	14,929.7	50.3302	14,929.7	56.3337	14,929.7	52.5316	14,929.7	52.4026	14,929.7	43.3682	14,929.7	44.175	14,929.7	45.7275	14,929.7	47.8077	14,929.7	31.5959	14,929.7	60.4016	14,929.7	41.2805	14,929.7	61.3248	14,929.7	46.1608	14,929.7	50.1412	14,929.7	36.2687	14,929.7	37.664	14,929.7	35.4213	14,929.7	44.2744	14,929.7	44.8048	14,929.7	43.9907	14,929.7	47.0906	14,929.7	39.5798	14,929.7	34.8003
15,454.1	89.2838	15,454.1	88.8529	15,454.1	87.2733	15,454.1	85.9753	15,454.1	83.807	15,454.1	81.9615	15,454.1	77.3518	15,454.1	73.8554	15,454.1	63.4557	15,454.1	57.5952	15,454.1	56.2164	15,454.1	58.7925	15,454.1	63.7674	15,454.1	62.7975	15,454.1	61.8754	15,454.1	59.5367	15,454.1	54.8762	15,454.1	52.2333	15,454.1	51.4618	15,454.1	52.3006	15,454.1	48.6072	15,454.1	39.5436	15,454.1	60.5304	15,454.1	42.6826	15,454.1	61.4521	15,454.1	49.8588	15,454.1	52.4006	15,454.1	42.6767	15,454.1	38.234	15,454.1	41.2194	15,454.1	44.6944	15,454.1	46.3658	15,454.1	37.3164	15,454.1	46.979	15,454.1	39.2028	15,454.1	40.883
15,999	88.3014	15,999	87.9851	15,999	86.5691	15,999	85.2755	15,999	83.2095	15,999	80.8499	15,999	75.6383	15,999	71.3451	15,999	52.5512	15,999	46.7589	15,999	63.1494	15,999	61.7734	15,999	66.992	15,999	63.9555	15,999	63.6872	15,999	58.7866	15,999	53.8386	15,999	50.4498	15,999	52.3867	15,999	53.0011	15,999	52.3302	15,999	26.1044	15,999	57.0384	15,999	43.4	15,999	59.1107	15,999	50.6009	15,999	53.3264	15,999	47.7488	15,999	41.0171	15,999	43.7755	15,999	50.6702	15,999	51.1096	15,999	45.7211	15,999	47.9473	15,999	41.0855	15,999	42.5392
16,564.5	86.2327	16,564.5	85.9973	16,564.5	84.9801	16,564.5	83.7274	16,564.5	82.7266	16,564.5	79.6394	16,564.5	75.4178	16,564.5	70.7564	16,564.5	56.5909	16,564.5	35.5271	16,564.5	67.3084	16,564.5	64.7325	16,564.5	66.4346	16,564.5	63.4182	16,564.5	64.4891	16,564.5	60.0333	16,564.5	58.6096	16,564.5	52.0889	16,564.5	53.2947	16,564.5	53.3407	16,564.5	51.0153	16,564.5	43.0757	16,564.5	48.7127	16,564.5	48.7331	16,564.5	56.3999	16,564.5	51.7107	16,564.5	50.1111	16,564.5	49.5211	16,564.5	47.3064	16,564.5	47.4713	16,564.5	46.089	16,564.5	53.4741	16,564.5	41.6881	16,564.5	49.137	16,564.5	37.6737	16,564.5	44.9965
17,147.5	85.2795	17,147.5	85.0153	17,147.5	83.9345	17,147.5	82.1171	17,147.5	80.9888	17,147.5	77.1311	17,147.5	71.1904	17,147.5	65.5445	17,147.5	60.2399	17,147.5	61.9633	17,147.5	66.848	17,147.5	66.353	17,147.5	64.9374	17,147.5	62.9214	17,147.5	64.3147	17,147.5	61.6876	17,147.5	57.3899	17,147.5	52.4891	17,147.5	50.7179	17,147.5	51.3292	17,147.5	55.5397	17,147.5	45.3957	17,147.5	48.5824	17,147.5	47.8364	17,147.5	54.1064	17,147.5	50.3193	17,147.5	44.1496	17,147.5	44.4802	17,147.5	48.5969	17,147.5	48.18	17,147.5	48.5417	17,147.5	53.1606	17,147.5	47.3401	17,147.5	50.3378	17,147.5	36.2459	17,147.5	44.8899
17,753.9	85.8267	17,753.9	85.6158	17,753.9	84.1753	17,753.9	82.0664	17,753.9	79.8254	17,753.9	75.2038	17,753.9	65.1451	17,753.9	56.4461	17,753.9	62.4105	17,753.9	65.1545	17,753.9	67.6722	17,753.9	65.8248	17,753.9	67.2119	17,753.9	63.7506	17,753.9	64.3611	17,753.9	61.5454	17,753.9	58.5206	17,753.9	51.7203	17,753.9	52.1681	17,753.9	49.8179	17,753.9	55.4026	17,753.9	43.3199	17,753.9	42.1022	17,753.9	43.0695	17,753.9	54.1648	17,753.9	47.2232	17,753.9	44.1746	17,753.9	47.4065	17,753.9	48.2131	17,753.9	45.7224	17,753.9	44.8886	17,753.9	52.3557	17,753.9	46.4021	17,753.9	46.0368	17,753.9	43.8838	17,753.9	42.898
18,377.9	85.0659	18,377.9	84.9289	18,377.9	83.4028	18,377.9	80.9731	18,377.9	78.2045	18,377.9	72.4511	18,377.9	64.8434	18,377.9	61.6254	18,377.9	65.8837	18,377.9	66.492	18,377.9	69.7789	18,377.9	66.0934	18,377.9	65.2324	18,377.9	63.6702	18,377.9	64.87	18,377.9	58.8061	18,377.9	57.5881	18,377.9	47.6807	18,377.9	49.4367	18,377.9	45.7748	18,377.9	54.7346	18,377.9	44.8572	18,377.9	48.3846	18,377.9	46.1318	18,377.9	53.3711	18,377.9	50.3697	18,377.9	48.464	18,377.9	45.7891	18,377.9	49.3947	18,377.9	43.9569	18,377.9	47.0584	18,377.9	52.0126	18,377.9	48.2623	18,377.9	49.4772	18,377.9	45.8828	18,377.9	47.1588
19,028.3	84.1529	19,028.3	83.6976	19,028.3	82.7828	19,028.3	78.9627	19,028.3	77.0302	19,028.3	65.5711	19,028.3	64.5789	19,028.3	66.6793	19,028.3	67.5241	19,028.3	68.7322	19,028.3	67.2321	19,028.3	67.3647	19,028.3	65.5635	19,028.3	63.0141	19,028.3	62.3036	19,028.3	59.554	19,028.3	55.6017	19,028.3	50.0561	19,028.3	45.6884	19,028.3	45.0423	19,028.3	49.5982	19,028.3	47.0824	19,028.3	54.3464	19,028.3	50.1154	19,028.3	54.0808	19,028.3	50.5413	19,028.3	52.4484	19,028.3	45.2901	19,028.3	47.967	19,028.3	40.1115	19,028.3	51.2186	19,028.3	51.729	19,028.3	48.6196	19,028.3	52.5443	19,028.3	49.8795	19,028.3	48.266
19,699.2	83.1027	19,699.2	81.3655	19,699.2	82.3438	19,699.2	75.1542	19,699.2	76.531	19,699.2	57.3287	19,699.2	63.9838	19,699.2	69.409	19,699.2	65.7893	19,699.2	69.9187	19,699.2	66.6333	19,699.2	67.5253	19,699.2	63.1843	19,699.2	62.7011	19,699.2	59.8783	19,699.2	59.4817	19,699.2	52.2964	19,699.2	52.8264	19,699.2	44.2916	19,699.2	45.6856	19,699.2	45.2947	19,699.2	48.1178	19,699.2	54.5328	19,699.2	51.0383	19,699.2	54.7795	19,699.2	53.6505	19,699.2	51.5617	19,699.2	43.4344	19,699.2	45.6681	19,699.2	43.3044	19,699.2	46.1448	19,699.2	48.2298	19,699.2	46.2589	19,699.2	52.2983	19,699.2	50.2837	19,699.2	47.8003
19,998	82.3098	19,998	80.9779	19,998	81.4355	19,998	74.4109	19,998	75.251	19,998	62.9138	19,998	63.9621	19,998	69.4774	19,998	65.9625	19,998	69.5761	19,998	63.064	19,998	66.5566	19,998	61.4015	19,998	61.7411	19,998	58.5054	19,998	58.7626	19,998	33.7614	19,998	54.0892	19,998	47.3157	19,998	48.191	19,998	44.5844	19,998	49.8409	19,998	55.9449	19,998	50.8801	19,998	55.9999	19,998	55.3853	19,998	49.2474	19,998	51.3409	19,998	45.2432	19,998	44.501	19,998	46.1507	19,998	45.4692	19,998	47.1778	19,998	53.1529	19,998	44.6559	19,998	44.9708
