"Vertical Reflections"					
"Floor Reflection"		"Ceiling Reflection"		"Total Vertical Reflection"	
"Frequency [Hz]"	"Sound Pessure Level [dB]  / [2.83V 1m] "	"Frequency [Hz]"	"Sound Pessure Level [dB]  / [2.83V 1m] "	"Frequency [Hz]"	"Sound Pessure Level [dB]  / [2.83V 1m] "
20.5078	56.0195	20.5078	56.0006	20.5078	56.0101
23.4375	57.0222	23.4375	56.8889	23.4375	56.9561
26.3672	58.6327	26.3672	58.512	26.3672	58.5728
29.2969	59.6798	29.2969	59.5119	29.2969	59.5966
32.2266	60.5989	32.2266	60.3455	32.2266	60.474
35.1563	61.1309	35.1563	60.8484	35.1563	60.9919
38.0859	61.7143	38.0859	61.3747	38.0859	61.5478
41.0156	61.6366	41.0156	61.2962	41.0156	61.4697
43.9453	62.9469	43.9453	62.6373	43.9453	62.7949
46.875	65.7372	46.875	65.5004	46.875	65.6204
49.8047	69.6508	49.8047	69.4661	49.8047	69.5595
52.7344	73.1758	52.7344	73.0389	52.7344	73.1079
55.6641	76.1574	55.6641	76.0467	55.6641	76.1024
58.5938	78.5522	58.5938	78.4674	58.5938	78.51
61.5234	80.2331	61.5234	80.1483	61.5234	80.1909
64.4531	81.3987	64.4531	81.3257	64.4531	81.3624
67.3828	82.1824	67.3828	82.1329	67.3828	82.1577
70.3125	82.6398	70.3125	82.5531	70.3125	82.5966
73.2422	82.9491	73.2422	82.8881	73.2422	82.9187
76.1719	83.3058	76.1719	83.2499	76.1719	83.278
79.1016	83.4916	79.1016	83.4285	79.1016	83.4602
82.0313	83.6113	82.0313	83.5429	82.0313	83.5773
84.9609	83.7381	84.9609	83.6526	84.9609	83.6956
87.8906	83.7716	87.8906	83.7064	87.8906	83.7392
90.8203	83.7254	90.8203	83.6603	90.8203	83.6929
93.75	83.9836	93.75	83.9879	93.75	83.9857
96.6797	84.0598	96.6797	83.9883	96.6797	84.0242
102.539	83.8353	102.539	83.8455	102.539	83.8404
105.469	83.7968	105.469	83.8228	105.469	83.8098
108.398	83.8328	108.398	83.7846	108.398	83.8088
111.328	83.7988	111.328	83.7413	111.328	83.7701
117.188	83.6964	117.188	83.6822	117.188	83.6893
120.117	83.6858	120.117	83.6615	120.117	83.6737
125.977	83.3401	125.977	83.1784	125.977	83.26
128.906	83.0583	128.906	82.8924	128.906	82.9762
134.766	82.7428	134.766	82.6939	134.766	82.7184
137.695	82.6724	137.695	82.5946	137.695	82.6336
143.555	82.5557	143.555	82.3342	143.555	82.4464
149.414	82.3866	149.414	82.0939	149.414	82.2427
155.273	82.3734	155.273	82.1515	155.273	82.2639
158.203	82.4499	158.203	82.1685	158.203	82.3115
164.063	82.485	164.063	82.2477	164.063	82.3679
169.922	82.0859	169.922	81.9401	169.922	82.0136
175.781	82.0138	175.781	81.7983	175.781	81.9074
181.641	82.2892	181.641	81.9351	181.641	82.1158
190.43	82.3224	190.43	82.2479	190.43	82.2853
196.289	82.43	196.289	82.549	196.289	82.4899
202.148	82.5248	202.148	82.7849	202.148	82.6568
210.938	82.902	210.938	82.8219	210.938	82.8621
216.797	83.0492	216.797	82.9667	216.797	83.0082
225.586	83.4879	225.586	83.5183	225.586	83.5032
234.375	84.1439	234.375	83.9412	234.375	84.0437
240.234	84.2945	240.234	83.8595	240.234	84.0824
249.023	84.7804	249.023	84.0973	249.023	84.4522
257.813	85.1536	257.813	84.4637	257.813	84.8223
266.602	85.0789	266.602	84.0136	266.602	84.5788
278.32	84.9461	278.32	84.4261	278.32	84.6939
287.109	84.7022	287.109	84.8137	287.109	84.7583
295.898	84.9594	295.898	85.0266	295.898	84.9931
307.617	84.5824	307.617	84.2327	307.617	84.4111
319.336	84.1304	319.336	83.9026	319.336	84.018
331.055	84.1842	331.055	83.7084	331.055	83.9528
342.773	83.7258	342.773	83.3692	342.773	83.5512
354.492	84.1518	354.492	83.9206	354.492	84.0377
366.211	84.2616	366.211	84.3403	366.211	84.3011
377.93	84.6181	377.93	84.3409	377.93	84.4817
392.578	84.1037	392.578	83.4639	392.578	83.7956
407.227	84.2015	407.227	82.5799	407.227	83.4659
421.875	84.0494	421.875	83.0329	421.875	83.5708
436.523	84.4089	436.523	83.6643	436.523	84.0525
451.172	85.6813	451.172	84.5282	451.172	85.1429
465.82	85.1717	465.82	84.0564	465.82	84.6498
483.398	86.1359	483.398	85.7763	483.398	85.9598
500.977	85.8954	500.977	85.4755	500.977	85.6905
518.555	85.3611	518.555	85.1102	518.555	85.2375
536.133	85.3294	536.133	85.2126	536.133	85.2714
553.711	86.0478	553.711	85.7063	553.711	85.8804
574.219	85.8311	574.219	84.1612	574.219	85.0759
594.727	85.7925	594.727	84.2815	594.727	85.1024
615.234	86.1674	615.234	84.9355	615.234	85.595
638.672	86.6523	638.672	84.864	638.672	85.8495
659.18	85.8605	659.18	84.3844	659.18	85.1849
682.617	86.4167	682.617	84.6101	682.617	85.6067
706.055	86.5503	706.055	84.6902	706.055	85.7191
732.422	85.7061	732.422	84.1214	732.422	84.9857
758.789	86.4996	758.789	84.7406	758.789	85.7086
785.156	85.782	785.156	84.9521	785.156	85.3868
811.523	85.6181	811.523	85.2118	811.523	85.4197
840.82	84.5667	840.82	84.2938	840.82	84.4324
870.117	84.8882	870.117	83.3094	870.117	84.1702
902.344	84.7144	902.344	83.2726	902.344	84.0531
931.641	84.4475	931.641	83.4728	931.641	83.9874
966.797	83.9479	966.797	82.7204	966.797	83.3774
999.023	82.7952	999.023	81.2133	999.023	82.0759
1,034.18	83.4785	1,034.18	80.568	1,034.18	82.2626
1,072.27	82.9185	1,072.27	81.2684	1,072.27	82.1714
1,110.35	82.374	1,110.35	81.4466	1,110.35	81.935
1,148.44	82.2991	1,148.44	81.219	1,148.44	81.7925
1,189.45	81.6965	1,189.45	79.633	1,189.45	80.7862
1,230.47	81.931	1,230.47	79.2378	1,230.47	80.7899
1,274.41	81.9314	1,274.41	81.0984	1,274.41	81.5348
1,318.36	81.8259	1,318.36	81.0478	1,318.36	81.4543
1,365.23	81.4132	1,365.23	80.2791	1,365.23	80.883
1,415.04	81.7736	1,415.04	82.0767	1,415.04	81.9278
1,464.84	81.9686	1,464.84	82.2175	1,464.84	82.0948
1,514.65	82.7338	1,514.65	82.1022	1,514.65	82.4294
1,570.31	83.2653	1,570.31	82.6947	1,570.31	82.9894
1,623.05	82.9663	1,623.05	82.0778	1,623.05	82.5447
1,681.64	84.3151	1,681.64	82.2549	1,681.64	83.4061
1,740.23	84.4048	1,740.23	82.7445	1,740.23	83.6535
1,801.76	84.5771	1,801.76	82.7665	1,801.76	83.7654
1,866.21	85.0506	1,866.21	82.7815	1,866.21	84.0626
1,930.66	85.0904	1,930.66	82.7274	1,930.66	84.0676
2,000.98	83.8233	2,000.98	82.2874	2,000.98	83.1229
2,071.29	83.9004	2,071.29	83.0498	2,071.29	83.4959
2,144.53	84.307	2,144.53	83.2742	2,144.53	83.8212
2,217.77	84.5422	2,217.77	83.3774	2,217.77	83.9987
2,296.88	83.976	2,296.88	83.0195	2,296.88	83.524
2,378.91	84.3535	2,378.91	82.3957	2,378.91	83.484
2,460.94	83.8824	2,460.94	82.2876	2,460.94	83.1578
2,548.83	83.4688	2,548.83	81.7986	2,548.83	82.7135
2,639.65	83.019	2,639.65	81.3357	2,639.65	82.2584
2,733.4	82.3854	2,733.4	80.661	2,733.4	81.6082
2,827.15	82.5413	2,827.15	81.1136	2,827.15	81.8859
2,926.76	83.4439	2,926.76	81.0527	2,926.76	82.4108
3,032.23	83.8127	3,032.23	81.2586	3,032.23	82.7207
3,137.7	83.9074	3,137.7	81.7636	3,137.7	82.9664
3,249.02	83.9213	3,249.02	81.5528	3,249.02	82.8966
3,363.28	84.3478	3,363.28	81.4735	3,363.28	83.1442
3,483.4	84.2273	3,483.4	81.4621	3,483.4	83.0612
3,606.45	83.901	3,606.45	81.4799	3,606.45	82.857
3,732.42	83.4814	3,732.42	80.8012	3,732.42	82.3449
3,864.26	82.8304	3,864.26	80.4179	3,864.26	81.7896
3,999.02	82.5707	3,999.02	79.634	3,999.02	81.346
4,139.65	82.0877	4,139.65	79.3847	4,139.65	80.9432
4,286.13	81.3793	4,286.13	79.2255	4,286.13	80.4346
4,438.48	80.5336	4,438.48	77.7921	4,438.48	79.3757
4,593.75	80.3589	4,593.75	78.1032	4,593.75	79.3758
4,757.81	80.4391	4,757.81	78.255	4,757.81	79.4829
4,924.8	81.8416	4,924.8	79.0288	4,924.8	80.6591
5,097.66	82.5657	5,097.66	80.4146	5,097.66	81.622
5,279.3	82.7459	5,279.3	81.0274	5,279.3	81.9711
5,463.87	82.2397	5,463.87	81.5499	5,463.87	81.9085
5,657.23	82.8215	5,657.23	81.3674	5,657.23	82.155
5,856.45	83.612	5,856.45	80.9068	5,856.45	82.4667
6,061.52	84.0851	6,061.52	81.0317	6,061.52	82.8214
6,275.39	83.5216	6,275.39	81.2306	6,275.39	82.5254
6,498.05	81.9285	6,498.05	81.0665	6,498.05	81.5189
6,726.56	81.1875	6,726.56	80.9156	6,726.56	81.0537
6,963.87	80.9986	6,963.87	80.4504	6,963.87	80.7332
7,209.96	82.5772	7,209.96	80.1359	7,209.96	81.5259
7,464.84	82.9924	7,464.84	80.5645	7,464.84	81.946
7,728.52	82.5744	7,728.52	80.0652	7,728.52	81.4985
8,000.98	82.5563	8,000.98	80.0451	8,000.98	81.4798
8,282.23	82.1	8,282.23	79.7813	8,282.23	81.0936
8,575.2	81.3475	8,575.2	80.7796	8,575.2	81.0728
8,876.95	82.3523	8,876.95	81.3668	8,876.95	81.8875
9,190.43	84.0025	9,190.43	81.3998	9,190.43	82.8933
9,512.7	83.6066	9,512.7	81.4296	9,512.7	82.6531
9,849.61	83.608	9,849.61	81.4492	9,849.61	82.6614
10,195.3	84.6567	10,195.3	81.4464	10,195.3	83.3417
10,555.7	84.2508	10,555.7	80.9545	10,555.7	82.9081
10,927.7	83.4814	10,927.7	80.5563	10,927.7	82.2606
11,314.5	83.4628	11,314.5	80.28	11,314.5	82.1567
11,712.9	83.5402	11,712.9	80.6268	11,712.9	82.3234
12,126	83.1439	12,126	79.8215	12,126	81.7929
12,553.7	82.463	12,553.7	78.1601	12,553.7	80.824
12,996.1	82.3407	12,996.1	77.3718	12,996.1	80.5312
13,453.1	81.933	13,453.1	76.4258	13,453.1	79.9995
13,927.7	81.2375	13,927.7	75.0725	13,927.7	79.1678
14,419.9	80.9498	14,419.9	74.1863	14,419.9	78.7698
14,929.7	80.3983	14,929.7	72.7944	14,929.7	78.0833
15,454.1	79.9539	15,454.1	69.316	15,454.1	77.3033
15,999	79.1416	15,999	67.0421	15,999	76.3912
16,564.5	78.7045	16,564.5	66.9547	16,564.5	75.9752
17,147.5	76.6832	17,147.5	64.9943	17,147.5	73.9577
17,753.9	75.2751	17,753.9	64.0034	17,753.9	72.5773
18,377.9	73.8658	18,377.9	65.2202	18,377.9	71.4116
19,028.3	72.9368	19,028.3	67.6776	19,028.3	71.0589
19,699.2	72.3286	19,699.2	69.0667	19,699.2	70.9969
19,998	71.243	19,998	68.7432	19,998	70.1706
