"SPL Vertical"																																																																							
"On-Axis"		"10°"		"-10°"		"20°"		"-20°"		"30°"		"-30°"		"40°"		"-40°"		"50°"		"-50°"		"60°"		"-60°"		"70°"		"-70°"		"80°"		"-80°"		"90°"		"-90°"		"100°"		"-100°"		"110°"		"-110°"		"120°"		"-120°"		"130°"		"-130°"		"140°"		"-140°"		"150°"		"-150°"		"160°"		"-160°"		"170°"		"-170°"		"180°"	
"Frequency [Hz]"	"Sound Pessure Level [dB]  / [2.83V 1m] "	"Frequency [Hz]"	"Sound Pessure Level [dB]  / [2.83V 1m] "	"Frequency [Hz]"	"Sound Pessure Level [dB]  / [2.83V 1m] "	"Frequency [Hz]"	"Sound Pessure Level [dB]  / [2.83V 1m] "	"Frequency [Hz]"	"Sound Pessure Level [dB]  / [2.83V 1m] "	"Frequency [Hz]"	"Sound Pessure Level [dB]  / [2.83V 1m] "	"Frequency [Hz]"	"Sound Pessure Level [dB]  / [2.83V 1m] "	"Frequency [Hz]"	"Sound Pessure Level [dB]  / [2.83V 1m] "	"Frequency [Hz]"	"Sound Pessure Level [dB]  / [2.83V 1m] "	"Frequency [Hz]"	"Sound Pessure Level [dB]  / [2.83V 1m] "	"Frequency [Hz]"	"Sound Pessure Level [dB]  / [2.83V 1m] "	"Frequency [Hz]"	"Sound Pessure Level [dB]  / [2.83V 1m] "	"Frequency [Hz]"	"Sound Pessure Level [dB]  / [2.83V 1m] "	"Frequency [Hz]"	"Sound Pessure Level [dB]  / [2.83V 1m] "	"Frequency [Hz]"	"Sound Pessure Level [dB]  / [2.83V 1m] "	"Frequency [Hz]"	"Sound Pessure Level [dB]  / [2.83V 1m] "	"Frequency [Hz]"	"Sound Pessure Level [dB]  / [2.83V 1m] "	"Frequency [Hz]"	"Sound Pessure Level [dB]  / [2.83V 1m] "	"Frequency [Hz]"	"Sound Pessure Level [dB]  / [2.83V 1m] "	"Frequency [Hz]"	"Sound Pessure Level [dB]  / [2.83V 1m] "	"Frequency [Hz]"	"Sound Pessure Level [dB]  / [2.83V 1m] "	"Frequency [Hz]"	"Sound Pessure Level [dB]  / [2.83V 1m] "	"Frequency [Hz]"	"Sound Pessure Level [dB]  / [2.83V 1m] "	"Frequency [Hz]"	"Sound Pessure Level [dB]  / [2.83V 1m] "	"Frequency [Hz]"	"Sound Pessure Level [dB]  / [2.83V 1m] "	"Frequency [Hz]"	"Sound Pessure Level [dB]  / [2.83V 1m] "	"Frequency [Hz]"	"Sound Pessure Level [dB]  / [2.83V 1m] "	"Frequency [Hz]"	"Sound Pessure Level [dB]  / [2.83V 1m] "	"Frequency [Hz]"	"Sound Pessure Level [dB]  / [2.83V 1m] "	"Frequency [Hz]"	"Sound Pessure Level [dB]  / [2.83V 1m] "	"Frequency [Hz]"	"Sound Pessure Level [dB]  / [2.83V 1m] "	"Frequency [Hz]"	"Sound Pessure Level [dB]  / [2.83V 1m] "	"Frequency [Hz]"	"Sound Pessure Level [dB]  / [2.83V 1m] "	"Frequency [Hz]"	"Sound Pessure Level [dB]  / [2.83V 1m] "	"Frequency [Hz]"	"Sound Pessure Level [dB]  / [2.83V 1m] "	"Frequency [Hz]"	"Sound Pessure Level [dB]  / [2.83V 1m] "
20.5078	44.0659	20.5078	44.0295	20.5078	44.0962	20.5078	43.9905	20.5078	44.1178	20.5078	43.9526	20.5078	44.1289	20.5078	43.9193	20.5078	44.1287	20.5078	43.8943	20.5078	44.1178	20.5078	43.8802	20.5078	44.098	20.5078	43.879	20.5078	44.0725	20.5078	43.8915	20.5078	44.0456	20.5078	43.9175	20.5078	44.0221	20.5078	43.956	20.5078	44.0071	20.5078	44.0045	20.5078	44.0045	20.5078	44.0597	20.5078	44.0169	20.5078	44.1173	20.5078	44.0447	20.5078	44.1718	20.5078	44.0853	20.5078	44.2173	20.5078	44.1335	20.5078	44.2479	20.5078	44.1823	20.5078	44.2598	20.5078	44.2238	20.5078	44.2512
21.2402	46.1387	21.2402	46.1962	21.2402	46.0324	21.2402	46.2055	21.2402	45.8769	21.2402	46.1678	21.2402	45.6728	21.2402	46.0844	21.2402	45.4218	21.2402	45.9578	21.2402	45.1281	21.2402	45.7915	21.2402	44.7989	21.2402	45.591	21.2402	44.446	21.2402	45.3643	21.2402	44.086	21.2402	45.122	21.2402	43.7409	21.2402	44.877	21.2402	43.4361	21.2402	44.6427	21.2402	43.197	21.2402	44.4303	21.2402	43.043	21.2402	44.2463	21.2402	42.9822	21.2402	44.09	21.2402	43.0082	21.2402	43.9537	21.2402	43.1026	21.2402	43.8255	21.2402	43.2401	21.2402	43.6935	21.2402	43.3956	21.2402	43.55
21.9727	44.8226	21.9727	44.8081	21.9727	44.8107	21.9727	44.7708	21.9727	44.7711	21.9727	44.7167	21.9727	44.7049	21.9727	44.6537	21.9727	44.6156	21.9727	44.5922	21.9727	44.5096	21.9727	44.5437	21.9727	44.3961	21.9727	44.5202	21.9727	44.2872	21.9727	44.5319	21.9727	44.197	21.9727	44.585	21.9727	44.1403	21.9727	44.6799	21.9727	44.1304	21.9727	44.8099	21.9727	44.1767	21.9727	44.9617	21.9727	44.2813	21.9727	45.1176	21.9727	44.4379	21.9727	45.2576	21.9727	44.632	21.9727	45.3631	21.9727	44.8424	21.9727	45.4185	21.9727	45.0458	21.9727	45.414	21.9727	45.2198	21.9727	45.3464
22.7051	49.1668	22.7051	49.1256	22.7051	49.186	22.7051	49.0653	22.7051	49.1819	22.7051	48.9898	22.7051	49.1543	22.7051	48.9043	22.7051	49.1046	22.7051	48.8149	22.7051	49.036	22.7051	48.7287	22.7051	48.9535	22.7051	48.6529	22.7051	48.8635	22.7051	48.5945	22.7051	48.7741	22.7051	48.559	22.7051	48.6939	22.7051	48.5498	22.7051	48.6314	22.7051	48.5668	22.7051	48.5931	22.7051	48.6064	22.7051	48.5826	22.7051	48.6611	22.7051	48.5996	22.7051	48.7214	22.7051	48.6392	22.7051	48.7765	22.7051	48.6927	22.7051	48.8167	22.7051	48.7492	22.7051	48.8349	22.7051	48.7974	22.7051	48.828
23.4375	47.8087	23.4375	47.7526	23.4375	47.8158	23.4375	47.6503	23.4375	47.7719	23.4375	47.5053	23.4375	47.6756	23.4375	47.3222	23.4375	47.5268	23.4375	47.1071	23.4375	47.3267	23.4375	46.868	23.4375	47.0789	23.4375	46.6149	23.4375	46.7899	23.4375	46.3603	23.4375	46.4702	23.4375	46.1179	23.4375	46.1349	23.4375	45.9011	23.4375	45.8043	23.4375	45.7208	23.4375	45.5025	23.4375	45.5823	23.4375	45.2539	23.4375	45.4832	23.4375	45.0782	23.4375	45.4139	23.4375	44.9841	23.4375	45.36	23.4375	44.9662	23.4375	45.3066	23.4375	45.0067	23.4375	45.2426	23.4375	45.0808	23.4375	45.1651
24.1699	45.4836	24.1699	45.4959	24.1699	45.4196	24.1699	45.4606	24.1699	45.3027	24.1699	45.3847	24.1699	45.1348	24.1699	45.2787	24.1699	44.9213	24.1699	45.1567	24.1699	44.6727	24.1699	45.0368	24.1699	44.4056	24.1699	44.9395	24.1699	44.1444	24.1699	44.8853	24.1699	43.9217	24.1699	44.8908	24.1699	43.7745	24.1699	44.9639	24.1699	43.7369	24.1699	45.1003	24.1699	43.8285	24.1699	45.2836	24.1699	44.0449	24.1699	45.4878	24.1699	44.3575	24.1699	45.6829	24.1699	44.722	24.1699	45.8395	24.1699	45.0906	24.1699	45.9325	24.1699	45.4218	24.1699	45.9435	24.1699	45.6851	24.1699	45.8616
25.6348	49.0004	25.6348	48.9382	25.6348	49.0129	25.6348	48.8315	25.6348	48.974	25.6348	48.6883	25.6348	48.8845	25.6348	48.5208	25.6348	48.7489	25.6348	48.3457	25.6348	48.576	25.6348	48.1838	25.6348	48.3802	25.6348	48.0595	25.6348	48.1822	25.6348	47.9965	25.6348	48.0085	25.6348	48.0129	25.6348	47.8893	25.6348	48.1154	25.6348	47.8521	25.6348	48.2958	25.6348	47.9135	25.6348	48.5318	25.6348	48.0728	25.6348	48.7924	25.6348	48.3099	25.6348	49.0438	25.6348	48.591	25.6348	49.2551	25.6348	48.8772	25.6348	49.4016	25.6348	49.132	25.6348	49.4664	25.6348	49.3265	25.6348	49.4412
26.3672	49.6003	26.3672	49.5531	26.3672	49.5969	26.3672	49.4605	26.3672	49.5408	26.3672	49.3309	26.3672	49.4327	26.3672	49.1766	26.3672	49.2772	26.3672	49.0144	26.3672	49.0829	26.3672	48.8652	26.3672	48.8649	26.3672	48.7527	26.3672	48.6448	26.3672	48.6999	26.3672	48.4515	26.3672	48.7238	26.3672	48.318	26.3672	48.8301	26.3672	48.2751	26.3672	49.0098	26.3672	48.342	26.3672	49.2407	26.3672	48.5178	26.3672	49.4922	26.3672	48.78	26.3672	49.7312	26.3672	49.0912	26.3672	49.9274	26.3672	49.4086	26.3672	50.0565	26.3672	49.6933	26.3672	50.1018	26.3672	49.9153	26.3672	50.0547
27.0996	50.8747	27.0996	50.836	27.0996	50.871	27.0996	50.7602	27.0996	50.8233	27.0996	50.6557	27.0996	50.7334	27.0996	50.5351	27.0996	50.6067	27.0996	50.4152	27.0996	50.4536	27.0996	50.3161	27.0996	50.2895	27.0996	50.2596	27.0996	50.1361	27.0996	50.2653	27.0996	50.0196	27.0996	50.3456	27.0996	49.9676	27.0996	50.5018	27.0996	50.0025	27.0996	50.722	27.0996	50.1344	27.0996	50.9832	27.0996	50.3562	27.0996	51.2561	27.0996	50.6437	27.0996	51.5103	27.0996	50.9623	27.0996	51.7183	27.0996	51.2749	27.0996	51.8581	27.0996	51.5479	27.0996	51.9148	27.0996	51.7555	27.0996	51.8805
27.832	51.4509	27.832	51.4067	27.832	51.4533	27.832	51.3263	27.832	51.4124	27.832	51.2192	27.832	51.3304	27.832	51.0996	27.832	51.2142	27.832	50.9861	27.832	51.0761	27.832	50.901	27.832	50.9342	27.832	50.8677	27.832	50.8125	27.832	50.9062	27.832	50.739	27.832	51.0277	27.832	50.7408	27.832	51.2305	27.832	50.8367	27.832	51.4993	27.832	51.0303	27.832	51.8077	27.832	51.3072	27.832	52.1242	27.832	51.6377	27.832	52.4174	27.832	51.9848	27.832	52.6595	27.832	52.3115	27.832	52.829	27.832	52.5866	27.832	52.9108	27.832	52.7867	27.832	52.897
29.2969	53.0626	29.2969	52.9845	29.2969	53.0983	29.2969	52.8701	29.2969	53.0893	29.2969	52.7307	29.2969	53.0378	29.2969	52.5827	29.2969	52.9502	29.2969	52.4479	29.2969	52.8381	29.2969	52.3522	29.2969	52.7186	29.2969	52.3221	29.2969	52.6144	29.2969	52.3791	29.2969	52.5521	29.2969	52.5329	29.2969	52.5576	29.2969	52.7772	29.2969	52.6501	29.2969	53.0906	29.2969	52.8346	29.2969	53.4412	29.2969	53.0992	29.2969	53.7935	29.2969	53.4171	29.2969	54.1145	29.2969	53.7531	29.2969	54.3768	29.2969	54.0713	29.2969	54.5597	29.2969	54.3403	29.2969	54.6501	29.2969	54.5358	29.2969	54.6419
30.0293	54.5921	30.0293	54.5327	30.0293	54.6146	30.0293	54.4427	30.0293	54.5982	30.0293	54.3324	30.0293	54.5445	30.0293	54.2169	30.0293	54.4596	30.0293	54.1152	30.0293	54.3544	30.0293	54.0495	30.0293	54.2449	30.0293	54.0417	30.0293	54.1522	30.0293	54.1092	30.0293	54.101	30.0293	54.2593	30.0293	54.115	30.0293	54.4867	30.0293	54.2114	30.0293	54.7733	30.0293	54.3945	30.0293	55.0919	30.0293	54.653	30.0293	55.4117	30.0293	54.9618	30.0293	55.7029	30.0293	55.2881	30.0293	55.9401	30.0293	55.5979	30.0293	56.1036	30.0293	55.8612	30.0293	56.1803	30.0293	56.055	30.0293	56.164
31.4941	56.335	31.4941	56.2506	31.4941	56.3766	31.4941	56.1307	31.4941	56.3725	31.4941	55.987	31.4941	56.3242	31.4941	55.8367	31.4941	56.2372	31.4941	55.7019	31.4941	56.1227	31.4941	55.6088	31.4941	55.9976	31.4941	55.5836	31.4941	55.8847	31.4941	55.6468	31.4941	55.8116	31.4941	55.8072	31.4941	55.8059	31.4941	56.0573	31.4941	55.8885	31.4941	56.3749	31.4941	56.0664	31.4941	56.7277	31.4941	56.3285	31.4941	57.0803	31.4941	56.6478	31.4941	57.3996	31.4941	56.9883	31.4941	57.6585	31.4941	57.313	31.4941	57.8368	31.4941	57.5894	31.4941	57.9213	31.4941	57.7927	31.4941	57.9062
32.2266	57.9009	32.2266	57.8191	32.2266	57.9394	32.2266	57.7004	32.2266	57.9317	32.2266	57.5553	32.2266	57.8786	32.2266	57.3987	32.2266	57.7849	32.2266	57.2504	32.2266	57.6601	32.2266	57.1336	32.2266	57.519	32.2266	57.0727	32.2266	57.3827	32.2266	57.0886	32.2266	57.2768	32.2266	57.1929	32.2266	57.2288	32.2266	57.3834	32.2266	57.2613	32.2266	57.6434	32.2266	57.3851	32.2266	57.9453	32.2266	57.5941	32.2266	58.2563	32.2266	57.8658	32.2266	58.5442	32.2266	58.1668	32.2266	58.7812	32.2266	58.461	32.2266	58.946	32.2266	58.7154	32.2266	59.0246	32.2266	58.9043	32.2266	59.0103
33.6914	58.9659	33.6914	58.8833	33.6914	59.0013	33.6914	58.7615	33.6914	58.9862	33.6914	58.6134	33.6914	58.9215	33.6914	58.4578	33.6914	58.8133	33.6914	58.3191	33.6914	58.6735	33.6914	58.2262	33.6914	58.5208	33.6914	58.2078	33.6914	58.3817	33.6914	58.2863	33.6914	58.2885	33.6914	58.4698	33.6914	58.274	33.6914	58.7485	33.6914	58.3634	33.6914	59.0958	33.6914	58.5643	33.6914	59.4758	33.6914	58.8628	33.6914	59.85	33.6914	59.2264	33.6914	60.1838	33.6914	59.6133	33.6914	60.4494	33.6914	59.9819	33.6914	60.6263	33.6914	60.2969	33.6914	60.7017	33.6914	60.532	33.6914	60.6698
34.4238	59.6708	34.4238	59.5924	34.4238	59.7034	34.4238	59.4762	34.4238	59.6869	34.4238	59.3353	34.4238	59.6228	34.4238	59.1884	34.4238	59.5172	34.4238	59.0599	34.4238	59.3826	34.4238	58.9784	34.4238	59.238	34.4238	58.9718	34.4238	59.11	34.4238	59.061	34.4238	59.0301	34.4238	59.2529	34.4238	59.0301	34.4238	59.5367	34.4238	59.1332	34.4238	59.886	34.4238	59.3452	34.4238	60.2653	34.4238	59.651	34.4238	60.6372	34.4238	60.0179	34.4238	60.9683	34.4238	60.4049	34.4238	61.2314	34.4238	60.7715	34.4238	61.4068	34.4238	61.0835	34.4238	61.482	34.4238	61.3155	34.4238	61.4512
35.8887	61.6422	35.8887	61.5835	35.8887	61.6646	35.8887	61.4961	35.8887	61.6477	35.8887	61.3923	35.8887	61.5929	35.8887	61.2894	35.8887	61.5067	35.8887	61.2091	35.8887	61.401	35.8887	61.1752	35.8887	61.2935	35.8887	61.2102	35.8887	61.2078	35.8887	61.3292	35.8887	61.1711	35.8887	61.5355	35.8887	61.209	35.8887	61.8179	35.8887	61.3389	35.8887	62.1527	35.8887	61.5631	35.8887	62.5092	35.8887	61.867	35.8887	62.8551	35.8887	62.2216	35.8887	63.1607	35.8887	62.591	35.8887	63.4019	35.8887	62.9395	35.8887	63.5607	35.8887	63.2364	35.8887	63.6255	35.8887	63.4588	35.8887	63.5912
37.3535	63.8599	37.3535	63.8135	37.3535	63.8737	37.3535	63.7411	37.3535	63.8521	37.3535	63.6536	37.3535	63.7967	37.3535	63.5661	37.3535	63.7134	37.3535	63.4972	37.3535	63.6132	37.3535	63.4675	37.3535	63.5122	37.3535	63.4962	37.3535	63.4318	37.3535	63.5968	37.3535	63.3959	37.3535	63.7731	37.3535	63.4272	37.3535	64.0171	37.3535	63.5414	37.3535	64.3096	37.3535	63.7409	37.3535	64.6243	37.3535	64.0135	37.3535	64.9325	37.3535	64.3338	37.3535	65.2069	37.3535	64.6698	37.3535	65.4245	37.3535	64.9889	37.3535	65.5679	37.3535	65.2624	37.3535	65.6255	37.3535	65.4684	37.3535	65.592
38.8184	66.177	38.8184	66.1322	38.8184	66.1908	38.8184	66.0622	38.8184	66.1714	38.8184	65.9761	38.8184	66.1203	38.8184	65.8868	38.8184	66.0424	38.8184	65.8102	38.8184	65.9473	38.8184	65.7643	38.8184	65.8488	38.8184	65.7663	38.8184	65.7651	38.8184	65.8299	38.8184	65.717	38.8184	65.9607	38.8184	65.7248	38.8184	66.1547	38.8184	65.8033	38.8184	66.3973	38.8184	65.9573	38.8184	66.6665	38.8184	66.1783	38.8184	66.9366	38.8184	66.4466	38.8184	67.1819	38.8184	66.7344	38.8184	67.3798	38.8184	67.012	38.8184	67.5126	38.8184	67.2524	38.8184	67.5686	38.8184	67.4341	38.8184	67.5421
39.5508	66.98	39.5508	66.9258	39.5508	67.0023	39.5508	66.8456	39.5508	66.9902	39.5508	66.7486	39.5508	66.9449	39.5508	66.6477	39.5508	66.8709	39.5508	66.5592	39.5508	66.7772	39.5508	66.5011	39.5508	66.6767	39.5508	66.4914	39.5508	66.587	39.5508	66.5441	39.5508	66.5285	39.5508	66.6655	39.5508	66.5214	39.5508	66.8516	39.5508	66.5816	39.5508	67.0882	39.5508	66.7154	39.5508	67.353	39.5508	66.9168	39.5508	67.6199	39.5508	67.1675	39.5508	67.863	39.5508	67.4409	39.5508	68.0595	39.5508	67.7077	39.5508	68.1917	39.5508	67.9406	39.5508	68.2478	39.5508	68.1174	39.5508	68.2226
41.0156	69.1417	41.0156	69.1158	41.0156	69.1418	41.0156	69.0688	41.0156	69.1142	41.0156	69.0085	41.0156	69.0602	41.0156	68.9453	41.0156	68.9844	41.0156	68.8921	41.0156	68.8953	41.0156	68.8633	41.0156	68.8052	41.0156	68.8727	41.0156	68.7303	41.0156	68.9314	41.0156	68.6887	41.0156	69.0446	41.0156	68.698	41.0156	69.2099	41.0156	68.7714	41.0156	69.4164	41.0156	68.9129	41.0156	69.6467	41.0156	69.1157	41.0156	69.8791	41.0156	69.3622	41.0156	70.091	41.0156	69.6279	41.0156	70.262	41.0156	69.8859	41.0156	70.3753	41.0156	70.1111	41.0156	70.4194	41.0156	70.2833	41.0156	70.3885
42.4805	71.1114	42.4805	71.0704	42.4805	71.1263	42.4805	71.0072	42.4805	71.114	42.4805	70.928	42.4805	71.0759	42.4805	70.842	42.4805	71.016	42.4805	70.7606	42.4805	70.9415	42.4805	70.6971	42.4805	70.8623	42.4805	70.6653	42.4805	70.7911	42.4805	70.6769	42.4805	70.7424	42.4805	70.7395	42.4805	70.7304	42.4805	70.8536	42.4805	70.7663	42.4805	71.0122	42.4805	70.855	42.4805	71.2008	42.4805	70.9931	42.4805	71.4004	42.4805	71.1687	42.4805	71.5901	42.4805	71.3632	42.4805	71.7502	42.4805	71.5546	42.4805	71.8643	42.4805	71.7215	42.4805	71.921	42.4805	71.8458	42.4805	71.9146
43.9453	72.78	43.9453	72.7382	43.9453	72.7953	43.9453	72.6735	43.9453	72.7829	43.9453	72.5918	43.9453	72.7436	43.9453	72.5013	43.9453	72.6806	43.9453	72.4122	43.9453	72.6	43.9453	72.3368	43.9453	72.5103	43.9453	72.2875	43.9453	72.4228	43.9453	72.2757	43.9453	72.3509	43.9453	72.309	43.9453	72.3085	43.9453	72.3894	43.9453	72.3074	43.9453	72.5117	43.9453	72.355	43.9453	72.6638	43.9453	72.4512	43.9453	72.8291	43.9453	72.5874	43.9453	72.9882	43.9453	72.7482	43.9453	73.1226	43.9453	72.9137	43.9453	73.2168	43.9453	73.0633	43.9453	73.26	43.9453	73.1789	43.9453	73.247
45.4102	74.5067	45.4102	74.4627	45.4102	74.5241	45.4102	74.3951	45.4102	74.5135	45.4102	74.3093	45.4102	74.4754	45.4102	74.2126	45.4102	74.4128	45.4102	74.1142	45.4102	74.3305	45.4102	74.0251	45.4102	74.2359	45.4102	73.9569	45.4102	74.1391	45.4102	73.9206	45.4102	74.052	45.4102	73.924	45.4102	73.9875	45.4102	73.9704	45.4102	73.9575	45.4102	74.0568	45.4102	73.9701	45.4102	74.1738	45.4102	74.0275	45.4102	74.3069	45.4102	74.1242	45.4102	74.4388	45.4102	74.2477	45.4102	74.5525	45.4102	74.3807	45.4102	74.6332	45.4102	74.5045	45.4102	74.6705	45.4102	74.6018	45.4102	74.6597
47.6074	76.9455	47.6074	76.9058	47.6074	76.9595	47.6074	76.8431	47.6074	76.9467	47.6074	76.7619	47.6074	76.9077	47.6074	76.6681	47.6074	76.8445	47.6074	76.5696	47.6074	76.7615	47.6074	76.4754	47.6074	76.6648	47.6074	76.3956	47.6074	76.5627	47.6074	76.3398	47.6074	76.4658	47.6074	76.3157	47.6074	76.3852	47.6074	76.3276	47.6074	76.3319	47.6074	76.3746	47.6074	76.3144	47.6074	76.4504	47.6074	76.3361	47.6074	76.5438	47.6074	76.3944	47.6074	76.6407	47.6074	76.4802	47.6074	76.7263	47.6074	76.5794	47.6074	76.7873	47.6074	76.676	47.6074	76.8143	47.6074	76.7545	47.6074	76.803
49.0723	78.4632	49.0723	78.4222	49.0723	78.479	49.0723	78.3583	49.0723	78.4684	49.0723	78.2756	49.0723	78.4318	49.0723	78.1793	49.0723	78.3712	49.0723	78.0764	49.0723	78.2901	49.0723	77.9753	49.0723	78.1939	49.0723	77.885	49.0723	78.09	49.0723	77.8148	49.0723	77.9876	49.0723	77.7722	49.0723	77.8971	49.0723	77.762	49.0723	77.8286	49.0723	77.7848	49.0723	77.7906	49.0723	77.8359	49.0723	77.7875	49.0723	77.9061	49.0723	77.8182	49.0723	77.9831	49.0723	77.8759	49.0723	78.0536	49.0723	77.9489	49.0723	78.1055	49.0723	78.0231	49.0723	78.1298	49.0723	78.0847	49.0723	78.1224
50.5371	79.7868	50.5371	79.7453	50.5371	79.8034	50.5371	79.6812	50.5371	79.7941	50.5371	79.5981	50.5371	79.7591	50.5371	79.5008	50.5371	79.7001	50.5371	79.3958	50.5371	79.6201	50.5371	79.2907	50.5371	79.524	50.5371	79.1938	50.5371	79.4185	50.5371	79.1139	50.5371	79.3119	50.5371	79.0584	50.5371	79.2138	50.5371	79.0324	50.5371	79.1338	50.5371	79.0371	50.5371	79.0803	50.5371	79.0691	50.5371	79.0584	50.5371	79.1209	50.5371	79.0683	50.5371	79.1816	50.5371	79.105	50.5371	79.2391	50.5371	79.1585	50.5371	79.2822	50.5371	79.2165	50.5371	79.3027	50.5371	79.2661	50.5371	79.2969
52.7344	81.7426	52.7344	81.7032	52.7344	81.7582	52.7344	81.6422	52.7344	81.7493	52.7344	81.5624	52.7344	81.7159	52.7344	81.468	52.7344	81.6593	52.7344	81.3644	52.7344	81.5819	52.7344	81.2579	52.7344	81.4876	52.7344	81.1558	52.7344	81.382	52.7344	81.0656	52.7344	81.272	52.7344	80.9942	52.7344	81.1659	52.7344	80.9467	52.7344	81.0723	52.7344	80.9254	52.7344	80.9992	52.7344	80.9287	52.7344	80.9523	52.7344	80.9513	52.7344	80.9335	52.7344	80.985	52.7344	80.9402	52.7344	81.0201	52.7344	80.9656	52.7344	81.0472	52.7344	80.9999	52.7344	81.0597	52.7344	81.0324	52.7344	81.0543
54.1992	82.9369	54.1992	82.8983	54.1992	82.9524	54.1992	82.8384	54.1992	82.9442	54.1992	82.7601	54.1992	82.912	54.1992	82.6671	54.1992	82.857	54.1992	82.564	54.1992	82.7813	54.1992	82.4569	54.1992	82.6883	54.1992	82.3521	54.1992	82.5829	54.1992	82.2569	54.1992	82.4714	54.1992	82.1775	54.1992	82.3613	54.1992	82.1193	54.1992	82.2608	54.1992	82.0848	54.1992	82.1776	54.1992	82.0733	54.1992	82.1178	54.1992	82.0808	54.1992	82.0839	54.1992	82.1005	54.1992	82.0748	54.1992	82.1237	54.1992	82.0851	54.1992	82.1426	54.1992	82.1064	54.1992	82.1509	54.1992	82.1294	54.1992	82.1461
56.3965	84.4383	56.3965	84.4016	56.3965	84.4527	56.3965	84.3443	56.3965	84.4441	56.3965	84.2688	56.3965	84.4123	56.3965	84.1783	56.3965	84.3581	56.3965	84.0771	56.3965	84.2832	56.3965	83.9704	56.3965	84.1907	56.3965	83.8639	56.3965	84.0847	56.3965	83.7641	56.3965	83.9709	56.3965	83.6769	56.3965	83.8559	56.3965	83.6073	56.3965	83.7476	56.3965	83.5583	56.3965	83.6535	56.3965	83.5302	56.3965	83.5797	56.3965	83.5201	56.3965	83.5299	56.3965	83.5228	56.3965	83.5041	56.3965	83.5313	56.3965	83.4988	56.3965	83.5388	56.3965	83.5072	56.3965	83.5405	56.3965	83.5215	56.3965	83.5342
58.5938	85.9665	58.5938	85.9369	58.5938	85.9754	58.5938	85.8882	58.5938	85.9631	58.5938	85.8222	58.5938	85.9294	58.5938	85.7418	58.5938	85.8749	58.5938	85.6503	58.5938	85.8013	58.5938	85.552	58.5938	85.711	58.5938	85.4518	58.5938	85.6077	58.5938	85.355	58.5938	85.4964	58.5938	85.2668	58.5938	85.3833	58.5938	85.1917	58.5938	85.2751	58.5938	85.1327	58.5938	85.1789	58.5938	85.0908	58.5938	85.1007	58.5938	85.0645	58.5938	85.0443	58.5938	85.0503	58.5938	85.0104	58.5938	85.0431	58.5938	84.9968	58.5938	85.0378	58.5938	84.9981	58.5938	85.0307	58.5938	85.008	58.5938	85.0203
60.0586	86.8347	60.0586	86.803	60.0586	86.8465	60.0586	86.7524	60.0586	86.8376	60.0586	86.6849	60.0586	86.8079	60.0586	86.6029	60.0586	86.7579	60.0586	86.5097	60.0586	86.689	60.0586	86.409	60.0586	86.6033	60.0586	86.3055	60.0586	86.5041	60.0586	86.2042	60.0586	86.3958	60.0586	86.1102	60.0586	86.2839	60.0586	86.0282	60.0586	86.1745	60.0586	85.9614	60.0586	86.0742	60.0586	85.9116	60.0586	85.9886	60.0586	85.878	60.0586	85.9218	60.0586	85.8579	60.0586	85.8753	60.0586	85.8473	60.0586	85.8476	60.0586	85.8418	60.0586	85.8349	60.0586	85.8379	60.0586	85.8322	60.0586	85.8343
62.2559	87.8415	62.2559	87.8112	62.2559	87.8532	62.2559	87.7635	62.2559	87.8458	62.2559	87.6999	62.2559	87.8191	62.2559	87.6227	62.2559	87.7733	62.2559	87.5344	62.2559	87.7096	62.2559	87.4387	62.2559	87.6297	62.2559	87.3394	62.2559	87.5362	62.2559	87.2411	62.2559	87.4329	62.2559	87.1483	62.2559	87.3245	62.2559	87.0654	62.2559	87.2166	62.2559	86.9955	62.2559	87.1151	62.2559	86.9404	62.2559	87.0257	62.2559	86.9001	62.2559	86.9527	62.2559	86.8727	62.2559	86.8983	62.2559	86.8552	62.2559	86.8623	62.2559	86.8442	62.2559	86.8422	62.2559	86.8372	62.2559	86.834	62.2559	86.8334
64.4531	88.7758	64.4531	88.7485	64.4531	88.7859	64.4531	88.7051	64.4531	88.7784	64.4531	88.6468	64.4531	88.753	64.4531	88.5755	64.4531	88.7099	64.4531	88.4935	64.4531	88.65	64.4531	88.4037	64.4531	88.5748	64.4531	88.3096	64.4531	88.4863	64.4531	88.2151	64.4531	88.388	64.4531	88.1243	64.4531	88.2838	64.4531	88.041	64.4531	88.1788	64.4531	87.9685	64.4531	88.0786	64.4531	87.9087	64.4531	87.9883	64.4531	87.8622	64.4531	87.9124	64.4531	87.828	64.4531	87.8536	64.4531	87.8039	64.4531	87.8125	64.4531	87.7877	64.4531	87.7874	64.4531	87.7776	64.4531	87.7754	64.4531	87.773
66.6504	89.576	66.6504	89.552	66.6504	89.5846	66.6504	89.5132	66.6504	89.5771	66.6504	89.4609	66.6504	89.5534	66.6504	89.3964	66.6504	89.5136	66.6504	89.3218	66.6504	89.4582	66.6504	89.2395	66.6504	89.3886	66.6504	89.1524	66.6504	89.3064	66.6504	89.0639	66.6504	89.2144	66.6504	88.9775	66.6504	89.1163	66.6504	88.8968	66.6504	89.0165	66.6504	88.8246	66.6504	88.92	66.6504	88.7632	66.6504	88.8317	66.6504	88.7134	66.6504	88.756	66.6504	88.6748	66.6504	88.6959	66.6504	88.6462	66.6504	88.6524	66.6504	88.6261	66.6504	88.6248	66.6504	88.6133	66.6504	88.6109	66.6504	88.6078
69.5801	90.4672	69.5801	90.445	69.5801	90.476	69.5801	90.4102	69.5801	90.4711	69.5801	90.3635	69.5801	90.452	69.5801	90.3062	69.5801	90.4189	69.5801	90.2397	69.5801	90.372	69.5801	90.166	69.5801	90.312	69.5801	90.0872	69.5801	90.2402	69.5801	90.0063	69.5801	90.1587	69.5801	89.9261	69.5801	90.0703	69.5801	89.8497	69.5801	89.9788	69.5801	89.78	69.5801	89.8883	69.5801	89.7189	69.5801	89.8035	69.5801	89.6679	69.5801	89.7283	69.5801	89.6273	69.5801	89.6661	69.5801	89.5968	69.5801	89.6186	69.5801	89.5756	69.5801	89.586	69.5801	89.5633	69.5801	89.567	69.5801	89.5601
71.7773	91.0287	71.7773	91.0092	71.7773	91.0364	71.7773	90.9783	71.7773	91.0319	71.7773	90.9368	71.7773	91.0147	71.7773	90.8856	71.7773	90.9849	71.7773	90.8257	71.7773	90.9425	71.7773	90.7586	71.7773	90.888	71.7773	90.6864	71.7773	90.8223	71.7773	90.6112	71.7773	90.7471	71.7773	90.5357	71.7773	90.6647	71.7773	90.4624	71.7773	90.5784	71.7773	90.3941	71.7773	90.4919	71.7773	90.3329	71.7773	90.4096	71.7773	90.2803	71.7773	90.3355	71.7773	90.2372	71.7773	90.2729	71.7773	90.2038	71.7773	90.2241	71.7773	90.1801	71.7773	90.1898	71.7773	90.166	71.7773	90.1696	71.7773	90.1621
73.9746	91.5174	73.9746	91.5009	73.9746	91.5236	73.9746	91.4744	73.9746	91.5191	73.9746	91.4384	73.9746	91.5036	73.9746	91.3936	73.9746	91.4768	73.9746	91.3407	73.9746	91.4388	73.9746	91.2809	73.9746	91.3896	73.9746	91.2157	73.9746	91.33	73.9746	91.147	73.9746	91.2611	73.9746	91.0769	73.9746	91.1851	73.9746	91.0077	73.9746	91.1046	73.9746	90.9419	73.9746	91.0231	73.9746	90.8817	73.9746	90.9446	73.9746	90.8287	73.9746	90.873	73.9746	90.7841	73.9746	90.8118	73.9746	90.7486	73.9746	90.7635	73.9746	90.7227	73.9746	90.7292	73.9746	90.7069	73.9746	90.709	73.9746	90.7019
76.9043	92.0733	76.9043	92.0615	76.9043	92.0772	76.9043	92.042	76.9043	92.0727	76.9043	92.0148	76.9043	92.0597	76.9043	91.9804	76.9043	92.0378	76.9043	91.939	76.9043	92.0066	76.9043	91.8913	76.9043	91.966	76.9043	91.8382	76.9043	91.9163	76.9043	91.7809	76.9043	91.8583	76.9043	91.721	76.9043	91.7934	76.9043	91.6604	76.9043	91.7236	76.9043	91.6012	76.9043	91.6521	76.9043	91.5453	76.9043	91.5822	76.9043	91.4945	76.9043	91.5176	76.9043	91.4504	76.9043	91.4617	76.9043	91.4142	76.9043	91.4172	76.9043	91.3867	76.9043	91.3857	76.9043	91.3691	76.9043	91.3675	76.9043	91.3623
79.834	92.5731	79.834	92.5652	79.834	92.5746	79.834	92.5508	79.834	92.5695	79.834	92.5298	79.834	92.5574	79.834	92.5022	79.834	92.5379	79.834	92.468	79.834	92.5107	79.834	92.4274	79.834	92.4754	79.834	92.3807	79.834	92.4318	79.834	92.3289	79.834	92.3803	79.834	92.2732	79.834	92.3218	79.834	92.2152	79.834	92.258	79.834	92.1568	79.834	92.1914	79.834	92.1002	79.834	92.1251	79.834	92.0475	79.834	92.0625	79.834	92.0007	79.834	92.0073	79.834	91.9615	79.834	91.9623	79.834	91.9316	79.834	91.9297	79.834	91.9123	79.834	91.9105	79.834	91.9049
82.7637	92.974	82.7637	92.9689	82.7637	92.9743	82.7637	92.959	82.7637	92.9697	82.7637	92.9437	82.7637	92.96	82.7637	92.9229	82.7637	92.9447	82.7637	92.8961	82.7637	92.9232	82.7637	92.8632	82.7637	92.8947	82.7637	92.8241	82.7637	92.859	82.7637	92.7795	82.7637	92.8158	82.7637	92.7301	82.7637	92.7656	82.7637	92.6773	82.7637	92.7097	82.7637	92.623	82.7637	92.6501	82.7637	92.5693	82.7637	92.5895	82.7637	92.5183	82.7637	92.5312	82.7637	92.4723	82.7637	92.4787	82.7637	92.4335	82.7637	92.4351	82.7637	92.4037	82.7637	92.4029	82.7637	92.3846	82.7637	92.3836	82.7637	92.3776
85.6934	93.2949	85.6934	93.2929	85.6934	93.294	85.6934	93.2876	85.6934	93.2901	85.6934	93.2785	85.6934	93.283	85.6934	93.2651	85.6934	93.2719	85.6934	93.2466	85.6934	93.2562	85.6934	93.2226	85.6934	93.2349	85.6934	93.1928	85.6934	93.2073	85.6934	93.1572	85.6934	93.1728	85.6934	93.1163	85.6934	93.1317	85.6934	93.0713	85.6934	93.0845	85.6934	93.0236	85.6934	93.0331	85.6934	92.9751	85.6934	92.9799	85.6934	92.928	85.6934	92.9279	85.6934	92.8846	85.6934	92.8805	85.6934	92.8472	85.6934	92.8409	85.6934	92.8177	85.6934	92.8117	85.6934	92.7982	85.6934	92.7946	85.6934	92.7902
88.623	93.5731	88.623	93.5751	88.623	93.5707	88.623	93.5762	88.623	93.5678	88.623	93.5757	88.623	93.5642	88.623	93.5727	88.623	93.559	88.623	93.5661	88.623	93.5513	88.623	93.555	88.623	93.5399	88.623	93.5387	88.623	93.5237	88.623	93.5166	88.623	93.5018	88.623	93.4888	88.623	93.4738	88.623	93.4558	88.623	93.44	88.623	93.4187	88.623	93.4016	88.623	93.3792	88.623	93.3604	88.623	93.3392	88.623	93.3192	88.623	93.3009	88.623	93.281	88.623	93.2668	88.623	93.249	88.623	93.2392	88.623	93.2255	88.623	93.2199	88.623	93.2125	88.623	93.2107
91.5527	93.783	91.5527	93.7872	91.5527	93.7798	91.5527	93.7917	91.5527	93.7777	91.5527	93.7957	91.5527	93.7764	91.5527	93.7979	91.5527	93.7751	91.5527	93.797	91.5527	93.7726	91.5527	93.7918	91.5527	93.7674	91.5527	93.7811	91.5527	93.7583	91.5527	93.7643	91.5527	93.7438	91.5527	93.7411	91.5527	93.7232	91.5527	93.712	91.5527	93.6964	91.5527	93.678	91.5527	93.664	91.5527	93.6407	91.5527	93.6277	91.5527	93.6024	91.5527	93.59	91.5527	93.5654	91.5527	93.5538	91.5527	93.5325	91.5527	93.5223	91.5527	93.506	91.5527	93.4984	91.5527	93.4882	91.5527	93.4841	91.5527	93.4807
94.4824	94.0108	94.4824	94.0161	94.4824	94.0072	94.4824	94.0223	94.4824	94.0055	94.4824	94.0285	94.4824	94.0055	94.4824	94.0331	94.4824	94.0063	94.4824	94.0347	94.4824	94.0067	94.4824	94.0319	94.4824	94.0052	94.4824	94.0232	94.4824	94	94.4824	94.008	94.4824	93.9897	94.4824	93.9858	94.4824	93.973	94.4824	93.957	94.4824	93.9494	94.4824	93.9226	94.4824	93.9193	94.4824	93.8845	94.4824	93.8842	94.4824	93.845	94.4824	93.8463	94.4824	93.8069	94.4824	93.8087	94.4824	93.7732	94.4824	93.7747	94.4824	93.7467	94.4824	93.7477	94.4824	93.7298	94.4824	93.7303	94.4824	93.7242
98.1445	94.2485	98.1445	94.2546	98.1445	94.2451	98.1445	94.2627	98.1445	94.2448	98.1445	94.2713	98.1445	94.2471	98.1445	94.2789	98.1445	94.2514	98.1445	94.2837	98.1445	94.256	98.1445	94.2841	98.1445	94.2593	98.1445	94.2784	98.1445	94.2592	98.1445	94.2656	98.1445	94.2538	98.1445	94.2452	98.1445	94.2416	98.1445	94.2175	98.1445	94.2216	98.1445	94.1836	98.1445	94.1941	98.1445	94.1453	98.1445	94.1601	98.1445	94.1052	98.1445	94.122	98.1445	94.0666	98.1445	94.0829	98.1445	94.0326	98.1445	94.0465	98.1445	94.0065	98.1445	94.0165	98.1445	93.9908	98.1445	93.996	98.1445	93.9871
101.807	94.4254	101.807	94.4306	101.807	94.4241	101.807	94.4387	101.807	94.427	101.807	94.4485	101.807	94.4337	101.807	94.4582	101.807	94.4432	101.807	94.466	101.807	94.4539	101.807	94.47	101.807	94.464	101.807	94.4685	101.807	94.4709	101.807	94.4603	101.807	94.4726	101.807	94.4447	101.807	94.467	101.807	94.4217	101.807	94.453	101.807	94.3923	101.807	94.4303	101.807	94.3582	101.807	94.3998	101.807	94.3221	101.807	94.3637	101.807	94.2871	101.807	94.3252	101.807	94.2566	101.807	94.288	101.807	94.2338	101.807	94.2561	101.807	94.2214	101.807	94.233	101.807	94.221
105.469	94.5406	105.469	94.5452	105.469	94.5405	105.469	94.5533	105.469	94.5452	105.469	94.5633	105.469	94.5544	105.469	94.5735	105.469	94.5672	105.469	94.5818	105.469	94.5819	105.469	94.5863	105.469	94.5963	105.469	94.5852	105.469	94.6079	105.469	94.5771	105.469	94.6143	105.469	94.5616	105.469	94.613	105.469	94.5386	105.469	94.6027	105.469	94.5092	105.469	94.5827	105.469	94.4755	105.469	94.5536	105.469	94.4403	105.469	94.5174	105.469	94.4069	105.469	94.4773	105.469	94.3788	105.469	94.4371	105.469	94.3595	105.469	94.4011	105.469	94.3514	105.469	94.373	105.469	94.3559
109.131	94.6599	109.131	94.6682	109.131	94.6572	109.131	94.6807	109.131	94.6604	109.131	94.6957	109.131	94.6695	109.131	94.7113	109.131	94.6835	109.131	94.7251	109.131	94.7008	109.131	94.735	109.131	94.7191	109.131	94.7389	109.131	94.7357	109.131	94.7355	109.131	94.7477	109.131	94.7238	109.131	94.7527	109.131	94.704	109.131	94.7487	109.131	94.6771	109.131	94.7347	109.131	94.645	109.131	94.7111	109.131	94.6108	109.131	94.6795	109.131	94.5779	109.131	94.6429	109.131	94.55	109.131	94.6052	109.131	94.5307	109.131	94.5708	109.131	94.5226	109.131	94.5436	109.131	94.5269
112.793	94.8	112.793	94.8063	112.793	94.7993	112.793	94.8171	112.793	94.8049	112.793	94.8306	112.793	94.8166	112.793	94.8447	112.793	94.8333	112.793	94.8573	112.793	94.8533	112.793	94.8659	112.793	94.8743	112.793	94.8687	112.793	94.8935	112.793	94.8641	112.793	94.9077	112.793	94.8513	112.793	94.9142	112.793	94.8303	112.793	94.9109	112.793	94.8023	112.793	94.8966	112.793	94.7695	112.793	94.8714	112.793	94.7348	112.793	94.8371	112.793	94.7021	112.793	94.7968	112.793	94.6753	112.793	94.7545	112.793	94.6579	112.793	94.7149	112.793	94.6528	112.793	94.6826	112.793	94.6612
116.455	94.9134	116.455	94.921	116.455	94.9116	116.455	94.9331	116.455	94.9164	116.455	94.948	116.455	94.9275	116.455	94.9636	116.455	94.944	116.455	94.9773	116.455	94.9641	116.455	94.987	116.455	94.9855	116.455	94.9906	116.455	95.0051	116.455	94.9863	116.455	95.0199	116.455	94.9734	116.455	95.0269	116.455	94.9519	116.455	95.0238	116.455	94.9229	116.455	95.0093	116.455	94.8885	116.455	94.9837	116.455	94.8518	116.455	94.9486	116.455	94.817	116.455	94.9073	116.455	94.788	116.455	94.864	116.455	94.7687	116.455	94.8236	116.455	94.7622	116.455	94.7909	116.455	94.7697
120.85	95.0401	120.85	95.0492	120.85	95.0369	120.85	95.0627	120.85	95.0402	120.85	95.0787	120.85	95.0501	120.85	95.0949	120.85	95.0659	120.85	95.1089	120.85	95.0858	120.85	95.1183	120.85	95.1074	120.85	95.121	120.85	95.1278	120.85	95.1154	120.85	95.1436	120.85	95.1006	120.85	95.1516	120.85	95.0766	120.85	95.1494	120.85	95.0446	120.85	95.1354	120.85	95.0072	120.85	95.1096	120.85	94.9676	120.85	95.0734	120.85	94.9301	120.85	95.0302	120.85	94.8993	120.85	94.9843	120.85	94.8792	120.85	94.9411	120.85	94.873	120.85	94.9055	120.85	94.882
125.244	95.0799	125.244	95.0891	125.244	95.0774	125.244	95.1035	125.244	95.0826	125.244	95.1211	125.244	95.0955	125.244	95.1393	125.244	95.1154	125.244	95.1557	125.244	95.1406	125.244	95.1679	125.244	95.1685	125.244	95.1735	125.244	95.1959	125.244	95.171	125.244	95.2193	125.244	95.1594	125.244	95.2349	125.244	95.1389	125.244	95.24	125.244	95.1107	125.244	95.2324	125.244	95.0772	125.244	95.2118	125.244	95.0419	125.244	95.1794	125.244	95.0091	125.244	95.1382	125.244	94.9833	125.244	95.0925	125.244	94.9685	125.244	95.0477	125.244	94.9675	125.244	95.0091	125.244	94.9814
129.639	95.1415	129.639	95.1545	129.639	95.1347	129.639	95.1719	129.639	95.1352	129.639	95.1916	129.639	95.1434	129.639	95.211	129.639	95.1588	129.639	95.2274	129.639	95.1799	129.639	95.2385	129.639	95.2044	129.639	95.242	129.639	95.2291	129.639	95.2361	129.639	95.2505	129.639	95.2203	129.639	95.2649	129.639	95.1946	129.639	95.2691	129.639	95.1606	129.639	95.261	129.639	95.1211	129.639	95.2399	129.639	95.08	129.639	95.2068	129.639	95.042	129.639	95.1645	129.639	95.0119	129.639	95.1177	129.639	94.9939	129.639	95.0717	129.639	94.991	129.639	95.0322	129.639	95.0042
134.033	95.2432	134.033	95.2549	134.033	95.2378	134.033	95.2711	134.033	95.2397	134.033	95.2899	134.033	95.2492	134.033	95.309	134.033	95.2657	134.033	95.3257	134.033	95.2879	134.033	95.3377	134.033	95.3134	134.033	95.3427	134.033	95.3392	134.033	95.3389	134.033	95.3616	134.033	95.3255	134.033	95.3771	134.033	95.3024	134.033	95.3824	134.033	95.271	134.033	95.3754	134.033	95.2339	134.033	95.3552	134.033	95.1949	134.033	95.3229	134.033	95.1584	134.033	95.2814	134.033	95.1293	134.033	95.2351	134.033	95.112	134.033	95.1895	134.033	95.1094	134.033	95.1504	134.033	95.1225
138.428	95.297	138.428	95.3065	138.428	95.2929	138.428	95.3198	138.428	95.2952	138.428	95.3349	138.428	95.3043	138.428	95.3498	138.428	95.3198	138.428	95.3619	138.428	95.3403	138.428	95.369	138.428	95.3638	138.428	95.369	138.428	95.3871	138.428	95.3603	138.428	95.4068	138.428	95.3421	138.428	95.4192	138.428	95.3146	138.428	95.4212	138.428	95.2792	138.428	95.4104	138.428	95.2386	138.428	95.3861	138.428	95.1968	138.428	95.3493	138.428	95.1585	138.428	95.3031	138.428	95.1287	138.428	95.252	138.428	95.1118	138.428	95.2017	138.428	95.1108	138.428	95.1582	138.428	95.1267
143.555	95.3215	143.555	95.3249	143.555	95.3237	143.555	95.3324	143.555	95.3324	143.555	95.3422	143.555	95.3478	143.555	95.3523	143.555	95.3693	143.555	95.3604	143.555	95.3954	143.555	95.3642	143.555	95.4236	143.555	95.3618	143.555	95.4507	143.555	95.3515	143.555	95.4729	143.555	95.3327	143.555	95.4865	143.555	95.3054	143.555	95.488	143.555	95.2711	143.555	95.4753	143.555	95.2326	143.555	95.4475	143.555	95.1936	143.555	95.4059	143.555	95.159	143.555	95.3538	143.555	95.1336	143.555	95.296	143.555	95.1219	143.555	95.2386	143.555	95.1268	143.555	95.1879	143.555	95.1493
148.682	95.3602	148.682	95.3618	148.682	95.3637	148.682	95.3669	148.682	95.3737	148.682	95.3736	148.682	95.3909	148.682	95.3796	148.682	95.4149	148.682	95.3829	148.682	95.4447	148.682	95.3815	148.682	95.4778	148.682	95.3737	148.682	95.5108	148.682	95.3583	148.682	95.5398	148.682	95.335	148.682	95.5601	148.682	95.3043	148.682	95.5679	148.682	95.2683	148.682	95.5599	148.682	95.2299	148.682	95.5349	148.682	95.1936	148.682	95.4935	148.682	95.1642	148.682	95.4384	148.682	95.1466	148.682	95.3746	148.682	95.1448	148.682	95.3085	148.682	95.1614	148.682	95.2469	148.682	95.1963
153.809	95.3443	153.809	95.3464	153.809	95.3465	153.809	95.3506	153.809	95.3544	153.809	95.355	153.809	95.3692	153.809	95.3574	153.809	95.391	153.809	95.3557	153.809	95.4191	153.809	95.3481	153.809	95.4511	153.809	95.3332	153.809	95.4839	153.809	95.3103	153.809	95.5131	153.809	95.2792	153.809	95.5339	153.809	95.2413	153.809	95.5419	153.809	95.1987	153.809	95.5336	153.809	95.1552	153.809	95.507	153.809	95.1155	153.809	95.4625	153.809	95.0846	153.809	95.4029	153.809	95.0679	153.809	95.3332	153.809	95.0694	153.809	95.2599	153.809	95.091	153.809	95.1907	153.809	95.1326
159.668	95.3222	159.668	95.3299	159.668	95.3185	159.668	95.3394	159.668	95.3207	159.668	95.3485	159.668	95.3302	159.668	95.3549	159.668	95.3476	159.668	95.3565	159.668	95.3724	159.668	95.3514	159.668	95.4028	159.668	95.3382	159.668	95.4356	159.668	95.3161	159.668	95.4665	159.668	95.285	159.668	95.4907	159.668	95.2463	159.668	95.5032	159.668	95.2024	159.668	95.5003	159.668	95.1573	159.668	95.4795	159.668	95.1157	159.668	95.4408	159.668	95.0834	159.668	95.3863	159.668	95.0654	159.668	95.3208	159.668	95.0658	159.668	95.2509	159.668	95.0867	159.668	95.184	159.668	95.1273
164.795	95.3338	164.795	95.3458	164.795	95.3249	164.795	95.3585	164.795	95.3214	164.795	95.3696	164.795	95.3252	164.795	95.3768	164.795	95.3373	164.795	95.378	164.795	95.3579	164.795	95.3716	164.795	95.3853	164.795	95.3562	164.795	95.4167	164.795	95.3311	164.795	95.4479	164.795	95.2968	164.795	95.4738	164.795	95.2546	164.795	95.4892	164.795	95.2073	164.795	95.4898	164.795	95.1591	164.795	95.4727	164.795	95.1153	164.795	95.4373	164.795	95.0815	164.795	95.3855	164.795	95.0631	164.795	95.3218	164.795	95.0639	164.795	95.2525	164.795	95.0858	164.795	95.1852	164.795	95.1276
170.654	95.3045	170.654	95.3193	170.654	95.2916	170.654	95.3338	170.654	95.2832	170.654	95.3456	170.654	95.2814	170.654	95.3527	170.654	95.2878	170.654	95.3532	170.654	95.3029	170.654	95.3455	170.654	95.3257	170.654	95.3285	170.654	95.3535	170.654	95.3015	170.654	95.3825	170.654	95.2649	170.654	95.4074	170.654	95.2201	170.654	95.4231	170.654	95.1701	170.654	95.4248	170.654	95.1191	170.654	95.4094	170.654	95.0724	170.654	95.376	170.654	95.0358	170.654	95.3261	170.654	95.0149	170.654	95.2641	170.654	95.0137	170.654	95.1963	170.654	95.0338	170.654	95.1305	170.654	95.0741
176.514	95.2643	176.514	95.2754	176.514	95.2538	176.514	95.285	176.514	95.2462	176.514	95.291	176.514	95.244	176.514	95.2917	176.514	95.2488	176.514	95.2857	176.514	95.2614	176.514	95.2717	176.514	95.2811	176.514	95.2488	176.514	95.3058	176.514	95.2167	176.514	95.3314	176.514	95.1758	176.514	95.3531	176.514	95.1277	176.514	95.3656	176.514	95.0752	176.514	95.3641	176.514	95.0226	176.514	95.3453	176.514	94.9752	176.514	95.3082	176.514	94.9389	176.514	95.2545	176.514	94.9191	176.514	95.1885	176.514	94.9199	176.514	95.1166	176.514	94.9428	176.514	95.0466	176.514	94.9865
183.105	95.1805	183.105	95.1874	183.105	95.1729	183.105	95.1912	183.105	95.1672	183.105	95.1898	183.105	95.1661	183.105	95.1817	183.105	95.1719	183.105	95.1657	183.105	95.1855	183.105	95.1409	183.105	95.2065	183.105	95.1069	183.105	95.2326	183.105	95.064	183.105	95.2597	183.105	95.0134	183.105	95.2825	183.105	94.9572	183.105	95.2952	183.105	94.899	183.105	95.2925	183.105	94.8435	183.105	95.2708	183.105	94.7965	183.105	95.2286	183.105	94.7638	183.105	95.1675	183.105	94.7509	183.105	95.0919	183.105	94.7614	183.105	95.0086	183.105	94.796	183.105	94.926	183.105	94.8526
189.697	95.1082	189.697	95.1211	189.697	95.0921	189.697	95.1278	189.697	95.076	189.697	95.1261	189.697	95.0634	189.697	95.1142	189.697	95.0573	189.697	95.0909	189.697	95.0599	189.697	95.0554	189.697	95.0713	189.697	95.0076	189.697	95.0897	189.697	94.948	189.697	95.1111	189.697	94.8786	189.697	95.1297	189.697	94.8025	189.697	95.139	189.697	94.7245	189.697	95.133	189.697	94.6507	189.697	95.1071	189.697	94.5884	189.697	95.0595	189.697	94.5447	189.697	94.9912	189.697	94.5257	189.697	94.9067	189.697	94.5351	189.697	94.8133	189.697	94.5733	189.697	94.7202	189.697	94.6373
196.289	95.0821	196.289	95.1009	196.289	95.0579	196.289	95.1115	196.289	95.0313	196.289	95.1121	196.289	95.0059	196.289	95.1012	196.289	94.985	196.289	95.0778	196.289	94.9711	196.289	95.0412	196.289	94.9652	196.289	94.9912	196.289	94.966	196.289	94.928	196.289	94.9703	196.289	94.8532	196.289	94.9731	196.289	94.7693	196.289	94.9686	196.289	94.6807	196.289	94.9512	196.289	94.5934	196.289	94.9169	196.289	94.5146	196.289	94.864	196.289	94.4522	196.289	94.7938	196.289	94.4132	196.289	94.7112	196.289	94.4026	196.289	94.6234	196.289	94.4222	196.289	94.5397	196.289	94.4699
202.881	94.9347	202.881	94.9506	202.881	94.9142	202.881	94.9593	202.881	94.8919	202.881	94.9592	202.881	94.8712	202.881	94.9487	202.881	94.8549	202.881	94.9269	202.881	94.8451	202.881	94.8931	202.881	94.8424	202.881	94.8468	202.881	94.8453	202.881	94.7883	202.881	94.8504	202.881	94.7188	202.881	94.8526	202.881	94.6405	202.881	94.8464	202.881	94.5574	202.881	94.8265	202.881	94.475	202.881	94.7894	202.881	94.4	202.881	94.7342	202.881	94.3397	202.881	94.6628	202.881	94.3009	202.881	94.5804	202.881	94.2885	202.881	94.4944	202.881	94.3048	202.881	94.414	202.881	94.3483
210.205	94.7309	210.205	94.7467	210.205	94.7106	210.205	94.7549	210.205	94.6895	210.205	94.7531	210.205	94.6719	210.205	94.7399	210.205	94.6617	210.205	94.7144	210.205	94.6616	210.205	94.6762	210.205	94.6724	210.205	94.6254	210.205	94.6921	210.205	94.563	210.205	94.7165	210.205	94.4911	210.205	94.7392	210.205	94.413	210.205	94.7529	210.205	94.3337	210.205	94.7509	210.205	94.2595	210.205	94.7282	210.205	94.1976	210.205	94.6827	210.205	94.1551	210.205	94.6154	210.205	94.138	210.205	94.5309	210.205	94.1498	210.205	94.4366	210.205	94.1906	210.205	94.342	210.205	94.2569
217.529	94.5436	217.529	94.5725	217.529	94.5103	217.529	94.5934	217.529	94.4771	217.529	94.6036	217.529	94.4492	217.529	94.6013	217.529	94.4314	217.529	94.5853	217.529	94.4274	217.529	94.555	217.529	94.4383	217.529	94.5105	217.529	94.4625	217.529	94.4524	217.529	94.4952	217.529	94.3829	217.529	94.5295	217.529	94.3055	217.529	94.557	217.529	94.2256	217.529	94.57	217.529	94.1499	217.529	94.5624	217.529	94.0863	217.529	94.5309	217.529	94.0424	217.529	94.476	217.529	94.0246	217.529	94.4015	217.529	94.0361	217.529	94.3146	217.529	94.0768	217.529	94.2247	217.529	94.1422
225.586	94.376	225.586	94.4165	225.586	94.3265	225.586	94.4441	225.586	94.274	225.586	94.4559	225.586	94.2252	225.586	94.4504	225.586	94.1875	225.586	94.427	225.586	94.1667	225.586	94.3857	225.586	94.1665	225.586	94.3271	225.586	94.1863	225.586	94.2529	225.586	94.2217	225.586	94.1662	225.586	94.2644	225.586	94.0715	225.586	94.3044	225.586	93.9758	225.586	94.3314	225.586	93.8874	225.586	94.337	225.586	93.8157	225.586	94.3159	225.586	93.7694	225.586	94.2669	225.586	93.755	225.586	94.193	225.586	93.7752	225.586	94.1014	225.586	93.828	225.586	94.0021	225.586	93.907
232.91	94.2811	232.91	94.3318	232.91	94.219	232.91	94.3676	232.91	94.1505	232.91	94.3865	232.91	94.0822	232.91	94.3871	232.91	94.0214	232.91	94.3688	232.91	93.9751	232.91	94.3312	232.91	93.9483	232.91	94.274	232.91	93.9425	232.91	94.198	232.91	93.955	232.91	94.1051	232.91	93.9792	232.91	93.9991	232.91	94.0058	232.91	93.8864	232.91	94.0245	232.91	93.7754	232.91	94.0262	232.91	93.6767	232.91	94.005	232.91	93.6009	232.91	93.9588	232.91	93.5568	232.91	93.8904	232.91	93.5494	232.91	93.8067	232.91	93.5785	232.91	93.7185	232.91	93.6382
241.699	94.0775	241.699	94.1187	241.699	94.0258	241.699	94.1467	241.699	93.9681	241.699	94.16	241.699	93.9103	241.699	94.158	241.699	93.859	241.699	94.1404	241.699	93.8206	241.699	94.107	241.699	93.7995	241.699	94.0574	241.699	93.7967	241.699	93.9918	241.699	93.8092	241.699	93.9113	241.699	93.8304	241.699	93.8183	241.699	93.8512	241.699	93.7177	241.699	93.8621	241.699	93.6163	241.699	93.8551	241.699	93.5233	241.699	93.8254	241.699	93.4484	241.699	93.7722	241.699	93.4006	241.699	93.6994	241.699	93.3859	241.699	93.6151	241.699	93.4058	241.699	93.5301	241.699	93.4566
249.756	93.949	249.756	93.991	249.756	93.8913	249.756	94.0147	249.756	93.8228	249.756	94.0192	249.756	93.7505	249.756	94.0049	249.756	93.6829	249.756	93.9723	249.756	93.6288	249.756	93.9224	249.756	93.5953	249.756	93.8562	249.756	93.5856	249.756	93.7753	249.756	93.5981	249.756	93.6819	249.756	93.6263	249.756	93.5802	249.756	93.6599	249.756	93.476	249.756	93.6873	249.756	93.3774	249.756	93.698	249.756	93.2935	249.756	93.6846	249.756	93.2335	249.756	93.6442	249.756	93.2047	249.756	93.5788	249.756	93.211	249.756	93.4955	249.756	93.2511	249.756	93.4047	249.756	93.3191
258.545	93.8475	258.545	93.8943	258.545	93.7854	258.545	93.9234	258.545	93.7121	258.545	93.9343	258.545	93.6341	258.545	93.9271	258.545	93.5597	258.545	93.9021	258.545	93.4976	258.545	93.8593	258.545	93.4551	258.545	93.7988	258.545	93.4366	258.545	93.7209	258.545	93.4415	258.545	93.6274	258.545	93.4646	258.545	93.5219	258.545	93.4968	258.545	93.4109	258.545	93.5269	258.545	93.3035	258.545	93.5441	258.545	93.2104	258.545	93.5401	258.545	93.1426	258.545	93.5106	258.545	93.1083	258.545	93.4561	258.545	93.1115	258.545	93.3819	258.545	93.15	258.545	93.2977	258.545	93.216
268.066	93.497	268.066	93.5201	268.066	93.4614	268.066	93.5303	268.066	93.4154	268.066	93.5282	268.066	93.3627	268.066	93.5146	268.066	93.3086	268.066	93.4898	268.066	93.2592	268.066	93.4533	268.066	93.2202	268.066	93.4036	268.066	93.1951	268.066	93.3388	268.066	93.1847	268.066	93.2577	268.066	93.1859	268.066	93.1612	268.066	93.1923	268.066	93.053	268.066	93.1954	268.066	92.9404	268.066	93.1862	268.066	92.8343	268.066	93.1576	268.066	92.7476	268.066	93.1059	268.066	92.6923	268.066	93.032	268.066	92.6766	268.066	92.9423	268.066	92.702	268.066	92.8479	268.066	92.763
277.588	93.358	277.588	93.4027	277.588	93.2971	277.588	93.4257	277.588	93.2289	277.588	93.4251	277.588	93.1644	277.588	93.4019	277.588	93.1152	277.588	93.3591	277.588	93.0901	277.588	93.3005	277.588	93.0933	277.588	93.2303	277.588	93.123	277.588	93.1524	277.588	93.1716	277.588	93.0705	277.588	93.2277	277.588	92.9887	277.588	93.2791	277.588	92.9118	277.588	93.3144	277.588	92.8456	277.588	93.3257	277.588	92.7962	277.588	93.3089	277.588	92.7695	277.588	93.2642	277.588	92.7697	277.588	93.1958	277.588	92.7985	277.588	93.1109	277.588	92.8536	277.588	93.0189	277.588	92.9298
287.109	93.4058	287.109	93.5084	287.109	93.2741	287.109	93.5752	287.109	93.1244	287.109	93.6031	287.109	92.9722	287.109	93.5919	287.109	92.8359	287.109	93.543	287.109	92.7337	287.109	93.459	287.109	92.6792	287.109	93.3433	287.109	92.6775	287.109	93.2003	287.109	92.7233	287.109	93.0362	287.109	92.8014	287.109	92.8596	287.109	92.8911	287.109	92.6825	287.109	92.9707	287.109	92.5197	287.109	93.0214	287.109	92.3876	287.109	93.0305	287.109	92.3017	287.109	92.9925	287.109	92.2725	287.109	92.9093	287.109	92.3029	287.109	92.7903	287.109	92.3864	287.109	92.6503	287.109	92.5087
297.363	92.8503	297.363	92.9526	297.363	92.7284	297.363	93.0352	297.363	92.5898	297.363	93.0989	297.363	92.4411	297.363	93.1435	297.363	92.2935	297.363	93.1677	297.363	92.1624	297.363	93.1689	297.363	92.0642	297.363	93.1438	297.363	92.0128	297.363	93.0896	297.363	92.0148	297.363	93.0056	297.363	92.0667	297.363	92.8944	297.363	92.1551	297.363	92.7625	297.363	92.2599	297.363	92.621	297.363	92.3594	297.363	92.4848	297.363	92.4346	297.363	92.3701	297.363	92.4733	297.363	92.2916	297.363	92.4717	297.363	92.2579	297.363	92.4349	297.363	92.2686	297.363	92.376	297.363	92.3138
307.617	92.7695	307.617	92.7941	307.617	92.7246	307.617	92.8011	307.617	92.6601	307.617	92.7962	307.617	92.5811	307.617	92.7853	307.617	92.4959	307.617	92.773	307.617	92.4146	307.617	92.7612	307.617	92.3468	307.617	92.748	307.617	92.2992	307.617	92.7293	307.617	92.2744	307.617	92.7002	307.617	92.2704	307.617	92.657	307.617	92.2813	307.617	92.5988	307.617	92.2992	307.617	92.5285	307.617	92.3163	307.617	92.4529	307.617	92.3266	307.617	92.3808	307.617	92.3265	307.617	92.3214	307.617	92.316	307.617	92.2812	307.617	92.2979	307.617	92.2628	307.617	92.278	307.617	92.2637
318.604	92.5365	318.604	92.6009	318.604	92.4483	318.604	92.6387	318.604	92.3435	318.604	92.6507	318.604	92.234	318.604	92.6397	318.604	92.1342	318.604	92.6094	318.604	92.0585	318.604	92.5627	318.604	92.0174	318.604	92.5012	318.604	92.0146	318.604	92.4256	318.604	92.0454	318.604	92.3364	318.604	92.0982	318.604	92.2354	318.604	92.1571	318.604	92.1266	318.604	92.2061	318.604	92.0174	318.604	92.2324	318.604	91.9177	318.604	92.228	318.604	91.839	318.604	92.1913	318.604	91.7915	318.604	92.1263	318.604	91.7815	318.604	92.0424	318.604	91.8096	318.604	91.9522	318.604	91.8701
329.59	92.0381	329.59	92.0959	329.59	91.9532	329.59	92.1275	329.59	91.8469	329.59	92.1381	329.59	91.7313	329.59	92.1346	329.59	91.6243	329.59	92.1229	329.59	91.5457	329.59	92.1062	329.59	91.5125	329.59	92.0843	329.59	91.5338	329.59	92.0543	329.59	91.6077	329.59	92.0134	329.59	91.7214	329.59	91.9603	329.59	91.8551	329.59	91.8977	329.59	91.9864	329.59	91.833	329.59	92.0956	329.59	91.7771	329.59	92.1676	329.59	91.7429	329.59	92.1946	329.59	91.7406	329.59	92.1758	329.59	91.7752	329.59	92.1174	329.59	91.8433	329.59	92.0314	329.59	91.934
341.309	92.0454	341.309	92.098	341.309	91.9585	341.309	92.1164	341.309	91.8437	341.309	92.1063	341.309	91.7149	341.309	92.076	341.309	91.5911	341.309	92.034	341.309	91.4933	341.309	91.9863	341.309	91.4387	341.309	91.9351	341.309	91.4359	341.309	91.8791	341.309	91.4818	341.309	91.8149	341.309	91.5631	341.309	91.7398	341.309	91.6597	341.309	91.6541	341.309	91.7505	341.309	91.5631	341.309	91.8171	341.309	91.4769	341.309	91.8473	341.309	91.4093	341.309	91.8359	341.309	91.3737	341.309	91.7848	341.309	91.3788	341.309	91.7028	341.309	91.4254	341.309	91.6038	341.309	91.5053
353.76	91.811	353.76	91.863	353.76	91.7289	353.76	91.8853	353.76	91.6229	353.76	91.8843	353.76	91.507	353.76	91.8686	353.76	91.4001	353.76	91.8466	353.76	91.3228	353.76	91.8236	353.76	91.291	353.76	91.8001	353.76	91.311	353.76	91.7722	353.76	91.3769	353.76	91.7334	353.76	91.4721	353.76	91.6774	353.76	91.574	353.76	91.6008	353.76	91.6597	353.76	91.506	353.76	91.7109	353.76	91.4021	353.76	91.7164	353.76	91.3037	353.76	91.6742	353.76	91.2289	353.76	91.5911	353.76	91.1939	353.76	91.482	353.76	91.2078	353.76	91.3674	353.76	91.2695
366.211	90.9282	366.211	91.0275	366.211	90.8081	366.211	91.105	366.211	90.6799	366.211	91.1693	366.211	90.5684	366.211	91.2327	366.211	90.5056	366.211	91.3068	366.211	90.5207	366.211	91.3979	366.211	90.6285	366.211	91.5053	366.211	90.8223	366.211	91.6218	366.211	91.0762	366.211	91.7366	366.211	91.3538	366.211	91.8381	366.211	91.6192	366.211	91.9174	366.211	91.8441	366.211	91.9698	366.211	92.0112	366.211	91.996	366.211	92.1143	366.211	92.0021	366.211	92.1575	366.211	91.998	366.211	92.1532	366.211	91.9957	366.211	92.1187	366.211	92.0051	366.211	92.0728	366.211	92.0316
378.662	89.9788	378.662	90.0286	378.662	89.8671	378.662	90.0292	378.662	89.7061	378.662	90.0115	378.662	89.537	378.662	90.0157	378.662	89.4259	378.662	90.0791	378.662	89.4472	378.662	90.2239	378.662	89.6518	378.662	90.451	378.662	90.0396	378.662	90.7427	378.662	90.5598	378.662	91.0714	378.662	91.1384	378.662	91.41	378.662	91.7068	378.662	91.7368	378.662	92.2158	378.662	92.0386	378.662	92.6364	378.662	92.3093	378.662	92.9557	378.662	92.5485	378.662	93.1725	378.662	92.7581	378.662	93.2939	378.662	92.9405	378.662	93.3321	378.662	93.0955	378.662	93.3021	378.662	93.2189
392.578	91.2193	392.578	91.2136	392.578	91.0584	392.578	91.0526	392.578	90.7342	392.578	90.7615	392.578	90.2708	392.578	90.3805	392.578	89.7242	392.578	89.9675	392.578	89.1963	392.578	89.5965	392.578	88.8347	392.578	89.3475	392.578	88.7868	392.578	89.2835	392.578	89.1098	392.578	89.4271	392.578	89.7285	392.578	89.7538	392.578	90.4955	392.578	90.2086	392.578	91.2758	392.578	90.7314	392.578	91.9805	392.578	91.2726	392.578	92.5615	392.578	91.7962	392.578	92.997	392.578	92.2769	392.578	93.2808	392.578	92.6956	392.578	93.4158	392.578	93.0352	392.578	93.4109	392.578	93.279
405.762	92.3272	405.762	92.3414	405.762	92.159	405.762	92.2109	405.762	91.8345	405.762	91.9511	405.762	91.3628	405.762	91.5833	405.762	90.7705	405.762	91.1358	405.762	90.1135	405.762	90.646	405.762	89.4889	405.762	90.1618	405.762	89.0338	405.762	89.7411	405.762	88.8819	405.762	89.4457	405.762	89.0854	405.762	89.3273	405.762	89.5762	405.762	89.4103	405.762	90.2166	405.762	89.6812	405.762	90.8758	405.762	90.0943	405.762	91.4636	405.762	90.5874	405.762	91.9282	405.762	91.098	405.762	92.244	405.762	91.5721	405.762	92.4014	405.762	91.9672	405.762	92.401	405.762	92.2512
420.41	92.5881	420.41	92.5689	420.41	92.4704	420.41	92.4235	420.41	92.2115	420.41	92.1673	420.41	91.8156	420.41	91.8204	420.41	91.2988	420.41	91.4075	420.41	90.6961	420.41	90.9576	420.41	90.0695	420.41	90.5044	420.41	89.5126	420.41	90.0854	420.41	89.1382	420.41	89.7403	420.41	89.0353	420.41	89.5063	420.41	89.2167	420.41	89.412	420.41	89.6097	420.41	89.4689	420.41	90.101	420.41	89.6667	420.41	90.5867	420.41	89.973	420.41	90.994	420.41	90.3403	420.41	91.2808	420.41	90.7152	420.41	91.4271	420.41	91.0477	420.41	91.4292	420.41	91.2961
435.059	92.5639	435.059	92.5607	435.059	92.4332	435.059	92.4317	435.059	92.1669	435.059	92.1895	435.059	91.7709	435.059	91.8516	435.059	91.2623	435.059	91.4397	435.059	90.6755	435.059	90.9797	435.059	90.0689	435.059	90.5024	435.059	89.5292	435.059	90.0436	435.059	89.1596	435.059	89.6447	435.059	89.0421	435.059	89.35	435.059	89.1913	435.059	89.2003	435.059	89.544	435.059	89.22	435.059	89.9969	435.059	89.4053	435.059	90.4518	435.059	89.7206	435.059	90.8376	435.059	90.1081	435.059	91.1109	435.059	90.5042	435.059	91.25	435.059	90.8525	435.059	91.248	435.059	91.11
450.439	92.6532	450.439	92.6469	450.439	92.5305	450.439	92.52	450.439	92.2752	450.439	92.2847	450.439	91.8908	450.439	91.9565	450.439	91.3902	450.439	91.5531	450.439	90.8017	450.439	91.0944	450.439	90.1748	450.439	90.6028	450.439	89.5857	450.439	90.1041	450.439	89.1308	450.439	89.6298	450.439	88.8983	450.439	89.2191	450.439	88.9237	450.439	88.9176	450.439	89.1671	450.439	88.7694	450.439	89.5359	450.439	88.8004	450.439	89.9296	450.439	89.0023	450.439	90.2688	450.439	89.3292	450.439	90.5017	450.439	89.7122	450.439	90.6004	450.439	90.0802	450.439	90.5559	450.439	90.3749
466.553	92.6925	466.553	92.7058	466.553	92.5486	466.553	92.5962	466.553	92.2715	466.553	92.3749	466.553	91.8653	466.553	92.0562	466.553	91.3435	466.553	91.6557	466.553	90.7341	466.553	91.1902	466.553	90.086	466.553	90.678	466.553	89.4748	466.553	90.141	466.553	88.9988	466.553	89.6095	466.553	88.7524	466.553	89.1278	466.553	88.7797	466.553	88.7563	466.553	89.0455	466.553	88.5616	466.553	89.4547	466.553	88.589	466.553	89.8985	466.553	88.8325	466.553	90.288	466.553	89.2297	466.553	90.5631	466.553	89.6882	466.553	90.689	466.553	90.119	466.553	90.6516	466.553	90.4545
482.666	92.56	482.666	92.5573	482.666	92.4378	482.666	92.4381	482.666	92.1863	482.666	92.2143	482.666	91.8072	482.666	91.9001	482.666	91.311	482.666	91.5114	482.666	90.7214	482.666	91.064	482.666	90.0823	482.666	90.5734	482.666	89.4636	482.666	90.0551	482.666	88.96	482.666	89.5266	482.666	88.6683	482.666	89.0142	482.666	88.6432	482.666	88.5603	482.666	88.8613	482.666	88.2275	482.666	89.231	482.666	88.0863	482.666	89.6388	482.666	88.1815	482.666	89.9874	482.666	88.4962	482.666	90.2093	482.666	88.95	482.666	90.2663	482.666	89.4352	482.666	90.145	482.666	89.8558
500.244	92.4865	500.244	92.4669	500.244	92.3799	500.244	92.3356	500.244	92.1375	500.244	92.1096	500.244	91.7565	500.244	91.8071	500.244	91.2433	500.244	91.4452	500.244	90.6186	500.244	91.0384	500.244	89.9241	500.244	90.5978	500.244	89.2316	500.244	90.1323	500.244	88.6461	500.244	89.6526	500.244	88.2854	500.244	89.1773	500.244	88.2264	500.244	88.7409	500.244	88.4524	500.244	88.3985	500.244	88.8595	500.244	88.2179	500.244	89.3162	500.244	88.2508	500.244	89.7122	500.244	88.4961	500.244	89.9749	500.244	88.8888	500.244	90.0655	500.244	89.3274	500.244	89.9734	500.244	89.7132
517.822	92.4393	517.822	92.3658	517.822	92.3924	517.822	92.1853	517.822	92.2177	517.822	91.9162	517.822	91.9146	517.822	91.5805	517.822	91.4899	517.822	91.2004	517.822	90.9602	517.822	90.7954	517.822	90.3554	517.822	90.3788	517.822	89.7245	517.822	89.9568	517.822	89.1394	517.822	89.5308	517.822	88.6894	517.822	89.1044	517.822	88.4554	517.822	88.6935	517.822	88.4678	517.822	88.3363	517.822	88.6822	517.822	88.0945	517.822	88.9996	517.822	88.0327	517.822	89.3107	517.822	88.179	517.822	89.5285	517.822	88.4942	517.822	89.5991	517.822	88.8854	517.822	89.5017	517.822	89.2484
536.133	92.4174	536.133	92.3815	536.133	92.3011	536.133	92.2043	536.133	92.0302	536.133	91.9028	536.133	91.6124	536.133	91.499	536.133	91.0685	536.133	91.0185	536.133	90.4354	536.133	90.49	536.133	89.7694	536.133	89.9442	536.133	89.1467	536.133	89.4112	536.133	88.6548	536.133	88.9176	536.133	88.3688	536.133	88.4829	536.133	88.321	536.133	88.1225	536.133	88.4839	536.133	87.856	536.133	88.783	536.133	87.7162	536.133	89.1248	536.133	87.7425	536.133	89.422	536.133	87.9548	536.133	89.606	536.133	88.3223	536.133	89.6327	536.133	88.7636	536.133	89.4854	536.133	89.1791
554.443	92.7299	554.443	92.6829	554.443	92.6278	554.443	92.4998	554.443	92.367	554.443	92.1956	554.443	91.9428	554.443	91.787	554.443	91.3581	554.443	91.2923	554.443	90.6276	554.443	90.7336	554.443	89.787	554.443	90.1378	554.443	88.9073	554.443	89.5371	554.443	88.1093	554.443	88.9651	554.443	87.5532	554.443	88.452	554.443	87.371	554.443	88.0208	554.443	87.5695	554.443	87.692	554.443	88.0178	554.443	87.4938	554.443	88.5369	554.443	87.4632	554.443	88.9799	554.443	87.6266	554.443	89.2552	554.443	87.9663	554.443	89.3197	554.443	88.4073	554.443	89.1705	554.443	88.8425
574.219	92.4375	574.219	92.3386	574.219	92.4044	574.219	92.1252	574.219	92.2261	574.219	91.8155	574.219	91.8959	574.219	91.4248	574.219	91.4151	574.219	90.9643	574.219	90.7941	574.219	90.4427	574.219	90.0553	574.219	89.8717	574.219	89.2405	574.219	89.2717	574.219	88.4224	574.219	88.676	574.219	87.7151	574.219	88.1285	574.219	87.2577	574.219	87.6747	574.219	87.1488	574.219	87.3501	574.219	87.3667	574.219	87.1752	574.219	87.7716	574.219	87.1587	574.219	88.1912	574.219	87.2985	574.219	88.4937	574.219	87.5723	574.219	88.6088	574.219	87.9248	574.219	88.5235	574.219	88.2719
594.727	92.7098	594.727	92.6048	594.727	92.6744	594.727	92.3721	594.727	92.4927	594.727	92.0286	594.727	92.1651	594.727	91.5927	594.727	91.6987	594.727	91.0807	594.727	91.1062	594.727	90.5065	594.727	90.4073	594.727	89.8826	594.727	89.6335	594.727	89.2244	594.727	88.8352	594.727	88.5558	594.727	88.0935	594.727	87.914	594.727	87.5221	594.727	87.351	594.727	87.2383	594.727	86.9306	594.727	87.2915	594.727	86.7149	594.727	87.6082	594.727	86.7425	594.727	88.0276	594.727	87.0018	594.727	88.3868	594.727	87.4222	594.727	88.5747	594.727	87.8929	594.727	88.5427	594.727	88.2974
615.234	92.7588	615.234	92.6625	615.234	92.6909	615.234	92.4203	615.234	92.4503	615.234	92.0584	615.234	92.0394	615.234	91.6059	615.234	91.4728	615.234	91.0892	615.234	90.7812	615.234	90.5269	615.234	90.0152	615.234	89.9309	615.234	89.246	615.234	89.3128	615.234	88.5559	615.234	88.693	615.234	88.0208	615.234	88.1086	615.234	87.6925	615.234	87.6115	615.234	87.5916	615.234	87.2582	615.234	87.7061	615.234	87.0934	615.234	87.9832	615.234	87.1364	615.234	88.3292	615.234	87.3725	615.234	88.6317	615.234	87.747	615.234	88.7943	615.234	88.1703	615.234	88.7634	615.234	88.5387
637.207	92.7347	637.207	92.535	637.207	92.7888	637.207	92.2168	637.207	92.6715	637.207	91.8054	637.207	92.3622	637.207	91.3235	637.207	91.8521	637.207	90.7909	637.207	91.1513	637.207	90.2258	637.207	90.2983	637.207	89.6469	637.207	89.368	637.207	89.0755	637.207	88.4745	637.207	88.5337	637.207	87.7517	637.207	88.0398	637.207	87.3099	637.207	87.6033	637.207	87.1895	637.207	87.2294	637.207	87.352	637.207	86.9383	637.207	87.7012	637.207	86.7863	637.207	88.1083	637.207	86.8517	637.207	88.4383	637.207	87.1651	637.207	88.5805	637.207	87.6466	637.207	88.4758	637.207	88.1349
659.912	92.9349	659.912	92.753	659.912	92.9595	659.912	92.4388	659.912	92.8099	659.912	92.022	659.912	92.4792	659.912	91.531	659.912	91.9705	659.912	90.9866	659.912	91.2991	659.912	90.3992	659.912	90.496	659.912	89.7722	659.912	89.6126	659.912	89.1121	659.912	88.7227	659.912	88.4395	659.912	87.92	659.912	87.7962	659.912	87.3099	659.912	87.2408	659.912	86.9948	659.912	86.8364	659.912	87.0357	659.912	86.637	659.912	87.3948	659.912	86.6795	659.912	87.9193	659.912	86.9684	659.912	88.4099	659.912	87.448	659.912	88.7057	659.912	87.9969	659.912	88.7244	659.912	88.4646
683.35	93.2188	683.35	93.0465	683.35	93.2281	683.35	92.7245	683.35	93.0637	683.35	92.2666	683.35	92.7189	683.35	91.687	683.35	92.1942	683.35	91.001	683.35	91.5016	683.35	90.2299	683.35	90.6689	683.35	89.4093	683.35	89.7436	683.35	88.5987	683.35	88.7952	683.35	87.8795	683.35	87.9184	683.35	87.3271	683.35	87.24	683.35	86.9668	683.35	86.9071	683.35	86.7634	683.35	87.0147	683.35	86.6704	683.35	87.4962	683.35	86.6941	683.35	88.1283	683.35	86.8991	683.35	88.6626	683.35	87.3294	683.35	88.9296	683.35	87.9154	683.35	88.8615	683.35	88.4855
706.787	92.9361	706.787	92.7916	706.787	92.9695	706.787	92.5438	706.787	92.8843	706.787	92.1975	706.787	92.6732	706.787	91.7514	706.787	92.3293	706.787	91.1937	706.787	91.8459	706.787	90.5004	706.787	91.217	706.787	89.6402	706.787	90.4383	706.787	88.5915	706.787	89.5065	706.787	87.3823	706.787	88.4239	706.787	86.158	706.787	87.2242	706.787	85.2301	706.787	86.0605	706.787	84.9103	706.787	85.3322	706.787	85.1721	706.787	85.4995	706.787	85.7203	706.787	86.4279	706.787	86.3488	706.787	87.4846	706.787	87.0132	706.787	88.2082	706.787	87.6792	706.787	88.4413	706.787	88.217
731.689	92.6766	731.689	92.5898	731.689	92.6371	731.689	92.4043	731.689	92.4576	731.689	92.1541	731.689	92.1415	731.689	91.866	731.689	91.7099	731.689	91.5435	731.689	91.2008	731.689	91.1579	731.689	90.6628	731.689	90.6537	731.689	90.1366	731.689	89.9651	731.689	89.6284	731.689	89.0379	731.689	89.094	731.689	87.8544	731.689	88.4527	731.689	86.4695	731.689	87.6327	731.689	85.0567	731.689	86.6464	731.689	83.9207	731.689	85.6963	731.689	83.3749	731.689	85.1761	731.689	83.5144	731.689	85.2732	731.689	84.1509	731.689	85.6421	731.689	84.9466	731.689	85.8146	731.689	85.5721
758.057	92.4365	758.057	92.3414	758.057	92.4109	758.057	92.1434	758.057	92.2482	758.057	91.8628	758.057	91.9355	758.057	91.5187	758.057	91.4703	758.057	91.1218	758.057	90.873	758.057	90.6639	758.057	90.1988	758.057	90.1167	758.057	89.5366	758.057	89.444	758.057	88.9734	758.057	88.6247	758.057	88.5331	758.057	87.6767	758.057	88.1487	758.057	86.6653	758.057	87.7143	758.057	85.6775	758.057	87.1771	758.057	84.7716	758.057	86.6081	758.057	83.9876	758.057	86.1821	758.057	83.4675	758.057	85.9938	758.057	83.4845	758.057	85.8844	758.057	84.0982	758.057	85.5772	758.057	84.9346
784.424	92.1611	784.424	92.0042	784.424	92.2144	784.424	91.7774	784.424	92.1277	784.424	91.5088	784.424	91.8708	784.424	91.2196	784.424	91.4314	784.424	90.9221	784.424	90.829	784.424	90.6105	784.424	90.1267	784.424	90.2499	784.424	89.425	784.424	89.7793	784.424	88.8188	784.424	89.1347	784.424	88.3324	784.424	88.2868	784.424	87.9007	784.424	87.2823	784.424	87.4296	784.424	86.271	784.424	86.8842	784.424	85.4563	784.424	86.3439	784.424	84.9427	784.424	85.9612	784.424	84.6729	784.424	85.7883	784.424	84.5875	784.424	85.6764	784.424	84.724	784.424	85.4411	784.424	85.0668
812.256	92.1278	812.256	91.9415	812.256	92.2033	812.256	91.693	812.256	92.1232	812.256	91.4233	812.256	91.8551	812.256	91.154	812.256	91.3845	812.256	90.8814	812.256	90.7236	812.256	90.5772	812.256	89.925	812.256	90.1988	812.256	89.0958	812.256	89.7027	812.256	88.3784	812.256	89.0578	812.256	87.868	812.256	88.2556	812.256	87.5266	812.256	87.3234	812.256	87.2118	812.256	86.3363	812.256	86.8031	812.256	85.4199	812.256	86.3098	812.256	84.727	812.256	85.8901	812.256	84.3922	812.256	85.7041	812.256	84.4693	812.256	85.6892	812.256	84.8561	812.256	85.6088	812.256	85.3113
840.82	92.1119	840.82	91.9969	840.82	92.1541	840.82	91.8145	840.82	92.1067	840.82	91.5727	840.82	91.9337	840.82	91.288	840.82	91.591	840.82	90.9742	840.82	91.052	840.82	90.6239	840.82	90.3364	840.82	90.2004	840.82	89.5285	840.82	89.6463	840.82	88.7555	840.82	88.9022	840.82	88.1071	840.82	87.9313	840.82	87.5501	840.82	86.7576	840.82	86.9599	840.82	85.5152	840.82	86.2612	840.82	84.4493	840.82	85.5678	840.82	83.775	840.82	85.1667	840.82	83.531	840.82	85.1758	840.82	83.6701	840.82	85.3025	840.82	84.1348	840.82	85.1882	840.82	84.7386
870.85	91.9618	870.85	91.7621	870.85	92.0005	870.85	91.4274	870.85	91.8654	870.85	91.0058	870.85	91.5477	870.85	90.5627	870.85	91.0497	870.85	90.158	870.85	90.4122	870.85	89.8192	870.85	89.7484	870.85	89.527	870.85	89.2358	870.85	89.2204	870.85	88.9984	870.85	88.8138	870.85	88.9574	870.85	88.2149	870.85	88.8629	870.85	87.3415	870.85	88.4587	870.85	86.14	870.85	87.5895	870.85	84.6292	870.85	86.2785	870.85	83.0301	870.85	84.8841	870.85	81.9607	870.85	84.0768	870.85	82.0447	870.85	84.0214	870.85	82.9111	870.85	84.0792	870.85	83.7275
901.611	92.6635	901.611	92.2905	901.611	92.7901	901.611	91.6939	901.611	92.6514	901.611	90.939	901.611	92.2172	901.611	90.1645	901.611	91.4568	901.611	89.5578	901.611	90.3785	901.611	89.2345	901.611	89.1126	901.611	89.1322	901.611	88.029	901.611	89.0665	901.611	87.6371	901.611	88.8673	901.611	88.0003	901.611	88.453	901.611	88.5992	901.611	87.8291	901.611	88.9286	901.611	87.0396	901.611	88.7272	901.611	86.0819	901.611	87.8899	901.611	84.8432	901.611	86.4266	901.611	83.1571	901.611	84.5303	901.611	81.083	901.611	82.6077	901.611	79.5061	901.611	80.9543	901.611	79.6575
933.105	93.9684	933.105	93.5741	933.105	94.0311	933.105	92.8268	933.105	93.8104	933.105	91.7643	933.105	93.3367	933.105	90.5002	933.105	92.5904	933.105	89.2268	933.105	91.5062	933.105	88.1895	933.105	90.0242	933.105	87.5924	933.105	88.2228	933.105	87.4621	933.105	86.6326	933.105	87.6363	933.105	86.2676	933.105	87.9	933.105	87.1789	933.105	88.0931	933.105	88.3337	933.105	88.121	933.105	89.1219	933.105	87.9246	933.105	89.406	933.105	87.4634	933.105	89.1999	933.105	86.7462	933.105	88.5625	933.105	85.9321	933.105	87.6015	933.105	85.4264	933.105	86.5135	933.105	85.6455
966.064	93.8104	966.064	93.4642	966.064	93.8758	966.064	92.8194	966.064	93.7051	966.064	91.8987	966.064	93.3381	966.064	90.7666	966.064	92.7735	966.064	89.5347	966.064	91.9561	966.064	88.3648	966.064	90.8023	966.064	87.426	966.064	89.2624	966.064	86.7893	966.064	87.4654	966.064	86.3651	966.064	85.9969	966.064	85.9967	966.064	85.7009	966.064	85.615	966.064	86.407	966.064	85.3107	966.064	87.2399	966.064	85.2455	966.064	87.7745	966.064	85.4357	966.064	87.998	966.064	85.7109	966.064	88.0139	966.064	85.9595	966.064	87.8424	966.064	86.2881	966.064	87.4236	966.064	86.8229
999.756	93.5852	999.756	93.3161	999.756	93.563	999.756	92.7155	999.756	93.3023	999.756	91.7805	999.756	92.8473	999.756	90.578	999.756	92.2192	999.756	89.2717	999.756	91.4099	999.756	88.1057	999.756	90.394	999.756	87.2903	999.756	89.1663	999.756	86.8486	999.756	87.814	999.756	86.6206	999.756	86.6121	999.756	86.4245	999.756	85.9655	999.756	86.179	999.756	86.0008	999.756	85.9095	999.756	86.3792	999.756	85.6658	999.756	86.7151	999.756	85.4321	999.756	86.87	999.756	85.1762	999.756	86.8948	999.756	85.0291	999.756	86.8078	999.756	85.2681	999.756	86.4869	999.756	85.8844
1,034.91	93.79	1,034.91	93.4555	1,034.91	93.8057	1,034.91	92.7774	1,034.91	93.5792	1,034.91	91.7981	1,034.91	93.1888	1,034.91	90.6119	1,034.91	92.6541	1,034.91	89.3406	1,034.91	91.9142	1,034.91	88.1119	1,034.91	90.8757	1,034.91	87.0203	1,034.91	89.5056	1,034.91	86.0896	1,034.91	87.9594	1,034.91	85.3234	1,034.91	86.713	1,034.91	84.8051	1,034.91	86.327	1,034.91	84.6563	1,034.91	86.7311	1,034.91	84.8316	1,034.91	87.3381	1,034.91	85.0665	1,034.91	87.6952	1,034.91	85.0659	1,034.91	87.6146	1,034.91	84.6779	1,034.91	87.1265	1,034.91	84.0591	1,034.91	86.3879	1,034.91	83.8339	1,034.91	85.4781	1,034.91	84.465
1,071.53	93.3758	1,071.53	93.0942	1,071.53	93.4578	1,071.53	92.6356	1,071.53	93.3077	1,071.53	91.9883	1,071.53	92.9168	1,071.53	91.1203	1,071.53	92.3073	1,071.53	90.0336	1,071.53	91.5029	1,071.53	88.835	1,071.53	90.4899	1,071.53	87.7554	1,071.53	89.2267	1,071.53	87.0029	1,071.53	87.7426	1,071.53	86.5297	1,071.53	86.3349	1,071.53	86.1123	1,071.53	85.6405	1,071.53	85.6898	1,071.53	85.9754	1,071.53	85.4675	1,071.53	86.8159	1,071.53	85.5695	1,071.53	87.5343	1,071.53	85.6986	1,071.53	87.8226	1,071.53	85.4015	1,071.53	87.5921	1,071.53	84.5557	1,071.53	86.8563	1,071.53	83.8494	1,071.53	85.6774	1,071.53	84.3614
1,109.62	93.1679	1,109.62	92.9023	1,109.62	93.3109	1,109.62	92.5487	1,109.62	93.2684	1,109.62	92.0786	1,109.62	92.9978	1,109.62	91.4225	1,109.62	92.493	1,109.62	90.5319	1,109.62	91.7569	1,109.62	89.4335	1,109.62	90.7729	1,109.62	88.2569	1,109.62	89.5204	1,109.62	87.2097	1,109.62	88.0428	1,109.62	86.4253	1,109.62	86.552	1,109.62	85.7979	1,109.62	85.4851	1,109.62	85.1204	1,109.62	85.2525	1,109.62	84.4372	1,109.62	85.7836	1,109.62	84.2228	1,109.62	86.598	1,109.62	84.72	1,109.62	87.2149	1,109.62	85.2878	1,109.62	87.3408	1,109.62	85.3461	1,109.62	86.8943	1,109.62	85.0825	1,109.62	86.0292	1,109.62	85.2333
1,148.44	93.1687	1,148.44	92.8393	1,148.44	93.3283	1,148.44	92.3568	1,148.44	93.2858	1,148.44	91.7304	1,148.44	92.992	1,148.44	90.968	1,148.44	92.4025	1,148.44	90.086	1,148.44	91.5013	1,148.44	89.1323	1,148.44	90.3132	1,148.44	88.2317	1,148.44	88.9161	1,148.44	87.5622	1,148.44	87.4795	1,148.44	87.1344	1,148.44	86.3035	1,148.44	86.672	1,148.44	85.7001	1,148.44	85.8904	1,148.44	85.7141	1,148.44	84.8852	1,148.44	86.1129	1,148.44	84.3115	1,148.44	86.6268	1,148.44	84.5341	1,148.44	87.0145	1,148.44	84.8082	1,148.44	87.0156	1,148.44	84.461	1,148.44	86.4055	1,148.44	83.7749	1,148.44	85.1815	1,148.44	83.9359
1,189.45	93.4779	1,189.45	93.1001	1,189.45	93.5415	1,189.45	92.4468	1,189.45	93.3192	1,189.45	91.6379	1,189.45	92.8586	1,189.45	90.8183	1,189.45	92.19	1,189.45	90.055	1,189.45	91.3268	1,189.45	89.2957	1,189.45	90.2768	1,189.45	88.4502	1,189.45	89.0435	1,189.45	87.5149	1,189.45	87.651	1,189.45	86.6261	1,189.45	86.2496	1,189.45	85.955	1,189.45	85.2416	1,189.45	85.5241	1,189.45	85.0305	1,189.45	85.2277	1,189.45	85.4191	1,189.45	85.0421	1,189.45	85.8693	1,189.45	85.0357	1,189.45	86.1579	1,189.45	85.0576	1,189.45	86.2543	1,189.45	84.7616	1,189.45	85.9117	1,189.45	84.175	1,189.45	84.977	1,189.45	84.0919
1,231.2	93.5916	1,231.2	93.2444	1,231.2	93.6055	1,231.2	92.6435	1,231.2	93.3074	1,231.2	91.8734	1,231.2	92.8197	1,231.2	90.951	1,231.2	92.248	1,231.2	89.8873	1,231.2	91.5492	1,231.2	88.7864	1,231.2	90.5559	1,231.2	87.7884	1,231.2	89.143	1,231.2	86.9011	1,231.2	87.4423	1,231.2	85.9893	1,231.2	86.0151	1,231.2	84.9425	1,231.2	85.4508	1,231.2	83.8326	1,231.2	85.5696	1,231.2	82.983	1,231.2	85.8599	1,231.2	82.7903	1,231.2	86.1	1,231.2	83.223	1,231.2	86.2185	1,231.2	83.7532	1,231.2	86.079	1,231.2	83.8808	1,231.2	85.4933	1,231.2	83.5696	1,231.2	84.4469	1,231.2	83.5601
1,274.41	93.3851	1,274.41	93.0863	1,274.41	93.3916	1,274.41	92.5845	1,274.41	93.0564	1,274.41	91.9077	1,274.41	92.441	1,274.41	90.9927	1,274.41	91.6928	1,274.41	89.7646	1,274.41	90.9168	1,274.41	88.2878	1,274.41	90.0443	1,274.41	86.9246	1,274.41	88.8807	1,274.41	86.1609	1,274.41	87.3252	1,274.41	85.8856	1,274.41	85.6509	1,274.41	85.431	1,274.41	84.6567	1,274.41	84.3579	1,274.41	84.832	1,274.41	82.8907	1,274.41	85.494	1,274.41	82.3227	1,274.41	85.9017	1,274.41	83.3796	1,274.41	85.8941	1,274.41	84.5734	1,274.41	85.5843	1,274.41	84.8765	1,274.41	85.0063	1,274.41	84.3315	1,274.41	84.2167	1,274.41	83.8244
1,319.82	92.8847	1,319.82	92.5897	1,319.82	92.8532	1,319.82	92.0305	1,319.82	92.5183	1,319.82	91.3062	1,319.82	91.991	1,319.82	90.4662	1,319.82	91.3994	1,319.82	89.4224	1,319.82	90.7497	1,319.82	87.9701	1,319.82	89.8788	1,319.82	86.0198	1,319.82	88.6152	1,319.82	84.1182	1,319.82	87.0136	1,319.82	83.4953	1,319.82	85.5105	1,319.82	83.9671	1,319.82	84.6809	1,319.82	84.1612	1,319.82	84.5524	1,319.82	83.3483	1,319.82	84.8022	1,319.82	82.0636	1,319.82	85.3398	1,319.82	82.7631	1,319.82	85.9454	1,319.82	84.6512	1,319.82	86.1519	1,319.82	85.426	1,319.82	85.6766	1,319.82	84.8899	1,319.82	84.6723	1,319.82	84.1685
1,365.97	92.5968	1,365.97	92.4468	1,365.97	92.5388	1,365.97	91.9733	1,365.97	92.3071	1,365.97	91.0956	1,365.97	91.845	1,365.97	89.8872	1,365.97	91.0926	1,365.97	88.5667	1,365.97	90.0774	1,365.97	87.3036	1,365.97	88.9214	1,365.97	86.0382	1,365.97	87.7455	1,365.97	84.6742	1,365.97	86.6017	1,365.97	83.5935	1,365.97	85.5767	1,365.97	83.4511	1,365.97	84.8793	1,365.97	83.7092	1,365.97	84.5768	1,365.97	83.0733	1,365.97	84.3996	1,365.97	80.9866	1,365.97	84.2462	1,365.97	80.524	1,365.97	84.4775	1,365.97	83.6719	1,365.97	84.93	1,365.97	85.6159	1,365.97	84.8209	1,365.97	85.5844	1,365.97	84.2219	1,365.97	84.5094
1,414.31	92.7742	1,414.31	92.1202	1,414.31	93.0545	1,414.31	91.3051	1,414.31	92.8714	1,414.31	90.5182	1,414.31	92.2988	1,414.31	89.7538	1,414.31	91.5168	1,414.31	88.8589	1,414.31	90.6331	1,414.31	87.7979	1,414.31	89.527	1,414.31	86.7262	1,414.31	87.9532	1,414.31	85.7707	1,414.31	85.8743	1,414.31	85.0176	1,414.31	84.0774	1,414.31	84.7494	1,414.31	84.0178	1,414.31	84.9818	1,414.31	85.0191	1,414.31	84.8767	1,414.31	85.4826	1,414.31	83.371	1,414.31	84.9895	1,414.31	80.0181	1,414.31	83.956	1,414.31	79.0271	1,414.31	83.1085	1,414.31	82.139	1,414.31	82.6569	1,414.31	83.5473	1,414.31	82.5522	1,414.31	83.1686
1,464.11	93.0802	1,464.11	92.4455	1,464.11	93.2952	1,464.11	91.652	1,464.11	92.9981	1,464.11	90.9915	1,464.11	92.2676	1,464.11	90.5283	1,464.11	91.3137	1,464.11	90.029	1,464.11	90.3808	1,464.11	89.194	1,464.11	89.5423	1,464.11	87.8917	1,464.11	88.5942	1,464.11	86.284	1,464.11	87.2302	1,464.11	84.9222	1,464.11	85.3473	1,464.11	84.4298	1,464.11	83.7346	1,464.11	84.6651	1,464.11	83.9681	1,464.11	84.8433	1,464.11	84.8841	1,464.11	84.273	1,464.11	84.6975	1,464.11	82.6994	1,464.11	83.4744	1,464.11	81.0906	1,464.11	82.5031	1,464.11	81.5714	1,464.11	82.3885	1,464.11	82.8759	1,464.11	82.7894	1,464.11	83.2313
1,515.38	93.0755	1,515.38	92.5634	1,515.38	93.2601	1,515.38	91.9789	1,515.38	92.953	1,515.38	91.4128	1,515.38	92.1562	1,515.38	90.8089	1,515.38	91.0241	1,515.38	90.1542	1,515.38	89.8604	1,515.38	89.3656	1,515.38	88.8725	1,515.38	88.1937	1,515.38	87.8984	1,515.38	86.4063	1,515.38	86.5959	1,515.38	84.2366	1,515.38	84.8351	1,515.38	82.9547	1,515.38	83.3233	1,515.38	83.3316	1,515.38	83.2336	1,515.38	83.9755	1,515.38	83.7142	1,515.38	83.7646	1,515.38	83.6387	1,515.38	82.6636	1,515.38	83.3158	1,515.38	81.6887	1,515.38	83.4859	1,515.38	81.9733	1,515.38	83.94	1,515.38	82.9522	1,515.38	84.0824	1,515.38	83.7386
1,568.85	92.5686	1,568.85	92.1969	1,568.85	93.0172	1,568.85	92.0101	1,568.85	93.1561	1,568.85	91.5709	1,568.85	92.7548	1,568.85	90.4613	1,568.85	91.8174	1,568.85	88.802	1,568.85	90.5918	1,568.85	87.3195	1,568.85	89.3952	1,568.85	86.4992	1,568.85	88.2855	1,568.85	85.6059	1,568.85	87.0846	1,568.85	83.6892	1,568.85	85.7968	1,568.85	80.6089	1,568.85	84.7767	1,568.85	78.2158	1,568.85	84.2004	1,568.85	78.8526	1,568.85	83.8714	1,568.85	79.7179	1,568.85	83.6721	1,568.85	79.8917	1,568.85	83.473	1,568.85	80.8224	1,568.85	83.1723	1,568.85	81.9956	1,568.85	82.8836	1,568.85	82.0559	1,568.85	82.3451	1,568.85	81.7719
1,624.51	92.5901	1,624.51	92.5416	1,624.51	92.712	1,624.51	92.4245	1,624.51	92.7569	1,624.51	92.0729	1,624.51	92.39	1,624.51	91.3586	1,624.51	91.4752	1,624.51	90.0801	1,624.51	90.2666	1,624.51	88.1039	1,624.51	89.1996	1,624.51	85.9793	1,624.51	88.2861	1,624.51	84.9306	1,624.51	86.9836	1,624.51	84.7074	1,624.51	84.875	1,624.51	84.1894	1,624.51	82.7823	1,624.51	82.6524	1,624.51	82.9282	1,624.51	79.9901	1,624.51	83.9962	1,624.51	78.4853	1,624.51	83.9236	1,624.51	79.2769	1,624.51	82.7558	1,624.51	79.819	1,624.51	81.739	1,624.51	79.7502	1,624.51	81.3018	1,624.51	79.6223	1,624.51	80.6791	1,624.51	79.8994
1,681.64	92.766	1,681.64	92.7581	1,681.64	92.9792	1,681.64	92.7253	1,681.64	93.1212	1,681.64	92.2683	1,681.64	92.805	1,681.64	91.2804	1,681.64	91.9488	1,681.64	89.8583	1,681.64	90.7497	1,681.64	87.9547	1,681.64	89.4316	1,681.64	85.3923	1,681.64	88.0555	1,681.64	82.6994	1,681.64	86.5833	1,681.64	82.2551	1,681.64	85.175	1,681.64	83.9246	1,681.64	84.3384	1,681.64	84.9125	1,681.64	84.36	1,681.64	83.9687	1,681.64	84.7569	1,681.64	80.3481	1,681.64	84.7757	1,681.64	76.1383	1,681.64	84.0415	1,681.64	79.8833	1,681.64	83.0079	1,681.64	82.2969	1,681.64	82.2756	1,681.64	81.9481	1,681.64	81.1397	1,681.64	80.5394
1,740.97	93.8406	1,740.97	93.8261	1,740.97	93.8844	1,740.97	93.5671	1,740.97	93.8634	1,740.97	92.9009	1,740.97	93.4036	1,740.97	91.9929	1,740.97	92.3643	1,740.97	91.0108	1,740.97	91.0025	1,740.97	89.7187	1,740.97	89.7293	1,740.97	87.6181	1,740.97	88.6248	1,740.97	84.4805	1,740.97	87.273	1,740.97	81.6065	1,740.97	85.4901	1,740.97	82.6749	1,740.97	84.2856	1,740.97	85.2881	1,740.97	84.8988	1,740.97	86.19	1,740.97	86.0091	1,740.97	84.5704	1,740.97	85.9998	1,740.97	79.8331	1,740.97	84.8347	1,740.97	77.2483	1,740.97	83.4924	1,740.97	81.7455	1,740.97	81.9628	1,740.97	83.0985	1,740.97	80.3976	1,740.97	81.6297
1,802.49	95.2062	1,802.49	94.8085	1,802.49	95.2529	1,802.49	94.0982	1,802.49	94.9212	1,802.49	93.1524	1,802.49	94.2117	1,802.49	92.0739	1,802.49	93.1771	1,802.49	90.9233	1,802.49	91.9737	1,802.49	89.6596	1,802.49	90.7823	1,802.49	88.0716	1,802.49	89.5027	1,802.49	85.8206	1,802.49	87.786	1,802.49	82.5632	1,802.49	85.6069	1,802.49	80.6447	1,802.49	84.1858	1,802.49	84.1664	1,802.49	85.0007	1,802.49	86.59	1,802.49	86.2576	1,802.49	86.321	1,802.49	86.206	1,802.49	83.1196	1,802.49	85.0541	1,802.49	78.2492	1,802.49	84.2412	1,802.49	81.4786	1,802.49	83.5511	1,802.49	83.5927	1,802.49	82.3443	1,802.49	82.8439
1,866.21	94.5333	1,866.21	94.7558	1,866.21	94.5484	1,866.21	94.488	1,866.21	94.7712	1,866.21	93.4528	1,866.21	94.4173	1,866.21	92.0456	1,866.21	93.0779	1,866.21	90.6746	1,866.21	91.1742	1,866.21	89.3098	1,866.21	89.7535	1,866.21	87.8054	1,866.21	89.0864	1,866.21	86.013	1,866.21	88.0351	1,866.21	83.1386	1,866.21	85.8752	1,866.21	77.4326	1,866.21	83.4917	1,866.21	79.7558	1,866.21	84.2169	1,866.21	85.355	1,866.21	86.229	1,866.21	86.9988	1,866.21	86.5088	1,866.21	85.4448	1,866.21	85.1886	1,866.21	80.6747	1,866.21	83.4317	1,866.21	79.3653	1,866.21	81.8924	1,866.21	83.2043	1,866.21	81.4401	1,866.21	83.2272
1,932.13	93.504	1,932.13	93.8326	1,932.13	93.1445	1,932.13	93.5228	1,932.13	93.2275	1,932.13	92.5272	1,932.13	93.1952	1,932.13	91.1728	1,932.13	92.3269	1,932.13	89.6189	1,932.13	90.5273	1,932.13	88.1363	1,932.13	88.3369	1,932.13	87.231	1,932.13	87.0202	1,932.13	86.7726	1,932.13	86.5076	1,932.13	85.6854	1,932.13	85.3612	1,932.13	82.3917	1,932.13	83.0636	1,932.13	72.9441	1,932.13	82.48	1,932.13	74.9593	1,932.13	84.8415	1,932.13	81.727	1,932.13	85.6853	1,932.13	83.11	1,932.13	84.6881	1,932.13	81.0531	1,932.13	82.9571	1,932.13	79.8236	1,932.13	80.7504	1,932.13	82.6084	1,932.13	79.8924	1,932.13	82.142
2,000.24	93.7726	2,000.24	93.3337	2,000.24	93.0676	2,000.24	92.3044	2,000.24	92.2304	2,000.24	91.9109	2,000.24	92.1347	2,000.24	91.421	2,000.24	91.7926	2,000.24	89.1657	2,000.24	90.3438	2,000.24	85.2276	2,000.24	87.8576	2,000.24	83.5869	2,000.24	86.1904	2,000.24	85.2588	2,000.24	86.2095	2,000.24	85.774	2,000.24	85.8251	2,000.24	83.1696	2,000.24	84.2892	2,000.24	77.0381	2,000.24	83.0841	2,000.24	76.4824	2,000.24	85.0072	2,000.24	81.7944	2,000.24	85.3826	2,000.24	82.5148	2,000.24	83.5238	2,000.24	79.2197	2,000.24	81.827	2,000.24	78.4092	2,000.24	79.6091	2,000.24	81.3444	2,000.24	77.8787	2,000.24	80.3677
2,070.56	94.2943	2,070.56	93.9001	2,070.56	93.8337	2,070.56	93.104	2,070.56	92.6696	2,070.56	91.9665	2,070.56	91.6369	2,070.56	90.1287	2,070.56	91.0179	2,070.56	87.8988	2,070.56	89.9369	2,070.56	86.2704	2,070.56	87.6257	2,070.56	84.2707	2,070.56	84.7937	2,070.56	81.6993	2,070.56	84.0462	2,070.56	80.6325	2,070.56	84.8828	2,070.56	80.7147	2,070.56	84.3239	2,070.56	79.6875	2,070.56	82.515	2,070.56	76.3825	2,070.56	83.9435	2,070.56	80.289	2,070.56	84.8125	2,070.56	82.2502	2,070.56	82.7584	2,070.56	80.1832	2,070.56	80.5694	2,070.56	77.8793	2,070.56	78.8876	2,070.56	81.3792	2,070.56	78.4421	2,070.56	81.3923
2,143.8	93.836	2,143.8	93.7854	2,143.8	93.6001	2,143.8	93.4224	2,143.8	92.9227	2,143.8	92.2718	2,143.8	91.9098	2,143.8	90.2066	2,143.8	90.8208	2,143.8	88.1813	2,143.8	89.5444	2,143.8	86.8634	2,143.8	87.7535	2,143.8	85.2112	2,143.8	85.7773	2,143.8	82.7556	2,143.8	85.0106	2,143.8	81.2729	2,143.8	85.2918	2,143.8	81.705	2,143.8	84.6698	2,143.8	80.9397	2,143.8	82.5514	2,143.8	77.3398	2,143.8	82.2376	2,143.8	78.855	2,143.8	83.8266	2,143.8	81.8792	2,143.8	82.4129	2,143.8	81.0786	2,143.8	78.9009	2,143.8	77.8392	2,143.8	76.1535	2,143.8	81.2623	2,143.8	78.3561	2,143.8	82.0584
2,219.24	93.3952	2,219.24	93.5434	2,219.24	93.1954	2,219.24	93.4096	2,219.24	92.6885	2,219.24	92.3634	2,219.24	91.8792	2,219.24	90.5628	2,219.24	90.919	2,219.24	89.0312	2,219.24	89.5322	2,219.24	87.9098	2,219.24	87.4509	2,219.24	86.3171	2,219.24	85.3254	2,219.24	84.0158	2,219.24	84.7851	2,219.24	81.8086	2,219.24	85.7744	2,219.24	81.072	2,219.24	86.4205	2,219.24	80.8794	2,219.24	85.906	2,219.24	78.6814	2,219.24	85.0754	2,219.24	77.8955	2,219.24	84.4386	2,219.24	80.9337	2,219.24	81.9142	2,219.24	81.3041	2,219.24	78.1941	2,219.24	77.9238	2,219.24	76.2903	2,219.24	80.1419	2,219.24	79.691	2,219.24	82.137
2,297.61	94.757	2,297.61	94.295	2,297.61	94.1161	2,297.61	93.1696	2,297.61	92.7419	2,297.61	92.0984	2,297.61	91.5152	2,297.61	91.2008	2,297.61	90.5976	2,297.61	89.5712	2,297.61	89.3345	2,297.61	86.7469	2,297.61	87.4498	2,297.61	84.507	2,297.61	85.2303	2,297.61	84.8124	2,297.61	83.8502	2,297.61	84.8215	2,297.61	84.3149	2,297.61	82.9246	2,297.61	85.0986	2,297.61	79.4641	2,297.61	85.4639	2,297.61	75.2594	2,297.61	85.8707	2,297.61	76.6251	2,297.61	85.1647	2,297.61	80.8789	2,297.61	81.3148	2,297.61	81.7829	2,297.61	76.0046	2,297.61	78.6635	2,297.61	76.2576	2,297.61	79.429	2,297.61	80.4662	2,297.61	82.1243
2,378.17	95.5998	2,378.17	94.8782	2,378.17	95.2153	2,378.17	93.8148	2,378.17	93.8267	2,378.17	92.8634	2,378.17	92.0277	2,378.17	91.205	2,378.17	90.411	2,378.17	88.5506	2,378.17	89.0681	2,378.17	87.0401	2,378.17	87.6156	2,378.17	87.0876	2,378.17	85.6794	2,378.17	86.2012	2,378.17	83.8908	2,378.17	84.3582	2,378.17	84.1233	2,378.17	82.7312	2,378.17	85.2338	2,378.17	81.4829	2,378.17	85.4106	2,378.17	77.9386	2,378.17	85.5676	2,378.17	75.7921	2,378.17	85.5261	2,378.17	81.0203	2,378.17	82.4171	2,378.17	82.5496	2,378.17	75.7093	2,378.17	79.6543	2,378.17	75.5934	2,378.17	79.0749	2,378.17	80.6689	2,378.17	82.111
2,462.4	95.2935	2,462.4	95.1378	2,462.4	95.3867	2,462.4	94.9878	2,462.4	94.7094	2,462.4	93.8464	2,462.4	93.055	2,462.4	91.2967	2,462.4	90.9796	2,462.4	88.8903	2,462.4	89.1907	2,462.4	88.0263	2,462.4	87.6269	2,462.4	87.0775	2,462.4	85.8382	2,462.4	85.4023	2,462.4	83.9224	2,462.4	84.3121	2,462.4	83.2031	2,462.4	84.4065	2,462.4	84.4019	2,462.4	83.9241	2,462.4	85.4426	2,462.4	80.6266	2,462.4	85.7209	2,462.4	75.0125	2,462.4	85.3261	2,462.4	80.902	2,462.4	83.1356	2,462.4	83.522	2,462.4	78.4852	2,462.4	81.1249	2,462.4	76.5191	2,462.4	77.7642	2,462.4	79.9606	2,462.4	80.9299
2,548.83	95.4992	2,548.83	95.4169	2,548.83	95.3639	2,548.83	95.1601	2,548.83	94.5456	2,548.83	93.9252	2,548.83	93.1987	2,548.83	91.6873	2,548.83	91.658	2,548.83	90.4916	2,548.83	89.7794	2,548.83	90.1411	2,548.83	87.6055	2,548.83	88.691	2,548.83	85.5005	2,548.83	85.9306	2,548.83	83.7178	2,548.83	84.017	2,548.83	82.1903	2,548.83	84.4798	2,548.83	81.0948	2,548.83	85.1088	2,548.83	82.7499	2,548.83	83.0771	2,548.83	85.4827	2,548.83	76.7538	2,548.83	85.9497	2,548.83	79.5169	2,548.83	83.2735	2,548.83	83.8604	2,548.83	77.9861	2,548.83	82.6355	2,548.83	74.6202	2,548.83	78.2631	2,548.83	76.8951	2,548.83	78.5619
2,638.92	96.0252	2,638.92	95.9477	2,638.92	95.5873	2,638.92	95.164	2,638.92	94.6366	2,638.92	93.5293	2,638.92	93.2899	2,638.92	92.1614	2,638.92	91.514	2,638.92	91.4852	2,638.92	89.7038	2,638.92	89.5921	2,638.92	88.2175	2,638.92	87.1676	2,638.92	86.6146	2,638.92	86.8004	2,638.92	85.0719	2,638.92	86.4873	2,638.92	84.2501	2,638.92	85.1649	2,638.92	83.2481	2,638.92	84.3629	2,638.92	81.4668	2,638.92	83.0367	2,638.92	83.6433	2,638.92	78.5271	2,638.92	85.993	2,638.92	78.4456	2,638.92	84.1313	2,638.92	83.7798	2,638.92	77.8047	2,638.92	83.4304	2,638.92	74.1509	2,638.92	79.5142	2,638.92	78.3124	2,638.92	79.8609
2,731.93	96.2448	2,731.93	96.081	2,731.93	95.7214	2,731.93	94.9683	2,731.93	94.883	2,731.93	93.5338	2,731.93	93.6689	2,731.93	92.7595	2,731.93	91.9759	2,731.93	91.7508	2,731.93	90.1895	2,731.93	89.8927	2,731.93	88.589	2,731.93	88.4627	2,731.93	87.1771	2,731.93	87.2636	2,731.93	85.386	2,731.93	84.8441	2,731.93	82.6743	2,731.93	82.4505	2,731.93	80.4862	2,731.93	82.7719	2,731.93	80.3241	2,731.93	83.0166	2,731.93	82.2923	2,731.93	79.4904	2,731.93	84.5055	2,731.93	76.7741	2,731.93	83.2739	2,731.93	83.0121	2,731.93	77.7155	2,731.93	83.5213	2,731.93	74.259	2,731.93	79.7255	2,731.93	77.9848	2,731.93	79.0848
2,828.61	96.4037	2,828.61	96.0731	2,828.61	95.8914	2,828.61	94.876	2,828.61	94.9209	2,828.61	93.5901	2,828.61	93.5775	2,828.61	92.6934	2,828.61	91.809	2,828.61	91.4763	2,828.61	89.8057	2,828.61	89.9599	2,828.61	87.6987	2,828.61	88.342	2,828.61	85.715	2,828.61	85.4034	2,828.61	83.6035	2,828.61	80.5375	2,828.61	81.1429	2,828.61	79.1097	2,828.61	79.4595	2,828.61	82.2995	2,828.61	78.9415	2,828.61	83.352	2,828.61	81.606	2,828.61	80.3125	2,828.61	84.098	2,828.61	74.5883	2,828.61	81.3892	2,828.61	82.2026	2,828.61	74.2321	2,828.61	83.8211	2,828.61	75.4255	2,828.61	80.3887	2,828.61	80.6385	2,828.61	80.5336
2,928.22	95.1831	2,928.22	94.8622	2,928.22	94.9646	2,928.22	94.1111	2,928.22	94.179	2,928.22	93.0413	2,928.22	92.7212	2,928.22	91.9485	2,928.22	90.6656	2,928.22	91.0087	2,928.22	88.4784	2,928.22	89.3103	2,928.22	86.5739	2,928.22	85.6523	2,928.22	84.7106	2,928.22	80.5066	2,928.22	81.6427	2,928.22	80.3713	2,928.22	77.6236	2,928.22	80.0197	2,928.22	76.7332	2,928.22	80.0964	2,928.22	77.1567	2,928.22	81.016	2,928.22	77.3508	2,928.22	80.4979	2,928.22	80.9958	2,928.22	75.6592	2,928.22	80.7256	2,928.22	79.4014	2,928.22	76.8583	2,928.22	82.5384	2,928.22	73.5081	2,928.22	79.3964	2,928.22	78.0587	2,928.22	76.2947
3,031.49	92.454	3,031.49	92.4665	3,031.49	92.2202	3,031.49	91.8428	3,031.49	91.6148	3,031.49	90.7242	3,031.49	90.2385	3,031.49	90.0399	3,031.49	88.0601	3,031.49	88.8345	3,031.49	85.6384	3,031.49	85.3898	3,031.49	83.5582	3,031.49	80.7034	3,031.49	81.7546	3,031.49	80.4767	3,031.49	78.9608	3,031.49	80.1449	3,031.49	75.2546	3,031.49	76.3827	3,031.49	74.3068	3,031.49	74.2054	3,031.49	75.4644	3,031.49	77.2949	3,031.49	75.4944	3,031.49	78.6315	3,031.49	78.4001	3,031.49	74.9413	3,031.49	79.6291	3,031.49	75.9304	3,031.49	76.5092	3,031.49	79.5543	3,031.49	69.0599	3,031.49	78.0363	3,031.49	71.3221	3,031.49	72.9556
3,138.43	91.1519	3,138.43	91.2677	3,138.43	90.5835	3,138.43	90.3378	3,138.43	90.0265	3,138.43	89.307	3,138.43	88.9981	3,138.43	88.6759	3,138.43	87.3819	3,138.43	86.386	3,138.43	85.2102	3,138.43	82.0208	3,138.43	81.8687	3,138.43	80.9034	3,138.43	78.3264	3,138.43	80.7353	3,138.43	75.4686	3,138.43	77.6372	3,138.43	73.8604	3,138.43	73.5281	3,138.43	74.2686	3,138.43	69.9089	3,138.43	74.3506	3,138.43	74.3238	3,138.43	73.8622	3,138.43	76.6256	3,138.43	77.0218	3,138.43	74.2663	3,138.43	78.9183	3,138.43	72.8459	3,138.43	76.2198	3,138.43	78.2261	3,138.43	70.3061	3,138.43	78.0866	3,138.43	69.6618	3,138.43	73.4535
3,249.02	92.6901	3,249.02	92.4955	3,249.02	92.126	3,249.02	91.41	3,249.02	91.5039	3,249.02	90.5774	3,249.02	90.8047	3,249.02	89.3555	3,249.02	89.7002	3,249.02	86.125	3,249.02	87.2844	3,249.02	82.9242	3,249.02	82.7228	3,249.02	81.359	3,249.02	77.2264	3,249.02	78.5053	3,249.02	74.6402	3,249.02	78.2118	3,249.02	76.8086	3,249.02	78.9315	3,249.02	79.3731	3,249.02	74.2059	3,249.02	80.408	3,249.02	71.9815	3,249.02	78.9155	3,249.02	76.798	3,249.02	78.6744	3,249.02	76.7827	3,249.02	80.4595	3,249.02	73.8876	3,249.02	76.6839	3,249.02	77.8984	3,249.02	67.2049	3,249.02	78.538	3,249.02	70.2932	3,249.02	75.0063
3,363.28	93.6021	3,363.28	93.2463	3,363.28	93.3439	3,363.28	92.6492	3,363.28	92.7962	3,363.28	92.0807	3,363.28	92.0077	3,363.28	90.2781	3,363.28	90.6593	3,363.28	87.1732	3,363.28	88.1496	3,363.28	84.8573	3,363.28	84.2838	3,363.28	82.4979	3,363.28	79.8654	3,363.28	81.5866	3,363.28	78.2953	3,363.28	82.8271	3,363.28	80.6386	3,363.28	81.7989	3,363.28	81.2406	3,363.28	77.2916	3,363.28	80.9387	3,363.28	72.5682	3,363.28	80.5786	3,363.28	76.455	3,363.28	78.8596	3,363.28	77.9922	3,363.28	79.9437	3,363.28	75.4396	3,363.28	77.4379	3,363.28	78.016	3,363.28	68.7465	3,363.28	79.6351	3,363.28	66.8148	3,363.28	75.6509
3,481.93	93.8481	3,481.93	93.7035	3,481.93	93.8729	3,481.93	93.5579	3,481.93	93.618	3,481.93	92.9599	3,481.93	92.9763	3,481.93	91.0804	3,481.93	91.6	3,481.93	88.1375	3,481.93	89.1354	3,481.93	85.9053	3,481.93	85.8124	3,481.93	84.7071	3,481.93	82.057	3,481.93	84.4567	3,481.93	80.8911	3,481.93	84.3354	3,481.93	82.9596	3,481.93	82.5762	3,481.93	82.6112	3,481.93	79.2467	3,481.93	80.0896	3,481.93	75.9582	3,481.93	79.4451	3,481.93	76.516	3,481.93	77.7371	3,481.93	78.0167	3,481.93	78.7741	3,481.93	76.9107	3,481.93	77.4655	3,481.93	78.9176	3,481.93	70.4422	3,481.93	80.3314	3,481.93	64.8407	3,481.93	75.94
3,604.98	94.3322	3,604.98	94.6299	3,604.98	93.935	3,604.98	94.364	3,604.98	93.7963	3,604.98	93.3121	3,604.98	93.468	3,604.98	90.8238	3,604.98	92.5253	3,604.98	87.2104	3,604.98	90.8835	3,604.98	86.1497	3,604.98	88.124	3,604.98	85.5112	3,604.98	84.2435	3,604.98	83.5696	3,604.98	81.0228	3,604.98	82.1758	3,604.98	82.3304	3,604.98	81.4855	3,604.98	82.2601	3,604.98	80.3582	3,604.98	79.2004	3,604.98	77.621	3,604.98	77.3251	3,604.98	75.9136	3,604.98	75.6516	3,604.98	78.1615	3,604.98	77.6666	3,604.98	78.2787	3,604.98	77.2825	3,604.98	79.5901	3,604.98	71.7716	3,604.98	81.2612	3,604.98	69.7063	3,604.98	78.0258
3,732.42	94.3103	3,732.42	94.6184	3,732.42	93.9303	3,732.42	94.4269	3,732.42	93.6505	3,732.42	93.0174	3,732.42	93.3109	3,732.42	89.8441	3,732.42	92.6796	3,732.42	87.993	3,732.42	91.3425	3,732.42	88.1551	3,732.42	89.082	3,732.42	85.894	3,732.42	85.6463	3,732.42	82.2958	3,732.42	81.3568	3,732.42	81.1745	3,732.42	81.0316	3,732.42	80.9783	3,732.42	81.104	3,732.42	80.2886	3,732.42	78.1262	3,732.42	78.8384	3,732.42	77.4105	3,732.42	76.1128	3,732.42	77.311	3,732.42	76.9117	3,732.42	77.5991	3,732.42	77.8968	3,732.42	76.9232	3,732.42	78.8436	3,732.42	71.6965	3,732.42	81.0188	3,732.42	71.9879	3,732.42	78.979
3,863.53	93.7628	3,863.53	93.9327	3,863.53	93.1922	3,863.53	93.314	3,863.53	92.7853	3,863.53	91.4122	3,863.53	92.6682	3,863.53	88.8264	3,863.53	92.2248	3,863.53	88.4535	3,863.53	90.9892	3,863.53	86.8455	3,863.53	88.6372	3,863.53	81.8886	3,863.53	84.4144	3,863.53	80.1851	3,863.53	78.7455	3,863.53	80.8595	3,863.53	78.8399	3,863.53	78.9375	3,863.53	80.3916	3,863.53	77.2122	3,863.53	78.2237	3,863.53	77.7473	3,863.53	77.5586	3,863.53	76.3786	3,863.53	77.1029	3,863.53	75.343	3,863.53	77.0584	3,863.53	76.9376	3,863.53	76.3218	3,863.53	78.476	3,863.53	72.9965	3,863.53	79.6305	3,863.53	71.541	3,863.53	78.1384
3,999.76	95.0449	3,999.76	95.5517	3,999.76	93.9868	3,999.76	94.7496	3,999.76	93.2563	3,999.76	92.6189	3,999.76	92.7899	3,999.76	90.8356	3,999.76	91.9973	3,999.76	90.1192	3,999.76	90.6376	3,999.76	87.8316	3,999.76	88.1052	3,999.76	84.602	3,999.76	83.615	3,999.76	82.0255	3,999.76	76.896	3,999.76	77.8712	3,999.76	78.8881	3,999.76	76.2521	3,999.76	82.5543	3,999.76	78.926	3,999.76	80.5463	3,999.76	78.8487	3,999.76	75.5687	3,999.76	77.2321	3,999.76	75.5331	3,999.76	78.0311	3,999.76	75.2354	3,999.76	79.5292	3,999.76	76.5659	3,999.76	80.8411	3,999.76	75.288	3,999.76	80.9706	3,999.76	72.6409	3,999.76	77.439
4,141.11	95.7007	4,141.11	96.4616	4,141.11	94.869	4,141.11	96.1249	4,141.11	94.3016	4,141.11	94.2509	4,141.11	93.6044	4,141.11	92.6152	4,141.11	92.6365	4,141.11	91.8113	4,141.11	91.1977	4,141.11	88.948	4,141.11	88.7902	4,141.11	84.67	4,141.11	84.9937	4,141.11	83.0391	4,141.11	78.4275	4,141.11	80.8688	4,141.11	74.297	4,141.11	79.2225	4,141.11	82.8382	4,141.11	79.8133	4,141.11	82.9513	4,141.11	79.2793	4,141.11	79.4139	4,141.11	77.476	4,141.11	77.6697	4,141.11	79.1587	4,141.11	76.785	4,141.11	81.6548	4,141.11	77.7197	4,141.11	82.3149	4,141.11	76.3463	4,141.11	82.4312	4,141.11	75.3285	4,141.11	79.5708
4,286.87	97.2739	4,286.87	97.9363	4,286.87	95.6564	4,286.87	96.7883	4,286.87	94.2313	4,286.87	94.5998	4,286.87	93.357	4,286.87	93.9546	4,286.87	92.5049	4,286.87	92.4952	4,286.87	91.5419	4,286.87	88.7524	4,286.87	89.7032	4,286.87	87.591	4,286.87	86.2714	4,286.87	86.7825	4,286.87	81.0598	4,286.87	83.9422	4,286.87	65.1612	4,286.87	81.8369	4,286.87	76.9267	4,286.87	80.9477	4,286.87	79.5168	4,286.87	80.2632	4,286.87	78.7884	4,286.87	79.5071	4,286.87	78.3201	4,286.87	79.9574	4,286.87	78.9506	4,286.87	81.8243	4,286.87	78.6145	4,286.87	83.1753	4,286.87	74.9878	4,286.87	84.0301	4,286.87	76.1296	4,286.87	81.8279
4,438.48	97.8118	4,438.48	98.6867	4,438.48	95.6325	4,438.48	97.4956	4,438.48	93.9008	4,438.48	95.6511	4,438.48	93.241	4,438.48	95.0076	4,438.48	92.9237	4,438.48	93.2451	4,438.48	92.0536	4,438.48	90.1721	4,438.48	89.9855	4,438.48	89.2886	4,438.48	87.8582	4,438.48	88.6511	4,438.48	82.8026	4,438.48	86.7293	4,438.48	66.08	4,438.48	84.7992	4,438.48	76.0755	4,438.48	83.1774	4,438.48	81.5459	4,438.48	81.4751	4,438.48	82.1784	4,438.48	79.7255	4,438.48	80.9874	4,438.48	80.9866	4,438.48	79.9087	4,438.48	83.9123	4,438.48	78.522	4,438.48	84.3344	4,438.48	72.3107	4,438.48	85.3405	4,438.48	76.6752	4,438.48	83.9187
4,594.48	97.7123	4,594.48	98.6917	4,594.48	95.799	4,594.48	97.6466	4,594.48	94.6613	4,594.48	96.411	4,594.48	94.4087	4,594.48	96.0613	4,594.48	93.9276	4,594.48	93.2873	4,594.48	92.9178	4,594.48	91.1068	4,594.48	92.1773	4,594.48	91.7572	4,594.48	90.0948	4,594.48	90.0028	4,594.48	86.1383	4,594.48	87.5762	4,594.48	81.9034	4,594.48	86.5575	4,594.48	73.6125	4,594.48	85.003	4,594.48	82.525	4,594.48	83.4843	4,594.48	83.2903	4,594.48	82.4529	4,594.48	82.1373	4,594.48	81.9219	4,594.48	79.3131	4,594.48	85.1884	4,594.48	74.2637	4,594.48	86.0367	4,594.48	66.5419	4,594.48	85.4075	4,594.48	74.8651	4,594.48	82.9957
4,757.08	98.3583	4,757.08	98.7893	4,757.08	96.5418	4,757.08	97.1847	4,757.08	95.2409	4,757.08	96.8701	4,757.08	94.8279	4,757.08	96.4359	4,757.08	94.2639	4,757.08	93.4017	4,757.08	94.2332	4,757.08	93.5011	4,757.08	93.4572	4,757.08	92.4239	4,757.08	90.2482	4,757.08	89.3717	4,757.08	87.657	4,757.08	88.0896	4,757.08	84.837	4,757.08	85.8901	4,757.08	80.0797	4,757.08	82.9011	4,757.08	83.2909	4,757.08	83.3986	4,757.08	85.6663	4,757.08	83.7632	4,757.08	83.3164	4,757.08	82.4295	4,757.08	82.5186	4,757.08	84.1052	4,757.08	78.6251	4,757.08	85.1706	4,757.08	69.5737	4,757.08	85.7733	4,757.08	68.8941	4,757.08	83.6614
4,924.8	98.4551	4,924.8	98.6012	4,924.8	96.6593	4,924.8	97.4088	4,924.8	95.3756	4,924.8	97.6223	4,924.8	94.744	4,924.8	96.224	4,924.8	94.8815	4,924.8	94.9819	4,924.8	95.3674	4,924.8	95.3708	4,924.8	93.6912	4,924.8	92.7355	4,924.8	91.7703	4,924.8	90.2683	4,924.8	90.8601	4,924.8	88.7728	4,924.8	86.9676	4,924.8	85.6115	4,924.8	85.8609	4,924.8	84.3403	4,924.8	84.5677	4,924.8	84.6954	4,924.8	86.0298	4,924.8	82.9769	4,924.8	85.4944	4,924.8	79.9947	4,924.8	83.1633	4,924.8	83.0635	4,924.8	79.6424	4,924.8	85.5666	4,924.8	75.6488	4,924.8	86.8228	4,924.8	62.1165	4,924.8	84.1322
5,098.39	97.218	5,098.39	97.27	5,098.39	96.0145	5,098.39	96.6595	5,098.39	95.2088	5,098.39	97.2622	5,098.39	94.9155	5,098.39	95.9912	5,098.39	95.3244	5,098.39	95.9998	5,098.39	95.7636	5,098.39	95.9439	5,098.39	95.5884	5,098.39	92.6811	5,098.39	95.3061	5,098.39	89.7848	5,098.39	93.3226	5,098.39	87.4522	5,098.39	84.4718	5,098.39	84.1878	5,098.39	85.4092	5,098.39	82.9788	5,098.39	87.3985	5,098.39	82.6058	5,098.39	84.1849	5,098.39	82.3087	5,098.39	81.9259	5,098.39	81.0419	5,098.39	79.0096	5,098.39	82.4669	5,098.39	75.0635	5,098.39	84.1563	5,098.39	79.3799	5,098.39	85.02	5,098.39	72.398	5,098.39	82.5292
5,277.83	95.7012	5,277.83	95.1606	5,277.83	95.7825	5,277.83	95.9136	5,277.83	95.9798	5,277.83	96.5454	5,277.83	95.5747	5,277.83	95.9603	5,277.83	95.337	5,277.83	96.9417	5,277.83	95.8567	5,277.83	94.3118	5,277.83	96.004	5,277.83	89.6755	5,277.83	95.5553	5,277.83	90.4471	5,277.83	93.6492	5,277.83	87.6282	5,277.83	86.6959	5,277.83	84.6888	5,277.83	76.2985	5,277.83	84.5498	5,277.83	80.4773	5,277.83	83.6897	5,277.83	78.6692	5,277.83	82.461	5,277.83	75.3683	5,277.83	79.5639	5,277.83	73.5356	5,277.83	82.9879	5,277.83	76.5167	5,277.83	84.4895	5,277.83	78.7177	5,277.83	84.1361	5,277.83	73.3652	5,277.83	80.8752
5,463.87	93.026	5,463.87	93.7135	5,463.87	94.2555	5,463.87	95.6041	5,463.87	95.5252	5,463.87	96.258	5,463.87	95.463	5,463.87	97.2836	5,463.87	95.8979	5,463.87	97.0115	5,463.87	96.3751	5,463.87	93.4363	5,463.87	95.5415	5,463.87	91.6297	5,463.87	94.2545	5,463.87	90.3453	5,463.87	91.9147	5,463.87	87.8434	5,463.87	86.9719	5,463.87	87.792	5,463.87	79.7123	5,463.87	85.6948	5,463.87	71.7509	5,463.87	82.353	5,463.87	73.7163	5,463.87	83.106	5,463.87	71.3065	5,463.87	82.345	5,463.87	73.5451	5,463.87	81.9974	5,463.87	74.6442	5,463.87	83.7359	5,463.87	74.0529	5,463.87	82.8182	5,463.87	72.3824	5,463.87	78.0912
5,656.49	91.4813	5,656.49	92.2919	5,656.49	93.4925	5,656.49	94.689	5,656.49	94.645	5,656.49	96.5066	5,656.49	95.4218	5,656.49	97.6465	5,656.49	96.6172	5,656.49	96.2398	5,656.49	96.8009	5,656.49	92.7637	5,656.49	95.5493	5,656.49	92.188	5,656.49	92.8566	5,656.49	90.8709	5,656.49	89.3926	5,656.49	88.2003	5,656.49	85.1841	5,656.49	86.8575	5,656.49	78.936	5,656.49	85.2733	5,656.49	71.269	5,656.49	82.7566	5,656.49	79.9582	5,656.49	82.6281	5,656.49	78.8248	5,656.49	81.0883	5,656.49	65.2313	5,656.49	80.9635	5,656.49	67.6229	5,656.49	81.1291	5,656.49	77.3015	5,656.49	79.8159	5,656.49	73.0852	5,656.49	77.367
5,856.45	90.5754	5,856.45	91.4673	5,856.45	92.813	5,856.45	94.3764	5,856.45	94.5721	5,856.45	96.5574	5,856.45	96.116	5,856.45	97.5065	5,856.45	97.2928	5,856.45	95.8035	5,856.45	97.1796	5,856.45	93.9473	5,856.45	94.846	5,856.45	92.8084	5,856.45	90.881	5,856.45	88.7959	5,856.45	87.3261	5,856.45	85.543	5,856.45	82.6072	5,856.45	86.3349	5,856.45	77.4081	5,856.45	84.4094	5,856.45	68.9227	5,856.45	80.6391	5,856.45	79.0527	5,856.45	81.2659	5,856.45	79.8865	5,856.45	80.5069	5,856.45	73.5637	5,856.45	80.104	5,856.45	73.884	5,856.45	81.3391	5,856.45	77.7164	5,856.45	78.3173	5,856.45	75.1211	5,856.45	76.6285
6,062.99	91.0431	6,062.99	92.0797	6,062.99	92.5465	6,062.99	94.7243	6,062.99	94.1515	6,062.99	96.7574	6,062.99	95.8594	6,062.99	97.3405	6,062.99	97.1039	6,062.99	96.045	6,062.99	96.3087	6,062.99	94.4933	6,062.99	92.7195	6,062.99	91.7083	6,062.99	88.2779	6,062.99	85.7765	6,062.99	83.722	6,062.99	81.5449	6,062.99	77.5944	6,062.99	82.1311	6,062.99	76.0201	6,062.99	81.4939	6,062.99	69.8935	6,062.99	79.6098	6,062.99	76.0192	6,062.99	79.2385	6,062.99	76.9729	6,062.99	78.9756	6,062.99	73.2311	6,062.99	78.3453	6,062.99	73.247	6,062.99	80.2899	6,062.99	74.8899	6,062.99	77.9615	6,062.99	68.1159	6,062.99	76.0416
6,276.86	92.1365	6,276.86	92.3921	6,276.86	92.9912	6,276.86	94.3306	6,276.86	93.9716	6,276.86	96.3299	6,276.86	95.7845	6,276.86	96.8967	6,276.86	96.5045	6,276.86	95.7493	6,276.86	95.0098	6,276.86	93.8396	6,276.86	91.528	6,276.86	89.6175	6,276.86	87.1964	6,276.86	83.0606	6,276.86	81.8262	6,276.86	80.8477	6,276.86	75.2579	6,276.86	79.486	6,276.86	73.1253	6,276.86	78.3972	6,276.86	67.7124	6,276.86	77.3656	6,276.86	73.4632	6,276.86	78.122	6,276.86	74.0052	6,276.86	78.2557	6,276.86	64.6705	6,276.86	77.3747	6,276.86	70.997	6,276.86	80.4842	6,276.86	75.901	6,276.86	77.9772	6,276.86	69.0204	6,276.86	72.0885
6,498.05	91.7103	6,498.05	92.1891	6,498.05	93.157	6,498.05	94.483	6,498.05	94.5299	6,498.05	96.2137	6,498.05	96.0511	6,498.05	96.4346	6,498.05	96.1092	6,498.05	94.9609	6,498.05	93.6884	6,498.05	91.9332	6,498.05	89.3333	6,498.05	87.2402	6,498.05	82.6372	6,498.05	84.0401	6,498.05	79.9465	6,498.05	81.3549	6,498.05	75.7972	6,498.05	77.3678	6,498.05	74.7302	6,498.05	77.1591	6,498.05	66.5337	6,498.05	77.899	6,498.05	73.3948	6,498.05	78.2008	6,498.05	72.2784	6,498.05	77.3966	6,498.05	61.4317	6,498.05	76.174	6,498.05	67.6745	6,498.05	78.7234	6,498.05	75.2043	6,498.05	77.6131	6,498.05	70.7079	6,498.05	72.6633
6,727.29	91.8887	6,727.29	92.1652	6,727.29	93.6001	6,727.29	94.7259	6,727.29	95.0468	6,727.29	96.4513	6,727.29	96.6532	6,727.29	96.2627	6,727.29	96.2165	6,727.29	93.9448	6,727.29	93.0374	6,727.29	90.0057	6,727.29	87.5068	6,727.29	86.3293	6,727.29	82.5811	6,727.29	84.7639	6,727.29	83.0222	6,727.29	83.0198	6,727.29	76.8357	6,727.29	80.8974	6,727.29	69.409	6,727.29	79.2294	6,727.29	75.4319	6,727.29	76.4233	6,727.29	69.6338	6,727.29	76.7316	6,727.29	72.3196	6,727.29	76.3898	6,727.29	62.1504	6,727.29	75.8013	6,727.29	66.7577	6,727.29	78.7208	6,727.29	75.032	6,727.29	78.3022	6,727.29	69.6483	6,727.29	75.0012
6,964.6	90.2107	6,964.6	91.5456	6,964.6	92.6709	6,964.6	95.4419	6,964.6	95.1554	6,964.6	97.0096	6,964.6	97.2304	6,964.6	96.1535	6,964.6	96.3475	6,964.6	93.4414	6,964.6	92.7094	6,964.6	89.1171	6,964.6	87.3217	6,964.6	87.2336	6,964.6	87.1743	6,964.6	85.1373	6,964.6	88.3976	6,964.6	80.0963	6,964.6	82.6205	6,964.6	78.8525	6,964.6	71.3627	6,964.6	80.1749	6,964.6	75.7574	6,964.6	76.7227	6,964.6	61.4482	6,964.6	74.9114	6,964.6	73.8519	6,964.6	74.7815	6,964.6	65.2538	6,964.6	73.2679	6,964.6	69.8815	6,964.6	77.529	6,964.6	76.4809	6,964.6	77.4847	6,964.6	72.0079	6,964.6	74.8543
7,209.96	86.3432	7,209.96	89.3737	7,209.96	91.2981	7,209.96	95.3466	7,209.96	95.2349	7,209.96	97.2204	7,209.96	97.5133	7,209.96	96.3115	7,209.96	96.1981	7,209.96	93.4898	7,209.96	92.1358	7,209.96	90.1077	7,209.96	86.4845	7,209.96	87.3361	7,209.96	89.978	7,209.96	80.5589	7,209.96	89.7786	7,209.96	79.148	7,209.96	82.9566	7,209.96	80.2663	7,209.96	78.0659	7,209.96	79.1162	7,209.96	78.0745	7,209.96	75.4675	7,209.96	55.9059	7,209.96	75.6062	7,209.96	73.1723	7,209.96	77.51	7,209.96	60.0506	7,209.96	73.0931	7,209.96	67.3143	7,209.96	78.9584	7,209.96	78.0002	7,209.96	77.0473	7,209.96	74.1047	7,209.96	77.0723
7,464.11	81.2232	7,464.11	85.8818	7,464.11	89.2129	7,464.11	94.9754	7,464.11	95.0945	7,464.11	97.0535	7,464.11	97.6873	7,464.11	96.3398	7,464.11	95.497	7,464.11	94.2188	7,464.11	88.9428	7,464.11	89.0683	7,464.11	87.8698	7,464.11	86.3483	7,464.11	91.4536	7,464.11	81.8473	7,464.11	87.6469	7,464.11	83.4412	7,464.11	77.8523	7,464.11	82.2331	7,464.11	81.031	7,464.11	81.6263	7,464.11	82.8067	7,464.11	79.4359	7,464.11	62.7971	7,464.11	76.8938	7,464.11	74.0884	7,464.11	81.0483	7,464.11	65.8518	7,464.11	74.4111	7,464.11	67.4052	7,464.11	80.5615	7,464.11	80.0448	7,464.11	78.3145	7,464.11	75.6878	7,464.11	78.5951
7,727.78	90.9719	7,727.78	89.7175	7,727.78	91.571	7,727.78	93.3601	7,727.78	95.9022	7,727.78	95.3115	7,727.78	97.3655	7,727.78	95.3321	7,727.78	92.7471	7,727.78	92.5962	7,727.78	87.6602	7,727.78	86.5071	7,727.78	90.32	7,727.78	88.8186	7,727.78	88.6481	7,727.78	88.7185	7,727.78	77.5574	7,727.78	86.7227	7,727.78	72.2522	7,727.78	81.8567	7,727.78	82.4664	7,727.78	82.2432	7,727.78	85.0542	7,727.78	82.3615	7,727.78	72.5801	7,727.78	79.0094	7,727.78	69.5642	7,727.78	83.0179	7,727.78	71.1034	7,727.78	75.8917	7,727.78	74.2388	7,727.78	81.2739	7,727.78	80.8821	7,727.78	78.6733	7,727.78	74.7282	7,727.78	81.1939
8,000.24	94.1029	8,000.24	94.0897	8,000.24	92.7312	8,000.24	94.1576	8,000.24	94.9695	8,000.24	94.2291	8,000.24	95.2877	8,000.24	93.9502	8,000.24	88.8836	8,000.24	87.3712	8,000.24	89.6406	8,000.24	90.7355	8,000.24	89.2834	8,000.24	91.9831	8,000.24	86.2156	8,000.24	89.4657	8,000.24	85.2601	8,000.24	86.943	8,000.24	83.3272	8,000.24	80.6673	8,000.24	82.9006	8,000.24	81.9909	8,000.24	87.6192	8,000.24	82.7455	8,000.24	77.1551	8,000.24	74.3848	8,000.24	72.7317	8,000.24	80.8749	8,000.24	70.017	8,000.24	76.2	8,000.24	76.9909	8,000.24	79.931	8,000.24	81.2022	8,000.24	78.8237	8,000.24	67.1238	8,000.24	77.4887
8,282.23	95.9969	8,282.23	94.9346	8,282.23	94.8257	8,282.23	93.9079	8,282.23	94.8484	8,282.23	93.1999	8,282.23	93.3381	8,282.23	91.6066	8,282.23	86.2178	8,282.23	87.61	8,282.23	89.8377	8,282.23	92.9934	8,282.23	89.1798	8,282.23	91.5183	8,282.23	90.0381	8,282.23	88.7885	8,282.23	91.4466	8,282.23	85.3852	8,282.23	87.3135	8,282.23	80.2904	8,282.23	80.2474	8,282.23	82.5296	8,282.23	85.1787	8,282.23	82.7308	8,282.23	69.7308	8,282.23	73.6029	8,282.23	70.6622	8,282.23	78.1567	8,282.23	77.41	8,282.23	76.9576	8,282.23	71.4819	8,282.23	78.8904	8,282.23	80.1901	8,282.23	78.805	8,282.23	69.5224	8,282.23	77.8273
8,574.46	96.7696	8,574.46	95.5035	8,574.46	95.3054	8,574.46	92.9699	8,574.46	92.4465	8,574.46	89.7131	8,574.46	87.3949	8,574.46	86.8462	8,574.46	82.6151	8,574.46	89.1571	8,574.46	88.8148	8,574.46	91.7271	8,574.46	89.1011	8,574.46	88.8926	8,574.46	91.1432	8,574.46	88.4907	8,574.46	90.9257	8,574.46	85.1423	8,574.46	84.1515	8,574.46	80.3082	8,574.46	78.5132	8,574.46	80.5753	8,574.46	79.3307	8,574.46	81.1689	8,574.46	70.0835	8,574.46	75.6676	8,574.46	68.8041	8,574.46	76.6413	8,574.46	76.47	8,574.46	78.1587	8,574.46	70.6438	8,574.46	78.7963	8,574.46	75.8348	8,574.46	80.3243	8,574.46	71.7446	8,574.46	76.0305
8,876.22	96.1082	8,876.22	94.5022	8,876.22	95.2503	8,876.22	91.5761	8,876.22	91.0908	8,876.22	87.4109	8,876.22	83.3504	8,876.22	87.9668	8,876.22	87.0181	8,876.22	89.5264	8,876.22	89.5947	8,876.22	89.2139	8,876.22	89.2333	8,876.22	87.9939	8,876.22	89.8077	8,876.22	86.8146	8,876.22	86.6574	8,876.22	83.1793	8,876.22	78.9535	8,876.22	79.206	8,876.22	76.3133	8,876.22	77.3877	8,876.22	72.0011	8,876.22	78.1756	8,876.22	68.7032	8,876.22	76.0897	8,876.22	72.0027	8,876.22	75.5833	8,876.22	73.1442	8,876.22	74.918	8,876.22	70.5297	8,876.22	76.4442	8,876.22	73.3682	8,876.22	76.6978	8,876.22	69.4064	8,876.22	75.5521
9,189.7	94.2859	9,189.7	92.3793	9,189.7	94.2318	9,189.7	89.6455	9,189.7	90.2506	9,189.7	85.9035	9,189.7	86.8746	9,189.7	88.1778	9,189.7	89.8396	9,189.7	89.0536	9,189.7	90.3589	9,189.7	88.5013	9,189.7	89.5779	9,189.7	87.0027	9,189.7	87.3742	9,189.7	83.7617	9,189.7	82.858	9,189.7	79.7728	9,189.7	79.7669	9,189.7	75.3886	9,189.7	70.645	9,189.7	73.7396	9,189.7	71.6445	9,189.7	74.4995	9,189.7	67.4126	9,189.7	72.5498	9,189.7	68.4559	9,189.7	73.8416	9,189.7	70.3399	9,189.7	70.0451	9,189.7	70.8853	9,189.7	73.8624	9,189.7	66.5611	9,189.7	72.6573	9,189.7	72.2244	9,189.7	73.595
9,513.43	92.4868	9,513.43	89.9985	9,513.43	92.9535	9,513.43	87.5307	9,513.43	88.5055	9,513.43	85.6415	9,513.43	87.6807	9,513.43	88.8999	9,513.43	89.6969	9,513.43	89.3609	9,513.43	89.7333	9,513.43	87.8749	9,513.43	87.832	9,513.43	84.9237	9,513.43	83.1792	9,513.43	80.99	9,513.43	79.0547	9,513.43	76.5303	9,513.43	71.0601	9,513.43	71.2974	9,513.43	67.7514	9,513.43	72.5938	9,513.43	74.8186	9,513.43	71.1467	9,513.43	68.4209	9,513.43	67.362	9,513.43	67.6983	9,513.43	72.8947	9,513.43	58.6469	9,513.43	64.9792	9,513.43	70.2943	9,513.43	72.0708	9,513.43	67.7585	9,513.43	71.4804	9,513.43	72.0245	9,513.43	72.7681
9,848.88	91.2102	9,848.88	88.5163	9,848.88	91.1835	9,848.88	86.0125	9,848.88	86.387	9,848.88	86.1765	9,848.88	89.517	9,848.88	90.1865	9,848.88	89.9362	9,848.88	89.8337	9,848.88	89.2412	9,848.88	86.7324	9,848.88	86.3602	9,848.88	82.6735	9,848.88	80.4726	9,848.88	78.0526	9,848.88	77.2868	9,848.88	71.6537	9,848.88	71.6985	9,848.88	67.7709	9,848.88	71.7165	9,848.88	72.1541	9,848.88	73.5416	9,848.88	71.8023	9,848.88	63.929	9,848.88	53.6694	9,848.88	69.0978	9,848.88	71.9075	9,848.88	66.691	9,848.88	69.0779	9,848.88	67.995	9,848.88	68.2087	9,848.88	65.6549	9,848.88	69.258	9,848.88	73.4765	9,848.88	72.4622
10,196.8	91.1641	10,196.8	88.1931	10,196.8	90.7995	10,196.8	86.2288	10,196.8	87.9588	10,196.8	88.8386	10,196.8	91.1947	10,196.8	91.5201	10,196.8	90.3854	10,196.8	89.6833	10,196.8	89.5952	10,196.8	83.7865	10,196.8	85.2813	10,196.8	79.9369	10,196.8	77.8357	10,196.8	76.4579	10,196.8	76.5892	10,196.8	72.0145	10,196.8	76.1133	10,196.8	70.9038	10,196.8	68.5619	10,196.8	68.2645	10,196.8	74.6129	10,196.8	70.6177	10,196.8	66.0876	10,196.8	64.2729	10,196.8	73.0751	10,196.8	68.9466	10,196.8	70.188	10,196.8	71.3222	10,196.8	67.7355	10,196.8	62.6392	10,196.8	66.0809	10,196.8	68.4987	10,196.8	74.3695	10,196.8	71.8702
10,556.4	92.5182	10,556.4	89.8842	10,556.4	91.9774	10,556.4	88.8892	10,556.4	90.6516	10,556.4	91.0939	10,556.4	92.7892	10,556.4	91.9585	10,556.4	91.2119	10,556.4	88.3213	10,556.4	89.7028	10,556.4	81.7397	10,556.4	83.3569	10,556.4	81.6131	10,556.4	78.3542	10,556.4	75.8186	10,556.4	78.1526	10,556.4	75.8637	10,556.4	76.8189	10,556.4	74.3784	10,556.4	69.4851	10,556.4	68.5259	10,556.4	77.1756	10,556.4	70.883	10,556.4	66.9497	10,556.4	67.5715	10,556.4	69.5853	10,556.4	65.2906	10,556.4	65.5969	10,556.4	70.3716	10,556.4	66.6646	10,556.4	61.5805	10,556.4	64.5303	10,556.4	68.0328	10,556.4	73.5699	10,556.4	69.9438
10,928.5	93.4029	10,928.5	90.977	10,928.5	92.7066	10,928.5	91.2373	10,928.5	92.7789	10,928.5	93.1111	10,928.5	94.4896	10,928.5	92.282	10,928.5	92.2999	10,928.5	87.232	10,928.5	89.2332	10,928.5	81.6024	10,928.5	79.9826	10,928.5	80.1036	10,928.5	79.3339	10,928.5	76.2506	10,928.5	78.179	10,928.5	78.643	10,928.5	76.0503	10,928.5	75.4748	10,928.5	75.2016	10,928.5	70.2086	10,928.5	78.9424	10,928.5	71.8809	10,928.5	70.0764	10,928.5	70.2482	10,928.5	64.6838	10,928.5	61.4258	10,928.5	59.0761	10,928.5	71.1852	10,928.5	67.0727	10,928.5	59.0209	10,928.5	65.0806	10,928.5	70.9768	10,928.5	75.4023	10,928.5	68.115
11,313.7	93.5892	11,313.7	92.2753	11,313.7	93.6767	11,313.7	94.0845	11,313.7	95.1754	11,313.7	94.799	11,313.7	95.1191	11,313.7	91.8077	11,313.7	91.2671	11,313.7	85.2051	11,313.7	86.6729	11,313.7	80.5331	11,313.7	76.3564	11,313.7	80.5835	11,313.7	79.2632	11,313.7	80.5943	11,313.7	77.0376	11,313.7	80.1143	11,313.7	75.787	11,313.7	75.1935	11,313.7	78.1012	11,313.7	70.3868	11,313.7	78.434	11,313.7	73.0963	11,313.7	64.7728	11,313.7	72.3193	11,313.7	70.5979	11,313.7	54.6194	11,313.7	66.3211	11,313.7	74.2376	11,313.7	67.7867	11,313.7	60.5793	11,313.7	69.632	11,313.7	70.6988	11,313.7	76.6921	11,313.7	69.5487
11,712.9	94.2447	11,712.9	94.0848	11,712.9	94.6322	11,712.9	96.0154	11,712.9	95.6388	11,712.9	95.3846	11,712.9	93.9524	11,712.9	89.876	11,712.9	89.8426	11,712.9	84.2371	11,712.9	82.8948	11,712.9	82.8312	11,712.9	78.3046	11,712.9	82.8886	11,712.9	80.0461	11,712.9	79.498	11,712.9	80.8386	11,712.9	77.9493	11,712.9	79.163	11,712.9	72.1969	11,712.9	79.7457	11,712.9	68.4603	11,712.9	78.4046	11,712.9	72.016	11,712.9	68.1349	11,712.9	70.462	11,712.9	64.3467	11,712.9	51.3338	11,712.9	67.2955	11,712.9	73.2793	11,712.9	71.0282	11,712.9	66.6931	11,712.9	73.4893	11,712.9	70.7709	11,712.9	78.2585	11,712.9	69.4076
12,126	94.3003	12,126	94.8002	12,126	95.4709	12,126	96.483	12,126	95.6582	12,126	94.6892	12,126	92.8464	12,126	88.755	12,126	87.7532	12,126	86.7544	12,126	82.3811	12,126	84.2291	12,126	84.0931	12,126	82.6214	12,126	82.0182	12,126	78.2352	12,126	81.2293	12,126	76.8922	12,126	79.1059	12,126	71.5988	12,126	80.1718	12,126	70.3151	12,126	80.1056	12,126	70.5063	12,126	69.8314	12,126	65.7579	12,126	72.2633	12,126	41.8982	12,126	71.9979	12,126	71.1723	12,126	66.9954	12,126	68.6333	12,126	73.6163	12,126	71.0161	12,126	77.1644	12,126	72.7471
12,553.7	95.5016	12,553.7	95.6368	12,553.7	96.412	12,553.7	96.1676	12,553.7	95.3557	12,553.7	94.0236	12,553.7	91.9116	12,553.7	89.746	12,553.7	88.2239	12,553.7	88.0908	12,553.7	86.091	12,553.7	83.9665	12,553.7	84.2678	12,553.7	81.5532	12,553.7	81.3687	12,553.7	78.0841	12,553.7	79.202	12,553.7	74.7942	12,553.7	78.6497	12,553.7	71.0896	12,553.7	79.4449	12,553.7	69.4419	12,553.7	79.4231	12,553.7	70.0444	12,553.7	65.112	12,553.7	68.4405	12,553.7	71.0903	12,553.7	49.086	12,553.7	72.0789	12,553.7	72.0936	12,553.7	67.7024	12,553.7	69.0021	12,553.7	74.7243	12,553.7	70.9699	12,553.7	78.2038	12,553.7	75.3398
12,996.1	96.9044	12,996.1	96.0948	12,996.1	97.4093	12,996.1	95.6291	12,996.1	95.8605	12,996.1	94.0804	12,996.1	92.5592	12,996.1	89.8067	12,996.1	89.8676	12,996.1	88.1501	12,996.1	86.4375	12,996.1	82.5943	12,996.1	84.1269	12,996.1	80.8534	12,996.1	79.5949	12,996.1	75.003	12,996.1	77.4716	12,996.1	70.9059	12,996.1	78.2264	12,996.1	69.6255	12,996.1	80.5019	12,996.1	61.817	12,996.1	81.0968	12,996.1	68.4083	12,996.1	67.5966	12,996.1	68.9111	12,996.1	70.8193	12,996.1	57.1772	12,996.1	70.7673	12,996.1	72.0107	12,996.1	70.4276	12,996.1	69.1347	12,996.1	74.0272	12,996.1	70.4138	12,996.1	79.7657	12,996.1	77.0572
13,454.6	97.7581	13,454.6	96.8013	13,454.6	98.1032	13,454.6	96.3454	13,454.6	96.4331	13,454.6	94.7529	13,454.6	93.0538	13,454.6	89.5641	13,454.6	90.4195	13,454.6	88.259	13,454.6	86.6677	13,454.6	80.2879	13,454.6	84.3119	13,454.6	79.2738	13,454.6	76.0503	13,454.6	71.243	13,454.6	78.3775	13,454.6	68.1297	13,454.6	77.4695	13,454.6	72.9591	13,454.6	82.506	13,454.6	60.6881	13,454.6	82.201	13,454.6	65.8159	13,454.6	68.0758	13,454.6	69.0496	13,454.6	70.6064	13,454.6	60.5259	13,454.6	71.3475	13,454.6	72.1315	13,454.6	72.1921	13,454.6	69.5833	13,454.6	75.5058	13,454.6	70.7708	13,454.6	81.4852	13,454.6	78.8452
13,928.5	98.2931	13,928.5	97.4991	13,928.5	98.444	13,928.5	96.8582	13,928.5	96.5801	13,928.5	94.8158	13,928.5	93.017	13,928.5	89.486	13,928.5	91.3631	13,928.5	88.355	13,928.5	86.7155	13,928.5	78.6609	13,928.5	83.179	13,928.5	77.8625	13,928.5	75.8475	13,928.5	73.3457	13,928.5	78.9373	13,928.5	66.8292	13,928.5	78.4699	13,928.5	75.556	13,928.5	83.6641	13,928.5	63.3411	13,928.5	82.8758	13,928.5	66.3344	13,928.5	67.6298	13,928.5	71.1433	13,928.5	72.7349	13,928.5	63.1582	13,928.5	74.2949	13,928.5	74.5745	13,928.5	73.0462	13,928.5	70.1952	13,928.5	76.1215	13,928.5	71.6045	13,928.5	82.7211	13,928.5	79.916
14,419.9	99.0172	14,419.9	98.3255	14,419.9	98.8176	14,419.9	97.3057	14,419.9	96.6455	14,419.9	95.1509	14,419.9	93.7691	14,419.9	90.0051	14,419.9	92.0164	14,419.9	87.5781	14,419.9	86.0773	14,419.9	76.4295	14,419.9	81.3485	14,419.9	75.817	14,419.9	75.361	14,419.9	74.1016	14,419.9	79.4633	14,419.9	65.823	14,419.9	78.5954	14,419.9	76.1026	14,419.9	83.5999	14,419.9	59.3332	14,419.9	82.5837	14,419.9	65.1529	14,419.9	65.9185	14,419.9	72.5434	14,419.9	72.4404	14,419.9	60.7596	14,419.9	74.2373	14,419.9	75.856	14,419.9	72.4543	14,419.9	70.1896	14,419.9	74.4847	14,419.9	72.8108	14,419.9	83.037	14,419.9	80.4625
14,928.2	99.9822	14,928.2	99.2533	14,928.2	99.1542	14,928.2	97.2806	14,928.2	96.9139	14,928.2	94.8998	14,928.2	93.7826	14,928.2	87.8384	14,928.2	90.9385	14,928.2	85.2632	14,928.2	83.146	14,928.2	73.8934	14,928.2	80.3416	14,928.2	75.2972	14,928.2	76.7005	14,928.2	72.6052	14,928.2	76.8406	14,928.2	68.1306	14,928.2	76.906	14,928.2	74.0905	14,928.2	81.7735	14,928.2	54.0613	14,928.2	81.1716	14,928.2	64.5623	14,928.2	67.4983	14,928.2	71.0145	14,928.2	71.6192	14,928.2	56.3363	14,928.2	71.3684	14,928.2	74.0043	14,928.2	72.1862	14,928.2	69.5961	14,928.2	73.987	14,928.2	70.0571	14,928.2	82.802	14,928.2	80.059
15,454.8	99.9596	15,454.8	99.1031	15,454.8	98.6093	15,454.8	96.2909	15,454.8	96.3143	15,454.8	93.3227	15,454.8	92.3008	15,454.8	84.3569	15,454.8	88.5479	15,454.8	84.1711	15,454.8	80.6508	15,454.8	69.4155	15,454.8	79.3125	15,454.8	75.2463	15,454.8	76.1875	15,454.8	68.7661	15,454.8	76.0712	15,454.8	62.962	15,454.8	75.9223	15,454.8	72.5996	15,454.8	81.1697	15,454.8	58.5214	15,454.8	80.7154	15,454.8	63.9444	15,454.8	67.692	15,454.8	68.999	15,454.8	71.8554	15,454.8	60.7564	15,454.8	71.2546	15,454.8	71.6517	15,454.8	72.8158	15,454.8	69.1858	15,454.8	73.5661	15,454.8	68.9585	15,454.8	82.1594	15,454.8	79.4037
15,999.8	100.422	15,999.8	99.5868	15,999.8	98.8505	15,999.8	96.2229	15,999.8	96.7036	15,999.8	92.8662	15,999.8	91.6187	15,999.8	82.2045	15,999.8	88.3932	15,999.8	83.781	15,999.8	82.159	15,999.8	68.9685	15,999.8	80.7265	15,999.8	74.5767	15,999.8	78.6554	15,999.8	70.5801	15,999.8	75.7789	15,999.8	60.6532	15,999.8	77.4607	15,999.8	72.6448	15,999.8	81.2239	15,999.8	61.8399	15,999.8	81.0938	15,999.8	64.3539	15,999.8	67.3429	15,999.8	69.8969	15,999.8	72.1388	15,999.8	59.0497	15,999.8	73.2396	15,999.8	72.8115	15,999.8	71.292	15,999.8	71.316	15,999.8	74.5813	15,999.8	71.1125	15,999.8	82.1644	15,999.8	79.5914
16,564.5	99.8939	16,564.5	99.1028	16,564.5	98.1177	16,564.5	95.3197	16,564.5	95.729	16,564.5	91.2937	16,564.5	89.4632	16,564.5	81.232	16,564.5	87.9187	16,564.5	83.6099	16,564.5	81.0676	16,564.5	69.7597	16,564.5	80.0454	16,564.5	73.4725	16,564.5	77.7252	16,564.5	68.6218	16,564.5	74.5899	16,564.5	49.8294	16,564.5	75.8677	16,564.5	72.5493	16,564.5	79.8965	16,564.5	60.1654	16,564.5	79.842	16,564.5	62.4801	16,564.5	63.6168	16,564.5	70.6091	16,564.5	70.7702	16,564.5	56.918	16,564.5	73.3582	16,564.5	72.2464	16,564.5	69.9349	16,564.5	70.1595	16,564.5	73.6997	16,564.5	70.0653	16,564.5	81.1714	16,564.5	79.5414
17,148.2	99.413	17,148.2	98.9526	17,148.2	96.9979	17,148.2	94.6119	17,148.2	93.9011	17,148.2	90.2939	17,148.2	87.2994	17,148.2	82.0849	17,148.2	86.7631	17,148.2	83.5648	17,148.2	78.7569	17,148.2	69.968	17,148.2	78.7182	17,148.2	73.1725	17,148.2	75.9726	17,148.2	67.5063	17,148.2	72.2499	17,148.2	58.8649	17,148.2	74.3445	17,148.2	71.8541	17,148.2	78.7868	17,148.2	56.0215	17,148.2	79.1054	17,148.2	60.0502	17,148.2	64.3512	17,148.2	70.9868	17,148.2	70.3327	17,148.2	51.1674	17,148.2	71.7306	17,148.2	72.4077	17,148.2	69.6335	17,148.2	67.1283	17,148.2	72.0636	17,148.2	67.8744	17,148.2	80.8172	17,148.2	79.0636
17,753.2	98.9308	17,753.2	98.5909	17,753.2	95.9487	17,753.2	93.4426	17,753.2	92.8708	17,753.2	89.8309	17,753.2	87.0149	17,753.2	83.0557	17,753.2	86.2457	17,753.2	83.562	17,753.2	81.0033	17,753.2	69.7575	17,753.2	77.8301	17,753.2	73.2698	17,753.2	75.5631	17,753.2	67.4996	17,753.2	72.3911	17,753.2	58.0219	17,753.2	74.6075	17,753.2	71.4574	17,753.2	79.4978	17,753.2	57.9884	17,753.2	80.0011	17,753.2	59.0441	17,753.2	66.299	17,753.2	72.3745	17,753.2	70.604	17,753.2	56.2076	17,753.2	71.3332	17,753.2	73.4808	17,753.2	71.5444	17,753.2	68.3096	17,753.2	73.9751	17,753.2	68.1684	17,753.2	82.1031	17,753.2	79.6612
18,379.4	96.4981	18,379.4	96.383	18,379.4	93.7939	18,379.4	91.2254	18,379.4	91.6636	18,379.4	89.2291	18,379.4	85.8668	18,379.4	83.7067	18,379.4	86.4292	18,379.4	81.9125	18,379.4	82.671	18,379.4	67.4878	18,379.4	75.5446	18,379.4	70.6571	18,379.4	74.8195	18,379.4	66.2232	18,379.4	69.8562	18,379.4	64.5621	18,379.4	72.5201	18,379.4	70.9854	18,379.4	78.1995	18,379.4	64.2902	18,379.4	78.8383	18,379.4	60.5139	18,379.4	63.7335	18,379.4	72.5628	18,379.4	69.373	18,379.4	55.6356	18,379.4	71.4493	18,379.4	73.5137	18,379.4	71.6052	18,379.4	66.6625	18,379.4	73.5552	18,379.4	68.244	18,379.4	81.8776	18,379.4	79.0193
19,027.6	93.7598	19,027.6	93.8383	19,027.6	92.2718	19,027.6	89.8608	19,027.6	89.5892	19,027.6	88.7688	19,027.6	85.0835	19,027.6	83.7895	19,027.6	85.388	19,027.6	76.5041	19,027.6	81.0609	19,027.6	65.9413	19,027.6	71.8751	19,027.6	66.3093	19,027.6	68.8228	19,027.6	67.5763	19,027.6	69.8587	19,027.6	68.416	19,027.6	65.458	19,027.6	68.5144	19,027.6	77.4085	19,027.6	65.2216	19,027.6	77.1358	19,027.6	61.1253	19,027.6	62.7115	19,027.6	70.8641	19,027.6	66.431	19,027.6	54.6441	19,027.6	67.5161	19,027.6	72.3445	19,027.6	68.0203	19,027.6	56.1634	19,027.6	69.9909	19,027.6	67.1601	19,027.6	79.8971	19,027.6	75.7532
19,698.5	94.5644	19,698.5	94.4174	19,698.5	93.044	19,698.5	89.9923	19,698.5	89.9502	19,698.5	88.3	19,698.5	85.653	19,698.5	83.213	19,698.5	84.059	19,698.5	68.9346	19,698.5	79.1622	19,698.5	64.962	19,698.5	68.5512	19,698.5	63.7565	19,698.5	58.4761	19,698.5	65.0197	19,698.5	67.7067	19,698.5	66.5589	19,698.5	64.7626	19,698.5	64.9345	19,698.5	75.9959	19,698.5	62.3186	19,698.5	75.2848	19,698.5	61.0865	19,698.5	65.1583	19,698.5	68.3512	19,698.5	67.1547	19,698.5	59.3137	19,698.5	62.8223	19,698.5	70.9134	19,698.5	67.0919	19,698.5	60.5129	19,698.5	72.4383	19,698.5	66.3392	19,698.5	79.4116	19,698.5	73.2268
19,999.5	94.7289	19,999.5	94.294	19,999.5	93.4242	19,999.5	89.4025	19,999.5	90.0756	19,999.5	87.7879	19,999.5	85.6871	19,999.5	82.71	19,999.5	84.2169	19,999.5	66.86	19,999.5	79.1579	19,999.5	65.0163	19,999.5	68.4078	19,999.5	62.3169	19,999.5	61.0212	19,999.5	64.3825	19,999.5	66.6145	19,999.5	65.6723	19,999.5	71.3946	19,999.5	65.0557	19,999.5	75.9917	19,999.5	58.2221	19,999.5	75.2278	19,999.5	61.3024	19,999.5	66.7666	19,999.5	66.5175	19,999.5	68.4105	19,999.5	60.9459	19,999.5	61.7619	19,999.5	70.5779	19,999.5	68.3273	19,999.5	59.9252	19,999.5	73.186	19,999.5	66.5877	19,999.5	79.3943	19,999.5	72.9698
