"SPL Horizontal"																																																																							
"On-Axis"		"10°"		"-10°"		"20°"		"-20°"		"30°"		"-30°"		"40°"		"-40°"		"50°"		"-50°"		"60°"		"-60°"		"70°"		"-70°"		"80°"		"-80°"		"90°"		"-90°"		"100°"		"-100°"		"110°"		"-110°"		"120°"		"-120°"		"130°"		"-130°"		"140°"		"-140°"		"150°"		"-150°"		"160°"		"-160°"		"170°"		"-170°"		"180°"	
"Frequency [Hz]"	"Sound Pessure Level [dB]  / [2.83V 1m] "	"Frequency [Hz]"	"Sound Pessure Level [dB]  / [2.83V 1m] "	"Frequency [Hz]"	"Sound Pessure Level [dB]  / [2.83V 1m] "	"Frequency [Hz]"	"Sound Pessure Level [dB]  / [2.83V 1m] "	"Frequency [Hz]"	"Sound Pessure Level [dB]  / [2.83V 1m] "	"Frequency [Hz]"	"Sound Pessure Level [dB]  / [2.83V 1m] "	"Frequency [Hz]"	"Sound Pessure Level [dB]  / [2.83V 1m] "	"Frequency [Hz]"	"Sound Pessure Level [dB]  / [2.83V 1m] "	"Frequency [Hz]"	"Sound Pessure Level [dB]  / [2.83V 1m] "	"Frequency [Hz]"	"Sound Pessure Level [dB]  / [2.83V 1m] "	"Frequency [Hz]"	"Sound Pessure Level [dB]  / [2.83V 1m] "	"Frequency [Hz]"	"Sound Pessure Level [dB]  / [2.83V 1m] "	"Frequency [Hz]"	"Sound Pessure Level [dB]  / [2.83V 1m] "	"Frequency [Hz]"	"Sound Pessure Level [dB]  / [2.83V 1m] "	"Frequency [Hz]"	"Sound Pessure Level [dB]  / [2.83V 1m] "	"Frequency [Hz]"	"Sound Pessure Level [dB]  / [2.83V 1m] "	"Frequency [Hz]"	"Sound Pessure Level [dB]  / [2.83V 1m] "	"Frequency [Hz]"	"Sound Pessure Level [dB]  / [2.83V 1m] "	"Frequency [Hz]"	"Sound Pessure Level [dB]  / [2.83V 1m] "	"Frequency [Hz]"	"Sound Pessure Level [dB]  / [2.83V 1m] "	"Frequency [Hz]"	"Sound Pessure Level [dB]  / [2.83V 1m] "	"Frequency [Hz]"	"Sound Pessure Level [dB]  / [2.83V 1m] "	"Frequency [Hz]"	"Sound Pessure Level [dB]  / [2.83V 1m] "	"Frequency [Hz]"	"Sound Pessure Level [dB]  / [2.83V 1m] "	"Frequency [Hz]"	"Sound Pessure Level [dB]  / [2.83V 1m] "	"Frequency [Hz]"	"Sound Pessure Level [dB]  / [2.83V 1m] "	"Frequency [Hz]"	"Sound Pessure Level [dB]  / [2.83V 1m] "	"Frequency [Hz]"	"Sound Pessure Level [dB]  / [2.83V 1m] "	"Frequency [Hz]"	"Sound Pessure Level [dB]  / [2.83V 1m] "	"Frequency [Hz]"	"Sound Pessure Level [dB]  / [2.83V 1m] "	"Frequency [Hz]"	"Sound Pessure Level [dB]  / [2.83V 1m] "	"Frequency [Hz]"	"Sound Pessure Level [dB]  / [2.83V 1m] "	"Frequency [Hz]"	"Sound Pessure Level [dB]  / [2.83V 1m] "	"Frequency [Hz]"	"Sound Pessure Level [dB]  / [2.83V 1m] "	"Frequency [Hz]"	"Sound Pessure Level [dB]  / [2.83V 1m] "	"Frequency [Hz]"	"Sound Pessure Level [dB]  / [2.83V 1m] "
20.5078	44.0659	20.5078	43.9804	20.5078	44.1464	20.5078	43.8898	20.5078	44.2226	20.5078	43.7947	20.5078	44.2955	20.5078	43.6965	20.5078	44.3658	20.5078	43.5974	20.5078	44.4341	20.5078	43.501	20.5078	44.5003	20.5078	43.4119	20.5078	44.564	20.5078	43.3359	20.5078	44.6237	20.5078	43.2798	20.5078	44.6775	20.5078	43.2511	20.5078	44.7223	20.5078	43.257	20.5078	44.7545	20.5078	43.3033	20.5078	44.7694	20.5078	43.3924	20.5078	44.7616	20.5078	43.5224	20.5078	44.7258	20.5078	43.686	20.5078	44.6576	20.5078	43.8717	20.5078	44.5546	20.5078	44.0651	20.5078	44.4175	20.5078	44.2512
21.2402	46.1387	21.2402	46.0639	21.2402	46.1647	21.2402	45.9414	21.2402	46.1416	21.2402	45.7732	21.2402	46.0697	21.2402	45.563	21.2402	45.9503	21.2402	45.3161	21.2402	45.7859	21.2402	45.0405	21.2402	45.5808	21.2402	44.7472	21.2402	45.3419	21.2402	44.4499	21.2402	45.0789	21.2402	44.1653	21.2402	44.8051	21.2402	43.9107	21.2402	44.5362	21.2402	43.7018	21.2402	44.2886	21.2402	43.5495	21.2402	44.0768	21.2402	43.4572	21.2402	43.9092	21.2402	43.4198	21.2402	43.7867	21.2402	43.4252	21.2402	43.702	21.2402	43.4579	21.2402	43.6426	21.2402	43.503	21.2402	43.5953	21.2402	43.55
21.9727	44.8226	21.9727	44.7486	21.9727	44.8712	21.9727	44.6499	21.9727	44.8963	21.9727	44.5294	21.9727	44.9022	21.9727	44.393	21.9727	44.8951	21.9727	44.2492	21.9727	44.8831	21.9727	44.1092	21.9727	44.8756	21.9727	43.986	21.9727	44.882	21.9727	43.8939	21.9727	44.9106	21.9727	43.8469	21.9727	44.9665	21.9727	43.8561	21.9727	45.0499	21.9727	43.9279	21.9727	45.1552	21.9727	44.0619	21.9727	45.2712	21.9727	44.2496	21.9727	45.3823	21.9727	44.4756	21.9727	45.4714	21.9727	44.7197	21.9727	45.5224	21.9727	44.9596	21.9727	45.5225	21.9727	45.1742	21.9727	45.4643	21.9727	45.3464
22.7051	49.1668	22.7051	49.1325	22.7051	49.1795	22.7051	49.0776	22.7051	49.1712	22.7051	49.004	22.7051	49.1438	22.7051	48.9152	22.7051	49.1005	22.7051	48.8158	22.7051	49.0456	22.7051	48.7119	22.7051	48.9847	22.7051	48.6104	22.7051	48.924	22.7051	48.5188	22.7051	48.8702	22.7051	48.4451	22.7051	48.8292	22.7051	48.3962	22.7051	48.8054	22.7051	48.3776	22.7051	48.8004	22.7051	48.3914	22.7051	48.8123	22.7051	48.4361	22.7051	48.8357	22.7051	48.5059	22.7051	48.8622	22.7051	48.5912	22.7051	48.8824	22.7051	48.6807	22.7051	48.8872	22.7051	48.7628	22.7051	48.87	22.7051	48.828
23.4375	47.8087	23.4375	47.7782	23.4375	47.788	23.4375	47.6962	23.4375	47.7169	23.4375	47.5637	23.4375	47.5977	23.4375	47.3827	23.4375	47.4342	23.4375	47.1565	23.4375	47.2317	23.4375	46.8903	23.4375	46.9984	23.4375	46.592	23.4375	46.7448	23.4375	46.273	23.4375	46.4841	23.4375	45.9488	23.4375	46.2314	23.4375	45.6387	23.4375	46.0016	23.4375	45.3648	23.4375	45.8065	23.4375	45.1482	23.4375	45.6525	23.4375	45.004	23.4375	45.5379	23.4375	44.937	23.4375	45.4538	23.4375	44.9392	23.4375	45.3865	23.4375	44.9926	23.4375	45.3218	23.4375	45.0748	23.4375	45.2492	23.4375	45.1651
24.1699	45.4836	24.1699	45.4314	24.1699	45.4884	24.1699	45.3314	24.1699	45.4487	24.1699	45.1864	24.1699	45.3705	24.1699	45.0022	24.1699	45.263	24.1699	44.7891	24.1699	45.1393	24.1699	44.563	24.1699	45.0161	24.1699	44.346	24.1699	44.9134	24.1699	44.1661	24.1699	44.8514	24.1699	44.0541	24.1699	44.8472	24.1699	44.0368	24.1699	44.9098	24.1699	44.1282	24.1699	45.0364	24.1699	44.323	24.1699	45.2121	24.1699	44.5963	24.1699	45.4125	24.1699	44.9109	24.1699	45.6089	24.1699	45.226	24.1699	45.7729	24.1699	45.5059	24.1699	45.8803	24.1699	45.7234	24.1699	45.9133	24.1699	45.8616
25.6348	49.0004	25.6348	48.9876	25.6348	48.9621	25.6348	48.9244	25.6348	48.8751	25.6348	48.8144	25.6348	48.7454	25.6348	48.6651	25.6348	48.5828	25.6348	48.488	25.6348	48.4019	25.6348	48.2998	25.6348	48.2229	25.6348	48.1224	25.6348	48.0703	25.6348	47.982	25.6348	47.9708	25.6348	47.905	25.6348	47.9477	25.6348	47.9123	25.6348	48.0143	25.6348	48.0125	25.6348	48.1684	25.6348	48.1974	25.6348	48.3916	25.6348	48.4433	25.6348	48.6535	25.6348	48.7165	25.6348	48.9185	25.6348	48.9813	25.6348	49.153	25.6348	49.2055	25.6348	49.3296	25.6348	49.3642	25.6348	49.4292	25.6348	49.4412
26.3672	49.6003	26.3672	49.579	26.3672	49.5699	26.3672	49.5066	26.3672	49.4903	26.3672	49.3871	26.3672	49.3674	26.3672	49.2278	26.3672	49.2109	26.3672	49.041	26.3672	49.0356	26.3672	48.8439	26.3672	48.8613	26.3672	48.6593	26.3672	48.7127	26.3672	48.5142	26.3672	48.6161	26.3672	48.4362	26.3672	48.5948	26.3672	48.4465	26.3672	48.6621	26.3672	48.5534	26.3672	48.8158	26.3672	48.7478	26.3672	49.0374	26.3672	49.0048	26.3672	49.2965	26.3672	49.2897	26.3672	49.5576	26.3672	49.5658	26.3672	49.7872	26.3672	49.8005	26.3672	49.9579	26.3672	49.9689	26.3672	50.0505	26.3672	50.0547
27.0996	50.8747	27.0996	50.8489	27.0996	50.8576	27.0996	50.7808	27.0996	50.8006	27.0996	50.6746	27.0996	50.71	27.0996	50.5385	27.0996	50.5962	27.0996	50.3851	27.0996	50.4741	27.0996	50.2323	27.0996	50.3625	27.0996	50.1026	27.0996	50.2833	27.0996	50.0211	27.0996	50.2583	27.0996	50.0109	27.0996	50.3042	27.0996	50.0878	27.0996	50.428	27.0996	50.2536	27.0996	50.6229	27.0996	50.4948	27.0996	50.8698	27.0996	50.7848	27.0996	51.1402	27.0996	51.0906	27.0996	51.403	27.0996	51.3784	27.0996	51.6287	27.0996	51.6193	27.0996	51.7937	27.0996	51.7914	27.0996	51.8807	27.0996	51.8805
27.832	51.4509	27.832	51.423	27.832	51.4366	27.832	51.354	27.832	51.383	27.832	51.2491	27.832	51.297	27.832	51.118	27.832	51.1903	27.832	50.9757	27.832	51.0791	27.832	50.8424	27.832	50.9843	27.832	50.743	27.832	50.9295	27.832	50.7033	27.832	50.9375	27.832	50.7454	27.832	51.0244	27.832	50.8808	27.832	51.1946	27.832	51.1058	27.832	51.4379	27.832	51.4008	27.832	51.7312	27.832	51.7352	27.832	52.0435	27.832	52.0739	27.832	52.3418	27.832	52.3835	27.832	52.5964	27.832	52.6362	27.832	52.7837	27.832	52.8116	27.832	52.887	27.832	52.897
29.2969	53.0626	29.2969	53.0408	29.2969	53.042	29.2969	52.9773	29.2969	52.9823	29.2969	52.8772	29.2969	52.8909	29.2969	52.7503	29.2969	52.7803	29.2969	52.6116	29.2969	52.6676	29.2969	52.4819	29.2969	52.5751	29.2969	52.3867	29.2969	52.5272	29.2969	52.3531	29.2969	52.5471	29.2969	52.4039	29.2969	52.6507	29.2969	52.551	29.2969	52.8407	29.2969	52.7899	29.2969	53.1049	29.2969	53.0998	29.2969	53.4181	29.2969	53.4484	29.2969	53.7477	29.2969	53.7993	29.2969	54.0603	29.2969	54.1183	29.2969	54.3259	29.2969	54.3774	29.2969	54.5212	29.2969	54.5561	29.2969	54.6295	29.2969	54.6419
30.0293	54.5921	30.0293	54.5704	30.0293	54.5757	30.0293	54.5121	30.0293	54.5239	30.0293	54.4226	30.0293	54.4434	30.0293	54.3115	30.0293	54.3451	30.0293	54.1937	30.0293	54.2448	30.0293	54.0886	30.0293	54.1623	30.0293	54.0192	30.0293	54.1199	30.0293	54.009	30.0293	54.1389	30.0293	54.0768	30.0293	54.2343	30.0293	54.231	30.0293	54.41	30.0293	54.4657	30.0293	54.6562	30.0293	54.7612	30.0293	54.9511	30.0293	55.0879	30.0293	55.265	30.0293	55.4129	30.0293	55.5666	30.0293	55.7052	30.0293	55.8272	30.0293	55.9391	30.0293	56.0235	30.0293	56.0959	30.0293	56.139	30.0293	56.164
31.4941	56.335	31.4941	56.3125	31.4941	56.3127	31.4941	56.2466	31.4941	56.2485	31.4941	56.143	31.4941	56.1498	31.4941	56.0125	31.4941	56.0289	31.4941	55.8712	31.4941	55.9036	31.4941	55.741	31.4941	55.7968	31.4941	55.6482	31.4941	55.7345	31.4941	55.6201	31.4941	55.7421	31.4941	55.679	31.4941	55.8371	31.4941	55.835	31.4941	56.0241	31.4941	56.0816	31.4941	56.2908	31.4941	56.3964	31.4941	56.6112	31.4941	56.7464	31.4941	56.9514	31.4941	57.0951	31.4941	57.2762	31.4941	57.409	31.4941	57.5547	31.4941	57.6608	31.4941	57.7625	31.4941	57.8306	31.4941	57.8828	31.4941	57.9062
32.2266	57.9009	32.2266	57.8853	32.2266	57.8709	32.2266	57.8253	32.2266	57.7974	32.2266	57.7262	32.2266	57.687	32.2266	57.5976	32.2266	57.5503	32.2266	57.4536	32.2266	57.4033	32.2266	57.3139	32.2266	57.267	32.2266	57.2021	32.2266	57.166	32.2266	57.1435	32.2266	57.1258	32.2266	57.16	32.2266	57.1665	32.2266	57.2638	32.2266	57.2967	32.2266	57.4529	32.2266	57.5099	32.2266	57.7099	32.2266	57.7843	32.2266	58.0062	32.2266	58.0887	32.2266	58.3083	32.2266	58.3886	32.2266	58.5835	32.2266	58.6525	32.2266	58.8045	32.2266	58.8548	32.2266	58.951	32.2266	58.9774	32.2266	59.0103
33.6914	58.9659	33.6914	58.9525	33.6914	58.9301	33.6914	58.8915	33.6914	58.8483	33.6914	58.7888	33.6914	58.7284	33.6914	58.6559	33.6914	58.5842	33.6914	58.51	33.6914	58.4355	33.6914	58.3747	33.6914	58.3086	33.6914	58.2787	33.6914	58.2336	33.6914	58.252	33.6914	58.2395	33.6914	58.3188	33.6914	58.3466	33.6914	58.4898	33.6914	58.5585	33.6914	58.7572	33.6914	58.8598	33.6914	59.0956	33.6914	59.2194	33.6914	59.4687	33.6914	59.5985	33.6914	59.8372	33.6914	59.9587	33.6914	60.1658	33.6914	60.2671	33.6914	60.4262	33.6914	60.4985	33.6914	60.5983	33.6914	60.6358	33.6914	60.6698
34.4238	59.6708	34.4238	59.6408	34.4238	59.6533	34.4238	59.5651	34.4238	59.5911	34.4238	59.45	34.4238	59.4919	34.4238	59.3075	34.4238	59.3687	34.4238	59.1559	34.4238	59.2405	34.4238	59.0196	34.4238	59.1322	34.4238	58.9282	34.4238	59.0721	34.4238	58.9118	34.4238	59.0876	34.4238	58.994	34.4238	59.1978	34.4238	59.1834	34.4238	59.4067	34.4238	59.4698	34.4238	59.7003	34.4238	59.8255	34.4238	60.0497	34.4238	60.2129	34.4238	60.4179	34.4238	60.5927	34.4238	60.768	34.4238	60.9298	34.4238	61.0675	34.4238	61.1969	34.4238	61.2914	34.4238	61.3745	34.4238	61.4226	34.4238	61.4512
35.8887	61.6422	35.8887	61.6311	35.8887	61.6156	35.8887	61.584	35.8887	61.5539	35.8887	61.5072	35.8887	61.4648	35.8887	61.4118	35.8887	61.3607	35.8887	61.3144	35.8887	61.2598	35.8887	61.2358	35.8887	61.1847	35.8887	61.2001	35.8887	61.1603	35.8887	61.2303	35.8887	61.2092	35.8887	61.3429	35.8887	61.3458	35.8887	61.5424	35.8887	61.5706	35.8887	61.8185	35.8887	61.869	35.8887	62.148	35.8887	62.214	35.8887	62.4999	35.8887	62.5726	35.8887	62.8411	35.8887	62.9115	35.8887	63.1417	35.8887	63.2019	35.8887	63.3776	35.8887	63.4212	35.8887	63.531	35.8887	63.5538	35.8887	63.5912
37.3535	63.8599	37.3535	63.8439	37.3535	63.8419	37.3535	63.7953	37.3535	63.7922	37.3535	63.7199	37.3535	63.7176	37.3535	63.6279	37.3535	63.6292	37.3535	63.534	37.3535	63.5426	37.3535	63.4571	37.3535	63.4774	37.3535	63.4187	37.3535	63.4547	37.3535	63.4397	37.3535	63.4942	37.3535	63.5353	37.3535	63.6089	37.3535	63.7104	37.3535	63.8007	37.3535	63.9569	37.3535	64.0586	37.3535	64.2548	37.3535	64.3605	37.3535	64.576	37.3535	64.6779	37.3535	64.8901	37.3535	64.9809	37.3535	65.169	37.3535	65.2424	37.3535	65.3892	37.3535	65.4406	37.3535	65.5337	37.3535	65.5602	37.3535	65.592
38.8184	66.177	38.8184	66.1672	38.8184	66.1542	38.8184	66.1264	38.8184	66.1008	38.8184	66.0597	38.8184	66.0225	38.8184	65.9761	38.8184	65.9286	38.8184	65.8882	38.8184	65.8329	38.8184	65.8124	38.8184	65.7523	38.8184	65.7671	38.8184	65.7063	38.8184	65.7706	38.8184	65.7133	38.8184	65.8369	38.8184	65.7872	38.8184	65.9716	38.8184	65.9326	38.8184	66.1699	38.8184	66.1429	38.8184	66.4159	38.8184	66.4003	38.8184	66.6862	38.8184	66.6798	38.8184	66.9536	38.8184	66.9536	38.8184	67.1923	38.8184	67.1956	38.8184	67.3799	38.8184	67.3838	38.8184	67.5	38.8184	67.5024	38.8184	67.5421
39.5508	66.98	39.5508	66.9617	39.5508	66.9645	39.5508	66.9113	39.5508	66.9173	39.5508	66.8337	39.5508	66.8438	39.5508	66.7377	39.5508	66.7531	39.5508	66.6361	39.5508	66.6583	39.5508	66.5454	39.5508	66.5761	39.5508	66.4845	39.5508	66.5252	39.5508	66.4725	39.5508	66.5238	39.5508	66.5245	39.5508	66.5859	39.5508	66.6473	39.5508	66.7169	39.5508	66.8369	39.5508	66.911	39.5508	67.0777	39.5508	67.152	39.5508	67.3459	39.5508	67.4157	39.5508	67.6141	39.5508	67.6753	39.5508	67.8557	39.5508	67.9045	39.5508	68.0478	39.5508	68.0818	39.5508	68.1736	39.5508	68.191	39.5508	68.2226
41.0156	69.1417	41.0156	69.1417	41.0156	69.1145	41.0156	69.1159	41.0156	69.0615	41.0156	69.0692	41.0156	68.9877	41.0156	69.0094	41.0156	68.9014	41.0156	68.9471	41.0156	68.8144	41.0156	68.8958	41.0156	68.7417	41.0156	68.8701	41.0156	68.7001	41.0156	68.8842	41.0156	68.7057	41.0156	68.9487	41.0156	68.7707	41.0156	69.0681	41.0156	68.8996	41.0156	69.2385	41.0156	69.0873	41.0156	69.4477	41.0156	69.319	41.0156	69.6768	41.0156	69.5729	41.0156	69.9035	41.0156	69.8243	41.0156	70.1054	41.0156	70.0491	41.0156	70.2628	41.0156	70.2271	41.0156	70.3604	41.0156	70.3432	41.0156	70.3885
42.4805	71.1114	42.4805	71.0969	42.4805	71.0991	42.4805	71.0567	42.4805	71.0617	42.4805	70.9942	42.4805	71.0033	42.4805	70.916	42.4805	70.9309	42.4805	70.8311	42.4805	70.8541	42.4805	70.7515	42.4805	70.7849	42.4805	70.6909	42.4805	70.7368	42.4805	70.6635	42.4805	70.7231	42.4805	70.6812	42.4805	70.7544	42.4805	70.7512	42.4805	70.836	42.4805	70.8731	42.4805	70.9657	42.4805	71.0384	42.4805	71.1333	42.4805	71.2312	42.4805	71.3223	42.4805	71.4312	42.4805	71.5124	42.4805	71.6168	42.4805	71.6827	42.4805	71.7686	42.4805	71.8149	42.4805	71.8712	42.4805	71.8951	42.4805	71.9146
43.9453	72.78	43.9453	72.7668	43.9453	72.7661	43.9453	72.7275	43.9453	72.7261	43.9453	72.6657	43.9453	72.6634	43.9453	72.587	43.9453	72.5841	43.9453	72.4999	43.9453	72.4962	43.9453	72.415	43.9453	72.4107	43.9453	72.3446	43.9453	72.3398	43.9453	72.3015	43.9453	72.2964	43.9453	72.2969	43.9453	72.2918	43.9453	72.3377	43.9453	72.333	43.9453	72.4249	43.9453	72.4209	43.9453	72.5516	43.9453	72.5486	43.9453	72.7048	43.9453	72.7028	43.9453	72.8665	43.9453	72.8654	43.9453	73.0175	43.9453	73.017	43.9453	73.1399	43.9453	73.1398	43.9453	73.2194	43.9453	73.2194	43.9453	73.247
45.4102	74.5067	45.4102	74.5003	45.4102	74.4861	45.4102	74.4676	45.4102	74.4392	45.4102	74.4116	45.4102	74.3692	45.4102	74.3373	45.4102	74.2812	45.4102	74.2516	45.4102	74.1825	45.4102	74.1638	45.4102	74.0829	45.4102	74.0844	45.4102	73.9938	45.4102	74.0247	45.4102	73.9274	45.4102	73.9953	45.4102	73.895	45.4102	74.0036	45.4102	73.9046	45.4102	74.052	45.4102	73.9587	45.4102	74.1366	45.4102	74.0529	45.4102	74.2476	45.4102	74.1762	45.4102	74.3701	45.4102	74.3126	45.4102	74.4873	45.4102	74.4444	45.4102	74.5828	45.4102	74.5545	45.4102	74.6432	45.4102	74.6291	45.4102	74.6597
47.6074	76.9455	47.6074	76.9372	47.6074	76.9276	47.6074	76.9036	47.6074	76.8844	47.6074	76.847	47.6074	76.8185	47.6074	76.7715	47.6074	76.7342	47.6074	76.683	47.6074	76.6375	47.6074	76.5893	47.6074	76.5367	47.6074	76.4995	47.6074	76.4413	47.6074	76.4237	47.6074	76.3618	47.6074	76.3715	47.6074	76.3085	47.6074	76.3506	47.6074	76.289	47.6074	76.3647	47.6074	76.3072	47.6074	76.4123	47.6074	76.3611	47.6074	76.4864	47.6074	76.443	47.6074	76.5752	47.6074	76.5406	47.6074	76.6644	47.6074	76.6388	47.6074	76.7396	47.6074	76.7227	47.6074	76.7885	47.6074	76.7802	47.6074	76.803
49.0723	78.4632	49.0723	78.4559	49.0723	78.4448	49.0723	78.4236	49.0723	78.4014	49.0723	78.3683	49.0723	78.3353	49.0723	78.2937	49.0723	78.2503	49.0723	78.2048	49.0723	78.152	49.0723	78.1086	49.0723	78.0474	49.0723	78.0132	49.0723	77.9454	49.0723	77.9278	49.0723	77.8557	49.0723	77.8615	49.0723	77.7876	49.0723	77.8218	49.0723	77.7492	49.0723	77.8131	49.0723	77.7448	49.0723	77.8352	49.0723	77.774	49.0723	77.8832	49.0723	77.831	49.0723	77.9473	49.0723	77.9053	49.0723	78.0152	49.0723	77.9839	49.0723	78.0739	49.0723	78.0533	49.0723	78.1122	49.0723	78.102	49.0723	78.1224
50.5371	79.7868	50.5371	79.7792	50.5371	79.7691	50.5371	79.7467	50.5371	79.7268	50.5371	79.6914	50.5371	79.6618	50.5371	79.6164	50.5371	79.5776	50.5371	79.5264	50.5371	79.4792	50.5371	79.4276	50.5371	79.3731	50.5371	79.3276	50.5371	79.2673	50.5371	79.2348	50.5371	79.1708	50.5371	79.1579	50.5371	79.0925	50.5371	79.1043	50.5371	79.0401	50.5371	79.0788	50.5371	79.0187	50.5371	79.0824	50.5371	79.0286	50.5371	79.1113	50.5371	79.0656	50.5371	79.1575	50.5371	79.1209	50.5371	79.2101	50.5371	79.1829	50.5371	79.2572	50.5371	79.2394	50.5371	79.2886	50.5371	79.2798	50.5371	79.2969
52.7344	81.7426	52.7344	81.7336	52.7344	81.7273	52.7344	81.7009	52.7344	81.6884	52.7344	81.646	52.7344	81.6275	52.7344	81.5718	52.7344	81.5474	52.7344	81.482	52.7344	81.4523	52.7344	81.382	52.7344	81.3475	52.7344	81.2783	52.7344	81.2397	52.7344	81.1781	52.7344	81.1367	52.7344	81.0892	52.7344	81.0465	52.7344	81.0185	52.7344	80.9762	52.7344	80.9713	52.7344	80.931	52.7344	80.9494	52.7344	80.9128	52.7344	80.951	52.7344	80.9196	52.7344	80.9706	52.7344	80.9451	52.7344	80.9997	52.7344	80.9805	52.7344	81.0287	52.7344	81.016	52.7344	81.0489	52.7344	81.0426	52.7344	81.0543
54.1992	82.9369	54.1992	82.9282	54.1992	82.922	54.1992	82.8965	54.1992	82.884	54.1992	82.8431	54.1992	82.8245	54.1992	82.7704	54.1992	82.746	54.1992	82.6819	54.1992	82.652	54.1992	82.5824	54.1992	82.5475	54.1992	82.4777	54.1992	82.4386	54.1992	82.3744	54.1992	82.3323	54.1992	82.2798	54.1992	82.2361	54.1992	82.2004	54.1992	82.1568	54.1992	82.1416	54.1992	82.0998	54.1992	82.1058	54.1992	82.0676	54.1992	82.0922	54.1992	82.0591	54.1992	82.0966	54.1992	82.0696	54.1992	82.112	54.1992	82.0916	54.1992	82.1301	54.1992	82.1166	54.1992	82.1433	54.1992	82.1365	54.1992	82.1461
56.3965	84.4383	56.3965	84.4297	56.3965	84.4242	56.3965	84.3986	56.3965	84.3877	56.3965	84.3464	56.3965	84.3301	56.3965	84.2751	56.3965	84.2536	56.3965	84.1878	56.3965	84.1614	56.3965	84.0886	56.3965	84.0576	56.3965	83.9827	56.3965	83.9478	56.3965	83.8762	56.3965	83.8381	56.3965	83.7754	56.3965	83.7354	56.3965	83.6869	56.3965	83.6463	56.3965	83.6158	56.3965	83.5761	56.3965	83.5651	56.3965	83.528	56.3965	83.5351	56.3965	83.5022	56.3965	83.5229	56.3965	83.4954	56.3965	83.5232	56.3965	83.5019	56.3965	83.5292	56.3965	83.5147	56.3965	83.5344	56.3965	83.5271	56.3965	83.5342
58.5938	85.9665	58.5938	85.9593	58.5938	85.9527	58.5938	85.9315	58.5938	85.9181	58.5938	85.8842	58.5938	85.8639	58.5938	85.8192	58.5938	85.7916	58.5938	85.7392	58.5938	85.704	58.5938	85.6475	58.5938	85.6046	58.5938	85.5487	58.5938	85.498	58.5938	85.4476	58.5938	85.3897	58.5938	85.3498	58.5938	85.2858	58.5938	85.2608	58.5938	85.1923	58.5938	85.1852	58.5938	85.1147	58.5938	85.1258	58.5938	85.0564	58.5938	85.0836	58.5938	85.0186	58.5938	85.0569	58.5938	84.9997	58.5938	85.0419	58.5938	84.9958	58.5938	85.0337	58.5938	85.0014	58.5938	85.0275	58.5938	85.0109	58.5938	85.0203
60.0586	86.8347	60.0586	86.8316	60.0586	86.8176	60.0586	86.8084	60.0586	86.7805	60.0586	86.7661	60.0586	86.7242	60.0586	86.7062	60.0586	86.6505	60.0586	86.6309	60.0586	86.5617	60.0586	86.5433	60.0586	86.4611	60.0586	86.447	60.0586	86.3531	60.0586	86.3466	60.0586	86.2428	60.0586	86.247	60.0586	86.1359	60.0586	86.1534	60.0586	86.0385	60.0586	86.0702	60.0586	85.9556	60.0586	86.0009	60.0586	85.8912	60.0586	85.9469	60.0586	85.8468	60.0586	85.9076	60.0586	85.8216	60.0586	85.8803	60.0586	85.8123	60.0586	85.8613	60.0586	85.8143	60.0586	85.8469	60.0586	85.8229	60.0586	85.8343
62.2559	87.8415	62.2559	87.8361	62.2559	87.8279	62.2559	87.812	62.2559	87.7956	62.2559	87.7698	62.2559	87.7455	62.2559	87.7108	62.2559	87.6789	62.2559	87.637	62.2559	87.5979	62.2559	87.5509	62.2559	87.5054	62.2559	87.4559	62.2559	87.4049	62.2559	87.3562	62.2559	87.301	62.2559	87.2564	62.2559	87.1985	62.2559	87.1613	62.2559	87.1028	62.2559	87.0755	62.2559	87.0184	62.2559	87.0027	62.2559	86.9492	62.2559	86.9447	62.2559	86.8969	62.2559	86.9018	62.2559	86.8615	62.2559	86.8721	62.2559	86.8408	62.2559	86.8528	62.2559	86.8315	62.2559	86.8407	62.2559	86.8299	62.2559	86.8334
64.4531	88.7758	64.4531	88.7711	64.4531	88.763	64.4531	88.7489	64.4531	88.7328	64.4531	88.71	64.4531	88.686	64.4531	88.6552	64.4531	88.6238	64.4531	88.5863	64.4531	88.5479	64.4531	88.5054	64.4531	88.4607	64.4531	88.4155	64.4531	88.3654	64.4531	88.3201	64.4531	88.2659	64.4531	88.2234	64.4531	88.1666	64.4531	88.1296	64.4531	88.0722	64.4531	88.0432	64.4531	87.9872	64.4531	87.9676	64.4531	87.9151	64.4531	87.9053	64.4531	87.8582	64.4531	87.8568	64.4531	87.817	64.4531	87.8214	64.4531	87.7904	64.4531	87.7971	64.4531	87.7759	64.4531	87.7816	64.4531	87.7709	64.4531	87.773
66.6504	89.576	66.6504	89.5713	66.6504	89.5648	66.6504	89.5508	66.6504	89.5378	66.6504	89.5149	66.6504	89.4956	66.6504	89.4645	66.6504	89.4392	66.6504	89.4009	66.6504	89.37	66.6504	89.326	66.6504	89.2901	66.6504	89.2422	66.6504	89.2021	66.6504	89.1527	66.6504	89.1093	66.6504	89.061	66.6504	89.0155	66.6504	88.971	66.6504	88.9251	66.6504	88.8868	66.6504	88.842	66.6504	88.8117	66.6504	88.7697	66.6504	88.7482	66.6504	88.7106	66.6504	88.6975	66.6504	88.6658	66.6504	88.6595	66.6504	88.6348	66.6504	88.6329	66.6504	88.6161	66.6504	88.6161	66.6504	88.6076	66.6504	88.6078
69.5801	90.4672	69.5801	90.4616	69.5801	90.459	69.5801	90.4424	69.5801	90.437	69.5801	90.4099	69.5801	90.4018	69.5801	90.3646	69.5801	90.354	69.5801	90.3077	69.5801	90.2945	69.5801	90.2406	69.5801	90.225	69.5801	90.1651	69.5801	90.1473	69.5801	90.0838	69.5801	90.0643	69.5801	89.9996	69.5801	89.979	69.5801	89.9159	69.5801	89.8949	69.5801	89.8362	69.5801	89.8156	69.5801	89.7637	69.5801	89.7444	69.5801	89.7011	69.5801	89.6839	69.5801	89.65	69.5801	89.6356	69.5801	89.6109	69.5801	89.5998	69.5801	89.5835	69.5801	89.5759	69.5801	89.5668	69.5801	89.563	69.5801	89.5601
71.7773	91.0287	71.7773	91.0232	71.7773	91.0219	71.7773	91.0054	71.7773	91.0027	71.7773	90.9756	71.7773	90.9716	71.7773	90.9343	71.7773	90.9288	71.7773	90.8822	71.7773	90.8753	71.7773	90.8204	71.7773	90.8121	71.7773	90.7506	71.7773	90.7411	71.7773	90.6748	71.7773	90.6642	71.7773	90.5956	71.7773	90.5843	71.7773	90.516	71.7773	90.5044	71.7773	90.4392	71.7773	90.4278	71.7773	90.3684	71.7773	90.3576	71.7773	90.3061	71.7773	90.2966	71.7773	90.2544	71.7773	90.2465	71.7773	90.2142	71.7773	90.2081	71.7773	90.1857	71.7773	90.1816	71.7773	90.1685	71.7773	90.1664	71.7773	90.1621
73.9746	91.5174	73.9746	91.512	73.9746	91.512	73.9746	91.4957	73.9746	91.4956	73.9746	91.4688	73.9746	91.4685	73.9746	91.4315	73.9746	91.4309	73.9746	91.3845	73.9746	91.3835	73.9746	91.3285	73.9746	91.327	73.9746	91.2649	73.9746	91.2627	73.9746	91.1953	73.9746	91.1924	73.9746	91.1219	73.9746	91.1184	73.9746	91.0474	73.9746	91.0433	73.9746	90.9747	73.9746	90.9703	73.9746	90.9067	73.9746	90.9022	73.9746	90.8461	73.9746	90.8418	73.9746	90.7949	73.9746	90.7911	73.9746	90.7546	73.9746	90.7515	73.9746	90.7256	73.9746	90.7235	73.9746	90.7081	73.9746	90.707	73.9746	90.7019
76.9043	92.0733	76.9043	92.0699	76.9043	92.0682	76.9043	92.058	76.9043	92.0544	76.9043	92.0376	76.9043	92.032	76.9043	92.0088	76.9043	92.001	76.9043	91.9719	76.9043	91.9616	76.9043	91.9272	76.9043	91.9143	76.9043	91.8755	76.9043	91.8598	76.9043	91.818	76.9043	91.7995	76.9043	91.7561	76.9043	91.7352	76.9043	91.692	76.9043	91.6691	76.9043	91.6279	76.9043	91.6038	76.9043	91.5665	76.9043	91.5423	76.9043	91.5101	76.9043	91.4871	76.9043	91.461	76.9043	91.4405	76.9043	91.4208	76.9043	91.4041	76.9043	91.3906	76.9043	91.3788	76.9043	91.371	76.9043	91.3649	76.9043	91.3623
79.834	92.5731	79.834	92.5721	79.834	92.5671	79.834	92.564	79.834	92.554	79.834	92.5486	79.834	92.5337	79.834	92.5259	79.834	92.506	79.834	92.4957	79.834	92.471	79.834	92.458	79.834	92.4287	79.834	92.4133	79.834	92.3798	79.834	92.3621	79.834	92.325	79.834	92.3056	79.834	92.2657	79.834	92.2455	79.834	92.2039	79.834	92.1838	79.834	92.1419	79.834	92.1231	79.834	92.0825	79.834	92.0659	79.834	92.0284	79.834	92.0146	79.834	91.982	79.834	91.9715	79.834	91.9453	79.834	91.9381	79.834	91.9198	79.834	91.9157	79.834	91.9063	79.834	91.9049
82.7637	92.974	82.7637	92.9757	82.7637	92.9669	82.7637	92.972	82.7637	92.9543	82.7637	92.9624	82.7637	92.9361	82.7637	92.9467	82.7637	92.912	82.7637	92.9245	82.7637	92.8817	82.7637	92.8955	82.7637	92.8452	82.7637	92.8595	82.7637	92.8027	82.7637	92.8168	82.7637	92.7545	82.7637	92.7681	82.7637	92.7019	82.7637	92.7148	82.7637	92.6465	82.7637	92.6585	82.7637	92.5903	82.7637	92.6014	82.7637	92.5359	82.7637	92.5462	82.7637	92.4861	82.7637	92.4954	82.7637	92.4433	82.7637	92.4513	82.7637	92.4097	82.7637	92.416	82.7637	92.387	82.7637	92.3911	82.7637	92.3762	82.7637	92.3776
85.6934	93.2949	85.6934	93.2971	85.6934	93.289	85.6934	93.2955	85.6934	93.2794	85.6934	93.2898	85.6934	93.2657	85.6934	93.2793	85.6934	93.2476	85.6934	93.2635	85.6934	93.2245	85.6934	93.2419	85.6934	93.1961	85.6934	93.2139	85.6934	93.1623	85.6934	93.1797	85.6934	93.1232	85.6934	93.1394	85.6934	93.0796	85.6934	93.0941	85.6934	93.0326	85.6934	93.0452	85.6934	92.984	85.6934	92.9947	85.6934	92.9362	85.6934	92.945	85.6934	92.8915	85.6934	92.8986	85.6934	92.8524	85.6934	92.8581	85.6934	92.8213	85.6934	92.8254	85.6934	92.7999	85.6934	92.8024	85.6934	92.7893	85.6934	92.7902
88.623	93.5731	88.623	93.5716	88.623	93.5735	88.623	93.5688	88.623	93.5724	88.623	93.5645	88.623	93.5693	88.623	93.5579	88.623	93.5635	88.623	93.5484	88.623	93.5541	88.623	93.5351	88.623	93.5402	88.623	93.5173	88.623	93.5212	88.623	93.4946	88.623	93.4967	88.623	93.4668	88.623	93.4668	88.623	93.4344	88.623	93.4323	88.623	93.3986	88.623	93.3943	88.623	93.3607	88.623	93.3549	88.623	93.3229	88.623	93.3162	88.623	93.2874	88.623	93.2807	88.623	93.2566	88.623	93.2506	88.623	93.2326	88.623	93.2281	88.623	93.2169	88.623	93.2145	88.623	93.2107
91.5527	93.783	91.5527	93.7815	91.5527	93.7848	91.5527	93.7801	91.5527	93.7864	91.5527	93.7785	91.5527	93.7873	91.5527	93.7759	91.5527	93.7865	91.5527	93.7713	91.5527	93.7828	91.5527	93.7637	91.5527	93.7752	91.5527	93.752	91.5527	93.7626	91.5527	93.7355	91.5527	93.7444	91.5527	93.7139	91.5527	93.7204	91.5527	93.6871	91.5527	93.691	91.5527	93.6561	91.5527	93.6573	91.5527	93.6223	91.5527	93.6211	91.5527	93.5875	91.5527	93.5846	91.5527	93.5543	91.5527	93.5504	91.5527	93.5249	91.5527	93.521	91.5527	93.5016	91.5527	93.4985	91.5527	93.4865	91.5527	93.4847	91.5527	93.4807
94.4824	94.0108	94.4824	94.0107	94.4824	94.0118	94.4824	94.0115	94.4824	94.0132	94.4824	94.0127	94.4824	94.0145	94.4824	94.0135	94.4824	94.0144	94.4824	94.0128	94.4824	94.0117	94.4824	94.0094	94.4824	94.0052	94.4824	94.0021	94.4824	93.9938	94.4824	93.9896	94.4824	93.9767	94.4824	93.9715	94.4824	93.9536	94.4824	93.9474	94.4824	93.9248	94.4824	93.918	94.4824	93.8916	94.4824	93.8844	94.4824	93.8557	94.4824	93.8486	94.4824	93.8195	94.4824	93.8129	94.4824	93.7858	94.4824	93.7802	94.4824	93.7573	94.4824	93.753	94.4824	93.7364	94.4824	93.7338	94.4824	93.7251	94.4824	93.7242
98.1445	94.2485	98.1445	94.2495	98.1445	94.2494	98.1445	94.2524	98.1445	94.2519	98.1445	94.2565	98.1445	94.2552	98.1445	94.2608	98.1445	94.2579	98.1445	94.2641	98.1445	94.2588	98.1445	94.2648	98.1445	94.2562	98.1445	94.2613	98.1445	94.2489	98.1445	94.2524	98.1445	94.2356	98.1445	94.237	98.1445	94.2159	98.1445	94.2149	98.1445	94.1899	98.1445	94.1864	98.1445	94.1585	98.1445	94.1529	98.1445	94.1235	98.1445	94.1164	98.1445	94.0873	98.1445	94.0795	98.1445	94.0528	98.1445	94.0454	98.1445	94.0231	98.1445	94.0169	98.1445	94.001	98.1445	93.9969	98.1445	93.9885	98.1445	93.9871
101.807	94.4254	101.807	94.4243	101.807	94.4296	101.807	94.4261	101.807	94.4363	101.807	94.4302	101.807	94.4447	101.807	94.4357	101.807	94.4534	101.807	94.441	101.807	94.4609	101.807	94.4445	101.807	94.4653	101.807	94.4447	101.807	94.465	101.807	94.44	101.807	94.4586	101.807	94.4293	101.807	94.4451	101.807	94.4121	101.807	94.4245	101.807	94.3887	101.807	94.3975	101.807	94.3602	101.807	94.3654	101.807	94.3286	101.807	94.3308	101.807	94.2964	101.807	94.2965	101.807	94.2668	101.807	94.2657	101.807	94.2427	101.807	94.2414	101.807	94.2269	101.807	94.226	101.807	94.221
105.469	94.5406	105.469	94.5369	105.469	94.5478	105.469	94.5367	105.469	94.558	105.469	94.5391	105.469	94.5703	105.469	94.5433	105.469	94.5832	105.469	94.5478	105.469	94.5949	105.469	94.5508	105.469	94.6037	105.469	94.5508	105.469	94.6075	105.469	94.5462	105.469	94.6048	105.469	94.536	105.469	94.5945	105.469	94.5197	105.469	94.5764	105.469	94.4978	105.469	94.5507	105.469	94.4713	105.469	94.5191	105.469	94.4422	105.469	94.4837	105.469	94.4133	105.469	94.4475	105.469	94.3876	105.469	94.4138	105.469	94.3679	105.469	94.3856	105.469	94.3568	105.469	94.3658	105.469	94.3559
109.131	94.6599	109.131	94.6568	109.131	94.6677	109.131	94.6581	109.131	94.6794	109.131	94.6634	109.131	94.694	109.131	94.6715	109.131	94.7099	109.131	94.6808	109.131	94.7252	109.131	94.6894	109.131	94.7378	109.131	94.6955	109.131	94.7456	109.131	94.6971	109.131	94.7469	109.131	94.693	109.131	94.7406	109.131	94.6824	109.131	94.7261	109.131	94.6652	109.131	94.7039	109.131	94.6425	109.131	94.6753	109.131	94.616	109.131	94.6428	109.131	94.5885	109.131	94.6092	109.131	94.5629	109.131	94.5779	109.131	94.5424	109.131	94.5521	109.131	94.5298	109.131	94.5345	109.131	94.5269
112.793	94.8	112.793	94.7947	112.793	94.8099	112.793	94.7942	112.793	94.8238	112.793	94.7978	112.793	94.8407	112.793	94.8045	112.793	94.8587	112.793	94.8126	112.793	94.8759	112.793	94.8204	112.793	94.8902	112.793	94.826	112.793	94.8994	112.793	94.8273	112.793	94.9016	112.793	94.8231	112.793	94.8955	112.793	94.8124	112.793	94.8806	112.793	94.7953	112.793	94.8573	112.793	94.7725	112.793	94.8269	112.793	94.7461	112.793	94.7918	112.793	94.7186	112.793	94.7552	112.793	94.6934	112.793	94.7207	112.793	94.6736	112.793	94.6917	112.793	94.6622	112.793	94.6712	112.793	94.6612
116.455	94.9134	116.455	94.9077	116.455	94.9238	116.455	94.9069	116.455	94.9383	116.455	94.9102	116.455	94.9558	116.455	94.9166	116.455	94.9747	116.455	94.9245	116.455	94.9929	116.455	94.932	116.455	95.0081	116.455	94.9372	116.455	95.0181	116.455	94.9382	116.455	95.021	116.455	94.9336	116.455	95.0154	116.455	94.9224	116.455	95.0005	116.455	94.9047	116.455	94.9768	116.455	94.8813	116.455	94.9454	116.455	94.8543	116.455	94.909	116.455	94.8262	116.455	94.8707	116.455	94.8006	116.455	94.8342	116.455	94.7809	116.455	94.8033	116.455	94.7699	116.455	94.7811	116.455	94.7697
120.85	95.0401	120.85	95.0322	120.85	95.0527	120.85	95.0289	120.85	95.0691	120.85	95.0297	120.85	95.0883	120.85	95.0336	120.85	95.1085	120.85	95.0391	120.85	95.1278	120.85	95.0445	120.85	95.1437	120.85	95.0478	120.85	95.1541	120.85	95.0471	120.85	95.157	120.85	95.0411	120.85	95.1508	120.85	95.0289	120.85	95.1349	120.85	95.0104	120.85	95.1096	120.85	94.9866	120.85	95.0762	120.85	94.9594	120.85	95.0371	120.85	94.9318	120.85	94.9958	120.85	94.9071	120.85	94.9561	120.85	94.8887	120.85	94.9218	120.85	94.8796	120.85	94.8963	120.85	94.882
125.244	95.0799	125.244	95.0741	125.244	95.0913	125.244	95.0737	125.244	95.1078	125.244	95.0781	125.244	95.128	125.244	95.0863	125.244	95.1504	125.244	95.0964	125.244	95.1729	125.244	95.1065	125.244	95.193	125.244	95.1147	125.244	95.2083	125.244	95.119	125.244	95.2166	125.244	95.1178	125.244	95.2162	125.244	95.1102	125.244	95.2061	125.244	95.0959	125.244	95.1863	125.244	95.076	125.244	95.1582	125.244	95.0522	125.244	95.1238	125.244	95.0273	125.244	95.0866	125.244	95.0047	125.244	95.0502	125.244	94.9876	125.244	95.0184	125.244	94.9792	125.244	94.9947	125.244	94.9814
129.639	95.1415	129.639	95.1382	129.639	95.1498	129.639	95.1399	129.639	95.1626	129.639	95.1461	129.639	95.1788	129.639	95.1556	129.639	95.1966	129.639	95.1668	129.639	95.2142	129.639	95.1777	129.639	95.2291	129.639	95.1862	129.639	95.2392	129.639	95.1904	129.639	95.2422	129.639	95.1884	129.639	95.2368	129.639	95.1791	129.639	95.2222	129.639	95.1623	129.639	95.1987	129.639	95.1386	129.639	95.1676	129.639	95.1098	129.639	95.1316	129.639	95.0789	129.639	95.0942	129.639	95.0494	129.639	95.0592	129.639	95.0249	129.639	95.0305	129.639	95.009	129.639	95.0115	129.639	95.0042
134.033	95.2432	134.033	95.2406	134.033	95.2508	134.033	95.2428	134.033	95.2628	134.033	95.2492	134.033	95.2783	134.033	95.2587	134.033	95.2958	134.033	95.2699	134.033	95.3135	134.033	95.2808	134.033	95.329	134.033	95.2894	134.033	95.3402	134.033	95.2939	134.033	95.3451	134.033	95.2924	134.033	95.3419	134.033	95.2841	134.033	95.3298	134.033	95.2685	134.033	95.3089	134.033	95.2464	134.033	95.2805	134.033	95.2195	134.033	95.2468	134.033	95.1905	134.033	95.2113	134.033	95.163	134.033	95.1776	134.033	95.1404	134.033	95.1496	134.033	95.1262	134.033	95.1306	134.033	95.1225
138.428	95.297	138.428	95.2937	138.428	95.3043	138.428	95.2944	138.428	95.3152	138.428	95.2986	138.428	95.3286	138.428	95.3055	138.428	95.343	138.428	95.3136	138.428	95.3569	138.428	95.3214	138.428	95.368	138.428	95.3268	138.428	95.3744	138.428	95.3281	138.428	95.374	138.428	95.3237	138.428	95.3656	138.428	95.3124	138.428	95.3484	138.428	95.2938	138.428	95.3227	138.428	95.2687	138.428	95.2901	138.428	95.2386	138.428	95.253	138.428	95.2065	138.428	95.2149	138.428	95.1756	138.428	95.1797	138.428	95.1499	138.428	95.1514	138.428	95.1327	138.428	95.1331	138.428	95.1267
143.555	95.3215	143.555	95.3135	143.555	95.3337	143.555	95.3098	143.555	95.3495	143.555	95.3101	143.555	95.3678	143.555	95.3135	143.555	95.3869	143.555	95.3187	143.555	95.4049	143.555	95.3242	143.555	95.4196	143.555	95.328	143.555	95.4287	143.555	95.3283	143.555	95.4303	143.555	95.3234	143.555	95.4226	143.555	95.3123	143.555	95.405	143.555	95.2946	143.555	95.3778	143.555	95.2709	143.555	95.3424	143.555	95.2429	143.555	95.3015	143.555	95.2132	143.555	95.2588	143.555	95.1855	143.555	95.2185	143.555	95.1635	143.555	95.1847	143.555	95.1506	143.555	95.1609	143.555	95.1493
148.682	95.3602	148.682	95.3466	148.682	95.3775	148.682	95.3369	148.682	95.3979	148.682	95.331	148.682	95.4203	148.682	95.3284	148.682	95.4431	148.682	95.3279	148.682	95.4646	148.682	95.3284	148.682	95.4826	148.682	95.3283	148.682	95.4947	148.682	95.326	148.682	95.4989	148.682	95.3201	148.682	95.4935	148.682	95.3096	148.682	95.4775	148.682	95.2942	148.682	95.4511	148.682	95.2744	148.682	95.4155	148.682	95.2518	148.682	95.3733	148.682	95.2288	148.682	95.3281	148.682	95.2085	148.682	95.2839	148.682	95.1945	148.682	95.245	148.682	95.1897	148.682	95.215	148.682	95.1963
153.809	95.3443	153.809	95.3302	153.809	95.361	153.809	95.3186	153.809	95.3798	153.809	95.3095	153.809	95.4	153.809	95.3022	153.809	95.4202	153.809	95.296	153.809	95.4391	153.809	95.2899	153.809	95.4544	153.809	95.2828	153.809	95.4642	153.809	95.2735	153.809	95.4662	153.809	95.2609	153.809	95.4588	153.809	95.2446	153.809	95.4409	153.809	95.2245	153.809	95.4124	153.809	95.2015	153.809	95.3745	153.809	95.1771	153.809	95.3295	153.809	95.1539	153.809	95.281	153.809	95.1349	153.809	95.2331	153.809	95.1233	153.809	95.1901	153.809	95.1219	153.809	95.1557	153.809	95.1326
159.668	95.3222	159.668	95.3134	159.668	95.3334	159.668	95.3067	159.668	95.3466	159.668	95.302	159.668	95.3615	159.668	95.2985	159.668	95.377	159.668	95.2954	159.668	95.3919	159.668	95.2918	159.668	95.4045	159.668	95.2864	159.668	95.4129	159.668	95.2782	159.668	95.4152	159.668	95.2662	159.668	95.4095	159.668	95.2499	159.668	95.3949	159.668	95.2293	159.668	95.3709	159.668	95.2055	159.668	95.3385	159.668	95.1801	159.668	95.2995	159.668	95.1558	159.668	95.2571	159.668	95.1356	159.668	95.215	159.668	95.1225	159.668	95.1771	159.668	95.1192	159.668	95.147	159.668	95.1273
164.795	95.3338	164.795	95.3257	164.795	95.3432	164.795	95.319	164.795	95.3539	164.795	95.3133	164.795	95.3655	164.795	95.3083	164.795	95.3772	164.795	95.3034	164.795	95.3881	164.795	95.2977	164.795	95.3969	164.795	95.2903	164.795	95.4018	164.795	95.2803	164.795	95.4012	164.795	95.2669	164.795	95.3937	164.795	95.2497	164.795	95.3782	164.795	95.2289	164.795	95.3545	164.795	95.2052	164.795	95.3233	164.795	95.1804	164.795	95.2866	164.795	95.1568	164.795	95.2469	164.795	95.1371	164.795	95.2079	164.795	95.1243	164.795	95.1729	164.795	95.1206	164.795	95.1454	164.795	95.1276
170.654	95.3045	170.654	95.2953	170.654	95.3139	170.654	95.2865	170.654	95.3236	170.654	95.278	170.654	95.3333	170.654	95.2695	170.654	95.3425	170.654	95.2609	170.654	95.3503	170.654	95.2515	170.654	95.3557	170.654	95.2409	170.654	95.3573	170.654	95.2282	170.654	95.3536	170.654	95.2129	170.654	95.3433	170.654	95.1945	170.654	95.3255	170.654	95.1733	170.654	95.3	170.654	95.1498	170.654	95.2678	170.654	95.1256	170.654	95.2305	170.654	95.1027	170.654	95.1909	170.654	95.0837	170.654	95.1523	170.654	95.0712	170.654	95.118	170.654	95.0676	170.654	95.0913	170.654	95.0741
176.514	95.2643	176.514	95.2545	176.514	95.273	176.514	95.2436	176.514	95.2807	176.514	95.2316	176.514	95.2872	176.514	95.2186	176.514	95.2924	176.514	95.2047	176.514	95.2958	176.514	95.1896	176.514	95.2963	176.514	95.1732	176.514	95.2931	176.514	95.1552	176.514	95.2847	176.514	95.1353	176.514	95.27	176.514	95.1132	176.514	95.2483	176.514	95.0892	176.514	95.2196	176.514	95.0639	176.514	95.1847	176.514	95.0386	176.514	95.1454	176.514	95.0153	176.514	95.1044	176.514	94.9962	176.514	95.065	176.514	94.9837	176.514	95.0304	176.514	94.98	176.514	95.0036	176.514	94.9865
183.105	95.1805	183.105	95.1728	183.105	95.1855	183.105	95.1622	183.105	95.1882	183.105	95.1487	183.105	95.1889	183.105	95.1323	183.105	95.1877	183.105	95.1134	183.105	95.1845	183.105	95.0922	183.105	95.1788	183.105	95.069	183.105	95.1696	183.105	95.0441	183.105	95.156	183.105	95.0178	183.105	95.1369	183.105	94.9904	183.105	95.1117	183.105	94.9624	183.105	95.0804	183.105	94.9344	183.105	95.044	183.105	94.9077	183.105	95.0043	183.105	94.8838	183.105	94.9639	183.105	94.8645	183.105	94.9257	183.105	94.8517	183.105	94.8929	183.105	94.8473	183.105	94.868	183.105	94.8526
189.697	95.1082	189.697	95.1028	189.697	95.1085	189.697	95.0921	189.697	95.1041	189.697	95.0762	189.697	95.0953	189.697	95.0553	189.697	95.0827	189.697	95.0295	189.697	95.0665	189.697	94.9993	189.697	95.0468	189.697	94.965	189.697	95.0235	189.697	94.9271	189.697	94.9961	189.697	94.8864	189.697	94.9643	189.697	94.8439	189.697	94.9278	189.697	94.8009	189.697	94.8871	189.697	94.7589	189.697	94.8432	189.697	94.72	189.697	94.7977	189.697	94.686	189.697	94.7531	189.697	94.6591	189.697	94.7122	189.697	94.6412	189.697	94.6778	189.697	94.6336	189.697	94.6523	189.697	94.6373
196.289	95.0821	196.289	95.0751	196.289	95.0812	196.289	95.0603	196.289	95.0728	196.289	95.038	196.289	95.0576	196.289	95.0088	196.289	95.0361	196.289	94.9736	196.289	95.0092	196.289	94.9331	196.289	94.9775	196.289	94.8883	196.289	94.9411	196.289	94.8399	196.289	94.9002	196.289	94.7888	196.289	94.8549	196.289	94.7362	196.289	94.8055	196.289	94.6832	196.289	94.7529	196.289	94.6318	196.289	94.6983	196.289	94.5837	196.289	94.6439	196.289	94.5412	196.289	94.5924	196.289	94.5067	196.289	94.5466	196.289	94.4822	196.289	94.5095	196.289	94.4696	196.289	94.4834	196.289	94.4699
202.881	94.9347	202.881	94.9211	202.881	94.9414	202.881	94.9007	202.881	94.9411	202.881	94.874	202.881	94.9342	202.881	94.8417	202.881	94.921	202.881	94.8044	202.881	94.9019	202.881	94.7631	202.881	94.877	202.881	94.7183	202.881	94.8464	202.881	94.671	202.881	94.81	202.881	94.622	202.881	94.7676	202.881	94.5722	202.881	94.7196	202.881	94.5229	202.881	94.6666	202.881	94.4757	202.881	94.6101	202.881	94.4324	202.881	94.5523	202.881	94.3952	202.881	94.496	202.881	94.3663	202.881	94.4446	202.881	94.3478	202.881	94.4012	202.881	94.3414	202.881	94.3685	202.881	94.3483
210.205	94.7309	210.205	94.7134	210.205	94.7418	210.205	94.6889	210.205	94.7468	210.205	94.6574	210.205	94.7469	210.205	94.6196	210.205	94.7428	210.205	94.5763	210.205	94.7353	210.205	94.5288	210.205	94.7244	210.205	94.4784	210.205	94.7097	210.205	94.4269	210.205	94.6903	210.205	94.3763	210.205	94.6652	210.205	94.3285	210.205	94.6335	210.205	94.2858	210.205	94.5948	210.205	94.2502	210.205	94.5497	210.205	94.2235	210.205	94.4994	210.205	94.2074	210.205	94.4462	210.205	94.2026	210.205	94.3925	210.205	94.2095	210.205	94.3414	210.205	94.2279	210.205	94.2954	210.205	94.2569
217.529	94.5436	217.529	94.5365	217.529	94.544	217.529	94.5223	217.529	94.5387	217.529	94.501	217.529	94.5289	217.529	94.4732	217.529	94.5163	217.529	94.4397	217.529	94.5021	217.529	94.4016	217.529	94.4872	217.529	94.3599	217.529	94.4718	217.529	94.316	217.529	94.4553	217.529	94.2715	217.529	94.4367	217.529	94.2281	217.529	94.4149	217.529	94.1881	217.529	94.3889	217.529	94.1536	217.529	94.3583	217.529	94.1267	217.529	94.3235	217.529	94.1092	217.529	94.2855	217.529	94.1021	217.529	94.2462	217.529	94.1057	217.529	94.2077	217.529	94.1194	217.529	94.1722	217.529	94.1422
225.586	94.376	225.586	94.3771	225.586	94.3644	225.586	94.3672	225.586	94.3438	225.586	94.3465	225.586	94.3163	225.586	94.3158	225.586	94.2845	225.586	94.2765	225.586	94.2509	225.586	94.2303	225.586	94.2179	225.586	94.1789	225.586	94.1868	225.586	94.1247	225.586	94.1586	225.586	94.0699	225.586	94.133	225.586	94.0172	225.586	94.1092	225.586	93.9693	225.586	94.0862	225.586	93.929	225.586	94.0629	225.586	93.8985	225.586	94.0386	225.586	93.8793	225.586	94.0127	225.586	93.8717	225.586	93.9857	225.586	93.8749	225.586	93.9581	225.586	93.8875	225.586	93.9313	225.586	93.907
232.91	94.2811	232.91	94.2892	232.91	94.2605	232.91	94.2848	232.91	94.2282	232.91	94.2688	232.91	94.186	232.91	94.2423	232.91	94.136	232.91	94.2071	232.91	94.0812	232.91	94.1644	232.91	94.0241	232.91	94.1159	232.91	93.9671	232.91	94.0626	232.91	93.9122	232.91	94.006	232.91	93.8606	232.91	93.9475	232.91	93.8132	232.91	93.8889	232.91	93.7704	232.91	93.8324	232.91	93.7328	232.91	93.7802	232.91	93.7007	232.91	93.7345	232.91	93.6745	232.91	93.6969	232.91	93.6547	232.91	93.6682	232.91	93.6417	232.91	93.6488	232.91	93.6361	232.91	93.6382
241.699	94.0775	241.699	94.0632	241.699	94.0799	241.699	94.0377	241.699	94.0708	241.699	94.0024	241.699	94.0514	241.699	93.9595	241.699	94.0235	241.699	93.9113	241.699	93.9891	241.699	93.8602	241.699	93.9499	241.699	93.8081	241.699	93.9073	241.699	93.7566	241.699	93.8621	241.699	93.7064	241.699	93.8148	241.699	93.6583	241.699	93.7655	241.699	93.6129	241.699	93.7148	241.699	93.5709	241.699	93.6638	241.699	93.5334	241.699	93.6141	241.699	93.5016	241.699	93.5677	241.699	93.4769	241.699	93.527	241.699	93.4604	241.699	93.494	241.699	93.4535	241.699	93.4702	241.699	93.4566
249.756	93.949	249.756	93.9439	249.756	93.9379	249.756	93.9228	249.756	93.9117	249.756	93.887	249.756	93.8727	249.756	93.8388	249.756	93.824	249.756	93.7811	249.756	93.7693	249.756	93.7172	249.756	93.7126	249.756	93.6505	249.756	93.657	249.756	93.5842	249.756	93.6053	249.756	93.5213	249.756	93.5586	249.756	93.4643	249.756	93.5174	249.756	93.4151	249.756	93.4812	249.756	93.3749	249.756	93.4492	249.756	93.3444	249.756	93.4204	249.756	93.3234	249.756	93.3944	249.756	93.3114	249.756	93.3709	249.756	93.3074	249.756	93.3502	249.756	93.3104	249.756	93.3327	249.756	93.3191
258.545	93.8475	258.545	93.8396	258.545	93.8402	258.545	93.8169	258.545	93.818	258.545	93.7814	258.545	93.7826	258.545	93.7353	258.545	93.7365	258.545	93.6814	258.545	93.6832	258.545	93.6226	258.545	93.6258	258.545	93.5613	258.545	93.5678	258.545	93.4999	258.545	93.5118	258.545	93.4403	258.545	93.4599	258.545	93.3843	258.545	93.4132	258.545	93.3338	258.545	93.3722	258.545	93.2905	258.545	93.3369	258.545	93.2559	258.545	93.3068	258.545	93.2308	258.545	93.2814	258.545	93.2152	258.545	93.2599	258.545	93.2085	258.545	93.2419	258.545	93.2093	258.545	93.2271	258.545	93.216
268.066	93.497	268.066	93.4742	268.066	93.5066	268.066	93.4399	268.066	93.5017	268.066	93.3961	268.066	93.4818	268.066	93.3449	268.066	93.4468	268.066	93.2886	268.066	93.3975	268.066	93.2296	268.066	93.3358	268.066	93.17	268.066	93.2642	268.066	93.1114	268.066	93.1863	268.066	93.0554	268.066	93.1063	268.066	93.003	268.066	93.0283	268.066	92.9548	268.066	92.9566	268.066	92.9114	268.066	92.8942	268.066	92.873	268.066	92.8434	268.066	92.8399	268.066	92.8051	268.066	92.8122	268.066	92.7792	268.066	92.79	268.066	92.7645	268.066	92.7734	268.066	92.7596	268.066	92.763
277.588	93.358	277.588	93.3482	277.588	93.3506	277.588	93.3184	277.588	93.3311	277.588	93.2685	277.588	93.3055	277.588	93.2015	277.588	93.2799	277.588	93.1223	277.588	93.2584	277.588	93.0376	277.588	93.2429	277.588	92.9545	277.588	93.2328	277.588	92.8794	277.588	93.2256	277.588	92.8177	277.588	93.2177	277.588	92.7726	277.588	93.2062	277.588	92.7457	277.588	93.189	277.588	92.7368	277.588	93.1654	277.588	92.7443	277.588	93.1358	277.588	92.7658	277.588	93.1011	277.588	92.7983	277.588	93.0624	277.588	92.8386	277.588	93.0205	277.588	92.8833	277.588	92.976	277.588	92.9298
287.109	93.4058	287.109	93.4202	287.109	93.3638	287.109	93.4059	287.109	93.2974	287.109	93.3639	287.109	93.2126	287.109	93.2967	287.109	93.1176	287.109	93.2081	287.109	93.0218	287.109	93.1028	287.109	92.9339	287.109	92.987	287.109	92.8604	287.109	92.8678	287.109	92.8039	287.109	92.7533	287.109	92.7631	287.109	92.6512	287.109	92.7334	287.109	92.5681	287.109	92.7093	287.109	92.5077	287.109	92.6857	287.109	92.4707	287.109	92.6595	287.109	92.4544	287.109	92.63	287.109	92.4545	287.109	92.5983	287.109	92.4659	287.109	92.5665	287.109	92.4848	287.109	92.5362	287.109	92.5087
297.363	92.8503	297.363	92.8539	297.363	92.8262	297.363	92.841	297.363	92.779	297.363	92.8155	297.363	92.7085	297.363	92.7809	297.363	92.6173	297.363	92.739	297.363	92.5114	297.363	92.6907	297.363	92.3999	297.363	92.636	297.363	92.2938	297.363	92.5752	297.363	92.2042	297.363	92.5102	297.363	92.1402	297.363	92.4446	297.363	92.1069	297.363	92.3837	297.363	92.1042	297.363	92.3335	297.363	92.1271	297.363	92.2992	297.363	92.1671	297.363	92.2827	297.363	92.2139	297.363	92.2824	297.363	92.2578	297.363	92.2927	297.363	92.2912	297.363	92.3059	297.363	92.3101	297.363	92.3138
307.617	92.7695	307.617	92.7536	307.617	92.7656	307.617	92.7201	307.617	92.7416	307.617	92.6733	307.617	92.6991	307.617	92.6184	307.617	92.6413	307.617	92.561	307.617	92.5724	307.617	92.5056	307.617	92.4973	307.617	92.4549	307.617	92.4211	307.617	92.41	307.617	92.3491	307.617	92.3706	307.617	92.2865	307.617	92.336	307.617	92.2379	307.617	92.3063	307.617	92.2062	307.617	92.2822	307.617	92.1923	307.617	92.2649	307.617	92.1944	307.617	92.2556	307.617	92.208	307.617	92.2539	307.617	92.2272	307.617	92.2574	307.617	92.2456	307.617	92.2622	307.617	92.2585	307.617	92.2637
318.604	92.5365	318.604	92.5213	318.604	92.53	318.604	92.4854	318.604	92.503	318.604	92.4317	318.604	92.459	318.604	92.365	318.604	92.4025	318.604	92.2908	318.604	92.3388	318.604	92.2146	318.604	92.2726	318.604	92.141	318.604	92.208	318.604	92.0736	318.604	92.1475	318.604	92.0146	318.604	92.0928	318.604	91.965	318.604	92.0444	318.604	91.9252	318.604	92.0027	318.604	91.8952	318.604	91.9678	318.604	91.8746	318.604	91.9396	318.604	91.8625	318.604	91.9175	318.604	91.8578	318.604	91.9009	318.604	91.8586	318.604	91.8883	318.604	91.8632	318.604	91.8783	318.604	91.8701
329.59	92.0381	329.59	92.0223	329.59	92.0298	329.59	91.9842	329.59	91.9999	329.59	91.929	329.59	91.954	329.59	91.8646	329.59	91.9003	329.59	91.7998	329.59	91.8476	329.59	91.7424	329.59	91.8038	329.59	91.698	329.59	91.7747	329.59	91.6696	329.59	91.7627	329.59	91.6572	329.59	91.7678	329.59	91.6595	329.59	91.7872	329.59	91.6745	329.59	91.8167	329.59	91.7002	329.59	91.8516	329.59	91.7348	329.59	91.887	329.59	91.776	329.59	91.9184	329.59	91.8209	329.59	91.9415	329.59	91.8653	329.59	91.953	329.59	91.9045	329.59	91.9507	329.59	91.934
341.309	92.0454	341.309	92.0524	341.309	92.0051	341.309	92.0259	341.309	91.9357	341.309	91.97	341.309	91.8454	341.309	91.892	341.309	91.7452	341.309	91.8011	341.309	91.6469	341.309	91.707	341.309	91.5613	341.309	91.6186	341.309	91.4964	341.309	91.5422	341.309	91.4555	341.309	91.4817	341.309	91.4377	341.309	91.4385	341.309	91.4385	341.309	91.4121	341.309	91.4518	341.309	91.4011	341.309	91.4713	341.309	91.4033	341.309	91.4916	341.309	91.4162	341.309	91.5089	341.309	91.4367	341.309	91.5201	341.309	91.461	341.309	91.5237	341.309	91.4851	341.309	91.5187	341.309	91.5053
353.76	91.811	353.76	91.7918	353.76	91.8049	353.76	91.7514	353.76	91.7728	353.76	91.6964	353.76	91.7179	353.76	91.6354	353.76	91.6467	353.76	91.5766	353.76	91.5679	353.76	91.5269	353.76	91.491	353.76	91.4906	353.76	91.4242	353.76	91.4682	353.76	91.3726	353.76	91.4571	353.76	91.3371	353.76	91.4522	353.76	91.3154	353.76	91.4474	353.76	91.3024	353.76	91.4374	353.76	91.2931	353.76	91.4189	353.76	91.2836	353.76	91.3917	353.76	91.2729	353.76	91.3583	353.76	91.2625	353.76	91.3234	353.76	91.2561	353.76	91.2923	353.76	91.2576	353.76	91.2695
366.211	90.9282	366.211	90.8943	366.211	90.9526	366.211	90.8539	366.211	90.9712	366.211	90.8165	366.211	90.9929	366.211	90.7956	366.211	91.0294	366.211	90.8049	366.211	91.0907	366.211	90.8541	366.211	91.1819	366.211	90.9453	366.211	91.3013	366.211	91.0724	366.211	91.4406	366.211	91.223	366.211	91.587	366.211	91.3815	366.211	91.7271	366.211	91.5336	366.211	91.8492	366.211	91.6682	366.211	91.9452	366.211	91.779	366.211	92.0122	366.211	91.8646	366.211	92.0511	366.211	91.9275	366.211	92.0665	366.211	91.9727	366.211	92.0646	366.211	92.0059	366.211	92.0516	366.211	92.0316
378.662	89.9788	378.662	89.9818	378.662	89.9313	378.662	89.9448	378.662	89.8526	378.662	89.8882	378.662	89.7732	378.662	89.8449	378.662	89.7367	378.662	89.8531	378.662	89.7891	378.662	89.9455	378.662	89.963	378.662	90.1389	378.662	90.2633	378.662	90.4278	378.662	90.6649	378.662	90.788	378.662	91.1237	378.662	91.1859	378.662	91.5925	378.662	91.5881	378.662	92.0319	378.662	91.9678	378.662	92.4151	378.662	92.3069	378.662	92.7273	378.662	92.5955	378.662	92.9632	378.662	92.8301	378.662	93.1243	378.662	93.0111	378.662	93.2161	378.662	93.1404	378.662	93.2455	378.662	93.2189
392.578	91.2193	392.578	91.1723	392.578	91.1208	392.578	90.9876	392.578	90.8791	392.578	90.6842	392.578	90.5088	392.578	90.2964	392.578	90.0429	392.578	89.8795	392.578	89.5425	392.578	89.5119	392.578	89.1046	392.578	89.2855	392.578	88.8522	392.578	89.2772	392.578	88.8897	392.578	89.5117	392.578	89.2397	392.578	89.9488	392.578	89.8278	392.578	90.5087	392.578	90.5329	392.578	91.109	392.578	91.2454	392.578	91.6865	392.578	91.8913	392.578	92.2007	392.578	92.4291	392.578	92.6282	392.578	92.8397	392.578	92.9557	392.578	93.1169	392.578	93.1749	392.578	93.2617	392.578	93.279
405.762	92.3272	405.762	92.2691	405.762	92.2487	405.762	92.0782	405.762	92.0335	405.762	91.7627	405.762	91.6863	405.762	91.3378	405.762	91.2196	405.762	90.8298	405.762	90.6595	405.762	90.2822	405.762	90.0542	405.762	89.7623	405.762	89.4839	405.762	89.3584	405.762	89.0588	405.762	89.1606	405.762	88.8899	405.762	89.2212	405.762	89.0308	405.762	89.5247	405.762	89.4405	405.762	89.9964	405.762	90.0111	405.762	90.5416	405.762	90.6257	405.762	91.0782	405.762	91.1958	405.762	91.5479	405.762	91.6663	405.762	91.9134	405.762	92.0068	405.762	92.1522	405.762	92.2033	405.762	92.2512
420.41	92.5881	420.41	92.54	420.41	92.513	420.41	92.3693	420.41	92.3164	420.41	92.08	420.41	92.0024	420.41	91.6808	420.41	91.5793	420.41	91.1891	420.41	91.0619	420.41	90.6357	420.41	90.4779	420.41	90.0703	420.41	89.8752	420.41	89.5647	420.41	89.3284	420.41	89.2038	420.41	88.9338	420.41	89.0586	420.41	88.7804	420.41	89.1514	420.41	88.9018	420.41	89.4418	420.41	89.2519	420.41	89.8498	420.41	89.7307	420.41	90.29	420.41	90.2334	420.41	90.6941	420.41	90.6801	420.41	91.0147	420.41	91.0208	420.41	91.2214	420.41	91.2295	420.41	91.2961
435.059	92.5639	435.059	92.5315	435.059	92.483	435.059	92.3862	435.059	92.2896	435.059	92.1298	435.059	91.986	435.059	91.7678	435.059	91.5779	435.059	91.3117	435.059	91.0777	435.059	90.7836	435.059	90.5099	435.059	90.2224	435.059	89.918	435.059	89.6887	435.059	89.3704	435.059	89.263	435.059	88.9558	435.059	89.0274	435.059	88.7588	435.059	89.0306	435.059	88.8192	435.059	89.2584	435.059	89.1064	435.059	89.6398	435.059	89.5364	435.059	90.0813	435.059	90.0122	435.059	90.499	435.059	90.4533	435.059	90.8321	435.059	90.8035	435.059	91.0425	435.059	91.0285	435.059	91.11
450.439	92.6532	450.439	92.6009	450.439	92.592	450.439	92.4384	450.439	92.4152	450.439	92.1702	450.439	92.1218	450.439	91.8022	450.439	91.7145	450.439	91.3439	450.439	91.2011	450.439	90.8118	450.439	90.5998	450.439	90.2338	450.439	89.9462	450.439	89.6562	450.439	89.3017	450.439	89.1464	450.439	88.7564	450.439	88.7853	450.439	88.4126	450.439	88.6403	450.439	88.3402	450.439	88.7286	450.439	88.532	450.439	89.0035	450.439	88.9056	450.439	89.3779	450.439	89.3502	450.439	89.7611	450.439	89.7707	450.439	90.0825	450.439	90.1028	450.439	90.2957	450.439	90.3098	450.439	90.3749
466.553	92.6925	466.553	92.6357	466.553	92.6424	466.553	92.4726	466.553	92.4845	466.553	92.2047	466.553	92.218	466.553	91.8349	466.553	91.8431	466.553	91.3706	466.553	91.3638	466.553	90.8267	466.553	90.7914	466.553	90.2318	466.553	90.152	466.553	89.6339	466.553	89.4948	466.553	89.1053	466.553	88.9003	466.553	88.7335	466.553	88.4735	466.553	88.5919	466.553	88.3084	466.553	88.6996	466.553	88.4332	466.553	89.0052	466.553	88.7866	466.553	89.4137	466.553	89.254	466.553	89.8271	466.553	89.7218	466.553	90.1684	466.553	90.107	466.553	90.3871	466.553	90.3593	466.553	90.4545
482.666	92.56	482.666	92.5338	482.666	92.4802	482.666	92.4014	482.666	92.2938	482.666	92.163	482.666	92.0003	482.666	91.8192	482.666	91.6003	482.666	91.3733	482.666	91.0977	482.666	90.8344	482.666	90.5037	482.666	90.2224	482.666	89.8432	482.666	89.5757	482.666	89.1642	482.666	88.9586	482.666	88.5454	482.666	88.4612	482.666	88.0913	482.666	88.1776	482.666	87.897	482.666	88.1602	482.666	87.9932	482.666	88.3829	482.666	88.3199	482.666	88.7538	482.666	88.7618	482.666	89.163	482.666	89.2041	482.666	89.5191	482.666	89.5631	482.666	89.7615	482.666	89.7883	482.666	89.8558
500.244	92.4865	500.244	92.4438	500.244	92.4177	500.244	92.2895	500.244	92.238	500.244	92.0244	500.244	91.948	500.244	91.6515	500.244	91.5487	500.244	91.1774	500.244	91.0429	500.244	90.615	500.244	90.4385	500.244	89.9885	500.244	89.755	500.244	89.339	500.244	89.0335	500.244	88.7315	500.244	88.3496	500.244	88.2525	500.244	87.8162	500.244	87.989	500.244	87.5535	500.244	87.9865	500.244	87.6209	500.244	88.2178	500.244	87.9666	500.244	88.595	500.244	88.4589	500.244	89.0113	500.244	88.9599	500.244	89.3754	500.244	89.3689	500.244	89.6226	500.244	89.6283	500.244	89.7132
517.822	92.4393	517.822	92.3775	517.822	92.3873	517.822	92.2052	517.822	92.2192	517.822	91.9257	517.822	91.9347	517.822	91.5415	517.822	91.5361	517.822	91.0554	517.822	91.0297	517.822	90.4734	517.822	90.4275	517.822	89.8107	517.822	89.7511	517.822	89.1023	517.822	89.0389	517.822	88.4145	517.822	88.3551	517.822	87.8502	517.822	87.7926	517.822	87.5241	517.822	87.4546	517.822	87.5035	517.822	87.406	517.822	87.7555	517.822	87.6274	517.822	88.1656	517.822	88.0217	517.822	88.6026	517.822	88.4666	517.822	88.9649	517.822	88.8599	517.822	89.1902	517.822	89.1333	517.822	89.2484
536.133	92.4174	536.133	92.3899	536.133	92.3389	536.133	92.256	536.133	92.1525	536.133	92.0132	536.133	91.8538	536.133	91.6584	536.133	91.4365	536.133	91.1893	536.133	90.8949	536.133	90.6072	536.133	90.2274	536.133	89.9223	536.133	89.4443	536.133	89.1627	536.133	88.5815	536.133	88.3885	536.133	87.7205	536.133	87.7046	536.133	87.0047	536.133	87.2502	536.133	86.6123	536.133	87.1378	536.133	86.651	536.133	87.3684	536.133	87.0607	536.133	87.822	536.133	87.6595	536.133	88.3372	536.133	88.2654	536.133	88.7829	536.133	88.7573	536.133	89.0777	536.133	89.0709	536.133	89.1791
554.443	92.7299	554.443	92.6668	554.443	92.6841	554.443	92.4922	554.443	92.5294	554.443	92.2022	554.443	92.263	554.443	91.7932	554.443	91.8787	554.443	91.2639	554.443	91.3683	554.443	90.6175	554.443	90.7246	554.443	89.8669	554.443	89.9468	554.443	89.0442	554.443	89.0511	554.443	88.2145	554.443	88.0917	554.443	87.4894	554.443	87.1885	554.443	87.0145	554.443	86.5352	554.443	86.9009	554.443	86.3214	554.443	87.1381	554.443	86.5763	554.443	87.5931	554.443	87.1322	554.443	88.0982	554.443	87.7647	554.443	88.522	554.443	88.3107	554.443	88.784	554.443	88.6824	554.443	88.8425
574.219	92.4375	574.219	92.415	574.219	92.3614	574.219	92.2941	574.219	92.1836	574.219	92.0713	574.219	91.8993	574.219	91.7393	574.219	91.503	574.219	91.2879	574.219	90.9892	574.219	90.7069	574.219	90.3538	574.219	89.9913	574.219	89.5984	574.219	89.1504	574.219	88.7383	574.219	88.2252	574.219	87.8212	574.219	87.3125	574.219	86.9518	574.219	86.5808	574.219	86.3027	574.219	86.2207	574.219	86.0529	574.219	86.3112	574.219	86.2494	574.219	86.7389	574.219	86.7507	574.219	87.2935	574.219	87.34	574.219	87.7968	574.219	87.8459	574.219	88.1408	574.219	88.1709	574.219	88.2719
594.727	92.7098	594.727	92.6545	594.727	92.6655	594.727	92.4983	594.727	92.5202	594.727	92.2368	594.727	92.2696	594.727	91.8632	594.727	91.9066	594.727	91.3688	594.727	91.4213	594.727	90.7454	594.727	90.8024	594.727	89.9894	594.727	90.0403	594.727	89.1115	594.727	89.1352	594.727	88.1536	594.727	88.114	594.727	87.2164	594.727	87.0636	594.727	86.4773	594.727	86.1707	594.727	86.1379	594.727	85.6985	594.727	86.2751	594.727	85.8018	594.727	86.7566	594.727	86.3527	594.727	87.3523	594.727	87.0627	594.727	87.8731	594.727	87.6955	594.727	88.2068	594.727	88.1241	594.727	88.2974
615.234	92.7588	615.234	92.7234	615.234	92.7022	615.234	92.5954	615.234	92.5516	615.234	92.3715	615.234	92.3027	615.234	92.0453	615.234	91.9488	615.234	91.6077	615.234	91.4806	615.234	91.0473	615.234	90.8872	615.234	90.3544	615.234	90.1576	615.234	89.5289	615.234	89.2872	615.234	88.5962	615.234	88.2928	615.234	87.6359	615.234	87.2463	615.234	86.8112	615.234	86.3235	615.234	86.3456	615.234	85.8042	615.234	86.3807	615.234	85.8899	615.234	86.8309	615.234	86.4737	615.234	87.4554	615.234	87.2401	615.234	88.0302	615.234	87.9205	615.234	88.4152	615.234	88.3717	615.234	88.5387
637.207	92.7347	637.207	92.6929	637.207	92.6823	637.207	92.5568	637.207	92.5365	637.207	92.3256	637.207	92.298	637.207	91.9961	637.207	91.9655	637.207	91.5605	637.207	91.533	637.207	91.0066	637.207	90.9891	637.207	90.3207	637.207	90.3198	637.207	89.4954	637.207	89.5159	637.207	88.5453	637.207	88.5892	637.207	87.5373	637.207	87.6002	637.207	86.6294	637.207	86.6943	637.207	86.0672	637.207	86.1012	637.207	86.0359	637.207	86.0094	637.207	86.465	637.207	86.3815	637.207	87.0881	637.207	86.9805	637.207	87.6564	637.207	87.562	637.207	88.0258	637.207	87.9718	637.207	88.1349
659.912	92.9349	659.912	92.8673	659.912	92.9049	659.912	92.7055	659.912	92.7711	659.912	92.4492	659.912	92.5259	659.912	92.0935	659.912	92.1604	659.912	91.6284	659.912	91.6652	659.912	91.0384	659.912	91.0296	659.912	90.3043	659.912	90.2431	659.912	89.4091	659.912	89.2994	659.912	88.3563	659.912	88.2123	659.912	87.2099	659.912	87.0513	659.912	86.1642	659.912	86.0042	659.912	85.5642	659.912	85.396	659.912	85.6707	659.912	85.4815	659.912	86.3379	659.912	86.14	659.912	87.1759	659.912	86.9999	659.912	87.8883	659.912	87.7596	659.912	88.3347	659.912	88.2676	659.912	88.4646
683.35	93.2188	683.35	93.1907	683.35	93.1481	683.35	93.0583	683.35	92.9804	683.35	92.8122	683.35	92.7126	683.35	92.4394	683.35	92.336	683.35	91.9231	683.35	91.8358	683.35	91.2431	683.35	91.1919	683.35	90.3784	683.35	90.3803	683.35	89.3142	683.35	89.3805	683.35	88.062	683.35	88.1938	683.35	86.7071	683.35	86.8913	683.35	85.4945	683.35	85.7048	683.35	84.8484	683.35	85.0637	683.35	85.0517	683.35	85.274	683.35	85.8756	683.35	86.1048	683.35	86.8624	683.35	87.0755	683.35	87.7043	683.35	87.869	683.35	88.2632	683.35	88.3528	683.35	88.4855
706.787	92.9361	706.787	92.8976	706.787	92.9097	706.787	92.7966	706.787	92.8133	706.787	92.6302	706.787	92.6371	706.787	92.3869	706.787	92.3647	706.787	92.0422	706.787	91.9695	706.787	91.5565	706.787	91.4139	706.787	90.8759	706.787	90.6482	706.787	89.9337	706.787	89.6106	706.787	88.6573	706.787	88.2301	706.787	86.9949	706.787	86.4486	706.787	85.0309	706.787	84.343	706.787	83.352	706.787	82.5581	706.787	83.1571	706.787	82.4777	706.787	84.4709	706.787	84.0306	706.787	86.064	706.787	85.7959	706.787	87.2861	706.787	87.1299	706.787	88.0037	706.787	87.9311	706.787	88.217
731.689	92.6766	731.689	92.6644	731.689	92.6363	731.689	92.5944	731.689	92.5496	731.689	92.4635	731.689	92.42	731.689	92.2697	731.689	92.2438	731.689	92.0068	731.689	92.0054	731.689	91.6572	731.689	91.6733	731.689	91.1847	731.689	91.1996	731.689	90.531	731.689	90.5217	731.689	89.616	731.689	89.5651	731.689	88.3422	731.689	88.2477	731.689	86.6092	731.689	86.4989	731.689	84.3965	731.689	84.3538	731.689	82.1395	731.689	82.3103	731.689	81.3325	731.689	81.675	731.689	82.542	731.689	82.7688	731.689	84.1455	731.689	84.2274	731.689	85.2122	731.689	85.2292	731.689	85.5721
758.057	92.4365	758.057	92.3987	758.057	92.3894	758.057	92.2835	758.057	92.2615	758.057	92.1042	758.057	92.0667	758.057	91.8705	758.057	91.8213	758.057	91.5812	758.057	91.5321	758.057	91.2217	758.057	91.1873	758.057	90.7651	758.057	90.7525	758.057	90.1741	758.057	90.1739	758.057	89.4007	758.057	89.3838	758.057	88.389	758.057	88.3097	758.057	87.0921	758.057	86.8949	758.057	85.5329	758.057	85.1673	758.057	83.9654	758.057	83.4378	758.057	83.029	758.057	82.5031	758.057	83.1988	758.057	82.8688	758.057	83.9931	758.057	83.845	758.057	84.6882	758.057	84.6368	758.057	84.9346
784.424	92.1611	784.424	92.1202	784.424	92.1126	784.424	91.993	784.424	91.9821	784.424	91.7935	784.424	91.7838	784.424	91.5419	784.424	91.5331	784.424	91.251	784.424	91.2386	784.424	90.9123	784.424	90.8922	784.424	90.4883	784.424	90.4636	784.424	89.92	784.424	89.9014	784.424	89.1418	784.424	89.1423	784.424	88.1014	784.424	88.125	784.424	86.7891	784.424	86.8183	784.424	85.3039	784.424	85.2904	784.424	83.9721	784.424	83.8572	784.424	83.3289	784.424	83.1303	784.424	83.5784	784.424	83.4044	784.424	84.2665	784.424	84.1705	784.424	84.8551	784.424	84.8188	784.424	85.0668
812.256	92.1278	812.256	92.0985	812.256	92.0663	812.256	91.9847	812.256	91.9191	812.256	91.7996	812.256	91.7028	812.256	91.5568	812.256	91.4407	812.256	91.2614	812.256	91.1519	812.256	90.9034	812.256	90.8375	812.256	90.4544	812.256	90.4678	812.256	89.8672	812.256	89.9821	812.256	89.0802	812.256	89.2977	812.256	88.0254	812.256	88.3255	812.256	86.6516	812.256	86.9932	812.256	84.9992	812.256	85.3109	812.256	83.4062	812.256	83.5728	812.256	82.6718	812.256	82.6107	812.256	83.2006	812.256	83.0236	812.256	84.248	812.256	84.0972	812.256	85.05	812.256	84.9711	812.256	85.3113
840.82	92.1119	840.82	92.0128	840.82	92.0904	840.82	91.8092	840.82	91.9496	840.82	91.5303	840.82	91.7089	840.82	91.2116	840.82	91.4008	840.82	90.8826	840.82	91.0572	840.82	90.5506	840.82	90.691	840.82	90.1871	840.82	90.2808	840.82	89.7257	840.82	89.771	840.82	89.0734	840.82	89.0833	840.82	88.1282	840.82	88.1319	840.82	86.8027	840.82	86.8432	840.82	85.0918	840.82	85.2038	840.82	83.2897	840.82	83.4192	840.82	82.2875	840.82	82.2011	840.82	82.717	840.82	82.3327	840.82	83.7696	840.82	83.3503	840.82	84.5482	840.82	84.301	840.82	84.7386
870.85	91.9618	870.85	91.921	870.85	91.8769	870.85	91.7625	870.85	91.6814	870.85	91.5182	870.85	91.409	870.85	91.2367	870.85	91.105	870.85	90.965	870.85	90.8148	870.85	90.7227	870.85	90.5619	870.85	90.4799	870.85	90.3233	870.85	90.1537	870.85	90.0195	870.85	89.6232	870.85	89.5299	870.85	88.7461	870.85	88.717	870.85	87.3688	870.85	87.4464	870.85	85.3416	870.85	85.6176	870.85	82.6495	870.85	83.3133	870.85	80.1475	870.85	81.3327	870.85	80.0903	870.85	81.176	870.85	81.8038	870.85	82.3769	870.85	83.1885	870.85	83.4164	870.85	83.7275
901.611	92.6635	901.611	92.496	901.611	92.6211	901.611	92.1463	901.611	92.3689	901.611	91.6693	901.611	91.9434	901.611	91.1472	901.611	91.4282	901.611	90.6796	901.611	90.9499	901.611	90.349	901.611	90.6308	901.611	90.1729	901.611	90.5039	901.611	90.0827	901.611	90.4735	901.611	89.9487	901.611	90.3711	901.611	89.6202	901.611	90.0313	901.611	88.9495	901.611	89.32	901.611	87.8003	901.611	88.1298	901.611	86.0579	901.611	86.3839	901.611	83.689	901.611	84.1118	901.611	81.0152	901.611	81.7116	901.611	79.2396	901.611	80.1625	901.611	79.1944	901.611	79.8064	901.611	79.6575
933.105	93.9684	933.105	93.8906	933.105	93.7988	933.105	93.5494	933.105	93.4063	933.105	92.9488	933.105	92.8123	933.105	92.1253	933.105	92.0335	933.105	91.1585	933.105	91.101	933.105	90.1765	933.105	90.1024	933.105	89.3385	933.105	89.2197	933.105	88.7708	933.105	88.674	933.105	88.4857	933.105	88.53	933.105	88.3689	933.105	88.6021	933.105	88.2536	933.105	88.621	933.105	87.9999	933.105	88.4078	933.105	87.538	933.105	87.9165	933.105	86.8993	933.105	87.2294	933.105	86.2393	933.105	86.5356	933.105	85.7777	933.105	86.0336	933.105	85.6127	933.105	85.7704	933.105	85.6455
966.064	93.8104	966.064	93.7799	966.064	93.6796	966.064	93.5857	966.064	93.3815	966.064	93.2195	966.064	92.9087	966.064	92.6769	966.064	92.2648	966.064	91.9695	966.064	91.4764	966.064	91.1356	966.064	90.596	966.064	90.2404	966.064	89.6872	966.064	89.3584	966.064	88.7963	966.064	88.5406	966.064	87.9337	966.064	87.7897	966.064	87.0927	966.064	87.0755	966.064	86.3039	966.064	86.3904	966.064	85.6821	966.064	85.8147	966.064	85.3981	966.064	85.5249	966.064	85.5348	966.064	85.65	966.064	85.9703	966.064	86.0855	966.064	86.4592	966.064	86.5552	966.064	86.7846	966.064	86.8229
999.756	93.5852	999.756	93.5082	999.756	93.4816	999.756	93.2628	999.756	93.1999	999.756	92.8674	999.756	92.7592	999.756	92.3421	999.756	92.1881	999.756	91.7135	999.756	91.5134	999.756	91.024	999.756	90.7569	999.756	90.3287	999.756	89.9427	999.756	89.6652	999.756	89.102	999.756	89.0124	999.756	88.2538	999.756	88.2858	999.756	87.364	999.756	87.392	999.756	86.3324	999.756	86.3192	999.756	85.0712	999.756	85.2402	999.756	83.733	999.756	84.5484	999.756	83.0031	999.756	84.5681	999.756	83.5031	999.756	85.1117	999.756	84.636	999.756	85.6788	999.756	85.539	999.756	85.8844
1,034.91	93.79	1,034.91	93.6834	1,034.91	93.6962	1,034.91	93.3698	1,034.91	93.4092	1,034.91	92.857	1,034.91	92.9292	1,034.91	92.1742	1,034.91	92.2589	1,034.91	91.3647	1,034.91	91.4286	1,034.91	90.4734	1,034.91	90.5196	1,034.91	89.5452	1,034.91	89.6533	1,034.91	88.6423	1,034.91	88.9201	1,034.91	87.8431	1,034.91	88.2953	1,034.91	87.1791	1,034.91	87.6397	1,034.91	86.5613	1,034.91	86.7947	1,034.91	85.8316	1,034.91	85.6838	1,034.91	84.9458	1,034.91	84.4029	1,034.91	84.1641	1,034.91	83.3198	1,034.91	83.9227	1,034.91	82.9477	1,034.91	84.205	1,034.91	83.3469	1,034.91	84.5094	1,034.91	84.0107	1,034.91	84.465
1,071.53	93.3758	1,071.53	93.3048	1,071.53	93.2987	1,071.53	93.0799	1,071.53	93.0698	1,071.53	92.6871	1,071.53	92.6804	1,071.53	92.114	1,071.53	92.1211	1,071.53	91.3673	1,071.53	91.3876	1,071.53	90.4885	1,071.53	90.4956	1,071.53	89.5496	1,071.53	89.5042	1,071.53	88.6188	1,071.53	88.5249	1,071.53	87.7105	1,071.53	87.6643	1,071.53	86.7713	1,071.53	86.9108	1,071.53	85.731	1,071.53	86.103	1,071.53	84.5925	1,071.53	85.0574	1,071.53	83.5249	1,071.53	83.7879	1,071.53	82.8752	1,071.53	82.769	1,071.53	82.9083	1,071.53	82.711	1,071.53	83.4575	1,071.53	83.44	1,071.53	84.0696	1,071.53	84.1383	1,071.53	84.3614
1,109.62	93.1679	1,109.62	93.1102	1,109.62	93.059	1,109.62	92.8848	1,109.62	92.793	1,109.62	92.4975	1,109.62	92.3848	1,109.62	91.9572	1,109.62	91.8509	1,109.62	91.2736	1,109.62	91.2055	1,109.62	90.4613	1,109.62	90.4592	1,109.62	89.5473	1,109.62	89.6201	1,109.62	88.5709	1,109.62	88.7009	1,109.62	87.5609	1,109.62	87.7258	1,109.62	86.4994	1,109.62	86.7185	1,109.62	85.3256	1,109.62	85.6645	1,109.62	84.0253	1,109.62	84.5093	1,109.62	82.8269	1,109.62	83.3051	1,109.62	82.3539	1,109.62	82.5044	1,109.62	82.9872	1,109.62	82.7578	1,109.62	84.1165	1,109.62	83.8114	1,109.62	84.9805	1,109.62	84.8009	1,109.62	85.2333
1,148.44	93.1687	1,148.44	93.076	1,148.44	93.1069	1,148.44	92.8191	1,148.44	92.885	1,148.44	92.3859	1,148.44	92.4871	1,148.44	91.7858	1,148.44	91.9049	1,148.44	91.0643	1,148.44	91.1599	1,148.44	90.287	1,148.44	90.3133	1,148.44	89.497	1,148.44	89.452	1,148.44	88.684	1,148.44	88.6393	1,148.44	87.8009	1,148.44	87.8578	1,148.44	86.8002	1,148.44	87.0058	1,148.44	85.642	1,148.44	85.9604	1,148.44	84.2828	1,148.44	84.6677	1,148.44	82.7534	1,148.44	83.2521	1,148.44	81.4795	1,148.44	82.1637	1,148.44	81.3727	1,148.44	82.0252	1,148.44	82.418	1,148.44	82.7721	1,148.44	83.4988	1,148.44	83.6157	1,148.44	83.9359
1,189.45	93.4779	1,189.45	93.3678	1,189.45	93.3977	1,189.45	93.0781	1,189.45	93.1165	1,189.45	92.6196	1,189.45	92.6359	1,189.45	92.0015	1,189.45	91.988	1,189.45	91.2242	1,189.45	91.2334	1,189.45	90.2879	1,189.45	90.4298	1,189.45	89.2358	1,189.45	89.6025	1,189.45	88.1966	1,189.45	88.7591	1,189.45	87.3194	1,189.45	87.9253	1,189.45	86.583	1,189.45	87.1207	1,189.45	85.7356	1,189.45	86.268	1,189.45	84.4939	1,189.45	85.1744	1,189.45	82.8337	1,189.45	83.7181	1,189.45	81.4259	1,189.45	82.2845	1,189.45	81.461	1,189.45	81.9504	1,189.45	82.6194	1,189.45	82.8324	1,189.45	83.6743	1,189.45	83.7681	1,189.45	84.0919
1,231.2	93.5916	1,231.2	93.5045	1,231.2	93.5213	1,231.2	93.2399	1,231.2	93.2982	1,231.2	92.7766	1,231.2	92.9034	1,231.2	92.1089	1,231.2	92.3034	1,231.2	91.2627	1,231.2	91.4827	1,231.2	90.3024	1,231.2	90.488	1,231.2	89.3136	1,231.2	89.4534	1,231.2	88.3576	1,231.2	88.5496	1,231.2	87.4329	1,231.2	87.8236	1,231.2	86.4879	1,231.2	87.0977	1,231.2	85.4532	1,231.2	86.0997	1,231.2	84.2375	1,231.2	84.6801	1,231.2	82.7539	1,231.2	82.9977	1,231.2	81.2231	1,231.2	81.7076	1,231.2	80.7102	1,231.2	81.5887	1,231.2	81.7596	1,231.2	82.4036	1,231.2	83.0241	1,231.2	83.2628	1,231.2	83.5601
1,274.41	93.3851	1,274.41	93.2757	1,274.41	93.3161	1,274.41	92.9937	1,274.41	93.0493	1,274.41	92.5344	1,274.41	92.5744	1,274.41	91.9023	1,274.41	91.9131	1,274.41	91.1203	1,274.41	91.1096	1,274.41	90.2255	1,274.41	90.2001	1,274.41	89.266	1,274.41	89.212	1,274.41	88.303	1,274.41	88.2106	1,274.41	87.392	1,274.41	87.3159	1,274.41	86.5268	1,274.41	86.5861	1,274.41	85.5934	1,274.41	85.8665	1,274.41	84.4131	1,274.41	84.8542	1,274.41	82.9011	1,274.41	83.3599	1,274.41	81.404	1,274.41	81.7604	1,274.41	80.9744	1,274.41	81.3613	1,274.41	81.9707	1,274.41	82.4348	1,274.41	83.217	1,274.41	83.5265	1,274.41	83.8244
1,319.82	92.8847	1,319.82	92.795	1,319.82	92.8069	1,319.82	92.5283	1,319.82	92.5775	1,319.82	92.0888	1,319.82	92.2024	1,319.82	91.4922	1,319.82	91.6683	1,319.82	90.7568	1,319.82	90.9519	1,319.82	89.8975	1,319.82	90.0368	1,319.82	88.923	1,319.82	88.9259	1,319.82	87.8382	1,319.82	87.6532	1,319.82	86.6571	1,319.82	86.2998	1,319.82	85.4211	1,319.82	84.9998	1,319.82	84.1991	1,319.82	83.8698	1,319.82	83.0434	1,319.82	82.8885	1,319.82	81.9808	1,319.82	81.9839	1,319.82	81.2116	1,319.82	81.4332	1,319.82	81.2783	1,319.82	81.8529	1,319.82	82.3112	1,319.82	83.0219	1,319.82	83.5193	1,319.82	83.978	1,319.82	84.1685
1,365.97	92.5968	1,365.97	92.5673	1,365.97	92.4838	1,365.97	92.3693	1,365.97	92.2257	1,365.97	91.9887	1,365.97	91.7938	1,365.97	91.4442	1,365.97	91.1789	1,365.97	90.7598	1,365.97	90.421	1,365.97	89.9352	1,365.97	89.5954	1,365.97	88.9771	1,365.97	88.774	1,365.97	87.9642	1,365.97	87.9893	1,365.97	87.0254	1,365.97	87.2065	1,365.97	86.1652	1,365.97	86.3073	1,365.97	85.1239	1,365.97	85.0894	1,365.97	83.5007	1,365.97	83.3024	1,365.97	81.1304	1,365.97	80.8515	1,365.97	79.2775	1,365.97	78.9116	1,365.97	80.4219	1,365.97	80.0263	1,365.97	82.6438	1,365.97	82.3804	1,365.97	84.0765	1,365.97	83.9573	1,365.97	84.5094
1,414.31	92.7742	1,414.31	92.7058	1,414.31	92.6443	1,414.31	92.4629	1,414.31	92.3138	1,414.31	92.0503	1,414.31	91.8118	1,414.31	91.4338	1,414.31	91.1718	1,414.31	90.5779	1,414.31	90.4041	1,414.31	89.5111	1,414.31	89.5059	1,414.31	88.3574	1,414.31	88.5162	1,414.31	87.2731	1,414.31	87.5541	1,414.31	86.3053	1,414.31	86.7375	1,414.31	85.3465	1,414.31	86.0001	1,414.31	84.2252	1,414.31	85.0405	1,414.31	82.7388	1,414.31	83.4694	1,414.31	80.6128	1,414.31	81.0496	1,414.31	77.996	1,414.31	78.5859	1,414.31	77.7382	1,414.31	78.8732	1,414.31	80.449	1,414.31	81.0242	1,414.31	82.4997	1,414.31	82.6235	1,414.31	83.1686
1,464.11	93.0802	1,464.11	92.8991	1,464.11	93.004	1,464.11	92.4786	1,464.11	92.6909	1,464.11	91.8791	1,464.11	92.1775	1,464.11	91.1783	1,464.11	91.4941	1,464.11	90.4313	1,464.11	90.6696	1,464.11	89.6519	1,464.11	89.7623	1,464.11	88.8425	1,464.11	88.8719	1,464.11	88.0349	1,464.11	88.0924	1,464.11	87.2695	1,464.11	87.4403	1,464.11	86.4872	1,464.11	86.8053	1,464.11	85.4623	1,464.11	85.9461	1,464.11	83.8547	1,464.11	84.5152	1,464.11	81.2786	1,464.11	82.1023	1,464.11	77.7075	1,464.11	78.8126	1,464.11	76.4011	1,464.11	78.306	1,464.11	79.4073	1,464.11	81.1407	1,464.11	82.0223	1,464.11	82.9801	1,464.11	83.2313
1,515.38	93.0755	1,515.38	92.8524	1,515.38	93.0813	1,515.38	92.4658	1,515.38	92.84	1,515.38	91.9451	1,515.38	92.3548	1,515.38	91.2707	1,515.38	91.6325	1,515.38	90.416	1,515.38	90.6686	1,515.38	89.4207	1,515.38	89.4856	1,515.38	88.4364	1,515.38	88.207	1,515.38	87.6712	1,515.38	87.09	1,515.38	87.197	1,515.38	86.3881	1,515.38	86.8194	1,515.38	86.049	1,515.38	86.2022	1,515.38	85.6483	1,515.38	84.989	1,515.38	84.6093	1,515.38	82.7777	1,515.38	82.2788	1,515.38	79.2638	1,515.38	78.0558	1,515.38	76.878	1,515.38	76.3514	1,515.38	79.7904	1,515.38	80.5749	1,515.38	82.6148	1,515.38	83.1457	1,515.38	83.7386
1,568.85	92.5686	1,568.85	92.6142	1,568.85	92.3773	1,568.85	92.4161	1,568.85	92.116	1,568.85	91.9091	1,568.85	91.7793	1,568.85	91.0963	1,568.85	91.2606	1,568.85	90.0499	1,568.85	90.4226	1,568.85	88.8656	1,568.85	89.2235	1,568.85	87.6331	1,568.85	87.8146	1,568.85	86.4988	1,568.85	86.5848	1,568.85	85.724	1,568.85	85.9248	1,568.85	85.4576	1,568.85	85.7005	1,568.85	85.3953	1,568.85	85.3802	1,568.85	84.8924	1,568.85	84.4938	1,568.85	83.2634	1,568.85	82.5944	1,568.85	79.8103	1,568.85	79.0463	1,568.85	74.9887	1,568.85	74.6638	1,568.85	76.9749	1,568.85	77.3907	1,568.85	80.5422	1,568.85	80.782	1,568.85	81.7719
1,624.51	92.5901	1,624.51	92.4486	1,624.51	92.5141	1,624.51	92.1514	1,624.51	92.1846	1,624.51	91.7319	1,624.51	91.6306	1,624.51	91.159	1,624.51	90.9315	1,624.51	90.3591	1,624.51	90.1295	1,624.51	89.2595	1,624.51	89.145	1,624.51	87.8336	1,624.51	87.827	1,624.51	86.228	1,624.51	86.189	1,624.51	84.9144	1,624.51	84.7612	1,624.51	84.4156	1,624.51	84.3475	1,624.51	84.5343	1,624.51	84.6294	1,624.51	84.4941	1,624.51	84.5016	1,624.51	83.6009	1,624.51	83.2174	1,624.51	81.2725	1,624.51	80.2602	1,624.51	77.3365	1,624.51	75.4878	1,624.51	76.2903	1,624.51	74.8051	1,624.51	79.0123	1,624.51	78.3894	1,624.51	79.8994
1,681.64	92.766	1,681.64	92.5767	1,681.64	92.76	1,681.64	92.2113	1,681.64	92.515	1,681.64	91.6872	1,681.64	92.0067	1,681.64	91.0437	1,681.64	91.2802	1,681.64	90.2947	1,681.64	90.4156	1,681.64	89.3714	1,681.64	89.4197	1,681.64	88.1736	1,681.64	88.1907	1,681.64	86.7047	1,681.64	86.6547	1,681.64	85.188	1,681.64	85.0191	1,681.64	84.0451	1,681.64	83.8733	1,681.64	83.4372	1,681.64	83.4954	1,681.64	82.8912	1,681.64	83.2324	1,681.64	81.8022	1,681.64	82.2849	1,681.64	79.9	1,681.64	80.2489	1,681.64	77.9489	1,681.64	77.6257	1,681.64	78.3843	1,681.64	77.3064	1,681.64	80.0739	1,681.64	79.3352	1,681.64	80.5394
1,740.97	93.8406	1,740.97	93.6277	1,740.97	93.763	1,740.97	93.1729	1,740.97	93.3574	1,740.97	92.495	1,740.97	92.6617	1,740.97	91.5944	1,740.97	91.8096	1,740.97	90.4958	1,740.97	90.9393	1,740.97	89.2783	1,740.97	90.0476	1,740.97	88.0478	1,740.97	88.9981	1,740.97	86.8461	1,740.97	87.7115	1,740.97	85.6551	1,740.97	86.3415	1,740.97	84.5473	1,740.97	85.2399	1,740.97	83.6456	1,740.97	84.5193	1,740.97	82.7495	1,740.97	83.7914	1,740.97	81.2587	1,740.97	82.5788	1,740.97	78.6439	1,740.97	80.7253	1,740.97	75.9701	1,740.97	79.1448	1,740.97	77.4647	1,740.97	79.7807	1,740.97	80.3016	1,740.97	81.2839	1,740.97	81.6297
1,802.49	95.2062	1,802.49	95.0992	1,802.49	95.0438	1,802.49	94.6685	1,802.49	94.6639	1,802.49	93.9492	1,802.49	94.0321	1,802.49	93.0239	1,802.49	93.0936	1,802.49	91.9216	1,802.49	91.8927	1,802.49	90.6265	1,802.49	90.5788	1,802.49	89.1804	1,802.49	89.2863	1,802.49	87.7146	1,802.49	88.0336	1,802.49	86.3924	1,802.49	86.8218	1,802.49	85.3612	1,802.49	85.8031	1,802.49	84.6339	1,802.49	85.1099	1,802.49	83.9037	1,802.49	84.3804	1,802.49	82.6254	1,802.49	82.8685	1,802.49	80.3151	1,802.49	80.1865	1,802.49	77.5728	1,802.49	78.3475	1,802.49	78.5099	1,802.49	80.3019	1,802.49	81.4404	1,802.49	82.3923	1,802.49	82.8439
1,866.21	94.5333	1,866.21	94.4263	1,866.21	94.2982	1,866.21	94.0422	1,866.21	93.7308	1,866.21	93.4546	1,866.21	92.9278	1,866.21	92.665	1,866.21	92.0111	1,866.21	91.6045	1,866.21	91.033	1,866.21	90.2426	1,866.21	89.9094	1,866.21	88.6686	1,866.21	88.4797	1,866.21	87.0565	1,866.21	86.6945	1,866.21	85.6246	1,866.21	84.8514	1,866.21	84.6166	1,866.21	83.7481	1,866.21	83.9779	1,866.21	83.7001	1,866.21	83.2589	1,866.21	83.5334	1,866.21	82.0794	1,866.21	81.9803	1,866.21	80.2658	1,866.21	78.5026	1,866.21	78.5976	1,866.21	76.5444	1,866.21	79.7024	1,866.21	80.1181	1,866.21	82.0738	1,866.21	82.661	1,866.21	83.2272
1,932.13	93.504	1,932.13	93.21	1,932.13	93.3713	1,932.13	92.5657	1,932.13	92.8066	1,932.13	91.6905	1,932.13	91.8744	1,932.13	90.6837	1,932.13	90.6757	1,932.13	89.5664	1,932.13	89.3099	1,932.13	88.2845	1,932.13	87.8978	1,932.13	86.7852	1,932.13	86.5391	1,932.13	85.1143	1,932.13	85.1873	1,932.13	83.5364	1,932.13	83.6902	1,932.13	82.5004	1,932.13	82.103	1,932.13	81.9857	1,932.13	81.018	1,932.13	81.3525	1,932.13	80.5896	1,932.13	79.9387	1,932.13	79.7955	1,932.13	77.2383	1,932.13	77.5432	1,932.13	74.9659	1,932.13	74.3972	1,932.13	77.7879	1,932.13	77.4249	1,932.13	80.9504	1,932.13	81.0728	1,932.13	82.142
2,000.24	93.7726	2,000.24	93.5188	2,000.24	93.6477	2,000.24	92.9114	2,000.24	93.1566	2,000.24	91.99	2,000.24	92.3481	2,000.24	90.8091	2,000.24	91.2815	2,000.24	89.4807	2,000.24	89.9947	2,000.24	88.1131	2,000.24	88.5453	2,000.24	86.6462	2,000.24	87.0603	2,000.24	84.9365	2,000.24	85.5866	2,000.24	83.0255	2,000.24	84.0158	2,000.24	81.3333	2,000.24	82.5897	2,000.24	80.6353	2,000.24	81.876	2,000.24	80.7538	2,000.24	81.4379	2,000.24	80.2463	2,000.24	80.162	2,000.24	77.7505	2,000.24	77.3046	2,000.24	73.0629	2,000.24	73.7465	2,000.24	75.11	2,000.24	75.9824	2,000.24	79.0649	2,000.24	79.3243	2,000.24	80.3677
2,070.56	94.2943	2,070.56	94.1391	2,070.56	94.0489	2,070.56	93.5783	2,070.56	93.4537	2,070.56	92.6423	2,070.56	92.5804	2,070.56	91.4318	2,070.56	91.4343	2,070.56	90.0869	2,070.56	89.9895	2,070.56	88.6437	2,070.56	88.3958	2,070.56	87.0581	2,070.56	86.9226	2,070.56	85.374	2,070.56	85.4992	2,070.56	83.6346	2,070.56	83.7958	2,070.56	81.9549	2,070.56	82.0459	2,070.56	80.9415	2,070.56	81.2453	2,070.56	80.8427	2,070.56	81.236	2,070.56	80.4582	2,070.56	80.4445	2,070.56	78.2721	2,070.56	77.6994	2,070.56	73.9156	2,070.56	73.5021	2,070.56	75.6151	2,070.56	76.8497	2,070.56	79.8145	2,070.56	80.5103	2,070.56	81.3923
2,143.8	93.836	2,143.8	93.7421	2,143.8	93.5506	2,143.8	93.2559	2,143.8	92.8798	2,143.8	92.3618	2,143.8	91.8578	2,143.8	91.1291	2,143.8	90.5588	2,143.8	89.7084	2,143.8	89.05	2,143.8	88.2355	2,143.8	87.4082	2,143.8	86.7688	2,143.8	85.6985	2,143.8	85.2336	2,143.8	83.8801	2,143.8	83.5278	2,143.8	81.8622	2,143.8	81.9547	2,143.8	79.7545	2,143.8	81.1733	2,143.8	78.4558	2,143.8	81.023	2,143.8	78.7875	2,143.8	80.3695	2,143.8	79.0078	2,143.8	78.2008	2,143.8	77.1154	2,143.8	74.5784	2,143.8	72.7122	2,143.8	76.0394	2,143.8	77.0387	2,143.8	80.2144	2,143.8	81.2253	2,143.8	82.0584
2,219.24	93.3952	2,219.24	93.165	2,219.24	93.1965	2,219.24	92.5043	2,219.24	92.5717	2,219.24	91.4247	2,219.24	91.5423	2,219.24	90.0026	2,219.24	90.1468	2,219.24	88.3872	2,219.24	88.4834	2,219.24	86.7439	2,219.24	86.7759	2,219.24	85.1969	2,219.24	85.2045	2,219.24	83.7005	2,219.24	83.6531	2,219.24	82.0179	2,219.24	81.891	2,219.24	80.2081	2,219.24	79.8976	2,219.24	79.0697	2,219.24	78.1133	2,219.24	78.9995	2,219.24	77.3136	2,219.24	78.665	2,219.24	77.1158	2,219.24	76.5725	2,219.24	75.7283	2,219.24	73.1501	2,219.24	71.6608	2,219.24	76.9015	2,219.24	74.7731	2,219.24	81.0904	2,219.24	80.1831	2,219.24	82.137
2,297.61	94.757	2,297.61	94.496	2,297.61	94.5543	2,297.61	93.7339	2,297.61	93.938	2,297.61	92.4932	2,297.61	92.9339	2,297.61	90.8892	2,297.61	91.5497	2,297.61	89.1215	2,297.61	89.9032	2,297.61	87.4791	2,297.61	88.2596	2,297.61	86.1446	2,297.61	86.7015	2,297.61	84.762	2,297.61	84.9926	2,297.61	82.7306	2,297.61	82.9633	2,297.61	80.2871	2,297.61	80.8274	2,297.61	78.9392	2,297.61	79.4831	2,297.61	79.0927	2,297.61	79.4968	2,297.61	78.78	2,297.61	79.3224	2,297.61	76.1386	2,297.61	76.9824	2,297.61	66.4089	2,297.61	71.853	2,297.61	74.6692	2,297.61	75.7222	2,297.61	80.7315	2,297.61	80.4948	2,297.61	82.1243
2,378.17	95.5998	2,378.17	95.3839	2,378.17	95.3795	2,378.17	94.7683	2,378.17	94.6813	2,378.17	93.7311	2,378.17	93.499	2,378.17	92.2078	2,378.17	91.937	2,378.17	90.343	2,378.17	90.2201	2,378.17	88.6347	2,378.17	88.5483	2,378.17	87.3438	2,378.17	86.9916	2,378.17	85.9991	2,378.17	85.4295	2,378.17	84.0407	2,378.17	83.5291	2,378.17	81.3948	2,378.17	81.1982	2,378.17	78.9214	2,378.17	79.5502	2,378.17	79.2762	2,378.17	79.8921	2,378.17	80.461	2,378.17	80.0913	2,378.17	79.5495	2,378.17	77.6754	2,378.17	74.2893	2,378.17	69.7222	2,378.17	70.5776	2,378.17	75.4477	2,378.17	79.5028	2,378.17	81.0235	2,378.17	82.111
2,462.4	95.2935	2,462.4	95.0964	2,462.4	94.9937	2,462.4	94.4441	2,462.4	94.2305	2,462.4	93.3605	2,462.4	93.1041	2,462.4	91.8649	2,462.4	91.6244	2,462.4	90.0658	2,462.4	89.7558	2,462.4	88.1406	2,462.4	87.7742	2,462.4	86.2868	2,462.4	86.1463	2,462.4	84.6513	2,462.4	84.7628	2,462.4	83.1201	2,462.4	83.0587	2,462.4	81.1827	2,462.4	80.6875	2,462.4	78.4387	2,462.4	78.0312	2,462.4	77.2931	2,462.4	78.035	2,462.4	79.1033	2,462.4	79.0562	2,462.4	79.2821	2,462.4	77.4311	2,462.4	74.6572	2,462.4	69.6982	2,462.4	71.3007	2,462.4	71.1104	2,462.4	79.2705	2,462.4	78.8128	2,462.4	80.9299
2,548.83	95.4992	2,548.83	95.2622	2,548.83	95.2598	2,548.83	94.5938	2,548.83	94.5685	2,548.83	93.5125	2,548.83	93.4657	2,548.83	91.9923	2,548.83	91.9215	2,548.83	90.0836	2,548.83	89.9658	2,548.83	87.9336	2,548.83	87.8414	2,548.83	85.8293	2,548.83	85.9067	2,548.83	84.2276	2,548.83	84.4465	2,548.83	83.1274	2,548.83	83.3077	2,548.83	81.7698	2,548.83	81.6835	2,548.83	79.2605	2,548.83	78.4593	2,548.83	76.2851	2,548.83	76.0761	2,548.83	76.659	2,548.83	77.7954	2,548.83	77.1731	2,548.83	77.5684	2,548.83	73.9809	2,548.83	71.5847	2,548.83	67.6179	2,548.83	69.8967	2,548.83	75.0207	2,548.83	77.851	2,548.83	78.5619
2,638.92	96.0252	2,638.92	95.8098	2,638.92	95.7119	2,638.92	95.0946	2,638.92	94.8603	2,638.92	93.9008	2,638.92	93.5875	2,638.92	92.3685	2,638.92	92.0153	2,638.92	90.6544	2,638.92	90.1356	2,638.92	88.7285	2,638.92	88.0321	2,638.92	86.6495	2,638.92	85.9213	2,638.92	84.6819	2,638.92	84.121	2,638.92	83.0369	2,638.92	82.9839	2,638.92	81.665	2,638.92	81.7559	2,638.92	79.9463	2,638.92	78.6977	2,638.92	77.5388	2,638.92	73.9114	2,638.92	76.2362	2,638.92	75.4214	2,638.92	75.8557	2,638.92	77.2102	2,638.92	71.5832	2,638.92	72.9595	2,638.92	69.5636	2,638.92	67.9065	2,638.92	77.7331	2,638.92	77.7691	2,638.92	79.8609
2,731.93	96.2448	2,731.93	95.978	2,731.93	95.8293	2,731.93	95.0389	2,731.93	94.9285	2,731.93	93.6779	2,731.93	93.6806	2,731.93	92.142	2,731.93	92.0439	2,731.93	90.3979	2,731.93	90.102	2,731.93	88.4062	2,731.93	88.0364	2,731.93	86.5388	2,731.93	85.775	2,731.93	85.1171	2,731.93	83.7717	2,731.93	83.9745	2,731.93	82.7589	2,731.93	82.5738	2,731.93	81.8636	2,731.93	80.165	2,731.93	79.6526	2,731.93	77.4908	2,731.93	75.4239	2,731.93	77.3493	2,731.93	72.8273	2,731.93	77.017	2,731.93	75.197	2,731.93	73.0172	2,731.93	71.9348	2,731.93	66.8976	2,731.93	67.2339	2,731.93	75.6987	2,731.93	77.6018	2,731.93	79.0848
2,828.61	96.4037	2,828.61	96.1464	2,828.61	95.9895	2,828.61	95.224	2,828.61	95.0504	2,828.61	93.8821	2,828.61	93.6609	2,828.61	92.3029	2,828.61	91.8793	2,828.61	90.4016	2,828.61	89.9422	2,828.61	88.299	2,828.61	88.0139	2,828.61	86.4923	2,828.61	86.0587	2,828.61	85.255	2,828.61	84.3742	2,828.61	84.6421	2,828.61	83.2373	2,828.61	84.0965	2,828.61	82.3712	2,828.61	82.2456	2,828.61	81.2535	2,828.61	78.2113	2,828.61	79.0166	2,828.61	74.8329	2,828.61	75.5094	2,828.61	74.9544	2,828.61	73.6335	2,828.61	70.8592	2,828.61	70.1643	2,828.61	67.7896	2,828.61	63.1594	2,828.61	78.7714	2,828.61	77.0119	2,828.61	80.5336
2,928.22	95.1831	2,928.22	94.9753	2,928.22	94.7752	2,928.22	94.1609	2,928.22	93.7897	2,928.22	92.885	2,928.22	92.2013	2,928.22	91.2343	2,928.22	90.151	2,928.22	89.2665	2,928.22	87.9219	2,928.22	87.3129	2,928.22	85.5143	2,928.22	85.6341	2,928.22	83.2779	2,928.22	84.3274	2,928.22	82.0643	2,928.22	83.8016	2,928.22	81.7204	2,928.22	83.4306	2,928.22	81.4562	2,928.22	81.8054	2,928.22	80.2907	2,928.22	78.4232	2,928.22	77.4857	2,928.22	74.9727	2,928.22	74.8056	2,928.22	75.6501	2,928.22	74.1422	2,928.22	74.0688	2,928.22	69.9502	2,928.22	59.6573	2,928.22	62.3135	2,928.22	71.813	2,928.22	74.8473	2,928.22	76.2947
3,031.49	92.454	3,031.49	92.1554	3,031.49	92.1551	3,031.49	91.385	3,031.49	91.0145	3,031.49	90.0523	3,031.49	89.0978	3,031.49	88.1727	3,031.49	86.8853	3,031.49	86.2121	3,031.49	84.5827	3,031.49	84.6824	3,031.49	82.24	3,031.49	83.3272	3,031.49	80.4161	3,031.49	81.8283	3,031.49	78.8112	3,031.49	80.605	3,031.49	77.8019	3,031.49	80.0733	3,031.49	77.9402	3,031.49	79.6184	3,031.49	77.565	3,031.49	78.0765	3,031.49	75.6331	3,031.49	74.6066	3,031.49	73.123	3,031.49	71.1188	3,031.49	72.2667	3,031.49	68.3878	3,031.49	70.349	3,031.49	55.5531	3,031.49	58.9585	3,031.49	68.7883	3,031.49	69.8285	3,031.49	72.9556
3,138.43	91.1519	3,138.43	91.016	3,138.43	90.5978	3,138.43	90.3066	3,138.43	89.2435	3,138.43	88.9982	3,138.43	87.3181	3,138.43	87.2131	3,138.43	85.0861	3,138.43	85.3444	3,138.43	82.6236	3,138.43	83.7024	3,138.43	80.7598	3,138.43	82.3206	3,138.43	79.6157	3,138.43	81.1188	3,138.43	78.2897	3,138.43	80.1552	3,138.43	77.4419	3,138.43	79.4478	3,138.43	77.1285	3,138.43	78.5487	3,138.43	76.4356	3,138.43	76.9502	3,138.43	75.1344	3,138.43	75.1066	3,138.43	73.5609	3,138.43	74.0108	3,138.43	73.585	3,138.43	71.7853	3,138.43	71.9251	3,138.43	61.7389	3,138.43	61.241	3,138.43	69.7814	3,138.43	68.8447	3,138.43	73.4535
3,249.02	92.6901	3,249.02	92.4467	3,249.02	92.0089	3,249.02	91.363	3,249.02	90.5703	3,249.02	89.7148	3,249.02	88.5633	3,249.02	87.8368	3,249.02	85.9868	3,249.02	85.9463	3,249.02	83.5615	3,249.02	84.1295	3,249.02	82.314	3,249.02	82.4009	3,249.02	81.0461	3,249.02	80.8438	3,249.02	79.7006	3,249.02	80.176	3,249.02	79.3513	3,249.02	80.4506	3,249.02	79.5732	3,249.02	80.1954	3,249.02	79.5942	3,249.02	78.5062	3,249.02	78.5316	3,249.02	76.171	3,249.02	76.0695	3,249.02	75.1678	3,249.02	74.9206	3,249.02	73.6587	3,249.02	74.1222	3,249.02	62.8081	3,249.02	66.6725	3,249.02	71.0341	3,249.02	68.767	3,249.02	75.0063
3,363.28	93.6021	3,363.28	93.4041	3,363.28	92.8749	3,363.28	92.1584	3,363.28	91.4268	3,363.28	90.1428	3,363.28	89.1952	3,363.28	87.8673	3,363.28	86.4064	3,363.28	85.7255	3,363.28	84.2325	3,363.28	83.9808	3,363.28	82.7571	3,363.28	82.3565	3,363.28	81.4084	3,363.28	80.9662	3,363.28	80.677	3,363.28	80.9449	3,363.28	80.1711	3,363.28	81.5665	3,363.28	79.9138	3,363.28	81.0757	3,363.28	79.9154	3,363.28	79.0932	3,363.28	79.0359	3,363.28	76.9515	3,363.28	76.8116	3,363.28	76.8764	3,363.28	75.2343	3,363.28	76.2484	3,363.28	74.5386	3,363.28	69.0214	3,363.28	67.2305	3,363.28	70.9594	3,363.28	70.0312	3,363.28	75.6509
3,481.93	93.8481	3,481.93	93.5792	3,481.93	93.2847	3,481.93	92.3384	3,481.93	91.8131	3,481.93	90.1393	3,481.93	89.3331	3,481.93	87.4085	3,481.93	86.6442	3,481.93	84.9482	3,481.93	84.852	3,481.93	83.3145	3,481.93	83.5204	3,481.93	82.1651	3,481.93	82.6111	3,481.93	81.1815	3,481.93	82.1748	3,481.93	80.6012	3,481.93	81.695	3,481.93	80.6992	3,481.93	81.1623	3,481.93	80.4574	3,481.93	80.4277	3,481.93	79.0313	3,481.93	79.3176	3,481.93	77.0735	3,481.93	78.0635	3,481.93	77.0835	3,481.93	77.8189	3,481.93	76.6562	3,481.93	76.5205	3,481.93	68.8362	3,481.93	67.6052	3,481.93	71.3837	3,481.93	70.4991	3,481.93	75.94
3,604.98	94.3322	3,604.98	93.9174	3,604.98	93.8951	3,604.98	92.6525	3,604.98	92.2885	3,604.98	90.3403	3,604.98	89.6641	3,604.98	87.3234	3,604.98	86.9316	3,604.98	84.7683	3,604.98	84.4866	3,604.98	83.535	3,604.98	83.0859	3,604.98	83.1526	3,604.98	82.9255	3,604.98	82.744	3,604.98	82.4489	3,604.98	81.6343	3,604.98	81.2418	3,604.98	80.3801	3,604.98	80.1188	3,604.98	80.2212	3,604.98	80.1525	3,604.98	80.2827	3,604.98	80.1749	3,604.98	78.7393	3,604.98	78.027	3,604.98	77.8877	3,604.98	76.3609	3,604.98	78.3742	3,604.98	76.1793	3,604.98	72.1287	3,604.98	71.0121	3,604.98	73.6221	3,604.98	70.3502	3,604.98	78.0258
3,732.42	94.3103	3,732.42	93.7468	3,732.42	93.7674	3,732.42	92.089	3,732.42	92.078	3,732.42	89.4138	3,732.42	89.487	3,732.42	86.3791	3,732.42	86.5489	3,732.42	84.1612	3,732.42	84.3287	3,732.42	83.2102	3,732.42	83.7833	3,732.42	82.8563	3,732.42	83.5193	3,732.42	82.3624	3,732.42	82.7276	3,732.42	81.268	3,732.42	81.192	3,732.42	80.0435	3,732.42	79.4885	3,732.42	80.0971	3,732.42	79.4414	3,732.42	80.3958	3,732.42	79.7274	3,732.42	78.7173	3,732.42	77.8664	3,732.42	76.6742	3,732.42	75.2098	3,732.42	77.1719	3,732.42	75.1752	3,732.42	72.0796	3,732.42	70.8361	3,732.42	74.1735	3,732.42	72.7719	3,732.42	78.979
3,863.53	93.7628	3,863.53	93.0898	3,863.53	93.0633	3,863.53	91.0365	3,863.53	91.0883	3,863.53	87.9885	3,863.53	88.1265	3,863.53	85.199	3,863.53	84.98	3,863.53	83.8128	3,863.53	83.4614	3,863.53	83.5608	3,863.53	83.3937	3,863.53	83.2012	3,863.53	83.1659	3,863.53	82.2922	3,863.53	82.4971	3,863.53	81.0799	3,863.53	80.8954	3,863.53	79.7149	3,863.53	78.787	3,863.53	79.1819	3,863.53	78.0196	3,863.53	79.4401	3,863.53	78.1592	3,863.53	78.5531	3,863.53	77.3202	3,863.53	76.2004	3,863.53	76.5464	3,863.53	74.812	3,863.53	76.2746	3,863.53	68.1131	3,863.53	69.2902	3,863.53	72.4371	3,863.53	72.8517	3,863.53	78.1384
3,999.76	95.0449	3,999.76	94.5574	3,999.76	94.0849	3,999.76	92.6678	3,999.76	91.842	3,999.76	90.1745	3,999.76	88.7001	3,999.76	88.2732	3,999.76	86.2747	3,999.76	87.435	3,999.76	86.1329	3,999.76	87.2949	3,999.76	86.3973	3,999.76	86.6522	3,999.76	85.975	3,999.76	85.5466	3,999.76	84.9344	3,999.76	84.1926	3,999.76	83.5361	3,999.76	82.3091	3,999.76	82.2475	3,999.76	81.0716	3,999.76	81.3783	3,999.76	81.124	3,999.76	80.6763	3,999.76	80.6661	3,999.76	79.4689	3,999.76	79.3102	3,999.76	78.5331	3,999.76	78.0845	3,999.76	78.2914	3,999.76	72.9462	3,999.76	72.5981	3,999.76	68.9626	3,999.76	71.3372	3,999.76	77.439
4,141.11	95.7007	4,141.11	95.0908	4,141.11	94.7357	4,141.11	93.2023	4,141.11	92.2181	4,141.11	90.8269	4,141.11	89.0876	4,141.11	89.19	4,141.11	88.0187	4,141.11	89.1726	4,141.11	88.5629	4,141.11	89.2708	4,141.11	88.657	4,141.11	88.5412	4,141.11	87.8792	4,141.11	87.6488	4,141.11	86.6808	4,141.11	86.4074	4,141.11	85.2911	4,141.11	84.5396	4,141.11	83.3284	4,141.11	83.4204	4,141.11	81.4608	4,141.11	83.2048	4,141.11	80.7509	4,141.11	82.5145	4,141.11	80.6527	4,141.11	82.3291	4,141.11	81.2462	4,141.11	82.5786	4,141.11	81.4347	4,141.11	78.4747	4,141.11	76.4448	4,141.11	74.2087	4,141.11	71.2247	4,141.11	79.5708
4,286.87	97.2739	4,286.87	96.9152	4,286.87	96.1823	4,286.87	95.2644	4,286.87	93.724	4,286.87	92.989	4,286.87	91.3788	4,286.87	91.9774	4,286.87	90.8938	4,286.87	91.9048	4,286.87	91.0809	4,286.87	91.1751	4,286.87	90.7245	4,286.87	90.0917	4,286.87	89.7377	4,286.87	89.147	4,286.87	88.7501	4,286.87	87.5606	4,286.87	87.5228	4,286.87	85.0675	4,286.87	85.9512	4,286.87	83.4262	4,286.87	84.7902	4,286.87	83.3138	4,286.87	83.1756	4,286.87	82.1346	4,286.87	79.7691	4,286.87	80.6584	4,286.87	78.8719	4,286.87	81.4949	4,286.87	81.786	4,286.87	77.0091	4,286.87	79.15	4,286.87	76.8315	4,286.87	72.5806	4,286.87	81.8279
4,438.48	97.8118	4,438.48	97.3332	4,438.48	96.6576	4,438.48	95.3976	4,438.48	94.3186	4,438.48	93.6378	4,438.48	92.4791	4,438.48	93.3996	4,438.48	92.5628	4,438.48	93.2892	4,438.48	93.0382	4,438.48	92.7535	4,438.48	92.6074	4,438.48	91.8531	4,438.48	91.4711	4,438.48	90.892	4,438.48	90.2129	4,438.48	89.5604	4,438.48	88.7102	4,438.48	87.7624	4,438.48	87.2762	4,438.48	86.4605	4,438.48	86.3317	4,438.48	85.7279	4,438.48	85.4915	4,438.48	84.1749	4,438.48	83.8284	4,438.48	81.6817	4,438.48	81.6765	4,438.48	81.472	4,438.48	83.074	4,438.48	77.5596	4,438.48	80.708	4,438.48	77.4817	4,438.48	75.8403	4,438.48	83.9187
4,594.48	97.7123	4,594.48	96.9652	4,594.48	96.6329	4,594.48	95.1369	4,594.48	94.1863	4,594.48	94.1718	4,594.48	92.6956	4,594.48	94.381	4,594.48	93.3713	4,594.48	94.7271	4,594.48	93.831	4,594.48	94.3159	4,594.48	93.3159	4,594.48	93.0073	4,594.48	92.2618	4,594.48	91.3935	4,594.48	91.0089	4,594.48	89.5542	4,594.48	89.6551	4,594.48	87.954	4,594.48	88.0756	4,594.48	86.7698	4,594.48	86.1298	4,594.48	84.8545	4,594.48	84.7741	4,594.48	82.05	4,594.48	84.4605	4,594.48	80.7233	4,594.48	84.3516	4,594.48	81.9506	4,594.48	84.6144	4,594.48	78.6226	4,594.48	80.3594	4,594.48	75.3164	4,594.48	75.5875	4,594.48	82.9957
4,757.08	98.3583	4,757.08	97.8491	4,757.08	97.0527	4,757.08	96.3122	4,757.08	94.404	4,757.08	95.1849	4,757.08	93.3886	4,757.08	95.1727	4,757.08	93.9069	4,757.08	95.2922	4,757.08	93.9984	4,757.08	94.7795	4,757.08	93.7127	4,757.08	93.5262	4,757.08	92.8294	4,757.08	91.7081	4,757.08	91.4622	4,757.08	89.5927	4,757.08	90.0611	4,757.08	87.3393	4,757.08	88.351	4,757.08	85.9172	4,757.08	86.5686	4,757.08	85.4923	4,757.08	85.4052	4,757.08	83.9875	4,757.08	83.5821	4,757.08	80.825	4,757.08	81.584	4,757.08	82.3581	4,757.08	83.3367	4,757.08	78.1746	4,757.08	79.7803	4,757.08	78.5871	4,757.08	75.5911	4,757.08	83.6614
4,924.8	98.4551	4,924.8	98.3528	4,924.8	96.5943	4,924.8	96.6678	4,924.8	94.1744	4,924.8	95.5476	4,924.8	94.6368	4,924.8	95.8114	4,924.8	95.8433	4,924.8	95.6084	4,924.8	96.2211	4,924.8	94.5388	4,924.8	95.2352	4,924.8	93.3008	4,924.8	92.7711	4,924.8	92.6775	4,924.8	90.784	4,924.8	91.4485	4,924.8	89.3993	4,924.8	88.9594	4,924.8	87.0261	4,924.8	87.0218	4,924.8	85.3212	4,924.8	86.7165	4,924.8	85.2735	4,924.8	85.8013	4,924.8	84.4408	4,924.8	81.8175	4,924.8	82.011	4,924.8	80.7907	4,924.8	82.0717	4,924.8	78.0891	4,924.8	78.4864	4,924.8	76.2749	4,924.8	76.572	4,924.8	84.1322
5,098.39	97.218	5,098.39	96.5664	5,098.39	95.7594	5,098.39	94.875	5,098.39	94.2827	5,098.39	95.1557	5,098.39	95.4232	5,098.39	96.1775	5,098.39	96.8227	5,098.39	96.2734	5,098.39	96.9075	5,098.39	95.1102	5,098.39	95.2717	5,098.39	93.0834	5,098.39	92.9929	5,098.39	90.7137	5,098.39	91.293	5,098.39	88.1953	5,098.39	89.2253	5,098.39	86.9344	5,098.39	87.0066	5,098.39	86.4857	5,098.39	85.1644	5,098.39	84.9616	5,098.39	83.2433	5,098.39	83.0391	5,098.39	81.4108	5,098.39	80.8435	5,098.39	79.9022	5,098.39	79.1914	5,098.39	82.0712	5,098.39	76.1261	5,098.39	79.1351	5,098.39	74.5439	5,098.39	74.4439	5,098.39	82.5292
5,277.83	95.7012	5,277.83	94.797	5,277.83	94.381	5,277.83	93.6923	5,277.83	93.373	5,277.83	94.9235	5,277.83	95.3186	5,277.83	96.3351	5,277.83	96.3349	5,277.83	96.5247	5,277.83	95.6522	5,277.83	95.4996	5,277.83	94.0216	5,277.83	93.7127	5,277.83	92.116	5,277.83	91.464	5,277.83	89.9641	5,277.83	89.4153	5,277.83	86.9865	5,277.83	87.8369	5,277.83	83.6558	5,277.83	86.3848	5,277.83	82.3179	5,277.83	85.4742	5,277.83	83.0976	5,277.83	83.9145	5,277.83	81.9819	5,277.83	80.7519	5,277.83	78.2885	5,277.83	80.6108	5,277.83	79.8535	5,277.83	77.2518	5,277.83	76.63	5,277.83	72.7571	5,277.83	73.4771	5,277.83	80.8752
5,463.87	93.026	5,463.87	93.3949	5,463.87	91.4161	5,463.87	93.7382	5,463.87	92.9253	5,463.87	95.8247	5,463.87	95.5322	5,463.87	96.821	5,463.87	96.2157	5,463.87	95.9151	5,463.87	95.33	5,463.87	93.7037	5,463.87	93.1006	5,463.87	90.9988	5,463.87	90.0024	5,463.87	89.2579	5,463.87	87.5322	5,463.87	87.9678	5,463.87	85.4125	5,463.87	85.7503	5,463.87	83.5774	5,463.87	83.2358	5,463.87	82.0339	5,463.87	81.8279	5,463.87	79.9681	5,463.87	81.2354	5,463.87	77.8722	5,463.87	78.6578	5,463.87	72.1011	5,463.87	76.8655	5,463.87	75.313	5,463.87	76.6186	5,463.87	76.9385	5,463.87	64.0861	5,463.87	66.0947	5,463.87	78.0912
5,656.49	91.4813	5,656.49	91.2479	5,656.49	91.542	5,656.49	92.773	5,656.49	93.6379	5,656.49	95.2281	5,656.49	95.6566	5,656.49	95.8999	5,656.49	95.9487	5,656.49	95.0185	5,656.49	94.5438	5,656.49	92.9263	5,656.49	91.7286	5,656.49	90.1116	5,656.49	88.538	5,656.49	87.2626	5,656.49	85.8404	5,656.49	84.2141	5,656.49	83.3324	5,656.49	82.2097	5,656.49	82.0885	5,656.49	81.0721	5,656.49	81.0104	5,656.49	79.4711	5,656.49	79.5049	5,656.49	78.5305	5,656.49	78.1331	5,656.49	77.964	5,656.49	74.739	5,656.49	77.4871	5,656.49	72.5265	5,656.49	74.4924	5,656.49	71.824	5,656.49	66.6697	5,656.49	71.7729	5,656.49	77.367
5,856.45	90.5754	5,856.45	91.3294	5,856.45	90.861	5,856.45	93.4545	5,856.45	93.7117	5,856.45	95.3453	5,856.45	95.6357	5,856.45	95.5586	5,856.45	95.1632	5,856.45	94.169	5,856.45	92.9366	5,856.45	91.5222	5,856.45	89.7534	5,856.45	88.3629	5,856.45	85.7481	5,856.45	86.1083	5,856.45	82.9564	5,856.45	84.6294	5,856.45	81.6749	5,856.45	82.5478	5,856.45	80.5336	5,856.45	79.6291	5,856.45	78.6983	5,856.45	78.0986	5,856.45	77.183	5,856.45	78.7217	5,856.45	77.526	5,856.45	77.068	5,856.45	75.8932	5,856.45	76.4071	5,856.45	73.6254	5,856.45	74.6749	5,856.45	76.6718	5,856.45	68.7128	5,856.45	67.3809	5,856.45	76.6285
6,062.99	91.0431	6,062.99	91.5459	6,062.99	92.2724	6,062.99	93.6974	6,062.99	94.7994	6,062.99	95.7978	6,062.99	95.7436	6,062.99	95.9627	6,062.99	94.7873	6,062.99	94.3307	6,062.99	92.3596	6,062.99	91.4167	6,062.99	88.1664	6,062.99	87.9442	6,062.99	83.6707	6,062.99	85.3777	6,062.99	81.9904	6,062.99	82.8882	6,062.99	81.3218	6,062.99	80.7006	6,062.99	81.1164	6,062.99	79.6404	6,062.99	78.9515	6,062.99	78.406	6,062.99	76.0531	6,062.99	77.76	6,062.99	77.6935	6,062.99	76.3568	6,062.99	77.9028	6,062.99	77.0565	6,062.99	73.2464	6,062.99	76.7472	6,062.99	74.5539	6,062.99	66.1427	6,062.99	64.5833	6,062.99	76.0416
6,276.86	92.1365	6,276.86	92.296	6,276.86	93.6585	6,276.86	94.7788	6,276.86	96.0812	6,276.86	96.4744	6,276.86	97.0557	6,276.86	96.0419	6,276.86	95.7638	6,276.86	93.8342	6,276.86	92.5238	6,276.86	90.3003	6,276.86	87.986	6,276.86	86.7308	6,276.86	85.0296	6,276.86	83.7799	6,276.86	84.8792	6,276.86	81.7171	6,276.86	83.7873	6,276.86	81.6245	6,276.86	82.3107	6,276.86	80.621	6,276.86	80.6721	6,276.86	78.852	6,276.86	79.3675	6,276.86	78.2982	6,276.86	79.3155	6,276.86	76.045	6,276.86	78.0541	6,276.86	73.5235	6,276.86	75.5377	6,276.86	73.7056	6,276.86	75.1827	6,276.86	64.5771	6,276.86	63.9464	6,276.86	72.0885
6,498.05	91.7103	6,498.05	92.6071	6,498.05	93.5264	6,498.05	95.5147	6,498.05	96.3859	6,498.05	97.0116	6,498.05	97.1391	6,498.05	96.1533	6,498.05	95.3981	6,498.05	93.1946	6,498.05	91.8053	6,498.05	88.6773	6,498.05	87.5156	6,498.05	84.1754	6,498.05	85.8544	6,498.05	82.8871	6,498.05	85.2423	6,498.05	82.9546	6,498.05	84.084	6,498.05	82.8245	6,498.05	83.6071	6,498.05	81.8443	6,498.05	82.5216	6,498.05	80.0341	6,498.05	80.9055	6,498.05	79.3111	6,498.05	81.0061	6,498.05	77.509	6,498.05	80.3232	6,498.05	74.8817	6,498.05	77.2446	6,498.05	76.3468	6,498.05	76.5549	6,498.05	62.1277	6,498.05	62.1695	6,498.05	72.6633
6,727.29	91.8887	6,727.29	92.8504	6,727.29	94.0499	6,727.29	96.2618	6,727.29	97.1821	6,727.29	97.8015	6,727.29	97.9489	6,727.29	96.5055	6,727.29	96.0596	6,727.29	92.6938	6,727.29	92.0128	6,727.29	87.5419	6,727.29	88.1145	6,727.29	85.1796	6,727.29	87.6276	6,727.29	85.27	6,727.29	87.428	6,727.29	84.9498	6,727.29	86.6354	6,727.29	84.8203	6,727.29	85.6264	6,727.29	83.5158	6,727.29	84.1325	6,727.29	80.6078	6,727.29	82.5085	6,727.29	79.2599	6,727.29	81.9417	6,727.29	78.0505	6,727.29	80.141	6,727.29	75.3734	6,727.29	77.2043	6,727.29	76.8632	6,727.29	76.5502	6,727.29	60.4826	6,727.29	65.2319	6,727.29	75.0012
6,964.6	90.2107	6,964.6	92.4736	6,964.6	93.6389	6,964.6	97.3153	6,964.6	97.908	6,964.6	98.6896	6,964.6	98.5898	6,964.6	96.5341	6,964.6	95.9417	6,964.6	91.6479	6,964.6	91.3047	6,964.6	87.4423	6,964.6	89.4117	6,964.6	87.3215	6,964.6	90.0311	6,964.6	88.0821	6,964.6	89.6926	6,964.6	87.8423	6,964.6	88.3208	6,964.6	87.1818	6,964.6	87.2343	6,964.6	85.459	6,964.6	85.8731	6,964.6	82.2499	6,964.6	83.5555	6,964.6	80.4367	6,964.6	82.2716	6,964.6	79.2851	6,964.6	80.8005	6,964.6	77.581	6,964.6	77.8076	6,964.6	79.1734	6,964.6	78.203	6,964.6	65.1667	6,964.6	70.3924	6,964.6	74.8543
7,209.96	86.3432	7,209.96	91.7707	7,209.96	92.8861	7,209.96	97.9529	7,209.96	98.2833	7,209.96	99.1643	7,209.96	98.8003	7,209.96	96.4369	7,209.96	95.6578	7,209.96	91.1118	7,209.96	91.3568	7,209.96	89.4485	7,209.96	91.5031	7,209.96	90.8148	7,209.96	92.0555	7,209.96	90.8115	7,209.96	91.4197	7,209.96	89.4465	7,209.96	90.113	7,209.96	88.2276	7,209.96	88.6651	7,209.96	86.5207	7,209.96	86.6796	7,209.96	84.1083	7,209.96	84.0456	7,209.96	83.4006	7,209.96	82.8425	7,209.96	82.0321	7,209.96	81.7454	7,209.96	78.7519	7,209.96	79.8249	7,209.96	80.5805	7,209.96	81.3416	7,209.96	63.0876	7,209.96	72.8513	7,209.96	77.0723
7,464.11	81.2232	7,464.11	90.4712	7,464.11	92.2482	7,464.11	97.8627	7,464.11	98.2234	7,464.11	98.671	7,464.11	98.1261	7,464.11	94.7948	7,464.11	93.9739	7,464.11	90.405	7,464.11	91.1962	7,464.11	92.2129	7,464.11	93.0952	7,464.11	92.8462	7,464.11	93.2197	7,464.11	91.8872	7,464.11	92.6154	7,464.11	90.1108	7,464.11	90.9008	7,464.11	88.5395	7,464.11	88.7944	7,464.11	86.3365	7,464.11	86.999	7,464.11	83.4159	7,464.11	84.4255	7,464.11	83.0729	7,464.11	82.4541	7,464.11	82.3061	7,464.11	79.7566	7,464.11	79.4625	7,464.11	78.8925	7,464.11	81.6081	7,464.11	82.0278	7,464.11	62.6133	7,464.11	72.3749	7,464.11	78.5951
7,727.78	90.9719	7,727.78	92.4812	7,727.78	92.7649	7,727.78	96.995	7,727.78	96.5968	7,727.78	96.9124	7,727.78	95.6117	7,727.78	92.4724	7,727.78	91.2837	7,727.78	91.2736	7,727.78	91.6471	7,727.78	92.816	7,727.78	93.3518	7,727.78	92.4403	7,727.78	92.7308	7,727.78	90.8752	7,727.78	91.3023	7,727.78	88.7945	7,727.78	88.4655	7,727.78	87.7188	7,727.78	86.6246	7,727.78	85.638	7,727.78	85.5379	7,727.78	82.8691	7,727.78	82.9081	7,727.78	83.6223	7,727.78	82.1039	7,727.78	82.5228	7,727.78	81.2484	7,727.78	76.0707	7,727.78	73.7692	7,727.78	81.6217	7,727.78	81.842	7,727.78	59.9413	7,727.78	75.8575	7,727.78	81.1939
8,000.24	94.1029	8,000.24	94.5806	8,000.24	94.7584	8,000.24	96.3331	8,000.24	95.6454	8,000.24	94.6929	8,000.24	92.963	8,000.24	90.6591	8,000.24	88.3391	8,000.24	91.0182	8,000.24	90.6679	8,000.24	91.9493	8,000.24	91.627	8,000.24	90.6753	8,000.24	90.1163	8,000.24	87.9418	8,000.24	89.0181	8,000.24	85.6828	8,000.24	86.5251	8,000.24	83.8076	8,000.24	84.0232	8,000.24	81.5905	8,000.24	81.6838	8,000.24	79.578	8,000.24	78.1657	8,000.24	81.1327	8,000.24	79.1372	8,000.24	81.939	8,000.24	79.8478	8,000.24	70.9544	8,000.24	58.9792	8,000.24	78.9482	8,000.24	79.4418	8,000.24	65.095	8,000.24	71.7	8,000.24	77.4887
8,282.23	95.9969	8,282.23	95.9113	8,282.23	96.448	8,282.23	96.422	8,282.23	96.1495	8,282.23	94.0543	8,282.23	91.8094	8,282.23	90.1808	8,282.23	89.2457	8,282.23	91.6766	8,282.23	92.8875	8,282.23	92.3629	8,282.23	92.887	8,282.23	90.6571	8,282.23	91.46	8,282.23	88.3653	8,282.23	89.1674	8,282.23	86.0675	8,282.23	83.4876	8,282.23	84.4031	8,282.23	81.916	8,282.23	82.659	8,282.23	81.4717	8,282.23	81.0821	8,282.23	79.0844	8,282.23	81.2187	8,282.23	77.5932	8,282.23	82.2605	8,282.23	81.3503	8,282.23	72.9273	8,282.23	75.3106	8,282.23	77.6761	8,282.23	75.2517	8,282.23	67.5152	8,282.23	72.2706	8,282.23	77.8273
8,574.46	96.7696	8,574.46	96.8813	8,574.46	96.5886	8,574.46	96.2701	8,574.46	95.0416	8,574.46	91.8543	8,574.46	88.4489	8,574.46	89.8551	8,574.46	90.866	8,574.46	92.7673	8,574.46	93.8735	8,574.46	93.2012	8,574.46	93.2454	8,574.46	90.8716	8,574.46	90.9534	8,574.46	88.1969	8,574.46	87.4838	8,574.46	85.3466	8,574.46	82.3744	8,574.46	81.7198	8,574.46	80.5914	8,574.46	80.3212	8,574.46	79.3296	8,574.46	79.3576	8,574.46	78.9111	8,574.46	79.2305	8,574.46	78.1628	8,574.46	81.1079	8,574.46	79.5133	8,574.46	73.276	8,574.46	71.9973	8,574.46	76.2871	8,574.46	76.5082	8,574.46	66.0684	8,574.46	71.8848	8,574.46	76.0305
8,876.22	96.1082	8,876.22	95.9131	8,876.22	95.7714	8,876.22	94.6176	8,876.22	92.5977	8,876.22	89.8207	8,876.22	86.6352	8,876.22	90.6936	8,876.22	92.7339	8,876.22	92.692	8,876.22	93.7844	8,876.22	91.9562	8,876.22	91.992	8,876.22	88.9865	8,876.22	88.3139	8,876.22	86.7221	8,876.22	83.7516	8,876.22	83.1721	8,876.22	77.5088	8,876.22	80.9838	8,876.22	78.1479	8,876.22	80.0455	8,876.22	78.0985	8,876.22	77.9527	8,876.22	77.4154	8,876.22	75.5395	8,876.22	73.525	8,876.22	77.7757	8,876.22	75.7517	8,876.22	69.8936	8,876.22	64.4985	8,876.22	74.5341	8,876.22	72.7589	8,876.22	64.6704	8,876.22	71.0315	8,876.22	75.5521
9,189.7	94.2859	9,189.7	94.3126	9,189.7	93.7469	9,189.7	92.6196	9,189.7	90.0069	9,189.7	86.9369	9,189.7	89.0086	9,189.7	90.2082	9,189.7	93.2697	9,189.7	91.6007	9,189.7	92.8997	9,189.7	90.5627	9,189.7	89.9938	9,189.7	87.0542	9,189.7	85.222	9,189.7	84.2835	9,189.7	81.8307	9,189.7	81.137	9,189.7	78.9005	9,189.7	78.7257	9,189.7	78.9935	9,189.7	76.9974	9,189.7	77.2532	9,189.7	75.0602	9,189.7	76.6072	9,189.7	72.423	9,189.7	71.9149	9,189.7	75.5555	9,189.7	73.0792	9,189.7	69.2449	9,189.7	63.5017	9,189.7	71.6399	9,189.7	71.0334	9,189.7	62.5272	9,189.7	70.6685	9,189.7	73.595
9,513.43	92.4868	9,513.43	92.3614	9,513.43	91.9464	9,513.43	89.8359	9,513.43	88.3904	9,513.43	84.4056	9,513.43	89.755	9,513.43	90.4224	9,513.43	92.5541	9,513.43	90.8483	9,513.43	91.2548	9,513.43	88.5568	9,513.43	87.7179	9,513.43	84.1615	9,513.43	83.1575	9,513.43	81.7198	9,513.43	81.9428	9,513.43	78.4799	9,513.43	80.538	9,513.43	77.1979	9,513.43	79.5534	9,513.43	75.2007	9,513.43	75.9388	9,513.43	74.8712	9,513.43	76.3048	9,513.43	73.2708	9,513.43	73.5776	9,513.43	73.978	9,513.43	73.0113	9,513.43	70.3179	9,513.43	68.3909	9,513.43	69.4207	9,513.43	67.5977	9,513.43	60.7865	9,513.43	68.1706	9,513.43	72.7681
9,848.88	91.2102	9,848.88	90.5906	9,848.88	90.3747	9,848.88	86.1351	9,848.88	86.8223	9,848.88	86.631	9,848.88	89.5027	9,848.88	91.2797	9,848.88	91.7878	9,848.88	89.9917	9,848.88	89.8452	9,848.88	86.7629	9,848.88	85.9583	9,848.88	80.7954	9,848.88	83.0108	9,848.88	80.4819	9,848.88	82.2397	9,848.88	77.6345	9,848.88	80.5566	9,848.88	75.5522	9,848.88	78.6329	9,848.88	72.4655	9,848.88	74.4578	9,848.88	74.3634	9,848.88	75.8012	9,848.88	73.5461	9,848.88	72.7017	9,848.88	73.3145	9,848.88	71.4211	9,848.88	70.6223	9,848.88	70.2432	9,848.88	67.3269	9,848.88	63.3123	9,848.88	58.4066	9,848.88	69.2201	9,848.88	72.4622
10,196.8	91.1641	10,196.8	90.1313	10,196.8	89.7367	10,196.8	85.9028	10,196.8	86.6398	10,196.8	89.9748	10,196.8	90.9251	10,196.8	92.1187	10,196.8	92.0696	10,196.8	89.1723	10,196.8	89.1316	10,196.8	84.9688	10,196.8	84.8452	10,196.8	80.5449	10,196.8	82.8823	10,196.8	81.3718	10,196.8	82.4947	10,196.8	78.765	10,196.8	80.5597	10,196.8	76.7498	10,196.8	78.3309	10,196.8	72.2773	10,196.8	73.1545	10,196.8	75.0244	10,196.8	75.3702	10,196.8	74.305	10,196.8	73.3182	10,196.8	70.9423	10,196.8	68.1355	10,196.8	70.4702	10,196.8	68.1479	10,196.8	65.4812	10,196.8	64.613	10,196.8	55.4967	10,196.8	67.4208	10,196.8	71.8702
10,556.4	92.5182	10,556.4	91.2857	10,556.4	90.9262	10,556.4	89.2912	10,556.4	89.3877	10,556.4	92.7327	10,556.4	92.8853	10,556.4	92.956	10,556.4	92.4852	10,556.4	88.6835	10,556.4	88.2109	10,556.4	84.2308	10,556.4	83.9836	10,556.4	82.4669	10,556.4	83.2387	10,556.4	82.8689	10,556.4	82.5942	10,556.4	80.44	10,556.4	80.3008	10,556.4	78.1317	10,556.4	77.9284	10,556.4	73.8209	10,556.4	72.1634	10,556.4	76.5003	10,556.4	75.2299	10,556.4	75.6585	10,556.4	74.2078	10,556.4	71.1159	10,556.4	65.2136	10,556.4	71.2656	10,556.4	68.0702	10,556.4	64.2358	10,556.4	63.1648	10,556.4	59.5608	10,556.4	64.5354	10,556.4	69.9438
10,928.5	93.4029	10,928.5	92.7697	10,928.5	91.702	10,928.5	92.7062	10,928.5	92.1765	10,928.5	94.9134	10,928.5	94.6388	10,928.5	93.6356	10,928.5	92.8818	10,928.5	88.5385	10,928.5	87.364	10,928.5	85.5016	10,928.5	83.8443	10,928.5	83.876	10,928.5	82.795	10,928.5	83.3016	10,928.5	81.8435	10,928.5	80.5475	10,928.5	78.6019	10,928.5	76.1396	10,928.5	76.1162	10,928.5	70.6508	10,928.5	70.6974	10,928.5	75.6902	10,928.5	74.7097	10,928.5	75.6221	10,928.5	73.9583	10,928.5	70.2261	10,928.5	64.463	10,928.5	70.8003	10,928.5	67.8792	10,928.5	62.9522	10,928.5	62.4319	10,928.5	59.7186	10,928.5	57.1831	10,928.5	68.115
11,313.7	93.5892	11,313.7	93.889	11,313.7	93.0765	11,313.7	95.1013	11,313.7	95.0512	11,313.7	96.0934	11,313.7	95.8137	11,313.7	93.7703	11,313.7	92.145	11,313.7	88.4458	11,313.7	84.5381	11,313.7	86.3895	11,313.7	82.0631	11,313.7	83.9368	11,313.7	82.1153	11,313.7	83.4609	11,313.7	80.7529	11,313.7	80.2198	11,313.7	78.3533	11,313.7	76.5229	11,313.7	75.4138	11,313.7	72.2616	11,313.7	69.7731	11,313.7	73.6501	11,313.7	73.8546	11,313.7	73.8068	11,313.7	73.1367	11,313.7	66.3008	11,313.7	63.6651	11,313.7	69.1056	11,313.7	64.0647	11,313.7	67.3465	11,313.7	60.5855	11,313.7	64.7686	11,313.7	63.6495	11,313.7	69.5487
11,712.9	94.2447	11,712.9	94.6597	11,712.9	94.5048	11,712.9	95.8709	11,712.9	96.4697	11,712.9	95.781	11,712.9	95.3397	11,712.9	92.2463	11,712.9	88.9078	11,712.9	87.5199	11,712.9	83.6902	11,712.9	86.5973	11,712.9	84.7813	11,712.9	84.396	11,712.9	83.8969	11,712.9	83.9957	11,712.9	81.3217	11,712.9	80.8017	11,712.9	77.5261	11,712.9	78.5794	11,712.9	74.7928	11,712.9	74.9461	11,712.9	68.6976	11,712.9	74.3744	11,712.9	71.5139	11,712.9	73.8553	11,712.9	68.6096	11,712.9	58.3817	11,712.9	62.7633	11,712.9	68.3469	11,712.9	51.6214	11,712.9	64.0569	11,712.9	64.5488	11,712.9	62.5624	11,712.9	64.37	11,712.9	69.4076
12,126	94.3003	12,126	94.6226	12,126	96.0013	12,126	95.8359	12,126	97.2875	12,126	94.7951	12,126	94.2156	12,126	91.6206	12,126	87.6848	12,126	88.9481	12,126	87.6845	12,126	87.3919	12,126	86.5888	12,126	83.923	12,126	83.5062	12,126	83.4273	12,126	79.932	12,126	79.5228	12,126	75.3101	12,126	77.3133	12,126	73.0338	12,126	70.5515	12,126	62.6373	12,126	72.1127	12,126	67.7349	12,126	74.7736	12,126	64.4324	12,126	62.7784	12,126	65.6432	12,126	69.2236	12,126	58.237	12,126	67.5856	12,126	69.3531	12,126	65.854	12,126	68.0476	12,126	72.7471
12,553.7	95.5016	12,553.7	94.7208	12,553.7	97.8323	12,553.7	95.9535	12,553.7	98.0958	12,553.7	95.104	12,553.7	93.4673	12,553.7	92.7098	12,553.7	89.6159	12,553.7	89.5911	12,553.7	89.9631	12,553.7	87.5619	12,553.7	87.3418	12,553.7	83.4666	12,553.7	82.2293	12,553.7	83.1731	12,553.7	78.6805	12,553.7	78.7094	12,553.7	75.4713	12,553.7	76.268	12,553.7	72.7375	12,553.7	67.3523	12,553.7	66.2796	12,553.7	70.1357	12,553.7	68.1058	12,553.7	75.1709	12,553.7	66.7375	12,553.7	65.7884	12,553.7	71.0365	12,553.7	69.9404	12,553.7	56.778	12,553.7	72.0341	12,553.7	71.4078	12,553.7	69.3214	12,553.7	71.2808	12,553.7	75.3398
12,996.1	96.9044	12,996.1	96.3989	12,996.1	98.319	12,996.1	97.6351	12,996.1	97.4494	12,996.1	95.8929	12,996.1	92.7485	12,996.1	92.5852	12,996.1	92.1046	12,996.1	89.2272	12,996.1	90.4482	12,996.1	87.4335	12,996.1	86.5413	12,996.1	82.4039	12,996.1	79.4918	12,996.1	82.3936	12,996.1	78.2785	12,996.1	76.9348	12,996.1	75.7176	12,996.1	75.6498	12,996.1	74.1565	12,996.1	66.5576	12,996.1	68.3443	12,996.1	68.8432	12,996.1	64.5414	12,996.1	73.8548	12,996.1	68.9817	12,996.1	69.0515	12,996.1	71.5927	12,996.1	70.566	12,996.1	62.3994	12,996.1	74.8883	12,996.1	72.7276	12,996.1	71.4738	12,996.1	72.7318	12,996.1	77.0572
13,454.6	97.7581	13,454.6	97.6071	13,454.6	98.2271	13,454.6	98.1493	13,454.6	97.1431	13,454.6	95.6253	13,454.6	93.8398	13,454.6	92.5408	13,454.6	92.8402	13,454.6	89.7639	13,454.6	89.1173	13,454.6	87.2202	13,454.6	84.955	13,454.6	81.4656	13,454.6	77.7008	13,454.6	80.8612	13,454.6	77.8372	13,454.6	74.3475	13,454.6	74.9426	13,454.6	72.2048	13,454.6	73.2835	13,454.6	59.862	13,454.6	69.5951	13,454.6	66.6909	13,454.6	63.2703	13,454.6	72.5329	13,454.6	68.4811	13,454.6	71.1441	13,454.6	73.569	13,454.6	70.9185	13,454.6	63.8513	13,454.6	76.7942	13,454.6	75.3011	13,454.6	72.1073	13,454.6	72.9318	13,454.6	78.8452
13,928.5	98.2931	13,928.5	98.0002	13,928.5	98.7181	13,928.5	98.315	13,928.5	97.8175	13,928.5	95.5988	13,928.5	94.696	13,928.5	92.8423	13,928.5	92.6563	13,928.5	89.5339	13,928.5	87.7439	13,928.5	86.2416	13,928.5	83.7985	13,928.5	78.6247	13,928.5	76.6918	13,928.5	77.9593	13,928.5	77.0094	13,928.5	69.5157	13,928.5	76.3636	13,928.5	69.9135	13,928.5	74.2034	13,928.5	72.7802	13,928.5	73.671	13,928.5	56.078	13,928.5	61.8694	13,928.5	73.2405	13,928.5	68.9111	13,928.5	71.09	13,928.5	75.9593	13,928.5	70.6262	13,928.5	62.8509	13,928.5	78.3033	13,928.5	76.3926	13,928.5	73.4996	13,928.5	74.0509	13,928.5	79.916
14,419.9	99.0172	14,419.9	98.574	14,419.9	99.3117	14,419.9	98.5471	14,419.9	98.1994	14,419.9	95.4617	14,419.9	94.6381	14,419.9	92.2346	14,419.9	91.5783	14,419.9	88.0309	14,419.9	85.6251	14,419.9	84.6231	14,419.9	82.621	14,419.9	75.663	14,419.9	78.2882	14,419.9	78.0847	14,419.9	77.6072	14,419.9	71.532	14,419.9	77.1699	14,419.9	71.9862	14,419.9	74.2307	14,419.9	74.5581	14,419.9	74.5218	14,419.9	51.1848	14,419.9	63.5476	14,419.9	73.5226	14,419.9	68.2555	14,419.9	70.6605	14,419.9	76.7453	14,419.9	71.2526	14,419.9	61.3606	14,419.9	78.0575	14,419.9	76.8572	14,419.9	72.9411	14,419.9	74.3969	14,419.9	80.4625
14,928.2	99.9822	14,928.2	99.3206	14,928.2	99.7504	14,928.2	98.6597	14,928.2	98.2512	14,928.2	95.1118	14,928.2	94.4751	14,928.2	91.4969	14,928.2	90.7612	14,928.2	86.7439	14,928.2	84.9754	14,928.2	83.6804	14,928.2	83.496	14,928.2	73.8828	14,928.2	78.4965	14,928.2	77.5088	14,928.2	78.4048	14,928.2	71.2426	14,928.2	76.5733	14,928.2	70.6182	14,928.2	73.5118	14,928.2	75.3642	14,928.2	74.0303	14,928.2	55.7867	14,928.2	67.127	14,928.2	73.7504	14,928.2	66.8746	14,928.2	71.7705	14,928.2	77.4081	14,928.2	71.7252	14,928.2	55.2906	14,928.2	78.5016	14,928.2	77.9849	14,928.2	73.2651	14,928.2	72.108	14,928.2	80.059
15,454.8	99.9596	15,454.8	99.2812	15,454.8	99.3741	15,454.8	98.2994	15,454.8	97.8699	15,454.8	94.3892	15,454.8	93.8042	15,454.8	90.1701	15,454.8	88.9103	15,454.8	84.8621	15,454.8	84.7785	15,454.8	82.8149	15,454.8	83.8352	15,454.8	73.4154	15,454.8	77.2727	15,454.8	76.9552	15,454.8	77.9769	15,454.8	69.9267	15,454.8	75.1439	15,454.8	69.6166	15,454.8	70.9219	15,454.8	72.9839	15,454.8	71.6901	15,454.8	59.1771	15,454.8	68.3276	15,454.8	73.1366	15,454.8	66.7055	15,454.8	71.2604	15,454.8	76.3895	15,454.8	70.6584	15,454.8	62.2138	15,454.8	77.9147	15,454.8	77.9807	15,454.8	72.735	15,454.8	69.2445	15,454.8	79.4037
15,999.8	100.422	15,999.8	99.7989	15,999.8	99.4298	15,999.8	98.3229	15,999.8	97.6991	15,999.8	93.8091	15,999.8	92.5211	15,999.8	88.2618	15,999.8	87.6498	15,999.8	84.1035	15,999.8	84.1273	15,999.8	82.7964	15,999.8	82.8735	15,999.8	74.8963	15,999.8	76.4121	15,999.8	74.8085	15,999.8	77.6147	15,999.8	69.9003	15,999.8	74.8028	15,999.8	64.3987	15,999.8	67.5726	15,999.8	71.8635	15,999.8	70.1956	15,999.8	62.5683	15,999.8	67.982	15,999.8	72.151	15,999.8	66.7572	15,999.8	72.0072	15,999.8	75.2661	15,999.8	69.149	15,999.8	58.2074	15,999.8	77.7039	15,999.8	76.7571	15,999.8	70.4483	15,999.8	67.6103	15,999.8	79.5914
16,564.5	99.8939	16,564.5	98.9524	16,564.5	98.6057	16,564.5	96.7755	16,564.5	96.3072	16,564.5	91.3757	16,564.5	90.4703	16,564.5	86.5546	16,564.5	86.1543	16,564.5	83.1321	16,564.5	82.4269	16,564.5	81.2303	16,564.5	82.3037	16,564.5	72.1145	16,564.5	75.9937	16,564.5	72.8417	16,564.5	76.5633	16,564.5	68.0293	16,564.5	74.0834	16,564.5	60.9307	16,564.5	65.0079	16,564.5	72.2835	16,564.5	67.8019	16,564.5	56.9874	16,564.5	69.9391	16,564.5	70.6347	16,564.5	66.0994	16,564.5	71.1241	16,564.5	75.129	16,564.5	67.2454	16,564.5	53.743	16,564.5	77.2091	16,564.5	76.3755	16,564.5	68.5053	16,564.5	68.8253	16,564.5	79.5414
17,148.2	99.413	17,148.2	98.2672	17,148.2	97.8305	17,148.2	95.5715	17,148.2	95.3235	17,148.2	89.5836	17,148.2	88.9973	17,148.2	86.321	17,148.2	86.2742	17,148.2	81.912	17,148.2	82.7397	17,148.2	80.7133	17,148.2	82.8481	17,148.2	71.0666	17,148.2	75.9557	17,148.2	73.7497	17,148.2	76.6266	17,148.2	69.5292	17,148.2	74.3758	17,148.2	61.5237	17,148.2	67.4445	17,148.2	73.3486	17,148.2	69.4656	17,148.2	60.8469	17,148.2	68.3982	17,148.2	71.6643	17,148.2	68.0516	17,148.2	71.3595	17,148.2	74.7262	17,148.2	66.957	17,148.2	58.4009	17,148.2	77.3832	17,148.2	76.3326	17,148.2	68.125	17,148.2	66.8081	17,148.2	79.0636
17,753.2	98.9308	17,753.2	97.7831	17,753.2	97.2446	17,753.2	94.971	17,753.2	94.7941	17,753.2	89.0432	17,753.2	88.833	17,753.2	87.3773	17,753.2	87.791	17,753.2	82.7131	17,753.2	83.0378	17,753.2	82.0226	17,753.2	83.0306	17,753.2	72.0141	17,753.2	75.5614	17,753.2	74.3271	17,753.2	75.4133	17,753.2	69.4635	17,753.2	75.4851	17,753.2	65.4652	17,753.2	68.3462	17,753.2	74.9551	17,753.2	72.6514	17,753.2	60.4532	17,753.2	66.3469	17,753.2	72.1624	17,753.2	68.3525	17,753.2	73.1839	17,753.2	75.2864	17,753.2	68.6842	17,753.2	55.5894	17,753.2	78.3978	17,753.2	77.2267	17,753.2	70.037	17,753.2	67.322	17,753.2	79.6612
18,379.4	96.4981	18,379.4	95.5088	18,379.4	95.1743	18,379.4	92.9103	18,379.4	92.9095	18,379.4	87.6206	18,379.4	87.9418	18,379.4	87.3885	18,379.4	87.8557	18,379.4	81.6326	18,379.4	80.2005	18,379.4	80.6272	18,379.4	79.4416	18,379.4	62.7068	18,379.4	72.2682	18,379.4	73.3898	18,379.4	71.9463	18,379.4	67.8214	18,379.4	74.7954	18,379.4	71.213	18,379.4	67.1532	18,379.4	75.6251	18,379.4	72.95	18,379.4	63.7524	18,379.4	61.368	18,379.4	68.6023	18,379.4	64.905	18,379.4	74.3712	18,379.4	75.0333	18,379.4	68.5194	18,379.4	54.4943	18,379.4	78.1111	18,379.4	76.9266	18,379.4	70.1787	18,379.4	67.4928	18,379.4	79.0193
19,027.6	93.7598	19,027.6	92.744	19,027.6	93.007	19,027.6	90.1898	19,027.6	90.3179	19,027.6	86.1617	19,027.6	87.2778	19,027.6	85.3617	19,027.6	85.6049	19,027.6	76.3836	19,027.6	62.6979	19,027.6	76.9307	19,027.6	73.5888	19,027.6	63.2379	19,027.6	74.3748	19,027.6	74.2693	19,027.6	70.0563	19,027.6	66.9951	19,027.6	73.7063	19,027.6	73.9039	19,027.6	65.0449	19,027.6	75.4474	19,027.6	72.8773	19,027.6	68.1072	19,027.6	64.1388	19,027.6	64.0056	19,027.6	62.0697	19,027.6	73.3104	19,027.6	73.5666	19,027.6	68.6148	19,027.6	59.1077	19,027.6	75.4556	19,027.6	74.7774	19,027.6	69.1329	19,027.6	64.523	19,027.6	75.7532
19,698.5	94.5644	19,698.5	93.0701	19,698.5	93.7109	19,698.5	90.1413	19,698.5	90.7161	19,698.5	86.6185	19,698.5	88.0737	19,698.5	84.5752	19,698.5	83.3933	19,698.5	73.8716	19,698.5	72.972	19,698.5	76.4325	19,698.5	75.2464	19,698.5	70.0027	19,698.5	75.8721	19,698.5	76.2074	19,698.5	72.2668	19,698.5	60.9801	19,698.5	71.661	19,698.5	73.8144	19,698.5	64.6659	19,698.5	74.4044	19,698.5	72.8684	19,698.5	69.0062	19,698.5	69.1733	19,698.5	66.5678	19,698.5	55.9573	19,698.5	71.5001	19,698.5	72.7696	19,698.5	69.0678	19,698.5	59.7845	19,698.5	73.7859	19,698.5	73.8045	19,698.5	69.7434	19,698.5	60.5108	19,698.5	73.2268
19,999.5	94.7289	19,999.5	93.1814	19,999.5	93.9343	19,999.5	90.3374	19,999.5	91.0458	19,999.5	86.7001	19,999.5	88.2841	19,999.5	84.2786	19,999.5	82.8175	19,999.5	72.8972	19,999.5	74.2967	19,999.5	75.9629	19,999.5	75.2572	19,999.5	72.8633	19,999.5	75.3281	19,999.5	76.9271	19,999.5	72.5515	19,999.5	46.2167	19,999.5	71.0536	19,999.5	73.5233	19,999.5	63.1393	19,999.5	73.4372	19,999.5	72.5367	19,999.5	69.7353	19,999.5	70.8662	19,999.5	67.9681	19,999.5	50.0469	19,999.5	70.8352	19,999.5	72.3476	19,999.5	69.1633	19,999.5	60.6426	19,999.5	73.4363	19,999.5	73.8596	19,999.5	69.0049	19,999.5	58.7843	19,999.5	72.9698
