"SPL Vertical"
"On-Axis"		"10°"		"-10°"		"20°"		"-20°"		"30°"		"-30°"		"40°"		"-40°"		"50°"		"-50°"		"60°"		"-60°"		"70°"		"-70°"		"80°"		"-80°"		"90°"		"-90°"		"100°"		"-100°"		"110°"		"-110°"		"120°"		"-120°"		"130°"		"-130°"		"140°"		"-140°"		"150°"		"-150°"		"160°"		"-160°"		"170°"		"-170°"		"180°"
"Frequency / Hz"	"Sound Pressure Level / dB (re 20 µPa/V)  [2.83  V @ 1. m]"	"Frequency / Hz"	"Sound Pressure Level / dB (re 20 µPa/V)  [2.83  V @ 1. m]"	"Frequency / Hz"	"Sound Pressure Level / dB (re 20 µPa/V)  [2.83  V @ 1. m]"	"Frequency / Hz"	"Sound Pressure Level / dB (re 20 µPa/V)  [2.83  V @ 1. m]"	"Frequency / Hz"	"Sound Pressure Level / dB (re 20 µPa/V)  [2.83  V @ 1. m]"	"Frequency / Hz"	"Sound Pressure Level / dB (re 20 µPa/V)  [2.83  V @ 1. m]"	"Frequency / Hz"	"Sound Pressure Level / dB (re 20 µPa/V)  [2.83  V @ 1. m]"	"Frequency / Hz"	"Sound Pressure Level / dB (re 20 µPa/V)  [2.83  V @ 1. m]"	"Frequency / Hz"	"Sound Pressure Level / dB (re 20 µPa/V)  [2.83  V @ 1. m]"	"Frequency / Hz"	"Sound Pressure Level / dB (re 20 µPa/V)  [2.83  V @ 1. m]"	"Frequency / Hz"	"Sound Pressure Level / dB (re 20 µPa/V)  [2.83  V @ 1. m]"	"Frequency / Hz"	"Sound Pressure Level / dB (re 20 µPa/V)  [2.83  V @ 1. m]"	"Frequency / Hz"	"Sound Pressure Level / dB (re 20 µPa/V)  [2.83  V @ 1. m]"	"Frequency / Hz"	"Sound Pressure Level / dB (re 20 µPa/V)  [2.83  V @ 1. m]"	"Frequency / Hz"	"Sound Pressure Level / dB (re 20 µPa/V)  [2.83  V @ 1. m]"	"Frequency / Hz"	"Sound Pressure Level / dB (re 20 µPa/V)  [2.83  V @ 1. m]"	"Frequency / Hz"	"Sound Pressure Level / dB (re 20 µPa/V)  [2.83  V @ 1. m]"	"Frequency / Hz"	"Sound Pressure Level / dB (re 20 µPa/V)  [2.83  V @ 1. m]"	"Frequency / Hz"	"Sound Pressure Level / dB (re 20 µPa/V)  [2.83  V @ 1. m]"	"Frequency / Hz"	"Sound Pressure Level / dB (re 20 µPa/V)  [2.83  V @ 1. m]"	"Frequency / Hz"	"Sound Pressure Level / dB (re 20 µPa/V)  [2.83  V @ 1. m]"	"Frequency / Hz"	"Sound Pressure Level / dB (re 20 µPa/V)  [2.83  V @ 1. m]"	"Frequency / Hz"	"Sound Pressure Level / dB (re 20 µPa/V)  [2.83  V @ 1. m]"	"Frequency / Hz"	"Sound Pressure Level / dB (re 20 µPa/V)  [2.83  V @ 1. m]"	"Frequency / Hz"	"Sound Pressure Level / dB (re 20 µPa/V)  [2.83  V @ 1. m]"	"Frequency / Hz"	"Sound Pressure Level / dB (re 20 µPa/V)  [2.83  V @ 1. m]"	"Frequency / Hz"	"Sound Pressure Level / dB (re 20 µPa/V)  [2.83  V @ 1. m]"	"Frequency / Hz"	"Sound Pressure Level / dB (re 20 µPa/V)  [2.83  V @ 1. m]"	"Frequency / Hz"	"Sound Pressure Level / dB (re 20 µPa/V)  [2.83  V @ 1. m]"	"Frequency / Hz"	"Sound Pressure Level / dB (re 20 µPa/V)  [2.83  V @ 1. m]"	"Frequency / Hz"	"Sound Pressure Level / dB (re 20 µPa/V)  [2.83  V @ 1. m]"	"Frequency / Hz"	"Sound Pressure Level / dB (re 20 µPa/V)  [2.83  V @ 1. m]"	"Frequency / Hz"	"Sound Pressure Level / dB (re 20 µPa/V)  [2.83  V @ 1. m]"	"Frequency / Hz"	"Sound Pressure Level / dB (re 20 µPa/V)  [2.83  V @ 1. m]"	"Frequency / Hz"	"Sound Pressure Level / dB (re 20 µPa/V)  [2.83  V @ 1. m]"	"Frequency / Hz"	"Sound Pressure Level / dB (re 20 µPa/V)  [2.83  V @ 1. m]"
20.5078	56.8027	20.5078	57.3821	20.5078	56.2203	20.5078	57.9225	20.5078	55.6793	20.5078	58.3987	20.5078	55.2262	20.5078	58.7961	20.5078	54.9012	20.5078	59.1096	20.5078	54.7294	20.5078	59.3416	20.5078	54.7165	20.5078	59.5002	20.5078	54.8503	20.5078	59.597	20.5078	55.1069	20.5078	59.6452	20.5078	55.4571	20.5078	59.6572	20.5078	55.871	20.5078	59.6431	20.5078	56.3213	20.5078	59.6095	20.5078	56.7836	20.5078	59.5589	20.5078	57.2373	20.5078	59.4901	20.5078	57.6654	20.5078	59.3988	20.5078	58.0548	20.5078	59.2794	20.5078	58.3972	20.5078	59.1254	20.5078	58.6889	20.5078	58.9304
21.9727	48.8107	21.9727	49.3884	21.9727	48.3265	21.9727	49.9915	21.9727	47.99	21.9727	50.559	21.9727	47.821	21.9727	51.0488	21.9727	47.8033	21.9727	51.4381	21.9727	47.9014	21.9727	51.7199	21.9727	48.0807	21.9727	51.8986	21.9727	48.3179	21.9727	51.9858	21.9727	48.5995	21.9727	51.9977	21.9727	48.9162	21.9727	51.9526	21.9727	49.257	21.9727	51.8692	21.9727	49.6071	21.9727	51.764	21.9727	49.9481	21.9727	51.6499	21.9727	50.2616	21.9727	51.5359	21.9727	50.5322	21.9727	51.4276	21.9727	50.7512	21.9727	51.328	21.9727	50.9193	21.9727	51.2361	21.9727	51.0459	21.9727	51.1461
23.4375	48.5889	23.4375	49.1237	23.4375	48.0957	23.4375	49.6465	23.4375	47.6946	23.4375	50.1125	23.4375	47.4173	23.4375	50.4916	23.4375	47.2673	23.4375	50.7689	23.4375	47.2252	23.4375	50.9421	23.4375	47.2616	23.4375	51.0188	23.4375	47.3509	23.4375	51.0139	23.4375	47.4765	23.4375	50.9465	23.4375	47.6302	23.4375	50.8368	23.4375	47.8092	23.4375	50.7031	23.4375	48.0113	23.4375	50.5592	23.4375	48.2326	23.4375	50.4123	23.4375	48.467	23.4375	50.2638	23.4375	48.7064	23.4375	50.1109	23.4375	48.9431	23.4375	49.9493	23.4375	49.171	23.4375	49.7758	23.4375	49.3867	23.4375	49.5884
24.9023	48.0134	24.9023	48.7063	24.9023	47.2718	24.9023	49.3116	24.9023	46.5325	24.9023	49.8034	24.9023	45.854	24.9023	50.1689	24.9023	45.2942	24.9023	50.4069	24.9023	44.8999	24.9023	50.5267	24.9023	44.6968	24.9023	50.5462	24.9023	44.6873	24.9023	50.49	24.9023	44.853	24.9023	50.3861	24.9023	45.1629	24.9023	50.262	24.9023	45.58	24.9023	50.1397	24.9023	46.0665	24.9023	50.0308	24.9023	46.5874	24.9023	49.9345	24.9023	47.1121	24.9023	49.8392	24.9023	47.6159	24.9023	49.7278	24.9023	48.0805	24.9023	49.5836	24.9023	48.4945	24.9023	49.3941	24.9023	48.852	24.9023	49.1515
26.3672	45.0423	26.3672	45.8677	26.3672	44.1785	26.3672	46.5918	26.3672	43.3633	26.3672	47.1775	26.3672	42.6934	26.3672	47.6092	26.3672	42.2448	26.3672	47.8881	26.3672	42.0446	26.3672	48.0295	26.3672	42.0694	26.3672	48.0598	26.3672	42.2695	26.3672	48.0137	26.3672	42.5952	26.3672	47.9299	26.3672	43.0088	26.3672	47.8448	26.3672	43.4839	26.3672	47.7851	26.3672	43.9997	26.3672	47.7601	26.3672	44.5373	26.3672	47.7593	26.3672	45.077	26.3672	47.7578	26.3672	45.6001	26.3672	47.7254	26.3672	46.0901	26.3672	47.6363	26.3672	46.5333	26.3672	47.4745	26.3672	46.918	26.3672	47.2343
27.832	45.7946	27.832	46.3822	27.832	45.2538	27.832	46.9497	27.832	44.8283	27.832	47.4458	27.832	44.5661	27.832	47.8404	27.832	44.4798	27.832	48.1234	27.832	44.5482	27.832	48.3013	27.832	44.7331	27.832	48.3933	27.832	44.9975	27.832	48.4271	27.832	45.3144	27.832	48.434	27.832	45.667	27.832	48.4429	27.832	46.0442	27.832	48.4732	27.832	46.4367	27.832	48.5311	27.832	46.8339	27.832	48.6083	27.832	47.2234	27.832	48.6862	27.832	47.5912	27.832	48.7421	27.832	47.924	27.832	48.7561	27.832	48.21	27.832	48.7141	27.832	48.4404	27.832	48.6093
29.2969	48.5723	29.2969	48.8843	29.2969	48.3027	29.2969	49.2022	29.2969	48.1055	29.2969	49.4913	29.2969	47.9976	29.2969	49.7254	29.2969	47.9801	29.2969	49.89	29.2969	48.0419	29.2969	49.9832	29.2969	48.1655	29.2969	50.0141	29.2969	48.3329	29.2969	49.9999	29.2969	48.5285	29.2969	49.9627	29.2969	48.7404	29.2969	49.9247	29.2969	48.9598	29.2969	49.9039	29.2969	49.1792	29.2969	49.9104	29.2969	49.3915	29.2969	49.9444	29.2969	49.5891	29.2969	49.9975	29.2969	49.7646	29.2969	50.0562	29.2969	49.9109	29.2969	50.106	29.2969	50.0228	29.2969	50.1347	29.2969	50.097	29.2969	50.1335
30.7617	49.7994	30.7617	50.0407	30.7617	49.5679	30.7617	50.2638	30.7617	49.3714	30.7617	50.4432	30.7617	49.2273	30.7617	50.5596	30.7617	49.1428	30.7617	50.6026	30.7617	49.1146	30.7617	50.5712	30.7617	49.1325	30.7617	50.4733	30.7617	49.1836	30.7617	50.3243	30.7617	49.2551	30.7617	50.1451	30.7617	49.3371	30.7617	49.9597	30.7617	49.4221	30.7617	49.7914	30.7617	49.5048	30.7617	49.6591	30.7617	49.5806	30.7617	49.5735	30.7617	49.6448	30.7617	49.5361	30.7617	49.6925	30.7617	49.5399	30.7617	49.7196	30.7617	49.5724	30.7617	49.7233	30.7617	49.6192	30.7617	49.7043	30.7617	49.6669
32.2266	50.5874	32.2266	50.7816	32.2266	50.4215	32.2266	50.9751	32.2266	50.3089	32.2266	51.1409	32.2266	50.2647	32.2266	51.2585	32.2266	50.2909	32.2266	51.3161	32.2266	50.3779	32.2266	51.3117	32.2266	50.5084	32.2266	51.2519	32.2266	50.663	32.2266	51.1509	32.2266	50.8244	32.2266	51.0284	32.2266	50.9794	32.2266	50.9068	32.2266	51.1193	32.2266	50.8087	32.2266	51.2384	32.2266	50.752	32.2266	51.3331	32.2266	50.7469	32.2266	51.4004	32.2266	50.7938	32.2266	51.4372	32.2266	50.8833	32.2266	51.4404	32.2266	51.0001	32.2266	51.4082	32.2266	51.1261	32.2266	51.3414	32.2266	51.2443
33.6914	52.7053	33.6914	52.7515	33.6914	52.6907	33.6914	52.812	33.6914	52.7187	33.6914	52.8675	33.6914	52.7914	33.6914	52.9011	33.6914	52.9025	33.6914	52.9015	33.6914	53.0392	33.6914	52.8646	33.6914	53.1863	33.6914	52.7934	33.6914	53.3287	33.6914	52.6975	33.6914	53.4545	33.6914	52.5912	33.6914	53.5551	33.6914	52.4913	33.6914	53.6256	33.6914	52.415	33.6914	53.6637	33.6914	52.3769	33.6914	53.669	33.6914	52.3869	33.6914	53.6414	33.6914	52.4485	33.6914	53.5813	33.6914	52.5575	33.6914	53.489	33.6914	52.7037	33.6914	53.3663	33.6914	52.8728	33.6914	53.217	33.6914	53.0487
35.1562	55.4206	35.1562	55.3653	35.1562	55.4916	35.1562	55.3178	35.1562	55.5817	35.1562	55.2676	35.1562	55.6889	35.1562	55.2046	35.1562	55.8065	35.1562	55.121	35.1562	55.9246	35.1562	55.0136	35.1562	56.0319	35.1562	54.8843	35.1562	56.1176	35.1562	54.7398	35.1562	56.1728	35.1562	54.5909	35.1562	56.1912	35.1562	54.4511	35.1562	56.1698	35.1562	54.3349	35.1562	56.1079	35.1562	54.2562	35.1562	56.0073	35.1562	54.2262	35.1562	55.8712	35.1562	54.252	35.1562	55.7039	35.1562	54.335	35.1562	55.5108	35.1562	54.4704	35.1562	55.2988	35.1562	54.6483	35.1562	55.0765	35.1562	54.8552
36.6211	58.5148	36.6211	58.4406	36.6211	58.5944	36.6211	58.367	36.6211	58.6819	36.6211	58.2885	36.6211	58.7765	36.6211	58.1996	36.6211	58.8746	36.6211	58.0973	36.6211	58.9699	36.6211	57.981	36.6211	59.0548	36.6211	57.8538	36.6211	59.1212	36.6211	57.7218	36.6211	59.1621	36.6211	57.5936	36.6211	59.1722	36.6211	57.4794	36.6211	59.1482	36.6211	57.39	36.6211	59.089	36.6211	57.3357	36.6211	58.9955	36.6211	57.3246	36.6211	58.8702	36.6211	57.362	36.6211	58.7166	36.6211	57.4483	36.6211	58.5396	36.6211	57.5793	36.6211	58.3452	36.6211	57.7463	36.6211	58.1413	36.6211	57.9378
38.0859	61.0604	38.0859	60.9801	38.0859	61.1472	38.0859	60.9046	38.0859	61.2406	38.0859	60.831	38.0859	61.3392	38.0859	60.7567	38.0859	61.44	38.0859	60.6799	38.0859	61.5385	38.0859	60.6011	38.0859	61.6297	38.0859	60.523	38.0859	61.7084	38.0859	60.4507	38.0859	61.7699	38.0859	60.3907	38.0859	61.8106	38.0859	60.3501	38.0859	61.8278	38.0859	60.3356	38.0859	61.8203	38.0859	60.3529	38.0859	61.7875	38.0859	60.4051	38.0859	61.7292	38.0859	60.4928	38.0859	61.6457	38.0859	60.613	38.0859	61.5375	38.0859	60.7594	38.0859	61.4063	38.0859	60.9225	38.0859	61.2556	38.0859	61.0914
39.5508	62.7873	39.5508	62.6739	39.5508	62.897	39.5508	62.556	39.5508	63.0027	39.5508	62.4327	39.5508	63.103	39.5508	62.3033	39.5508	63.1952	39.5508	62.1683	39.5508	63.2756	39.5508	62.0301	39.5508	63.3397	39.5508	61.8931	39.5508	63.3831	39.5508	61.7635	39.5508	63.4015	39.5508	61.6489	39.5508	63.3922	39.5508	61.5569	39.5508	63.3533	39.5508	61.4954	39.5508	63.2849	39.5508	61.4709	39.5508	63.188	39.5508	61.4884	39.5508	63.0644	39.5508	61.5503	39.5508	62.9166	39.5508	61.6555	39.5508	62.7478	39.5508	61.7993	39.5508	62.5621	39.5508	61.9729	39.5508	62.3652	39.5508	62.1654
41.0156	63.379	41.0156	63.1675	41.0156	63.5824	41.0156	62.9525	41.0156	63.773	41.0156	62.7384	41.0156	63.9455	41.0156	62.5304	41.0156	64.094	41.0156	62.3342	41.0156	64.2124	41.0156	62.1566	41.0156	64.2948	41.0156	62.0048	41.0156	64.3363	41.0156	61.8861	41.0156	64.3334	41.0156	61.8069	41.0156	64.2853	41.0156	61.772	41.0156	64.1935	41.0156	61.7832	41.0156	64.0626	41.0156	61.839	41.0156	63.8997	41.0156	61.934	41.0156	63.7137	41.0156	62.0604	41.0156	63.5142	41.0156	62.2092	41.0156	63.3101	41.0156	62.3726	41.0156	63.1084	41.0156	62.5454	41.0156	62.9131	41.0156	62.7255
42.4805	66.5119	42.4805	66.3396	42.4805	66.6779	42.4805	66.1628	42.4805	66.8349	42.4805	65.9825	42.4805	66.9789	42.4805	65.7995	42.4805	67.1046	42.4805	65.6149	42.4805	67.2062	42.4805	65.4307	42.4805	67.2773	42.4805	65.25	42.4805	67.3117	42.4805	65.0769	42.4805	67.3043	42.4805	64.9165	42.4805	67.2511	42.4805	64.7749	42.4805	67.1502	42.4805	64.6592	42.4805	67.0018	42.4805	64.5773	42.4805	66.8086	42.4805	64.5375	42.4805	66.5754	42.4805	64.548	42.4805	66.3096	42.4805	64.6151	42.4805	66.0213	42.4805	64.7417	42.4805	65.7233	42.4805	64.9257	42.4805	65.4305	42.4805	65.1595
43.9453	69.1794	43.9453	69.0204	43.9453	69.3316	43.9453	68.8573	43.9453	69.4736	43.9453	68.6924	43.9453	69.6017	43.9453	68.5282	43.9453	69.7112	43.9453	68.3672	43.9453	69.7969	43.9453	68.2123	43.9453	69.854	43.9453	68.067	43.9453	69.8777	43.9453	67.9345	43.9453	69.8644	43.9453	67.8188	43.9453	69.812	43.9453	67.7235	43.9453	69.72	43.9453	67.6525	43.9453	69.5901	43.9453	67.6101	43.9453	69.4257	43.9453	67.6001	43.9453	69.2323	43.9453	67.6266	43.9453	69.0169	43.9453	67.6923	43.9453	68.7882	43.9453	67.7985	43.9453	68.556	43.9453	67.9437	43.9453	68.331	43.9453	68.1237
45.4102	70.9662	45.4102	70.8096	45.4102	71.1167	45.4102	70.6507	45.4102	71.257	45.4102	70.4929	45.4102	71.3828	45.4102	70.3399	45.4102	71.4897	45.4102	70.1949	45.4102	71.573	45.4102	70.0612	45.4102	71.6285	45.4102	69.9418	45.4102	71.6523	45.4102	69.8395	45.4102	71.6418	45.4102	69.7567	45.4102	71.5958	45.4102	69.6956	45.4102	71.5148	45.4102	69.6583	45.4102	71.4012	45.4102	69.6467	45.4102	71.259	45.4102	69.6624	45.4102	71.0937	45.4102	69.7068	45.4102	70.9119	45.4102	69.7806	45.4102	70.721	45.4102	69.8835	45.4102	70.5284	45.4102	70.0138	45.4102	70.3418	45.4102	70.1682
46.875	72.9258	46.875	72.763	46.875	73.0829	46.875	72.5993	46.875	73.2293	46.875	72.4395	46.875	73.36	46.875	72.2879	46.875	73.47	46.875	72.1484	46.875	73.5549	46.875	72.0243	46.875	73.6106	46.875	71.9182	46.875	73.6338	46.875	71.832	46.875	73.6227	46.875	71.7671	46.875	73.5766	46.875	71.7244	46.875	73.4968	46.875	71.7048	46.875	73.3863	46.875	71.7087	46.875	73.2495	46.875	71.7366	46.875	73.0922	46.875	71.789	46.875	72.9209	46.875	71.8657	46.875	72.7427	46.875	71.9663	46.875	72.5644	46.875	72.0894	46.875	72.3925	46.875	72.2326
48.3398	74.8015	48.3398	74.6476	48.3398	74.9511	48.3398	74.4942	48.3398	75.0913	48.3398	74.346	48.3398	75.2172	48.3398	74.2075	48.3398	75.324	48.3398	74.0822	48.3398	75.4072	48.3398	73.9735	48.3398	75.4629	48.3398	73.8834	48.3398	75.4881	48.3398	73.8134	48.3398	75.4812	48.3398	73.7643	48.3398	75.4419	48.3398	73.7363	48.3398	75.3716	48.3398	73.7294	48.3398	75.2733	48.3398	73.7436	48.3398	75.1514	48.3398	73.7786	48.3398	75.0114	48.3398	73.8343	48.3398	74.8594	48.3398	73.9101	48.3398	74.7014	48.3398	74.0053	48.3398	74.5434	48.3398	74.1186	48.3398	74.3908	48.3398	74.248
51.2695	77.8124	51.2695	77.6689	51.2695	77.9525	51.2695	77.5268	51.2695	78.0839	51.2695	77.3911	51.2695	78.2016	51.2695	77.2661	51.2695	78.3007	51.2695	77.1557	51.2695	78.3768	51.2695	77.0629	51.2695	78.4264	51.2695	76.9898	51.2695	78.447	51.2695	76.9376	51.2695	78.4373	51.2695	76.9066	51.2695	78.3979	51.2695	76.8963	51.2695	78.3309	51.2695	76.9054	51.2695	78.24	51.2695	76.9323	51.2695	78.1302	51.2695	76.9752	51.2695	78.0072	51.2695	77.0322	51.2695	77.8769	51.2695	77.1019	51.2695	77.7447	51.2695	77.1833	51.2695	77.6155	51.2695	77.2758	51.2695	77.4929	51.2695	77.3792
52.7344	78.972	52.7344	78.8295	52.7344	79.112	52.7344	78.6901	52.7344	79.2437	52.7344	78.5595	52.7344	79.3617	52.7344	78.4424	52.7344	79.4608	52.7344	78.343	52.7344	79.5365	52.7344	78.2645	52.7344	79.5855	52.7344	78.2088	52.7344	79.6058	52.7344	78.1765	52.7344	79.597	52.7344	78.1672	52.7344	79.5604	52.7344	78.1792	52.7344	79.4991	52.7344	78.2102	52.7344	79.4175	52.7344	78.2571	52.7344	79.3214	52.7344	78.3167	52.7344	79.2166	52.7344	78.3855	52.7344	79.1087	52.7344	78.4608	52.7344	79.0021	52.7344	78.5406	52.7344	78.8997	52.7344	78.624	52.7344	78.8027	52.7344	78.7111
54.1992	80.0417	54.1992	79.9008	54.1992	80.1769	54.1992	79.7596	54.1992	80.3012	54.1992	79.6235	54.1992	80.4092	54.1992	79.4973	54.1992	80.4964	54.1992	79.3853	54.1992	80.5587	54.1992	79.2909	54.1992	80.5931	54.1992	79.2167	54.1992	80.598	54.1992	79.1641	54.1992	80.5732	54.1992	79.1334	54.1992	80.5204	54.1992	79.124	54.1992	80.4429	54.1992	79.1344	54.1992	80.3455	54.1992	79.1626	54.1992	80.2342	54.1992	79.2057	54.1992	80.1152	54.1992	79.2613	54.1992	79.9944	54.1992	79.3266	54.1992	79.8768	54.1992	79.3999	54.1992	79.7656	54.1992	79.4803	54.1992	79.6625	54.1992	79.5676
55.6641	81.1233	55.6641	80.9982	55.6641	81.2389	55.6641	80.8675	55.6641	81.341	55.6641	80.735	55.6641	81.4258	55.6641	80.6044	55.6641	81.4895	55.6641	80.479	55.6641	81.5285	55.6641	80.3619	55.6641	81.5402	55.6641	80.2561	55.6641	81.5226	55.6641	80.1636	55.6641	81.4753	55.6641	80.0864	55.6641	81.3993	55.6641	80.026	55.6641	81.2972	55.6641	79.9833	55.6641	81.1734	55.6641	79.959	55.6641	81.0337	55.6641	79.9536	55.6641	80.8844	55.6641	79.9672	55.6641	80.7325	55.6641	79.9999	55.6641	80.5845	55.6641	80.0518	55.6641	80.4459	55.6641	80.1228	55.6641	80.321	55.6641	80.2128
58.5938	82.143	58.5938	82.019	58.5938	82.2611	58.5938	81.8935	58.5938	82.3685	58.5938	81.7705	58.5938	82.4608	58.5938	81.6535	58.5938	82.5335	58.5938	81.5452	58.5938	82.5832	58.5938	81.448	58.5938	82.6072	58.5938	81.3636	58.5938	82.604	58.5938	81.2932	58.5938	82.5733	58.5938	81.2377	58.5938	82.5165	58.5938	81.1976	58.5938	82.4359	58.5938	81.1733	58.5938	82.3354	58.5938	81.165	58.5938	82.2194	58.5938	81.1732	58.5938	82.0929	58.5938	81.1984	58.5938	81.9611	58.5938	81.2411	58.5938	81.8289	58.5938	81.3013	58.5938	81.7009	58.5938	81.379	58.5938	81.581	58.5938	81.4728
60.0586	82.4419	60.0586	82.3197	60.0586	82.5595	60.0586	82.1981	60.0586	82.6672	60.0586	82.0817	60.0586	82.7597	60.0586	81.9743	60.0586	82.8324	60.0586	81.8788	60.0586	82.8817	60.0586	81.7972	60.0586	82.9051	60.0586	81.7306	60.0586	82.9014	60.0586	81.6798	60.0586	82.8711	60.0586	81.6447	60.0586	82.816	60.0586	81.6251	60.0586	82.7395	60.0586	81.6203	60.0586	82.6459	60.0586	81.6294	60.0586	82.5406	60.0586	81.6513	60.0586	82.4289	60.0586	81.685	60.0586	82.3162	60.0586	81.7295	60.0586	82.2066	60.0586	81.7844	60.0586	82.1036	60.0586	81.8493	60.0586	82.0091	60.0586	81.9242
62.9883	83.0883	62.9883	82.9883	62.9883	83.1786	62.9883	82.8815	62.9883	83.2563	62.9883	82.7708	62.9883	83.3185	62.9883	82.659	62.9883	83.3623	62.9883	82.5489	62.9883	83.3852	62.9883	82.443	62.9883	83.3853	62.9883	82.3441	62.9883	83.3614	62.9883	82.2546	62.9883	83.3133	62.9883	82.1768	62.9883	83.2421	62.9883	82.1129	62.9883	83.1501	62.9883	82.0643	62.9883	83.0412	62.9883	82.0326	62.9883	82.9199	62.9883	82.0184	62.9883	82.7916	62.9883	82.0224	62.9883	82.6617	62.9883	82.0448	62.9883	82.5355	62.9883	82.0853	62.9883	82.4174	62.9883	82.1436	62.9883	82.3111	62.9883	82.2193
64.4531	83.1715	64.4531	83.0684	64.4531	83.2673	64.4531	82.9606	64.4531	83.353	64.4531	82.8508	64.4531	83.4256	64.4531	82.7415	64.4531	83.4821	64.4531	82.6353	64.4531	83.5196	64.4531	82.5347	64.4531	83.5357	64.4531	82.4423	64.4531	83.5287	64.4531	82.3605	64.4531	83.4979	64.4531	82.2917	64.4531	83.4438	64.4531	82.2377	64.4531	83.3684	64.4531	82.2002	64.4531	83.2743	64.4531	82.1804	64.4531	83.1655	64.4531	82.1792	64.4531	83.0462	64.4531	82.1971	64.4531	82.9212	64.4531	82.2341	64.4531	82.7951	64.4531	82.2898	64.4531	82.6724	64.4531	82.3634	64.4531	82.5573	64.4531	82.4533
67.3828	83.3639	67.3828	83.2581	67.3828	83.465	67.3828	83.1512	67.3828	83.5579	67.3828	83.0463	67.3828	83.6388	67.3828	82.9462	67.3828	83.704	67.3828	82.8536	67.3828	83.7504	67.3828	82.7706	67.3828	83.7755	67.3828	82.6994	67.3828	83.7779	67.3828	82.6417	67.3828	83.7572	67.3828	82.5987	67.3828	83.7147	67.3828	82.5712	67.3828	83.6526	67.3828	82.5597	67.3828	83.5742	67.3828	82.5641	67.3828	83.4834	67.3828	82.5841	67.3828	83.3842	67.3828	82.6188	67.3828	83.2806	67.3828	82.6673	67.3828	83.176	67.3828	82.7286	67.3828	83.0734	67.3828	82.8013	67.3828	82.9754	67.3828	82.8841
68.8477	83.5254	68.8477	83.4184	68.8477	83.6278	68.8477	83.3107	68.8477	83.722	68.8477	83.2055	68.8477	83.8041	68.8477	83.106	68.8477	83.8705	68.8477	83.0149	68.8477	83.9183	68.8477	82.9345	68.8477	83.9451	68.8477	82.867	68.8477	83.9498	68.8477	82.8139	68.8477	83.9324	68.8477	82.7766	68.8477	83.8942	68.8477	82.7556	68.8477	83.8376	68.8477	82.7511	68.8477	83.7658	68.8477	82.763	68.8477	83.6825	68.8477	82.7904	68.8477	83.5913	68.8477	82.8324	68.8477	83.4955	68.8477	82.8875	68.8477	83.3978	68.8477	82.9542	68.8477	83.3005	68.8477	83.0307	68.8477	83.2057	68.8477	83.1152
71.7773	83.8797	71.7773	83.7697	71.7773	83.9825	71.7773	83.6565	71.7773	84.0745	71.7773	83.5435	71.7773	84.1521	71.7773	83.4344	71.7773	84.2122	71.7773	83.3321	71.7773	84.2524	71.7773	83.2394	71.7773	84.271	71.7773	83.1589	71.7773	84.2675	71.7773	83.0925	71.7773	84.2422	71.7773	83.042	71.7773	84.1968	71.7773	83.0087	71.7773	84.1337	71.7773	82.9934	71.7773	84.0558	71.7773	82.9964	71.7773	83.9664	71.7773	83.0175	71.7773	83.8689	71.7773	83.0561	71.7773	83.7661	71.7773	83.1108	71.7773	83.6607	71.7773	83.1801	71.7773	83.5551	71.7773	83.2616	71.7773	83.4518	71.7773	83.3531
74.707	84.0572	74.707	83.9559	74.707	84.151	74.707	83.8509	74.707	84.2339	74.707	83.7458	74.707	84.3023	74.707	83.6441	74.707	84.3537	74.707	83.5491	74.707	84.3857	74.707	83.4634	74.707	84.3972	74.707	83.3895	74.707	84.3879	74.707	83.3292	74.707	84.3587	74.707	83.2839	74.707	84.3114	74.707	83.2546	74.707	84.2488	74.707	83.2414	74.707	84.1742	74.707	83.2444	74.707	84.0908	74.707	83.263	74.707	84.0017	74.707	83.2965	74.707	83.9097	74.707	83.3437	74.707	83.8168	74.707	83.4031	74.707	83.7249	74.707	83.4729	74.707	83.6358	74.707	83.5511
77.6367	84.1166	77.6367	84.0127	77.6367	84.2139	77.6367	83.9061	77.6367	84.301	77.6367	83.8006	77.6367	84.3744	77.6367	83.7	77.6367	84.4314	77.6367	83.6076	77.6367	84.4699	77.6367	83.5267	77.6367	84.4888	77.6367	83.4596	77.6367	84.4881	77.6367	83.4083	77.6367	84.4688	77.6367	83.374	77.6367	84.4327	77.6367	83.3572	77.6367	84.3827	77.6367	83.3579	77.6367	84.3214	77.6367	83.3754	77.6367	84.2515	77.6367	83.4086	77.6367	84.1753	77.6367	83.4562	77.6367	84.0943	77.6367	83.5163	77.6367	84.01	77.6367	83.5868	77.6367	83.9234	77.6367	83.6652	77.6367	83.8358	77.6367	83.7491
79.1016	84.182	79.1016	84.0743	79.1016	84.2822	79.1016	83.9632	79.1016	84.3711	79.1016	83.8527	79.1016	84.4454	79.1016	83.7469	79.1016	84.5021	79.1016	83.6495	79.1016	84.5393	79.1016	83.5641	79.1016	84.556	79.1016	83.4935	79.1016	84.5521	79.1016	83.44	79.1016	84.529	79.1016	83.405	79.1016	84.4888	79.1016	83.389	79.1016	84.4346	79.1016	83.3917	79.1016	84.3693	79.1016	83.4122	79.1016	84.296	79.1016	83.4487	79.1016	84.2172	79.1016	83.4992	79.1016	84.1348	79.1016	83.5612	79.1016	84.0501	79.1016	83.6325	79.1016	83.9642	79.1016	83.7105	79.1016	83.8781	79.1016	83.793
82.0312	84.4008	82.0312	84.3004	82.0312	84.4907	82.0312	84.1937	82.0312	84.5664	82.0312	84.085	82.0312	84.6248	82.0312	83.9788	82.0312	84.6637	82.0312	83.8793	82.0312	84.6817	82.0312	83.7902	82.0312	84.6783	82.0312	83.7147	82.0312	84.6545	82.0312	83.6548	82.0312	84.6122	82.0312	83.6119	82.0312	84.5544	82.0312	83.5864	82.0312	84.4847	82.0312	83.5778	82.0312	84.4072	82.0312	83.5851	82.0312	84.3256	82.0312	83.6068	82.0312	84.243	82.0312	83.641	82.0312	84.1614	82.0312	83.6857	82.0312	84.0822	82.0312	83.7389	82.0312	84.0061	82.0312	83.7988	82.0312	83.9332	82.0312	83.8639
84.9609	84.1795	84.9609	84.0707	84.9609	84.2821	84.9609	83.9602	84.9609	84.3744	84.9609	83.8525	84.9609	84.4527	84.9609	83.7519	84.9609	84.5139	84.9609	83.6626	84.9609	84.556	84.9609	83.5882	84.9609	84.5778	84.9609	83.5314	84.9609	84.5798	84.9609	83.4938	84.9609	84.5635	84.9609	83.4759	84.9609	84.5314	84.9609	83.4769	84.9609	84.4864	84.9609	83.4953	84.9609	84.4315	84.9609	83.5286	84.9609	84.3693	84.9609	83.5743	84.9609	84.3016	84.9609	83.6301	84.9609	84.2295	84.9609	83.6939	84.9609	84.154	84.9609	83.7639	84.9609	84.0758	84.9609	83.8387	84.9609	83.9963	84.9609	83.9167
87.8906	84.3058	87.8906	84.1831	87.8906	84.4164	87.8906	84.0541	87.8906	84.5095	87.8906	83.9249	87.8906	84.5809	87.8906	83.8015	87.8906	84.6277	87.8906	83.6898	87.8906	84.6484	87.8906	83.5946	87.8906	84.6434	87.8906	83.5203	87.8906	84.6149	87.8906	83.4696	87.8906	84.5665	87.8906	83.4437	87.8906	84.5032	87.8906	83.4422	87.8906	84.4304	87.8906	83.4631	87.8906	84.3536	87.8906	83.5029	87.8906	84.2775	87.8906	83.5573	87.8906	84.2051	87.8906	83.6215	87.8906	84.138	87.8906	83.6908	87.8906	84.0755	87.8906	83.7613	87.8906	84.0158	87.8906	83.8298	87.8906	83.9563	87.8906	83.8948
90.8203	84.3428	90.8203	84.2261	90.8203	84.4456	90.8203	84.1002	90.8203	84.5302	90.8203	83.9707	90.8203	84.5935	90.8203	83.8433	90.8203	84.6333	90.8203	83.7238	90.8203	84.649	90.8203	83.6177	90.8203	84.6409	90.8203	83.5299	90.8203	84.611	90.8203	83.464	90.8203	84.5622	90.8203	83.4224	90.8203	84.4988	90.8203	83.4055	90.8203	84.4252	90.8203	83.4122	90.8203	84.3462	90.8203	83.4398	90.8203	84.2657	90.8203	83.4846	90.8203	84.1863	90.8203	83.542	90.8203	84.1097	90.8203	83.6078	90.8203	84.0358	90.8203	83.6781	90.8203	83.964	90.8203	83.75	90.8203	83.8931	90.8203	83.8219
95.2148	84.4498	95.2148	84.3156	95.2148	84.5662	95.2148	84.1698	95.2148	84.6594	95.2148	84.0191	95.2148	84.7248	95.2148	83.8699	95.2148	84.7596	95.2148	83.7283	95.2148	84.7625	95.2148	83.6002	95.2148	84.7341	95.2148	83.4902	95.2148	84.6772	95.2148	83.4023	95.2148	84.5962	95.2148	83.3392	95.2148	84.4972	95.2148	83.3023	95.2148	84.3874	95.2148	83.2912	95.2148	84.2738	95.2148	83.3041	95.2148	84.163	95.2148	83.3378	95.2148	84.0595	95.2148	83.3877	95.2148	83.9656	95.2148	83.4491	95.2148	83.8811	95.2148	83.5172	95.2148	83.8039	95.2148	83.588	95.2148	83.7309	95.2148	83.6594
98.1445	84.8387	98.1445	84.7172	98.1445	84.939	98.1445	84.5795	98.1445	85.0141	98.1445	84.4312	98.1445	85.0607	98.1445	84.2777	98.1445	85.0769	98.1445	84.1245	98.1445	85.0621	98.1445	83.977	98.1445	85.0168	98.1445	83.8398	98.1445	84.9429	98.1445	83.7173	98.1445	84.8435	98.1445	83.613	98.1445	84.7227	98.1445	83.5298	98.1445	84.5859	98.1445	83.4691	98.1445	84.4391	98.1445	83.4313	98.1445	84.2888	98.1445	83.4155	98.1445	84.1415	98.1445	83.4196	98.1445	84.0028	98.1445	83.4413	98.1445	83.8771	98.1445	83.4784	98.1445	83.7668	98.1445	83.5293	98.1445	83.6726	98.1445	83.5938
101.074	84.8196	101.074	84.7091	101.074	84.9124	101.074	84.5854	101.074	84.984	101.074	84.4535	101.074	85.0319	101.074	84.319	101.074	85.055	101.074	84.1874	101.074	85.0531	101.074	84.064	101.074	85.0273	101.074	83.9532	101.074	84.9797	101.074	83.8589	101.074	84.9131	101.074	83.7837	101.074	84.8313	101.074	83.7294	101.074	84.7381	101.074	83.6967	101.074	84.6376	101.074	83.6851	101.074	84.5334	101.074	83.6936	101.074	84.4286	101.074	83.7201	101.074	84.3257	101.074	83.7624	101.074	84.2265	101.074	83.8181	101.074	84.1319	101.074	83.8846	101.074	84.0428	101.074	83.9601
105.469	84.2396	105.469	84.1132	105.469	84.3466	105.469	83.9735	105.469	84.4291	105.469	83.828	105.469	84.4838	105.469	83.6846	105.469	84.509	105.469	83.5511	105.469	84.5047	105.469	83.4347	105.469	84.4726	105.469	83.341	105.469	84.4159	105.469	83.2733	105.469	84.3391	105.469	83.2327	105.469	84.2479	105.469	83.2182	105.469	84.1484	105.469	83.2268	105.469	84.047	105.469	83.2541	105.469	83.9492	105.469	83.295	105.469	83.8594	105.469	83.3444	105.469	83.7801	105.469	83.3976	105.469	83.712	105.469	83.4509	105.469	83.6534	105.469	83.5024	105.469	83.6012	105.469	83.552
108.398	84.4538	108.398	84.3204	108.398	84.5637	108.398	84.1685	108.398	84.6463	108.398	84.0046	108.398	84.6993	108.398	83.8356	108.398	84.7215	108.398	83.6694	108.398	84.7133	108.398	83.5135	108.398	84.6762	108.398	83.3754	108.398	84.6128	108.398	83.2608	108.398	84.5264	108.398	83.1738	108.398	84.4211	108.398	83.1163	108.398	84.3012	108.398	83.0876	108.398	84.1716	108.398	83.0848	108.398	84.0372	108.398	83.1035	108.398	83.9032	108.398	83.1385	108.398	83.7746	108.398	83.1852	108.398	83.6556	108.398	83.2405	108.398	83.5488	108.398	83.3032	108.398	83.4553	108.398	83.3741
112.793	84.4866	112.793	84.3838	112.793	84.5778	112.793	84.274	112.793	84.654	112.793	84.1622	112.793	84.7127	112.793	84.054	112.793	84.753	112.793	83.9552	112.793	84.7754	112.793	83.8709	112.793	84.7814	112.793	83.8054	112.793	84.7739	112.793	83.7614	112.793	84.756	112.793	83.7402	112.793	84.7305	112.793	83.7407	112.793	84.6993	112.793	83.7607	112.793	84.6629	112.793	83.7969	112.793	84.6204	112.793	83.8458	112.793	84.5701	112.793	83.9045	112.793	84.5109	112.793	83.9708	112.793	84.4425	112.793	84.0434	112.793	84.3663	112.793	84.121	112.793	84.2851	112.793	84.2023
117.188	84.5792	117.188	84.4535	117.188	84.6792	117.188	84.3074	117.188	84.7495	117.188	84.1476	117.188	84.7879	117.188	83.9825	117.188	84.794	117.188	83.8214	117.188	84.769	117.188	83.674	117.188	84.7163	117.188	83.5496	117.188	84.6416	117.188	83.4563	117.188	84.5524	117.188	83.3995	117.188	84.4579	117.188	83.3813	117.188	84.3673	117.188	83.4002	117.188	84.2883	117.188	83.4511	117.188	84.2253	117.188	83.5267	117.188	84.1781	117.188	83.6178	117.188	84.1426	117.188	83.7155	117.188	84.1116	117.188	83.8115	117.188	84.077	117.188	83.899	117.188	84.0323	117.188	83.9733
120.117	84.6348	120.117	84.5113	120.117	84.7334	120.117	84.3675	120.117	84.8028	120.117	84.2091	120.117	84.8403	120.117	84.0425	120.117	84.8438	120.117	83.8749	120.117	84.8132	120.117	83.7141	120.117	84.7503	120.117	83.5685	120.117	84.6591	120.117	83.4462	120.117	84.5462	120.117	83.3541	120.117	84.42	120.117	83.297	120.117	84.2904	120.117	83.2764	120.117	84.1673	120.117	83.2902	120.117	84.0586	120.117	83.3328	120.117	83.9686	120.117	83.396	120.117	83.8972	120.117	83.4707	120.117	83.8403	120.117	83.548	120.117	83.7908	120.117	83.6211	120.117	83.7413	120.117	83.6857
124.512	84.6931	124.512	84.5704	124.512	84.7934	124.512	84.4304	124.512	84.8663	124.512	84.2785	124.512	84.9079	124.512	84.1201	124.512	84.9156	124.512	83.9606	124.512	84.8885	124.512	83.8056	124.512	84.828	124.512	83.6611	124.512	84.7381	124.512	83.5332	124.512	84.6245	124.512	83.4278	124.512	84.4954	124.512	83.3502	124.512	84.3595	124.512	83.3038	124.512	84.2259	124.512	83.2896	124.512	84.1023	124.512	83.3055	124.512	83.9936	124.512	83.3465	124.512	83.9012	124.512	83.4057	124.512	83.8226	124.512	83.4751	124.512	83.753	124.512	83.5477	124.512	83.6866	124.512	83.6188
128.906	84.8534	128.906	84.7368	128.906	84.9435	128.906	84.5995	128.906	85.0025	128.906	84.4475	128.906	85.0271	128.906	84.2867	128.906	85.016	128.906	84.1225	128.906	84.9695	128.906	83.9599	128.906	84.8901	128.906	83.8042	128.906	84.7817	128.906	83.6607	128.906	84.6496	128.906	83.5349	128.906	84.5009	128.906	83.4323	128.906	84.3434	128.906	83.3576	128.906	84.1862	128.906	83.3133	128.906	84.038	128.906	83.2992	128.906	83.9059	128.906	83.312	128.906	83.7941	128.906	83.3457	128.906	83.7026	128.906	83.393	128.906	83.6277	128.906	83.4473	128.906	83.5634	128.906	83.5043
133.301	84.7159	133.301	84.6133	133.301	84.795	133.301	84.4911	133.301	84.8484	133.301	84.354	133.301	84.8748	133.301	84.2071	133.301	84.8745	133.301	84.0556	133.301	84.8484	133.301	83.9046	133.301	84.7983	133.301	83.7586	133.301	84.7264	133.301	83.6223	133.301	84.6351	133.301	83.5001	133.301	84.5272	133.301	83.3966	133.301	84.4058	133.301	83.3159	133.301	84.2748	133.301	83.2617	133.301	84.1388	133.301	83.2357	133.301	84.003	133.301	83.2376	133.301	83.8723	133.301	83.2647	133.301	83.7508	133.301	83.3128	133.301	83.6404	133.301	83.377	133.301	83.5417	133.301	83.4539
139.16	84.3706	139.16	84.2507	139.16	84.4689	139.16	84.1148	139.16	84.542	139.16	83.9699	139.16	84.5882	139.16	83.8247	139.16	84.6074	139.16	83.6881	139.16	84.6015	139.16	83.5685	139.16	84.5743	139.16	83.4728	139.16	84.5307	139.16	83.4054	139.16	84.4764	139.16	83.3674	139.16	84.4171	139.16	83.3573	139.16	84.3569	139.16	83.3715	139.16	84.2982	139.16	83.4056	139.16	84.2408	139.16	83.4551	139.16	84.1827	139.16	83.5161	139.16	84.1215	139.16	83.5858	139.16	84.0549	139.16	83.6618	139.16	83.9824	139.16	83.7418	139.16	83.9046	139.16	83.8236
143.555	84.3422	143.555	84.192	143.555	84.4671	143.555	84.0239	143.555	84.5608	143.555	83.847	143.555	84.6196	143.555	83.6716	143.555	84.642	143.555	83.5087	143.555	84.629	143.555	83.3693	143.555	84.5845	143.555	83.2633	143.555	84.5151	143.555	83.1981	143.555	84.4302	143.555	83.1775	143.555	84.3406	143.555	83.2004	143.555	84.2571	143.555	83.2614	143.555	84.1882	143.555	83.3514	143.555	84.1382	143.555	83.4596	143.555	84.1059	143.555	83.5752	143.555	84.0853	143.555	83.6889	143.555	84.068	143.555	83.7933	143.555	84.0449	143.555	83.8832	143.555	84.0088	143.555	83.9554
147.949	84.7636	147.949	84.6303	147.949	84.8661	147.949	84.4709	147.949	84.9337	147.949	84.2906	147.949	84.9632	147.949	84.0953	147.949	84.9526	147.949	83.8916	147.949	84.9019	147.949	83.6873	147.949	84.8128	147.949	83.4921	147.949	84.6897	147.949	83.3168	147.949	84.5396	147.949	83.173	147.949	84.3721	147.949	83.0704	147.949	84.1989	147.949	83.0154	147.949	84.0326	147.949	83.0085	147.949	83.8844	147.949	83.0437	147.949	83.7623	147.949	83.1103	147.949	83.6684	147.949	83.1944	147.949	83.5986	147.949	83.2827	147.949	83.5436	147.949	83.3646	147.949	83.4921	147.949	83.4344
153.809	84.4895	153.809	84.3578	153.809	84.5893	153.809	84.1988	153.809	84.654	153.809	84.0183	153.809	84.6818	153.809	83.8228	153.809	84.6732	153.809	83.62	153.809	84.6304	153.809	83.4183	153.809	84.5577	153.809	83.2274	153.809	84.4606	153.809	83.0573	153.809	84.3455	153.809	82.9179	153.809	84.2188	153.809	82.8172	153.809	84.0862	153.809	82.7605	153.809	83.953	153.809	82.7482	153.809	83.8235	153.809	82.7763	153.809	83.701	153.809	82.8365	153.809	83.5875	153.809	82.9181	153.809	83.4832	153.809	83.0108	153.809	83.3863	153.809	83.1066	153.809	83.2934	153.809	83.201
159.668	84.5866	159.668	84.4653	159.668	84.6764	159.668	84.3167	159.668	84.732	159.668	84.1455	159.668	84.7518	159.668	83.957	159.668	84.7362	159.668	83.7572	159.668	84.6874	159.668	83.5527	159.668	84.6097	159.668	83.3515	159.668	84.5088	159.668	83.163	159.668	84.3921	159.668	82.9982	159.668	84.2672	159.668	82.8686	159.668	84.1414	159.668	82.7842	159.668	84.0204	159.668	82.7509	159.668	83.9076	159.668	82.7688	159.668	83.8032	159.668	82.8313	159.668	83.705	159.668	82.9272	159.668	83.6087	159.668	83.0432	159.668	83.5095	159.668	83.1668	159.668	83.4034	159.668	83.2886
165.527	84.7453	165.527	84.6273	165.527	84.8324	165.527	84.4838	165.527	84.8847	165.527	84.3208	165.527	84.9	165.527	84.1448	165.527	84.8781	165.527	83.9624	165.527	84.821	165.527	83.7797	165.527	84.7331	165.527	83.6025	165.527	84.6205	165.527	83.4365	165.527	84.4906	165.527	83.2878	165.527	84.3513	165.527	83.1629	165.527	84.2102	165.527	83.0682	165.527	84.0733	165.527	83.0094	165.527	83.9452	165.527	82.9894	165.527	83.8274	165.527	83.0076	165.527	83.7194	165.527	83.0586	165.527	83.6182	165.527	83.1344	165.527	83.5202	165.527	83.2254	165.527	83.4222	165.527	83.3232
171.387	84.4671	171.387	84.345	171.387	84.5554	171.387	84.1966	171.387	84.6058	171.387	84.0313	171.387	84.6175	171.387	83.8597	171.387	84.5926	171.387	83.6918	171.387	84.5355	171.387	83.5356	171.387	84.4524	171.387	83.3966	171.387	84.3501	171.387	83.2784	171.387	84.2359	171.387	83.183	171.387	84.1171	171.387	83.1118	171.387	84.0007	171.387	83.0668	171.387	83.8929	171.387	83.0495	171.387	83.7983	171.387	83.0605	171.387	83.7186	171.387	83.0985	171.387	83.6518	171.387	83.1588	171.387	83.5927	171.387	83.2342	171.387	83.534	171.387	83.3162	171.387	83.4697	171.387	83.3966
177.246	84.4358	177.246	84.302	177.246	84.534	177.246	84.1371	177.246	84.5947	177.246	83.9488	177.246	84.6184	177.246	83.748	177.246	84.6072	177.246	83.548	177.246	84.5643	177.246	83.3629	177.246	84.4944	177.246	83.2054	177.246	84.4025	177.246	83.0849	177.246	84.2942	177.246	83.0063	177.246	84.175	177.246	82.9695	177.246	84.0501	177.246	82.9708	177.246	83.9249	177.246	83.0035	177.246	83.8051	177.246	83.0593	177.246	83.6969	177.246	83.129	177.246	83.6055	177.246	83.2033	177.246	83.5331	177.246	83.2741	177.246	83.4775	177.246	83.3358	177.246	83.4318	177.246	83.3871
183.105	84.3316	183.105	84.2078	183.105	84.4221	183.105	84.0552	183.105	84.4762	183.105	83.8801	183.105	84.4927	183.105	83.6901	183.105	84.4727	183.105	83.4942	183.105	84.4201	183.105	83.3029	183.105	84.3407	183.105	83.1278	183.105	84.2426	183.105	82.9803	183.105	84.134	183.105	82.8704	183.105	84.0226	183.105	82.8042	183.105	83.9144	183.105	82.7834	183.105	83.8127	183.105	82.8038	183.105	83.7189	183.105	82.8569	183.105	83.633	183.105	82.932	183.105	83.5541	183.105	83.018	183.105	83.4806	183.105	83.106	183.105	83.4106	183.105	83.1902	183.105	83.3409	183.105	83.2683
188.965	84.1787	188.965	84.0484	188.965	84.2669	188.965	83.8819	188.965	84.3103	188.965	83.6876	188.965	84.3101	188.965	83.4762	188.965	84.2717	188.965	83.2597	188.965	84.2039	188.965	83.051	188.965	84.1179	188.965	82.8631	188.965	84.0256	188.965	82.7072	188.965	83.9368	188.965	82.592	188.965	83.8576	188.965	82.5222	188.965	83.7885	188.965	82.4986	188.965	83.7253	188.965	82.5181	188.965	83.6617	188.965	82.5747	188.965	83.5914	188.965	82.66	188.965	83.5113	188.965	82.7646	188.965	83.4215	188.965	82.8792	188.965	83.3237	188.965	82.996	188.965	83.2197	188.965	83.1103
196.289	84.4604	196.289	84.3113	196.289	84.57	196.289	84.1297	196.289	84.6336	196.289	83.9239	196.289	84.646	196.289	83.7037	196.289	84.6038	196.289	83.4806	196.289	84.507	196.289	83.2676	196.289	84.3608	196.289	83.0786	196.289	84.1764	196.289	82.9266	196.289	83.9724	196.289	82.8222	196.289	83.7725	196.289	82.7711	196.289	83.6022	196.289	82.7725	196.289	83.4822	196.289	82.8193	196.289	83.4211	196.289	82.9003	196.289	83.4115	196.289	83.0024	196.289	83.4327	196.289	83.1135	196.289	83.4592	196.289	83.2229	196.289	83.4692	196.289	83.3211	196.289	83.4502	196.289	83.3994
203.613	84.4252	203.613	84.3146	203.613	84.4931	203.613	84.1645	203.613	84.5181	203.613	83.9809	203.613	84.5033	203.613	83.7712	203.613	84.4545	203.613	83.544	203.613	84.3787	203.613	83.3096	203.613	84.2826	203.613	83.0797	203.613	84.1716	203.613	82.8682	203.613	84.0494	203.613	82.6901	203.613	83.9183	203.613	82.5598	203.613	83.7814	203.613	82.4875	203.613	83.6432	203.613	82.4761	203.613	83.511	203.613	82.5201	203.613	83.3934	203.613	82.6062	203.613	83.2969	203.613	82.7167	203.613	83.2217	203.613	82.8331	203.613	83.1606	203.613	82.9404	203.613	83.1008	203.613	83.0298
210.938	84.4171	210.938	84.2933	210.938	84.4971	210.938	84.1314	210.938	84.5296	210.938	83.9385	210.938	84.5132	210.938	83.7223	210.938	84.4497	210.938	83.4905	210.938	84.3441	210.938	83.2512	210.938	84.2053	210.938	83.0126	210.938	84.045	210.938	82.7853	210.938	83.8769	210.938	82.582	210.938	83.7133	210.938	82.4178	210.938	83.5633	210.938	82.3074	210.938	83.4305	210.938	82.2602	210.938	83.3147	210.938	82.2765	210.938	83.2128	210.938	82.3456	210.938	83.1217	210.938	82.449	210.938	83.038	210.938	82.5663	210.938	82.9576	210.938	82.681	210.938	82.8752	210.938	82.7844
218.262	84.2887	218.262	84.1452	218.262	84.388	218.262	83.9688	218.262	84.4349	218.262	83.7722	218.262	84.425	218.262	83.5687	218.262	84.3583	218.262	83.37	218.262	84.2395	218.262	83.1849	218.262	84.0787	218.262	83.0191	218.262	83.8908	218.262	82.8753	218.262	83.6947	218.262	82.7551	218.262	83.5102	218.262	82.6605	218.262	83.3547	218.262	82.5954	218.262	83.2389	218.262	82.5645	218.262	83.1648	218.262	82.571	218.262	83.1252	218.262	82.6143	218.262	83.1061	218.262	82.6874	218.262	83.0915	218.262	82.7783	218.262	83.0671	218.262	82.8728	218.262	83.0235	218.262	82.9576
225.586	84.2756	225.586	84.1164	225.586	84.3857	225.586	83.9187	225.586	84.44	225.586	83.6958	225.586	84.4353	225.586	83.463	225.586	84.3729	225.586	83.2363	225.586	84.2585	225.586	83.0298	225.586	84.1025	225.586	82.8546	225.586	83.9195	225.586	82.7174	225.586	83.7266	225.586	82.6215	225.586	83.5414	225.586	82.5671	225.586	83.3796	225.586	82.5535	225.586	83.2531	225.586	82.5784	225.586	83.1681	225.586	82.6376	225.586	83.1237	225.586	82.7234	225.586	83.1118	225.586	82.8244	225.586	83.1177	225.586	82.9265	225.586	83.1241	225.586	83.0152	225.586	83.115	225.586	83.0797
232.91	84.2838	232.91	84.1255	232.91	84.3834	232.91	83.9175	232.91	84.4189	232.91	83.6727	232.91	84.3889	232.91	83.4069	232.91	84.296	232.91	83.1381	232.91	84.1476	232.91	82.8842	232.91	83.9558	232.91	82.6609	232.91	83.7375	232.91	82.4803	232.91	83.5125	232.91	82.3497	232.91	83.3014	232.91	82.2723	232.91	83.1223	232.91	82.248	232.91	82.9883	232.91	82.2735	232.91	82.9048	232.91	82.3419	232.91	82.8685	232.91	82.4422	232.91	82.8675	232.91	82.5595	232.91	82.8836	232.91	82.6767	232.91	82.8966	232.91	82.7778	232.91	82.8892	232.91	82.8505
241.699	84.2565	241.699	84.1011	241.699	84.3596	241.699	83.9028	241.699	84.4033	241.699	83.6723	241.699	84.3839	241.699	83.4208	241.699	84.3023	241.699	83.1593	241.699	84.1646	241.699	82.8997	241.699	83.9815	241.699	82.6551	241.699	83.7684	241.699	82.4398	241.699	83.5424	241.699	82.2685	241.699	83.32	241.699	82.1533	241.699	83.1141	241.699	82.101	241.699	82.9333	241.699	82.1096	241.699	82.7831	241.699	82.1681	241.699	82.6681	241.699	82.258	241.699	82.5918	241.699	82.3574	241.699	82.5533	241.699	82.4456	241.699	82.5437	241.699	82.5078	241.699	82.5457	241.699	82.5391
250.488	84.0607	250.488	83.8698	250.488	84.1983	250.488	83.6401	250.488	84.271	250.488	83.3886	250.488	84.2711	250.488	83.1329	250.488	84.1954	250.488	82.8884	250.488	84.0464	250.488	82.6653	250.488	83.8343	250.488	82.4679	250.488	83.5778	250.488	82.2964	250.488	83.3037	250.488	82.15	250.488	83.0436	250.488	82.0313	250.488	82.8275	250.488	81.9473	250.488	82.6749	250.488	81.9067	250.488	82.5877	250.488	81.9146	250.488	82.55	250.488	81.9674	250.488	82.5357	250.488	82.0531	250.488	82.52	250.488	82.1553	250.488	82.4868	250.488	82.259	250.488	82.4307	250.488	82.3532
259.277	84.5071	259.277	84.346	259.277	84.6133	259.277	84.1393	259.277	84.6591	259.277	83.8993	259.277	84.642	259.277	83.6415	259.277	84.5637	259.277	83.3832	259.277	84.4299	259.277	83.1411	259.277	84.25	259.277	82.9277	259.277	84.0353	259.277	82.7488	259.277	83.7974	259.277	82.6039	259.277	83.5484	259.277	82.4896	259.277	83.302	259.277	82.404	259.277	83.0764	259.277	82.3497	259.277	82.8925	259.277	82.3322	259.277	82.7678	259.277	82.355	259.277	82.7057	259.277	82.4142	259.277	82.6905	259.277	82.4961	259.277	82.6933	259.277	82.5807	259.277	82.6849	259.277	82.6478
268.066	84.2802	268.066	84.1046	268.066	84.3935	268.066	83.8752	268.066	84.4383	268.066	83.6018	268.066	84.4126	268.066	83.2964	268.066	84.3206	268.066	82.9747	268.066	84.1733	268.066	82.6568	268.066	83.9869	268.066	82.3664	268.066	83.7801	268.066	82.127	268.066	83.5699	268.066	81.9576	268.066	83.3682	268.066	81.8674	268.066	83.1813	268.066	81.8545	268.066	83.0119	268.066	81.9074	268.066	82.8633	268.066	82.0079	268.066	82.742	268.066	82.1348	268.066	82.6553	268.066	82.2669	268.066	82.6045	268.066	82.3854	268.066	82.5804	268.066	82.4764	268.066	82.5641	268.066	82.5344
276.855	84.2573	276.855	84.1015	276.855	84.3531	276.855	83.8952	276.855	84.3836	276.855	83.6497	276.855	84.3475	276.855	83.376	276.855	84.2488	276.855	83.0836	276.855	84.0959	276.855	82.7814	276.855	83.9024	276.855	82.4794	276.855	83.6856	276.855	82.1916	276.855	83.4634	276.855	81.9349	276.855	83.2497	276.855	81.7268	276.855	83.0514	276.855	81.5817	276.855	82.8695	276.855	81.5086	276.855	82.7042	276.855	81.5099	276.855	82.5594	276.855	81.58	276.855	82.4417	276.855	81.7027	276.855	82.3528	276.855	81.852	276.855	82.2832	276.855	81.9989	276.855	82.213	276.855	82.1216
287.109	84.3598	287.109	84.2312	287.109	84.4275	287.109	84.0549	287.109	84.4255	287.109	83.8453	287.109	84.3512	287.109	83.6161	287.109	84.2095	287.109	83.3773	287.109	84.0126	287.109	83.1338	287.109	83.7799	287.109	82.8867	287.109	83.5372	287.109	82.6373	287.109	83.315	287.109	82.3926	287.109	83.1415	287.109	82.1694	287.109	83.0313	287.109	81.9921	287.109	82.9753	287.109	81.8832	287.109	82.9432	287.109	81.8516	287.109	82.8985	287.109	81.8877	287.109	82.818	287.109	81.9691	287.109	82.7009	287.109	82.0726	287.109	82.5639	287.109	82.1841	287.109	82.4271	287.109	82.3008
297.363	84.5175	297.363	84.3404	297.363	84.6104	297.363	84.0894	297.363	84.6136	297.363	83.7816	297.363	84.5257	297.363	83.4416	297.363	84.3503	297.363	83.0994	297.363	84.0979	297.363	82.7838	297.363	83.7889	297.363	82.5142	297.363	83.4536	297.363	82.2962	297.363	83.1309	297.363	82.1249	297.363	82.8621	297.363	81.9948	297.363	82.6805	297.363	81.9075	297.363	82.5996	297.363	81.8735	297.363	82.6053	297.363	81.9027	297.363	82.6617	297.363	81.9946	297.363	82.7255	297.363	82.1339	297.363	82.762	297.363	82.2957	297.363	82.7528	297.363	82.4549	297.363	82.6945	297.363	82.5922
307.617	84.3736	307.617	84.1556	307.617	84.5216	307.617	83.8874	307.617	84.5866	307.617	83.5943	307.617	84.5632	307.617	83.3039	307.617	84.4511	307.617	83.0412	307.617	84.255	307.617	82.8224	307.617	83.9841	307.617	82.65	307.617	83.6533	307.617	82.5116	307.617	83.285	307.617	82.3852	307.617	82.9105	307.617	82.2511	307.617	82.5694	307.617	82.104	307.617	82.3035	307.617	81.9591	307.617	82.1449	307.617	81.8487	307.617	82.0982	307.617	81.8051	307.617	82.1337	307.617	81.8405	307.617	82.1994	307.617	81.9384	307.617	82.2446	307.617	82.0623	307.617	82.2379	307.617	82.1723
319.336	84.4249	319.336	84.2579	319.336	84.5085	319.336	84.0121	319.336	84.5075	319.336	83.6972	319.336	84.4222	319.336	83.3315	319.336	84.2568	319.336	82.9442	319.336	84.0208	319.336	82.5748	319.336	83.7326	319.336	82.2664	319.336	83.4192	319.336	82.0524	319.336	83.1135	319.336	81.9416	319.336	82.8474	319.336	81.9155	319.336	82.6419	319.336	81.9405	319.336	82.5025	319.336	81.9865	319.336	82.4208	319.336	82.0396	319.336	82.3843	319.336	82.1012	319.336	82.3823	319.336	82.177	319.336	82.4032	319.336	82.2651	319.336	82.4295	319.336	82.3506	319.336	82.4386	319.336	82.413
329.59	84.4408	329.59	84.2405	329.59	84.5669	329.59	83.9785	329.59	84.6064	329.59	83.6661	329.59	84.5493	329.59	83.3152	329.59	84.3914	329.59	82.9398	329.59	84.1369	329.59	82.559	329.59	83.8001	329.59	82.1982	329.59	83.4053	329.59	81.8867	329.59	82.9865	329.59	81.6516	329.59	82.5853	329.59	81.5094	329.59	82.2451	329.59	81.4603	329.59	82.0002	329.59	81.49	329.59	81.8633	329.59	81.5759	329.59	81.8221	329.59	81.6938	329.59	81.8473	329.59	81.8198	329.59	81.9067	329.59	81.9308	329.59	81.9728	329.59	82.0075	329.59	82.0228	329.59	82.0381
341.309	84.4872	341.309	84.2428	341.309	84.6332	341.309	83.9178	341.309	84.6719	341.309	83.5379	341.309	84.6036	341.309	83.1335	341.309	84.436	341.309	82.7376	341.309	84.1829	341.309	82.3823	341.309	83.8627	341.309	82.0942	341.309	83.4984	341.309	81.8874	341.309	83.1184	341.309	81.7585	341.309	82.7538	341.309	81.6876	341.309	82.4332	341.309	81.6498	341.309	82.1757	341.309	81.6296	341.309	81.9882	341.309	81.6271	341.309	81.8688	341.309	81.6513	341.309	81.8114	341.309	81.7053	341.309	81.8059	341.309	81.7764	341.309	81.8327	341.309	81.8391	341.309	81.8636	341.309	81.8705
353.027	84.5779	353.027	84.3501	353.027	84.7045	353.027	84.0354	353.027	84.7184	353.027	83.6512	353.027	84.6116	353.027	83.217	353.027	84.3813	353.027	82.7536	353.027	84.0333	353.027	82.2842	353.027	83.5853	353.027	81.8375	353.027	83.0704	353.027	81.4494	353.027	82.5411	353.027	81.1575	353.027	82.0708	353.027	80.9881	353.027	81.741	353.027	80.9457	353.027	81.6045	353.027	81.0137	353.027	81.6433	353.027	81.1629	353.027	81.7732	353.027	81.3575	353.027	81.8988	353.027	81.5574	353.027	81.9664	353.027	81.7264	353.027	81.9759	353.027	81.8437	353.027	81.9532	353.027	81.9129
366.211	84.726	366.211	84.5918	366.211	84.78	366.211	84.3747	366.211	84.7521	366.211	84.0719	366.211	84.637	366.211	83.6867	366.211	84.4302	366.211	83.235	366.211	84.1349	366.211	82.7499	366.211	83.7658	366.211	82.28	366.211	83.3486	366.211	81.8764	366.211	82.9148	366.211	81.5728	366.211	82.496	366.211	81.3683	366.211	82.1225	366.211	81.2299	366.211	81.8237	366.211	81.1176	366.211	81.6221	366.211	81.0142	366.211	81.5195	366.211	80.9362	366.211	81.4876	366.211	80.9168	366.211	81.4773	366.211	80.974	366.211	81.4432	366.211	81.0931	366.211	81.3615	366.211	81.2358
379.395	84.7271	379.395	84.5415	379.395	84.8305	379.395	84.2924	379.395	84.8366	379.395	83.9978	379.395	84.7388	379.395	83.6719	379.395	84.5404	379.395	83.3263	379.395	84.2526	379.395	82.9728	379.395	83.8892	379.395	82.6277	379.395	83.4631	379.395	82.3105	379.395	82.9895	379.395	82.0386	379.395	82.4973	379.395	81.821	379.395	82.0421	379.395	81.6564	379.395	81.7043	379.395	81.5395	379.395	81.552	379.395	81.4698	379.395	81.5877	379.395	81.4551	379.395	81.7362	379.395	81.5032	379.395	81.8945	379.395	81.6103	379.395	81.9861	379.395	81.753	379.395	81.9814	379.395	81.8917
392.578	84.6437	392.578	84.3958	392.578	84.7814	392.578	84.0577	392.578	84.7949	392.578	83.6554	392.578	84.6788	392.578	83.2222	392.578	84.4409	392.578	82.7959	392.578	84.1033	392.578	82.4113	392.578	83.6963	392.578	82.0935	392.578	83.2494	392.578	81.8522	392.578	82.7853	392.578	81.6812	392.578	82.3243	392.578	81.5625	392.578	81.8964	392.578	81.4775	392.578	81.5495	392.578	81.4199	392.578	81.3363	392.578	81.4012	392.578	81.279	392.578	81.4389	392.578	81.3496	392.578	81.534	392.578	81.489	392.578	81.6576	392.578	81.6389	392.578	81.7603	392.578	81.7531	392.578	81.7979
405.762	84.4232	405.762	84.2453	405.762	84.4939	405.762	83.9751	405.762	84.4496	405.762	83.63	405.762	84.2947	405.762	83.2282	405.762	84.0456	405.762	82.7914	405.762	83.7253	405.762	82.3475	405.762	83.3552	405.762	81.9314	405.762	82.9505	405.762	81.5788	405.762	82.5203	405.762	81.314	405.762	82.075	405.762	81.1362	405.762	81.6414	405.762	81.0224	405.762	81.2794	405.762	80.949	405.762	81.0677	405.762	80.9126	405.762	81.0427	405.762	80.9277	405.762	81.15	405.762	81.0018	405.762	81.2843	405.762	81.1169	405.762	81.3678	405.762	81.237	405.762	81.3794	405.762	81.3306
420.41	85.079	420.41	84.915	420.41	85.1335	420.41	84.6476	420.41	85.0732	420.41	84.2836	420.41	84.895	420.41	83.8319	420.41	84.6	420.41	83.3075	420.41	84.1969	420.41	82.7401	420.41	83.7051	420.41	82.1837	420.41	83.1557	420.41	81.7159	420.41	82.5892	420.41	81.4073	420.41	82.0499	420.41	81.2696	420.41	81.578	420.41	81.2378	420.41	81.2068	420.41	81.2179	420.41	80.961	420.41	81.1537	420.41	80.8496	420.41	81.0554	420.41	80.8532	420.41	80.9762	420.41	80.9242	420.41	80.9593	420.41	81.0053	420.41	80.9976	420.41	81.0515	420.41	81.0437
435.059	84.8995	435.059	84.7442	435.059	84.9466	435.059	84.4809	435.059	84.8821	435.059	84.107	435.059	84.7026	435.059	83.6214	435.059	84.41	435.059	83.0321	435.059	84.0158	435.059	82.3691	435.059	83.5435	435.059	81.7018	435.059	83.0282	435.059	81.1486	435.059	82.5129	435.059	80.8426	435.059	82.0426	435.059	80.8378	435.059	81.6536	435.059	81.0471	435.059	81.3695	435.059	81.3102	435.059	81.2025	435.059	81.5047	435.059	81.1509	435.059	81.5907	435.059	81.1891	435.059	81.5915	435.059	81.2709	435.059	81.5521	435.059	81.3528	435.059	81.5057	435.059	81.4153	435.059	81.4623
451.172	84.9884	451.172	84.7736	451.172	85.1041	451.172	84.4712	451.172	85.0966	451.172	84.0782	451.172	84.9427	451.172	83.5848	451.172	84.6328	451.172	82.9831	451.172	84.1745	451.172	82.2719	451.172	83.5844	451.172	81.4663	451.172	82.8842	451.172	80.628	451.172	82.1118	451.172	79.9105	451.172	81.3462	451.172	79.5422	451.172	80.7121	451.172	79.6474	451.172	80.3339	451.172	80.0921	451.172	80.2557	451.172	80.6271	451.172	80.4173	451.172	81.0899	451.172	80.7154	451.172	81.433	451.172	81.0621	451.172	81.6614	451.172	81.3902	451.172	81.7795	451.172	81.6421	451.172	81.7764
465.82	84.9432	465.82	84.7296	465.82	85.0524	465.82	84.4318	465.82	85.0486	465.82	84.0725	465.82	84.9363	465.82	83.6664	465.82	84.7265	465.82	83.2144	465.82	84.4224	465.82	82.7028	465.82	84.0148	465.82	82.1126	465.82	83.4884	465.82	81.4422	465.82	82.8326	465.82	80.7382	465.82	82.0528	465.82	80.1162	465.82	81.1995	465.82	79.7233	465.82	80.4224	465.82	79.6338	465.82	79.9725	465.82	79.7889	465.82	79.9981	465.82	80.0615	465.82	80.3294	465.82	80.3403	465.82	80.6588	465.82	80.5586	465.82	80.822	465.82	80.698	465.82	80.8357	465.82	80.7823
483.398	84.9563	483.398	84.7888	483.398	85.0259	483.398	84.5167	483.398	84.9994	483.398	84.1329	483.398	84.8741	483.398	83.6398	483.398	84.6477	483.398	83.0548	483.398	84.3216	483.398	82.4033	483.398	83.9006	483.398	81.704	483.398	83.3913	483.398	80.9715	483.398	82.8032	483.398	80.2504	483.398	82.1522	483.398	79.6531	483.398	81.469	483.398	79.3229	483.398	80.8264	483.398	79.3141	483.398	80.3668	483.398	79.5448	483.398	80.2402	483.398	79.8903	483.398	80.4407	483.398	80.2617	483.398	80.7758	483.398	80.6064	483.398	81.0404	483.398	80.8883	483.398	81.1403	483.398	81.0775
499.512	84.6035	499.512	84.4915	499.512	84.6512	499.512	84.3124	499.512	84.6273	499.512	84.0552	499.512	84.5187	499.512	83.7063	499.512	84.3126	499.512	83.2564	499.512	83.9992	499.512	82.703	499.512	83.5736	499.512	82.0502	499.512	83.0402	499.512	81.3146	499.512	82.4226	499.512	80.5481	499.512	81.7658	499.512	79.8568	499.512	81.1228	499.512	79.3706	499.512	80.5437	499.512	79.1593	499.512	80.1008	499.512	79.1944	499.512	79.9125	499.512	79.4045	499.512	80.0533	499.512	79.7291	499.512	80.4111	499.512	80.1141	499.512	80.7457	499.512	80.4919	499.512	80.8807	499.512	80.7773
517.09	84.4573	517.09	84.271	517.09	84.5851	517.09	84.0528	517.09	84.6298	517.09	83.8186	517.09	84.5748	517.09	83.5562	517.09	84.4108	517.09	83.2198	517.09	84.1331	517.09	82.7465	517.09	83.7368	517.09	82.0908	517.09	83.2196	517.09	81.2641	517.09	82.5894	517.09	80.3642	517.09	81.875	517.09	79.5778	517.09	81.1342	517.09	79.1144	517.09	80.4685	517.09	79.0732	517.09	80.0307	517.09	79.3826	517.09	79.9679	517.09	79.8926	517.09	80.2858	517.09	80.4698	517.09	80.8052	517.09	81.0105	517.09	81.2943	517.09	81.4248	517.09	81.5934	517.09	81.6357
536.133	84.0972	536.133	83.8527	536.133	84.2201	536.133	83.5144	536.133	84.1916	536.133	83.107	536.133	84.0014	536.133	82.6601	536.133	83.6787	536.133	82.2024	536.133	83.2838	536.133	81.7398	536.133	82.8729	536.133	81.249	536.133	82.468	536.133	80.703	536.133	82.0605	536.133	80.1139	536.133	81.6295	536.133	79.5681	536.133	81.1573	536.133	79.2049	536.133	80.6527	536.133	79.1143	536.133	80.1949	536.133	79.2777	536.133	79.9532	536.133	79.6213	536.133	80.0641	536.133	80.0658	536.133	80.4422	536.133	80.5201	536.133	80.8412	536.133	80.8859	536.133	81.0754	536.133	81.086
555.176	84.5371	555.176	84.3162	555.176	84.6058	555.176	83.9532	555.176	84.5165	555.176	83.4551	555.176	84.2846	555.176	82.8397	555.176	83.9478	555.176	82.1493	555.176	83.5409	555.176	81.431	555.176	83.0688	555.176	80.696	555.176	82.5105	555.176	79.9129	555.176	81.8485	555.176	79.0695	555.176	81.0947	555.176	78.2887	555.176	80.3058	555.176	77.8552	555.176	79.5972	555.176	77.9338	555.176	79.1303	555.176	78.3528	555.176	79.0256	555.176	78.8673	555.176	79.2612	555.176	79.3697	555.176	79.6827	555.176	79.8273	555.176	80.0994	555.176	80.1919	555.176	80.36	555.176	80.3894
574.219	84.5295	574.219	84.2459	574.219	84.7004	574.219	83.8724	574.219	84.7388	574.219	83.417	574.219	84.6396	574.219	82.8782	574.219	84.4054	574.219	82.2775	574.219	84.0325	574.219	81.6752	574.219	83.5068	574.219	81.1139	574.219	82.8156	574.219	80.523	574.219	81.965	574.219	79.7303	574.219	80.9951	574.219	78.6497	574.219	79.9859	574.219	77.5425	574.219	79.0581	574.219	77.0511	574.219	78.4	574.219	77.4972	574.219	78.2623	574.219	78.4336	574.219	78.7256	574.219	79.3584	574.219	79.4977	574.219	80.0718	574.219	80.1931	574.219	80.5304	574.219	80.6126	574.219	80.7184
594.727	84.604	594.727	84.2916	594.727	84.7496	594.727	83.8698	594.727	84.6884	594.727	83.3618	594.727	84.4395	594.727	82.7422	594.727	84.0723	594.727	81.9811	594.727	83.6405	594.727	81.1193	594.727	83.1172	594.727	80.2916	594.727	82.413	594.727	79.6155	594.727	81.4665	594.727	79.0279	594.727	80.3319	594.727	78.3374	594.727	79.1879	594.727	77.5198	594.727	78.2219	594.727	76.9569	594.727	77.5484	594.727	77.1311	594.727	77.3841	594.727	77.9343	594.727	77.9797	594.727	78.8923	594.727	79.0429	594.727	79.7075	594.727	79.976	594.727	80.2756	594.727	80.4816	594.727	80.554
615.234	85.9475	615.234	85.6651	615.234	86.036	615.234	85.2184	615.234	85.9482	615.234	84.6526	615.234	85.735	615.234	83.9866	615.234	85.4321	615.234	83.2087	615.234	85.0368	615.234	82.3124	615.234	84.5225	615.234	81.3184	615.234	83.8483	615.234	80.2257	615.234	82.9521	615.234	78.9329	615.234	81.764	615.234	77.2657	615.234	80.2386	615.234	75.2481	615.234	78.3522	615.234	73.7221	615.234	76.049	615.234	74.0362	615.234	73.4691	615.234	75.6023	615.234	72.4444	615.234	77.1652	615.234	74.5564	615.234	78.3127	615.234	76.9875	615.234	78.9673	615.234	78.4716	615.234	79.0647
637.207	86.3898	637.207	86.1657	637.207	86.4607	637.207	85.7885	637.207	86.3878	637.207	85.292	637.207	86.186	637.207	84.754	637.207	85.8822	637.207	84.2624	637.207	85.4971	637.207	83.8607	637.207	85.0129	637.207	83.5163	637.207	84.3874	637.207	83.1013	637.207	83.6143	637.207	82.3774	637.207	82.7521	637.207	81.0383	637.207	81.8618	637.207	78.8437	637.207	80.8832	637.207	75.7694	637.207	79.5815	637.207	72.338	637.207	77.6774	637.207	71.0128	637.207	75.2901	637.207	72.869	637.207	73.8085	637.207	74.8426	637.207	74.398	637.207	75.9177	637.207	75.5328	637.207	76.1158
659.18	85.6325	659.18	85.469	659.18	85.7437	659.18	85.2443	659.18	85.7711	659.18	84.935	659.18	85.6669	659.18	84.5584	659.18	85.4061	659.18	84.1902	659.18	84.9977	659.18	83.8908	659.18	84.4877	659.18	83.6072	659.18	83.9701	659.18	83.1795	659.18	83.5427	659.18	82.4704	659.18	83.207	659.18	81.4744	659.18	82.8477	659.18	80.258	659.18	82.3227	659.18	78.8522	659.18	81.4931	659.18	77.3114	659.18	80.1508	659.18	76.0215	659.18	78.16	659.18	75.6971	659.18	76.1759	659.18	76.2282	659.18	75.78	659.18	76.7922	659.18	76.5017	659.18	76.9336
682.617	84.5872	682.617	84.2486	682.617	84.7771	682.617	83.8397	682.617	84.7697	682.617	83.4536	682.617	84.5698	682.617	83.1686	682.617	84.247	682.617	83.0189	682.617	83.911	682.617	82.9937	682.617	83.674	682.617	83.0184	682.617	83.6203	682.617	82.9409	682.617	83.7208	682.617	82.6098	682.617	83.7738	682.617	81.9893	682.617	83.545	682.617	81.1338	682.617	82.9846	682.617	79.9949	682.617	82.279	682.617	78.4559	682.617	81.5719	682.617	76.8595	682.617	80.621	682.617	76.2118	682.617	79.117	682.617	76.6776	682.617	77.5267	682.617	77.2662	682.617	77.0486	682.617	77.3368
707.52	84.7893	707.52	84.1444	707.52	84.9896	707.52	83.11	707.52	84.8248	707.52	81.7543	707.52	84.5045	707.52	80.2218	707.52	84.1198	707.52	79.1043	707.52	83.5479	707.52	79.2687	707.52	82.7235	707.52	80.4828	707.52	81.7862	707.52	81.6965	707.52	80.9822	707.52	82.2764	707.52	80.6071	707.52	82.1292	707.52	80.949	707.52	81.498	707.52	81.8363	707.52	80.7123	707.52	82.5643	707.52	79.9377	707.52	82.5697	707.52	79.2092	707.52	81.7977	707.52	78.6878	707.52	80.7742	707.52	78.5956	707.52	80.1298	707.52	78.8766	707.52	79.7479	707.52	79.3158
732.422	84.032	732.422	83.7076	732.422	84.1891	732.422	83.0846	732.422	84.3103	732.422	82.1706	732.422	84.3885	732.422	81.0887	732.422	84.321	732.422	79.8821	732.422	84.0348	732.422	78.4714	732.422	83.5001	732.422	77.3111	732.422	82.7095	732.422	77.759	732.422	81.8023	732.422	79.3406	732.422	81.1646	732.422	80.3851	732.422	81.0696	732.422	80.417	732.422	81.3024	732.422	79.7058	732.422	81.5742	732.422	78.8423	732.422	81.8222	732.422	78.388	732.422	81.8662	732.422	78.4227	732.422	81.41	732.422	78.7469	732.422	80.5994	732.422	79.1989	732.422	79.976	732.422	79.6087
757.324	84.0218	757.324	83.4335	757.324	84.3191	757.324	82.6553	757.324	84.2939	757.324	81.7561	757.324	84.0633	757.324	80.7305	757.324	83.8176	757.324	79.5643	757.324	83.621	757.324	78.376	757.324	83.3448	757.324	77.5784	757.324	82.8107	757.324	77.7982	757.324	81.9902	757.324	78.7412	757.324	81.1528	757.324	79.3495	757.324	80.7641	757.324	79.2351	757.324	80.9332	757.324	78.6089	757.324	81.2063	757.324	77.8812	757.324	81.3012	757.324	77.6589	757.324	81.3206	757.324	78.2213	757.324	81.238	757.324	79.0774	757.324	80.953	757.324	79.7859	757.324	80.5978	757.324	80.2557
785.156	84.0143	785.156	83.7348	785.156	84.261	785.156	83.1386	785.156	84.526	785.156	81.9817	785.156	84.6063	785.156	80.3723	785.156	84.3462	785.156	79.0823	785.156	83.8247	785.156	78.886	785.156	83.2223	785.156	78.8566	785.156	82.5588	785.156	77.5848	785.156	81.7179	785.156	75.7957	785.156	80.7872	785.156	76.1105	785.156	80.0569	785.156	76.938	785.156	79.5438	785.156	77.1169	785.156	79.3341	785.156	76.6198	785.156	79.7233	785.156	75.9694	785.156	80.1142	785.156	76.2317	785.156	79.9978	785.156	77.2537	785.156	79.6454	785.156	78.2036	785.156	79.2873	785.156	78.8442
811.523	83.9034	811.523	83.7857	811.523	84.2252	811.523	83.6396	811.523	84.4917	811.523	83.0307	811.523	84.4426	811.523	81.9269	811.523	84.0385	811.523	80.686	811.523	83.3063	811.523	79.6404	811.523	82.2554	811.523	78.778	811.523	81.014	811.523	77.7003	811.523	79.9718	811.523	75.9069	811.523	79.453	811.523	74.3771	811.523	79.2761	811.523	74.9975	811.523	79.2001	811.523	76.2995	811.523	79.3191	811.523	76.7626	811.523	79.6122	811.523	76.8898	811.523	79.7697	811.523	77.5801	811.523	79.605	811.523	78.2997	811.523	79.2436	811.523	78.5567	811.523	78.8866	811.523	78.6524
840.82	84.394	840.82	83.751	840.82	84.6325	840.82	82.9835	840.82	84.543	840.82	82.4918	840.82	84.2875	840.82	82.1502	840.82	83.8188	840.82	81.3913	840.82	83.0686	840.82	79.785	840.82	82.3211	840.82	77.3636	840.82	81.9168	840.82	75.0945	840.82	81.4622	840.82	74.3894	840.82	80.1599	840.82	74.7731	840.82	78.2975	840.82	75.5492	840.82	77.6205	840.82	76.3602	840.82	77.5336	840.82	76.3529	840.82	77.1562	840.82	75.5523	840.82	77.5582	840.82	75.9447	840.82	78.1546	840.82	77.389	840.82	78.2396	840.82	78.2044	840.82	78.2375	840.82	78.33
870.117	84.0694	870.117	83.7748	870.117	84.2697	870.117	83.2052	870.117	84.3924	870.117	82.2189	870.117	84.3378	870.117	80.9079	870.117	84.0797	870.117	79.6029	870.117	83.6148	870.117	78.7016	870.117	82.7423	870.117	78.3607	870.117	81.2947	870.117	78.0004	870.117	79.749	870.117	76.7282	870.117	79.0526	870.117	74.7429	870.117	78.9779	870.117	74.7308	870.117	78.6711	870.117	76.1401	870.117	78.4514	870.117	76.2502	870.117	78.4091	870.117	75.5055	870.117	77.9079	870.117	75.2104	870.117	77.5924	870.117	75.8376	870.117	77.9709	870.117	76.9877	870.117	78.2599	870.117	77.9473
900.879	85.6371	900.879	85.1094	900.879	85.5366	900.879	83.9765	900.879	85.1782	900.879	82.5335	900.879	84.8998	900.879	80.9828	900.879	84.6493	900.879	79.3046	900.879	84.3606	900.879	77.5221	900.879	84.1284	900.879	76.1884	900.879	83.8385	900.879	76.0334	900.879	83.125	900.879	75.9651	900.879	81.6576	900.879	74.525	900.879	79.4483	900.879	72.2046	900.879	77.8865	900.879	71.7834	900.879	78.1499	900.879	72.5858	900.879	78.4682	900.879	72.5661	900.879	78.1648	900.879	74.2556	900.879	77.8921	900.879	77.1582	900.879	78.8158	900.879	79.2934	900.879	80.0741	900.879	80.3058
933.105	83.6873	933.105	82.3396	933.105	84.4409	933.105	80.4011	933.105	84.7706	933.105	78.0764	933.105	84.8433	933.105	75.2818	933.105	84.8455	933.105	71.0958	933.105	84.9476	933.105	63.5558	933.105	85.0418	933.105	49.5708	933.105	84.83	933.105	31.3285	933.105	84.3048	933.105	59.4311	933.105	83.7833	933.105	67.3555	933.105	83.2231	933.105	68.2407	933.105	82.1488	933.105	63.6478	933.105	80.6953	933.105	57.8048	933.105	79.9203	933.105	61.6464	933.105	79.8792	933.105	67.8518	933.105	79.8272	933.105	73.9109	933.105	79.961	933.105	77.6071	933.105	80.1013	933.105	79.4486
965.332	75.6388	965.332	73.4126	965.332	78.0675	965.332	72.7348	965.332	80.0254	965.332	73.484	965.332	81.0646	965.332	73.7645	965.332	81.5833	965.332	74.1268	965.332	82.0198	965.332	74.7356	965.332	82.268	965.332	74.7536	965.332	82.4032	965.332	74.3968	965.332	82.6934	965.332	73.3111	965.332	82.7813	965.332	72.1204	965.332	82.0703	965.332	72.5601	965.332	80.9219	965.332	72.721	965.332	80.2695	965.332	71.9338	965.332	79.6695	965.332	70.7332	965.332	78.7535	965.332	66.6593	965.332	78.1116	965.332	45.1181	965.332	77.8807	965.332	69.0616	965.332	76.9648	965.332	74.3833
1,000.49	74.0508	1,000.49	76.2885	1,000.49	73.0634	1,000.49	77.9527	1,000.49	74.8068	1,000.49	79.083	1,000.49	76.8765	1,000.49	79.6355	1,000.49	78.3668	1,000.49	79.9303	1,000.49	79.1625	1,000.49	79.9037	1,000.49	79.6428	1,000.49	78.6479	1,000.49	80.1685	1,000.49	76.3118	1,000.49	80.5595	1,000.49	73.789	1,000.49	80.3481	1,000.49	71.2828	1,000.49	79.4675	1,000.49	73.7559	1,000.49	79.0025	1,000.49	76.7063	1,000.49	78.7942	1,000.49	76.2093	1,000.49	77.1166	1,000.49	73.1349	1,000.49	75.068	1,000.49	70.2183	1,000.49	74.6634	1,000.49	67.9555	1,000.49	74.9993	1,000.49	65.2365	1,000.49	75.1439	1,000.49	71.7229
1,035.64	77.0803	1,035.64	79.4225	1,035.64	73.8554	1,035.64	81.1554	1,035.64	68.8047	1,035.64	81.9646	1,035.64	66.717	1,035.64	81.8435	1,035.64	72.3883	1,035.64	81.3871	1,035.64	75.5348	1,035.64	81.1307	1,035.64	76.7899	1,035.64	80.5052	1,035.64	77.0928	1,035.64	79.1972	1,035.64	77.2413	1,035.64	78.5642	1,035.64	78.0066	1,035.64	78.173	1,035.64	78.5625	1,035.64	76.6666	1,035.64	78.0208	1,035.64	76.0949	1,035.64	77.0253	1,035.64	77.0923	1,035.64	76.2587	1,035.64	77.3824	1,035.64	73.6598	1,035.64	75.7315	1,035.64	70.0739	1,035.64	71.4652	1,035.64	70.1617	1,035.64	64.8528	1,035.64	68.1459	1,035.64	63.3607
1,072.27	82.6277	1,072.27	84.2893	1,072.27	79.9986	1,072.27	84.7958	1,072.27	77.8356	1,072.27	85.0054	1,072.27	74.8274	1,072.27	84.9913	1,072.27	70.6991	1,072.27	84.4649	1,072.27	71.4214	1,072.27	83.8393	1,072.27	74.1434	1,072.27	83.1336	1,072.27	75.5008	1,072.27	82.0684	1,072.27	74.9053	1,072.27	81.446	1,072.27	74.477	1,072.27	80.8312	1,072.27	75.0457	1,072.27	79.3808	1,072.27	74.8888	1,072.27	78.5191	1,072.27	73.1945	1,072.27	78.8695	1,072.27	70.1961	1,072.27	78.8658	1,072.27	68.3756	1,072.27	78.1623	1,072.27	66.4577	1,072.27	76.6374	1,072.27	63.0287	1,072.27	72.7766	1,072.27	60.2516	1,072.27	61.3768
1,108.89	84.6864	1,108.89	85.4528	1,108.89	83.7594	1,108.89	86.0285	1,108.89	82.2774	1,108.89	86.0525	1,108.89	80.3466	1,108.89	85.4288	1,108.89	78.9379	1,108.89	84.3111	1,108.89	78.029	1,108.89	82.5957	1,108.89	76.3021	1,108.89	80.5012	1,108.89	73.7025	1,108.89	78.6959	1,108.89	72.7065	1,108.89	77.2521	1,108.89	73.0445	1,108.89	77.5882	1,108.89	71.863	1,108.89	78.6248	1,108.89	70.9869	1,108.89	78.0288	1,108.89	70.2308	1,108.89	77.3629	1,108.89	66.1024	1,108.89	78.5611	1,108.89	57.2148	1,108.89	78.9407	1,108.89	65.8202	1,108.89	77.4395	1,108.89	66.2727	1,108.89	75.8401	1,108.89	68.1423	1,108.89	73.9382
1,148.44	83.664	1,148.44	84.2112	1,148.44	83.0442	1,148.44	84.2795	1,148.44	82.1333	1,148.44	83.7981	1,148.44	80.9021	1,148.44	83.0213	1,148.44	79.9842	1,148.44	81.5196	1,148.44	78.635	1,148.44	79.3206	1,148.44	76.7557	1,148.44	77.998	1,148.44	75.8476	1,148.44	77.1907	1,148.44	75.0167	1,148.44	75.975	1,148.44	74.0653	1,148.44	75.6213	1,148.44	72.8618	1,148.44	74.5873	1,148.44	69.8708	1,148.44	73.0209	1,148.44	66.9517	1,148.44	73.6836	1,148.44	68.0766	1,148.44	74.8403	1,148.44	69.6779	1,148.44	75.4788	1,148.44	69.5494	1,148.44	75.3272	1,148.44	68.1313	1,148.44	74.3385	1,148.44	69.844	1,148.44	72.7438
1,189.45	84.9579	1,189.45	85.1475	1,189.45	84.0173	1,189.45	84.6608	1,189.45	83.0658	1,189.45	84.1051	1,189.45	82.5051	1,189.45	83.0272	1,189.45	81.8196	1,189.45	81.0137	1,189.45	80.5357	1,189.45	79.552	1,189.45	78.9214	1,189.45	78.5049	1,189.45	77.373	1,189.45	76.3288	1,189.45	75.5671	1,189.45	75.3845	1,189.45	72.9237	1,189.45	75.7956	1,189.45	70.9137	1,189.45	74.998	1,189.45	71.1142	1,189.45	72.8711	1,189.45	70.1403	1,189.45	70.2064	1,189.45	66.7698	1,189.45	72.5729	1,189.45	70.4146	1,189.45	75.5999	1,189.45	72.6879	1,189.45	75.8731	1,189.45	71.1408	1,189.45	76.1521	1,189.45	71.2081	1,189.45	74.9695
1,230.47	85.9362	1,230.47	85.7992	1,230.47	85.6125	1,230.47	85.1051	1,230.47	84.5318	1,230.47	83.483	1,230.47	83.4329	1,230.47	81.2976	1,230.47	83.0083	1,230.47	79.9929	1,230.47	82.4583	1,230.47	79.0651	1,230.47	81.766	1,230.47	77.3464	1,230.47	80.7639	1,230.47	75.8858	1,230.47	78.8858	1,230.47	74.628	1,230.47	77.3087	1,230.47	74.9189	1,230.47	76.387	1,230.47	75.7058	1,230.47	73.9699	1,230.47	74.5465	1,230.47	71.8823	1,230.47	72.4582	1,230.47	70.9885	1,230.47	70.4935	1,230.47	71.4144	1,230.47	72.5913	1,230.47	74.3567	1,230.47	74.9689	1,230.47	75.0261	1,230.47	76.5505	1,230.47	75.8385	1,230.47	77.0527
1,274.41	84.9037	1,274.41	84.5727	1,274.41	84.7606	1,274.41	83.1531	1,274.41	84.7977	1,274.41	81.1036	1,274.41	84.5238	1,274.41	78.8457	1,274.41	83.893	1,274.41	76.061	1,274.41	83.6503	1,274.41	73.7902	1,274.41	83.2411	1,274.41	72.7663	1,274.41	82.267	1,274.41	70.432	1,274.41	81.0223	1,274.41	67.6943	1,274.41	79.7413	1,274.41	64.0009	1,274.41	78.0742	1,274.41	72.0283	1,274.41	76.511	1,274.41	75.7817	1,274.41	76.2733	1,274.41	75.9744	1,274.41	75.5538	1,274.41	69.0552	1,274.41	72.1275	1,274.41	64.564	1,274.41	74.6052	1,274.41	72.0755	1,274.41	76.4946	1,274.41	76.651	1,274.41	75.9564	1,274.41	77.3199
1,319.82	83.9511	1,319.82	83.6198	1,319.82	84.2046	1,319.82	82.9054	1,319.82	84.0026	1,319.82	81.7553	1,319.82	83.1502	1,319.82	80.6783	1,319.82	81.9217	1,319.82	79.5424	1,319.82	80.9423	1,319.82	77.3698	1,319.82	81.1729	1,319.82	75.266	1,319.82	81.4349	1,319.82	75.0277	1,319.82	80.2252	1,319.82	74.5553	1,319.82	78.7484	1,319.82	73.1131	1,319.82	77.6603	1,319.82	69.4424	1,319.82	76.0936	1,319.82	71.8783	1,319.82	76.0686	1,319.82	76.3261	1,319.82	75.6023	1,319.82	75.0765	1,319.82	75.4639	1,319.82	68.5221	1,319.82	75.3376	1,319.82	69.3119	1,319.82	75.3021	1,319.82	74.0625	1,319.82	75.2073	1,319.82	75.6348
1,366.7	84.2772	1,366.7	84.2517	1,366.7	83.7145	1,366.7	84.1766	1,366.7	82.8486	1,366.7	83.4854	1,366.7	82.4788	1,366.7	81.9448	1,366.7	81.7687	1,366.7	80.8307	1,366.7	80.5942	1,366.7	79.4212	1,366.7	80.5761	1,366.7	76.6805	1,366.7	80.5389	1,366.7	74.7411	1,366.7	79.6281	1,366.7	73.033	1,366.7	78.7279	1,366.7	73.8199	1,366.7	76.8695	1,366.7	74.7755	1,366.7	74.2182	1,366.7	74.7099	1,366.7	74.5099	1,366.7	75.7763	1,366.7	75.7309	1,366.7	75.0821	1,366.7	77.1164	1,366.7	70.6603	1,366.7	75.6776	1,366.7	70.6397	1,366.7	74.9176	1,366.7	73.8055	1,366.7	74.4469	1,366.7	74.8217
1,413.57	85.5136	1,413.57	85.3059	1,413.57	84.6993	1,413.57	84.8022	1,413.57	83.5794	1,413.57	83.9104	1,413.57	82.8464	1,413.57	82.516	1,413.57	81.9239	1,413.57	81.9467	1,413.57	81.4435	1,413.57	80.6775	1,413.57	80.9307	1,413.57	75.8808	1,413.57	79.7566	1,413.57	71.5768	1,413.57	78.8456	1,413.57	71.7319	1,413.57	77.3181	1,413.57	63.9434	1,413.57	74.3393	1,413.57	67.344	1,413.57	72.1974	1,413.57	72.2049	1,413.57	73.2732	1,413.57	76.8641	1,413.57	73.5188	1,413.57	77.5131	1,413.57	70.9892	1,413.57	73.349	1,413.57	75.2254	1,413.57	70.6362	1,413.57	74.673	1,413.57	73.6286	1,413.57	73.5391	1,413.57	74.6955
1,463.38	86.0041	1,463.38	85.8175	1,463.38	85.5105	1,463.38	84.5673	1,463.38	85.0516	1,463.38	83.6296	1,463.38	83.8236	1,463.38	83.012	1,463.38	82.7098	1,463.38	82.1016	1,463.38	81.8129	1,463.38	80.1217	1,463.38	80.6114	1,463.38	76.9701	1,463.38	80.6452	1,463.38	74.2066	1,463.38	80.0514	1,463.38	72.8871	1,463.38	77.5558	1,463.38	73.2257	1,463.38	75.6306	1,463.38	67.7906	1,463.38	73.5997	1,463.38	60.9646	1,463.38	69.0274	1,463.38	74.4916	1,463.38	71.146	1,463.38	76.2043	1,463.38	72.4173	1,463.38	72.4167	1,463.38	74.7493	1,463.38	68.4722	1,463.38	74.4985	1,463.38	73.1487	1,463.38	73.4808	1,463.38	74.243
1,516.11	86.6796	1,516.11	86.2342	1,516.11	86.3215	1,516.11	84.5797	1,516.11	85.6701	1,516.11	82.9111	1,516.11	84.5188	1,516.11	81.8531	1,516.11	83.239	1,516.11	80.0607	1,516.11	82.3045	1,516.11	78.2346	1,516.11	81.7964	1,516.11	77.8134	1,516.11	82.1258	1,516.11	75.9083	1,516.11	81.975	1,516.11	71.3296	1,516.11	80.2873	1,516.11	72.4824	1,516.11	78.9234	1,516.11	74.6216	1,516.11	76.2345	1,516.11	71.8793	1,516.11	72.2618	1,516.11	68.2405	1,516.11	73.8215	1,516.11	74.1491	1,516.11	75.1332	1,516.11	71.8553	1,516.11	73.6017	1,516.11	68.9198	1,516.11	76.0104	1,516.11	73.0145	1,516.11	75.8994	1,516.11	74.3736
1,568.85	86.201	1,568.85	85.9305	1,568.85	86.088	1,568.85	84.4849	1,568.85	85.4806	1,568.85	82.3483	1,568.85	84.8269	1,568.85	81.3543	1,568.85	83.521	1,568.85	78.9812	1,568.85	82.8293	1,568.85	77.6213	1,568.85	82.2399	1,568.85	79.6015	1,568.85	81.2875	1,568.85	78.1308	1,568.85	81.4055	1,568.85	73.1587	1,568.85	80.03	1,568.85	72.7674	1,568.85	78.1331	1,568.85	76.9849	1,568.85	77.8447	1,568.85	75.6174	1,568.85	75.7719	1,568.85	68.5623	1,568.85	76.8591	1,568.85	74.1586	1,568.85	75.2099	1,568.85	74.8692	1,568.85	74.8471	1,568.85	68.8474	1,568.85	74.0078	1,568.85	73.0838	1,568.85	74.3318	1,568.85	76.619
1,624.51	85.9135	1,624.51	85.2622	1,624.51	85.7347	1,624.51	84.2971	1,624.51	85.5805	1,624.51	84.6947	1,624.51	84.6265	1,624.51	84.3574	1,624.51	84.39	1,624.51	80.0818	1,624.51	83.612	1,624.51	77.6709	1,624.51	82.5696	1,624.51	79.8095	1,624.51	81.9761	1,624.51	76.4064	1,624.51	82.2337	1,624.51	76.0183	1,624.51	81.3945	1,624.51	73.5864	1,624.51	78.9349	1,624.51	73.2463	1,624.51	77.8302	1,624.51	76.1523	1,624.51	74.0361	1,624.51	73.7149	1,624.51	75.1466	1,624.51	74.6225	1,624.51	74.5317	1,624.51	76.5116	1,624.51	76.3052	1,624.51	71.6888	1,624.51	74.8511	1,624.51	67.5593	1,624.51	75.613	1,624.51	74.1345
1,681.64	85.1113	1,681.64	84.1105	1,681.64	85.4395	1,681.64	84.7808	1,681.64	84.7362	1,681.64	85.0016	1,681.64	84.6192	1,681.64	82.9126	1,681.64	85.0157	1,681.64	81.0414	1,681.64	83.3672	1,681.64	79.1655	1,681.64	81.4831	1,681.64	78.3096	1,681.64	80.1747	1,681.64	79.3792	1,681.64	81.0293	1,681.64	74.9133	1,681.64	80.9477	1,681.64	79.0818	1,681.64	78.4208	1,681.64	76.4435	1,681.64	75.4291	1,681.64	75.7113	1,681.64	76.7626	1,681.64	75.2924	1,681.64	76.149	1,681.64	67.5128	1,681.64	75.217	1,681.64	73.5436	1,681.64	78.2868	1,681.64	72.7952	1,681.64	76.1385	1,681.64	69.0739	1,681.64	71.9578	1,681.64	73.731
1,741.7	84.0242	1,741.7	82.9174	1,741.7	85.3442	1,741.7	84.3427	1,741.7	86.1428	1,741.7	84.8707	1,741.7	86.1049	1,741.7	83.0091	1,741.7	84.21	1,741.7	81.0491	1,741.7	85.068	1,741.7	81.4837	1,741.7	83.0029	1,741.7	82.6901	1,741.7	81.0695	1,741.7	76.1255	1,741.7	82.0129	1,741.7	78.123	1,741.7	81.7215	1,741.7	70.4171	1,741.7	82.7626	1,741.7	70.5993	1,741.7	79.6437	1,741.7	76.0967	1,741.7	78.2617	1,741.7	75.4669	1,741.7	73.2871	1,741.7	71.7081	1,741.7	78.9869	1,741.7	74.1025	1,741.7	79.1892	1,741.7	77.3507	1,741.7	78.1235	1,741.7	72.4027	1,741.7	76.092	1,741.7	71.9657
1,803.22	84.0007	1,803.22	84.6358	1,803.22	83.8759	1,803.22	84.3128	1,803.22	84.2618	1,803.22	83.6193	1,803.22	84.8776	1,803.22	84.9113	1,803.22	84.5349	1,803.22	84.689	1,803.22	83.5386	1,803.22	83.8336	1,803.22	81.234	1,803.22	84.3687	1,803.22	80.3249	1,803.22	81.7975	1,803.22	81.7413	1,803.22	76.1377	1,803.22	81.5979	1,803.22	78.7264	1,803.22	79.364	1,803.22	79.4378	1,803.22	79.5029	1,803.22	72.974	1,803.22	80.4906	1,803.22	77.4345	1,803.22	79.6916	1,803.22	76.7861	1,803.22	79.0431	1,803.22	73.4603	1,803.22	79.0239	1,803.22	74.2347	1,803.22	75.5537	1,803.22	71.3436	1,803.22	72.8533	1,803.22	70.1174
1,866.21	85.652	1,866.21	86.0817	1,866.21	84.785	1,866.21	85.8988	1,866.21	83.5917	1,866.21	85.762	1,866.21	82.8048	1,866.21	86.5517	1,866.21	82.3343	1,866.21	85.4233	1,866.21	80.7494	1,866.21	83.8238	1,866.21	77.8624	1,866.21	82.8617	1,866.21	75.0028	1,866.21	79.6905	1,866.21	75.3873	1,866.21	78.5672	1,866.21	77.1206	1,866.21	77.0214	1,866.21	77.0919	1,866.21	78.4777	1,866.21	76.5703	1,866.21	77.021	1,866.21	78.8201	1,866.21	76.5915	1,866.21	77.989	1,866.21	77.8261	1,866.21	76.8255	1,866.21	74.4844	1,866.21	76.9034	1,866.21	73.133	1,866.21	73.2818	1,866.21	70.1883	1,866.21	61.1108	1,866.21	58.2402
1,932.13	86.1426	1,932.13	86.1407	1,932.13	85.7524	1,932.13	85.7526	1,932.13	84.6589	1,932.13	84.4982	1,932.13	82.3564	1,932.13	83.4105	1,932.13	79.2011	1,932.13	81.6325	1,932.13	75.2799	1,932.13	78.4355	1,932.13	71.4301	1,932.13	77.6919	1,932.13	66.4473	1,932.13	74.7474	1,932.13	63.242	1,932.13	72.3472	1,932.13	62.5121	1,932.13	71.6912	1,932.13	64.631	1,932.13	73.045	1,932.13	63.3774	1,932.13	73.5839	1,932.13	69.5259	1,932.13	72.9081	1,932.13	68.9577	1,932.13	73.5762	1,932.13	66.9144	1,932.13	72.6235	1,932.13	69.8912	1,932.13	71.1456	1,932.13	69.4357	1,932.13	68.9169	1,932.13	67.1584	1,932.13	66.7487
1,999.51	86.0028	1,999.51	84.2956	1,999.51	85.8105	1,999.51	82.0969	1,999.51	84.2285	1,999.51	80.5255	1,999.51	81.704	1,999.51	78.1447	1,999.51	79.7212	1,999.51	75.2449	1,999.51	76.349	1,999.51	73.6296	1,999.51	72.6195	1,999.51	72.1185	1,999.51	69.7786	1,999.51	69.7659	1,999.51	67.9061	1,999.51	69.8382	1,999.51	64.6613	1,999.51	68.2176	1,999.51	65.2152	1,999.51	67.9106	1,999.51	64.9713	1,999.51	65.9386	1,999.51	57.5543	1,999.51	69.4506	1,999.51	63.8082	1,999.51	70.1523	1,999.51	61.6849	1,999.51	68.3955	1,999.51	65.1233	1,999.51	66.5797	1,999.51	69.8731	1,999.51	64.9366	1,999.51	69.9306	1,999.51	66.6962
2,069.82	85.7372	2,069.82	83.564	2,069.82	85.6777	2,069.82	80.7171	2,069.82	83.7127	2,069.82	79.5092	2,069.82	81.3547	2,069.82	77.3438	2,069.82	79.482	2,069.82	74.6485	2,069.82	76.2004	2,069.82	73.7686	2,069.82	73.9675	2,069.82	69.2518	2,069.82	74.0912	2,069.82	67.4631	2,069.82	71.5305	2,069.82	68.2325	2,069.82	69.0067	2,069.82	60.6359	2,069.82	67.789	2,069.82	69.8428	2,069.82	68.821	2,069.82	69.819	2,069.82	63.6464	2,069.82	63.8759	2,069.82	67.3935	2,069.82	68.298	2,069.82	66.3677	2,069.82	67.5783	2,069.82	68.7881	2,069.82	63.9154	2,069.82	71.7219	2,069.82	64.193	2,069.82	71.1157	2,069.82	67.5608
2,143.07	85.8351	2,143.07	84.6382	2,143.07	86.0372	2,143.07	83.1023	2,143.07	84.4163	2,143.07	79.6186	2,143.07	81.2214	2,143.07	76.5152	2,143.07	77.7278	2,143.07	75.1267	2,143.07	74.7757	2,143.07	73.2769	2,143.07	73.099	2,143.07	72.3829	2,143.07	73.2731	2,143.07	72.5825	2,143.07	74.1938	2,143.07	69.6998	2,143.07	72.17	2,143.07	67.9744	2,143.07	69.0188	2,143.07	61.8092	2,143.07	68.7609	2,143.07	70.1044	2,143.07	64.3235	2,143.07	65.8916	2,143.07	63.3584	2,143.07	67.8814	2,143.07	66.7473	2,143.07	69.0595	2,143.07	67.3414	2,143.07	65.7859	2,143.07	71.3896	2,143.07	64.2165	2,143.07	70.4585	2,143.07	67.5135
2,219.24	85.3064	2,219.24	84.8959	2,219.24	85.9361	2,219.24	83.8333	2,219.24	84.7235	2,219.24	80.1256	2,219.24	81.2689	2,219.24	76.5993	2,219.24	77.0108	2,219.24	75.7319	2,219.24	75.404	2,219.24	74.8126	2,219.24	75.2459	2,219.24	73.0205	2,219.24	73.8667	2,219.24	66.653	2,219.24	74.9522	2,219.24	71.5085	2,219.24	72.3243	2,219.24	70.4734	2,219.24	69.4328	2,219.24	63.6732	2,219.24	70.9876	2,219.24	69.163	2,219.24	69.4132	2,219.24	67.8474	2,219.24	64.6682	2,219.24	66.3954	2,219.24	67.0286	2,219.24	70.259	2,219.24	67.7219	2,219.24	67.2896	2,219.24	70.2952	2,219.24	65.1084	2,219.24	71.4465	2,219.24	67.8669
2,296.88	86.2627	2,296.88	84.908	2,296.88	86.275	2,296.88	83.044	2,296.88	84.7036	2,296.88	81.446	2,296.88	81.228	2,296.88	78.8475	2,296.88	78.2565	2,296.88	77.4517	2,296.88	76.5347	2,296.88	76.1019	2,296.88	77.9276	2,296.88	75.8108	2,296.88	74.9559	2,296.88	74.3875	2,296.88	70.9818	2,296.88	72.5839	2,296.88	72.0074	2,296.88	71.1072	2,296.88	67.8586	2,296.88	68.038	2,296.88	70.7896	2,296.88	68.981	2,296.88	71.2317	2,296.88	72.1177	2,296.88	67.248	2,296.88	64.1331	2,296.88	67.8515	2,296.88	68.5436	2,296.88	65.6779	2,296.88	68.2585	2,296.88	69.9715	2,296.88	64.4793	2,296.88	70.3277	2,296.88	67.5914
2,378.91	86.6084	2,378.91	85.5762	2,378.91	86.3374	2,378.91	82.6751	2,378.91	84.2487	2,378.91	81.3804	2,378.91	80.6982	2,378.91	79.8164	2,378.91	77.7214	2,378.91	76.8466	2,378.91	76.7815	2,378.91	76.6535	2,378.91	78.4323	2,378.91	76.5531	2,378.91	76.1811	2,378.91	73.3974	2,378.91	74.4603	2,378.91	69.7121	2,378.91	74.8804	2,378.91	72.0215	2,378.91	71.6412	2,378.91	71.9796	2,378.91	68.2499	2,378.91	65.1195	2,378.91	70.4215	2,378.91	72.6899	2,378.91	67.1058	2,378.91	69.1311	2,378.91	67.3385	2,378.91	68.0302	2,378.91	60.3911	2,378.91	68.2484	2,378.91	68.7892	2,378.91	64.8204	2,378.91	71.6853	2,378.91	66.1759
2,462.4	86.0089	2,462.4	85.1968	2,462.4	85.8154	2,462.4	83.5338	2,462.4	84.509	2,462.4	81.0028	2,462.4	80.696	2,462.4	78.745	2,462.4	77.4631	2,462.4	76.6	2,462.4	77.3842	2,462.4	75.5313	2,462.4	78.4859	2,462.4	68.5972	2,462.4	77.3069	2,462.4	75.6063	2,462.4	73.3214	2,462.4	74.1795	2,462.4	75.7926	2,462.4	70.0853	2,462.4	76.4551	2,462.4	72.4032	2,462.4	73.4991	2,462.4	69.9254	2,462.4	71.2835	2,462.4	70.5332	2,462.4	70.7276	2,462.4	70.0752	2,462.4	68.046	2,462.4	66.1665	2,462.4	56.0996	2,462.4	66.0212	2,462.4	68.9678	2,462.4	64.6289	2,462.4	72.5733	2,462.4	67.8294
2,548.83	85.9007	2,548.83	84.7576	2,548.83	85.0891	2,548.83	83.8587	2,548.83	82.7991	2,548.83	79.6611	2,548.83	78.8169	2,548.83	74.9569	2,548.83	74.1183	2,548.83	75.8694	2,548.83	77.2087	2,548.83	75.2675	2,548.83	78.5629	2,548.83	75.9734	2,548.83	76.1154	2,548.83	73.5949	2,548.83	74.9367	2,548.83	69.8326	2,548.83	75.2917	2,548.83	71.8019	2,548.83	76.2528	2,548.83	71.7877	2,548.83	73.1177	2,548.83	71.8318	2,548.83	73.8635	2,548.83	70.2144	2,548.83	70.8594	2,548.83	71.0533	2,548.83	67.8931	2,548.83	67.8384	2,548.83	62.666	2,548.83	65.8844	2,548.83	68.4976	2,548.83	62.7541	2,548.83	72.3658	2,548.83	69.3726
2,639.65	85.7926	2,639.65	84.8055	2,639.65	85.1953	2,639.65	81.9558	2,639.65	82.2358	2,639.65	77.0316	2,639.65	75.8024	2,639.65	73.2189	2,639.65	68.3631	2,639.65	76.9251	2,639.65	76.1926	2,639.65	77.3085	2,639.65	77.6535	2,639.65	77.8357	2,639.65	75.6118	2,639.65	75.9114	2,639.65	78.7664	2,639.65	75.2043	2,639.65	77.1824	2,639.65	72.4908	2,639.65	74.5536	2,639.65	70.9484	2,639.65	65.1862	2,639.65	72.9247	2,639.65	72.6837	2,639.65	69.8906	2,639.65	67.0754	2,639.65	71.1107	2,639.65	69.7276	2,639.65	68.3422	2,639.65	66.3375	2,639.65	63.2619	2,639.65	69.4963	2,639.65	57.7158	2,639.65	72.8063	2,639.65	67.2329
2,731.93	85.0449	2,731.93	84.7311	2,731.93	84.3468	2,731.93	80.7699	2,731.93	81.5645	2,731.93	74.0777	2,731.93	74.5961	2,731.93	74.9552	2,731.93	70.2648	2,731.93	78.1506	2,731.93	78.9778	2,731.93	78.3666	2,731.93	79.7919	2,731.93	79.6312	2,731.93	75.0001	2,731.93	75.5292	2,731.93	75.1226	2,731.93	72.7159	2,731.93	75.5691	2,731.93	73.2947	2,731.93	72.0576	2,731.93	71.9753	2,731.93	69.5254	2,731.93	71.0106	2,731.93	68.2391	2,731.93	72.6982	2,731.93	68.9642	2,731.93	70.8691	2,731.93	68.5306	2,731.93	68.7573	2,731.93	65.247	2,731.93	63.0607	2,731.93	67.3907	2,731.93	62.2877	2,731.93	72.0598	2,731.93	67.9072
2,828.61	86.3146	2,828.61	84.7242	2,828.61	84.2046	2,828.61	80.6208	2,828.61	80.6915	2,828.61	72.3453	2,828.61	71.6778	2,828.61	75.9788	2,828.61	75.7707	2,828.61	78.381	2,828.61	80.2286	2,828.61	79.2183	2,828.61	79.1847	2,828.61	76.3496	2,828.61	78.1637	2,828.61	76.4606	2,828.61	75.5718	2,828.61	72.3358	2,828.61	71.679	2,828.61	72.2977	2,828.61	65.1301	2,828.61	70.4599	2,828.61	69.751	2,828.61	73.0677	2,828.61	70.5943	2,828.61	71.431	2,828.61	69.8763	2,828.61	72.0111	2,828.61	67.2677	2,828.61	69.8374	2,828.61	61.7575	2,828.61	63.1608	2,828.61	64.8915	2,828.61	60.816	2,828.61	71.856	2,828.61	64.7125
2,928.22	86.8702	2,928.22	84.8819	2,928.22	85.1313	2,928.22	79.4633	2,928.22	79.5516	2,928.22	57.0735	2,928.22	69.5043	2,928.22	75.9778	2,928.22	78.4262	2,928.22	77.915	2,928.22	81.8682	2,928.22	78.7241	2,928.22	80.211	2,928.22	75.7974	2,928.22	79.9861	2,928.22	73.4514	2,928.22	74.4041	2,928.22	73.1395	2,928.22	64.7507	2,928.22	72.9213	2,928.22	70.4352	2,928.22	71.9188	2,928.22	74.9561	2,928.22	69.798	2,928.22	71.5003	2,928.22	71.5426	2,928.22	66.8187	2,928.22	70.7575	2,928.22	61.8288	2,928.22	68.0123	2,928.22	63.3895	2,928.22	63.4724	2,928.22	65.1263	2,928.22	64.9216	2,928.22	70.9207	2,928.22	68.8331
3,030.76	85.8367	3,030.76	83.7522	3,030.76	85.256	3,030.76	79.7356	3,030.76	80.5547	3,030.76	67.8162	3,030.76	69.7211	3,030.76	75.4295	3,030.76	79.5849	3,030.76	79.3435	3,030.76	82.9762	3,030.76	78.1735	3,030.76	80.884	3,030.76	76.9163	3,030.76	80.0027	3,030.76	77.8317	3,030.76	70.5723	3,030.76	75.6091	3,030.76	69.5095	3,030.76	73.0451	3,030.76	73.8125	3,030.76	69.2712	3,030.76	76.8413	3,030.76	71.502	3,030.76	69.7915	3,030.76	71.0949	3,030.76	71.022	3,030.76	71.814	3,030.76	64.2314	3,030.76	69.2584	3,030.76	63.6558	3,030.76	65.2382	3,030.76	62.7269	3,030.76	58.8572	3,030.76	71.1548	3,030.76	67.0367
3,137.7	85.2752	3,137.7	84.403	3,137.7	84.9735	3,137.7	79.7372	3,137.7	80.0723	3,137.7	69.241	3,137.7	71.5332	3,137.7	78.0959	3,137.7	80.0657	3,137.7	80.379	3,137.7	83.3518	3,137.7	79.557	3,137.7	82.5271	3,137.7	78.7707	3,137.7	80.3389	3,137.7	76.4121	3,137.7	72.4115	3,137.7	71.8087	3,137.7	74.4633	3,137.7	70.4337	3,137.7	73.6112	3,137.7	71.9731	3,137.7	72.7725	3,137.7	71.7483	3,137.7	66.5194	3,137.7	72.607	3,137.7	72.8036	3,137.7	72.0861	3,137.7	63.3647	3,137.7	68.8577	3,137.7	62.3727	3,137.7	65.951	3,137.7	65.7826	3,137.7	63.3951	3,137.7	72.0204	3,137.7	67.1006
3,249.02	84.7513	3,249.02	84.8626	3,249.02	84.6309	3,249.02	79.049	3,249.02	80.9849	3,249.02	76.7557	3,249.02	73.3492	3,249.02	79.9426	3,249.02	81.217	3,249.02	80.506	3,249.02	83.4406	3,249.02	78.5741	3,249.02	82.4059	3,249.02	77.826	3,249.02	81.1692	3,249.02	74.27	3,249.02	76.8265	3,249.02	75.0842	3,249.02	76.3588	3,249.02	72.3666	3,249.02	72.3188	3,249.02	72.0788	3,249.02	67.4087	3,249.02	71.0303	3,249.02	64.4806	3,249.02	71.1713	3,249.02	72.5118	3,249.02	71.2043	3,249.02	64.4579	3,249.02	69.303	3,249.02	56.572	3,249.02	65.2681	3,249.02	66.8983	3,249.02	63.2577	3,249.02	71.5234	3,249.02	68.5107
3,363.28	85.3584	3,363.28	84.719	3,363.28	83.2468	3,363.28	78.5025	3,363.28	81.4151	3,363.28	79.747	3,363.28	78.3546	3,363.28	80.767	3,363.28	81.9663	3,363.28	80.0813	3,363.28	82.3481	3,363.28	80.0031	3,363.28	82.4585	3,363.28	77.13	3,363.28	81.3314	3,363.28	78.115	3,363.28	78.5346	3,363.28	76.4612	3,363.28	77.3329	3,363.28	72.412	3,363.28	71.1207	3,363.28	71.1105	3,363.28	61.9839	3,363.28	69.9239	3,363.28	70.1913	3,363.28	71.0817	3,363.28	70.9482	3,363.28	72.2745	3,363.28	66.754	3,363.28	68.8053	3,363.28	54.813	3,363.28	67.6959	3,363.28	64.8346	3,363.28	62.0726	3,363.28	70.7949	3,363.28	69.271
3,481.93	86.4035	3,481.93	85.0842	3,481.93	83.6233	3,481.93	81.6975	3,481.93	81.6253	3,481.93	81.1952	3,481.93	80.3623	3,481.93	80.8795	3,481.93	81.8443	3,481.93	80.389	3,481.93	82.5038	3,481.93	80.0143	3,481.93	84.0087	3,481.93	79.5011	3,481.93	80.3661	3,481.93	78.3012	3,481.93	79.8411	3,481.93	73.0128	3,481.93	76.2725	3,481.93	73.2526	3,481.93	56.8155	3,481.93	72.5831	3,481.93	66.2581	3,481.93	72.6994	3,481.93	70.4233	3,481.93	70.6125	3,481.93	69.3049	3,481.93	72.1149	3,481.93	67.7729	3,481.93	69.54	3,481.93	51.01	3,481.93	67.9246	3,481.93	66.3856	3,481.93	63.6763	3,481.93	70.382	3,481.93	67.3889
3,604.98	86.5596	3,604.98	84.9445	3,604.98	84.1353	3,604.98	83.2404	3,604.98	81.7519	3,604.98	82.4024	3,604.98	82.0019	3,604.98	81.1308	3,604.98	82.4119	3,604.98	81.2317	3,604.98	83.1025	3,604.98	80.3945	3,604.98	85.068	3,604.98	79.7738	3,604.98	80.6788	3,604.98	75.7351	3,604.98	77.6668	3,604.98	76.6323	3,604.98	68.8596	3,604.98	73.9205	3,604.98	64.2819	3,604.98	71.5627	3,604.98	64.6598	3,604.98	71.9363	3,604.98	70.3467	3,604.98	70.4396	3,604.98	65.5133	3,604.98	72.1221	3,604.98	67.7628	3,604.98	70.4597	3,604.98	56.7434	3,604.98	67.7198	3,604.98	67.1503	3,604.98	63.084	3,604.98	71.4574	3,604.98	68.3285
3,732.42	86.2914	3,732.42	85.5283	3,732.42	84.0134	3,732.42	84.671	3,732.42	82.1231	3,732.42	82.1834	3,732.42	82.8854	3,732.42	81.6796	3,732.42	83.3088	3,732.42	81.716	3,732.42	83.8383	3,732.42	81.2352	3,732.42	84.5367	3,732.42	79.5323	3,732.42	80.0259	3,732.42	78.2344	3,732.42	74.3983	3,732.42	75.0611	3,732.42	64.9397	3,732.42	71.0796	3,732.42	69.3995	3,732.42	73.6234	3,732.42	65.1254	3,732.42	70.7141	3,732.42	66.316	3,732.42	71.3015	3,732.42	65.3956	3,732.42	70.7452	3,732.42	67.058	3,732.42	69.1777	3,732.42	56.0278	3,732.42	64.3602	3,732.42	67.5557	3,732.42	63.1889	3,732.42	70.1426	3,732.42	69.542
3,864.26	87.0048	3,864.26	85.8857	3,864.26	84.6459	3,864.26	84.6762	3,864.26	81.8229	3,864.26	82.1033	3,864.26	82.7791	3,864.26	82.0406	3,864.26	82.4733	3,864.26	82.9692	3,864.26	84.6538	3,864.26	81.32	3,864.26	84.2475	3,864.26	80.4021	3,864.26	80.0918	3,864.26	78.0367	3,864.26	75.214	3,864.26	75.6523	3,864.26	72.5671	3,864.26	73.834	3,864.26	62.6242	3,864.26	70.9388	3,864.26	64.684	3,864.26	72.6691	3,864.26	66.9263	3,864.26	70.8136	3,864.26	69.0469	3,864.26	71.4733	3,864.26	67.7829	3,864.26	70.5187	3,864.26	55.3985	3,864.26	66.7715	3,864.26	65.1885	3,864.26	63.9862	3,864.26	69.009	3,864.26	69.982
4,000.49	86.8359	4,000.49	85.591	4,000.49	85.4926	4,000.49	85.6274	4,000.49	81.9239	4,000.49	83.443	4,000.49	82.256	4,000.49	83.4617	4,000.49	82.4234	4,000.49	83.7047	4,000.49	85.6028	4,000.49	81.9556	4,000.49	83.3404	4,000.49	80.1509	4,000.49	79.9814	4,000.49	75.9651	4,000.49	72.8718	4,000.49	76.1509	4,000.49	72.1767	4,000.49	72.2509	4,000.49	71.6789	4,000.49	71.1176	4,000.49	66.2355	4,000.49	70.9978	4,000.49	69.0085	4,000.49	70.5574	4,000.49	67.6356	4,000.49	70.5555	4,000.49	69.1364	4,000.49	69.9524	4,000.49	57.55	4,000.49	66.7847	4,000.49	67.4596	4,000.49	62.7866	4,000.49	69.4984	4,000.49	71.2631
4,141.11	86.3304	4,141.11	87.1077	4,141.11	86.0418	4,141.11	85.5097	4,141.11	83.1558	4,141.11	84.4927	4,141.11	82.5324	4,141.11	83.9527	4,141.11	82.6157	4,141.11	84.0999	4,141.11	85.34	4,141.11	81.4858	4,141.11	82.9374	4,141.11	78.7457	4,141.11	77.9309	4,141.11	78.2639	4,141.11	74.8656	4,141.11	74.8082	4,141.11	73.4495	4,141.11	71.6913	4,141.11	77.0025	4,141.11	70.3834	4,141.11	71.3324	4,141.11	70.2884	4,141.11	65.4053	4,141.11	69.105	4,141.11	64.3816	4,141.11	69.5642	4,141.11	69.4732	4,141.11	68.2436	4,141.11	57.9157	4,141.11	65.135	4,141.11	68.2326	4,141.11	62.7684	4,141.11	68.2645	4,141.11	70.0775
4,287.6	85.5389	4,287.6	87.114	4,287.6	85.744	4,287.6	85.7896	4,287.6	84.5712	4,287.6	83.2046	4,287.6	82.7963	4,287.6	84.2026	4,287.6	82.8431	4,287.6	82.5079	4,287.6	84.3608	4,287.6	80.5038	4,287.6	81.4086	4,287.6	79.2506	4,287.6	78.6645	4,287.6	74.6035	4,287.6	77.373	4,287.6	74.0332	4,287.6	75.9295	4,287.6	72.4044	4,287.6	74.8463	4,287.6	69.4854	4,287.6	69.7725	4,287.6	70.4942	4,287.6	64.6041	4,287.6	68.4373	4,287.6	67.5217	4,287.6	69.1949	4,287.6	68.5379	4,287.6	68.5398	4,287.6	62.5091	4,287.6	64.5477	4,287.6	65.4879	4,287.6	65.1421	4,287.6	68.3471	4,287.6	66.975
4,438.48	85.5244	4,438.48	86.1355	4,438.48	85.383	4,438.48	84.5716	4,438.48	85.1015	4,438.48	85.6589	4,438.48	83.8286	4,438.48	83.8274	4,438.48	82.7597	4,438.48	83.0473	4,438.48	82.5693	4,438.48	81.0766	4,438.48	77.8919	4,438.48	77.8757	4,438.48	80.0808	4,438.48	77.0202	4,438.48	79.3216	4,438.48	74.377	4,438.48	73.504	4,438.48	69.971	4,438.48	71.1955	4,438.48	71.9427	4,438.48	62.5618	4,438.48	69.4557	4,438.48	66.6067	4,438.48	68.1583	4,438.48	69.7807	4,438.48	68.277	4,438.48	64.3373	4,438.48	69.1066	4,438.48	63.9682	4,438.48	60.3823	4,438.48	64.7555	4,438.48	63.807	4,438.48	67.6021	4,438.48	68.9947
4,595.21	86.2706	4,595.21	86.9232	4,595.21	83.6034	4,595.21	86.3401	4,595.21	83.6637	4,595.21	84.0683	4,595.21	83.3947	4,595.21	83.5899	4,595.21	82.4379	4,595.21	81.9453	4,595.21	79.8967	4,595.21	80.3643	4,595.21	79.6061	4,595.21	79.296	4,595.21	80.5714	4,595.21	74.4691	4,595.21	80.0335	4,595.21	72.7856	4,595.21	70.4171	4,595.21	70.3235	4,595.21	58.343	4,595.21	67.5144	4,595.21	65.0939	4,595.21	68.8971	4,595.21	66.1162	4,595.21	67.1819	4,595.21	68.5523	4,595.21	65.7841	4,595.21	63.543	4,595.21	66.8918	4,595.21	66.1302	4,595.21	64.444	4,595.21	64.6794	4,595.21	64.2022	4,595.21	67.9908	4,595.21	66.9667
4,756.35	84.6461	4,756.35	86.5738	4,756.35	84.1997	4,756.35	84.9154	4,756.35	84.3198	4,756.35	84.042	4,756.35	82.1659	4,756.35	83.2764	4,756.35	82.1757	4,756.35	82.7131	4,756.35	75.6402	4,756.35	79.4718	4,756.35	81.937	4,756.35	76.1522	4,756.35	81.5782	4,756.35	74.0267	4,756.35	77.8624	4,756.35	71.5939	4,756.35	63.6145	4,756.35	67.0864	4,756.35	65.1551	4,756.35	68.5736	4,756.35	60.4418	4,756.35	66.9639	4,756.35	59.4645	4,756.35	65.268	4,756.35	62.6281	4,756.35	65.8194	4,756.35	64.7044	4,756.35	63.8092	4,756.35	65.6091	4,756.35	59.8783	4,756.35	63.2909	4,756.35	59.9337	4,756.35	67.5049	4,756.35	65.1369
4,924.8	86.1065	4,924.8	85.9777	4,924.8	83.8876	4,924.8	85.0714	4,924.8	84.2952	4,924.8	85.545	4,924.8	83.4402	4,924.8	82.9038	4,924.8	79.6478	4,924.8	82.023	4,924.8	76.5433	4,924.8	79.2466	4,924.8	82.5807	4,924.8	76.749	4,924.8	80.8964	4,924.8	71.8476	4,924.8	74.2035	4,924.8	70.6341	4,924.8	71.0429	4,924.8	70.1608	4,924.8	65.3789	4,924.8	63.452	4,924.8	65.9293	4,924.8	67.889	4,924.8	63.4143	4,924.8	65.862	4,924.8	56.5487	4,924.8	65.6845	4,924.8	63.0362	4,924.8	64.2636	4,924.8	64.3892	4,924.8	64.1879	4,924.8	63.3101	4,924.8	59.2406	4,924.8	67.3726	4,924.8	64.1026
5,097.66	86.1862	5,097.66	86.3053	5,097.66	84.1985	5,097.66	86.7428	5,097.66	85.1212	5,097.66	83.8359	5,097.66	84.2768	5,097.66	83.1386	5,097.66	78.8037	5,097.66	82.1616	5,097.66	78.9388	5,097.66	77.9281	5,097.66	82.4247	5,097.66	74.5875	5,097.66	78.2308	5,097.66	73.5864	5,097.66	74.0884	5,097.66	72.3351	5,097.66	68.4291	5,097.66	68.4902	5,097.66	66.8542	5,097.66	69.4557	5,097.66	70.116	5,097.66	66.063	5,097.66	66.702	5,097.66	68.2219	5,097.66	62.6696	5,097.66	66.4227	5,097.66	64.4472	5,097.66	63.8735	5,097.66	61.5617	5,097.66	60.2396	5,097.66	63.9844	5,097.66	57.8555	5,097.66	66.4559	5,097.66	64.1642
5,277.83	86.6363	5,277.83	86.7984	5,277.83	84.1073	5,277.83	86.3717	5,277.83	84.8883	5,277.83	84.7829	5,277.83	84.2373	5,277.83	84.1309	5,277.83	79.0603	5,277.83	81.0467	5,277.83	80.5387	5,277.83	77.5161	5,277.83	81.6138	5,277.83	77.5573	5,277.83	75.5605	5,277.83	74.0684	5,277.83	74.991	5,277.83	72.2019	5,277.83	69.7744	5,277.83	69.1636	5,277.83	61.4013	5,277.83	68.54	5,277.83	66.8524	5,277.83	67.2114	5,277.83	66.2094	5,277.83	67.0047	5,277.83	66.52	5,277.83	66.7702	5,277.83	65.63	5,277.83	66.2992	5,277.83	63.3589	5,277.83	60.4584	5,277.83	60.3681	5,277.83	54.1266	5,277.83	66.4395	5,277.83	66.3578
5,463.87	86.1122	5,463.87	86.0536	5,463.87	84.3339	5,463.87	86.2309	5,463.87	85.0326	5,463.87	84.7387	5,463.87	82.6269	5,463.87	83.2428	5,463.87	81.1907	5,463.87	80.3713	5,463.87	80.0271	5,463.87	79.0858	5,463.87	78.913	5,463.87	76.2744	5,463.87	76.5114	5,463.87	73.8846	5,463.87	74.7708	5,463.87	72.1297	5,463.87	71.5815	5,463.87	67.659	5,463.87	60.1382	5,463.87	68.3139	5,463.87	68.5411	5,463.87	66.1663	5,463.87	55.7906	5,463.87	66.4727	5,463.87	62.649	5,463.87	64.4513	5,463.87	64.7207	5,463.87	66.7015	5,463.87	62.5031	5,463.87	58.9609	5,463.87	60.7933	5,463.87	56.9002	5,463.87	66.6442	5,463.87	65.1937
5,657.23	86.1425	5,657.23	86.8666	5,657.23	85.4101	5,657.23	86.4678	5,657.23	84.034	5,657.23	84.5339	5,657.23	82.4212	5,657.23	82.8923	5,657.23	82.9889	5,657.23	80.732	5,657.23	80.1279	5,657.23	78.5327	5,657.23	76.7954	5,657.23	77.0442	5,657.23	76.6752	5,657.23	71.2953	5,657.23	73.2544	5,657.23	70.633	5,657.23	69.8994	5,657.23	64.8132	5,657.23	64.619	5,657.23	65.1381	5,657.23	66.4548	5,657.23	63.6214	5,657.23	61.0294	5,657.23	62.9974	5,657.23	63.1965	5,657.23	64.1132	5,657.23	65.4755	5,657.23	64.1904	5,657.23	63.0311	5,657.23	60.0887	5,657.23	58.6158	5,657.23	58.3825	5,657.23	64.3013	5,657.23	65.17
5,856.45	85.7232	5,856.45	86.6766	5,856.45	85.1099	5,856.45	85.4613	5,856.45	83.638	5,856.45	84.9785	5,856.45	84.0628	5,856.45	81.8432	5,856.45	82.8278	5,856.45	81.2363	5,856.45	78.1614	5,856.45	77.7955	5,856.45	77.2963	5,856.45	74.3345	5,856.45	76.1006	5,856.45	71.2221	5,856.45	74.7606	5,856.45	69.3319	5,856.45	64.4243	5,856.45	65.7728	5,856.45	61.7979	5,856.45	63.6937	5,856.45	66.9013	5,856.45	63.7045	5,856.45	58.1842	5,856.45	63.1821	5,856.45	57.1332	5,856.45	60.6829	5,856.45	62.7642	5,856.45	61.8682	5,856.45	63.7975	5,856.45	60.2098	5,856.45	42.3695	5,856.45	57.7159	5,856.45	63.2935	5,856.45	63.7295
6,062.99	85.6898	6,062.99	85.958	6,062.99	84.9567	6,062.99	85.4337	6,062.99	85.2111	6,062.99	84.1865	6,062.99	84.7064	6,062.99	81.5879	6,062.99	82.6601	6,062.99	80.7529	6,062.99	76.1351	6,062.99	75.2728	6,062.99	78.5239	6,062.99	73.4391	6,062.99	76.8543	6,062.99	68.3806	6,062.99	74.7743	6,062.99	66.8286	6,062.99	67.3797	6,062.99	64.3576	6,062.99	60.5053	6,062.99	63.3142	6,062.99	68.8476	6,062.99	63.0639	6,062.99	52.8664	6,062.99	62.5602	6,062.99	59.3306	6,062.99	57.7806	6,062.99	54.6757	6,062.99	58.0442	6,062.99	62.7431	6,062.99	59.7222	6,062.99	60.7245	6,062.99	55.1414	6,062.99	65.4023	6,062.99	60.5638
6,276.86	86.1545	6,276.86	85.7898	6,276.86	84.7093	6,276.86	85.4286	6,276.86	85.5342	6,276.86	82.9516	6,276.86	84.5797	6,276.86	82.0568	6,276.86	80.384	6,276.86	78.9101	6,276.86	74.6351	6,276.86	75.1453	6,276.86	77.1862	6,276.86	72.4981	6,276.86	76.7569	6,276.86	69.2193	6,276.86	73.2596	6,276.86	66.2631	6,276.86	68.2161	6,276.86	62.7412	6,276.86	56.2795	6,276.86	61.3605	6,276.86	67.7156	6,276.86	62.734	6,276.86	50.7201	6,276.86	62.3057	6,276.86	62.3225	6,276.86	60.1622	6,276.86	53.8698	6,276.86	58.0681	6,276.86	61.5594	6,276.86	60.4566	6,276.86	59.6977	6,276.86	52.8898	6,276.86	64.5423	6,276.86	61.3912
6,498.05	85.5012	6,498.05	85.2742	6,498.05	84.444	6,498.05	84.7786	6,498.05	83.6799	6,498.05	82.8778	6,498.05	83.7777	6,498.05	81.2636	6,498.05	78.9739	6,498.05	77.7723	6,498.05	75.8112	6,498.05	75.0454	6,498.05	75.2075	6,498.05	71.7078	6,498.05	76.1946	6,498.05	69.2424	6,498.05	70.6738	6,498.05	66.3501	6,498.05	65.9276	6,498.05	63.5221	6,498.05	54.7302	6,498.05	62.0416	6,498.05	63.8126	6,498.05	61.1964	6,498.05	54.9279	6,498.05	63.5363	6,498.05	53.9416	6,498.05	58.5099	6,498.05	57.4255	6,498.05	59.6668	6,498.05	60.9698	6,498.05	59.5614	6,498.05	57.5598	6,498.05	55.0817	6,498.05	63.0885	6,498.05	60.0925
6,726.56	85.6629	6,726.56	85.3799	6,726.56	84.8468	6,726.56	84.6857	6,726.56	83.2526	6,726.56	82.5142	6,726.56	82.5949	6,726.56	80.5546	6,726.56	80.1786	6,726.56	77.3187	6,726.56	75.7817	6,726.56	74.5936	6,726.56	74.7938	6,726.56	71.2713	6,726.56	73.8012	6,726.56	66.6108	6,726.56	65.9748	6,726.56	62.995	6,726.56	65.5404	6,726.56	60.5595	6,726.56	59.8054	6,726.56	58.933	6,726.56	52.4423	6,726.56	59.0755	6,726.56	39.059	6,726.56	58.7894	6,726.56	53.9077	6,726.56	57.423	6,726.56	57.8326	6,726.56	61.1622	6,726.56	61.2362	6,726.56	53.5111	6,726.56	54.2906	6,726.56	54.0214	6,726.56	62.0795	6,726.56	60.4479
6,963.87	85.6471	6,963.87	85.6681	6,963.87	85.9092	6,963.87	84.182	6,963.87	84.693	6,963.87	82.2338	6,963.87	81.2399	6,963.87	79.3865	6,963.87	81.1755	6,963.87	77.2074	6,963.87	74.3659	6,963.87	73.0534	6,963.87	74.556	6,963.87	69.9384	6,963.87	69.8728	6,963.87	65.0704	6,963.87	68.1466	6,963.87	61.213	6,963.87	66.0702	6,963.87	60.1871	6,963.87	50.5666	6,963.87	54.5854	6,963.87	61.2706	6,963.87	56.7031	6,963.87	47.3975	6,963.87	58.0336	6,963.87	44.2116	6,963.87	55.3994	6,963.87	60.8648	6,963.87	59.5336	6,963.87	61.8584	6,963.87	55.3299	6,963.87	52.7824	6,963.87	56.0564	6,963.87	60.6089	6,963.87	60.174
7,209.96	84.9013	7,209.96	85.3386	7,209.96	85.382	7,209.96	83.6394	7,209.96	84.4072	7,209.96	81.7649	7,209.96	80.9183	7,209.96	78.4276	7,209.96	80.8558	7,209.96	76.5716	7,209.96	73.0808	7,209.96	71.4484	7,209.96	72.7229	7,209.96	67.1038	7,209.96	68.3931	7,209.96	63.1186	7,209.96	71.292	7,209.96	61.1142	7,209.96	65.48	7,209.96	59.5395	7,209.96	53.6939	7,209.96	58.7757	7,209.96	63.519	7,209.96	59.159	7,209.96	45.5656	7,209.96	58.0523	7,209.96	57.7845	7,209.96	55.814	7,209.96	60.6524	7,209.96	58.3815	7,209.96	59.4639	7,209.96	59.1934	7,209.96	53.5522	7,209.96	56.391	7,209.96	60.9773	7,209.96	59.3261
7,464.84	85.1121	7,464.84	85.1845	7,464.84	84.8274	7,464.84	83.3429	7,464.84	83.3253	7,464.84	81.1502	7,464.84	81.2766	7,464.84	78.665	7,464.84	79.715	7,464.84	75.1178	7,464.84	72.2324	7,464.84	70.1307	7,464.84	67.157	7,464.84	64.6546	7,464.84	71.7097	7,464.84	63.2429	7,464.84	70.5674	7,464.84	61.0392	7,464.84	66.4156	7,464.84	57.9177	7,464.84	60.4126	7,464.84	58.5736	7,464.84	61.2878	7,464.84	59.5389	7,464.84	49.5083	7,464.84	60.0513	7,464.84	55.3824	7,464.84	57.0895	7,464.84	57.6479	7,464.84	58.4902	7,464.84	58.1902	7,464.84	60.1528	7,464.84	48.6298	7,464.84	58.4434	7,464.84	60.247	7,464.84	57.531
7,727.05	85.491	7,727.05	84.5973	7,727.05	84.6915	7,727.05	82.8901	7,727.05	83.1711	7,727.05	80.6388	7,727.05	81.1812	7,727.05	77.8806	7,727.05	77.2031	7,727.05	73.4	7,727.05	72.9502	7,727.05	68.9907	7,727.05	64.0535	7,727.05	65.6889	7,727.05	73.2351	7,727.05	64.271	7,727.05	64.3755	7,727.05	62.6654	7,727.05	65.0013	7,727.05	56.2669	7,727.05	58.5279	7,727.05	58.5487	7,727.05	59.9399	7,727.05	57.265	7,727.05	52.6816	7,727.05	59.7374	7,727.05	54.1556	7,727.05	59.0323	7,727.05	52.5671	7,727.05	57.3693	7,727.05	58.6871	7,727.05	60.3322	7,727.05	49.2633	7,727.05	58.155	7,727.05	59.3414	7,727.05	56.2035
7,999.51	85.2405	7,999.51	84.3434	7,999.51	84.6454	7,999.51	82.6215	7,999.51	82.7947	7,999.51	79.9458	7,999.51	80.293	7,999.51	76.7293	7,999.51	77.477	7,999.51	72.155	7,999.51	71.3604	7,999.51	68.1197	7,999.51	69.2786	7,999.51	65.7113	7,999.51	67.7706	7,999.51	64.1888	7,999.51	65.6133	7,999.51	62.2885	7,999.51	65.0718	7,999.51	58.1463	7,999.51	63.3878	7,999.51	57.4271	7,999.51	53.6257	7,999.51	55.7874	7,999.51	52.089	7,999.51	58.5668	7,999.51	52.6772	7,999.51	57.4957	7,999.51	53.6254	7,999.51	58.0109	7,999.51	57.7794	7,999.51	59.4447	7,999.51	48.598	7,999.51	58.3101	7,999.51	58.2526	7,999.51	52.3644
8,282.23	85.1251	8,282.23	83.9678	8,282.23	84.3271	8,282.23	82.3315	8,282.23	82.7081	8,282.23	79.1281	8,282.23	77.9281	8,282.23	75.8233	8,282.23	77.6038	8,282.23	71.182	8,282.23	70.4175	8,282.23	67.536	8,282.23	69.5615	8,282.23	64.2576	8,282.23	58.2682	8,282.23	62.5439	8,282.23	68.5412	8,282.23	58.9491	8,282.23	61.2053	8,282.23	59.703	8,282.23	55.3561	8,282.23	52.7176	8,282.23	48.5948	8,282.23	57.947	8,282.23	41.9303	8,282.23	58.0679	8,282.23	52.3463	8,282.23	54.242	8,282.23	56.9049	8,282.23	58.7051	8,282.23	57.7463	8,282.23	59.9356	8,282.23	47.0558	8,282.23	59.026	8,282.23	56.4132	8,282.23	54.1926
8,573.73	85.0117	8,573.73	84.0138	8,573.73	84.4043	8,573.73	82.2723	8,573.73	82.3425	8,573.73	78.8089	8,573.73	77.8097	8,573.73	75.3284	8,573.73	76.7763	8,573.73	70.8552	8,573.73	71.2856	8,573.73	67.005	8,573.73	67.7517	8,573.73	62.8225	8,573.73	66.391	8,573.73	62.9866	8,573.73	68.0988	8,573.73	57.3769	8,573.73	61.9236	8,573.73	58.1377	8,573.73	55.9927	8,573.73	51.8173	8,573.73	49.286	8,573.73	57.6082	8,573.73	40.2868	8,573.73	56.8056	8,573.73	50.3031	8,573.73	55.1421	8,573.73	55.4541	8,573.73	57.4964	8,573.73	53.9028	8,573.73	59.1027	8,573.73	47.7791	8,573.73	57.6437	8,573.73	53.8148	8,573.73	49.7484
8,876.95	85.0301	8,876.95	84.1772	8,876.95	84.498	8,876.95	82.0946	8,876.95	82.7738	8,876.95	79.0201	8,876.95	78.894	8,876.95	74.7915	8,876.95	76.6297	8,876.95	70.9771	8,876.95	73.1631	8,876.95	65.7768	8,876.95	63.5478	8,876.95	63.8384	8,876.95	69.4935	8,876.95	61.5436	8,876.95	62.7805	8,876.95	54.6404	8,876.95	61.0271	8,876.95	53.3357	8,876.95	47.0038	8,876.95	52.5601	8,876.95	47.1439	8,876.95	54.2825	8,876.95	39.702	8,876.95	52.7089	8,876.95	50.9464	8,876.95	54.5112	8,876.95	54.5591	8,876.95	54.6644	8,876.95	52.8083	8,876.95	58.2228	8,876.95	47.252	8,876.95	57.2634	8,876.95	53.4793	8,876.95	52.1725
9,188.96	85.1057	9,188.96	84.3269	9,188.96	84.5179	9,188.96	82.2972	9,188.96	82.56	9,188.96	78.8978	9,188.96	79.107	9,188.96	74.4	9,188.96	74.8178	9,188.96	69.8445	9,188.96	72.8041	9,188.96	64.9886	9,188.96	60.7569	9,188.96	61.3354	9,188.96	66.0744	9,188.96	57.0926	9,188.96	56.5995	9,188.96	51.1435	9,188.96	56.6729	9,188.96	50.311	9,188.96	49.7904	9,188.96	52.5113	9,188.96	46.8745	9,188.96	51.241	9,188.96	34.5729	9,188.96	50.2085	9,188.96	49.0739	9,188.96	53.7066	9,188.96	53.5553	9,188.96	50.5566	9,188.96	53.2514	9,188.96	57.5096	9,188.96	38.8132	9,188.96	56.2163	9,188.96	51.2379	9,188.96	49.3231
9,514.16	84.9131	9,514.16	84.1758	9,514.16	84.2839	9,514.16	82.3106	9,514.16	81.9115	9,514.16	78.4582	9,514.16	78.0429	9,514.16	73.7022	9,514.16	74.0359	9,514.16	67.8335	9,514.16	69.9604	9,514.16	62.6282	9,514.16	62.7833	9,514.16	53.8885	9,514.16	59.721	9,514.16	53.6741	9,514.16	55.9953	9,514.16	51.7886	9,514.16	52.5206	9,514.16	50.0224	9,514.16	51.0302	9,514.16	48.1226	9,514.16	47.3633	9,514.16	49.1185	9,514.16	36.41	9,514.16	49.6102	9,514.16	42.6059	9,514.16	48.8307	9,514.16	52.9987	9,514.16	49.7469	9,514.16	50.916	9,514.16	56.4773	9,514.16	44.6886	9,514.16	56.1454	9,514.16	52.315	9,514.16	50.2319
9,849.61	84.858	9,849.61	83.9344	9,849.61	84.0419	9,849.61	82.0722	9,849.61	81.8817	9,849.61	77.8082	9,849.61	76.7527	9,849.61	72.5287	9,849.61	74.0734	9,849.61	65.2133	9,849.61	66.7553	9,849.61	56.5349	9,849.61	59.1542	9,849.61	51.0515	9,849.61	56.8479	9,849.61	55.0941	9,849.61	54.0523	9,849.61	52.2544	9,849.61	52.5446	9,849.61	51.5947	9,849.61	44.3918	9,849.61	47.9011	9,849.61	49.1193	9,849.61	49.3802	9,849.61	47.7321	9,849.61	47.0594	9,849.61	40.6854	9,849.61	46.8735	9,849.61	48.1359	9,849.61	47.5188	9,849.61	49.1281	9,849.61	55.6847	9,849.61	47.5822	9,849.61	54.8057	9,849.61	51.5642	9,849.61	50.1793
10,196.8	84.9615	10,196.8	83.8436	10,196.8	83.9975	10,196.8	81.8333	10,196.8	81.6675	10,196.8	76.9528	10,196.8	76.7052	10,196.8	70.6212	10,196.8	72.8147	10,196.8	61.5366	10,196.8	64.0225	10,196.8	54.8771	10,196.8	49.7188	10,196.8	56.4003	10,196.8	59.3878	10,196.8	55.2303	10,196.8	55.4298	10,196.8	53.0507	10,196.8	54.0726	10,196.8	51.5	10,196.8	38.2816	10,196.8	47.6486	10,196.8	48.1509	10,196.8	51.3718	10,196.8	49.5925	10,196.8	50.0892	10,196.8	43.1335	10,196.8	49.0111	10,196.8	45.7885	10,196.8	43.8776	10,196.8	48.3539	10,196.8	54.5823	10,196.8	45.0201	10,196.8	55.0879	10,196.8	49.6879	10,196.8	50.2294
10,555.7	85.0701	10,555.7	84.0597	10,555.7	84.0173	10,555.7	81.6539	10,555.7	81.1358	10,555.7	76.2224	10,555.7	76.2721	10,555.7	68.4554	10,555.7	71.4952	10,555.7	61.3667	10,555.7	64.1546	10,555.7	60.3079	10,555.7	54.7001	10,555.7	58.9113	10,555.7	62.4467	10,555.7	60.4446	10,555.7	60.3277	10,555.7	57.3197	10,555.7	57.8564	10,555.7	53.6073	10,555.7	47.4179	10,555.7	51.9975	10,555.7	34.0895	10,555.7	54.2314	10,555.7	43.1746	10,555.7	53.4933	10,555.7	44.0988	10,555.7	51.2803	10,555.7	46.9011	10,555.7	48.0408	10,555.7	45.0315	10,555.7	55.5858	10,555.7	45.7271	10,555.7	55.2936	10,555.7	48.1934	10,555.7	49.6926
10,927.7	85.2206	10,927.7	84.3703	10,927.7	83.9737	10,927.7	81.6611	10,927.7	80.8447	10,927.7	75.1431	10,927.7	75.5343	10,927.7	66.5201	10,927.7	68.0535	10,927.7	63.5587	10,927.7	66.9097	10,927.7	64.9953	10,927.7	65.4248	10,927.7	64.0308	10,927.7	64.7738	10,927.7	61.6999	10,927.7	61.8305	10,927.7	58.5683	10,927.7	56.0312	10,927.7	54.0584	10,927.7	54.3932	10,927.7	53.5494	10,927.7	49.278	10,927.7	53.9291	10,927.7	37.3276	10,927.7	54.9005	10,927.7	45.7126	10,927.7	52.9084	10,927.7	48.432	10,927.7	50.7228	10,927.7	43.2639	10,927.7	55.3508	10,927.7	45.2382	10,927.7	55.2127	10,927.7	45.9036	10,927.7	51.5373
11,313	85.1565	11,313	84.3065	11,313	83.9322	11,313	81.466	11,313	80.6395	11,313	73.5697	11,313	74.0121	11,313	68.4068	11,313	67.9352	11,313	66.8529	11,313	68.9621	11,313	68.6385	11,313	68.8792	11,313	64.9292	11,313	63.4433	11,313	63.2183	11,313	65.3938	11,313	60.4619	11,313	58.9464	11,313	54.8446	11,313	54.8018	11,313	53.042	11,313	54.12	11,313	53.68	11,313	41.5697	11,313	56.3642	11,313	43.1435	11,313	52.1185	11,313	43.8624	11,313	53.404	11,313	45.1484	11,313	55.0421	11,313	45.7224	11,313	54.4078	11,313	45.8179	11,313	50.7948
11,712.9	85.2935	11,712.9	84.2295	11,712.9	83.9815	11,712.9	80.8709	11,712.9	80.7316	11,712.9	74.4837	11,712.9	72.6866	11,712.9	70.2592	11,712.9	71.2193	11,712.9	70.0238	11,712.9	71.678	11,712.9	69.2157	11,712.9	69.8979	11,712.9	66.0838	11,712.9	64.0251	11,712.9	63.4601	11,712.9	66.1767	11,712.9	59.1828	11,712.9	58.4916	11,712.9	53.3124	11,712.9	51.3544	11,712.9	53.2112	11,712.9	54.67	11,712.9	54.9395	11,712.9	48.2517	11,712.9	56.1125	11,712.9	47.2163	11,712.9	50.7745	11,712.9	48.0494	11,712.9	53.3362	11,712.9	44.7595	11,712.9	54.9846	11,712.9	23.4818	11,712.9	54.0771	11,712.9	47.0471	11,712.9	51.0681
12,126	85.5009	12,126	84.4712	12,126	84.2397	12,126	80.4542	12,126	80.8072	12,126	75.4127	12,126	76.0139	12,126	71.9634	12,126	71.5371	12,126	70.7381	12,126	72.6319	12,126	69.6904	12,126	71.034	12,126	64.5432	12,126	64.5084	12,126	61.8127	12,126	64.1758	12,126	58.5009	12,126	52.9469	12,126	54.9595	12,126	7.90579	12,126	53.0407	12,126	52.5311	12,126	54.1124	12,126	46.4479	12,126	55.6485	12,126	40.601	12,126	50.5965	12,126	44.5444	12,126	52.8433	12,126	42.319	12,126	55.2414	12,126	47.3237	12,126	53.3236	12,126	46.9159	12,126	49.0585
12,553.7	85.8482	12,553.7	84.7132	12,553.7	84.3753	12,553.7	80.8261	12,553.7	81.1993	12,553.7	75.9495	12,553.7	75.6594	12,553.7	72.7603	12,553.7	73.0478	12,553.7	71.0976	12,553.7	72.8089	12,553.7	69.2613	12,553.7	69.9358	12,553.7	63.837	12,553.7	60.0576	12,553.7	61.4268	12,553.7	65.0636	12,553.7	57.3531	12,553.7	55.3349	12,553.7	50.7424	12,553.7	53.7184	12,553.7	53.3037	12,553.7	45.9015	12,553.7	54.6718	12,553.7	18.9743	12,553.7	55.0718	12,553.7	41.618	12,553.7	51.2239	12,553.7	19.2455	12,553.7	55.1845	12,553.7	44.1965	12,553.7	54.9762	12,553.7	43.8515	12,553.7	50.6335	12,553.7	44.5006	12,553.7	44.4785
12,996.1	86.0763	12,996.1	84.784	12,996.1	84.4061	12,996.1	81.2226	12,996.1	80.9921	12,996.1	76.4254	12,996.1	74.9737	12,996.1	73.5214	12,996.1	74.5343	12,996.1	71.987	12,996.1	73.727	12,996.1	68.728	12,996.1	69.2549	12,996.1	63.0685	12,996.1	61.197	12,996.1	61.8579	12,996.1	63.3369	12,996.1	59.7098	12,996.1	54.2931	12,996.1	53.821	12,996.1	47.5656	12,996.1	53.6692	12,996.1	51.8536	12,996.1	56.2064	12,996.1	50.0217	12,996.1	55.548	12,996.1	36.0797	12,996.1	53.8536	12,996.1	39.9425	12,996.1	55.8105	12,996.1	41.8415	12,996.1	54.0762	12,996.1	48.1608	12,996.1	51.7468	12,996.1	38.2018	12,996.1	48.0521
13,454.6	86.5312	13,454.6	85.0431	13,454.6	84.7324	13,454.6	81.4214	13,454.6	81.4062	13,454.6	76.8189	13,454.6	77.9236	13,454.6	74.7056	13,454.6	74.913	13,454.6	72.4437	13,454.6	72.3527	13,454.6	69.0352	13,454.6	68.5025	13,454.6	64.9679	13,454.6	56.85	13,454.6	63.7746	13,454.6	64.0711	13,454.6	59.7378	13,454.6	54.7833	13,454.6	54.9946	13,454.6	50.5153	13,454.6	52.7706	13,454.6	50.17	13,454.6	56.9326	13,454.6	47.8202	13,454.6	57.0344	13,454.6	40.8348	13,454.6	54.2208	13,454.6	38.255	13,454.6	55.3144	13,454.6	44.8336	13,454.6	55.7634	13,454.6	44.8536	13,454.6	53.7794	13,454.6	34.3901	13,454.6	49.4257
13,929.2	86.8947	13,929.2	85.2042	13,929.2	84.8524	13,929.2	81.6857	13,929.2	81.9015	13,929.2	77.3854	13,929.2	77.725	13,929.2	75.8029	13,929.2	74.1794	13,929.2	72.7405	13,929.2	71.2392	13,929.2	69.11	13,929.2	66.4542	13,929.2	65.7875	13,929.2	61.298	13,929.2	63.8403	13,929.2	60.678	13,929.2	60.6768	13,929.2	54.4915	13,929.2	54.8609	13,929.2	54.0547	13,929.2	52.3509	13,929.2	50.5301	13,929.2	57.0784	13,929.2	40.9691	13,929.2	56.6466	13,929.2	38.568	13,929.2	53.4016	13,929.2	35.5252	13,929.2	56.6596	13,929.2	30.8423	13,929.2	56.8378	13,929.2	25.1732	13,929.2	53.165	13,929.2	39.5738	13,929.2	47.2101
14,419.9	87.0468	14,419.9	85.2952	14,419.9	85.1096	14,419.9	82.1579	14,419.9	81.8267	14,419.9	77.489	14,419.9	77.8481	14,419.9	76.1311	14,419.9	74.2098	14,419.9	72.6095	14,419.9	71.5805	14,419.9	68.4806	14,419.9	62.5301	14,419.9	65.6744	14,419.9	63.9615	14,419.9	62.8279	14,419.9	60.3501	14,419.9	58.5667	14,419.9	52.4524	14,419.9	52.3665	14,419.9	57.3339	14,419.9	52.1742	14,419.9	53.8812	14,419.9	56.5548	14,419.9	40.92	14,419.9	54.7755	14,419.9	36.5461	14,419.9	51.9459	14,419.9	37.9005	14,419.9	55.2603	14,419.9	33.2238	14,419.9	55.5624	14,419.9	35.0905	14,419.9	51.5238	14,419.9	44.5908	14,419.9	46.3126
14,928.2	86.6713	14,928.2	85.1293	14,928.2	85.1589	14,928.2	82.2932	14,928.2	82.4596	14,928.2	78.1483	14,928.2	78.5975	14,928.2	76.1756	14,928.2	74.953	14,928.2	71.2973	14,928.2	69.5778	14,928.2	68.7064	14,928.2	64.5418	14,928.2	64.3091	14,928.2	64.0467	14,928.2	62.6199	14,928.2	61.7076	14,928.2	58.405	14,928.2	50.9964	14,928.2	51.9924	14,928.2	57.8611	14,928.2	50.858	14,928.2	54.2137	14,928.2	54.9021	14,928.2	41.612	14,928.2	54.8637	14,928.2	34.2577	14,928.2	50.6511	14,928.2	30.5467	14,928.2	54.6305	14,928.2	37.1341	14,928.2	53.9832	14,928.2	34.244	14,928.2	50.8438	14,928.2	40.149	14,928.2	41.9575
15,455.6	86.4104	15,455.6	84.8909	15,455.6	84.889	15,455.6	82.1855	15,455.6	82.1924	15,455.6	78.5365	15,455.6	78.0984	15,455.6	75.2149	15,455.6	72.7351	15,455.6	70.1678	15,455.6	69.063	15,455.6	67.8857	15,455.6	62.7637	15,455.6	62.7171	15,455.6	65.1319	15,455.6	59.9499	15,455.6	58.9846	15,455.6	56.3975	15,455.6	48.0614	15,455.6	50.3837	15,455.6	58.6132	15,455.6	48.9106	15,455.6	55.5283	15,455.6	53.854	15,455.6	48.7369	15,455.6	53.5864	15,455.6	44.5223	15,455.6	49.3698	15,455.6	34.1927	15,455.6	52.4786	15,455.6	43.3682	15,455.6	52.0934	15,455.6	35.8919	15,455.6	50.4174	15,455.6	40.6281	15,455.6	43.3054
16,000.5	85.9762	16,000.5	84.8462	16,000.5	84.7504	16,000.5	82.037	16,000.5	82.2782	16,000.5	78.3199	16,000.5	77.6347	16,000.5	73.9044	16,000.5	73.1404	16,000.5	69.1978	16,000.5	67.2015	16,000.5	66.4238	16,000.5	63.6059	16,000.5	61.8481	16,000.5	63.572	16,000.5	60.0132	16,000.5	57.3335	16,000.5	56.2134	16,000.5	47.3198	16,000.5	47.8224	16,000.5	60.4873	16,000.5	49.0212	16,000.5	56.9843	16,000.5	52.6095	16,000.5	46.8488	16,000.5	50.0698	16,000.5	44.1509	16,000.5	48.9072	16,000.5	31.9343	16,000.5	51.5555	16,000.5	42.27	16,000.5	50.2399	16,000.5	23.5814	16,000.5	49.1479	16,000.5	41.9716	16,000.5	42.2034
16,564.5	85.5526	16,564.5	84.7319	16,564.5	84.6922	16,564.5	81.9486	16,564.5	82.1592	16,564.5	77.8443	16,564.5	77.3523	16,564.5	72.1189	16,564.5	71.2589	16,564.5	67.7857	16,564.5	65.0183	16,564.5	63.6266	16,564.5	64.1051	16,564.5	59.4521	16,564.5	61.9682	16,564.5	57.7982	16,564.5	55.8694	16,564.5	53.7043	16,564.5	38.1029	16,564.5	44.881	16,564.5	59.913	16,564.5	46.4226	16,564.5	55.5629	16,564.5	49.6202	16,564.5	41.7024	16,564.5	47.5769	16,564.5	40.6762	16,564.5	45.4428	16,564.5	36.8754	16,564.5	49.2764	16,564.5	38.9556	16,564.5	47.3763	16,564.5	37.1129	16,564.5	46.7069	16,564.5	42.9043	16,564.5	40.8087
17,148.9	85.6364	17,148.9	84.5484	17,148.9	84.803	17,148.9	81.6627	17,148.9	81.9228	17,148.9	76.8003	17,148.9	76.3472	17,148.9	70.3649	17,148.9	69.6362	17,148.9	65.0834	17,148.9	61.3708	17,148.9	58.7557	17,148.9	59.7556	17,148.9	56.0716	17,148.9	57.1504	17,148.9	53.7352	17,148.9	45.4871	17,148.9	48.8595	17,148.9	33.7938	17,148.9	39.0093	17,148.9	58.8828	17,148.9	39.5391	17,148.9	55.0552	17,148.9	43.7342	17,148.9	42.279	17,148.9	42.9462	17,148.9	32.7446	17,148.9	39.5081	17,148.9	29.0961	17,148.9	43.9011	17,148.9	38.6241	17,148.9	39.153	17,148.9	34.2892	17,148.9	42.7489	17,148.9	38.2931	17,148.9	36.8349
17,752.4	86.0418	17,752.4	84.6354	17,752.4	84.9875	17,752.4	81.2	17,752.4	81.5873	17,752.4	75.4737	17,752.4	74.9551	17,752.4	67.7795	17,752.4	66.3988	17,752.4	59.2018	17,752.4	55.005	17,752.4	49.7425	17,752.4	57.0773	17,752.4	49.9341	17,752.4	51.6086	17,752.4	40.8145	17,752.4	45.6693	17,752.4	36.9139	17,752.4	34.7025	17,752.4	30.127	17,752.4	58.7522	17,752.4	34.2812	17,752.4	55.4825	17,752.4	30.6458	17,752.4	43.5878	17,752.4	29.1736	17,752.4	34.2557	17,752.4	32.5165	17,752.4	26.3495	17,752.4	30.0258	17,752.4	36.4508	17,752.4	26.4362	17,752.4	33.6726	17,752.4	32.8649	17,752.4	35.3591	17,752.4	41.6339
18,379.4	86.3313	18,379.4	84.8254	18,379.4	84.967	18,379.4	80.7626	18,379.4	80.9136	18,379.4	73.6818	18,379.4	73.0641	18,379.4	64.065	18,379.4	62.4323	18,379.4	51.7562	18,379.4	53.4171	18,379.4	50.478	18,379.4	57.4599	18,379.4	44.9957	18,379.4	52.6146	18,379.4	41.7622	18,379.4	42.0512	18,379.4	21.9485	18,379.4	41.4059	18,379.4	36.5066	18,379.4	59.2267	18,379.4	21.0875	18,379.4	57.0465	18,379.4	31.848	18,379.4	46.265	18,379.4	37.4403	18,379.4	15.2871	18,379.4	31.7801	18,379.4	23.3342	18,379.4	35.9742	18,379.4	33.5723	18,379.4	37.2704	18,379.4	26.5265	18,379.4	35.236	18,379.4	30.9259	18,379.4	43.3475
19,026.9	86.4076	19,026.9	84.7852	19,026.9	84.6776	19,026.9	80.2699	19,026.9	79.9331	19,026.9	71.6759	19,026.9	70.9194	19,026.9	59.3857	19,026.9	55.0765	19,026.9	57.2503	19,026.9	57.1382	19,026.9	55.6684	19,026.9	59.4695	19,026.9	49.6285	19,026.9	52.6162	19,026.9	47.1834	19,026.9	44.1768	19,026.9	40.3027	19,026.9	43.3401	19,026.9	38.6049	19,026.9	59.5522	19,026.9	30.6496	19,026.9	57.8729	19,026.9	37.5658	19,026.9	47.7999	19,026.9	41.307	19,026.9	24.6401	19,026.9	35.5856	19,026.9	25.9278	19,026.9	40.5854	19,026.9	30.0592	19,026.9	40.3859	19,026.9	14.9705	19,026.9	37.5884	19,026.9	32.381	19,026.9	43.5141
19,697.8	86.273	19,697.8	84.5026	19,697.8	84.1516	19,697.8	79.5128	19,697.8	78.7322	19,697.8	69.1026	19,697.8	68.499	19,697.8	58.5385	19,697.8	57.2408	19,697.8	59.9554	19,697.8	61.5986	19,697.8	57.3973	19,697.8	59.4367	19,697.8	51.5743	19,697.8	51.9642	19,697.8	48.3012	19,697.8	36.1756	19,697.8	40.5285	19,697.8	47.5267	19,697.8	39.4109	19,697.8	60.0633	19,697.8	15.1915	19,697.8	58.5572	19,697.8	38.0218	19,697.8	48.8824	19,697.8	40.9143	19,697.8	30.826	19,697.8	36.9334	19,697.8	18.5932	19,697.8	40.1176	19,697.8	16.6653	19,697.8	38.3463	19,697.8	12.9669	19,697.8	36.1826	19,697.8	33.4677	19,697.8	41.6653
19,999.5	86.269	19,999.5	84.3081	19,999.5	84.0093	19,999.5	78.8979	19,999.5	78.3567	19,999.5	68.8872	19,999.5	66.8992	19,999.5	59.634	19,999.5	60.4167	19,999.5	61.8098	19,999.5	61.0889	19,999.5	55.0417	19,999.5	60.0911	19,999.5	49.8835	19,999.5	49.6428	19,999.5	49.1946	19,999.5	46.772	19,999.5	38.7839	19,999.5	50.113	19,999.5	42.3255	19,999.5	57.5476	19,999.5	45.6809	19,999.5	55.7808	19,999.5	47.2626	19,999.5	47.0656	19,999.5	44.1623	19,999.5	49.7696	19,999.5	47.1954	19,999.5	45.4026	19,999.5	53.0801	19,999.5	42.2183	19,999.5	46.9279	19,999.5	45.6782	19,999.5	39.2252	19,999.5	42.6193	19,999.5	48.718
