"SPL Horizontal"
"On-Axis"		"10°"		"-10°"		"20°"		"-20°"		"30°"		"-30°"		"40°"		"-40°"		"50°"		"-50°"		"60°"		"-60°"		"70°"		"-70°"		"80°"		"-80°"		"90°"		"-90°"		"100°"		"-100°"		"110°"		"-110°"		"120°"		"-120°"		"130°"		"-130°"		"140°"		"-140°"		"150°"		"-150°"		"160°"		"-160°"		"170°"		"-170°"		"180°"
"Frequency / Hz"	"Sound Pressure Level / dB (re 20 µPa/V)  [2.83  V @ 1. m]"	"Frequency / Hz"	"Sound Pressure Level / dB (re 20 µPa/V)  [2.83  V @ 1. m]"	"Frequency / Hz"	"Sound Pressure Level / dB (re 20 µPa/V)  [2.83  V @ 1. m]"	"Frequency / Hz"	"Sound Pressure Level / dB (re 20 µPa/V)  [2.83  V @ 1. m]"	"Frequency / Hz"	"Sound Pressure Level / dB (re 20 µPa/V)  [2.83  V @ 1. m]"	"Frequency / Hz"	"Sound Pressure Level / dB (re 20 µPa/V)  [2.83  V @ 1. m]"	"Frequency / Hz"	"Sound Pressure Level / dB (re 20 µPa/V)  [2.83  V @ 1. m]"	"Frequency / Hz"	"Sound Pressure Level / dB (re 20 µPa/V)  [2.83  V @ 1. m]"	"Frequency / Hz"	"Sound Pressure Level / dB (re 20 µPa/V)  [2.83  V @ 1. m]"	"Frequency / Hz"	"Sound Pressure Level / dB (re 20 µPa/V)  [2.83  V @ 1. m]"	"Frequency / Hz"	"Sound Pressure Level / dB (re 20 µPa/V)  [2.83  V @ 1. m]"	"Frequency / Hz"	"Sound Pressure Level / dB (re 20 µPa/V)  [2.83  V @ 1. m]"	"Frequency / Hz"	"Sound Pressure Level / dB (re 20 µPa/V)  [2.83  V @ 1. m]"	"Frequency / Hz"	"Sound Pressure Level / dB (re 20 µPa/V)  [2.83  V @ 1. m]"	"Frequency / Hz"	"Sound Pressure Level / dB (re 20 µPa/V)  [2.83  V @ 1. m]"	"Frequency / Hz"	"Sound Pressure Level / dB (re 20 µPa/V)  [2.83  V @ 1. m]"	"Frequency / Hz"	"Sound Pressure Level / dB (re 20 µPa/V)  [2.83  V @ 1. m]"	"Frequency / Hz"	"Sound Pressure Level / dB (re 20 µPa/V)  [2.83  V @ 1. m]"	"Frequency / Hz"	"Sound Pressure Level / dB (re 20 µPa/V)  [2.83  V @ 1. m]"	"Frequency / Hz"	"Sound Pressure Level / dB (re 20 µPa/V)  [2.83  V @ 1. m]"	"Frequency / Hz"	"Sound Pressure Level / dB (re 20 µPa/V)  [2.83  V @ 1. m]"	"Frequency / Hz"	"Sound Pressure Level / dB (re 20 µPa/V)  [2.83  V @ 1. m]"	"Frequency / Hz"	"Sound Pressure Level / dB (re 20 µPa/V)  [2.83  V @ 1. m]"	"Frequency / Hz"	"Sound Pressure Level / dB (re 20 µPa/V)  [2.83  V @ 1. m]"	"Frequency / Hz"	"Sound Pressure Level / dB (re 20 µPa/V)  [2.83  V @ 1. m]"	"Frequency / Hz"	"Sound Pressure Level / dB (re 20 µPa/V)  [2.83  V @ 1. m]"	"Frequency / Hz"	"Sound Pressure Level / dB (re 20 µPa/V)  [2.83  V @ 1. m]"	"Frequency / Hz"	"Sound Pressure Level / dB (re 20 µPa/V)  [2.83  V @ 1. m]"	"Frequency / Hz"	"Sound Pressure Level / dB (re 20 µPa/V)  [2.83  V @ 1. m]"	"Frequency / Hz"	"Sound Pressure Level / dB (re 20 µPa/V)  [2.83  V @ 1. m]"	"Frequency / Hz"	"Sound Pressure Level / dB (re 20 µPa/V)  [2.83  V @ 1. m]"	"Frequency / Hz"	"Sound Pressure Level / dB (re 20 µPa/V)  [2.83  V @ 1. m]"	"Frequency / Hz"	"Sound Pressure Level / dB (re 20 µPa/V)  [2.83  V @ 1. m]"	"Frequency / Hz"	"Sound Pressure Level / dB (re 20 µPa/V)  [2.83  V @ 1. m]"	"Frequency / Hz"	"Sound Pressure Level / dB (re 20 µPa/V)  [2.83  V @ 1. m]"	"Frequency / Hz"	"Sound Pressure Level / dB (re 20 µPa/V)  [2.83  V @ 1. m]"
20.5078	56.8027	20.5078	56.5933	20.5078	57.0182	20.5078	56.3954	20.5078	57.2366	20.5078	56.2191	20.5078	57.4552	20.5078	56.0809	20.5078	57.6702	20.5078	56.003	20.5078	57.8774	20.5078	56.0079	20.5078	58.0729	20.5078	56.1107	20.5078	58.255	20.5078	56.3118	20.5078	58.4256	20.5078	56.5958	20.5078	58.5885	20.5078	56.937	20.5078	58.7464	20.5078	57.3057	20.5078	58.8964	20.5078	57.6731	20.5078	59.0272	20.5078	58.0132	20.5078	59.1219	20.5078	58.3049	20.5078	59.1659	20.5078	58.5358	20.5078	59.1551	20.5078	58.7065	20.5078	59.1001	20.5078	58.8311	20.5078	59.0201	20.5078	58.9304
21.9727	48.8107	21.9727	48.6404	21.9727	49.0624	21.9727	48.5785	21.9727	49.3706	21.9727	48.6516	21.9727	49.7128	21.9727	48.876	21.9727	50.0669	21.9727	49.2458	21.9727	50.4119	21.9727	49.7276	21.9727	50.7292	21.9727	50.2683	21.9727	51.0051	21.9727	50.8087	21.9727	51.2315	21.9727	51.2962	21.9727	51.4048	21.9727	51.6917	21.9727	51.5236	21.9727	51.9711	21.9727	51.5861	21.9727	52.124	21.9727	51.5889	21.9727	52.1507	21.9727	51.5283	21.9727	52.0599	21.9727	51.4083	21.9727	51.87	21.9727	51.2531	21.9727	51.6147	21.9727	51.1157	21.9727	51.3494	21.9727	51.0647	21.9727	51.1461
23.4375	48.5889	23.4375	48.5556	23.4375	48.6733	23.4375	48.5877	23.4375	48.7952	23.4375	48.6971	23.4375	48.9412	23.4375	48.8902	23.4375	49.099	23.4375	49.1629	23.4375	49.2565	23.4375	49.4979	23.4375	49.4025	23.4375	49.8665	23.4375	49.5278	23.4375	50.2325	23.4375	49.6272	23.4375	50.5599	23.4375	49.699	23.4375	50.8183	23.4375	49.7426	23.4375	50.9863	23.4375	49.7546	23.4375	51.0519	23.4375	49.7268	23.4375	51.0096	23.4375	49.6513	23.4375	50.8593	23.4375	49.5329	23.4375	50.6077	23.4375	49.4046	23.4375	50.2764	23.4375	49.331	23.4375	49.9122	23.4375	49.3824	23.4375	49.5884
24.9023	48.0134	24.9023	47.8543	24.9023	48.1707	24.9023	47.6956	24.9023	48.3257	24.9023	47.5451	24.9023	48.4766	24.9023	47.4202	24.9023	48.6187	24.9023	47.3471	24.9023	48.7439	24.9023	47.3546	24.9023	48.8432	24.9023	47.4632	24.9023	48.9104	24.9023	47.6748	24.9023	48.9474	24.9023	47.9693	24.9023	48.9655	24.9023	48.3097	24.9023	48.9807	24.9023	48.6522	24.9023	49.0048	24.9023	48.9555	24.9023	49.0386	24.9023	49.186	24.9023	49.0716	24.9023	49.3228	24.9023	49.091	24.9023	49.3619	24.9023	49.0924	24.9023	49.3205	24.9023	49.0877	24.9023	49.2353	24.9023	49.1009	24.9023	49.1515
26.3672	45.0423	26.3672	44.8806	26.3672	45.2095	26.3672	44.7355	26.3672	45.3758	26.3672	44.6272	26.3672	45.5363	26.3672	44.5844	26.3672	45.6841	26.3672	44.6399	26.3672	45.8101	26.3672	44.818	26.3672	45.9045	26.3672	45.1223	26.3672	45.9617	26.3672	45.5309	26.3672	45.9853	26.3672	46.0033	26.3672	45.9893	26.3672	46.4923	26.3672	45.995	26.3672	46.9531	26.3672	46.0216	26.3672	47.3472	26.3672	46.0798	26.3672	47.642	26.3672	46.1715	26.3672	47.8122	26.3672	46.2967	26.3672	47.8431	26.3672	46.4606	26.3672	47.7371	26.3672	46.6734	26.3672	47.519	26.3672	46.9377	26.3672	47.2343
27.832	45.7946	27.832	45.7349	27.832	45.8878	27.832	45.7139	27.832	46.0106	27.832	45.7393	27.832	46.1579	27.832	45.8215	27.832	46.3229	27.832	45.9701	27.832	46.4968	27.832	46.1891	27.832	46.6706	27.832	46.474	27.832	46.838	27.832	46.8108	27.832	46.9986	27.832	47.1794	27.832	47.158	27.832	47.5568	27.832	47.3243	27.832	47.9194	27.832	47.5019	27.832	48.244	27.832	47.6872	27.832	48.5083	27.832	47.8704	27.832	48.6931	27.832	48.0413	27.832	48.7869	27.832	48.1958	27.832	48.7915	27.832	48.3383	27.832	48.7233	27.832	48.4761	27.832	48.6093
29.2969	48.5723	29.2969	48.5593	29.2969	48.6084	29.2969	48.5676	29.2969	48.6685	29.2969	48.5966	29.2969	48.7512	29.2969	48.6483	29.2969	48.8513	29.2969	48.7272	29.2969	48.9607	29.2969	48.8386	29.2969	49.0696	29.2969	48.986	29.2969	49.1701	29.2969	49.1681	29.2969	49.2589	29.2969	49.3776	29.2969	49.3395	29.2969	49.6013	29.2969	49.4192	29.2969	49.8216	29.2969	49.5045	29.2969	50.0187	29.2969	49.5971	29.2969	50.1738	29.2969	49.693	29.2969	50.2725	29.2969	49.7861	29.2969	50.3084	29.2969	49.873	29.2969	50.286	29.2969	49.9567	29.2969	50.2206	29.2969	50.0428	29.2969	50.1335
30.7617	49.7994	30.7617	49.7359	30.7617	49.8491	30.7617	49.6565	30.7617	49.8876	30.7617	49.5616	30.7617	49.9168	30.7617	49.4558	30.7617	49.9364	30.7617	49.3482	30.7617	49.9441	30.7617	49.2523	30.7617	49.9364	30.7617	49.1832	30.7617	49.9107	30.7617	49.1541	30.7617	49.8682	30.7617	49.172	30.7617	49.8155	30.7617	49.235	30.7617	49.7627	30.7617	49.3318	30.7617	49.7198	30.7617	49.4437	30.7617	49.6914	30.7617	49.5494	30.7617	49.6759	30.7617	49.6304	30.7617	49.6673	30.7617	49.6769	30.7617	49.6609	30.7617	49.6904	30.7617	49.6562	30.7617	49.6819	30.7617	49.6572	30.7617	49.6669
32.2266	50.5874	32.2266	50.4948	32.2266	50.6723	32.2266	50.3953	32.2266	50.7499	32.2266	50.2921	32.2266	50.8208	32.2266	50.1921	32.2266	50.8845	32.2266	50.1057	32.2266	50.9397	32.2266	50.0456	32.2266	50.9849	32.2266	50.0242	32.2266	51.0197	32.2266	50.0504	32.2266	51.0472	32.2266	50.1276	32.2266	51.0737	32.2266	50.2511	32.2266	51.1067	32.2266	50.4087	32.2266	51.1505	32.2266	50.5823	32.2266	51.2028	32.2266	50.7524	32.2266	51.2548	32.2266	50.9028	32.2266	51.295	32.2266	51.025	32.2266	51.3146	32.2266	51.1188	32.2266	51.3105	32.2266	51.1897	32.2266	51.2854	32.2266	51.2443
33.6914	52.7053	33.6914	52.6352	33.6914	52.7744	33.6914	52.5624	33.6914	52.844	33.6914	52.4865	33.6914	52.9151	33.6914	52.4093	33.6914	52.9868	33.6914	52.3352	33.6914	53.0568	33.6914	52.2711	33.6914	53.1218	33.6914	52.2247	33.6914	53.179	33.6914	52.2033	33.6914	53.2272	33.6914	52.2119	33.6914	53.2681	33.6914	52.2514	33.6914	53.305	33.6914	52.3182	33.6914	53.3392	33.6914	52.4048	33.6914	53.3677	33.6914	52.5024	33.6914	53.3828	33.6914	52.6043	33.6914	53.3744	33.6914	52.7084	33.6914	53.3349	33.6914	52.8163	33.6914	53.2627	33.6914	52.9304	33.6914	53.1635	33.6914	53.0487
35.1562	55.4206	35.1562	55.3835	35.1562	55.4476	35.1562	55.3345	35.1562	55.4665	35.1562	55.2723	35.1562	55.4783	35.1562	55.1972	35.1562	55.4828	35.1562	55.1116	35.1562	55.4785	35.1562	55.0203	35.1562	55.4633	35.1562	54.9297	35.1562	55.4354	35.1562	54.8476	35.1562	55.3947	35.1562	54.7811	35.1562	55.3445	35.1562	54.735	35.1562	55.2899	35.1562	54.7103	35.1562	55.2364	35.1562	54.7035	35.1562	55.187	35.1562	54.7088	35.1562	55.1403	35.1562	54.7213	35.1562	55.0923	35.1562	54.7395	35.1562	55.039	35.1562	54.766	35.1562	54.979	35.1562	54.8042	35.1562	54.9157	35.1562	54.8552
36.6211	58.5148	36.6211	58.4778	36.6211	58.5391	36.6211	58.4274	36.6211	58.5517	36.6211	58.3635	36.6211	58.553	36.6211	58.2872	36.6211	58.5434	36.6211	58.2013	36.6211	58.5222	36.6211	58.1104	36.6211	58.489	36.6211	58.0206	36.6211	58.4439	36.6211	57.9388	36.6211	58.3886	36.6211	57.8715	36.6211	58.3272	36.6211	57.8236	36.6211	58.2652	36.6211	57.7967	36.6211	58.2081	36.6211	57.7888	36.6211	58.1594	36.6211	57.7956	36.6211	58.1191	36.6211	57.8124	36.6211	58.0842	36.6211	57.836	36.6211	58.0507	36.6211	57.8652	36.6211	58.0154	36.6211	57.8996	36.6211	57.9773	36.6211	57.9378
38.0859	61.0604	38.0859	61.0276	38.0859	61.0882	38.0859	60.9888	38.0859	61.1125	38.0859	60.9435	38.0859	61.1349	38.0859	60.8922	38.0859	61.1566	38.0859	60.8369	38.0859	61.1787	38.0859	60.7813	38.0859	61.2018	38.0859	60.7299	38.0859	61.2264	38.0859	60.6883	38.0859	61.253	38.0859	60.6615	38.0859	61.2819	38.0859	60.6533	38.0859	61.3124	38.0859	60.6649	38.0859	61.3413	38.0859	60.6946	38.0859	61.3626	38.0859	60.7389	38.0859	61.3684	38.0859	60.7941	38.0859	61.3525	38.0859	60.8578	38.0859	61.3125	38.0859	60.9294	38.0859	61.2511	38.0859	61.008	38.0859	61.1748	38.0859	61.0914
39.5508	62.7873	39.5508	62.7395	39.5508	62.821	39.5508	62.677	39.5508	62.8421	39.5508	62.5999	39.5508	62.8522	39.5508	62.5097	39.5508	62.8529	39.5508	62.409	39.5508	62.8459	39.5508	62.3024	39.5508	62.8324	39.5508	62.1955	39.5508	62.8137	39.5508	62.0947	39.5508	62.7911	39.5508	62.0064	39.5508	62.7658	39.5508	61.9358	39.5508	62.7384	39.5508	61.8864	39.5508	62.7078	39.5508	61.8598	39.5508	62.6706	39.5508	61.856	39.5508	62.6219	39.5508	61.8749	39.5508	62.5574	39.5508	61.9167	39.5508	62.4755	39.5508	61.981	39.5508	62.3787	39.5508	62.0657	39.5508	62.2726	39.5508	62.1654
41.0156	63.379	41.0156	63.3326	41.0156	63.407	41.0156	63.2674	41.0156	63.4177	41.0156	63.1838	41.0156	63.4126	41.0156	63.0833	41.0156	63.393	41.0156	62.9696	41.0156	63.3604	41.0156	62.8481	41.0156	63.3163	41.0156	62.7261	41.0156	63.2629	41.0156	62.6121	41.0156	63.2035	41.0156	62.515	41.0156	63.1421	41.0156	62.4433	41.0156	63.083	41.0156	62.4028	41.0156	63.0291	41.0156	62.3961	41.0156	62.981	41.0156	62.4207	41.0156	62.9374	41.0156	62.47	41.0156	62.8964	41.0156	62.5343	41.0156	62.8566	41.0156	62.6034	41.0156	62.8165	41.0156	62.6686	41.0156	62.7739	41.0156	62.7255
42.4805	66.5119	42.4805	66.4729	42.4805	66.5357	42.4805	66.4178	42.4805	66.5451	42.4805	66.346	42.4805	66.5409	42.4805	66.2574	42.4805	66.5237	42.4805	66.1523	42.4805	66.4939	42.4805	66.0322	42.4805	66.4516	42.4805	65.8994	42.4805	66.3972	42.4805	65.7571	42.4805	66.3309	42.4805	65.61	42.4805	66.2537	42.4805	65.4636	42.4805	66.166	42.4805	65.3245	42.4805	66.0679	42.4805	65.2003	42.4805	65.9587	42.4805	65.099	42.4805	65.8378	42.4805	65.0292	42.4805	65.7052	42.4805	64.9982	42.4805	65.5637	42.4805	65.0106	42.4805	65.4193	42.4805	65.0662	42.4805	65.2809	42.4805	65.1595
43.9453	69.1794	43.9453	69.1556	43.9453	69.1891	43.9453	69.1173	43.9453	69.1853	43.9453	69.0644	43.9453	69.1688	43.9453	68.9973	43.9453	69.1402	43.9453	68.917	43.9453	69.1002	43.9453	68.8251	43.9453	69.0498	43.9453	68.724	43.9453	68.99	43.9453	68.6168	43.9453	68.9219	43.9453	68.5074	43.9453	68.8474	43.9453	68.4	43.9453	68.768	43.9453	68.2995	43.9453	68.6852	43.9453	68.2106	43.9453	68.6002	43.9453	68.1382	43.9453	68.5136	43.9453	68.0865	43.9453	68.4266	43.9453	68.0588	43.9453	68.3409	43.9453	68.0566	43.9453	68.2592	43.9453	68.0793	43.9453	68.1853	43.9453	68.1237
45.4102	70.9662	45.4102	70.9513	45.4102	70.9697	45.4102	70.9249	45.4102	70.9619	45.4102	70.8871	45.4102	70.9434	45.4102	70.8385	45.4102	70.9147	45.4102	70.7801	45.4102	70.8769	45.4102	70.7132	45.4102	70.8306	45.4102	70.6398	45.4102	70.7773	45.4102	70.5623	45.4102	70.7183	45.4102	70.4835	45.4102	70.6551	45.4102	70.4066	45.4102	70.5896	45.4102	70.3349	45.4102	70.5234	45.4102	70.2715	45.4102	70.4581	45.4102	70.2192	45.4102	70.3952	45.4102	70.1801	45.4102	70.3361	45.4102	70.1555	45.4102	70.2825	45.4102	70.1459	45.4102	70.2357	45.4102	70.1506	45.4102	70.1971	45.4102	70.1682
46.875	72.9258	46.875	72.9168	46.875	72.9244	46.875	72.8975	46.875	72.9129	46.875	72.8683	46.875	72.8916	46.875	72.8298	46.875	72.8613	46.875	72.7832	46.875	72.823	46.875	72.7295	46.875	72.7778	46.875	72.6703	46.875	72.7272	46.875	72.6075	46.875	72.6725	46.875	72.5429	46.875	72.6153	46.875	72.479	46.875	72.557	46.875	72.418	46.875	72.4992	46.875	72.3624	46.875	72.4436	46.875	72.3144	46.875	72.3916	46.875	72.276	46.875	72.3449	46.875	72.2483	46.875	72.3048	46.875	72.2321	46.875	72.2722	46.875	72.227	46.875	72.2479	46.875	72.2326
48.3398	74.8015	48.3398	74.7943	48.3398	74.8	48.3398	74.7786	48.3398	74.7898	48.3398	74.755	48.3398	74.7711	48.3398	74.7243	48.3398	74.7446	48.3398	74.6877	48.3398	74.7114	48.3398	74.6462	48.3398	74.6725	48.3398	74.6011	48.3398	74.6295	48.3398	74.5537	48.3398	74.5837	48.3398	74.5055	48.3398	74.5363	48.3398	74.4579	48.3398	74.4886	48.3398	74.4123	48.3398	74.4417	48.3398	74.37	48.3398	74.397	48.3398	74.3325	48.3398	74.3559	48.3398	74.3009	48.3398	74.3201	48.3398	74.2762	48.3398	74.2907	48.3398	74.2589	48.3398	74.2686	48.3398	74.2495	48.3398	74.2543	48.3398	74.248
51.2695	77.8124	51.2695	77.8055	51.2695	77.8112	51.2695	77.7912	51.2695	77.8017	51.2695	77.7704	51.2695	77.7837	51.2695	77.7442	51.2695	77.7579	51.2695	77.7138	51.2695	77.725	51.2695	77.6803	51.2695	77.6864	51.2695	77.645	51.2695	77.6437	51.2695	77.609	51.2695	77.5988	51.2695	77.5735	51.2695	77.5537	51.2695	77.5394	51.2695	77.5104	51.2695	77.5078	51.2695	77.4707	51.2695	77.4793	51.2695	77.4366	51.2695	77.4544	51.2695	77.4092	51.2695	77.4332	51.2695	77.3895	51.2695	77.4154	51.2695	77.3775	51.2695	77.4006	51.2695	77.3725	51.2695	77.3885	51.2695	77.3736	51.2695	77.3792
52.7344	78.972	52.7344	78.9727	52.7344	78.9645	52.7344	78.9671	52.7344	78.9501	52.7344	78.9558	52.7344	78.9292	52.7344	78.9398	52.7344	78.9024	52.7344	78.9201	52.7344	78.8708	52.7344	78.8979	52.7344	78.8359	52.7344	78.8745	52.7344	78.7994	52.7344	78.8513	52.7344	78.7632	52.7344	78.8294	52.7344	78.7293	52.7344	78.8099	52.7344	78.6998	52.7344	78.7936	52.7344	78.6763	52.7344	78.7805	52.7344	78.6604	52.7344	78.7702	52.7344	78.6529	52.7344	78.7613	52.7344	78.6538	52.7344	78.7523	52.7344	78.6621	52.7344	78.7413	52.7344	78.6761	52.7344	78.7275	52.7344	78.6932	52.7344	78.7111
54.1992	80.0417	54.1992	80.048	54.1992	80.0261	54.1992	80.0452	54.1992	80.0013	54.1992	80.0337	54.1992	79.968	54.1992	80.0144	54.1992	79.9271	54.1992	79.9882	54.1992	79.88	54.1992	79.9563	54.1992	79.8286	54.1992	79.9203	54.1992	79.7747	54.1992	79.8817	54.1992	79.7207	54.1992	79.8421	54.1992	79.6687	54.1992	79.8031	54.1992	79.621	54.1992	79.7661	54.1992	79.5801	54.1992	79.7318	54.1992	79.548	54.1992	79.7005	54.1992	79.5265	54.1992	79.6717	54.1992	79.5164	54.1992	79.6445	54.1992	79.5173	54.1992	79.6182	54.1992	79.5276	54.1992	79.5924	54.1992	79.5452	54.1992	79.5676
55.6641	81.1233	55.6641	81.1244	55.6641	81.1081	55.6641	81.1118	55.6641	81.0793	55.6641	81.0859	55.6641	81.0374	55.6641	81.0477	55.6641	80.9836	55.6641	80.9987	55.6641	80.919	55.6641	80.9406	55.6641	80.8456	55.6641	80.8754	55.6641	80.7652	55.6641	80.8053	55.6641	80.6801	55.6641	80.7323	55.6641	80.5927	55.6641	80.6585	55.6641	80.5061	55.6641	80.5856	55.6641	80.4236	55.6641	80.5151	55.6641	80.349	55.6641	80.4484	55.6641	80.2862	55.6641	80.3867	55.6641	80.2383	55.6641	80.3309	55.6641	80.2072	55.6641	80.2823	55.6641	80.1934	55.6641	80.2423	55.6641	80.1958	55.6641	80.2128
58.5938	82.143	58.5938	82.128	58.5938	82.148	58.5938	82.1036	58.5938	82.1427	58.5938	82.0707	58.5938	82.1272	58.5938	82.0304	58.5938	82.1017	58.5938	81.984	58.5938	82.067	58.5938	81.9328	58.5938	82.0242	58.5938	81.8782	58.5938	81.9746	58.5938	81.8218	58.5938	81.9197	58.5938	81.765	58.5938	81.8612	58.5938	81.7094	58.5938	81.8008	58.5938	81.6565	58.5938	81.7403	58.5938	81.6078	58.5938	81.6817	58.5938	81.5646	58.5938	81.6272	58.5938	81.5284	58.5938	81.5787	58.5938	81.5002	58.5938	81.5379	58.5938	81.4812	58.5938	81.5061	58.5938	81.4719	58.5938	81.4843	58.5938	81.4728
60.0586	82.4419	60.0586	82.4325	60.0586	82.4419	60.0586	82.4141	60.0586	82.4327	60.0586	82.3872	60.0586	82.4145	60.0586	82.3526	60.0586	82.3881	60.0586	82.3117	60.0586	82.3542	60.0586	82.266	60.0586	82.3143	60.0586	82.2173	60.0586	82.2699	60.0586	82.1677	60.0586	82.2228	60.0586	82.1191	60.0586	82.1747	60.0586	82.0737	60.0586	82.1277	60.0586	82.0331	60.0586	82.0833	60.0586	81.9987	60.0586	82.043	60.0586	81.9711	60.0586	82.008	60.0586	81.9505	60.0586	81.979	60.0586	81.9362	60.0586	81.9564	60.0586	81.9274	60.0586	81.9401	60.0586	81.9236	60.0586	81.9296	60.0586	81.9242
62.9883	83.0883	62.9883	83.0875	62.9883	83.0752	62.9883	83.0728	62.9883	83.0484	62.9883	83.045	62.9883	83.0087	62.9883	83.0049	62.9883	82.9575	62.9883	82.954	62.9883	82.8965	62.9883	82.894	62.9883	82.8278	62.9883	82.8268	62.9883	82.7539	62.9883	82.7543	62.9883	82.6775	62.9883	82.6788	62.9883	82.6013	62.9883	82.6025	62.9883	82.5278	62.9883	82.5275	62.9883	82.4595	62.9883	82.4561	62.9883	82.3979	62.9883	82.3906	62.9883	82.3443	62.9883	82.3332	62.9883	82.2994	62.9883	82.286	62.9883	82.2637	62.9883	82.2507	62.9883	82.2379	62.9883	82.2284	62.9883	82.2227	62.9883	82.2193
64.4531	83.1715	64.4531	83.1701	64.4531	83.1615	64.4531	83.1576	64.4531	83.1405	64.4531	83.1343	64.4531	83.1091	64.4531	83.1012	64.4531	83.0684	64.4531	83.0594	64.4531	83.0196	64.4531	83.0103	64.4531	82.9643	64.4531	82.9555	64.4531	82.9044	64.4531	82.8967	64.4531	82.8419	64.4531	82.8356	64.4531	82.7789	64.4531	82.774	64.4531	82.7174	64.4531	82.7134	64.4531	82.6593	64.4531	82.6556	64.4531	82.6062	64.4531	82.602	64.4531	82.5594	64.4531	82.5544	64.4531	82.5199	64.4531	82.5144	64.4531	82.4887	64.4531	82.4835	64.4531	82.4667	64.4531	82.4629	64.4531	82.4546	64.4531	82.4533
67.3828	83.3639	67.3828	83.3598	67.3828	83.3587	67.3828	83.3468	67.3828	83.3446	67.3828	83.3255	67.3828	83.322	67.3828	83.2968	67.3828	83.2918	67.3828	83.262	67.3828	83.2551	67.3828	83.223	67.3828	83.2133	67.3828	83.1815	67.3828	83.1681	67.3828	83.1395	67.3828	83.1211	67.3828	83.0988	67.3828	83.0743	67.3828	83.0609	67.3828	83.0296	67.3828	83.0267	67.3828	82.9886	67.3828	82.9967	67.3828	82.9528	67.3828	82.9705	67.3828	82.9233	67.3828	82.9477	67.3828	82.9008	67.3828	82.9276	67.3828	82.8858	67.3828	82.91	67.3828	82.8783	67.3828	82.8952	67.3828	82.8781	67.3828	82.8841
68.8477	83.5254	68.8477	83.5189	68.8477	83.5231	68.8477	83.5038	68.8477	83.5122	68.8477	83.4808	68.8477	83.4934	68.8477	83.4509	68.8477	83.4676	68.8477	83.4156	68.8477	83.4361	68.8477	83.3768	68.8477	83.4002	68.8477	83.3364	68.8477	83.3617	68.8477	83.2965	68.8477	83.3224	68.8477	83.2589	68.8477	83.284	68.8477	83.2253	68.8477	83.248	68.8477	83.1964	68.8477	83.2157	68.8477	83.1729	68.8477	83.1878	68.8477	83.1542	68.8477	83.1647	68.8477	83.1399	68.8477	83.1462	68.8477	83.1292	68.8477	83.1322	68.8477	83.1216	68.8477	83.1225	68.8477	83.1168	68.8477	83.1169	68.8477	83.1152
71.7773	83.8797	71.7773	83.8679	71.7773	83.8813	71.7773	83.8459	71.7773	83.873	71.7773	83.8142	71.7773	83.8556	71.7773	83.7739	71.7773	83.83	71.7773	83.7265	71.7773	83.7975	71.7773	83.6739	71.7773	83.7597	71.7773	83.6185	71.7773	83.718	71.7773	83.5627	71.7773	83.6743	71.7773	83.5091	71.7773	83.6304	71.7773	83.4601	71.7773	83.5877	71.7773	83.4177	71.7773	83.5475	71.7773	83.3832	71.7773	83.5104	71.7773	83.3576	71.7773	83.4765	71.7773	83.3409	71.7773	83.4456	71.7773	83.3329	71.7773	83.4177	71.7773	83.3329	71.7773	83.3927	71.7773	83.34	71.7773	83.371	71.7773	83.3531
74.707	84.0572	74.707	84.0404	74.707	84.0634	74.707	84.0133	74.707	84.0592	74.707	83.9768	74.707	84.0452	74.707	83.9323	74.707	84.0223	74.707	83.8818	74.707	83.992	74.707	83.8275	74.707	83.9556	74.707	83.7719	74.707	83.9149	74.707	83.7178	74.707	83.8717	74.707	83.6676	74.707	83.8279	74.707	83.6233	74.707	83.785	74.707	83.5866	74.707	83.7445	74.707	83.5584	74.707	83.707	74.707	83.5389	74.707	83.6728	74.707	83.528	74.707	83.642	74.707	83.5247	74.707	83.6145	74.707	83.5282	74.707	83.5901	74.707	83.5373	74.707	83.5689	74.707	83.5511
77.6367	84.1166	77.6367	84.1014	77.6367	84.1218	77.6367	84.0763	77.6367	84.1174	77.6367	84.0424	77.6367	84.1044	77.6367	84.0011	77.6367	84.0842	77.6367	83.9547	77.6367	84.0585	77.6367	83.9056	77.6367	84.0292	77.6367	83.8567	77.6367	83.9983	77.6367	83.8108	77.6367	83.9675	77.6367	83.7703	77.6367	83.9382	77.6367	83.7372	77.6367	83.9113	77.6367	83.7128	77.6367	83.8871	77.6367	83.6973	77.6367	83.8653	77.6367	83.6907	77.6367	83.8454	77.6367	83.6919	77.6367	83.8265	77.6367	83.6999	77.6367	83.8077	77.6367	83.7131	77.6367	83.7885	77.6367	83.73	77.6367	83.7689	77.6367	83.7491
79.1016	84.182	79.1016	84.1653	79.1016	84.1877	79.1016	84.1381	79.1016	84.1829	79.1016	84.1012	79.1016	84.1685	79.1016	84.0564	79.1016	84.146	79.1016	84.0061	79.1016	84.1174	79.1016	83.9529	79.1016	84.0848	79.1016	83.9001	79.1016	84.0503	79.1016	83.8507	79.1016	84.016	79.1016	83.8075	79.1016	83.9834	79.1016	83.7727	79.1016	83.9536	79.1016	83.7477	79.1016	83.9273	79.1016	83.7329	79.1016	83.9042	79.1016	83.7279	79.1016	83.8838	79.1016	83.7315	79.1016	83.8652	79.1016	83.7417	79.1016	83.8475	79.1016	83.7567	79.1016	83.8298	79.1016	83.7743	79.1016	83.8117	79.1016	83.793
82.0312	84.4008	82.0312	84.3932	82.0312	84.3955	82.0312	84.3729	82.0312	84.3776	82.0312	84.341	82.0312	84.3481	82.0312	84.2991	82.0312	84.3086	82.0312	84.2496	82.0312	84.2614	82.0312	84.195	82.0312	84.209	82.0312	84.1382	82.0312	84.154	82.0312	84.0824	82.0312	84.0993	82.0312	84.0303	82.0312	84.0475	82.0312	83.9841	82.0312	84.0007	82.0312	83.9455	82.0312	83.9607	82.0312	83.9153	82.0312	83.9283	82.0312	83.8933	82.0312	83.9039	82.0312	83.8787	82.0312	83.8867	82.0312	83.87	82.0312	83.8755	82.0312	83.8655	82.0312	83.869	82.0312	83.8639	82.0312	83.8655	82.0312	83.8639
84.9609	84.1795	84.9609	84.1684	84.9609	84.1817	84.9609	84.1488	84.9609	84.1755	84.9609	84.1217	84.9609	84.1618	84.9609	84.0886	84.9609	84.142	84.9609	84.0516	84.9609	84.1181	84.9609	84.0129	84.9609	84.092	84.9609	83.975	84.9609	84.0657	84.9609	83.9403	84.9609	84.0407	84.9609	83.9109	84.9609	84.0184	84.9609	83.8884	84.9609	83.9992	84.9609	83.8736	84.9609	83.9834	84.9609	83.8665	84.9609	83.9706	84.9609	83.8666	84.9609	83.9602	84.9609	83.8723	84.9609	83.9514	84.9609	83.8819	84.9609	83.9435	84.9609	83.8934	84.9609	83.9355	84.9609	83.9054	84.9609	83.9267	84.9609	83.9167
87.8906	84.3058	87.8906	84.2964	87.8906	84.3002	87.8906	84.2726	87.8906	84.2801	87.8906	84.2361	87.8906	84.247	87.8906	84.1893	87.8906	84.2033	87.8906	84.1356	87.8906	84.1522	87.8906	84.0789	87.8906	84.0974	87.8906	84.0232	87.8906	84.0427	87.8906	83.9722	87.8906	83.9919	87.8906	83.9293	87.8906	83.948	87.8906	83.8965	87.8906	83.9132	87.8906	83.8749	87.8906	83.8889	87.8906	83.8641	87.8906	83.875	87.8906	83.8625	87.8906	83.8704	87.8906	83.8677	87.8906	83.8729	87.8906	83.8764	87.8906	83.8795	87.8906	83.8854	87.8906	83.8871	87.8906	83.8922	87.8906	83.8929	87.8906	83.8948
90.8203	84.3428	90.8203	84.331	90.8203	84.339	90.8203	84.304	90.8203	84.3199	90.8203	84.2631	90.8203	84.287	90.8203	84.2108	90.8203	84.2425	90.8203	84.1501	90.8203	84.1896	90.8203	84.0847	90.8203	84.1316	90.8203	84.0185	90.8203	84.0723	90.8203	83.9557	90.8203	84.0154	90.8203	83.9	90.8203	83.9637	90.8203	83.8544	90.8203	83.9198	90.8203	83.8207	90.8203	83.8849	90.8203	83.7996	90.8203	83.8595	90.8203	83.7901	90.8203	83.8431	90.8203	83.79	90.8203	83.8341	90.8203	83.7963	90.8203	83.8301	90.8203	83.8055	90.8203	83.8284	90.8203	83.8148	90.8203	83.8262	90.8203	83.8219
95.2148	84.4498	95.2148	84.4503	95.2148	84.4292	95.2148	84.4315	95.2148	84.389	95.2148	84.3949	95.2148	84.3307	95.2148	84.3429	95.2148	84.2569	95.2148	84.2786	95.2148	84.1713	95.2148	84.2056	95.2148	84.0788	95.2148	84.1276	95.2148	83.9848	95.2148	84.0488	95.2148	83.8945	95.2148	83.9732	95.2148	83.813	95.2148	83.9043	95.2148	83.7443	95.2148	83.8447	95.2148	83.691	95.2148	83.7957	95.2148	83.654	95.2148	83.7573	95.2148	83.6327	95.2148	83.728	95.2148	83.6248	95.2148	83.7057	95.2148	83.6268	95.2148	83.6881	95.2148	83.635	95.2148	83.6731	95.2148	83.6465	95.2148	83.6594
98.1445	84.8387	98.1445	84.8356	98.1445	84.8152	98.1445	84.8072	98.1445	84.7653	98.1445	84.7557	98.1445	84.6898	98.1445	84.6841	98.1445	84.5913	98.1445	84.5966	98.1445	84.4733	98.1445	84.4979	98.1445	84.341	98.1445	84.3931	98.1445	84.2005	98.1445	84.2871	98.1445	84.0589	98.1445	84.1847	98.1445	83.9231	98.1445	84.0894	98.1445	83.8	98.1445	84.0034	98.1445	83.6951	98.1445	83.9275	98.1445	83.6125	98.1445	83.8606	98.1445	83.5548	98.1445	83.8006	98.1445	83.5224	98.1445	83.745	98.1445	83.5138	98.1445	83.6918	98.1445	83.5258	98.1445	83.6408	98.1445	83.554	98.1445	83.5938
101.074	84.8196	101.074	84.7719	101.074	84.8456	101.074	84.7037	101.074	84.8493	101.074	84.6175	101.074	84.831	101.074	84.5167	101.074	84.7921	101.074	84.4057	101.074	84.7351	101.074	84.2898	101.074	84.6632	101.074	84.1752	101.074	84.5807	101.074	84.0685	101.074	84.4925	101.074	83.9758	101.074	84.4039	101.074	83.9022	101.074	84.3195	101.074	83.8513	101.074	84.2433	101.074	83.8242	101.074	84.1779	101.074	83.8194	101.074	84.1242	101.074	83.8331	101.074	84.0813	101.074	83.8596	101.074	84.0469	101.074	83.8929	101.074	84.0175	101.074	83.9275	101.074	83.9896	101.074	83.9601
105.469	84.2396	105.469	84.2369	105.469	84.2289	105.469	84.2207	105.469	84.2052	105.469	84.1916	105.469	84.1699	105.469	84.1509	105.469	84.1245	105.469	84.1005	105.469	84.0704	105.469	84.0429	105.469	84.0097	105.469	83.9806	105.469	83.9442	105.469	83.9165	105.469	83.8762	105.469	83.8532	105.469	83.8083	105.469	83.7928	105.469	83.7436	105.469	83.7374	105.469	83.6855	105.469	83.6885	105.469	83.6368	105.469	83.6473	105.469	83.5993	105.469	83.6142	105.469	83.5733	105.469	83.5891	105.469	83.5576	105.469	83.5712	105.469	83.5502	105.469	83.5592	105.469	83.5488	105.469	83.552
108.398	84.4538	108.398	84.4493	108.398	84.4376	108.398	84.4249	108.398	84.401	108.398	84.3817	108.398	84.3455	108.398	84.3218	108.398	84.2731	108.398	84.2476	108.398	84.1872	108.398	84.1621	108.398	84.0915	108.398	84.0689	108.398	83.9905	108.398	83.9719	108.398	83.8881	108.398	83.8752	108.398	83.7881	108.398	83.7828	108.398	83.6939	108.398	83.6982	108.398	83.608	108.398	83.6236	108.398	83.5327	108.398	83.5597	108.398	83.4698	108.398	83.5061	108.398	83.4209	108.398	83.4613	108.398	83.387	108.398	83.4242	108.398	83.3684	108.398	83.3948	108.398	83.3646	108.398	83.3741
112.793	84.4866	112.793	84.4497	112.793	84.5107	112.793	84.4	112.793	84.5229	112.793	84.3391	112.793	84.5255	112.793	84.2701	112.793	84.521	112.793	84.197	112.793	84.5116	112.793	84.1249	112.793	84.4997	112.793	84.0589	112.793	84.4865	112.793	84.0038	112.793	84.4726	112.793	83.9634	112.793	84.4582	112.793	83.9401	112.793	84.4428	112.793	83.9348	112.793	84.4258	112.793	83.9466	112.793	84.4062	112.793	83.9732	112.793	84.3832	112.793	84.0111	112.793	84.356	112.793	84.0564	112.793	84.3242	112.793	84.1053	112.793	84.2878	112.793	84.1546	112.793	84.247	112.793	84.2023
117.188	84.5792	117.188	84.5861	117.188	84.5448	117.188	84.5651	117.188	84.4847	117.188	84.5179	117.188	84.4028	117.188	84.4477	117.188	84.3047	117.188	84.3591	117.188	84.1979	117.188	84.2588	117.188	84.0912	117.188	84.1544	117.188	83.9938	117.188	84.0545	117.188	83.9141	117.188	83.9677	117.188	83.8583	117.188	83.901	117.188	83.829	117.188	83.8589	117.188	83.8252	117.188	83.842	117.188	83.8418	117.188	83.8475	117.188	83.8716	117.188	83.8695	117.188	83.9065	117.188	83.9003	117.188	83.9389	117.188	83.9321	117.188	83.9631	117.188	83.958	117.188	83.9751	117.188	83.9733
120.117	84.6348	120.117	84.6327	120.117	84.6088	120.117	84.6027	120.117	84.5551	120.117	84.5464	120.117	84.4761	120.117	84.4664	120.117	84.3755	120.117	84.3665	120.117	84.2587	120.117	84.2515	120.117	84.1329	120.117	84.1276	120.117	84.0066	120.117	84.0023	120.117	83.889	120.117	83.8835	120.117	83.7888	120.117	83.7794	120.117	83.7126	120.117	83.6967	120.117	83.6638	120.117	83.6402	120.117	83.6416	120.117	83.6107	120.117	83.6411	120.117	83.6058	120.117	83.6545	120.117	83.6192	120.117	83.6728	120.117	83.6427	120.117	83.6876	120.117	83.6674	120.117	83.6928	120.117	83.6857
124.512	84.6931	124.512	84.6989	124.512	84.6608	124.512	84.679	124.512	84.6025	124.512	84.6348	124.512	84.5197	124.512	84.5688	124.512	84.4155	124.512	84.4844	124.512	84.2944	124.512	84.3856	124.512	84.1627	124.512	84.2771	124.512	84.0282	124.512	84.1642	124.512	83.8995	124.512	84.0525	124.512	83.785	124.512	83.9475	124.512	83.6919	124.512	83.8543	124.512	83.6246	124.512	83.7767	124.512	83.5838	124.512	83.717	124.512	83.5666	124.512	83.6753	124.512	83.5674	124.512	83.6493	124.512	83.5789	124.512	83.6348	124.512	83.5943	124.512	83.6264	124.512	83.6084	124.512	83.6188
128.906	84.8534	128.906	84.8351	128.906	84.8455	128.906	84.7923	128.906	84.8106	128.906	84.7272	128.906	84.7484	128.906	84.6424	128.906	84.6602	128.906	84.5412	128.906	84.5483	128.906	84.4275	128.906	84.4173	128.906	84.3056	128.906	84.2732	128.906	84.1804	128.906	84.1243	128.906	84.0567	128.906	83.9793	128.906	83.9394	128.906	83.8473	128.906	83.8324	128.906	83.7355	128.906	83.7392	128.906	83.648	128.906	83.6618	128.906	83.5854	128.906	83.6014	128.906	83.5445	128.906	83.5575	128.906	83.5206	128.906	83.5286	128.906	83.5082	128.906	83.512	128.906	83.5033	128.906	83.5043
133.301	84.7159	133.301	84.6954	133.301	84.7134	133.301	84.6534	133.301	84.687	133.301	84.5923	133.301	84.6364	133.301	84.5149	133.301	84.5621	133.301	84.425	133.301	84.4657	133.301	84.3267	133.301	84.3497	133.301	84.2243	133.301	84.2187	133.301	84.1222	133.301	84.0785	133.301	84.0237	133.301	83.9368	133.301	83.9311	133.301	83.8018	133.301	83.8454	133.301	83.6815	133.301	83.7669	133.301	83.5821	133.301	83.6955	133.301	83.5074	133.301	83.631	133.301	83.458	133.301	83.5739	133.301	83.4318	133.301	83.525	133.301	83.4249	133.301	83.4847	133.301	83.4333	133.301	83.4539
139.16	84.3706	139.16	84.3394	139.16	84.3805	139.16	84.2882	139.16	84.3696	139.16	84.2198	139.16	84.3396	139.16	84.1386	139.16	84.2934	139.16	84.0502	139.16	84.2346	139.16	83.9614	139.16	84.1675	139.16	83.8791	139.16	84.0961	139.16	83.8101	139.16	84.0249	139.16	83.7594	139.16	83.958	139.16	83.7297	139.16	83.8993	139.16	83.7205	139.16	83.852	139.16	83.7282	139.16	83.8185	139.16	83.7473	139.16	83.7993	139.16	83.7714	139.16	83.7932	139.16	83.7947	139.16	83.7973	139.16	83.8126	139.16	83.8071	139.16	83.8225	139.16	83.8174	139.16	83.8236
143.555	84.3422	143.555	84.3083	143.555	84.3504	143.555	84.2493	143.555	84.3339	143.555	84.1677	143.555	84.2957	143.555	84.068	143.555	84.2399	143.555	83.9565	143.555	84.1724	143.555	83.8414	143.555	84.0994	143.555	83.7319	143.555	84.028	143.555	83.6382	143.555	83.9649	143.555	83.5698	143.555	83.9161	143.555	83.5337	143.555	83.8855	143.555	83.5331	143.555	83.8745	143.555	83.5659	143.555	83.8815	143.555	83.6252	143.555	83.9019	143.555	83.7009	143.555	83.9291	143.555	83.7813	143.555	83.9552	143.555	83.8556	143.555	83.9723	143.555	83.9154	143.555	83.9739	143.555	83.9554
147.949	84.7636	147.949	84.7481	147.949	84.7422	147.949	84.6958	147.949	84.6858	147.949	84.6084	147.949	84.5979	147.949	84.4898	147.949	84.484	147.949	84.3454	147.949	84.3506	147.949	84.1826	147.949	84.2053	147.949	84.0104	147.949	84.0564	147.949	83.8396	147.949	83.912	147.949	83.6817	147.949	83.78	147.949	83.5476	147.949	83.667	147.949	83.4455	147.949	83.5778	147.949	83.3796	147.949	83.5144	147.949	83.3486	147.949	83.4754	147.949	83.3463	147.949	83.4564	147.949	83.3632	147.949	83.4503	147.949	83.389	147.949	83.449	147.949	83.4148	147.949	83.4453	147.949	83.4344
153.809	84.4895	153.809	84.4726	153.809	84.4736	153.809	84.4246	153.809	84.4247	153.809	84.3482	153.809	84.3444	153.809	84.2475	153.809	84.2358	153.809	84.1275	153.809	84.1041	153.809	83.9941	153.809	83.9563	153.809	83.8543	153.809	83.8008	153.809	83.7157	153.809	83.6472	153.809	83.5864	153.809	83.5045	153.809	83.4743	153.809	83.3808	153.809	83.3851	153.809	83.2817	153.809	83.3213	153.809	83.21	153.809	83.281	153.809	83.1655	153.809	83.2582	153.809	83.1455	153.809	83.245	153.809	83.1453	153.809	83.2338	153.809	83.1587	153.809	83.2197	153.809	83.1793	153.809	83.201
159.668	84.5866	159.668	84.5582	159.668	84.58	159.668	84.4961	159.668	84.5388	159.668	84.4031	159.668	84.4646	159.668	84.2836	159.668	84.3606	159.668	84.1435	159.668	84.2314	159.668	83.9901	159.668	84.0834	159.668	83.8313	159.668	83.9247	159.668	83.6759	159.668	83.7653	159.668	83.5327	159.668	83.616	159.668	83.4102	159.668	83.4874	159.668	83.3154	159.668	83.3878	159.668	83.2526	159.668	83.3209	159.668	83.2218	159.668	83.285	159.668	83.2182	159.668	83.2736	159.668	83.2328	159.668	83.2771	159.668	83.2552	159.668	83.2857	159.668	83.2759	159.668	83.2913	159.668	83.2886
165.527	84.7453	165.527	84.7256	165.527	84.7326	165.527	84.6732	165.527	84.6893	165.527	84.5893	165.527	84.618	165.527	84.4769	165.527	84.5228	165.527	84.3401	165.527	84.408	165.527	84.1853	165.527	84.2784	165.527	84.02	165.527	84.1388	165.527	83.8533	165.527	83.9945	165.527	83.6947	165.527	83.8509	165.527	83.5542	165.527	83.7146	165.527	83.4398	165.527	83.593	165.527	83.3572	165.527	83.4927	165.527	83.3075	165.527	83.4183	165.527	83.2867	165.527	83.3704	165.527	83.287	165.527	83.3449	165.527	83.2987	165.527	83.334	165.527	83.3126	165.527	83.3292	165.527	83.3232
171.387	84.4671	171.387	84.4543	171.387	84.4467	171.387	84.4089	171.387	84.3947	171.387	84.3329	171.387	84.3145	171.387	84.2302	171.387	84.212	171.387	84.106	171.387	84.095	171.387	83.9669	171.387	83.9726	171.387	83.8206	171.387	83.8543	171.387	83.6753	171.387	83.7485	171.387	83.5391	171.387	83.6609	171.387	83.4203	171.387	83.5941	171.387	83.3264	171.387	83.5475	171.387	83.2631	171.387	83.5179	171.387	83.2329	171.387	83.5005	171.387	83.2342	171.387	83.489	171.387	83.2608	171.387	83.4774	171.387	83.3032	171.387	83.4601	171.387	83.3513	171.387	83.4335	171.387	83.3966
177.246	84.4358	177.246	84.423	177.246	84.4137	177.246	84.3752	177.246	84.3579	177.246	84.2945	177.246	84.2718	177.246	84.1849	177.246	84.1599	177.246	84.0526	177.246	84.029	177.246	83.9056	177.246	83.888	177.246	83.7533	177.246	83.7477	177.246	83.6055	177.246	83.6195	177.246	83.4715	177.246	83.5135	177.246	83.359	177.246	83.4367	177.246	83.2744	177.246	83.3914	177.246	83.2212	177.246	83.3749	177.246	83.2003	177.246	83.3805	177.246	83.2093	177.246	83.3982	177.246	83.2423	177.246	83.4166	177.246	83.2903	177.246	83.4251	177.246	83.3423	177.246	83.416	177.246	83.3871
183.105	84.3316	183.105	84.3338	183.105	84.2956	183.105	84.301	183.105	84.228	183.105	84.2338	183.105	84.1316	183.105	84.1356	183.105	84.0099	183.105	84.0126	183.105	83.867	183.105	83.874	183.105	83.7088	183.105	83.7308	183.105	83.544	183.105	83.5941	183.105	83.3843	183.105	83.4735	183.105	83.2439	183.105	83.3753	183.105	83.1362	183.105	83.3029	183.105	83.0707	183.105	83.2565	183.105	83.0494	183.105	83.2341	183.105	83.0663	183.105	83.2315	183.105	83.1089	183.105	83.2422	183.105	83.1624	183.105	83.2579	183.105	83.2128	183.105	83.2692	183.105	83.2497	183.105	83.2683
188.965	84.1787	188.965	84.1785	188.965	84.1421	188.965	84.1414	188.965	84.0715	188.965	84.07	188.965	83.9717	188.965	83.9692	188.965	83.8489	188.965	83.8462	188.965	83.709	188.965	83.711	188.965	83.5572	188.965	83.576	188.965	83.3978	188.965	83.4547	188.965	83.2359	188.965	83.3587	188.965	83.0789	188.965	83.295	188.965	82.9376	188.965	83.2627	188.965	82.8253	188.965	83.2545	188.965	82.7542	188.965	83.2588	188.965	82.7317	188.965	83.2633	188.965	82.7577	188.965	83.2573	188.965	82.8241	188.965	83.2326	188.965	82.9165	188.965	83.1838	188.965	83.0173	188.965	83.1103
196.289	84.4604	196.289	84.4338	196.289	84.4433	196.289	84.3655	196.289	84.3825	196.289	84.2589	196.289	84.2804	196.289	84.1189	196.289	84.1435	196.289	83.9517	196.289	83.9818	196.289	83.7652	196.289	83.8094	196.289	83.5693	196.289	83.6421	196.289	83.3763	196.289	83.4955	196.289	83.2012	196.289	83.3818	196.289	83.0604	196.289	83.308	196.289	82.969	196.289	83.2747	196.289	82.9365	196.289	83.2765	196.289	82.963	196.289	83.3038	196.289	83.0376	196.289	83.3448	196.289	83.1404	196.289	83.3868	196.289	83.2478	196.289	83.4172	196.289	83.3389	196.289	83.4244	196.289	83.3994
203.613	84.4252	203.613	84.3854	203.613	84.4232	203.613	84.3065	203.613	84.3784	203.613	84.1927	203.613	84.2911	203.613	84.0503	203.613	84.1633	203.613	83.8878	203.613	83.9993	203.613	83.7156	203.613	83.806	203.613	83.5456	203.613	83.5943	203.613	83.3892	203.613	83.3789	203.613	83.2566	203.613	83.1778	203.613	83.1542	203.613	83.0096	203.613	83.0842	203.613	82.8893	203.613	83.0448	203.613	82.8237	203.613	83.0308	203.613	82.8093	203.613	83.0346	203.613	82.8341	203.613	83.0463	203.613	82.8822	203.613	83.055	203.613	82.9384	203.613	83.0513	203.613	82.9906	203.613	83.0298
210.938	84.4171	210.938	84.3783	210.938	84.4062	210.938	84.2904	210.938	84.3476	210.938	84.1571	210.938	84.2454	210.938	83.9856	210.938	84.1052	210.938	83.7862	210.938	83.9344	210.938	83.5716	210.938	83.7422	210.938	83.3557	210.938	83.54	210.938	83.1527	210.938	83.341	210.938	82.975	210.938	83.1588	210.938	82.8328	210.938	83.0053	210.938	82.7319	210.938	82.8892	210.938	82.6729	210.938	82.8138	210.938	82.6515	210.938	82.7764	210.938	82.6598	210.938	82.7684	210.938	82.688	210.938	82.7772	210.938	82.7249	210.938	82.7895	210.938	82.7598	210.938	82.794	210.938	82.7844
218.262	84.2887	218.262	84.2506	218.262	84.2767	218.262	84.1647	218.262	84.2157	218.262	84.0362	218.262	84.1093	218.262	83.8733	218.262	83.9641	218.262	83.687	218.262	83.7885	218.262	83.4914	218.262	83.5921	218.262	83.3023	218.262	83.3869	218.262	83.1351	218.262	83.1868	218.262	83.0024	218.262	83.008	218.262	82.9107	218.262	82.8664	218.262	82.8601	218.262	82.7736	218.262	82.8455	218.262	82.7333	218.262	82.8581	218.262	82.7395	218.262	82.8869	218.262	82.7785	218.262	82.9207	218.262	82.8333	218.262	82.9487	218.262	82.8883	218.262	82.9627	218.262	82.9319	218.262	82.9576
225.586	84.2756	225.586	84.248	225.586	84.2543	225.586	84.1724	225.586	84.1854	225.586	84.0514	225.586	84.0715	225.586	83.8904	225.586	83.9177	225.586	83.6985	225.586	83.7317	225.586	83.4899	225.586	83.5243	225.586	83.2828	225.586	83.3099	225.586	83.0978	225.586	83.1054	225.586	82.9534	225.586	82.9289	225.586	82.8604	225.586	82.7967	225.586	82.8199	225.586	82.721	225.586	82.8242	225.586	82.7058	225.586	82.8605	225.586	82.745	225.586	82.9151	225.586	82.8221	225.586	82.9757	225.586	82.9144	225.586	83.0307	225.586	82.9984	225.586	83.0688	225.586	83.0564	225.586	83.0797
232.91	84.2838	232.91	84.2527	232.91	84.2577	232.91	84.1652	232.91	84.1761	232.91	84.0247	232.91	84.0428	232.91	83.8378	232.91	83.8636	232.91	83.6148	232.91	83.6466	232.91	83.3703	232.91	83.4028	232.91	83.1242	232.91	83.1476	232.91	82.9005	232.91	82.9006	232.91	82.7226	232.91	82.6844	232.91	82.6076	232.91	82.5202	232.91	82.5598	232.91	82.4222	232.91	82.5706	232.91	82.3944	232.91	82.6223	232.91	82.4297	232.91	82.6943	232.91	82.5114	232.91	82.7677	232.91	82.6167	232.91	82.8263	232.91	82.721	232.91	82.857	232.91	82.8036	232.91	82.8505
241.699	84.2565	241.699	84.2164	241.699	84.2404	241.699	84.1225	241.699	84.168	241.699	83.9796	241.699	84.0419	241.699	83.7935	241.699	83.8671	241.699	83.5716	241.699	83.6514	241.699	83.3227	241.699	83.4048	241.699	83.0592	241.699	83.1401	241.699	82.7993	241.699	82.873	241.699	82.567	241.699	82.6214	241.699	82.3882	241.699	82.4045	241.699	82.2825	241.699	82.2403	241.699	82.2542	241.699	82.1426	241.699	82.2906	241.699	82.1171	241.699	82.3673	241.699	82.1585	241.699	82.4553	241.699	82.2495	241.699	82.5266	241.699	82.3631	241.699	82.5588	241.699	82.4686	241.699	82.5391
250.488	84.0607	250.488	84.0183	250.488	84.0354	250.488	83.9113	250.488	83.9425	250.488	83.7472	250.488	83.7862	250.488	83.5373	250.488	83.5749	250.488	83.2963	250.488	83.3215	250.488	83.0413	250.488	83.0447	250.488	82.7889	250.488	82.7682	250.488	82.5531	250.488	82.5199	250.488	82.3449	250.488	82.3268	250.488	82.1749	250.488	82.208	250.488	82.0543	250.488	82.1672	250.488	81.9926	250.488	82.1906	250.488	81.9912	250.488	82.2515	250.488	82.0397	250.488	82.3205	250.488	82.119	250.488	82.374	250.488	82.2081	250.488	82.3987	250.488	82.2899	250.488	82.391	250.488	82.3532
259.277	84.5071	259.277	84.453	259.277	84.5006	259.277	84.3395	259.277	84.4335	259.277	84.1687	259.277	84.3066	259.277	83.9452	259.277	84.1228	259.277	83.6777	259.277	83.8879	259.277	83.3807	259.277	83.6114	259.277	83.0749	259.277	83.3076	259.277	82.7865	259.277	82.9948	259.277	82.5421	259.277	82.6959	259.277	82.3628	259.277	82.4378	259.277	82.259	259.277	82.2508	259.277	82.2285	259.277	82.1613	259.277	82.258	259.277	82.1786	259.277	82.3289	259.277	82.2827	259.277	82.4222	259.277	82.4272	259.277	82.5196	259.277	82.558	259.277	82.6021	259.277	82.6361	259.277	82.6478
268.066	84.2802	268.066	84.2221	268.066	84.2715	268.066	84.0996	268.066	84.1964	268.066	83.9177	268.066	84.0584	268.066	83.6848	268.066	83.8635	268.066	83.4127	268.066	83.6208	268.066	83.1178	268.066	83.3434	268.066	82.8207	268.066	83.0488	268.066	82.5454	268.066	82.7584	268.066	82.3152	268.066	82.4952	268.066	82.1487	268.066	82.2802	268.066	82.0576	268.066	82.1279	268.066	82.0447	268.066	82.0464	268.066	82.1023	268.066	82.0389	268.066	82.2104	268.066	82.1018	268.066	82.339	268.066	82.2187	268.066	82.4545	268.066	82.3562	268.066	82.5266	268.066	82.4727	268.066	82.5344
276.855	84.2573	276.855	84.2546	276.855	84.2201	276.855	84.2023	276.855	84.1468	276.855	84.0871	276.855	84.0344	276.855	83.8988	276.855	83.8759	276.855	83.6358	276.855	83.6635	276.855	83.3107	276.855	83.3947	276.855	82.9516	276.855	83.0778	276.855	82.5975	276.855	82.7356	276.855	82.2905	276.855	82.4023	276.855	82.0637	276.855	82.1134	276.855	81.9344	276.855	81.8925	276.855	81.9017	276.855	81.746	276.855	81.9481	276.855	81.6702	276.855	82.0408	276.855	81.6633	276.855	82.1381	276.855	81.7253	276.855	82.1993	276.855	81.8452	276.855	82.1964	276.855	81.992	276.855	82.1216
287.109	84.3598	287.109	84.3124	287.109	84.3327	287.109	84.1952	287.109	84.2318	287.109	84.0158	287.109	84.0657	287.109	83.7822	287.109	83.8504	287.109	83.5016	287.109	83.6074	287.109	83.1831	287.109	83.3577	287.109	82.8436	287.109	83.1143	287.109	82.5145	287.109	82.8801	287.109	82.2395	287.109	82.6533	287.109	82.0576	287.109	82.4397	287.109	81.9811	287.109	82.259	287.109	81.9898	287.109	82.1374	287.109	82.049	287.109	82.0884	287.109	82.1288	287.109	82.1024	287.109	82.2083	287.109	82.1532	287.109	82.2707	287.109	82.2146	287.109	82.3031	287.109	82.268	287.109	82.3008
297.363	84.5175	297.363	84.5037	297.363	84.4468	297.363	84.4075	297.363	84.2939	297.363	84.2356	297.363	84.0638	297.363	83.9972	297.363	83.7633	297.363	83.702	297.363	83.402	297.363	83.3579	297.363	82.9975	297.363	82.9746	297.363	82.5807	297.363	82.5717	297.363	82.1958	297.363	82.1897	297.363	81.891	297.363	81.8901	297.363	81.7043	297.363	81.7322	297.363	81.652	297.363	81.7378	297.363	81.7237	297.363	81.8766	297.363	81.8835	297.363	82.0863	297.363	82.0824	297.363	82.3014	297.363	82.2753	297.363	82.4722	297.363	82.4336	297.363	82.5712	297.363	82.5426	297.363	82.5922
307.617	84.3736	307.617	84.3132	307.617	84.3605	307.617	84.1768	307.617	84.2796	307.617	83.9678	307.617	84.1373	307.617	83.6965	307.617	83.9369	307.617	83.3803	307.617	83.6791	307.617	83.0432	307.617	83.365	307.617	82.7131	307.617	83.0035	307.617	82.4156	307.617	82.6161	307.617	82.1692	307.617	82.2369	307.617	81.9832	307.617	81.9068	307.617	81.8595	307.617	81.6671	307.617	81.7949	307.617	81.5516	307.617	81.7839	307.617	81.5723	307.617	81.8219	307.617	81.704	307.617	81.9027	307.617	81.8873	307.617	82.0103	307.617	82.0547	307.617	82.1132	307.617	82.1562	307.617	82.1723
319.336	84.4249	319.336	84.3577	319.336	84.408	319.336	84.2116	319.336	84.3044	319.336	83.9904	319.336	84.1172	319.336	83.6945	319.336	83.8557	319.336	83.3228	319.336	83.5331	319.336	82.8798	319.336	83.1645	319.336	82.3863	319.336	82.7686	319.336	81.8896	319.336	82.3724	319.336	81.4665	319.336	82.0119	319.336	81.2038	319.336	81.7241	319.336	81.1541	319.336	81.5362	319.336	81.298	319.336	81.4651	319.336	81.5569	319.336	81.5184	319.336	81.8435	319.336	81.6839	319.336	82.0971	319.336	81.9172	319.336	82.2869	319.336	82.1523	319.336	82.3964	319.336	82.329	319.336	82.413
329.59	84.4408	329.59	84.388	329.59	84.4367	329.59	84.2802	329.59	84.3688	329.59	84.1145	329.59	84.2278	329.59	83.8856	329.59	84.0065	329.59	83.5894	329.59	83.7025	329.59	83.2255	329.59	83.3199	329.59	82.8003	329.59	82.8709	329.59	82.3305	329.59	82.38	329.59	81.8495	329.59	81.8899	329.59	81.4157	329.59	81.4611	329.59	81.1096	329.59	81.1565	329.59	81.0034	329.59	81.0169	329.59	81.1095	329.59	81.0453	329.59	81.3605	329.59	81.2112	329.59	81.6503	329.59	81.4594	329.59	81.8893	329.59	81.7207	329.59	82.0253	329.59	81.9291	329.59	82.0381
341.309	84.4872	341.309	84.4626	341.309	84.4226	341.309	84.3433	341.309	84.2807	341.309	84.133	341.309	84.075	341.309	83.8437	341.309	83.8167	341.309	83.4906	341.309	83.5128	341.309	83.086	341.309	83.1671	341.309	82.6424	341.309	82.7866	341.309	82.1844	341.309	82.3907	341.309	81.7592	341.309	82.0153	341.309	81.4253	341.309	81.7062	341.309	81.2208	341.309	81.5038	341.309	81.1469	341.309	81.4254	341.309	81.1821	341.309	81.4564	341.309	81.3013	341.309	81.5577	341.309	81.4733	341.309	81.6839	341.309	81.6545	341.309	81.7964	341.309	81.7975	341.309	81.8661	341.309	81.8705
353.027	84.5779	353.027	84.5306	353.027	84.5474	353.027	84.4073	353.027	84.4347	353.027	84.2063	353.027	84.2325	353.027	83.924	353.027	83.9326	353.027	83.5597	353.027	83.529	353.027	83.1224	353.027	83.0246	353.027	82.6325	353.027	82.4396	353.027	82.1174	353.027	81.8181	353.027	81.6121	353.027	81.2242	353.027	81.1718	353.027	80.7283	353.027	80.874	353.027	80.3923	353.027	80.7811	353.027	80.2636	353.027	80.8912	353.027	80.3653	353.027	81.1374	353.027	80.6687	353.027	81.4328	353.027	81.082	353.027	81.7005	353.027	81.4853	353.027	81.8772	353.027	81.7799	353.027	81.9129
366.211	84.726	366.211	84.5946	366.211	84.7485	366.211	84.3667	366.211	84.6638	366.211	84.0642	366.211	84.4825	366.211	83.7062	366.211	84.2147	366.211	83.3009	366.211	83.8639	366.211	82.8512	366.211	83.4255	366.211	82.3733	366.211	82.8928	366.211	81.9099	366.211	82.275	366.211	81.5187	366.211	81.6303	366.211	81.2421	366.211	81.0845	366.211	81.0944	366.211	80.7673	366.211	81.0766	366.211	80.6869	366.211	81.1736	366.211	80.7208	366.211	81.3298	366.211	80.7574	366.211	81.4598	366.211	80.7885	366.211	81.4939	366.211	80.8705	366.211	81.4104	366.211	81.032	366.211	81.2358
379.395	84.7271	379.395	84.7098	379.395	84.7004	379.395	84.6398	379.395	84.6297	379.395	84.4998	379.395	84.5106	379.395	84.2684	379.395	84.3379	379.395	83.9273	379.395	84.106	379.395	83.4687	379.395	83.8092	379.395	82.903	379.395	83.4449	379.395	82.2668	379.395	83.0159	379.395	81.6294	379.395	82.5328	379.395	81.0816	379.395	82.0234	379.395	80.7	379.395	81.5536	379.395	80.5185	379.395	81.2291	379.395	80.5392	379.395	81.1383	379.395	80.7451	379.395	81.2694	379.395	81.0812	379.395	81.5137	379.395	81.4471	379.395	81.7482	379.395	81.7387	379.395	81.8892	379.395	81.8917
392.578	84.6437	392.578	84.6698	392.578	84.5359	392.578	84.6215	392.578	84.3476	392.578	84.5061	392.578	84.0903	392.578	84.3243	392.578	83.7794	392.578	84.0677	392.578	83.4258	392.578	83.72	392.578	83.0341	392.578	83.2653	392.578	82.6105	392.578	82.7058	392.578	82.167	392.578	82.0902	392.578	81.7185	392.578	81.5236	392.578	81.2874	392.578	81.1247	392.578	80.929	392.578	80.9434	392.578	80.7413	392.578	80.9405	392.578	80.7994	392.578	81.0522	392.578	81.0645	392.578	81.2362	392.578	81.3995	392.578	81.4572	392.578	81.6713	392.578	81.6644	392.578	81.8085	392.578	81.7979
405.762	84.4232	405.762	84.346	405.762	84.4171	405.762	84.1864	405.762	84.3297	405.762	83.9513	405.762	84.1629	405.762	83.6551	405.762	83.9162	405.762	83.3153	405.762	83.5834	405.762	82.9438	405.762	83.1543	405.762	82.5374	405.762	82.628	405.762	82.0786	405.762	82.0352	405.762	81.5638	405.762	81.4507	405.762	81.0475	405.762	80.9683	405.762	80.6571	405.762	80.6433	405.762	80.5144	405.762	80.4697	405.762	80.6128	405.762	80.4298	405.762	80.8262	405.762	80.5305	405.762	81.0365	405.762	80.7587	405.762	81.1982	405.762	81.0327	405.762	81.3032	405.762	81.2433	405.762	81.3306
420.41	85.079	420.41	85.011	420.41	85.0366	420.41	84.8305	420.41	84.8797	420.41	84.5319	420.41	84.6028	420.41	84.1163	420.41	84.2087	420.41	83.6032	420.41	83.7163	420.41	83.0365	420.41	83.1614	420.41	82.4695	420.41	82.5864	420.41	81.9346	420.41	82.0228	420.41	81.4305	420.41	81.4832	420.41	80.9646	420.41	80.9771	420.41	80.6113	420.41	80.5433	420.41	80.486	420.41	80.2536	420.41	80.6151	420.41	80.1561	420.41	80.8796	420.41	80.2222	420.41	81.1192	420.41	80.3818	420.41	81.2345	420.41	80.5886	420.41	81.2002	420.41	80.8208	420.41	81.0437
435.059	84.8995	435.059	84.8542	435.059	84.8398	435.059	84.7202	435.059	84.6755	435.059	84.511	435.059	84.4234	435.059	84.2165	435.059	84.0951	435.059	83.8016	435.059	83.6799	435.059	83.2348	435.059	83.1542	435.059	82.5392	435.059	82.5191	435.059	81.8294	435.059	81.8418	435.059	81.2671	435.059	81.2575	435.059	80.9225	435.059	80.8875	435.059	80.7212	435.059	80.7321	435.059	80.5782	435.059	80.7012	435.059	80.5114	435.059	80.741	435.059	80.5875	435.059	80.8637	435.059	80.8074	435.059	81.0698	435.059	81.0888	435.059	81.295	435.059	81.3313	435.059	81.4467	435.059	81.4623
451.172	84.9884	451.172	84.8716	451.172	84.9789	451.172	84.6306	451.172	84.843	451.172	84.2753	451.172	84.5837	451.172	83.8278	451.172	84.2115	451.172	83.3095	451.172	83.7387	451.172	82.7162	451.172	83.16	451.172	82.0086	451.172	82.4417	451.172	81.1489	451.172	81.5491	451.172	80.1893	451.172	80.5181	451.172	79.3648	451.172	79.5379	451.172	79.0153	451.172	78.9331	451.172	79.2526	451.172	78.9082	451.172	79.8569	451.172	79.3376	451.172	80.5561	451.172	79.9587	451.172	81.1716	451.172	80.592	451.172	81.6004	451.172	81.1423	451.172	81.8004	451.172	81.5494	451.172	81.7764
465.82	84.9432	465.82	84.9349	465.82	84.9088	465.82	84.8472	465.82	84.8347	465.82	84.6384	465.82	84.6895	465.82	84.2901	465.82	84.4341	465.82	83.8097	465.82	84.0452	465.82	83.214	465.82	83.5158	465.82	82.5094	465.82	82.8461	465.82	81.69	465.82	82.0475	465.82	80.7728	465.82	81.1623	465.82	79.8677	465.82	80.2808	465.82	79.2078	465.82	79.5453	465.82	79.0028	465.82	79.1265	465.82	79.2205	465.82	79.1295	465.82	79.6507	465.82	79.4725	465.82	80.1125	465.82	79.9403	465.82	80.4966	465.82	80.3582	465.82	80.732	465.82	80.6497	465.82	80.7823
483.398	84.9563	483.398	84.9058	483.398	84.9418	483.398	84.8173	483.398	84.8321	483.398	84.6842	483.398	84.6132	483.398	84.4623	483.398	84.2867	483.398	84.0999	483.398	83.8658	483.398	83.5695	483.398	83.3713	483.398	82.8721	483.398	82.8132	483.398	82.0205	483.398	82.1635	483.398	81.0347	483.398	81.368	483.398	79.9975	483.398	80.4272	483.398	79.1572	483.398	79.511	483.398	78.8606	483.398	78.9736	483.398	79.1512	483.398	79.0588	483.398	79.6964	483.398	79.5943	483.398	80.218	483.398	80.2249	483.398	80.6365	483.398	80.7251	483.398	80.9363	483.398	81.014	483.398	81.0775
499.512	84.6035	499.512	84.5034	499.512	84.6116	499.512	84.3402	499.512	84.5288	499.512	84.148	499.512	84.382	499.512	83.9353	499.512	84.1836	499.512	83.6735	499.512	83.8921	499.512	83.3127	499.512	83.4323	499.512	82.8127	499.512	82.7682	499.512	82.1673	499.512	81.9536	499.512	81.4105	499.512	81.1049	499.512	80.602	499.512	80.321	499.512	79.8251	499.512	79.6535	499.512	79.2391	499.512	79.1605	499.512	79.0823	499.512	78.9298	499.512	79.4365	499.512	79.0196	499.512	80.0497	499.512	79.3995	499.512	80.5788	499.512	79.9366	499.512	80.8341	499.512	80.4473	499.512	80.7773
517.09	84.4573	517.09	84.3953	517.09	84.4449	517.09	84.2369	517.09	84.38	517.09	83.9885	517.09	84.2626	517.09	83.6791	517.09	84.0811	517.09	83.3128	517.09	83.8266	517.09	82.8385	517.09	83.4794	517.09	82.1941	517.09	82.9899	517.09	81.3717	517.09	82.3053	517.09	80.4271	517.09	81.4289	517.09	79.4722	517.09	80.4549	517.09	78.7327	517.09	79.5558	517.09	78.5342	517.09	78.9804	517.09	78.9764	517.09	79.0077	517.09	79.7528	517.09	79.6446	517.09	80.5087	517.09	80.5046	517.09	81.0867	517.09	81.1974	517.09	81.463	517.09	81.5687	517.09	81.6357
536.133	84.0972	536.133	84.0532	536.133	84.0258	536.133	83.9065	536.133	83.837	536.133	83.6768	536.133	83.547	536.133	83.3822	536.133	83.1957	536.133	83.0277	536.133	82.8277	536.133	82.5972	536.133	82.4496	536.133	82.0495	536.133	82.0091	536.133	81.3288	536.133	81.4317	536.133	80.4044	536.133	80.6893	536.133	79.3536	536.133	79.841	536.133	78.4513	536.133	79.0463	536.133	78.0718	536.133	78.5875	536.133	78.3277	536.133	78.7172	536.133	79.0036	536.133	79.3076	536.133	79.8215	536.133	79.9846	536.133	80.5392	536.133	80.5323	536.133	80.9799	536.133	80.9103	536.133	81.086
555.176	84.5371	555.176	84.4956	555.176	84.5298	555.176	84.3743	555.176	84.4842	555.176	84.1468	555.176	84.3786	555.176	83.8046	555.176	84.1697	555.176	83.3468	555.176	83.8124	555.176	82.7658	555.176	83.2771	555.176	82.0409	555.176	82.5523	555.176	81.1304	555.176	81.6256	555.176	79.9737	555.176	80.4798	555.176	78.5714	555.176	79.1561	555.176	77.2046	555.176	77.8324	555.176	76.5681	555.176	76.7913	555.176	77.043	555.176	76.378	555.176	78.0845	555.176	76.9148	555.176	79.1059	555.176	78.1241	555.176	79.8745	555.176	79.2988	555.176	80.3136	555.176	80.0669	555.176	80.3894
574.219	84.5295	574.219	84.4337	574.219	84.4969	574.219	84.2491	574.219	84.3325	574.219	84.0006	574.219	84.0785	574.219	83.6782	574.219	83.778	574.219	83.2803	574.219	83.4355	574.219	82.8448	574.219	83.0227	574.219	82.3856	574.219	82.5106	574.219	81.8042	574.219	81.8988	574.219	80.9292	574.219	81.1991	574.219	79.6518	574.219	80.3449	574.219	78.0784	574.219	79.2132	574.219	76.8282	574.219	78.003	574.219	76.8492	574.219	77.5149	574.219	77.9065	574.219	78.0719	574.219	79.0626	574.219	79.0111	574.219	79.9517	574.219	79.8693	574.219	80.524	574.219	80.4816	574.219	80.7184
594.727	84.604	594.727	84.4723	594.727	84.5732	594.727	84.1778	594.727	84.389	594.727	83.7536	594.727	84.0639	594.727	83.2721	594.727	83.6194	594.727	82.7814	594.727	83.0906	594.727	82.2357	594.727	82.5388	594.727	81.5737	594.727	82.0336	594.727	80.8358	594.727	81.5558	594.727	80.0742	594.727	80.9499	594.727	79.2015	594.727	80.0628	594.727	78.1445	594.727	78.8877	594.727	77.199	594.727	77.6523	594.727	77.0242	594.727	77.0335	594.727	77.7573	594.727	77.657	594.727	78.7953	594.727	78.9062	594.727	79.6787	594.727	79.9262	594.727	80.2755	594.727	80.4633	594.727	80.554
615.234	85.9475	615.234	85.8516	615.234	85.8624	615.234	85.5653	615.234	85.5937	615.234	85.0662	615.234	85.1471	615.234	84.3439	615.234	84.5441	615.234	83.4228	615.234	83.8017	615.234	82.3326	615.234	82.9092	615.234	81.0665	615.234	81.8365	615.234	79.6489	615.234	80.5739	615.234	78.2136	615.234	79.17	615.234	76.7296	615.234	77.7467	615.234	74.8319	615.234	76.4967	615.234	72.9163	615.234	75.6804	615.234	73.236	615.234	75.4565	615.234	75.2967	615.234	75.7133	615.234	77.038	615.234	76.4505	615.234	78.1659	615.234	77.6314	615.234	78.8434	615.234	78.6627	615.234	79.0647
637.207	86.3898	637.207	86.397	637.207	86.2978	637.207	86.3038	637.207	86.1441	637.207	86.0847	637.207	85.9456	637.207	85.6925	637.207	85.6739	637.207	85.0977	637.207	85.235	637.207	84.3258	637.207	84.5116	637.207	83.372	637.207	83.4586	637.207	82.0649	637.207	82.1765	637.207	80.1922	637.207	80.8131	637.207	77.8669	637.207	79.2726	637.207	75.5184	637.207	77.2909	637.207	73.0303	637.207	75.2692	637.207	70.7584	637.207	74.3375	637.207	71.5869	637.207	74.1586	637.207	73.9715	637.207	74.0647	637.207	75.6654	637.207	74.3499	637.207	76.3843	637.207	75.1977	637.207	76.1158
659.18	85.6325	659.18	85.7129	659.18	85.5495	659.18	85.7569	659.18	85.4543	659.18	85.7518	659.18	85.3047	659.18	85.7211	659.18	85.0671	659.18	85.6212	659.18	84.7219	659.18	85.3035	659.18	84.2757	659.18	84.6496	659.18	83.754	659.18	83.6331	659.18	83.0702	659.18	82.2198	659.18	81.9553	659.18	80.4007	659.18	80.1529	659.18	78.4195	659.18	77.65	659.18	76.5462	659.18	74.9954	659.18	74.5141	659.18	73.9112	659.18	73.043	659.18	74.773	659.18	73.9863	659.18	75.8201	659.18	75.5477	659.18	76.53	659.18	76.4948	659.18	76.9331	659.18	76.9336
682.617	84.5872	682.617	84.4199	682.617	84.7762	682.617	84.4439	682.617	84.899	682.617	84.6939	682.617	84.978	682.617	84.9628	682.617	85.0623	682.617	85.073	682.617	85.1361	682.617	85.0134	682.617	85.073	682.617	84.7632	682.617	84.6863	682.617	84.2616	682.617	83.8568	682.617	83.4993	682.617	82.6159	682.617	82.3795	682.617	81.0298	682.617	80.7344	682.617	78.9534	682.617	78.7118	682.617	75.9911	682.617	76.6676	682.617	72.392	682.617	74.9556	682.617	72.2975	682.617	74.7058	682.617	75.0139	682.617	75.7381	682.617	76.7955	682.617	76.7078	682.617	77.4742	682.617	77.3368
707.52	84.7893	707.52	84.6546	707.52	84.822	707.52	84.3705	707.52	84.8585	707.52	84.0379	707.52	84.9622	707.52	83.8826	707.52	85.0776	707.52	83.9397	707.52	85.1255	707.52	83.9861	707.52	85.1375	707.52	83.9597	707.52	85.1789	707.52	83.9274	707.52	85.1487	707.52	83.6687	707.52	84.7722	707.52	82.8545	707.52	83.7853	707.52	81.4341	707.52	82.1059	707.52	79.7096	707.52	79.8639	707.52	78.3006	707.52	77.2157	707.52	77.6347	707.52	74.9478	707.52	77.7265	707.52	75.2426	707.52	78.5651	707.52	76.9595	707.52	79.3646	707.52	78.4091	707.52	79.3158
732.422	84.032	732.422	83.974	732.422	84.1471	732.422	84.0017	732.422	84.1338	732.422	83.9065	732.422	83.9872	732.422	83.6059	732.422	83.9431	732.422	83.3578	732.422	84.1311	732.422	83.309	732.422	84.3803	732.422	83.1117	732.422	84.502	732.422	82.4292	732.422	84.4477	732.422	81.4261	732.422	84.1157	732.422	80.327	732.422	83.3491	732.422	78.7253	732.422	82.1352	732.422	76.9321	732.422	80.4711	732.422	76.8729	732.422	78.4179	732.422	77.7611	732.422	76.9867	732.422	78.4045	732.422	77.2574	732.422	79.0662	732.422	78.2645	732.422	79.5996	732.422	79.1121	732.422	79.6087
757.324	84.0218	757.324	84.0874	757.324	83.7049	757.324	83.9205	757.324	83.214	757.324	83.686	757.324	82.6422	757.324	83.5039	757.324	82.1614	757.324	83.3696	757.324	82.0052	757.324	83.429	757.324	82.2874	757.324	83.6979	757.324	82.8491	757.324	83.656	757.324	83.339	757.324	82.8748	757.324	83.5365	757.324	81.3856	757.324	83.2166	757.324	79.25	757.324	82.063	757.324	76.2426	757.324	80.207	757.324	74.0531	757.324	78.3372	757.324	75.6138	757.324	77.2357	757.324	77.624	757.324	77.7113	757.324	78.9603	757.324	79.0636	757.324	79.8371	757.324	80.0354	757.324	80.2557
785.156	84.0143	785.156	84.0946	785.156	83.9822	785.156	84.1393	785.156	83.8478	785.156	83.8715	785.156	83.4562	785.156	83.2388	785.156	82.7535	785.156	82.5671	785.156	81.865	785.156	82.2453	785.156	81.2394	785.156	82.5446	785.156	81.1544	785.156	83.1613	785.156	81.1984	785.156	83.17	785.156	80.906	785.156	82.086	785.156	80.3231	785.156	80.2431	785.156	79.5002	785.156	77.8098	785.156	77.8026	785.156	73.9049	785.156	75.2993	785.156	70.8242	785.156	74.8626	785.156	74.0696	785.156	76.8834	785.156	76.6747	785.156	78.5935	785.156	77.9822	785.156	79.2271	785.156	78.8442
811.523	83.9034	811.523	83.5275	811.523	84.0564	811.523	82.9407	811.523	83.9012	811.523	82.2775	811.523	83.3381	811.523	81.6876	811.523	82.5115	811.523	81.309	811.523	81.6316	811.523	81.4136	811.523	80.8242	811.523	81.7318	811.523	80.6073	811.523	81.8692	811.523	81.0621	811.523	81.968	811.523	81.1226	811.523	81.7397	811.523	80.3059	811.523	80.737	811.523	78.9386	811.523	79.0374	811.523	77.1181	811.523	76.4472	811.523	74.581	811.523	73.623	811.523	72.7699	811.523	74.3984	811.523	74.0798	811.523	76.8443	811.523	76.0747	811.523	78.4082	811.523	77.691	811.523	78.6524
840.82	84.394	840.82	84.3092	840.82	84.1385	840.82	83.9179	840.82	83.574	840.82	83.2691	840.82	82.8669	840.82	82.4618	840.82	82.1527	840.82	81.4507	840.82	81.4854	840.82	80.3987	840.82	80.8673	840.82	80.2854	840.82	80.3169	840.82	80.9927	840.82	80.2384	840.82	81.2854	840.82	80.6078	840.82	80.8519	840.82	80.6894	840.82	79.8752	840.82	79.9677	840.82	78.257	840.82	78.172	840.82	75.6313	840.82	75.7148	840.82	73.7076	840.82	74.4735	840.82	75.0203	840.82	75.5946	840.82	76.3772	840.82	77.4612	840.82	77.4003	840.82	78.4901	840.82	78.33
870.117	84.0694	870.117	84.054	870.117	84.0134	870.117	83.5519	870.117	83.8788	870.117	82.5215	870.117	83.2665	870.117	81.4011	870.117	82.1362	870.117	80.4522	870.117	80.8123	870.117	79.8	870.117	79.6246	870.117	79.7798	870.117	79.1801	870.117	80.0653	870.117	79.593	870.117	80.0545	870.117	80.15	870.117	79.7906	870.117	80.2123	870.117	79.0262	870.117	79.5214	870.117	76.9704	870.117	78.4321	870.117	74.2276	870.117	76.7776	870.117	73.314	870.117	74.5075	870.117	74.6027	870.117	74.9756	870.117	76.4893	870.117	76.7856	870.117	77.6468	870.117	77.6956	870.117	77.9473
900.879	85.6371	900.879	85.2702	900.879	85.4414	900.879	84.7094	900.879	84.8206	900.879	84.1097	900.879	84.1329	900.879	83.2285	900.879	83.3309	900.879	81.8542	900.879	82.2766	900.879	79.7023	900.879	81.1139	900.879	77.9493	900.879	80.0243	900.879	78.6023	900.879	79.2746	900.879	79.4345	900.879	79.1625	900.879	79.213	900.879	79.6047	900.879	78.5348	900.879	79.6362	900.879	77.558	900.879	78.0978	900.879	75.1568	900.879	75.6461	900.879	72.8923	900.879	75.4954	900.879	75.3864	900.879	77.1653	900.879	78.2924	900.879	78.7656	900.879	79.9034	900.879	79.8491	900.879	80.3058
933.105	83.6873	933.105	83.6938	933.105	83.5893	933.105	83.4749	933.105	83.232	933.105	82.8348	933.105	82.5652	933.105	81.7427	933.105	81.7982	933.105	80.5958	933.105	80.9239	933.105	79.9071	933.105	79.7869	933.105	78.9953	933.105	78.9678	933.105	78.4831	933.105	79.1766	933.105	79.1544	933.105	79.6703	933.105	78.5083	933.105	79.7215	933.105	76.1645	933.105	79.0595	933.105	74.4607	933.105	77.1774	933.105	73.5661	933.105	73.7085	933.105	73.3745	933.105	71.6865	933.105	75.556	933.105	75.3536	933.105	77.5995	933.105	78.3142	933.105	78.8606	933.105	79.4499	933.105	79.4486
965.332	75.6388	965.332	75.4773	965.332	75.6662	965.332	75.4011	965.332	75.3642	965.332	75.2209	965.332	74.7745	965.332	74.9405	965.332	73.7379	965.332	74.1773	965.332	72.2333	965.332	72.312	965.332	70.737	965.332	70.3447	965.332	69.4786	965.332	69.5464	965.332	69.0964	965.332	71.0437	965.332	70.6144	965.332	72.9203	965.332	72.6489	965.332	71.8335	965.332	73.451	965.332	67.2884	965.332	71.5599	965.332	60.0762	965.332	67.0456	965.332	60.7847	965.332	66.8048	965.332	68.1153	965.332	69.5238	965.332	72.4169	965.332	72.3552	965.332	74.2175	965.332	73.9758	965.332	74.3833
1,000.49	74.0508	1,000.49	73.3258	1,000.49	74.7646	1,000.49	73.4975	1,000.49	75.1275	1,000.49	74.3955	1,000.49	75.1741	1,000.49	74.3479	1,000.49	74.9127	1,000.49	73.3989	1,000.49	74.2332	1,000.49	72.2488	1,000.49	73.0304	1,000.49	69.8313	1,000.49	70.6633	1,000.49	67.1445	1,000.49	66.941	1,000.49	67.5966	1,000.49	64.9432	1,000.49	68.2217	1,000.49	64.3496	1,000.49	68.8345	1,000.49	64.3289	1,000.49	67.1089	1,000.49	65.8589	1,000.49	61.1652	1,000.49	63.6565	1,000.49	49.0164	1,000.49	52.2822	1,000.49	59.9864	1,000.49	58.3793	1,000.49	65.7531	1,000.49	66.4983	1,000.49	69.5589	1,000.49	70.7051	1,000.49	71.7229
1,035.64	77.0803	1,035.64	77.1203	1,035.64	76.6451	1,035.64	76.9984	1,035.64	75.9084	1,035.64	76.4717	1,035.64	75.4941	1,035.64	75.6738	1,035.64	75.4207	1,035.64	75.1284	1,035.64	74.8998	1,035.64	75.0574	1,035.64	73.8042	1,035.64	74.7338	1,035.64	73.2496	1,035.64	72.8983	1,035.64	72.8438	1,035.64	69.4329	1,035.64	71.1791	1,035.64	65.3774	1,035.64	68.4968	1,035.64	63.4187	1,035.64	66.0577	1,035.64	62.8471	1,035.64	61.871	1,035.64	62.6625	1,035.64	55.6886	1,035.64	57.1641	1,035.64	48.7253	1,035.64	47.0891	1,035.64	53.7967	1,035.64	56.9965	1,035.64	57.8276	1,035.64	61.8742	1,035.64	61.1054	1,035.64	63.3607
1,072.27	82.6277	1,072.27	82.801	1,072.27	82.4019	1,072.27	82.4459	1,072.27	82.1079	1,072.27	81.3624	1,072.27	81.5594	1,072.27	80.1856	1,072.27	80.6179	1,072.27	79.4331	1,072.27	79.4805	1,072.27	78.554	1,072.27	78.4836	1,072.27	77.5924	1,072.27	77.2879	1,072.27	77.6003	1,072.27	76.4082	1,072.27	77.6743	1,072.27	76.5428	1,072.27	77.1374	1,072.27	76.8461	1,072.27	76.4171	1,072.27	76.4304	1,072.27	74.996	1,072.27	74.8928	1,072.27	72.7855	1,072.27	71.4637	1,072.27	69.3947	1,072.27	66.0904	1,072.27	63.0008	1,072.27	59.3329	1,072.27	59.9353	1,072.27	60.382	1,072.27	61.7279	1,072.27	61.6639	1,072.27	61.3768
1,108.89	84.6864	1,108.89	84.5401	1,108.89	84.5318	1,108.89	84.1626	1,108.89	84.3031	1,108.89	83.6279	1,108.89	83.8585	1,108.89	83.1	1,108.89	83.0015	1,108.89	82.3827	1,108.89	81.928	1,108.89	80.9806	1,108.89	80.8774	1,108.89	79.5262	1,108.89	79.8491	1,108.89	78.7886	1,108.89	78.6955	1,108.89	78.3469	1,108.89	77.9889	1,108.89	78.07	1,108.89	77.7452	1,108.89	77.6122	1,108.89	77.5253	1,108.89	76.0958	1,108.89	76.8025	1,108.89	73.5355	1,108.89	75.1386	1,108.89	70.0516	1,108.89	71.9796	1,108.89	68.0213	1,108.89	67.7338	1,108.89	70.9548	1,108.89	68.5851	1,108.89	73.3776	1,108.89	72.3348	1,108.89	73.9382
1,148.44	83.664	1,148.44	83.5132	1,148.44	83.8417	1,148.44	83.1536	1,148.44	83.6336	1,148.44	82.6341	1,148.44	82.9572	1,148.44	81.966	1,148.44	82.3195	1,148.44	81.0511	1,148.44	81.439	1,148.44	79.9797	1,148.44	80.2262	1,148.44	78.4707	1,148.44	78.9532	1,148.44	76.5886	1,148.44	77.4275	1,148.44	75.7631	1,148.44	76.2193	1,148.44	76.1369	1,148.44	76.0693	1,148.44	76.7388	1,148.44	76.2538	1,148.44	76.2004	1,148.44	75.8055	1,148.44	74.4005	1,148.44	75.1784	1,148.44	70.8801	1,148.44	72.4268	1,148.44	65.8657	1,148.44	68.5637	1,148.44	68.7677	1,148.44	68.8974	1,148.44	71.6419	1,148.44	71.1276	1,148.44	72.7438
1,189.45	84.9579	1,189.45	84.7217	1,189.45	84.9072	1,189.45	84.504	1,189.45	84.5914	1,189.45	83.8611	1,189.45	84.1183	1,189.45	82.8128	1,189.45	83.2741	1,189.45	81.9607	1,189.45	82.2183	1,189.45	80.7947	1,189.45	81.0902	1,189.45	78.4089	1,189.45	79.6844	1,189.45	76.533	1,189.45	77.1238	1,189.45	76.3295	1,189.45	75.9944	1,189.45	77.3993	1,189.45	77.0677	1,189.45	78.0357	1,189.45	77.5842	1,189.45	76.8482	1,189.45	77.9696	1,189.45	74.1871	1,189.45	76.6719	1,189.45	69.9109	1,189.45	73.4073	1,189.45	66.755	1,189.45	69.3832	1,189.45	71.8537	1,189.45	69.7001	1,189.45	74.543	1,189.45	73.9058	1,189.45	74.9695
1,230.47	85.9362	1,230.47	85.7413	1,230.47	85.8249	1,230.47	85.2573	1,230.47	85.3027	1,230.47	84.8756	1,230.47	84.437	1,230.47	84.301	1,230.47	83.6788	1,230.47	83.3847	1,230.47	83.0144	1,230.47	82.5084	1,230.47	82.1497	1,230.47	80.9206	1,230.47	81.0951	1,230.47	78.8946	1,230.47	79.6583	1,230.47	77.9243	1,230.47	77.499	1,230.47	77.6313	1,230.47	77.0529	1,230.47	78.828	1,230.47	77.9884	1,230.47	79.1184	1,230.47	77.7523	1,230.47	76.4583	1,230.47	76.8474	1,230.47	72.8221	1,230.47	74.3458	1,230.47	70.3839	1,230.47	71.7193	1,230.47	72.9358	1,230.47	73.7714	1,230.47	75.9622	1,230.47	76.0008	1,230.47	77.0527
1,274.41	84.9037	1,274.41	84.6087	1,274.41	84.7462	1,274.41	84.1701	1,274.41	84.2601	1,274.41	83.5824	1,274.41	83.6388	1,274.41	83.3437	1,274.41	82.7029	1,274.41	82.8698	1,274.41	82.1865	1,274.41	81.2922	1,274.41	81.3826	1,274.41	79.1478	1,274.41	80.3439	1,274.41	77.1334	1,274.41	79.1718	1,274.41	76.2541	1,274.41	76.6588	1,274.41	76.0662	1,274.41	76.7723	1,274.41	77.3692	1,274.41	76.8806	1,274.41	77.5317	1,274.41	76.2249	1,274.41	74.0512	1,274.41	75.9165	1,274.41	68.0742	1,274.41	74.3453	1,274.41	65.8905	1,274.41	70.7883	1,274.41	74.4545	1,274.41	73.6948	1,274.41	77.1705	1,274.41	76.4192	1,274.41	77.3199
1,319.82	83.9511	1,319.82	83.5978	1,319.82	83.9786	1,319.82	83.2384	1,319.82	83.2671	1,319.82	82.4438	1,319.82	82.2138	1,319.82	81.5591	1,319.82	81.4164	1,319.82	81.3749	1,319.82	80.345	1,319.82	80.4285	1,319.82	79.3423	1,319.82	79.3383	1,319.82	77.4212	1,319.82	78.1216	1,319.82	76.7795	1,319.82	75.423	1,319.82	77.0728	1,319.82	72.7525	1,319.82	74.5389	1,319.82	75.1903	1,319.82	74.9448	1,319.82	76.3197	1,319.82	74.7506	1,319.82	74.7331	1,319.82	73.6737	1,319.82	70.4101	1,319.82	69.3884	1,319.82	64.0316	1,319.82	65.6416	1,319.82	70.723	1,319.82	70.8026	1,319.82	75.1229	1,319.82	73.8477	1,319.82	75.6348
1,366.7	84.2772	1,366.7	84.3302	1,366.7	84.1707	1,366.7	83.8923	1,366.7	83.5547	1,366.7	83.002	1,366.7	82.7501	1,366.7	82.0931	1,366.7	81.9235	1,366.7	80.4713	1,366.7	80.6201	1,366.7	79.6964	1,366.7	79.2944	1,366.7	79.0466	1,366.7	77.7783	1,366.7	77.6268	1,366.7	76.2959	1,366.7	75.3282	1,366.7	75.337	1,366.7	75.4756	1,366.7	74.763	1,366.7	75.5918	1,366.7	76.0117	1,366.7	75.3259	1,366.7	75.9182	1,366.7	73.9748	1,366.7	74.1	1,366.7	69.1217	1,366.7	71.4704	1,366.7	63.8885	1,366.7	57.0882	1,366.7	71.6403	1,366.7	69.5096	1,366.7	73.0553	1,366.7	73.3899	1,366.7	74.8217
1,413.57	85.5136	1,413.57	85.1837	1,413.57	85.4875	1,413.57	84.5968	1,413.57	84.952	1,413.57	83.7482	1,413.57	84.0675	1,413.57	82.2715	1,413.57	83.0185	1,413.57	81.1631	1,413.57	81.7655	1,413.57	80.063	1,413.57	80.0661	1,413.57	78.5116	1,413.57	78.9137	1,413.57	77.3531	1,413.57	77.5719	1,413.57	76.8579	1,413.57	76.9415	1,413.57	74.6513	1,413.57	75.1891	1,413.57	74.1092	1,413.57	74.4329	1,413.57	75.1197	1,413.57	75.1048	1,413.57	73.9164	1,413.57	74.8264	1,413.57	70.1419	1,413.57	71.6218	1,413.57	50.7586	1,413.57	66.614	1,413.57	65.7499	1,413.57	66.3703	1,413.57	72.6813	1,413.57	72.6202	1,413.57	74.6955
1,463.38	86.0041	1,463.38	85.8927	1,463.38	85.8477	1,463.38	85.2295	1,463.38	85.4	1,463.38	84.2617	1,463.38	84.6956	1,463.38	83.4137	1,463.38	83.8489	1,463.38	82.0808	1,463.38	82.5044	1,463.38	80.3803	1,463.38	81.7017	1,463.38	80.3322	1,463.38	80.4466	1,463.38	79.6137	1,463.38	78.9311	1,463.38	77.713	1,463.38	76.1954	1,463.38	74.9013	1,463.38	75.3662	1,463.38	74.1053	1,463.38	75.1673	1,463.38	75.806	1,463.38	75.9258	1,463.38	76.3745	1,463.38	76.3578	1,463.38	73.5455	1,463.38	73.6354	1,463.38	65.9473	1,463.38	63.0767	1,463.38	66.7001	1,463.38	62.1172	1,463.38	72.4151	1,463.38	71.722	1,463.38	74.243
1,516.11	86.6796	1,516.11	86.5325	1,516.11	86.5408	1,516.11	85.8929	1,516.11	86.0812	1,516.11	84.9039	1,516.11	85.5542	1,516.11	83.9364	1,516.11	84.3695	1,516.11	82.0986	1,516.11	82.9688	1,516.11	80.9472	1,516.11	81.4301	1,516.11	79.8444	1,516.11	80.3074	1,516.11	79.8744	1,516.11	78.4471	1,516.11	77.7837	1,516.11	76.5657	1,516.11	75.2906	1,516.11	76.6856	1,516.11	73.3935	1,516.11	76.8549	1,516.11	74.2744	1,516.11	77.1585	1,516.11	76.1124	1,516.11	75.4464	1,516.11	72.8071	1,516.11	72.7705	1,516.11	56.5608	1,516.11	66.5731	1,516.11	65.6727	1,516.11	67.5942	1,516.11	73.113	1,516.11	74.2786	1,516.11	74.3736
1,568.85	86.201	1,568.85	86.0278	1,568.85	86.3322	1,568.85	85.6036	1,568.85	85.6231	1,568.85	85.0801	1,568.85	84.6215	1,568.85	84.2404	1,568.85	83.8619	1,568.85	82.6352	1,568.85	83.0892	1,568.85	80.7445	1,568.85	82.1993	1,568.85	79.5162	1,568.85	80.7774	1,568.85	77.3642	1,568.85	78.4548	1,568.85	76.2139	1,568.85	76.058	1,568.85	75.1706	1,568.85	70.7549	1,568.85	75.7941	1,568.85	73.8521	1,568.85	74.671	1,568.85	74.6541	1,568.85	75.3742	1,568.85	76.7552	1,568.85	71.2328	1,568.85	71.9482	1,568.85	59.9979	1,568.85	66.8623	1,568.85	69.9705	1,568.85	63.0478	1,568.85	75.0479	1,568.85	73.1167	1,568.85	76.619
1,624.51	85.9135	1,624.51	85.2545	1,624.51	85.5739	1,624.51	84.8162	1,624.51	85.1239	1,624.51	84.1363	1,624.51	84.6218	1,624.51	83.1719	1,624.51	83.8012	1,624.51	82.5706	1,624.51	82.6118	1,624.51	81.2939	1,624.51	81.2458	1,624.51	79.4567	1,624.51	79.5136	1,624.51	77.9918	1,624.51	79.022	1,624.51	76.3114	1,624.51	77.3947	1,624.51	74.8893	1,624.51	74.4992	1,624.51	74.3687	1,624.51	71.1189	1,624.51	75.9123	1,624.51	73.43	1,624.51	75.8118	1,624.51	74.342	1,624.51	74.6906	1,624.51	70.5497	1,624.51	66.1121	1,624.51	65.0239	1,624.51	58.2074	1,624.51	69.0224	1,624.51	70.3431	1,624.51	72.8669	1,624.51	74.1345
1,681.64	85.1113	1,681.64	84.7048	1,681.64	83.9398	1,681.64	83.7025	1,681.64	84.0011	1,681.64	82.9026	1,681.64	83.5962	1,681.64	81.9409	1,681.64	82.7667	1,681.64	81.748	1,681.64	81.6699	1,681.64	79.1863	1,681.64	80.3169	1,681.64	78.8229	1,681.64	78.7239	1,681.64	77.6483	1,681.64	77.1919	1,681.64	76.1611	1,681.64	77.7924	1,681.64	75.541	1,681.64	74.2033	1,681.64	68.9264	1,681.64	70.1566	1,681.64	72.7795	1,681.64	72.3144	1,681.64	75.2308	1,681.64	73.8478	1,681.64	76.5697	1,681.64	72.446	1,681.64	71.4837	1,681.64	66.0348	1,681.64	65.2954	1,681.64	68.5468	1,681.64	69.5341	1,681.64	72.7249	1,681.64	73.731
1,741.7	84.0242	1,741.7	83.9375	1,741.7	84.5505	1,741.7	83.9119	1,741.7	83.9527	1,741.7	83.0183	1,741.7	82.9763	1,741.7	81.7774	1,741.7	81.4501	1,741.7	81.7352	1,741.7	79.5333	1,741.7	78.1291	1,741.7	80.8466	1,741.7	78.0193	1,741.7	79.7435	1,741.7	76.4236	1,741.7	78.2664	1,741.7	75.1995	1,741.7	77.0658	1,741.7	72.0203	1,741.7	72.698	1,741.7	72.121	1,741.7	73.8481	1,741.7	73.7349	1,741.7	67.8983	1,741.7	75.3972	1,741.7	75.0096	1,741.7	70.3326	1,741.7	71.0557	1,741.7	67.6666	1,741.7	71.8349	1,741.7	59.8241	1,741.7	65.8018	1,741.7	60.8522	1,741.7	74.7368	1,741.7	71.9657
1,803.22	84.0007	1,803.22	83.8896	1,803.22	83.8778	1,803.22	83.3828	1,803.22	83.2681	1,803.22	82.7437	1,803.22	82.4059	1,803.22	81.7486	1,803.22	81.6788	1,803.22	80.3104	1,803.22	80.7406	1,803.22	79.6723	1,803.22	79.5764	1,803.22	77.53	1,803.22	79.2472	1,803.22	77.7198	1,803.22	78.8461	1,803.22	76.1175	1,803.22	77.4035	1,803.22	75.5166	1,803.22	75.9741	1,803.22	72.4839	1,803.22	73.2763	1,803.22	72.65	1,803.22	71.4729	1,803.22	74.1684	1,803.22	74.3825	1,803.22	74.2597	1,803.22	74.7971	1,803.22	71.5262	1,803.22	70.6209	1,803.22	60.8609	1,803.22	57.59	1,803.22	69.6254	1,803.22	65.4438	1,803.22	70.1174
1,866.21	85.652	1,866.21	85.3268	1,866.21	85.4395	1,866.21	84.965	1,866.21	85.0357	1,866.21	84.3499	1,866.21	84.0661	1,866.21	83.531	1,866.21	82.8484	1,866.21	82.2182	1,866.21	81.5429	1,866.21	80.7093	1,866.21	80.434	1,866.21	79.3213	1,866.21	77.9389	1,866.21	78.1239	1,866.21	77.4053	1,866.21	76.7624	1,866.21	75.7001	1,866.21	75.9026	1,866.21	74.5574	1,866.21	73.9191	1,866.21	72.7602	1,866.21	73.0291	1,866.21	72.1097	1,866.21	74.3421	1,866.21	74.1219	1,866.21	74.2215	1,866.21	75.4083	1,866.21	70.9676	1,866.21	72.9622	1,866.21	65.3903	1,866.21	67.0069	1,866.21	55.8996	1,866.21	50.1338	1,866.21	58.2402
1,932.13	86.1426	1,932.13	86.2487	1,932.13	86.1745	1,932.13	85.5616	1,932.13	85.5098	1,932.13	84.7294	1,932.13	84.6988	1,932.13	83.6672	1,932.13	83.3527	1,932.13	82.1346	1,932.13	81.8799	1,932.13	80.8742	1,932.13	80.1385	1,932.13	78.9267	1,932.13	78.4186	1,932.13	78.0186	1,932.13	76.4076	1,932.13	76.6887	1,932.13	75.3368	1,932.13	75.1202	1,932.13	74.215	1,932.13	72.6041	1,932.13	71.4608	1,932.13	71.5239	1,932.13	70.6773	1,932.13	74.5356	1,932.13	72.4416	1,932.13	74.1677	1,932.13	74.1919	1,932.13	71.8295	1,932.13	71.5835	1,932.13	64.4553	1,932.13	65.2747	1,932.13	61.8274	1,932.13	60.5387	1,932.13	66.7487
1,999.51	86.0028	1,999.51	85.5563	1,999.51	85.6842	1,999.51	84.843	1,999.51	85.1957	1,999.51	83.9528	1,999.51	84.1779	1,999.51	82.5368	1,999.51	82.9809	1,999.51	80.8044	1,999.51	81.2646	1,999.51	79.2558	1,999.51	79.7957	1,999.51	77.2673	1,999.51	77.6746	1,999.51	76.1583	1,999.51	76.468	1,999.51	74.9192	1,999.51	75.4427	1,999.51	73.31	1,999.51	73.9404	1,999.51	70.6714	1,999.51	71.8313	1,999.51	70.1308	1,999.51	69.7739	1,999.51	72.2859	1,999.51	71.6135	1,999.51	73.41	1,999.51	73.6557	1,999.51	70.8539	1,999.51	72.5381	1,999.51	61.8162	1,999.51	65.5483	1,999.51	66.4002	1,999.51	61.9528	1,999.51	66.6962
2,069.82	85.7372	2,069.82	85.3544	2,069.82	85.7367	2,069.82	84.8087	2,069.82	85.1302	2,069.82	83.9433	2,069.82	84.3006	2,069.82	82.952	2,069.82	83.1372	2,069.82	81.4497	2,069.82	81.8685	2,069.82	79.2991	2,069.82	80.3087	2,069.82	77.349	2,069.82	78.6983	2,069.82	75.9726	2,069.82	77.0975	2,069.82	75.2425	2,069.82	75.9501	2,069.82	74.3953	2,069.82	74.0338	2,069.82	72.3392	2,069.82	73.3356	2,069.82	68.8016	2,069.82	69.5662	2,069.82	71.448	2,069.82	72.1806	2,069.82	72.7188	2,069.82	74.2412	2,069.82	70.7498	2,069.82	72.0426	2,069.82	62.2456	2,069.82	65.9341	2,069.82	65.5856	2,069.82	64.3552	2,069.82	67.5608
2,143.07	85.8351	2,143.07	85.7049	2,143.07	85.6892	2,143.07	85.1252	2,143.07	85.0887	2,143.07	84.495	2,143.07	84.2568	2,143.07	83.4344	2,143.07	83.1209	2,143.07	82.1712	2,143.07	81.9747	2,143.07	80.6303	2,143.07	80.1072	2,143.07	78.3781	2,143.07	78.4323	2,143.07	76.8233	2,143.07	77.1149	2,143.07	76.1357	2,143.07	76.2416	2,143.07	75.581	2,143.07	74.5744	2,143.07	73.6265	2,143.07	73.1924	2,143.07	70.0778	2,143.07	69.8062	2,143.07	72.2612	2,143.07	70.7653	2,143.07	74.3403	2,143.07	73.8502	2,143.07	72.6567	2,143.07	72.3878	2,143.07	64.0697	2,143.07	64.903	2,143.07	64.4307	2,143.07	61.5909	2,143.07	67.5135
2,219.24	85.3064	2,219.24	85.1781	2,219.24	85.257	2,219.24	84.5473	2,219.24	84.6803	2,219.24	83.7742	2,219.24	83.7293	2,219.24	82.6281	2,219.24	82.6797	2,219.24	81.8431	2,219.24	81.8939	2,219.24	81.0145	2,219.24	80.6192	2,219.24	78.9357	2,219.24	78.5873	2,219.24	77.7492	2,219.24	76.8911	2,219.24	75.4022	2,219.24	75.9939	2,219.24	75.374	2,219.24	74.6419	2,219.24	74.8663	2,219.24	74.4025	2,219.24	71.0672	2,219.24	71.7271	2,219.24	70.3617	2,219.24	70.0401	2,219.24	74.4728	2,219.24	73.3569	2,219.24	73.0061	2,219.24	73.807	2,219.24	64.5419	2,219.24	66.5571	2,219.24	64.4924	2,219.24	56.9108	2,219.24	67.8669
2,296.88	86.2627	2,296.88	85.7167	2,296.88	86.0187	2,296.88	84.9282	2,296.88	85.6362	2,296.88	84.2058	2,296.88	84.6641	2,296.88	82.8961	2,296.88	83.6432	2,296.88	81.4145	2,296.88	82.7338	2,296.88	80.1243	2,296.88	81.7681	2,296.88	78.622	2,296.88	79.9403	2,296.88	76.0772	2,296.88	78.4338	2,296.88	75.2001	2,296.88	76.7288	2,296.88	73.64	2,296.88	75.4545	2,296.88	72.8665	2,296.88	75.0433	2,296.88	72.4819	2,296.88	73.3197	2,296.88	68.0125	2,296.88	71.8085	2,296.88	73.9249	2,296.88	74.6145	2,296.88	73.5829	2,296.88	74.4477	2,296.88	65.6717	2,296.88	68.9473	2,296.88	62.6153	2,296.88	66.0745	2,296.88	67.5914
2,378.91	86.6084	2,378.91	86.2131	2,378.91	86.4713	2,378.91	85.7396	2,378.91	85.9645	2,378.91	84.8405	2,378.91	85.1273	2,378.91	83.6147	2,378.91	84.0096	2,378.91	82.8304	2,378.91	82.8959	2,378.91	81.4902	2,378.91	81.6072	2,378.91	79.8449	2,378.91	80.1315	2,378.91	78.1731	2,378.91	78.0281	2,378.91	75.7112	2,378.91	77.1992	2,378.91	74.5779	2,378.91	75.6627	2,378.91	73.882	2,378.91	74.9286	2,378.91	73.2614	2,378.91	72.9025	2,378.91	71.4931	2,378.91	70.6472	2,378.91	73.3363	2,378.91	74.9442	2,378.91	73.2111	2,378.91	73.7761	2,378.91	67.1497	2,378.91	69.8194	2,378.91	61.7993	2,378.91	66.6482	2,378.91	66.1759
2,462.4	86.0089	2,462.4	85.7034	2,462.4	85.8713	2,462.4	85.3909	2,462.4	85.4444	2,462.4	84.9958	2,462.4	84.5315	2,462.4	84.1565	2,462.4	83.5322	2,462.4	82.8091	2,462.4	82.0141	2,462.4	81.2591	2,462.4	80.9013	2,462.4	80.1377	2,462.4	79.327	2,462.4	78.2406	2,462.4	77.2538	2,462.4	76.6407	2,462.4	75.7045	2,462.4	75.142	2,462.4	75.1689	2,462.4	73.715	2,462.4	72.745	2,462.4	73.5674	2,462.4	72.5651	2,462.4	71.7709	2,462.4	69.8125	2,462.4	74.5651	2,462.4	72.9421	2,462.4	74.2749	2,462.4	73.8371	2,462.4	66.7182	2,462.4	68.784	2,462.4	62.5967	2,462.4	62.6397	2,462.4	67.8294
2,548.83	85.9007	2,548.83	85.6368	2,548.83	85.7062	2,548.83	85.2543	2,548.83	85.4273	2,548.83	84.7637	2,548.83	84.8673	2,548.83	83.7615	2,548.83	83.5719	2,548.83	82.0317	2,548.83	82.4381	2,548.83	80.2615	2,548.83	81.3406	2,548.83	78.7203	2,548.83	80.0342	2,548.83	76.806	2,548.83	77.607	2,548.83	76.1381	2,548.83	76.1735	2,548.83	73.2382	2,548.83	75.8347	2,548.83	73.6206	2,548.83	73.5838	2,548.83	72.8811	2,548.83	72.922	2,548.83	70.1145	2,548.83	70.4971	2,548.83	72.798	2,548.83	71.6434	2,548.83	73.6244	2,548.83	73.1963	2,548.83	68.5261	2,548.83	71.7632	2,548.83	66.253	2,548.83	64.9062	2,548.83	69.3726
2,639.65	85.7926	2,639.65	85.7576	2,639.65	85.8261	2,639.65	85.271	2,639.65	85.415	2,639.65	84.5715	2,639.65	85.1303	2,639.65	83.5515	2,639.65	84.1245	2,639.65	83.1893	2,639.65	82.8273	2,639.65	81.0755	2,639.65	81.1421	2,639.65	79.8622	2,639.65	79.9887	2,639.65	78.8027	2,639.65	77.6741	2,639.65	75.4474	2,639.65	75.6289	2,639.65	74.412	2,639.65	74.4631	2,639.65	72.6011	2,639.65	72.7066	2,639.65	72.0444	2,639.65	72.7378	2,639.65	70.493	2,639.65	71.1077	2,639.65	71.1804	2,639.65	70.6268	2,639.65	72.6868	2,639.65	73.7069	2,639.65	69.0714	2,639.65	70.5595	2,639.65	64.2107	2,639.65	64.3823	2,639.65	67.2329
2,731.93	85.0449	2,731.93	85.1005	2,731.93	85.1986	2,731.93	84.5675	2,731.93	84.5533	2,731.93	83.8927	2,731.93	84.0408	2,731.93	83.0633	2,731.93	83.2219	2,731.93	82.3506	2,731.93	82.3362	2,731.93	81.1882	2,731.93	80.2751	2,731.93	79.3736	2,731.93	79.0142	2,731.93	78.5737	2,731.93	77.5243	2,731.93	75.6886	2,731.93	75.1949	2,731.93	75.3664	2,731.93	73.1658	2,731.93	72.0676	2,731.93	71.4496	2,731.93	72.2696	2,731.93	71.6804	2,731.93	70.4671	2,731.93	69.4058	2,731.93	71.2309	2,731.93	69.5984	2,731.93	73.2154	2,731.93	72.3585	2,731.93	69.9321	2,731.93	68.2132	2,731.93	66.6843	2,731.93	63.1328	2,731.93	67.9072
2,828.61	86.3146	2,828.61	86.3731	2,828.61	85.6559	2,828.61	85.6118	2,828.61	85.767	2,828.61	85.2852	2,828.61	84.5953	2,828.61	83.8667	2,828.61	83.9767	2,828.61	82.2697	2,828.61	82.5885	2,828.61	81.3372	2,828.61	81.0384	2,828.61	80.3624	2,828.61	79.7766	2,828.61	77.5512	2,828.61	77.9153	2,828.61	74.876	2,828.61	75.6369	2,828.61	74.1921	2,828.61	73.6201	2,828.61	71.422	2,828.61	73.1019	2,828.61	72.0784	2,828.61	71.8985	2,828.61	71.3263	2,828.61	71.1145	2,828.61	70.3952	2,828.61	69.4333	2,828.61	72.8042	2,828.61	72.8167	2,828.61	70.5493	2,828.61	69.8831	2,828.61	64.3089	2,828.61	63.2147	2,828.61	64.7125
2,928.22	86.8702	2,928.22	86.7478	2,928.22	86.4998	2,928.22	86.2676	2,928.22	86.253	2,928.22	85.6581	2,928.22	85.3221	2,928.22	84.5221	2,928.22	84.4366	2,928.22	82.7905	2,928.22	82.9875	2,928.22	81.4	2,928.22	81.3928	2,928.22	79.9701	2,928.22	79.7965	2,928.22	76.4858	2,928.22	78.2252	2,928.22	75.2879	2,928.22	75.5088	2,928.22	74.3948	2,928.22	74.2098	2,928.22	72.5095	2,928.22	72.4762	2,928.22	71.555	2,928.22	69.7065	2,928.22	70.6143	2,928.22	70.6801	2,928.22	69.3876	2,928.22	67.6284	2,928.22	71.4346	2,928.22	71.9105	2,928.22	70.2965	2,928.22	70.2724	2,928.22	66.9203	2,928.22	63.0629	2,928.22	68.8331
3,030.76	85.8367	3,030.76	85.6761	3,030.76	85.1824	3,030.76	85.4297	3,030.76	85.1737	3,030.76	84.8285	3,030.76	84.7322	3,030.76	84.0079	3,030.76	83.9428	3,030.76	82.3109	3,030.76	82.5991	3,030.76	81.0349	3,030.76	81.4848	3,030.76	78.994	3,030.76	79.0418	3,030.76	75.5782	3,030.76	77.6356	3,030.76	76.0395	3,030.76	76.0637	3,030.76	74.4768	3,030.76	73.9236	3,030.76	71.4115	3,030.76	70.9848	3,030.76	70.632	3,030.76	68.8581	3,030.76	70.5519	3,030.76	70.8612	3,030.76	69.2727	3,030.76	67.6125	3,030.76	72.6915	3,030.76	71.7737	3,030.76	69.0934	3,030.76	69.7079	3,030.76	62.4782	3,030.76	66.7448	3,030.76	67.0367
3,137.7	85.2752	3,137.7	85.2186	3,137.7	85.7427	3,137.7	85.5276	3,137.7	85.0253	3,137.7	85.1827	3,137.7	84.9412	3,137.7	84.3736	3,137.7	84.1456	3,137.7	82.5436	3,137.7	83.2729	3,137.7	81.1202	3,137.7	81.5311	3,137.7	78.2757	3,137.7	79.4396	3,137.7	77.2149	3,137.7	78.2974	3,137.7	75.5112	3,137.7	76.0079	3,137.7	74.4297	3,137.7	74.5086	3,137.7	72.3862	3,137.7	73.1982	3,137.7	70.4946	3,137.7	70.9075	3,137.7	72.0852	3,137.7	71.6162	3,137.7	69.6038	3,137.7	70.1167	3,137.7	71.1073	3,137.7	71.7171	3,137.7	69.7045	3,137.7	71.0876	3,137.7	65.7354	3,137.7	66.2209	3,137.7	67.1006
3,249.02	84.7513	3,249.02	84.933	3,249.02	85.7418	3,249.02	85.1683	3,249.02	85.04	3,249.02	84.6761	3,249.02	85.082	3,249.02	83.7159	3,249.02	84.3135	3,249.02	83.6636	3,249.02	83.2222	3,249.02	81.0469	3,249.02	81.4733	3,249.02	78.7031	3,249.02	79.6144	3,249.02	77.8449	3,249.02	77.9806	3,249.02	75.5563	3,249.02	76.1791	3,249.02	74.4477	3,249.02	73.9622	3,249.02	73.6042	3,249.02	73.0227	3,249.02	70.1897	3,249.02	71.0085	3,249.02	72.3432	3,249.02	71.3715	3,249.02	70.5163	3,249.02	70.2075	3,249.02	70.5146	3,249.02	70.2098	3,249.02	68.7698	3,249.02	70.0387	3,249.02	67.8916	3,249.02	65.9312	3,249.02	68.5107
3,363.28	85.3584	3,363.28	85.467	3,363.28	85.8563	3,363.28	85.2965	3,363.28	85.2747	3,363.28	84.598	3,363.28	84.9665	3,363.28	83.7014	3,363.28	84.2232	3,363.28	83.2146	3,363.28	82.834	3,363.28	81.4201	3,363.28	80.9347	3,363.28	79.7533	3,363.28	79.0395	3,363.28	77.7758	3,363.28	76.7232	3,363.28	75.9496	3,363.28	75.419	3,363.28	72.4817	3,363.28	72.3658	3,363.28	72.1529	3,363.28	72.5071	3,363.28	70.4115	3,363.28	69.5282	3,363.28	71.8443	3,363.28	71.6447	3,363.28	69.397	3,363.28	69.5842	3,363.28	70.6229	3,363.28	69.3925	3,363.28	69.5491	3,363.28	69.5533	3,363.28	69.2945	3,363.28	65.3643	3,363.28	69.271
3,481.93	86.4035	3,481.93	86.5651	3,481.93	85.8188	3,481.93	85.9683	3,481.93	86.2794	3,481.93	85.355	3,481.93	85.3976	3,481.93	84.7144	3,481.93	84.7569	3,481.93	83.2493	3,481.93	82.7178	3,481.93	81.0305	3,481.93	81.3963	3,481.93	79.5459	3,481.93	79.378	3,481.93	77.2628	3,481.93	77.1496	3,481.93	75.5543	3,481.93	75.1338	3,481.93	72.0315	3,481.93	73.1637	3,481.93	72.5962	3,481.93	71.8804	3,481.93	67.8113	3,481.93	69.4965	3,481.93	70.6507	3,481.93	70.8785	3,481.93	69.9702	3,481.93	71.3881	3,481.93	70.4689	3,481.93	70.3787	3,481.93	69.5894	3,481.93	70.9091	3,481.93	65.9746	3,481.93	67.3416	3,481.93	67.3889
3,604.98	86.5596	3,604.98	86.4758	3,604.98	86.197	3,604.98	86.3513	3,604.98	86.1677	3,604.98	85.7149	3,604.98	85.3603	3,604.98	84.7124	3,604.98	84.2129	3,604.98	82.6022	3,604.98	82.5379	3,604.98	81.555	3,604.98	81.4603	3,604.98	80.1868	3,604.98	79.503	3,604.98	77.6813	3,604.98	76.8588	3,604.98	75.4792	3,604.98	74.1542	3,604.98	72.8166	3,604.98	72.6253	3,604.98	72.0277	3,604.98	72.2206	3,604.98	69.4672	3,604.98	69.7852	3,604.98	69.9374	3,604.98	69.9651	3,604.98	70.4972	3,604.98	70.9948	3,604.98	71.5219	3,604.98	69.6474	3,604.98	70.9313	3,604.98	70.2176	3,604.98	66.1806	3,604.98	66.2818	3,604.98	68.3285
3,732.42	86.2914	3,732.42	86.2583	3,732.42	85.8912	3,732.42	86.0526	3,732.42	85.8582	3,732.42	85.3197	3,732.42	85.2885	3,732.42	84.9282	3,732.42	84.2494	3,732.42	82.463	3,732.42	83.0205	3,732.42	80.8722	3,732.42	81.7178	3,732.42	79.4654	3,732.42	80.0945	3,732.42	77.5135	3,732.42	77.2887	3,732.42	74.8282	3,732.42	75.5519	3,732.42	72.8025	3,732.42	73.3853	3,732.42	72.4193	3,732.42	71.5372	3,732.42	68.9389	3,732.42	70.1368	3,732.42	68.4998	3,732.42	67.7028	3,732.42	70.5525	3,732.42	71.1169	3,732.42	72.1053	3,732.42	70.3701	3,732.42	70.4363	3,732.42	71.3672	3,732.42	67.8971	3,732.42	67.3193	3,732.42	69.542
3,864.26	87.0048	3,864.26	86.7974	3,864.26	87.3964	3,864.26	86.5814	3,864.26	86.4349	3,864.26	86.393	3,864.26	86.0312	3,864.26	85.1519	3,864.26	84.9824	3,864.26	83.3115	3,864.26	83.7989	3,864.26	81.4684	3,864.26	82.3853	3,864.26	79.8924	3,864.26	80.042	3,864.26	78.6665	3,864.26	78.89	3,864.26	75.6074	3,864.26	76.4419	3,864.26	74.4632	3,864.26	74.147	3,864.26	72.5687	3,864.26	71.7814	3,864.26	71.0926	3,864.26	70.2814	3,864.26	70.0983	3,864.26	69.406	3,864.26	71.4463	3,864.26	71.4521	3,864.26	70.5828	3,864.26	70.4668	3,864.26	70.9902	3,864.26	71.8795	3,864.26	68.3391	3,864.26	67.7342	3,864.26	69.982
4,000.49	86.8359	4,000.49	86.4126	4,000.49	87.4075	4,000.49	86.1122	4,000.49	86.3405	4,000.49	86.2952	4,000.49	86.0477	4,000.49	84.6985	4,000.49	85.3178	4,000.49	84.1622	4,000.49	84.2911	4,000.49	81.9766	4,000.49	82.4145	4,000.49	80.1426	4,000.49	80.4764	4,000.49	78.5879	4,000.49	78.4671	4,000.49	76.1579	4,000.49	76.4841	4,000.49	74.6889	4,000.49	74.6771	4,000.49	71.117	4,000.49	72.3703	4,000.49	72.2661	4,000.49	71.5255	4,000.49	69.9479	4,000.49	69.3512	4,000.49	70.8863	4,000.49	71.2413	4,000.49	70.2476	4,000.49	70.0579	4,000.49	71.1662	4,000.49	70.9181	4,000.49	67.524	4,000.49	67.4331	4,000.49	71.2631
4,141.11	86.3304	4,141.11	85.8199	4,141.11	86.0644	4,141.11	85.7432	4,141.11	85.97	4,141.11	85.2265	4,141.11	85.2753	4,141.11	84.3837	4,141.11	84.9308	4,141.11	83.8102	4,141.11	83.9838	4,141.11	82.2269	4,141.11	81.8479	4,141.11	80.4735	4,141.11	80.0129	4,141.11	78.0384	4,141.11	78.5502	4,141.11	76.6625	4,141.11	76.1483	4,141.11	73.4712	4,141.11	73.8736	4,141.11	71.7068	4,141.11	72.392	4,141.11	71.7398	4,141.11	70.4729	4,141.11	65.6663	4,141.11	67.5209	4,141.11	71.6686	4,141.11	70.3476	4,141.11	70.3919	4,141.11	69.8194	4,141.11	71.1745	4,141.11	68.5964	4,141.11	67.7524	4,141.11	66.5305	4,141.11	70.0775
4,287.6	85.5389	4,287.6	86.4648	4,287.6	85.1581	4,287.6	85.1303	4,287.6	85.944	4,287.6	84.7772	4,287.6	85.2459	4,287.6	85.0734	4,287.6	84.8837	4,287.6	83.629	4,287.6	83.5631	4,287.6	81.274	4,287.6	81.4149	4,287.6	79.3225	4,287.6	80.1956	4,287.6	77.1611	4,287.6	77.9335	4,287.6	76.3939	4,287.6	75.3331	4,287.6	73.4876	4,287.6	73.8923	4,287.6	71.6634	4,287.6	70.7005	4,287.6	70.0595	4,287.6	71.3125	4,287.6	67.552	4,287.6	67.3911	4,287.6	70.3448	4,287.6	69.9743	4,287.6	68.2378	4,287.6	68.4128	4,287.6	70.0549	4,287.6	70.7808	4,287.6	65.9116	4,287.6	65.2904	4,287.6	66.975
4,438.48	85.5244	4,438.48	85.2536	4,438.48	85.5885	4,438.48	85.3228	4,438.48	84.6651	4,438.48	84.9749	4,438.48	84.7276	4,438.48	84.6241	4,438.48	83.1979	4,438.48	83.5575	4,438.48	81.4287	4,438.48	81.2225	4,438.48	81.3933	4,438.48	79.5676	4,438.48	79.2913	4,438.48	77.7938	4,438.48	77.4246	4,438.48	76.0199	4,438.48	74.9684	4,438.48	73.8378	4,438.48	73.159	4,438.48	69.4877	4,438.48	70.2929	4,438.48	69.9633	4,438.48	69.4142	4,438.48	64.7415	4,438.48	66.2292	4,438.48	68.1167	4,438.48	66.6365	4,438.48	69.2966	4,438.48	68.842	4,438.48	69.3769	4,438.48	71.0127	4,438.48	67.071	4,438.48	62.8897	4,438.48	68.9947
4,595.21	86.2706	4,595.21	85.8038	4,595.21	85.9227	4,595.21	86.0458	4,595.21	85.2599	4,595.21	84.3512	4,595.21	83.9485	4,595.21	82.8201	4,595.21	83.9013	4,595.21	81.4968	4,595.21	82.8985	4,595.21	81.0309	4,595.21	81.1312	4,595.21	78.9253	4,595.21	79.569	4,595.21	76.2219	4,595.21	76.0918	4,595.21	72.9506	4,595.21	75.2787	4,595.21	69.9241	4,595.21	72.2812	4,595.21	68.6222	4,595.21	71.5727	4,595.21	68.6952	4,595.21	68.5335	4,595.21	64.0219	4,595.21	66.2237	4,595.21	66.1978	4,595.21	67.9968	4,595.21	66.6452	4,595.21	68.3532	4,595.21	68.3121	4,595.21	69.2936	4,595.21	60.2779	4,595.21	66.3511	4,595.21	66.9667
4,756.35	84.6461	4,756.35	84.713	4,756.35	84.5479	4,756.35	83.0528	4,756.35	84.0397	4,756.35	83.2304	4,756.35	82.9133	4,756.35	82.5681	4,756.35	82.8748	4,756.35	81.2963	4,756.35	82.4639	4,756.35	80.4754	4,756.35	80.778	4,756.35	80.01	4,756.35	78.2397	4,756.35	76.729	4,756.35	77.2042	4,756.35	74.9147	4,756.35	73.6907	4,756.35	70.839	4,756.35	72.4341	4,756.35	72.021	4,756.35	69.8235	4,756.35	70.1478	4,756.35	69.2078	4,756.35	70.0286	4,756.35	64.6163	4,756.35	68.1383	4,756.35	67.0919	4,756.35	67.2617	4,756.35	67.9833	4,756.35	69.3473	4,756.35	69.1536	4,756.35	63.973	4,756.35	62.376	4,756.35	65.1369
4,924.8	86.1065	4,924.8	85.8353	4,924.8	86.5817	4,924.8	85.4562	4,924.8	85.3847	4,924.8	84.5503	4,924.8	84.9272	4,924.8	84.1791	4,924.8	83.2962	4,924.8	83.242	4,924.8	81.9515	4,924.8	81.1113	4,924.8	81.0176	4,924.8	77.8996	4,924.8	78.92	4,924.8	75.294	4,924.8	75.6268	4,924.8	73.7455	4,924.8	74.8112	4,924.8	73.5108	4,924.8	72.279	4,924.8	68.7745	4,924.8	71.6316	4,924.8	67.8403	4,924.8	67.9888	4,924.8	65.0192	4,924.8	67.4084	4,924.8	69.7262	4,924.8	67.7899	4,924.8	66.4458	4,924.8	68.5282	4,924.8	68.6744	4,924.8	69.7469	4,924.8	62.7886	4,924.8	62.6343	4,924.8	64.1026
5,097.66	86.1862	5,097.66	85.4282	5,097.66	85.6022	5,097.66	85.7652	5,097.66	84.7156	5,097.66	84.382	5,097.66	84.2567	5,097.66	84.2819	5,097.66	83.0913	5,097.66	82.3263	5,097.66	81.8996	5,097.66	80.6769	5,097.66	80.2692	5,097.66	78.1871	5,097.66	78.4018	5,097.66	77.1551	5,097.66	76.9645	5,097.66	73.1901	5,097.66	73.9857	5,097.66	74.448	5,097.66	71.7293	5,097.66	71.6215	5,097.66	68.1158	5,097.66	67.5181	5,097.66	67.3327	5,097.66	67.1045	5,097.66	68.3523	5,097.66	67.5275	5,097.66	66.8359	5,097.66	68.1158	5,097.66	67.1125	5,097.66	71.2453	5,097.66	66.9842	5,097.66	60.9553	5,097.66	63.2653	5,097.66	64.1642
5,277.83	86.6363	5,277.83	86.5269	5,277.83	85.5923	5,277.83	85.39	5,277.83	85.5995	5,277.83	85.8202	5,277.83	84.2585	5,277.83	84.498	5,277.83	84.2454	5,277.83	83.4649	5,277.83	83.3157	5,277.83	81.9656	5,277.83	81.1825	5,277.83	81.0205	5,277.83	78.9276	5,277.83	78.1467	5,277.83	77.2605	5,277.83	75.345	5,277.83	73.6236	5,277.83	68.2905	5,277.83	72.4177	5,277.83	70.1182	5,277.83	69.9826	5,277.83	67.4278	5,277.83	64.6325	5,277.83	68.0862	5,277.83	67.5556	5,277.83	60.1343	5,277.83	64.9044	5,277.83	68.5405	5,277.83	67.2424	5,277.83	67.9817	5,277.83	67.5551	5,277.83	63.1305	5,277.83	62.417	5,277.83	66.3578
5,463.87	86.1122	5,463.87	86.1399	5,463.87	86.5214	5,463.87	85.0204	5,463.87	85.4175	5,463.87	83.5608	5,463.87	85.1467	5,463.87	83.1789	5,463.87	83.8274	5,463.87	81.5661	5,463.87	82.3709	5,463.87	80.4291	5,463.87	81.2803	5,463.87	79.1498	5,463.87	79.2373	5,463.87	75.8914	5,463.87	75.0226	5,463.87	75.2134	5,463.87	73.8528	5,463.87	71.0859	5,463.87	70.3074	5,463.87	69.0383	5,463.87	69.0137	5,463.87	65.8486	5,463.87	66.9961	5,463.87	68.4208	5,463.87	66.3193	5,463.87	67.4541	5,463.87	60.3893	5,463.87	68.1034	5,463.87	67.8766	5,463.87	67.7621	5,463.87	66.8434	5,463.87	63.5525	5,463.87	64.7734	5,463.87	65.1937
5,657.23	86.1425	5,657.23	85.8496	5,657.23	86.0961	5,657.23	85.8531	5,657.23	85.6903	5,657.23	85.0212	5,657.23	84.9169	5,657.23	85.0558	5,657.23	83.7036	5,657.23	83.1343	5,657.23	82.3344	5,657.23	81.1452	5,657.23	80.5077	5,657.23	78.6331	5,657.23	78.0154	5,657.23	77.6768	5,657.23	75.8352	5,657.23	74.8788	5,657.23	73.6191	5,657.23	74.684	5,657.23	71.1244	5,657.23	69.8989	5,657.23	67.9045	5,657.23	68.199	5,657.23	67.5246	5,657.23	65.7665	5,657.23	67.488	5,657.23	65.0615	5,657.23	64.4186	5,657.23	66.434	5,657.23	66.9932	5,657.23	68.5911	5,657.23	66.8413	5,657.23	63.3261	5,657.23	63.3237	5,657.23	65.17
5,856.45	85.7232	5,856.45	85.7864	5,856.45	85.459	5,856.45	85.7716	5,856.45	85.3344	5,856.45	85.3069	5,856.45	83.6316	5,856.45	84.0186	5,856.45	83.1737	5,856.45	82.6019	5,856.45	81.9734	5,856.45	80.5804	5,856.45	79.7135	5,856.45	78.7937	5,856.45	78.0636	5,856.45	75.5863	5,856.45	75.973	5,856.45	72.8908	5,856.45	72.8683	5,856.45	70.2188	5,856.45	70.3836	5,856.45	68.105	5,856.45	68.2521	5,856.45	66.547	5,856.45	66.4405	5,856.45	66.2524	5,856.45	64.2316	5,856.45	62.3931	5,856.45	58.8517	5,856.45	66.2525	5,856.45	65.2253	5,856.45	66.892	5,856.45	65.4751	5,856.45	62.9849	5,856.45	64.0765	5,856.45	63.7295
6,062.99	85.6898	6,062.99	85.8147	6,062.99	86.0344	6,062.99	85.5329	6,062.99	85.0344	6,062.99	84.6089	6,062.99	84.7837	6,062.99	83.1243	6,062.99	83.1754	6,062.99	81.4932	6,062.99	80.9108	6,062.99	79.0715	6,062.99	79.5477	6,062.99	78.9291	6,062.99	78.3639	6,062.99	74.2547	6,062.99	74.7359	6,062.99	73.1113	6,062.99	73.2337	6,062.99	69.1456	6,062.99	70.217	6,062.99	68.1577	6,062.99	67.9379	6,062.99	66.1844	6,062.99	66.0166	6,062.99	67.7176	6,062.99	63.3911	6,062.99	65.9586	6,062.99	63.5675	6,062.99	67.5757	6,062.99	66.2588	6,062.99	66.1546	6,062.99	64.5689	6,062.99	61.9713	6,062.99	63.9525	6,062.99	60.5638
6,276.86	86.1545	6,276.86	86.1627	6,276.86	85.7773	6,276.86	85.6683	6,276.86	85.6602	6,276.86	84.501	6,276.86	84.4952	6,276.86	83.3818	6,276.86	83.3728	6,276.86	80.7401	6,276.86	80.945	6,276.86	79.1468	6,276.86	78.9439	6,276.86	75.973	6,276.86	76.2702	6,276.86	74.9344	6,276.86	75.1024	6,276.86	72.074	6,276.86	73.7165	6,276.86	71.1398	6,276.86	70.3223	6,276.86	69.2173	6,276.86	69.5286	6,276.86	66.7205	6,276.86	66.2249	6,276.86	59.1252	6,276.86	65.9161	6,276.86	61.5654	6,276.86	65.1493	6,276.86	66.328	6,276.86	65.9761	6,276.86	65.9159	6,276.86	63.7119	6,276.86	61.8938	6,276.86	63.1205	6,276.86	61.3912
6,498.05	85.5012	6,498.05	85.4229	6,498.05	85.2307	6,498.05	84.7508	6,498.05	85.1142	6,498.05	83.9877	6,498.05	83.5187	6,498.05	82.5233	6,498.05	81.7813	6,498.05	80.5432	6,498.05	80.4682	6,498.05	78.4327	6,498.05	78.8222	6,498.05	76.1961	6,498.05	77.6889	6,498.05	75.382	6,498.05	75.287	6,498.05	72.1674	6,498.05	73.0037	6,498.05	70.4289	6,498.05	70.5434	6,498.05	69.034	6,498.05	69.2179	6,498.05	64.6768	6,498.05	64.1902	6,498.05	65.8737	6,498.05	64.407	6,498.05	63.0284	6,498.05	62.9605	6,498.05	65.9977	6,498.05	64.9538	6,498.05	64.2569	6,498.05	64.4192	6,498.05	62.2719	6,498.05	64.0707	6,498.05	60.0925
6,726.56	85.6629	6,726.56	85.572	6,726.56	85.7698	6,726.56	85.2973	6,726.56	84.8831	6,726.56	84.0713	6,726.56	84.1367	6,726.56	82.6328	6,726.56	81.8664	6,726.56	81.3126	6,726.56	80.0193	6,726.56	79.3418	6,726.56	79.6152	6,726.56	78.6299	6,726.56	78.3828	6,726.56	75.7117	6,726.56	75.8945	6,726.56	73.9046	6,726.56	73.6049	6,726.56	70.4608	6,726.56	72.1009	6,726.56	67.5772	6,726.56	68.5821	6,726.56	66.6106	6,726.56	66.8844	6,726.56	66.9818	6,726.56	66.2782	6,726.56	62.1469	6,726.56	61.7375	6,726.56	65.7737	6,726.56	64.1278	6,726.56	63.9171	6,726.56	64.25	6,726.56	62.2189	6,726.56	63.96	6,726.56	60.4479
6,963.87	85.6471	6,963.87	85.7177	6,963.87	85.3571	6,963.87	85.3485	6,963.87	85.5283	6,963.87	83.3036	6,963.87	83.791	6,963.87	82.3928	6,963.87	82.5666	6,963.87	79.7091	6,963.87	81.1253	6,963.87	79.8758	6,963.87	79.8748	6,963.87	78.4398	6,963.87	78.1508	6,963.87	75.709	6,963.87	75.8703	6,963.87	73.4809	6,963.87	74.1128	6,963.87	70.9152	6,963.87	71.3101	6,963.87	67.5695	6,963.87	68.9903	6,963.87	64.6717	6,963.87	68.4757	6,963.87	64.8884	6,963.87	65.4571	6,963.87	63.4325	6,963.87	63.4537	6,963.87	65.4004	6,963.87	65.501	6,963.87	63.5683	6,963.87	65.6359	6,963.87	61.7706	6,963.87	64.7831	6,963.87	60.174
7,209.96	84.9013	7,209.96	85.1175	7,209.96	85.3121	7,209.96	84.6589	7,209.96	84.6945	7,209.96	83.2384	7,209.96	83.4399	7,209.96	81.8763	7,209.96	81.964	7,209.96	80.7599	7,209.96	81.0474	7,209.96	79.9297	7,209.96	80.0418	7,209.96	78.2658	7,209.96	78.3367	7,209.96	75.0515	7,209.96	75.4872	7,209.96	72.9643	7,209.96	73.0767	7,209.96	70.6426	7,209.96	70.5452	7,209.96	69.2001	7,209.96	68.8712	7,209.96	66.281	7,209.96	65.568	7,209.96	63.6255	7,209.96	61.9736	7,209.96	63.3367	7,209.96	61.1355	7,209.96	64.8203	7,209.96	64.3184	7,209.96	63.808	7,209.96	63.8327	7,209.96	60.4439	7,209.96	64.0734	7,209.96	59.3261
7,464.84	85.1121	7,464.84	85.0289	7,464.84	85.0411	7,464.84	84.4655	7,464.84	84.3094	7,464.84	83.0908	7,464.84	83.198	7,464.84	81.9443	7,464.84	81.7943	7,464.84	81.2618	7,464.84	80.4373	7,464.84	79.098	7,464.84	79.4411	7,464.84	77.4226	7,464.84	77.2458	7,464.84	75.2534	7,464.84	75.3602	7,464.84	72.8623	7,464.84	72.7667	7,464.84	70.0185	7,464.84	69.9499	7,464.84	68.9224	7,464.84	67.0387	7,464.84	64.7908	7,464.84	64.9677	7,464.84	62.4567	7,464.84	62.1316	7,464.84	60.9702	7,464.84	61.8983	7,464.84	64.0033	7,464.84	64.1105	7,464.84	63.3393	7,464.84	62.2808	7,464.84	61.3939	7,464.84	63.336	7,464.84	57.531
7,727.05	85.491	7,727.05	85.0646	7,727.05	85.1082	7,727.05	84.3105	7,727.05	84.2571	7,727.05	83.0602	7,727.05	82.4087	7,727.05	82.2239	7,727.05	81.6616	7,727.05	80.2307	7,727.05	80.7336	7,727.05	79.7789	7,727.05	78.9506	7,727.05	76.8327	7,727.05	77.1497	7,727.05	74.9219	7,727.05	74.4611	7,727.05	72.2643	7,727.05	72.4173	7,727.05	69.6769	7,727.05	68.7736	7,727.05	65.8652	7,727.05	66.7695	7,727.05	64.3706	7,727.05	63.7325	7,727.05	62.8575	7,727.05	62.1693	7,727.05	62.2622	7,727.05	62.0223	7,727.05	62.4591	7,727.05	62.8907	7,727.05	63.1038	7,727.05	62.7881	7,727.05	59.1922	7,727.05	63.5891	7,727.05	56.2035
7,999.51	85.2405	7,999.51	84.8165	7,999.51	84.9604	7,999.51	83.8838	7,999.51	83.9322	7,999.51	82.4594	7,999.51	82.5576	7,999.51	81.6919	7,999.51	81.324	7,999.51	80.4042	7,999.51	79.9449	7,999.51	78.5319	7,999.51	78.6204	7,999.51	76.3152	7,999.51	77.054	7,999.51	74.1816	7,999.51	73.8978	7,999.51	70.4733	7,999.51	71.6521	7,999.51	68.4712	7,999.51	68.4187	7,999.51	65.3219	7,999.51	66.4621	7,999.51	63.7095	7,999.51	61.3579	7,999.51	60.7389	7,999.51	63.7395	7,999.51	60.8912	7,999.51	61.6725	7,999.51	60.2058	7,999.51	59.3444	7,999.51	60.9648	7,999.51	60.4446	7,999.51	56.8047	7,999.51	60.9356	7,999.51	52.3644
8,282.23	85.1251	8,282.23	84.5502	8,282.23	84.5486	8,282.23	83.2339	8,282.23	83.5471	8,282.23	81.741	8,282.23	82.2791	8,282.23	81.3703	8,282.23	81.4718	8,282.23	79.2698	8,282.23	79.6899	8,282.23	77.6266	8,282.23	78.2894	8,282.23	75.4377	8,282.23	75.7657	8,282.23	72.8957	8,282.23	73.0822	8,282.23	70.6629	8,282.23	70.287	8,282.23	67.631	8,282.23	68.3839	8,282.23	64.7683	8,282.23	65.2215	8,282.23	61.1023	8,282.23	63.869	8,282.23	58.8831	8,282.23	63.4479	8,282.23	59.5866	8,282.23	58.0604	8,282.23	61.2634	8,282.23	58.7942	8,282.23	59.4168	8,282.23	60.5308	8,282.23	58.1182	8,282.23	60.0589	8,282.23	54.1926
8,573.73	85.0117	8,573.73	84.2137	8,573.73	84.3992	8,573.73	83.0149	8,573.73	83.3027	8,573.73	81.696	8,573.73	82.2218	8,573.73	81.1655	8,573.73	81.1146	8,573.73	78.9987	8,573.73	79.2697	8,573.73	77.097	8,573.73	77.4335	8,573.73	75.0545	8,573.73	75.275	8,573.73	71.4304	8,573.73	71.9716	8,573.73	69.1326	8,573.73	69.5522	8,573.73	65.865	8,573.73	66.7155	8,573.73	63.9882	8,573.73	64.6218	8,573.73	60.5249	8,573.73	62.0011	8,573.73	58.4442	8,573.73	58.022	8,573.73	57.3439	8,573.73	57.6285	8,573.73	60.4712	8,573.73	57.8797	8,573.73	60.1043	8,573.73	60.609	8,573.73	54.9514	8,573.73	58.5851	8,573.73	49.7484
8,876.95	85.0301	8,876.95	84.0825	8,876.95	84.5239	8,876.95	82.9258	8,876.95	83.225	8,876.95	82.1199	8,876.95	82.5184	8,876.95	81.2108	8,876.95	81.1669	8,876.95	79.0466	8,876.95	79.3702	8,876.95	76.7808	8,876.95	77.0166	8,876.95	74.774	8,876.95	74.0423	8,876.95	70.7811	8,876.95	71.8916	8,876.95	68.3807	8,876.95	69.3531	8,876.95	65.6337	8,876.95	66.3148	8,876.95	63.9241	8,876.95	63.7236	8,876.95	60.1319	8,876.95	62.0757	8,876.95	58.9133	8,876.95	58.3429	8,876.95	56.7588	8,876.95	58.1848	8,876.95	59.0655	8,876.95	57.8886	8,876.95	59.3991	8,876.95	58.4078	8,876.95	55.4013	8,876.95	57.6259	8,876.95	52.1725
9,188.96	85.1057	9,188.96	84.1846	9,188.96	84.5934	9,188.96	83.201	9,188.96	83.5775	9,188.96	82.3345	9,188.96	82.5603	9,188.96	81.4286	9,188.96	81.1803	9,188.96	78.9633	9,188.96	79.0236	9,188.96	76.5653	9,188.96	76.5325	9,188.96	73.337	9,188.96	73.9712	9,188.96	70.8332	9,188.96	71.0954	9,188.96	68.1287	9,188.96	68.9763	9,188.96	65.563	9,188.96	65.5635	9,188.96	62.3442	9,188.96	63.3965	9,188.96	60.3817	9,188.96	60.8722	9,188.96	58.8309	9,188.96	53.9482	9,188.96	56.1581	9,188.96	54.7791	9,188.96	57.523	9,188.96	57.4999	9,188.96	59.5838	9,188.96	58.4176	9,188.96	53.7492	9,188.96	56.1386	9,188.96	49.3231
9,514.16	84.9131	9,514.16	84.0394	9,514.16	84.4866	9,514.16	83.1488	9,514.16	83.4359	9,514.16	82.4229	9,514.16	82.7488	9,514.16	81.296	9,514.16	81.2755	9,514.16	78.4349	9,514.16	78.6388	9,514.16	75.7761	9,514.16	76.2329	9,514.16	72.4707	9,514.16	73.6665	9,514.16	70.4839	9,514.16	70.6609	9,514.16	67.2006	9,514.16	68.1661	9,514.16	65.058	9,514.16	65.3395	9,514.16	61.5464	9,514.16	62.6651	9,514.16	59.885	9,514.16	59.16	9,514.16	55.7016	9,514.16	59.222	9,514.16	55.7942	9,514.16	56.0977	9,514.16	57.3202	9,514.16	56.1097	9,514.16	58.1896	9,514.16	57.2339	9,514.16	53.7046	9,514.16	54.7185	9,514.16	50.2319
9,849.61	84.858	9,849.61	84.0518	9,849.61	84.4497	9,849.61	83.4041	9,849.61	83.6644	9,849.61	82.465	9,849.61	82.6448	9,849.61	81.2453	9,849.61	80.9859	9,849.61	77.8095	9,849.61	78.307	9,849.61	75.1909	9,849.61	75.5373	9,849.61	72.0036	9,849.61	72.712	9,849.61	69.534	9,849.61	69.7646	9,849.61	67.703	9,849.61	67.3863	9,849.61	64.9172	9,849.61	64.8572	9,849.61	62.1372	9,849.61	61.8212	9,849.61	59.5382	9,849.61	59.4825	9,849.61	53.4121	9,849.61	55.6439	9,849.61	54.7661	9,849.61	53.3835	9,849.61	56.1296	9,849.61	54.0192	9,849.61	58.089	9,849.61	56.8478	9,849.61	50.88	9,849.61	52.9843	9,849.61	50.1793
10,196.8	84.9615	10,196.8	84.3543	10,196.8	84.6689	10,196.8	83.6958	10,196.8	83.9186	10,196.8	82.4973	10,196.8	82.8399	10,196.8	80.9536	10,196.8	80.952	10,196.8	77.4908	10,196.8	78.0558	10,196.8	74.5131	10,196.8	75.2407	10,196.8	71.6575	10,196.8	72.5054	10,196.8	69.5392	10,196.8	69.5662	10,196.8	67.338	10,196.8	67.4645	10,196.8	64.2618	10,196.8	64.1987	10,196.8	62.3427	10,196.8	61.2565	10,196.8	59.1431	10,196.8	59.9855	10,196.8	53.0465	10,196.8	54.8963	10,196.8	53.7876	10,196.8	52.7786	10,196.8	55.1052	10,196.8	53.1402	10,196.8	57.6641	10,196.8	56.8473	10,196.8	50.4842	10,196.8	51.9498	10,196.8	50.2294
10,555.7	85.0701	10,555.7	84.6079	10,555.7	84.8128	10,555.7	83.9545	10,555.7	84.2255	10,555.7	82.6386	10,555.7	82.9122	10,555.7	80.7871	10,555.7	80.9638	10,555.7	76.9301	10,555.7	77.8756	10,555.7	74.5954	10,555.7	74.91	10,555.7	71.8939	10,555.7	72.4293	10,555.7	69.2221	10,555.7	69.4298	10,555.7	66.9487	10,555.7	67.2756	10,555.7	63.8789	10,555.7	63.4387	10,555.7	62.328	10,555.7	61.499	10,555.7	58.3236	10,555.7	59.4109	10,555.7	54.3684	10,555.7	54.0042	10,555.7	52.64	10,555.7	52.4977	10,555.7	54.7978	10,555.7	53.0869	10,555.7	57.7679	10,555.7	57.4241	10,555.7	50.4334	10,555.7	50.3026	10,555.7	49.6926
10,927.7	85.2206	10,927.7	84.9184	10,927.7	85.011	10,927.7	84.1248	10,927.7	84.4021	10,927.7	82.7063	10,927.7	82.981	10,927.7	80.7291	10,927.7	80.668	10,927.7	76.8821	10,927.7	77.3281	10,927.7	74.4507	10,927.7	74.5452	10,927.7	72.1425	10,927.7	72.1538	10,927.7	69.328	10,927.7	69.5122	10,927.7	66.7902	10,927.7	66.5089	10,927.7	63.157	10,927.7	63.3358	10,927.7	61.6919	10,927.7	61.1386	10,927.7	57.7531	10,927.7	58.6987	10,927.7	55.2442	10,927.7	53.5709	10,927.7	53.1639	10,927.7	51.634	10,927.7	55.5632	10,927.7	53.9821	10,927.7	56.3487	10,927.7	56.698	10,927.7	48.2037	10,927.7	47.9837	10,927.7	51.5373
11,313	85.1565	11,313	85.0726	11,313	85.1159	11,313	84.2243	11,313	84.3883	11,313	82.4302	11,313	82.6613	11,313	80.4007	11,313	80.0525	11,313	76.7452	11,313	76.7406	11,313	74.7112	11,313	74.0256	11,313	71.8302	11,313	71.0848	11,313	69.1646	11,313	68.1006	11,313	65.6765	11,313	65.1674	11,313	62.5561	11,313	61.9729	11,313	59.0935	11,313	59.8371	11,313	56.7951	11,313	57.1277	11,313	53.7937	11,313	48.5992	11,313	49.27	11,313	49.7183	11,313	55.0978	11,313	52.383	11,313	57.2137	11,313	58.2722	11,313	48.2565	11,313	43.5143	11,313	50.7948
11,712.9	85.2935	11,712.9	85.1318	11,712.9	85.4026	11,712.9	84.1499	11,712.9	84.1117	11,712.9	82.0019	11,712.9	82.3273	11,712.9	79.674	11,712.9	79.5778	11,712.9	76.2771	11,712.9	76.5141	11,712.9	73.5621	11,712.9	73.333	11,712.9	69.8164	11,712.9	69.8357	11,712.9	67.4927	11,712.9	65.9552	11,712.9	63.8859	11,712.9	63.902	11,712.9	61.3961	11,712.9	59.9368	11,712.9	58.2231	11,712.9	56.9245	11,712.9	55.3942	11,712.9	54.4291	11,712.9	50.8025	11,712.9	50.7106	11,712.9	51.2768	11,712.9	48.2119	11,712.9	55.1008	11,712.9	49.426	11,712.9	55.3966	11,712.9	55.834	11,712.9	46.7971	11,712.9	45.6199	11,712.9	51.0681
12,126	85.5009	12,126	85.311	12,126	85.4198	12,126	84.0515	12,126	84.3855	12,126	81.9233	12,126	82.3023	12,126	79.5677	12,126	79.5221	12,126	75.4199	12,126	76.3842	12,126	73.0615	12,126	72.6119	12,126	67.6227	12,126	69.3508	12,126	65.3382	12,126	65.2542	12,126	62.8786	12,126	62.9664	12,126	58.3281	12,126	59.1462	12,126	57.0493	12,126	57.5079	12,126	55.6998	12,126	53.7681	12,126	45.832	12,126	49.2325	12,126	39.3102	12,126	43.2492	12,126	52.5693	12,126	49.6767	12,126	54.7605	12,126	56.6878	12,126	44.2722	12,126	40.4618	12,126	49.0585
12,553.7	85.8482	12,553.7	85.3081	12,553.7	85.6942	12,553.7	84.2495	12,553.7	84.6466	12,553.7	81.5206	12,553.7	82.0439	12,553.7	79.3031	12,553.7	79.063	12,553.7	74.9455	12,553.7	75.3874	12,553.7	71.1696	12,553.7	71.5486	12,553.7	66.5702	12,553.7	68.2618	12,553.7	61.7668	12,553.7	63.4262	12,553.7	61.5783	12,553.7	61.2536	12,553.7	55.4979	12,553.7	57.6314	12,553.7	56.0019	12,553.7	55.775	12,553.7	51.9098	12,553.7	52.875	12,553.7	50.6079	12,553.7	50.2112	12,553.7	41.8959	12,553.7	44.1696	12,553.7	50.5196	12,553.7	47.9512	12,553.7	54.1184	12,553.7	54.1532	12,553.7	44.1274	12,553.7	35.8351	12,553.7	44.4785
12,996.1	86.0763	12,996.1	85.753	12,996.1	85.8638	12,996.1	84.3327	12,996.1	84.7981	12,996.1	81.4654	12,996.1	82.2037	12,996.1	78.984	12,996.1	78.995	12,996.1	74.3777	12,996.1	74.6687	12,996.1	69.8871	12,996.1	70.1712	12,996.1	65.2383	12,996.1	65.6393	12,996.1	61.2358	12,996.1	61.6193	12,996.1	56.2328	12,996.1	58.6163	12,996.1	56.0989	12,996.1	53.7191	12,996.1	53.9884	12,996.1	54.686	12,996.1	49.4167	12,996.1	50.2673	12,996.1	39.6777	12,996.1	49.4936	12,996.1	39.4509	12,996.1	46.4273	12,996.1	46.9151	12,996.1	38.3019	12,996.1	51.7151	12,996.1	52.8759	12,996.1	40.6544	12,996.1	30.9964	12,996.1	48.0521
13,454.6	86.5312	13,454.6	86.0737	13,454.6	86.2674	13,454.6	84.4849	13,454.6	84.9719	13,454.6	81.6147	13,454.6	82.2085	13,454.6	78.3233	13,454.6	78.6596	13,454.6	73.3518	13,454.6	73.9749	13,454.6	68.2169	13,454.6	68.2909	13,454.6	61.7427	13,454.6	62.773	13,454.6	60.1569	13,454.6	59.0532	13,454.6	56.9811	13,454.6	57.4511	13,454.6	53.5357	13,454.6	54.1964	13,454.6	54.2998	13,454.6	51.857	13,454.6	49.0957	13,454.6	46.8	13,454.6	46.8125	13,454.6	50.9942	13,454.6	43.4812	13,454.6	46.2145	13,454.6	44.3484	13,454.6	29.4212	13,454.6	50.8037	13,454.6	51.4637	13,454.6	26.8691	13,454.6	41.015	13,454.6	49.4257
13,929.2	86.8947	13,929.2	86.2696	13,929.2	86.6943	13,929.2	84.5805	13,929.2	84.9391	13,929.2	81.3805	13,929.2	81.951	13,929.2	77.7904	13,929.2	77.834	13,929.2	71.6686	13,929.2	72.4864	13,929.2	66.5103	13,929.2	65.1845	13,929.2	58.8002	13,929.2	59.887	13,929.2	56.0547	13,929.2	55.1484	13,929.2	57.2288	13,929.2	55.5825	13,929.2	51.8957	13,929.2	53.2693	13,929.2	54.5023	13,929.2	51.1302	13,929.2	46.473	13,929.2	48.5842	13,929.2	43.7429	13,929.2	51.1722	13,929.2	47.5871	13,929.2	44.3484	13,929.2	38.9837	13,929.2	22.3205	13,929.2	50.8009	13,929.2	49.2384	13,929.2	35.1903	13,929.2	36.1126	13,929.2	47.2101
14,419.9	87.0468	14,419.9	86.2483	14,419.9	86.6831	14,419.9	84.561	14,419.9	84.8558	14,419.9	80.903	14,419.9	81.4274	14,419.9	77.2518	14,419.9	76.8464	14,419.9	70.1477	14,419.9	70.2346	14,419.9	65.1658	14,419.9	62.7	14,419.9	60.2719	14,419.9	59.1913	14,419.9	58.2518	14,419.9	58.0346	14,419.9	57.4786	14,419.9	58.0929	14,419.9	54.0677	14,419.9	53.1832	14,419.9	52.9828	14,419.9	53.1846	14,419.9	44.4409	14,419.9	46.1125	14,419.9	45.9219	14,419.9	51.146	14,419.9	46.1337	14,419.9	49.7369	14,419.9	39.3747	14,419.9	35.611	14,419.9	50.1455	14,419.9	49.0416	14,419.9	37.0206	14,419.9	41.1146	14,419.9	46.3126
14,928.2	86.6713	14,928.2	85.9624	14,928.2	86.2148	14,928.2	84.0308	14,928.2	84.4681	14,928.2	80.4775	14,928.2	80.9252	14,928.2	76.5963	14,928.2	75.6838	14,928.2	68.8525	14,928.2	67.8209	14,928.2	64.0266	14,928.2	60.1724	14,928.2	59.2118	14,928.2	58.6521	14,928.2	58.9367	14,928.2	58.7967	14,928.2	57.3112	14,928.2	58.2963	14,928.2	53.4883	14,928.2	55.3077	14,928.2	50.764	14,928.2	52.6425	14,928.2	45.3096	14,928.2	48.0044	14,928.2	46.0051	14,928.2	51.1485	14,928.2	42.5964	14,928.2	49.0955	14,928.2	31.389	14,928.2	38.3871	14,928.2	49.9517	14,928.2	47.5412	14,928.2	41.3855	14,928.2	45.0842	14,928.2	41.9575
15,455.6	86.4104	15,455.6	85.9321	15,455.6	85.8916	15,455.6	83.8575	15,455.6	84.0947	15,455.6	80.2569	15,455.6	80.333	15,455.6	75.3503	15,455.6	74.535	15,455.6	66.5508	15,455.6	66.8987	15,455.6	61.4955	15,455.6	61.2956	15,455.6	58.573	15,455.6	62.9984	15,455.6	58.679	15,455.6	61.8764	15,455.6	58.0412	15,455.6	59.988	15,455.6	53.8445	15,455.6	57.3443	15,455.6	49.4013	15,455.6	53.0285	15,455.6	46.9612	15,455.6	49.4641	15,455.6	50.2126	15,455.6	50.9603	15,455.6	46.2584	15,455.6	49.5355	15,455.6	31.9067	15,455.6	43.2869	15,455.6	48.1861	15,455.6	37.4268	15,455.6	44.815	15,455.6	44.2412	15,455.6	43.3054
16,000.5	85.9762	16,000.5	85.5348	16,000.5	85.4736	16,000.5	83.6295	16,000.5	83.3769	16,000.5	79.4402	16,000.5	79.3416	16,000.5	74.3083	16,000.5	73.1455	16,000.5	65.4762	16,000.5	66.4912	16,000.5	62.0722	16,000.5	64.5802	16,000.5	61.4568	16,000.5	65.5378	16,000.5	60.3501	16,000.5	62.9403	16,000.5	59.3446	16,000.5	60.9195	16,000.5	55.0364	16,000.5	58.0575	16,000.5	52.7585	16,000.5	54.7113	16,000.5	49.4594	16,000.5	50.7537	16,000.5	48.6184	16,000.5	52.1596	16,000.5	47.8185	16,000.5	49.2526	16,000.5	42.3474	16,000.5	43.6922	16,000.5	46.6382	16,000.5	36.9708	16,000.5	46.8236	16,000.5	44.6341	16,000.5	42.2034
16,564.5	85.5526	16,564.5	85.1788	16,564.5	85.0665	16,564.5	83.1715	16,564.5	82.8685	16,564.5	78.9494	16,564.5	78.7897	16,564.5	73.974	16,564.5	72.3797	16,564.5	64.7664	16,564.5	66.0915	16,564.5	62.9402	16,564.5	65.9466	16,564.5	63.6425	16,564.5	66.0023	16,564.5	61.1163	16,564.5	63.8435	16,564.5	58.8102	16,564.5	61.1506	16,564.5	56.7015	16,564.5	58.7922	16,564.5	53.8439	16,564.5	55.2553	16,564.5	49.2026	16,564.5	52.0459	16,564.5	49.4816	16,564.5	49.5702	16,564.5	45.5287	16,564.5	47.211	16,564.5	42.7139	16,564.5	42.6854	16,564.5	47.2153	16,564.5	19.0288	16,564.5	48.4038	16,564.5	42.9538	16,564.5	40.8087
17,148.9	85.6364	17,148.9	85.1086	17,148.9	84.9878	17,148.9	82.8899	17,148.9	82.9385	17,148.9	78.6641	17,148.9	78.6527	17,148.9	73.1671	17,148.9	72.3362	17,148.9	63.7636	17,148.9	67.523	17,148.9	63.4779	17,148.9	66.7297	17,148.9	63.9654	17,148.9	66.196	17,148.9	61.1931	17,148.9	64.7753	17,148.9	58.859	17,148.9	61.7099	17,148.9	56.5301	17,148.9	58.9184	17,148.9	53.7783	17,148.9	56.1019	17,148.9	49.4564	17,148.9	52.4114	17,148.9	49.6894	17,148.9	47.4438	17,148.9	44.9286	17,148.9	46.9232	17,148.9	42.733	17,148.9	42.5736	17,148.9	45.8708	17,148.9	35.8444	17,148.9	46.584	17,148.9	40.2271	17,148.9	36.8349
17,752.4	86.0418	17,752.4	85.1752	17,752.4	85.3962	17,752.4	82.7852	17,752.4	83.2426	17,752.4	78.3278	17,752.4	78.7357	17,752.4	72.357	17,752.4	72.206	17,752.4	63.4522	17,752.4	67.8795	17,752.4	64.4244	17,752.4	67.7157	17,752.4	64.3654	17,752.4	66.9867	17,752.4	61.1324	17,752.4	65.4441	17,752.4	58.7122	17,752.4	62.3678	17,752.4	55.7435	17,752.4	59.7372	17,752.4	52.9751	17,752.4	56.3851	17,752.4	49.2482	17,752.4	53.0839	17,752.4	48.9021	17,752.4	48.1903	17,752.4	43.5818	17,752.4	47.4284	17,752.4	42.18	17,752.4	42.6195	17,752.4	44.9724	17,752.4	41.2972	17,752.4	47.8277	17,752.4	38.3724	17,752.4	41.6339
18,379.4	86.3313	18,379.4	85.1652	18,379.4	85.6926	18,379.4	82.5839	18,379.4	83.4019	18,379.4	77.8505	18,379.4	78.6722	18,379.4	71.0573	18,379.4	71.3154	18,379.4	62.2215	18,379.4	68.3211	18,379.4	63.793	18,379.4	69.0335	18,379.4	63.293	18,379.4	67.8919	18,379.4	60.4215	18,379.4	66.0948	18,379.4	57.5109	18,379.4	63.0703	18,379.4	55.2709	18,379.4	60.5182	18,379.4	51.4204	18,379.4	56.832	18,379.4	47.5585	18,379.4	53.8102	18,379.4	48.1171	18,379.4	47.9663	18,379.4	43.2278	18,379.4	46.7751	18,379.4	41.6809	18,379.4	41.837	18,379.4	44.0792	18,379.4	42.9968	18,379.4	45.7194	18,379.4	35.9716	18,379.4	43.3475
19,026.9	86.4076	19,026.9	85.0736	19,026.9	85.6861	19,026.9	82.3262	19,026.9	83.3475	19,026.9	77.1493	19,026.9	78.4286	19,026.9	69.0312	19,026.9	70.234	19,026.9	60.8458	19,026.9	69.2637	19,026.9	62.7873	19,026.9	69.7534	19,026.9	62.8672	19,026.9	68.0846	19,026.9	61.0195	19,026.9	66.3506	19,026.9	57.666	19,026.9	62.9902	19,026.9	55.5994	19,026.9	60.5188	19,026.9	50.5389	19,026.9	56.9857	19,026.9	48.9985	19,026.9	53.653	19,026.9	47.6895	19,026.9	45.8823	19,026.9	42.6346	19,026.9	46.0308	19,026.9	41.274	19,026.9	39.5914	19,026.9	43.693	19,026.9	43.1952	19,026.9	44.2561	19,026.9	34.3672	19,026.9	43.5141
19,697.8	86.273	19,697.8	84.8978	19,697.8	85.5033	19,697.8	81.8526	19,697.8	83.0449	19,697.8	76.3257	19,697.8	77.9431	19,697.8	66.7214	19,697.8	69.1482	19,697.8	61.0758	19,697.8	69.5448	19,697.8	63.4773	19,697.8	69.7594	19,697.8	63.8937	19,697.8	67.8237	19,697.8	61.8269	19,697.8	66.2526	19,697.8	58.3725	19,697.8	62.6906	19,697.8	55.4201	19,697.8	60.2048	19,697.8	50.6665	19,697.8	56.3335	19,697.8	49.0523	19,697.8	53.574	19,697.8	47.285	19,697.8	44.5602	19,697.8	41.9118	19,697.8	44.978	19,697.8	38.6602	19,697.8	35.9139	19,697.8	43.2775	19,697.8	41.8706	19,697.8	41.7079	19,697.8	36.7569	19,697.8	41.6653
19,999.5	86.269	19,999.5	84.594	19,999.5	85.4351	19,999.5	81.295	19,999.5	82.8754	19,999.5	75.9359	19,999.5	77.4522	19,999.5	65.196	19,999.5	68.7127	19,999.5	62.8205	19,999.5	69.5705	19,999.5	66.6574	19,999.5	69.3878	19,999.5	63.4725	19,999.5	67.6353	19,999.5	62.8908	19,999.5	66.3036	19,999.5	56.9043	19,999.5	63.2502	19,999.5	55.2533	19,999.5	57.6425	19,999.5	47.281	19,999.5	53.9988	19,999.5	51.6305	19,999.5	56.9644	19,999.5	48.5715	19,999.5	57.0092	19,999.5	51.3566	19,999.5	49.2959	19,999.5	41.7956	19,999.5	49.8747	19,999.5	35.3632	19,999.5	47.3694	19,999.5	48.2301	19,999.5	45.5043	19,999.5	48.718
