"SPL Horizontal"
"On-Axis"		"10°"		"-10°"		"20°"		"-20°"		"30°"		"-30°"		"40°"		"-40°"		"50°"		"-50°"		"60°"		"-60°"		"70°"		"-70°"		"80°"		"-80°"		"90°"		"-90°"		"100°"		"-100°"		"110°"		"-110°"		"120°"		"-120°"		"130°"		"-130°"		"140°"		"-140°"		"150°"		"-150°"		"160°"		"-160°"		"170°"		"-170°"		"180°"
"Frequency / Hz"	"Sound Pressure Level / dB (re 20 µPa/V)  [2.83V at 1m]"	"Frequency / Hz"	"Sound Pressure Level / dB (re 20 µPa/V)  [2.83V at 1m]"	"Frequency / Hz"	"Sound Pressure Level / dB (re 20 µPa/V)  [2.83V at 1m]"	"Frequency / Hz"	"Sound Pressure Level / dB (re 20 µPa/V)  [2.83V at 1m]"	"Frequency / Hz"	"Sound Pressure Level / dB (re 20 µPa/V)  [2.83V at 1m]"	"Frequency / Hz"	"Sound Pressure Level / dB (re 20 µPa/V)  [2.83V at 1m]"	"Frequency / Hz"	"Sound Pressure Level / dB (re 20 µPa/V)  [2.83V at 1m]"	"Frequency / Hz"	"Sound Pressure Level / dB (re 20 µPa/V)  [2.83V at 1m]"	"Frequency / Hz"	"Sound Pressure Level / dB (re 20 µPa/V)  [2.83V at 1m]"	"Frequency / Hz"	"Sound Pressure Level / dB (re 20 µPa/V)  [2.83V at 1m]"	"Frequency / Hz"	"Sound Pressure Level / dB (re 20 µPa/V)  [2.83V at 1m]"	"Frequency / Hz"	"Sound Pressure Level / dB (re 20 µPa/V)  [2.83V at 1m]"	"Frequency / Hz"	"Sound Pressure Level / dB (re 20 µPa/V)  [2.83V at 1m]"	"Frequency / Hz"	"Sound Pressure Level / dB (re 20 µPa/V)  [2.83V at 1m]"	"Frequency / Hz"	"Sound Pressure Level / dB (re 20 µPa/V)  [2.83V at 1m]"	"Frequency / Hz"	"Sound Pressure Level / dB (re 20 µPa/V)  [2.83V at 1m]"	"Frequency / Hz"	"Sound Pressure Level / dB (re 20 µPa/V)  [2.83V at 1m]"	"Frequency / Hz"	"Sound Pressure Level / dB (re 20 µPa/V)  [2.83V at 1m]"	"Frequency / Hz"	"Sound Pressure Level / dB (re 20 µPa/V)  [2.83V at 1m]"	"Frequency / Hz"	"Sound Pressure Level / dB (re 20 µPa/V)  [2.83V at 1m]"	"Frequency / Hz"	"Sound Pressure Level / dB (re 20 µPa/V)  [2.83V at 1m]"	"Frequency / Hz"	"Sound Pressure Level / dB (re 20 µPa/V)  [2.83V at 1m]"	"Frequency / Hz"	"Sound Pressure Level / dB (re 20 µPa/V)  [2.83V at 1m]"	"Frequency / Hz"	"Sound Pressure Level / dB (re 20 µPa/V)  [2.83V at 1m]"	"Frequency / Hz"	"Sound Pressure Level / dB (re 20 µPa/V)  [2.83V at 1m]"	"Frequency / Hz"	"Sound Pressure Level / dB (re 20 µPa/V)  [2.83V at 1m]"	"Frequency / Hz"	"Sound Pressure Level / dB (re 20 µPa/V)  [2.83V at 1m]"	"Frequency / Hz"	"Sound Pressure Level / dB (re 20 µPa/V)  [2.83V at 1m]"	"Frequency / Hz"	"Sound Pressure Level / dB (re 20 µPa/V)  [2.83V at 1m]"	"Frequency / Hz"	"Sound Pressure Level / dB (re 20 µPa/V)  [2.83V at 1m]"	"Frequency / Hz"	"Sound Pressure Level / dB (re 20 µPa/V)  [2.83V at 1m]"	"Frequency / Hz"	"Sound Pressure Level / dB (re 20 µPa/V)  [2.83V at 1m]"	"Frequency / Hz"	"Sound Pressure Level / dB (re 20 µPa/V)  [2.83V at 1m]"	"Frequency / Hz"	"Sound Pressure Level / dB (re 20 µPa/V)  [2.83V at 1m]"	"Frequency / Hz"	"Sound Pressure Level / dB (re 20 µPa/V)  [2.83V at 1m]"	"Frequency / Hz"	"Sound Pressure Level / dB (re 20 µPa/V)  [2.83V at 1m]"
20.5078	38.8572	20.5078	38.6403	20.5078	39.0894	20.5078	38.4411	20.5078	39.3327	20.5078	38.2589	20.5078	39.5814	20.5078	38.0895	20.5078	39.8288	20.5078	37.9259	20.5078	40.0665	20.5078	37.7611	20.5078	40.2845	20.5078	37.5928	20.5078	40.4715	20.5078	37.4294	20.5078	40.6162	20.5078	37.2936	20.5078	40.7083	20.5078	37.2209	20.5078	40.7412	20.5078	37.2485	20.5078	40.7127	20.5078	37.3977	20.5078	40.6266	20.5078	37.661	20.5078	40.4915	20.5078	38.0039	20.5078	40.3189	20.5078	38.3805	20.5078	40.1196	20.5078	38.751	20.5078	39.9001	20.5078	39.0912	20.5078	39.66	20.5078	39.3931
21.9727	49.6572	21.9727	49.6853	21.9727	49.6747	21.9727	49.758	21.9727	49.7358	21.9727	49.8716	21.9727	49.8354	21.9727	50.0202	21.9727	49.9659	21.9727	50.1966	21.9727	50.1183	21.9727	50.3936	21.9727	50.283	21.9727	50.6049	21.9727	50.4513	21.9727	50.8259	21.9727	50.6167	21.9727	51.0528	21.9727	50.7763	21.9727	51.2818	21.9727	50.9306	21.9727	51.5076	21.9727	51.0829	21.9727	51.7219	21.9727	51.2381	21.9727	51.9136	21.9727	51.3997	21.9727	52.0698	21.9727	51.5685	21.9727	52.1786	21.9727	51.7401	21.9727	52.2313	21.9727	51.9051	21.9727	52.2245	21.9727	52.0504	21.9727	52.1612
23.4375	47.5171	23.4375	47.5614	23.4375	47.5319	23.4375	47.6612	23.4375	47.6035	23.4375	47.8077	23.4375	47.7238	23.4375	47.9877	23.4375	47.8799	23.4375	48.1854	23.4375	48.0557	23.4375	48.3843	23.4375	48.2339	23.4375	48.5697	23.4375	48.3982	23.4375	48.7297	23.4375	48.5354	23.4375	48.857	23.4375	48.6377	23.4375	48.9488	23.4375	48.7029	23.4375	49.0063	23.4375	48.735	23.4375	49.0329	23.4375	48.7425	23.4375	49.0335	23.4375	48.7368	23.4375	49.0128	23.4375	48.7297	23.4375	48.9757	23.4375	48.7307	23.4375	48.9274	23.4375	48.746	23.4375	48.8738	23.4375	48.7771	23.4375	48.8215
24.9023	44.9695	24.9023	44.9794	24.9023	45.0311	24.9023	45.0533	24.9023	45.1611	24.9023	45.1748	24.9023	45.3463	24.9023	45.3207	24.9023	45.5648	24.9023	45.465	24.9023	45.7894	24.9023	45.5816	24.9023	45.9913	24.9023	45.648	24.9023	46.1443	24.9023	45.6485	24.9023	46.2277	24.9023	45.576	24.9023	46.2284	24.9023	45.433	24.9023	46.1427	24.9023	45.2319	24.9023	45.9758	24.9023	44.9933	24.9023	45.7413	24.9023	44.7435	24.9023	45.4594	24.9023	44.5112	24.9023	45.1548	24.9023	44.3242	24.9023	44.8542	24.9023	44.2057	24.9023	44.5841	24.9023	44.1711	24.9023	44.3684	24.9023	44.2266
26.3672	50.7945	26.3672	50.7658	26.3672	50.8676	26.3672	50.7803	26.3672	50.9809	26.3672	50.8306	26.3672	51.1241	26.3672	50.9045	26.3672	51.2828	26.3672	50.9861	26.3672	51.4396	26.3672	51.0586	26.3672	51.5763	26.3672	51.106	26.3672	51.6759	26.3672	51.1163	26.3672	51.7248	26.3672	51.0827	26.3672	51.7146	26.3672	51.0054	26.3672	51.6429	26.3672	50.8907	26.3672	51.5141	26.3672	50.7506	26.3672	51.3386	26.3672	50.6008	26.3672	51.1315	26.3672	50.4586	26.3672	50.9114	26.3672	50.3414	26.3672	50.6981	26.3672	50.2643	26.3672	50.5105	26.3672	50.2391	26.3672	50.3647	26.3672	50.2723
27.832	51.7194	27.832	51.7298	27.832	51.7349	27.832	51.7634	27.832	51.775	27.832	51.814	27.832	51.8348	27.832	51.8721	27.832	51.9058	27.832	51.9252	27.832	51.9764	27.832	51.96	27.832	52.0329	27.832	51.9636	27.832	52.0619	27.832	51.926	27.832	52.0521	27.832	51.8425	27.832	51.9961	27.832	51.7145	27.832	51.8927	27.832	51.5499	27.832	51.7462	27.832	51.3621	27.832	51.5668	27.832	51.1677	27.832	51.3686	27.832	50.9848	27.832	51.1681	27.832	50.8302	27.832	50.9824	27.832	50.7182	27.832	50.8272	27.832	50.659	27.832	50.7159	27.832	50.6581
29.2969	52.6942	29.2969	52.6642	29.2969	52.7387	29.2969	52.6482	29.2969	52.7965	29.2969	52.6446	29.2969	52.8647	29.2969	52.6496	29.2969	52.9382	29.2969	52.6573	29.2969	53.0091	29.2969	52.6598	29.2969	53.0673	29.2969	52.6486	29.2969	53.1018	29.2969	52.6167	29.2969	53.103	29.2969	52.5603	29.2969	53.065	29.2969	52.4807	29.2969	52.9869	29.2969	52.3837	29.2969	52.8738	29.2969	52.2789	29.2969	52.7351	29.2969	52.1773	29.2969	52.5834	29.2969	52.0895	29.2969	52.4315	29.2969	52.0244	29.2969	52.2909	29.2969	51.9881	29.2969	52.1705	29.2969	51.9842	29.2969	52.0768	29.2969	52.014
30.7617	55.206	30.7617	55.1726	30.7617	55.2568	30.7617	55.1558	30.7617	55.3231	30.7617	55.1525	30.7617	55.3999	30.7617	55.1564	30.7617	55.4798	30.7617	55.1584	30.7617	55.5521	30.7617	55.1476	30.7617	55.6044	30.7617	55.1127	30.7617	55.6237	30.7617	55.0443	30.7617	55.5988	30.7617	54.9372	30.7617	55.5223	30.7617	54.792	30.7617	55.3924	30.7617	54.616	30.7617	55.2137	30.7617	54.4219	30.7617	54.9964	30.7617	54.2266	30.7617	54.7556	30.7617	54.0486	30.7617	54.509	30.7617	53.9059	30.7617	54.2754	30.7617	53.8137	30.7617	54.0725	30.7617	53.7823	30.7617	53.9157	30.7617	53.8167
32.2266	58.0951	32.2266	58.056	32.2266	58.1446	32.2266	58.028	32.2266	58.2027	32.2266	58.0114	32.2266	58.2671	32.2266	58.0047	32.2266	58.334	32.2266	58.0049	32.2266	58.3982	32.2266	58.0071	32.2266	58.4529	32.2266	58.0057	32.2266	58.491	32.2266	57.9954	32.2266	58.5062	32.2266	57.9734	32.2266	58.4943	32.2266	57.9396	32.2266	58.4548	32.2266	57.8976	32.2266	58.3908	32.2266	57.8528	32.2266	58.3083	32.2266	57.8117	32.2266	58.215	32.2266	57.7803	32.2266	58.1185	32.2266	57.7631	32.2266	58.0259	32.2266	57.7629	32.2266	57.9425	32.2266	57.7812	32.2266	57.8722	32.2266	57.8179
33.6914	59.2938	33.6914	59.2574	33.6914	59.3351	33.6914	59.2265	33.6914	59.3801	33.6914	59.2015	33.6914	59.4273	33.6914	59.1814	33.6914	59.4738	33.6914	59.1639	33.6914	59.5157	33.6914	59.1451	33.6914	59.5474	33.6914	59.1205	33.6914	59.5629	33.6914	59.086	33.6914	59.5568	33.6914	59.0402	33.6914	59.5259	33.6914	58.9844	33.6914	59.4703	33.6914	58.9235	33.6914	59.3938	33.6914	58.864	33.6914	59.3026	33.6914	58.813	33.6914	59.2044	33.6914	58.776	33.6914	59.1064	33.6914	58.7567	33.6914	59.0147	33.6914	58.7565	33.6914	58.9333	33.6914	58.7753	33.6914	58.8652	33.6914	58.812
35.1562	61.1367	35.1562	61.1303	35.1562	61.146	35.1562	61.1272	35.1562	61.1575	35.1562	61.1278	35.1562	61.171	35.1562	61.1318	35.1562	61.1853	35.1562	61.1376	35.1562	61.1986	35.1562	61.1423	35.1562	61.2078	35.1562	61.1421	35.1562	61.2093	35.1562	61.1337	35.1562	61.1997	35.1562	61.1152	35.1562	61.1773	35.1562	61.0873	35.1562	61.1429	35.1562	61.0528	35.1562	61.0999	35.1562	61.0159	35.1562	61.0533	35.1562	60.9807	35.1562	61.0083	35.1562	60.9505	35.1562	60.9693	35.1562	60.927	35.1562	60.9387	35.1562	60.9108	35.1562	60.9172	35.1562	60.9017	35.1562	60.9045	35.1562	60.8995
36.6211	62.801	36.6211	62.7749	36.6211	62.8242	36.6211	62.7461	36.6211	62.8443	36.6211	62.7152	36.6211	62.8611	36.6211	62.6822	36.6211	62.8738	36.6211	62.6467	36.6211	62.8803	36.6211	62.6075	36.6211	62.8777	36.6211	62.5631	36.6211	62.8622	36.6211	62.5123	36.6211	62.8307	36.6211	62.4557	36.6211	62.7816	36.6211	62.3955	36.6211	62.7163	36.6211	62.3358	36.6211	62.6388	36.6211	62.2815	36.6211	62.5554	36.6211	62.2368	36.6211	62.4726	36.6211	62.2046	36.6211	62.3963	36.6211	62.1857	36.6211	62.3302	36.6211	62.18	36.6211	62.2762	36.6211	62.1867	36.6211	62.2346	36.6211	62.2049
38.0859	64.3646	38.0859	64.3392	38.0859	64.3847	38.0859	64.3089	38.0859	64.3995	38.0859	64.2749	38.0859	64.4092	38.0859	64.238	38.0859	64.4137	38.0859	64.1987	38.0859	64.4123	38.0859	64.1569	38.0859	64.4032	38.0859	64.1119	38.0859	64.3839	38.0859	64.0633	38.0859	64.3521	38.0859	64.0117	38.0859	64.3068	38.0859	63.959	38.0859	64.2492	38.0859	63.9085	38.0859	64.1826	38.0859	63.8641	38.0859	64.112	38.0859	63.8288	38.0859	64.0427	38.0859	63.8047	38.0859	63.979	38.0859	63.7921	38.0859	63.9239	38.0859	63.7905	38.0859	63.8785	38.0859	63.7989	38.0859	63.8428	38.0859	63.8164
39.5508	65.6899	39.5508	65.658	39.5508	65.7157	39.5508	65.6208	39.5508	65.7351	39.5508	65.5799	39.5508	65.7485	39.5508	65.537	39.5508	65.7564	39.5508	65.4937	39.5508	65.7586	39.5508	65.4507	39.5508	65.7544	39.5508	65.4083	39.5508	65.7422	39.5508	65.3667	39.5508	65.7208	39.5508	65.3268	39.5508	65.6894	39.5508	65.2904	39.5508	65.6493	39.5508	65.2601	39.5508	65.6028	39.5508	65.2386	39.5508	65.5532	39.5508	65.2276	39.5508	65.504	39.5508	65.2277	39.5508	65.4575	39.5508	65.2379	39.5508	65.4149	39.5508	65.2563	39.5508	65.3763	39.5508	65.2807	39.5508	65.3413	39.5508	65.3094
41.0156	66.8701	41.0156	66.8467	41.0156	66.8857	41.0156	66.8165	41.0156	66.8936	41.0156	66.7806	41.0156	66.8944	41.0156	66.7409	41.0156	66.889	41.0156	66.6989	41.0156	66.8777	41.0156	66.6556	41.0156	66.8603	41.0156	66.6118	41.0156	66.8362	41.0156	66.5681	41.0156	66.8047	41.0156	66.5257	41.0156	66.766	41.0156	66.4867	41.0156	66.7217	41.0156	66.4535	41.0156	66.6746	41.0156	66.4286	41.0156	66.6281	41.0156	66.4133	41.0156	66.5852	41.0156	66.4076	41.0156	66.5479	41.0156	66.4104	41.0156	66.5167	41.0156	66.4197	41.0156	66.4908	41.0156	66.4333	41.0156	66.4689	41.0156	66.4499
42.4805	68.2084	42.4805	68.1884	42.4805	68.2196	42.4805	68.1606	42.4805	68.2223	42.4805	68.1266	42.4805	68.2169	42.4805	68.0881	42.4805	68.2046	42.4805	68.047	42.4805	68.186	42.4805	68.0047	42.4805	68.1617	42.4805	67.9619	42.4805	68.1314	42.4805	67.9197	42.4805	68.0953	42.4805	67.8791	42.4805	68.0541	42.4805	67.8418	42.4805	68.0093	42.4805	67.8099	42.4805	67.9639	42.4805	67.7852	42.4805	67.9207	42.4805	67.7687	42.4805	67.8825	42.4805	67.7603	42.4805	67.8508	42.4805	67.7587	42.4805	67.8257	42.4805	67.7624	42.4805	67.8064	42.4805	67.7697	42.4805	67.7914	42.4805	67.7794
43.9453	69.2066	43.9453	69.1851	43.9453	69.2164	43.9453	69.1528	43.9453	69.2148	43.9453	69.1113	43.9453	69.2029	43.9453	69.063	43.9453	69.1822	43.9453	69.0103	43.9453	69.1542	43.9453	68.9557	43.9453	69.12	43.9453	68.9014	43.9453	69.0807	43.9453	68.8492	43.9453	69.0371	43.9453	68.8015	43.9453	68.9905	43.9453	68.7605	43.9453	68.943	43.9453	68.7282	43.9453	68.897	43.9453	68.7062	43.9453	68.8555	43.9453	68.6944	43.9453	68.8203	43.9453	68.6919	43.9453	68.7922	43.9453	68.6963	43.9453	68.7707	43.9453	68.7052	43.9453	68.7541	43.9453	68.7163	43.9453	68.7405	43.9453	68.7282
45.4102	70.1035	45.4102	70.0827	45.4102	70.1109	45.4102	70.0493	45.4102	70.1054	45.4102	70.0053	45.4102	70.0882	45.4102	69.9532	45.4102	70.0614	45.4102	69.896	45.4102	70.0271	45.4102	69.8366	45.4102	69.987	45.4102	69.7779	45.4102	69.9426	45.4102	69.7224	45.4102	69.8953	45.4102	69.6724	45.4102	69.8467	45.4102	69.6304	45.4102	69.7988	45.4102	69.5983	45.4102	69.7542	45.4102	69.577	45.4102	69.715	45.4102	69.5663	45.4102	69.6827	45.4102	69.5649	45.4102	69.6578	45.4102	69.5703	45.4102	69.6392	45.4102	69.5797	45.4102	69.625	45.4102	69.5908	45.4102	69.6132	45.4102	69.6021
46.875	70.9552	46.875	70.9335	46.875	70.9626	46.875	70.8985	46.875	70.9561	46.875	70.8521	46.875	70.9372	46.875	70.7972	46.875	70.9081	46.875	70.7373	46.875	70.8712	46.875	70.6756	46.875	70.8287	46.875	70.6154	46.875	70.7827	46.875	70.5595	46.875	70.7348	46.875	70.5107	46.875	70.687	46.875	70.4712	46.875	70.6413	46.875	70.4426	46.875	70.6	46.875	70.4256	46.875	70.565	46.875	70.4194	46.875	70.5372	46.875	70.4222	46.875	70.5164	46.875	70.4313	46.875	70.5013	46.875	70.4435	46.875	70.4897	46.875	70.4565	46.875	70.4794	46.875	70.4686
48.3398	71.7678	48.3398	71.745	48.3398	71.7749	48.3398	71.7074	48.3398	71.7666	48.3398	71.6573	48.3398	71.7446	48.3398	71.5978	48.3398	71.7112	48.3398	71.5327	48.3398	71.6692	48.3398	71.4659	48.3398	71.6215	48.3398	71.4011	48.3398	71.5705	48.3398	71.3416	48.3398	71.5184	48.3398	71.2904	48.3398	71.4677	48.3398	71.2497	48.3398	71.4205	48.3398	71.2212	48.3398	71.379	48.3398	71.205	48.3398	71.3447	48.3398	71.2002	48.3398	71.3183	48.3398	71.2046	48.3398	71.2991	48.3398	71.215	48.3398	71.2855	48.3398	71.2285	48.3398	71.275	48.3398	71.2422	48.3398	71.2653	48.3398	71.2547
51.2695	73.132	51.2695	73.11	51.2695	73.1359	51.2695	73.0711	51.2695	73.1224	51.2695	73.0177	51.2695	73.0933	51.2695	72.9537	51.2695	73.0516	51.2695	72.8834	51.2695	73.0008	51.2695	72.8117	51.2695	72.9446	51.2695	72.743	51.2695	72.8868	51.2695	72.6815	51.2695	72.8304	51.2695	72.6306	51.2695	72.7785	51.2695	72.5926	51.2695	72.7336	51.2695	72.5688	51.2695	72.6975	51.2695	72.5587	51.2695	72.6713	51.2695	72.5604	51.2695	72.6544	51.2695	72.5709	51.2695	72.6452	51.2695	72.5863	51.2695	72.641	51.2695	72.6028	51.2695	72.6387	51.2695	72.6175	51.2695	72.6352	51.2695	72.6285
52.7344	73.7921	52.7344	73.77	52.7344	73.7955	52.7344	73.7303	52.7344	73.7806	52.7344	73.6755	52.7344	73.7495	52.7344	73.6096	52.7344	73.7053	52.7344	73.5374	52.7344	73.6519	52.7344	73.4638	52.7344	73.5932	52.7344	73.3938	52.7344	73.5332	52.7344	73.3318	52.7344	73.4756	52.7344	73.2813	52.7344	73.4236	52.7344	73.2446	52.7344	73.3796	52.7344	73.2229	52.7344	73.3456	52.7344	73.2153	52.7344	73.3221	52.7344	73.2198	52.7344	73.3084	52.7344	73.2327	52.7344	73.3025	52.7344	73.2501	52.7344	73.3013	52.7344	73.268	52.7344	73.3015	52.7344	73.2834	52.7344	73.2998	52.7344	73.2941
54.1992	74.4266	54.1992	74.4049	54.1992	74.4286	54.1992	74.3646	54.1992	74.4114	54.1992	74.3085	54.1992	74.377	54.1992	74.2407	54.1992	74.3288	54.1992	74.1661	54.1992	74.2709	54.1992	74.0903	54.1992	74.2078	54.1992	74.0183	54.1992	74.1441	54.1992	73.9548	54.1992	74.0836	54.1992	73.9036	54.1992	74.0301	54.1992	73.8672	54.1992	73.9863	54.1992	73.8463	54.1992	73.9538	54.1992	73.8402	54.1992	73.933	54.1992	73.8462	54.1992	73.9228	54.1992	73.8606	54.1992	73.9206	54.1992	73.8792	54.1992	73.923	54.1992	73.8978	54.1992	73.9263	54.1992	73.9131	54.1992	73.9271	54.1992	73.9231
55.6641	75.0104	55.6641	74.9893	55.6641	75.0106	55.6641	74.9485	55.6641	74.9905	55.6641	74.891	55.6641	74.9523	55.6641	74.821	55.6641	74.8997	55.6641	74.7438	55.6641	74.837	55.6641	74.6651	55.6641	74.7693	55.6641	74.5905	55.6641	74.7013	55.6641	74.525	55.6641	74.6376	55.6641	74.4725	55.6641	74.5821	55.6641	74.4355	55.6641	74.5376	55.6641	74.4147	55.6641	74.5057	55.6641	74.4092	55.6641	74.4867	55.6641	74.416	55.6641	74.479	55.6641	74.4312	55.6641	74.4797	55.6641	74.4502	55.6641	74.4851	55.6641	74.4688	55.6641	74.4912	55.6641	74.4835	55.6641	74.4944	55.6641	74.4922
58.5938	76.0975	58.5938	76.0765	58.5938	76.0956	58.5938	76.0341	58.5938	76.0716	58.5938	75.9734	58.5938	76.028	58.5938	75.899	58.5938	75.9688	58.5938	75.8168	58.5938	75.8989	58.5938	75.7331	58.5938	75.8242	58.5938	75.6542	58.5938	75.7503	58.5938	75.5857	58.5938	75.6824	58.5938	75.5319	58.5938	75.6248	58.5938	75.4954	58.5938	75.5806	58.5938	75.4767	58.5938	75.5514	58.5938	75.4744	58.5938	75.5367	58.5938	75.485	58.5938	75.5344	58.5938	75.5039	58.5938	75.541	58.5938	75.526	58.5938	75.552	58.5938	75.5466	58.5938	75.563	58.5938	75.562	58.5938	75.5699	58.5938	75.5699
60.0586	76.5988	60.0586	76.5779	60.0586	76.5958	60.0586	76.5346	60.0586	76.5696	60.0586	76.472	60.0586	76.5228	60.0586	76.3951	60.0586	76.4597	60.0586	76.3099	60.0586	76.3856	60.0586	76.2231	60.0586	76.3066	60.0586	76.1413	60.0586	76.2288	60.0586	76.0704	60.0586	76.1579	60.0586	76.015	60.0586	76.0986	60.0586	75.9779	60.0586	76.0542	60.0586	75.9595	60.0586	76.026	60.0586	75.9582	60.0586	76.0135	60.0586	75.9703	60.0586	76.0142	60.0586	75.991	60.0586	76.024	60.0586	76.0149	60.0586	76.0381	60.0586	76.0369	60.0586	76.0515	60.0586	76.0531	60.0586	76.0602	60.0586	76.0611
62.9883	77.4388	62.9883	77.4195	62.9883	77.4323	62.9883	77.3757	62.9883	77.4007	62.9883	77.3109	62.9883	77.3468	62.9883	77.2303	62.9883	77.2751	62.9883	77.1402	62.9883	77.1915	62.9883	77.0478	62.9883	77.1028	62.9883	76.9602	62.9883	77.0158	62.9883	76.8839	62.9883	76.9368	62.9883	76.8237	62.9883	76.8712	62.9883	76.7826	62.9883	76.8226	62.9883	76.7611	62.9883	76.7925	62.9883	76.7575	62.9883	76.7801	62.9883	76.7678	62.9883	76.7826	62.9883	76.7869	62.9883	76.7954	62.9883	76.8091	62.9883	76.8132	62.9883	76.8291	62.9883	76.8307	62.9883	76.8428	62.9883	76.8432	62.9883	76.8477
64.4531	77.9655	64.4531	77.9475	64.4531	77.9567	64.4531	77.9043	64.4531	77.922	64.4531	77.8392	64.4531	77.8645	64.4531	77.7577	64.4531	77.7887	64.4531	77.6663	64.4531	77.701	64.4531	77.5724	64.4531	77.6085	64.4531	77.4835	64.4531	77.5183	64.4531	77.4062	64.4531	77.4371	64.4531	77.3454	64.4531	77.3705	64.4531	77.3043	64.4531	77.3221	64.4531	77.2831	64.4531	77.2932	64.4531	77.28	64.4531	77.283	64.4531	77.2908	64.4531	77.2883	64.4531	77.3101	64.4531	77.3042	64.4531	77.3322	64.4531	77.3251	64.4531	77.3516	64.4531	77.3456	64.4531	77.3642	64.4531	77.3607	64.4531	77.3674
67.3828	78.8292	67.3828	78.8114	67.3828	78.819	67.3828	78.7673	67.3828	78.7818	67.3828	78.7004	67.3828	78.7208	67.3828	78.6165	67.3828	78.6411	67.3828	78.5227	67.3828	78.5495	67.3828	78.4268	67.3828	78.4536	67.3828	78.3369	67.3828	78.3613	67.3828	78.2598	67.3828	78.2797	67.3828	78.201	67.3828	78.2146	67.3828	78.1631	67.3828	78.1696	67.3828	78.1464	67.3828	78.1459	67.3828	78.1484	67.3828	78.1419	67.3828	78.1645	67.3828	78.1537	67.3828	78.1887	67.3828	78.176	67.3828	78.2147	67.3828	78.2026	67.3828	78.237	67.3828	78.2276	67.3828	78.251	67.3828	78.2459	67.3828	78.2542
68.8477	79.2654	68.8477	79.2494	68.8477	79.2527	68.8477	79.2063	68.8477	79.2123	68.8477	79.1398	68.8477	79.1475	68.8477	79.0558	68.8477	79.0637	68.8477	78.9616	68.8477	78.9679	68.8477	78.8653	68.8477	78.8683	68.8477	78.7752	68.8477	78.773	68.8477	78.6983	68.8477	78.6896	68.8477	78.6402	68.8477	78.6243	68.8477	78.6035	68.8477	78.5806	68.8477	78.5884	68.8477	78.5597	68.8477	78.5921	68.8477	78.5596	68.8477	78.6097	68.8477	78.5762	68.8477	78.6351	68.8477	78.6035	68.8477	78.6618	68.8477	78.6351	68.8477	78.6839	68.8477	78.6645	68.8477	78.6968	68.8477	78.6867	68.8477	78.698
71.7773	80.0831	71.7773	80.0715	71.7773	80.0643	71.7773	80.031	71.7773	80.0161	71.7773	79.9654	71.7773	79.9422	71.7773	79.8808	71.7773	79.8485	71.7773	79.785	71.7773	79.7426	71.7773	79.6864	71.7773	79.6333	71.7773	79.5937	71.7773	79.5296	71.7773	79.5144	71.7773	79.4399	71.7773	79.4541	71.7773	79.3706	71.7773	79.4158	71.7773	79.3257	71.7773	79.3993	71.7773	79.3062	71.7773	79.4018	71.7773	79.3099	71.7773	79.418	71.7773	79.332	71.7773	79.4415	71.7773	79.3661	71.7773	79.4656	71.7773	79.4049	71.7773	79.4842	71.7773	79.4417	71.7773	79.4927	71.7773	79.4708	71.7773	79.4884
74.707	80.8457	74.707	80.8385	74.707	80.821	74.707	80.8008	74.707	80.7657	74.707	80.7369	74.707	80.6837	74.707	80.6529	74.707	80.5814	74.707	80.5568	74.707	80.467	74.707	80.4578	74.707	80.35	74.707	80.3647	74.707	80.2401	74.707	80.2853	74.707	80.1463	74.707	80.2255	74.707	80.0756	74.707	80.1881	74.707	80.032	74.707	80.1728	74.707	80.0163	74.707	80.1764	74.707	80.0259	74.707	80.1933	74.707	80.0555	74.707	80.2167	74.707	80.0979	74.707	80.2396	74.707	80.1454	74.707	80.2557	74.707	80.1904	74.707	80.2604	74.707	80.227	74.707	80.251
77.6367	81.561	77.6367	81.5594	77.6367	81.5295	77.6367	81.5262	77.6367	81.4663	77.6367	81.4654	77.6367	81.3759	77.6367	81.3836	77.6367	81.2651	77.6367	81.2891	77.6367	81.1427	77.6367	81.1914	77.6367	81.019	77.6367	81.0997	77.6367	80.9045	77.6367	81.0221	77.6367	80.8085	77.6367	80.9646	77.6367	80.7384	77.6367	80.9299	77.6367	80.6983	77.6367	80.9174	77.6367	80.6886	77.6367	80.9235	77.6367	80.7064	77.6367	80.9421	77.6367	80.7454	77.6367	80.966	77.6367	80.7979	77.6367	80.988	77.6367	80.8554	77.6367	81.0016	77.6367	80.91	77.6367	81.002	77.6367	80.9553	77.6367	80.9867
79.1016	81.8476	79.1016	81.8475	79.1016	81.8139	79.1016	81.8151	79.1016	81.748	79.1016	81.7544	79.1016	81.6544	79.1016	81.6722	79.1016	81.5403	79.1016	81.5771	79.1016	81.4148	79.1016	81.4786	79.1016	81.2885	79.1016	81.3864	79.1016	81.1722	79.1016	81.3087	79.1016	81.0755	79.1016	81.2517	79.1016	81.006	79.1016	81.2182	79.1016	80.9676	79.1016	81.2074	79.1016	80.9608	79.1016	81.2154	79.1016	80.9821	79.1016	81.236	79.1016	81.0252	79.1016	81.2616	79.1016	81.0819	79.1016	81.2849	79.1016	81.1434	79.1016	81.299	79.1016	81.2015	79.1016	81.2993	79.1016	81.2495	79.1016	81.2829
82.0312	82.3816	82.0312	82.3825	82.0312	82.3454	82.0312	82.3496	82.0312	82.2757	82.0312	82.2872	82.0312	82.1773	82.0312	82.2022	82.0312	82.0578	82.0312	82.1037	82.0312	81.9267	82.0312	82.0018	82.0312	81.7953	82.0312	81.9067	82.0312	81.6747	82.0312	81.8272	82.0312	81.5751	82.0312	81.7696	82.0312	81.5042	82.0312	81.7368	82.0312	81.4663	82.0312	81.7277	82.0312	81.4615	82.0312	81.7381	82.0312	81.4861	82.0312	81.7613	82.0312	81.5335	82.0312	81.7892	82.0312	81.5948	82.0312	81.814	82.0312	81.661	82.0312	81.8289	82.0312	81.7233	82.0312	81.8288	82.0312	81.7749	82.0312	81.8108
84.9609	82.9537	84.9609	82.9501	84.9609	82.9206	84.9609	82.9113	84.9609	82.8524	84.9609	82.842	84.9609	82.7542	84.9609	82.7499	84.9609	82.6338	84.9609	82.6447	84.9609	82.5013	84.9609	82.5373	84.9609	82.3683	84.9609	82.4388	84.9609	82.2468	84.9609	82.3586	84.9609	82.1473	84.9609	82.3032	84.9609	82.0778	84.9609	82.2755	84.9609	82.0427	84.9609	82.2739	84.9609	82.042	84.9609	82.2935	84.9609	82.0715	84.9609	82.3265	84.9609	82.1238	84.9609	82.3641	84.9609	82.1898	84.9609	82.3977	84.9609	82.2595	84.9609	82.4198	84.9609	82.3241	84.9609	82.4251	84.9609	82.3761	84.9609	82.4106
87.8906	83.4732	87.8906	83.466	87.8906	83.4416	87.8906	83.4219	87.8906	83.3731	87.8906	83.346	87.8906	83.2727	87.8906	83.2464	87.8906	83.1486	87.8906	83.1336	87.8906	83.0117	87.8906	83.0195	87.8906	82.8742	87.8906	82.9159	87.8906	82.7486	87.8906	82.833	87.8906	82.6462	87.8906	82.7778	87.8906	82.5758	87.8906	82.7531	87.8906	82.5418	87.8906	82.7572	87.8906	82.5443	87.8906	82.7845	87.8906	82.5788	87.8906	82.8264	87.8906	82.6372	87.8906	82.8731	87.8906	82.7094	87.8906	82.9152	87.8906	82.7849	87.8906	82.9443	87.8906	82.8539	87.8906	82.9546	87.8906	82.9083	87.8906	82.9427
90.8203	83.8689	90.8203	83.8538	90.8203	83.8438	90.8203	83.8003	90.8203	83.7799	90.8203	83.714	90.8203	83.6825	90.8203	83.6037	90.8203	83.56	90.8203	83.4806	90.8203	83.4234	90.8203	83.3574	90.8203	83.2852	90.8203	83.2465	90.8203	83.1583	90.8203	83.159	90.8203	83.0545	90.8203	83.1022	90.8203	82.9827	90.8203	83.0792	90.8203	82.9475	90.8203	83.088	90.8203	82.9491	90.8203	83.1224	90.8203	82.983	90.8203	83.1732	90.8203	83.0409	90.8203	83.2298	90.8203	83.1124	90.8203	83.2818	90.8203	83.1866	90.8203	83.3203	90.8203	83.2533	90.8203	83.3387	90.8203	83.3042	90.8203	83.3335
95.2148	84.4557	95.2148	84.4342	95.2148	84.4344	95.2148	84.3721	95.2148	84.3719	95.2148	84.2756	95.2148	84.2734	95.2148	84.154	95.2148	84.1477	95.2148	84.0196	95.2148	84.0063	95.2148	83.8859	95.2148	83.8625	95.2148	83.7663	95.2148	83.7299	95.2148	83.6725	95.2148	83.6209	95.2148	83.6124	95.2148	83.5449	95.2148	83.5891	95.2148	83.5069	95.2148	83.6003	95.2148	83.5069	95.2148	83.6393	95.2148	83.5403	95.2148	83.6962	95.2148	83.5983	95.2148	83.7595	95.2148	83.6701	95.2148	83.8183	95.2148	83.7443	95.2148	83.8632	95.2148	83.8103	95.2148	83.887	95.2148	83.8595	95.2148	83.886
98.1445	84.7772	98.1445	84.7518	98.1445	84.7581	98.1445	84.6844	98.1445	84.6961	98.1445	84.5815	98.1445	84.5967	98.1445	84.4529	98.1445	84.4688	98.1445	84.3114	98.1445	84.3245	98.1445	84.1713	98.1445	84.1774	98.1445	84.0467	98.1445	84.0419	98.1445	83.9497	98.1445	83.9307	98.1445	83.8886	98.1445	83.8535	98.1445	83.8664	98.1445	83.8155	98.1445	83.8807	98.1445	83.8165	98.1445	83.9243	98.1445	83.8515	98.1445	83.9867	98.1445	83.9115	98.1445	84.056	98.1445	83.9851	98.1445	84.1205	98.1445	84.0607	98.1445	84.1704	98.1445	84.1271	98.1445	84.1984	98.1445	84.1757	98.1445	84.2004
101.074	85.005	101.074	84.9756	101.074	84.9878	101.074	84.9023	101.074	84.9257	101.074	84.7919	101.074	84.8243	101.074	84.6548	101.074	84.6931	101.074	84.5045	101.074	84.5444	101.074	84.3561	101.074	84.3928	101.074	84.2243	101.074	84.253	101.074	84.1222	101.074	84.1384	101.074	84.0584	101.074	84.0591	101.074	84.0361	101.074	84.0204	101.074	84.0528	101.074	84.022	101.074	84.1008	101.074	84.0585	101.074	84.1691	101.074	84.1206	101.074	84.2449	101.074	84.1962	101.074	84.3159	101.074	84.2731	101.074	84.3718	101.074	84.3401	101.074	84.4047	101.074	84.3879	101.074	84.4103
105.469	85.3488	105.469	85.3172	105.469	85.331	105.469	85.2388	105.469	85.2653	105.469	85.1211	105.469	85.1579	105.469	84.975	105.469	85.0186	105.469	84.8148	105.469	84.861	105.469	84.6565	105.469	84.7002	105.469	84.5159	105.469	84.5522	105.469	84.4067	105.469	84.4314	105.469	84.3382	105.469	84.3483	105.469	84.3139	105.469	84.3085	105.469	84.3313	105.469	84.3117	105.469	84.3823	105.469	84.3519	105.469	84.4553	105.469	84.4186	105.469	84.5369	105.469	84.4992	105.469	84.614	105.469	84.5804	105.469	84.6753	105.469	84.6503	105.469	84.7126	105.469	84.6993	105.469	84.721
108.398	85.5718	108.398	85.541	108.398	85.5516	108.398	85.462	108.398	85.4819	108.398	85.3425	108.398	85.3691	108.398	85.194	108.398	85.2238	108.398	85.0313	108.398	85.0597	108.398	84.871	108.398	84.893	108.398	84.7296	108.398	84.7402	108.398	84.6209	108.398	84.6164	108.398	84.5544	108.398	84.5326	108.398	84.5334	108.398	84.4946	108.398	84.5549	108.398	84.5017	108.398	84.6103	108.398	84.5476	108.398	84.6874	108.398	84.6213	108.398	84.7722	108.398	84.7094	108.398	84.8514	108.398	84.7981	108.398	84.9134	108.398	84.8748	108.398	84.9497	108.398	84.9295	108.398	84.9554
112.793	85.6535	112.793	85.6178	112.793	85.6355	112.793	85.5315	112.793	85.5653	112.793	85.4029	112.793	85.4498	112.793	85.2443	112.793	85.2998	112.793	85.0717	112.793	85.1301	112.793	84.9027	112.793	84.9576	112.793	84.755	112.793	84.7999	112.793	84.6434	112.793	84.6726	112.793	84.5776	112.793	84.5873	112.793	84.5609	112.793	84.55	112.793	84.5896	112.793	84.5598	112.793	84.6543	112.793	84.6099	112.793	84.7413	112.793	84.6889	112.793	84.8359	112.793	84.7825	112.793	84.9236	112.793	84.8762	112.793	84.9922	112.793	84.957	112.793	85.0329	112.793	85.0141	112.793	85.0405
117.188	85.8279	117.188	85.7902	117.188	85.8089	117.188	85.6992	117.188	85.7351	117.188	85.5637	117.188	85.6134	117.188	85.3967	117.188	85.4557	117.188	85.2152	117.188	85.2775	117.188	85.038	117.188	85.097	117.188	84.8837	117.188	84.9329	117.188	84.7679	117.188	84.8019	117.188	84.7013	117.188	84.7163	117.188	84.687	117.188	84.6821	117.188	84.7214	117.188	84.6982	117.188	84.794	117.188	84.7569	117.188	84.8906	117.188	84.8456	117.188	84.9952	117.188	84.9487	117.188	85.0922	117.188	85.0509	117.188	85.1687	117.188	85.1378	117.188	85.2148	117.188	85.1984	117.188	85.2251
120.117	85.9445	120.117	85.9057	120.117	85.9249	120.117	85.8122	120.117	85.8489	120.117	85.6729	120.117	85.7236	120.117	85.5014	120.117	85.5612	120.117	85.3152	120.117	85.3777	120.117	85.1337	120.117	85.1919	120.117	84.9759	120.117	85.023	120.117	84.8581	120.117	84.8882	120.117	84.7909	120.117	84.8004	120.117	84.7777	120.117	84.7656	120.117	84.8142	120.117	84.7829	120.117	84.89	120.117	84.8442	120.117	84.9901	120.117	84.9365	120.117	85.098	120.117	85.0439	120.117	85.1979	120.117	85.1503	120.117	85.2763	120.117	85.241	120.117	85.3233	120.117	85.3046	120.117	85.3331
124.512	86.0135	124.512	85.973	124.512	85.9928	124.512	85.8749	124.512	85.9129	124.512	85.7288	124.512	85.7815	124.512	85.549	124.512	85.6114	124.512	85.3538	124.512	85.4197	124.512	85.1639	124.512	85.2262	124.512	84.9996	124.512	85.0513	124.512	84.8782	124.512	84.9131	124.512	84.8107	124.512	84.8251	124.512	84.8008	124.512	84.7936	124.512	84.8439	124.512	84.8171	124.512	84.9284	124.512	84.8868	124.512	85.0385	124.512	84.9886	124.512	85.1564	124.512	85.1055	124.512	85.2654	124.512	85.2204	124.512	85.3511	124.512	85.3177	124.512	85.4029	124.512	85.3851	124.512	85.4147
128.906	86.1452	128.906	86.1021	128.906	86.1236	128.906	85.9982	128.906	86.0396	128.906	85.8434	128.906	85.9011	128.906	85.6529	128.906	85.7216	128.906	85.4459	128.906	85.5192	128.906	85.2443	128.906	85.3148	128.906	85.0695	128.906	85.1297	128.906	84.9399	128.906	84.9833	128.906	84.8676	128.906	84.8898	128.906	84.8565	128.906	84.8559	128.906	84.9017	128.906	84.88	128.906	84.9911	128.906	84.9529	128.906	85.1079	128.906	85.0598	128.906	85.2331	128.906	85.1826	128.906	85.3488	128.906	85.3034	128.906	85.4398	128.906	85.4057	128.906	85.4948	128.906	85.4766	128.906	85.5075
133.301	86.1435	133.301	86.0992	133.301	86.1201	133.301	85.9912	133.301	86.031	133.301	85.8297	133.301	85.8848	133.301	85.6305	133.301	85.6954	133.301	85.4136	133.301	85.4816	133.301	85.2017	133.301	85.2653	133.301	85.0173	133.301	85.0689	133.301	84.8794	133.301	84.9127	133.301	84.8008	133.301	84.8117	133.301	84.7855	133.301	84.7731	133.301	84.8288	133.301	84.7954	133.301	84.9183	133.301	84.8692	133.301	85.0366	133.301	84.9788	133.301	85.1641	133.301	85.1057	133.301	85.2823	133.301	85.2309	133.301	85.3752	133.301	85.3371	133.301	85.4313	133.301	85.4111	133.301	85.4437
139.16	86.1613	139.16	86.1176	139.16	86.1336	139.16	86.0066	139.16	86.0369	139.16	85.8392	139.16	85.8801	139.16	85.6318	139.16	85.6783	139.16	85.4057	139.16	85.4515	139.16	85.1846	139.16	85.2227	139.16	84.9922	139.16	85.0157	139.16	84.8485	139.16	84.8519	139.16	84.7667	139.16	84.7467	139.16	84.7512	139.16	84.7075	139.16	84.7968	139.16	84.7325	139.16	84.8904	139.16	84.8114	139.16	85.0136	139.16	84.9279	139.16	85.1459	139.16	85.0627	139.16	85.2677	139.16	85.196	139.16	85.3624	139.16	85.3099	139.16	85.418	139.16	85.3903	139.16	85.4278
143.555	86.1763	143.555	86.1302	143.555	86.1483	143.555	86.0145	143.555	86.0486	143.555	85.8406	143.555	85.8867	143.555	85.6258	143.555	85.6784	143.555	85.3927	143.555	85.445	143.555	85.1662	143.555	85.2108	143.555	84.9709	143.555	85.001	143.555	84.8275	143.555	84.8379	143.555	84.7493	143.555	84.7375	143.555	84.7403	143.555	84.7069	143.555	84.7946	143.555	84.7433	143.555	84.8983	143.555	84.835	143.555	85.0322	143.555	84.964	143.555	85.175	143.555	85.1096	143.555	85.3067	143.555	85.2509	143.555	85.4101	143.555	85.3696	143.555	85.4727	143.555	85.4514	143.555	85.487
147.949	86.2056	147.949	86.157	147.949	86.1755	147.949	86.0344	147.949	86.069	147.949	85.8502	147.949	85.8961	147.949	85.6229	147.949	85.6734	147.949	85.3764	147.949	85.4232	147.949	85.1374	147.949	85.1715	147.949	84.9326	147.949	84.9456	147.949	84.784	147.949	84.7698	147.949	84.7063	147.949	84.6621	147.949	84.7033	147.949	84.6309	147.949	84.7686	147.949	84.6739	147.949	84.8868	147.949	84.7787	147.949	85.0366	147.949	84.9256	147.949	85.1948	147.949	85.0916	147.949	85.3392	147.949	85.2532	147.949	85.4513	147.949	85.3898	147.949	85.5173	147.949	85.4853	147.949	85.5293
153.809	86.1981	153.809	86.1432	153.809	86.1704	153.809	86.011	153.809	86.0629	153.809	85.8142	153.809	85.8857	153.809	85.5722	153.809	85.6559	153.809	85.3102	153.809	85.3966	153.809	85.056	153.809	85.1346	153.809	84.8372	153.809	84.8974	153.809	84.677	153.809	84.7099	153.809	84.5905	153.809	84.5904	153.809	84.582	153.809	84.5479	153.809	84.6448	153.809	84.5806	153.809	84.7632	153.809	84.677	153.809	84.9154	153.809	84.8182	153.809	85.0772	153.809	84.9811	153.809	85.2256	153.809	85.1422	153.809	85.3411	153.809	85.2798	153.809	85.4091	153.809	85.3768	153.809	85.4216
159.668	86.0483	159.668	85.9909	159.668	86.0199	159.668	85.8536	159.668	85.9085	159.668	85.6502	159.668	85.7249	159.668	85.4017	159.668	85.4875	159.668	85.1349	159.668	85.2209	159.668	84.8792	159.668	84.9535	159.668	84.6634	159.668	84.7144	159.668	84.5107	159.668	84.5291	159.668	84.4349	159.668	84.4155	159.668	84.4387	159.668	84.3812	159.668	84.5133	159.668	84.4228	159.668	84.641	159.668	84.5272	159.668	84.7992	159.668	84.6747	159.668	84.9634	159.668	84.8422	159.668	85.1113	159.668	85.0066	159.668	85.224	159.668	85.1473	159.668	85.2881	159.668	85.2476	159.668	85.2964
165.527	85.885	165.527	85.8175	165.527	85.8549	165.527	85.6585	165.527	85.7306	165.527	85.4236	165.527	85.5249	165.527	85.1371	165.527	85.2593	165.527	84.8302	165.527	84.9623	165.527	84.5383	165.527	84.6674	165.527	84.296	165.527	84.4086	165.527	84.1313	165.527	84.2153	165.527	84.0603	165.527	84.1072	165.527	84.0844	165.527	84.091	165.527	84.1904	165.527	84.1596	165.527	84.3552	165.527	84.2947	165.527	84.5503	165.527	84.4716	165.527	84.7474	165.527	84.6636	165.527	84.9219	165.527	84.8457	165.527	85.0545	165.527	84.9969	165.527	85.132	165.527	85.1011	165.527	85.1478
171.387	85.772	171.387	85.7024	171.387	85.7357	171.387	85.5331	171.387	85.5969	171.387	85.2797	171.387	85.3688	171.387	84.9671	171.387	85.0737	171.387	84.6274	171.387	84.7419	171.387	84.2975	171.387	84.4091	171.387	84.015	171.387	84.1128	171.387	83.8125	171.387	83.8871	171.387	83.7117	171.387	83.757	171.387	83.7199	171.387	83.7335	171.387	83.8278	171.387	83.8119	171.387	84.0126	171.387	83.9732	171.387	84.2426	171.387	84.1886	171.387	84.4837	171.387	84.4248	171.387	84.7035	171.387	84.6495	171.387	84.8758	171.387	84.8349	171.387	84.9817	171.387	84.9597	171.387	85.0105
177.246	85.7603	177.246	85.6954	177.246	85.7154	177.246	85.5269	177.246	85.5643	177.246	85.2713	177.246	85.321	177.246	84.9541	177.246	85.0088	177.246	84.6084	177.246	84.6597	177.246	84.2718	177.246	84.3109	177.246	83.9823	177.246	84.0014	177.246	83.7721	177.246	83.766	177.246	83.6626	177.246	83.6292	177.246	83.6603	177.246	83.6014	177.246	83.7563	177.246	83.6767	177.246	83.9286	177.246	83.8356	177.246	84.1467	177.246	84.0494	177.246	84.3773	177.246	84.2851	177.246	84.5889	177.246	84.5106	177.246	84.7549	177.246	84.6981	177.246	84.8559	177.246	84.8261	177.246	84.8806
183.105	85.8574	183.105	85.7891	183.105	85.8118	183.105	85.614	183.105	85.6557	183.105	85.3495	183.105	85.403	183.105	85.0223	183.105	85.0774	183.105	84.6671	183.105	84.7114	183.105	84.3229	183.105	84.3435	183.105	84.0285	183.105	84.0141	183.105	83.8166	183.105	83.7601	183.105	83.7077	183.105	83.6084	183.105	83.7072	183.105	83.5709	183.105	83.8046	183.105	83.6429	183.105	83.977	183.105	83.8043	183.105	84.1936	183.105	84.025	183.105	84.4215	183.105	84.2702	183.105	84.6292	183.105	84.5062	183.105	84.7905	183.105	84.704	183.105	84.8858	183.105	84.8412	183.105	84.9037
188.965	85.7959	188.965	85.7252	188.965	85.7467	188.965	85.5413	188.965	85.5816	188.965	85.2621	188.965	85.3155	188.965	84.9156	188.965	84.9739	188.965	84.5384	188.965	84.591	188.965	84.1725	188.965	84.2077	188.965	83.8603	188.965	83.8666	188.965	83.6379	188.965	83.6059	188.965	83.5284	188.965	83.4533	188.965	83.5372	188.965	83.4205	188.965	83.6521	188.965	83.5015	188.965	83.8462	188.965	83.6749	188.965	84.085	188.965	83.9092	188.965	84.3321	188.965	84.1683	188.965	84.5542	188.965	84.4174	188.965	84.7244	188.965	84.6263	188.965	84.8232	188.965	84.7721	188.965	84.8399
196.289	85.9075	196.289	85.8326	196.289	85.8565	196.289	85.6393	196.289	85.6833	196.289	85.3461	196.289	85.4025	196.289	84.9818	196.289	85.0393	196.289	84.5835	196.289	84.6283	196.289	84.1936	196.289	84.2108	196.289	83.8548	196.289	83.8308	196.289	83.6034	196.289	83.5293	196.289	83.4638	196.289	83.3377	196.289	83.4434	196.289	83.272	196.289	83.5328	196.289	83.3298	196.289	83.7079	196.289	83.4915	196.289	83.9353	196.289	83.7244	196.289	84.1782	196.289	83.9897	196.289	84.4013	196.289	84.2488	196.289	84.5747	196.289	84.4679	196.289	84.6763	196.289	84.6214	196.289	84.693
203.613	85.928	203.613	85.8454	203.613	85.8766	203.613	85.6364	203.613	85.6957	203.613	85.3205	203.613	85.4018	203.613	84.9285	203.613	85.0228	203.613	84.5011	203.613	84.5966	203.613	84.085	203.613	84.168	203.613	83.7279	203.613	83.7842	203.613	83.4702	203.613	83.4881	203.613	83.3379	203.613	83.3103	203.613	83.3373	203.613	83.2644	203.613	83.4547	203.613	83.3441	203.613	83.6609	203.613	83.5261	203.613	83.918	203.613	83.7755	203.613	84.1865	203.613	84.0523	203.613	84.4303	203.613	84.3181	203.613	84.6197	203.613	84.5397	203.613	84.7333	203.613	84.6917	203.613	84.7584
210.938	86.0057	210.938	85.9283	210.938	85.9432	210.938	85.7186	210.938	85.7452	210.938	85.3968	210.938	85.4288	210.938	84.9946	210.938	85.0229	210.938	84.554	210.938	84.5667	210.938	84.1233	210.938	84.1073	210.938	83.7516	210.938	83.694	210.938	83.4814	210.938	83.3721	210.938	83.3404	210.938	83.1748	210.938	83.3364	210.938	83.1173	210.938	83.4557	210.938	83.1942	210.938	83.6676	210.938	83.3821	210.938	83.9317	210.938	83.6452	210.938	84.2055	210.938	83.9419	210.938	84.4502	210.938	84.2315	210.938	84.6346	210.938	84.4787	210.938	84.7367	210.938	84.6557	210.938	84.7444
218.262	86.0185	218.262	85.9347	218.262	85.9544	218.262	85.7117	218.262	85.7472	218.262	85.3711	218.262	85.4145	218.262	84.9467	218.262	84.987	218.262	84.4832	218.262	84.5067	218.262	84.0319	218.262	84.0241	218.262	83.645	218.262	83.593	218.262	83.3668	218.262	83.2624	218.262	83.226	218.262	83.0681	218.262	83.2296	218.262	83.0249	218.262	83.3624	218.262	83.1247	218.262	83.592	218.262	83.3397	218.262	83.8761	218.262	83.6291	218.262	84.1706	218.262	83.9479	218.262	84.4351	218.262	84.2532	218.262	84.6373	218.262	84.5089	218.262	84.7538	218.262	84.6875	218.262	84.7715
225.586	85.8741	225.586	85.7962	225.586	85.7956	225.586	85.57	225.586	85.5666	225.586	85.2174	225.586	85.2063	225.586	84.7734	225.586	84.7475	225.586	84.2849	225.586	84.2345	225.586	83.8066	225.586	83.7206	225.586	83.3954	225.586	83.2621	225.586	83.1006	225.586	82.9105	225.586	82.9547	225.586	82.7037	225.586	82.9662	225.586	82.6585	225.586	83.1188	225.586	82.7682	225.586	83.3759	225.586	83.0048	225.586	83.69	225.586	83.3256	225.586	84.0119	225.586	83.6821	225.586	84.2972	225.586	84.027	225.586	84.5107	225.586	84.3195	225.586	84.6275	225.586	84.5286	225.586	84.6342
232.91	85.8096	232.91	85.7373	232.91	85.7154	232.91	85.5073	232.91	85.4601	232.91	85.1431	232.91	85.0639	232.91	84.6814	232.91	84.5615	232.91	84.171	232.91	84.0009	232.91	83.6688	232.91	83.4403	232.91	83.2334	232.91	82.9419	232.91	82.9156	232.91	82.562	232.91	82.7492	232.91	82.3409	232.91	82.7437	232.91	82.2946	232.91	82.8835	232.91	82.4126	232.91	83.1322	232.91	82.6624	232.91	83.4417	232.91	82.9979	232.91	83.7611	232.91	83.3686	232.91	84.0444	232.91	83.7267	232.91	84.2547	232.91	84.0313	232.91	84.3666	232.91	84.2513	232.91	84.3661
241.699	85.7252	241.699	85.6563	241.699	85.6189	241.699	85.4221	241.699	85.3428	241.699	85.0474	241.699	84.9174	241.699	84.5716	241.699	84.3785	241.699	84.0463	241.699	83.7764	241.699	83.5318	241.699	83.1721	241.699	83.0892	241.699	82.6316	241.699	82.771	241.699	82.2152	241.699	82.6103	241.699	81.9668	241.699	82.6135	241.699	81.9042	241.699	82.7602	241.699	82.0167	241.699	83.0098	241.699	82.2699	241.699	83.3112	241.699	82.6157	241.699	83.6131	241.699	83.0015	241.699	83.8711	241.699	83.3786	241.699	84.0509	241.699	83.706	241.699	84.13	241.699	83.9524	241.699	84.0972
250.488	85.8309	250.488	85.7645	250.488	85.7149	250.488	85.5265	250.488	85.4221	250.488	85.1436	250.488	84.9741	250.488	84.6578	250.488	84.4091	250.488	84.1242	250.488	83.7805	250.488	83.6065	250.488	83.1542	250.488	83.1689	250.488	82.602	250.488	82.8653	250.488	82.191	250.488	82.7286	250.488	81.9696	250.488	82.7642	250.488	81.9562	250.488	82.9495	250.488	82.1351	250.488	83.2413	250.488	82.4629	250.488	83.5863	250.488	82.8813	250.488	83.9305	250.488	83.3296	250.488	84.2266	250.488	83.7542	250.488	84.4381	250.488	84.1126	250.488	84.5401	250.488	84.3741	250.488	84.5194
259.277	85.939	259.277	85.859	259.277	85.8202	259.277	85.5903	259.277	85.509	259.277	85.1599	259.277	85.0289	259.277	84.6115	259.277	84.4201	259.277	84.0043	259.277	83.7391	259.277	83.4091	259.277	83.0554	259.277	82.9006	259.277	82.4459	259.277	82.5443	259.277	81.9831	259.277	82.3827	259.277	81.7221	259.277	82.4243	259.277	81.6874	259.277	82.643	259.277	81.8679	259.277	82.9869	259.277	82.2201	259.277	83.3923	259.277	82.6812	259.277	83.7963	259.277	83.1824	259.277	84.1452	259.277	83.6602	259.277	84.3976	259.277	84.0634	259.277	84.5251	259.277	84.3549	259.277	84.512
268.066	85.8461	268.066	85.7487	268.066	85.7379	268.066	85.4569	268.066	85.4301	268.066	84.9995	268.066	84.9467	268.066	84.4224	268.066	84.3292	268.066	83.7874	268.066	83.6366	268.066	83.1682	268.066	82.9415	268.066	82.6416	268.066	82.3235	268.066	82.2755	268.066	81.8573	268.066	82.1138	268.066	81.5987	268.066	82.1669	268.066	81.5721	268.066	82.4093	268.066	81.7659	268.066	82.7886	268.066	82.1366	268.066	83.2381	268.066	82.6206	268.066	83.6901	268.066	83.1473	268.066	84.0853	268.066	83.6501	268.066	84.3766	268.066	84.0736	268.066	84.5318	268.066	84.3765	268.066	84.5329
276.855	85.4816	276.855	85.3447	276.855	85.3981	276.855	84.9999	276.855	85.0998	276.855	84.4775	276.855	84.6111	276.855	83.8263	276.855	83.9751	276.855	83.1127	276.855	83.2543	276.855	82.417	276.855	82.5275	276.855	81.8253	276.855	81.8821	276.855	81.4157	276.855	81.4009	276.855	81.2408	276.855	81.1441	276.855	81.3139	276.855	81.1338	276.855	81.605	276.855	81.3506	276.855	82.0505	276.855	81.7417	276.855	82.5715	276.855	82.2375	276.855	83.0907	276.855	82.7661	276.855	83.5431	276.855	83.263	276.855	83.8802	276.855	83.6751	276.855	84.0707	276.855	83.9624	276.855	84.0985
287.109	85.4915	287.109	85.3341	287.109	85.4108	287.109	84.9522	287.109	85.0964	287.109	84.3785	287.109	84.5713	287.109	83.665	287.109	83.8777	287.109	82.8829	287.109	83.0774	287.109	82.1184	287.109	82.2519	287.109	81.4638	287.109	81.4969	287.109	81.0022	287.109	80.9119	287.109	80.7888	287.109	80.5795	287.109	80.8375	287.109	80.5415	287.109	81.119	287.109	80.7838	287.109	81.571	287.109	81.2412	287.109	82.1146	287.109	81.8207	287.109	82.67	287.109	82.4279	287.109	83.1672	287.109	82.9834	287.109	83.5514	287.109	83.4281	287.109	83.7842	287.109	83.7224	287.109	83.8436
297.363	85.5109	297.363	85.3154	297.363	85.4576	297.363	84.8839	297.363	85.1625	297.363	84.2497	297.363	84.6525	297.363	83.4678	297.363	83.9746	297.363	82.6145	297.363	83.1944	297.363	81.7842	297.363	82.3925	297.363	81.0787	297.363	81.6567	297.363	80.5885	297.363	81.069	297.363	80.3686	297.363	80.6922	297.363	80.4232	297.363	80.5591	297.363	80.7082	297.363	80.6664	297.363	81.1499	297.363	80.976	297.363	81.6667	297.363	81.4225	297.363	82.1833	297.363	81.9271	297.363	82.6371	297.363	82.4132	297.363	82.9806	297.363	82.8179	297.363	83.1812	297.363	83.0961	297.363	83.2209
307.617	85.6385	307.617	85.4677	307.617	85.5378	307.617	85.0373	307.617	85.1737	307.617	84.3798	307.617	84.5747	307.617	83.5489	307.617	83.7913	307.617	82.6204	307.617	82.8968	307.617	81.6907	307.617	81.9861	307.617	80.8708	307.617	81.1683	307.617	80.273	307.617	80.5508	307.617	79.9862	307.617	80.2145	307.617	80.0457	307.617	80.191	307.617	80.4154	307.617	80.4539	307.617	80.9992	307.617	80.9316	307.617	81.678	307.617	81.5312	307.617	82.3439	307.617	82.1598	307.617	82.9161	307.617	82.7378	307.617	83.3419	307.617	83.2043	307.617	83.5911	307.617	83.5168	307.617	83.6496
319.336	85.6143	319.336	85.4025	319.336	85.5457	319.336	84.9242	319.336	85.2035	319.336	84.2145	319.336	84.615	319.336	83.3307	319.336	83.8294	319.336	82.3538	319.336	82.9179	319.336	81.3854	319.336	81.9724	319.336	80.5392	319.336	81.0987	319.336	79.9238	319.336	80.4038	319.336	79.6184	319.336	79.9771	319.336	79.6514	319.336	79.8706	319.336	79.9924	319.336	80.0835	319.336	80.5632	319.336	80.5591	319.336	81.2597	319.336	81.2	319.336	81.9754	319.336	81.8942	319.336	82.6183	319.336	82.54	319.336	83.1185	319.336	83.0587	319.336	83.429	319.336	83.3969	319.336	83.5241
329.59	85.4246	329.59	85.2146	329.59	85.3409	329.59	84.7265	329.59	84.9704	329.59	83.9987	329.59	84.3436	329.59	83.0925	329.59	83.516	329.59	82.0924	329.59	82.5698	329.59	81.1021	329.59	81.6116	329.59	80.2363	329.59	80.7613	329.59	79.605	329.59	80.1313	329.59	79.2903	329.59	79.7987	329.59	79.324	329.59	79.7864	329.59	79.6768	329.59	80.0637	329.59	80.2683	329.59	80.5622	329.59	80.993	329.59	81.1945	329.59	81.7438	329.59	81.8682	329.59	82.4267	329.59	82.4953	329.59	82.9673	329.59	83.0003	329.59	83.3133	329.59	83.3259	329.59	83.4352
341.309	85.3174	341.309	85.0799	341.309	85.2379	341.309	84.5406	341.309	84.8483	341.309	83.739	341.309	84.1774	341.309	82.7415	341.309	83.2769	341.309	81.6434	341.309	82.2234	341.309	80.5657	341.309	81.12	341.309	79.6422	341.309	80.0949	341.309	78.9951	341.309	79.2897	341.309	78.7052	341.309	78.8297	341.309	78.7887	341.309	78.7785	341.309	79.1928	341.309	79.1063	341.309	79.8128	341.309	79.7034	341.309	80.5253	341.309	80.4295	341.309	81.2213	341.309	81.1581	341.309	81.8227	341.309	81.7951	341.309	82.282	341.309	82.2792	341.309	82.5714	341.309	82.5762	341.309	82.6731
353.027	85.6918	353.027	85.4587	353.027	85.5808	353.027	84.8972	353.027	85.1339	353.027	84.048	353.027	84.3845	353.027	82.9791	353.027	83.394	353.027	81.7892	353.027	82.2543	353.027	80.607	353.027	81.0862	353.027	79.5811	353.027	80.0301	353.027	78.8555	353.027	79.2243	353.027	78.5327	353.027	78.7755	353.027	78.641	353.027	78.7322	353.027	79.1283	353.027	79.0713	353.027	79.8842	353.027	79.7062	353.027	80.7724	353.027	80.5137	353.027	81.6592	353.027	81.3659	353.027	82.4324	353.027	82.1531	353.027	83.0109	353.027	82.7925	353.027	83.3461	353.027	83.2264	353.027	83.4174
366.211	85.2716	366.211	85.0528	366.211	85.1374	366.211	84.4963	366.211	84.6579	366.211	83.6411	366.211	83.8657	366.211	82.5523	366.211	82.821	366.211	81.3242	366.211	81.6168	366.211	80.082	366.211	80.3813	366.211	78.9771	366.211	79.2724	366.211	78.1674	366.211	78.4537	366.211	77.7783	366.211	78.0502	366.211	77.8556	366.211	78.1025	366.211	78.3422	366.211	78.5536	366.211	79.1054	366.211	79.2786	366.211	79.9915	366.211	80.1322	366.211	80.868	366.211	80.9832	366.211	81.6376	366.211	81.7297	366.211	82.2343	366.211	82.3005	366.211	82.6159	366.211	82.6508	366.211	82.7579
379.395	84.8256	379.395	84.5795	379.395	84.7131	379.395	84.0021	379.395	84.2405	379.395	83.1455	379.395	83.4341	379.395	82.0848	379.395	82.3516	379.395	80.9163	379.395	81.0874	379.395	79.7537	379.395	79.7763	379.395	78.7223	379.395	78.5904	379.395	77.9473	379.395	77.7181	379.395	77.5328	379.395	77.3172	379.395	77.5348	379.395	77.4542	379.395	77.9394	379.395	78.0684	379.395	78.6604	379.395	78.9992	379.395	79.5655	379.395	80.0539	379.395	80.516	379.395	81.0641	379.395	81.395	379.395	81.9087	379.395	82.1166	379.395	82.5121	379.395	82.6214	379.395	82.836	379.395	82.8694
392.578	85.1436	392.578	84.6656	392.578	85.1867	392.578	83.7822	392.578	84.7963	392.578	82.5622	392.578	84.0005	392.578	81.1245	392.578	82.8542	392.578	79.6407	392.578	81.4432	392.578	78.3168	392.578	79.89	392.578	77.3466	392.578	78.3586	392.578	76.8599	392.578	77.0511	392.578	76.8955	392.578	76.1906	392.578	77.4052	392.578	75.9737	392.578	78.2755	392.578	76.477	392.578	79.3585	392.578	77.5727	392.578	80.5038	392.578	78.9818	392.578	81.5818	392.578	80.4207	392.578	82.4927	392.578	81.6883	392.578	83.1643	392.578	82.6705	392.578	83.5462	392.578	83.314	392.578	83.6035
405.762	85.2472	405.762	84.8635	405.762	85.1792	405.762	84.0332	405.762	84.6797	405.762	82.7931	405.762	83.7932	405.762	81.2247	405.762	82.5888	405.762	79.4755	405.762	81.1638	405.762	77.7785	405.762	79.6471	405.762	76.4373	405.762	78.2009	405.762	75.7291	405.762	77.0118	405.762	75.7631	405.762	76.2594	405.762	76.4391	405.762	76.0642	405.762	77.5399	405.762	76.4407	405.762	78.8377	405.762	77.2932	405.762	80.1435	405.762	78.4548	405.762	81.3168	405.762	79.7363	405.762	82.2588	405.762	80.9638	405.762	82.9042	405.762	81.9996	405.762	83.2121	405.762	82.7499	405.762	83.1613
420.41	85.2735	420.41	84.9426	420.41	85.122	420.41	84.1334	420.41	84.5085	420.41	82.8769	420.41	83.4799	420.41	81.2393	420.41	82.1145	420.41	79.3385	420.41	80.5284	420.41	77.3705	420.41	78.881	420.41	75.637	420.41	77.3722	420.41	74.5244	420.41	76.22	420.41	74.3455	420.41	75.6092	420.41	75.0996	420.41	75.6271	420.41	76.4711	420.41	76.2259	420.41	78.0815	420.41	77.2451	420.41	79.6529	420.41	78.4818	420.41	81.0162	420.41	79.7554	420.41	82.0746	420.41	80.9322	420.41	82.7761	420.41	81.9173	420.41	83.0995	420.41	82.6401	420.41	83.047
435.059	85.2016	435.059	84.8922	435.059	84.9703	435.059	84.0545	435.059	84.2123	435.059	82.7287	435.059	82.972	435.059	80.992	435.059	81.3343	435.059	78.9739	435.059	79.4397	435.059	76.8784	435.059	77.4974	435.059	75.0046	435.059	75.782	435.059	73.7341	435.059	74.5847	435.059	73.4256	435.059	74.1172	435.059	74.1862	435.059	74.4245	435.059	75.7451	435.059	75.3839	435.059	77.6544	435.059	76.779	435.059	79.5441	435.059	78.3759	435.059	81.1897	435.059	79.9679	435.059	82.4741	435.059	81.396	435.059	83.343	435.059	82.5499	435.059	83.7768	435.059	83.3585	435.059	83.7768
451.172	85.8923	451.172	85.5885	451.172	85.6403	451.172	84.744	451.172	84.8391	451.172	83.3968	451.172	83.52	451.172	81.6129	451.172	81.7464	451.172	79.4965	451.172	79.6285	451.172	77.2074	451.172	77.3448	451.172	74.9891	451.172	75.1654	451.172	73.2046	451.172	73.4485	451.172	72.3298	451.172	72.5631	451.172	72.7328	451.172	72.725	451.172	74.2754	451.172	73.8577	451.172	76.3999	451.172	75.638	451.172	78.5967	451.172	77.6803	451.172	80.5676	451.172	79.6721	451.172	82.1589	451.172	81.4052	451.172	83.2914	451.172	82.7537	451.172	83.9246	451.172	83.6458	451.172	84.0422
465.82	85.9399	465.82	85.5513	465.82	85.7215	465.82	84.5666	465.82	84.9045	465.82	83.0189	465.82	83.5197	465.82	80.9753	465.82	81.6297	465.82	78.56	465.82	79.3461	465.82	75.9848	465.82	76.8548	465.82	73.5654	465.82	74.4412	465.82	71.672	465.82	72.4891	465.82	70.6245	465.82	71.3935	465.82	70.6773	465.82	71.3845	465.82	71.9666	465.82	72.3888	465.82	74.1776	465.82	74.0785	465.82	76.6602	465.82	76.0752	465.82	78.922	465.82	78.0845	465.82	80.7298	465.82	79.8947	465.82	81.9942	465.82	81.3493	465.82	82.6844	465.82	82.3386	465.82	82.7952
483.398	86.1031	483.398	85.7168	483.398	85.8748	483.398	84.7295	483.398	85.0368	483.398	83.1769	483.398	83.6141	483.398	81.1247	483.398	81.6596	483.398	78.6873	483.398	79.2738	483.398	76.0602	483.398	76.6462	483.398	73.561	483.398	74.1077	483.398	71.6245	483.398	72.1316	483.398	70.6684	483.398	71.1599	483.398	70.8607	483.398	71.3269	483.398	72.0287	483.398	72.4238	483.398	73.8295	483.398	74.1125	483.398	75.9224	483.398	76.0678	483.398	78.0039	483.398	78.0133	483.398	79.8227	483.398	79.736	483.398	81.2015	483.398	81.086	483.398	82.038	483.398	81.9602	483.398	82.29
499.512	86.066	499.512	85.6491	499.512	85.8326	499.512	84.592	499.512	84.9549	499.512	82.9254	499.512	83.4571	499.512	80.7118	499.512	81.3895	499.512	78.0707	499.512	78.8478	499.512	75.2232	499.512	76.0153	499.512	72.5439	499.512	73.2223	499.512	70.5362	499.512	70.9582	499.512	69.6462	499.512	69.7113	499.512	70.0744	499.512	69.7374	499.512	71.6691	499.512	70.975	499.512	73.93	499.512	73.0579	499.512	76.3204	499.512	75.4713	499.512	78.4952	499.512	77.7858	499.512	80.2758	499.512	79.7443	499.512	81.5702	499.512	81.2198	499.512	82.3292	499.512	82.1554	499.512	82.5272
517.09	85.7822	517.09	85.3468	517.09	85.5512	517.09	84.2536	517.09	84.6589	517.09	82.5281	517.09	83.1269	517.09	80.2251	517.09	81.0038	517.09	77.4543	517.09	78.3869	517.09	74.4277	517.09	75.4659	517.09	71.5055	517.09	72.5857	517.09	69.1618	517.09	70.2687	517.09	67.9022	517.09	69.0659	517.09	68.2382	517.09	69.2564	517.09	70.153	517.09	70.6382	517.09	72.8302	517.09	72.6783	517.09	75.5357	517.09	74.9134	517.09	77.9288	517.09	77.0856	517.09	79.86	517.09	79.0324	517.09	81.2429	517.09	80.6065	517.09	82.021	517.09	81.68	517.09	82.1656
536.133	85.798	536.133	85.3136	536.133	85.5697	536.133	84.1287	536.133	84.6277	536.133	82.2678	536.133	82.9825	536.133	79.7753	536.133	80.6609	536.133	76.7398	536.133	77.7232	536.133	73.361	536.133	74.3169	536.133	70.075	536.133	70.7972	536.133	67.5971	536.133	67.8154	536.133	66.5565	536.133	66.0421	536.133	67.1065	536.133	65.887	536.133	68.9721	536.133	67.4899	536.133	71.5485	536.133	70.216	536.133	74.2298	536.133	73.1648	536.133	76.6466	536.133	75.8388	536.133	78.6193	536.133	78.0376	536.133	80.0564	536.133	79.6771	536.133	80.9027	536.133	80.7145	536.133	81.1258
555.176	85.5655	555.176	85.0948	555.176	85.3188	555.176	83.9034	555.176	84.3598	555.176	81.9893	555.176	82.6967	555.176	79.3563	555.176	80.3451	555.176	76.0369	555.176	77.3469	555.176	72.1754	555.176	73.8293	555.176	68.215	555.176	70.1511	555.176	64.9595	555.176	67.0341	555.176	63.2323	555.176	65.1994	555.176	64.1377	555.176	65.0161	555.176	67.3276	555.176	66.8162	555.176	70.908	555.176	69.9367	555.176	74.0913	555.176	73.1853	555.176	76.741	555.176	76.0046	555.176	78.8241	555.176	78.2575	555.176	80.3089	555.176	79.9166	555.176	81.1682	555.176	80.9658	555.176	81.3871
574.219	85.7585	574.219	85.2097	574.219	85.5197	574.219	83.879	574.219	84.4918	574.219	81.7817	574.219	82.6731	574.219	78.9524	574.219	80.056	574.219	75.4767	574.219	76.6293	574.219	71.6014	574.219	72.4322	574.219	67.9754	574.219	67.8298	574.219	65.4666	574.219	64.0464	574.219	63.9418	574.219	61.9058	574.219	62.9533	574.219	60.9054	574.219	64.3141	574.219	63.005	574.219	68.4524	574.219	67.5629	574.219	72.6392	574.219	71.8219	574.219	76.0011	574.219	75.2554	574.219	78.5239	574.219	77.9076	574.219	80.2656	574.219	79.8277	574.219	81.2566	574.219	81.0296	574.219	81.5087
594.727	85.5657	594.727	85.0169	594.727	85.306	594.727	83.6578	594.727	84.2399	594.727	81.4844	594.727	82.3723	594.727	78.4909	594.727	79.7163	594.727	74.6945	594.727	76.3169	594.727	70.28	594.727	72.3609	594.727	66.0932	594.727	68.5169	594.727	63.5487	594.727	66.0165	594.727	62.1976	594.727	64.9245	594.727	61.3023	594.727	64.1447	594.727	63.0617	594.727	63.991	594.727	67.399	594.727	66.4609	594.727	71.651	594.727	70.5215	594.727	75.1229	594.727	74.1919	594.727	77.7737	594.727	77.049	594.727	79.618	594.727	79.1075	594.727	80.6648	594.727	80.3979	594.727	80.9212
615.234	85.3561	615.234	84.8078	615.234	85.0589	615.234	83.4059	615.234	83.9141	615.234	81.1257	615.234	81.9061	615.234	77.9121	615.234	78.9925	615.234	73.6926	615.234	75.0872	615.234	68.6594	615.234	70.1385	615.234	64.7752	615.234	65.0883	615.234	64.2496	615.234	63.3697	615.234	64.1528	615.234	63.518	615.234	62.4624	615.234	62.5224	615.234	59.2578	615.234	60.8106	615.234	63.4898	615.234	63.3522	615.234	69.7728	615.234	68.6023	615.234	74.1002	615.234	72.9541	615.234	77.0926	615.234	76.2274	615.234	79.0945	615.234	78.5438	615.234	80.2281	615.234	79.9647	615.234	80.5202
637.207	85.0918	637.207	84.4713	637.207	84.8034	637.207	82.9461	637.207	83.5932	637.207	80.5102	637.207	81.4301	637.207	77.1355	637.207	78.2457	637.207	72.7754	637.207	73.9231	637.207	67.6851	637.207	68.5114	637.207	64.1454	637.207	64.0735	637.207	64.0234	637.207	63.8743	637.207	64.0887	637.207	64.4345	637.207	63.0871	637.207	63.8506	637.207	61.9168	637.207	61.92	637.207	64.1875	637.207	62.2733	637.207	69.1243	637.207	67.8416	637.207	73.4873	637.207	72.7023	637.207	76.7391	637.207	76.1588	637.207	78.946	637.207	78.5272	637.207	80.1915	637.207	79.9675	637.207	80.5238
659.18	85.8921	659.18	85.2448	659.18	85.5431	659.18	83.5808	659.18	84.1821	659.18	80.8245	659.18	81.7533	659.18	76.7902	659.18	78.1291	659.18	71.0974	659.18	73.0437	659.18	64.1323	659.18	66.4396	659.18	63.3265	659.18	63.4521	659.18	65.1963	659.18	65.3822	659.18	65.3176	659.18	65.9494	659.18	63.5081	659.18	64.6616	659.18	58.3577	659.18	61.1904	659.18	59.1204	659.18	59.1981	659.18	67.7726	659.18	66.0636	659.18	72.939	659.18	71.5367	659.18	76.3387	659.18	75.2891	659.18	78.5557	659.18	77.8457	659.18	79.7747	659.18	79.4132	659.18	80.0543
682.617	85.2797	682.617	84.5835	682.617	84.9484	682.617	82.8305	682.617	83.5839	682.617	79.9344	682.617	81.1328	682.617	75.6808	682.617	77.4372	682.617	69.6285	682.617	72.128	682.617	63.2063	682.617	65.4083	682.617	64.7049	682.617	64.8848	682.617	66.823	682.617	67.4947	682.617	67.2609	682.617	68.4445	682.617	66.2764	682.617	67.965	682.617	63.3844	682.617	65.8197	682.617	58.4142	682.617	60.7367	682.617	64.5331	682.617	61.6141	682.617	71.0923	682.617	69.5884	682.617	75.2817	682.617	74.4549	682.617	77.9758	682.617	77.5127	682.617	79.4864	682.617	79.2738	682.617	79.9142
707.52	84.9739	707.52	84.2233	707.52	84.6243	707.52	82.3343	707.52	83.1582	707.52	79.1753	707.52	80.4901	707.52	74.3913	707.52	76.3826	707.52	67.2651	707.52	70.2234	707.52	63.4127	707.52	62.8159	707.52	67.2722	707.52	65.5332	707.52	69.1617	707.52	68.3953	707.52	69.5144	707.52	69.2825	707.52	68.6229	707.52	68.7709	707.52	65.9214	707.52	66.7291	707.52	59.0876	707.52	62.44	707.52	62.6283	707.52	62.1399	707.52	70.6187	707.52	69.1653	707.52	75.0714	707.52	73.9437	707.52	77.7708	707.52	77.016	707.52	79.2179	707.52	78.8389	707.52	79.5625
732.422	84.6575	732.422	83.8127	732.422	84.3329	732.422	81.7585	732.422	82.8154	732.422	78.3495	732.422	79.9915	732.422	73.1726	732.422	75.5247	732.422	65.3769	732.422	68.4645	732.422	62.9888	732.422	62.1889	732.422	67.1711	732.422	67.1373	732.422	69.0723	732.422	69.6521	732.422	69.5924	732.422	70.4268	732.422	69.0776	732.422	70.1581	732.422	67.2914	732.422	68.8174	732.422	63.2383	732.422	65.5505	732.422	62.0603	732.422	60.2797	732.422	70.0891	732.422	67.7888	732.422	75.3292	732.422	74.0389	732.422	78.5193	732.422	77.7727	732.422	80.2359	732.422	79.8865	732.422	80.6794
757.324	84.2354	757.324	83.3504	757.324	83.822	757.324	81.0968	757.324	82.0698	757.324	77.1971	757.324	78.7861	757.324	70.6906	757.324	73.345	757.324	58.9104	757.324	63.2837	757.324	65.384	757.324	62.9414	757.324	69.132	757.324	68.4753	757.324	70.2625	757.324	70.2883	757.324	70.225	757.324	70.5768	757.324	69.3864	757.324	69.8985	757.324	67.3939	757.324	68.247	757.324	62.4936	757.324	65.0569	757.324	57.6993	757.324	60.6435	757.324	68.7434	757.324	66.4759	757.324	74.4519	757.324	72.818	757.324	77.854	757.324	76.861	757.324	79.702	757.324	79.2336	757.324	80.1587
785.156	85.1516	785.156	84.2041	785.156	84.67	785.156	81.7398	785.156	82.7151	785.156	77.4245	785.156	79.0379	785.156	70.0456	785.156	72.729	785.156	60.0123	785.156	60.222	785.156	67.6092	785.156	66.37	785.156	70.5733	785.156	70.3858	785.156	71.493	785.156	71.5858	785.156	71.4616	785.156	71.6987	785.156	70.753	785.156	71.2148	785.156	69.1266	785.156	69.9987	785.156	65.5583	785.156	67.2941	785.156	58.7297	785.156	61.3417	785.156	66.8516	785.156	63.7445	785.156	73.2815	785.156	71.3968	785.156	76.9068	785.156	75.7788	785.156	78.7871	785.156	78.2489	785.156	79.2181
811.523	85.1074	811.523	84.0797	811.523	84.6207	811.523	81.4211	811.523	82.5496	811.523	76.649	811.523	78.5548	811.523	67.8918	811.523	71.3958	811.523	63.1919	811.523	60.8583	811.523	69.7095	811.523	68.9931	811.523	71.8303	811.523	72.0608	811.523	72.4434	811.523	73.0189	811.523	72.3878	811.523	73.0221	811.523	71.8132	811.523	72.427	811.523	70.4839	811.523	71.2032	811.523	67.6367	811.523	68.7754	811.523	60.8837	811.523	63.3669	811.523	63.6553	811.523	62.2813	811.523	71.8176	811.523	70.7317	811.523	76.1403	811.523	75.4003	811.523	78.3777	811.523	77.9861	811.523	78.9593
840.82	84.9244	840.82	83.8571	840.82	84.3709	840.82	80.999	840.82	82.1269	840.82	75.6519	840.82	77.7568	840.82	64.6378	840.82	69.4234	840.82	66.6037	840.82	62.8446	840.82	71.8479	840.82	70.7059	840.82	73.5006	840.82	73.1979	840.82	73.8616	840.82	73.9594	840.82	73.6777	840.82	73.9596	840.82	73.1491	840.82	73.4595	840.82	71.9579	840.82	72.34	840.82	69.2122	840.82	70.1622	840.82	62.5277	840.82	65.8889	840.82	63.0841	840.82	61.2183	840.82	71.5997	840.82	69.0016	840.82	75.8783	840.82	74.3555	840.82	78.0078	840.82	77.2878	840.82	78.4538
870.117	84.3734	870.117	83.2206	870.117	83.7124	870.117	80.0629	870.117	81.1241	870.117	74.0195	870.117	75.9632	870.117	61.1665	870.117	65.0034	870.117	67.8362	870.117	66.413	870.117	72.0378	870.117	71.9943	870.117	73.5057	870.117	73.7534	870.117	74.0043	870.117	74.1777	870.117	74.0445	870.117	74.0716	870.117	73.749	870.117	73.7637	870.117	73.0122	870.117	73.1721	870.117	71.3462	870.117	71.7944	870.117	67.4801	870.117	68.5765	870.117	63.0221	870.117	62.8476	870.117	71.1587	870.117	69.3917	870.117	76.3339	870.117	75.3491	870.117	78.901	870.117	78.4453	870.117	79.5587
900.879	83.8006	900.879	82.4911	900.879	83.027	900.879	78.8114	900.879	79.9868	900.879	71.2821	900.879	73.5875	900.879	62.3989	900.879	59.554	900.879	70.7363	900.879	69.4971	900.879	73.2641	900.879	72.8746	900.879	73.8451	900.879	73.727	900.879	73.6763	900.879	73.7202	900.879	73.3744	900.879	73.5298	900.879	73.2117	900.879	73.3667	900.879	72.8868	900.879	73.0173	900.879	71.5357	900.879	71.8835	900.879	67.5194	900.879	68.8613	900.879	62.7446	900.879	63.0396	900.879	72.0244	900.879	69.4997	900.879	77.2869	900.879	75.8283	900.879	79.9076	900.879	79.233	900.879	80.5291
933.105	85.168	933.105	83.7761	933.105	84.3497	933.105	79.8676	933.105	81.1514	933.105	72.3133	933.105	74.7708	933.105	69.0053	933.105	68.7431	933.105	73.5647	933.105	73.0223	933.105	75.0118	933.105	74.863	933.105	75.0381	933.105	75.0472	933.105	74.6338	933.105	74.5969	933.105	74.2839	933.105	73.9875	933.105	73.9679	933.105	73.3905	933.105	73.3261	933.105	72.7399	933.105	71.856	933.105	71.5906	933.105	68.7544	933.105	69.0898	933.105	63.299	933.105	64.8111	933.105	68.2394	933.105	66.7315	933.105	74.6436	933.105	73.0359	933.105	77.9137	933.105	77.0549	933.105	78.6702
965.332	84.3627	965.332	83.0616	965.332	83.5963	965.332	79.4841	965.332	80.7385	965.332	73.3022	965.332	75.6122	965.332	70.2598	965.332	70.2291	965.332	73.3194	965.332	71.759	965.332	74.6503	965.332	73.7727	965.332	74.7343	965.332	74.4675	965.332	74.4459	965.332	74.5495	965.332	74.3283	965.332	74.5352	965.332	74.381	965.332	74.5021	965.332	74.1267	965.332	74.1283	965.332	72.9287	965.332	72.9614	965.332	70.0369	965.332	70.4683	965.332	66.4759	965.332	67.1845	965.332	70.1856	965.332	69.5015	965.332	74.6111	965.332	73.8434	965.332	77.116	965.332	76.6321	965.332	77.7748
1000.49	83.5908	1000.49	82.484	1000.49	83.0045	1000.49	79.4817	1000.49	80.633	1000.49	73.7526	1000.49	75.982	1000.49	65.943	1000.49	68.1512	1000.49	70.9203	1000.49	68.8841	1000.49	73.9633	1000.49	72.8917	1000.49	74.8891	1000.49	74.3143	1000.49	74.871	1000.49	74.5157	1000.49	74.5311	1000.49	74.2812	1000.49	74.288	1000.49	74.0693	1000.49	74.0251	1000.49	73.8274	1000.49	72.812	1000.49	72.8815	1000.49	69.0237	1000.49	70.0372	1000.49	64.7685	1000.49	64.5265	1000.49	71.7504	1000.49	69.2272	1000.49	75.7874	1000.49	74.3428	1000.49	77.5429	1000.49	76.8642	1000.49	77.8507
1035.64	84.1291	1035.64	82.8476	1035.64	83.3511	1035.64	79.1338	1035.64	80.3908	1035.64	71.2082	1035.64	74.2611	1035.64	64.1078	1035.64	61.1068	1035.64	72.2554	1035.64	69.9244	1035.64	74.5396	1035.64	73.5403	1035.64	74.8062	1035.64	74.4558	1035.64	74.2345	1035.64	74.3928	1035.64	73.7052	1035.64	74.0888	1035.64	73.6474	1035.64	73.7938	1035.64	73.6228	1035.64	73.5429	1035.64	72.7328	1035.64	72.9314	1035.64	69.4823	1035.64	70.5911	1035.64	62.8543	1035.64	63.5849	1035.64	70.8146	1035.64	67.6167	1035.64	75.9879	1035.64	74.5768	1035.64	78.352	1035.64	77.7773	1035.64	78.9119
1072.27	84.2479	1072.27	82.8181	1072.27	83.5645	1072.27	78.8196	1072.27	80.5369	1072.27	69.5885	1072.27	73.6868	1072.27	67.1682	1072.27	61.8764	1072.27	74.1905	1072.27	72.3622	1072.27	75.9688	1072.27	74.9767	1072.27	75.8951	1072.27	75.284	1072.27	75.0555	1072.27	74.7063	1072.27	74.1335	1072.27	73.8136	1072.27	73.4491	1072.27	73.0875	1072.27	73.0055	1072.27	72.8327	1072.27	72.3744	1072.27	72.5595	1072.27	69.9937	1072.27	71.139	1072.27	60.9463	1072.27	66.0024	1072.27	67.9206	1072.27	61.3137	1072.27	74.9384	1072.27	72.3154	1072.27	77.618	1072.27	76.4981	1072.27	78.0235
1108.89	85.7886	1108.89	84.3728	1108.89	84.7315	1108.89	79.8066	1108.89	81.0011	1108.89	67.7712	1108.89	72.6297	1108.89	71.6156	1108.89	63.5379	1108.89	76.3194	1108.89	73.6041	1108.89	77.0359	1108.89	75.8767	1108.89	76.3616	1108.89	76.035	1108.89	75.1519	1108.89	75.1777	1108.89	73.7918	1108.89	73.982	1108.89	72.8548	1108.89	72.937	1108.89	72.6895	1108.89	72.1062	1108.89	72.4044	1108.89	71.5311	1108.89	70.6531	1108.89	70.6654	1108.89	65.0343	1108.89	67.6655	1108.89	65.906	1108.89	62.4674	1108.89	74.4966	1108.89	71.1718	1108.89	78.209	1108.89	76.714	1108.89	78.8669
1148.44	85.8002	1148.44	84.2104	1148.44	84.7341	1148.44	79.2092	1148.44	80.6381	1148.44	64.8664	1148.44	69.7979	1148.44	73.1959	1148.44	70.2188	1148.44	77.588	1148.44	76.7431	1148.44	78.539	1148.44	78.1924	1148.44	78.1158	1148.44	77.9316	1148.44	77.0211	1148.44	76.926	1148.44	75.6338	1148.44	75.61	1148.44	74.3847	1148.44	74.3293	1148.44	73.8442	1148.44	73.4245	1148.44	73.5541	1148.44	72.4739	1148.44	71.6729	1148.44	70.291	1148.44	65.4092	1148.44	66.1691	1148.44	63.7321	1148.44	66.1113	1148.44	70.9227	1148.44	69.416	1148.44	73.5987	1148.44	71.8144	1148.44	73.6718
1189.45	85.8103	1189.45	84.111	1189.45	84.7577	1189.45	78.762	1189.45	80.4178	1189.45	64.5331	1189.45	68.4748	1189.45	75.1913	1189.45	73.7276	1189.45	78.6633	1189.45	78.3615	1189.45	79.1625	1189.45	79.3003	1189.45	78.4515	1189.45	78.8903	1189.45	77.2576	1189.45	77.9739	1189.45	76.0417	1189.45	76.9838	1189.45	75.1499	1189.45	76.0359	1189.45	74.6034	1189.45	75.0901	1189.45	73.9234	1189.45	74.2471	1189.45	71.8773	1189.45	72.6084	1189.45	65.6678	1189.45	67.0211	1189.45	67.0418	1189.45	67.6038	1189.45	74.2671	1189.45	74.9157	1189.45	77.3895	1189.45	77.615	1189.45	78.3024
1230.47	86.8239	1230.47	84.879	1230.47	85.9638	1230.47	79.1438	1230.47	81.9008	1230.47	65.1767	1230.47	71.9078	1230.47	75.9662	1230.47	74.8652	1230.47	79.1137	1230.47	79.2585	1230.47	79.5522	1230.47	79.9964	1230.47	78.9466	1230.47	79.2724	1230.47	77.9117	1230.47	77.9984	1230.47	76.7463	1230.47	76.6426	1230.47	75.7042	1230.47	75.7028	1230.47	74.9849	1230.47	75.4462	1230.47	74.2628	1230.47	74.9853	1230.47	72.0356	1230.47	72.8359	1230.47	64.579	1230.47	65.0873	1230.47	65.9003	1230.47	64.9065	1230.47	72.7006	1230.47	73.7636	1230.47	75.6523	1230.47	76.3922	1230.47	76.8912
1274.41	86.085	1274.41	84.2109	1274.41	85.2483	1274.41	78.5692	1274.41	81.2721	1274.41	63.7389	1274.41	70.4714	1274.41	75.6297	1274.41	73.4164	1274.41	78.7098	1274.41	78.5041	1274.41	78.8857	1274.41	79.4047	1274.41	77.8876	1274.41	78.7008	1274.41	76.5334	1274.41	77.379	1274.41	75.3916	1274.41	76.0897	1274.41	74.8949	1274.41	75.1244	1274.41	75.0174	1274.41	74.5757	1274.41	75.1944	1274.41	74.6724	1274.41	74.055	1274.41	74.227	1274.41	68.0542	1274.41	70.3523	1274.41	61.6953	1274.41	53.7826	1274.41	72.0747	1274.41	70.8501	1274.41	73.9699	1274.41	73.9956	1274.41	74.3124
1319.82	85.4923	1319.82	83.4408	1319.82	84.7536	1319.82	77.3451	1319.82	80.7337	1319.82	60.1646	1319.82	68.0452	1319.82	75.702	1319.82	73.4358	1319.82	78.6988	1319.82	78.4462	1319.82	79.002	1319.82	79.1408	1319.82	78.2295	1319.82	78.3533	1319.82	77.0616	1319.82	77.1709	1319.82	75.855	1319.82	75.9673	1319.82	74.8026	1319.82	74.8513	1319.82	74.1306	1319.82	74.3852	1319.82	74.2814	1319.82	74.7252	1319.82	74.1094	1319.82	74.7775	1319.82	70.2476	1319.82	72.4032	1319.82	49.2814	1319.82	59.771	1319.82	70.6209	1319.82	69.2456	1319.82	73.3077	1319.82	73.519	1319.82	73.7883
1366.7	86.554	1366.7	84.2809	1366.7	85.6026	1366.7	77.0423	1366.7	80.6967	1366.7	65.8882	1366.7	59.1693	1366.7	77.2482	1366.7	76.1492	1366.7	79.0117	1366.7	79.5115	1366.7	78.6311	1366.7	79.5616	1366.7	77.5682	1366.7	78.5146	1366.7	76.3785	1366.7	77.2072	1366.7	75.3277	1366.7	76.065	1366.7	74.5188	1366.7	75.3375	1366.7	74.183	1366.7	74.9105	1366.7	74.5409	1366.7	74.8135	1366.7	74.348	1366.7	74.7653	1366.7	71.218	1366.7	72.762	1366.7	59.0221	1366.7	62.2886	1366.7	72.8959	1366.7	69.8518	1366.7	77.3676	1366.7	76.5741	1366.7	78.2935
1413.57	86.3176	1413.57	84.192	1413.57	85.7659	1413.57	77.8929	1413.57	81.6794	1413.57	61.9106	1413.57	64.5675	1413.57	77.4671	1413.57	76.7541	1413.57	79.7045	1413.57	80.3833	1413.57	79.0936	1413.57	79.9756	1413.57	77.5045	1413.57	78.0986	1413.57	76.0386	1413.57	76.0627	1413.57	74.9604	1413.57	74.6168	1413.57	74.102	1413.57	73.8549	1413.57	73.6919	1413.57	73.7942	1413.57	73.5528	1413.57	74.4147	1413.57	72.8311	1413.57	74.894	1413.57	68.4511	1413.57	73.0383	1413.57	58.9118	1413.57	60.8733	1413.57	71.3867	1413.57	69.6225	1413.57	73.7364	1413.57	74.0668	1413.57	74.3027
1463.38	85.4418	1463.38	82.8502	1463.38	85.1737	1463.38	76.3249	1463.38	80.9503	1463.38	68.5402	1463.38	67.5823	1463.38	76.8617	1463.38	77.9429	1463.38	78.9006	1463.38	80.5653	1463.38	78.5333	1463.38	79.799	1463.38	77.3751	1463.38	77.6755	1463.38	76.1171	1463.38	75.3311	1463.38	74.9025	1463.38	73.6048	1463.38	73.9061	1463.38	72.7899	1463.38	73.2009	1463.38	72.475	1463.38	73.0186	1463.38	72.969	1463.38	73.1484	1463.38	74.2902	1463.38	70.3257	1463.38	73.9372	1463.38	61.8009	1463.38	67.5053	1463.38	68.4541	1463.38	67.625	1463.38	70.5402	1463.38	72.6453	1463.38	71.9802
1516.11	87.1559	1516.11	84.4493	1516.11	85.8816	1516.11	75.1868	1516.11	79.6135	1516.11	75.3832	1516.11	69.9975	1516.11	79.5378	1516.11	79.0109	1516.11	79.0915	1516.11	79.8098	1516.11	77.2375	1516.11	78.1005	1516.11	75.1898	1516.11	75.9909	1516.11	73.2851	1516.11	74.5246	1516.11	71.9857	1516.11	73.8223	1516.11	72.0005	1516.11	73.4058	1516.11	72.6627	1516.11	73.1121	1516.11	73.0302	1516.11	73.3277	1516.11	73.438	1516.11	73.9885	1516.11	72.209	1516.11	73.8796	1516.11	62.8756	1516.11	68.5036	1516.11	69.8522	1516.11	65.9226	1516.11	75.9288	1516.11	75.3499	1516.11	77.1441
1568.85	87.2435	1568.85	84.684	1568.85	85.262	1568.85	74.7027	1568.85	78.114	1568.85	77.535	1568.85	71.7595	1568.85	80.3999	1568.85	77.4497	1568.85	78.3553	1568.85	77.64	1568.85	74.028	1568.85	75.5574	1568.85	70.1476	1568.85	73.0708	1568.85	68.8486	1568.85	71.4461	1568.85	68.8347	1568.85	70.8626	1568.85	68.7473	1568.85	70.5774	1568.85	68.9166	1568.85	70.4741	1568.85	70.5707	1568.85	70.9802	1568.85	72.2364	1568.85	71.9381	1568.85	71.1902	1568.85	71.5472	1568.85	62.4488	1568.85	65.4031	1568.85	69.8963	1568.85	66.0679	1568.85	74.7906	1568.85	72.8409	1568.85	74.9673
1624.51	87.0342	1624.51	83.3732	1624.51	85.0625	1624.51	70.0565	1624.51	75.7467	1624.51	78.2236	1624.51	74.8845	1624.51	79.0595	1624.51	78.4579	1624.51	75.9561	1624.51	77.0333	1624.51	72.3838	1624.51	74.2274	1624.51	70.716	1624.51	72.0462	1624.51	70.1846	1624.51	70.7774	1624.51	69.9665	1624.51	70.0875	1624.51	69.2693	1624.51	69.8962	1624.51	67.7693	1624.51	69.5255	1624.51	66.4445	1624.51	68.4444	1624.51	68.5748	1624.51	68.1294	1624.51	70.729	1624.51	69.3282	1624.51	67.5691	1624.51	68.0741	1624.51	64.7854	1624.51	61.7352	1624.51	72.9298	1624.51	70.1068	1624.51	74.1735
1681.64	87.8522	1681.64	83.6783	1681.64	85.8815	1681.64	63.9229	1681.64	75.097	1681.64	78.3655	1681.64	76.2789	1681.64	79.0776	1681.64	79.2059	1681.64	76.6011	1681.64	76.9749	1681.64	73.8187	1681.64	73.8384	1681.64	71.6135	1681.64	71.7111	1681.64	70.5809	1681.64	70.8694	1681.64	70.1394	1681.64	71.025	1681.64	70.1169	1681.64	71.2261	1681.64	70.0783	1681.64	71.074	1681.64	69.517	1681.64	70.6357	1681.64	68.9829	1681.64	70.0232	1681.64	69.6071	1681.64	69.6021	1681.64	67.6163	1681.64	68.6041	1681.64	64.0584	1681.64	58.6258	1681.64	74.2873	1681.64	72.1978	1681.64	76.2626
1741.7	87.5222	1741.7	83.558	1741.7	85.0871	1741.7	61.5684	1741.7	72.0207	1741.7	78.3504	1741.7	76.5955	1741.7	79.7875	1741.7	79.2651	1741.7	78.2313	1741.7	78.0918	1741.7	75.7437	1741.7	76.0471	1741.7	72.8813	1741.7	73.6839	1741.7	70.3227	1741.7	71.4619	1741.7	69.1997	1741.7	70.1002	1741.7	70.0026	1741.7	69.6309	1741.7	70.5259	1741.7	70.1655	1741.7	70.2917	1741.7	70.3712	1741.7	69.8012	1741.7	69.5555	1741.7	69.3647	1741.7	69.1124	1741.7	67.5925	1741.7	68.1367	1741.7	56.478	1741.7	60.7714	1741.7	69.7059	1741.7	66.8397	1741.7	71.7827
1803.22	87.3166	1803.22	83.3374	1803.22	84.952	1803.22	60.7192	1803.22	72.1457	1803.22	78.8396	1803.22	76.2444	1803.22	80.295	1803.22	80.0599	1803.22	78.6798	1803.22	79.328	1803.22	75.8908	1803.22	76.8878	1803.22	72.8584	1803.22	73.6151	1803.22	71.0333	1803.22	70.8352	1803.22	70.7543	1803.22	69.8357	1803.22	70.9765	1803.22	69.8308	1803.22	70.6744	1803.22	69.3867	1803.22	71.5658	1803.22	69.6879	1803.22	71.851	1803.22	71.0594	1803.22	70.5858	1803.22	70.9251	1803.22	68.7077	1803.22	69.1274	1803.22	48.0252	1803.22	59.7742	1803.22	72.1971	1803.22	68.6626	1803.22	74.4637
1866.21	86.3409	1866.21	82.4511	1866.21	84.7894	1866.21	63.0404	1866.21	75.4218	1866.21	78.1274	1866.21	74.9048	1866.21	80.633	1866.21	80.5564	1866.21	79.3668	1866.21	80.078	1866.21	76.2668	1866.21	77.2012	1866.21	72.398	1866.21	73.2749	1866.21	69.3625	1866.21	69.5672	1866.21	69.2625	1866.21	68.8582	1866.21	69.8354	1866.21	69.736	1866.21	70.1362	1866.21	70.1471	1866.21	70.4918	1866.21	69.6011	1866.21	71.0735	1866.21	69.5654	1866.21	70.8434	1866.21	70.7989	1866.21	66.4488	1866.21	68.3526	1866.21	58.4368	1866.21	54.2551	1866.21	71.0633	1866.21	68.1695	1866.21	72.9565
1932.13	85.9054	1932.13	82.4147	1932.13	84.3786	1932.13	67.1595	1932.13	75.691	1932.13	77.8693	1932.13	76.1479	1932.13	80.2706	1932.13	80.4031	1932.13	78.9605	1932.13	79.5489	1932.13	76.5191	1932.13	76.9999	1932.13	73.3531	1932.13	73.7361	1932.13	69.6361	1932.13	70.1045	1932.13	67.4894	1932.13	67.8543	1932.13	67.3841	1932.13	68.1938	1932.13	68.4448	1932.13	69.6354	1932.13	68.6036	1932.13	70.5862	1932.13	68.6699	1932.13	70.3437	1932.13	68.6532	1932.13	69.8697	1932.13	64.4066	1932.13	67.6891	1932.13	58.5712	1932.13	35.5824	1932.13	69.5914	1932.13	67.8092	1932.13	70.8045
1999.51	86.2087	1999.51	83.348	1999.51	84.3346	1999.51	72.5852	1999.51	75.5676	1999.51	78.4622	1999.51	76.8471	1999.51	80.3747	1999.51	80.5046	1999.51	78.8149	1999.51	79.9277	1999.51	76.4276	1999.51	78.0969	1999.51	73.5573	1999.51	75.0692	1999.51	70.6391	1999.51	71.5079	1999.51	68.6494	1999.51	68.4669	1999.51	69.071	1999.51	68.1538	1999.51	70.7245	1999.51	69.3395	1999.51	70.3362	1999.51	69.7537	1999.51	68.9053	1999.51	69.857	1999.51	67.8949	1999.51	69.9716	1999.51	62.7397	1999.51	66.7661	1999.51	61.5271	1999.51	54.7586	1999.51	70.6357	1999.51	69.4793	1999.51	71.8749
2069.82	85.7555	2069.82	82.3911	2069.82	83.9931	2069.82	74.8166	2069.82	75.8999	2069.82	78.9858	2069.82	76.8832	2069.82	79.8165	2069.82	79.7783	2069.82	78.7372	2069.82	79.3759	2069.82	76.9286	2069.82	77.9393	2069.82	73.9451	2069.82	75.4015	2069.82	70.5796	2069.82	72.1042	2069.82	68.1924	2069.82	68.9875	2069.82	69.1294	2069.82	68.4471	2069.82	71.1244	2069.82	70.1018	2069.82	71.4063	2069.82	70.4111	2069.82	70.1196	2069.82	68.9011	2069.82	67.7091	2069.82	67.2135	2069.82	63.313	2069.82	65.3775	2069.82	59.1444	2069.82	58.8386	2069.82	68.1633	2069.82	66.4024	2069.82	69.6305
2143.07	86.2196	2143.07	82.1564	2143.07	84.4254	2143.07	73.8265	2143.07	76.7601	2143.07	78.8277	2143.07	77.8171	2143.07	79.948	2143.07	79.9567	2143.07	79.6564	2143.07	79.9181	2143.07	77.9418	2143.07	78.6695	2143.07	74.7697	2143.07	76.0424	2143.07	71.069	2143.07	73.1336	2143.07	67.2364	2143.07	69.9825	2143.07	67.6158	2143.07	68.4195	2143.07	69.9205	2143.07	69.5782	2143.07	70.9166	2143.07	71.093	2143.07	69.8047	2143.07	70.6489	2143.07	67.3098	2143.07	68.7457	2143.07	62.5029	2143.07	65.654	2143.07	59.5143	2143.07	59.6882	2143.07	68.8759	2143.07	65.6991	2143.07	70.66
2219.24	85.8592	2219.24	82.1684	2219.24	83.7898	2219.24	75.5352	2219.24	77.2387	2219.24	78.5041	2219.24	78.1847	2219.24	80.6885	2219.24	80.0111	2219.24	80.4269	2219.24	80.2266	2219.24	78.6582	2219.24	78.9176	2219.24	75.0434	2219.24	75.6884	2219.24	71.5296	2219.24	72.7733	2219.24	69.7202	2219.24	69.8546	2219.24	68.7281	2219.24	68.98	2219.24	69.897	2219.24	69.8832	2219.24	70.6741	2219.24	70.548	2219.24	71.3122	2219.24	70.276	2219.24	67.7587	2219.24	68.6779	2219.24	60.8714	2219.24	65.7702	2219.24	59.5418	2219.24	61.1607	2219.24	68.6041	2219.24	65.6159	2219.24	70.7946
2296.88	85.8444	2296.88	81.8733	2296.88	83.468	2296.88	77.2446	2296.88	76.2663	2296.88	79.2514	2296.88	78.2342	2296.88	80.2859	2296.88	80.1673	2296.88	79.569	2296.88	80.1923	2296.88	77.2466	2296.88	78.0863	2296.88	73.9555	2296.88	74.6541	2296.88	71.4984	2296.88	71.2286	2296.88	69.7301	2296.88	69.4602	2296.88	69.1596	2296.88	68.8349	2296.88	70.5006	2296.88	69.0847	2296.88	70.7217	2296.88	70.5829	2296.88	69.1757	2296.88	70.1045	2296.88	67.3602	2296.88	67.8269	2296.88	64.428	2296.88	65.5071	2296.88	59.0648	2296.88	60.815	2296.88	66.6973	2296.88	64.0168	2296.88	70.0807
2378.91	85.6796	2378.91	81.2374	2378.91	83.5023	2378.91	77.8063	2378.91	78.162	2378.91	80.1603	2378.91	79.587	2378.91	80.6415	2378.91	80.7382	2378.91	79.9533	2378.91	80.5349	2378.91	77.6362	2378.91	78.7914	2378.91	74.0463	2378.91	75.5493	2378.91	70.3606	2378.91	72.2646	2378.91	68.9614	2378.91	69.6641	2378.91	69.2833	2378.91	69.1013	2378.91	69.5315	2378.91	69.6639	2378.91	70.8	2378.91	70.5371	2378.91	68.9479	2378.91	70.0503	2378.91	64.7081	2378.91	65.9361	2378.91	61.8194	2378.91	63.4239	2378.91	60.7718	2378.91	60.6167	2378.91	66.238	2378.91	64.3068	2378.91	69.2665
2462.4	85.8998	2462.4	81.6638	2462.4	83.6525	2462.4	78.7159	2462.4	78.9337	2462.4	80.7195	2462.4	80.9235	2462.4	81.1019	2462.4	81.1931	2462.4	80.3265	2462.4	80.7191	2462.4	78.1961	2462.4	79.1021	2462.4	75.1766	2462.4	76.2797	2462.4	71.9533	2462.4	72.987	2462.4	69.3349	2462.4	70.5642	2462.4	68.7115	2462.4	69.6379	2462.4	69.7086	2462.4	70.096	2462.4	70.4786	2462.4	70.9005	2462.4	69.1832	2462.4	71.1599	2462.4	64.8828	2462.4	68.323	2462.4	64.1271	2462.4	63.998	2462.4	62.3269	2462.4	62.8615	2462.4	66.5368	2462.4	63.299	2462.4	69.9973
2548.83	85.3702	2548.83	81.378	2548.83	82.7746	2548.83	79.8932	2548.83	78.4719	2548.83	81.005	2548.83	80.7652	2548.83	80.2071	2548.83	80.5275	2548.83	79.8852	2548.83	80.0653	2548.83	78.3914	2548.83	79.0154	2548.83	75.5571	2548.83	76.5543	2548.83	72.9617	2548.83	73.5034	2548.83	71.5088	2548.83	70.9353	2548.83	70.9324	2548.83	69.9164	2548.83	70.8631	2548.83	70.5334	2548.83	70.4154	2548.83	69.9133	2548.83	70.0958	2548.83	69.2092	2548.83	66.2599	2548.83	65.9384	2548.83	64.0912	2548.83	62.9159	2548.83	62.5989	2548.83	63.4146	2548.83	66.6198	2548.83	64.9461	2548.83	70.1544
2639.65	85.3489	2639.65	81.3278	2639.65	83.3434	2639.65	79.8833	2639.65	79.26	2639.65	80.4472	2639.65	81.0068	2639.65	79.6071	2639.65	80.2379	2639.65	79.892	2639.65	80.2013	2639.65	78.6875	2639.65	79.423	2639.65	75.8987	2639.65	76.9313	2639.65	72.8867	2639.65	74.0857	2639.65	70.5776	2639.65	71.791	2639.65	70.6693	2639.65	70.9072	2639.65	71.8402	2639.65	71.9552	2639.65	70.9572	2639.65	71.8133	2639.65	68.2136	2639.65	69.2618	2639.65	62.0481	2639.65	66.3218	2639.65	65.3734	2639.65	64.0072	2639.65	62.9608	2639.65	66.6767	2639.65	66.6972	2639.65	64.3517	2639.65	69.9324
2731.93	85.5435	2731.93	82.2681	2731.93	83.8683	2731.93	80.8763	2731.93	80.8096	2731.93	81.7002	2731.93	81.8749	2731.93	80.6734	2731.93	80.9527	2731.93	80.6721	2731.93	80.8321	2731.93	79.7969	2731.93	80.3604	2731.93	76.9786	2731.93	77.8191	2731.93	74.1945	2731.93	74.7081	2731.93	71.646	2731.93	72.2854	2731.93	70.6929	2731.93	70.2215	2731.93	71.7542	2731.93	71.3307	2731.93	71.3936	2731.93	72.5959	2731.93	67.5261	2731.93	69.4921	2731.93	61.9512	2731.93	63.6697	2731.93	63.1382	2731.93	64.2174	2731.93	64.0322	2731.93	65.1016	2731.93	66.5846	2731.93	64.2225	2731.93	67.481
2828.61	85.5029	2828.61	82.4514	2828.61	83.9448	2828.61	81.6449	2828.61	80.952	2828.61	81.3179	2828.61	81.8302	2828.61	80.314	2828.61	80.8462	2828.61	80.6253	2828.61	80.7345	2828.61	79.8566	2828.61	80.1886	2828.61	77.8231	2828.61	78.2816	2828.61	74.7907	2828.61	75.5834	2828.61	72.7506	2828.61	73.0256	2828.61	71.3994	2828.61	71.6914	2828.61	71.7885	2828.61	71.0258	2828.61	72.2731	2828.61	72.4201	2828.61	67.4381	2828.61	69.8708	2828.61	62.8592	2828.61	62.975	2828.61	65.8349	2828.61	64.7381	2828.61	64.3759	2828.61	66.9568	2828.61	66.1094	2828.61	66.2622	2828.61	67.3348
2928.22	85.28	2928.22	82.3393	2928.22	83.9045	2928.22	81.334	2928.22	80.8027	2928.22	80.7892	2928.22	81.5518	2928.22	80.1084	2928.22	80.8755	2928.22	80.6511	2928.22	80.4198	2928.22	80.129	2928.22	80.3254	2928.22	78.1938	2928.22	79.0877	2928.22	75.625	2928.22	76.828	2928.22	72.8304	2928.22	73.6507	2928.22	72.1192	2928.22	71.9137	2928.22	71.864	2928.22	72.4007	2928.22	72.1709	2928.22	71.707	2928.22	67.8184	2928.22	70.0246	2928.22	60.3594	2928.22	60.8848	2928.22	65.8655	2928.22	66.6766	2928.22	63.9522	2928.22	64.028	2928.22	67.577	2928.22	65.7535	2928.22	66.4616
3030.76	85.9947	3030.76	83.159	3030.76	84.5596	3030.76	81.6717	3030.76	81.4533	3030.76	81.5474	3030.76	82.3628	3030.76	81.076	3030.76	82.0303	3030.76	81.5164	3030.76	81.1336	3030.76	81.3798	3030.76	81.5084	3030.76	79.5013	3030.76	80.2698	3030.76	77.0945	3030.76	78.2275	3030.76	74.3102	3030.76	75.7813	3030.76	72.1233	3030.76	73.3322	3030.76	72.7042	3030.76	73.5151	3030.76	72.2191	3030.76	73.2664	3030.76	66.9158	3030.76	70.0947	3030.76	58.2654	3030.76	59.0052	3030.76	67.1	3030.76	66.6331	3030.76	63.0238	3030.76	65.7213	3030.76	69.0367	3030.76	67.9994	3030.76	67.0868
3137.7	85.9354	3137.7	83.3805	3137.7	84.1625	3137.7	81.2653	3137.7	81.2169	3137.7	81.9555	3137.7	81.9863	3137.7	81.1445	3137.7	82.0283	3137.7	81.5308	3137.7	81.1551	3137.7	81.716	3137.7	81.7624	3137.7	80.1949	3137.7	80.645	3137.7	78.0391	3137.7	78.3388	3137.7	75.5977	3137.7	76.0311	3137.7	74.4866	3137.7	73.8234	3137.7	74.2573	3137.7	73.5904	3137.7	73.2333	3137.7	73.7636	3137.7	69.7364	3137.7	71.1144	3137.7	64.9716	3137.7	57.2601	3137.7	66.576	3137.7	66.6964	3137.7	60.7171	3137.7	61.4487	3137.7	68.6579	3137.7	66.6612	3137.7	66.1693
3249.02	86.8586	3249.02	82.6268	3249.02	84.2238	3249.02	79.9993	3249.02	81.6568	3249.02	82.6348	3249.02	81.8703	3249.02	80.9448	3249.02	82.3337	3249.02	81.5545	3249.02	81.8371	3249.02	82.7374	3249.02	82.431	3249.02	80.8232	3249.02	81.2306	3249.02	77.7435	3249.02	79.0494	3249.02	74.9205	3249.02	76.6283	3249.02	72.9343	3249.02	74.9011	3249.02	74.3016	3249.02	73.7263	3249.02	73.151	3249.02	73.8925	3249.02	67.6452	3249.02	70.3412	3249.02	64.1037	3249.02	63.5545	3249.02	67.6878	3249.02	67.3615	3249.02	51.1055	3249.02	62.0108	3249.02	68.3332	3249.02	66.8965	3249.02	66.9602
3363.28	86.9966	3363.28	83.4017	3363.28	84.4464	3363.28	81.8448	3363.28	81.7608	3363.28	83.4815	3363.28	82.8518	3363.28	82.2957	3363.28	82.4069	3363.28	82.6881	3363.28	82.3997	3363.28	83.2507	3363.28	83.086	3363.28	81.591	3363.28	81.9838	3363.28	78.8741	3363.28	79.34	3363.28	76.8344	3363.28	76.3507	3363.28	74.3423	3363.28	74.4444	3363.28	73.6682	3363.28	73.4715	3363.28	73.9202	3363.28	73.7066	3363.28	67.0293	3363.28	69.7307	3363.28	66.8198	3363.28	63.6594	3363.28	67.3564	3363.28	66.9055	3363.28	56.9343	3363.28	62.4729	3363.28	68.7621	3363.28	65.5422	3363.28	69.2764
3481.93	86.9695	3481.93	82.1116	3481.93	84.4366	3481.93	81.3056	3481.93	81.7174	3481.93	83.216	3481.93	83.049	3481.93	82.3803	3481.93	82.9273	3481.93	82.1916	3481.93	82.4632	3481.93	82.4668	3481.93	83.3334	3481.93	80.845	3481.93	82.6749	3481.93	78.0451	3481.93	80.2014	3481.93	75.1495	3481.93	77.7625	3481.93	74.9767	3481.93	75.5788	3481.93	73.9526	3481.93	75.3134	3481.93	74.4947	3481.93	74.603	3481.93	66.3793	3481.93	70.2878	3481.93	66.7188	3481.93	59.3802	3481.93	65.3589	3481.93	68.0466	3481.93	61.667	3481.93	60.4928	3481.93	67.4034	3481.93	65.078	3481.93	69.1626
3604.98	87.1148	3604.98	83.1397	3604.98	84.3417	3604.98	83.2511	3604.98	82.5455	3604.98	84.2943	3604.98	83.6911	3604.98	83.6343	3604.98	83.3196	3604.98	82.993	3604.98	83.0582	3604.98	84.1572	3604.98	84.2338	3604.98	82.6899	3604.98	83.0931	3604.98	79.7843	3604.98	80.0865	3604.98	77.0886	3604.98	77.1161	3604.98	74.9984	3604.98	74.8376	3604.98	74.3257	3604.98	74.3474	3604.98	72.5852	3604.98	73.7522	3604.98	63.8954	3604.98	69.5549	3604.98	69.1484	3604.98	62.8025	3604.98	66.3498	3604.98	67.9805	3604.98	64.1059	3604.98	60.5931	3604.98	64.8046	3604.98	64.8538	3604.98	69.7568
3732.42	86.3929	3732.42	82.7733	3732.42	84.4999	3732.42	82.9849	3732.42	83.1151	3732.42	83.9	3732.42	83.9417	3732.42	82.8668	3732.42	83.6998	3732.42	82.4725	3732.42	82.8111	3732.42	83.7457	3732.42	84.3474	3732.42	81.9867	3732.42	83.675	3732.42	78.0557	3732.42	80.2251	3732.42	75.439	3732.42	76.8703	3732.42	74.1436	3732.42	75.4687	3732.42	74.8685	3732.42	74.5124	3732.42	73.4054	3732.42	74.3788	3732.42	67.4652	3732.42	69.1504	3732.42	67.1014	3732.42	66.5003	3732.42	65.2014	3732.42	68.5111	3732.42	64.5576	3732.42	60.5413	3732.42	63.2912	3732.42	64.3924	3732.42	69.7638
3864.26	85.8028	3864.26	84.127	3864.26	84.7383	3864.26	84.4347	3864.26	83.9609	3864.26	84.8561	3864.26	84.2586	3864.26	83.7111	3864.26	83.8179	3864.26	83.7255	3864.26	83.1222	3864.26	84.5897	3864.26	84.4408	3864.26	82.5714	3864.26	83.2247	3864.26	78.7048	3864.26	79.0689	3864.26	75.4755	3864.26	75.5604	3864.26	74.4077	3864.26	74.0791	3864.26	73.4239	3864.26	73.2316	3864.26	72.5203	3864.26	73.1952	3864.26	64.7748	3864.26	68.9295	3864.26	69.3637	3864.26	68.2936	3864.26	65.2369	3864.26	68.4866	3864.26	65.9599	3864.26	60.1113	3864.26	62.4615	3864.26	65.9431	3864.26	68.2663
4000.49	85.154	4000.49	83.9667	4000.49	85.0082	4000.49	84.4383	4000.49	84.5074	4000.49	84.1741	4000.49	84.5287	4000.49	83.3949	4000.49	84.1151	4000.49	83.3538	4000.49	83.7634	4000.49	83.377	4000.49	84.1661	4000.49	80.8449	4000.49	82.7607	4000.49	76.389	4000.49	79.0431	4000.49	73.4985	4000.49	75.6133	4000.49	72.7856	4000.49	74.0373	4000.49	72.5544	4000.49	73.9617	4000.49	72.46	4000.49	72.7458	4000.49	63.0353	4000.49	68.0666	4000.49	70.3995	4000.49	68.1058	4000.49	62.7263	4000.49	66.0932	4000.49	64.4466	4000.49	65.8478	4000.49	61.006	4000.49	62.8353	4000.49	65.5081
4141.11	85.2111	4141.11	84.8055	4141.11	85.2224	4141.11	85.4462	4141.11	84.8475	4141.11	84.6067	4141.11	84.5688	4141.11	84.5228	4141.11	84.3414	4141.11	83.7329	4141.11	83.6623	4141.11	83.6601	4141.11	83.7501	4141.11	81.9053	4141.11	82.4375	4141.11	78.1731	4141.11	78.9835	4141.11	75.5205	4141.11	75.1257	4141.11	73.6604	4141.11	73.5636	4141.11	73.2601	4141.11	72.7433	4141.11	71.3964	4141.11	71.954	4141.11	64.9011	4141.11	67.4789	4141.11	71.1643	4141.11	68.5958	4141.11	65.4472	4141.11	64.2187	4141.11	66.0666	4141.11	67.3699	4141.11	66.5981	4141.11	65.5117	4141.11	64.9348
4287.6	85.4826	4287.6	84.7949	4287.6	85.5239	4287.6	85.3593	4287.6	85.0823	4287.6	84.4595	4287.6	85.073	4287.6	84.3662	4287.6	84.657	4287.6	82.9335	4287.6	83.7029	4287.6	82.9413	4287.6	83.4754	4287.6	81.4997	4287.6	82.8079	4287.6	77.2004	4287.6	79.2287	4287.6	73.6834	4287.6	75.3769	4287.6	73.0513	4287.6	74.6157	4287.6	72.9628	4287.6	73.7329	4287.6	70.9955	4287.6	71.6078	4287.6	65.486	4287.6	65.3574	4287.6	69.668	4287.6	70.4234	4287.6	63.8374	4287.6	65.0917	4287.6	65.2328	4287.6	67.2972	4287.6	64.7994	4287.6	64.6987	4287.6	60.9811
4438.48	85.816	4438.48	84.9758	4438.48	85.0575	4438.48	85.4341	4438.48	85.1028	4438.48	84.8165	4438.48	85.0835	4438.48	84.4711	4438.48	84.2713	4438.48	83.0693	4438.48	83.4658	4438.48	83.3751	4438.48	83.2468	4438.48	82.1003	4438.48	82.6653	4438.48	78.4293	4438.48	79.5737	4438.48	75.4293	4438.48	75.7919	4438.48	74.1897	4438.48	74.4511	4438.48	73.9654	4438.48	74.1434	4438.48	69.8801	4438.48	70.6942	4438.48	66.8296	4438.48	64.5592	4438.48	69.4956	4438.48	70.9482	4438.48	65.9847	4438.48	65.0438	4438.48	66.4584	4438.48	66.9226	4438.48	65.3184	4438.48	63.3266	4438.48	59.3599
4595.21	86.8615	4595.21	84.9456	4595.21	85.1413	4595.21	85.3146	4595.21	85.6457	4595.21	85.0393	4595.21	85.3557	4595.21	84.4027	4595.21	84.1141	4595.21	83.5497	4595.21	84.0963	4595.21	83.2613	4595.21	83.4674	4595.21	81.933	4595.21	82.9632	4595.21	78.1286	4595.21	79.9835	4595.21	74.8211	4595.21	75.8182	4595.21	73.7882	4595.21	74.8263	4595.21	73.7005	4595.21	74.2744	4595.21	69.2491	4595.21	71.9092	4595.21	62.8196	4595.21	59.1286	4595.21	69.6189	4595.21	71.5203	4595.21	66.2314	4595.21	63.9869	4595.21	66.375	4595.21	67.5566	4595.21	64.6733	4595.21	62.8374	4595.21	64.7028
4756.35	86.9853	4756.35	84.7665	4756.35	84.9008	4756.35	85.6363	4756.35	85.6752	4756.35	84.6289	4756.35	85.1611	4756.35	84.5281	4756.35	84.0108	4756.35	83.7346	4756.35	84.6164	4756.35	83.5344	4756.35	83.3276	4756.35	82.3408	4756.35	82.9953	4756.35	78.4688	4756.35	80.0255	4756.35	74.8351	4756.35	75.5589	4756.35	74.2815	4756.35	74.3321	4756.35	73.5034	4756.35	74.1244	4756.35	69.7752	4756.35	72.3014	4756.35	67.5329	4756.35	61.069	4756.35	71.0669	4756.35	70.9515	4756.35	67.6292	4756.35	64.8818	4756.35	66.1994	4756.35	66.7356	4756.35	63.6444	4756.35	63.6926	4756.35	64.7109
4924.8	87.1677	4924.8	84.5787	4924.8	84.9913	4924.8	85.7318	4924.8	85.7485	4924.8	84.5378	4924.8	84.7147	4924.8	84.7591	4924.8	84.1396	4924.8	83.9265	4924.8	84.7985	4924.8	83.0612	4924.8	83.1211	4924.8	81.8277	4924.8	82.4158	4924.8	78.3321	4924.8	79.3072	4924.8	74.6885	4924.8	75.1908	4924.8	73.5359	4924.8	73.4383	4924.8	72.5179	4924.8	73.2761	4924.8	68.9248	4924.8	71.7545	4924.8	68.4449	4924.8	61.9822	4924.8	69.023	4924.8	70.8731	4924.8	66.9863	4924.8	64.9009	4924.8	63.6686	4924.8	65.8659	4924.8	60.8718	4924.8	60.3438	4924.8	63.9014
5097.66	87.1379	5097.66	84.6476	5097.66	85.5854	5097.66	86.1114	5097.66	86.0827	5097.66	84.3413	5097.66	84.5592	5097.66	84.9933	5097.66	84.8502	5097.66	83.5628	5097.66	85.0446	5097.66	82.2807	5097.66	82.2967	5097.66	81.9492	5097.66	82.4899	5097.66	79.0244	5097.66	80.0829	5097.66	74.9606	5097.66	76.0427	5097.66	74.3391	5097.66	74.4866	5097.66	73.3029	5097.66	73.6603	5097.66	67.3873	5097.66	70.9432	5097.66	68.7674	5097.66	55.2003	5097.66	67.935	5097.66	70.14	5097.66	68.3103	5097.66	65.7584	5097.66	63.2476	5097.66	66.4041	5097.66	61.1149	5097.66	62.8631	5097.66	64.3983
5277.83	86.9676	5277.83	84.2196	5277.83	85.4014	5277.83	85.7762	5277.83	85.4718	5277.83	84.1444	5277.83	84.1447	5277.83	84.8786	5277.83	84.9029	5277.83	82.8021	5277.83	84.0443	5277.83	82.4951	5277.83	81.373	5277.83	82.2337	5277.83	82.7924	5277.83	79.0281	5277.83	80.1156	5277.83	74.9752	5277.83	75.5596	5277.83	74.2329	5277.83	73.6149	5277.83	72.8063	5277.83	73.316	5277.83	64.8524	5277.83	71.8081	5277.83	68.6116	5277.83	62.2321	5277.83	68.3792	5277.83	69.6604	5277.83	67.7228	5277.83	68.3579	5277.83	62.4458	5277.83	62.5287	5277.83	56.5973	5277.83	63.0471	5277.83	61.1547
5463.87	87.3911	5463.87	85.0051	5463.87	85.575	5463.87	85.6957	5463.87	85.6258	5463.87	84.9392	5463.87	85.0718	5463.87	84.8579	5463.87	84.8182	5463.87	83.1415	5463.87	83.8131	5463.87	82.4223	5463.87	81.4531	5463.87	82.2124	5463.87	82.9675	5463.87	79.4042	5463.87	79.6477	5463.87	74.9239	5463.87	75.2178	5463.87	73.0621	5463.87	72.285	5463.87	72.8991	5463.87	73.5294	5463.87	65.8477	5463.87	71.5728	5463.87	69.3238	5463.87	61.8816	5463.87	64.0339	5463.87	68.6736	5463.87	68.292	5463.87	67.8136	5463.87	58.6371	5463.87	62.2934	5463.87	60.2096	5463.87	60.3014	5463.87	61.5914
5657.23	87.3933	5657.23	85.123	5657.23	85.4924	5657.23	85.2902	5657.23	85.2127	5657.23	84.5406	5657.23	85.3408	5657.23	83.9054	5657.23	84.429	5657.23	82.5527	5657.23	83.533	5657.23	81.3125	5657.23	79.8815	5657.23	82.6208	5657.23	82.6505	5657.23	80.301	5657.23	81.5233	5657.23	76.9914	5657.23	77.6958	5657.23	74.8293	5657.23	74.5191	5657.23	73.9134	5657.23	73.9674	5657.23	66.4073	5657.23	69.1711	5657.23	67.3362	5657.23	64.5137	5657.23	62.2725	5657.23	68.211	5657.23	67.5368	5657.23	68.0064	5657.23	60.5674	5657.23	61.8956	5657.23	55.2632	5657.23	59.1387	5657.23	62.9995
5856.45	86.823	5856.45	85.188	5856.45	85.7571	5856.45	85.1501	5856.45	84.9513	5856.45	84.7693	5856.45	85.2854	5856.45	83.4347	5856.45	84.168	5856.45	82.887	5856.45	83.4007	5856.45	81.3929	5856.45	80.41	5856.45	84.3241	5856.45	84.2383	5856.45	81.4536	5856.45	82.4911	5856.45	77.8694	5856.45	78.1145	5856.45	75.9889	5856.45	75.1424	5856.45	75.1277	5856.45	75.5132	5856.45	45.3828	5856.45	69.8955	5856.45	69.888	5856.45	68.1925	5856.45	59.9693	5856.45	68.3969	5856.45	66.5625	5856.45	67.5345	5856.45	60.7049	5856.45	59.9175	5856.45	56.6715	5856.45	59.9068	5856.45	57.9166
6062.99	86.7224	6062.99	85.3411	6062.99	85.8527	6062.99	84.8863	6062.99	84.7693	6062.99	85.1369	6062.99	85.3486	6062.99	83.6305	6062.99	84.1717	6062.99	83.5891	6062.99	83.0208	6062.99	82.632	6062.99	82.8037	6062.99	83.5206	6062.99	83.9224	6062.99	79.375	6062.99	80.7717	6062.99	74.4647	6062.99	75.5824	6062.99	73.2033	6062.99	71.8675	6062.99	73.8359	6062.99	73.6009	6062.99	64.5106	6062.99	66.3503	6062.99	68.783	6062.99	66.555	6062.99	65.025	6062.99	65.6551	6062.99	62.7358	6062.99	66.6767	6062.99	61.6591	6062.99	61.0714	6062.99	62.6344	6062.99	56.3848	6062.99	59.2425
6276.86	86.9005	6276.86	85.4493	6276.86	85.6177	6276.86	84.7721	6276.86	84.7428	6276.86	85.0814	6276.86	85.18	6276.86	83.5165	6276.86	84.1745	6276.86	84.428	6276.86	83.1092	6276.86	82.0945	6276.86	83.3299	6276.86	81.2806	6276.86	82.2986	6276.86	77.6197	6276.86	78.4268	6276.86	72.9032	6276.86	73.3238	6276.86	71.3295	6276.86	70.5856	6276.86	70.9542	6276.86	70.6092	6276.86	60.5243	6276.86	66.7282	6276.86	67.0092	6276.86	68.8167	6276.86	64.0982	6276.86	65.572	6276.86	64.55	6276.86	67.0833	6276.86	63.0823	6276.86	54.8237	6276.86	56.106	6276.86	55.5314	6276.86	51.2007
6498.05	87.1855	6498.05	85.6169	6498.05	85.9033	6498.05	85.1383	6498.05	85.1163	6498.05	85.6188	6498.05	85.4243	6498.05	83.6336	6498.05	83.7364	6498.05	84.6152	6498.05	84.1006	6498.05	80.7851	6498.05	82.3758	6498.05	81.0849	6498.05	80.8088	6498.05	78.1486	6498.05	78.0232	6498.05	72.7885	6498.05	73.0915	6498.05	71.4912	6498.05	70.8941	6498.05	70.9922	6498.05	71.6702	6498.05	60.657	6498.05	65.56	6498.05	68.6391	6498.05	68.3009	6498.05	62.722	6498.05	62.9589	6498.05	62.4232	6498.05	67.1665	6498.05	58.6612	6498.05	59.366	6498.05	59.9372	6498.05	59.4784	6498.05	51.4835
6726.56	87.3176	6726.56	85.703	6726.56	85.8134	6726.56	85.0448	6726.56	85.297	6726.56	85.777	6726.56	85.3953	6726.56	84.4165	6726.56	83.5635	6726.56	83.2905	6726.56	83.7431	6726.56	80.1647	6726.56	80.7479	6726.56	81.2479	6726.56	81.0708	6726.56	78.8296	6726.56	79.033	6726.56	74.2377	6726.56	74.8482	6726.56	70.8455	6726.56	72.4199	6726.56	69.8538	6726.56	70.1928	6726.56	60.1394	6726.56	63.1194	6726.56	67.4861	6726.56	65.1323	6726.56	65.7381	6726.56	63.9778	6726.56	63.6971	6726.56	66.1479	6726.56	62.2722	6726.56	59.1979	6726.56	62.2268	6726.56	49.8544	6726.56	51.0881
6963.87	87.4519	6963.87	85.7221	6963.87	85.7003	6963.87	85.0288	6963.87	85.1477	6963.87	85.4132	6963.87	85.1128	6963.87	84.0714	6963.87	84.4893	6963.87	82.5782	6963.87	81.6854	6963.87	80.71	6963.87	80.456	6963.87	81.9486	6963.87	81.3559	6963.87	79.1835	6963.87	79.9063	6963.87	74.0713	6963.87	74.304	6963.87	72.1247	6963.87	71.5708	6963.87	70.9375	6963.87	72.4483	6963.87	57.6733	6963.87	61.5544	6963.87	65.212	6963.87	65.4226	6963.87	64.2106	6963.87	62.6697	6963.87	60.2745	6963.87	64.0209	6963.87	58.7385	6963.87	59.4118	6963.87	57.6331	6963.87	57.547	6963.87	52.3059
7209.96	87.2546	7209.96	85.7524	7209.96	85.8524	7209.96	85.2331	7209.96	85.6895	7209.96	85.8054	7209.96	84.8436	7209.96	83.2501	7209.96	84.5269	7209.96	82.1169	7209.96	80.8484	7209.96	80.9619	7209.96	80.8479	7209.96	81.9501	7209.96	81.5928	7209.96	78.8982	7209.96	79.4113	7209.96	73.6938	7209.96	74.5379	7209.96	71.0501	7209.96	71.6073	7209.96	70.0543	7209.96	70.5136	7209.96	61.8697	7209.96	60.5183	7209.96	64.7229	7209.96	64.2199	7209.96	63.4486	7209.96	61.541	7209.96	61.0858	7209.96	64.2858	7209.96	62.3796	7209.96	61.1244	7209.96	58.8867	7209.96	47.1772	7209.96	56.8342
7464.84	87.1882	7464.84	86.0708	7464.84	86.1299	7464.84	85.5718	7464.84	85.6997	7464.84	85.8894	7464.84	85.4874	7464.84	83.1148	7464.84	83.7649	7464.84	82.4386	7464.84	80.6261	7464.84	80.8378	7464.84	81.0927	7464.84	82.1479	7464.84	80.6423	7464.84	78.8456	7464.84	79.2953	7464.84	73.6314	7464.84	75.3222	7464.84	71.473	7464.84	72.4363	7464.84	69.8378	7464.84	70.5153	7464.84	61.5724	7464.84	57.4637	7464.84	64.4595	7464.84	65.651	7464.84	61.1897	7464.84	58.4593	7464.84	62.6074	7464.84	63.7057	7464.84	61.4522	7464.84	60.0469	7464.84	56.0233	7464.84	51.3636	7464.84	58.2225
7727.05	87.2839	7727.05	86.4336	7727.05	86.1769	7727.05	85.9968	7727.05	85.8599	7727.05	85.9011	7727.05	85.7258	7727.05	83.1617	7727.05	83.4133	7727.05	82.2117	7727.05	81.328	7727.05	80.1148	7727.05	80.1229	7727.05	81.8008	7727.05	80.1974	7727.05	78.0596	7727.05	78.1777	7727.05	72.6112	7727.05	74.1649	7727.05	71.1509	7727.05	70.7937	7727.05	69.6753	7727.05	69.691	7727.05	57.8241	7727.05	59.4656	7727.05	63.8591	7727.05	64.1665	7727.05	60.7487	7727.05	57.3912	7727.05	62.2382	7727.05	62.9558	7727.05	56.5679	7727.05	61.1751	7727.05	53.0429	7727.05	48.3469	7727.05	58.3195
7999.51	87.2721	7999.51	86.5982	7999.51	86.5715	7999.51	86.6005	7999.51	85.9338	7999.51	85.4422	7999.51	85.8755	7999.51	84.1197	7999.51	83.8459	7999.51	81.7653	7999.51	80.6944	7999.51	80.2193	7999.51	80.5236	7999.51	80.7467	7999.51	78.558	7999.51	78.5312	7999.51	78.6418	7999.51	73.9665	7999.51	75.7236	7999.51	72.354	7999.51	72.56	7999.51	69.7229	7999.51	69.3704	7999.51	60.6989	7999.51	57.26	7999.51	62.6594	7999.51	62.9841	7999.51	61.4669	7999.51	54.2049	7999.51	62.1944	7999.51	60.7256	7999.51	59.0781	7999.51	60.9324	7999.51	49.597	7999.51	57.8915	7999.51	53.2135
8282.23	87.2495	8282.23	86.6403	8282.23	86.4906	8282.23	86.957	8282.23	86.3997	8282.23	84.9132	8282.23	85.2547	8282.23	84.3629	8282.23	84.4062	8282.23	81.7401	8282.23	81.4929	8282.23	79.7701	8282.23	79.9369	8282.23	81.4015	8282.23	79.3132	8282.23	78.9121	8282.23	79.0435	8282.23	72.9035	8282.23	74.8321	8282.23	73.3374	8282.23	71.6433	8282.23	69.6523	8282.23	69.4058	8282.23	60.2204	8282.23	58.5182	8282.23	59.7568	8282.23	60.7573	8282.23	61.835	8282.23	55.3763	8282.23	59.3329	8282.23	59.4993	8282.23	52.4193	8282.23	59.6565	8282.23	58.0722	8282.23	53.9049	8282.23	51.5886
8573.73	87.399	8573.73	86.7487	8573.73	86.6594	8573.73	86.7289	8573.73	86.734	8573.73	84.9792	8573.73	84.8715	8573.73	84.6254	8573.73	84.1677	8573.73	81.4766	8573.73	81.8305	8573.73	80.3578	8573.73	80.1362	8573.73	80.2211	8573.73	79.1989	8573.73	76.9509	8573.73	76.7935	8573.73	70.6222	8573.73	72.8119	8573.73	71.7891	8573.73	69.6282	8573.73	69.4397	8573.73	67.739	8573.73	62.0656	8573.73	62.4881	8573.73	61.2101	8573.73	60.6571	8573.73	59.6378	8573.73	54.5722	8573.73	55.7486	8573.73	59.0217	8573.73	57.5119	8573.73	58.707	8573.73	51.2298	8573.73	56.6087	8573.73	36.7274
8876.95	87.8319	8876.95	87.3016	8876.95	86.9715	8876.95	86.7212	8876.95	86.8465	8876.95	85.1976	8876.95	85.0758	8876.95	84.8419	8876.95	84.5518	8876.95	81.3228	8876.95	81.4464	8876.95	79.8448	8876.95	79.9825	8876.95	78.652	8876.95	77.5036	8876.95	75.8483	8876.95	75.9486	8876.95	70.5437	8876.95	71.197	8876.95	70.2622	8876.95	67.3913	8876.95	67.5027	8876.95	66.8185	8876.95	62.8098	8876.95	62.4008	8876.95	58.3188	8876.95	62.1095	8876.95	56.7649	8876.95	55.1738	8876.95	56.3647	8876.95	56.5307	8876.95	53.3302	8876.95	53.6424	8876.95	53.8188	8876.95	54.6713	8876.95	47.6811
9188.96	88.197	9188.96	88.0939	9188.96	87.4795	9188.96	86.7304	9188.96	87.0628	9188.96	85.6077	9188.96	85.4764	9188.96	84.4072	9188.96	84.4493	9188.96	81.4325	9188.96	81.6855	9188.96	78.5454	9188.96	78.3106	9188.96	77.9481	9188.96	77.1449	9188.96	75.264	9188.96	76.1812	9188.96	70.178	9188.96	70.6568	9188.96	69.9784	9188.96	67.6041	9188.96	66.1143	9188.96	65.5069	9188.96	61.738	9188.96	59.7408	9188.96	60.3758	9188.96	62.0629	9188.96	55.6484	9188.96	51.8841	9188.96	55.3604	9188.96	55.0008	9188.96	55.7145	9188.96	56.9502	9188.96	49.1017	9188.96	55.6376	9188.96	44.5545
9514.16	88.5098	9514.16	88.445	9514.16	88.2354	9514.16	87.121	9514.16	87.5109	9514.16	85.8759	9514.16	85.7081	9514.16	83.9743	9514.16	83.983	9514.16	80.7648	9514.16	81.3764	9514.16	78.4575	9514.16	78.3491	9514.16	77.1592	9514.16	76.4608	9514.16	74.6048	9514.16	75.512	9514.16	67.7862	9514.16	69.9555	9514.16	67.3643	9514.16	66.1451	9514.16	63.3612	9514.16	65.5712	9514.16	60.1613	9514.16	55.5336	9514.16	57.6931	9514.16	61.4366	9514.16	52.5847	9514.16	53.6451	9514.16	51.6184	9514.16	48.022	9514.16	57.4382	9514.16	56.2409	9514.16	43.6819	9514.16	53.6795	9514.16	51.7779
9849.61	88.8338	9849.61	88.8843	9849.61	88.8431	9849.61	87.6803	9849.61	88.2203	9849.61	85.535	9849.61	85.9575	9849.61	83.8469	9849.61	84.0296	9849.61	80.5239	9849.61	81.4407	9849.61	77.4917	9849.61	78.4775	9849.61	77.1765	9849.61	76.8644	9849.61	73.6757	9849.61	75.4567	9849.61	66.7337	9849.61	69.3982	9849.61	67.0289	9849.61	66.4866	9849.61	60.3355	9849.61	65.3688	9849.61	58.5095	9849.61	55.0093	9849.61	55.2382	9849.61	61.357	9849.61	58.0546	9849.61	54.0259	9849.61	52.2388	9849.61	47.2781	9849.61	57.0315	9849.61	54.6784	9849.61	51.598	9849.61	53.6679	9849.61	52.2096
10196.8	89.0814	10196.8	89.2465	10196.8	89.2075	10196.8	88.0573	10196.8	88.6608	10196.8	85.2534	10196.8	85.7592	10196.8	83.8109	10196.8	84.242	10196.8	80.4209	10196.8	81.5487	10196.8	77.3569	10196.8	77.628	10196.8	75.4302	10196.8	75.8275	10196.8	71.1999	10196.8	74.2356	10196.8	65.645	10196.8	69.0864	10196.8	64.9665	10196.8	65.0708	10196.8	61.2255	10196.8	65.5065	10196.8	58.3132	10196.8	54.5319	10196.8	53.3254	10196.8	58.8165	10196.8	55.2306	10196.8	52.3554	10196.8	51.9741	10196.8	50.8497	10196.8	56.9846	10196.8	54.1172	10196.8	48.2728	10196.8	54.0866	10196.8	52.2774
10555.7	89.0578	10555.7	88.9603	10555.7	89.1057	10555.7	87.9682	10555.7	88.5551	10555.7	85.1563	10555.7	85.4828	10555.7	83.5436	10555.7	84.1585	10555.7	80.0199	10555.7	81.2028	10555.7	75.3272	10555.7	76.4718	10555.7	74.5469	10555.7	74.002	10555.7	71.9846	10555.7	74.8618	10555.7	67.7641	10555.7	69.3315	10555.7	65.2828	10555.7	65.2248	10555.7	61.6899	10555.7	65.2645	10555.7	55.2783	10555.7	53.5686	10555.7	53.2634	10555.7	58.9957	10555.7	51.99	10555.7	51.6349	10555.7	51.8735	10555.7	51.9635	10555.7	57.6172	10555.7	53.5231	10555.7	53.465	10555.7	51.2605	10555.7	50.937
10927.7	89.1921	10927.7	88.6426	10927.7	88.8567	10927.7	87.6843	10927.7	88.2789	10927.7	85.0722	10927.7	85.4303	10927.7	82.7767	10927.7	83.6007	10927.7	79.1922	10927.7	80.5927	10927.7	74.4635	10927.7	75.1829	10927.7	73.9058	10927.7	73.9805	10927.7	71.9163	10927.7	74.9901	10927.7	67.8597	10927.7	69.4022	10927.7	65.1	10927.7	64.8382	10927.7	61.7656	10927.7	64.8901	10927.7	54.3936	10927.7	54.7406	10927.7	53.2488	10927.7	56.25	10927.7	53.9173	10927.7	51.5306	10927.7	51.1846	10927.7	48.3577	10927.7	55.0167	10927.7	54.9341	10927.7	52.5066	10927.7	49.3472	10927.7	52.9435
11313	89.4855	11313	88.5655	11313	88.7663	11313	87.5485	11313	87.9889	11313	85.0341	11313	85.4184	11313	82.3063	11313	83.0703	11313	78.2338	11313	79.6889	11313	74.1785	11313	75.2339	11313	72.7066	11313	73.295	11313	72.0798	11313	75.2904	11313	67.8924	11313	68.6839	11313	65.1045	11313	63.9721	11313	62.4492	11313	63.7337	11313	53.5695	11313	56.7746	11313	54.5787	11313	52.8492	11313	50.0566	11313	47.6495	11313	48.1727	11313	42.6192	11313	55.5099	11313	54.0857	11313	52.0081	11313	50.7981	11313	52.8517
11712.9	89.6016	11712.9	88.466	11712.9	88.6404	11712.9	87.1662	11712.9	87.6944	11712.9	84.8419	11712.9	85.5539	11712.9	81.8603	11712.9	82.5646	11712.9	77.9328	11712.9	79.3191	11712.9	74.1068	11712.9	75.4874	11712.9	72.4849	11712.9	73.1375	11712.9	71.7386	11712.9	74.8483	11712.9	67.4693	11712.9	67.5513	11712.9	63.4543	11712.9	62.5901	11712.9	62.5372	11712.9	63.0246	11712.9	55.7744	11712.9	57.7347	11712.9	54.6124	11712.9	55.5375	11712.9	49.5856	11712.9	44.9719	11712.9	45.6026	11712.9	39.5421	11712.9	54.1746	11712.9	51.0375	11712.9	50.8953	11712.9	51.3355	11712.9	52.7002
12126	89.69	12126	88.5982	12126	88.7831	12126	87.0431	12126	87.53	12126	84.8855	12126	85.807	12126	81.4062	12126	82.1951	12126	78.3003	12126	80.0547	12126	74.2787	12126	76.14	12126	70.8842	12126	71.8986	12126	72.8863	12126	75.633	12126	68.1894	12126	68.2253	12126	64.8428	12126	64.9761	12126	62.5923	12126	63.2949	12126	55.0413	12126	58.7315	12126	54.7863	12126	55.757	12126	48.5733	12126	51.6962	12126	45.7044	12126	43.8705	12126	52.849	12126	50.2999	12126	49.073	12126	51.8444	12126	53.9664
12553.7	89.6413	12553.7	88.4148	12553.7	88.8134	12553.7	87.0866	12553.7	87.5384	12553.7	84.5215	12553.7	85.8382	12553.7	81.3963	12553.7	82.1624	12553.7	78.7807	12553.7	80.949	12553.7	73.9537	12553.7	76.4259	12553.7	71.553	12553.7	72.6922	12553.7	73.908	12553.7	76.3113	12553.7	68.4564	12553.7	68.4615	12553.7	65.0786	12553.7	65.0427	12553.7	62.3422	12553.7	63.4104	12553.7	51.8722	12553.7	58.7083	12553.7	51.3734	12553.7	54.7123	12553.7	48.569	12553.7	52.8447	12553.7	40.5688	12553.7	46.563	12553.7	47.9078	12553.7	48.6668	12553.7	48.5849	12553.7	51.4453	12553.7	54.7957
12996.1	89.5079	12996.1	88.0423	12996.1	88.8544	12996.1	87.2561	12996.1	87.727	12996.1	84.2077	12996.1	85.7439	12996.1	81.3599	12996.1	82.5475	12996.1	79.1275	12996.1	81.5532	12996.1	74.1868	12996.1	76.1286	12996.1	70.4404	12996.1	73.1805	12996.1	73.6486	12996.1	76.0199	12996.1	69.1727	12996.1	69.1197	12996.1	64.8058	12996.1	65.1531	12996.1	61.3651	12996.1	62.9925	12996.1	50.7593	12996.1	59.6656	12996.1	54.6575	12996.1	55.6883	12996.1	46.1411	12996.1	52.9278	12996.1	36.8606	12996.1	50.2614	12996.1	47.2328	12996.1	50.1527	12996.1	51.2868	12996.1	52.2743	12996.1	54.4955
13454.6	89.1358	13454.6	87.7496	13454.6	88.5864	13454.6	86.5472	13454.6	87.4363	13454.6	83.6452	13454.6	85.5649	13454.6	81.2048	13454.6	82.7722	13454.6	78.4716	13454.6	80.9422	13454.6	74.502	13454.6	76.7411	13454.6	70.0922	13454.6	73.4463	13454.6	73.7703	13454.6	75.5212	13454.6	68.4383	13454.6	69.3974	13454.6	64.2216	13454.6	64.5956	13454.6	61.1582	13454.6	62.2471	13454.6	53.6263	13454.6	57.3377	13454.6	54.4501	13454.6	54.4669	13454.6	34.7129	13454.6	49.0159	13454.6	37.8542	13454.6	50.0089	13454.6	47.8315	13454.6	45.2614	13454.6	53.3262	13454.6	50.4927	13454.6	52.453
13929.2	88.6078	13929.2	87.4171	13929.2	88.0198	13929.2	85.6616	13929.2	86.8658	13929.2	83.0182	13929.2	85.0496	13929.2	80.7195	13929.2	82.8698	13929.2	78.7471	13929.2	79.9156	13929.2	74.0065	13929.2	76.6257	13929.2	69.4339	13929.2	72.9874	13929.2	72.4734	13929.2	73.8507	13929.2	66.1165	13929.2	67.5842	13929.2	63.5117	13929.2	62.4958	13929.2	60.7915	13929.2	60.9033	13929.2	53.6861	13929.2	53.8372	13929.2	52.1498	13929.2	53.9022	13929.2	47.7998	13929.2	48.4483	13929.2	44.521	13929.2	49.337	13929.2	48.8209	13929.2	28.9225	13929.2	53.4374	13929.2	47.6535	13929.2	52.4552
14419.9	88.399	14419.9	87.52	14419.9	87.9235	14419.9	85.4529	14419.9	86.7428	14419.9	83.2598	14419.9	84.5127	14419.9	79.5538	14419.9	82.1302	14419.9	78.4058	14419.9	79.4416	14419.9	74.1978	14419.9	76.2584	14419.9	70.0226	14419.9	71.1134	14419.9	72.6495	14419.9	71.4279	14419.9	65.0215	14419.9	67.2818	14419.9	62.3741	14419.9	62.1604	14419.9	58.2437	14419.9	56.7588	14419.9	53.3093	14419.9	49.9976	14419.9	48.1758	14419.9	51.4811	14419.9	49.34	14419.9	33.0889	14419.9	47.726	14419.9	45.7412	14419.9	44.7522	14419.9	41.663	14419.9	53.3159	14419.9	49.754	14419.9	50.5298
14928.2	88.2703	14928.2	87.4613	14928.2	87.8772	14928.2	84.9632	14928.2	86.3113	14928.2	82.9194	14928.2	83.8849	14928.2	79.349	14928.2	80.3041	14928.2	77.9648	14928.2	78.0379	14928.2	74.3457	14928.2	75.2383	14928.2	71.037	14928.2	70.2508	14928.2	72.1187	14928.2	69.3881	14928.2	63.4284	14928.2	65.6372	14928.2	60.4394	14928.2	61.9963	14928.2	55.2088	14928.2	51.6412	14928.2	50.435	14928.2	38.3677	14928.2	46.778	14928.2	44.2057	14928.2	46.0772	14928.2	41.8542	14928.2	46.1361	14928.2	35.9063	14928.2	43.2929	14928.2	38.061	14928.2	52.7488	14928.2	50.6591	14928.2	50.9261
15455.6	88.0193	15455.6	87.3124	15455.6	88.0219	15455.6	84.8794	15455.6	85.6493	15455.6	82.1188	15455.6	83.2927	15455.6	79.4155	15455.6	79.5727	15455.6	78.1759	15455.6	76.842	15455.6	74.3813	15455.6	72.9356	15455.6	70.1757	15455.6	68.6675	15455.6	71.3158	15455.6	66.8162	15455.6	63.3464	15455.6	64.0815	15455.6	59.0554	15455.6	59.2006	15455.6	54.2399	15455.6	49.2355	15455.6	43.5288	15455.6	49.0489	15455.6	46.313	15455.6	47.6258	15455.6	44.2059	15455.6	47.5516	15455.6	41.708	15455.6	35.3829	15455.6	44.8532	15455.6	43.1171	15455.6	49.7239	15455.6	49.2197	15455.6	51.9313
16000.5	87.4912	16000.5	86.6193	16000.5	87.5425	16000.5	84.2089	16000.5	84.9412	16000.5	80.8555	16000.5	81.9442	16000.5	78.7152	16000.5	78.1984	16000.5	77.7197	16000.5	75.0909	16000.5	74.3683	16000.5	72.1809	16000.5	69.6629	16000.5	68.2364	16000.5	70.496	16000.5	65.8712	16000.5	61.7712	16000.5	63.0463	16000.5	58.3005	16000.5	57.506	16000.5	54.8328	16000.5	49.1649	16000.5	47.6806	16000.5	50.1403	16000.5	47.8875	16000.5	50.8223	16000.5	45.011	16000.5	45.4609	16000.5	37.8866	16000.5	32.5917	16000.5	44.8069	16000.5	42.6812	16000.5	48.5597	16000.5	47.7419	16000.5	51.285
16564.5	86.0865	16564.5	85.2808	16564.5	86.1832	16564.5	82.9895	16564.5	83.8069	16564.5	80.2159	16564.5	80.6842	16564.5	78.3117	16564.5	77.0137	16564.5	77.2611	16564.5	73.713	16564.5	73.6206	16564.5	72.7585	16564.5	67.4182	16564.5	67.6771	16564.5	68.8059	16564.5	65.2238	16564.5	60.8603	16564.5	62.2357	16564.5	55.4394	16564.5	57.8567	16564.5	52.9888	16564.5	49.4605	16564.5	50.2523	16564.5	51.7102	16564.5	45.5196	16564.5	48.3206	16564.5	42.2708	16564.5	44.5645	16564.5	42.4422	16564.5	43.6384	16564.5	44.7335	16564.5	39.25	16564.5	48.053	16564.5	48.4073	16564.5	51.4232
17148.9	85.8216	17148.9	85.1595	17148.9	85.9416	17148.9	83.1489	17148.9	83.4197	17148.9	80.4866	17148.9	80.401	17148.9	78.272	17148.9	76.5716	17148.9	76.807	17148.9	74.0506	17148.9	73.7541	17148.9	73.6939	17148.9	66.7069	17148.9	68.2688	17148.9	67.3955	17148.9	65.0834	17148.9	59.4151	17148.9	61.1396	17148.9	53.725	17148.9	56.8173	17148.9	51.5994	17148.9	52.0525	17148.9	50.547	17148.9	50.0654	17148.9	44.5095	17148.9	43.3646	17148.9	34.1077	17148.9	39.2577	17148.9	42.2052	17148.9	44.3862	17148.9	46.7612	17148.9	39.6785	17148.9	47.268	17148.9	47.6725	17148.9	51.1351
17752.4	86.4376	17752.4	85.5913	17752.4	86.0339	17752.4	83.5922	17752.4	83.6372	17752.4	80.6786	17752.4	80.4486	17752.4	78.1651	17752.4	76.16	17752.4	75.8587	17752.4	73.6612	17752.4	71.9443	17752.4	73.4422	17752.4	64.4336	17752.4	67.8965	17752.4	65.9144	17752.4	64.3863	17752.4	55.8192	17752.4	60.1357	17752.4	52.1927	17752.4	56.0088	17752.4	52.7791	17752.4	52.7763	17752.4	48.9777	17752.4	45.77	17752.4	46.6392	17752.4	41.7065	17752.4	34.5919	17752.4	29.697	17752.4	40.2646	17752.4	42.024	17752.4	45.8976	17752.4	42.0352	17752.4	45.7583	17752.4	43.0613	17752.4	47.9492
18379.4	86.5006	18379.4	85.4546	18379.4	85.6016	18379.4	83.3051	18379.4	83.0399	18379.4	79.9075	18379.4	79.6962	18379.4	76.947	18379.4	75.3553	18379.4	73.404	18379.4	71.9868	18379.4	68.7385	18379.4	71.6699	18379.4	62.1645	18379.4	67.3134	18379.4	63.015	18379.4	63.43	18379.4	51.9513	18379.4	59.2432	18379.4	49.2034	18379.4	54.2076	18379.4	51.492	18379.4	52.1493	18379.4	47.6608	18379.4	41.3023	18379.4	44.6011	18379.4	43.1392	18379.4	40.3397	18379.4	38.1671	18379.4	42.9715	18379.4	42.7294	18379.4	45.4125	18379.4	41.5562	18379.4	45.5353	18379.4	39.1113	18379.4	40.3535
19026.9	86.1618	19026.9	85.0534	19026.9	85.2024	19026.9	82.8813	19026.9	82.4005	19026.9	78.7175	19026.9	77.8871	19026.9	74.7676	19026.9	73.163	19026.9	69.589	19026.9	70.0058	19026.9	66.4858	19026.9	70.2655	19026.9	58.9424	19026.9	66.9344	19026.9	59.481	19026.9	62.7205	19026.9	48.1051	19026.9	58.0045	19026.9	45.5102	19026.9	53.5658	19026.9	49.7866	19026.9	50.2055	19026.9	47.797	19026.9	44.1871	19026.9	41.3738	19026.9	39.6561	19026.9	39.7763	19026.9	34.8215	19026.9	43.9758	19026.9	40.943	19026.9	42.9504	19026.9	41.4653	19026.9	43.3933	19026.9	35.5818	19026.9	34.8649
19697.8	85.8606	19697.8	84.7121	19697.8	84.7825	19697.8	82.3205	19697.8	81.5694	19697.8	77.5535	19697.8	75.9203	19697.8	72.7183	19697.8	70.75	19697.8	67.0642	19697.8	68.6778	19697.8	67.4178	19697.8	70.7376	19697.8	59.6544	19697.8	66.9488	19697.8	58.5049	19697.8	61.2055	19697.8	49.6975	19697.8	56.8437	19697.8	43.3126	19697.8	51.1154	19697.8	48.4158	19697.8	48.16	19697.8	47.5752	19697.8	45.989	19697.8	38.3937	19697.8	36.5487	19697.8	37.7948	19697.8	35.0149	19697.8	44.7164	19697.8	39.6597	19697.8	42.029	19697.8	39.7925	19697.8	42.3972	19697.8	34.2799	19697.8	35.2716
19999.5	86.1799	19999.5	84.5306	19999.5	84.5268	19999.5	81.883	19999.5	81.2402	19999.5	77.2485	19999.5	75.5915	19999.5	72.0024	19999.5	70.3238	19999.5	67.647	19999.5	69.6255	19999.5	68.1219	19999.5	71.4244	19999.5	61.3495	19999.5	67.3054	19999.5	61.127	19999.5	60.7354	19999.5	56.8296	19999.5	57.3451	19999.5	47.0834	19999.5	51.8404	19999.5	49.5191	19999.5	53.0888	19999.5	49.3746	19999.5	44.5155	19999.5	42.2391	19999.5	49.7177	19999.5	47.3886	19999.5	50.4532	19999.5	51.1359	19999.5	48.5757	19999.5	47.8913	19999.5	50.675	19999.5	39.196	19999.5	48.0137	19999.5	50.7722
