"SPL Vertical"
"On-Axis"		"10°"		"-10°"		"20°"		"-20°"		"30°"		"-30°"		"40°"		"-40°"		"50°"		"-50°"		"60°"		"-60°"		"70°"		"-70°"		"80°"		"-80°"		"90°"		"-90°"		"100°"		"-100°"		"110°"		"-110°"		"120°"		"-120°"		"130°"		"-130°"		"140°"		"-140°"		"150°"		"-150°"		"160°"		"-160°"		"170°"		"-170°"		"180°"
"Frequency / Hz"	"Sound Pressure Level / dB (re 20 µPa/V)  [2.83V at 1m]"	"Frequency / Hz"	"Sound Pressure Level / dB (re 20 µPa/V)  [2.83V at 1m]"	"Frequency / Hz"	"Sound Pressure Level / dB (re 20 µPa/V)  [2.83V at 1m]"	"Frequency / Hz"	"Sound Pressure Level / dB (re 20 µPa/V)  [2.83V at 1m]"	"Frequency / Hz"	"Sound Pressure Level / dB (re 20 µPa/V)  [2.83V at 1m]"	"Frequency / Hz"	"Sound Pressure Level / dB (re 20 µPa/V)  [2.83V at 1m]"	"Frequency / Hz"	"Sound Pressure Level / dB (re 20 µPa/V)  [2.83V at 1m]"	"Frequency / Hz"	"Sound Pressure Level / dB (re 20 µPa/V)  [2.83V at 1m]"	"Frequency / Hz"	"Sound Pressure Level / dB (re 20 µPa/V)  [2.83V at 1m]"	"Frequency / Hz"	"Sound Pressure Level / dB (re 20 µPa/V)  [2.83V at 1m]"	"Frequency / Hz"	"Sound Pressure Level / dB (re 20 µPa/V)  [2.83V at 1m]"	"Frequency / Hz"	"Sound Pressure Level / dB (re 20 µPa/V)  [2.83V at 1m]"	"Frequency / Hz"	"Sound Pressure Level / dB (re 20 µPa/V)  [2.83V at 1m]"	"Frequency / Hz"	"Sound Pressure Level / dB (re 20 µPa/V)  [2.83V at 1m]"	"Frequency / Hz"	"Sound Pressure Level / dB (re 20 µPa/V)  [2.83V at 1m]"	"Frequency / Hz"	"Sound Pressure Level / dB (re 20 µPa/V)  [2.83V at 1m]"	"Frequency / Hz"	"Sound Pressure Level / dB (re 20 µPa/V)  [2.83V at 1m]"	"Frequency / Hz"	"Sound Pressure Level / dB (re 20 µPa/V)  [2.83V at 1m]"	"Frequency / Hz"	"Sound Pressure Level / dB (re 20 µPa/V)  [2.83V at 1m]"	"Frequency / Hz"	"Sound Pressure Level / dB (re 20 µPa/V)  [2.83V at 1m]"	"Frequency / Hz"	"Sound Pressure Level / dB (re 20 µPa/V)  [2.83V at 1m]"	"Frequency / Hz"	"Sound Pressure Level / dB (re 20 µPa/V)  [2.83V at 1m]"	"Frequency / Hz"	"Sound Pressure Level / dB (re 20 µPa/V)  [2.83V at 1m]"	"Frequency / Hz"	"Sound Pressure Level / dB (re 20 µPa/V)  [2.83V at 1m]"	"Frequency / Hz"	"Sound Pressure Level / dB (re 20 µPa/V)  [2.83V at 1m]"	"Frequency / Hz"	"Sound Pressure Level / dB (re 20 µPa/V)  [2.83V at 1m]"	"Frequency / Hz"	"Sound Pressure Level / dB (re 20 µPa/V)  [2.83V at 1m]"	"Frequency / Hz"	"Sound Pressure Level / dB (re 20 µPa/V)  [2.83V at 1m]"	"Frequency / Hz"	"Sound Pressure Level / dB (re 20 µPa/V)  [2.83V at 1m]"	"Frequency / Hz"	"Sound Pressure Level / dB (re 20 µPa/V)  [2.83V at 1m]"	"Frequency / Hz"	"Sound Pressure Level / dB (re 20 µPa/V)  [2.83V at 1m]"	"Frequency / Hz"	"Sound Pressure Level / dB (re 20 µPa/V)  [2.83V at 1m]"	"Frequency / Hz"	"Sound Pressure Level / dB (re 20 µPa/V)  [2.83V at 1m]"	"Frequency / Hz"	"Sound Pressure Level / dB (re 20 µPa/V)  [2.83V at 1m]"	"Frequency / Hz"	"Sound Pressure Level / dB (re 20 µPa/V)  [2.83V at 1m]"	"Frequency / Hz"	"Sound Pressure Level / dB (re 20 µPa/V)  [2.83V at 1m]"
20.5078	38.8572	20.5078	38.9884	20.5078	38.7271	20.5078	39.112	20.5078	38.6072	20.5078	39.2199	20.5078	38.5059	20.5078	39.3058	20.5078	38.4301	20.5078	39.3657	20.5078	38.385	20.5078	39.3981	20.5078	38.373	20.5078	39.4047	20.5078	38.3942	20.5078	39.39	20.5078	38.4466	20.5078	39.3615	20.5078	38.5262	20.5078	39.3286	20.5078	38.6277	20.5078	39.301	20.5078	38.7448	20.5078	39.2869	20.5078	38.8707	20.5078	39.2907	20.5078	38.9977	20.5078	39.3114	20.5078	39.118	20.5078	39.3425	20.5078	39.2238	20.5078	39.3738	20.5078	39.3079	20.5078	39.394	20.5078	39.365	20.5078	39.3931
21.9727	49.6572	21.9727	49.8142	21.9727	49.5256	21.9727	49.9944	21.9727	49.4218	21.9727	50.1955	21.9727	49.3482	21.9727	50.4156	21.9727	49.3069	21.9727	50.6527	21.9727	49.2999	21.9727	50.9045	21.9727	49.3288	21.9727	51.1676	21.9727	49.3949	21.9727	51.4369	21.9727	49.4996	21.9727	51.7049	21.9727	49.6436	21.9727	51.9613	21.9727	49.8274	21.9727	52.1935	21.9727	50.0505	21.9727	52.3873	21.9727	50.3106	21.9727	52.5283	21.9727	50.6032	21.9727	52.6043	21.9727	50.9204	21.9727	52.6063	21.9727	51.2508	21.9727	52.5307	21.9727	51.5794	21.9727	52.3796	21.9727	51.8889	21.9727	52.1612
23.4375	47.5171	23.4375	47.6591	23.4375	47.3884	23.4375	47.8111	23.4375	47.2763	23.4375	47.9705	23.4375	47.184	23.4375	48.1344	23.4375	47.1143	23.4375	48.3008	23.4375	47.0695	23.4375	48.4672	23.4375	47.0514	23.4375	48.6311	23.4375	47.0613	23.4375	48.7892	23.4375	47.1	23.4375	48.937	23.4375	47.1682	23.4375	49.0688	23.4375	47.2662	23.4375	49.1777	23.4375	47.3939	23.4375	49.2563	23.4375	47.5504	23.4375	49.2973	23.4375	47.7335	23.4375	49.2944	23.4375	47.9389	23.4375	49.244	23.4375	48.1602	23.4375	49.1455	23.4375	48.3885	23.4375	49.0023	23.4375	48.613	23.4375	48.8215
24.9023	44.9695	24.9023	44.9762	24.9023	44.9538	24.9023	44.9718	24.9023	44.9313	24.9023	44.9543	24.9023	44.9037	24.9023	44.9224	24.9023	44.8722	24.9023	44.8759	24.9023	44.8373	24.9023	44.8154	24.9023	44.7991	24.9023	44.7432	24.9023	44.7574	24.9023	44.6624	24.9023	44.712	24.9023	44.5772	24.9023	44.6628	24.9023	44.4925	24.9023	44.6101	24.9023	44.413	24.9023	44.5546	24.9023	44.3432	24.9023	44.4976	24.9023	44.2863	24.9023	44.4407	24.9023	44.2445	24.9023	44.3859	24.9023	44.2183	24.9023	44.3352	24.9023	44.2073	24.9023	44.2905	24.9023	44.2106	24.9023	44.2538	24.9023	44.2266
26.3672	50.7945	26.3672	50.7865	26.3672	50.7989	26.3672	50.775	26.3672	50.7995	26.3672	50.7598	26.3672	50.7957	26.3672	50.7406	26.3672	50.7868	26.3672	50.717	26.3672	50.7721	26.3672	50.6886	26.3672	50.7508	26.3672	50.6553	26.3672	50.7225	26.3672	50.6173	26.3672	50.6871	26.3672	50.5751	26.3672	50.6449	26.3672	50.5298	26.3672	50.5968	26.3672	50.4827	26.3672	50.5443	26.3672	50.4356	26.3672	50.4897	26.3672	50.3905	26.3672	50.4356	26.3672	50.3497	26.3672	50.3849	26.3672	50.3153	26.3672	50.3408	26.3672	50.2897	26.3672	50.306	26.3672	50.2748	26.3672	50.2828	26.3672	50.2723
27.832	51.7194	27.832	51.7129	27.832	51.7141	27.832	51.693	27.832	51.6984	27.832	51.6584	27.832	51.6734	27.832	51.6081	27.832	51.6397	27.832	51.5415	27.832	51.5978	27.832	51.4592	27.832	51.5483	27.832	51.3629	27.832	51.4913	27.832	51.2556	27.832	51.4273	27.832	51.1413	27.832	51.3567	27.832	51.0254	27.832	51.2803	27.832	50.9138	27.832	51.1989	27.832	50.8128	27.832	51.114	27.832	50.7281	27.832	51.027	27.832	50.6646	27.832	50.9402	27.832	50.6256	27.832	50.8563	27.832	50.6123	27.832	50.7786	27.832	50.624	27.832	50.7111	27.832	50.6581
29.2969	52.6942	29.2969	52.7032	29.2969	52.6786	29.2969	52.705	29.2969	52.6566	29.2969	52.6993	29.2969	52.6286	29.2969	52.6854	29.2969	52.5948	29.2969	52.6628	29.2969	52.5555	29.2969	52.6312	29.2969	52.511	29.2969	52.5905	29.2969	52.462	29.2969	52.5412	29.2969	52.4093	29.2969	52.4842	29.2969	52.3539	29.2969	52.4209	29.2969	52.297	29.2969	52.3535	29.2969	52.2402	29.2969	52.2847	29.2969	52.1854	29.2969	52.2175	29.2969	52.1345	29.2969	52.1553	29.2969	52.0896	29.2969	52.1014	29.2969	52.0531	29.2969	52.0586	29.2969	52.0271	29.2969	52.0291	29.2969	52.0136	29.2969	52.014
30.7617	55.206	30.7617	55.1712	30.7617	55.226	30.7617	55.1218	30.7617	55.2308	30.7617	55.0581	30.7617	55.2203	30.7617	54.9806	30.7617	55.1945	30.7617	54.8901	30.7617	55.1532	30.7617	54.7873	30.7617	55.0966	30.7617	54.6739	30.7617	55.0252	30.7617	54.5516	30.7617	54.9394	30.7617	54.4234	30.7617	54.8404	30.7617	54.2929	30.7617	54.7295	30.7617	54.1648	30.7617	54.6087	30.7617	54.0449	30.7617	54.4806	30.7617	53.9395	30.7617	54.3487	30.7617	53.8551	30.7617	54.2176	30.7617	53.7974	30.7617	54.0926	30.7617	53.7708	30.7617	53.9798	30.7617	53.7773	30.7617	53.8858	30.7617	53.8167
32.2266	58.0951	32.2266	58.0934	32.2266	58.0931	32.2266	58.0879	32.2266	58.0873	32.2266	58.0785	32.2266	58.0782	32.2266	58.0653	32.2266	58.0657	32.2266	58.0486	32.2266	58.0503	32.2266	58.0286	32.2266	58.0322	32.2266	58.006	32.2266	58.012	32.2266	57.9814	32.2266	57.99	32.2266	57.9556	32.2266	57.967	32.2266	57.9297	32.2266	57.9435	32.2266	57.9046	32.2266	57.9202	32.2266	57.8814	32.2266	57.8979	32.2266	57.8609	32.2266	57.8772	32.2266	57.8438	32.2266	57.8587	32.2266	57.8308	32.2266	57.8431	32.2266	57.822	32.2266	57.8309	32.2266	57.8177	32.2266	57.8223	32.2266	57.8179
33.6914	59.2938	33.6914	59.2819	33.6914	59.2991	33.6914	59.2636	33.6914	59.2977	33.6914	59.2393	33.6914	59.2895	33.6914	59.2095	33.6914	59.2748	33.6914	59.1749	33.6914	59.2539	33.6914	59.1363	33.6914	59.2272	33.6914	59.0947	33.6914	59.1955	33.6914	59.0513	33.6914	59.1595	33.6914	59.0073	33.6914	59.1202	33.6914	58.9643	33.6914	59.0786	33.6914	58.9237	33.6914	59.036	33.6914	58.8871	33.6914	58.9935	33.6914	58.8558	33.6914	58.9525	33.6914	58.831	33.6914	58.9141	33.6914	58.8138	33.6914	58.8798	33.6914	58.8048	33.6914	58.8506	33.6914	58.8042	33.6914	58.8277	33.6914	58.812
35.1562	61.1367	35.1562	61.1253	35.1562	61.1442	35.1562	61.1103	35.1562	61.1473	35.1562	61.0924	35.1562	61.146	35.1562	61.072	35.1562	61.1403	35.1562	61.05	35.1562	61.1305	35.1562	61.027	35.1562	61.1169	35.1562	61.0038	35.1562	61.1	35.1562	60.9811	35.1562	61.0806	35.1562	60.9597	35.1562	61.0594	35.1562	60.9404	35.1562	61.0372	35.1562	60.9236	35.1562	61.0148	35.1562	60.9099	35.1562	60.9929	35.1562	60.8995	35.1562	60.9722	35.1562	60.8926	35.1562	60.9531	35.1562	60.8893	35.1562	60.936	35.1562	60.8895	35.1562	60.9212	35.1562	60.893	35.1562	60.909	35.1562	60.8995
36.6211	62.801	36.6211	62.7901	36.6211	62.8034	36.6211	62.7709	36.6211	62.7972	36.6211	62.7439	36.6211	62.7825	36.6211	62.7097	36.6211	62.7597	36.6211	62.6693	36.6211	62.7294	36.6211	62.6237	36.6211	62.6924	36.6211	62.5742	36.6211	62.6497	36.6211	62.5222	36.6211	62.6025	36.6211	62.4694	36.6211	62.5522	36.6211	62.4173	36.6211	62.5001	36.6211	62.3677	36.6211	62.448	36.6211	62.3221	36.6211	62.3972	36.6211	62.2822	36.6211	62.3496	36.6211	62.2491	36.6211	62.3064	36.6211	62.2242	36.6211	62.2693	36.6211	62.2083	36.6211	62.2393	36.6211	62.2018	36.6211	62.2176	36.6211	62.2049
38.0859	64.3646	38.0859	64.3541	38.0859	64.3671	38.0859	64.3359	38.0859	64.3616	38.0859	64.3106	38.0859	64.3482	38.0859	64.2789	38.0859	64.3272	38.0859	64.2416	38.0859	64.2992	38.0859	64.1998	38.0859	64.2649	38.0859	64.1547	38.0859	64.2253	38.0859	64.1075	38.0859	64.1816	38.0859	64.0597	38.0859	64.1349	38.0859	64.0127	38.0859	64.0867	38.0859	63.9678	38.0859	64.0385	38.0859	63.9265	38.0859	63.9917	38.0859	63.89	38.0859	63.9477	38.0859	63.8596	38.0859	63.9081	38.0859	63.8363	38.0859	63.8741	38.0859	63.821	38.0859	63.8468	38.0859	63.8142	38.0859	63.8274	38.0859	63.8164
39.5508	65.6899	39.5508	65.6711	39.5508	65.7026	39.5508	65.6468	39.5508	65.7086	39.5508	65.6178	39.5508	65.7079	39.5508	65.5852	39.5508	65.7005	39.5508	65.55	39.5508	65.6866	39.5508	65.5134	39.5508	65.6667	39.5508	65.4767	39.5508	65.6416	39.5508	65.441	39.5508	65.6121	39.5508	65.4073	39.5508	65.5792	39.5508	65.3767	39.5508	65.5441	39.5508	65.35	39.5508	65.5078	39.5508	65.3279	39.5508	65.4715	39.5508	65.3108	39.5508	65.4364	39.5508	65.2991	39.5508	65.4034	39.5508	65.2931	39.5508	65.3734	39.5508	65.2928	39.5508	65.3474	39.5508	65.2983	39.5508	65.3259	39.5508	65.3094
41.0156	66.8701	41.0156	66.8516	41.0156	66.8819	41.0156	66.8273	41.0156	66.8866	41.0156	66.7978	41.0156	66.8842	41.0156	66.7641	41.0156	66.8745	41.0156	66.7274	41.0156	66.858	41.0156	66.6888	41.0156	66.8351	41.0156	66.6497	41.0156	66.8067	41.0156	66.6111	41.0156	66.7736	41.0156	66.5743	41.0156	66.7369	41.0156	66.5404	41.0156	66.698	41.0156	66.5102	41.0156	66.6581	41.0156	66.4845	41.0156	66.6185	41.0156	66.464	41.0156	66.5805	41.0156	66.449	41.0156	66.5452	41.0156	66.44	41.0156	66.5138	41.0156	66.4371	41.0156	66.487	41.0156	66.4404	41.0156	66.4656	41.0156	66.4499
42.4805	68.2084	42.4805	68.1898	42.4805	68.2203	42.4805	68.1653	42.4805	68.2251	42.4805	68.1358	42.4805	68.2226	42.4805	68.1022	42.4805	68.2127	42.4805	68.0657	42.4805	68.1958	42.4805	68.0273	42.4805	68.1723	42.4805	67.9884	42.4805	68.1431	42.4805	67.9499	42.4805	68.1091	42.4805	67.9131	42.4805	68.0714	42.4805	67.8788	42.4805	68.0315	42.4805	67.848	42.4805	67.9905	42.4805	67.8214	42.4805	67.9499	42.4805	67.7996	42.4805	67.9109	42.4805	67.7833	42.4805	67.8749	42.4805	67.7729	42.4805	67.8429	42.4805	67.7686	42.4805	67.8159	42.4805	67.7707	42.4805	67.7946	42.4805	67.7794
43.9453	69.2066	43.9453	69.1905	43.9453	69.215	43.9453	69.1674	43.9453	69.2154	43.9453	69.138	43.9453	69.2078	43.9453	69.1035	43.9453	69.1923	43.9453	69.065	43.9453	69.1694	43.9453	69.0237	43.9453	69.14	43.9453	68.981	43.9453	69.1051	43.9453	68.9383	43.9453	69.0657	43.9453	68.8968	43.9453	69.0234	43.9453	68.8577	43.9453	68.9794	43.9453	68.8222	43.9453	68.9354	43.9453	68.7911	43.9453	68.8928	43.9453	68.7651	43.9453	68.8528	43.9453	68.7449	43.9453	68.8168	43.9453	68.7308	43.9453	68.7856	43.9453	68.7232	43.9453	68.7601	43.9453	68.7223	43.9453	68.7409	43.9453	68.7282
45.4102	70.1035	45.4102	70.0882	45.4102	70.1107	45.4102	70.0656	45.4102	70.1096	45.4102	70.0364	45.4102	70.1003	45.4102	70.0015	45.4102	70.0829	45.4102	69.9622	45.4102	70.058	45.4102	69.9199	45.4102	70.0265	45.4102	69.8758	45.4102	69.9895	45.4102	69.8313	45.4102	69.9481	45.4102	69.7878	45.4102	69.9039	45.4102	69.7466	45.4102	69.8582	45.4102	69.7088	45.4102	69.8126	45.4102	69.6754	45.4102	69.7685	45.4102	69.6471	45.4102	69.7275	45.4102	69.6248	45.4102	69.6906	45.4102	69.6087	45.4102	69.6589	45.4102	69.5995	45.4102	69.6332	45.4102	69.5972	45.4102	69.6142	45.4102	69.6021
46.875	70.9552	46.875	70.9403	46.875	70.9623	46.875	70.9183	46.875	70.9613	46.875	70.8897	46.875	70.9522	46.875	70.8558	46.875	70.9353	46.875	70.8176	46.875	70.9112	46.875	70.7764	46.875	70.8806	46.875	70.7335	46.875	70.8446	46.875	70.6903	46.875	70.8045	46.875	70.6481	46.875	70.7615	46.875	70.6082	46.875	70.7171	46.875	70.5716	46.875	70.6729	46.875	70.5392	46.875	70.6302	46.875	70.5119	46.875	70.5903	46.875	70.4903	46.875	70.5545	46.875	70.4749	46.875	70.5238	46.875	70.4659	46.875	70.4988	46.875	70.4638	46.875	70.4803	46.875	70.4686
48.3398	71.7678	48.3398	71.7533	48.3398	71.7741	48.3398	71.7311	48.3398	71.772	48.3398	71.702	48.3398	71.7614	48.3398	71.6671	48.3398	71.7428	48.3398	71.6275	48.3398	71.7167	48.3398	71.5846	48.3398	71.684	48.3398	71.5398	48.3398	71.6458	48.3398	71.4944	48.3398	71.6035	48.3398	71.4499	48.3398	71.5583	48.3398	71.4076	48.3398	71.5119	48.3398	71.3685	48.3398	71.4657	48.3398	71.3338	48.3398	71.4212	48.3398	71.3043	48.3398	71.3798	48.3398	71.2808	48.3398	71.3427	48.3398	71.2636	48.3398	71.3108	48.3398	71.2534	48.3398	71.2852	48.3398	71.2503	48.3398	71.2663	48.3398	71.2547
51.2695	73.132	51.2695	73.1173	51.2695	73.1383	51.2695	73.0948	51.2695	73.1362	51.2695	73.0655	51.2695	73.1255	51.2695	73.0304	51.2695	73.1066	51.2695	72.9907	51.2695	73.0802	51.2695	72.9478	51.2695	73.0473	51.2695	72.9033	51.2695	73.0089	51.2695	72.8585	51.2695	72.9666	51.2695	72.8148	51.2695	72.9217	51.2695	72.7736	51.2695	72.8759	51.2695	72.7359	51.2695	72.8306	51.2695	72.7027	51.2695	72.7873	51.2695	72.6747	51.2695	72.7473	51.2695	72.6525	51.2695	72.7117	51.2695	72.6366	51.2695	72.6814	51.2695	72.6271	51.2695	72.6572	51.2695	72.6244	51.2695	72.6395	51.2695	72.6285
52.7344	73.7921	52.7344	73.7776	52.7344	73.7983	52.7344	73.7554	52.7344	73.796	52.7344	73.7262	52.7344	73.7851	52.7344	73.6911	52.7344	73.7662	52.7344	73.6514	52.7344	73.7398	52.7344	73.6086	52.7344	73.7071	52.7344	73.564	52.7344	73.6691	52.7344	73.5192	52.7344	73.6273	52.7344	73.4757	52.7344	73.5831	52.7344	73.4346	52.7344	73.538	52.7344	73.3973	52.7344	73.4936	52.7344	73.3645	52.7344	73.4511	52.7344	73.3371	52.7344	73.4119	52.7344	73.3156	52.7344	73.377	52.7344	73.3004	52.7344	73.3472	52.7344	73.2916	52.7344	73.3232	52.7344	73.2895	52.7344	73.3054	52.7344	73.2941
54.1992	74.4266	54.1992	74.4126	54.1992	74.4321	54.1992	74.3907	54.1992	74.4289	54.1992	74.3616	54.1992	74.4172	54.1992	74.3265	54.1992	74.3972	54.1992	74.2866	54.1992	74.3699	54.1992	74.2433	54.1992	74.3361	54.1992	74.1983	54.1992	74.2972	54.1992	74.1529	54.1992	74.2546	54.1992	74.1088	54.1992	74.2097	54.1992	74.0672	54.1992	74.1642	54.1992	74.0293	54.1992	74.1196	54.1992	73.996	54.1992	74.0771	54.1992	73.9682	54.1992	74.0382	54.1992	73.9463	54.1992	74.0036	54.1992	73.9307	54.1992	73.9744	54.1992	73.9216	54.1992	73.9509	54.1992	73.919	54.1992	73.9338	54.1992	73.9231
55.6641	75.0104	55.6641	74.9964	55.6641	75.0156	55.6641	74.9742	55.6641	75.0118	55.6641	74.9446	55.6641	74.9991	55.6641	74.9088	55.6641	74.9781	55.6641	74.868	55.6641	74.9494	55.6641	74.8238	55.6641	74.9141	55.6641	74.7777	55.6641	74.8736	55.6641	74.7313	55.6641	74.8293	55.6641	74.6861	55.6641	74.7829	55.6641	74.6434	55.6641	74.736	55.6641	74.6045	55.6641	74.6901	55.6641	74.5702	55.6641	74.6466	55.6641	74.5414	55.6641	74.6069	55.6641	74.5186	55.6641	74.572	55.6641	74.5021	55.6641	74.5425	55.6641	74.4921	55.6641	74.5192	55.6641	74.4888	55.6641	74.5024	55.6641	74.4922
58.5938	76.0975	58.5938	76.0836	58.5938	76.1022	58.5938	76.0611	58.5938	76.0977	58.5938	76.0311	58.5938	76.084	58.5938	75.9945	58.5938	76.0616	58.5938	75.9529	58.5938	76.0314	58.5938	75.9078	58.5938	75.9945	58.5938	75.8608	58.5938	75.9524	58.5938	75.8136	58.5938	75.9067	58.5938	75.7676	58.5938	75.859	58.5938	75.7244	58.5938	75.8111	58.5938	75.6851	58.5938	75.7645	58.5938	75.6506	58.5938	75.7208	58.5938	75.6215	58.5938	75.6811	58.5938	75.5984	58.5938	75.6465	58.5938	75.5816	58.5938	75.6177	58.5938	75.5712	58.5938	75.5952	58.5938	75.5673	58.5938	75.5793	58.5938	75.5699
60.0586	76.5988	60.0586	76.5839	60.0586	76.6042	60.0586	76.5603	60.0586	76.5999	60.0586	76.5287	60.0586	76.5861	60.0586	76.4905	60.0586	76.5633	60.0586	76.4471	60.0586	76.5324	60.0586	76.4003	60.0586	76.4947	60.0586	76.3517	60.0586	76.4515	60.0586	76.3032	60.0586	76.4046	60.0586	76.2562	60.0586	76.3557	60.0586	76.2123	60.0586	76.3067	60.0586	76.1727	60.0586	76.2591	60.0586	76.1383	60.0586	76.2145	60.0586	76.1096	60.0586	76.1742	60.0586	76.0871	60.0586	76.1391	60.0586	76.0709	60.0586	76.1099	60.0586	76.0612	60.0586	76.0871	60.0586	76.0579	60.0586	76.0708	60.0586	76.0611
62.9883	77.4388	62.9883	77.4204	62.9883	77.4473	62.9883	77.3927	62.9883	77.4455	62.9883	77.3567	62.9883	77.4336	62.9883	77.3137	62.9883	77.4119	62.9883	77.2652	62.9883	77.3814	62.9883	77.213	62.9883	77.3432	62.9883	77.1588	62.9883	77.2987	62.9883	77.1045	62.9883	77.2496	62.9883	77.0519	62.9883	77.1976	62.9883	77.0026	62.9883	77.1444	62.9883	76.9581	62.9883	77.0919	62.9883	76.9196	62.9883	77.0415	62.9883	76.8879	62.9883	76.9947	62.9883	76.8639	62.9883	76.9527	62.9883	76.8477	62.9883	76.9164	62.9883	76.8397	62.9883	76.8864	62.9883	76.8398	62.9883	76.8634	62.9883	76.8477
64.4531	77.9655	64.4531	77.9457	64.4531	77.9751	64.4531	77.9165	64.4531	77.9743	64.4531	77.8788	64.4531	77.9631	64.4531	77.8341	64.4531	77.942	64.4531	77.7839	64.4531	77.9118	64.4531	77.73	64.4531	77.8738	64.4531	77.6743	64.4531	77.8293	64.4531	77.6188	64.4531	77.7799	64.4531	77.5652	64.4531	77.7275	64.4531	77.5152	64.4531	77.6738	64.4531	77.4705	64.4531	77.6206	64.4531	77.4321	64.4531	77.5694	64.4531	77.401	64.4531	77.5216	64.4531	77.3778	64.4531	77.4784	64.4531	77.3629	64.4531	77.4407	64.4531	77.3563	64.4531	77.4093	64.4531	77.3579	64.4531	77.3847	64.4531	77.3674
67.3828	78.8292	67.3828	78.8068	67.3828	78.8417	67.3828	78.7753	67.3828	78.8441	67.3828	78.7357	67.3828	78.8363	67.3828	78.6894	67.3828	78.8189	67.3828	78.6381	67.3828	78.7924	67.3828	78.5835	67.3828	78.7581	67.3828	78.5277	67.3828	78.7172	67.3828	78.4726	67.3828	78.6712	67.3828	78.4201	67.3828	78.6217	67.3828	78.3719	67.3828	78.5704	67.3828	78.3295	67.3828	78.5189	67.3828	78.2941	67.3828	78.4685	67.3828	78.2665	67.3828	78.4207	67.3828	78.2473	67.3828	78.3766	67.3828	78.2366	67.3828	78.3371	67.3828	78.2344	67.3828	78.3031	67.3828	78.2404	67.3828	78.2753	67.3828	78.2542
68.8477	79.2654	68.8477	79.242	68.8477	79.2789	68.8477	79.2094	68.8477	79.2823	68.8477	79.1687	68.8477	79.2754	68.8477	79.1213	68.8477	79.2588	68.8477	79.069	68.8477	79.2332	68.8477	79.0136	68.8477	79.1998	68.8477	78.9573	68.8477	79.1598	68.8477	78.9019	68.8477	79.1148	68.8477	78.8494	68.8477	79.0663	68.8477	78.8017	68.8477	79.0159	68.8477	78.7602	68.8477	78.9652	68.8477	78.7261	68.8477	78.9155	68.8477	78.7002	68.8477	78.8681	68.8477	78.683	68.8477	78.8241	68.8477	78.6744	68.8477	78.7843	68.8477	78.6743	68.8477	78.7496	68.8477	78.6824	68.8477	78.7206	68.8477	78.698
71.7773	80.0831	71.7773	80.0582	71.7773	80.0974	71.7773	80.0236	71.7773	80.1009	71.7773	79.9803	71.7773	80.0937	71.7773	79.9299	71.7773	80.0762	71.7773	79.8742	71.7773	80.0493	71.7773	79.8153	71.7773	80.0142	71.7773	79.7553	71.7773	79.9724	71.7773	79.6964	71.7773	79.9254	71.7773	79.6408	71.7773	79.8749	71.7773	79.5905	71.7773	79.8225	71.7773	79.547	71.7773	79.7698	71.7773	79.5116	71.7773	79.7181	71.7773	79.4851	71.7773	79.6687	71.7773	79.4679	71.7773	79.6227	71.7773	79.46	71.7773	79.5809	71.7773	79.4612	71.7773	79.5441	71.7773	79.4709	71.7773	79.513	71.7773	79.4884
74.707	80.8457	74.707	80.8218	74.707	80.8588	74.707	80.788	74.707	80.8611	74.707	80.7451	74.707	80.8527	74.707	80.6948	74.707	80.8342	74.707	80.6388	74.707	80.8068	74.707	80.5791	74.707	80.7715	74.707	80.5182	74.707	80.7298	74.707	80.4581	74.707	80.6834	74.707	80.4014	74.707	80.6338	74.707	80.3499	74.707	80.5826	74.707	80.3056	74.707	80.5311	74.707	80.2697	74.707	80.4806	74.707	80.2431	74.707	80.4322	74.707	80.2263	74.707	80.3869	74.707	80.2193	74.707	80.3453	74.707	80.2215	74.707	80.3083	74.707	80.2323	74.707	80.2766	74.707	80.251
77.6367	81.561	77.6367	81.546	77.6367	81.5654	77.6367	81.521	77.6367	81.5594	77.6367	81.4867	77.6367	81.5433	77.6367	81.4444	77.6367	81.5182	77.6367	81.3957	77.6367	81.4851	77.6367	81.3425	77.6367	81.4456	77.6367	81.2869	77.6367	81.4013	77.6367	81.231	77.6367	81.354	77.6367	81.1769	77.6367	81.3052	77.6367	81.1266	77.6367	81.2566	77.6367	81.0819	77.6367	81.2094	77.6367	81.0441	77.6367	81.1647	77.6367	81.014	77.6367	81.1234	77.6367	80.9924	77.6367	81.0861	77.6367	80.9791	77.6367	81.0533	77.6367	80.9741	77.6367	81.0255	77.6367	80.9768	77.6367	81.0031	77.6367	80.9867
79.1016	81.8476	79.1016	81.8349	79.1016	81.8497	79.1016	81.8121	79.1016	81.8413	79.1016	81.7799	79.1016	81.8229	79.1016	81.7396	79.1016	81.7955	79.1016	81.6928	79.1016	81.7604	79.1016	81.6413	79.1016	81.7192	79.1016	81.5874	79.1016	81.6736	79.1016	81.533	79.1016	81.6256	79.1016	81.4802	79.1016	81.5768	79.1016	81.4311	79.1016	81.5289	79.1016	81.3871	79.1016	81.4831	79.1016	81.3496	79.1016	81.4406	79.1016	81.3194	79.1016	81.4021	79.1016	81.2971	79.1016	81.368	79.1016	81.2825	79.1016	81.3388	79.1016	81.2757	79.1016	81.3147	79.1016	81.2759	79.1016	81.2959	79.1016	81.2829
82.0312	82.3816	82.0312	82.3701	82.0312	82.3821	82.0312	82.3481	82.0312	82.3719	82.0312	82.3165	82.0312	82.3513	82.0312	82.2767	82.0312	82.3215	82.0312	82.2303	82.0312	82.2838	82.0312	82.1792	82.0312	82.24	82.0312	82.1256	82.0312	82.192	82.0312	82.0715	82.0312	82.1419	82.0312	82.019	82.0312	82.0915	82.0312	81.97	82.0312	82.0425	82.0312	81.926	82.0312	81.9965	82.0312	81.8882	82.0312	81.9545	82.0312	81.8574	82.0312	81.9171	82.0312	81.8339	82.0312	81.885	82.0312	81.8178	82.0312	81.8581	82.0312	81.8089	82.0312	81.8368	82.0312	81.8067	82.0312	81.8209	82.0312	81.8108
84.9609	82.9537	84.9609	82.9419	84.9609	82.9546	84.9609	82.9195	84.9609	82.9444	84.9609	82.8875	84.9609	82.9239	84.9609	82.8475	84.9609	82.8941	84.9609	82.8011	84.9609	82.8565	84.9609	82.7505	84.9609	82.813	84.9609	82.6978	84.9609	82.7656	84.9609	82.6453	84.9609	82.7166	84.9609	82.5951	84.9609	82.6679	84.9609	82.5488	84.9609	82.6212	84.9609	82.5081	84.9609	82.5779	84.9609	82.4738	84.9609	82.5391	84.9609	82.4467	84.9609	82.5052	84.9609	82.4267	84.9609	82.4765	84.9609	82.4136	84.9609	82.4528	84.9609	82.4069	84.9609	82.4341	84.9609	82.4061	84.9609	82.42	84.9609	82.4106
87.8906	83.4732	87.8906	83.4623	87.8906	83.4729	87.8906	83.4408	87.8906	83.4614	87.8906	83.4095	87.8906	83.4394	87.8906	83.3701	87.8906	83.408	87.8906	83.3245	87.8906	83.3689	87.8906	83.2746	87.8906	83.3241	87.8906	83.2229	87.8906	83.2758	87.8906	83.1716	87.8906	83.2263	87.8906	83.1226	87.8906	83.1777	87.8906	83.0779	87.8906	83.1318	87.8906	83.0387	87.8906	83.0901	87.8906	83.006	87.8906	83.0535	87.8906	82.9802	87.8906	83.0224	87.8906	82.9611	87.8906	82.9969	87.8906	82.9485	87.8906	82.9765	87.8906	82.9416	87.8906	82.961	87.8906	82.9399	87.8906	82.9498	87.8906	82.9427
90.8203	83.8689	90.8203	83.8568	90.8203	83.8694	90.8203	83.8335	90.8203	83.8582	90.8203	83.8003	90.8203	83.836	90.8203	83.7588	90.8203	83.8039	90.8203	83.7111	90.8203	83.7637	90.8203	83.6594	90.8203	83.7175	90.8203	83.6062	90.8203	83.6677	90.8203	83.5539	90.8203	83.6167	90.8203	83.5046	90.8203	83.5667	90.8203	83.4601	90.8203	83.5199	90.8203	83.4218	90.8203	83.4777	90.8203	83.3904	90.8203	83.4409	90.8203	83.3661	90.8203	83.4102	90.8203	83.3486	90.8203	83.3852	90.8203	83.3374	90.8203	83.3656	90.8203	83.3316	90.8203	83.3509	90.8203	83.3306	90.8203	83.3403	90.8203	83.3335
95.2148	84.4557	95.2148	84.443	95.2148	84.4559	95.2148	84.4183	95.2148	84.4437	95.2148	84.3829	95.2148	84.4197	95.2148	84.3385	95.2148	84.3852	95.2148	84.2873	95.2148	84.3421	95.2148	84.2317	95.2148	84.2927	95.2148	84.1743	95.2148	84.2395	95.2148	84.1178	95.2148	84.1851	95.2148	84.0646	95.2148	84.132	95.2148	84.0167	95.2148	84.0824	95.2148	83.9757	95.2148	84.0377	95.2148	83.9423	95.2148	83.9991	95.2148	83.9169	95.2148	83.9669	95.2148	83.899	95.2148	83.9408	95.2148	83.8879	95.2148	83.9204	95.2148	83.8826	95.2148	83.9048	95.2148	83.8822	95.2148	83.8935	95.2148	83.886
98.1445	84.7772	98.1445	84.7647	98.1445	84.7768	98.1445	84.74	98.1445	84.7636	98.1445	84.7042	98.1445	84.7382	98.1445	84.659	98.1445	84.7022	98.1445	84.6069	98.1445	84.6575	98.1445	84.5503	98.1445	84.6064	98.1445	84.4919	98.1445	84.5516	98.1445	84.4345	98.1445	84.496	98.1445	84.3806	98.1445	84.442	98.1445	84.3321	98.1445	84.3918	98.1445	84.2907	98.1445	84.3471	98.1445	84.2572	98.1445	84.3089	98.1445	84.2317	98.1445	84.2773	98.1445	84.2139	98.1445	84.2521	98.1445	84.2029	98.1445	84.2325	98.1445	84.1976	98.1445	84.2179	98.1445	84.197	98.1445	84.2073	98.1445	84.2004
101.074	85.005	101.074	84.994	101.074	85.0024	101.074	84.9701	101.074	84.9863	101.074	84.9344	101.074	84.9575	101.074	84.889	101.074	84.9176	101.074	84.8361	101.074	84.8686	101.074	84.7785	101.074	84.8133	101.074	84.719	101.074	84.7546	101.074	84.6605	101.074	84.6955	101.074	84.6054	101.074	84.6388	101.074	84.5559	101.074	84.5868	101.074	84.5134	101.074	84.5414	101.074	84.4789	101.074	84.5034	101.074	84.4522	101.074	84.473	101.074	84.433	101.074	84.4499	101.074	84.4203	101.074	84.4331	101.074	84.4129	101.074	84.4215	101.074	84.4098	101.074	84.4142	101.074	84.4103
105.469	85.3488	105.469	85.3364	105.469	85.3469	105.469	85.3103	105.469	85.3305	105.469	85.272	105.469	85.3007	105.469	85.2235	105.469	85.2587	105.469	85.1672	105.469	85.2069	105.469	85.1062	105.469	85.148	105.469	85.0434	105.469	85.0852	105.469	84.9817	105.469	85.0216	105.469	84.924	105.469	84.9604	105.469	84.8723	105.469	84.9042	105.469	84.8283	105.469	84.8552	105.469	84.7926	105.469	84.8145	105.469	84.7653	105.469	84.7824	105.469	84.7457	105.469	84.7584	105.469	84.7326	105.469	84.7416	105.469	84.7249	105.469	84.7305	105.469	84.7212	105.469	84.724	105.469	84.721
108.398	85.5718	108.398	85.5577	108.398	85.5716	108.398	85.5299	108.398	85.557	108.398	85.4901	108.398	85.5286	108.398	85.4404	108.398	85.4881	108.398	85.3834	108.398	85.4376	108.398	85.3219	108.398	85.3798	108.398	85.2592	108.398	85.3179	108.398	85.1983	108.398	85.2551	108.398	85.1417	108.398	85.1945	108.398	85.0917	108.398	85.1389	108.398	85.0497	108.398	85.0903	108.398	85.0162	108.398	85.05	108.398	84.9912	108.398	85.0181	108.398	84.9738	108.398	84.9943	108.398	84.9627	108.398	84.9774	108.398	84.9567	108.398	84.9661	108.398	84.9546	108.398	84.9591	108.398	84.9554
112.793	85.6535	112.793	85.6357	112.793	85.6565	112.793	85.6039	112.793	85.6444	112.793	85.5598	112.793	85.618	112.793	85.5059	112.793	85.5788	112.793	85.4451	112.793	85.5291	112.793	85.3805	112.793	85.4717	112.793	85.3155	112.793	85.4098	112.793	85.2535	112.793	85.3468	112.793	85.1971	112.793	85.286	112.793	85.1485	112.793	85.2301	112.793	85.1091	112.793	85.1812	112.793	85.0791	112.793	85.1406	112.793	85.0581	112.793	85.1084	112.793	85.045	112.793	85.0842	112.793	85.0382	112.793	85.0667	112.793	85.0359	112.793	85.0545	112.793	85.037	112.793	85.0461	112.793	85.0405
117.188	85.8279	117.188	85.8017	117.188	85.8386	117.188	85.761	117.188	85.8335	117.188	85.7077	117.188	85.8133	117.188	85.6445	117.188	85.7796	117.188	85.5748	117.188	85.7346	117.188	85.5023	117.188	85.6811	117.188	85.431	117.188	85.6225	117.188	85.3645	117.188	85.5621	117.188	85.3063	117.188	85.5031	117.188	85.2586	117.188	85.4482	117.188	85.223	117.188	85.3996	117.188	85.1995	117.188	85.3582	117.188	85.1873	117.188	85.3241	117.188	85.1847	117.188	85.2967	117.188	85.1893	117.188	85.2746	117.188	85.1988	117.188	85.2561	117.188	85.2112	117.188	85.24	117.188	85.2251
120.117	85.9445	120.117	85.9172	120.117	85.9559	120.117	85.8751	120.117	85.9513	120.117	85.8198	120.117	85.9317	120.117	85.7541	120.117	85.8987	120.117	85.6812	120.117	85.8545	120.117	85.605	120.117	85.8022	120.117	85.5295	120.117	85.745	120.117	85.4587	120.117	85.6862	120.117	85.3964	120.117	85.6289	120.117	85.3453	120.117	85.5756	120.117	85.3073	120.117	85.528	120.117	85.2829	120.117	85.487	120.117	85.2714	120.117	85.4524	120.117	85.2712	120.117	85.4232	120.117	85.2798	120.117	85.398	120.117	85.2946	120.117	85.3754	120.117	85.3129	120.117	85.354	120.117	85.3331
124.512	86.0135	124.512	85.9921	124.512	86.0185	124.512	85.955	124.512	86.007	124.512	85.9041	124.512	85.9803	124.512	85.842	124.512	85.9403	124.512	85.7721	124.512	85.8897	124.512	85.6982	124.512	85.8319	124.512	85.6246	124.512	85.7707	124.512	85.5553	124.512	85.7096	124.512	85.494	124.512	85.6521	124.512	85.4437	124.512	85.6008	124.512	85.4061	124.512	85.5573	124.512	85.3817	124.512	85.5222	124.512	85.3696	124.512	85.4949	124.512	85.3681	124.512	85.4739	124.512	85.3745	124.512	85.4572	124.512	85.386	124.512	85.4428	124.512	85.4001	124.512	85.4289	124.512	85.4147
128.906	86.1452	128.906	86.1239	128.906	86.1485	128.906	86.0858	128.906	86.1341	128.906	86.0326	128.906	86.1031	128.906	85.9673	128.906	86.0576	128.906	85.8935	128.906	86.0006	128.906	85.8153	128.906	85.9359	128.906	85.7373	128.906	85.8675	128.906	85.664	128.906	85.7997	128.906	85.5993	128.906	85.7364	128.906	85.5464	128.906	85.6806	128.906	85.507	128.906	85.6344	128.906	85.4815	128.906	85.5984	128.906	85.4689	128.906	85.5718	128.906	85.467	128.906	85.553	128.906	85.4728	128.906	85.5395	128.906	85.4832	128.906	85.5288	128.906	85.4955	128.906	85.5186	128.906	85.5075
133.301	86.1435	133.301	86.1205	133.301	86.1479	133.301	86.0796	133.301	86.1334	133.301	86.0231	133.301	86.1011	133.301	85.9539	133.301	86.053	133.301	85.8758	133.301	85.992	133.301	85.793	133.301	85.922	133.301	85.7102	133.301	85.8471	133.301	85.6322	133.301	85.772	133.301	85.563	133.301	85.7008	133.301	85.5057	133.301	85.6372	133.301	85.4624	133.301	85.5838	133.301	85.4335	133.301	85.5416	133.301	85.4178	133.301	85.5103	133.301	85.413	133.301	85.4883	133.301	85.4161	133.301	85.4733	133.301	85.424	133.301	85.4623	133.301	85.4338	133.301	85.453	133.301	85.4437
139.16	86.1613	139.16	86.1293	139.16	86.174	139.16	86.079	139.16	86.1672	139.16	86.0128	139.16	86.1417	139.16	85.9337	139.16	86.0996	139.16	85.8459	139.16	86.0435	139.16	85.754	139.16	85.9771	139.16	85.6632	139.16	85.9044	139.16	85.5785	139.16	85.8297	139.16	85.5046	139.16	85.7572	139.16	85.4448	139.16	85.6903	139.16	85.4014	139.16	85.6316	139.16	85.3745	139.16	85.5825	139.16	85.3629	139.16	85.5429	139.16	85.3639	139.16	85.5117	139.16	85.3741	139.16	85.4869	139.16	85.39	139.16	85.4659	139.16	85.4086	139.16	85.4467	139.16	85.4278
143.555	86.1763	143.555	86.1407	143.555	86.1923	143.555	86.0865	143.555	86.1886	143.555	86.0161	143.555	86.1664	143.555	85.9327	143.555	86.1279	143.555	85.8407	143.555	86.076	143.555	85.7451	143.555	86.0145	143.555	85.6516	143.555	85.9475	143.555	85.5656	143.555	85.8793	143.555	85.4921	143.555	85.8136	143.555	85.4348	143.555	85.7535	143.555	85.3958	143.555	85.701	143.555	85.3755	143.555	85.6568	143.555	85.3721	143.555	85.6204	143.555	85.3826	143.555	85.5902	143.555	85.4032	143.555	85.5639	143.555	85.4297	143.555	85.5391	143.555	85.4585	143.555	85.5139	143.555	85.487
147.949	86.2056	147.949	86.1723	147.949	86.2179	147.949	86.1188	147.949	86.2094	147.949	86.0471	147.949	86.1819	147.949	85.9607	147.949	86.138	147.949	85.864	147.949	86.0813	147.949	85.7626	147.949	86.016	147.949	85.6626	147.949	85.9469	147.949	85.5705	147.949	85.8786	147.949	85.4921	147.949	85.815	147.949	85.4321	147.949	85.7594	147.949	85.393	147.949	85.7133	147.949	85.3755	147.949	85.6767	147.949	85.3776	147.949	85.6483	147.949	85.3957	147.949	85.6254	147.949	85.4247	147.949	85.6048	147.949	85.4596	147.949	85.5834	147.949	85.4956	147.949	85.5586	147.949	85.5293
153.809	86.1981	153.809	86.1705	153.809	86.2037	153.809	86.1218	153.809	86.1878	153.809	86.0537	153.809	86.152	153.809	85.9693	153.809	86.0989	153.809	85.8729	153.809	86.032	153.809	85.7696	153.809	85.9559	153.809	85.6653	153.809	85.8753	153.809	85.5665	153.809	85.7953	153.809	85.4791	153.809	85.7206	153.809	85.4081	153.809	85.6547	153.809	85.3571	153.809	85.6001	153.809	85.3271	153.809	85.5573	153.809	85.3171	153.809	85.5252	153.809	85.3236	153.809	85.5013	153.809	85.3422	153.809	85.4821	153.809	85.3677	153.809	85.4642	153.809	85.3953	153.809	85.4445	153.809	85.4216
159.668	86.0483	159.668	86.0203	159.668	86.0552	159.668	85.9718	159.668	86.0418	159.668	85.9046	159.668	86.0096	159.668	85.8215	159.668	85.9616	159.668	85.7267	159.668	85.9012	159.668	85.6253	159.668	85.8327	159.668	85.5228	159.668	85.7605	159.668	85.4256	159.668	85.6889	159.668	85.3395	159.668	85.6217	159.668	85.2694	159.668	85.5618	159.668	85.2187	159.668	85.5106	159.668	85.1887	159.668	85.4683	159.668	85.1786	159.668	85.4337	159.668	85.1854	159.668	85.4049	159.668	85.2052	159.668	85.3789	159.668	85.2331	159.668	85.3534	159.668	85.2646	159.668	85.3261	159.668	85.2964
165.527	85.885	165.527	85.8635	165.527	85.8814	165.527	85.8175	165.527	85.854	165.527	85.7491	165.527	85.8056	165.527	85.6621	165.527	85.7405	165.527	85.5618	165.527	85.6641	165.527	85.4544	165.527	85.5826	165.527	85.347	165.527	85.5022	165.527	85.2467	165.527	85.4284	165.527	85.1599	165.527	85.3654	165.527	85.0917	165.527	85.3155	165.527	85.0451	165.527	85.2789	165.527	85.0205	165.527	85.2537	165.527	85.0162	165.527	85.2367	165.527	85.0286	165.527	85.2238	165.527	85.0529	165.527	85.211	165.527	85.0839	165.527	85.1952	165.527	85.1168	165.527	85.1743	165.527	85.1478
171.387	85.772	171.387	85.7608	171.387	85.7566	171.387	85.7231	171.387	85.7157	171.387	85.6607	171.387	85.6522	171.387	85.5769	171.387	85.5703	171.387	85.4762	171.387	85.4755	171.387	85.3651	171.387	85.3746	171.387	85.2508	171.387	85.275	171.387	85.1415	171.387	85.1841	171.387	85.045	171.387	85.1083	171.387	84.968	171.387	85.0518	171.387	84.9151	171.387	85.0164	171.387	84.8876	171.387	85.0003	171.387	84.8837	171.387	84.9995	171.387	84.8986	171.387	85.0077	171.387	84.9258	171.387	85.0182	171.387	84.9577	171.387	85.0248	171.387	84.9877	171.387	85.023	171.387	85.0105
177.246	85.7603	177.246	85.7472	177.246	85.7444	177.246	85.7061	177.246	85.7001	177.246	85.6393	177.246	85.6298	177.246	85.5508	177.246	85.5374	177.246	85.446	177.246	85.4286	177.246	85.3316	177.246	85.3103	177.246	85.2152	177.246	85.1906	177.246	85.1048	177.246	85.0781	177.246	85.0077	177.246	84.9805	177.246	84.9298	177.246	84.904	177.246	84.8746	177.246	84.8518	177.246	84.8428	177.246	84.824	177.246	84.8316	177.246	84.8173	177.246	84.836	177.246	84.826	177.246	84.8493	177.246	84.843	177.246	84.8649	177.246	84.8614	177.246	84.8766	177.246	84.8751	177.246	84.8806
183.105	85.8574	183.105	85.8307	183.105	85.8545	183.105	85.7752	183.105	85.8229	183.105	85.6931	183.105	85.7647	183.105	85.5884	183.105	85.6838	183.105	85.4665	183.105	85.5855	183.105	85.3342	183.105	85.4764	183.105	85.1999	183.105	85.3639	183.105	85.0722	183.105	85.2559	183.105	84.9598	183.105	85.1593	183.105	84.87	183.105	85.0796	183.105	84.8075	183.105	85.0199	183.105	84.7737	183.105	84.9799	183.105	84.7663	183.105	84.957	183.105	84.7802	183.105	84.9459	183.105	84.8081	183.105	84.9404	183.105	84.8423	183.105	84.9345	183.105	84.8759	183.105	84.9232	183.105	84.9037
188.965	85.7959	188.965	85.7808	188.965	85.7799	188.965	85.7351	188.965	85.7338	188.965	85.661	188.965	85.6604	188.965	85.5625	188.965	85.5643	188.965	85.4449	188.965	85.4517	188.965	85.3153	188.965	85.3303	188.965	85.182	188.965	85.2088	188.965	85.0539	188.965	85.0958	188.965	84.9397	188.965	84.9991	188.965	84.8469	188.965	84.9243	188.965	84.7804	188.965	84.8737	188.965	84.7419	188.965	84.846	188.965	84.7296	188.965	84.8371	188.965	84.7384	188.965	84.8402	188.965	84.7613	188.965	84.8479	188.965	84.7904	188.965	84.8535	188.965	84.8184	188.965	84.8517	188.965	84.8399
196.289	85.9075	196.289	85.8989	196.289	85.8818	196.289	85.8577	196.289	85.8215	196.289	85.7865	196.289	85.7281	196.289	85.6896	196.289	85.6048	196.289	85.5722	196.289	85.4571	196.289	85.4408	196.289	85.2928	196.289	85.3031	196.289	85.1218	196.289	85.1673	196.289	84.9557	196.289	85.042	196.289	84.8066	196.289	84.9344	196.289	84.6852	196.289	84.8499	196.289	84.5991	196.289	84.7903	196.289	84.551	196.289	84.7538	196.289	84.5381	196.289	84.7353	196.289	84.5531	196.289	84.7274	196.289	84.5858	196.289	84.722	196.289	84.6256	196.289	84.7121	196.289	84.6634	196.289	84.693
203.613	85.928	203.613	85.8657	203.613	85.9554	203.613	85.7708	203.613	85.9473	203.613	85.6472	203.613	85.905	203.613	85.5007	203.613	85.8311	203.613	85.3391	203.613	85.7302	203.613	85.1716	203.613	85.6084	203.613	85.0088	203.613	85.4734	203.613	84.8614	203.613	85.334	203.613	84.7393	203.613	85.1994	203.613	84.6496	203.613	85.0782	203.613	84.5955	203.613	84.9772	203.613	84.5757	203.613	84.9002	203.613	84.5847	203.613	84.8474	203.613	84.6139	203.613	84.8154	203.613	84.6538	203.613	84.7978	203.613	84.6952	203.613	84.7872	203.613	84.7314	203.613	84.776	203.613	84.7584
210.938	86.0057	210.938	85.9615	210.938	86.0141	210.938	85.882	210.938	85.9877	210.938	85.7693	210.938	85.9291	210.938	85.6273	210.938	85.8424	210.938	85.4619	210.938	85.7333	210.938	85.2811	210.938	85.6088	210.938	85.0952	210.938	85.477	210.938	84.9161	210.938	85.3463	210.938	84.7564	210.938	85.2249	210.938	84.6275	210.938	85.1192	210.938	84.5378	210.938	85.0334	210.938	84.4909	210.938	84.9682	210.938	84.4846	210.938	84.9211	210.938	84.5119	210.938	84.8867	210.938	84.5622	210.938	84.8581	210.938	84.6241	210.938	84.8283	210.938	84.6873	210.938	84.7915	210.938	84.7444
218.262	86.0185	218.262	85.9917	218.262	86.0094	218.262	85.9294	218.262	85.9656	218.262	85.8337	218.262	85.89	218.262	85.7084	218.262	85.7873	218.262	85.5592	218.262	85.6638	218.262	85.3936	218.262	85.5274	218.262	85.221	218.262	85.3871	218.262	85.0522	218.262	85.2523	218.262	84.8986	218.262	85.1315	218.262	84.7705	218.262	85.0315	218.262	84.6759	218.262	84.9556	218.262	84.6186	218.262	84.9036	218.262	84.5978	218.262	84.8716	218.262	84.6078	218.262	84.8531	218.262	84.6398	218.262	84.8401	218.262	84.6838	218.262	84.8255	218.262	84.7302	218.262	84.8035	218.262	84.7715
225.586	85.8741	225.586	85.8498	225.586	85.8597	225.586	85.7874	225.586	85.8079	225.586	85.6891	225.586	85.7219	225.586	85.559	225.586	85.6066	225.586	85.4031	225.586	85.4692	225.586	85.2296	225.586	85.3187	225.586	85.0489	225.586	85.1657	225.586	84.8729	225.586	85.0212	225.586	84.7143	225.586	84.8954	225.586	84.5847	225.586	84.7958	225.586	84.4927	225.586	84.7264	225.586	84.4419	225.586	84.6862	225.586	84.4304	225.586	84.6697	225.586	84.4509	225.586	84.6684	225.586	84.4927	225.586	84.6722	225.586	84.544	225.586	84.6718	225.586	84.5939	225.586	84.6604	225.586	84.6342
232.91	85.8096	232.91	85.7881	232.91	85.7889	232.91	85.725	232.91	85.727	232.91	85.6227	232.91	85.6271	232.91	85.4855	232.91	85.4942	232.91	85.3194	232.91	85.3359	232.91	85.1328	232.91	85.1616	232.91	84.936	232.91	84.9829	232.91	84.7413	232.91	84.8122	232.91	84.5619	232.91	84.6615	232.91	84.4105	232.91	84.5405	232.91	84.2971	232.91	84.4546	232.91	84.2269	232.91	84.4038	232.91	84.1993	232.91	84.3825	232.91	84.2074	232.91	84.3813	232.91	84.2405	232.91	84.3885	232.91	84.2855	232.91	84.3932	232.91	84.3305	232.91	84.3872	232.91	84.3661
241.699	85.7252	241.699	85.7077	241.699	85.6992	241.699	85.6475	241.699	85.6305	241.699	85.5467	241.699	85.5219	241.699	85.4092	241.699	85.3781	241.699	85.2406	241.699	85.2062	241.699	85.0484	241.699	85.0157	241.699	84.8425	241.699	84.8184	241.699	84.6348	241.699	84.6273	241.699	84.4386	241.699	84.4555	241.699	84.2672	241.699	84.3141	241.699	84.1318	241.699	84.21	241.699	84.0392	241.699	84.1445	241.699	83.9905	241.699	84.1128	241.699	83.9803	241.699	84.1056	241.699	83.9984	241.699	84.1106	241.699	84.0319	241.699	84.1163	241.699	84.0682	241.699	84.1134	241.699	84.0972
250.488	85.8309	250.488	85.8217	250.488	85.7992	250.488	85.7738	250.488	85.7262	250.488	85.6909	250.488	85.6138	250.488	85.5783	250.488	85.466	250.488	85.443	250.488	85.2896	250.488	85.2932	250.488	85.0945	250.488	85.1384	250.488	84.8937	250.488	84.9885	250.488	84.7022	250.488	84.8532	250.488	84.5352	250.488	84.7404	250.488	84.406	250.488	84.655	250.488	84.3226	250.488	84.5981	250.488	84.2864	250.488	84.5667	250.488	84.2915	250.488	84.5541	250.488	84.3267	250.488	84.5515	250.488	84.3786	250.488	84.5498	250.488	84.4341	250.488	84.5409	250.488	84.4831	250.488	84.5194
259.277	85.939	259.277	85.899	259.277	85.9345	259.277	85.8166	259.277	85.885	259.277	85.6953	259.277	85.7921	259.277	85.5409	259.277	85.6592	259.277	85.3611	259.277	85.4926	259.277	85.1661	259.277	85.3013	259.277	84.9682	259.277	85.0974	259.277	84.7814	259.277	84.8957	259.277	84.6195	259.277	84.7121	259.277	84.4942	259.277	84.5615	259.277	84.4123	259.277	84.4545	259.277	84.3742	259.277	84.3949	259.277	84.3737	259.277	84.3789	259.277	84.3998	259.277	84.3958	259.277	84.4388	259.277	84.4311	259.277	84.4771	259.277	84.4698	259.277	84.5038	259.277	84.4996	259.277	84.512
268.066	85.8461	268.066	85.8046	268.066	85.845	268.066	85.7222	268.066	85.8013	268.066	85.6025	268.066	85.7172	268.066	85.4512	268.066	85.5966	268.066	85.2761	268.066	85.4459	268.066	85.087	268.066	85.2737	268.066	84.8959	268.066	85.091	268.066	84.716	268.066	84.9104	268.066	84.5607	268.066	84.7457	268.066	84.4414	268.066	84.6093	268.066	84.3653	268.066	84.5108	268.066	84.3337	268.066	84.4539	268.066	84.3412	268.066	84.4359	268.066	84.3768	268.066	84.4478	268.066	84.4267	268.066	84.4766	268.066	84.4765	268.066	84.508	268.066	84.5144	268.066	84.5296	268.066	84.5329
276.855	85.4816	276.855	85.4391	276.855	85.473	276.855	85.3471	276.855	85.4139	276.855	85.2091	276.855	85.3072	276.855	85.031	276.855	85.1583	276.855	84.8217	276.855	84.9758	276.855	84.5934	276.855	84.7717	276.855	84.3615	276.855	84.561	276.855	84.1441	276.855	84.3608	276.855	83.9599	276.855	84.1886	276.855	83.8247	276.855	84.0584	276.855	83.7481	276.855	83.9783	276.855	83.7307	276.855	83.948	276.855	83.7638	276.855	83.9591	276.855	83.8317	276.855	83.9969	276.855	83.9154	276.855	84.0443	276.855	83.9968	276.855	84.0849	276.855	84.061	276.855	84.1057	276.855	84.0985
287.109	85.4915	287.109	85.4436	287.109	85.484	287.109	85.3423	287.109	85.4203	287.109	85.1917	287.109	85.302	287.109	84.9976	287.109	85.1331	287.109	84.7688	287.109	84.9209	287.109	84.5176	287.109	84.6766	287.109	84.2606	287.109	84.4158	287.109	84.0179	287.109	84.1578	287.109	83.8108	287.109	83.9247	287.109	83.6579	287.109	83.7375	287.109	83.5702	287.109	83.6123	287.109	83.5475	287.109	83.5549	287.109	83.5786	287.109	83.5597	287.109	83.644	287.109	83.6104	287.109	83.7214	287.109	83.6847	287.109	83.79	287.109	83.76	287.109	83.8339	287.109	83.8172	287.109	83.8436
297.363	85.5109	297.363	85.4205	297.363	85.5479	297.363	85.2789	297.363	85.5307	297.363	85.09	297.363	85.4597	297.363	84.8595	297.363	85.3371	297.363	84.595	297.363	85.1669	297.363	84.3066	297.363	84.9556	297.363	84.0069	297.363	84.713	297.363	83.7122	297.363	84.4519	297.363	83.4414	297.363	84.1886	297.363	83.2142	297.363	83.9407	297.363	83.0475	297.363	83.7251	297.363	82.9503	297.363	83.5543	297.363	82.9211	297.363	83.4333	297.363	82.9475	297.363	83.3579	297.363	83.0101	297.363	83.3155	297.363	83.0875	297.363	83.289	297.363	83.1617	297.363	83.2617	297.363	83.2209
307.617	85.6385	307.617	85.58	307.617	85.6383	307.617	85.4626	307.617	85.5818	307.617	85.2884	307.617	85.4733	307.617	85.062	307.617	85.3194	307.617	84.7917	307.617	85.1292	307.617	84.4901	307.617	84.9143	307.617	84.1746	307.617	84.6887	307.617	83.8674	307.617	84.4681	307.617	83.5934	307.617	84.268	307.617	83.3763	307.617	84.1013	307.617	83.2338	307.617	83.975	307.617	83.172	307.617	83.8893	307.617	83.1837	307.617	83.8368	307.617	83.2511	307.617	83.8059	307.617	83.3511	307.617	83.7828	307.617	83.4613	307.617	83.7551	307.617	83.5644	307.617	83.7127	307.617	83.6496
319.336	85.6143	319.336	85.5655	319.336	85.604	319.336	85.4578	319.336	85.5361	319.336	85.2924	319.336	85.4134	319.336	85.0726	319.336	85.2409	319.336	84.8041	319.336	85.0259	319.336	84.4964	319.336	84.7793	319.336	84.1641	319.336	84.5153	319.336	83.8277	319.336	84.2519	319.336	83.5138	319.336	84.009	319.336	83.252	319.336	83.8063	319.336	83.0689	319.336	83.6586	319.336	82.9799	319.336	83.5715	319.336	82.9835	319.336	83.5393	319.336	83.0609	319.336	83.5456	319.336	83.1825	319.336	83.5679	319.336	83.3165	319.336	83.583	319.336	83.4363	319.336	83.5722	319.336	83.5241
329.59	85.4246	329.59	85.3725	329.59	85.4185	329.59	85.2617	329.59	85.3559	329.59	85.0934	329.59	85.2403	329.59	84.8709	329.59	85.0769	329.59	84.6005	329.59	84.8739	329.59	84.2928	329.59	84.6424	329.59	83.9634	329.59	84.3971	329.59	83.6338	329.59	84.1554	329.59	83.3299	329.59	83.9359	329.59	83.0795	329.59	83.7555	329.59	82.9069	329.59	83.6254	329.59	82.8264	329.59	83.5485	329.59	82.8369	329.59	83.5174	329.59	82.9217	329.59	83.5168	329.59	83.0526	329.59	83.5265	329.59	83.1985	329.59	83.5263	329.59	83.3322	329.59	83.4993	329.59	83.4352
341.309	85.3174	341.309	85.3102	341.309	85.2683	341.309	85.2453	341.309	85.165	341.309	85.1216	341.309	85.0107	341.309	84.9387	341.309	84.811	341.309	84.6978	341.309	84.5739	341.309	84.4035	341.309	84.3102	341.309	84.0657	341.309	84.0343	341.309	83.7013	341.309	83.7624	341.309	83.3344	341.309	83.5119	341.309	82.9944	341.309	83.2985	341.309	82.7107	341.309	83.1328	341.309	82.5063	341.309	83.0171	341.309	82.391	341.309	82.9442	341.309	82.36	341.309	82.8987	341.309	82.3963	341.309	82.8623	341.309	82.476	341.309	82.8183	341.309	82.5751	341.309	82.7561	341.309	82.6731
353.027	85.6918	353.027	85.7182	353.027	85.6032	353.027	85.6825	353.027	85.4543	353.027	85.5861	353.027	85.2492	353.027	85.4315	353.027	84.9954	353.027	85.2223	353.027	84.704	353.027	84.9636	353.027	84.3909	353.027	84.6635	353.027	84.0764	353.027	84.3355	353.027	83.7842	353.027	84.0001	353.027	83.5383	353.027	83.6847	353.027	83.3582	353.027	83.4208	353.027	83.2538	353.027	83.235	353.027	83.2224	353.027	83.1407	353.027	83.2485	353.027	83.1318	353.027	83.3084	353.027	83.1854	353.027	83.3754	353.027	83.2702	353.027	83.4254	353.027	83.3555	353.027	83.4419	353.027	83.4174
366.211	85.2716	366.211	85.2639	366.211	85.2222	366.211	85.2011	366.211	85.1148	366.211	85.0863	366.211	84.9495	366.211	84.924	366.211	84.7289	366.211	84.72	366.211	84.4583	366.211	84.4822	366.211	84.1471	366.211	84.2203	366.211	83.81	366.211	83.9461	366.211	83.4674	366.211	83.6736	366.211	83.1444	366.211	83.4182	366.211	82.868	366.211	83.1954	366.211	82.6613	366.211	83.0186	366.211	82.5373	366.211	82.8953	366.211	82.4942	366.211	82.8237	366.211	82.5159	366.211	82.7928	366.211	82.577	366.211	82.7842	366.211	82.6505	366.211	82.7781	366.211	82.7149	366.211	82.7579
379.395	84.8256	379.395	84.8067	379.395	84.7943	379.395	84.7395	379.395	84.7129	379.395	84.6276	379.395	84.5844	379.395	84.4761	379.395	84.4142	379.395	84.2912	379.395	84.2112	379.395	84.0807	379.395	83.9865	379.395	83.8537	379.395	83.7533	379.395	83.6213	379.395	83.5254	379.395	83.3962	379.395	83.3161	379.395	83.1927	379.395	83.1373	379.395	83.0244	379.395	82.9978	379.395	82.902	379.395	82.9021	379.395	82.8295	379.395	82.8495	379.395	82.8021	379.395	82.8327	379.395	82.8079	379.395	82.8397	379.395	82.8308	379.395	82.8562	379.395	82.855	379.395	82.869	379.395	82.8694
392.578	85.1436	392.578	85.1104	392.578	85.0979	392.578	85.004	392.578	84.9704	392.578	84.8328	392.578	84.7616	392.578	84.6086	392.578	84.4765	392.578	84.3476	392.578	84.1263	392.578	84.0713	392.578	83.7304	392.578	83.8062	392.578	83.3193	392.578	83.5812	392.578	82.9342	392.578	83.4213	392.578	82.6226	392.578	83.3406	392.578	82.4266	392.578	83.3371	392.578	82.3685	392.578	83.3933	392.578	82.4413	392.578	83.4825	392.578	82.6127	392.578	83.5764	392.578	82.839	392.578	83.6505	392.578	83.0781	392.578	83.6867	392.578	83.2979	392.578	83.6731	392.578	83.4769	392.578	83.6035
405.762	85.2472	405.762	85.1244	405.762	85.2961	405.762	84.9313	405.762	85.2688	405.762	84.6734	405.762	85.165	405.762	84.3588	405.762	84.9872	405.762	84.0007	405.762	84.7427	405.762	83.6188	405.762	84.4445	405.762	83.2407	405.762	84.1135	405.762	82.901	405.762	83.777	405.762	82.6354	405.762	83.4663	405.762	82.4714	405.762	83.2113	405.762	82.4195	405.762	83.0329	405.762	82.4685	405.762	82.938	405.762	82.59	405.762	82.9187	405.762	82.7475	405.762	82.9558	405.762	82.906	405.762	83.0237	405.762	83.0379	405.762	83.0956	405.762	83.1254	405.762	83.1477	405.762	83.1613
420.41	85.2735	420.41	85.2648	420.41	85.1992	420.41	85.1727	420.41	85.0461	420.41	85.0005	420.41	84.8228	420.41	84.7554	420.41	84.5424	420.41	84.4493	420.41	84.2236	420.41	84.0987	420.41	83.8901	420.41	83.725	420.41	83.5694	420.41	83.354	420.41	83.2897	420.41	83.0146	420.41	83.0743	420.41	82.7363	420.41	82.9359	420.41	82.5446	420.41	82.8739	420.41	82.4543	420.41	82.8753	420.41	82.4631	420.41	82.9197	420.41	82.5511	420.41	82.9837	420.41	82.6857	420.41	83.0453	420.41	82.8314	420.41	83.0852	420.41	82.9584	420.41	83.0888	420.41	83.047
435.059	85.2016	435.059	85.144	435.059	85.1533	435.059	84.9847	435.059	84.9983	435.059	84.7315	435.059	84.7413	435.059	84.3967	435.059	84.3953	435.059	84.0006	435.059	83.9846	435.059	83.575	435.059	83.5479	435.059	83.1661	435.059	83.137	435.059	82.8303	435.059	82.809	435.059	82.6207	435.059	82.6099	435.059	82.5665	435.059	82.5574	435.059	82.6582	435.059	82.6351	435.059	82.8532	435.059	82.8034	435.059	83.096	435.059	83.0172	435.059	83.3368	435.059	83.2388	435.059	83.5406	435.059	83.4414	435.059	83.6869	435.059	83.6065	435.059	83.7663	435.059	83.7214	435.059	83.7768
451.172	85.8923	451.172	85.8374	451.172	85.8385	451.172	85.6775	451.172	85.6707	451.172	85.4146	451.172	85.3838	451.172	85.0519	451.172	84.9757	451.172	84.5979	451.172	84.4525	451.172	84.0734	451.172	83.8358	451.172	83.5186	451.172	83.1732	451.172	82.9973	451.172	82.5486	451.172	82.5894	451.172	82.0787	451.172	82.3662	451.172	81.8732	451.172	82.3569	451.172	81.9686	451.172	82.5338	451.172	82.2996	451.172	82.8304	451.172	82.7458	451.172	83.173	451.172	83.1963	451.172	83.5012	451.172	83.5783	451.172	83.7727	451.172	83.8542	451.172	83.9593	451.172	84.0093	451.172	84.0422
465.82	85.9399	465.82	85.8025	465.82	85.9632	465.82	85.5528	465.82	85.8684	465.82	85.1893	465.82	85.65	465.82	84.7085	465.82	85.3043	465.82	84.1083	465.82	84.8324	465.82	83.3937	465.82	84.2448	465.82	82.5877	465.82	83.5677	465.82	81.7479	465.82	82.8527	465.82	80.9851	465.82	82.1838	465.82	80.4559	465.82	81.6702	465.82	80.2941	465.82	81.408	465.82	80.5086	465.82	81.4237	465.82	80.9726	465.82	81.6546	465.82	81.5202	465.82	81.9912	465.82	82.0268	465.82	82.3307	465.82	82.424	465.82	82.6024	465.82	82.6827	465.82	82.7647	465.82	82.7952
483.398	86.1031	483.398	86.0485	483.398	86.071	483.398	85.9076	483.398	85.9484	483.398	85.6777	483.398	85.7287	483.398	85.3537	483.398	85.4043	483.398	84.9303	483.398	84.97	483.398	84.4042	483.398	84.4267	483.398	83.7778	483.398	83.7883	483.398	83.0662	483.398	83.0909	483.398	82.3079	483.398	82.4013	483.398	81.5797	483.398	81.8176	483.398	80.9993	483.398	81.4432	483.398	80.6906	483.398	81.3335	483.398	80.7065	483.398	81.4576	483.398	80.9834	483.398	81.7171	483.398	81.387	483.398	82.0009	483.398	81.7893	483.398	82.2223	483.398	82.1053	483.398	82.3274	483.398	82.29
499.512	86.066	499.512	86.0407	499.512	86.0017	499.512	85.9245	499.512	85.8452	499.512	85.7116	499.512	85.5927	499.512	85.3931	499.512	85.2424	499.512	84.9596	499.512	84.7982	499.512	84.4061	499.512	84.2737	499.512	83.7395	499.512	83.6971	499.512	82.9866	499.512	83.1146	499.512	82.2066	499.512	82.5905	499.512	81.4987	499.512	82.1954	499.512	80.9901	499.512	81.9813	499.512	80.7821	499.512	81.9549	499.512	80.883	499.512	82.0726	499.512	81.2018	499.512	82.262	499.512	81.611	499.512	82.4498	499.512	82.0058	499.512	82.5787	499.512	82.3219	499.512	82.6112	499.512	82.5272
517.09	85.7822	517.09	85.7799	517.09	85.6956	517.09	85.6955	517.09	85.507	517.09	85.5288	517.09	85.2005	517.09	85.2729	517.09	84.7601	517.09	84.9176	517.09	84.1748	517.09	84.4537	517.09	83.4451	517.09	83.8794	517.09	82.5954	517.09	83.2069	517.09	81.6954	517.09	82.4691	517.09	80.8829	517.09	81.7284	517.09	80.35	517.09	81.0837	517.09	80.2391	517.09	80.6558	517.09	80.5182	517.09	80.5346	517.09	81.0078	517.09	80.7143	517.09	81.5196	517.09	81.0901	517.09	81.9321	517.09	81.5246	517.09	82.1872	517.09	81.9064	517.09	82.2647	517.09	82.1656
536.133	85.798	536.133	85.7483	536.133	85.7716	536.133	85.6318	536.133	85.6544	536.133	85.45	536.133	85.4293	536.133	85.1964	536.133	85.0798	536.133	84.8581	536.133	84.5925	536.133	84.4209	536.133	83.9583	536.133	83.8753	536.133	83.1763	536.133	83.2245	536.133	82.2612	536.133	82.4945	536.133	81.2614	536.133	81.746	536.133	80.2883	536.133	81.0786	536.133	79.53	536.133	80.6097	536.133	79.1836	536.133	80.4146	536.133	79.2996	536.133	80.4727	536.133	79.7267	536.133	80.6817	536.133	80.2457	536.133	80.9191	536.133	80.6963	536.133	81.0881	536.133	80.9981	536.133	81.1258
555.176	85.5655	555.176	85.4726	555.176	85.5895	555.176	85.3162	555.176	85.5338	555.176	85.0961	555.176	85.3829	555.176	84.8066	555.176	85.1191	555.176	84.4401	555.176	84.7245	555.176	83.9914	555.176	84.1844	555.176	83.4656	555.176	83.4918	555.176	82.8864	555.176	82.6555	555.176	82.3009	555.176	81.7164	555.176	81.7754	555.176	80.7713	555.176	81.3768	555.176	79.9898	555.176	81.1456	555.176	79.5675	555.176	81.0785	555.176	79.5888	555.176	81.134	555.176	79.9448	555.176	81.2519	555.176	80.4307	555.176	81.3694	555.176	80.8806	555.176	81.4299	555.176	81.2078	555.176	81.3871
574.219	85.7585	574.219	85.5269	574.219	85.9092	574.219	85.2244	574.219	85.9627	574.219	84.8531	574.219	85.8994	574.219	84.4074	574.219	85.7	574.219	83.8779	574.219	85.3478	574.219	83.2569	574.219	84.8298	574.219	82.548	574.219	84.1383	574.219	81.779	574.219	83.2763	574.219	81.0211	574.219	82.271	574.219	80.3998	574.219	81.202	574.219	80.0619	574.219	80.2341	574.219	80.0778	574.219	79.6029	574.219	80.3738	574.219	79.4746	574.219	80.7895	574.219	79.7878	574.219	81.1796	574.219	80.3161	574.219	81.4548	574.219	80.8485	574.219	81.5709	574.219	81.2632	574.219	81.5087
594.727	85.5657	594.727	85.4612	594.727	85.6048	594.727	85.286	594.727	85.5783	594.727	85.0296	594.727	85.4794	594.727	84.6786	594.727	85.2954	594.727	84.2182	594.727	85.0095	594.727	83.6344	594.727	84.6041	594.727	82.9179	594.727	84.0652	594.727	82.071	594.727	83.3904	594.727	81.124	594.727	82.6009	594.727	80.1632	594.727	81.7585	594.727	79.3585	594.727	80.9788	594.727	78.9241	594.727	80.4131	594.727	78.9652	594.727	80.1712	594.727	79.3676	594.727	80.2367	594.727	79.9062	594.727	80.4783	594.727	80.3995	594.727	80.7404	594.727	80.7504	594.727	80.9092	594.727	80.9212
615.234	85.3561	615.234	85.2768	615.234	85.381	615.234	85.1439	615.234	85.3413	615.234	84.9461	615.234	85.2236	615.234	84.6611	615.234	85.0156	615.234	84.26	615.234	84.7072	615.234	83.7136	615.234	84.2892	615.234	82.998	615.234	83.7512	615.234	82.1005	615.234	83.0867	615.234	81.0334	615.234	82.3059	615.234	79.8669	615.234	81.4606	615.234	78.7829	615.234	80.6667	615.234	78.0846	615.234	80.0889	615.234	78.0093	615.234	79.8505	615.234	78.4691	615.234	79.9296	615.234	79.1505	615.234	80.1777	615.234	79.7918	615.234	80.4289	615.234	80.2628	615.234	80.5652	615.234	80.5202
637.207	85.0918	637.207	85.1108	637.207	85.0164	637.207	85.0722	637.207	84.8782	637.207	84.9666	637.207	84.6634	637.207	84.7777	637.207	84.3544	637.207	84.4836	637.207	83.9328	637.207	84.0578	637.207	83.3852	637.207	83.4736	637.207	82.7122	637.207	82.711	637.207	81.9437	637.207	81.7718	637.207	81.1571	637.207	80.7039	637.207	80.4813	637.207	79.6375	637.207	80.0535	637.207	78.7995	637.207	79.9326	637.207	78.4262	637.207	80.0577	637.207	78.5723	637.207	80.3015	637.207	79.0599	637.207	80.5426	637.207	79.6474	637.207	80.6938	637.207	80.1639	637.207	80.6982	637.207	80.5238
659.18	85.8921	659.18	85.801	659.18	85.899	659.18	85.6417	659.18	85.802	659.18	85.4207	659.18	85.5834	659.18	85.1317	659.18	85.2308	659.18	84.7556	659.18	84.7351	659.18	84.2646	659.18	84.0875	659.18	83.6296	659.18	83.2772	659.18	82.8302	659.18	82.2983	659.18	81.8699	659.18	81.1701	659.18	80.8007	659.18	79.9814	659.18	79.7549	659.18	78.9461	659.18	78.9485	659.18	78.3708	659.18	78.5813	659.18	78.4056	659.18	78.6707	659.18	78.8586	659.18	79.042	659.18	79.4072	659.18	79.4837	659.18	79.8358	659.18	79.8486	659.18	80.0565	659.18	80.0543
682.617	85.2797	682.617	85.2356	682.617	85.29	682.617	85.1603	682.617	85.2549	682.617	85.0483	682.617	85.1526	682.617	84.8853	682.617	84.9519	682.617	84.6464	682.617	84.617	682.617	84.2968	682.617	84.1123	682.617	83.7958	682.617	83.4057	682.617	83.106	682.617	82.4747	682.617	82.2078	682.617	81.3218	682.617	81.1238	682.617	80.0175	682.617	79.9583	682.617	78.7748	682.617	78.9334	682.617	77.9752	682.617	78.3351	682.617	77.9127	682.617	78.2994	682.617	78.4302	682.617	78.6774	682.617	79.1094	682.617	79.1978	682.617	79.6484	682.617	79.6504	682.617	79.9234	682.617	79.9142
707.52	84.9739	707.52	84.8696	707.52	85.0529	707.52	84.7548	707.52	85.0836	707.52	84.6293	707.52	85.0407	707.52	84.4762	707.52	84.901	707.52	84.2654	707.52	84.6442	707.52	83.9623	707.52	84.2491	707.52	83.5353	707.52	83.6896	707.52	82.9593	707.52	82.9347	707.52	82.2201	707.52	81.9592	707.52	81.3288	707.52	80.7725	707.52	80.3532	707.52	79.4791	707.52	79.4515	707.52	78.3585	707.52	78.8471	707.52	77.8053	707.52	78.6788	707.52	77.9534	707.52	78.8659	707.52	78.4968	707.52	79.1916	707.52	79.057	707.52	79.4627	707.52	79.4318	707.52	79.5625
732.422	84.6575	732.422	84.5574	732.422	84.7433	732.422	84.4462	732.422	84.8007	732.422	84.3139	732.422	84.8098	732.422	84.1379	732.422	84.7481	732.422	83.8872	732.422	84.5904	732.422	83.5293	732.422	84.3046	732.422	83.0382	732.422	83.8519	732.422	82.4014	732.422	83.194	732.422	81.6302	732.422	82.3132	732.422	80.7774	732.422	81.2446	732.422	79.9633	732.422	80.1271	732.422	79.3738	732.422	79.2418	732.422	79.1692	732.422	78.9014	732.422	79.3506	732.422	79.1484	732.422	79.7589	732.422	79.6984	732.422	80.2017	732.422	80.2348	732.422	80.5374	732.422	80.5811	732.422	80.6794
757.324	84.2354	757.324	84.1297	757.324	84.2906	757.324	83.9819	757.324	84.2906	757.324	83.8016	757.324	84.2292	757.324	83.5829	757.324	84.0925	757.324	83.2879	757.324	83.8552	757.324	82.8492	757.324	83.4817	757.324	82.1988	757.324	82.9295	757.324	81.3017	757.324	82.1576	757.324	80.1837	757.324	81.1401	757.324	78.9587	757.324	79.8978	757.324	77.8625	757.324	78.5735	757.324	77.2341	757.324	77.5406	757.324	77.3029	757.324	77.2859	757.324	77.9325	757.324	77.8471	757.324	78.7589	757.324	78.7366	757.324	79.4895	757.324	79.5194	757.324	79.9766	757.324	80.0085	757.324	80.1587
785.156	85.1516	785.156	85.0979	785.156	85.139	785.156	84.9768	785.156	85.0549	785.156	84.7791	785.156	84.8948	785.156	84.4936	785.156	84.6594	785.156	84.1156	785.156	84.3516	785.156	83.6441	785.156	83.9638	785.156	83.0603	785.156	83.4634	785.156	82.3038	785.156	82.7892	785.156	81.2769	785.156	81.8708	785.156	79.9023	785.156	80.6774	785.156	78.2553	785.156	79.3009	785.156	76.7784	785.156	78.06	785.156	76.2099	785.156	77.4363	785.156	76.6811	785.156	77.602	785.156	77.567	785.156	78.1999	785.156	78.3821	785.156	78.7981	785.156	78.9505	785.156	79.1643	785.156	79.2181
811.523	85.1074	811.523	85.1102	811.523	85.035	811.523	85.0441	811.523	84.8946	811.523	84.9143	811.523	84.688	811.523	84.7268	811.523	84.4136	811.523	84.479	811.523	84.0586	811.523	84.151	811.523	83.5916	811.523	83.7032	811.523	82.9632	811.523	83.0727	811.523	82.1195	811.523	82.1683	811.523	81.0278	811.523	80.8821	811.523	79.7217	811.523	79.1538	811.523	78.3772	811.523	77.1562	811.523	77.3789	811.523	75.6309	811.523	77.1259	811.523	75.5191	811.523	77.5656	811.523	76.4885	811.523	78.2536	811.523	77.6113	811.523	78.8146	811.523	78.468	811.523	79.0704	811.523	78.9593
840.82	84.9244	840.82	84.8329	840.82	84.9839	840.82	84.7205	840.82	84.9991	840.82	84.5918	840.82	84.9593	840.82	84.4428	840.82	84.8548	840.82	84.2631	840.82	84.6712	840.82	84.0359	840.82	84.3779	840.82	83.7256	840.82	83.9183	840.82	83.2635	840.82	83.2107	840.82	82.5582	840.82	82.1574	840.82	81.5435	840.82	80.6647	840.82	80.2483	840.82	78.7053	840.82	78.8679	840.82	76.5355	840.82	77.7715	840.82	75.115	840.82	77.2999	840.82	75.3801	840.82	77.4417	840.82	76.5569	840.82	77.8781	840.82	77.6228	840.82	78.2852	840.82	78.2582	840.82	78.4538
870.117	84.3734	870.117	84.2844	870.117	84.4197	870.117	84.151	870.117	84.445	870.117	83.9986	870.117	84.4721	870.117	83.8651	870.117	84.5059	870.117	83.7609	870.117	84.5173	870.117	83.6397	870.117	84.4406	870.117	83.4136	870.117	84.1851	870.117	82.9918	870.117	83.6605	870.117	82.307	870.117	82.8017	870.117	81.3329	870.117	81.5863	870.117	80.1257	870.117	80.0575	870.117	78.9071	870.117	78.413	870.117	78.0922	870.117	77.1801	870.117	77.996	870.117	77.0017	870.117	78.452	870.117	77.7304	870.117	79.0381	870.117	78.6404	870.117	79.4541	870.117	79.2901	870.117	79.5587
900.879	83.8006	900.879	83.6492	900.879	83.8857	900.879	83.4492	900.879	83.9134	900.879	83.2472	900.879	83.9078	900.879	83.0976	900.879	83.8898	900.879	83.0109	900.879	83.852	900.879	82.9133	900.879	83.743	900.879	82.6755	900.879	83.476	900.879	82.1898	900.879	82.9571	900.879	81.4296	900.879	82.1121	900.879	80.4457	900.879	80.9037	900.879	79.3269	900.879	79.3708	900.879	78.2442	900.879	77.7902	900.879	77.6024	900.879	76.914	900.879	77.8262	900.879	77.3502	900.879	78.7107	900.879	78.5174	900.879	79.6607	900.879	79.6057	900.879	80.3075	900.879	80.2963	900.879	80.5291
933.105	85.168	933.105	85.0191	933.105	85.1762	933.105	84.732	933.105	85.0435	933.105	84.3136	933.105	84.7854	933.105	83.7936	933.105	84.4429	933.105	83.234	933.105	84.0705	933.105	82.6886	933.105	83.6966	933.105	82.1187	933.105	83.2773	933.105	81.3565	933.105	82.6875	933.105	80.1762	933.105	81.7749	933.105	78.4308	933.105	80.4382	933.105	76.262	933.105	78.6811	933.105	74.4293	933.105	76.6785	933.105	74.0368	933.105	75.0295	933.105	75.0138	933.105	74.8125	933.105	76.4144	933.105	76.0047	933.105	77.6333	933.105	77.4009	933.105	78.4193	933.105	78.3357	933.105	78.6702
965.332	84.3627	965.332	84.4153	965.332	84.301	965.332	84.4444	965.332	84.2365	965.332	84.425	965.332	84.1712	965.332	84.3326	965.332	84.1	965.332	84.1641	965.332	84.0038	965.332	83.9469	965.332	83.847	965.332	83.7018	965.332	83.5759	965.332	83.3566	965.332	83.1116	965.332	82.6945	965.332	82.3485	965.332	81.4197	965.332	81.1828	965.332	79.2826	965.332	79.5784	965.332	76.2575	965.332	77.6879	965.332	73.2337	965.332	76.0598	965.332	72.7086	965.332	75.5318	965.332	74.3708	965.332	76.1546	965.332	76.0723	965.332	77.0885	965.332	77.2298	965.332	77.7073	965.332	77.7748
1000.49	83.5908	1000.49	83.4366	1000.49	83.6765	1000.49	83.2343	1000.49	83.7119	1000.49	83.0589	1000.49	83.7314	1000.49	83.0093	1000.49	83.7639	1000.49	83.1086	1000.49	83.8094	1000.49	83.2384	1000.49	83.8164	1000.49	83.2218	1000.49	83.6774	1000.49	82.9515	1000.49	83.2571	1000.49	82.41	1000.49	82.4273	1000.49	81.569	1000.49	81.0772	1000.49	80.3112	1000.49	79.111	1000.49	78.5379	1000.49	76.5731	1000.49	76.522	1000.49	74.3293	1000.49	75.3355	1000.49	74.2836	1000.49	75.709	1000.49	75.7807	1000.49	76.701	1000.49	77.0698	1000.49	77.4852	1000.49	77.74	1000.49	77.8507
1035.64	84.1291	1035.64	83.9535	1035.64	84.1189	1035.64	83.5919	1035.64	83.9843	1035.64	83.1015	1035.64	83.8257	1035.64	82.5771	1035.64	83.7355	1035.64	82.1261	1035.64	83.7482	1035.64	81.8039	1035.64	83.815	1035.64	81.5266	1035.64	83.816	1035.64	81.1361	1035.64	83.6085	1035.64	80.5853	1035.64	83.0787	1035.64	79.9212	1035.64	82.1403	1035.64	79.041	1035.64	80.6641	1035.64	77.7201	1035.64	78.4331	1035.64	76.2389	1035.64	75.4141	1035.64	75.877	1035.64	73.3717	1035.64	76.9224	1035.64	74.8378	1035.64	78.1012	1035.64	77.0239	1035.64	78.7955	1035.64	78.3749	1035.64	78.9119
1072.27	84.2479	1072.27	84.3913	1072.27	83.9156	1072.27	84.3041	1072.27	83.4982	1072.27	84.0053	1072.27	83.1475	1072.27	83.5735	1072.27	83.0016	1072.27	83.1426	1072.27	83.0934	1072.27	82.8794	1072.27	83.3292	1072.27	82.876	1072.27	83.5607	1072.27	82.9487	1072.27	83.6324	1072.27	82.6407	1072.27	83.3661	1072.27	81.4942	1072.27	82.584	1072.27	79.2442	1072.27	81.1883	1072.27	75.902	1072.27	79.2322	1072.27	72.3573	1072.27	77.0112	1072.27	71.8295	1072.27	75.3751	1072.27	74.2054	1072.27	75.4361	1072.27	76.3762	1072.27	76.6153	1072.27	77.635	1072.27	77.641	1072.27	78.0235
1108.89	85.7886	1108.89	85.7364	1108.89	85.5189	1108.89	85.3506	1108.89	84.9544	1108.89	84.668	1108.89	84.1178	1108.89	83.8249	1108.89	83.0279	1108.89	83.0556	1108.89	81.7821	1108.89	82.5427	1108.89	80.7246	1108.89	82.2773	1108.89	80.3136	1108.89	82.1811	1108.89	80.4497	1108.89	82.1465	1108.89	80.5712	1108.89	81.8392	1108.89	80.3667	1108.89	80.7757	1108.89	79.8087	1108.89	78.516	1108.89	78.8587	1108.89	74.6838	1108.89	77.5269	1108.89	70.8876	1108.89	76.4608	1108.89	73.1375	1108.89	76.7494	1108.89	76.2992	1108.89	77.8997	1108.89	78.1136	1108.89	78.7525	1108.89	78.8669
1148.44	85.8002	1148.44	85.671	1148.44	85.7498	1148.44	85.3533	1148.44	85.5769	1148.44	84.9144	1148.44	85.3416	1148.44	84.4732	1148.44	85.074	1148.44	84.1222	1148.44	84.7582	1148.44	83.8732	1148.44	84.3357	1148.44	83.6581	1148.44	83.7286	1148.44	83.3298	1148.44	82.8719	1148.44	82.7086	1148.44	81.6958	1148.44	81.6985	1148.44	80.0419	1148.44	80.3171	1148.44	77.6283	1148.44	78.5369	1148.44	74.1345	1148.44	76.128	1148.44	69.9117	1148.44	72.8727	1148.44	69.0357	1148.44	69.9324	1148.44	71.5847	1148.44	70.414	1148.44	73.4028	1148.44	72.3821	1148.44	74.0387	1148.44	73.6718
1189.45	85.8103	1189.45	85.7146	1189.45	85.6296	1189.45	85.3134	1189.45	85.2579	1189.45	84.6249	1189.45	84.8299	1189.45	83.7245	1189.45	84.4698	1189.45	82.7968	1189.45	84.2238	1189.45	82.1949	1189.45	84.0648	1189.45	82.1925	1189.45	83.933	1189.45	82.526	1189.45	83.747	1189.45	82.6824	1189.45	83.393	1189.45	82.3927	1189.45	82.7022	1189.45	81.5866	1189.45	81.4321	1189.45	80.2039	1189.45	79.2807	1189.45	78.2877	1189.45	76.0479	1189.45	76.5173	1189.45	72.9574	1189.45	76.2287	1189.45	73.7435	1189.45	77.1918	1189.45	76.1282	1189.45	78.0813	1189.45	77.6891	1189.45	78.3024
1230.47	86.8239	1230.47	86.8301	1230.47	86.5404	1230.47	86.5205	1230.47	86.0824	1230.47	85.9324	1230.47	85.5603	1230.47	85.1589	1230.47	85.0082	1230.47	84.2931	1230.47	84.3899	1230.47	83.3995	1230.47	83.7107	1230.47	82.5906	1230.47	83.0591	1230.47	81.9956	1230.47	82.4864	1230.47	81.4783	1230.47	81.8979	1230.47	80.664	1230.47	81.1121	1230.47	79.2883	1230.47	79.9296	1230.47	77.2318	1230.47	78.0518	1230.47	74.3997	1230.47	74.9994	1230.47	71.6282	1230.47	70.8948	1230.47	72.2299	1230.47	70.8167	1230.47	74.7558	1230.47	74.0982	1230.47	76.4232	1230.47	76.1677	1230.47	76.8912
1274.41	86.085	1274.41	86.1221	1274.41	85.8538	1274.41	85.9288	1274.41	85.5166	1274.41	85.5198	1274.41	85.1685	1274.41	84.9547	1274.41	84.8142	1274.41	84.3239	1274.41	84.3532	1274.41	83.7082	1274.41	83.7083	1274.41	83.1116	1274.41	82.9238	1274.41	82.4743	1274.41	82.0999	1274.41	81.8075	1274.41	81.2377	1274.41	81.1441	1274.41	80.1829	1274.41	80.2247	1274.41	78.757	1274.41	78.544	1274.41	76.8731	1274.41	75.7046	1274.41	74.4989	1274.41	71.7872	1274.41	72.1353	1274.41	69.0045	1274.41	71.8671	1274.41	70.5217	1274.41	73.4162	1274.41	72.9376	1274.41	74.4521	1274.41	74.3124
1319.82	85.4923	1319.82	85.5397	1319.82	85.2883	1319.82	85.3449	1319.82	85.0344	1319.82	84.8951	1319.82	84.8139	1319.82	84.2961	1319.82	84.6565	1319.82	83.7377	1319.82	84.5603	1319.82	83.4026	1319.82	84.5028	1319.82	83.4202	1319.82	84.4094	1319.82	83.6756	1319.82	84.2016	1319.82	83.7164	1319.82	83.8391	1319.82	83.1598	1319.82	83.1741	1319.82	81.967	1319.82	81.8856	1319.82	80.2408	1319.82	79.6578	1319.82	77.9109	1319.82	76.3037	1319.82	74.9537	1319.82	71.6535	1319.82	72.4908	1319.82	67.455	1319.82	72.4608	1319.82	69.8456	1319.82	73.4989	1319.82	72.696	1319.82	73.7883
1366.7	86.554	1366.7	86.4896	1366.7	86.1627	1366.7	85.9596	1366.7	85.3896	1366.7	85.0015	1366.7	84.3774	1366.7	83.7503	1366.7	83.3184	1366.7	82.5237	1366.7	82.4559	1366.7	81.739	1366.7	82.0493	1366.7	81.6538	1366.7	82.2109	1366.7	82.2756	1366.7	82.7526	1366.7	83.066	1366.7	83.2427	1366.7	83.1907	1366.7	83.2567	1366.7	82.3285	1366.7	82.5393	1366.7	80.5602	1366.7	80.9446	1366.7	78.089	1366.7	78.3061	1366.7	75.5781	1366.7	74.8673	1366.7	74.8584	1366.7	73.8374	1366.7	76.2699	1366.7	76.0758	1366.7	77.7252	1366.7	77.7833	1366.7	78.2935
1413.57	86.3176	1413.57	86.3015	1413.57	86.0494	1413.57	85.9993	1413.57	85.5831	1413.57	85.478	1413.57	85.0439	1413.57	84.8108	1413.57	84.4382	1413.57	83.8933	1413.57	83.618	1413.57	82.5469	1413.57	82.4686	1413.57	81.0227	1413.57	81.0977	1413.57	79.7255	1413.57	79.8391	1413.57	78.3773	1413.57	78.9173	1413.57	77.1039	1413.57	78.1723	1413.57	76.895	1413.57	77.4703	1413.57	76.5755	1413.57	76.5516	1413.57	74.3355	1413.57	74.6562	1413.57	69.8129	1413.57	71.288	1413.57	66.8963	1413.57	69.5363	1413.57	70.0021	1413.57	72.1904	1413.57	72.8823	1413.57	74.1251	1413.57	74.3027
1463.38	85.4418	1463.38	85.3841	1463.38	85.0681	1463.38	84.9704	1463.38	84.3908	1463.38	84.3784	1463.38	83.6944	1463.38	83.7521	1463.38	83.2405	1463.38	83.2	1463.38	83.1001	1463.38	82.8493	1463.38	83.1567	1463.38	82.7582	1463.38	83.2442	1463.38	82.8732	1463.38	83.2174	1463.38	83.0106	1463.38	82.9775	1463.38	82.792	1463.38	82.4192	1463.38	81.8689	1463.38	81.2895	1463.38	80.1525	1463.38	79.2786	1463.38	77.6886	1463.38	76.3205	1463.38	74.507	1463.38	72.5632	1463.38	71.3199	1463.38	68.7005	1463.38	70.6225	1463.38	68.7107	1463.38	71.6326	1463.38	70.9916	1463.38	71.9802
1516.11	87.1559	1516.11	87.087	1516.11	86.7134	1516.11	86.4894	1516.11	85.8923	1516.11	85.471	1516.11	84.7971	1516.11	84.131	1516.11	83.4644	1516.11	82.4355	1516.11	82.0069	1516.11	80.527	1516.11	80.7455	1516.11	79.382	1516.11	80.3145	1516.11	79.855	1516.11	80.9112	1516.11	81.2152	1516.11	81.8632	1516.11	82.3867	1516.11	82.5791	1516.11	82.609	1516.11	82.5334	1516.11	81.4906	1516.11	81.3035	1516.11	79.0867	1516.11	78.8475	1516.11	76.023	1516.11	75.504	1516.11	74.0992	1516.11	72.6833	1516.11	75.094	1516.11	73.721	1516.11	76.7054	1516.11	76.0753	1516.11	77.1441
1568.85	87.2435	1568.85	87.3301	1568.85	87.0068	1568.85	87.1937	1568.85	86.6734	1568.85	86.806	1568.85	86.1899	1568.85	86.1555	1568.85	85.466	1568.85	85.1808	1568.85	84.5094	1568.85	83.752	1568.85	83.3032	1568.85	81.803	1568.85	81.6838	1568.85	79.7224	1568.85	79.791	1568.85	78.3252	1568.85	78.4179	1568.85	77.7887	1568.85	78.0332	1568.85	77.9448	1568.85	78.1709	1568.85	77.9445	1568.85	77.8407	1568.85	76.5121	1568.85	76.1549	1568.85	72.8051	1568.85	72.792	1568.85	68.2468	1568.85	69.7415	1568.85	70.8847	1568.85	71.7591	1568.85	73.9079	1568.85	74.2375	1568.85	74.9673
1624.51	87.0342	1624.51	86.992	1624.51	86.805	1624.51	86.6558	1624.51	86.3164	1624.51	86.0592	1624.51	85.5696	1624.51	85.2743	1624.51	84.6793	1624.51	84.3363	1624.51	83.9046	1624.51	83.3436	1624.51	83.3805	1624.51	82.5636	1624.51	83.0269	1624.51	82.2406	1624.51	82.8784	1624.51	82.3761	1624.51	82.9255	1624.51	82.5172	1624.51	82.7815	1624.51	82.0819	1624.51	82.0275	1624.51	80.9006	1624.51	80.3714	1624.51	79.0593	1624.51	77.5467	1624.51	76.2602	1624.51	73.4335	1624.51	72.4886	1624.51	69.9541	1624.51	71.7557	1624.51	71.1956	1624.51	73.6101	1624.51	73.2841	1624.51	74.1735
1681.64	87.8522	1681.64	87.7124	1681.64	87.6107	1681.64	87.3224	1681.64	87.0849	1681.64	86.8881	1681.64	86.4526	1681.64	86.3806	1681.64	85.7812	1681.64	85.4746	1681.64	85.0076	1681.64	83.9053	1681.64	83.8683	1681.64	81.7956	1681.64	82.0451	1681.64	79.5076	1681.64	79.6872	1681.64	77.6661	1681.64	77.8496	1681.64	78.1876	1681.64	78.3891	1681.64	79.7684	1681.64	79.9239	1681.64	79.9785	1681.64	79.992	1681.64	78.6277	1681.64	78.1282	1681.64	75.8563	1681.64	74.5571	1681.64	71.9949	1681.64	71.2269	1681.64	72.341	1681.64	73.1396	1681.64	75.1657	1681.64	75.5738	1681.64	76.2626
1741.7	87.5222	1741.7	87.4077	1741.7	87.1812	1741.7	86.8946	1741.7	86.5631	1741.7	86.2962	1741.7	85.8067	1741.7	85.7376	1741.7	85.0912	1741.7	84.9846	1741.7	84.6587	1741.7	84.0304	1741.7	84.3385	1741.7	83.1124	1741.7	83.6946	1741.7	82.0704	1741.7	82.646	1741.7	81.1301	1741.7	81.4424	1741.7	80.7416	1741.7	80.3652	1741.7	80.0436	1741.7	79.5006	1741.7	78.7501	1741.7	78.1553	1741.7	77.1559	1741.7	75.5709	1741.7	74.7287	1741.7	71.6292	1741.7	70.8257	1741.7	67.605	1741.7	68.6994	1741.7	69.1719	1741.7	70.5063	1741.7	71.4888	1741.7	71.7827
1803.22	87.3166	1803.22	87.3174	1803.22	86.9875	1803.22	86.9353	1803.22	86.4314	1803.22	86.2962	1803.22	85.5612	1803.22	85.3655	1803.22	84.4834	1803.22	84.0359	1803.22	83.5692	1803.22	82.5249	1803.22	82.769	1803.22	81.1552	1803.22	81.6746	1803.22	80.4665	1803.22	80.413	1803.22	80.6153	1803.22	80.3164	1803.22	81.1982	1803.22	81.3305	1803.22	81.6589	1803.22	81.7335	1803.22	81.2466	1803.22	81.0499	1803.22	79.7969	1803.22	79.2133	1803.22	77.0912	1803.22	75.6139	1803.22	72.8442	1803.22	70.615	1803.22	71.4576	1803.22	70.8785	1803.22	73.7013	1803.22	73.4911	1803.22	74.4637
1866.21	86.3409	1866.21	86.352	1866.21	86.1749	1866.21	86.1455	1866.21	85.7869	1866.21	85.723	1866.21	85.0543	1866.21	85.071	1866.21	84.1675	1866.21	84.1497	1866.21	83.4944	1866.21	82.8633	1866.21	82.9444	1866.21	80.8223	1866.21	81.7981	1866.21	77.9491	1866.21	79.4812	1866.21	75.043	1866.21	76.6007	1866.21	74.4508	1866.21	75.1586	1866.21	76.964	1866.21	76.0865	1866.21	78.0538	1866.21	76.9835	1866.21	77.172	1866.21	76.1382	1866.21	74.7634	1866.21	72.9408	1866.21	70.4078	1866.21	68.5007	1866.21	68.068	1866.21	69.9841	1866.21	71.3996	1866.21	72.4477	1866.21	72.9565
1932.13	85.9054	1932.13	85.5966	1932.13	85.8351	1932.13	85.1309	1932.13	85.2023	1932.13	84.6136	1932.13	84.1535	1932.13	84.0721	1932.13	83.2336	1932.13	83.4258	1932.13	82.6675	1932.13	82.5792	1932.13	82.0823	1932.13	81.6988	1932.13	81.2823	1932.13	80.6266	1932.13	80.3408	1932.13	79.2681	1932.13	79.6687	1932.13	78.4387	1932.13	79.2829	1932.13	78.1089	1932.13	78.804	1932.13	77.9218	1932.13	78.4217	1932.13	77.3246	1932.13	76.9535	1932.13	75.309	1932.13	73.1906	1932.13	71.2584	1932.13	67.2868	1932.13	67.3562	1932.13	65.3314	1932.13	69.5965	1932.13	69.1413	1932.13	70.8045
1999.51	86.2087	1999.51	86.0135	1999.51	86.0072	1999.51	85.4733	1999.51	85.4795	1999.51	84.7879	1999.51	84.5307	1999.51	83.9661	1999.51	83.2499	1999.51	82.8942	1999.51	82.2803	1999.51	81.6872	1999.51	81.7463	1999.51	80.3323	1999.51	80.757	1999.51	78.2898	1999.51	78.6505	1999.51	75.3635	1999.51	75.4177	1999.51	74.1485	1999.51	73.4158	1999.51	75.9646	1999.51	75.0783	1999.51	77.212	1999.51	76.5276	1999.51	76.7955	1999.51	76.0388	1999.51	75.052	1999.51	73.1776	1999.51	72.1109	1999.51	68.8309	1999.51	68.5563	1999.51	68.4851	1999.51	70.0484	1999.51	71.0363	1999.51	71.8749
2069.82	85.7555	2069.82	85.6362	2069.82	85.5711	2069.82	85.0774	2069.82	85.1025	2069.82	84.2499	2069.82	84.1091	2069.82	83.3485	2069.82	82.957	2069.82	82.698	2069.82	82.112	2069.82	82.4941	2069.82	81.5096	2069.82	81.9849	2069.82	80.9459	2069.82	80.6816	2069.82	79.9973	2069.82	79.3176	2069.82	78.4968	2069.82	77.4188	2069.82	76.6642	2069.82	74.6953	2069.82	75.603	2069.82	74.6773	2069.82	75.8657	2069.82	75.0635	2069.82	74.6781	2069.82	73.7446	2069.82	71.7259	2069.82	70.6691	2069.82	68.1107	2069.82	67.1221	2069.82	67.1458	2069.82	68.1384	2069.82	69.3114	2069.82	69.6305
2143.07	86.2196	2143.07	85.8877	2143.07	86.1037	2143.07	85.1934	2143.07	85.4336	2143.07	84.2887	2143.07	84.2485	2143.07	83.0948	2143.07	82.862	2143.07	81.7868	2143.07	81.641	2143.07	80.8978	2143.07	81.1634	2143.07	80.052	2143.07	80.9468	2143.07	78.916	2143.07	79.6802	2143.07	77.4831	2143.07	76.9869	2143.07	76.8682	2143.07	74.3907	2143.07	76.9791	2143.07	73.762	2143.07	76.4082	2143.07	73.877	2143.07	75.9083	2143.07	73.8173	2143.07	74.8831	2143.07	71.538	2143.07	72.1748	2143.07	67.9942	2143.07	68.4657	2143.07	68.8656	2143.07	68.8375	2143.07	70.6632	2143.07	70.66
2219.24	85.8592	2219.24	85.655	2219.24	85.7751	2219.24	84.8722	2219.24	85.2816	2219.24	84.1257	2219.24	84.0334	2219.24	83.2418	2219.24	82.455	2219.24	81.4809	2219.24	80.9381	2219.24	80.8021	2219.24	80.2741	2219.24	80.7685	2219.24	81.082	2219.24	78.7628	2219.24	79.875	2219.24	75.0605	2219.24	72.691	2219.24	74.2115	2219.24	71.0053	2219.24	73.7368	2219.24	74.7983	2219.24	75.6276	2219.24	70.9291	2219.24	76.5807	2219.24	74.1044	2219.24	73.7506	2219.24	70.5754	2219.24	70.8147	2219.24	56.1004	2219.24	68.5382	2219.24	62.3092	2219.24	67.8015	2219.24	68.4777	2219.24	70.7946
2296.88	85.8444	2296.88	85.3936	2296.88	85.7973	2296.88	84.8528	2296.88	85.4351	2296.88	84.2154	2296.88	84.7249	2296.88	82.7945	2296.88	83.037	2296.88	81.3101	2296.88	81.6193	2296.88	80.4167	2296.88	80.5429	2296.88	79.593	2296.88	78.8788	2296.88	79.1005	2296.88	79.4321	2296.88	78.5249	2296.88	81.2296	2296.88	77.9164	2296.88	78.22	2296.88	73.5051	2296.88	69.7981	2296.88	71.6759	2296.88	76.5532	2296.88	76.2708	2296.88	74.1362	2296.88	74.6975	2296.88	71.1461	2296.88	71.126	2296.88	67.9233	2296.88	69.4697	2296.88	66.3473	2296.88	68.652	2296.88	70.618	2296.88	70.0807
2378.91	85.6796	2378.91	85.2896	2378.91	85.5626	2378.91	84.5921	2378.91	84.9906	2378.91	83.7588	2378.91	83.8259	2378.91	82.3039	2378.91	82.5757	2378.91	81.3566	2378.91	80.8383	2378.91	81.6004	2378.91	80.5571	2378.91	80.6963	2378.91	81.2726	2378.91	78.6457	2378.91	80.0772	2378.91	76.4645	2378.91	75.3261	2378.91	73.1912	2378.91	73.631	2378.91	76.0212	2378.91	76.0621	2378.91	73.7081	2378.91	68.8361	2378.91	71.8813	2378.91	73.4789	2378.91	74.0105	2378.91	71.4113	2378.91	69.6584	2378.91	64.8162	2378.91	66.8618	2378.91	66.4225	2378.91	67.666	2378.91	69.1364	2378.91	69.2665
2462.4	85.8998	2462.4	85.492	2462.4	85.899	2462.4	84.8926	2462.4	85.2361	2462.4	83.5331	2462.4	84.2844	2462.4	82.2849	2462.4	82.4191	2462.4	81.7925	2462.4	80.6929	2462.4	79.3884	2462.4	80.1515	2462.4	76.8577	2462.4	79.8835	2462.4	75.77	2462.4	79.9416	2462.4	74.8104	2462.4	80.3706	2462.4	73.0192	2462.4	77.5034	2462.4	73.9393	2462.4	69.6775	2462.4	75.368	2462.4	72.9622	2462.4	71.3698	2462.4	71.1223	2462.4	72.2542	2462.4	69.0554	2462.4	71.6574	2462.4	67.8	2462.4	66.6811	2462.4	67.0896	2462.4	68.7796	2462.4	69.8037	2462.4	69.9973
2548.83	85.3702	2548.83	85.1391	2548.83	85.5182	2548.83	84.4697	2548.83	85.2949	2548.83	83.1634	2548.83	84.2949	2548.83	82.57	2548.83	82.7898	2548.83	81.1707	2548.83	79.9765	2548.83	78.7261	2548.83	78.4928	2548.83	79.2735	2548.83	79.8288	2548.83	79.6903	2548.83	78.1599	2548.83	79.1742	2548.83	75.7929	2548.83	77.6286	2548.83	74.0529	2548.83	72.1395	2548.83	77.1692	2548.83	73.0054	2548.83	73.266	2548.83	74.6786	2548.83	69.103	2548.83	70.9396	2548.83	67.6791	2548.83	69.9666	2548.83	61.0292	2548.83	65.6915	2548.83	66.6698	2548.83	67.4191	2548.83	69.1516	2548.83	70.1544
2639.65	85.3489	2639.65	85.0584	2639.65	85.3174	2639.65	84.3319	2639.65	84.9871	2639.65	83.6802	2639.65	84.3726	2639.65	82.4362	2639.65	82.7792	2639.65	80.6751	2639.65	80.9393	2639.65	80.9941	2639.65	77.3545	2639.65	79.6008	2639.65	75.9426	2639.65	76.3226	2639.65	77.3153	2639.65	73.4305	2639.65	77.304	2639.65	74.5359	2639.65	76.4286	2639.65	75.9478	2639.65	72.0176	2639.65	70.887	2639.65	73.1805	2639.65	73.8607	2639.65	73.1412	2639.65	73.2724	2639.65	68.4338	2639.65	69.9278	2639.65	59.8857	2639.65	66.0782	2639.65	64.0134	2639.65	65.081	2639.65	68.9111	2639.65	69.9324
2731.93	85.5435	2731.93	85.0422	2731.93	85.2214	2731.93	84.0148	2731.93	84.849	2731.93	83.302	2731.93	84.0147	2731.93	81.7404	2731.93	83.0222	2731.93	80.8217	2731.93	80.6954	2731.93	80.0375	2731.93	78.682	2731.93	78.5868	2731.93	75.644	2731.93	78.0665	2731.93	73.4511	2731.93	78.9368	2731.93	76.5942	2731.93	75.3704	2731.93	69.2206	2731.93	73.8224	2731.93	72.7269	2731.93	73.4229	2731.93	74.2793	2731.93	70.1225	2731.93	72.4435	2731.93	71.6773	2731.93	69.5384	2731.93	69.2217	2731.93	60.1267	2731.93	64.8403	2731.93	61.9507	2731.93	62.597	2731.93	68.2059	2731.93	67.481
2828.61	85.5029	2828.61	84.9962	2828.61	85.5662	2828.61	84.6567	2828.61	85.0711	2828.61	83.4228	2828.61	84.3792	2828.61	82.0588	2828.61	82.8829	2828.61	81.87	2828.61	81.0591	2828.61	79.6885	2828.61	78.846	2828.61	78.7305	2828.61	79.5295	2828.61	77.096	2828.61	79.5001	2828.61	70.978	2828.61	74.029	2828.61	72.9224	2828.61	72.2925	2828.61	75.063	2828.61	69.7222	2828.61	74.354	2828.61	67.0018	2828.61	73.1431	2828.61	70.1857	2828.61	73.6533	2828.61	68.4153	2828.61	71.7791	2828.61	57.7513	2828.61	66.6443	2828.61	63.4079	2828.61	63.4129	2828.61	67.9839	2828.61	67.3348
2928.22	85.28	2928.22	84.8853	2928.22	85.3844	2928.22	84.6036	2928.22	85.1903	2928.22	83.6256	2928.22	84.3688	2928.22	82.9702	2928.22	83.2846	2928.22	80.9653	2928.22	81.3608	2928.22	79.9818	2928.22	79.8118	2928.22	79.13	2928.22	78.8369	2928.22	79.3376	2928.22	80.3471	2928.22	80.6539	2928.22	80.7828	2928.22	78.4902	2928.22	77.6889	2928.22	72.9633	2928.22	70.6995	2928.22	75.3358	2928.22	66.9061	2928.22	74.5413	2928.22	70.4411	2928.22	72.3285	2928.22	67.6464	2928.22	71.9068	2928.22	62.9166	2928.22	66.672	2928.22	62.0495	2928.22	63.507	2928.22	67.5344	2928.22	66.4616
3030.76	85.9947	3030.76	85.8162	3030.76	85.772	3030.76	84.7759	3030.76	85.0453	3030.76	83.784	3030.76	84.3969	3030.76	82.7103	3030.76	83.4058	3030.76	81.1461	3030.76	82.0257	3030.76	80.8627	3030.76	79.296	3030.76	80.5467	3030.76	78.5093	3030.76	77.3251	3030.76	77.562	3030.76	72.756	3030.76	79.7396	3030.76	73.0501	3030.76	77.6784	3030.76	76.6549	3030.76	77.3954	3030.76	67.9134	3030.76	72.9952	3030.76	74.5193	3030.76	72.1817	3030.76	73.6935	3030.76	71.1202	3030.76	72.0556	3030.76	61.9731	3030.76	68.6152	3030.76	62.0476	3030.76	62.2801	3030.76	65.8834	3030.76	67.0868
3137.7	85.9354	3137.7	85.7237	3137.7	86.2138	3137.7	85.2894	3137.7	85.8858	3137.7	84.5514	3137.7	84.928	3137.7	83.1122	3137.7	83.6251	3137.7	82.5232	3137.7	82.0674	3137.7	80.6958	3137.7	79.592	3137.7	78.2384	3137.7	78.3288	3137.7	79.6297	3137.7	77.802	3137.7	79.929	3137.7	73.173	3137.7	76.1766	3137.7	76.8146	3137.7	73.0474	3137.7	75.598	3137.7	77.1142	3137.7	72.3876	3137.7	72.5263	3137.7	73.1181	3137.7	74.9126	3137.7	73.1073	3137.7	73.3373	3137.7	65.0199	3137.7	70.6288	3137.7	55.2453	3137.7	62.5049	3137.7	66.2926	3137.7	66.1693
3249.02	86.8586	3249.02	86.2997	3249.02	86.5313	3249.02	85.8039	3249.02	86.2048	3249.02	85.0603	3249.02	85.4251	3249.02	84.2329	3249.02	84.2899	3249.02	82.9989	3249.02	82.0961	3249.02	81.3023	3249.02	79.7098	3249.02	80.9834	3249.02	77.1283	3249.02	77.7145	3249.02	79.1757	3249.02	75.8969	3249.02	76.1928	3249.02	76.386	3249.02	74.2961	3249.02	75.3302	3249.02	70.9138	3249.02	73.7131	3249.02	72.5024	3249.02	74.4294	3249.02	73.2063	3249.02	74.4117	3249.02	72.3075	3249.02	74.1567	3249.02	67.9748	3249.02	70.8496	3249.02	59.2991	3249.02	67.5364	3249.02	66.4395	3249.02	66.9602
3363.28	86.9966	3363.28	86.7278	3363.28	87.1181	3363.28	86.382	3363.28	86.4724	3363.28	85.267	3363.28	85.6285	3363.28	84.6458	3363.28	84.3158	3363.28	83.012	3363.28	82.5779	3363.28	82.038	3363.28	80.2449	3363.28	80.4912	3363.28	77.5812	3363.28	81.1462	3363.28	75.9931	3363.28	79.4657	3363.28	78.6474	3363.28	77.4142	3363.28	74.5963	3363.28	75.1968	3363.28	71.6949	3363.28	72.323	3363.28	72.5031	3363.28	73.4754	3363.28	72.9744	3363.28	73.5922	3363.28	72.6431	3363.28	74.487	3363.28	68.6312	3363.28	72.2268	3363.28	64.3471	3363.28	66.8459	3363.28	69.2215	3363.28	69.2764
3481.93	86.9695	3481.93	86.8267	3481.93	87.0651	3481.93	86.3549	3481.93	86.6548	3481.93	85.9148	3481.93	85.8633	3481.93	84.7448	3481.93	84.5036	3481.93	83.8164	3481.93	83.1315	3481.93	82.7227	3481.93	80.5644	3481.93	80.2737	3481.93	79.5878	3481.93	77.8694	3481.93	78.0774	3481.93	80.0169	3481.93	78.3299	3481.93	72.9212	3481.93	73.8946	3481.93	75.4163	3481.93	73.2697	3481.93	74.1139	3481.93	68.8015	3481.93	73.514	3481.93	72.5239	3481.93	73.6781	3481.93	73.4441	3481.93	73.9518	3481.93	69.4808	3481.93	70.1651	3481.93	64.652	3481.93	66.968	3481.93	69.7156	3481.93	69.1626
3604.98	87.1148	3604.98	86.9165	3604.98	86.988	3604.98	86.2031	3604.98	86.5751	3604.98	85.5274	3604.98	85.6403	3604.98	84.6268	3604.98	84.711	3604.98	83.888	3604.98	83.2501	3604.98	81.5326	3604.98	81.1836	3604.98	81.1655	3604.98	79.8947	3604.98	79.985	3604.98	79.0741	3604.98	74.6412	3604.98	76.2752	3604.98	77.7537	3604.98	75.0886	3604.98	73.4132	3604.98	73.4121	3604.98	75.537	3604.98	67.0059	3604.98	72.3056	3604.98	71.5165	3604.98	73.627	3604.98	72.9446	3604.98	73.0859	3604.98	70.0208	3604.98	72.2632	3604.98	65.2038	3604.98	67.7328	3604.98	69.3202	3604.98	69.7568
3732.42	86.3929	3732.42	85.9773	3732.42	86.1212	3732.42	86.0183	3732.42	85.9174	3732.42	84.965	3732.42	85.324	3732.42	84.3595	3732.42	84.3494	3732.42	82.8027	3732.42	82.8927	3732.42	82.0938	3732.42	80.9626	3732.42	79.0671	3732.42	78.651	3732.42	78.467	3732.42	79.3103	3732.42	79.6244	3732.42	77.3248	3732.42	75.3773	3732.42	77.7233	3732.42	73.5831	3732.42	73.4578	3732.42	71.4995	3732.42	69.0437	3732.42	72.5303	3732.42	67.2845	3732.42	71.0846	3732.42	72.0341	3732.42	71.5944	3732.42	68.6827	3732.42	69.7731	3732.42	65.2381	3732.42	63.3706	3732.42	69.6418	3732.42	69.7638
3864.26	85.8028	3864.26	85.9072	3864.26	86.1908	3864.26	85.2681	3864.26	85.4108	3864.26	84.5122	3864.26	84.7617	3864.26	83.5031	3864.26	83.6808	3864.26	82.3751	3864.26	81.4963	3864.26	81.1928	3864.26	79.3523	3864.26	79.0071	3864.26	76.7249	3864.26	74.5994	3864.26	77.7476	3864.26	76.3289	3864.26	74.6208	3864.26	73.0608	3864.26	74.3794	3864.26	73.1789	3864.26	72.7589	3864.26	71.0574	3864.26	72.5962	3864.26	71.0472	3864.26	67.1647	3864.26	68.4326	3864.26	70.3654	3864.26	70.9912	3864.26	67.0961	3864.26	67.6926	3864.26	64.5973	3864.26	62.1015	3864.26	69.4342	3864.26	68.2663
4000.49	85.154	4000.49	85.1239	4000.49	84.6841	4000.49	84.7771	4000.49	84.7495	4000.49	84.4172	4000.49	84.3242	4000.49	82.8186	4000.49	82.9579	4000.49	82.2167	4000.49	80.9618	4000.49	79.9417	4000.49	78.2159	4000.49	78.9508	4000.49	76.0545	4000.49	77.9375	4000.49	77.2002	4000.49	72.9135	4000.49	75.4136	4000.49	75.5291	4000.49	71.6546	4000.49	69.441	4000.49	70.4646	4000.49	71.6763	4000.49	70.1748	4000.49	69.9274	4000.49	68.1698	4000.49	69.741	4000.49	69.4803	4000.49	68.584	4000.49	67.5692	4000.49	67.8265	4000.49	62.3627	4000.49	61.0881	4000.49	67.7393	4000.49	65.5081
4141.11	85.2111	4141.11	85.2941	4141.11	85.1418	4141.11	85.2621	4141.11	84.3973	4141.11	84.072	4141.11	83.7325	4141.11	83.4436	4141.11	83.2379	4141.11	80.9943	4141.11	81.8841	4141.11	80.7809	4141.11	79.1553	4141.11	77.7008	4141.11	76.1358	4141.11	76.1496	4141.11	75.8928	4141.11	76.4158	4141.11	76.2145	4141.11	73.2578	4141.11	71.7891	4141.11	70.8592	4141.11	68.6771	4141.11	68.6301	4141.11	68.6978	4141.11	71.3075	4141.11	66.2137	4141.11	68.2035	4141.11	70.0777	4141.11	67.746	4141.11	67.8583	4141.11	68.0754	4141.11	62.6905	4141.11	60.082	4141.11	67.4838	4141.11	64.9348
4287.6	85.4826	4287.6	85.2105	4287.6	84.7181	4287.6	85.0604	4287.6	84.3613	4287.6	84.6283	4287.6	83.8899	4287.6	82.9941	4287.6	83.3658	4287.6	81.6991	4287.6	82.2446	4287.6	79.471	4287.6	79.4871	4287.6	78.0557	4287.6	77.1911	4287.6	74.6226	4287.6	75.1727	4287.6	74.2011	4287.6	75.188	4287.6	72.6629	4287.6	73.0021	4287.6	69.8787	4287.6	71.0963	4287.6	69.6075	4287.6	66.9797	4287.6	69.7922	4287.6	65.7567	4287.6	69.0326	4287.6	68.6968	4287.6	67.4224	4287.6	67.2404	4287.6	68.0531	4287.6	62.0794	4287.6	58.0993	4287.6	66.356	4287.6	60.9811
4438.48	85.816	4438.48	86.4478	4438.48	85.832	4438.48	85.8697	4438.48	84.6306	4438.48	84.9611	4438.48	83.5698	4438.48	83.4285	4438.48	83.3103	4438.48	81.6814	4438.48	81.3526	4438.48	80.0832	4438.48	78.8338	4438.48	78.0095	4438.48	75.6463	4438.48	76.3865	4438.48	76.534	4438.48	72.1171	4438.48	76.2486	4438.48	71.5463	4438.48	71.8281	4438.48	72.2321	4438.48	68.8831	4438.48	68.1329	4438.48	68.7433	4438.48	70.089	4438.48	62.7224	4438.48	69.6588	4438.48	65.962	4438.48	67.6497	4438.48	63.8609	4438.48	67.7311	4438.48	58.6773	4438.48	63.7821	4438.48	63.7931	4438.48	59.3599
4595.21	86.8615	4595.21	86.5478	4595.21	86.1872	4595.21	86.2959	4595.21	85.3756	4595.21	85.5578	4595.21	84.3349	4595.21	84.3266	4595.21	83.1349	4595.21	82.3427	4595.21	81.7177	4595.21	80.6777	4595.21	78.0506	4595.21	78.3291	4595.21	75.925	4595.21	76.8465	4595.21	75.0916	4595.21	74.52	4595.21	74.7315	4595.21	74.7266	4595.21	74.3413	4595.21	70.5851	4595.21	69.581	4595.21	70.7328	4595.21	69.4574	4595.21	71.0481	4595.21	67.2462	4595.21	69.5877	4595.21	65.3534	4595.21	68.6128	4595.21	65.439	4595.21	69.3903	4595.21	57.4283	4595.21	64.1993	4595.21	65.0866	4595.21	64.7028
4756.35	86.9853	4756.35	86.9555	4756.35	86.7178	4756.35	86.6549	4756.35	85.7105	4756.35	85.9476	4756.35	84.5946	4756.35	84.4482	4756.35	84.2041	4756.35	83.2402	4756.35	83.3603	4756.35	80.9063	4756.35	81.0188	4756.35	79.0679	4756.35	77.0995	4756.35	76.9512	4756.35	76.1017	4756.35	74.5913	4756.35	74.4796	4756.35	73.8655	4756.35	70.8996	4756.35	72.3248	4756.35	68.7961	4756.35	69.1287	4756.35	69.1961	4756.35	69.8587	4756.35	68.6824	4756.35	70.7153	4756.35	68.0293	4756.35	67.5858	4756.35	65.8965	4756.35	68.4629	4756.35	59.6985	4756.35	64.2544	4756.35	65.975	4756.35	64.7109
4924.8	87.1677	4924.8	87.174	4924.8	87.0056	4924.8	86.8112	4924.8	86.111	4924.8	86.1092	4924.8	84.9964	4924.8	84.8927	4924.8	84.4289	4924.8	82.7197	4924.8	83.8554	4924.8	81.2886	4924.8	81.3908	4924.8	78.0533	4924.8	78.3099	4924.8	75.7372	4924.8	77.2267	4924.8	74.9476	4924.8	77.2024	4924.8	72.541	4924.8	75.3797	4924.8	73.2667	4924.8	72.3798	4924.8	68.509	4924.8	64.7271	4924.8	69.8309	4924.8	67.3164	4924.8	70.371	4924.8	67.8307	4924.8	67.7748	4924.8	68.4031	4924.8	67.8088	4924.8	61.4593	4924.8	64.2051	4924.8	67.1875	4924.8	63.9014
5097.66	87.1379	5097.66	86.8634	5097.66	86.7435	5097.66	86.7792	5097.66	86.2012	5097.66	85.9172	5097.66	85.1863	5097.66	84.2928	5097.66	84.2701	5097.66	82.8342	5097.66	83.4366	5097.66	79.9775	5097.66	80.2997	5097.66	78.3858	5097.66	77.6322	5097.66	75.8138	5097.66	75.3013	5097.66	72.6625	5097.66	75.4493	5097.66	71.9011	5097.66	74.2031	5097.66	70.2802	5097.66	72.7934	5097.66	70.1973	5097.66	68.9801	5097.66	67.2831	5097.66	61.046	5097.66	69.5615	5097.66	66.1171	5097.66	65.8017	5097.66	70.1774	5097.66	67.2423	5097.66	60.6869	5097.66	60.8964	5097.66	67.6881	5097.66	64.3983
5277.83	86.9676	5277.83	87.2399	5277.83	86.8703	5277.83	86.8895	5277.83	86.2652	5277.83	85.9149	5277.83	84.951	5277.83	84.3995	5277.83	84.1097	5277.83	81.7746	5277.83	83.3425	5277.83	80.3496	5277.83	81.0583	5277.83	76.3843	5277.83	77.9558	5277.83	74.4105	5277.83	75.2859	5277.83	73.3708	5277.83	77.2082	5277.83	70.0969	5277.83	73.6273	5277.83	71.0167	5277.83	70.0826	5277.83	68.0716	5277.83	69.1978	5277.83	67.8591	5277.83	70.1505	5277.83	70.0823	5277.83	62.6534	5277.83	66.7478	5277.83	65.6125	5277.83	67.0912	5277.83	59.2266	5277.83	63.4318	5277.83	65.212	5277.83	61.1547
5463.87	87.3911	5463.87	87.4336	5463.87	87.179	5463.87	87.0532	5463.87	86.4189	5463.87	86.2675	5463.87	85.6066	5463.87	84.1084	5463.87	84.3282	5463.87	82.1029	5463.87	84.0111	5463.87	79.3143	5463.87	81.8405	5463.87	77.3361	5463.87	78.3986	5463.87	75.132	5463.87	75.8682	5463.87	71.7321	5463.87	75.885	5463.87	71.2821	5463.87	73.7738	5463.87	67.7157	5463.87	72.9033	5463.87	70.0182	5463.87	66.1974	5463.87	66.2314	5463.87	69.3949	5463.87	68.7724	5463.87	68.5586	5463.87	66.4624	5463.87	67.844	5463.87	67.109	5463.87	60.541	5463.87	64.08	5463.87	65.9814	5463.87	61.5914
5657.23	87.3933	5657.23	87.3338	5657.23	86.9226	5657.23	87.3281	5657.23	86.8638	5657.23	86.181	5657.23	85.7301	5657.23	84.0631	5657.23	84.8156	5657.23	81.1784	5657.23	83.9837	5657.23	79.4901	5657.23	81.561	5657.23	75.4198	5657.23	79.2225	5657.23	74.4967	5657.23	74.6868	5657.23	73.2185	5657.23	74.9792	5657.23	70.5159	5657.23	73.9059	5657.23	70.048	5657.23	70.6945	5657.23	68.0297	5657.23	67.4838	5657.23	66.7593	5657.23	65.3328	5657.23	68.7952	5657.23	66.7271	5657.23	66.6474	5657.23	69.5252	5657.23	66.6274	5657.23	61.3602	5657.23	63.2852	5657.23	67.6671	5657.23	62.9995
5856.45	86.823	5856.45	86.9688	5856.45	86.914	5856.45	86.8933	5856.45	86.3331	5856.45	85.7174	5856.45	85.5242	5856.45	83.6594	5856.45	84.3621	5856.45	81.0796	5856.45	83.4403	5856.45	78.6402	5856.45	81.5311	5856.45	76.1978	5856.45	78.5962	5856.45	74.0278	5856.45	74.4455	5856.45	72.9114	5856.45	75.8994	5856.45	70.8276	5856.45	75.238	5856.45	69.7969	5856.45	71.1903	5856.45	69.031	5856.45	68.1221	5856.45	65.6494	5856.45	67.0779	5856.45	67.9104	5856.45	64.9508	5856.45	67.0922	5856.45	69.6738	5856.45	65.6487	5856.45	54.7965	5856.45	63.6217	5856.45	66.2267	5856.45	57.9166
6062.99	86.7224	6062.99	87.1782	6062.99	86.5385	6062.99	86.8999	6062.99	86.3952	6062.99	85.836	6062.99	85.578	6062.99	83.5534	6062.99	84.3062	6062.99	80.6493	6062.99	83.4385	6062.99	79.2267	6062.99	81.4314	6062.99	76.1606	6062.99	78.5689	6062.99	74.112	6062.99	73.9703	6062.99	71.9539	6062.99	76.689	6062.99	71.3332	6062.99	73.9877	6062.99	70.158	6062.99	71.4306	6062.99	68.586	6062.99	68.786	6062.99	67.9493	6062.99	67.5115	6062.99	67.6806	6062.99	62.6779	6062.99	67.6407	6062.99	66.7559	6062.99	65.9926	6062.99	59.5022	6062.99	64.3459	6062.99	65.3942	6062.99	59.2425
6276.86	86.9005	6276.86	87.562	6276.86	86.524	6276.86	87.1507	6276.86	86.5101	6276.86	85.612	6276.86	86.1366	6276.86	83.4416	6276.86	84.8175	6276.86	81.2757	6276.86	83.8097	6276.86	78.6906	6276.86	81.3381	6276.86	77.0053	6276.86	78.2997	6276.86	73.777	6276.86	73.5465	6276.86	72.6195	6276.86	72.01	6276.86	68.5651	6276.86	72.2727	6276.86	70.9325	6276.86	71.3938	6276.86	68.3799	6276.86	68.7343	6276.86	67.3785	6276.86	66.1411	6276.86	67.1558	6276.86	66.7151	6276.86	68.1832	6276.86	68.105	6276.86	66.0201	6276.86	55.7502	6276.86	64.4422	6276.86	64.2628	6276.86	51.2007
6498.05	87.1855	6498.05	87.7414	6498.05	86.7769	6498.05	87.2524	6498.05	86.3587	6498.05	85.7458	6498.05	86.2792	6498.05	83.3973	6498.05	84.8946	6498.05	81.2018	6498.05	83.587	6498.05	79.4495	6498.05	81.4774	6498.05	77.3788	6498.05	78.1595	6498.05	73.7995	6498.05	74.8292	6498.05	73.2387	6498.05	74.7947	6498.05	72.1817	6498.05	74.6729	6498.05	68.5794	6498.05	67.6186	6498.05	68.9915	6498.05	70.1924	6498.05	68.6911	6498.05	66.2811	6498.05	67.3493	6498.05	63.9812	6498.05	67.9032	6498.05	67.9835	6498.05	66.457	6498.05	56.6516	6498.05	64.3627	6498.05	63.2196	6498.05	51.4835
6726.56	87.3176	6726.56	87.8777	6726.56	86.5854	6726.56	87.4839	6726.56	86.7308	6726.56	85.7932	6726.56	86.2345	6726.56	83.502	6726.56	84.9149	6726.56	81.7008	6726.56	83.1701	6726.56	79.2378	6726.56	81.2825	6726.56	76.5815	6726.56	77.6708	6726.56	74.4226	6726.56	73.1166	6726.56	72.475	6726.56	72.1979	6726.56	69.9875	6726.56	75.1582	6726.56	70.873	6726.56	72.2547	6726.56	68.3481	6726.56	67.1641	6726.56	68.1802	6726.56	62.017	6726.56	66.601	6726.56	62.6064	6726.56	68.6983	6726.56	65.9065	6726.56	65.3184	6726.56	58.038	6726.56	65.5352	6726.56	61.2687	6726.56	51.0881
6963.87	87.4519	6963.87	87.89	6963.87	86.7983	6963.87	87.423	6963.87	86.6424	6963.87	85.6407	6963.87	86.2648	6963.87	83.3275	6963.87	84.9601	6963.87	81.3894	6963.87	82.7043	6963.87	79.2329	6963.87	79.4632	6963.87	77.5764	6963.87	76.7803	6963.87	73.6587	6963.87	71.26	6963.87	73.4735	6963.87	68.1807	6963.87	70.9675	6963.87	70.3315	6963.87	67.7021	6963.87	69.5104	6963.87	68.7753	6963.87	68.466	6963.87	67.582	6963.87	63.522	6963.87	66.5982	6963.87	63.213	6963.87	68.2345	6963.87	65.3441	6963.87	64.9669	6963.87	60.0972	6963.87	65.0649	6963.87	63.9846	6963.87	52.3059
7209.96	87.2546	7209.96	87.6352	7209.96	86.762	7209.96	87.0136	7209.96	86.4972	7209.96	85.4773	7209.96	85.9713	7209.96	83.235	7209.96	84.5882	7209.96	81.3773	7209.96	81.9476	7209.96	79.8744	7209.96	79.9306	7209.96	77.4663	7209.96	77.2656	7209.96	75.8299	7209.96	73.4613	7209.96	71.8037	7209.96	69.0402	7209.96	72.6467	7209.96	71.2053	7209.96	68.0024	7209.96	65.2054	7209.96	69.765	7209.96	65.7796	7209.96	68.0754	7209.96	61.8335	7209.96	67.7833	7209.96	64.2194	7209.96	68.5605	7209.96	63.0794	7209.96	66.2099	7209.96	57.096	7209.96	65.0074	7209.96	61.7343	7209.96	56.8342
7464.84	87.1882	7464.84	87.529	7464.84	86.4542	7464.84	86.6384	7464.84	86.3451	7464.84	85.2085	7464.84	85.7777	7464.84	83.2449	7464.84	84.4913	7464.84	81.8662	7464.84	81.7389	7464.84	80.232	7464.84	78.3441	7464.84	77.4281	7464.84	75.9602	7464.84	75.4908	7464.84	71.5756	7464.84	72.4243	7464.84	66.8052	7464.84	71.7939	7464.84	71.7409	7464.84	70.2355	7464.84	70.5551	7464.84	69.5251	7464.84	66.0207	7464.84	67.0847	7464.84	61.8254	7464.84	67.6016	7464.84	64.9739	7464.84	69.0746	7464.84	62.8728	7464.84	66.6341	7464.84	62.6763	7464.84	65.0294	7464.84	62.9166	7464.84	58.2225
7727.05	87.2839	7727.05	87.0979	7727.05	86.5847	7727.05	86.2851	7727.05	86.5099	7727.05	84.8686	7727.05	85.9078	7727.05	83.2756	7727.05	84.5383	7727.05	82.1098	7727.05	82.0849	7727.05	80.2045	7727.05	80.0225	7727.05	78.1732	7727.05	78.3986	7727.05	74.0838	7727.05	75.0729	7727.05	73.3178	7727.05	71.6671	7727.05	69.0207	7727.05	69.8106	7727.05	67.5468	7727.05	68.4067	7727.05	66.701	7727.05	66.0177	7727.05	66.3433	7727.05	67.2867	7727.05	65.0344	7727.05	64.5312	7727.05	67.9034	7727.05	63.3073	7727.05	65.7068	7727.05	62.5476	7727.05	64.8852	7727.05	59.2833	7727.05	58.3195
7999.51	87.2721	7999.51	86.8175	7999.51	86.7082	7999.51	85.8731	7999.51	86.2471	7999.51	84.5594	7999.51	85.6456	7999.51	83.3292	7999.51	84.8118	7999.51	81.962	7999.51	82.7625	7999.51	79.8185	7999.51	81.177	7999.51	76.7492	7999.51	78.8226	7999.51	72.8417	7999.51	75.063	7999.51	70.6338	7999.51	70.8811	7999.51	68.9391	7999.51	72.2825	7999.51	64.9678	7999.51	69.8705	7999.51	67.9207	7999.51	65.9069	7999.51	64.4072	7999.51	66.2649	7999.51	64.7697	7999.51	64.8996	7999.51	67.1485	7999.51	62.7131	7999.51	63.363	7999.51	63.4411	7999.51	64.2316	7999.51	62.4856	7999.51	53.2135
8282.23	87.2495	8282.23	86.5083	8282.23	87.0296	8282.23	85.536	8282.23	86.2742	8282.23	84.385	8282.23	85.7643	8282.23	82.7981	8282.23	84.9529	8282.23	80.566	8282.23	82.5607	8282.23	77.2913	8282.23	80.3202	8282.23	73.2088	8282.23	78.14	8282.23	69.5931	8282.23	74.136	8282.23	65.557	8282.23	69.2608	8282.23	64.7923	8282.23	69.6492	8282.23	64.1809	8282.23	69.0365	8282.23	57.4092	8282.23	67.8801	8282.23	61.6925	8282.23	65.2682	8282.23	63.2081	8282.23	64.77	8282.23	61.4455	8282.23	65.1749	8282.23	59.5465	8282.23	63.7841	8282.23	62.0347	8282.23	62.3252	8282.23	51.5886
8573.73	87.399	8573.73	86.7123	8573.73	87.4288	8573.73	85.292	8573.73	86.543	8573.73	84.487	8573.73	85.4753	8573.73	82.578	8573.73	84.8929	8573.73	79.9274	8573.73	82.4882	8573.73	75.4368	8573.73	79.843	8573.73	71.7675	8573.73	77.4856	8573.73	67.5426	8573.73	73.6949	8573.73	66.082	8573.73	69.7241	8573.73	64.565	8573.73	68.8762	8573.73	62.9889	8573.73	66.223	8573.73	61.3664	8573.73	61.3258	8573.73	62.9116	8573.73	66.5043	8573.73	63.3624	8573.73	63.5453	8573.73	61.1765	8573.73	61.7183	8573.73	62.137	8573.73	62.6356	8573.73	61.23	8573.73	62.0337	8573.73	36.7274
8876.95	87.8319	8876.95	86.7867	8876.95	87.8448	8876.95	85.3678	8876.95	86.711	8876.95	84.6472	8876.95	85.3497	8876.95	82.6373	8876.95	84.3341	8876.95	79.5079	8876.95	81.7745	8876.95	74.0301	8876.95	78.8509	8876.95	70.2591	8876.95	76.7332	8876.95	67.7121	8876.95	72.9437	8876.95	66.188	8876.95	69.6889	8876.95	63.8886	8876.95	65.8378	8876.95	62.7546	8876.95	66.1075	8876.95	60.6145	8876.95	62.2446	8876.95	62.7018	8876.95	62.6058	8876.95	62.8338	8876.95	60.6814	8876.95	61.5233	8876.95	62.6554	8876.95	63.9699	8876.95	61.4168	8876.95	60.8547	8876.95	62.2764	8876.95	47.6811
9188.96	88.197	9188.96	86.9471	9188.96	88.2502	9188.96	85.9135	9188.96	86.8235	9188.96	85.2248	9188.96	84.5488	9188.96	82.2207	9188.96	83.1986	9188.96	78.4028	9188.96	81.3304	9188.96	73.4656	9188.96	78.2045	9188.96	71.0391	9188.96	75.7413	9188.96	69.0555	9188.96	71.4996	9188.96	67.2871	9188.96	67.9034	9188.96	64.9228	9188.96	66.8249	9188.96	64.3141	9188.96	65.1467	9188.96	63.424	9188.96	61.4421	9188.96	62.664	9188.96	63.9697	9188.96	60.8861	9188.96	63.9342	9188.96	62.4524	9188.96	61.5162	9188.96	64.022	9188.96	62.2846	9188.96	61.6423	9188.96	60.499	9188.96	44.5545
9514.16	88.5098	9514.16	87.5809	9514.16	88.3904	9514.16	86.5966	9514.16	86.8297	9514.16	85.325	9514.16	84.0109	9514.16	81.9091	9514.16	82.6532	9514.16	78.2649	9514.16	80.5732	9514.16	75.1244	9514.16	77.638	9514.16	73.3373	9514.16	74.4621	9514.16	71.2636	9514.16	70.7574	9514.16	68.6704	9514.16	67.4639	9514.16	66.5064	9514.16	66.3159	9514.16	65.5542	9514.16	63.5998	9514.16	64.2989	9514.16	62.7514	9514.16	64.4537	9514.16	62.1022	9514.16	61.0527	9514.16	61.1529	9514.16	63.2009	9514.16	59.7459	9514.16	64.5687	9514.16	60.3891	9514.16	58.6081	9514.16	61.4812	9514.16	51.7779
9849.61	88.8338	9849.61	87.986	9849.61	88.3648	9849.61	87.3651	9849.61	87.0079	9849.61	85.4525	9849.61	84.1409	9849.61	82.1092	9849.61	82.5559	9849.61	79.3846	9849.61	80.3782	9849.61	76.6791	9849.61	76.9377	9849.61	74.3632	9849.61	73.1386	9849.61	70.9075	9849.61	67.4916	9849.61	68.5942	9849.61	64.2641	9849.61	65.5395	9849.61	63.2404	9849.61	64.0044	9849.61	65.3061	9849.61	63.3854	9849.61	61.4054	9849.61	64.2704	9849.61	61.8556	9849.61	61.3321	9849.61	57.1009	9849.61	63.7325	9849.61	59.6329	9849.61	64.1171	9849.61	59.9279	9849.61	58.6622	9849.61	60.5962	9849.61	52.2096
10196.8	89.0814	10196.8	88.3403	10196.8	88.5704	10196.8	87.5572	10196.8	87.3743	10196.8	85.7257	10196.8	84.6752	10196.8	82.3368	10196.8	82.5531	10196.8	80.1426	10196.8	80.2077	10196.8	76.8351	10196.8	75.4313	10196.8	73.601	10196.8	71.251	10196.8	70.1052	10196.8	67.3744	10196.8	65.8863	10196.8	64.2222	10196.8	64.7033	10196.8	65.7731	10196.8	62.3632	10196.8	61.3925	10196.8	61.3858	10196.8	56.3844	10196.8	62.3964	10196.8	57.144	10196.8	61.5629	10196.8	56.5351	10196.8	63.7814	10196.8	56.3024	10196.8	62.7463	10196.8	57.4819	10196.8	57.0441	10196.8	59.5256	10196.8	52.2774
10555.7	89.0578	10555.7	88.6752	10555.7	88.8856	10555.7	87.7371	10555.7	87.4787	10555.7	85.9099	10555.7	85.0069	10555.7	82.5744	10555.7	82.5402	10555.7	80.0033	10555.7	79.7788	10555.7	76.7867	10555.7	74.57	10555.7	72.5935	10555.7	70.5322	10555.7	69.1019	10555.7	65.6654	10555.7	65.5315	10555.7	61.9429	10555.7	64.0556	10555.7	60.4172	10555.7	62.2201	10555.7	61.2822	10555.7	60.9793	10555.7	53.6282	10555.7	62.3999	10555.7	57.2239	10555.7	61.2532	10555.7	53.5951	10555.7	61.9874	10555.7	56.4939	10555.7	62.1494	10555.7	56.9037	10555.7	55.309	10555.7	58.1515	10555.7	50.937
10927.7	89.1921	10927.7	88.8001	10927.7	89.1289	10927.7	87.9047	10927.7	87.6495	10927.7	86.0608	10927.7	85.0837	10927.7	82.6524	10927.7	82.5735	10927.7	80.0982	10927.7	79.5028	10927.7	76.2545	10927.7	75.2772	10927.7	71.9678	10927.7	70.4749	10927.7	67.5371	10927.7	67.4427	10927.7	65.7878	10927.7	63.2337	10927.7	63.2112	10927.7	62.2425	10927.7	61.5614	10927.7	56.7754	10927.7	61.5949	10927.7	50.9804	10927.7	63.3039	10927.7	54.0237	10927.7	60.935	10927.7	53.8844	10927.7	62.3978	10927.7	57.1826	10927.7	62.3163	10927.7	56.8148	10927.7	55.3245	10927.7	57.1079	10927.7	52.9435
11313	89.4855	11313	88.8632	11313	89.3316	11313	87.8829	11313	87.6563	11313	86.0007	11313	85.0871	11313	82.6018	11313	82.6421	11313	79.9342	11313	79.2485	11313	75.2314	11313	75.2294	11313	71.0405	11313	70.4561	11313	67.8203	11313	66.9989	11313	65.2946	11313	60.9192	11313	62.8947	11313	57.6859	11313	61.343	11313	58.9167	11313	62.2699	11313	56.5106	11313	62.7148	11313	56.3544	11313	61.6103	11313	57.4402	11313	61.9994	11313	57.4765	11313	62.4574	11313	57.95	11313	56.0281	11313	57.0041	11313	52.8517
11712.9	89.6016	11712.9	88.8644	11712.9	89.4163	11712.9	87.6384	11712.9	87.6228	11712.9	85.5329	11712.9	84.954	11712.9	82.5225	11712.9	82.7694	11712.9	79.2081	11712.9	79.1368	11712.9	74.7369	11712.9	74.6385	11712.9	70.8759	11712.9	69.4162	11712.9	68.0248	11712.9	65.5553	11712.9	65.9089	11712.9	60.644	11712.9	62.7907	11712.9	59.6782	11712.9	62.0161	11712.9	59.1748	11712.9	62.606	11712.9	52.5117	11712.9	62.098	11712.9	55.5983	11712.9	61.5855	11712.9	55.4307	11712.9	60.9156	11712.9	58.27	11712.9	61.6373	11712.9	58.2098	11712.9	55.9275	11712.9	55.0576	11712.9	52.7002
12126	89.69	12126	88.8525	12126	89.4879	12126	87.3289	12126	87.4355	12126	85.1174	12126	84.6805	12126	81.9725	12126	82.4135	12126	78.6204	12126	77.9271	12126	74.4734	12126	74.1174	12126	71.3222	12126	68.2275	12126	68.0841	12126	65.7821	12126	66.1684	12126	60.5287	12126	62.8488	12126	60.6128	12126	62.3798	12126	60.3565	12126	62.5294	12126	57.116	12126	61.8002	12126	54.3498	12126	61.4107	12126	57.0697	12126	60.1601	12126	56.0585	12126	61.4501	12126	56.0511	12126	57.3779	12126	53.804	12126	53.9664
12553.7	89.6413	12553.7	88.9021	12553.7	89.4388	12553.7	87.0208	12553.7	87.254	12553.7	84.7011	12553.7	84.07	12553.7	81.5916	12553.7	81.2002	12553.7	78.7837	12553.7	76.7265	12553.7	75.023	12553.7	73.3906	12553.7	71.9591	12553.7	68.0056	12553.7	68.3566	12553.7	65.2682	12553.7	65.6583	12553.7	60.8206	12553.7	63.5138	12553.7	60.0757	12553.7	62.4909	12553.7	61.4999	12553.7	62.1177	12553.7	54.7649	12553.7	61.9482	12553.7	52.1352	12553.7	62.188	12553.7	53.7601	12553.7	60.4224	12553.7	55.7243	12553.7	61.7297	12553.7	54.0406	12553.7	57.5932	12553.7	53.5445	12553.7	54.7957
12996.1	89.5079	12996.1	88.7369	12996.1	89.1305	12996.1	86.6652	12996.1	86.9879	12996.1	84.2251	12996.1	83.1763	12996.1	81.3885	12996.1	80.5891	12996.1	78.8415	12996.1	76.0684	12996.1	75.1498	12996.1	75.2916	12996.1	71.5604	12996.1	69.6445	12996.1	68.1441	12996.1	66.1391	12996.1	64.8574	12996.1	61.8389	12996.1	62.7957	12996.1	59.7874	12996.1	61.55	12996.1	62.1061	12996.1	61.5722	12996.1	55.8355	12996.1	61.7153	12996.1	54.504	12996.1	61.0841	12996.1	54.7827	12996.1	60.4427	12996.1	57.0542	12996.1	61.9934	12996.1	51.7162	12996.1	58.4813	12996.1	53.2404	12996.1	54.4955
13454.6	89.1358	13454.6	88.5959	13454.6	88.6327	13454.6	86.5583	13454.6	86.4974	13454.6	84.3235	13454.6	82.6182	13454.6	81.1376	13454.6	79.7124	13454.6	78.3547	13454.6	76.9145	13454.6	74.9991	13454.6	75.4185	13454.6	71.5653	13454.6	69.5231	13454.6	67.7707	13454.6	66.5651	13454.6	65.1593	13454.6	61.5169	13454.6	62.2074	13454.6	58.8114	13454.6	61.2168	13454.6	61.7346	13454.6	62.2617	13454.6	54.2772	13454.6	61.0416	13454.6	52.7738	13454.6	60.644	13454.6	52.4616	13454.6	60.596	13454.6	56.4574	13454.6	62.4457	13454.6	51.1114	13454.6	58.0841	13454.6	51.1883	13454.6	52.453
13929.2	88.6078	13929.2	88.2528	13929.2	88.159	13929.2	86.2687	13929.2	86.4599	13929.2	84.2158	13929.2	82.71	13929.2	80.6506	13929.2	79.5321	13929.2	77.7191	13929.2	77.0091	13929.2	74.7651	13929.2	74.8705	13929.2	70.4456	13929.2	69.3073	13929.2	66.6604	13929.2	65.8101	13929.2	63.3485	13929.2	59.3126	13929.2	60.9596	13929.2	59.0991	13929.2	60.6228	13929.2	59.4245	13929.2	61.0921	13929.2	49.5651	13929.2	59.735	13929.2	53.045	13929.2	59.4411	13929.2	51.8559	13929.2	58.8962	13929.2	53.1767	13929.2	61.7504	13929.2	47.3947	13929.2	56.9096	13929.2	52.674	13929.2	52.4552
14419.9	88.399	14419.9	88.1475	14419.9	88.0691	14419.9	85.9706	14419.9	86.427	14419.9	83.6723	14419.9	82.6727	14419.9	80.2098	14419.9	79.3829	14419.9	77.4121	14419.9	76.4073	14419.9	74.434	14419.9	74.0913	14419.9	68.8097	14419.9	68.9374	14419.9	64.697	14419.9	65.767	14419.9	60.6155	14419.9	61.5271	14419.9	59.4256	14419.9	57.9151	14419.9	58.6702	14419.9	59.178	14419.9	59.5669	14419.9	51.5948	14419.9	59.1523	14419.9	53.0111	14419.9	57.994	14419.9	51.5637	14419.9	56.8162	14419.9	53.0251	14419.9	60.6397	14419.9	51.1652	14419.9	56.1533	14419.9	52.3147	14419.9	50.5298
14928.2	88.2703	14928.2	88.0027	14928.2	87.9854	14928.2	85.7777	14928.2	86.3637	14928.2	83.3591	14928.2	82.2977	14928.2	79.8331	14928.2	78.9767	14928.2	77.0302	14928.2	76.3134	14928.2	72.4312	14928.2	73.8536	14928.2	67.0068	14928.2	69.3442	14928.2	61.8275	14928.2	65.2619	14928.2	60.5345	14928.2	61.0699	14928.2	57.7241	14928.2	56.7244	14928.2	56.3127	14928.2	59.8057	14928.2	57.5882	14928.2	53.912	14928.2	55.8931	14928.2	52.6263	14928.2	57.7316	14928.2	55.6623	14928.2	54.1687	14928.2	53.9636	14928.2	59.5021	14928.2	51.6748	14928.2	55.4066	14928.2	50.8951	14928.2	50.9261
15455.6	88.0193	15455.6	87.5841	15455.6	87.5709	15455.6	85.4928	15455.6	85.9967	15455.6	82.8345	15455.6	81.6963	15455.6	79.1973	15455.6	78.3733	15455.6	76.1962	15455.6	76.0633	15455.6	70.2017	15455.6	73.4609	15455.6	66.3767	15455.6	69.4184	15455.6	62.3485	15455.6	65.0539	15455.6	59.9232	15455.6	61.1394	15455.6	56.4825	15455.6	52.7971	15455.6	55.7084	15455.6	56.5675	15455.6	57.3312	15455.6	50.3229	15455.6	55.7785	15455.6	54.1045	15455.6	57.4514	15455.6	53.69	15455.6	52.3862	15455.6	52.6329	15455.6	58.838	15455.6	52.2614	15455.6	54.6079	15455.6	50.6994	15455.6	51.9313
16000.5	87.4912	16000.5	86.981	16000.5	86.6791	16000.5	85.1539	16000.5	85.5233	16000.5	82.016	16000.5	81.1525	16000.5	78.5942	16000.5	77.662	16000.5	75.05	16000.5	76.0457	16000.5	69.9148	16000.5	73.2036	16000.5	65.9384	16000.5	69.6086	16000.5	62.154	16000.5	65.3451	16000.5	58.5911	16000.5	61.7918	16000.5	55.649	16000.5	50.5798	16000.5	54.7752	16000.5	52.6661	16000.5	57.6261	16000.5	44.5525	16000.5	55.5567	16000.5	53.683	16000.5	56.308	16000.5	53.525	16000.5	50.6617	16000.5	52.9352	16000.5	57.9495	16000.5	52.2043	16000.5	54.4776	16000.5	50.1066	16000.5	51.285
16564.5	86.0865	16564.5	85.9185	16564.5	85.4726	16564.5	84.4558	16564.5	84.3865	16564.5	81.3564	16564.5	80.3663	16564.5	78.0252	16564.5	77.0593	16564.5	74.4343	16564.5	75.2972	16564.5	69.8113	16564.5	72.8514	16564.5	65.7892	16564.5	69.4945	16564.5	61.5117	16564.5	64.8188	16564.5	59.2725	16564.5	60.8096	16564.5	55.588	16564.5	53.6547	16564.5	54.0456	16564.5	50.4365	16564.5	57.2248	16564.5	38.5214	16564.5	55.7577	16564.5	47.8365	16564.5	54.992	16564.5	52.8358	16564.5	52.4292	16564.5	52.5406	16564.5	57.1399	16564.5	51.6056	16564.5	54.4061	16564.5	47.8059	16564.5	51.4232
17148.9	85.8216	17148.9	85.7238	17148.9	85.619	17148.9	84.3095	17148.9	83.9284	17148.9	81.667	17148.9	80.5038	17148.9	77.9431	17148.9	77.8165	17148.9	74.0664	17148.9	74.6622	17148.9	69.5554	17148.9	72.223	17148.9	64.6362	17148.9	68.3218	17148.9	60.8123	17148.9	63.3399	17148.9	57.513	17148.9	58.3075	17148.9	54.8809	17148.9	52.4854	17148.9	53.4249	17148.9	50.2349	17148.9	55.4658	17148.9	48.3321	17148.9	53.9941	17148.9	50.4189	17148.9	54.0341	17148.9	52.0007	17148.9	52.4858	17148.9	51.5331	17148.9	55.4403	17148.9	51.0401	17148.9	52.985	17148.9	45.5472	17148.9	51.1351
17752.4	86.4376	17752.4	86.451	17752.4	86.2348	17752.4	84.7735	17752.4	84.0122	17752.4	81.6349	17752.4	80.775	17752.4	77.2673	17752.4	77.6423	17752.4	73.3481	17752.4	73.6304	17752.4	68.1973	17752.4	71.3971	17752.4	62.3025	17752.4	66.8609	17752.4	58.7788	17752.4	61.7188	17752.4	55.3443	17752.4	55.5276	17752.4	52.692	17752.4	51.875	17752.4	51.5779	17752.4	51.6606	17752.4	53.1225	17752.4	46.6243	17752.4	52.8295	17752.4	51.7443	17752.4	51.4129	17752.4	49.1608	17752.4	50.8858	17752.4	49.3279	17752.4	53.4787	17752.4	48.2349	17752.4	50.797	17752.4	43.3461	17752.4	47.9492
18379.4	86.5006	18379.4	86.4306	18379.4	86.2832	18379.4	84.552	18379.4	83.7225	18379.4	80.9322	18379.4	80.341	18379.4	75.4578	18379.4	76.094	18379.4	71.1996	18379.4	71.8224	18379.4	65.1441	18379.4	69.154	18379.4	60.3453	18379.4	63.9164	18379.4	56.1947	18379.4	58.7852	18379.4	52.8923	18379.4	52.7165	18379.4	49.5929	18379.4	45.7637	18379.4	48.4409	18379.4	51.8599	18379.4	50.348	18379.4	43.8316	18379.4	48.5769	18379.4	50.6269	18379.4	49.3465	18379.4	47.9322	18379.4	47.1149	18379.4	45.2204	18379.4	51.3839	18379.4	46.6152	18379.4	47.041	18379.4	39.6753	18379.4	40.3535
19026.9	86.1618	19026.9	85.9582	19026.9	85.7863	19026.9	83.8136	19026.9	82.8323	19026.9	79.6566	19026.9	79.0728	19026.9	72.8868	19026.9	73.9793	19026.9	66.8842	19026.9	68.1726	19026.9	59.7603	19026.9	64.9506	19026.9	55.5273	19026.9	59.9295	19026.9	50.607	19026.9	54.8081	19026.9	48.7989	19026.9	48.6416	19026.9	44.3491	19026.9	37.7146	19026.9	42.496	19026.9	46.3539	19026.9	45.0597	19026.9	35.4139	19026.9	41.8772	19026.9	45.173	19026.9	43.5984	19026.9	44.7954	19026.9	40.509	19026.9	42.8402	19026.9	47.1439	19026.9	44.8134	19026.9	37.6624	19026.9	35.8786	19026.9	34.8649
19697.8	85.8606	19697.8	85.2277	19697.8	85.3887	19697.8	82.5798	19697.8	81.8294	19697.8	77.4394	19697.8	77.3347	19697.8	68.8432	19697.8	71.0405	19697.8	58.4453	19697.8	62.9322	19697.8	50.5926	19697.8	59.6681	19697.8	49.3094	19697.8	55.5981	19697.8	46.8248	19697.8	51.3628	19697.8	41.5922	19697.8	45.7648	19697.8	40.7074	19697.8	30.3174	19697.8	35.8877	19697.8	42.5063	19697.8	39.7683	19697.8	26.3673	19697.8	30.5835	19697.8	42.0944	19697.8	41.6915	19697.8	40.4706	19697.8	32.3776	19697.8	36.2706	19697.8	46.7022	19697.8	41.7086	19697.8	38.9333	19697.8	31.5713	19697.8	35.2716
19999.5	86.1799	19999.5	84.8697	19999.5	85.0462	19999.5	81.834	19999.5	81.3806	19999.5	76.27	19999.5	76.5551	19999.5	66.9693	19999.5	69.5623	19999.5	49.8933	19999.5	59.8948	19999.5	50.4082	19999.5	57.679	19999.5	52.3813	19999.5	53.6342	19999.5	47.7972	19999.5	49.676	19999.5	49.3304	19999.5	44.168	19999.5	43.0541	19999.5	40.9037	19999.5	40.1094	19999.5	36.5092	19999.5	50.2347	19999.5	37.7204	19999.5	34.0837	19999.5	46.2012	19999.5	44.5022	19999.5	36.1229	19999.5	49.1436	19999.5	45.9147	19999.5	55.287	19999.5	39.893	19999.5	34.2611	19999.5	45.4575	19999.5	50.7722
