"SPL Horizontal"
"On-Axis"		"10°"		"-10°"		"20°"		"-20°"		"30°"		"-30°"		"40°"		"-40°"		"50°"		"-50°"		"60°"		"-60°"		"70°"		"-70°"		"80°"		"-80°"		"90°"		"-90°"		"100°"		"-100°"		"110°"		"-110°"		"120°"		"-120°"		"130°"		"-130°"		"140°"		"-140°"		"150°"		"-150°"		"160°"		"-160°"		"170°"		"-170°"		"180°"
"Frequency / Hz"	"Sound Pressure Level / dB (re 20 µPa/V)  [0.3V at 1m]"	"Frequency / Hz"	"Sound Pressure Level / dB (re 20 µPa/V)  [0.3V at 1m]"	"Frequency / Hz"	"Sound Pressure Level / dB (re 20 µPa/V)  [0.3V at 1m]"	"Frequency / Hz"	"Sound Pressure Level / dB (re 20 µPa/V)  [0.3V at 1m]"	"Frequency / Hz"	"Sound Pressure Level / dB (re 20 µPa/V)  [0.3V at 1m]"	"Frequency / Hz"	"Sound Pressure Level / dB (re 20 µPa/V)  [0.3V at 1m]"	"Frequency / Hz"	"Sound Pressure Level / dB (re 20 µPa/V)  [0.3V at 1m]"	"Frequency / Hz"	"Sound Pressure Level / dB (re 20 µPa/V)  [0.3V at 1m]"	"Frequency / Hz"	"Sound Pressure Level / dB (re 20 µPa/V)  [0.3V at 1m]"	"Frequency / Hz"	"Sound Pressure Level / dB (re 20 µPa/V)  [0.3V at 1m]"	"Frequency / Hz"	"Sound Pressure Level / dB (re 20 µPa/V)  [0.3V at 1m]"	"Frequency / Hz"	"Sound Pressure Level / dB (re 20 µPa/V)  [0.3V at 1m]"	"Frequency / Hz"	"Sound Pressure Level / dB (re 20 µPa/V)  [0.3V at 1m]"	"Frequency / Hz"	"Sound Pressure Level / dB (re 20 µPa/V)  [0.3V at 1m]"	"Frequency / Hz"	"Sound Pressure Level / dB (re 20 µPa/V)  [0.3V at 1m]"	"Frequency / Hz"	"Sound Pressure Level / dB (re 20 µPa/V)  [0.3V at 1m]"	"Frequency / Hz"	"Sound Pressure Level / dB (re 20 µPa/V)  [0.3V at 1m]"	"Frequency / Hz"	"Sound Pressure Level / dB (re 20 µPa/V)  [0.3V at 1m]"	"Frequency / Hz"	"Sound Pressure Level / dB (re 20 µPa/V)  [0.3V at 1m]"	"Frequency / Hz"	"Sound Pressure Level / dB (re 20 µPa/V)  [0.3V at 1m]"	"Frequency / Hz"	"Sound Pressure Level / dB (re 20 µPa/V)  [0.3V at 1m]"	"Frequency / Hz"	"Sound Pressure Level / dB (re 20 µPa/V)  [0.3V at 1m]"	"Frequency / Hz"	"Sound Pressure Level / dB (re 20 µPa/V)  [0.3V at 1m]"	"Frequency / Hz"	"Sound Pressure Level / dB (re 20 µPa/V)  [0.3V at 1m]"	"Frequency / Hz"	"Sound Pressure Level / dB (re 20 µPa/V)  [0.3V at 1m]"	"Frequency / Hz"	"Sound Pressure Level / dB (re 20 µPa/V)  [0.3V at 1m]"	"Frequency / Hz"	"Sound Pressure Level / dB (re 20 µPa/V)  [0.3V at 1m]"	"Frequency / Hz"	"Sound Pressure Level / dB (re 20 µPa/V)  [0.3V at 1m]"	"Frequency / Hz"	"Sound Pressure Level / dB (re 20 µPa/V)  [0.3V at 1m]"	"Frequency / Hz"	"Sound Pressure Level / dB (re 20 µPa/V)  [0.3V at 1m]"	"Frequency / Hz"	"Sound Pressure Level / dB (re 20 µPa/V)  [0.3V at 1m]"	"Frequency / Hz"	"Sound Pressure Level / dB (re 20 µPa/V)  [0.3V at 1m]"	"Frequency / Hz"	"Sound Pressure Level / dB (re 20 µPa/V)  [0.3V at 1m]"	"Frequency / Hz"	"Sound Pressure Level / dB (re 20 µPa/V)  [0.3V at 1m]"	"Frequency / Hz"	"Sound Pressure Level / dB (re 20 µPa/V)  [0.3V at 1m]"	"Frequency / Hz"	"Sound Pressure Level / dB (re 20 µPa/V)  [0.3V at 1m]"
20.5078	47.4309	20.5078	47.4085	20.5078	47.4501	20.5078	47.3837	20.5078	47.4655	20.5078	47.3574	20.5078	47.4764	20.5078	47.3304	20.5078	47.4821	20.5078	47.3033	20.5078	47.4822	20.5078	47.2769	20.5078	47.4765	20.5078	47.2516	20.5078	47.4648	20.5078	47.2279	20.5078	47.4474	20.5078	47.2061	20.5078	47.4247	20.5078	47.1867	20.5078	47.3973	20.5078	47.1698	20.5078	47.3663	20.5078	47.1559	20.5078	47.3328	20.5078	47.1453	20.5078	47.2984	20.5078	47.1387	20.5078	47.2646	20.5078	47.1364	20.5078	47.2326	20.5078	47.139	20.5078	47.204	20.5078	47.147	20.5078	47.1798	20.5078	47.1606
21.9727	46.2333	21.9727	46.245	21.9727	46.2203	21.9727	46.2552	21.9727	46.2063	21.9727	46.2636	21.9727	46.1913	21.9727	46.2701	21.9727	46.1756	21.9727	46.2743	21.9727	46.1594	21.9727	46.276	21.9727	46.143	21.9727	46.2747	21.9727	46.1266	21.9727	46.2703	21.9727	46.1107	21.9727	46.2626	21.9727	46.0959	21.9727	46.2515	21.9727	46.0825	21.9727	46.2371	21.9727	46.0713	21.9727	46.2197	21.9727	46.0629	21.9727	46.1999	21.9727	46.0579	21.9727	46.1783	21.9727	46.0568	21.9727	46.156	21.9727	46.0599	21.9727	46.1338	21.9727	46.0673	21.9727	46.113	21.9727	46.0789	21.9727	46.0944
23.4375	46.0822	23.4375	46.0842	23.4375	46.0693	23.4375	46.0753	23.4375	46.0454	23.4375	46.056	23.4375	46.0109	23.4375	46.0264	23.4375	45.966	23.4375	45.9871	23.4375	45.9113	23.4375	45.9386	23.4375	45.848	23.4375	45.8818	23.4375	45.7771	23.4375	45.8174	23.4375	45.7004	23.4375	45.7468	23.4375	45.6199	23.4375	45.6712	23.4375	45.538	23.4375	45.5927	23.4375	45.4575	23.4375	45.5133	23.4375	45.3816	23.4375	45.4357	23.4375	45.3132	23.4375	45.3629	23.4375	45.2557	23.4375	45.298	23.4375	45.2117	23.4375	45.244	23.4375	45.1835	23.4375	45.2038	23.4375	45.1726	23.4375	45.1795
24.9023	44.2521	24.9023	44.3208	24.9023	44.1816	24.9023	44.3866	24.9023	44.1109	24.9023	44.448	24.9023	44.0414	24.9023	44.5038	24.9023	43.9749	24.9023	44.5527	24.9023	43.9132	24.9023	44.5935	24.9023	43.8583	24.9023	44.6249	24.9023	43.8124	24.9023	44.6456	24.9023	43.7777	24.9023	44.6545	24.9023	43.7559	24.9023	44.6509	24.9023	43.7489	24.9023	44.634	24.9023	43.7578	24.9023	44.6038	24.9023	43.7828	24.9023	44.5605	24.9023	43.8236	24.9023	44.5048	24.9023	43.8788	24.9023	44.4382	24.9023	43.9465	24.9023	44.3625	24.9023	44.0238	24.9023	44.2802	24.9023	44.1074	24.9023	44.194
26.3672	42.9304	26.3672	42.8774	26.3672	42.9507	26.3672	42.7923	26.3672	42.9377	26.3672	42.6764	26.3672	42.8914	26.3672	42.5312	26.3672	42.8122	26.3672	42.359	26.3672	42.7008	26.3672	42.1628	26.3672	42.5586	26.3672	41.946	26.3672	42.3874	26.3672	41.7135	26.3672	42.1901	26.3672	41.4707	26.3672	41.9705	26.3672	41.2246	26.3672	41.7334	26.3672	40.983	26.3672	41.485	26.3672	40.7547	26.3672	41.2327	26.3672	40.5493	26.3672	40.9852	26.3672	40.3761	26.3672	40.7521	26.3672	40.2441	26.3672	40.5434	26.3672	40.1608	26.3672	40.3691	26.3672	40.1311	26.3672	40.238	26.3672	40.1573
27.832	43.2812	27.832	43.2454	27.832	43.2801	27.832	43.1731	27.832	43.2421	27.832	43.0653	27.832	43.1674	27.832	42.9231	27.832	43.0567	27.832	42.7486	27.832	42.9112	27.832	42.5444	27.832	42.733	27.832	42.3139	27.832	42.5246	27.832	42.0617	27.832	42.2899	27.832	41.7938	27.832	42.0337	27.832	41.5174	27.832	41.7623	27.832	41.241	27.832	41.4835	27.832	40.9745	27.832	41.2061	27.832	40.7285	27.832	40.9404	27.832	40.5139	27.832	40.6972	27.832	40.341	27.832	40.4873	27.832	40.2188	27.832	40.3208	27.832	40.1537	27.832	40.2061	27.832	40.1494
29.2969	43.7358	29.2969	43.6962	29.2969	43.7279	29.2969	43.6094	29.2969	43.6726	29.2969	43.4759	29.2969	43.5703	29.2969	43.2966	29.2969	43.4214	29.2969	43.0729	29.2969	43.2272	29.2969	42.8071	29.2969	42.9895	29.2969	42.5026	29.2969	42.7109	29.2969	42.164	29.2969	42.3953	29.2969	41.7978	29.2969	42.048	29.2969	41.4127	29.2969	41.6764	29.2969	41.02	29.2969	41.2899	29.2969	40.6334	29.2969	40.9004	29.2969	40.2691	29.2969	40.5219	29.2969	39.9447	29.2969	40.1706	29.2969	39.6783	29.2969	39.8636	29.2969	39.4858	29.2969	39.6179	29.2969	39.3799	29.2969	39.4487	29.2969	39.3674
30.7617	44.4882	30.7617	44.4699	30.7617	44.454	30.7617	44.3992	30.7617	44.3674	30.7617	44.2764	30.7617	44.2288	30.7617	44.1024	30.7617	44.0392	30.7617	43.8782	30.7617	43.8	30.7617	43.6061	30.7617	43.5136	30.7617	43.2892	30.7617	43.1835	30.7617	42.9321	30.7617	42.815	30.7617	42.5413	30.7617	42.4153	30.7617	42.1257	30.7617	41.9942	30.7617	41.697	30.7617	41.564	30.7617	41.2693	30.7617	41.1401	30.7617	40.8596	30.7617	40.7396	30.7617	40.4862	30.7617	40.3813	30.7617	40.1677	30.7617	40.0835	30.7617	39.9214	30.7617	39.8624	30.7617	39.7611	30.7617	39.7308	30.7617	39.6963
32.2266	44.2417	32.2266	44.1921	32.2266	44.2197	32.2266	44.0708	32.2266	44.126	32.2266	43.8778	32.2266	43.9604	32.2266	43.6129	32.2266	43.7227	32.2266	43.2765	32.2266	43.4129	32.2266	42.8694	32.2266	43.0316	32.2266	42.3937	32.2266	42.5804	32.2266	41.8535	32.2266	42.0625	32.2266	41.2559	32.2266	41.4838	32.2266	40.6118	32.2266	40.8539	32.2266	39.9377	32.2266	40.1873	32.2266	39.2562	32.2266	39.5045	32.2266	38.5967	32.2266	38.8326	32.2266	37.9938	32.2266	38.2046	32.2266	37.4842	32.2266	37.6567	32.2266	37.1023	32.2266	37.2249	32.2266	36.8754	32.2266	36.939	32.2266	36.8196
33.6914	45.06	33.6914	45.0094	33.6914	45.0281	33.6914	44.8761	33.6914	44.9134	33.6914	44.6591	33.6914	44.7154	33.6914	44.3575	33.6914	44.433	33.6914	43.9699	33.6914	44.0649	33.6914	43.4953	33.6914	43.6101	33.6914	42.9335	33.6914	43.0681	33.6914	42.2858	33.6914	42.44	33.6914	41.5564	33.6914	41.7293	33.6914	40.7539	33.6914	40.9437	33.6914	39.894	33.6914	40.0969	33.6914	39.0016	33.6914	39.2118	33.6914	38.1133	33.6914	38.3218	33.6914	37.278	33.6914	37.4724	33.6914	36.553	33.6914	36.7184	33.6914	35.9962	33.6914	36.1174	33.6914	35.6558	33.6914	35.72	33.6914	35.5612
35.1562	44.9779	35.1562	44.9091	35.1562	44.9413	35.1562	44.7338	35.1562	44.7988	35.1562	44.4497	35.1562	44.5482	35.1562	44.0529	35.1562	44.1859	35.1562	43.538	35.1562	43.7071	35.1562	42.8982	35.1562	43.1053	35.1562	42.1259	35.1562	42.373	35.1562	41.213	35.1562	41.5018	35.1562	40.1521	35.1562	40.4841	35.1562	38.94	35.1562	39.3148	35.1562	37.5823	35.1562	37.9957	35.1562	36.1039	35.1562	36.5446	35.1562	34.564	35.1562	35.0089	35.1562	33.0722	35.1562	33.4828	35.1562	31.7837	35.1562	32.1134	35.1562	30.8448	35.1562	31.0608	35.1562	30.3168	35.1562	30.4178	35.1562	30.1796
36.6211	45.8556	36.6211	45.7812	36.6211	45.8109	36.6211	45.5863	36.6211	45.6463	36.6211	45.267	36.6211	45.3586	36.6211	44.8168	36.6211	44.9419	36.6211	44.2262	36.6211	44.3876	36.6211	43.4822	36.6211	43.6838	36.6211	42.5678	36.6211	42.8146	36.6211	41.4601	36.6211	41.7591	36.6211	40.1296	36.6211	40.4899	36.6211	38.537	36.6211	38.9711	36.6211	36.6305	36.6211	37.156	36.6211	34.3434	36.6211	34.9844	36.6211	31.5995	36.6211	32.3872	36.6211	28.3628	36.6211	29.3211	36.6211	24.8765	36.6211	25.9346	36.6211	22.2154	36.6211	23.0154	36.6211	21.4119	36.6211	21.6973	36.6211	21.4687
38.0859	46.7121	38.0859	46.6295	38.0859	46.6559	38.0859	46.4081	38.0859	46.4608	38.0859	46.0481	38.0859	46.1265	38.0859	45.5524	38.0859	45.6549	38.0859	44.9307	38.0859	45.0533	38.0859	44.2081	38.0859	44.3425	38.0859	43.4396	38.0859	43.5696	38.0859	42.7269	38.0859	42.826	38.0859	42.2195	38.0859	42.2551	38.0859	42.0642	38.0859	42.0147	38.0859	42.3069	38.0859	42.1808	38.0859	42.8517	38.0859	42.6827	38.0859	43.5337	38.0859	43.3581	38.0859	44.2087	38.0859	44.0519	38.0859	44.7848	38.0859	44.6606	38.0859	45.2122	38.0859	45.1272	38.0859	45.4668	38.0859	45.4238	38.0859	45.5381
39.5508	47.9012	39.5508	47.824	39.5508	47.8463	39.5508	47.6162	39.5508	47.6599	39.5508	47.2822	39.5508	47.3457	39.5508	46.8329	39.5508	46.9123	39.5508	46.2916	39.5508	46.3797	39.5508	45.7036	39.5508	45.7879	39.5508	45.1473	39.5508	45.2085	39.5508	44.7362	39.5508	44.7505	39.5508	44.5897	39.5508	44.5391	39.5508	44.7703	39.5508	44.6554	39.5508	45.238	39.5508	45.0798	39.5508	45.8772	39.5508	45.704	39.5508	46.5621	39.5508	46.3974	39.5508	47.1976	39.5508	47.0563	39.5508	47.7249	39.5508	47.615	39.5508	48.1115	39.5508	48.0368	39.5508	48.3408	39.5508	48.3032	39.5508	48.4053
41.0156	49.3347	41.0156	49.2684	41.0156	49.2837	41.0156	49.0875	41.0156	49.1171	41.0156	48.8008	41.0156	48.8425	41.0156	48.4266	41.0156	48.4759	41.0156	47.9982	41.0156	48.0479	41.0156	47.5711	41.0156	47.6099	41.0156	47.2258	41.0156	47.2396	41.0156	47.0559	41.0156	47.0315	41.0156	47.1334	41.0156	47.0651	41.0156	47.4678	41.0156	47.3626	41.0156	47.9993	41.0156	47.8728	41.0156	48.6316	41.0156	48.501	41.0156	49.2729	41.0156	49.1516	41.0156	49.855	41.0156	49.7517	41.0156	50.3345	41.0156	50.2543	41.0156	50.686	41.0156	50.6315	41.0156	50.8957	41.0156	50.8682	41.0156	50.957
42.4805	50.9301	42.4805	50.8742	42.4805	50.8893	42.4805	50.7256	42.4805	50.7545	42.4805	50.4966	42.4805	50.5369	42.4805	50.2107	42.4805	50.258	42.4805	49.9065	42.4805	49.9537	42.4805	49.64	42.4805	49.6773	42.4805	49.4804	42.4805	49.4968	42.4805	49.4927	42.4805	49.4794	42.4805	49.7111	42.4805	49.6654	42.4805	50.1199	42.4805	50.0475	42.4805	50.6613	42.4805	50.5727	42.4805	51.2606	42.4805	51.1674	42.4805	51.8501	42.4805	51.7619	42.4805	52.3788	42.4805	52.3024	42.4805	52.8129	42.4805	52.7526	42.4805	53.1313	42.4805	53.0899	42.4805	53.322	42.4805	53.301	42.4805	53.3792
43.9453	52.5723	43.9453	52.5235	43.9453	52.542	43.9453	52.4004	43.9453	52.4361	43.9453	52.2168	43.9453	52.2672	43.9453	51.9981	43.9453	52.0587	43.9453	51.7827	43.9453	51.8466	43.9453	51.6222	43.9453	51.68	43.9453	51.573	43.9453	51.6147	43.9453	51.681	43.9453	51.6983	43.9453	51.9619	43.9453	51.9517	43.9453	52.3932	43.9453	52.3587	43.9453	52.9234	43.9453	52.8721	43.9453	53.4915	43.9453	53.432	43.9453	54.0424	43.9453	53.9827	43.9453	54.534	43.9453	54.4803	43.9453	54.9373	43.9453	54.8939	43.9453	55.2338	43.9453	55.2034	43.9453	55.4122	43.9453	55.3966	43.9453	55.467
45.4102	54.7087	45.4102	54.6779	45.4102	54.6833	45.4102	54.5957	45.4102	54.6049	45.4102	54.4754	45.4102	54.4851	45.4102	54.3397	45.4102	54.3448	45.4102	54.2203	45.4102	54.2143	45.4102	54.1558	45.4102	54.1318	45.4102	54.1843	45.4102	54.137	45.4102	54.3335	45.4102	54.2609	45.4102	54.6094	45.4102	54.5146	45.4102	54.9939	45.4102	54.8838	45.4102	55.45	45.4102	55.3337	45.4102	55.9335	45.4102	55.8199	45.4102	56.4024	45.4102	56.299	45.4102	56.8225	45.4102	56.7348	45.4102	57.1685	45.4102	57.1001	45.4102	57.4229	45.4102	57.3762	45.4102	57.5748	45.4102	57.5511	45.4102	57.618
46.875	56.5975	46.875	56.5768	46.875	56.5764	46.875	56.5188	46.875	56.5168	46.875	56.4352	46.875	56.4296	46.875	56.3457	46.875	56.3335	46.875	56.2767	46.875	56.2545	46.875	56.259	46.875	56.2235	46.875	56.3217	46.875	56.2708	46.875	56.4844	46.875	56.4182	46.875	56.7502	46.875	56.6717	46.875	57.1041	46.875	57.018	46.875	57.5166	46.875	57.4287	46.875	57.9519	46.875	57.8676	46.875	58.3747	46.875	58.2988	46.875	58.7553	46.875	58.6912	46.875	59.0704	46.875	59.0206	46.875	59.3036	46.875	59.2696	46.875	59.444	46.875	59.4268	46.875	59.4857
48.3398	58.5148	48.3398	58.4977	48.3398	58.4999	48.3398	58.4523	48.3398	58.4558	48.3398	58.3888	48.3398	58.392	48.3398	58.3238	48.3398	58.3241	48.3398	58.2793	48.3398	58.2736	48.3398	58.2799	48.3398	58.2654	48.3398	58.3488	48.3398	58.3231	48.3398	58.5013	48.3398	58.4638	48.3398	58.7403	48.3398	58.6919	48.3398	59.0539	48.3398	58.9976	48.3398	59.4187	48.3398	59.3585	48.3398	59.805	48.3398	59.7453	48.3398	60.1827	48.3398	60.1272	48.3398	60.5249	48.3398	60.477	48.3398	60.8101	48.3398	60.7722	48.3398	61.0223	48.3398	60.9962	48.3398	61.151	48.3398	61.1376	48.3398	61.19
51.2695	62.015	51.2695	62.0068	51.2695	62.0074	51.2695	61.9856	51.2695	61.9862	51.2695	61.9586	51.2695	61.9579	51.2695	61.9373	51.2695	61.9337	51.2695	61.9363	51.2695	61.928	51.2695	61.9713	51.2695	61.9564	51.2695	62.0563	51.2695	62.0336	51.2695	62.2002	51.2695	62.1691	51.2695	62.4038	51.2695	62.3653	51.2695	62.6594	51.2695	62.6154	51.2695	62.9515	51.2695	62.9045	51.2695	63.2595	51.2695	63.2127	51.2695	63.5617	51.2695	63.5179	51.2695	63.8372	51.2695	63.7991	51.2695	64.0685	51.2695	64.0382	51.2695	64.2418	51.2695	64.2207	51.2695	64.3473	51.2695	64.3365	51.2695	64.3794
52.7344	63.5338	52.7344	63.5289	52.7344	63.5276	52.7344	63.5153	52.7344	63.5122	52.7344	63.4992	52.7344	63.4933	52.7344	63.4903	52.7344	63.4803	52.7344	63.5006	52.7344	63.4852	52.7344	63.5431	52.7344	63.5211	52.7344	63.629	52.7344	63.5997	52.7344	63.7656	52.7344	63.7291	52.7344	63.9534	52.7344	63.9108	52.7344	64.186	52.7344	64.139	52.7344	64.4502	52.7344	64.4015	52.7344	64.7286	52.7344	64.6809	52.7344	65.0021	52.7344	64.958	52.7344	65.252	52.7344	65.2139	52.7344	65.4624	52.7344	65.4322	52.7344	65.6202	52.7344	65.5993	52.7344	65.7164	52.7344	65.7057	52.7344	65.7454
54.1992	64.9352	54.1992	64.9323	54.1992	64.931	54.1992	64.9244	54.1992	64.9214	54.1992	64.9166	54.1992	64.9111	54.1992	64.917	54.1992	64.9078	54.1992	64.9355	54.1992	64.9215	54.1992	64.9825	54.1992	64.9626	54.1992	65.0672	54.1992	65.0408	54.1992	65.1951	54.1992	65.1623	54.1992	65.3667	54.1992	65.3283	54.1992	65.5765	54.1992	65.5342	54.1992	65.8136	54.1992	65.7695	54.1992	66.0631	54.1992	66.0197	54.1992	66.3085	54.1992	66.2682	54.1992	66.5334	54.1992	66.4985	54.1992	66.7232	54.1992	66.6953	54.1992	66.8658	54.1992	66.8465	54.1992	66.9528	54.1992	66.9429	54.1992	66.979
55.6641	66.2298	55.6641	66.2294	55.6641	66.2264	55.6641	66.2267	55.6641	66.2205	55.6641	66.2262	55.6641	66.216	55.6641	66.2342	55.6641	66.2194	55.6641	66.259	55.6641	66.2386	55.6641	66.3088	55.6641	66.2823	55.6641	66.391	55.6641	66.3581	55.6641	66.51	55.6641	66.4711	55.6641	66.666	55.6641	66.6222	55.6641	66.8544	55.6641	66.8075	55.6641	67.0661	55.6641	67.0182	55.6641	67.2887	55.6641	67.2422	55.6641	67.5076	55.6641	67.4649	55.6641	67.7086	55.6641	67.6717	55.6641	67.8784	55.6641	67.8492	55.6641	68.0062	55.6641	67.986	55.6641	68.084	55.6641	68.0737	55.6641	68.107
58.5938	68.4027	58.5938	68.4041	58.5938	68.4014	58.5938	68.4064	58.5938	68.4008	58.5938	68.4127	58.5938	68.4038	58.5938	68.4273	58.5938	68.4147	58.5938	68.4558	58.5938	68.439	58.5938	68.5037	58.5938	68.4825	58.5938	68.5759	58.5938	68.5501	58.5938	68.6753	58.5938	68.6454	58.5938	68.8021	58.5938	68.7688	58.5938	68.9531	58.5938	68.9177	58.5938	69.1219	58.5938	69.0858	58.5938	69.2992	58.5938	69.2642	58.5938	69.4743	58.5938	69.442	58.5938	69.6357	58.5938	69.6078	58.5938	69.7728	58.5938	69.7507	58.5938	69.8765	58.5938	69.8612	58.5938	69.94	58.5938	69.9321	58.5938	69.959
60.0586	69.2946	60.0586	69.2962	60.0586	69.2944	60.0586	69.2999	60.0586	69.2963	60.0586	69.3084	60.0586	69.3024	60.0586	69.3252	60.0586	69.3165	60.0586	69.3548	60.0586	69.343	60.0586	69.402	60.0586	69.3866	60.0586	69.4706	60.0586	69.4516	60.0586	69.5631	60.0586	69.5406	60.0586	69.6795	60.0586	69.6541	60.0586	69.817	60.0586	69.7895	60.0586	69.97	60.0586	69.9417	60.0586	70.1305	60.0586	70.1028	60.0586	70.289	60.0586	70.2633	60.0586	70.4353	60.0586	70.4129	60.0586	70.5599	60.0586	70.542	60.0586	70.6543	60.0586	70.6418	60.0586	70.7123	60.0586	70.7059	60.0586	70.7299
62.9883	70.9562	62.9883	70.9594	62.9883	70.9566	62.9883	70.9671	62.9883	70.9614	62.9883	70.9806	62.9883	70.9719	62.9883	71.0025	62.9883	70.9907	62.9883	71.0356	62.9883	71.0206	62.9883	71.0829	62.9883	71.0646	62.9883	71.1468	62.9883	71.1255	62.9883	71.2287	62.9883	71.2047	62.9883	71.3283	62.9883	71.3023	62.9883	71.4434	62.9883	71.4162	62.9883	71.5697	62.9883	71.5425	62.9883	71.7013	62.9883	71.675	62.9883	71.8307	62.9883	71.8066	62.9883	71.95	62.9883	71.9293	62.9883	72.0515	62.9883	72.0351	62.9883	72.1285	62.9883	72.1171	62.9883	72.1757	62.9883	72.1699	62.9883	72.1898
64.4531	71.7556	64.4531	71.7589	64.4531	71.7567	64.4531	71.767	64.4531	71.7628	64.4531	71.7813	64.4531	71.7748	64.4531	71.8037	64.4531	71.7949	64.4531	71.8363	64.4531	71.8252	64.4531	71.8815	64.4531	71.8681	64.4531	71.9412	64.4531	71.9256	64.4531	72.0164	64.4531	71.9989	64.4531	72.1068	64.4531	72.0877	64.4531	72.2104	64.4531	72.1904	64.4531	72.3236	64.4531	72.3034	64.4531	72.4412	64.4531	72.4215	64.4531	72.5568	64.4531	72.5386	64.4531	72.6634	64.4531	72.6476	64.4531	72.7542	64.4531	72.7416	64.4531	72.8233	64.4531	72.8144	64.4531	72.8657	64.4531	72.8612	64.4531	72.8787
67.3828	72.9844	67.3828	72.9875	67.3828	72.9863	67.3828	72.9959	67.3828	72.9934	67.3828	73.0104	67.3828	73.0065	67.3828	73.0323	67.3828	73.0268	67.3828	73.063	67.3828	73.0556	67.3828	73.1039	67.3828	73.0944	67.3828	73.1562	67.3828	73.1444	67.3828	73.2202	67.3828	73.2063	67.3828	73.2957	67.3828	73.2799	67.3828	73.3811	67.3828	73.3638	67.3828	73.4734	67.3828	73.4553	67.3828	73.5687	67.3828	73.5507	67.3828	73.6621	67.3828	73.6451	67.3828	73.7481	67.3828	73.733	67.3828	73.8213	67.3828	73.8091	67.3828	73.8768	67.3828	73.8682	67.3828	73.9109	67.3828	73.9064	67.3828	73.921
68.8477	73.4295	68.8477	73.4332	68.8477	73.4314	68.8477	73.4425	68.8477	73.4389	68.8477	73.4583	68.8477	73.4526	68.8477	73.4812	68.8477	73.4734	68.8477	73.5125	68.8477	73.5024	68.8477	73.5531	68.8477	73.5406	68.8477	73.6037	68.8477	73.5889	68.8477	73.6646	68.8477	73.6476	68.8477	73.7353	68.8477	73.7165	68.8477	73.8143	68.8477	73.7942	68.8477	73.899	68.8477	73.8784	68.8477	73.9858	68.8477	73.9657	68.8477	74.0706	68.8477	74.0518	68.8477	74.1484	68.8477	74.1319	68.8477	74.2145	68.8477	74.2012	68.8477	74.2644	68.8477	74.2551	68.8477	74.2949	68.8477	74.2901	68.8477	74.3036
71.7773	74.0063	71.7773	74.0102	71.7773	74.0084	71.7773	74.0202	71.7773	74.0166	71.7773	74.0366	71.7773	74.0311	71.7773	74.0598	71.7773	74.0523	71.7773	74.0903	71.7773	74.0807	71.7773	74.1283	71.7773	74.1167	71.7773	74.1741	71.7773	74.1605	71.7773	74.2276	71.7773	74.2122	71.7773	74.288	71.7773	74.2713	71.7773	74.3542	71.7773	74.3365	71.7773	74.4241	71.7773	74.4061	71.7773	74.4949	71.7773	74.4774	71.7773	74.5635	71.7773	74.5472	71.7773	74.6261	71.7773	74.6119	71.7773	74.6791	71.7773	74.6677	71.7773	74.7191	71.7773	74.7111	71.7773	74.7434	71.7773	74.7392	71.7773	74.7503
74.707	74.18	74.707	74.1843	74.707	74.1819	74.707	74.1948	74.707	74.1901	74.707	74.2116	74.707	74.2046	74.707	74.2347	74.707	74.2254	74.707	74.2641	74.707	74.2526	74.707	74.2996	74.707	74.286	74.707	74.341	74.707	74.3256	74.707	74.388	74.707	74.371	74.707	74.4397	74.707	74.4216	74.707	74.4951	74.707	74.4764	74.707	74.5525	74.707	74.5338	74.707	74.6099	74.707	74.5919	74.707	74.6648	74.707	74.6484	74.707	74.7146	74.707	74.7004	74.707	74.7565	74.707	74.7451	74.707	74.7878	74.707	74.7799	74.707	74.8067	74.707	74.8026	74.707	74.8117
77.6367	74.1793	77.6367	74.1835	77.6367	74.1814	77.6367	74.1937	77.6367	74.1896	77.6367	74.21	77.6367	74.2039	77.6367	74.2319	77.6367	74.2239	77.6367	74.2592	77.6367	74.2494	77.6367	74.2914	77.6367	74.2799	77.6367	74.328	77.6367	74.3152	77.6367	74.3684	77.6367	74.3545	77.6367	74.4118	77.6367	74.3971	77.6367	74.4573	77.6367	74.4423	77.6367	74.5036	77.6367	74.4887	77.6367	74.5492	77.6367	74.535	77.6367	74.5923	77.6367	74.5794	77.6367	74.6311	77.6367	74.62	77.6367	74.6635	77.6367	74.6547	77.6367	74.6877	77.6367	74.6816	77.6367	74.7023	77.6367	74.6991	77.6367	74.7062
79.1016	74.6705	79.1016	74.6759	79.1016	74.6727	79.1016	74.6888	79.1016	74.6825	79.1016	74.7088	79.1016	74.6996	79.1016	74.7354	79.1016	74.7235	79.1016	74.768	79.1016	74.7538	79.1016	74.8058	79.1016	74.7898	79.1016	74.8482	79.1016	74.8307	79.1016	74.8942	79.1016	74.8758	79.1016	74.943	79.1016	74.924	79.1016	74.9933	79.1016	74.9744	79.1016	75.0441	79.1016	75.0256	79.1016	75.0937	79.1016	75.0763	79.1016	75.1404	79.1016	75.1247	79.1016	75.1822	79.1016	75.1687	79.1016	75.217	79.1016	75.2063	79.1016	75.2429	79.1016	75.2355	79.1016	75.2583	79.1016	75.2545	79.1016	75.2623
82.0312	74.4977	82.0312	74.504	82.0312	74.4993	82.0312	74.5181	82.0312	74.5089	82.0312	74.5393	82.0312	74.5259	82.0312	74.5668	82.0312	74.5499	82.0312	74.5998	82.0312	74.5799	82.0312	74.637	82.0312	74.615	82.0312	74.6775	82.0312	74.6541	82.0312	74.7201	82.0312	74.6961	82.0312	74.7638	82.0312	74.7399	82.0312	74.8076	82.0312	74.7845	82.0312	74.8504	82.0312	74.8287	82.0312	74.8913	82.0312	74.8715	82.0312	74.9288	82.0312	74.9114	82.0312	74.9618	82.0312	74.9473	82.0312	74.9889	82.0312	74.9776	82.0312	75.0087	82.0312	75.001	82.0312	75.0203	82.0312	75.0164	82.0312	75.0229
84.9609	74.4352	84.9609	74.4413	84.9609	74.4369	84.9609	74.4549	84.9609	74.4463	84.9609	74.4753	84.9609	74.463	84.9609	74.5014	84.9609	74.4861	84.9609	74.532	84.9609	74.5146	84.9609	74.5659	84.9609	74.5473	84.9609	74.6017	84.9609	74.5827	84.9609	74.6383	84.9609	74.6197	84.9609	74.6746	84.9609	74.657	84.9609	74.7097	84.9609	74.6937	84.9609	74.743	84.9609	74.7287	84.9609	74.7737	84.9609	74.7614	84.9609	74.8012	84.9609	74.791	84.9609	74.8249	84.9609	74.8168	84.9609	74.8441	84.9609	74.8381	84.9609	74.8581	84.9609	74.8541	84.9609	74.8664	84.9609	74.8644	84.9609	74.8686
87.8906	74.4214	87.8906	74.4252	87.8906	74.4245	87.8906	74.4357	87.8906	74.4344	87.8906	74.4522	87.8906	74.4506	87.8906	74.4736	87.8906	74.472	87.8906	74.4987	87.8906	74.4975	87.8906	74.5261	87.8906	74.5256	87.8906	74.5545	87.8906	74.5549	87.8906	74.5827	87.8906	74.5842	87.8906	74.6098	87.8906	74.6123	87.8906	74.6349	87.8906	74.6383	87.8906	74.6577	87.8906	74.6618	87.8906	74.6779	87.8906	74.6823	87.8906	74.6953	87.8906	74.6996	87.8906	74.71	87.8906	74.7138	87.8906	74.7217	87.8906	74.7248	87.8906	74.7303	87.8906	74.7326	87.8906	74.7359	87.8906	74.737	87.8906	74.7381
90.8203	74.4199	90.8203	74.4221	90.8203	74.424	90.8203	74.4303	90.8203	74.4342	90.8203	74.4438	90.8203	74.4497	90.8203	74.4617	90.8203	74.4694	90.8203	74.4825	90.8203	74.4921	90.8203	74.505	90.8203	74.5162	90.8203	74.5277	90.8203	74.5404	90.8203	74.5493	90.8203	74.5632	90.8203	74.5691	90.8203	74.5836	90.8203	74.5862	90.8203	74.601	90.8203	74.6006	90.8203	74.615	90.8203	74.6122	90.8203	74.6257	90.8203	74.6212	90.8203	74.6333	90.8203	74.6281	90.8203	74.6384	90.8203	74.6333	90.8203	74.6413	90.8203	74.6372	90.8203	74.6427	90.8203	74.64	90.8203	74.6427	90.8203	74.6418
95.2148	74.3977	95.2148	74.401	95.2148	74.4007	95.2148	74.4101	95.2148	74.4095	95.2148	74.4242	95.2148	74.4235	95.2148	74.4421	95.2148	74.4416	95.2148	74.4623	95.2148	74.4621	95.2148	74.4832	95.2148	74.4835	95.2148	74.5032	95.2148	74.5042	95.2148	74.5209	95.2148	74.5227	95.2148	74.5354	95.2148	74.5378	95.2148	74.5459	95.2148	74.549	95.2148	74.5524	95.2148	74.556	95.2148	74.5553	95.2148	74.5591	95.2148	74.5554	95.2148	74.5591	95.2148	74.5535	95.2148	74.5568	95.2148	74.5507	95.2148	74.5535	95.2148	74.5481	95.2148	74.55	95.2148	74.5464	95.2148	74.5474	95.2148	74.5461
98.1445	74.4551	98.1445	74.4587	98.1445	74.4571	98.1445	74.4677	98.1445	74.4646	98.1445	74.4811	98.1445	74.4769	98.1445	74.4977	98.1445	74.4926	98.1445	74.5158	98.1445	74.5104	98.1445	74.5339	98.1445	74.5285	98.1445	74.5502	98.1445	74.5453	98.1445	74.5634	98.1445	74.5592	98.1445	74.5725	98.1445	74.5693	98.1445	74.577	98.1445	74.5748	98.1445	74.5769	98.1445	74.5757	98.1445	74.573	98.1445	74.5726	98.1445	74.5662	98.1445	74.5665	98.1445	74.5578	98.1445	74.5585	98.1445	74.5495	98.1445	74.5502	98.1445	74.5424	98.1445	74.543	98.1445	74.5378	98.1445	74.5381	98.1445	74.5363
101.074	74.4952	101.074	74.5011	101.074	74.4955	101.074	74.5126	101.074	74.5018	101.074	74.5289	101.074	74.5134	101.074	74.5483	101.074	74.5292	101.074	74.5692	101.074	74.5474	101.074	74.5897	101.074	74.5663	101.074	74.6078	101.074	74.5841	101.074	74.6222	101.074	74.5991	101.074	74.6318	101.074	74.6101	101.074	74.6359	101.074	74.6164	101.074	74.6347	101.074	74.6177	101.074	74.6289	101.074	74.6147	101.074	74.6197	101.074	74.6083	101.074	74.6087	101.074	74.5999	101.074	74.5976	101.074	74.5913	101.074	74.5881	101.074	74.584	101.074	74.5814	101.074	74.5794	101.074	74.5784
105.469	74.711	105.469	74.7151	105.469	74.7123	105.469	74.7245	105.469	74.7191	105.469	74.7379	105.469	74.7304	105.469	74.754	105.469	74.745	105.469	74.7711	105.469	74.7612	105.469	74.7872	105.469	74.7772	105.469	74.8004	105.469	74.7911	105.469	74.8093	105.469	74.8013	105.469	74.8128	105.469	74.8064	105.469	74.8104	105.469	74.8059	105.469	74.8024	105.469	74.7997	105.469	74.7897	105.469	74.7887	105.469	74.7739	105.469	74.7742	105.469	74.7569	105.469	74.758	105.469	74.7409	105.469	74.7423	105.469	74.7279	105.469	74.7291	105.469	74.7195	105.469	74.7202	105.469	74.7168
108.398	74.8969	108.398	74.8998	108.398	74.899	108.398	74.9074	108.398	74.9058	108.398	74.9186	108.398	74.9166	108.398	74.9321	108.398	74.93	108.398	74.9462	108.398	74.9445	108.398	74.9591	108.398	74.9582	108.398	74.9689	108.398	74.9693	108.398	74.9742	108.398	74.9761	108.398	74.974	108.398	74.9774	108.398	74.9679	108.398	74.9728	108.398	74.9561	108.398	74.9622	108.398	74.9398	108.398	74.9467	108.398	74.9206	108.398	74.9277	108.398	74.9005	108.398	74.9073	108.398	74.8821	108.398	74.8878	108.398	74.8674	108.398	74.8715	108.398	74.8582	108.398	74.8604	108.398	74.8558
112.793	75.2776	112.793	75.2833	112.793	75.276	112.793	75.2926	112.793	75.2783	112.793	75.3046	112.793	75.2839	112.793	75.3178	112.793	75.2916	112.793	75.3306	112.793	75.2999	112.793	75.3409	112.793	75.307	112.793	75.3472	112.793	75.3113	112.793	75.348	112.793	75.3113	112.793	75.3421	112.793	75.306	112.793	75.3294	112.793	75.2948	112.793	75.3103	112.793	75.2781	112.793	75.2859	112.793	75.257	112.793	75.2583	112.793	75.2333	112.793	75.2298	112.793	75.2093	112.793	75.2033	112.793	75.1876	112.793	75.1812	112.793	75.1706	112.793	75.1659	112.793	75.1606	112.793	75.1589
117.188	75.6687	117.188	75.6766	117.188	75.664	117.188	75.6873	117.188	75.6627	117.188	75.6996	117.188	75.6641	117.188	75.7121	117.188	75.6673	117.188	75.723	117.188	75.6709	117.188	75.7303	117.188	75.6732	117.188	75.7325	117.188	75.6725	117.188	75.728	117.188	75.6675	117.188	75.716	117.188	75.657	117.188	75.6963	117.188	75.6408	117.188	75.6697	117.188	75.619	117.188	75.6377	117.188	75.593	117.188	75.6024	117.188	75.5647	117.188	75.5669	117.188	75.5364	117.188	75.5341	117.188	75.5112	117.188	75.5071	117.188	75.4918	117.188	75.4883	117.188	75.4807	117.188	75.4793
120.117	76.0601	120.117	76.0651	120.117	76.0574	120.117	76.0721	120.117	76.0572	120.117	76.0799	120.117	76.0586	120.117	76.0872	120.117	76.0609	120.117	76.0924	120.117	76.0624	120.117	76.0937	120.117	76.0617	120.117	76.0894	120.117	76.0572	120.117	76.0784	120.117	76.0474	120.117	76.0599	120.117	76.0314	120.117	76.0338	120.117	76.0089	120.117	76.0012	120.117	75.9803	120.117	75.9637	120.117	75.9471	120.117	75.9239	120.117	75.9114	120.117	75.8847	120.117	75.8759	120.117	75.8497	120.117	75.8439	120.117	75.8218	120.117	75.8184	120.117	75.8036	120.117	75.8021	120.117	75.7969
124.512	76.4677	124.512	76.4716	124.512	76.466	124.512	76.4773	124.512	76.4664	124.512	76.4839	124.512	76.468	124.512	76.4902	124.512	76.4699	124.512	76.4944	124.512	76.4706	124.512	76.495	124.512	76.4683	124.512	76.4902	124.512	76.4616	124.512	76.4786	124.512	76.4492	124.512	76.4594	124.512	76.4302	124.512	76.4325	124.512	76.4043	124.512	76.3987	124.512	76.3724	124.512	76.3596	124.512	76.3359	124.512	76.3177	124.512	76.2972	124.512	76.2762	124.512	76.2593	124.512	76.2385	124.512	76.2256	124.512	76.208	124.512	76.1993	124.512	76.1876	124.512	76.1832	124.512	76.1791
128.906	76.8436	128.906	76.8486	128.906	76.8404	128.906	76.8549	128.906	76.8389	128.906	76.8616	128.906	76.8385	128.906	76.8675	128.906	76.8381	128.906	76.871	128.906	76.8365	128.906	76.8703	128.906	76.8321	128.906	76.8639	128.906	76.8233	128.906	76.8503	128.906	76.8089	128.906	76.8289	128.906	76.788	128.906	76.7996	128.906	76.7605	128.906	76.7632	128.906	76.727	128.906	76.7214	128.906	76.6891	128.906	76.6769	128.906	76.6491	128.906	76.6328	128.906	76.6101	128.906	76.5928	128.906	76.5756	128.906	76.5604	128.906	76.5489	128.906	76.5385	128.906	76.5327	128.906	76.529
133.301	77.1741	133.301	77.18	133.301	77.1691	133.301	77.1864	133.301	77.1651	133.301	77.1924	133.301	77.1614	133.301	77.1965	133.301	77.1573	133.301	77.1974	133.301	77.1514	133.301	77.1932	133.301	77.1423	133.301	77.1825	133.301	77.1286	133.301	77.164	133.301	77.1091	133.301	77.137	133.301	77.083	133.301	77.1016	133.301	77.0501	133.301	77.0588	133.301	77.0114	133.301	77.0106	133.301	76.9685	133.301	76.9598	133.301	76.9239	133.301	76.91	133.301	76.8808	133.301	76.8651	133.301	76.843	133.301	76.8287	133.301	76.8139	133.301	76.8039	133.301	76.7965	133.301	76.793
139.16	77.4137	139.16	77.419	139.16	77.4097	139.16	77.4252	139.16	77.4069	139.16	77.4315	139.16	77.4047	139.16	77.4366	139.16	77.4022	139.16	77.4391	139.16	77.3981	139.16	77.4373	139.16	77.391	139.16	77.4295	139.16	77.3793	139.16	77.4144	139.16	77.3619	139.16	77.3911	139.16	77.338	139.16	77.3596	139.16	77.3075	139.16	77.3206	139.16	77.2711	139.16	77.276	139.16	77.2305	139.16	77.2282	139.16	77.1882	139.16	77.1808	139.16	77.1474	139.16	77.1376	139.16	77.1116	139.16	77.1021	139.16	77.0844	139.16	77.0775	139.16	77.0686	139.16	77.0661
143.555	77.4997	143.555	77.5042	143.555	77.4971	143.555	77.5103	143.555	77.4963	143.555	77.517	143.555	77.4968	143.555	77.5228	143.555	77.4972	143.555	77.5259	143.555	77.496	143.555	77.5244	143.555	77.4915	143.555	77.5161	143.555	77.4816	143.555	77.4994	143.555	77.4647	143.555	77.4731	143.555	77.4396	143.555	77.4371	143.555	77.4058	143.555	77.3921	143.555	77.3641	143.555	77.3403	143.555	77.3161	143.555	77.2848	143.555	77.2648	143.555	77.2299	143.555	77.2142	143.555	77.1801	143.555	77.1686	143.555	77.14	143.555	77.1326	143.555	77.1136	143.555	77.1099	143.555	77.1032
147.949	77.6463	147.949	77.6506	147.949	77.6429	147.949	77.6552	147.949	77.6402	147.949	77.6596	147.949	77.6375	147.949	77.6623	147.949	77.6341	147.949	77.662	147.949	77.6284	147.949	77.6568	147.949	77.6191	147.949	77.6449	147.949	77.6044	147.949	77.6249	147.949	77.5831	147.949	77.5957	147.949	77.5541	147.949	77.5573	147.949	77.5172	147.949	77.5105	147.949	77.4732	147.949	77.4572	147.949	77.4239	147.949	77.4007	147.949	77.3722	147.949	77.345	147.949	77.3217	147.949	77.2945	147.949	77.2769	147.949	77.2537	147.949	77.242	147.949	77.2264	147.949	77.2206	147.949	77.2151
153.809	77.7579	153.809	77.7588	153.809	77.7567	153.809	77.7593	153.809	77.7552	153.809	77.7586	153.809	77.7526	153.809	77.7558	153.809	77.7481	153.809	77.7494	153.809	77.7403	153.809	77.738	153.809	77.7278	153.809	77.7199	153.809	77.7091	153.809	77.6939	153.809	77.6829	153.809	77.659	153.809	77.6484	153.809	77.6155	153.809	77.6055	153.809	77.5641	153.809	77.5552	153.809	77.5072	153.809	77.4995	153.809	77.4478	153.809	77.4415	153.809	77.3902	153.809	77.3853	153.809	77.3388	153.809	77.3353	153.809	77.2981	153.809	77.2958	153.809	77.2718	153.809	77.2706	153.809	77.2623
159.668	77.7749	159.668	77.7759	159.668	77.7732	159.668	77.7758	159.668	77.7706	159.668	77.7741	159.668	77.7667	159.668	77.7697	159.668	77.7605	159.668	77.7615	159.668	77.7511	159.668	77.748	159.668	77.737	159.668	77.7275	159.668	77.7167	159.668	77.699	159.668	77.6891	159.668	77.6616	159.668	77.6533	159.668	77.6153	159.668	77.6092	159.668	77.5614	159.668	77.5576	159.668	77.5019	159.668	77.5004	159.668	77.4404	159.668	77.4408	159.668	77.381	159.668	77.3828	159.668	77.3285	159.668	77.3308	159.668	77.2873	159.668	77.2894	159.668	77.2612	159.668	77.2625	159.668	77.2527
165.527	77.6546	165.527	77.6586	165.527	77.6486	165.527	77.6602	165.527	77.6407	165.527	77.6591	165.527	77.6309	165.527	77.6543	165.527	77.6189	165.527	77.6451	165.527	77.604	165.527	77.6303	165.527	77.5854	165.527	77.6089	165.527	77.5621	165.527	77.5799	165.527	77.5331	165.527	77.5427	165.527	77.4977	165.527	77.4976	165.527	77.4558	165.527	77.4454	165.527	77.408	165.527	77.3883	165.527	77.356	165.527	77.3293	165.527	77.3025	165.527	77.2722	165.527	77.251	165.527	77.2213	165.527	77.2056	165.527	77.1806	165.527	77.1704	165.527	77.1537	165.527	77.1486	165.527	77.1428
171.387	77.7437	171.387	77.7429	171.387	77.7396	171.387	77.7373	171.387	77.7307	171.387	77.7266	171.387	77.7166	171.387	77.7107	171.387	77.6973	171.387	77.6891	171.387	77.6724	171.387	77.661	171.387	77.6414	171.387	77.626	171.387	77.6039	171.387	77.5834	171.387	77.5596	171.387	77.5332	171.387	77.5086	171.387	77.4758	171.387	77.4514	171.387	77.4126	171.387	77.3894	171.387	77.3459	171.387	77.3248	171.387	77.2789	171.387	77.2607	171.387	77.2155	171.387	77.2007	171.387	77.1599	171.387	77.1488	171.387	77.1163	171.387	77.1088	171.387	77.0879	171.387	77.0842	171.387	77.0769
177.246	77.5986	177.246	77.5978	177.246	77.595	177.246	77.5926	177.246	77.587	177.246	77.5829	177.246	77.5747	177.246	77.5685	177.246	77.5578	177.246	77.549	177.246	77.5362	177.246	77.524	177.246	77.5095	177.246	77.4929	177.246	77.4772	177.246	77.4552	177.246	77.4389	177.246	77.4108	177.246	77.3944	177.246	77.3601	177.246	77.3442	177.246	77.3041	177.246	77.2893	177.246	77.245	177.246	77.2316	177.246	77.1855	177.246	77.1739	177.246	77.1292	177.246	77.1197	177.246	77.0798	177.246	77.0725	177.246	77.0411	177.246	77.0362	177.246	77.016	177.246	77.0135	177.246	77.0066
183.105	77.613	183.105	77.6091	183.105	77.6106	183.105	77.599	183.105	77.602	183.105	77.5829	183.105	77.5872	183.105	77.561	183.105	77.5666	183.105	77.5332	183.105	77.5401	183.105	77.4997	183.105	77.5077	183.105	77.4603	183.105	77.4695	183.105	77.415	183.105	77.4254	183.105	77.364	183.105	77.3755	183.105	77.3079	183.105	77.3203	183.105	77.2481	183.105	77.2611	183.105	77.1866	183.105	77.1999	183.105	77.1264	183.105	77.1392	183.105	77.0707	183.105	77.0823	183.105	77.023	183.105	77.0327	183.105	76.9868	183.105	76.9937	183.105	76.9647	183.105	76.9683	183.105	76.9584
188.965	77.6406	188.965	77.6352	188.965	77.6382	188.965	77.6223	188.965	77.6284	188.965	77.6021	188.965	77.6114	188.965	77.5751	188.965	77.5877	188.965	77.5417	188.965	77.5578	188.965	77.5024	188.965	77.522	188.965	77.4574	188.965	77.4806	188.965	77.4072	188.965	77.4337	188.965	77.3523	188.965	77.3817	188.965	77.2936	188.965	77.3252	188.965	77.2327	188.965	77.2655	188.965	77.1716	188.965	77.2042	188.965	77.1131	188.965	77.1438	188.965	77.0601	188.965	77.0873	188.965	77.0158	188.965	77.038	188.965	76.9831	188.965	76.9988	188.965	76.9642	188.965	76.9724	188.965	76.9606
196.289	77.5251	196.289	77.5239	196.289	77.5176	196.289	77.5141	196.289	77.5018	196.289	77.4961	196.289	77.4782	196.289	77.4706	196.289	77.4478	196.289	77.4384	196.289	77.4115	196.289	77.4001	196.289	77.3703	196.289	77.3565	196.289	77.325	196.289	77.3081	196.289	77.2762	196.289	77.2558	196.289	77.2246	196.289	77.2005	196.289	77.1712	196.289	77.1435	196.289	77.117	196.289	77.0867	196.289	77.0636	196.289	77.0322	196.289	77.013	196.289	76.9827	196.289	76.9675	196.289	76.9406	196.289	76.9294	196.289	76.9082	196.289	76.9009	196.289	76.8873	196.289	76.8837	196.289	76.8791
203.613	77.4335	203.613	77.4254	203.613	77.4303	203.613	77.4061	203.613	77.416	203.613	77.3765	203.613	77.3914	203.613	77.3379	203.613	77.3578	203.613	77.2919	203.613	77.3167	203.613	77.24	203.613	77.2696	203.613	77.1839	203.613	77.2177	203.613	77.1251	203.613	77.1625	203.613	77.065	203.613	77.1049	203.613	77.0053	203.613	77.0464	203.613	76.9474	203.613	76.9881	203.613	76.893	203.613	76.9318	203.613	76.844	203.613	76.8792	203.613	76.8021	203.613	76.8322	203.613	76.7688	203.613	76.7925	203.613	76.7454	203.613	76.7617	203.613	76.7327	203.613	76.7411	203.613	76.7313
210.938	77.4614	210.938	77.4625	210.938	77.4461	210.938	77.4493	210.938	77.4174	210.938	77.4222	210.938	77.3767	210.938	77.3825	210.938	77.3258	210.938	77.3315	210.938	77.2671	210.938	77.2711	210.938	77.2026	210.938	77.203	210.938	77.1345	210.938	77.1294	210.938	77.0648	210.938	77.0524	210.938	76.995	210.938	76.9745	210.938	76.9266	210.938	76.8982	210.938	76.8612	210.938	76.8264	210.938	76.8002	210.938	76.7616	210.938	76.7451	210.938	76.7062	210.938	76.6974	210.938	76.662	210.938	76.6585	210.938	76.6302	210.938	76.6295	210.938	76.6113	210.938	76.6115	210.938	76.6052
218.262	77.481	218.262	77.4748	218.262	77.4718	218.262	77.4535	218.262	77.4476	218.262	77.4184	218.262	77.4097	218.262	77.371	218.262	77.3599	218.262	77.3137	218.262	77.3006	218.262	77.2486	218.262	77.2342	218.262	77.178	218.262	77.1633	218.262	77.1042	218.262	77.0901	218.262	77.0292	218.262	77.0168	218.262	76.9553	218.262	76.9453	218.262	76.8845	218.262	76.8775	218.262	76.8189	218.262	76.8149	218.262	76.7606	218.262	76.7593	218.262	76.7113	218.262	76.712	218.262	76.6723	218.262	76.674	218.262	76.6443	218.262	76.6461	218.262	76.6278	218.262	76.6289	218.262	76.6227
225.586	77.3841	225.586	77.3809	225.586	77.3705	225.586	77.3616	225.586	77.3407	225.586	77.3277	225.586	77.2961	225.586	77.2814	225.586	77.2389	225.586	77.2254	225.586	77.1723	225.586	77.1626	225.586	77.0995	225.586	77.0956	225.586	77.0239	225.586	77.027	225.586	76.9487	225.586	76.959	225.586	76.8766	225.586	76.8934	225.586	76.8102	225.586	76.832	225.586	76.7513	225.586	76.7763	225.586	76.7012	225.586	76.7272	225.586	76.6608	225.586	76.6858	225.586	76.6303	225.586	76.6521	225.586	76.6093	225.586	76.6264	225.586	76.5973	225.586	76.6081	225.586	76.5935	225.586	76.5972
232.91	77.3001	232.91	77.2897	232.91	77.2904	232.91	77.2598	232.91	77.2614	232.91	77.212	232.91	77.2149	232.91	77.1493	232.91	77.1541	232.91	77.0751	232.91	77.0825	232.91	76.9934	232.91	77.004	232.91	76.9082	232.91	76.9223	232.91	76.8232	232.91	76.841	232.91	76.7419	232.91	76.763	232.91	76.6671	232.91	76.6907	232.91	76.6012	232.91	76.6261	232.91	76.5458	232.91	76.5705	232.91	76.5017	232.91	76.5247	232.91	76.4689	232.91	76.4887	232.91	76.4464	232.91	76.462	232.91	76.4328	232.91	76.4435	232.91	76.4265	232.91	76.432	232.91	76.4264
241.699	77.2837	241.699	77.2877	241.699	77.2554	241.699	77.268	241.699	77.2033	241.699	77.2269	241.699	77.1296	241.699	77.1673	241.699	77.0377	241.699	77.0929	241.699	76.9321	241.699	77.0079	241.699	76.8183	241.699	76.9163	241.699	76.702	241.699	76.8221	241.699	76.589	241.699	76.7291	241.699	76.4848	241.699	76.6406	241.699	76.394	241.699	76.5595	241.699	76.32	241.699	76.4879	241.699	76.2649	241.699	76.427	241.699	76.2289	241.699	76.3768	241.699	76.2106	241.699	76.336	241.699	76.2072	241.699	76.3027	241.699	76.215	241.699	76.2748	241.699	76.2305	241.699	76.2508
250.488	77.3787	250.488	77.3617	250.488	77.3672	250.488	77.3171	250.488	77.3274	250.488	77.2477	250.488	77.2611	250.488	77.1571	250.488	77.1712	250.488	77.05	250.488	77.0618	250.488	76.9318	250.488	76.9377	250.488	76.8081	250.488	76.8043	250.488	76.6844	250.488	76.6675	250.488	76.5661	250.488	76.5336	250.488	76.4575	250.488	76.4084	250.488	76.3621	250.488	76.2978	250.488	76.2822	250.488	76.2063	250.488	76.2181	250.488	76.1367	250.488	76.1688	250.488	76.0894	250.488	76.1317	250.488	76.0628	250.488	76.1039	250.488	76.053	250.488	76.0825	250.488	76.0555	250.488	76.0662
259.277	77.6839	259.277	77.657	259.277	77.6815	259.277	77.6022	259.277	77.6501	259.277	77.5216	259.277	77.5912	259.277	77.4188	259.277	77.5072	259.277	77.2982	259.277	77.4018	259.277	77.1646	259.277	77.2791	259.277	77.0233	259.277	77.1439	259.277	76.8798	259.277	77.0014	259.277	76.7396	259.277	76.8572	259.277	76.6079	259.277	76.717	259.277	76.4899	259.277	76.5867	259.277	76.3892	259.277	76.4713	259.277	76.3084	259.277	76.3745	259.277	76.248	259.277	76.2982	259.277	76.2066	259.277	76.242	259.277	76.1816	259.277	76.2039	259.277	76.1701	259.277	76.1808	259.277	76.17
268.066	77.5997	268.066	77.5763	268.066	77.5938	268.066	77.5248	268.066	77.5594	268.066	77.4481	268.066	77.4987	268.066	77.3505	268.066	77.4158	268.066	77.2375	268.066	77.3155	268.066	77.1154	268.066	77.2036	268.066	76.9905	268.066	77.086	268.066	76.8691	268.066	76.9686	268.066	76.7567	268.066	76.8571	268.066	76.6581	268.066	76.7561	268.066	76.5769	268.066	76.6696	268.066	76.5152	268.066	76.5998	268.066	76.473	268.066	76.5473	268.066	76.4488	268.066	76.5107	268.066	76.439	268.066	76.4869	268.066	76.4391	268.066	76.4718	268.066	76.4448	268.066	76.4614	268.066	76.4527
276.855	77.689	276.855	77.668	276.855	77.6726	276.855	77.6105	276.855	77.6196	276.855	77.5194	276.855	77.5328	276.855	77.3993	276.855	77.4164	276.855	77.2563	276.855	77.2764	276.855	77.0981	276.855	77.12	276.855	76.9332	276.855	76.9554	276.855	76.771	276.855	76.7915	276.855	76.6208	276.855	76.6373	276.855	76.491	276.855	76.5011	276.855	76.3878	276.855	76.39	276.855	76.3142	276.855	76.3081	276.855	76.2694	276.855	76.2561	276.855	76.2487	276.855	76.2308	276.855	76.2444	276.855	76.2259	276.855	76.248	276.855	76.2328	276.855	76.2517	276.855	76.2431	276.855	76.2504
287.109	77.7866	287.109	77.7599	287.109	77.776	287.109	77.6958	287.109	77.7302	287.109	77.5963	287.109	77.6529	287.109	77.4656	287.109	77.549	287.109	77.3098	287.109	77.424	287.109	77.137	287.109	77.284	287.109	76.9564	287.109	77.135	287.109	76.7782	287.109	76.9829	287.109	76.6125	287.109	76.8338	287.109	76.4684	287.109	76.6937	287.109	76.3528	287.109	76.5685	287.109	76.2692	287.109	76.4631	287.109	76.2173	287.109	76.3806	287.109	76.1929	287.109	76.3211	287.109	76.1891	287.109	76.2817	287.109	76.1978	287.109	76.257	287.109	76.2116	287.109	76.2403	287.109	76.2261
297.363	78.0658	297.363	78.0552	297.363	78.0351	297.363	78.0041	297.363	77.9645	297.363	77.9147	297.363	77.8571	297.363	77.791	297.363	77.7183	297.363	77.6385	297.363	77.5552	297.363	77.4639	297.363	77.3766	297.363	77.2755	297.363	77.1922	297.363	77.0828	297.363	77.0121	297.363	76.8964	297.363	76.8461	297.363	76.7273	297.363	76.7023	297.363	76.5853	297.363	76.5864	297.363	76.4773	297.363	76.5009	297.363	76.4057	297.363	76.4446	297.363	76.3679	297.363	76.4129	297.363	76.3564	297.363	76.3987	297.363	76.3614	297.363	76.3936	297.363	76.373	297.363	76.3903	297.363	76.3838
307.617	77.9877	307.617	77.9706	307.617	77.9638	307.617	77.9145	307.617	77.8997	307.617	77.823	307.617	77.7979	307.617	77.7018	307.617	77.6636	307.617	77.5581	307.617	77.5039	307.617	77.3998	307.617	77.3277	307.617	77.2359	307.617	77.1455	307.617	77.0756	307.617	76.969	307.617	76.9279	307.617	76.8097	307.617	76.8011	307.617	76.6783	307.617	76.7018	307.617	76.5825	307.617	76.6336	307.617	76.5256	307.617	76.5965	307.617	76.5056	307.617	76.5858	307.617	76.5149	307.617	76.5929	307.617	76.5424	307.617	76.6072	307.617	76.5754	307.617	76.6182	307.617	76.6029	307.617	76.6179
319.336	78.063	319.336	78.0199	319.336	78.0562	319.336	77.9287	319.336	77.9998	319.336	77.7935	319.336	77.8961	319.336	77.6205	319.336	77.7493	319.336	77.4185	319.336	77.5656	319.336	77.1984	319.336	77.3532	319.336	76.973	319.336	77.1226	319.336	76.7565	319.336	76.8866	319.336	76.5632	319.336	76.6602	319.336	76.4059	319.336	76.4592	319.336	76.2935	319.336	76.2986	319.336	76.2287	319.336	76.1889	319.336	76.207	319.336	76.1332	319.336	76.2172	319.336	76.1262	319.336	76.2437	319.336	76.1544	319.336	76.2703	319.336	76.1998	319.336	76.2833	319.336	76.2446	319.336	76.2749
329.59	78.0879	329.59	78.0395	329.59	78.0837	329.59	77.9382	329.59	78.0291	329.59	77.7858	329.59	77.9281	329.59	77.5868	329.59	77.7858	329.59	77.3483	329.59	77.6089	329.59	77.0809	329.59	77.4049	329.59	76.7989	329.59	77.1826	329.59	76.5198	329.59	76.9524	329.59	76.2639	329.59	76.7263	329.59	76.0516	329.59	76.5175	329.59	75.8991	329.59	76.3391	329.59	75.8146	329.59	76.2022	329.59	75.7947	329.59	76.1118	329.59	75.8256	329.59	76.0655	329.59	75.8862	329.59	76.0524	329.59	75.9543	329.59	76.0563	329.59	76.0113	329.59	76.0592	329.59	76.0468
341.309	78.4875	341.309	78.468	341.309	78.46	341.309	78.4016	341.309	78.3873	341.309	78.2895	341.309	78.2727	341.309	78.1344	341.309	78.1208	341.309	77.9399	341.309	77.9367	341.309	77.7106	341.309	77.7264	341.309	77.4525	341.309	77.4961	341.309	77.1738	341.309	77.2532	341.309	76.8861	341.309	77.0061	341.309	76.6047	341.309	76.7656	341.309	76.3481	341.309	76.5437	341.309	76.135	341.309	76.3524	341.309	75.9796	341.309	76.2008	341.309	75.8867	341.309	76.0916	341.309	75.8497	341.309	76.0196	341.309	75.8529	341.309	75.9737	341.309	75.8778	341.309	75.9403	341.309	75.9092
353.027	78.4083	353.027	78.3797	353.027	78.3883	353.027	78.3023	353.027	78.3219	353.027	78.178	353.027	78.2133	353.027	78.0107	353.027	78.0682	353.027	77.8057	353.027	77.8932	353.027	77.5701	353.027	77.6948	353.027	77.3125	353.027	77.4799	353.027	77.0438	353.027	77.2552	353.027	76.7777	353.027	77.0286	353.027	76.5304	353.027	76.8094	353.027	76.3193	353.027	76.6087	353.027	76.1593	353.027	76.4378	353.027	76.0583	353.027	76.306	353.027	76.0141	353.027	76.2163	353.027	76.0143	353.027	76.164	353.027	76.0402	353.027	76.1372	353.027	76.0735	353.027	76.1207	353.027	76.1015
366.211	78.4023	366.211	78.4017	366.211	78.3532	366.211	78.3501	366.211	78.2585	366.211	78.2491	366.211	78.1252	366.211	78.1027	366.211	77.9626	366.211	77.9165	366.211	77.7806	366.211	77.6973	366.211	77.5889	366.211	77.4529	366.211	77.3958	366.211	77.1927	366.211	77.2074	366.211	76.9285	366.211	77.0285	366.211	76.675	366.211	76.8633	366.211	76.4492	366.211	76.7159	366.211	76.2681	366.211	76.5906	366.211	76.1445	366.211	76.4899	366.211	76.0822	366.211	76.4133	366.211	76.0743	366.211	76.3558	366.211	76.1053	366.211	76.3087	366.211	76.1565	366.211	76.2629	366.211	76.2119
379.395	77.9859	379.395	77.9813	379.395	77.9416	379.395	77.9302	379.395	77.8503	379.395	77.8388	379.395	77.718	379.395	77.7157	379.395	77.5544	379.395	77.5704	379.395	77.3709	379.395	77.4112	379.395	77.1789	379.395	77.2443	379.395	76.988	379.395	77.0741	379.395	76.8052	379.395	76.9035	379.395	76.6355	379.395	76.7364	379.395	76.4827	379.395	76.5791	379.395	76.3514	379.395	76.4396	379.395	76.2464	379.395	76.3263	379.395	76.1719	379.395	76.2443	379.395	76.1289	379.395	76.1931	379.395	76.1132	379.395	76.1656	379.395	76.1164	379.395	76.1512	379.395	76.128	379.395	76.1403
392.578	77.6954	392.578	77.7119	392.578	77.6169	392.578	77.6685	392.578	77.481	392.578	77.5728	392.578	77.2989	392.578	77.4361	392.578	77.088	392.578	77.272	392.578	76.8694	392.578	77.0933	392.578	76.6643	392.578	76.9104	392.578	76.4895	392.578	76.7304	392.578	76.3532	392.578	76.5574	392.578	76.2547	392.578	76.3946	392.578	76.1863	392.578	76.2463	392.578	76.1381	392.578	76.1189	392.578	76.1017	392.578	76.0194	392.578	76.0721	392.578	75.9534	392.578	76.0469	392.578	75.9213	392.578	76.0246	392.578	75.9175	392.578	76.0032	392.578	75.9325	392.578	75.9805	392.578	75.956
405.762	77.2678	405.762	77.259	405.762	77.1833	405.762	77.1679	405.762	77.0047	405.762	77.0155	405.762	76.7425	405.762	76.831	405.762	76.4201	405.762	76.6493	405.762	76.0741	405.762	76.5043	405.762	75.7521	405.762	76.4198	405.762	75.5037	405.762	76.4028	405.762	75.3663	405.762	76.442	405.762	75.3512	405.762	76.5139	405.762	75.4408	405.762	76.5924	405.762	75.5993	405.762	76.6569	405.762	75.7879	405.762	76.6959	405.762	75.9758	405.762	76.707	405.762	76.1443	405.762	76.6939	405.762	76.2857	405.762	76.6625	405.762	76.3994	405.762	76.6176	405.762	76.4893	405.762	76.5606
420.41	78.0934	420.41	77.9645	420.41	78.0973	420.41	77.714	420.41	77.9765	420.41	77.3503	420.41	77.7348	420.41	76.8906	420.41	77.3812	420.41	76.3663	420.41	76.9332	420.41	75.8286	420.41	76.4209	420.41	75.3509	420.41	75.8916	420.41	75.0165	420.41	75.4102	420.41	74.889	420.41	75.0491	420.41	74.9783	420.41	74.8657	420.41	75.2348	420.41	74.8769	420.41	75.5778	420.41	75.0525	420.41	75.9302	420.41	75.3332	420.41	76.2366	420.41	75.6561	420.41	76.4651	420.41	75.9714	420.41	76.6015	420.41	76.2454	420.41	76.643	420.41	76.4569	420.41	76.5925
435.059	78.3569	435.059	78.287	435.059	78.3179	435.059	78.1059	435.059	78.1731	435.059	77.812	435.059	77.9267	435.059	77.4067	435.059	77.5858	435.059	76.8969	435.059	77.1631	435.059	76.3018	435.059	76.6805	435.059	75.6601	435.059	76.1738	435.059	75.0394	435.059	75.694	435.059	74.5344	435.059	75.3035	435.059	74.2435	435.059	75.0601	435.059	74.2202	435.059	74.9938	435.059	74.4377	435.059	75.0922	435.059	74.8063	435.059	75.3066	435.059	75.2232	435.059	75.5732	435.059	75.6084	435.059	75.8333	435.059	75.9125	435.059	76.0421	435.059	76.111	435.059	76.1694	435.059	76.1958
451.172	78.1936	451.172	78.1616	451.172	78.1198	451.172	78.0229	451.172	77.9404	451.172	77.7763	451.172	77.656	451.172	77.4211	451.172	77.269	451.172	76.9586	451.172	76.7862	451.172	76.3971	451.172	76.2231	451.172	75.7584	451.172	75.61	451.172	75.088	451.172	74.9991	451.172	74.4645	451.172	74.467	451.172	73.9949	451.172	74.1022	451.172	73.7792	451.172	73.9708	451.172	73.8513	451.172	74.0788	451.172	74.1522	451.172	74.3657	451.172	74.5682	451.172	74.7379	451.172	74.9884	451.172	75.1065	451.172	75.3345	451.172	75.406	451.172	75.5617	451.172	75.5947	451.172	75.6497
465.82	78.2971	465.82	78.236	465.82	78.2566	465.82	78.0765	465.82	78.1109	465.82	77.8211	465.82	77.8562	465.82	77.4721	465.82	77.4898	465.82	77.0334	465.82	77.0127	465.82	76.5134	465.82	76.4331	465.82	75.9302	465.82	75.7727	465.82	75.3188	465.82	75.0756	465.82	74.7375	465.82	74.4161	465.82	74.2664	465.82	73.8951	465.82	73.9868	465.82	73.6102	465.82	73.9415	465.82	73.6032	465.82	74.1052	465.82	73.8307	465.82	74.3973	465.82	74.191	465.82	74.7213	465.82	74.5765	465.82	74.9977	465.82	74.906	465.82	75.1736	465.82	75.1292	465.82	75.2207
483.398	78.4424	483.398	78.3639	483.398	78.4249	483.398	78.189	483.398	78.3112	483.398	77.9167	483.398	78.1	483.398	77.5464	483.398	77.7895	483.398	77.0795	483.398	77.3785	483.398	76.5222	483.398	76.8689	483.398	75.8907	483.398	76.2704	483.398	75.2188	483.398	75.6082	483.398	74.5676	483.398	74.9333	483.398	74.0269	483.398	74.3287	483.398	73.6956	483.398	73.8991	483.398	73.6334	483.398	73.7283	483.398	73.8186	483.398	73.8252	483.398	74.1577	483.398	74.1133	483.398	74.536	483.398	74.4761	483.398	74.86	483.398	74.809	483.398	75.069	483.398	75.0405	483.398	75.1318
499.512	78.4931	499.512	78.4359	499.512	78.4528	499.512	78.2782	499.512	78.3168	499.512	78.0158	499.512	78.0859	499.512	77.6439	499.512	77.7602	499.512	77.1579	499.512	77.3402	499.512	76.557	499.512	76.8282	499.512	75.8502	499.512	76.233	499.512	75.0676	499.512	75.5768	499.512	74.2765	499.512	74.9043	499.512	73.5927	499.512	74.2909	499.512	73.1608	499.512	73.8362	499.512	73.0786	499.512	73.6273	499.512	73.3198	499.512	73.6854	499.512	73.7499	499.512	73.9459	499.512	74.2157	499.512	74.2953	499.512	74.6049	499.512	74.6243	499.512	74.8544	499.512	74.854	499.512	74.9378
517.09	78.3925	517.09	78.3288	517.09	78.359	517.09	78.1713	517.09	78.2252	517.09	77.9225	517.09	77.989	517.09	77.5834	517.09	77.6494	517.09	77.1536	517.09	77.2082	517.09	76.6326	517.09	76.6712	517.09	76.024	517.09	76.0525	517.09	75.3445	517.09	75.3794	517.09	74.6357	517.09	74.7013	517.09	73.9772	517.09	74.0935	517.09	73.4828	517.09	73.6491	517.09	73.2582	517.09	73.4445	517.09	73.331	517.09	73.4939	517.09	73.623	517.09	73.7347	517.09	74.0013	517.09	74.0611	517.09	74.3459	517.09	74.3698	517.09	74.5783	517.09	74.5846	517.09	74.6603
536.133	78.4545	536.133	78.3669	536.133	78.4359	536.133	78.1752	536.133	78.3084	536.133	77.8817	536.133	78.0691	536.133	77.488	536.133	77.7143	536.133	76.9955	536.133	77.2398	536.133	76.4064	536.133	76.6433	536.133	75.7279	536.133	75.9288	536.133	74.9812	536.133	75.117	536.133	74.2159	536.133	74.2613	536.133	73.5258	536.133	73.4677	536.133	73.044	536.133	72.8928	536.133	72.8866	536.133	72.6807	536.133	73.0663	536.133	72.8546	536.133	73.4723	536.133	73.2898	536.133	73.9456	536.133	73.807	536.133	74.3545	536.133	74.2628	536.133	74.6175	536.133	74.5721	536.133	74.6942
555.176	78.5718	555.176	78.4533	555.176	78.58	555.176	78.2243	555.176	78.4787	555.176	77.8847	555.176	78.2683	555.176	77.4342	555.176	77.9482	555.176	76.8716	555.176	77.5159	555.176	76.1952	555.176	76.9674	555.176	75.4076	555.176	76.2997	555.176	74.5261	555.176	75.5174	555.176	73.6041	555.176	74.6455	555.176	72.7584	555.176	73.7497	555.176	72.172	555.176	72.957	555.176	72.0106	555.176	72.4421	555.176	72.2786	555.176	72.334	555.176	72.8027	555.176	72.6029	555.176	73.368	555.176	73.0778	555.176	73.822	555.176	73.5684	555.176	74.0842	555.176	73.9413	555.176	74.1236
574.219	79.3339	574.219	79.2356	574.219	79.2938	574.219	78.9946	574.219	79.1172	574.219	78.6041	574.219	78.8042	574.219	78.055	574.219	78.3542	574.219	77.3356	574.219	77.7672	574.219	76.433	574.219	77.0472	574.219	75.3369	574.219	76.2073	574.219	74.0504	574.219	75.2782	574.219	72.6193	574.219	74.3187	574.219	71.1927	574.219	73.4239	574.219	70.0897	574.219	72.7143	574.219	69.6882	574.219	72.2904	574.219	70.0385	574.219	72.1722	574.219	70.7909	574.219	72.2857	574.219	71.5808	574.219	72.5099	574.219	72.2184	574.219	72.7314	574.219	72.6414	574.219	72.8643	574.219	72.8483
594.727	79.9171	594.727	79.9058	594.727	79.8412	594.727	79.8021	594.727	79.679	594.727	79.5957	594.727	79.4259	594.727	79.2719	594.727	79.0724	594.727	78.8115	594.727	78.6042	594.727	78.1914	594.727	78.0052	594.727	77.3874	594.727	77.2622	594.727	76.3793	594.727	76.3753	594.727	75.1664	594.727	75.3763	594.727	73.8017	594.727	74.3575	594.727	72.4612	594.727	73.4928	594.727	71.4988	594.727	72.9918	594.727	71.2703	594.727	72.949	594.727	71.7358	594.727	73.2462	594.727	72.5083	594.727	73.6593	594.727	73.2513	594.727	74.0033	594.727	73.8035	594.727	74.1715	594.727	74.1118
615.234	79.441	615.234	79.4733	615.234	79.3304	615.234	79.4229	615.234	79.1408	615.234	79.281	615.234	78.8676	615.234	79.0326	615.234	78.5012	615.234	78.6568	615.234	78.0276	615.234	78.1269	615.234	77.4297	615.234	77.4127	615.234	76.6922	615.234	76.4851	615.234	75.8115	615.234	75.3297	615.234	74.8168	615.234	73.9801	615.234	73.8059	615.234	72.5946	615.234	72.978	615.234	71.5503	615.234	72.5819	615.234	71.299	615.234	72.7194	615.234	71.8524	615.234	73.2253	615.234	72.7572	615.234	73.8242	615.234	73.6097	615.234	74.3082	615.234	74.2245	615.234	74.5656	615.234	74.5447
637.207	79.5155	637.207	79.5614	637.207	79.4089	637.207	79.5457	637.207	79.2382	637.207	79.4612	637.207	78.9952	637.207	79.2932	637.207	78.6669	637.207	79.0189	637.207	78.2343	637.207	78.6082	637.207	77.6741	637.207	78.027	637.207	76.9622	637.207	77.2422	637.207	76.0835	637.207	76.231	637.207	75.0526	637.207	75.0034	637.207	73.9519	637.207	73.6519	637.207	72.9812	637.207	72.4343	637.207	72.4341	637.207	71.7691	637.207	72.4807	637.207	71.8938	637.207	72.968	637.207	72.5556	637.207	73.579	637.207	73.3268	637.207	74.0712	637.207	73.9382	637.207	74.3211	637.207	74.2797
659.18	78.9037	659.18	78.8936	659.18	78.8501	659.18	78.8283	659.18	78.7244	659.18	78.7136	659.18	78.518	659.18	78.5471	659.18	78.2188	659.18	78.3141	659.18	77.8076	659.18	77.9857	659.18	77.2564	659.18	77.5222	659.18	76.5293	659.18	76.8801	659.18	75.5913	659.18	76.0254	659.18	74.4298	659.18	74.9564	659.18	73.1076	659.18	73.7532	659.18	71.8686	659.18	72.657	659.18	71.1898	659.18	72.0665	659.18	71.4102	659.18	72.218	659.18	72.2574	659.18	72.8783	659.18	73.2124	659.18	73.6292	659.18	73.9614	659.18	74.1972	659.18	74.388	659.18	74.464
682.617	78.3693	682.617	78.3414	682.617	78.3337	682.617	78.2509	682.617	78.2335	682.617	78.0975	682.617	78.0658	682.617	77.8746	682.617	77.8201	682.617	77.5646	682.617	77.4737	682.617	77.136	682.617	76.9887	682.617	76.5461	682.617	76.3143	682.617	75.7469	682.617	75.3929	682.617	74.7002	682.617	74.1744	682.617	73.4113	682.617	72.6597	682.617	72.0135	682.617	71.0294	682.617	70.9018	682.617	69.8733	682.617	70.634	682.617	69.9316	682.617	71.2788	682.617	71.0019	682.617	72.298	682.617	72.2667	682.617	73.2135	682.617	73.2628	682.617	73.8167	682.617	73.859	682.617	74.0397
707.52	78.2505	707.52	78.216	707.52	78.2187	707.52	78.1241	707.52	78.1158	707.52	77.985	707.52	77.9401	707.52	77.8022	707.52	77.6871	707.52	77.5643	707.52	77.3429	707.52	77.241	707.52	76.8787	707.52	76.7841	707.52	76.249	707.52	76.1354	707.52	75.3942	707.52	75.2353	707.52	74.2479	707.52	74.0389	707.52	72.7578	707.52	72.5536	707.52	70.9586	707.52	70.9427	707.52	69.1893	707.52	69.6943	707.52	68.3266	707.52	69.441	707.52	68.9008	707.52	70.1203	707.52	70.1389	707.52	71.0542	707.52	71.2297	707.52	71.7618	707.52	71.8865	707.52	72.0589
732.422	77.3766	732.422	77.3067	732.422	77.3777	732.422	77.172	732.422	77.3138	732.422	76.9834	732.422	77.192	732.422	76.7499	732.422	77.0122	732.422	76.4671	732.422	76.7578	732.422	76.1084	732.422	76.3908	732.422	75.6242	732.422	75.8538	732.422	74.9504	732.422	75.0758	732.422	74.0231	732.422	73.9796	732.422	72.8049	732.422	72.497	732.422	71.3496	732.422	70.6296	732.422	69.9489	732.422	68.6729	732.422	69.2243	732.422	67.604	732.422	69.5683	732.422	68.2289	732.422	70.5257	732.422	69.6882	732.422	71.4569	732.422	70.9985	732.422	72.0463	732.422	71.8454	732.422	72.1885
757.324	76.57	757.324	76.5349	757.324	76.5304	757.324	76.4254	757.324	76.4256	757.324	76.2501	757.324	76.2715	757.324	76.018	757.324	76.08	757.324	75.7277	757.324	75.8473	757.324	75.3585	757.324	75.5448	757.324	74.8665	757.324	75.1187	757.324	74.1887	757.324	74.4966	757.324	73.2517	757.324	73.5964	757.324	71.9894	757.324	72.3384	757.324	70.3874	757.324	70.6769	757.324	68.6227	757.324	68.7213	757.324	67.3287	757.324	67.0697	757.324	67.3123	757.324	66.7954	757.324	68.3049	757.324	67.8444	757.324	69.4022	757.324	69.1101	757.324	70.1238	757.324	69.9876	757.324	70.3296
785.156	76.156	785.156	76.1333	785.156	76.1004	785.156	76.0491	785.156	75.9678	785.156	75.9333	785.156	75.7737	785.156	75.8135	785.156	75.5361	785.156	75.6947	785.156	75.2613	785.156	75.546	785.156	74.9314	785.156	75.3041	785.156	74.5025	785.156	74.8884	785.156	73.9114	785.156	74.2171	785.156	73.0868	785.156	73.2169	785.156	71.9646	785.156	71.8374	785.156	70.5155	785.156	70.0949	785.156	68.8261	785.156	68.2152	785.156	67.2813	785.156	66.8561	785.156	66.5904	785.156	66.7082	785.156	66.9775	785.156	67.4193	785.156	67.781	785.156	68.1648	785.156	68.3789	785.156	68.5215
811.523	75.4061	811.523	75.3716	811.523	75.3884	811.523	75.2905	811.523	75.3402	811.523	75.1898	811.523	75.2965	811.523	75.0975	811.523	75.2788	811.523	75.017	811.523	75.2688	811.523	74.9115	811.523	75.2032	811.523	74.711	811.523	74.993	811.523	74.335	811.523	74.5461	811.523	73.7156	811.523	73.7838	811.523	72.8236	811.523	72.6558	811.523	71.7124	811.523	71.1852	811.523	70.5966	811.523	69.6027	811.523	69.8822	811.523	68.5345	811.523	69.881	811.523	68.611	811.523	70.4173	811.523	69.5238	811.523	71.0533	811.523	70.5317	811.523	71.4812	811.523	71.2463	811.523	71.5628
840.82	76.7379	840.82	76.6579	840.82	76.6185	840.82	76.3946	840.82	76.3269	840.82	76.0071	840.82	75.9322	840.82	75.5896	840.82	75.5345	840.82	75.2375	840.82	75.2245	840.82	74.9864	840.82	75.0243	840.82	74.775	840.82	74.8591	840.82	74.4707	840.82	74.5933	840.82	73.9289	840.82	74.0888	840.82	73.0407	840.82	73.2454	840.82	71.7841	840.82	72.0441	840.82	70.366	840.82	70.6673	840.82	69.4573	840.82	69.7079	840.82	69.7798	840.82	69.8736	840.82	70.9597	840.82	70.9349	840.82	72.1469	840.82	72.0909	840.82	72.9221	840.82	72.8847	840.82	73.1726
870.117	77.3803	870.117	77.2995	870.117	77.2618	870.117	77.0386	870.117	76.9547	870.117	76.6457	870.117	76.5014	870.117	76.1937	870.117	75.9749	870.117	75.7615	870.117	75.4588	870.117	75.3942	870.117	75.0029	870.117	75.065	870.117	74.5778	870.117	74.676	870.117	74.075	870.117	74.0969	870.117	73.3518	870.117	73.212	870.117	72.2873	870.117	71.9698	870.117	70.8605	870.117	70.4982	870.117	69.3559	870.117	69.3388	870.117	68.6313	870.117	69.3004	870.117	69.3237	870.117	70.312	870.117	70.7051	870.117	71.525	870.117	71.9101	870.117	72.4066	870.117	72.6237	870.117	72.787
900.879	77.3293	900.879	77.2315	900.879	77.2261	900.879	76.9385	900.879	76.9435	900.879	76.4851	900.879	76.5306	900.879	75.9365	900.879	76.0589	900.879	75.3762	900.879	75.6007	900.879	74.8666	900.879	75.186	900.879	74.3988	900.879	74.7672	900.879	73.8762	900.879	74.2218	900.879	73.1519	900.879	73.3875	900.879	72.0836	900.879	72.0921	900.879	70.6044	900.879	70.1866	900.879	68.9111	900.879	67.7487	900.879	67.8621	900.879	66.0109	900.879	68.4284	900.879	67.0063	900.879	69.9554	900.879	69.2605	900.879	71.3604	900.879	71.0646	900.879	72.2387	900.879	72.1319	900.879	72.5062
933.105	77.1509	933.105	77.0126	933.105	77.0524	933.105	76.6549	933.105	76.7334	933.105	76.1325	933.105	76.2468	933.105	75.5429	933.105	75.687	933.105	75.0101	933.105	75.171	933.105	74.6227	933.105	74.7772	933.105	74.3559	933.105	74.4716	933.105	74.0662	933.105	74.1036	933.105	73.5625	933.105	73.4675	933.105	72.6721	933.105	72.3537	933.105	71.281	933.105	70.5621	933.105	69.4455	933.105	68.002	933.105	67.7988	933.105	65.5123	933.105	67.6954	933.105	65.9	933.105	69.0931	933.105	68.3487	933.105	70.6156	933.105	70.3755	933.105	71.6086	933.105	71.5467	933.105	71.9336
965.332	77.1836	965.332	77.1347	965.332	76.9916	965.332	76.8528	965.332	76.5817	965.332	76.3747	965.332	76.0186	965.332	75.7725	965.332	75.4217	965.332	75.1489	965.332	74.9423	965.332	74.5985	965.332	74.6736	965.332	74.135	965.332	74.5533	965.332	73.6513	965.332	74.384	965.332	72.9579	965.332	73.9335	965.332	71.8489	965.332	72.9882	965.332	70.1559	965.332	71.3366	965.332	67.9161	965.332	68.756	965.332	66.1182	965.332	65.3914	965.332	66.7084	965.332	64.0993	965.332	68.7403	965.332	66.706	965.332	70.437	965.332	69.2948	965.332	71.3712	965.332	70.8635	965.332	71.5209
1000.49	77.1977	1000.49	77.1127	1000.49	76.9734	1000.49	76.7386	1000.49	76.4499	1000.49	76.1341	1000.49	75.6812	1000.49	75.4184	1000.49	74.8023	1000.49	74.7725	1000.49	74.0525	1000.49	74.3574	1000.49	73.6716	1000.49	74.1669	1000.49	73.6611	1000.49	73.9957	1000.49	73.7415	1000.49	73.5653	1000.49	73.5731	1000.49	72.6187	1000.49	72.8887	1000.49	70.9176	1000.49	71.4714	1000.49	68.2576	1000.49	69.1243	1000.49	65.1288	1000.49	66.0262	1000.49	64.9613	1000.49	64.7603	1000.49	67.7528	1000.49	67.13	1000.49	70.0501	1000.49	69.613	1000.49	71.3141	1000.49	71.1039	1000.49	71.6499
1035.64	77.5313	1035.64	77.3628	1035.64	77.3703	1035.64	76.8846	1035.64	76.8662	1035.64	76.1341	1035.64	76.0209	1035.64	75.1998	1035.64	74.89	1035.64	74.2656	1035.64	73.6617	1035.64	73.5889	1035.64	72.7151	1035.64	73.3039	1035.64	72.3884	1035.64	73.232	1035.64	72.5315	1035.64	73.0089	1035.64	72.6362	1035.64	72.2928	1035.64	72.2613	1035.64	70.7876	1035.64	71.0935	1035.64	68.1684	1035.64	68.8181	1035.64	64.3494	1035.64	65.1703	1035.64	62.8418	1035.64	62.4573	1035.64	66.1919	1035.64	65.4078	1035.64	69.0319	1035.64	68.5808	1035.64	70.5537	1035.64	70.3574	1035.64	70.9726
1072.27	79.1275	1072.27	78.9237	1072.27	79.0441	1072.27	78.4362	1072.27	78.6608	1072.27	77.6717	1072.27	77.9567	1072.27	76.6754	1072.27	76.9256	1072.27	75.5934	1072.27	75.6331	1072.27	74.7163	1072.27	74.3255	1072.27	74.3245	1072.27	73.4561	1072.27	74.3454	1072.27	73.2727	1072.27	74.367	1072.27	73.397	1072.27	73.9658	1072.27	73.2247	1072.27	72.8069	1072.27	72.298	1072.27	70.5206	1072.27	70.1999	1072.27	66.4828	1072.27	66.2799	1072.27	61.0533	1072.27	60.8639	1072.27	64.0097	1072.27	63.9958	1072.27	68.2521	1072.27	68.2901	1072.27	70.4037	1072.27	70.4331	1072.27	71.068
1108.89	79.4841	1108.89	79.3072	1108.89	79.4103	1108.89	78.8674	1108.89	79.0795	1108.89	78.1415	1108.89	78.4692	1108.89	77.1182	1108.89	77.5556	1108.89	75.8563	1108.89	76.3498	1108.89	74.5876	1108.89	74.9776	1108.89	73.7424	1108.89	73.7777	1108.89	73.5662	1108.89	73.1626	1108.89	73.7152	1108.89	73.0867	1108.89	73.6206	1108.89	72.9947	1108.89	72.8641	1108.89	72.3261	1108.89	71.1227	1108.89	70.6388	1108.89	68.027	1108.89	67.4169	1108.89	63.8203	1108.89	62.5476	1108.89	63.9923	1108.89	63.0735	1108.89	67.5468	1108.89	67.3028	1108.89	69.7065	1108.89	69.6414	1108.89	70.3686
1148.44	79.2463	1148.44	79.1222	1148.44	79.1366	1148.44	78.7404	1148.44	78.7987	1148.44	78.0666	1148.44	78.2218	1148.44	77.0799	1148.44	77.3918	1148.44	75.8291	1148.44	76.3259	1148.44	74.5411	1148.44	75.1341	1148.44	73.6645	1148.44	74.078	1148.44	73.4801	1148.44	73.4537	1148.44	73.6377	1148.44	73.2314	1148.44	73.5336	1148.44	72.9809	1148.44	72.7258	1148.44	72.1896	1148.44	70.8735	1148.44	70.3707	1148.44	67.5999	1148.44	66.8319	1148.44	63.5154	1148.44	60.7183	1148.44	64.6392	1148.44	62.0232	1148.44	68.1425	1148.44	67.2171	1148.44	70.1287	1148.44	69.7967	1148.44	70.6566
1189.45	78.9831	1189.45	78.9767	1189.45	78.7924	1189.45	78.7494	1189.45	78.4157	1189.45	78.2631	1189.45	77.853	1189.45	77.4715	1189.45	77.1008	1189.45	76.3476	1189.45	76.1753	1189.45	74.9587	1189.45	75.1611	1189.45	73.6011	1189.45	74.2574	1189.45	72.7856	1189.45	73.699	1189.45	72.6564	1189.45	73.4891	1189.45	72.6586	1189.45	73.2982	1189.45	72.1333	1189.45	72.691	1189.45	70.5958	1189.45	71.2707	1189.45	67.5323	1189.45	68.5992	1189.45	62.621	1189.45	64.2086	1189.45	62.1818	1189.45	61.4959	1189.45	66.4029	1189.45	65.3269	1189.45	68.7083	1189.45	68.1892	1189.45	69.2424
1230.47	78.6959	1230.47	78.7102	1230.47	78.4797	1230.47	78.5068	1230.47	78.0605	1230.47	78.0537	1230.47	77.4227	1230.47	77.3127	1230.47	76.5445	1230.47	76.2692	1230.47	75.4284	1230.47	75.0019	1230.47	74.1747	1230.47	73.7846	1230.47	73.0797	1230.47	73.0338	1230.47	72.5337	1230.47	72.8433	1230.47	72.5344	1230.47	72.7503	1230.47	72.5649	1230.47	72.1772	1230.47	72.0555	1230.47	70.656	1230.47	70.5361	1230.47	67.6406	1230.47	67.3917	1230.47	62.4208	1230.47	61.5029	1230.47	61.0283	1230.47	60.1518	1230.47	65.9872	1230.47	65.9127	1230.47	68.7386	1230.47	68.7517	1230.47	69.5754
1274.41	78.0919	1274.41	78.0242	1274.41	77.9387	1274.41	77.7375	1274.41	77.5561	1274.41	77.2207	1274.41	76.9283	1274.41	76.4472	1274.41	76.0298	1274.41	75.3938	1274.41	74.8418	1274.41	74.1056	1274.41	73.4159	1274.41	72.8148	1274.41	72.0192	1274.41	71.9621	1274.41	71.1887	1274.41	71.7502	1274.41	71.1772	1274.41	71.7459	1274.41	71.45	1274.41	71.3195	1274.41	71.2936	1274.41	69.9917	1274.41	70.2104	1274.41	67.3153	1274.41	67.7087	1274.41	62.9389	1274.41	62.9227	1274.41	60.9226	1274.41	58.0305	1274.41	64.633	1274.41	63.1601	1274.41	67.1141	1274.41	66.5969	1274.41	67.7442
1319.82	77.7866	1319.82	77.7134	1319.82	77.6156	1319.82	77.3951	1319.82	77.2013	1319.82	76.8242	1319.82	76.5449	1319.82	75.9809	1319.82	75.6447	1319.82	74.8473	1319.82	74.5012	1319.82	73.4658	1319.82	73.1576	1319.82	72.0686	1319.82	71.7979	1319.82	71.1373	1319.82	70.8199	1319.82	70.943	1319.82	70.5306	1319.82	71.0363	1319.82	70.6356	1319.82	70.729	1319.82	70.4918	1319.82	69.5169	1319.82	69.5614	1319.82	66.9575	1319.82	67.3637	1319.82	62.6785	1319.82	63.2226	1319.82	60.2541	1319.82	58.4122	1319.82	63.753	1319.82	62.0228	1319.82	66.2101	1319.82	65.511	1319.82	66.7726
1366.7	77.393	1366.7	77.2904	1366.7	77.2793	1366.7	76.9707	1366.7	76.9449	1366.7	76.4219	1366.7	76.3784	1366.7	75.6142	1366.7	75.5559	1366.7	74.507	1366.7	74.4469	1366.7	73.0962	1366.7	73.0548	1366.7	71.5352	1366.7	71.5254	1366.7	70.2869	1366.7	70.2855	1366.7	69.8245	1366.7	69.7948	1366.7	69.844	1366.7	69.8244	1366.7	69.5316	1366.7	69.6243	1366.7	68.2091	1366.7	68.5578	1366.7	65.1982	1366.7	66.0602	1366.7	59.6688	1366.7	61.3886	1366.7	59.3955	1366.7	58.4102	1366.7	64.5108	1366.7	63.32	1366.7	67.0251	1366.7	66.4695	1366.7	67.5935
1413.57	77.5371	1413.57	77.3898	1413.57	77.4717	1413.57	77.0414	1413.57	77.1857	1413.57	76.4955	1413.57	76.6649	1413.57	75.7234	1413.57	75.8701	1413.57	74.6499	1413.57	74.7351	1413.57	73.1872	1413.57	73.2139	1413.57	71.3778	1413.57	71.4402	1413.57	69.7553	1413.57	70.0313	1413.57	69.3145	1413.57	69.7827	1413.57	69.8518	1413.57	70.2919	1413.57	70.092	1413.57	70.4784	1413.57	69.1867	1413.57	69.657	1413.57	66.4241	1413.57	67.2666	1413.57	59.905	1413.57	62.1051	1413.57	54.2632	1413.57	54.9151	1413.57	63.5583	1413.57	62.543	1413.57	66.9252	1413.57	66.4806	1413.57	67.719
1463.38	77.6055	1463.38	77.5779	1463.38	77.4055	1463.38	77.3269	1463.38	77.0003	1463.38	76.8703	1463.38	76.4261	1463.38	76.2121	1463.38	75.6936	1463.38	75.3206	1463.38	74.7514	1463.38	74.1403	1463.38	73.5051	1463.38	72.673	1463.38	71.9298	1463.38	71.1736	1463.38	70.3303	1463.38	70.2659	1463.38	69.5153	1463.38	70.2204	1463.38	69.7807	1463.38	70.3086	1463.38	70.1677	1463.38	69.6481	1463.38	69.7227	1463.38	67.5371	1463.38	67.8008	1463.38	62.7444	1463.38	63.3998	1463.38	51.4447	1463.38	55.5171	1463.38	60.5916	1463.38	61.2348	1463.38	65.3242	1463.38	65.487	1463.38	66.6144
1516.11	77.6488	1516.11	77.6464	1516.11	77.3981	1516.11	77.4183	1516.11	76.9037	1516.11	76.9973	1516.11	76.213	1516.11	76.376	1516.11	75.3797	1516.11	75.4815	1516.11	74.4088	1516.11	74.2076	1516.11	73.2304	1516.11	72.5333	1516.11	71.7562	1516.11	70.7972	1516.11	70.0843	1516.11	69.8801	1516.11	68.8529	1516.11	70.0787	1516.11	68.8042	1516.11	70.3884	1516.11	69.2922	1516.11	69.8808	1516.11	69.1	1516.11	67.9613	1516.11	67.402	1516.11	63.7476	1516.11	63.1374	1516.11	56.7056	1516.11	55.3879	1516.11	61.3201	1516.11	61.3838	1516.11	65.5395	1516.11	65.6352	1516.11	66.7708
1568.85	78.2407	1568.85	78.111	1568.85	78.0492	1568.85	77.6985	1568.85	77.5471	1568.85	77.0741	1568.85	76.7878	1568.85	76.2906	1568.85	75.8366	1568.85	75.3184	1568.85	74.7217	1568.85	74.0283	1568.85	73.4033	1568.85	72.2886	1568.85	71.827	1568.85	70.2914	1568.85	70.1444	1568.85	69.147	1568.85	69.0648	1568.85	69.7105	1568.85	69.2381	1568.85	70.6202	1568.85	69.8777	1568.85	70.5812	1568.85	69.8408	1568.85	68.9558	1568.85	68.4264	1568.85	64.8263	1568.85	64.7813	1568.85	56.286	1568.85	56.6594	1568.85	61.0413	1568.85	59.1685	1568.85	65.5578	1568.85	64.8135	1568.85	66.5351
1624.51	78.4978	1624.51	78.3599	1624.51	78.2871	1624.51	77.9074	1624.51	77.7541	1624.51	77.2212	1624.51	76.9758	1624.51	76.3824	1624.51	76.0373	1624.51	75.3943	1624.51	74.9605	1624.51	74.1333	1624.51	73.655	1624.51	72.397	1624.51	71.9652	1624.51	70.1174	1624.51	69.8994	1624.51	68.0768	1624.51	68.251	1624.51	68.0886	1624.51	68.352	1624.51	69.3185	1624.51	69.3287	1624.51	69.7317	1624.51	69.5399	1624.51	68.4362	1624.51	68.1939	1624.51	64.4396	1624.51	64.4021	1624.51	55.6339	1624.51	55.9105	1624.51	61.4773	1624.51	60.2524	1624.51	66.0323	1624.51	65.4946	1624.51	67.0687
1681.64	78.8278	1681.64	78.6905	1681.64	78.5995	1681.64	78.2119	1681.64	78.0272	1681.64	77.4619	1681.64	77.1817	1681.64	76.5445	1681.64	76.1747	1681.64	75.5362	1681.64	75.1036	1681.64	74.3791	1681.64	73.9524	1681.64	72.838	1681.64	72.5396	1681.64	70.6017	1681.64	70.6117	1681.64	67.7203	1681.64	68.2393	1681.64	66.1857	1681.64	66.8741	1681.64	67.5449	1681.64	67.7795	1681.64	68.7534	1681.64	68.8216	1681.64	68.2514	1681.64	68.4129	1681.64	65.2764	1681.64	65.687	1681.64	57.6556	1681.64	58.4036	1681.64	58.5714	1681.64	57.5176	1681.64	64.6019	1681.64	64.3362	1681.64	66.1021
1741.7	78.0902	1741.7	77.8936	1741.7	77.9403	1741.7	77.369	1741.7	77.4537	1741.7	76.5692	1741.7	76.6648	1741.7	75.5775	1741.7	75.6388	1741.7	74.4785	1741.7	74.4693	1741.7	73.2998	1741.7	73.2347	1741.7	71.9634	1741.7	71.9134	1741.7	70.3248	1741.7	70.3694	1741.7	68.4161	1741.7	68.5567	1741.7	67.0037	1741.7	67.0217	1741.7	67.084	1741.7	66.8143	1741.7	67.6721	1741.7	67.4162	1741.7	67.2418	1741.7	67.2427	1741.7	64.8572	1741.7	65.159	1741.7	59.7724	1741.7	59.885	1741.7	59.6006	1741.7	58.097	1741.7	64.035	1741.7	63.5463	1741.7	65.3368
1803.22	78.0152	1803.22	77.7257	1803.22	77.9876	1803.22	77.1531	1803.22	77.6468	1803.22	76.3689	1803.22	77.0161	1803.22	75.4487	1803.22	76.1218	1803.22	74.415	1803.22	74.9885	1803.22	73.2087	1803.22	73.6392	1803.22	71.7302	1803.22	72.0946	1803.22	69.9652	1803.22	70.4019	1803.22	68.2584	1803.22	68.7889	1803.22	67.4546	1803.22	67.8189	1803.22	67.7103	1803.22	67.7345	1803.22	67.8815	1803.22	67.715	1803.22	66.8899	1803.22	66.7183	1803.22	63.8501	1803.22	63.8518	1803.22	58.2021	1803.22	58.0316	1803.22	59.7097	1803.22	57.7502	1803.22	63.7079	1803.22	62.8221	1803.22	64.635
1866.21	78.2727	1866.21	78.0317	1866.21	78.1236	1866.21	77.4372	1866.21	77.6232	1866.21	76.6016	1866.21	76.8626	1866.21	75.6716	1866.21	75.9393	1866.21	74.7216	1866.21	74.9024	1866.21	73.6523	1866.21	73.7237	1866.21	72.2246	1866.21	72.3058	1866.21	70.2374	1866.21	70.5378	1866.21	67.9289	1866.21	68.5217	1866.21	66.6582	1866.21	67.1476	1866.21	67.1821	1866.21	67.4124	1866.21	67.7783	1866.21	68.1286	1866.21	67.1415	1866.21	67.7611	1866.21	64.597	1866.21	65.4677	1866.21	60.0951	1866.21	60.7804	1866.21	60.9033	1866.21	60.3597	1866.21	64.6307	1866.21	64.3902	1866.21	65.8106
1932.13	77.5385	1932.13	77.4435	1932.13	77.148	1932.13	76.886	1932.13	76.3252	1932.13	75.9851	1932.13	75.222	1932.13	74.9775	1932.13	74.0656	1932.13	74.0718	1932.13	72.9737	1932.13	73.1462	1932.13	71.7853	1932.13	71.7656	1932.13	70.1888	1932.13	69.5507	1932.13	67.9731	1932.13	66.7776	1932.13	65.51	1932.13	65.569	1932.13	64.6453	1932.13	66.5703	1932.13	65.747	1932.13	67.0687	1932.13	66.3929	1932.13	65.7221	1932.13	65.2268	1932.13	61.8416	1932.13	61.2925	1932.13	60.0793	1932.13	58.5561	1932.13	65.1459	1932.13	64.3931	1932.13	68.1201	1932.13	67.814	1932.13	68.9217
1999.51	77.394	1999.51	77.3577	1999.51	77.0259	1999.51	76.912	1999.51	76.1887	1999.51	76.0247	1999.51	74.8507	1999.51	74.8014	1999.51	73.244	1999.51	73.6227	1999.51	72.015	1999.51	72.7987	1999.51	71.5309	1999.51	71.9373	1999.51	71.0986	1999.51	70.2279	1999.51	69.7411	1999.51	66.9446	1999.51	66.6287	1999.51	62.8195	1999.51	61.7681	1999.51	64.1724	1999.51	62.7504	1999.51	66.6247	1999.51	65.7593	1999.51	66.3458	1999.51	65.7998	1999.51	62.0639	1999.51	62.3797	1999.51	56.7707	1999.51	58.2196	1999.51	65.6366	1999.51	64.6509	1999.51	69.2541	1999.51	68.6002	1999.51	70.0053
2069.82	77.7821	2069.82	77.7025	2069.82	77.6698	2069.82	77.3892	2069.82	77.3004	2069.82	76.7299	2069.82	76.5186	2069.82	75.6308	2069.82	75.1949	2069.82	74.2059	2069.82	73.4783	2069.82	72.9599	2069.82	72.1219	2069.82	72.2812	2069.82	71.7785	2069.82	71.5582	2069.82	71.6232	2069.82	69.7298	2069.82	70.4332	2069.82	65.8809	2069.82	67.4017	2069.82	62.4827	2069.82	63.8968	2069.82	66.2627	2069.82	66.4317	2069.82	68.6334	2069.82	69.03	2069.82	68.1353	2069.82	69.0995	2069.82	64.8332	2069.82	66.6086	2069.82	62.1082	2069.82	62.6871	2069.82	64.8366	2069.82	63.8959	2069.82	65.8194
2143.07	78.1315	2143.07	78.0793	2143.07	77.8675	2143.07	77.6904	2143.07	77.3489	2143.07	76.9712	2143.07	76.5994	2143.07	75.8945	2143.07	75.5379	2143.07	74.4299	2143.07	74.0621	2143.07	72.7564	2143.07	72.3205	2143.07	71.4304	2143.07	70.9993	2143.07	70.6789	2143.07	70.563	2143.07	69.646	2143.07	70.0831	2143.07	67.1445	2143.07	68.3217	2143.07	62.8651	2143.07	65.1282	2143.07	63.9796	2143.07	65.3921	2143.07	67.4364	2143.07	68.3336	2143.07	67.9215	2143.07	68.9745	2143.07	64.9774	2143.07	66.4499	2143.07	55.2187	2143.07	58.1863	2143.07	54.3556	2143.07	51.8075	2143.07	59.1313
2219.24	78.1398	2219.24	78.0492	2219.24	77.8687	2219.24	77.6272	2219.24	77.2654	2219.24	76.9353	2219.24	76.3916	2219.24	75.987	2219.24	75.3037	2219.24	74.7223	2219.24	74.0345	2219.24	73.1497	2219.24	72.6204	2219.24	71.5994	2219.24	71.229	2219.24	70.558	2219.24	70.2162	2219.24	69.7018	2219.24	69.4892	2219.24	67.9145	2219.24	68.093	2219.24	64.4886	2219.24	65.3817	2219.24	63.1275	2219.24	64.2582	2219.24	65.8198	2219.24	66.3325	2219.24	66.3863	2219.24	66.6936	2219.24	63.1856	2219.24	63.6032	2219.24	50.0242	2219.24	52.4011	2219.24	56.7731	2219.24	55.8307	2219.24	60.4577
2296.88	77.5307	2296.88	77.3906	2296.88	77.2368	2296.88	76.8511	2296.88	76.5616	2296.88	76.0055	2296.88	75.6303	2296.88	74.9566	2296.88	74.5675	2296.88	73.7485	2296.88	73.4029	2296.88	72.3279	2296.88	72.0463	2296.88	70.6756	2296.88	70.425	2296.88	69.1066	2296.88	68.8352	2296.88	68.0256	2296.88	67.8045	2296.88	66.8803	2296.88	66.7186	2296.88	64.8374	2296.88	64.3697	2296.88	63.8669	2296.88	62.9894	2296.88	65.8989	2296.88	65.7986	2296.88	66.8676	2296.88	67.3274	2296.88	65.1007	2296.88	65.9057	2296.88	59.7026	2296.88	60.5668	2296.88	54.698	2296.88	52.7488	2296.88	56.245
2378.91	78.2572	2378.91	78.0884	2378.91	78.0324	2378.91	77.5816	2378.91	77.4042	2378.91	76.7858	2378.91	76.4314	2378.91	75.6989	2378.91	75.2493	2378.91	74.3234	2378.91	74.0411	2378.91	72.7847	2378.91	72.9126	2378.91	71.2614	2378.91	71.734	2378.91	69.7625	2378.91	70.2265	2378.91	68.2135	2378.91	68.3676	2378.91	66.528	2378.91	66.5813	2378.91	64.4335	2378.91	64.9401	2378.91	62.9094	2378.91	63.3936	2378.91	63.928	2378.91	63.5033	2378.91	64.4502	2378.91	64.3057	2378.91	62.2464	2378.91	63.174	2378.91	59.4787	2378.91	60.5241	2378.91	62.323	2378.91	61.9144	2378.91	63.6769
2462.4	77.8628	2462.4	77.7576	2462.4	77.6037	2462.4	77.3219	2462.4	77.0014	2462.4	76.6209	2462.4	76.1064	2462.4	75.6808	2462.4	74.9725	2462.4	74.4667	2462.4	73.6928	2462.4	73.003	2462.4	72.4573	2462.4	71.5184	2462.4	71.3993	2462.4	70.2726	2462.4	70.3179	2462.4	69.1135	2462.4	68.9068	2462.4	67.5557	2462.4	67.1198	2462.4	65.4801	2462.4	65.1789	2462.4	64.3912	2462.4	64.3185	2462.4	65.2552	2462.4	65.2167	2462.4	65.276	2462.4	65.2538	2462.4	62.2403	2462.4	62.4098	2462.4	54.2724	2462.4	56.1744	2462.4	58.8126	2462.4	59.2211	2462.4	61.6232
2548.83	77.2058	2548.83	77.0562	2548.83	77.0027	2548.83	76.5721	2548.83	76.4663	2548.83	75.7827	2548.83	75.6654	2548.83	74.7086	2548.83	74.6453	2548.83	73.3385	2548.83	73.355	2548.83	71.7093	2548.83	71.7965	2548.83	70.111	2548.83	70.2737	2548.83	68.9355	2548.83	69.0252	2548.83	68.0003	2548.83	67.6808	2548.83	66.6377	2548.83	65.8988	2548.83	64.4307	2548.83	63.826	2548.83	62.95	2548.83	62.7193	2548.83	64.4034	2548.83	63.904	2548.83	65.0481	2548.83	64.6611	2548.83	62.4002	2548.83	62.6197	2548.83	55.1509	2548.83	56.111	2548.83	58.5218	2548.83	57.631	2548.83	60.9516
2639.65	77.2173	2639.65	77.0917	2639.65	76.9519	2639.65	76.5936	2639.65	76.3311	2639.65	75.7614	2639.65	75.4569	2639.65	74.6375	2639.65	74.4289	2639.65	73.2512	2639.65	73.2372	2639.65	71.6079	2639.65	71.8151	2639.65	69.7685	2639.65	70.2765	2639.65	67.9876	2639.65	68.8496	2639.65	66.6579	2639.65	67.5357	2639.65	65.6871	2639.65	66.283	2639.65	64.0257	2639.65	64.7143	2639.65	61.4619	2639.65	62.7579	2639.65	62.5542	2639.65	63.3188	2639.65	64.5115	2639.65	64.6773	2639.65	62.9	2639.65	63.1811	2639.65	55.399	2639.65	57.4946	2639.65	55.9298	2639.65	56.3019	2639.65	59.3041
2731.93	76.8327	2731.93	76.7089	2731.93	76.5177	2731.93	76.1612	2731.93	75.8292	2731.93	75.2784	2731.93	74.9177	2731.93	74.1799	2731.93	73.9252	2731.93	72.9134	2731.93	72.7907	2731.93	71.4593	2731.93	71.3197	2731.93	69.9071	2731.93	69.6444	2731.93	68.4042	2731.93	68.2058	2731.93	66.8846	2731.93	66.8489	2731.93	65.4627	2731.93	65.3702	2731.93	64.1546	2731.93	64.0656	2731.93	62.2412	2731.93	62.6461	2731.93	61.9926	2731.93	62.5182	2731.93	63.7945	2731.93	63.7896	2731.93	62.8276	2731.93	62.7093	2731.93	57.0733	2731.93	57.6087	2731.93	57.2223	2731.93	57.5238	2731.93	60.17
2828.61	76.3402	2828.61	76.1504	2828.61	76.1176	2828.61	75.5641	2828.61	75.5012	2828.61	74.6408	2828.61	74.5819	2828.61	73.496	2828.61	73.5206	2828.61	72.2087	2828.61	72.3883	2828.61	70.7402	2828.61	71.0136	2828.61	69.1389	2828.61	69.299	2828.61	67.6573	2828.61	67.6174	2828.61	66.2812	2828.61	66.1849	2828.61	64.9391	2828.61	64.8214	2828.61	63.8155	2828.61	63.6977	2828.61	62.1419	2828.61	62.3801	2828.61	61.3526	2828.61	61.9133	2828.61	63.2912	2828.61	63.3074	2828.61	62.8498	2828.61	62.6206	2828.61	57.3827	2828.61	57.631	2828.61	55.0763	2828.61	55.8224	2828.61	58.5761
2928.22	75.7587	2928.22	75.5476	2928.22	75.5523	2928.22	74.9796	2928.22	74.944	2928.22	74.1081	2928.22	74.0305	2928.22	72.9482	2928.22	72.9508	2928.22	71.5842	2928.22	71.8121	2928.22	70.1034	2928.22	70.5138	2928.22	68.4398	2928.22	68.8431	2928.22	66.817	2928.22	67.0846	2928.22	65.5118	2928.22	65.6575	2928.22	64.1728	2928.22	64.1895	2928.22	63.1719	2928.22	62.8746	2928.22	61.8086	2928.22	61.7931	2928.22	60.4018	2928.22	61.0734	2928.22	62.0529	2928.22	62.1768	2928.22	61.8349	2928.22	61.9547	2928.22	57.2729	2928.22	57.6259	2928.22	56.5509	2928.22	56.3466	2928.22	59.2112
3030.76	75.6364	3030.76	75.5326	3030.76	75.3558	3030.76	74.9986	3030.76	74.7085	3030.76	74.063	3030.76	73.7335	3030.76	72.8477	3030.76	72.5926	3030.76	71.4832	3030.76	71.4204	3030.76	70.0608	3030.76	70.065	3030.76	68.542	3030.76	68.3867	3030.76	66.926	3030.76	66.8102	3030.76	65.2519	3030.76	65.4659	3030.76	63.2986	3030.76	63.9091	3030.76	62.1886	3030.76	62.8213	3030.76	61.5048	3030.76	61.739	3030.76	59.6319	3030.76	60.4514	3030.76	61.164	3030.76	61.8399	3030.76	61.6698	3030.76	62.0836	3030.76	56.9191	3030.76	58.1964	3030.76	54.3642	3030.76	54.7887	3030.76	57.4017
3137.7	74.9611	3137.7	74.8513	3137.7	74.7362	3137.7	74.3486	3137.7	74.1975	3137.7	73.4204	3137.7	73.357	3137.7	72.197	3137.7	72.2757	3137.7	70.9748	3137.7	71.1199	3137.7	69.7927	3137.7	69.8557	3137.7	68.2356	3137.7	68.0366	3137.7	66.5908	3137.7	66.036	3137.7	65.5074	3137.7	64.9175	3137.7	63.6947	3137.7	63.3558	3137.7	61.7799	3137.7	61.681	3137.7	61.6098	3137.7	61.5752	3137.7	60.0245	3137.7	60.4832	3137.7	60.4708	3137.7	60.7106	3137.7	61.2066	3137.7	61.1368	3137.7	57.0062	3137.7	57.7643	3137.7	55.4293	3137.7	56.2212	3137.7	58.593
3249.02	74.7415	3249.02	74.7227	3249.02	74.4579	3249.02	74.3617	3249.02	73.9264	3249.02	73.6208	3249.02	73.1518	3249.02	72.4729	3249.02	72.1012	3249.02	71.08	3249.02	70.8809	3249.02	69.7384	3249.02	69.6505	3249.02	68.091	3249.02	68.0266	3249.02	65.7412	3249.02	65.7936	3249.02	64.2212	3249.02	64.2225	3249.02	63.1606	3249.02	62.9643	3249.02	61.2322	3249.02	61.0325	3249.02	61.2067	3249.02	60.7122	3249.02	60.2606	3249.02	60.4182	3249.02	60.1138	3249.02	60.5627	3249.02	61.2611	3249.02	60.4673	3249.02	57.5849	3249.02	56.4558	3249.02	52.1845	3249.02	54.6471	3249.02	56.5838
3363.28	74.5054	3363.28	74.4558	3363.28	74.3271	3363.28	74.1851	3363.28	73.9326	3363.28	73.6584	3363.28	73.2989	3363.28	72.7406	3363.28	72.3237	3363.28	71.4012	3363.28	71.0056	3363.28	69.9558	3363.28	69.5852	3363.28	68.4667	3363.28	67.9446	3363.28	66.4958	3363.28	65.7774	3363.28	64.842	3363.28	64.1031	3363.28	63.7125	3363.28	62.8298	3363.28	61.6392	3363.28	60.7964	3363.28	60.9917	3363.28	60.0317	3363.28	60.2727	3363.28	59.5863	3363.28	60.3598	3363.28	60.3872	3363.28	61.8571	3363.28	61.0883	3363.28	58.9693	3363.28	57.2808	3363.28	54.5176	3363.28	52.3728	3363.28	56.5404
3481.93	75.5598	3481.93	75.545	3481.93	75.4221	3481.93	75.3394	3481.93	75.2131	3481.93	74.8791	3481.93	74.915	3481.93	73.9927	3481.93	74.2663	3481.93	72.5821	3481.93	73.0431	3481.93	71.0047	3481.93	71.5456	3481.93	69.4822	3481.93	69.9141	3481.93	67.1953	3481.93	67.515	3481.93	65.0858	3481.93	65.5924	3481.93	64.2613	3481.93	64.7061	3481.93	62.0422	3481.93	62.3084	3481.93	61.987	3481.93	61.8198	3481.93	61.8868	3481.93	61.5098	3481.93	60.5601	3481.93	60.9704	3481.93	62.3803	3481.93	62.6428	3481.93	60.1014	3481.93	60.1858	3481.93	56.1917	3481.93	56.2986	3481.93	58.4492
3604.98	76.3426	3604.98	76.2503	3604.98	76.2613	3604.98	75.9999	3604.98	75.9894	3604.98	75.6108	3604.98	75.6443	3604.98	75.0272	3604.98	75.2141	3604.98	73.9861	3604.98	74.2401	3604.98	72.5546	3604.98	72.6495	3604.98	71.1987	3604.98	71.1127	3604.98	69.1465	3604.98	68.9839	3604.98	66.4007	3604.98	66.2772	3604.98	65.6431	3604.98	65.4269	3604.98	63.8603	3604.98	63.3121	3604.98	62.4634	3604.98	62.0793	3604.98	63.4556	3604.98	62.9754	3604.98	62.2088	3604.98	61.9232	3604.98	63.3408	3604.98	63.1141	3604.98	61.2211	3604.98	60.5168	3604.98	56.8298	3604.98	56.5211	3604.98	59.6192
3732.42	77.0461	3732.42	77.0564	3732.42	77.0868	3732.42	77.0128	3732.42	77.0306	3732.42	76.7372	3732.42	76.7986	3732.42	76.1595	3732.42	76.4417	3732.42	75.0897	3732.42	75.6005	3732.42	73.3138	3732.42	73.9263	3732.42	71.4967	3732.42	72.0889	3732.42	69.7738	3732.42	70.2614	3732.42	67.0357	3732.42	67.7934	3732.42	65.7771	3732.42	66.6588	3732.42	64.4486	3732.42	65.2191	3732.42	62.1198	3732.42	62.6303	3732.42	63.4062	3732.42	63.6445	3732.42	62.5042	3732.42	62.5579	3732.42	63.8709	3732.42	63.7913	3732.42	61.8938	3732.42	61.9854	3732.42	57.8022	3732.42	56.4657	3732.42	60.3246
3864.26	76.1797	3864.26	76.301	3864.26	76.2726	3864.26	76.4425	3864.26	76.3937	3864.26	76.3016	3864.26	76.2395	3864.26	75.741	3864.26	75.8641	3864.26	74.7609	3864.26	75.0828	3864.26	73.2025	3864.26	73.3351	3864.26	71.4113	3864.26	71.2879	3864.26	69.9651	3864.26	69.6639	3864.26	67.7014	3864.26	67.1952	3864.26	65.9499	3864.26	65.7399	3864.26	65.112	3864.26	64.7137	3864.26	62.3668	3864.26	62.1324	3864.26	63.5071	3864.26	63.2246	3864.26	62.5875	3864.26	62.3922	3864.26	63.5579	3864.26	63.3463	3864.26	61.8785	3864.26	61.9303	3864.26	55.3232	3864.26	54.8127	3864.26	59.1432
4000.49	76.1522	4000.49	76.3211	4000.49	76.3327	4000.49	76.5876	4000.49	76.6077	4000.49	76.5042	4000.49	76.4431	4000.49	75.847	4000.49	75.8113	4000.49	74.7474	4000.49	74.9914	4000.49	73.1807	4000.49	73.4992	4000.49	71.1433	4000.49	71.2278	4000.49	69.3249	4000.49	69.5382	4000.49	67.0518	4000.49	67.4457	4000.49	64.9091	4000.49	65.1471	4000.49	64.5518	4000.49	64.5953	4000.49	61.7736	4000.49	61.6962	4000.49	62.6993	4000.49	63.1607	4000.49	62.664	4000.49	62.4828	4000.49	62.8737	4000.49	62.7227	4000.49	62.0069	4000.49	62.1114	4000.49	55.2943	4000.49	54.9688	4000.49	57.7385
4141.11	75.7596	4141.11	75.9686	4141.11	75.8456	4141.11	76.328	4141.11	76.1567	4141.11	76.3933	4141.11	76.2212	4141.11	75.7633	4141.11	75.7069	4141.11	74.633	4141.11	74.7658	4141.11	73.1187	4141.11	73.2608	4141.11	70.9323	4141.11	70.9491	4141.11	68.947	4141.11	68.9261	4141.11	67.1159	4141.11	67.0631	4141.11	64.5159	4141.11	64.4441	4141.11	63.987	4141.11	63.9854	4141.11	61.9002	4141.11	61.8408	4141.11	61.5335	4141.11	61.9144	4141.11	61.9043	4141.11	62.3413	4141.11	62.7839	4141.11	61.8753	4141.11	61.6229	4141.11	61.5267	4141.11	54.6565	4141.11	54.3018	4141.11	57.5196
4287.6	75.7022	4287.6	76.0548	4287.6	75.6619	4287.6	76.3898	4287.6	75.9008	4287.6	76.2226	4287.6	75.9802	4287.6	75.3413	4287.6	75.508	4287.6	73.9936	4287.6	74.5016	4287.6	72.4517	4287.6	72.8964	4287.6	70.3648	4287.6	70.508	4287.6	68.2862	4287.6	68.415	4287.6	66.9471	4287.6	67.0297	4287.6	64.6056	4287.6	64.2428	4287.6	63.2461	4287.6	62.9833	4287.6	61.5434	4287.6	61.0629	4287.6	61.591	4287.6	61.3749	4287.6	61.3545	4287.6	61.8306	4287.6	61.2766	4287.6	61.2419	4287.6	61.0287	4287.6	61.1636	4287.6	54.1675	4287.6	51.8378	4287.6	55.6352
4438.48	75.6702	4438.48	75.9015	4438.48	75.6663	4438.48	76.2824	4438.48	75.7823	4438.48	76.3056	4438.48	75.8308	4438.48	75.6774	4438.48	75.4396	4438.48	74.6059	4438.48	74.482	4438.48	73.1448	4438.48	73.0099	4438.48	70.9667	4438.48	70.8779	4438.48	68.5372	4438.48	68.4352	4438.48	66.7203	4438.48	66.5085	4438.48	64.1249	4438.48	63.9068	4438.48	62.8201	4438.48	62.8902	4438.48	61.2149	4438.48	61.7441	4438.48	60.7454	4438.48	60.5383	4438.48	61.4762	4438.48	62.2439	4438.48	61.4947	4438.48	60.8866	4438.48	60.9201	4438.48	61.5867	4438.48	52.9723	4438.48	53.1556	4438.48	55.0468
4595.21	75.8965	4595.21	76.1566	4595.21	75.8276	4595.21	76.3763	4595.21	75.8043	4595.21	76.1784	4595.21	75.654	4595.21	75.4067	4595.21	75.1587	4595.21	73.9967	4595.21	74.0843	4595.21	72.2297	4595.21	72.4378	4595.21	70.1371	4595.21	70.3433	4595.21	67.5043	4595.21	67.9041	4595.21	65.5875	4595.21	66.323	4595.21	63.3434	4595.21	64.2011	4595.21	61.724	4595.21	61.7583	4595.21	61.0869	4595.21	61.3331	4595.21	60.488	4595.21	60.0448	4595.21	60.7614	4595.21	61.7979	4595.21	60.2802	4595.21	60.4356	4595.21	60.991	4595.21	61.405	4595.21	52.5941	4595.21	54.1967	4595.21	52.8194
4756.35	76.1283	4756.35	76.4121	4756.35	76.0491	4756.35	76.5919	4756.35	75.9906	4756.35	76.2753	4756.35	75.9239	4756.35	75.4968	4756.35	75.5285	4756.35	74.2129	4756.35	74.3241	4756.35	72.3847	4756.35	72.4491	4756.35	70.3296	4756.35	70.2891	4756.35	67.9597	4756.35	67.9737	4756.35	65.7395	4756.35	65.8352	4756.35	63.4774	4756.35	63.7006	4756.35	61.2288	4756.35	61.7347	4756.35	60.7455	4756.35	60.9038	4756.35	59.7195	4756.35	59.6021	4756.35	60.6239	4756.35	61.0528	4756.35	59.3422	4756.35	60.2381	4756.35	60.8718	4756.35	60.9907	4756.35	53.743	4756.35	55.2424	4756.35	53.5877
4924.8	75.7832	4924.8	75.9873	4924.8	75.7388	4924.8	76.2209	4924.8	75.674	4924.8	76.059	4924.8	75.4214	4924.8	75.3899	4924.8	74.9146	4924.8	74.11	4924.8	73.8358	4924.8	72.1809	4924.8	71.9335	4924.8	70.0899	4924.8	69.8191	4924.8	67.5983	4924.8	67.4626	4924.8	65.0599	4924.8	65.3573	4924.8	63.0301	4924.8	63.8228	4924.8	61.2572	4924.8	61.1118	4924.8	61.0001	4924.8	60.5808	4924.8	59.9234	4924.8	58.9085	4924.8	61.3171	4924.8	61.5376	4924.8	59.2018	4924.8	59.2584	4924.8	59.793	4924.8	60.7637	4924.8	51.6277	4924.8	53.9402	4924.8	52.8705
5097.66	76.3127	5097.66	76.5059	5097.66	76.2398	5097.66	76.5497	5097.66	76.129	5097.66	76.1606	5097.66	75.8821	5097.66	75.3376	5097.66	75.302	5097.66	74.1175	5097.66	74.0373	5097.66	72.2729	5097.66	72.0918	5097.66	69.9447	5097.66	69.845	5097.66	67.6409	5097.66	67.5473	5097.66	65.3111	5097.66	65.1002	5097.66	63.4615	5097.66	63.1325	5097.66	61.0163	5097.66	60.1344	5097.66	60.6164	5097.66	59.6069	5097.66	59.1737	5097.66	58.0191	5097.66	60.8583	5097.66	60.7626	5097.66	59.6277	5097.66	59.2986	5097.66	61.5986	5097.66	60.0252	5097.66	54.1062	5097.66	54.3251	5097.66	51.2237
5277.83	76.2539	5277.83	76.3732	5277.83	76.203	5277.83	76.4729	5277.83	76.0832	5277.83	76.1386	5277.83	75.7273	5277.83	75.15	5277.83	75.0552	5277.83	73.7311	5277.83	73.8635	5277.83	71.8676	5277.83	71.9017	5277.83	69.6262	5277.83	69.6707	5277.83	67.1565	5277.83	67.5804	5277.83	64.7546	5277.83	64.8838	5277.83	62.9532	5277.83	63.0714	5277.83	59.9125	5277.83	60.9248	5277.83	59.6027	5277.83	59.886	5277.83	57.8114	5277.83	58.3521	5277.83	60.5252	5277.83	60.539	5277.83	57.9483	5277.83	59.5814	5277.83	60.0185	5277.83	59.4243	5277.83	55.9546	5277.83	54.9673	5277.83	48.2779
5463.87	76.6395	5463.87	76.7128	5463.87	76.5582	5463.87	76.6374	5463.87	76.2857	5463.87	76.1211	5463.87	75.8244	5463.87	75.0079	5463.87	75.1369	5463.87	73.4829	5463.87	73.7641	5463.87	71.583	5463.87	71.6478	5463.87	69.1718	5463.87	69.4232	5463.87	66.7903	5463.87	67.3449	5463.87	64.1766	5463.87	64.5379	5463.87	62.2626	5463.87	62.019	5463.87	60.2821	5463.87	59.8513	5463.87	58.5589	5463.87	58.5722	5463.87	57.865	5463.87	57.6044	5463.87	59.4971	5463.87	59.6805	5463.87	59.4676	5463.87	60.155	5463.87	59.3862	5463.87	59.1872	5463.87	52.7858	5463.87	54.4548	5463.87	52.3576
5657.23	76.3477	5657.23	76.3456	5657.23	76.1944	5657.23	76.0508	5657.23	75.7972	5657.23	75.3851	5657.23	75.3483	5657.23	74.2364	5657.23	74.7376	5657.23	72.6774	5657.23	73.4039	5657.23	70.84	5657.23	71.4587	5657.23	68.7286	5657.23	69.3196	5657.23	66.3341	5657.23	67.1307	5657.23	64.4188	5657.23	64.6046	5657.23	62.3966	5657.23	62.1919	5657.23	60.6747	5657.23	60.6438	5657.23	58.9832	5657.23	58.8679	5657.23	58.3995	5657.23	57.8854	5657.23	58.6712	5657.23	59.1195	5657.23	58.987	5657.23	59.5977	5657.23	59.8701	5657.23	59.7452	5657.23	54.0378	5657.23	54.6259	5657.23	45.3711
5856.45	76.1344	5856.45	76.1668	5856.45	76.0146	5856.45	75.8157	5856.45	75.5214	5856.45	74.9397	5856.45	75.0043	5856.45	73.8838	5856.45	74.5119	5856.45	72.5833	5856.45	73.0591	5856.45	70.7738	5856.45	70.9777	5856.45	68.8301	5856.45	69.0506	5856.45	66.6364	5856.45	66.8594	5856.45	64.1911	5856.45	64.338	5856.45	61.7624	5856.45	61.9314	5856.45	59.6364	5856.45	59.8256	5856.45	57.7652	5856.45	58.8014	5856.45	56.5932	5856.45	55.8883	5856.45	58.4812	5856.45	58.7374	5856.45	58.7388	5856.45	59.0136	5856.45	59.2645	5856.45	59.3666	5856.45	55.0661	5856.45	55.1269	5856.45	45.1183
6062.99	76.0854	6062.99	76.0258	6062.99	75.6747	6062.99	75.534	6062.99	75.1262	6062.99	74.7127	6062.99	74.656	6062.99	73.7032	6062.99	74.2007	6062.99	72.586	6062.99	73.0881	6062.99	70.854	6062.99	71.0543	6062.99	68.7287	6062.99	68.9374	6062.99	66.5413	6062.99	66.8303	6062.99	63.6301	6062.99	63.9171	6062.99	61.0084	6062.99	61.1994	6062.99	58.4475	6062.99	58.9655	6062.99	57.6279	6062.99	58.1883	6062.99	56.2909	6062.99	56.5307	6062.99	57.3174	6062.99	57.8615	6062.99	58.5808	6062.99	59.1111	6062.99	58.3769	6062.99	58.172	6062.99	53.9258	6062.99	54.6754	6062.99	43.7722
6276.86	75.9861	6276.86	75.8283	6276.86	75.4584	6276.86	75.1467	6276.86	74.6984	6276.86	74.2481	6276.86	74.2074	6276.86	73.2827	6276.86	73.8389	6276.86	72.0634	6276.86	72.815	6276.86	70.3428	6276.86	70.9292	6276.86	68.2062	6276.86	68.9925	6276.86	65.5928	6276.86	66.716	6276.86	62.9811	6276.86	64.1109	6276.86	60.3355	6276.86	61.5317	6276.86	58.7734	6276.86	59.9311	6276.86	56.7511	6276.86	57.9618	6276.86	57.0917	6276.86	57.0049	6276.86	56.9372	6276.86	56.4928	6276.86	58.7964	6276.86	58.8299	6276.86	57.7417	6276.86	57.6393	6276.86	53.4608	6276.86	54.6432	6276.86	45.8228
6498.05	76.1066	6498.05	75.8667	6498.05	75.6147	6498.05	75.018	6498.05	74.669	6498.05	74.0126	6498.05	74.1335	6498.05	73.2447	6498.05	73.8826	6498.05	72.1838	6498.05	72.8126	6498.05	70.4609	6498.05	70.8554	6498.05	68.1491	6498.05	68.7624	6498.05	65.865	6498.05	66.6532	6498.05	63.123	6498.05	63.5826	6498.05	60.4901	6498.05	60.8334	6498.05	57.8786	6498.05	58.0853	6498.05	57.263	6498.05	57.8855	6498.05	56.5068	6498.05	55.9036	6498.05	55.9949	6498.05	56.6387	6498.05	58.3999	6498.05	59.1023	6498.05	57.6787	6498.05	57.5551	6498.05	52.4127	6498.05	53.9009	6498.05	43.7169
6726.56	76.341	6726.56	76.0116	6726.56	75.8263	6726.56	75.0379	6726.56	74.6924	6726.56	74.0137	6726.56	74.0764	6726.56	73.2949	6726.56	73.9171	6726.56	72.2411	6726.56	72.825	6726.56	70.5934	6726.56	70.8766	6726.56	68.1434	6726.56	68.6778	6726.56	65.5973	6726.56	66.1722	6726.56	63.0065	6726.56	63.2512	6726.56	60.9467	6726.56	60.8157	6726.56	58.7151	6726.56	58.3788	6726.56	56.7363	6726.56	57.3037	6726.56	56.0589	6726.56	56.5665	6726.56	57.0974	6726.56	56.1124	6726.56	58.7537	6726.56	58.8384	6726.56	57.5084	6726.56	57.3994	6726.56	52.8264	6726.56	53.9778	6726.56	34.5008
6963.87	76.5844	6963.87	76.1735	6963.87	75.9523	6963.87	75.0592	6963.87	74.7515	6963.87	73.9762	6963.87	74.2175	6963.87	73.4899	6963.87	74.1098	6963.87	72.5552	6963.87	73.1241	6963.87	70.8503	6963.87	71.2438	6963.87	68.5766	6963.87	69.0057	6963.87	66.0149	6963.87	66.6532	6963.87	63.4049	6963.87	63.6296	6963.87	61.061	6963.87	60.8104	6963.87	58.9295	6963.87	58.706	6963.87	56.5911	6963.87	57.5437	6963.87	55.8879	6963.87	56.8326	6963.87	55.6127	6963.87	55.5764	6963.87	59.3203	6963.87	58.7872	6963.87	57.6789	6963.87	57.7971	6963.87	54.4827	6963.87	53.8433	6963.87	25.6894
7209.96	76.9996	7209.96	76.5398	7209.96	76.1031	7209.96	75.3016	7209.96	74.9355	7209.96	74.4452	7209.96	74.6544	7209.96	74.1491	7209.96	74.6655	7209.96	73.2662	7209.96	73.693	7209.96	71.5309	7209.96	71.8418	7209.96	68.9152	7209.96	69.5773	7209.96	66.1058	7209.96	66.8856	7209.96	63.4968	7209.96	63.81	7209.96	61.0976	7209.96	61.4004	7209.96	58.197	7209.96	59.514	7209.96	56.4345	7209.96	57.4041	7209.96	55.9762	7209.96	57.1224	7209.96	54.2763	7209.96	55.8923	7209.96	58.291	7209.96	58.7453	7209.96	56.6725	7209.96	57.9886	7209.96	53.6817	7209.96	55.3963	7209.96	31.6337
7464.84	77.3766	7464.84	77.0573	7464.84	76.5802	7464.84	75.9791	7464.84	75.5916	7464.84	75.1295	7464.84	75.3159	7464.84	74.6061	7464.84	75.238	7464.84	73.6282	7464.84	73.9402	7464.84	71.5687	7464.84	71.941	7464.84	68.9916	7464.84	69.7592	7464.84	66.1961	7464.84	66.8001	7464.84	63.0779	7464.84	63.8167	7464.84	61.2789	7464.84	61.2748	7464.84	58.1081	7464.84	59.2135	7464.84	54.9671	7464.84	57.1506	7464.84	55.2574	7464.84	56.1613	7464.84	54.5484	7464.84	57.2309	7464.84	58.4935	7464.84	59.0324	7464.84	57.3752	7464.84	58.31	7464.84	53.3234	7464.84	54.9218	7464.84	36.3929
7727.05	77.6614	7727.05	77.4108	7727.05	77.0522	7727.05	76.4154	7727.05	76.2468	7727.05	75.3703	7727.05	75.8488	7727.05	74.7783	7727.05	75.5354	7727.05	73.6389	7727.05	74.0886	7727.05	71.4221	7727.05	72.249	7727.05	68.6957	7727.05	70.1478	7727.05	65.9094	7727.05	66.9637	7727.05	63.0335	7727.05	64.1505	7727.05	60.4218	7727.05	61.8211	7727.05	57.1508	7727.05	59.2018	7727.05	55.1818	7727.05	57.1982	7727.05	54.6884	7727.05	54.618	7727.05	54.9544	7727.05	56.9348	7727.05	57.958	7727.05	58.5285	7727.05	56.6726	7727.05	57.6007	7727.05	53.5556	7727.05	53.6579	7727.05	31.792
7999.51	78.169	7999.51	77.7551	7999.51	77.5139	7999.51	76.6348	7999.51	76.5707	7999.51	75.5059	7999.51	76.0048	7999.51	74.6624	7999.51	75.6784	7999.51	73.3431	7999.51	74.1928	7999.51	71.2186	7999.51	72.4428	7999.51	68.569	7999.51	70.1972	7999.51	65.9158	7999.51	67.0775	7999.51	62.7843	7999.51	64.4435	7999.51	60.4977	7999.51	61.6606	7999.51	57.6208	7999.51	59.7687	7999.51	55.3897	7999.51	57.4218	7999.51	53.7583	7999.51	54.4717	7999.51	54.3704	7999.51	56.2237	7999.51	58.5424	7999.51	58.3357	7999.51	56.6249	7999.51	57.4847	7999.51	53.585	7999.51	52.7226	7999.51	37.4586
8282.23	78.462	8282.23	78.037	8282.23	77.8229	8282.23	76.5799	8282.23	76.7482	8282.23	75.1108	8282.23	76.0443	8282.23	74.2671	8282.23	75.6137	8282.23	73.0329	8282.23	74.2757	8282.23	71.0915	8282.23	72.7615	8282.23	68.9471	8282.23	70.8483	8282.23	66.3065	8282.23	67.9547	8282.23	63.327	8282.23	65.1059	8282.23	60.5236	8282.23	62.3817	8282.23	57.3827	8282.23	60.3301	8282.23	56.2222	8282.23	58.1312	8282.23	54.3771	8282.23	55.3219	8282.23	53.3527	8282.23	56.4342	8282.23	57.4127	8282.23	57.4853	8282.23	56.5356	8282.23	57.5919	8282.23	53.6722	8282.23	52.34	8282.23	41.3053
8573.73	78.2466	8573.73	77.8672	8573.73	77.8892	8573.73	76.5062	8573.73	76.981	8573.73	74.7906	8573.73	76.2258	8573.73	73.8902	8573.73	75.5825	8573.73	72.8038	8573.73	74.3843	8573.73	71.0217	8573.73	72.7375	8573.73	69.3231	8573.73	70.6204	8573.73	66.8772	8573.73	67.7759	8573.73	63.9431	8573.73	64.8967	8573.73	60.5052	8573.73	62.5516	8573.73	57.8326	8573.73	60.3262	8573.73	55.9308	8573.73	57.1669	8573.73	54.8471	8573.73	56.333	8573.73	54.8779	8573.73	55.6806	8573.73	56.5968	8573.73	56.7728	8573.73	56.7211	8573.73	57.7882	8573.73	53.2217	8573.73	52.9289	8573.73	40.9608
8876.95	78.2565	8876.95	77.8028	8876.95	78.0773	8876.95	76.4095	8876.95	77.1569	8876.95	74.5927	8876.95	76.11	8876.95	73.4885	8876.95	75.3077	8876.95	72.648	8876.95	74.2484	8876.95	71.2451	8876.95	72.7321	8876.95	69.5439	8876.95	70.5716	8876.95	67.1187	8876.95	67.8216	8876.95	64.169	8876.95	64.3556	8876.95	61.234	8876.95	61.7777	8876.95	58.2267	8876.95	58.9989	8876.95	54.5821	8876.95	57.4855	8876.95	54.7101	8876.95	55.6911	8876.95	55.06	8876.95	55.5471	8876.95	55.9759	8876.95	56.8622	8876.95	56.3268	8876.95	57.1682	8876.95	53.6334	8876.95	51.8574	8876.95	42.0589
9188.96	78.3267	9188.96	78.23	9188.96	77.9435	9188.96	76.9675	9188.96	76.7772	9188.96	75.0374	9188.96	75.2497	9188.96	74.1268	9188.96	74.2904	9188.96	73.8186	9188.96	73.3008	9188.96	72.6985	9188.96	71.8536	9188.96	71.0794	9188.96	69.6342	9188.96	68.0347	9188.96	66.9885	9188.96	64.8632	9188.96	63.4985	9188.96	61.7783	9188.96	60.6699	9188.96	59.5953	9188.96	58.1294	9188.96	55.8764	9188.96	56.5399	9188.96	55.3704	9188.96	54.0116	9188.96	55.6496	9188.96	53.9652	9188.96	57.6364	9188.96	55.9534	9188.96	56.7676	9188.96	56.2529	9188.96	53.168	9188.96	51.1644	9188.96	45.2747
9514.16	78.5441	9514.16	78.7456	9514.16	77.761	9514.16	77.5702	9514.16	76.174	9514.16	75.7581	9514.16	74.4228	9514.16	75.1709	9514.16	73.3824	9514.16	74.7412	9514.16	72.4568	9514.16	73.5037	9514.16	71.0183	9514.16	71.7875	9514.16	69.039	9514.16	68.7727	9514.16	66.1332	9514.16	65.6707	9514.16	63.1284	9514.16	61.988	9514.16	60.0413	9514.16	60.1711	9514.16	57.0133	9514.16	55.6969	9514.16	56.2795	9514.16	56.3934	9514.16	52.6537	9514.16	56.3943	9514.16	53.2446	9514.16	58.1236	9514.16	54.7827	9514.16	57.5658	9514.16	55.4273	9514.16	53.4994	9514.16	50.1781	9514.16	46.1888
9849.61	78.5236	9849.61	78.8335	9849.61	77.7014	9849.61	77.82	9849.61	76.3782	9849.61	76.0438	9849.61	74.8053	9849.61	75.211	9849.61	73.736	9849.61	74.749	9849.61	72.7733	9849.61	73.7898	9849.61	71.4248	9849.61	72.0516	9849.61	69.4842	9849.61	69.0195	9849.61	66.508	9849.61	65.7721	9849.61	63.6776	9849.61	62.118	9849.61	60.3138	9849.61	60.1988	9849.61	55.684	9849.61	55.3902	9849.61	56.7614	9849.61	56.7168	9849.61	53.093	9849.61	54.5888	9849.61	53.16	9849.61	57.8968	9849.61	54.6769	9849.61	57.1478	9849.61	55.7036	9849.61	52.1864	9849.61	50.8688	9849.61	48.2527
10196.8	78.1318	10196.8	78.697	10196.8	78.0764	10196.8	78.1111	10196.8	77.319	10196.8	76.1752	10196.8	75.6941	10196.8	75.1625	10196.8	74.5661	10196.8	74.2556	10196.8	73.5366	10196.8	73.4666	10196.8	72.1913	10196.8	71.5784	10196.8	70.0818	10196.8	68.3916	10196.8	67.239	10196.8	64.8176	10196.8	64.3817	10196.8	61.7282	10196.8	60.6397	10196.8	59.6571	10196.8	56.0247	10196.8	54.9046	10196.8	56.0951	10196.8	55.7642	10196.8	52.6572	10196.8	52.2519	10196.8	52.3198	10196.8	56.9724	10196.8	54.2632	10196.8	56.6002	10196.8	55.7466	10196.8	50.3934	10196.8	51.2024	10196.8	49.0563
10555.7	78.4064	10555.7	78.9815	10555.7	78.3773	10555.7	78.3844	10555.7	77.63	10555.7	76.6469	10555.7	76.1622	10555.7	75.4037	10555.7	75.0166	10555.7	74.2563	10555.7	73.823	10555.7	73.4778	10555.7	72.3697	10555.7	71.3391	10555.7	70.1354	10555.7	67.9255	10555.7	66.8671	10555.7	64.5356	10555.7	64.4207	10555.7	61.4982	10555.7	60.3602	10555.7	59.029	10555.7	57.5821	10555.7	53.3586	10555.7	55.4813	10555.7	54.8773	10555.7	51.9934	10555.7	52.4949	10555.7	51.7671	10555.7	56.3437	10555.7	54.1979	10555.7	56.3491	10555.7	55.3656	10555.7	50.7524	10555.7	51.8664	10555.7	49.5873
10927.7	79.4344	10927.7	79.636	10927.7	78.8251	10927.7	78.753	10927.7	77.8664	10927.7	77.1515	10927.7	76.777	10927.7	75.8013	10927.7	75.5264	10927.7	74.2708	10927.7	73.6762	10927.7	73.3555	10927.7	72.2849	10927.7	71.0446	10927.7	69.6771	10927.7	67.9391	10927.7	66.2264	10927.7	64.6183	10927.7	64.4594	10927.7	61.567	10927.7	59.8771	10927.7	58.5307	10927.7	58.1022	10927.7	53.3585	10927.7	54.2382	10927.7	54.1865	10927.7	51.9904	10927.7	52.9694	10927.7	51.6284	10927.7	55.6404	10927.7	53.4093	10927.7	55.7212	10927.7	55.1247	10927.7	49.6482	10927.7	49.7944	10927.7	49.2488
11313	79.9566	11313	80.2206	11313	79.342	11313	79.2796	11313	78.5396	11313	77.7075	11313	77.3451	11313	76.2561	11313	75.5726	11313	74.0585	11313	73.231	11313	72.9421	11313	71.8653	11313	70.6903	11313	69.3239	11313	67.737	11313	65.9456	11313	64.2552	11313	64.2958	11313	61.7471	11313	60.1793	11313	57.9362	11313	58.0437	11313	53.6764	11313	53.4306	11313	54.9426	11313	52.3473	11313	53.7008	11313	51.6519	11313	54.8519	11313	53.8375	11313	54.7273	11313	53.0629	11313	50.0462	11313	49.9242	11313	49.0856
11712.9	80.5456	11712.9	80.8747	11712.9	80.0993	11712.9	79.8516	11712.9	79.1166	11712.9	78.1044	11712.9	77.7953	11712.9	76.1475	11712.9	75.5439	11712.9	73.7106	11712.9	72.9587	11712.9	72.6837	11712.9	71.6091	11712.9	70.3126	11712.9	68.9551	11712.9	67.0757	11712.9	65.8725	11712.9	63.7263	11712.9	63.5844	11712.9	60.3818	11712.9	60.0118	11712.9	56.5777	11712.9	56.7574	11712.9	53.4246	11712.9	53.0001	11712.9	53.9274	11712.9	51.4285	11712.9	54.0502	11712.9	50.7665	11712.9	53.4619	11712.9	52.3345	11712.9	53.8491	11712.9	51.0712	11712.9	52.2911	11712.9	50.6175	11712.9	46.9858
12126	80.8841	12126	81.1123	12126	80.5207	12126	80.0692	12126	79.4162	12126	78.4425	12126	78.2472	12126	76.3295	12126	75.7732	12126	73.6772	12126	73.3361	12126	72.4532	12126	71.632	12126	69.4402	12126	68.7824	12126	65.9903	12126	65.6127	12126	62.537	12126	62.1637	12126	59.9917	12126	58.7759	12126	57.0131	12126	55.1011	12126	53.4311	12126	53.1108	12126	51.2435	12126	51.0274	12126	52.9284	12126	48.2548	12126	52.4933	12126	51.9244	12126	52.31	12126	51.4506	12126	52.0307	12126	50.0721	12126	48.7613
12553.7	81.2098	12553.7	81.4651	12553.7	80.7805	12553.7	80.4637	12553.7	79.6975	12553.7	78.7164	12553.7	78.4075	12553.7	76.1595	12553.7	75.6601	12553.7	73.5261	12553.7	73.0753	12553.7	72.3759	12553.7	71.165	12553.7	69.4612	12553.7	68.7056	12553.7	66.5712	12553.7	65.3364	12553.7	62.4259	12553.7	61.3473	12553.7	60.2693	12553.7	58.3793	12553.7	56.9187	12553.7	54.6895	12553.7	52.9465	12553.7	52.9528	12553.7	49.4238	12553.7	49.657	12553.7	53.0179	12553.7	46.8121	12553.7	52.0611	12553.7	51.4218	12553.7	50.4442	12553.7	50.8539	12553.7	50.3786	12553.7	49.6562	12553.7	49.6549
12996.1	81.7456	12996.1	81.8218	12996.1	81.0597	12996.1	80.6825	12996.1	79.8468	12996.1	78.7418	12996.1	78.5171	12996.1	76.3865	12996.1	75.6343	12996.1	73.4909	12996.1	72.8609	12996.1	72.1323	12996.1	70.9699	12996.1	69.1819	12996.1	68.3247	12996.1	66.2571	12996.1	65.3011	12996.1	62.1353	12996.1	61.7036	12996.1	59.6689	12996.1	59.0073	12996.1	56.143	12996.1	55.4527	12996.1	53.791	12996.1	52.3878	12996.1	49.9085	12996.1	48.823	12996.1	53.0447	12996.1	45.5041	12996.1	50.7682	12996.1	52.1198	12996.1	51.6408	12996.1	52.158	12996.1	51.0493	12996.1	49.3662	12996.1	48.2682
13454.6	82.0727	13454.6	81.7344	13454.6	80.9096	13454.6	80.4662	13454.6	79.9564	13454.6	78.737	13454.6	79.0951	13454.6	76.138	13454.6	75.8567	13454.6	73.0848	13454.6	73.2656	13454.6	71.7196	13454.6	71.1168	13454.6	68.7113	13454.6	68.5679	13454.6	65.5656	13454.6	66.0998	13454.6	62.0951	13454.6	62.2351	13454.6	59.1281	13454.6	59.559	13454.6	56.1474	13454.6	55.2249	13454.6	54.7296	13454.6	53.0075	13454.6	49.2381	13454.6	48.7765	13454.6	52.9195	13454.6	46.3888	13454.6	50.5551	13454.6	52.5564	13454.6	50.7175	13454.6	52.1645	13454.6	49.7885	13454.6	48.0624	13454.6	49.4172
13929.2	81.2473	13929.2	81.2287	13929.2	80.6589	13929.2	80.1645	13929.2	79.883	13929.2	78.4355	13929.2	78.8162	13929.2	75.4133	13929.2	75.513	13929.2	72.8787	13929.2	73.196	13929.2	71.6127	13929.2	70.9901	13929.2	68.8393	13929.2	68.7241	13929.2	65.919	13929.2	66.2935	13929.2	62.6014	13929.2	62.3016	13929.2	60.0214	13929.2	59.4907	13929.2	57.1931	13929.2	55.778	13929.2	55.6267	13929.2	53.1739	13929.2	50.1795	13929.2	49.8845	13929.2	51.8252	13929.2	46.7027	13929.2	51.0887	13929.2	53.3969	13929.2	50.7802	13929.2	51.3573	13929.2	49.3611	13929.2	47.0599	13929.2	50.0062
14419.9	80.2867	14419.9	80.5249	14419.9	80.0837	14419.9	79.5791	14419.9	79.2695	14419.9	77.7748	14419.9	78.0548	14419.9	75.1434	14419.9	74.9918	14419.9	72.6129	14419.9	72.6475	14419.9	71.5248	14419.9	70.8245	14419.9	68.7992	14419.9	68.5518	14419.9	66.0888	14419.9	65.64	14419.9	62.8914	14419.9	61.7252	14419.9	60.0626	14419.9	58.833	14419.9	57.0611	14419.9	56.5097	14419.9	54.6681	14419.9	52.816	14419.9	50.0729	14419.9	49.1092	14419.9	51.3945	14419.9	46.3422	14419.9	50.8925	14419.9	52.1838	14419.9	50.7722	14419.9	51.0193	14419.9	49.6283	14419.9	48.1476	14419.9	50.8268
14928.2	79.5703	14928.2	79.6024	14928.2	78.8819	14928.2	78.7036	14928.2	78.1445	14928.2	77.2075	14928.2	77.3508	14928.2	74.9744	14928.2	74.4335	14928.2	72.7457	14928.2	71.9791	14928.2	71.5491	14928.2	70.0522	14928.2	68.959	14928.2	67.4312	14928.2	66.2123	14928.2	64.6096	14928.2	63.6271	14928.2	61.545	14928.2	59.8991	14928.2	58.4225	14928.2	57.0271	14928.2	55.6964	14928.2	55.2056	14928.2	51.3232	14928.2	50.1514	14928.2	47.1844	14928.2	50.6082	14928.2	49.1392	14928.2	52.0262	14928.2	53.1615	14928.2	50.3375	14928.2	50.6954	14928.2	50.2742	14928.2	49.1602	14928.2	49.8109
15455.6	78.4993	15455.6	78.5381	15455.6	77.4953	15455.6	77.7617	15455.6	76.7991	15455.6	76.986	15455.6	76.4175	15455.6	74.7002	15455.6	73.4065	15455.6	72.6825	15455.6	70.932	15455.6	71.6897	15455.6	69.4868	15455.6	69.5434	15455.6	67.3871	15455.6	66.0956	15455.6	63.4965	15455.6	63.5528	15455.6	60.4434	15455.6	59.6862	15455.6	57.2941	15455.6	57.4426	15455.6	54.3798	15455.6	55.2835	15455.6	51.9359	15455.6	50.1264	15455.6	46.7475	15455.6	47.8087	15455.6	48.2492	15455.6	52.0932	15455.6	52.0514	15455.6	49.1545	15455.6	47.8408	15455.6	50.5672	15455.6	48.7056	15455.6	46.3979
16000.5	77.2633	16000.5	77.937	16000.5	76.7492	16000.5	77.3279	16000.5	76.0274	16000.5	77.1783	16000.5	75.6344	16000.5	75.2258	16000.5	73.0092	16000.5	73.2379	16000.5	70.6181	16000.5	72.3694	16000.5	69.1237	16000.5	70.1412	16000.5	66.5786	16000.5	66.755	16000.5	62.4316	16000.5	63.9286	16000.5	59.8344	16000.5	60.2848	16000.5	56.1365	16000.5	57.6157	16000.5	53.7271	16000.5	54.4928	16000.5	51.2876	16000.5	50.3764	16000.5	43.6758	16000.5	49.2186	16000.5	46.5308	16000.5	52.3008	16000.5	50.0748	16000.5	48.7983	16000.5	47.5951	16000.5	50.2348	16000.5	46.8049	16000.5	47.3194
16564.5	76.818	16564.5	77.9644	16564.5	76.5625	16564.5	77.399	16564.5	75.6673	16564.5	76.9543	16564.5	75.1478	16564.5	75.1575	16564.5	72.2607	16564.5	73.132	16564.5	69.8168	16564.5	71.5106	16564.5	67.3999	16564.5	68.7658	16564.5	64.4021	16564.5	65.0264	16564.5	61.6328	16564.5	62.8556	16564.5	59.727	16564.5	58.28	16564.5	54.8777	16564.5	55.8487	16564.5	52.353	16564.5	52.2519	16564.5	47.0681	16564.5	47.9681	16564.5	39.329	16564.5	46.9489	16564.5	46.4596	16564.5	50.881	16564.5	47.3997	16564.5	44.0878	16564.5	41.8854	16564.5	49.7726	16564.5	47.145	16564.5	46.372
17148.9	78.241	17148.9	78.7461	17148.9	77.614	17148.9	77.9831	17148.9	76.407	17148.9	77.0974	17148.9	75.4481	17148.9	75.0101	17148.9	72.4834	17148.9	72.1817	17148.9	68.6692	17148.9	69.7432	17148.9	66.3501	17148.9	66.6322	17148.9	63.5949	17148.9	62.3595	17148.9	59.8476	17148.9	60.3477	17148.9	57.7341	17148.9	55.1659	17148.9	53.7173	17148.9	53.3885	17148.9	51.7271	17148.9	49.6272	17148.9	46.4405	17148.9	47.6321	17148.9	43.5724	17148.9	40.3177	17148.9	44.6285	17148.9	48.6236	17148.9	45.9495	17148.9	40.4623	17148.9	42.2536	17148.9	49.5552	17148.9	47.2948	17148.9	46.9902
17752.4	79.1342	17752.4	79.2518	17752.4	77.5829	17752.4	77.8532	17752.4	76.4833	17752.4	77.2494	17752.4	75.5474	17752.4	74.6926	17752.4	72.213	17752.4	71.5072	17752.4	68.5321	17752.4	69.0959	17752.4	66.8524	17752.4	65.8567	17752.4	63.3816	17752.4	61.527	17752.4	59.8405	17752.4	58.7552	17752.4	56.8042	17752.4	53.9213	17752.4	53.533	17752.4	52.59	17752.4	50.7769	17752.4	45.3319	17752.4	45.8249	17752.4	46.3926	17752.4	43.765	17752.4	40.1185	17752.4	42.6612	17752.4	47.1684	17752.4	43.5007	17752.4	38.3636	17752.4	39.046	17752.4	49.7808	17752.4	46.7202	17752.4	46.9492
18379.4	79.0512	18379.4	79.7587	18379.4	78.6454	18379.4	78.271	18379.4	77.1332	18379.4	76.8639	18379.4	75.8527	18379.4	74.395	18379.4	72.8932	18379.4	70.7671	18379.4	69.4843	18379.4	67.9579	18379.4	67.8375	18379.4	64.1449	18379.4	64.2564	18379.4	59.2956	18379.4	61.9523	18379.4	56.971	18379.4	58.0842	18379.4	51.8942	18379.4	55.0478	18379.4	50.8281	18379.4	50.8499	18379.4	42.4711	18379.4	48.4916	18379.4	45.9273	18379.4	42.7307	18379.4	36.2241	18379.4	44.1335	18379.4	45.719	18379.4	41.9295	18379.4	36.4289	18379.4	40.3949	18379.4	47.2865	18379.4	43.8053	18379.4	45.187
19026.9	80.4737	19026.9	80.4242	19026.9	79.4768	19026.9	78.4946	19026.9	78.4785	19026.9	76.7069	19026.9	77.3102	19026.9	73.8496	19026.9	74.6472	19026.9	69.39	19026.9	71.1291	19026.9	65.6455	19026.9	69.6093	19026.9	61.8071	19026.9	66.1073	19026.9	57.232	19026.9	63.4673	19026.9	53.6733	19026.9	59.2036	19026.9	49.9109	19026.9	56.3991	19026.9	48.7436	19026.9	51.8761	19026.9	43.2927	19026.9	49.5129	19026.9	43.5718	19026.9	45.542	19026.9	34.37	19026.9	44.4558	19026.9	44.543	19026.9	43.8316	19026.9	41.3687	19026.9	41.6294	19026.9	45.8142	19026.9	42.0553	19026.9	44.4696
19697.8	81.7413	19697.8	81.2514	19697.8	80.3844	19697.8	78.9501	19697.8	79.5926	19697.8	76.9281	19697.8	78.4133	19697.8	73.2728	19697.8	75.4241	19697.8	68.6731	19697.8	71.463	19697.8	64.9616	19697.8	69.2134	19697.8	62.4228	19697.8	65.7582	19697.8	59.2112	19697.8	62.8093	19697.8	53.4874	19697.8	57.8825	19697.8	51.3835	19697.8	55.4912	19697.8	50.3258	19697.8	50.2306	19697.8	43.5914	19697.8	49.9604	19697.8	43.5418	19697.8	42.9981	19697.8	38.5307	19697.8	42.4337	19697.8	42.3794	19697.8	45.0721	19697.8	42.2797	19697.8	45.5413	19697.8	45.5804	19697.8	45.0932	19697.8	46.2032
19999.5	81.813	19999.5	80.9287	19999.5	80.1485	19999.5	79.0752	19999.5	80.12	19999.5	76.9132	19999.5	78.304	19999.5	73.2694	19999.5	75.1965	19999.5	68.5788	19999.5	71.1879	19999.5	65.6895	19999.5	68.8704	19999.5	63.5323	19999.5	65.181	19999.5	60.1151	19999.5	62.5085	19999.5	54.6871	19999.5	57.5387	19999.5	51.579	19999.5	54.8593	19999.5	52.4057	19999.5	50.2731	19999.5	47.6199	19999.5	50.1486	19999.5	45.7777	19999.5	39.9694	19999.5	46.2484	19999.5	43.6646	19999.5	43.3521	19999.5	46.4841	19999.5	39.6884	19999.5	48.6399	19999.5	43.9944	19999.5	44.7453	19999.5	45.6606
