"SPL Vertical"
"On-Axis"		"10°"		"-10°"		"20°"		"-20°"		"30°"		"-30°"		"40°"		"-40°"		"50°"		"-50°"		"60°"		"-60°"		"70°"		"-70°"		"80°"		"-80°"		"90°"		"-90°"		"100°"		"-100°"		"110°"		"-110°"		"120°"		"-120°"		"130°"		"-130°"		"140°"		"-140°"		"150°"		"-150°"		"160°"		"-160°"		"170°"		"-170°"		"180°"
"Frequency / Hz"	"Sound Pressure Level / dB (re 20 µPa/V)   /[0.3V at 1m]"	"Frequency / Hz"	"Sound Pressure Level / dB (re 20 µPa/V)   /[0.3V at 1m]"	"Frequency / Hz"	"Sound Pressure Level / dB (re 20 µPa/V)   /[0.3V at 1m]"	"Frequency / Hz"	"Sound Pressure Level / dB (re 20 µPa/V)   /[0.3V at 1m]"	"Frequency / Hz"	"Sound Pressure Level / dB (re 20 µPa/V)   /[0.3V at 1m]"	"Frequency / Hz"	"Sound Pressure Level / dB (re 20 µPa/V)   /[0.3V at 1m]"	"Frequency / Hz"	"Sound Pressure Level / dB (re 20 µPa/V)   /[0.3V at 1m]"	"Frequency / Hz"	"Sound Pressure Level / dB (re 20 µPa/V)   /[0.3V at 1m]"	"Frequency / Hz"	"Sound Pressure Level / dB (re 20 µPa/V)   /[0.3V at 1m]"	"Frequency / Hz"	"Sound Pressure Level / dB (re 20 µPa/V)   /[0.3V at 1m]"	"Frequency / Hz"	"Sound Pressure Level / dB (re 20 µPa/V)   /[0.3V at 1m]"	"Frequency / Hz"	"Sound Pressure Level / dB (re 20 µPa/V)   /[0.3V at 1m]"	"Frequency / Hz"	"Sound Pressure Level / dB (re 20 µPa/V)   /[0.3V at 1m]"	"Frequency / Hz"	"Sound Pressure Level / dB (re 20 µPa/V)   /[0.3V at 1m]"	"Frequency / Hz"	"Sound Pressure Level / dB (re 20 µPa/V)   /[0.3V at 1m]"	"Frequency / Hz"	"Sound Pressure Level / dB (re 20 µPa/V)   /[0.3V at 1m]"	"Frequency / Hz"	"Sound Pressure Level / dB (re 20 µPa/V)   /[0.3V at 1m]"	"Frequency / Hz"	"Sound Pressure Level / dB (re 20 µPa/V)   /[0.3V at 1m]"	"Frequency / Hz"	"Sound Pressure Level / dB (re 20 µPa/V)   /[0.3V at 1m]"	"Frequency / Hz"	"Sound Pressure Level / dB (re 20 µPa/V)   /[0.3V at 1m]"	"Frequency / Hz"	"Sound Pressure Level / dB (re 20 µPa/V)   /[0.3V at 1m]"	"Frequency / Hz"	"Sound Pressure Level / dB (re 20 µPa/V)   /[0.3V at 1m]"	"Frequency / Hz"	"Sound Pressure Level / dB (re 20 µPa/V)   /[0.3V at 1m]"	"Frequency / Hz"	"Sound Pressure Level / dB (re 20 µPa/V)   /[0.3V at 1m]"	"Frequency / Hz"	"Sound Pressure Level / dB (re 20 µPa/V)   /[0.3V at 1m]"	"Frequency / Hz"	"Sound Pressure Level / dB (re 20 µPa/V)   /[0.3V at 1m]"	"Frequency / Hz"	"Sound Pressure Level / dB (re 20 µPa/V)   /[0.3V at 1m]"	"Frequency / Hz"	"Sound Pressure Level / dB (re 20 µPa/V)   /[0.3V at 1m]"	"Frequency / Hz"	"Sound Pressure Level / dB (re 20 µPa/V)   /[0.3V at 1m]"	"Frequency / Hz"	"Sound Pressure Level / dB (re 20 µPa/V)   /[0.3V at 1m]"	"Frequency / Hz"	"Sound Pressure Level / dB (re 20 µPa/V)   /[0.3V at 1m]"	"Frequency / Hz"	"Sound Pressure Level / dB (re 20 µPa/V)   /[0.3V at 1m]"	"Frequency / Hz"	"Sound Pressure Level / dB (re 20 µPa/V)   /[0.3V at 1m]"	"Frequency / Hz"	"Sound Pressure Level / dB (re 20 µPa/V)   /[0.3V at 1m]"	"Frequency / Hz"	"Sound Pressure Level / dB (re 20 µPa/V)   /[0.3V at 1m]"	"Frequency / Hz"	"Sound Pressure Level / dB (re 20 µPa/V)   /[0.3V at 1m]"
20.5078	47.4309	20.5078	47.3225	20.5078	47.5375	20.5078	47.2152	20.5078	47.6394	20.5078	47.1115	20.5078	47.7336	20.5078	47.014	20.5078	47.817	20.5078	46.9248	20.5078	47.8868	20.5078	46.8461	20.5078	47.9403	20.5078	46.7798	20.5078	47.975	20.5078	46.7277	20.5078	47.9894	20.5078	46.6912	20.5078	47.9821	20.5078	46.6718	20.5078	47.9528	20.5078	46.6706	20.5078	47.9021	20.5078	46.6882	20.5078	47.8312	20.5078	46.7249	20.5078	47.7426	20.5078	46.7805	20.5078	47.6393	20.5078	46.8539	20.5078	47.5251	20.5078	46.9435	20.5078	47.4042	20.5078	47.0468	20.5078	47.2812	20.5078	47.1606
21.9727	46.2333	21.9727	46.1269	21.9727	46.3395	21.9727	46.0234	21.9727	46.4424	21.9727	45.9254	21.9727	46.5388	21.9727	45.8354	21.9727	46.6256	21.9727	45.7557	21.9727	46.6997	21.9727	45.6882	21.9727	46.7584	21.9727	45.6347	21.9727	46.7993	21.9727	45.5963	21.9727	46.8207	21.9727	45.5741	21.9727	46.8214	21.9727	45.5689	21.9727	46.801	21.9727	45.581	21.9727	46.7601	21.9727	45.6104	21.9727	46.7	21.9727	45.6568	21.9727	46.6229	21.9727	45.7191	21.9727	46.5314	21.9727	45.7962	21.9727	46.429	21.9727	45.8861	21.9727	46.3195	21.9727	45.9864	21.9727	46.2066	21.9727	46.0944
23.4375	46.0822	23.4375	45.9612	23.4375	46.1931	23.4375	45.8331	23.4375	46.2906	23.4375	45.7011	23.4375	46.3718	23.4375	45.5683	23.4375	46.4338	23.4375	45.4379	23.4375	46.4741	23.4375	45.3128	23.4375	46.4907	23.4375	45.1961	23.4375	46.482	23.4375	45.0907	23.4375	46.4474	23.4375	44.9997	23.4375	46.3869	23.4375	44.926	23.4375	46.3017	23.4375	44.8721	23.4375	46.194	23.4375	44.8406	23.4375	46.067	23.4375	44.8335	23.4375	45.925	23.4375	44.8521	23.4375	45.7729	23.4375	44.8969	23.4375	45.6164	23.4375	44.9677	23.4375	45.4615	23.4375	45.0628	23.4375	45.314	23.4375	45.1795
24.9023	44.2521	24.9023	44.1583	24.9023	44.3452	24.9023	44.067	24.9023	44.4346	24.9023	43.9811	24.9023	44.5172	24.9023	43.9034	24.9023	44.5902	24.9023	43.8363	24.9023	44.6511	24.9023	43.7818	24.9023	44.6979	24.9023	43.7415	24.9023	44.7293	24.9023	43.7165	24.9023	44.7443	24.9023	43.7072	24.9023	44.7427	24.9023	43.7138	24.9023	44.7252	24.9023	43.7356	24.9023	44.6925	24.9023	43.7718	24.9023	44.6463	24.9023	43.8208	24.9023	44.5882	24.9023	43.8811	24.9023	44.5205	24.9023	43.9506	24.9023	44.445	24.9023	44.0274	24.9023	44.364	24.9023	44.1092	24.9023	44.2797	24.9023	44.194
26.3672	42.9304	26.3672	42.7945	26.3672	43.0351	26.3672	42.6305	26.3672	43.1054	26.3672	42.4419	26.3672	43.1385	26.3672	42.2323	26.3672	43.132	26.3672	42.0056	26.3672	43.0843	26.3672	41.766	26.3672	42.9941	26.3672	41.5182	26.3672	42.8616	26.3672	41.2675	26.3672	42.688	26.3672	41.0197	26.3672	42.4761	26.3672	40.7817	26.3672	42.2305	26.3672	40.5609	26.3672	41.9576	26.3672	40.3656	26.3672	41.6658	26.3672	40.2043	26.3672	41.3654	26.3672	40.0854	26.3672	41.0681	26.3672	40.0165	26.3672	40.7866	26.3672	40.0038	26.3672	40.5334	26.3672	40.0506	26.3672	40.3205	26.3672	40.1573
27.832	43.2812	27.832	43.1445	27.832	43.3822	27.832	42.9757	27.832	43.4441	27.832	42.7785	27.832	43.464	27.832	42.5571	27.832	43.4393	27.832	42.3155	27.832	43.3684	27.832	42.0586	27.832	43.2504	27.832	41.7914	27.832	43.0858	27.832	41.5194	27.832	42.8764	27.832	41.249	27.832	42.6263	27.832	40.9871	27.832	42.3414	27.832	40.7413	27.832	42.03	27.832	40.5197	27.832	41.7029	27.832	40.331	27.832	41.3726	27.832	40.1837	27.832	41.053	27.832	40.086	27.832	40.7586	27.832	40.0447	27.832	40.5027	27.832	40.065	27.832	40.2968	27.832	40.1494
29.2969	43.7358	29.2969	43.5876	29.2969	43.8373	29.2969	43.3962	29.2969	43.8889	29.2969	43.165	29.2969	43.8876	29.2969	42.8979	29.2969	43.8309	29.2969	42.599	29.2969	43.7169	29.2969	42.2727	29.2969	43.5445	29.2969	41.9244	29.2969	43.3139	29.2969	41.5603	29.2969	43.0273	29.2969	41.1877	29.2969	42.6887	29.2969	40.8157	29.2969	42.3048	29.2969	40.4548	29.2969	41.8855	29.2969	40.1175	29.2969	41.4441	29.2969	39.8175	29.2969	40.9969	29.2969	39.5698	29.2969	40.5632	29.2969	39.3892	29.2969	40.164	29.2969	39.2892	29.2969	39.8201	29.2969	39.2802	29.2969	39.5499	29.2969	39.3674
30.7617	44.4882	30.7617	44.3374	30.7617	44.587	30.7617	44.1383	30.7617	44.6304	30.7617	43.8946	30.7617	44.6154	30.7617	43.6104	30.7617	44.5391	30.7617	43.2903	30.7617	44.3998	30.7617	42.9392	30.7617	44.1965	30.7617	42.5631	30.7617	43.9298	30.7617	42.169	30.7617	43.6023	30.7617	41.7651	30.7617	43.2191	30.7617	41.3614	30.7617	42.7885	30.7617	40.9692	30.7617	42.3227	30.7617	40.6017	30.7617	41.8376	30.7617	40.273	30.7617	41.3528	30.7617	39.9978	30.7617	40.8907	30.7617	39.7906	30.7617	40.4746	30.7617	39.6647	30.7617	40.1262	30.7617	39.6309	30.7617	39.8629	30.7617	39.6963
32.2266	44.2417	32.2266	44.0678	32.2266	44.3443	32.2266	43.8259	32.2266	44.3721	32.2266	43.5191	32.2266	44.3216	32.2266	43.1506	32.2266	44.1894	32.2266	42.7236	32.2266	43.9722	32.2266	42.2422	32.2266	43.6677	32.2266	41.7113	32.2266	43.2745	32.2266	41.1377	32.2266	42.7936	32.2266	40.5305	32.2266	42.2286	32.2266	39.9023	32.2266	41.5876	32.2266	39.2696	32.2266	40.8842	32.2266	38.6535	32.2266	40.1396	32.2266	38.0792	32.2266	39.3831	32.2266	37.5752	32.2266	38.6527	32.2266	37.171	32.2266	37.9919	32.2266	36.895	32.2266	37.4441	32.2266	36.7719	32.2266	37.0458	32.2266	36.8196
33.6914	45.06	33.6914	44.8764	33.6914	45.1611	33.6914	44.6131	33.6914	45.1762	33.6914	44.2725	33.6914	45.1016	33.6914	43.8565	33.6914	44.9331	33.6914	43.367	33.6914	44.6664	33.6914	42.8061	33.6914	44.2976	33.6914	42.1766	33.6914	43.8233	33.6914	41.483	33.6914	43.2419	33.6914	40.7328	33.6914	42.5545	33.6914	39.9375	33.6914	41.7661	33.6914	39.115	33.6914	40.8887	33.6914	38.2906	33.6914	39.9432	33.6914	37.4986	33.6914	38.9638	33.6914	36.7808	33.6914	37.9993	33.6914	36.1841	33.6914	37.1128	33.6914	35.7554	33.6914	36.3736	33.6914	35.537	33.6914	35.8434	33.6914	35.5612
35.1562	44.9779	35.1562	44.7702	35.1562	45.0797	35.1562	44.4582	35.1562	45.072	35.1562	44.0425	35.1562	44.9501	35.1562	43.5216	35.1562	44.7077	35.1562	42.8932	35.1562	44.3372	35.1562	42.1532	35.1562	43.8297	35.1562	41.2971	35.1562	43.1752	35.1562	40.3205	35.1562	42.3631	35.1562	39.2212	35.1562	41.3829	35.1562	38.0026	35.1562	40.2257	35.1562	36.6797	35.1562	38.8882	35.1562	35.2887	35.1562	37.3797	35.1562	33.8976	35.1562	35.7367	35.1562	32.6084	35.1562	34.0462	35.1562	31.5358	35.1562	32.4686	35.1562	30.76	35.1562	31.2172	35.1562	30.3041	35.1562	30.4525	35.1562	30.1796
36.6211	45.8556	36.6211	45.6358	36.6211	45.9552	36.6211	45.2968	36.6211	45.9317	36.6211	44.8369	36.6211	45.7793	36.6211	44.2513	36.6211	45.4902	36.6211	43.5325	36.6211	45.0538	36.6211	42.6689	36.6211	44.4567	36.6211	41.6444	36.6211	43.6819	36.6211	40.4374	36.6211	42.7082	36.6211	39.0193	36.6211	41.5082	36.6211	37.3531	36.6211	40.0466	36.6211	35.3928	36.6211	38.2765	36.6211	33.089	36.6211	36.1343	36.6211	30.4148	36.6211	33.5354	36.6211	27.4644	36.6211	30.3815	36.6211	24.6918	36.6211	26.6562	36.6211	22.8932	36.6211	22.9461	36.6211	22.0911	36.6211	21.1564	36.6211	21.4687
38.0859	46.7121	38.0859	46.4647	38.0859	46.8193	38.0859	46.08	38.0859	46.7829	38.0859	45.5618	38.0859	46.5996	38.0859	44.9174	38.0859	46.267	38.0859	44.1633	38.0859	45.7875	38.0859	43.3359	38.0859	45.1742	38.0859	42.5084	38.0859	44.4631	38.0859	41.8059	38.0859	43.7301	38.0859	41.3917	38.0859	43.1045	38.0859	41.3909	38.0859	42.7484	38.0859	41.7949	38.0859	42.7712	38.0859	42.4656	38.0859	43.1428	38.0859	43.2338	38.0859	43.7163	38.0859	43.9715	38.0859	44.3294	38.0859	44.6024	38.0859	44.8669	38.0859	45.086	38.0859	45.2645	38.0859	45.4013	38.0859	45.492	38.0859	45.5381
39.5508	47.9012	39.5508	47.6723	39.5508	47.9968	39.5508	47.316	39.5508	47.9554	39.5508	46.8422	39.5508	47.7756	39.5508	46.2687	39.5508	47.4605	39.5508	45.6287	39.5508	47.0225	39.5508	44.9808	39.5508	46.4922	39.5508	44.4188	39.5508	45.9303	39.5508	44.0636	39.5508	45.4384	39.5508	44.0206	39.5508	45.1472	39.5508	44.3167	39.5508	45.1629	39.5508	44.8791	39.5508	45.4955	39.5508	45.5834	39.5508	46.0492	39.5508	46.3138	39.5508	46.6874	39.5508	46.9885	39.5508	47.2955	39.5508	47.5579	39.5508	47.8005	39.5508	47.9935	39.5508	48.1636	39.5508	48.2791	39.5508	48.3671	39.5508	48.4053
41.0156	49.3347	41.0156	49.1344	41.0156	49.4168	41.0156	48.8246	41.0156	49.3765	41.0156	48.421	41.0156	49.2151	41.0156	47.9502	41.0156	48.9418	41.0156	47.4556	41.0156	48.579	41.0156	47.003	41.0156	48.1703	41.0156	46.6789	41.0156	47.7885	41.0156	46.5705	41.0156	47.5321	41.0156	46.7279	41.0156	47.498	41.0156	47.1351	41.0156	47.7307	41.0156	47.7186	41.0156	48.1922	41.0156	48.3851	41.0156	48.7853	41.0156	49.0528	41.0156	49.4044	41.0156	49.6631	41.0156	49.9685	41.0156	50.1781	41.0156	50.4264	41.0156	50.5744	41.0156	50.7507	41.0156	50.8371	41.0156	50.9288	41.0156	50.957
42.4805	50.9301	42.4805	50.763	42.4805	50.9999	42.4805	50.5096	42.4805	50.9683	42.4805	50.1897	42.4805	50.8396	42.4805	49.8348	42.4805	50.6282	42.4805	49.4911	42.4805	50.3636	42.4805	49.2193	42.4805	50.0957	42.4805	49.0863	42.4805	49.8945	42.4805	49.1451	42.4805	49.8381	42.4805	49.4121	42.4805	49.9833	42.4805	49.8583	42.4805	50.3349	42.4805	50.423	42.4805	50.8415	42.4805	51.0377	42.4805	51.422	42.4805	51.6428	42.4805	51.9977	42.4805	52.194	42.4805	52.5094	42.4805	52.6605	42.4805	52.9193	42.4805	53.0219	42.4805	53.2062	42.4805	53.2645	42.4805	53.3604	42.4805	53.3792
43.9453	52.5723	43.9453	52.4329	43.9453	52.6322	43.9453	52.2258	43.9453	52.6091	43.9453	51.9722	43.9453	52.5088	43.9453	51.7041	43.9453	52.3485	43.9453	51.4651	43.9453	52.1602	43.9453	51.3071	43.9453	51.9926	43.9453	51.281	43.9453	51.9076	43.9453	51.4208	43.9453	51.9647	43.9453	51.7296	43.9453	52.1973	43.9453	52.1779	43.9453	52.5945	43.9453	52.7159	43.9453	53.1058	43.9453	53.2888	43.9453	53.663	43.9453	53.8487	43.9453	54.2025	43.9453	54.3584	43.9453	54.6763	43.9453	54.7913	43.9453	55.0532	43.9453	55.1284	43.9453	55.3153	43.9453	55.3566	43.9453	55.4539	43.9453	55.467
45.4102	54.7087	45.4102	54.5989	45.4102	54.7617	45.4102	54.443	45.4102	54.7554	45.4102	54.2599	45.4102	54.6962	45.4102	54.0768	45.4102	54.6006	45.4102	53.9281	45.4102	54.4971	45.4102	53.8519	45.4102	54.4251	45.4102	53.8825	45.4102	54.4295	45.4102	54.0406	45.4102	54.5486	45.4102	54.3262	45.4102	54.7996	45.4102	54.7183	45.4102	55.1693	45.4102	55.1813	45.4102	55.6192	45.4102	55.675	45.4102	56.0988	45.4102	56.1616	45.4102	56.5598	45.4102	56.6098	45.4102	56.9638	45.4102	56.9953	45.4102	57.2842	45.4102	57.3	45.4102	57.5046	45.4102	57.5106	45.4102	57.6167	45.4102	57.618
46.875	56.5975	46.875	56.5069	46.875	56.6456	46.875	56.3833	46.875	56.6496	46.875	56.2433	46.875	56.6156	46.875	56.1103	46.875	56.5594	46.875	56.0126	46.875	56.5058	46.875	55.9803	46.875	56.4878	46.875	56.0389	46.875	56.5401	46.875	56.2034	46.875	56.6903	46.875	56.4727	46.875	56.9477	46.875	56.8303	46.875	57.299	46.875	57.2479	46.875	57.7118	46.875	57.6931	46.875	58.1449	46.875	58.134	46.875	58.5581	46.875	58.5431	46.875	58.9187	46.875	58.8979	46.875	59.2033	46.875	59.1813	46.875	59.397	46.875	59.3803	46.875	59.4919	46.875	59.4857
48.3398	58.5148	48.3398	58.4342	48.3398	58.5627	48.3398	58.3288	48.3398	58.5764	48.3398	58.2126	48.3398	58.5618	48.3398	58.1051	48.3398	58.5325	48.3398	58.0297	48.3398	58.5095	48.3398	58.0106	48.3398	58.5193	48.3398	58.0686	48.3398	58.5892	48.3398	58.2158	48.3398	58.7398	48.3398	58.4526	48.3398	58.9775	48.3398	58.7665	48.3398	59.2913	48.3398	59.1354	48.3398	59.6551	48.3398	59.5324	48.3398	60.035	48.3398	59.9299	48.3398	60.3974	48.3398	60.3029	48.3398	60.7134	48.3398	60.6303	48.3398	60.9616	48.3398	60.8952	48.3398	61.1281	48.3398	61.0849	48.3398	61.205	48.3398	61.19
51.2695	62.015	51.2695	61.9521	51.2695	62.0614	51.2695	61.878	51.2695	62.0906	51.2695	61.8028	51.2695	62.1072	51.2695	61.7397	51.2695	62.1211	51.2695	61.7044	51.2695	62.1467	51.2695	61.7125	51.2695	62.2009	51.2695	61.7771	51.2695	62.2999	51.2695	61.9061	51.2695	62.4549	51.2695	62.0999	51.2695	62.6676	51.2695	62.3513	51.2695	62.9292	51.2695	62.6462	51.2695	63.2216	51.2695	62.966	51.2695	63.5214	51.2695	63.2907	51.2695	63.8042	51.2695	63.6006	51.2695	64.0486	51.2695	63.8779	51.2695	64.2375	51.2695	64.1076	51.2695	64.3592	51.2695	64.2777	51.2695	64.4072	51.2695	64.3794
52.7344	63.5338	52.7344	63.4755	52.7344	63.5802	52.7344	63.4101	52.7344	63.6143	52.7344	63.3459	52.7344	63.6402	52.7344	63.2943	52.7344	63.6664	52.7344	63.2682	52.7344	63.7048	52.7344	63.2808	52.7344	63.7694	52.7344	63.3432	52.7344	63.8732	52.7344	63.462	52.7344	64.0245	52.7344	63.638	52.7344	64.2243	52.7344	63.8654	52.7344	64.4646	52.7344	64.1326	52.7344	64.7298	52.7344	64.4238	52.7344	64.9996	52.7344	64.7214	52.7344	65.2528	52.7344	65.0075	52.7344	65.4703	52.7344	65.2659	52.7344	65.6367	52.7344	65.4822	52.7344	65.7414	52.7344	65.6449	52.7344	65.7782	52.7344	65.7454
54.1992	64.9352	54.1992	64.881	54.1992	64.9816	54.1992	64.8228	54.1992	65.0199	54.1992	64.7677	54.1992	65.0536	54.1992	64.7251	54.1992	65.0898	54.1992	64.7059	54.1992	65.1383	54.1992	64.721	54.1992	65.2104	54.1992	64.7794	54.1992	65.3161	54.1992	64.8871	54.1992	65.4618	54.1992	65.045	54.1992	65.6475	54.1992	65.2485	54.1992	65.8661	54.1992	65.4882	54.1992	66.1042	54.1992	65.7509	54.1992	66.3444	54.1992	66.0214	54.1992	66.5683	54.1992	66.2836	54.1992	66.7591	54.1992	66.5226	54.1992	66.9032	54.1992	66.7251	54.1992	66.9909	54.1992	66.8801	54.1992	67.0167	54.1992	66.979
55.6641	66.2298	55.6641	66.1787	55.6641	66.2763	55.6641	66.1263	55.6641	66.318	55.6641	66.0783	55.6641	66.3579	55.6641	66.0425	55.6641	66.4019	55.6641	66.028	55.6641	66.4579	55.6641	66.0438	55.6641	66.5348	55.6641	66.0976	55.6641	66.6406	55.6641	66.1943	55.6641	66.7797	55.6641	66.335	55.6641	66.9516	55.6641	66.5164	55.6641	67.1498	55.6641	66.7309	55.6641	67.3628	55.6641	66.9672	55.6641	67.5757	55.6641	67.2123	55.6641	67.7726	55.6641	67.4521	55.6641	67.9387	55.6641	67.6728	55.6641	68.0619	55.6641	67.8622	55.6641	68.1337	55.6641	68.0096	55.6641	68.1491	55.6641	68.107
58.5938	68.4027	58.5938	68.3569	58.5938	68.4479	58.5938	68.3124	58.5938	68.4924	58.5938	68.2733	58.5938	68.5383	58.5938	68.245	58.5938	68.5898	58.5938	68.2338	58.5938	68.6521	58.5938	68.2461	58.5938	68.7309	58.5938	68.2877	58.5938	68.8311	58.5938	68.3624	58.5938	68.9549	58.5938	68.4716	58.5938	69.1009	58.5938	68.6137	58.5938	69.2638	58.5938	68.7839	58.5938	69.4346	58.5938	68.9743	58.5938	69.6019	58.5938	69.1754	58.5938	69.7536	58.5938	69.3758	58.5938	69.8781	58.5938	69.5645	58.5938	69.9661	58.5938	69.7305	58.5938	70.0108	58.5938	69.8645	58.5938	70.0086	58.5938	69.959
60.0586	69.2946	60.0586	69.2495	60.0586	69.3405	60.0586	69.2069	60.0586	69.3873	60.0586	69.1699	60.0586	69.4368	60.0586	69.1433	60.0586	69.4925	60.0586	69.1323	60.0586	69.5586	60.0586	69.1424	60.0586	69.6397	60.0586	69.1786	60.0586	69.7394	60.0586	69.2446	60.0586	69.8588	60.0586	69.3417	60.0586	69.9962	60.0586	69.4691	60.0586	70.1466	60.0586	69.6227	60.0586	70.3016	60.0586	69.7962	60.0586	70.4512	60.0586	69.9812	60.0586	70.5846	60.0586	70.1676	60.0586	70.6917	60.0586	70.3451	60.0586	70.7641	60.0586	70.5038	60.0586	70.796	60.0586	70.6345	60.0586	70.7846	60.0586	70.7299
62.9883	70.9562	62.9883	70.9062	62.9883	71.0095	62.9883	70.861	62.9883	71.0662	62.9883	70.8227	62.9883	71.1273	62.9883	70.7948	62.9883	71.1949	62.9883	70.7811	62.9883	71.2714	62.9883	70.7858	62.9883	71.3591	62.9883	70.8128	62.9883	71.4594	62.9883	70.8649	62.9883	71.5719	62.9883	70.9436	62.9883	71.6944	62.9883	71.0487	62.9883	71.8221	62.9883	71.1776	62.9883	71.9483	62.9883	71.3257	62.9883	72.0651	62.9883	71.4864	62.9883	72.1642	62.9883	71.6519	62.9883	72.2379	62.9883	71.8134	62.9883	72.2802	62.9883	71.9621	62.9883	72.287	62.9883	72.0899	62.9883	72.2566	62.9883	72.1898
64.4531	71.7556	64.4531	71.7033	64.4531	71.812	64.4531	71.6563	64.4531	71.8725	64.4531	71.6166	64.4531	71.9376	64.4531	71.5872	64.4531	72.0088	64.4531	71.5714	64.4531	72.0876	64.4531	71.5726	64.4531	72.1757	64.4531	71.5945	64.4531	72.2735	64.4531	71.6394	64.4531	72.3804	64.4531	71.709	64.4531	72.4938	64.4531	71.8031	64.4531	72.6093	64.4531	71.9198	64.4531	72.721	64.4531	72.0552	64.4531	72.8218	64.4531	72.2036	64.4531	72.9047	64.4531	72.358	64.4531	72.9632	64.4531	72.5106	64.4531	72.992	64.4531	72.6532	64.4531	72.9879	64.4531	72.7781	64.4531	72.9497	64.4531	72.8787
67.3828	72.9844	67.3828	72.9295	67.3828	73.0442	67.3828	72.8805	67.3828	73.1084	67.3828	72.8389	67.3828	73.1774	67.3828	72.8071	67.3828	73.2515	67.3828	72.7875	67.3828	73.3315	67.3828	72.7829	67.3828	73.4176	67.3828	72.796	67.3828	73.5094	67.3828	72.829	67.3828	73.6057	67.3828	72.8833	67.3828	73.7037	67.3828	72.9593	67.3828	73.7997	67.3828	73.0557	67.3828	73.8886	67.3828	73.1699	67.3828	73.965	67.3828	73.2976	67.3828	74.0232	67.3828	73.4333	67.3828	74.0585	67.3828	73.5703	67.3828	74.067	67.3828	73.7017	67.3828	74.0468	67.3828	73.8207	67.3828	73.9975	67.3828	73.921
68.8477	73.4295	68.8477	73.3741	68.8477	73.4904	68.8477	73.325	68.8477	73.5563	68.8477	73.2838	68.8477	73.6271	68.8477	73.2522	68.8477	73.703	68.8477	73.2324	68.8477	73.7842	68.8477	73.227	68.8477	73.8704	68.8477	73.2381	68.8477	73.961	68.8477	73.2678	68.8477	74.0542	68.8477	73.3173	68.8477	74.1474	68.8477	73.3872	68.8477	74.2367	68.8477	73.4764	68.8477	74.3176	68.8477	73.5827	68.8477	74.385	68.8477	73.7023	68.8477	74.4341	68.8477	73.8304	68.8477	74.4607	68.8477	73.961	68.8477	74.4616	68.8477	74.0876	68.8477	74.4353	68.8477	74.2038	68.8477	74.382	68.8477	74.3036
71.7773	74.0063	71.7773	73.949	71.7773	74.0698	71.7773	73.8986	71.7773	74.1387	71.7773	73.8562	71.7773	74.2126	71.7773	73.8234	71.7773	74.2911	71.7773	73.8016	71.7773	74.3735	71.7773	73.7928	71.7773	74.4589	71.7773	73.7986	71.7773	74.5458	71.7773	73.8207	71.7773	74.632	71.7773	73.8603	71.7773	74.7148	71.7773	73.9179	71.7773	74.7905	71.7773	73.993	71.7773	74.8554	71.7773	74.0843	71.7773	74.9054	71.7773	74.1889	71.7773	74.9367	71.7773	74.303	71.7773	74.9463	71.7773	74.4217	71.7773	74.9322	71.7773	74.5396	71.7773	74.894	71.7773	74.651	71.7773	74.8325	71.7773	74.7503
74.707	74.18	74.707	74.121	74.707	74.2454	74.707	74.0693	74.707	74.3166	74.707	74.0259	74.707	74.3926	74.707	73.9917	74.707	74.4725	74.707	73.968	74.707	74.5552	74.707	73.9561	74.707	74.639	74.707	73.9574	74.707	74.722	74.707	73.9731	74.707	74.8018	74.707	74.0045	74.707	74.8754	74.707	74.0519	74.707	74.9396	74.707	74.1154	74.707	74.9911	74.707	74.1941	74.707	75.0265	74.707	74.2859	74.707	75.043	74.707	74.3881	74.707	75.0387	74.707	74.4966	74.707	75.0125	74.707	74.6067	74.707	74.9646	74.707	74.7135	74.707	74.8968	74.707	74.8117
77.6367	74.1793	77.6367	74.1184	77.6367	74.2469	77.6367	74.0648	77.6367	74.32	77.6367	74.0194	77.6367	74.3976	77.6367	73.9831	77.6367	74.4784	77.6367	73.9567	77.6367	74.5606	77.6367	73.9413	77.6367	74.6424	77.6367	73.9378	77.6367	74.7213	77.6367	73.9474	77.6367	74.7946	77.6367	73.971	77.6367	74.8596	77.6367	74.0093	77.6367	74.9131	77.6367	74.0624	77.6367	74.9523	77.6367	74.1301	77.6367	74.9746	77.6367	74.2109	77.6367	74.9779	77.6367	74.3026	77.6367	74.9611	77.6367	74.4022	77.6367	74.9239	77.6367	74.5057	77.6367	74.8675	77.6367	74.6086	77.6367	74.7938	77.6367	74.7062
79.1016	74.6705	79.1016	74.6101	79.1016	74.7383	79.1016	74.558	79.1016	74.8125	79.1016	74.515	79.1016	74.8918	79.1016	74.4818	79.1016	74.9749	79.1016	74.4594	79.1016	75.06	79.1016	74.4486	79.1016	75.145	79.1016	74.4503	79.1016	75.2277	79.1016	74.4655	79.1016	75.3054	79.1016	74.4949	79.1016	75.3752	79.1016	74.5389	79.1016	75.4341	79.1016	74.5977	79.1016	75.4789	79.1016	74.6707	79.1016	75.507	79.1016	74.7563	79.1016	75.5161	79.1016	74.8521	79.1016	75.5047	79.1016	74.955	79.1016	75.4722	79.1016	75.0608	79.1016	75.4195	79.1016	75.1648	79.1016	75.3485	79.1016	75.2623
82.0312	74.4977	82.0312	74.4365	82.0312	74.5667	82.0312	74.3839	82.0312	74.6425	82.0312	74.3407	82.0312	74.7234	82.0312	74.3074	82.0312	74.8078	82.0312	74.2846	82.0312	74.8936	82.0312	74.2728	82.0312	74.9782	82.0312	74.2727	82.0312	75.059	82.0312	74.2848	82.0312	75.1332	82.0312	74.3098	82.0312	75.1977	82.0312	74.3481	82.0312	75.2495	82.0312	74.4	82.0312	75.2861	82.0312	74.4651	82.0312	75.305	82.0312	74.5425	82.0312	75.3047	82.0312	74.6304	82.0312	75.2843	82.0312	74.7261	82.0312	75.2441	82.0312	74.8263	82.0312	75.1853	82.0312	74.9267	82.0312	75.1105	82.0312	75.0229
84.9609	74.4352	84.9609	74.372	84.9609	74.5062	84.9609	74.3174	84.9609	74.5837	84.9609	74.2721	84.9609	74.6659	84.9609	74.2365	84.9609	74.7508	84.9609	74.211	84.9609	74.8358	84.9609	74.1959	84.9609	74.9183	84.9609	74.1915	84.9609	74.9953	84.9609	74.1983	84.9609	75.0636	84.9609	74.2169	84.9609	75.1204	84.9609	74.2476	84.9609	75.1629	84.9609	74.2909	84.9609	75.1888	84.9609	74.3469	84.9609	75.1964	84.9609	74.415	84.9609	75.1846	84.9609	74.4941	84.9609	75.1535	84.9609	74.5821	84.9609	75.1039	84.9609	74.6764	84.9609	75.0378	84.9609	74.7732	84.9609	74.9582	84.9609	74.8686
87.8906	74.4214	87.8906	74.3564	87.8906	74.4933	87.8906	74.2995	87.8906	74.5709	87.8906	74.2513	87.8906	74.6522	87.8906	74.2122	87.8906	74.735	87.8906	74.1823	87.8906	74.8164	87.8906	74.1619	87.8906	74.8936	87.8906	74.1513	87.8906	74.9636	87.8906	74.1508	87.8906	75.0232	87.8906	74.1609	87.8906	75.0698	87.8906	74.1822	87.8906	75.1008	87.8906	74.2152	87.8906	75.1144	87.8906	74.2605	87.8906	75.1095	87.8906	74.3178	87.8906	75.0857	87.8906	74.3867	87.8906	75.0437	87.8906	74.4657	87.8906	74.985	87.8906	74.5528	87.8906	74.9122	87.8906	74.6448	87.8906	74.8286	87.8906	74.7381
90.8203	74.4199	90.8203	74.353	90.8203	74.4934	90.8203	74.2937	90.8203	74.5718	90.8203	74.2427	90.8203	74.6531	90.8203	74.2003	90.8203	74.7347	90.8203	74.1667	90.8203	74.8138	90.8203	74.1419	90.8203	74.8872	90.8203	74.1262	90.8203	74.9519	90.8203	74.1197	90.8203	75.0047	90.8203	74.123	90.8203	75.043	90.8203	74.1367	90.8203	75.0646	90.8203	74.1615	90.8203	75.068	90.8203	74.198	90.8203	75.0526	90.8203	74.2467	90.8203	75.0185	90.8203	74.3075	90.8203	74.967	90.8203	74.3795	90.8203	74.9003	90.8203	74.461	90.8203	74.8213	90.8203	74.5496	90.8203	74.7338	90.8203	74.6418
95.2148	74.3977	95.2148	74.3285	95.2148	74.4735	95.2148	74.2669	95.2148	74.554	95.2148	74.2137	95.2148	74.6368	95.2148	74.1693	95.2148	74.7192	95.2148	74.1335	95.2148	74.798	95.2148	74.1064	95.2148	74.8697	95.2148	74.0878	95.2148	74.9311	95.2148	74.0778	95.2148	74.979	95.2148	74.0768	95.2148	75.0107	95.2148	74.0852	95.2148	75.0244	95.2148	74.1038	95.2148	75.0188	95.2148	74.1335	95.2148	74.9938	95.2148	74.1749	95.2148	74.9501	95.2148	74.2285	95.2148	74.8896	95.2148	74.2939	95.2148	74.8152	95.2148	74.3701	95.2148	74.7303	95.2148	74.4552	95.2148	74.6392	95.2148	74.5461
98.1445	74.4551	98.1445	74.3845	98.1445	74.5318	98.1445	74.3212	98.1445	74.6127	98.1445	74.2661	98.1445	74.6954	98.1445	74.2194	98.1445	74.7768	98.1445	74.1811	98.1445	74.8537	98.1445	74.151	98.1445	74.9226	98.1445	74.129	98.1445	74.98	98.1445	74.115	98.1445	75.0229	98.1445	74.1093	98.1445	75.0487	98.1445	74.1125	98.1445	75.0557	98.1445	74.1254	98.1445	75.0429	98.1445	74.1491	98.1445	75.0105	98.1445	74.1844	98.1445	74.9596	98.1445	74.2321	98.1445	74.8926	98.1445	74.2923	98.1445	74.8126	98.1445	74.3643	98.1445	74.7236	98.1445	74.4465	98.1445	74.63	98.1445	74.5363
101.074	74.4952	101.074	74.4246	101.074	74.5724	101.074	74.3619	101.074	74.6543	101.074	74.3079	101.074	74.7382	101.074	74.2628	101.074	74.821	101.074	74.2264	101.074	74.8991	101.074	74.1984	101.074	74.969	101.074	74.1784	101.074	75.0272	101.074	74.1663	101.074	75.0703	101.074	74.162	101.074	75.0959	101.074	74.1661	101.074	75.1022	101.074	74.1792	101.074	75.0883	101.074	74.2023	101.074	75.0546	101.074	74.2364	101.074	75.0024	101.074	74.2823	101.074	74.9342	101.074	74.3404	101.074	74.8535	101.074	74.4102	101.074	74.7643	101.074	74.4903	101.074	74.6711	101.074	74.5784
105.469	74.711	105.469	74.6378	105.469	74.7902	105.469	74.5723	105.469	74.8734	105.469	74.5153	105.469	74.9577	105.469	74.4671	105.469	75.0397	105.469	74.4275	105.469	75.1158	105.469	74.3961	105.469	75.1823	105.469	74.3724	105.469	75.2356	105.469	74.3562	105.469	75.2725	105.469	74.3474	105.469	75.2906	105.469	74.3463	105.469	75.2885	105.469	74.3537	105.469	75.2657	105.469	74.3706	105.469	75.2229	105.469	74.3982	105.469	75.162	105.469	74.4376	105.469	75.0861	105.469	74.4896	105.469	74.999	105.469	74.5543	105.469	74.9053	105.469	74.6307	105.469	74.8097	105.469	74.7168
108.398	74.8969	108.398	74.8227	108.398	74.9769	108.398	74.7558	108.398	75.0603	108.398	74.6973	108.398	75.1443	108.398	74.6473	108.398	75.2252	108.398	74.6059	108.398	75.2995	108.398	74.5726	108.398	75.3633	108.398	74.5468	108.398	75.4131	108.398	74.5282	108.398	75.4459	108.398	74.5168	108.398	75.4593	108.398	74.5126	108.398	75.452	108.398	74.5166	108.398	75.4238	108.398	74.5297	108.398	75.3758	108.398	74.5533	108.398	75.3101	108.398	74.5887	108.398	75.23	108.398	74.6367	108.398	75.1398	108.398	74.6979	108.398	75.0442	108.398	74.7715	108.398	74.948	108.398	74.8558
112.793	75.2776	112.793	75.2018	112.793	75.3585	112.793	75.1328	112.793	75.442	112.793	75.0718	112.793	75.5248	112.793	75.0191	112.793	75.6035	112.793	74.9747	112.793	75.6742	112.793	74.9381	112.793	75.7332	112.793	74.9088	112.793	75.7769	112.793	74.8863	112.793	75.8025	112.793	74.8705	112.793	75.8079	112.793	74.8614	112.793	75.792	112.793	74.8599	112.793	75.7552	112.793	74.8669	112.793	75.6988	112.793	74.884	112.793	75.6256	112.793	74.9127	112.793	75.5393	112.793	74.9542	112.793	75.4445	112.793	75.0093	112.793	75.3462	112.793	75.078	112.793	75.2495	112.793	75.1589
117.188	75.6687	117.188	75.5898	117.188	75.7518	117.188	75.5172	117.188	75.8365	117.188	75.4522	117.188	75.9194	117.188	75.3952	117.188	75.997	117.188	75.3464	117.188	76.0654	117.188	75.3053	117.188	76.1207	117.188	75.2715	117.188	76.1595	117.188	75.2445	117.188	76.1791	117.188	75.2241	117.188	76.1777	117.188	75.2104	117.188	76.1543	117.188	75.2042	117.188	76.1097	117.188	75.2065	117.188	76.0455	117.188	75.219	117.188	75.9649	117.188	75.2432	117.188	75.872	117.188	75.2808	117.188	75.7718	117.188	75.3327	117.188	75.6696	117.188	75.3992	117.188	75.5706	117.188	75.4793
120.117	76.0601	120.117	75.9798	120.117	76.1439	120.117	75.9049	120.117	76.2283	120.117	75.837	120.117	76.3099	120.117	75.7767	120.117	76.3851	120.117	75.724	120.117	76.4499	120.117	75.6788	120.117	76.5005	120.117	75.6405	120.117	76.5336	120.117	75.6087	120.117	76.5467	120.117	75.5833	120.117	76.538	120.117	75.5643	120.117	76.507	120.117	75.5527	120.117	76.4547	120.117	75.5495	120.117	76.3831	120.117	75.5565	120.117	76.2958	120.117	75.5754	120.117	76.1973	120.117	75.608	120.117	76.0928	120.117	75.6557	120.117	75.9878	120.117	75.7189	120.117	75.8877	120.117	75.7969
124.512	76.4677	124.512	76.3866	124.512	76.5524	124.512	76.3112	124.512	76.6376	124.512	76.2432	124.512	76.7197	124.512	76.1831	124.512	76.7948	124.512	76.131	124.512	76.8588	124.512	76.0865	124.512	76.9079	124.512	76.049	124.512	76.9387	124.512	76.0179	124.512	76.9486	124.512	75.9926	124.512	76.9361	124.512	75.9732	124.512	76.901	124.512	75.9603	124.512	76.8443	124.512	75.9551	124.512	76.7687	124.512	75.959	124.512	76.6779	124.512	75.9742	124.512	76.5768	124.512	76.0026	124.512	76.4709	124.512	76.0458	124.512	76.3659	124.512	76.1047	124.512	76.2672	124.512	76.1791
128.906	76.8436	128.906	76.7601	128.906	76.9304	128.906	76.6823	128.906	77.0171	128.906	76.6119	128.906	77.1001	128.906	76.5499	128.906	77.1751	128.906	76.4963	128.906	77.2382	128.906	76.4508	128.906	77.2853	128.906	76.4128	128.906	77.3133	128.906	76.3814	128.906	77.3197	128.906	76.3561	128.906	77.3032	128.906	76.3367	128.906	77.2638	128.906	76.3236	128.906	77.2029	128.906	76.3177	128.906	77.1233	128.906	76.3205	128.906	77.0291	128.906	76.334	128.906	76.9256	128.906	76.3601	128.906	76.8183	128.906	76.4008	128.906	76.7132	128.906	76.4571	128.906	76.6153	128.906	76.529
133.301	77.1741	133.301	77.0883	133.301	77.2624	133.301	77.0077	133.301	77.3499	133.301	76.9341	133.301	77.4326	133.301	76.8686	133.301	77.5062	133.301	76.8115	133.301	77.5667	133.301	76.7623	133.301	77.61	133.301	76.7205	133.301	77.633	133.301	76.6853	133.301	77.6334	133.301	76.656	133.301	77.61	133.301	76.6325	133.301	77.5632	133.301	76.615	133.301	77.4946	133.301	76.6045	133.301	77.4076	133.301	76.6027	133.301	77.3067	133.301	76.6115	133.301	77.1973	133.301	76.6332	133.301	77.0857	133.301	76.6699	133.301	76.9777	133.301	76.723	133.301	76.8788	133.301	76.793
139.16	77.4137	139.16	77.3239	139.16	77.5066	139.16	77.2403	139.16	77.5989	139.16	77.165	139.16	77.6863	139.16	77.0991	139.16	77.7642	139.16	77.0431	139.16	77.8284	139.16	76.9965	139.16	77.8747	139.16	76.9585	139.16	77.8999	139.16	76.928	139.16	77.9017	139.16	76.9041	139.16	77.8791	139.16	76.8861	139.16	77.8326	139.16	76.874	139.16	77.764	139.16	76.8685	139.16	77.6768	139.16	76.8707	139.16	77.5759	139.16	76.8826	139.16	77.4668	139.16	76.9062	139.16	77.3557	139.16	76.9438	139.16	77.2486	139.16	76.9968	139.16	77.1508	139.16	77.0661
143.555	77.4997	143.555	77.413	143.555	77.5895	143.555	77.3322	143.555	77.679	143.555	77.2591	143.555	77.7641	143.555	77.1945	143.555	77.8403	143.555	77.1385	143.555	77.9032	143.555	77.0904	143.555	77.9487	143.555	77.0493	143.555	77.9734	143.555	77.0142	143.555	77.9747	143.555	76.9842	143.555	77.9513	143.555	76.9591	143.555	77.9033	143.555	76.9393	143.555	77.8325	143.555	76.9258	143.555	77.742	143.555	76.9207	143.555	77.6368	143.555	76.9262	143.555	77.5227	143.555	76.9451	143.555	77.4061	143.555	76.98	143.555	77.2937	143.555	77.0325	143.555	77.1913	143.555	77.1032
147.949	77.6463	147.949	77.5575	147.949	77.7374	147.949	77.4738	147.949	77.827	147.949	77.3972	147.949	77.9109	147.949	77.3291	147.949	77.9848	147.949	77.2695	147.949	78.0444	147.949	77.2182	147.949	78.0858	147.949	77.1743	147.949	78.1057	147.949	77.1369	147.949	78.1019	147.949	77.1052	147.949	78.0734	147.949	77.079	147.949	78.0207	147.949	77.0584	147.949	77.9458	147.949	77.0444	147.949	77.8523	147.949	77.0388	147.949	77.7449	147.949	77.0438	147.949	77.6299	147.949	77.0619	147.949	77.5134	147.949	77.0954	147.949	77.402	147.949	77.1462	147.949	77.3012	147.949	77.2151
153.809	77.7579	153.809	77.6684	153.809	77.8486	153.809	77.5834	153.809	77.9366	153.809	77.5051	153.809	78.0176	153.809	77.4349	153.809	78.0872	153.809	77.3731	153.809	78.1411	153.809	77.3196	153.809	78.1754	153.809	77.2735	153.809	78.1873	153.809	77.2338	153.809	78.1748	153.809	77.1997	153.809	78.1375	153.809	77.1707	153.809	78.0761	153.809	77.1468	153.809	77.9934	153.809	77.129	153.809	77.8935	153.809	77.1187	153.809	77.7816	153.809	77.1182	153.809	77.6642	153.809	77.1299	153.809	77.5479	153.809	77.1566	153.809	77.4389	153.809	77.2003	153.809	77.3425	153.809	77.2623
159.668	77.7749	159.668	77.6816	159.668	77.8693	159.668	77.5927	159.668	77.9604	159.668	77.5111	159.668	78.0436	159.668	77.4381	159.668	78.1142	159.668	77.3746	159.668	78.1676	159.668	77.32	159.668	78.2002	159.668	77.2737	159.668	78.2091	159.668	77.2344	159.668	78.1924	159.668	77.201	159.668	78.1499	159.668	77.1727	159.668	78.0831	159.668	77.1494	159.668	77.9948	159.668	77.1318	159.668	77.8896	159.668	77.1209	159.668	77.7734	159.668	77.1191	159.668	77.6529	159.668	77.1288	159.668	77.5349	159.668	77.1528	159.668	77.4258	159.668	77.1935	159.668	77.3306	159.668	77.2527
165.527	77.6546	165.527	77.5548	165.527	77.7543	165.527	77.4589	165.527	77.8494	165.527	77.3701	165.527	77.9351	165.527	77.2907	165.527	78.0067	165.527	77.2217	165.527	78.0601	165.527	77.1635	165.527	78.0918	165.527	77.1154	165.527	78.0991	165.527	77.0763	165.527	78.0808	165.527	77.0453	165.527	78.037	165.527	77.0212	165.527	77.9693	165.527	77.0035	165.527	77.8807	165.527	76.9922	165.527	77.7758	165.527	76.9882	165.527	77.6605	165.527	76.993	165.527	77.5413	165.527	77.0085	165.527	77.4246	165.527	77.0373	165.527	77.3164	165.527	77.0815	165.527	77.2215	165.527	77.1428
171.387	77.7437	171.387	77.6436	171.387	77.8415	171.387	77.5453	171.387	77.9323	171.387	77.4523	171.387	78.0113	171.387	77.3668	171.387	78.0737	171.387	77.2902	171.387	78.1155	171.387	77.2231	171.387	78.1333	171.387	77.1649	171.387	78.125	171.387	77.115	171.387	78.0899	171.387	77.0726	171.387	78.0288	171.387	77.0368	171.387	77.9441	171.387	77.0073	171.387	77.8399	171.387	76.9845	171.387	77.7216	171.387	76.9693	171.387	77.5959	171.387	76.9632	171.387	77.4697	171.387	76.9685	171.387	77.3497	171.387	76.9876	171.387	77.2417	171.387	77.0231	171.387	77.15	171.387	77.0769
177.246	77.5986	177.246	77.4957	177.246	77.6998	177.246	77.3958	177.246	77.7942	177.246	77.3027	177.246	77.8766	177.246	77.2192	177.246	77.9421	177.246	77.1468	177.246	77.9864	177.246	77.086	177.246	78.0063	177.246	77.0362	177.246	77.9997	177.246	76.9963	177.246	77.9662	177.246	76.9647	177.246	77.9068	177.246	76.9402	177.246	77.8243	177.246	76.9214	177.246	77.7232	177.246	76.9081	177.246	77.609	177.246	76.9005	177.246	77.4886	177.246	76.8996	177.246	77.3688	177.246	76.9073	177.246	77.2563	177.246	76.9259	177.246	77.1564	177.246	76.9582	177.246	77.0726	177.246	77.0066
183.105	77.613	183.105	77.5029	183.105	77.7198	183.105	77.3947	183.105	77.8179	183.105	77.2927	183.105	77.9017	183.105	77.2004	183.105	77.9663	183.105	77.1198	183.105	78.0074	183.105	77.0517	183.105	78.0221	183.105	76.9959	183.105	78.0085	183.105	76.9515	183.105	77.9667	183.105	76.917	183.105	77.8983	183.105	76.8908	183.105	77.8066	183.105	76.8717	183.105	77.6967	183.105	76.8587	183.105	77.5748	183.105	76.8519	183.105	77.4481	183.105	76.8519	183.105	77.3239	183.105	76.8601	183.105	77.2087	183.105	76.8788	183.105	77.1076	183.105	76.9107	183.105	77.0238	183.105	76.9584
188.965	77.6406	188.965	77.5253	188.965	77.7514	188.965	77.4111	188.965	77.852	188.965	77.3029	188.965	77.9366	188.965	77.2046	188.965	78.0003	188.965	77.1187	188.965	78.039	188.965	77.0465	188.965	78.0497	188.965	76.9881	188.965	78.0313	188.965	76.9425	188.965	77.9839	188.965	76.9082	188.965	77.9098	188.965	76.8834	188.965	77.8127	188.965	76.8665	188.965	77.6981	188.965	76.8562	188.965	77.5728	188.965	76.852	188.965	77.4442	188.965	76.8542	188.965	77.3194	188.965	76.8639	188.965	77.205	188.965	76.8831	188.965	77.1056	188.965	76.9144	188.965	77.0239	188.965	76.9606
196.289	77.5251	196.289	77.4061	196.289	77.6389	196.289	77.2881	196.289	77.7414	196.289	77.1764	196.289	77.8268	196.289	77.0754	196.289	77.8899	196.289	76.9883	196.289	77.9268	196.289	76.9167	196.289	77.9349	196.289	76.8608	196.289	77.9134	196.289	76.8197	196.289	77.8629	196.289	76.7915	196.289	77.7862	196.289	76.7741	196.289	77.6878	196.289	76.7653	196.289	77.5735	196.289	76.7631	196.289	77.4505	196.289	76.7661	196.289	77.3263	196.289	76.774	196.289	77.2079	196.289	76.7873	196.289	77.1011	196.289	76.8076	196.289	77.0099	196.289	76.8372	196.289	76.936	196.289	76.8791
203.613	77.4335	203.613	77.3084	203.613	77.5508	203.613	77.1821	203.613	77.6538	203.613	77.0608	203.613	77.7364	203.613	76.9498	203.613	77.7938	203.613	76.8529	203.613	77.8222	203.613	76.7727	203.613	77.8197	203.613	76.71	203.613	77.7861	203.613	76.6644	203.613	77.7231	203.613	76.6342	203.613	77.6344	203.613	76.6171	203.613	77.5255	203.613	76.6105	203.613	77.4034	203.613	76.6117	203.613	77.2759	203.613	76.6187	203.613	77.1508	203.613	76.63	203.613	77.0349	203.613	76.6456	203.613	76.9334	203.613	76.6661	203.613	76.8489	203.613	76.6937	203.613	76.7821	203.613	76.7313
210.938	77.4614	210.938	77.3339	210.938	77.5784	210.938	77.203	210.938	77.678	210.938	77.0753	210.938	77.7538	210.938	76.9566	210.938	77.8008	210.938	76.8514	210.938	77.8155	210.938	76.7625	210.938	77.796	210.938	76.6911	210.938	77.7428	210.938	76.6369	210.938	77.6583	210.938	76.5984	210.938	77.5476	210.938	76.5731	210.938	77.4175	210.938	76.5584	210.938	77.2766	210.938	76.5514	210.938	77.1342	210.938	76.5496	210.938	76.9993	210.938	76.5514	210.938	76.8792	210.938	76.5564	210.938	76.7791	210.938	76.5652	210.938	76.701	210.938	76.5803	210.938	76.644	210.938	76.6052
218.262	77.481	218.262	77.3449	218.262	77.6063	218.262	77.2057	218.262	77.7131	218.262	77.0707	218.262	77.7948	218.262	76.9463	218.262	77.846	218.262	76.8376	218.262	77.8627	218.262	76.7476	218.262	77.8432	218.262	76.6775	218.262	77.7878	218.262	76.6268	218.262	77.6994	218.262	76.5935	218.262	77.5831	218.262	76.5744	218.262	77.4466	218.262	76.5662	218.262	77.299	218.262	76.5652	218.262	77.1506	218.262	76.5683	218.262	77.0112	218.262	76.5734	218.262	76.8886	218.262	76.5798	218.262	76.7883	218.262	76.5882	218.262	76.7119	218.262	76.6012	218.262	76.658	218.262	76.6227
225.586	77.3841	225.586	77.2393	225.586	77.5178	225.586	77.092	225.586	77.6321	225.586	76.9507	225.586	77.7197	225.586	76.8226	225.586	77.7749	225.586	76.7136	225.586	77.7938	225.586	76.6272	225.586	77.7745	225.586	76.5646	225.586	77.7178	225.586	76.5248	225.586	77.627	225.586	76.5049	225.586	77.508	225.586	76.5009	225.586	77.3692	225.586	76.5079	225.586	77.2209	225.586	76.5212	225.586	77.074	225.586	76.5365	225.586	76.9387	225.586	76.5507	225.586	76.8232	225.586	76.5624	225.586	76.7322	225.586	76.572	225.586	76.6665	225.586	76.5821	225.586	76.6232	225.586	76.5972
232.91	77.3001	232.91	77.1556	232.91	77.4285	232.91	77.0031	232.91	77.5334	232.91	76.8511	232.91	77.6087	232.91	76.7074	232.91	77.6499	232.91	76.5784	232.91	77.6549	232.91	76.4693	232.91	77.6236	232.91	76.3829	232.91	77.5581	232.91	76.3203	232.91	77.4628	232.91	76.2804	232.91	77.3441	232.91	76.2609	232.91	77.2099	232.91	76.2583	232.91	77.0692	232.91	76.2685	232.91	76.9308	232.91	76.2872	232.91	76.8026	232.91	76.3108	232.91	76.6905	232.91	76.3366	232.91	76.5978	232.91	76.3636	232.91	76.5247	232.91	76.3927	232.91	76.4689	232.91	76.4264
241.699	77.2837	241.699	77.1326	241.699	77.4149	241.699	76.9705	241.699	77.5183	241.699	76.8064	241.699	77.5874	241.699	76.6491	241.699	77.6176	241.699	76.506	241.699	77.6066	241.699	76.3832	241.699	77.5546	241.699	76.2844	241.699	77.4643	241.699	76.2112	241.699	77.3414	241.699	76.1632	241.699	77.1941	241.699	76.138	241.699	77.0325	241.699	76.1316	241.699	76.8682	241.699	76.1392	241.699	76.7125	241.699	76.1556	241.699	76.5751	241.699	76.1757	241.699	76.4625	241.699	76.196	241.699	76.3769	241.699	76.2146	241.699	76.3167	241.699	76.2318	241.699	76.2769	241.699	76.2508
250.488	77.3787	250.488	77.2135	250.488	77.5175	250.488	77.0302	250.488	77.6226	250.488	76.8381	250.488	77.6885	250.488	76.6465	250.488	77.7115	250.488	76.4645	250.488	77.69	250.488	76.2999	250.488	77.6251	250.488	76.1595	250.488	77.5201	250.488	76.0476	250.488	77.3809	250.488	75.9663	250.488	77.2159	250.488	75.9153	250.488	77.0353	250.488	75.8915	250.488	76.8504	250.488	75.8901	250.488	76.6723	250.488	75.9052	250.488	76.511	250.488	75.9304	250.488	76.3733	250.488	75.9608	250.488	76.2624	250.488	75.9934	250.488	76.1773	250.488	76.0276	250.488	76.114	250.488	76.0662
259.277	77.6839	259.277	77.5235	259.277	77.8178	259.277	77.3452	259.277	77.9178	259.277	77.1577	259.277	77.9776	259.277	76.9695	259.277	77.9928	259.277	76.7883	259.277	77.9611	259.277	76.6209	259.277	77.8829	259.277	76.4728	259.277	77.7612	259.277	76.3479	259.277	77.6023	259.277	76.2484	259.277	77.415	259.277	76.1749	259.277	77.211	259.277	76.126	259.277	77.0032	259.277	76.0987	259.277	76.8047	259.277	76.0888	259.277	76.6267	259.277	76.0914	259.277	76.4773	259.277	76.1024	259.277	76.3598	259.277	76.1189	259.277	76.2729	259.277	76.1407	259.277	76.2119	259.277	76.17
268.066	77.5997	268.066	77.4371	268.066	77.7381	268.066	77.2599	268.066	77.8437	268.066	77.0783	268.066	77.9096	268.066	76.902	268.066	77.9311	268.066	76.7396	268.066	77.9063	268.066	76.5981	268.066	77.836	268.066	76.4825	268.066	77.7244	268.066	76.3955	268.066	77.5786	268.066	76.3377	268.066	77.4092	268.066	76.307	268.066	77.2285	268.066	76.2997	268.066	77.05	268.066	76.3104	268.066	76.8865	268.066	76.3329	268.066	76.7476	268.066	76.3607	268.066	76.6387	268.066	76.3887	268.066	76.5602	268.066	76.4133	268.066	76.508	268.066	76.4339	268.066	76.4749	268.066	76.4527
276.855	77.689	276.855	77.5155	276.855	77.8291	276.855	77.3184	276.855	77.9272	276.855	77.1088	276.855	77.9765	276.855	76.8978	276.855	77.973	276.855	76.6962	276.855	77.9151	276.855	76.5138	276.855	77.8048	276.855	76.3591	276.855	77.6478	276.855	76.238	276.855	77.4538	276.855	76.1539	276.855	77.2363	276.855	76.1065	276.855	77.0119	276.855	76.092	276.855	76.7983	276.855	76.1035	276.855	76.6118	276.855	76.1321	276.855	76.4641	276.855	76.1679	276.855	76.3599	276.855	76.2022	276.855	76.2966	276.855	76.2284	276.855	76.2654	276.855	76.2439	276.855	76.2542	276.855	76.2504
287.109	77.7866	287.109	77.5911	287.109	77.9488	287.109	77.374	287.109	78.0677	287.109	77.1478	287.109	78.1356	287.109	76.9251	287.109	78.1472	287.109	76.7179	287.109	78.1	287.109	76.536	287.109	77.995	287.109	76.3869	287.109	77.8368	287.109	76.2748	287.109	77.6339	287.109	76.2004	287.109	77.3991	287.109	76.1609	287.109	77.1492	287.109	76.1504	287.109	76.9032	287.109	76.1607	287.109	76.6804	287.109	76.1826	287.109	76.4968	287.109	76.2067	287.109	76.3619	287.109	76.2256	287.109	76.2766	287.109	76.2346	287.109	76.2342	287.109	76.2333	287.109	76.2221	287.109	76.2261
297.363	78.0658	297.363	77.8671	297.363	78.2274	297.363	77.642	297.363	78.3429	297.363	77.4022	297.363	78.4053	297.363	77.16	297.363	78.41	297.363	76.9277	297.363	78.355	297.363	76.7169	297.363	78.2417	297.363	76.5375	297.363	78.075	297.363	76.3967	297.363	77.8638	297.363	76.2984	297.363	77.6216	297.363	76.2422	297.363	77.3652	297.363	76.2234	297.363	77.114	297.363	76.2338	297.363	76.8869	297.363	76.2628	297.363	76.6993	297.363	76.2993	297.363	76.5596	297.363	76.3337	297.363	76.468	297.363	76.3597	297.363	76.4169	297.363	76.3753	297.363	76.3935	297.363	76.3838
307.617	77.9877	307.617	77.7829	307.617	78.1574	307.617	77.5557	307.617	78.2814	307.617	77.3196	307.617	78.3516	307.617	77.0887	307.617	78.3624	307.617	76.8764	307.617	78.3116	307.617	76.6941	307.617	78.2005	307.617	76.5509	307.617	78.0348	307.617	76.4519	307.617	77.8245	307.617	76.3982	307.617	77.5849	307.617	76.3862	307.617	77.3351	307.617	76.4081	307.617	77.0971	307.617	76.4533	307.617	76.8918	307.617	76.5094	307.617	76.7351	307.617	76.5638	307.617	76.6342	307.617	76.6063	307.617	76.586	307.617	76.63	307.617	76.5786	307.617	76.6326	307.617	76.595	307.617	76.6179
319.336	78.063	319.336	77.8228	319.336	78.2583	319.336	77.5508	319.336	78.3976	319.336	77.2626	319.336	78.4723	319.336	76.9746	319.336	78.4767	319.336	76.7037	319.336	78.4083	319.336	76.4659	319.336	78.2679	319.336	76.2746	319.336	78.0608	319.336	76.139	319.336	77.7975	319.336	76.0623	319.336	77.4943	319.336	76.0409	319.336	77.174	319.336	76.0649	319.336	76.8641	319.336	76.1195	319.336	76.5934	319.336	76.1874	319.336	76.3858	319.336	76.2516	319.336	76.254	319.336	76.2982	319.336	76.1959	319.336	76.318	319.336	76.1959	319.336	76.3085	319.336	76.2305	319.336	76.2749
329.59	78.0879	329.59	77.8079	329.59	78.315	329.59	77.4876	329.59	78.4794	329.59	77.1426	329.59	78.5737	329.59	76.7912	329.59	78.5936	329.59	76.4539	329.59	78.5371	329.59	76.152	329.59	78.4053	329.59	75.9052	329.59	78.203	329.59	75.7285	329.59	77.9394	329.59	75.6291	329.59	77.6287	329.59	75.6039	329.59	77.2915	329.59	75.6404	329.59	76.9531	329.59	75.7188	329.59	76.6421	329.59	75.8164	329.59	76.3846	329.59	75.9117	329.59	76.1983	329.59	75.988	329.59	76.0869	329.59	76.0354	329.59	76.0396	329.59	76.0525	329.59	76.0348	329.59	76.0468
341.309	78.4875	341.309	78.2709	341.309	78.6541	341.309	78.012	341.309	78.7645	341.309	77.7198	341.309	78.8145	341.309	77.4037	341.309	78.8021	341.309	77.0741	341.309	78.7277	341.309	76.7425	341.309	78.5943	341.309	76.4221	341.309	78.4075	341.309	76.1279	341.309	78.1748	341.309	75.876	341.309	77.9063	341.309	75.6815	341.309	77.614	341.309	75.5544	341.309	77.3118	341.309	75.4966	341.309	77.0152	341.309	75.5005	341.309	76.7395	341.309	75.5508	341.309	76.4978	341.309	75.6294	341.309	76.2977	341.309	75.7202	341.309	76.1389	341.309	75.8138	341.309	76.0135	341.309	75.9092
353.027	78.4083	353.027	78.2134	353.027	78.5524	353.027	77.9763	353.027	78.6385	353.027	77.7072	353.027	78.6623	353.027	77.4166	353.027	78.6224	353.027	77.1156	353.027	78.5205	353.027	76.8159	353.027	78.3619	353.027	76.5302	353.027	78.1546	353.027	76.2722	353.027	77.9097	353.027	76.0566	353.027	77.6404	353.027	75.8958	353.027	77.3615	353.027	75.7977	353.027	77.0884	353.027	75.7619	353.027	76.8362	353.027	75.7792	353.027	76.6181	353.027	75.8334	353.027	76.4428	353.027	75.9057	353.027	76.3122	353.027	75.9796	353.027	76.2206	353.027	76.0453	353.027	76.1554	353.027	76.1015
366.211	78.4023	366.211	78.1985	366.211	78.5571	366.211	77.9568	366.211	78.6537	366.211	77.69	366.211	78.6863	366.211	77.4108	366.211	78.6523	366.211	77.1319	366.211	78.5533	366.211	76.8646	366.211	78.3944	366.211	76.6199	366.211	78.1846	366.211	76.4076	366.211	77.9361	366.211	76.2367	366.211	77.6634	366.211	76.1136	366.211	77.3825	366.211	76.0408	366.211	77.1099	366.211	76.0148	366.211	76.861	366.211	76.0265	366.211	76.6489	366.211	76.0622	366.211	76.4822	366.211	76.1074	366.211	76.3633	366.211	76.1501	366.211	76.2869	366.211	76.1845	366.211	76.2415	366.211	76.2119
379.395	77.9859	379.395	77.7737	379.395	78.1522	379.395	77.5278	379.395	78.263	379.395	77.2623	379.395	78.3127	379.395	76.992	379.395	78.2995	379.395	76.7307	379.395	78.2255	379.395	76.4906	379.395	78.0964	379.395	76.282	379.395	77.9206	379.395	76.1131	379.395	77.7088	379.395	75.99	379.395	77.4728	379.395	75.9154	379.395	77.225	379.395	75.8878	379.395	76.9785	379.395	75.9004	379.395	76.747	379.395	75.9416	379.395	76.5442	379.395	75.9966	379.395	76.3819	379.395	76.0511	379.395	76.2664	379.395	76.0945	379.395	76.1957	379.395	76.1227	379.395	76.159	379.395	76.1403
392.578	77.6954	392.578	77.4713	392.578	77.8616	392.578	77.202	392.578	77.9616	392.578	76.9038	392.578	77.9922	392.578	76.5947	392.578	77.9559	392.578	76.2935	392.578	77.8604	392.578	76.0182	392.578	77.7183	392.578	75.7844	392.578	77.5453	392.578	75.6045	392.578	77.3573	392.578	75.4862	392.578	77.1673	392.578	75.431	392.578	76.9832	392.578	75.4338	392.578	76.8076	392.578	75.4829	392.578	76.6403	392.578	75.5624	392.578	76.482	392.578	75.6549	392.578	76.3363	392.578	75.7457	392.578	76.2091	392.578	75.8258	392.578	76.1046	392.578	75.8939	392.578	76.0226	392.578	75.956
405.762	77.2678	405.762	77.004	405.762	77.4544	405.762	76.6785	405.762	77.5557	405.762	76.3139	405.762	77.5716	405.762	75.9394	405.762	77.5103	405.762	75.5888	405.762	77.3888	405.762	75.2967	405.762	77.2322	405.762	75.093	405.762	77.0707	405.762	74.9963	405.762	76.9332	405.762	75.0089	405.762	76.8393	405.762	75.1175	405.762	76.7933	405.762	75.2967	405.762	76.7839	405.762	75.5166	405.762	76.7912	405.762	75.7485	405.762	76.7959	405.762	75.9696	405.762	76.7852	405.762	76.1649	405.762	76.7551	405.762	76.3276	405.762	76.7066	405.762	76.4579	405.762	76.642	405.762	76.5606
420.41	78.0934	420.41	77.8629	420.41	78.2212	420.41	77.5419	420.41	78.2365	420.41	77.1452	420.41	78.1326	420.41	76.6907	420.41	77.9089	420.41	76.2021	420.41	77.5735	420.41	75.7113	420.41	77.1487	420.41	75.2612	420.41	76.6765	420.41	74.9023	420.41	76.2214	420.41	74.6833	420.41	75.8624	420.41	74.6337	420.41	75.6666	420.41	74.7503	420.41	75.657	420.41	74.9971	420.41	75.7993	420.41	75.3204	420.41	76.0243	420.41	75.666	420.41	76.2612	420.41	75.9904	420.41	76.4585	420.41	76.2638	420.41	76.5867	420.41	76.4679	420.41	76.6326	420.41	76.5925
435.059	78.3569	435.059	78.0945	435.059	78.5222	435.059	77.751	435.059	78.5765	435.059	77.3439	435.059	78.509	435.059	76.8923	435.059	78.3124	435.059	76.4177	435.059	77.9857	435.059	75.9462	435.059	77.5366	435.059	75.5098	435.059	76.987	435.059	75.1474	435.059	76.3807	435.059	74.899	435.059	75.789	435.059	74.7947	435.059	75.3054	435.059	74.8414	435.059	75.0181	435.059	75.017	435.059	74.9656	435.059	75.2764	435.059	75.1141	435.059	75.5657	435.059	75.3808	435.059	75.8351	435.059	75.6769	435.059	76.0457	435.059	75.9354	435.059	76.1711	435.059	76.1153	435.059	76.1958
451.172	78.1936	451.172	77.8989	451.172	78.3868	451.172	77.5149	451.172	78.468	451.172	77.0559	451.172	78.4293	451.172	76.5392	451.172	78.2652	451.172	75.9867	451.172	77.9738	451.172	75.4285	451.172	77.5583	451.172	74.9066	451.172	77.0307	451.172	74.4752	451.172	76.4173	451.172	74.1926	451.172	75.7658	451.172	74.1004	451.172	75.1515	451.172	74.2019	451.172	74.6693	451.172	74.4556	451.172	74.4045	451.172	74.7913	451.172	74.3881	451.172	75.1353	451.172	74.5771	451.172	75.4268	451.172	74.8811	451.172	75.6234	451.172	75.2051	451.172	75.7007	451.172	75.4766	451.172	75.6497
465.82	78.2971	465.82	78.0045	465.82	78.4883	465.82	77.6215	465.82	78.569	465.82	77.1608	465.82	78.532	465.82	76.6371	465.82	78.3729	465.82	76.0696	465.82	78.0911	465.82	75.4852	465.82	77.6913	465.82	74.9232	465.82	77.1863	465.82	74.437	465.82	76.6009	465.82	74.0877	465.82	75.9772	465.82	73.9245	465.82	75.3765	465.82	73.9597	465.82	74.8736	465.82	74.1578	465.82	74.5378	465.82	74.4497	465.82	74.4038	465.82	74.7594	465.82	74.4551	465.82	75.0238	465.82	74.6328	465.82	75.2003	465.82	74.8621	465.82	75.2671	465.82	75.0751	465.82	75.2207
483.398	78.4424	483.398	78.1664	483.398	78.6115	483.398	77.7917	483.398	78.6664	483.398	77.3267	483.398	78.6017	483.398	76.7808	483.398	78.4143	483.398	76.1665	483.398	78.1051	483.398	75.5046	483.398	77.6804	483.398	74.8317	483.398	77.1546	483.398	74.2092	483.398	76.5545	483.398	73.7218	483.398	75.9231	483.398	73.4555	483.398	75.3213	483.398	73.4526	483.398	74.8218	483.398	73.6803	483.398	74.4895	483.398	74.0463	483.398	74.3562	483.398	74.4449	483.398	74.4046	483.398	74.7917	483.398	74.5776	483.398	75.0342	483.398	74.8006	483.398	75.148	483.398	75.0037	483.398	75.1318
499.512	78.4931	499.512	78.2439	499.512	78.6414	499.512	77.9032	499.512	78.6787	499.512	77.4786	499.512	78.5957	499.512	76.9755	499.512	78.3852	499.512	76.3988	499.512	78.0434	499.512	75.7576	499.512	77.572	499.512	75.074	499.512	76.9821	499.512	74.3946	499.512	76.3001	499.512	73.7985	499.512	75.5758	499.512	73.3874	499.512	74.8878	499.512	73.2439	499.512	74.3352	499.512	73.3759	499.512	74.0055	499.512	73.7049	499.512	73.9292	499.512	74.1127	499.512	74.0622	499.512	74.4938	499.512	74.314	499.512	74.778	499.512	74.5898	499.512	74.9292	499.512	74.8147	499.512	74.9378
517.09	78.3925	517.09	78.1433	517.09	78.5436	517.09	77.8113	517.09	78.5822	517.09	77.4096	517.09	78.4962	517.09	76.947	517.09	78.278	517.09	76.428	517.09	77.9262	517.09	75.8557	517.09	77.4478	517.09	75.2398	517.09	76.8616	517.09	74.6066	517.09	76.2034	517.09	74.0105	517.09	75.5292	517.09	73.5354	517.09	74.9124	517.09	73.2707	517.09	74.429	517.09	73.2626	517.09	74.1316	517.09	73.4766	517.09	74.0291	517.09	73.8147	517.09	74.0864	517.09	74.1672	517.09	74.2425	517.09	74.4509	517.09	74.4296	517.09	74.6198	517.09	74.5857	517.09	74.6603
536.133	78.4545	536.133	78.1637	536.133	78.6367	536.133	77.7805	536.133	78.6947	536.133	77.3194	536.133	78.6155	536.133	76.7901	536.133	78.3906	536.133	76.1969	536.133	78.0165	536.133	75.5421	536.133	77.497	536.133	74.8357	536.133	76.8469	536.133	74.1103	536.133	76.0987	536.133	73.4384	536.133	75.3104	536.133	72.9358	536.133	74.5696	536.133	72.7227	536.133	73.9825	536.133	72.8428	536.133	73.6377	536.133	73.2193	536.133	73.5627	536.133	73.7053	536.133	73.71	536.133	74.1636	536.133	73.9871	536.133	74.5044	536.133	74.2952	536.133	74.6842	536.133	74.5513	536.133	74.6942
555.176	78.5718	555.176	78.2873	555.176	78.7545	555.176	77.9186	555.176	78.8167	555.176	77.4782	555.176	78.7417	555.176	76.9696	555.176	78.5157	555.176	76.3853	555.176	78.1283	555.176	75.7102	555.176	77.5737	555.176	74.9311	555.176	76.8542	555.176	74.0541	555.176	75.9878	555.176	73.1321	555.176	75.0228	555.176	72.2971	555.176	74.0577	555.176	71.7574	555.176	73.2482	555.176	71.6856	555.176	72.7634	555.176	72.0562	555.176	72.679	555.176	72.6608	555.176	72.9168	555.176	73.2761	555.176	73.3105	555.176	73.7603	555.176	73.7058	555.176	74.0484	555.176	73.9978	555.176	74.1236
574.219	79.3339	574.219	78.9873	574.219	79.5655	574.219	78.5456	574.219	79.6656	574.219	78.0295	574.219	79.6229	574.219	77.4546	574.219	79.4299	574.219	76.8267	574.219	79.0821	574.219	76.1396	574.219	78.5772	574.219	75.3801	574.219	77.9143	574.219	74.5407	574.219	77.0958	574.219	73.6408	574.219	76.1324	574.219	72.7536	574.219	75.0543	574.219	72.0232	574.219	73.9308	574.219	71.6232	574.219	72.8945	574.219	71.632	574.219	72.136	574.219	71.9481	574.219	71.8117	574.219	72.3688	574.219	71.9089	574.219	72.7173	574.219	72.2456	574.219	72.8899	574.219	72.6086	574.219	72.8483
594.727	79.9171	594.727	79.6645	594.727	80.0671	594.727	79.3251	594.727	80.1016	594.727	78.9129	594.727	80.0117	594.727	78.4366	594.727	79.7931	594.727	77.8958	594.727	79.4454	594.727	77.2817	594.727	78.9714	594.727	76.583	594.727	78.3777	594.727	75.7976	594.727	77.6763	594.727	74.9496	594.727	76.8885	594.727	74.1111	594.727	76.0514	594.727	73.4117	594.727	75.2259	594.727	73.0024	594.727	74.4991	594.727	72.956	594.727	73.9691	594.727	73.197	594.727	73.7021	594.727	73.5574	594.727	73.6862	594.727	73.8818	594.727	73.8292	594.727	74.077	594.727	74.0069	594.727	74.1118
615.234	79.441	615.234	79.1749	615.234	79.5989	615.234	78.8178	615.234	79.6345	615.234	78.386	615.234	79.5388	615.234	77.8901	615.234	79.3084	615.234	77.331	615.234	78.9446	615.234	76.7002	615.234	78.4539	615.234	75.9876	615.234	77.8481	615.234	75.1963	615.234	77.1468	615.234	74.3655	615.234	76.3801	615.234	73.596	615.234	75.5938	615.234	73.0494	615.234	74.8531	615.234	72.8745	615.234	74.2417	615.234	73.0821	615.234	73.8465	615.234	73.5225	615.234	73.7184	615.234	73.9994	615.234	73.8332	615.234	74.3681	615.234	74.0919	615.234	74.5553	615.234	74.3661	615.234	74.5447
637.207	79.5155	637.207	79.2596	637.207	79.6792	637.207	78.9319	637.207	79.7319	637.207	78.5484	637.207	79.6597	637.207	78.1142	637.207	79.454	637.207	77.6198	637.207	79.1113	637.207	77.0435	637.207	78.6327	637.207	76.3602	637.207	78.0246	637.207	75.5563	637.207	77.3017	637.207	74.6516	637.207	76.4916	637.207	73.7296	637.207	75.6426	637.207	72.9607	637.207	74.8305	637.207	72.5575	637.207	74.1556	637.207	72.6191	637.207	73.7188	637.207	73.0238	637.207	73.571	637.207	73.5382	637.207	73.6732	637.207	73.9729	637.207	73.9114	637.207	74.229	637.207	74.1505	637.207	74.2797
659.18	78.9037	659.18	78.6185	659.18	79.0992	659.18	78.2753	659.18	79.1799	659.18	77.9031	659.18	79.1301	659.18	77.5161	659.18	78.9434	659.18	77.1042	659.18	78.6206	659.18	76.6334	659.18	78.1677	659.18	76.0571	659.18	77.5951	659.18	75.3352	659.18	76.9176	659.18	74.4581	659.18	76.1583	659.18	73.483	659.18	75.3556	659.18	72.5845	659.18	74.5762	659.18	72.0535	659.18	73.9254	659.18	72.108	659.18	73.5287	659.18	72.6475	659.18	73.4625	659.18	73.3558	659.18	73.6799	659.18	73.9679	659.18	74.0272	659.18	74.3502	659.18	74.3318	659.18	74.464
682.617	78.3693	682.617	77.9928	682.617	78.6465	682.617	77.5606	682.617	78.7968	682.617	77.1234	682.617	78.8081	682.617	76.7194	682.617	78.6806	682.617	76.352	682.617	78.4204	682.617	75.9823	682.617	78.0348	682.617	75.5442	682.617	77.5276	682.617	74.972	682.617	76.8964	682.617	74.2286	682.617	76.1339	682.617	73.3398	682.617	75.2403	682.617	72.4438	682.617	74.2515	682.617	71.8209	682.617	73.2892	682.617	71.7547	682.617	72.5926	682.617	72.2346	682.617	72.4073	682.617	72.9508	682.617	72.7315	682.617	73.5901	682.617	73.2906	682.617	73.9755	682.617	73.7866	682.617	74.0397
707.52	78.2505	707.52	77.9189	707.52	78.4474	707.52	77.4853	707.52	78.4923	707.52	76.9928	707.52	78.3836	707.52	76.4819	707.52	78.1335	707.52	75.9714	707.52	77.7653	707.52	75.446	707.52	77.3093	707.52	74.8595	707.52	76.7957	707.52	74.1541	707.52	76.2428	707.52	73.2882	707.52	75.6454	707.52	72.2731	707.52	74.9719	707.52	71.2295	707.52	74.1811	707.52	70.4362	707.52	73.2615	707.52	70.2145	707.52	72.2938	707.52	70.591	707.52	71.5029	707.52	71.2385	707.52	71.1689	707.52	71.8057	707.52	71.3396	707.52	72.098	707.52	71.7434	707.52	72.0589
732.422	77.3766	732.422	77.0277	732.422	77.5935	732.422	76.5921	732.422	77.6513	732.422	76.1261	732.422	77.5417	732.422	75.6768	732.422	77.2722	732.422	75.2568	732.422	76.8642	732.422	74.8313	732.422	76.3513	732.422	74.3301	732.422	75.7757	732.422	73.6755	732.422	75.1782	732.422	72.8117	732.422	74.5832	732.422	71.7416	732.422	73.9868	732.422	70.5956	732.422	73.3657	732.422	69.7149	732.422	72.7133	732.422	69.5285	732.422	72.0906	732.422	70.0724	732.422	71.6446	732.422	70.918	732.422	71.5225	732.422	71.655	732.422	71.7101	732.422	72.0911	732.422	72.0095	732.422	72.1885
757.324	76.57	757.324	76.223	757.324	76.7681	757.324	75.7803	757.324	76.7901	757.324	75.3154	757.324	76.6328	757.324	74.8986	757.324	76.3135	757.324	74.5594	757.324	75.8682	757.324	74.2629	757.324	75.3492	757.324	73.9231	757.324	74.8146	757.324	73.4405	757.324	74.3061	757.324	72.7328	757.324	73.8208	757.324	71.7591	757.324	73.3025	757.324	70.5592	757.324	72.6671	757.324	69.3405	757.324	71.8575	757.324	68.5418	757.324	70.9165	757.324	68.5402	757.324	70.0581	757.324	69.1442	757.324	69.6129	757.324	69.8363	757.324	69.7059	757.324	70.2697	757.324	70.0683	757.324	70.3296
785.156	76.156	785.156	75.702	785.156	76.4292	785.156	75.1427	785.156	76.4864	785.156	74.5962	785.156	76.3226	785.156	74.1889	785.156	75.9567	785.156	73.9812	785.156	75.4333	785.156	73.9149	785.156	74.8277	785.156	73.8494	785.156	74.2439	785.156	73.6379	785.156	73.782	785.156	73.1709	785.156	73.4742	785.156	72.3825	785.156	73.2438	785.156	71.2576	785.156	72.9416	785.156	69.8735	785.156	72.4246	785.156	68.5014	785.156	71.6204	785.156	67.6345	785.156	70.5811	785.156	67.5678	785.156	69.5347	785.156	67.9752	785.156	68.8191	785.156	68.3621	785.156	68.5649	785.156	68.5215
811.523	75.4061	811.523	74.8455	811.523	75.6731	811.523	74.0208	811.523	75.6445	811.523	73.0276	811.523	75.3283	811.523	72.0838	811.523	74.7396	811.523	71.5148	811.523	73.9125	811.523	71.5215	811.523	72.9329	811.523	71.9508	811.523	71.9978	811.523	72.4723	811.523	71.4307	811.523	72.8459	811.523	71.4743	811.523	72.9725	811.523	71.9965	811.523	72.8485	811.523	72.6217	811.523	72.5333	811.523	73.0542	811.523	72.1336	811.523	73.1688	811.523	71.7754	811.523	72.9718	811.523	71.5492	811.523	72.5656	811.523	71.4644	811.523	72.1129	811.523	71.4761	811.523	71.7618	811.523	71.5628
840.82	76.7379	840.82	76.2745	840.82	76.9721	840.82	75.5941	840.82	76.9724	840.82	74.7232	840.82	76.7361	840.82	73.7107	840.82	76.2578	840.82	72.634	840.82	75.5261	840.82	71.5914	840.82	74.5235	840.82	70.677	840.82	73.2357	840.82	69.9522	840.82	71.69	840.82	69.452	840.82	70.0669	840.82	69.2242	840.82	68.8742	840.82	69.3387	840.82	68.7319	840.82	69.8184	840.82	69.5318	840.82	70.5669	840.82	70.6123	840.82	71.4042	840.82	71.5608	840.82	72.1614	840.82	72.2733	840.82	72.7313	840.82	72.7654	840.82	73.0688	840.82	73.0645	840.82	73.1726
870.117	77.3803	870.117	76.9691	870.117	77.5579	870.117	76.3379	870.117	77.5043	870.117	75.5252	870.117	77.2314	870.117	74.6042	870.117	76.7559	870.117	73.68	870.117	76.096	870.117	72.8577	870.117	75.2695	870.117	72.1824	870.117	74.2952	870.117	71.6087	870.117	73.2002	870.117	71.0488	870.117	72.0404	870.117	70.4639	870.117	70.9343	870.117	69.9457	870.117	70.0872	870.117	69.7283	870.117	69.7293	870.117	70.0177	870.117	69.9371	870.117	70.7388	870.117	70.5497	870.117	71.5888	870.117	71.313	870.117	72.2938	870.117	72.0215	870.117	72.7086	870.117	72.5413	870.117	72.787
900.879	77.3293	900.879	76.9075	900.879	77.5049	900.879	76.2478	900.879	77.4447	900.879	75.3869	900.879	77.1709	900.879	74.403	900.879	76.7133	900.879	73.4177	900.879	76.1047	900.879	72.5585	900.879	75.3752	900.879	71.8795	900.879	74.5443	900.879	71.3147	900.879	73.6129	900.879	70.7353	900.879	72.5631	900.879	70.0616	900.879	71.3802	900.879	69.3682	900.879	70.1227	900.879	68.9487	900.879	69.0574	900.879	69.1581	900.879	68.6869	900.879	69.9836	900.879	69.2532	900.879	71.0223	900.879	70.339	900.879	71.8967	900.879	71.4029	900.879	72.4145	900.879	72.1597	900.879	72.5062
933.105	77.1509	933.105	76.7815	933.105	77.2298	933.105	76.1247	933.105	77.0294	933.105	75.2087	933.105	76.5704	933.105	74.1075	933.105	75.8833	933.105	72.9616	933.105	75.012	933.105	71.9581	933.105	74.0212	933.105	71.2234	933.105	73.0024	933.105	70.7072	933.105	72.0649	933.105	70.2313	933.105	71.2893	933.105	69.6529	933.105	70.6702	933.105	69.0017	933.105	70.1301	933.105	68.5586	933.105	69.6296	933.105	68.7226	933.105	69.2879	933.105	69.5354	933.105	69.3563	933.105	70.5811	933.105	69.9319	933.105	71.4445	933.105	70.7698	933.105	71.9167	933.105	71.5158	933.105	71.9336
965.332	77.1836	965.332	76.8115	965.332	77.2896	965.332	76.1636	965.332	77.1501	965.332	75.2519	965.332	76.791	965.332	74.1295	965.332	76.2399	965.332	72.9172	965.332	75.5205	965.332	71.8036	965.332	74.649	965.332	70.9558	965.332	73.6303	965.332	70.3721	965.332	72.4601	965.332	69.8774	965.332	71.138	965.332	69.292	965.332	69.702	965.332	68.5981	965.332	68.3037	965.332	68.0511	965.332	67.3034	965.332	68.1037	965.332	67.1553	965.332	68.8914	965.332	67.9067	965.332	69.9916	965.332	69.0951	965.332	70.9303	965.332	70.2472	965.332	71.4658	965.332	71.0971	965.332	71.5209
1000.49	77.1977	1000.49	76.8914	1000.49	77.1873	1000.49	76.2518	1000.49	76.8926	1000.49	75.2875	1000.49	76.3587	1000.49	74.0609	1000.49	75.6437	1000.49	72.7356	1000.49	74.8136	1000.49	71.594	1000.49	73.928	1000.49	70.8847	1000.49	73.0142	1000.49	70.5594	1000.49	72.0386	1000.49	70.3165	1000.49	70.8992	1000.49	69.8871	1000.49	69.4601	1000.49	69.1951	1000.49	67.676	1000.49	68.4404	1000.49	65.9763	1000.49	68.1356	1000.49	65.6632	1000.49	68.6793	1000.49	67.1082	1000.49	69.7654	1000.49	68.9514	1000.49	70.8096	1000.49	70.3981	1000.49	71.4767	1000.49	71.2963	1000.49	71.6499
1035.64	77.5313	1035.64	77.3111	1035.64	77.4087	1035.64	76.7214	1035.64	76.9788	1035.64	75.7393	1035.64	76.2954	1035.64	74.3536	1035.64	75.4431	1035.64	72.6035	1035.64	74.5421	1035.64	70.6867	1035.64	73.7248	1035.64	69.1078	1035.64	73.0642	1035.64	68.4342	1035.64	72.4927	1035.64	68.5344	1035.64	71.7929	1035.64	68.7876	1035.64	70.6547	1035.64	68.8288	1035.64	68.6979	1035.64	68.6613	1035.64	65.4351	1035.64	68.5528	1035.64	61.1132	1035.64	68.8372	1035.64	62.1403	1035.64	69.5483	1035.64	66.2539	1035.64	70.3598	1035.64	68.9208	1035.64	70.9119	1035.64	70.3771	1035.64	70.9726
1072.27	79.1275	1072.27	78.8573	1072.27	79.0647	1072.27	78.2629	1072.27	78.6658	1072.27	77.3578	1072.27	77.936	1072.27	76.1641	1072.27	76.8949	1072.27	74.7262	1072.27	75.5902	1072.27	73.1353	1072.27	74.1338	1072.27	71.5538	1072.27	72.7593	1072.27	70.1859	1072.27	71.7872	1072.27	69.1558	1072.27	71.3134	1072.27	68.4227	1072.27	70.9676	1072.27	67.9096	1072.27	70.1721	1072.27	67.7092	1072.27	68.3726	1072.27	68.0549	1072.27	64.9683	1072.27	68.9595	1072.27	60.7045	1072.27	70.0643	1072.27	63.3541	1072.27	70.9532	1072.27	67.4902	1072.27	71.3501	1072.27	69.8988	1072.27	71.068
1108.89	79.4841	1108.89	79.29	1108.89	79.3815	1108.89	78.788	1108.89	78.9976	1108.89	77.9701	1108.89	78.3527	1108.89	76.835	1108.89	77.4706	1108.89	75.4024	1108.89	76.3776	1108.89	73.7473	1108.89	75.1086	1108.89	72.0466	1108.89	73.7353	1108.89	70.5669	1108.89	72.4115	1108.89	69.48	1108.89	71.3581	1108.89	68.6793	1108.89	70.654	1108.89	67.9538	1108.89	70.0212	1108.89	67.3506	1108.89	68.9645	1108.89	67.3154	1108.89	67.0414	1108.89	68.1527	1108.89	64.3602	1108.89	69.4075	1108.89	63.6821	1108.89	70.4187	1108.89	66.402	1108.89	70.8055	1108.89	68.9391	1108.89	70.3686
1148.44	79.2463	1148.44	78.9969	1148.44	79.1678	1148.44	78.4107	1148.44	78.7753	1148.44	77.4855	1148.44	78.0886	1148.44	76.2374	1148.44	77.1335	1148.44	74.7337	1148.44	75.9415	1148.44	73.1518	1148.44	74.5548	1148.44	71.8005	1148.44	73.0513	1148.44	70.9285	1148.44	71.5943	1148.44	70.421	1148.44	70.4298	1148.44	69.8938	1148.44	69.6639	1148.44	69.03	1148.44	69.006	1148.44	67.7922	1148.44	67.9369	1148.44	66.7404	1148.44	66.0989	1148.44	67.0122	1148.44	64.1378	1148.44	68.5027	1148.44	64.8041	1148.44	69.9693	1148.44	67.4715	1148.44	70.7525	1148.44	69.5838	1148.44	70.6566
1189.45	78.9831	1189.45	78.8637	1189.45	78.8164	1189.45	78.4287	1189.45	78.392	1189.45	77.6431	1189.45	77.7387	1189.45	76.4665	1189.45	76.8794	1189.45	74.8723	1189.45	75.8176	1189.45	72.9211	1189.45	74.5208	1189.45	70.9478	1189.45	72.9183	1189.45	69.6787	1189.45	70.9665	1189.45	69.4778	1189.45	68.9232	1189.45	69.6917	1189.45	67.7636	1189.45	69.6025	1189.45	68.048	1189.45	68.9458	1189.45	68.5755	1189.45	67.8959	1189.45	68.2645	1189.45	67.2389	1189.45	66.8527	1189.45	67.7727	1189.45	65.2366	1189.45	68.881	1189.45	65.8289	1189.45	69.5326	1189.45	67.8664	1189.45	69.2424
1230.47	78.6959	1230.47	78.65	1230.47	78.4735	1230.47	78.3081	1230.47	78.0159	1230.47	77.6369	1230.47	77.3652	1230.47	76.5869	1230.47	76.5637	1230.47	75.0944	1230.47	75.6331	1230.47	73.1163	1230.47	74.5474	1230.47	70.7657	1230.47	73.2134	1230.47	68.6621	1230.47	71.483	1230.47	67.8643	1230.47	69.2533	1230.47	68.2235	1230.47	66.8589	1230.47	68.6135	1230.47	65.5867	1230.47	68.4926	1230.47	65.7765	1230.47	67.941	1230.47	65.85	1230.47	67.5602	1230.47	65.1802	1230.47	68.0281	1230.47	64.9314	1230.47	69.0312	1230.47	66.4693	1230.47	69.7157	1230.47	68.4298	1230.47	69.5754
1274.41	78.0919	1274.41	78.0156	1274.41	77.8903	1274.41	77.6795	1274.41	77.415	1274.41	77.0972	1274.41	76.7039	1274.41	76.2457	1274.41	75.8235	1274.41	75.051	1274.41	74.8436	1274.41	73.4024	1274.41	73.7948	1274.41	71.2044	1274.41	72.626	1274.41	68.5397	1274.41	71.1921	1274.41	66.1552	1274.41	69.3026	1274.41	65.4219	1274.41	66.9197	1274.41	65.9651	1274.41	64.755	1274.41	66.4036	1274.41	64.2049	1274.41	66.3367	1274.41	64.642	1274.41	66.1257	1274.41	64.7267	1274.41	66.411	1274.41	64.684	1274.41	67.2066	1274.41	65.478	1274.41	67.8285	1274.41	66.8298	1274.41	67.7442
1319.82	77.7866	1319.82	77.5817	1319.82	77.6006	1319.82	77.0203	1319.82	77.0288	1319.82	76.1663	1319.82	76.1185	1319.82	75.0857	1319.82	74.9569	1319.82	73.7994	1319.82	73.6548	1319.82	72.2502	1319.82	72.3017	1319.82	70.3354	1319.82	70.9042	1319.82	68.0717	1319.82	69.3591	1319.82	66.0239	1319.82	67.5382	1319.82	65.4085	1319.82	65.5981	1319.82	66.1276	1319.82	64.3846	1319.82	66.859	1319.82	64.3847	1319.82	67.0023	1319.82	64.5316	1319.82	66.6433	1319.82	64.0844	1319.82	66.2973	1319.82	63.6777	1319.82	66.4529	1319.82	64.4918	1319.82	66.8354	1319.82	65.9078	1319.82	66.7726
1366.7	77.393	1366.7	77.2283	1366.7	77.1216	1366.7	76.657	1366.7	76.4367	1366.7	75.7576	1366.7	75.4113	1366.7	74.6301	1366.7	74.1587	1366.7	73.3285	1366.7	72.8021	1366.7	71.7862	1366.7	71.4106	1366.7	69.8124	1366.7	69.9258	1366.7	67.1904	1366.7	68.1296	1366.7	64.067	1366.7	65.7211	1366.7	62.3196	1366.7	62.7717	1366.7	63.5835	1366.7	61.162	1366.7	65.3515	1366.7	62.0555	1366.7	66.3899	1366.7	62.804	1366.7	66.8049	1366.7	62.6847	1366.7	67.0238	1366.7	63.0949	1366.7	67.3771	1366.7	64.8716	1366.7	67.7181	1366.7	66.6491	1366.7	67.5935
1413.57	77.5371	1413.57	77.3303	1413.57	77.2135	1413.57	76.6134	1413.57	76.3885	1413.57	75.4699	1413.57	75.1484	1413.57	74.0714	1413.57	73.6507	1413.57	72.6492	1413.57	72.1068	1413.57	71.3252	1413.57	70.6806	1413.57	69.9413	1413.57	69.3189	1413.57	68.1405	1413.57	67.6437	1413.57	65.5633	1413.57	64.947	1413.57	62.2009	1413.57	60.2513	1413.57	60.1952	1413.57	57.0606	1413.57	61.9297	1413.57	61.1923	1413.57	64.1626	1413.57	63.1967	1413.57	65.6611	1413.57	62.8429	1413.57	66.7004	1413.57	62.1529	1413.57	67.5204	1413.57	63.963	1413.57	67.9826	1413.57	66.3805	1413.57	67.719
1463.38	77.6055	1463.38	77.4959	1463.38	77.2269	1463.38	76.9159	1463.38	76.3783	1463.38	75.9137	1463.38	75.1333	1463.38	74.572	1463.38	73.6442	1463.38	73.0046	1463.38	72.1383	1463.38	71.3123	1463.38	70.828	1463.38	69.4905	1463.38	69.7282	1463.38	67.3788	1463.38	68.5315	1463.38	64.7595	1463.38	66.6334	1463.38	61.797	1463.38	63.0533	1463.38	60.256	1463.38	55.3722	1463.38	61.482	1463.38	52.1334	1463.38	63.2715	1463.38	59.0443	1463.38	64.5907	1463.38	60.8615	1463.38	65.5853	1463.38	61.4904	1463.38	66.4107	1463.38	63.2461	1463.38	66.8753	1463.38	65.3585	1463.38	66.6144
1516.11	77.6488	1516.11	77.6248	1516.11	77.1525	1516.11	77.096	1516.11	76.1534	1516.11	76.1056	1516.11	74.7273	1516.11	74.7368	1516.11	73.0438	1516.11	73.13	1516.11	71.3806	1516.11	71.4543	1516.11	70.0314	1516.11	69.7895	1516.11	69.081	1516.11	68.0213	1516.11	68.2558	1516.11	65.9209	1516.11	67.0386	1516.11	63.4004	1516.11	64.8742	1516.11	61.1047	1516.11	61.3406	1516.11	60.7324	1516.11	56.8933	1516.11	62.1404	1516.11	54.1883	1516.11	63.7724	1516.11	54.3335	1516.11	65.177	1516.11	58.4181	1516.11	66.2977	1516.11	62.7804	1516.11	66.9311	1516.11	65.501	1516.11	66.7708
1568.85	78.2407	1568.85	78.2164	1568.85	77.687	1568.85	77.6442	1568.85	76.5574	1568.85	76.5667	1568.85	74.9273	1568.85	75.0426	1568.85	73.0046	1568.85	73.182	1568.85	71.1653	1568.85	71.1882	1568.85	69.8234	1568.85	69.2985	1568.85	69.0504	1568.85	67.5667	1568.85	68.3531	1568.85	65.7845	1568.85	66.9204	1568.85	63.8072	1568.85	63.8296	1568.85	62.165	1568.85	58.4776	1568.85	62.1335	1568.85	57.646	1568.85	63.5354	1568.85	59.9853	1568.85	65.0816	1568.85	58.4295	1568.85	66.2773	1568.85	53.1838	1568.85	67.0491	1568.85	59.3278	1568.85	67.2504	1568.85	64.2989	1568.85	66.5351
1624.51	78.4978	1624.51	78.3735	1624.51	78.0211	1624.51	77.6933	1624.51	76.951	1624.51	76.5401	1624.51	75.3428	1624.51	74.995	1624.51	73.3196	1624.51	73.1062	1624.51	71.1855	1624.51	70.9102	1624.51	69.5169	1624.51	68.508	1624.51	68.6982	1624.51	66.0656	1624.51	68.2026	1624.51	63.5708	1624.51	66.9327	1624.51	60.6325	1624.51	63.5854	1624.51	57.3229	1624.51	56.0642	1624.51	57.6847	1624.51	56.8468	1624.51	61.5451	1624.51	60.6496	1624.51	64.6136	1624.51	59.0959	1624.51	66.5306	1624.51	53.5697	1624.51	67.5457	1624.51	60.1089	1624.51	67.7729	1624.51	64.9241	1624.51	67.0687
1681.64	78.8278	1681.64	78.6752	1681.64	78.4053	1681.64	77.9828	1681.64	77.392	1681.64	76.817	1681.64	75.7765	1681.64	75.2544	1681.64	73.5839	1681.64	73.3243	1681.64	71.0055	1681.64	70.9638	1681.64	68.5998	1681.64	68.0711	1681.64	67.1631	1681.64	64.7583	1681.64	66.6647	1681.64	61.872	1681.64	65.8633	1681.64	60.4729	1681.64	63.1847	1681.64	59.8643	1681.64	55.4781	1681.64	59.289	1681.64	51.0705	1681.64	59.7884	1681.64	59.3896	1681.64	62.0984	1681.64	59.6493	1681.64	64.6339	1681.64	55.2622	1681.64	66.3223	1681.64	57.8569	1681.64	66.881	1681.64	63.4773	1681.64	66.1021
1741.7	78.0902	1741.7	77.9591	1741.7	77.6949	1741.7	77.3349	1741.7	76.7419	1741.7	76.2702	1741.7	75.214	1741.7	74.8518	1741.7	73.1732	1741.7	73.1695	1741.7	70.8762	1741.7	71.2275	1741.7	68.8355	1741.7	68.8572	1741.7	67.5267	1741.7	65.7059	1741.7	66.7786	1741.7	61.2713	1741.7	65.6855	1741.7	55.7005	1741.7	62.9439	1741.7	54.8362	1741.7	55.8932	1741.7	57.377	1741.7	49.7861	1741.7	58.8374	1741.7	58.246	1741.7	59.9862	1741.7	58.7411	1741.7	61.827	1741.7	55.9517	1741.7	63.944	1741.7	59.2523	1741.7	65.3153	1741.7	63.5293	1741.7	65.3368
1803.22	78.0152	1803.22	77.7398	1803.22	77.5865	1803.22	76.8236	1803.22	76.4357	1803.22	75.3771	1803.22	74.6255	1803.22	73.5941	1803.22	72.3755	1803.22	71.743	1803.22	70.1635	1803.22	69.9623	1803.22	68.6475	1803.22	68.0084	1803.22	68.0716	1803.22	65.343	1803.22	67.8083	1803.22	61.4042	1803.22	66.812	1803.22	56.9632	1803.22	63.8901	1803.22	57.5183	1803.22	56.58	1803.22	59.8999	1803.22	51.8881	1803.22	60.8697	1803.22	58.5056	1803.22	60.8826	1803.22	58.4418	1803.22	61.1663	1803.22	57.3114	1803.22	62.5146	1803.22	60.945	1803.22	64.0137	1803.22	63.7909	1803.22	64.635
1866.21	78.2727	1866.21	77.7805	1866.21	77.9445	1866.21	76.438	1866.21	76.8388	1866.21	74.2281	1866.21	75.0034	1866.21	71.1843	1866.21	72.5331	1866.21	67.6688	1866.21	69.7939	1866.21	64.9412	1866.21	67.6229	1866.21	63.6265	1866.21	66.5867	1866.21	61.8637	1866.21	66.142	1866.21	57.5819	1866.21	65.0792	1866.21	51.24	1866.21	61.8907	1866.21	56.691	1866.21	54.9408	1866.21	59.6682	1866.21	55.6947	1866.21	59.8458	1866.21	57.1344	1866.21	58.9511	1866.21	50.0831	1866.21	58.9743	1866.21	58.0724	1866.21	60.9513	1866.21	64.2106	1866.21	63.7723	1866.21	66.1926	1866.21	65.8106
1932.13	77.5385	1932.13	76.4883	1932.13	77.7942	1932.13	74.8159	1932.13	77.0803	1932.13	72.6562	1932.13	75.1816	1932.13	69.9248	1932.13	71.8417	1932.13	66.06	1932.13	67.0119	1932.13	59.595	1932.13	62.0556	1932.13	46.2091	1932.13	60.5451	1932.13	48.8171	1932.13	62.8994	1932.13	46.1229	1932.13	64.4767	1932.13	56.9783	1932.13	62.64	1932.13	62.4782	1932.13	58.0246	1932.13	63.7237	1932.13	62.9431	1932.13	61.8173	1932.13	64.9608	1932.13	60.169	1932.13	61.0225	1932.13	62.7715	1932.13	57.4954	1932.13	65.0565	1932.13	66.2562	1932.13	67.1617	1932.13	69.0411	1932.13	68.9217
1999.51	77.394	1999.51	76.1394	1999.51	77.5271	1999.51	73.8949	1999.51	76.471	1999.51	71.428	1999.51	73.9958	1999.51	70.0951	1999.51	69.7828	1999.51	69.3797	1999.51	65.6532	1999.51	67.9096	1999.51	66.2815	1999.51	65.6602	1999.51	67.2055	1999.51	63.5723	1999.51	68.1187	1999.51	62.6707	1999.51	69.8058	1999.51	65.0151	1999.51	70.3514	1999.51	67.6921	1999.51	68.6577	1999.51	67.6159	1999.51	66.4167	1999.51	63.4307	1999.51	67.1939	1999.51	62.3954	1999.51	66.2644	1999.51	67.8452	1999.51	60.8909	1999.51	69.7403	1999.51	64.448	1999.51	70.0403	1999.51	68.8067	1999.51	70.0053
2069.82	77.7821	2069.82	77.2358	2069.82	76.8785	2069.82	75.0285	2069.82	74.7844	2069.82	70.8565	2069.82	72.1003	2069.82	65.4821	2069.82	70.0546	2069.82	65.5863	2069.82	69.7457	2069.82	67.6662	2069.82	70.2287	2069.82	68.0763	2069.82	69.8959	2069.82	67.1578	2069.82	68.443	2069.82	65.5087	2069.82	67.7757	2069.82	65.718	2069.82	68.8859	2069.82	68.0318	2069.82	68.7369	2069.82	68.3371	2069.82	66.2223	2069.82	64.4804	2069.82	65.1484	2069.82	61.0104	2069.82	65.9306	2069.82	67.2748	2069.82	63.3521	2069.82	69.1161	2069.82	58.7542	2069.82	68.1368	2069.82	62.5109	2069.82	65.8194
2143.07	78.1315	2143.07	77.5507	2143.07	77.6205	2143.07	75.7985	2143.07	75.9881	2143.07	72.6384	2143.07	73.2391	2143.07	67.5007	2143.07	69.8383	2143.07	59.7846	2143.07	66.8891	2143.07	60.007	2143.07	64.5758	2143.07	62.8071	2143.07	62.6783	2143.07	62.7415	2143.07	61.0715	2143.07	60.4654	2143.07	56.8155	2143.07	57.0612	2143.07	53.7937	2143.07	59.34	2143.07	59.3338	2143.07	61.8303	2143.07	58.735	2143.07	60.5381	2143.07	55.8502	2143.07	57.1139	2143.07	60.3605	2143.07	60.8346	2143.07	61.6032	2143.07	63.5299	2143.07	58.0609	2143.07	63.0589	2143.07	50.2308	2143.07	59.1313
2219.24	78.1398	2219.24	77.0764	2219.24	77.9997	2219.24	75.0716	2219.24	76.3957	2219.24	72.2405	2219.24	73.1261	2219.24	68.3947	2219.24	68.1262	2219.24	63.4821	2219.24	62.0778	2219.24	60.6761	2219.24	57.0184	2219.24	61.3568	2219.24	54.6396	2219.24	61.1374	2219.24	58.583	2219.24	59.3366	2219.24	60.0123	2219.24	56.0914	2219.24	56.2914	2219.24	54.1181	2219.24	52.4814	2219.24	55.2243	2219.24	57.6326	2219.24	53.7846	2219.24	59.2441	2219.24	44.921	2219.24	60.9388	2219.24	50.8261	2219.24	60.8868	2219.24	57.907	2219.24	57.143	2219.24	60.6539	2219.24	56.9888	2219.24	60.4577
2296.88	77.5307	2296.88	77.0605	2296.88	76.9646	2296.88	75.4452	2296.88	75.4651	2296.88	72.5125	2296.88	72.9379	2296.88	67.7231	2296.88	68.9971	2296.88	59.7382	2296.88	64.0824	2296.88	58.5132	2296.88	61.8283	2296.88	62.2254	2296.88	62.9153	2296.88	62.16	2296.88	65.474	2296.88	59.3199	2296.88	66.7612	2296.88	55.0628	2296.88	65.3632	2296.88	53.0924	2296.88	60.0526	2296.88	49.3072	2296.88	43.4843	2296.88	48.4201	2296.88	52.1734	2296.88	54.3098	2296.88	54.747	2296.88	53.9339	2296.88	55.9724	2296.88	47.9781	2296.88	57.3539	2296.88	51.4237	2296.88	57.7452	2296.88	56.245
2378.91	78.2572	2378.91	77.1367	2378.91	77.9184	2378.91	74.7067	2378.91	75.8512	2378.91	71.0513	2378.91	71.6479	2378.91	66.0571	2378.91	65.9805	2378.91	58.6722	2378.91	63.6938	2378.91	38.4447	2378.91	63.6721	2378.91	52.3839	2378.91	66.5191	2378.91	57.0833	2378.91	68.9728	2378.91	59.1708	2378.91	69.2705	2378.91	60.1438	2378.91	67.9045	2378.91	61.0221	2378.91	65.5233	2378.91	61.9583	2378.91	61.7554	2378.91	61.2479	2378.91	54.8111	2378.91	56.8368	2378.91	48.7705	2378.91	38.9656	2378.91	48.8487	2378.91	54.4973	2378.91	58.064	2378.91	61.0653	2378.91	62.901	2378.91	63.6769
2462.4	77.8628	2462.4	76.4715	2462.4	77.7347	2462.4	73.7233	2462.4	75.7539	2462.4	69.5006	2462.4	71.2801	2462.4	62.8191	2462.4	64.1928	2462.4	51.4236	2462.4	63.0218	2462.4	56.4197	2462.4	62.4691	2462.4	58.9248	2462.4	63.5961	2462.4	60.2818	2462.4	68.18	2462.4	61.2519	2462.4	69.8617	2462.4	60.301	2462.4	68.6478	2462.4	58.8685	2462.4	65.3745	2462.4	60.6958	2462.4	61.6282	2462.4	61.523	2462.4	55.1722	2462.4	59.0422	2462.4	41.0745	2462.4	52.788	2462.4	38.3914	2462.4	51.3124	2462.4	54.9843	2462.4	58.083	2462.4	61.2119	2462.4	61.6232
2548.83	77.2058	2548.83	75.8954	2548.83	76.9588	2548.83	73.1961	2548.83	74.8303	2548.83	69.0269	2548.83	70.3688	2548.83	62.5704	2548.83	65.6186	2548.83	57.5692	2548.83	66.1644	2548.83	61.5082	2548.83	65.6411	2548.83	62.5076	2548.83	65.5217	2548.83	63.0256	2548.83	68.7648	2548.83	64.1309	2548.83	70.3645	2548.83	63.2517	2548.83	68.8679	2548.83	60.1512	2548.83	63.8628	2548.83	60.9045	2548.83	59.9827	2548.83	62.4674	2548.83	57.8162	2548.83	60.234	2548.83	44.468	2548.83	53.1917	2548.83	43.0983	2548.83	42.2448	2548.83	52.767	2548.83	55.9701	2548.83	60.469	2548.83	60.9516
2639.65	77.2173	2639.65	75.8403	2639.65	76.72	2639.65	72.6032	2639.65	74.0354	2639.65	67.2312	2639.65	68.5981	2639.65	59.9759	2639.65	64.7945	2639.65	59.8942	2639.65	66.9633	2639.65	62.2922	2639.65	66.6174	2639.65	62.3233	2639.65	66.357	2639.65	61.8074	2639.65	69.2359	2639.65	62.6397	2639.65	70.8552	2639.65	62.9921	2639.65	69.6249	2639.65	60.8762	2639.65	64.894	2639.65	58.5288	2639.65	59.1148	2639.65	60.4313	2639.65	57.7416	2639.65	59.9183	2639.65	50.6088	2639.65	55.1915	2639.65	37.0864	2639.65	40.9426	2639.65	52.2162	2639.65	53.2927	2639.65	59.1806	2639.65	59.3041
2731.93	76.8327	2731.93	75.3386	2731.93	76.2937	2731.93	71.8591	2731.93	73.4206	2731.93	66.4236	2731.93	67.7296	2731.93	60.6568	2731.93	65.3795	2731.93	60.494	2731.93	67.9694	2731.93	62.4092	2731.93	67.5707	2731.93	63.1431	2731.93	66.6053	2731.93	63.1155	2731.93	68.7524	2731.93	63.7068	2731.93	70.2219	2731.93	64.0078	2731.93	68.9004	2731.93	62.5343	2731.93	63.7097	2731.93	60.7861	2731.93	57.4994	2731.93	60.6641	2731.93	56.8421	2731.93	58.7771	2731.93	52.2532	2731.93	53.3497	2731.93	48.3819	2731.93	41.3006	2731.93	55.7117	2731.93	52.6247	2731.93	61.1348	2731.93	60.17
2828.61	76.3402	2828.61	74.6203	2828.61	75.9144	2828.61	70.9143	2828.61	72.8204	2828.61	65.251	2828.61	66.3263	2828.61	59.7851	2828.61	65.942	2828.61	61.3979	2828.61	68.6187	2828.61	63.6433	2828.61	67.9554	2828.61	63.9574	2828.61	67.0649	2828.61	62.7981	2828.61	69.1456	2828.61	61.8238	2828.61	70.6247	2828.61	61.8644	2828.61	69.412	2828.61	61.5717	2828.61	64.2938	2828.61	61.0028	2828.61	56.6647	2828.61	60.7358	2828.61	56.4068	2828.61	59.3844	2828.61	52.7252	2828.61	55.6675	2828.61	51.93	2828.61	46.1619	2828.61	55.7766	2828.61	50.2653	2828.61	59.7706	2828.61	58.5761
2928.22	75.7587	2928.22	73.8025	2928.22	75.7536	2928.22	69.9729	2928.22	72.9926	2928.22	63.3395	2928.22	66.13	2928.22	59.7893	2928.22	65.9976	2928.22	64.3611	2928.22	68.9901	2928.22	66.3326	2928.22	67.9765	2928.22	65.999	2928.22	66.6535	2928.22	63.9192	2928.22	68.8827	2928.22	62.8063	2928.22	70.4198	2928.22	63.0354	2928.22	69.1627	2928.22	61.7125	2928.22	63.6929	2928.22	60.69	2928.22	56.0376	2928.22	61.7874	2928.22	57.4937	2928.22	59.8405	2928.22	53.8844	2928.22	55.1772	2928.22	54.3161	2928.22	50.4416	2928.22	53.5458	2928.22	48.8064	2928.22	59.515	2928.22	59.2112
3030.76	75.6364	3030.76	73.8391	3030.76	75.2906	3030.76	69.4589	3030.76	72.3887	3030.76	62.9006	3030.76	66.086	3030.76	64.1839	3030.76	66.847	3030.76	65.8423	3030.76	69.665	3030.76	65.4727	3030.76	68.5963	3030.76	64.6015	3030.76	66.4925	3030.76	63.8595	3030.76	67.9461	3030.76	63.3156	3030.76	69.4171	3030.76	63.5098	3030.76	68.2886	3030.76	62.9551	3030.76	62.9541	3030.76	61.2737	3030.76	52.8338	3030.76	61.4195	3030.76	57.3977	3030.76	60.4233	3030.76	55.6771	3030.76	55.7702	3030.76	54.3428	3030.76	51.2615	3030.76	53.2386	3030.76	45.0398	3030.76	59.2502	3030.76	57.4017
3137.7	74.9611	3137.7	72.6288	3137.7	74.9296	3137.7	67.4947	3137.7	72.1569	3137.7	63.0072	3137.7	65.6301	3137.7	65.7239	3137.7	66.699	3137.7	66.6674	3137.7	69.8373	3137.7	66.2257	3137.7	69.1897	3137.7	65.5895	3137.7	67.3127	3137.7	64.7239	3137.7	68.0177	3137.7	63.5673	3137.7	69.3646	3137.7	62.8426	3137.7	68.5864	3137.7	62.0701	3137.7	63.5656	3137.7	60.8982	3137.7	51.4139	3137.7	60.8953	3137.7	57.0562	3137.7	59.9042	3137.7	54.6866	3137.7	55.2862	3137.7	55.4108	3137.7	50.7954	3137.7	53.0715	3137.7	48.9773	3137.7	60.1795	3137.7	58.593
3249.02	74.7415	3249.02	72.2056	3249.02	74.6357	3249.02	67.176	3249.02	71.8402	3249.02	65.7749	3249.02	65.8867	3249.02	67.591	3249.02	66.1802	3249.02	67.9944	3249.02	69.311	3249.02	67.6241	3249.02	68.8579	3249.02	66.7134	3249.02	67.2051	3249.02	65.3566	3249.02	68.0924	3249.02	63.6684	3249.02	69.3963	3249.02	61.9871	3249.02	68.6516	3249.02	61.3921	3249.02	63.8926	3249.02	61.3557	3249.02	48.9371	3249.02	61.3204	3249.02	56.2158	3249.02	60.3908	3249.02	53.251	3249.02	56.0723	3249.02	52.0262	3249.02	50.0589	3249.02	54.0269	3249.02	47.7452	3249.02	59.7643	3249.02	56.5838
3363.28	74.5054	3363.28	71.484	3363.28	74.698	3363.28	67.3728	3363.28	71.8716	3363.28	68.3764	3363.28	66.4933	3363.28	69.6504	3363.28	67.1759	3363.28	69.3123	3363.28	69.1368	3363.28	68.335	3363.28	68.4124	3363.28	67.0972	3363.28	67.2413	3363.28	65.6846	3363.28	68.0147	3363.28	64.5745	3363.28	69.0273	3363.28	63.6314	3363.28	68.3727	3363.28	62.0475	3363.28	63.6463	3363.28	60.9025	3363.28	46.069	3363.28	61.7397	3363.28	56.3702	3363.28	61.5677	3363.28	49.8366	3363.28	58.084	3363.28	50.3535	3363.28	52.1348	3363.28	54.8051	3363.28	48.7977	3363.28	59.7957	3363.28	56.5404
3481.93	75.5598	3481.93	72.6044	3481.93	76.0769	3481.93	70.3947	3481.93	73.4335	3481.93	71.4571	3481.93	67.6148	3481.93	71.7616	3481.93	69.2054	3481.93	70.8478	3481.93	71.1886	3481.93	69.7851	3481.93	69.1276	3481.93	68.7822	3481.93	66.428	3481.93	67.1537	3481.93	67.9455	3481.93	65.3859	3481.93	68.6415	3481.93	64.4918	3481.93	67.8126	3481.93	63.1963	3481.93	63.7505	3481.93	61.2484	3481.93	42.8083	3481.93	61.3425	3481.93	57.1104	3481.93	61.4827	3481.93	51.788	3481.93	58.451	3481.93	52.4479	3481.93	53.9172	3481.93	57.9943	3481.93	53.4881	3481.93	61.4366	3481.93	58.4492
3604.98	76.3426	3604.98	73.9141	3604.98	76.8735	3604.98	73.1793	3604.98	74.6016	3604.98	74.0633	3604.98	69.4142	3604.98	73.4686	3604.98	70.4688	3604.98	71.9812	3604.98	73.2456	3604.98	70.7321	3604.98	71.9595	3604.98	69.2636	3604.98	67.799	3604.98	66.9221	3604.98	67.798	3604.98	64.8501	3604.98	68.2273	3604.98	64.3094	3604.98	66.4193	3604.98	63.6102	3604.98	62.6196	3604.98	62.1798	3604.98	33.9835	3604.98	61.9583	3604.98	59.8253	3604.98	61.8534	3604.98	55.7134	3604.98	58.8005	3604.98	53.6764	3604.98	52.6083	3604.98	58.9016	3604.98	53.6718	3604.98	62.4757	3604.98	59.6192
3732.42	77.0461	3732.42	74.9423	3732.42	77.6338	3732.42	74.4779	3732.42	75.174	3732.42	74.1385	3732.42	70.1694	3732.42	73.0937	3732.42	70.5674	3732.42	72.3034	3732.42	73.1393	3732.42	71.0053	3732.42	72.5276	3732.42	69.0344	3732.42	68.8408	3732.42	66.8596	3732.42	67.1466	3732.42	64.7419	3732.42	68.0882	3732.42	64.4709	3732.42	66.3481	3732.42	64.5006	3732.42	62.2903	3732.42	62.0894	3732.42	48.5673	3732.42	61.82	3732.42	57.0257	3732.42	62.3803	3732.42	54.0504	3732.42	58.9074	3732.42	55.0154	3732.42	52.2783	3732.42	60.383	3732.42	53.4765	3732.42	63.1945	3732.42	60.3246
3864.26	76.1797	3864.26	74.8757	3864.26	77.3805	3864.26	74.6837	3864.26	75.6752	3864.26	73.6947	3864.26	70.6913	3864.26	72.7206	3864.26	71.3917	3864.26	71.7974	3864.26	73.7444	3864.26	69.6906	3864.26	73.0064	3864.26	67.3059	3864.26	70.0932	3864.26	66.2885	3864.26	68.039	3864.26	65.2164	3864.26	68.3475	3864.26	63.6006	3864.26	66.7998	3864.26	63.1588	3864.26	62.3254	3864.26	61.8813	3864.26	50.5648	3864.26	60.203	3864.26	54.0177	3864.26	61.2673	3864.26	52.2394	3864.26	59.2994	3864.26	54.0096	3864.26	51.5564	3864.26	60.222	3864.26	50.7149	3864.26	62.8761	3864.26	59.1432
4000.49	76.1522	4000.49	75.4105	4000.49	76.9402	4000.49	74.5449	4000.49	75.5613	4000.49	72.9747	4000.49	71.123	4000.49	72.0268	4000.49	70.9289	4000.49	71.2365	4000.49	73.5613	4000.49	69.6877	4000.49	73.1424	4000.49	67.8764	4000.49	70.6456	4000.49	66.2279	4000.49	69.0143	4000.49	64.3084	4000.49	68.7475	4000.49	62.871	4000.49	66.5266	4000.49	63.2313	4000.49	62.3785	4000.49	62.6321	4000.49	52.4915	4000.49	60.7434	4000.49	52.2798	4000.49	60.5227	4000.49	52.3213	4000.49	58.8193	4000.49	54.0375	4000.49	53.1183	4000.49	59.391	4000.49	49.7067	4000.49	61.2195	4000.49	57.7385
4141.11	75.7596	4141.11	75.675	4141.11	76.3853	4141.11	74.5068	4141.11	75.5978	4141.11	73.0079	4141.11	71.3847	4141.11	72.5221	4141.11	70.2436	4141.11	71.1166	4141.11	73.2963	4141.11	68.8029	4141.11	73.1978	4141.11	67.1642	4141.11	70.93	4141.11	66.7816	4141.11	69.1033	4141.11	66.6724	4141.11	68.3868	4141.11	65.407	4141.11	65.1777	4141.11	64.0808	4141.11	58.3928	4141.11	63.1617	4141.11	46.4258	4141.11	61.6614	4141.11	56.4677	4141.11	61.0788	4141.11	52.6867	4141.11	58.9766	4141.11	54.3932	4141.11	52.1348	4141.11	59.1577	4141.11	49.1127	4141.11	61.7928	4141.11	57.5196
4287.6	75.7022	4287.6	75.5603	4287.6	75.7252	4287.6	74.1607	4287.6	75.3263	4287.6	73.4883	4287.6	72.098	4287.6	72.5675	4287.6	70.0904	4287.6	70.5402	4287.6	72.647	4287.6	69.9029	4287.6	72.6858	4287.6	69.4871	4287.6	70.8903	4287.6	67.5438	4287.6	69.5612	4287.6	65.3319	4287.6	69.0556	4287.6	63.5536	4287.6	65.8879	4287.6	62.6746	4287.6	56.906	4287.6	62.3144	4287.6	37.86	4287.6	60.8927	4287.6	53.429	4287.6	60.9713	4287.6	49.4609	4287.6	59.5529	4287.6	47.3303	4287.6	50.9756	4287.6	58.4257	4287.6	50.1714	4287.6	61.0037	4287.6	55.6352
4438.48	75.6702	4438.48	75.2508	4438.48	75.2524	4438.48	74.2359	4438.48	74.829	4438.48	73.705	4438.48	72.4247	4438.48	72.4951	4438.48	70.003	4438.48	71.2555	4438.48	72.5031	4438.48	70.206	4438.48	72.7059	4438.48	68.1387	4438.48	70.6691	4438.48	65.3927	4438.48	68.9178	4438.48	64.5282	4438.48	67.6859	4438.48	64.6559	4438.48	65.1177	4438.48	63.1936	4438.48	58.5117	4438.48	61.5855	4438.48	39.3922	4438.48	60.4654	4438.48	53.2497	4438.48	59.0016	4438.48	51.089	4438.48	57.9394	4438.48	51.8463	4438.48	51.7059	4438.48	59.9134	4438.48	47.9125	4438.48	60.4534	4438.48	55.0468
4595.21	75.8965	4595.21	75.5071	4595.21	75.2934	4595.21	74.0433	4595.21	75.2378	4595.21	73.3932	4595.21	73.1936	4595.21	72.4719	4595.21	70.1565	4595.21	71.2646	4595.21	72.2454	4595.21	69.9598	4595.21	72.4364	4595.21	67.9096	4595.21	70.5472	4595.21	65.3	4595.21	68.9748	4595.21	62.8724	4595.21	67.3586	4595.21	62.0039	4595.21	64.191	4595.21	62.1311	4595.21	56.6994	4595.21	61.2011	4595.21	39.4918	4595.21	60.5935	4595.21	47.0948	4595.21	59.688	4595.21	41.2405	4595.21	56.9043	4595.21	50.2158	4595.21	52.0439	4595.21	58.9215	4595.21	39.4907	4595.21	58.1406	4595.21	52.8194
4756.35	76.1283	4756.35	75.366	4756.35	75.5393	4756.35	74.297	4756.35	74.9462	4756.35	73.2811	4756.35	73.2715	4756.35	72.3387	4756.35	70.4039	4756.35	71.5991	4756.35	72.0587	4756.35	69.4051	4756.35	72.1643	4756.35	65.6865	4756.35	69.3734	4756.35	63.0649	4756.35	67.5481	4756.35	61.98	4756.35	66.6801	4756.35	61.0352	4756.35	64.5579	4756.35	60.8311	4756.35	59.0696	4756.35	59.9323	4756.35	47.5771	4756.35	58.0484	4756.35	51.5355	4756.35	59.9373	4756.35	48.0708	4756.35	57.527	4756.35	46.1179	4756.35	52.2405	4756.35	57.7976	4756.35	34.2275	4756.35	56.5573	4756.35	53.5877
4924.8	75.7832	4924.8	75.6763	4924.8	74.6344	4924.8	74.1122	4924.8	74.7977	4924.8	73.227	4924.8	73.9594	4924.8	72.8212	4924.8	70.0829	4924.8	70.6736	4924.8	71.5973	4924.8	67.0329	4924.8	72.7423	4924.8	64.9561	4924.8	69.6887	4924.8	64.0294	4924.8	65.2929	4924.8	63.0579	4924.8	63.6687	4924.8	62.1167	4924.8	62.1955	4924.8	61.4708	4924.8	58.5982	4924.8	61.4753	4924.8	51.2617	4924.8	59.2308	4924.8	45.2902	4924.8	58.585	4924.8	48.2761	4924.8	57.7977	4924.8	49.5918	4924.8	53.0438	4924.8	58.6671	4924.8	39.3478	4924.8	58.3674	4924.8	52.8705
5097.66	76.3127	5097.66	75.6556	5097.66	74.7359	5097.66	73.8044	5097.66	74.4386	5097.66	73.2973	5097.66	74.2161	5097.66	72.6866	5097.66	70.3783	5097.66	70.3525	5097.66	70.4794	5097.66	66.8647	5097.66	72.6585	5097.66	65.4587	5097.66	71.1988	5097.66	65.1455	5097.66	67.8112	5097.66	63.3542	5097.66	64.5155	5097.66	61.9308	5097.66	62.6566	5097.66	60.7162	5097.66	58.3921	5097.66	60.7421	5097.66	51.4772	5097.66	59.394	5097.66	42.8788	5097.66	59.2925	5097.66	47.9113	5097.66	58.0165	5097.66	48.9819	5097.66	53.1176	5097.66	58.2561	5097.66	41.8793	5097.66	56.2368	5097.66	51.2237
5277.83	76.2539	5277.83	75.1712	5277.83	74.9133	5277.83	73.6806	5277.83	74.2214	5277.83	73.9438	5277.83	74.2787	5277.83	72.3827	5277.83	71.0084	5277.83	69.2051	5277.83	69.755	5277.83	68.2619	5277.83	71.7539	5277.83	67.5803	5277.83	70.3383	5277.83	65.2486	5277.83	67.4679	5277.83	62.5418	5277.83	64.3212	5277.83	61.4805	5277.83	60.1757	5277.83	60.5458	5277.83	53.501	5277.83	60.4784	5277.83	47.2	5277.83	58.4632	5277.83	49.3412	5277.83	58.0925	5277.83	51.8642	5277.83	58.2179	5277.83	46.8386	5277.83	53.7077	5277.83	57.7797	5277.83	45.1647	5277.83	54.3705	5277.83	48.2779
5463.87	76.6395	5463.87	74.7182	5463.87	75.449	5463.87	74.1111	5463.87	73.8206	5463.87	74.3086	5463.87	74.3398	5463.87	71.9318	5463.87	71.4822	5463.87	69.8328	5463.87	68.6353	5463.87	68.484	5463.87	70.7434	5463.87	65.8871	5463.87	69.284	5463.87	63.3429	5463.87	66.1237	5463.87	61.271	5463.87	62.8312	5463.87	60.9787	5463.87	59.8319	5463.87	60.0821	5463.87	51.8387	5463.87	59.435	5463.87	48.6535	5463.87	58.4515	5463.87	51.894	5463.87	57.534	5463.87	54.579	5463.87	58.3475	5463.87	49.2617	5463.87	54.3256	5463.87	56.9565	5463.87	47.9993	5463.87	56.4216	5463.87	52.3576
5657.23	76.3477	5657.23	74.8085	5657.23	75.4449	5657.23	74.841	5657.23	74.1689	5657.23	74.0695	5657.23	74.7564	5657.23	71.5063	5657.23	71.469	5657.23	69.8568	5657.23	68.4419	5657.23	67.6559	5657.23	71.409	5657.23	64.7066	5657.23	70.0867	5657.23	63.164	5657.23	66.4525	5657.23	60.5415	5657.23	61.2559	5657.23	58.9789	5657.23	56.0988	5657.23	59.7697	5657.23	49.3992	5657.23	58.8299	5657.23	49.7147	5657.23	57.9639	5657.23	52.5373	5657.23	56.5207	5657.23	53.5545	5657.23	58.4815	5657.23	50.4712	5657.23	56.1019	5657.23	57.464	5657.23	51.2382	5657.23	55.0732	5657.23	45.3711
5856.45	76.1344	5856.45	74.8215	5856.45	75.5221	5856.45	75.1753	5856.45	74.003	5856.45	73.7629	5856.45	74.7667	5856.45	71.2777	5856.45	72.2467	5856.45	69.9231	5856.45	67.5286	5856.45	67.1786	5856.45	70.5393	5856.45	65.3774	5856.45	70.4362	5856.45	64.9026	5856.45	67.7624	5856.45	62.5278	5856.45	63.1522	5856.45	59.771	5856.45	56.6033	5856.45	59.8967	5856.45	49.8726	5856.45	59.4566	5856.45	51.4959	5856.45	58.4677	5856.45	51.7754	5856.45	56.0004	5856.45	50.8307	5856.45	57.1749	5856.45	46.9068	5856.45	54.66	5856.45	55.7557	5856.45	50.7908	5856.45	53.3578	5856.45	45.1183
6062.99	76.0854	6062.99	75.138	6062.99	75.8108	6062.99	75.2576	6062.99	73.8109	6062.99	73.3761	6062.99	75.0913	6062.99	71.6642	6062.99	72.8788	6062.99	69.6481	6062.99	66.7954	6062.99	67.6692	6062.99	69.9012	6062.99	66.7086	6062.99	69.1177	6062.99	65.0842	6062.99	66.2205	6062.99	62.8992	6062.99	61.3432	6062.99	60.0219	6062.99	54.3459	6062.99	59.9536	6062.99	52.9221	6062.99	59.1397	6062.99	52.3225	6062.99	58.4675	6062.99	51.0061	6062.99	56.6941	6062.99	50.4417	6062.99	58.1464	6062.99	45.7315	6062.99	55.5284	6062.99	56.0212	6062.99	50.6732	6062.99	53.5831	6062.99	43.7722
6276.86	75.9861	6276.86	75.4875	6276.86	76.0562	6276.86	75.1991	6276.86	73.8239	6276.86	73.338	6276.86	74.7234	6276.86	72.0294	6276.86	73.3541	6276.86	70.1183	6276.86	66.3969	6276.86	68.4468	6276.86	69.3997	6276.86	67.1844	6276.86	69.1456	6276.86	65.1247	6276.86	65.6985	6276.86	62.3584	6276.86	62.6707	6276.86	59.4942	6276.86	54.7379	6276.86	59.5853	6276.86	52.2055	6276.86	58.6104	6276.86	50.8981	6276.86	58.6008	6276.86	49.8154	6276.86	56.6516	6276.86	50.6237	6276.86	58.8786	6276.86	45.101	6276.86	56.0367	6276.86	56.7423	6276.86	50.8861	6276.86	54.1589	6276.86	45.8228
6498.05	76.1066	6498.05	75.6652	6498.05	76.3814	6498.05	75.0686	6498.05	74.0633	6498.05	73.5888	6498.05	74.7302	6498.05	72.3886	6498.05	73.6385	6498.05	70.6647	6498.05	66.4277	6498.05	69.0838	6498.05	68.5326	6498.05	66.2769	6498.05	68.7498	6498.05	63.3595	6498.05	66.1528	6498.05	61.9322	6498.05	63.4892	6498.05	59.1635	6498.05	58.0575	6498.05	59.0711	6498.05	54.1205	6498.05	57.8853	6498.05	51.8504	6498.05	57.6784	6498.05	49.6291	6498.05	56.4673	6498.05	53.9766	6498.05	58.7661	6498.05	47.269	6498.05	56.4297	6498.05	55.9244	6498.05	51.6837	6498.05	52.3965	6498.05	43.7169
6726.56	76.341	6726.56	75.9856	6726.56	76.5018	6726.56	75.0466	6726.56	74.5313	6726.56	74.1527	6726.56	74.6489	6726.56	72.8256	6726.56	73.904	6726.56	70.8184	6726.56	67.7194	6726.56	68.551	6726.56	68.4284	6726.56	65.8907	6726.56	68.2133	6726.56	63.6719	6726.56	64.807	6726.56	62.4047	6726.56	61.6821	6726.56	60.1702	6726.56	54.9696	6726.56	58.9374	6726.56	54.2744	6726.56	57.5411	6726.56	51.3159	6726.56	56.8845	6726.56	47.5748	6726.56	56.8528	6726.56	53.9529	6726.56	59.0832	6726.56	47.0937	6726.56	57.2884	6726.56	54.1246	6726.56	51.3495	6726.56	51.3648	6726.56	34.5008
6963.87	76.5844	6963.87	76.4297	6963.87	76.7763	6963.87	75.5772	6963.87	75.2262	6963.87	74.7838	6963.87	74.6074	6963.87	72.9113	6963.87	74.1682	6963.87	70.9289	6963.87	67.9565	6963.87	67.8588	6963.87	68.1597	6963.87	66.2431	6963.87	68.0573	6963.87	64.9533	6963.87	63.8942	6963.87	63.7949	6963.87	60.953	6963.87	61.9659	6963.87	50.1843	6963.87	60.1054	6963.87	53.4887	6963.87	58.7498	6963.87	49.8607	6963.87	56.7608	6963.87	43.0424	6963.87	57.1795	6963.87	53.8088	6963.87	58.9588	6963.87	44.9049	6963.87	57.5773	6963.87	53.45	6963.87	51.8503	6963.87	50.9822	6963.87	25.6894
7209.96	76.9996	7209.96	76.7941	7209.96	77.3132	7209.96	76.2095	7209.96	75.7841	7209.96	75.1363	7209.96	74.6489	7209.96	73.124	7209.96	74.5138	7209.96	70.8369	7209.96	68.3608	7209.96	68.9422	7209.96	68.2523	7209.96	67.4316	7209.96	68.6859	7209.96	64.2555	7209.96	62.5807	7209.96	62.5082	7209.96	61.4897	7209.96	61.9879	7209.96	54.0636	7209.96	60.7016	7209.96	53.6783	7209.96	59.5976	7209.96	51.9673	7209.96	56.9503	7209.96	41.7568	7209.96	57.0039	7209.96	53.0843	7209.96	59.1962	7209.96	45.0716	7209.96	57.2296	7209.96	53.1024	7209.96	52.8901	7209.96	51.4803	7209.96	31.6337
7464.84	77.3766	7464.84	77.1613	7464.84	77.6702	7464.84	76.319	7464.84	76.4787	7464.84	75.2103	7464.84	74.7979	7464.84	73.2497	7464.84	74.584	7464.84	71.3902	7464.84	68.7724	7464.84	69.6765	7464.84	67.4596	7464.84	67.5016	7464.84	69.4525	7464.84	63.6979	7464.84	64.6573	7464.84	61.1022	7464.84	62.6614	7464.84	60.7355	7464.84	58.9079	7464.84	59.9307	7464.84	51.01	7464.84	59.2451	7464.84	51.298	7464.84	55.8143	7464.84	49.2796	7464.84	56.3766	7464.84	54.5322	7464.84	58.5133	7464.84	50.6027	7464.84	57.5371	7464.84	52.8797	7464.84	53.6304	7464.84	50.4642	7464.84	36.3929
7727.05	77.6614	7727.05	77.3586	7727.05	77.6877	7727.05	76.3777	7727.05	77.0923	7727.05	75.4735	7727.05	75.1813	7727.05	73.4661	7727.05	75.1504	7727.05	72.1474	7727.05	69.9681	7727.05	69.7095	7727.05	66.1046	7727.05	66.595	7727.05	70.2315	7727.05	63.9335	7727.05	65.9804	7727.05	61.4432	7727.05	63.6668	7727.05	60.9367	7727.05	61.7986	7727.05	59.9248	7727.05	56.8467	7727.05	59.4945	7727.05	56.4941	7727.05	55.2952	7727.05	53.4257	7727.05	55.7205	7727.05	56.0848	7727.05	57.9571	7727.05	47.6763	7727.05	57.3997	7727.05	52.3022	7727.05	53.9732	7727.05	51.5968	7727.05	31.792
7999.51	78.169	7999.51	77.3601	7999.51	77.9633	7999.51	76.6743	7999.51	77.9088	7999.51	75.6219	7999.51	75.5746	7999.51	74.1145	7999.51	75.0697	7999.51	72.3324	7999.51	71.3715	7999.51	69.1836	7999.51	64.1184	7999.51	66.045	7999.51	70.4648	7999.51	63.2834	7999.51	67.1315	7999.51	60.4396	7999.51	64.7532	7999.51	60.3309	7999.51	63.9186	7999.51	59.5188	7999.51	60.5341	7999.51	59.1382	7999.51	58.6344	7999.51	54.7449	7999.51	53.8748	7999.51	54.4633	7999.51	55.0675	7999.51	57.5725	7999.51	46.1353	7999.51	57.4976	7999.51	51.4619	7999.51	53.9047	7999.51	52.4276	7999.51	37.4586
8282.23	78.462	8282.23	77.1001	8282.23	78.413	8282.23	76.9522	8282.23	78.4192	8282.23	76.0225	8282.23	76.5234	8282.23	74.5665	8282.23	75.1187	8282.23	71.7085	8282.23	72.3725	8282.23	68.7985	8282.23	63.4848	8282.23	66.3193	8282.23	69.4886	8282.23	63.0696	8282.23	66.9724	8282.23	59.3178	8282.23	64.2941	8282.23	59.4626	8282.23	63.5018	8282.23	59.3577	8282.23	61.8232	8282.23	58.6118	8282.23	59.0498	8282.23	54.9253	8282.23	54.6755	8282.23	53.9978	8282.23	55.543	8282.23	56.9402	8282.23	49.6481	8282.23	57.5463	8282.23	51.8141	8282.23	54.1179	8282.23	52.2343	8282.23	41.3053
8573.73	78.2466	8573.73	76.9452	8573.73	78.826	8573.73	77.1673	8573.73	78.8818	8573.73	76.1424	8573.73	77.1824	8573.73	74.385	8573.73	75.8595	8573.73	71.7703	8573.73	73.5258	8573.73	69.3065	8573.73	63.744	8573.73	66.2725	8573.73	69.716	8573.73	63.5724	8573.73	66.9257	8573.73	59.7725	8573.73	62.0854	8573.73	58.2793	8573.73	61.6742	8573.73	58.5573	8573.73	62.5472	8573.73	57.3653	8573.73	58.3784	8573.73	55.4878	8573.73	51.2316	8573.73	54.0805	8573.73	55.5477	8573.73	57.3006	8573.73	52.212	8573.73	57.5853	8573.73	50.5705	8573.73	54.7245	8573.73	51.485	8573.73	40.9608
8876.95	78.2565	8876.95	77.2359	8876.95	78.8714	8876.95	77.1283	8876.95	79.244	8876.95	75.6666	8876.95	77.8357	8876.95	74.5146	8876.95	75.8845	8876.95	72.0831	8876.95	74.4377	8876.95	68.9986	8876.95	64.8095	8876.95	65.0524	8876.95	68.9472	8876.95	62.7395	8876.95	67.7695	8876.95	59.5115	8876.95	60.3549	8876.95	57.7068	8876.95	59.2288	8876.95	57.0958	8876.95	60.3221	8876.95	55.4266	8876.95	58.11	8876.95	53.3454	8876.95	43.1867	8876.95	53.511	8876.95	54.6973	8876.95	56.7706	8876.95	53.0593	8876.95	56.167	8876.95	49.8122	8876.95	54.6939	8876.95	50.4674	8876.95	42.0589
9188.96	78.3267	9188.96	77.5778	9188.96	78.8321	9188.96	77.2034	9188.96	79.2206	9188.96	76.6395	9188.96	77.991	9188.96	75.1844	9188.96	75.4884	9188.96	72.0362	9188.96	74.0002	9188.96	68.6562	9188.96	66.1581	9188.96	65.3985	9188.96	67.2731	9188.96	63.7798	9188.96	66.0763	9188.96	61.577	9188.96	56.2191	9188.96	58.3559	9188.96	54.988	9188.96	56.8325	9188.96	58.5595	9188.96	56.0597	9188.96	56.9956	9188.96	54.1861	9188.96	47.1149	9188.96	53.5212	9188.96	54.9461	9188.96	57.5441	9188.96	52.431	9188.96	56.9132	9188.96	45.1882	9188.96	55.9592	9188.96	48.5341	9188.96	45.2747
9514.16	78.5441	9514.16	77.7654	9514.16	78.955	9514.16	77.9355	9514.16	78.818	9514.16	77.5937	9514.16	77.7552	9514.16	75.4628	9514.16	74.9085	9514.16	72.4786	9514.16	73.412	9514.16	70.0735	9514.16	66.9789	9514.16	67.1751	9514.16	66.8835	9514.16	65.2764	9514.16	66.3916	9514.16	63.3309	9514.16	54.635	9514.16	60.3519	9514.16	53.2289	9514.16	56.8703	9514.16	58.8746	9514.16	56.9324	9514.16	55.2747	9514.16	54.7127	9514.16	48.6701	9514.16	54.973	9514.16	50.53	9514.16	58.0671	9514.16	52.1557	9514.16	58.5503	9514.16	48.5338	9514.16	57.1013	9514.16	49.526	9514.16	46.1888
9849.61	78.5236	9849.61	77.9956	9849.61	79.0891	9849.61	78.5508	9849.61	78.745	9849.61	77.6003	9849.61	77.6385	9849.61	75.4093	9849.61	74.7239	9849.61	73.272	9849.61	73.0179	9849.61	70.9254	9849.61	67.1117	9849.61	67.7198	9849.61	65.8304	9849.61	64.9262	9849.61	66.466	9849.61	63.2374	9849.61	56.3277	9849.61	60.2675	9849.61	53.8054	9849.61	56.4671	9849.61	59.3305	9849.61	56.8	9849.61	57.0688	9849.61	54.3702	9849.61	37.7374	9849.61	55.3619	9849.61	46.77	9849.61	57.0951	9849.61	51.0643	9849.61	58.5614	9849.61	46.166	9849.61	57.3472	9849.61	49.9996	9849.61	48.2527
10196.8	78.1318	10196.8	78.3717	10196.8	78.9751	10196.8	78.7217	10196.8	78.801	10196.8	77.3277	10196.8	77.643	10196.8	75.8531	10196.8	75.1378	10196.8	73.5254	10196.8	73.916	10196.8	70.5525	10196.8	68.0518	10196.8	67.4931	10196.8	65.0696	10196.8	64.0269	10196.8	66.8249	10196.8	62.3508	10196.8	56.3978	10196.8	59.6945	10196.8	52.8728	10196.8	56.0729	10196.8	58.7765	10196.8	57.1997	10196.8	58.1099	10196.8	53.1471	10196.8	39.9416	10196.8	54.5085	10196.8	47.9814	10196.8	56.2736	10196.8	50.7221	10196.8	58.7267	10196.8	48.2587	10196.8	57.6388	10196.8	50.647	10196.8	49.0563
10555.7	78.4064	10555.7	78.9841	10555.7	79.023	10555.7	78.6238	10555.7	79.146	10555.7	77.6693	10555.7	77.8635	10555.7	76.2617	10555.7	75.3708	10555.7	73.1177	10555.7	74.3706	10555.7	70.6626	10555.7	68.3628	10555.7	66.892	10555.7	62.231	10555.7	63.2849	10555.7	67.0504	10555.7	61.8184	10555.7	57.2429	10555.7	59.2928	10555.7	51.9623	10555.7	55.2216	10555.7	58.5436	10555.7	57.659	10555.7	57.7893	10555.7	52.446	10555.7	44.4299	10555.7	52.5412	10555.7	42.7449	10555.7	55.6175	10555.7	48.8153	10555.7	58.4446	10555.7	41.3436	10555.7	57.1365	10555.7	50.767	10555.7	49.5873
10927.7	79.4344	10927.7	79.6114	10927.7	79.5552	10927.7	79.2563	10927.7	79.4013	10927.7	78.4425	10927.7	78.1035	10927.7	76.0197	10927.7	75.7276	10927.7	73.9859	10927.7	74.6573	10927.7	70.5276	10927.7	69.7085	10927.7	67.236	10927.7	56.8167	10927.7	63.5776	10927.7	66.041	10927.7	62.0433	10927.7	55.3297	10927.7	58.4892	10927.7	49.1598	10927.7	53.1535	10927.7	58.2869	10927.7	56.8646	10927.7	55.8532	10927.7	52.1945	10927.7	37.1651	10927.7	51.3361	10927.7	48.1575	10927.7	54.9292	10927.7	47.9738	10927.7	58.1975	10927.7	46.0817	10927.7	56.813	10927.7	50.047	10927.7	49.2488
11313	79.9566	11313	80.221	11313	80.0079	11313	79.9105	11313	79.6893	11313	78.3188	11313	78.5914	11313	76.4478	11313	76.3778	11313	74.1077	11313	74.7688	11313	69.1964	11313	70.3247	11313	67.1761	11313	60.6621	11313	62.2135	11313	65.1006	11313	60.8937	11313	56.9531	11313	55.9756	11313	53.3288	11313	53.4272	11313	56.1506	11313	55.1366	11313	52.7439	11313	51.8863	11313	39.8112	11313	49.048	11313	49.8307	11313	54.3092	11313	51.2666	11313	56.6553	11313	42.3413	11313	55.5267	11313	48.9981	11313	49.0856
11712.9	80.5456	11712.9	80.6718	11712.9	80.2241	11712.9	79.8902	11712.9	79.9096	11712.9	78.2138	11712.9	78.7357	11712.9	77.0178	11712.9	76.4979	11712.9	72.8183	11712.9	74.7562	11712.9	69.3096	11712.9	70.4577	11712.9	65.6896	11712.9	61.2665	11712.9	61.9018	11712.9	65.7978	11712.9	59.9637	11712.9	58.4216	11712.9	55.918	11712.9	56.0911	11712.9	51.3782	11712.9	56.588	11712.9	54.3577	11712.9	52.1269	11712.9	51.6973	11712.9	31.9008	11712.9	48.0844	11712.9	50.121	11712.9	53.5333	11712.9	50.2581	11712.9	56.0324	11712.9	42.2101	11712.9	54.2648	11712.9	49.5916	11712.9	46.9858
12126	80.8841	12126	80.8057	12126	80.3603	12126	79.8461	12126	79.7804	12126	78.5981	12126	78.6305	12126	76.085	12126	76.1879	12126	72.7175	12126	74.1992	12126	68.6852	12126	70.2501	12126	65.6165	12126	60.6435	12126	61.224	12126	64.0569	12126	58.6979	12126	57.7334	12126	55.2241	12126	54.029	12126	48.9081	12126	55.3	12126	51.9677	12126	54.319	12126	50.6391	12126	40.9907	12126	47.5177	12126	50.5068	12126	54.4547	12126	51.0607	12126	55.3994	12126	43.9199	12126	54.2641	12126	50.1436	12126	48.7613
12553.7	81.2098	12553.7	80.8596	12553.7	80.4922	12553.7	80.2482	12553.7	79.8331	12553.7	78.2507	12553.7	78.4852	12553.7	75.3275	12553.7	75.9061	12553.7	72.8953	12553.7	73.2279	12553.7	67.4978	12553.7	69.0654	12553.7	65.2001	12553.7	60.5457	12553.7	59.6766	12553.7	63.2509	12553.7	58.059	12553.7	58.1611	12553.7	54.1104	12553.7	55.5485	12553.7	50.3022	12553.7	56.3515	12553.7	49.3382	12553.7	50.5516	12553.7	51.9837	12553.7	43.5838	12553.7	44.7966	12553.7	50.2718	12553.7	53.4807	12553.7	49.7695	12553.7	52.9589	12553.7	38.4552	12553.7	53.4037	12553.7	49.527	12553.7	49.6549
12996.1	81.7456	12996.1	81.427	12996.1	81.1045	12996.1	80.4033	12996.1	80.0369	12996.1	77.7143	12996.1	78.71	12996.1	75.4692	12996.1	75.4894	12996.1	71.0952	12996.1	71.9424	12996.1	67.1031	12996.1	68.5515	12996.1	63.0645	12996.1	60.753	12996.1	59.2426	12996.1	61.5389	12996.1	54.719	12996.1	55.1906	12996.1	51.9358	12996.1	55.5898	12996.1	50.0171	12996.1	58.478	12996.1	48.3127	12996.1	53.9388	12996.1	52.9025	12996.1	43.2859	12996.1	46.5898	12996.1	47.9783	12996.1	51.42	12996.1	48.017	12996.1	52.5682	12996.1	37.9607	12996.1	51.8028	12996.1	48.7757	12996.1	48.2682
13454.6	82.0727	13454.6	81.7968	13454.6	81.5876	13454.6	80.351	13454.6	80.058	13454.6	78.0751	13454.6	78.6721	13454.6	74.047	13454.6	75.0312	13454.6	69.8311	13454.6	70.906	13454.6	66.4445	13454.6	67.6677	13454.6	60.5145	13454.6	59.9187	13454.6	57.2596	13454.6	56.5104	13454.6	51.0789	13454.6	60.169	13454.6	50.2289	13454.6	55.6359	13454.6	48.5904	13454.6	57.0985	13454.6	47.2794	13454.6	55.6386	13454.6	51.6944	13454.6	44.4723	13454.6	42.0724	13454.6	46.5427	13454.6	50.8511	13454.6	46.691	13454.6	49.2133	13454.6	46.4174	13454.6	50.7751	13454.6	48.6114	13454.6	49.4172
13929.2	81.2473	13929.2	81.0437	13929.2	80.714	13929.2	79.9183	13929.2	79.5275	13929.2	77.0533	13929.2	77.8782	13929.2	72.3744	13929.2	73.9089	13929.2	68.845	13929.2	69.6459	13929.2	64.4035	13929.2	66.443	13929.2	58.5118	13929.2	59.7073	13929.2	55.5966	13929.2	56.3331	13929.2	48.9194	13929.2	62.5911	13929.2	45.2325	13929.2	59.3163	13929.2	48.2163	13929.2	57.6501	13929.2	45.6354	13929.2	57.1419	13929.2	51.4705	13929.2	46.3645	13929.2	37.2902	13929.2	45.7171	13929.2	49.4952	13929.2	42.6385	13929.2	47.6779	13929.2	46.2021	13929.2	50.37	13929.2	49.311	13929.2	50.0062
14419.9	80.2867	14419.9	80.2631	14419.9	80.0136	14419.9	79.1492	14419.9	78.5894	14419.9	75.9837	14419.9	76.9851	14419.9	72.5588	14419.9	73.3529	14419.9	67.7876	14419.9	68.1665	14419.9	65.8213	14419.9	66.0616	14419.9	54.8187	14419.9	59.8627	14419.9	55.6233	14419.9	56.437	14419.9	39.0747	14419.9	63.2746	14419.9	43.5392	14419.9	60.8406	14419.9	45.9137	14419.9	59.2534	14419.9	47.6678	14419.9	58.3703	14419.9	51.6188	14419.9	49.7079	14419.9	38.0091	14419.9	44.9999	14419.9	51.9905	14419.9	38.7323	14419.9	49.3729	14419.9	47.0688	14419.9	50.0553	14419.9	49.1022	14419.9	50.8268
14928.2	79.5703	14928.2	79.9315	14928.2	79.5091	14928.2	78.3068	14928.2	77.9453	14928.2	75.5476	14928.2	76.3606	14928.2	72.6245	14928.2	73.2832	14928.2	69.1843	14928.2	68.8854	14928.2	64.8086	14928.2	66.0394	14928.2	59.1755	14928.2	62.0594	14928.2	56.6482	14928.2	56.7519	14928.2	50.9938	14928.2	64.522	14928.2	46.0392	14928.2	61.1313	14928.2	50.409	14928.2	59.4682	14928.2	49.236	14928.2	58.5685	14928.2	52.0535	14928.2	46.0323	14928.2	39.6428	14928.2	40.8524	14928.2	53.6276	14928.2	40.2087	14928.2	48.2328	14928.2	47.3024	14928.2	48.7938	14928.2	49.0707	14928.2	49.8109
15455.6	78.4993	15455.6	79.3036	15455.6	78.0557	15455.6	77.4665	15455.6	77.3653	15455.6	75.2202	15455.6	75.9656	15455.6	73.2199	15455.6	72.4133	15455.6	68.8974	15455.6	68.6443	15455.6	66.6002	15455.6	66.6876	15455.6	61.1215	15455.6	60.533	15455.6	56.788	15455.6	56.28	15455.6	51.008	15455.6	64.9097	15455.6	44.6348	15455.6	61.5802	15455.6	50.4343	15455.6	60.4512	15455.6	48.5736	15455.6	59.2688	15455.6	51.9235	15455.6	48.8181	15455.6	39.5016	15455.6	46.634	15455.6	54.0364	15455.6	42.8787	15455.6	45.8452	15455.6	43.1093	15455.6	47.1382	15455.6	49.8745	15455.6	46.3979
16000.5	77.2633	16000.5	78.1364	16000.5	75.8064	16000.5	76.8337	16000.5	76.1894	16000.5	74.9934	16000.5	74.5735	16000.5	72.8825	16000.5	71.2217	16000.5	68.9139	16000.5	68.2722	16000.5	66.5299	16000.5	65.5783	16000.5	60.721	16000.5	61.1684	16000.5	56.9544	16000.5	51.9974	16000.5	51.3399	16000.5	64.6924	16000.5	43.7087	16000.5	59.8452	16000.5	49.782	16000.5	59.0995	16000.5	44.9842	16000.5	58.8706	16000.5	51.595	16000.5	46.0875	16000.5	39.6013	16000.5	43.1222	16000.5	53.7443	16000.5	40.5427	16000.5	45.809	16000.5	44.429	16000.5	46.0555	16000.5	50.1785	16000.5	47.3194
16564.5	76.818	16564.5	77.8019	16564.5	75.7696	16564.5	76.5833	16564.5	75.2104	16564.5	75.5164	16564.5	74.9613	16564.5	72.9168	16564.5	72.3801	16564.5	69.5662	16564.5	69.132	16564.5	65.7741	16564.5	66.7557	16564.5	61.0889	16564.5	61.2605	16564.5	55.7305	16564.5	55.3582	16564.5	51.4045	16564.5	64.9869	16564.5	47.5828	16564.5	60.6479	16564.5	50.5566	16564.5	60.1008	16564.5	39.6327	16564.5	57.7024	16564.5	49.9059	16564.5	47.3657	16564.5	39.9882	16564.5	44.883	16564.5	52.9041	16564.5	33.7982	16564.5	45.8641	16564.5	42.6375	16564.5	42.387	16564.5	48.4217	16564.5	46.372
17148.9	78.241	17148.9	78.8416	17148.9	77.8435	17148.9	77.0953	17148.9	76.1094	17148.9	75.7998	17148.9	75.2176	17148.9	73.3122	17148.9	73.6696	17148.9	68.6802	17148.9	69.1995	17148.9	65.5406	17148.9	65.5909	17148.9	59.8677	17148.9	60.6351	17148.9	57.2156	17148.9	54.6576	17148.9	51.7913	17148.9	63.7206	17148.9	49.0537	17148.9	59.004	17148.9	49.2009	17148.9	60.7821	17148.9	40.8282	17148.9	57.6009	17148.9	48.9633	17148.9	44.3994	17148.9	39.5661	17148.9	46.0918	17148.9	50.6878	17148.9	23.165	17148.9	43.7929	17148.9	42.6365	17148.9	40.0259	17148.9	47.1696	17148.9	46.9902
17752.4	79.1342	17752.4	79.29	17752.4	78.6812	17752.4	77.6257	17752.4	77.192	17752.4	75.8509	17752.4	75.6888	17752.4	72.7039	17752.4	73.1424	17752.4	68.7373	17752.4	68.7905	17752.4	65.2156	17752.4	63.605	17752.4	59.9694	17752.4	58.9058	17752.4	54.6513	17752.4	53.4084	17752.4	51.9812	17752.4	63.4569	17752.4	48.499	17752.4	59.2081	17752.4	48.9218	17752.4	61.7615	17752.4	42.0197	17752.4	57.6555	17752.4	47.2214	17752.4	44.2244	17752.4	38.413	17752.4	41.6373	17752.4	48.8304	17752.4	35.9029	17752.4	41.5889	17752.4	44.3442	17752.4	39.2919	17752.4	45.5918	17752.4	46.9492
18379.4	79.0512	18379.4	79.6329	18379.4	79.1911	18379.4	78.1266	18379.4	77.2836	18379.4	75.9883	18379.4	75.4231	18379.4	73.5425	18379.4	72.1776	18379.4	69.5085	18379.4	66.4189	18379.4	65.5888	18379.4	60.0358	18379.4	60.097	18379.4	55.2885	18379.4	55.5385	18379.4	50.8497	18379.4	53.1004	18379.4	62.5547	18379.4	48.4049	18379.4	58.56	18379.4	48.5349	18379.4	63.3366	18379.4	43.4625	18379.4	57.5903	18379.4	45.7065	18379.4	39.1083	18379.4	34.595	18379.4	36.818	18379.4	47.0665	18379.4	37.535	18379.4	46.1905	18379.4	45.1949	18379.4	40.7712	18379.4	44.9151	18379.4	45.187
19026.9	80.4737	19026.9	80.5755	19026.9	80.1299	19026.9	78.9078	19026.9	77.1969	19026.9	76.9734	19026.9	75.0459	19026.9	73.9819	19026.9	70.7712	19026.9	69.8414	19026.9	63.6147	19026.9	64.8139	19026.9	55.9145	19026.9	59.1682	19026.9	50.7714	19026.9	54.3406	19026.9	47.3357	19026.9	51.2879	19026.9	60.4957	19026.9	47.8169	19026.9	56.5966	19026.9	46.5036	19026.9	63.9597	19026.9	42.1831	19026.9	57.9735	19026.9	43.568	19026.9	40.2458	19026.9	34.1141	19026.9	30.2708	19026.9	45.2645	19026.9	36.8573	19026.9	44.2758	19026.9	43.911	19026.9	43.772	19026.9	45.4555	19026.9	44.4696
19697.8	81.7413	19697.8	81.6199	19697.8	80.8699	19697.8	79.9278	19697.8	77.5634	19697.8	77.4789	19697.8	74.9398	19697.8	73.8411	19697.8	69.5765	19697.8	68.0658	19697.8	61.5321	19697.8	63.473	19697.8	57.1128	19697.8	56.4861	19697.8	27.9514	19697.8	52.5232	19697.8	51.2108	19697.8	48.9151	19697.8	61.2579	19697.8	45.3984	19697.8	52.3962	19697.8	42.9	19697.8	63.661	19697.8	43.111	19697.8	58.2821	19697.8	40.0711	19697.8	24.0673	19697.8	32.762	19697.8	22.2946	19697.8	42.462	19697.8	41.3022	19697.8	39.7355	19697.8	45.0125	19697.8	44.3209	19697.8	44.9223	19697.8	46.2032
19999.5	81.813	19999.5	81.9507	19999.5	80.9364	19999.5	80.3764	19999.5	77.6142	19999.5	77.1544	19999.5	74.8504	19999.5	73.378	19999.5	69.7956	19999.5	66.9038	19999.5	59.6191	19999.5	61.5658	19999.5	54.4823	19999.5	55.8429	19999.5	53.801	19999.5	49.3276	19999.5	56.7342	19999.5	46.3497	19999.5	62.0334	19999.5	42.5859	19999.5	51.5837	19999.5	42.5712	19999.5	63.1562	19999.5	39.3422	19999.5	57.1644	19999.5	35.1252	19999.5	36.1908	19999.5	41.7637	19999.5	42.0915	19999.5	39.8775	19999.5	47.999	19999.5	39.4155	19999.5	42.2742	19999.5	44.6115	19999.5	44.8588	19999.5	45.6606
