"SPL Horizontal"																																																																							
"On-Axis"		"10°"		"-10°"		"20°"		"-20°"		"30°"		"-30°"		"40°"		"-40°"		"50°"		"-50°"		"60°"		"-60°"		"70°"		"-70°"		"80°"		"-80°"		"90°"		"-90°"		"100°"		"-100°"		"110°"		"-110°"		"120°"		"-120°"		"130°"		"-130°"		"140°"		"-140°"		"150°"		"-150°"		"160°"		"-160°"		"170°"		"-170°"		"180°"	
"Frequency [Hz]"	"Sound Pessure Level [dB]  / [2.83V 1m] "	"Frequency [Hz]"	"Sound Pessure Level [dB]  / [2.83V 1m] "	"Frequency [Hz]"	"Sound Pessure Level [dB]  / [2.83V 1m] "	"Frequency [Hz]"	"Sound Pessure Level [dB]  / [2.83V 1m] "	"Frequency [Hz]"	"Sound Pessure Level [dB]  / [2.83V 1m] "	"Frequency [Hz]"	"Sound Pessure Level [dB]  / [2.83V 1m] "	"Frequency [Hz]"	"Sound Pessure Level [dB]  / [2.83V 1m] "	"Frequency [Hz]"	"Sound Pessure Level [dB]  / [2.83V 1m] "	"Frequency [Hz]"	"Sound Pessure Level [dB]  / [2.83V 1m] "	"Frequency [Hz]"	"Sound Pessure Level [dB]  / [2.83V 1m] "	"Frequency [Hz]"	"Sound Pessure Level [dB]  / [2.83V 1m] "	"Frequency [Hz]"	"Sound Pessure Level [dB]  / [2.83V 1m] "	"Frequency [Hz]"	"Sound Pessure Level [dB]  / [2.83V 1m] "	"Frequency [Hz]"	"Sound Pessure Level [dB]  / [2.83V 1m] "	"Frequency [Hz]"	"Sound Pessure Level [dB]  / [2.83V 1m] "	"Frequency [Hz]"	"Sound Pessure Level [dB]  / [2.83V 1m] "	"Frequency [Hz]"	"Sound Pessure Level [dB]  / [2.83V 1m] "	"Frequency [Hz]"	"Sound Pessure Level [dB]  / [2.83V 1m] "	"Frequency [Hz]"	"Sound Pessure Level [dB]  / [2.83V 1m] "	"Frequency [Hz]"	"Sound Pessure Level [dB]  / [2.83V 1m] "	"Frequency [Hz]"	"Sound Pessure Level [dB]  / [2.83V 1m] "	"Frequency [Hz]"	"Sound Pessure Level [dB]  / [2.83V 1m] "	"Frequency [Hz]"	"Sound Pessure Level [dB]  / [2.83V 1m] "	"Frequency [Hz]"	"Sound Pessure Level [dB]  / [2.83V 1m] "	"Frequency [Hz]"	"Sound Pessure Level [dB]  / [2.83V 1m] "	"Frequency [Hz]"	"Sound Pessure Level [dB]  / [2.83V 1m] "	"Frequency [Hz]"	"Sound Pessure Level [dB]  / [2.83V 1m] "	"Frequency [Hz]"	"Sound Pessure Level [dB]  / [2.83V 1m] "	"Frequency [Hz]"	"Sound Pessure Level [dB]  / [2.83V 1m] "	"Frequency [Hz]"	"Sound Pessure Level [dB]  / [2.83V 1m] "	"Frequency [Hz]"	"Sound Pessure Level [dB]  / [2.83V 1m] "	"Frequency [Hz]"	"Sound Pessure Level [dB]  / [2.83V 1m] "	"Frequency [Hz]"	"Sound Pessure Level [dB]  / [2.83V 1m] "	"Frequency [Hz]"	"Sound Pessure Level [dB]  / [2.83V 1m] "	"Frequency [Hz]"	"Sound Pessure Level [dB]  / [2.83V 1m] "	"Frequency [Hz]"	"Sound Pessure Level [dB]  / [2.83V 1m] "
20.1416	61.7899	20.1416	61.7845	20.1416	61.7803	20.1416	61.7686	20.1416	61.7568	20.1416	61.7525	20.1416	61.7262	20.1416	61.7519	20.1416	61.7013	20.1416	61.7875	20.1416	61.7002	20.1416	61.8819	20.1416	61.7454	20.1416	62.0555	20.1416	61.86	20.1416	62.3205	20.1416	62.0626	20.1416	62.6762	20.1416	62.3613	20.1416	63.1066	20.1416	62.7493	20.1416	63.584	20.1416	63.2054	20.1416	64.074	20.1416	63.6981	20.1416	64.5418	20.1416	64.1919	20.1416	64.9566	20.1416	64.6528	20.1416	65.2932	20.1416	65.0517	20.1416	65.5331	20.1416	65.3656	20.1416	65.6638	20.1416	65.5782	20.1416	65.6792
20.5078	60.8688	20.5078	60.8523	20.5078	60.8243	20.5078	60.7806	20.5078	60.719	20.5078	60.6658	20.5078	60.5594	20.5078	60.5287	20.5078	60.3606	20.5078	60.3998	20.5078	60.1487	20.5078	60.3195	20.5078	59.9637	20.5078	60.3337	20.5078	59.8589	20.5078	60.4824	20.5078	59.8913	20.5078	60.7844	20.5078	60.1035	20.5078	61.2273	20.5078	60.5023	20.5078	61.77	20.5078	61.0528	20.5078	62.3564	20.5078	61.6919	20.5078	62.9299	20.5078	62.3498	20.5078	63.443	20.5078	62.9667	20.5078	63.8599	20.5078	63.4977	20.5078	64.1558	20.5078	63.9127	20.5078	64.3147	20.5078	64.1928	20.5078	64.3279
21.2402	61.5042	21.2402	61.4821	21.2402	61.4795	21.2402	61.4175	21.2402	61.4135	21.2402	61.3243	21.2402	61.3216	21.2402	61.2284	21.2402	61.2311	21.2402	61.1678	21.2402	61.181	21.2402	61.1906	21.2402	61.2196	21.2402	61.3451	21.2402	61.3938	21.2402	61.6643	21.2402	61.7329	21.2402	62.1503	21.2402	62.2346	21.2402	62.7703	21.2402	62.8633	21.2402	63.4691	21.2402	63.5631	21.2402	64.1856	21.2402	64.274	21.2402	64.8661	21.2402	64.9442	21.2402	65.469	21.2402	65.5337	21.2402	65.9647	21.2402	66.0143	21.2402	66.3333	21.2402	66.3667	21.2402	66.5624	21.2402	66.5792	21.2402	66.6451
21.9727	63.3202	21.9727	63.2568	21.9727	63.2967	21.9727	63.109	21.9727	63.1882	21.9727	62.8843	21.9727	63.0011	21.9727	62.5986	21.9727	62.7492	21.9727	62.2813	21.9727	62.4574	21.9727	61.9806	21.9727	62.1673	21.9727	61.766	21.9727	61.9406	21.9727	61.7182	21.9727	61.8529	21.9727	61.9002	21.9727	61.9716	21.9727	62.3227	21.9727	62.3229	21.9727	62.9336	21.9727	62.873	21.9727	63.6431	21.9727	63.5438	21.9727	64.3605	21.9727	64.2459	21.9727	65.014	21.9727	64.9033	21.9727	65.5548	21.9727	65.4619	21.9727	65.9526	21.9727	65.8863	21.9727	66.1898	21.9727	66.1555	21.9727	66.2581
22.7051	61.8884	22.7051	61.786	22.7051	61.8494	22.7051	61.5442	22.7051	61.6699	22.7051	61.171	22.7051	61.3552	22.7051	60.6881	22.7051	60.9202	22.7051	60.1464	22.7051	60.4017	22.7051	59.6486	22.7051	59.8781	22.7051	59.3625	22.7051	59.4901	22.7051	59.4736	22.7051	59.4248	22.7051	60.0602	22.7051	59.8184	22.7051	61.0187	22.7051	60.6407	22.7051	62.1497	22.7051	61.7172	22.7051	63.2802	22.7051	62.8567	22.7051	64.3036	22.7051	63.9263	22.7051	65.1649	22.7051	64.8526	22.7051	65.838	22.7051	65.5997	22.7051	66.3116	22.7051	66.1513	22.7051	66.5807	22.7051	66.5003	22.7051	66.6437
23.8037	63.5846	23.8037	63.5712	23.8037	63.5413	23.8037	63.5124	23.8037	63.4488	23.8037	63.4394	23.8037	63.3346	23.8037	63.4048	23.8037	63.25	23.8037	63.4801	23.8037	63.2691	23.8037	63.7398	23.8037	63.4748	23.8037	64.2314	23.8037	63.9268	23.8037	64.9487	23.8037	64.6279	23.8037	65.8332	23.8037	65.5199	23.8037	66.8016	23.8037	66.5128	23.8037	67.7745	23.8037	67.5196	23.8037	68.6906	23.8037	68.4734	23.8037	69.5077	23.8037	69.3288	23.8037	70.1985	23.8037	70.0572	23.8037	70.7454	23.8037	70.6406	23.8037	71.1377	23.8037	71.0684	23.8037	71.3686	23.8037	71.3341	23.8037	71.4345
24.5361	66.0432	24.5361	66.0286	24.5361	66.0036	24.5361	65.9677	24.5361	65.9162	24.5361	65.8824	24.5361	65.802	24.5361	65.8115	24.5361	65.6995	24.5361	65.8101	24.5361	65.6659	24.5361	65.9424	24.5361	65.7691	24.5361	66.2621	24.5361	66.0688	24.5361	66.7886	24.5361	66.5885	24.5361	67.4944	24.5361	67.3011	24.5361	68.3168	24.5361	68.1403	24.5361	69.1819	24.5361	69.0274	24.5361	70.0238	24.5361	69.8933	24.5361	70.7926	24.5361	70.686	24.5361	71.4535	24.5361	71.3699	24.5361	71.9837	24.5361	71.9219	24.5361	72.3683	24.5361	72.3276	24.5361	72.5983	24.5361	72.5781	24.5361	72.6687
25.2686	67.1226	25.2686	67.1276	25.2686	67.0965	25.2686	67.1188	25.2686	67.058	25.2686	67.1197	25.2686	67.0328	25.2686	67.1691	25.2686	67.0623	25.2686	67.3164	25.2686	67.1994	25.2686	67.6098	25.2686	67.4943	25.2686	68.0787	25.2686	67.976	25.2686	68.7187	25.2686	68.6362	25.2686	69.4914	25.2686	69.4314	25.2686	70.3387	25.2686	70.2989	25.2686	71.1997	25.2686	71.1758	25.2686	72.0226	25.2686	72.01	25.2686	72.7676	25.2686	72.7623	25.2686	73.4066	25.2686	73.4054	25.2686	73.9201	25.2686	73.9208	25.2686	74.295	25.2686	74.2962	25.2686	74.5233	25.2686	74.5241	25.2686	74.6001
26.3672	71.6581	26.3672	71.6431	26.3672	71.6658	26.3672	71.625	26.3672	71.671	26.3672	71.617	26.3672	71.6874	26.3672	71.6411	26.3672	71.7366	26.3672	71.726	26.3672	71.8461	26.3672	71.9024	26.3672	72.0439	26.3672	72.1945	26.3672	72.3514	26.3672	72.6113	26.3672	72.7752	26.3672	73.1411	26.3672	73.303	26.3672	73.7538	26.3672	73.9056	26.3672	74.4082	26.3672	74.5442	26.3672	75.061	26.3672	75.1779	26.3672	75.6734	26.3672	75.7698	26.3672	76.2135	26.3672	76.2894	26.3672	76.6576	26.3672	76.7135	26.3672	76.9884	26.3672	77.0251	26.3672	77.1947	26.3672	77.2129	26.3672	77.2701
27.0996	73.2234	27.0996	73.2132	27.0996	73.2283	27.0996	73.2018	27.0996	73.2318	27.0996	73.2014	27.0996	73.2457	27.0996	73.2319	27.0996	73.2892	27.0996	73.3188	27.0996	73.3867	27.0996	73.4891	27.0996	73.5639	27.0996	73.7647	27.0996	73.8416	27.0996	74.1541	27.0996	74.2281	27.0996	74.6482	27.0996	74.7148	27.0996	75.2206	27.0996	75.2772	27.0996	75.8345	27.0996	75.88	27.0996	76.4497	27.0996	76.4844	27.0996	77.029	27.0996	77.0543	27.0996	77.5412	27.0996	77.5588	27.0996	77.9625	27.0996	77.974	27.0996	78.2752	27.0996	78.2821	27.0996	78.4678	27.0996	78.471	27.0996	78.5337
28.1982	75.806	28.1982	75.8015	28.1982	75.8144	28.1982	75.8043	28.1982	75.8299	28.1982	75.824	28.1982	75.8615	28.1982	75.8758	28.1982	75.9241	28.1982	75.9789	28.1982	76.0359	28.1982	76.1534	28.1982	76.2161	28.1982	76.4149	28.1982	76.4794	28.1982	76.7698	28.1982	76.8321	28.1982	77.2111	28.1982	77.2676	28.1982	77.719	28.1982	77.7673	28.1982	78.2642	28.1982	78.3031	28.1982	78.8132	28.1982	78.8431	28.1982	79.3337	28.1982	79.3555	28.1982	79.7971	28.1982	79.8122	28.1982	80.1804	28.1982	80.1902	28.1982	80.4663	28.1982	80.4721	28.1982	80.6429	28.1982	80.6455	28.1982	80.7033
29.2969	78.1371	29.2969	78.1429	29.2969	78.1439	29.2969	78.1642	29.2969	78.1659	29.2969	78.2085	29.2969	78.2103	29.2969	78.2875	29.2969	78.2887	29.2969	78.4156	29.2969	78.4154	29.2969	78.607	29.2969	78.6045	29.2969	78.8722	29.2969	78.8669	29.2969	79.2143	29.2969	79.2059	29.2969	79.6268	29.2969	79.6157	29.2969	80.0932	29.2969	80.08	29.2969	80.5897	29.2969	80.5752	29.2969	81.0883	29.2969	81.0737	29.2969	81.5613	29.2969	81.5475	29.2969	81.9832	29.2969	81.9711	29.2969	82.3327	29.2969	82.3231	29.2969	82.5934	29.2969	82.5867	29.2969	82.7537	29.2969	82.7503	29.2969	82.8067
30.0293	80.0618	30.0293	80.0695	30.0293	80.0698	30.0293	80.0948	30.0293	80.0957	30.0293	80.1433	30.0293	80.1453	30.0293	80.2239	30.0293	80.2278	30.0293	80.3474	30.0293	80.3539	30.0293	80.5248	30.0293	80.5346	30.0293	80.7642	30.0293	80.7778	30.0293	81.0687	30.0293	81.086	30.0293	81.4336	30.0293	81.4541	30.0293	81.8464	30.0293	81.8691	30.0293	82.2879	30.0293	82.3114	30.0293	82.7345	30.0293	82.7576	30.0293	83.1616	30.0293	83.1829	30.0293	83.5458	30.0293	83.5642	30.0293	83.8669	30.0293	83.8814	30.0293	84.1086	30.0293	84.1187	30.0293	84.2594	30.0293	84.2646	30.0293	84.3122
31.1279	82.349	31.1279	82.354	31.1279	82.361	31.1279	82.3775	31.1279	82.3914	31.1279	82.424	31.1279	82.4446	31.1279	82.5005	31.1279	82.5273	31.1279	82.6152	31.1279	82.6477	31.1279	82.7767	31.1279	82.8137	31.1279	82.9915	31.1279	83.0317	31.1279	83.2621	31.1279	83.3036	31.1279	83.5849	31.1279	83.6261	31.1279	83.9501	31.1279	83.9891	31.1279	84.3417	31.1279	84.3772	31.1279	84.7398	31.1279	84.7708	31.1279	85.1226	31.1279	85.1484	31.1279	85.4687	31.1279	85.4892	31.1279	85.7593	31.1279	85.7745	31.1279	85.979	31.1279	85.989	31.1279	86.1163	31.1279	86.1212	31.1279	86.1645
32.2266	84.5034	32.2266	84.5132	32.2266	84.5114	32.2266	84.5421	32.2266	84.5385	32.2266	84.5934	32.2266	84.5881	32.2266	84.6723	32.2266	84.6651	32.2266	84.785	32.2266	84.776	32.2266	84.9377	32.2266	84.927	32.2266	85.1352	32.2266	85.1228	32.2266	85.3793	32.2266	85.3654	32.2266	85.6671	32.2266	85.6519	32.2266	85.9906	32.2266	85.9745	32.2266	86.3369	32.2266	86.3205	32.2266	86.6891	32.2266	86.6731	32.2266	87.0284	32.2266	87.0136	32.2266	87.336	32.2266	87.323	32.2266	87.5944	32.2266	87.584	32.2266	87.7892	32.2266	87.782	32.2266	87.9098	32.2266	87.9061	32.2266	87.9494
33.3252	86.2513	33.3252	86.2613	33.3252	86.26	33.3252	86.2911	33.3252	86.2885	33.3252	86.3431	33.3252	86.3395	33.3252	86.4212	33.3252	86.4167	33.3252	86.5302	33.3252	86.5251	33.3252	86.6747	33.3252	86.6694	33.3252	86.8583	33.3252	86.8531	33.3252	87.0821	33.3252	87.0772	33.3252	87.3436	33.3252	87.3393	33.3252	87.6361	33.3252	87.6326	33.3252	87.9487	33.3252	87.946	33.3252	88.267	33.3252	88.265	33.3252	88.5744	33.3252	88.5732	33.3252	88.8542	33.3252	88.8534	33.3252	89.0903	33.3252	89.0899	33.3252	89.2692	33.3252	89.2691	33.3252	89.3809	33.3252	89.3808	33.3252	89.4188
34.79	88.5023	34.79	88.5112	34.79	88.5124	34.79	88.5399	34.79	88.5424	34.79	88.59	34.79	88.5939	34.79	88.6642	34.79	88.6697	34.79	88.7657	34.79	88.7729	34.79	88.8977	34.79	88.9067	34.79	89.0623	34.79	89.0733	34.79	89.2603	34.79	89.2731	34.79	89.4895	34.79	89.5038	34.79	89.7445	34.79	89.7598	34.79	90.0166	34.79	90.0324	34.79	90.294	34.79	90.3095	34.79	90.5629	34.79	90.5773	34.79	90.8086	34.79	90.8212	34.79	91.0171	34.79	91.0272	34.79	91.1762	34.79	91.1832	34.79	91.2763	34.79	91.28	34.79	91.3116
35.8887	89.99	35.8887	89.9992	35.8887	89.9997	35.8887	90.028	35.8887	90.029	35.8887	90.0775	35.8887	90.0792	35.8887	90.1498	35.8887	90.1522	35.8887	90.2473	35.8887	90.2505	35.8887	90.3722	35.8887	90.3764	35.8887	90.5263	35.8887	90.5314	35.8887	90.7096	35.8887	90.7156	35.8887	90.9202	35.8887	90.9269	35.8887	91.1532	35.8887	91.1606	35.8887	91.4012	35.8887	91.4088	35.8887	91.6536	35.8887	91.6611	35.8887	91.8982	35.8887	91.9053	35.8887	92.1219	35.8887	92.1281	35.8887	92.3119	35.8887	92.3169	35.8887	92.4568	35.8887	92.4602	35.8887	92.5478	35.8887	92.5496	35.8887	92.5794
36.9873	91.2717	36.9873	91.281	36.9873	91.2811	36.9873	91.3093	36.9873	91.3096	36.9873	91.3575	36.9873	91.358	36.9873	91.4272	36.9873	91.428	36.9873	91.5202	36.9873	91.5212	36.9873	91.6379	36.9873	91.6393	36.9873	91.7816	36.9873	91.7833	36.9873	91.951	36.9873	91.9531	36.9873	92.1443	36.9873	92.1467	36.9873	92.3572	36.9873	92.3598	36.9873	92.583	36.9873	92.5858	36.9873	92.8126	36.9873	92.8154	36.9873	93.035	36.9873	93.0377	36.9873	93.2385	36.9873	93.241	36.9873	93.4114	36.9873	93.4134	36.9873	93.5434	36.9873	93.5447	36.9873	93.6261	36.9873	93.6268	36.9873	93.6546
38.4521	92.6466	38.4521	92.6566	38.4521	92.6548	38.4521	92.6848	38.4521	92.6813	38.4521	92.7321	38.4521	92.7269	38.4521	92.7992	38.4521	92.7925	38.4521	92.8873	38.4521	92.8792	38.4521	92.9972	38.4521	92.9881	38.4521	93.1296	38.4521	93.1196	38.4521	93.284	38.4521	93.2734	38.4521	93.4583	38.4521	93.4476	38.4521	93.6491	38.4521	93.6386	38.4521	93.8505	38.4521	93.8405	38.4521	94.0546	38.4521	94.0456	38.4521	94.2522	38.4521	94.2443	38.4521	94.4328	38.4521	94.4262	38.4521	94.5861	38.4521	94.5811	38.4521	94.7029	38.4521	94.6995	38.4521	94.7758	38.4521	94.7741	38.4521	94.8001
39.917	93.7427	39.917	93.7528	39.917	93.7504	39.917	93.781	39.917	93.7761	39.917	93.8275	39.917	93.8202	39.917	93.8929	39.917	93.8833	39.917	93.9777	39.917	93.9659	39.917	94.0822	39.917	94.0685	39.917	94.2064	39.917	94.1911	39.917	94.3496	39.917	94.3331	39.917	94.5097	39.917	94.4926	39.917	94.6834	39.917	94.6662	39.917	94.8657	39.917	94.849	39.917	95.0496	39.917	95.0341	39.917	95.227	39.917	95.2133	39.917	95.3889	39.917	95.3774	39.917	95.5262	39.917	95.5172	39.917	95.6305	39.917	95.6244	39.917	95.6954	39.917	95.6923	39.917	95.7164
41.3818	94.806	41.3818	94.8147	41.3818	94.8146	41.3818	94.8409	41.3818	94.8407	41.3818	94.8847	41.3818	94.8843	41.3818	94.9462	41.3818	94.9456	41.3818	95.0257	41.3818	95.0249	41.3818	95.123	41.3818	95.122	41.3818	95.2377	41.3818	95.2366	41.3818	95.369	41.3818	95.3679	41.3818	95.5147	41.3818	95.5137	41.3818	95.672	41.3818	95.6713	41.3818	95.8364	41.3818	95.8359	41.3818	96.0019	41.3818	96.0018	41.3818	96.1615	41.3818	96.1618	41.3818	96.3073	41.3818	96.3078	41.3818	96.4312	41.3818	96.4318	41.3818	96.5259	41.3818	96.5264	41.3818	96.5854	41.3818	96.5857	41.3818	96.6058
42.8467	95.5705	42.8467	95.5798	42.8467	95.5776	42.8467	95.6055	42.8467	95.6012	42.8467	95.6475	42.8467	95.6412	42.8467	95.7058	42.8467	95.6976	42.8467	95.7802	42.8467	95.7703	42.8467	95.8703	42.8467	95.859	42.8467	95.9755	42.8467	95.9631	42.8467	96.0946	42.8467	96.0815	42.8467	96.2257	42.8467	96.2125	42.8467	96.3663	42.8467	96.3534	42.8467	96.5123	42.8467	96.5002	42.8467	96.6588	42.8467	96.6478	42.8467	96.7996	42.8467	96.7901	42.8467	96.9279	42.8467	96.9202	42.8467	97.0368	42.8467	97.0309	42.8467	97.1196	42.8467	97.1157	42.8467	97.1713	42.8467	97.1693	42.8467	97.1882
44.3115	96.2393	44.3115	96.249	44.3115	96.245	44.3115	96.2743	44.3115	96.2664	44.3115	96.3148	44.3115	96.3032	44.3115	96.3704	44.3115	96.3553	44.3115	96.4405	44.3115	96.4223	44.3115	96.5246	44.3115	96.5037	44.3115	96.6218	44.3115	96.5989	44.3115	96.731	44.3115	96.7066	44.3115	96.8502	44.3115	96.8253	44.3115	96.9771	44.3115	96.9524	44.3115	97.1082	44.3115	97.0845	44.3115	97.239	44.3115	97.2172	44.3115	97.3643	44.3115	97.3451	44.3115	97.4781	44.3115	97.462	44.3115	97.5743	44.3115	97.5619	44.3115	97.6471	44.3115	97.6387	44.3115	97.692	44.3115	97.6877	44.3115	97.7059
45.7764	96.7725	45.7764	96.7835	45.7764	96.7761	45.7764	96.8091	45.7764	96.7944	45.7764	96.8489	45.7764	96.8273	45.7764	96.9024	45.7764	96.8745	45.7764	96.9689	45.7764	96.9356	45.7764	97.0477	45.7764	97.0099	45.7764	97.1378	45.7764	97.0966	45.7764	97.2378	45.7764	97.1946	45.7764	97.3461	45.7764	97.3022	45.7764	97.4603	45.7764	97.4171	45.7764	97.5775	45.7764	97.5364	45.7764	97.6938	45.7764	97.6561	45.7764	97.8047	45.7764	97.7714	45.7764	97.9049	45.7764	97.8772	45.7764	97.9892	45.7764	97.9677	45.7764	98.0525	45.7764	98.0379	45.7764	98.0908	45.7764	98.0834	45.7764	98.1014
47.2412	97.1519	47.2412	97.1633	47.2412	97.1547	47.2412	97.1886	47.2412	97.1716	47.2412	97.2275	47.2412	97.2025	47.2412	97.2793	47.2412	97.247	47.2412	97.3432	47.2412	97.3044	47.2412	97.4183	47.2412	97.3741	47.2412	97.5033	47.2412	97.4549	47.2412	97.5969	47.2412	97.5457	47.2412	97.6972	47.2412	97.6449	47.2412	97.8022	47.2412	97.7503	47.2412	97.9091	47.2412	97.8592	47.2412	98.0144	47.2412	97.9683	47.2412	98.1141	47.2412	98.0732	47.2412	98.2037	47.2412	98.1693	47.2412	98.2786	47.2412	98.2518	47.2412	98.3344	47.2412	98.3161	47.2412	98.3675	47.2412	98.3582	47.2412	98.3757
49.0723	97.5467	49.0723	97.5557	49.0723	97.5512	49.0723	97.578	49.0723	97.5692	49.0723	97.6132	49.0723	97.6002	49.0723	97.6606	49.0723	97.6438	49.0723	97.7193	49.0723	97.699	49.0723	97.7881	49.0723	97.765	49.0723	97.8658	49.0723	97.8405	49.0723	97.9509	49.0723	97.9242	49.0723	98.0417	49.0723	98.0145	49.0723	98.1362	49.0723	98.1093	49.0723	98.2319	49.0723	98.2062	49.0723	98.326	49.0723	98.3023	49.0723	98.4148	49.0723	98.3941	49.0723	98.4948	49.0723	98.4774	49.0723	98.5618	49.0723	98.5484	49.0723	98.6122	49.0723	98.6031	49.0723	98.6428	49.0723	98.6382	49.0723	98.6517
50.9033	97.8874	50.9033	97.8951	50.9033	97.8925	50.9033	97.9155	50.9033	97.9103	50.9033	97.9482	50.9033	97.9404	50.9033	97.9922	50.9033	97.9821	50.9033	98.0467	50.9033	98.0344	50.9033	98.1104	50.9033	98.0962	50.9033	98.1819	50.9033	98.1662	50.9033	98.2597	50.9033	98.2429	50.9033	98.342	50.9033	98.3247	50.9033	98.427	50.9033	98.4097	50.9033	98.5125	50.9033	98.4958	50.9033	98.596	50.9033	98.5805	50.9033	98.6744	50.9033	98.6607	50.9033	98.7447	50.9033	98.7332	50.9033	98.8035	50.9033	98.7946	50.9033	98.8477	50.9033	98.8416	50.9033	98.8747	50.9033	98.8717	50.9033	98.8829
52.7344	98.1865	52.7344	98.1938	52.7344	98.1913	52.7344	98.2129	52.7344	98.2081	52.7344	98.2434	52.7344	98.2362	52.7344	98.2844	52.7344	98.275	52.7344	98.3347	52.7344	98.3234	52.7344	98.3932	52.7344	98.3803	52.7344	98.4584	52.7344	98.4441	52.7344	98.5286	52.7344	98.5135	52.7344	98.6023	52.7344	98.5868	52.7344	98.6777	52.7344	98.6623	52.7344	98.7528	52.7344	98.7381	52.7344	98.8255	52.7344	98.812	52.7344	98.8934	52.7344	98.8816	52.7344	98.9539	52.7344	98.9441	52.7344	99.0043	52.7344	98.9968	52.7344	99.0422	52.7344	99.037	52.7344	99.0653	52.7344	99.0627	52.7344	99.0723
54.5654	98.4546	54.5654	98.462	54.5654	98.4586	54.5654	98.4804	54.5654	98.4737	54.5654	98.5093	54.5654	98.4996	54.5654	98.5479	54.5654	98.5352	54.5654	98.595	54.5654	98.5797	54.5654	98.6491	54.5654	98.6317	54.5654	98.7089	54.5654	98.6898	54.5654	98.7728	54.5654	98.7526	54.5654	98.839	54.5654	98.8184	54.5654	98.9061	54.5654	98.8857	54.5654	98.9723	54.5654	98.9527	54.5654	99.0357	54.5654	99.0177	54.5654	99.0943	54.5654	99.0785	54.5654	99.1462	54.5654	99.1329	54.5654	99.189	54.5654	99.1788	54.5654	99.2209	54.5654	99.2139	54.5654	99.24	54.5654	99.2365	54.5654	99.2453
56.3965	98.6766	56.3965	98.6834	56.3965	98.6805	56.3965	98.7008	56.3965	98.695	56.3965	98.7282	56.3965	98.7196	56.3965	98.7645	56.3965	98.7534	56.3965	98.8087	56.3965	98.7953	56.3965	98.8594	56.3965	98.844	56.3965	98.9148	56.3965	98.8979	56.3965	98.9736	56.3965	98.9557	56.3965	99.034	56.3965	99.0156	56.3965	99.0946	56.3965	99.0762	56.3965	99.1536	56.3965	99.136	56.3965	99.2097	56.3965	99.1934	56.3965	99.261	56.3965	99.2466	56.3965	99.3059	56.3965	99.2939	56.3965	99.3428	56.3965	99.3335	56.3965	99.3701	56.3965	99.3637	56.3965	99.3863	56.3965	99.3831	56.3965	99.3908
58.2275	98.8703	58.2275	98.8761	58.2275	98.8746	58.2275	98.8918	58.2275	98.8888	58.2275	98.9169	58.2275	98.9123	58.2275	98.9503	58.2275	98.9442	58.2275	98.9909	58.2275	98.9834	58.2275	99.0373	58.2275	99.0283	58.2275	99.0878	58.2275	99.0776	58.2275	99.141	58.2275	99.1297	58.2275	99.1951	58.2275	99.183	58.2275	99.2486	58.2275	99.2363	58.2275	99.3003	58.2275	99.288	58.2275	99.3487	58.2275	99.337	58.2275	99.3925	58.2275	99.3819	58.2275	99.4305	58.2275	99.4214	58.2275	99.4614	58.2275	99.4541	58.2275	99.484	58.2275	99.479	58.2275	99.4975	58.2275	99.4949	58.2275	99.5012
60.4248	99.1799	60.4248	99.185	60.4248	99.1841	60.4248	99.1993	60.4248	99.1973	60.4248	99.2221	60.4248	99.2191	60.4248	99.2526	60.4248	99.2484	60.4248	99.2895	60.4248	99.2841	60.4248	99.3314	60.4248	99.3247	60.4248	99.3767	60.4248	99.3688	60.4248	99.4239	60.4248	99.4149	60.4248	99.4714	60.4248	99.4616	60.4248	99.5179	60.4248	99.5076	60.4248	99.562	60.4248	99.5516	60.4248	99.6028	60.4248	99.5927	60.4248	99.6392	60.4248	99.6299	60.4248	99.6703	60.4248	99.6623	60.4248	99.6953	60.4248	99.6889	60.4248	99.7134	60.4248	99.709	60.4248	99.7241	60.4248	99.7218	60.4248	99.7269
62.6221	99.3435	62.6221	99.3473	62.6221	99.3483	62.6221	99.3594	62.6221	99.3613	62.6221	99.3794	62.6221	99.3819	62.6221	99.4062	62.6221	99.4093	62.6221	99.4388	62.6221	99.4421	62.6221	99.4758	62.6221	99.4791	62.6221	99.5155	62.6221	99.5186	62.6221	99.5565	62.6221	99.5592	62.6221	99.5974	62.6221	99.5995	62.6221	99.6368	62.6221	99.6384	62.6221	99.6737	62.6221	99.6747	62.6221	99.7072	62.6221	99.7078	62.6221	99.7367	62.6221	99.7369	62.6221	99.7616	62.6221	99.7616	62.6221	99.7814	62.6221	99.7813	62.6221	99.7959	62.6221	99.7958	62.6221	99.8047	62.6221	99.8046	62.6221	99.8076
64.8193	99.5482	64.8193	99.5508	64.8193	99.5531	64.8193	99.5609	64.8193	99.5652	64.8193	99.5778	64.8193	99.584	64.8193	99.6007	64.8193	99.6086	64.8193	99.6285	64.8193	99.6376	64.8193	99.6599	64.8193	99.6697	64.8193	99.6933	64.8193	99.7035	64.8193	99.7272	64.8193	99.7375	64.8193	99.7605	64.8193	99.7704	64.8193	99.7919	64.8193	99.8012	64.8193	99.8206	64.8193	99.8291	64.8193	99.8459	64.8193	99.8535	64.8193	99.8675	64.8193	99.8741	64.8193	99.8854	64.8193	99.8907	64.8193	99.8993	64.8193	99.9035	64.8193	99.9095	64.8193	99.9123	64.8193	99.9159	64.8193	99.9173	64.8193	99.9185
67.0166	99.7122	67.0166	99.7125	67.0166	99.7184	67.0166	99.7193	67.0166	99.7309	67.0166	99.732	67.0166	99.7489	67.0166	99.7498	67.0166	99.7716	67.0166	99.7718	67.0166	99.7977	67.0166	99.7965	67.0166	99.8258	67.0166	99.8228	67.0166	99.8546	67.0166	99.8491	67.0166	99.8825	67.0166	99.8745	67.0166	99.9085	67.0166	99.8978	67.0166	99.9315	67.0166	99.9185	67.0166	99.951	67.0166	99.9363	67.0166	99.9666	67.0166	99.9511	67.0166	99.9783	67.0166	99.9633	67.0166	99.9863	67.0166	99.973	67.0166	99.9911	67.0166	99.9807	67.0166	99.9932	67.0166	99.9865	67.0166	99.9929	67.0166	99.9906
69.2139	99.861	69.2139	99.8575	69.2139	99.8707	69.2139	99.8601	69.2139	99.8862	69.2139	99.8685	69.2139	99.9067	69.2139	99.8818	69.2139	99.9314	69.2139	99.8993	69.2139	99.9588	69.2139	99.9195	69.2139	99.9875	69.2139	99.9415	69.2139	100.016	69.2139	99.9638	69.2139	100.043	69.2139	99.9854	69.2139	100.067	69.2139	100.006	69.2139	100.087	69.2139	100.024	69.2139	100.103	69.2139	100.04	69.2139	100.114	69.2139	100.054	69.2139	100.12	69.2139	100.066	69.2139	100.122	69.2139	100.077	69.2139	100.121	69.2139	100.086	69.2139	100.117	69.2139	100.095	69.2139	100.111	69.2139	100.104
71.7773	100.033	71.7773	100.031	71.7773	100.041	71.7773	100.035	71.7773	100.056	71.7773	100.046	71.7773	100.075	71.7773	100.061	71.7773	100.1	71.7773	100.08	71.7773	100.127	71.7773	100.102	71.7773	100.156	71.7773	100.126	71.7773	100.185	71.7773	100.149	71.7773	100.213	71.7773	100.172	71.7773	100.239	71.7773	100.193	71.7773	100.26	71.7773	100.212	71.7773	100.277	71.7773	100.228	71.7773	100.29	71.7773	100.241	71.7773	100.297	71.7773	100.253	71.7773	100.301	71.7773	100.263	71.7773	100.301	71.7773	100.272	71.7773	100.298	71.7773	100.28	71.7773	100.293	71.7773	100.287
74.3408	100.184	74.3408	100.183	74.3408	100.192	74.3408	100.188	74.3408	100.205	74.3408	100.199	74.3408	100.224	74.3408	100.214	74.3408	100.247	74.3408	100.234	74.3408	100.273	74.3408	100.256	74.3408	100.301	74.3408	100.279	74.3408	100.33	74.3408	100.303	74.3408	100.357	74.3408	100.325	74.3408	100.382	74.3408	100.346	74.3408	100.403	74.3408	100.363	74.3408	100.419	74.3408	100.378	74.3408	100.431	74.3408	100.391	74.3408	100.439	74.3408	100.401	74.3408	100.442	74.3408	100.409	74.3408	100.442	74.3408	100.417	74.3408	100.439	74.3408	100.423	74.3408	100.435	74.3408	100.429
76.9043	100.284	76.9043	100.284	76.9043	100.29	76.9043	100.29	76.9043	100.301	76.9043	100.3	76.9043	100.316	76.9043	100.315	76.9043	100.336	76.9043	100.333	76.9043	100.359	76.9043	100.353	76.9043	100.383	76.9043	100.374	76.9043	100.407	76.9043	100.394	76.9043	100.429	76.9043	100.413	76.9043	100.45	76.9043	100.43	76.9043	100.466	76.9043	100.443	76.9043	100.479	76.9043	100.453	76.9043	100.487	76.9043	100.461	76.9043	100.492	76.9043	100.466	76.9043	100.492	76.9043	100.47	76.9043	100.491	76.9043	100.474	76.9043	100.488	76.9043	100.477	76.9043	100.484	76.9043	100.48
79.834	100.468	79.834	100.47	79.834	100.47	79.834	100.476	79.834	100.477	79.834	100.486	79.834	100.488	79.834	100.5	79.834	100.503	79.834	100.516	79.834	100.519	79.834	100.532	79.834	100.537	79.834	100.549	79.834	100.555	79.834	100.565	79.834	100.572	79.834	100.579	79.834	100.586	79.834	100.59	79.834	100.598	79.834	100.598	79.834	100.606	79.834	100.603	79.834	100.61	79.834	100.604	79.834	100.612	79.834	100.604	79.834	100.61	79.834	100.603	79.834	100.608	79.834	100.601	79.834	100.605	79.834	100.6	79.834	100.602	79.834	100.6
82.3975	100.633	82.3975	100.64	82.3975	100.63	82.3975	100.65	82.3975	100.629	82.3975	100.662	82.3975	100.632	82.3975	100.676	82.3975	100.637	82.3975	100.691	82.3975	100.643	82.3975	100.705	82.3975	100.65	82.3975	100.717	82.3975	100.657	82.3975	100.727	82.3975	100.663	82.3975	100.734	82.3975	100.667	82.3975	100.736	82.3975	100.669	82.3975	100.734	82.3975	100.668	82.3975	100.728	82.3975	100.666	82.3975	100.718	82.3975	100.662	82.3975	100.705	82.3975	100.658	82.3975	100.692	82.3975	100.654	82.3975	100.679	82.3975	100.653	82.3975	100.668	82.3975	100.654	82.3975	100.659
85.3271	100.63	85.3271	100.63	85.3271	100.633	85.3271	100.634	85.3271	100.639	85.3271	100.641	85.3271	100.648	85.3271	100.651	85.3271	100.66	85.3271	100.662	85.3271	100.672	85.3271	100.674	85.3271	100.684	85.3271	100.686	85.3271	100.695	85.3271	100.696	85.3271	100.704	85.3271	100.704	85.3271	100.71	85.3271	100.708	85.3271	100.712	85.3271	100.709	85.3271	100.711	85.3271	100.706	85.3271	100.706	85.3271	100.701	85.3271	100.699	85.3271	100.693	85.3271	100.691	85.3271	100.685	85.3271	100.683	85.3271	100.678	85.3271	100.676	85.3271	100.673	85.3271	100.671	85.3271	100.67
88.2568	100.711	88.2568	100.709	88.2568	100.716	88.2568	100.71	88.2568	100.726	88.2568	100.716	88.2568	100.737	88.2568	100.724	88.2568	100.752	88.2568	100.734	88.2568	100.767	88.2568	100.746	88.2568	100.782	88.2568	100.757	88.2568	100.797	88.2568	100.769	88.2568	100.809	88.2568	100.778	88.2568	100.819	88.2568	100.785	88.2568	100.825	88.2568	100.79	88.2568	100.826	88.2568	100.791	88.2568	100.825	88.2568	100.791	88.2568	100.82	88.2568	100.789	88.2568	100.812	88.2568	100.786	88.2568	100.804	88.2568	100.784	88.2568	100.796	88.2568	100.784	88.2568	100.79	88.2568	100.786
91.5527	100.714	91.5527	100.711	91.5527	100.721	91.5527	100.71	91.5527	100.73	91.5527	100.712	91.5527	100.742	91.5527	100.716	91.5527	100.756	91.5527	100.722	91.5527	100.771	91.5527	100.729	91.5527	100.786	91.5527	100.736	91.5527	100.8	91.5527	100.743	91.5527	100.812	91.5527	100.749	91.5527	100.821	91.5527	100.754	91.5527	100.827	91.5527	100.758	91.5527	100.829	91.5527	100.76	91.5527	100.827	91.5527	100.76	91.5527	100.822	91.5527	100.761	91.5527	100.813	91.5527	100.762	91.5527	100.803	91.5527	100.764	91.5527	100.792	91.5527	100.768	91.5527	100.782	91.5527	100.774
94.8486	100.854	94.8486	100.86	94.8486	100.849	94.8486	100.866	94.8486	100.844	94.8486	100.871	94.8486	100.839	94.8486	100.876	94.8486	100.835	94.8486	100.88	94.8486	100.832	94.8486	100.881	94.8486	100.828	94.8486	100.88	94.8486	100.825	94.8486	100.877	94.8486	100.82	94.8486	100.87	94.8486	100.815	94.8486	100.861	94.8486	100.808	94.8486	100.848	94.8486	100.8	94.8486	100.834	94.8486	100.791	94.8486	100.817	94.8486	100.781	94.8486	100.801	94.8486	100.772	94.8486	100.786	94.8486	100.764	94.8486	100.773	94.8486	100.758	94.8486	100.763	94.8486	100.755	94.8486	100.757
98.1445	100.899	98.1445	100.9	98.1445	100.9	98.1445	100.9	98.1445	100.901	98.1445	100.901	98.1445	100.902	98.1445	100.902	98.1445	100.902	98.1445	100.903	98.1445	100.902	98.1445	100.903	98.1445	100.901	98.1445	100.902	98.1445	100.898	98.1445	100.899	98.1445	100.892	98.1445	100.893	98.1445	100.884	98.1445	100.884	98.1445	100.874	98.1445	100.873	98.1445	100.861	98.1445	100.859	98.1445	100.846	98.1445	100.844	98.1445	100.831	98.1445	100.828	98.1445	100.816	98.1445	100.813	98.1445	100.803	98.1445	100.8	98.1445	100.793	98.1445	100.791	98.1445	100.787	98.1445	100.786
101.44	100.881	101.44	100.879	101.44	100.882	101.44	100.878	101.44	100.884	101.44	100.876	101.44	100.884	101.44	100.874	101.44	100.885	101.44	100.872	101.44	100.884	101.44	100.87	101.44	100.882	101.44	100.866	101.44	100.878	101.44	100.861	101.44	100.872	101.44	100.854	101.44	100.864	101.44	100.845	101.44	100.854	101.44	100.835	101.44	100.842	101.44	100.823	101.44	100.828	101.44	100.81	101.44	100.813	101.44	100.797	101.44	100.799	101.44	100.786	101.44	100.787	101.44	100.776	101.44	100.777	101.44	100.77	101.44	100.77	101.44	100.768
105.103	100.817	105.103	100.81	105.103	100.823	105.103	100.802	105.103	100.829	105.103	100.794	105.103	100.833	105.103	100.786	105.103	100.837	105.103	100.778	105.103	100.839	105.103	100.77	105.103	100.839	105.103	100.761	105.103	100.837	105.103	100.753	105.103	100.833	105.103	100.745	105.103	100.827	105.103	100.737	105.103	100.818	105.103	100.728	105.103	100.807	105.103	100.721	105.103	100.793	105.103	100.714	105.103	100.778	105.103	100.709	105.103	100.763	105.103	100.705	105.103	100.747	105.103	100.704	105.103	100.733	105.103	100.707	105.103	100.721	105.103	100.712
108.765	100.925	108.765	100.924	108.765	100.923	108.765	100.92	108.765	100.918	108.765	100.913	108.765	100.911	108.765	100.903	108.765	100.9	108.765	100.891	108.765	100.888	108.765	100.876	108.765	100.873	108.765	100.86	108.765	100.857	108.765	100.841	108.765	100.838	108.765	100.821	108.765	100.819	108.765	100.8	108.765	100.799	108.765	100.779	108.765	100.778	108.765	100.758	108.765	100.757	108.765	100.739	108.765	100.738	108.765	100.721	108.765	100.72	108.765	100.706	108.765	100.705	108.765	100.694	108.765	100.694	108.765	100.687	108.765	100.687	108.765	100.685
112.793	100.999	112.793	101	112.793	100.995	112.793	100.999	112.793	100.989	112.793	100.995	112.793	100.981	112.793	100.989	112.793	100.971	112.793	100.98	112.793	100.959	112.793	100.97	112.793	100.945	112.793	100.958	112.793	100.929	112.793	100.944	112.793	100.913	112.793	100.929	112.793	100.895	112.793	100.912	112.793	100.878	112.793	100.894	112.793	100.86	112.793	100.875	112.793	100.843	112.793	100.856	112.793	100.827	112.793	100.839	112.793	100.813	112.793	100.822	112.793	100.802	112.793	100.809	112.793	100.795	112.793	100.799	112.793	100.791	112.793	100.793
116.455	100.949	116.455	100.944	116.455	100.951	116.455	100.935	116.455	100.949	116.455	100.924	116.455	100.944	116.455	100.911	116.455	100.936	116.455	100.896	116.455	100.926	116.455	100.879	116.455	100.914	116.455	100.863	116.455	100.899	116.455	100.846	116.455	100.884	116.455	100.83	116.455	100.868	116.455	100.816	116.455	100.852	116.455	100.802	116.455	100.836	116.455	100.79	116.455	100.821	116.455	100.78	116.455	100.806	116.455	100.772	116.455	100.793	116.455	100.766	116.455	100.781	116.455	100.762	116.455	100.772	116.455	100.76	116.455	100.766	116.455	100.762
120.85	100.966	120.85	100.957	120.85	100.97	120.85	100.943	120.85	100.968	120.85	100.923	120.85	100.961	120.85	100.9	120.85	100.95	120.85	100.873	120.85	100.935	120.85	100.845	120.85	100.917	120.85	100.815	120.85	100.896	120.85	100.787	120.85	100.875	120.85	100.76	120.85	100.852	120.85	100.736	120.85	100.83	120.85	100.715	120.85	100.809	120.85	100.699	120.85	100.788	120.85	100.688	120.85	100.768	120.85	100.681	120.85	100.75	120.85	100.679	120.85	100.733	120.85	100.68	120.85	100.718	120.85	100.686	120.85	100.705	120.85	100.694
124.878	100.923	124.878	100.915	124.878	100.924	124.878	100.901	124.878	100.918	124.878	100.88	124.878	100.905	124.878	100.854	124.878	100.887	124.878	100.823	124.878	100.865	124.878	100.789	124.878	100.839	124.878	100.752	124.878	100.811	124.878	100.716	124.878	100.781	124.878	100.68	124.878	100.75	124.878	100.647	124.878	100.72	124.878	100.617	124.878	100.692	124.878	100.593	124.878	100.665	124.878	100.573	124.878	100.64	124.878	100.56	124.878	100.618	124.878	100.552	124.878	100.598	124.878	100.549	124.878	100.582	124.878	100.551	124.878	100.568	124.878	100.558
129.272	100.856	129.272	100.853	129.272	100.851	129.272	100.843	129.272	100.84	129.272	100.826	129.272	100.821	129.272	100.802	129.272	100.798	129.272	100.772	129.272	100.77	129.272	100.739	129.272	100.739	129.272	100.702	129.272	100.706	129.272	100.664	129.272	100.672	129.272	100.626	129.272	100.639	129.272	100.589	129.272	100.608	129.272	100.556	129.272	100.579	129.272	100.526	129.272	100.552	129.272	100.502	129.272	100.529	129.272	100.483	129.272	100.509	129.272	100.47	129.272	100.492	129.272	100.463	129.272	100.479	129.272	100.46	129.272	100.469	129.272	100.463
134.033	100.752	134.033	100.755	134.033	100.741	134.033	100.749	134.033	100.721	134.033	100.736	134.033	100.695	134.033	100.715	134.033	100.662	134.033	100.689	134.033	100.624	134.033	100.658	134.033	100.584	134.033	100.624	134.033	100.544	134.033	100.589	134.033	100.504	134.033	100.554	134.033	100.468	134.033	100.521	134.033	100.436	134.033	100.491	134.033	100.409	134.033	100.464	134.033	100.389	134.033	100.44	134.033	100.375	134.033	100.421	134.033	100.366	134.033	100.405	134.033	100.363	134.033	100.392	134.033	100.363	134.033	100.381	134.033	100.367	134.033	100.373
138.794	100.679	138.794	100.677	138.794	100.67	138.794	100.667	138.794	100.651	138.794	100.647	138.794	100.624	138.794	100.621	138.794	100.588	138.794	100.589	138.794	100.547	138.794	100.553	138.794	100.501	138.794	100.517	138.794	100.455	138.794	100.481	138.794	100.409	138.794	100.447	138.794	100.368	138.794	100.417	138.794	100.332	138.794	100.392	138.794	100.304	138.794	100.371	138.794	100.284	138.794	100.354	138.794	100.272	138.794	100.34	138.794	100.268	138.794	100.329	138.794	100.271	138.794	100.318	138.794	100.277	138.794	100.308	138.794	100.287	138.794	100.297
143.555	100.611	143.555	100.597	143.555	100.613	143.555	100.571	143.555	100.602	143.555	100.535	143.555	100.581	143.555	100.492	143.555	100.549	143.555	100.442	143.555	100.509	143.555	100.39	143.555	100.464	143.555	100.338	143.555	100.414	143.555	100.288	143.555	100.364	143.555	100.245	143.555	100.317	143.555	100.209	143.555	100.273	143.555	100.182	143.555	100.237	143.555	100.163	143.555	100.207	143.555	100.153	143.555	100.186	143.555	100.148	143.555	100.172	143.555	100.149	143.555	100.164	143.555	100.151	143.555	100.16	143.555	100.154	143.555	100.158	143.555	100.156
148.682	100.454	148.682	100.44	148.682	100.455	148.682	100.411	148.682	100.442	148.682	100.369	148.682	100.417	148.682	100.317	148.682	100.381	148.682	100.257	148.682	100.337	148.682	100.192	148.682	100.288	148.682	100.127	148.682	100.238	148.682	100.065	148.682	100.188	148.682	100.009	148.682	100.142	148.682	99.9643	148.682	100.102	148.682	99.9316	148.682	100.07	148.682	99.9122	148.682	100.045	148.682	99.9054	148.682	100.027	148.682	99.9092	148.682	100.014	148.682	99.9208	148.682	100.004	148.682	99.9367	148.682	99.9942	148.682	99.9538	148.682	99.9833	148.682	99.9698
153.809	100.37	153.809	100.364	153.809	100.356	153.809	100.34	153.809	100.325	153.809	100.298	153.809	100.278	153.809	100.24	153.809	100.216	153.809	100.168	153.809	100.144	153.809	100.088	153.809	100.065	153.809	100.001	153.809	99.9822	153.809	99.9138	153.809	99.9011	153.809	99.8302	153.809	99.8256	153.809	99.755	153.809	99.7592	153.809	99.6917	153.809	99.7043	153.809	99.6426	153.809	99.662	153.809	99.6082	153.809	99.632	153.809	99.5876	153.809	99.6124	153.809	99.5781	153.809	99.6006	153.809	99.5764	153.809	99.5934	153.809	99.5791	153.809	99.5882	153.809	99.5835
159.302	100.422	159.302	100.419	159.302	100.406	159.302	100.399	159.302	100.373	159.302	100.363	159.302	100.323	159.302	100.311	159.302	100.259	159.302	100.248	159.302	100.183	159.302	100.175	159.302	100.099	159.302	100.097	159.302	100.011	159.302	100.017	159.302	99.9234	159.302	99.9392	159.302	99.8414	159.302	99.8676	159.302	99.7691	159.302	99.8049	159.302	99.7097	159.302	99.7531	159.302	99.665	159.302	99.7128	159.302	99.6352	159.302	99.6832	159.302	99.6188	159.302	99.6624	159.302	99.613	159.302	99.6479	159.302	99.6146	159.302	99.6371	159.302	99.6203	159.302	99.6281
164.795	100.372	164.795	100.368	164.795	100.357	164.795	100.345	164.795	100.324	164.795	100.306	164.795	100.274	164.795	100.251	164.795	100.21	164.795	100.185	164.795	100.133	164.795	100.109	164.795	100.048	164.795	100.028	164.795	99.9584	164.795	99.9472	164.795	99.8695	164.795	99.8694	164.795	99.7859	164.795	99.7989	164.795	99.7118	164.795	99.7385	164.795	99.6506	164.795	99.6897	164.795	99.6044	164.795	99.6525	164.795	99.5737	164.795	99.6258	164.795	99.557	164.795	99.6069	164.795	99.5519	164.795	99.5932	164.795	99.5548	164.795	99.5821	164.795	99.5623	164.795	99.5719
170.654	100.179	170.654	100.169	170.654	100.17	170.654	100.139	170.654	100.142	170.654	100.093	170.654	100.095	170.654	100.031	170.654	100.033	170.654	99.9585	170.654	99.959	170.654	99.8789	170.654	99.876	170.654	99.7971	170.654	99.7891	170.654	99.7182	170.654	99.7035	170.654	99.6468	170.654	99.6243	170.654	99.5867	170.654	99.5562	170.654	99.5406	170.654	99.5028	170.654	99.509	170.654	99.4659	170.654	99.4907	170.654	99.4454	170.654	99.4826	170.654	99.4392	170.654	99.4809	170.654	99.4435	170.654	99.4811	170.654	99.4536	170.654	99.4796	170.654	99.4651	170.654	99.4744
176.88	99.8659	176.88	99.8514	176.88	99.8588	176.88	99.8155	176.88	99.8308	176.88	99.7599	176.88	99.7842	176.88	99.6873	176.88	99.7218	176.88	99.6018	176.88	99.6479	176.88	99.5086	176.88	99.5672	176.88	99.4137	176.88	99.4852	176.88	99.3236	176.88	99.4073	176.88	99.2446	176.88	99.3386	176.88	99.182	176.88	99.2832	176.88	99.1393	176.88	99.2434	176.88	99.1176	176.88	99.2196	176.88	99.1153	176.88	99.2099	176.88	99.1283	176.88	99.2105	176.88	99.1508	176.88	99.2163	176.88	99.1764	176.88	99.2218	176.88	99.1992	176.88	99.2225	176.88	99.2152
183.105	99.7428	183.105	99.7395	183.105	99.7201	183.105	99.7105	183.105	99.6725	183.105	99.6572	183.105	99.6025	183.105	99.5824	183.105	99.5135	183.105	99.4903	183.105	99.4108	183.105	99.3862	183.105	99.3003	183.105	99.2766	183.105	99.1892	183.105	99.1687	183.105	99.0848	183.105	99.0698	183.105	98.9942	183.105	98.9866	183.105	98.923	183.105	98.9239	183.105	98.8748	183.105	98.8841	183.105	98.8499	183.105	98.8663	183.105	98.8457	183.105	98.8665	183.105	98.8567	183.105	98.8784	183.105	98.8757	183.105	98.8946	183.105	98.8954	183.105	98.9082	183.105	98.9094	183.105	98.9139
189.331	99.7222	189.331	99.7213	189.331	99.695	189.331	99.6933	189.331	99.6403	189.331	99.6399	189.331	99.5599	189.331	99.5645	189.331	99.4572	189.331	99.4713	189.331	99.3368	189.331	99.3658	189.331	99.2051	189.331	99.2543	189.331	99.0697	189.331	99.1438	189.331	98.9391	189.331	99.0411	189.331	98.822	189.331	98.9522	189.331	98.7262	189.331	98.8814	189.331	98.6575	189.331	98.8306	189.331	98.6181	189.331	98.7986	189.331	98.6068	189.331	98.7814	189.331	98.6185	189.331	98.7731	189.331	98.6457	189.331	98.7671	189.331	98.6797	189.331	98.7571	189.331	98.7127	189.331	98.7394
196.289	99.7051	196.289	99.6846	196.289	99.6939	196.289	99.6338	196.289	99.6512	196.289	99.5557	196.289	99.5785	196.289	99.4545	196.289	99.479	196.289	99.3363	196.289	99.3578	196.289	99.2081	196.289	99.2215	196.289	99.0785	196.289	99.0787	196.289	98.9563	196.289	98.9389	196.289	98.8499	196.289	98.8122	196.289	98.7663	196.289	98.708	196.289	98.7096	196.289	98.6333	196.289	98.6801	196.289	98.5912	196.289	98.6742	196.289	98.5805	196.289	98.6848	196.289	98.5953	196.289	98.7029	196.289	98.6265	196.289	98.7192	196.289	98.6636	196.289	98.7261	196.289	98.6968	196.289	98.7188
202.881	99.6147	202.881	99.582	202.881	99.6139	202.881	99.517	202.881	99.5801	202.881	99.4219	202.881	99.515	202.881	99.3007	202.881	99.4214	202.881	99.159	202.881	99.304	202.881	99.0041	202.881	99.1686	202.881	98.8452	202.881	99.023	202.881	98.6926	202.881	98.8759	202.881	98.5568	202.881	98.7371	202.881	98.4474	202.881	98.6159	202.881	98.3707	202.881	98.52	202.881	98.3291	202.881	98.454	202.881	98.3197	202.881	98.4178	202.881	98.335	202.881	98.407	202.881	98.3646	202.881	98.4133	202.881	98.3972	202.881	98.4267	202.881	98.4234	202.881	98.4371	202.881	98.4371
210.205	99.4087	210.205	99.3876	210.205	99.3959	210.205	99.3327	210.205	99.3504	210.205	99.2454	210.205	99.2748	210.205	99.1288	210.205	99.173	210.205	98.9878	210.205	99.0503	210.205	98.8292	210.205	98.9135	210.205	98.6619	210.205	98.7705	210.205	98.4964	210.205	98.6301	210.205	98.3443	210.205	98.5014	210.205	98.2167	210.205	98.3925	210.205	98.1223	210.205	98.3091	210.205	98.066	210.205	98.2537	210.205	98.047	210.205	98.2242	210.205	98.059	210.205	98.2149	210.205	98.0919	210.205	98.2171	210.205	98.1336	210.205	98.221	210.205	98.1732	210.205	98.218	210.205	98.2025
217.529	99.2309	217.529	99.2186	217.529	99.2081	217.529	99.1712	217.529	99.1518	217.529	99.09	217.529	99.0651	217.529	98.9785	217.529	98.9528	217.529	98.8416	217.529	98.8211	217.529	98.6867	217.529	98.678	217.529	98.523	217.529	98.533	217.529	98.3618	217.529	98.3961	217.529	98.2151	217.529	98.2774	217.529	98.0945	217.529	98.1851	217.529	98.0092	217.529	98.1243	217.529	97.9638	217.529	98.0954	217.529	97.957	217.529	98.094	217.529	97.9819	217.529	98.1115	217.529	98.0269	217.529	98.1367	217.529	98.0786	217.529	98.1581	217.529	98.1244	217.529	98.1661	217.529	98.1551
225.22	99.151	225.22	99.1583	225.22	99.1027	225.22	99.1245	225.22	99.015	225.22	99.0515	225.22	98.8914	225.22	98.9426	225.22	98.7378	225.22	98.8034	225.22	98.562	225.22	98.6413	225.22	98.3749	225.22	98.4665	225.22	98.1892	225.22	98.291	225.22	98.0192	225.22	98.1283	225.22	97.8793	225.22	97.9917	225.22	97.7808	225.22	97.8925	225.22	97.7301	225.22	97.8367	225.22	97.7263	225.22	97.8238	225.22	97.7613	225.22	97.846	225.22	97.821	225.22	97.8899	225.22	97.8886	225.22	97.9395	225.22	97.9479	225.22	97.9791	225.22	97.9862	225.22	97.9967
233.276	99.2133	233.276	99.2116	233.276	99.1702	233.276	99.1677	233.276	99.0812	233.276	99.0854	233.276	98.9473	233.276	98.9701	233.276	98.7717	233.276	98.8283	233.276	98.5606	233.276	98.6681	233.276	98.324	233.276	98.4989	233.276	98.076	233.276	98.3311	233.276	97.8345	233.276	98.1756	233.276	97.6199	233.276	98.0426	233.276	97.4523	233.276	97.9398	233.276	97.3469	233.276	97.8708	233.276	97.3097	233.276	97.834	233.276	97.3356	233.276	97.822	233.276	97.4091	233.276	97.823	233.276	97.509	233.276	97.823	233.276	97.6134	233.276	97.8088	233.276	97.7043	233.276	97.7705
241.333	98.866	241.333	98.8169	241.333	98.8678	241.333	98.7229	241.333	98.8216	241.333	98.5881	241.333	98.7283	241.333	98.4185	241.333	98.5904	241.333	98.2229	241.333	98.4128	241.333	98.0127	241.333	98.2029	241.333	97.802	241.333	97.9719	241.333	97.6066	241.333	97.7343	241.333	97.4423	241.333	97.5081	241.333	97.3222	241.333	97.313	241.333	97.2534	241.333	97.167	241.333	97.235	241.333	97.0822	241.333	97.2572	241.333	97.0608	241.333	97.3039	241.333	97.0944	241.333	97.3559	241.333	97.165	241.333	97.3947	241.333	97.2506	241.333	97.4067	241.333	97.3293	241.333	97.3845
250.122	99.1203	250.122	99.099	250.122	99.0892	250.122	99.0258	250.122	99.0061	250.122	98.9025	250.122	98.8727	250.122	98.7326	250.122	98.6925	250.122	98.5217	250.122	98.4707	250.122	98.2779	250.122	98.2158	250.122	98.0131	250.122	97.9393	250.122	97.7425	250.122	97.6573	250.122	97.4849	250.122	97.3892	250.122	97.2601	250.122	97.1561	250.122	97.0858	250.122	96.9775	250.122	96.9731	250.122	96.8658	250.122	96.9228	250.122	96.8225	250.122	96.9241	250.122	96.8366	250.122	96.9573	250.122	96.8876	250.122	96.9994	250.122	96.951	250.122	97.0292	250.122	97.0045	250.122	97.0324
258.911	98.9358	258.911	98.8983	258.911	98.9263	258.911	98.8153	258.911	98.8697	258.911	98.6896	258.911	98.7671	258.911	98.5261	258.911	98.6213	258.911	98.3313	258.911	98.437	258.911	98.1146	258.911	98.2211	258.911	97.8875	258.911	97.9835	258.911	97.664	258.911	97.7371	258.911	97.4593	258.911	97.4979	258.911	97.2879	258.911	97.2835	258.911	97.1609	258.911	97.1105	258.911	97.0828	258.911	96.9911	258.911	97.0504	258.911	96.9299	258.911	97.0526	258.911	96.9215	258.911	97.0731	258.911	96.9518	258.911	97.0946	258.911	97.0019	258.911	97.1026	258.911	97.0525	258.911	97.0887
268.066	98.46	268.066	98.406	268.066	98.4604	268.066	98.2993	268.066	98.4079	268.066	98.1428	268.066	98.3051	268.066	97.942	268.066	98.1563	268.066	97.7056	268.066	97.9678	268.066	97.4461	268.066	97.7483	268.066	97.1799	268.066	97.5095	268.066	96.9272	268.066	97.2664	268.066	96.7096	268.066	97.0365	268.066	96.5469	268.066	96.8383	268.066	96.4519	268.066	96.6883	268.066	96.4269	268.066	96.5973	268.066	96.4616	268.066	96.5664	268.066	96.536	268.066	96.5863	268.066	96.6254	268.066	96.6389	268.066	96.7058	268.066	96.7016	268.066	96.7588	268.066	96.7524	268.066	96.7744
277.222	98.7023	277.222	98.6804	277.222	98.6649	277.222	98.5978	277.222	98.5711	277.222	98.4548	277.222	98.4259	277.222	98.2542	277.222	98.236	277.222	98.0016	277.222	98.011	277.222	97.7071	277.222	97.7633	277.222	97.3859	277.222	97.5087	277.222	97.0599	277.222	97.2658	277.222	96.757	277.222	97.0543	277.222	96.5082	277.222	96.892	277.222	96.341	277.222	96.7906	277.222	96.2717	277.222	96.7524	277.222	96.2979	277.222	96.7683	277.222	96.3991	277.222	96.8194	277.222	96.5428	277.222	96.8814	277.222	96.6937	277.222	96.9292	277.222	96.8219	277.222	96.9423	277.222	96.9075
287.109	98.5593	287.109	98.5551	287.109	98.5068	287.109	98.4951	287.109	98.3983	287.109	98.3813	287.109	98.236	287.109	98.2171	287.109	98.0246	287.109	98.0082	287.109	97.7718	287.109	97.7625	287.109	97.4897	287.109	97.4917	287.109	97.1951	287.109	97.2116	287.109	96.9097	287.109	96.9419	287.109	96.6583	287.109	96.7049	287.109	96.4647	287.109	96.522	287.109	96.3463	287.109	96.4084	287.109	96.3074	287.109	96.3684	287.109	96.3379	287.109	96.3922	287.109	96.4146	287.109	96.4587	287.109	96.5085	287.109	96.5405	287.109	96.5913	287.109	96.6105	287.109	96.6416	287.109	96.648
297.363	98.5455	297.363	98.5317	297.363	98.4945	297.363	98.4554	297.363	98.3782	297.363	98.3207	297.363	98.1981	297.363	98.1342	297.363	97.9579	297.363	97.9053	297.363	97.6649	297.363	97.6469	297.363	97.3307	297.363	97.3755	297.363	96.9729	297.363	97.111	297.363	96.6161	297.363	96.875	297.363	96.2911	297.363	96.6873	297.363	96.0314	297.363	96.5619	297.363	95.8658	297.363	96.5024	297.363	95.809	297.363	96.5002	297.363	95.8555	297.363	96.5361	297.363	95.9807	297.363	96.5846	297.363	96.1483	297.363	96.6197	297.363	96.321	297.363	96.6197	297.363	96.4683	297.363	96.5704
307.617	98.6567	307.617	98.5768	307.617	98.6598	307.617	98.4233	307.617	98.5858	307.617	98.2026	307.617	98.4372	307.617	97.9255	307.617	98.2198	307.617	97.6081	307.617	97.9436	307.617	97.273	307.617	97.6242	307.617	96.95	307.617	97.2841	307.617	96.6739	307.617	96.9535	307.617	96.479	307.617	96.6686	307.617	96.3906	307.617	96.4657	307.617	96.4157	307.617	96.3724	307.617	96.5395	307.617	96.3968	307.617	96.7294	307.617	96.5237	307.617	96.9443	307.617	96.7187	307.617	97.1442	307.617	96.9387	307.617	97.2965	307.617	97.1423	307.617	97.3785	307.617	97.2964	307.617	97.3787
318.604	98.8573	318.604	98.8056	318.604	98.8216	318.604	98.6657	318.604	98.6998	318.604	98.4379	318.604	98.4938	318.604	98.1241	318.604	98.2074	318.604	97.7299	318.604	97.8476	318.604	97.2671	318.604	97.4269	318.604	96.7575	318.604	96.9666	318.604	96.2373	318.604	96.4998	318.604	95.7596	318.604	96.0727	318.604	95.3901	318.604	95.7398	318.604	95.1887	318.604	95.55	318.604	95.1838	318.604	95.5259	318.604	95.354	318.604	95.6505	318.604	95.6362	318.604	95.8723	318.604	95.9525	318.604	96.1245	318.604	96.234	318.604	96.3446	318.604	96.4317	318.604	96.4855	318.604	96.518
329.956	98.8318	329.956	98.7684	329.956	98.8163	329.956	98.6254	329.956	98.723	329.956	98.4024	329.956	98.5531	329.956	98.1009	329.956	98.3084	329.956	97.7253	329.956	97.9924	329.956	97.2858	329.956	97.6124	329.956	96.8014	329.956	97.1812	329.956	96.304	329.956	96.7211	329.956	95.8402	329.956	96.2661	329.956	95.4677	329.956	95.8623	329.956	95.2407	329.956	95.5611	329.956	95.1874	329.956	95.4032	329.956	95.2932	329.956	95.3999	329.956	95.5044	329.956	95.5242	329.956	95.7505	329.956	95.7201	329.956	95.9665	329.956	95.9229	329.956	96.1059	329.956	96.0769	329.956	96.1438
341.675	98.5092	341.675	98.5248	341.675	98.4062	341.675	98.4513	341.675	98.218	341.675	98.2873	341.675	97.9478	341.675	98.0323	341.675	97.6009	341.675	97.6877	341.675	97.1869	341.675	97.2594	341.675	96.7226	341.675	96.7603	341.675	96.2356	341.675	96.2162	341.675	95.7672	341.675	95.6703	341.675	95.3714	341.675	95.1866	341.675	95.105	341.675	94.8408	341.675	95.0082	341.675	94.6952	341.675	95.0833	341.675	94.7655	341.675	95.2905	341.675	95.0074	341.675	95.5626	341.675	95.3381	341.675	95.8286	341.675	95.6708	341.675	96.0296	341.675	95.9374	341.675	96.1255	341.675	96.0953
353.394	98.7547	353.394	98.7169	353.394	98.7068	353.394	98.5961	353.394	98.5691	353.394	98.3942	353.394	98.3367	353.394	98.1126	353.394	98.0046	353.394	97.7539	353.394	97.5693	353.394	97.3234	353.394	97.0315	353.394	96.8332	353.394	96.4009	353.394	96.3054	353.394	95.7035	353.394	95.7776	353.394	94.9924	353.394	95.304	353.394	94.3559	353.394	94.9483	353.394	93.9081	353.394	94.7633	353.394	93.7433	353.394	94.763	353.394	93.8741	353.394	94.9097	353.394	94.2164	353.394	95.1288	353.394	94.6413	353.394	95.3371	353.394	95.0348	353.394	95.4653	353.394	95.3223	353.394	95.4675
365.845	98.9002	365.845	98.806	365.845	98.915	365.845	98.6312	365.845	98.8496	365.845	98.3729	365.845	98.701	365.845	98.028	365.845	98.4647	365.845	97.5948	365.845	98.1357	365.845	97.0759	365.845	97.71	365.845	96.4828	365.845	97.1878	365.845	95.8419	365.845	96.5777	365.845	95.2022	365.845	95.9038	365.845	94.638	365.845	95.2149	365.845	94.2375	365.845	94.591	365.845	94.0666	365.845	94.1339	365.845	94.1277	365.845	93.9273	365.845	94.3507	365.845	93.9829	365.845	94.6299	365.845	94.2262	365.845	94.8669	365.845	94.539	365.845	94.9935	365.845	94.813	365.845	94.9758
379.028	98.9271	379.028	98.8851	379.028	98.8906	379.028	98.7614	379.028	98.7773	379.028	98.5519	379.028	98.5874	379.028	98.2523	379.028	98.3202	379.028	97.8596	379.028	97.9755	379.028	97.3744	379.028	97.555	379.028	96.8041	379.028	97.0655	379.028	96.169	379.028	96.5235	379.028	95.5093	379.028	95.9599	379.028	94.8923	379.028	95.4247	379.028	94.4087	379.028	94.9844	379.028	94.145	379.028	94.7049	379.028	94.1365	379.028	94.621	379.028	94.3384	379.028	94.7118	379.028	94.649	379.028	94.9067	379.028	94.9599	379.028	95.1163	379.028	95.19	379.028	95.2627	379.028	95.2944
392.212	98.3179	392.212	98.2936	392.212	98.2685	392.212	98.1939	392.212	98.1448	392.212	98.0151	392.212	97.9447	392.212	97.7525	392.212	97.6649	392.212	97.4015	392.212	97.303	392.212	96.9594	392.212	96.8595	392.212	96.4294	392.212	96.3416	392.212	95.825	392.212	95.7681	392.212	95.1789	392.212	95.1764	392.212	94.5516	392.212	94.6274	392.212	94.0335	392.212	94.2013	392.212	93.7235	392.212	93.9727	392.212	93.6783	392.212	93.9711	392.212	93.8693	392.212	94.1553	392.212	94.1944	392.212	94.4323	392.212	94.533	392.212	94.6993	392.212	94.7902	392.212	94.8748	392.212	94.9102
406.128	98.1818	406.128	98.1603	406.128	98.1205	406.128	98.0556	406.128	97.9742	406.128	97.8646	406.128	97.7382	406.128	97.582	406.128	97.4068	406.128	97.2021	406.128	96.9743	406.128	96.7207	406.128	96.4387	406.128	96.1393	406.128	95.806	406.128	95.4714	406.128	95.0988	406.128	94.7534	406.128	94.3697	406.128	94.0577	406.128	93.7132	406.128	93.498	406.128	93.2592	406.128	93.2015	406.128	93.12	406.128	93.2357	406.128	93.3092	406.128	93.5499	406.128	93.7212	406.128	94.0044	406.128	94.1993	406.128	94.4498	406.128	94.6091	406.128	94.7768	406.128	94.8646	406.128	94.9232
420.41	98.3912	420.41	98.3427	420.41	98.3689	420.41	98.2238	420.41	98.2707	420.41	98.0305	420.41	98.0876	420.41	97.7554	420.41	97.8071	420.41	97.3893	420.41	97.4149	420.41	96.9226	420.41	96.8966	420.41	96.349	420.41	96.2405	420.41	95.6695	420.41	95.4429	420.41	94.9013	420.41	94.519	420.41	94.091	420.41	93.5235	420.41	93.3305	420.41	92.5813	420.41	92.7553	420.41	91.8949	420.41	92.491	420.41	91.6571	420.41	92.5603	420.41	91.8819	420.41	92.8507	420.41	92.377	420.41	93.1889	420.41	92.903	420.41	93.4272	420.41	93.2951	420.41	93.4748
435.425	97.9674	435.425	97.9192	435.425	97.9598	435.425	97.8101	435.425	97.8953	435.425	97.6303	435.425	97.7673	435.425	97.3672	435.425	97.5638	435.425	97.007	435.425	97.2698	435.425	96.5376	435.425	96.8697	435.425	95.9522	435.425	96.3495	435.425	95.2543	435.425	95.7023	435.425	94.468	435.425	94.9361	435.425	93.6547	435.425	94.0895	435.425	92.9291	435.425	93.2543	435.425	92.447	435.425	92.5871	435.425	92.3271	435.425	92.2618	435.425	92.5497	435.425	92.3435	435.425	92.959	435.425	92.7157	435.425	93.3685	435.425	93.1706	435.425	93.6405	435.425	93.5327	435.425	93.7012
450.806	98.1511	450.806	98.1644	450.806	98.0878	450.806	98.1219	450.806	97.9753	450.806	98.0128	450.806	97.809	450.806	97.8226	450.806	97.5792	450.806	97.5341	450.806	97.2726	450.806	97.1283	450.806	96.8737	450.806	96.5857	450.806	96.3667	450.806	95.8879	450.806	95.7385	450.806	95.0232	450.806	94.9851	450.806	93.9995	450.806	94.1239	450.806	92.8733	450.806	93.2137	450.806	91.7971	450.806	92.3796	450.806	91.0378	450.806	91.8013	450.806	90.8341	450.806	91.6128	450.806	91.142	450.806	91.7714	450.806	91.6648	450.806	92.0772	450.806	92.117	450.806	92.3154	450.806	92.3461
466.553	97.5378	466.553	97.4936	466.553	97.5218	466.553	97.394	466.553	97.4412	466.553	97.2438	466.553	97.2921	466.553	97.0474	466.553	97.0703	466.553	96.8069	466.553	96.7715	466.553	96.5223	466.553	96.3912	466.553	96.1908	466.553	95.926	466.553	95.8084	466.553	95.3758	466.553	95.3725	466.553	94.7488	466.553	94.8859	466.553	94.0682	466.553	94.3628	466.553	93.3811	466.553	93.8334	466.553	92.7617	466.553	93.3445	466.553	92.2977	466.553	92.9479	466.553	92.0495	466.553	92.6761	466.553	92.0087	466.553	92.5199	466.553	92.101	466.553	92.4304	466.553	92.2343	466.553	92.3475
483.032	98.1636	483.032	98.1051	483.032	98.1242	483.032	97.9451	483.032	97.9893	483.032	97.6797	483.032	97.7599	483.032	97.3059	483.032	97.4351	483.032	96.823	483.032	97.013	483.032	96.2351	483.032	96.4921	483.032	95.555	483.032	95.8742	483.032	94.8112	483.032	95.1692	483.032	94.0568	483.032	94.4048	483.032	93.3765	483.032	93.6384	483.032	92.8773	483.032	92.9665	483.032	92.6471	483.032	92.5109	483.032	92.6974	483.032	92.3623	483.032	92.948	483.032	92.5122	483.032	93.2728	483.032	92.8507	483.032	93.5559	483.032	93.2341	483.032	93.7175	483.032	93.546	483.032	93.7165
499.878	98.7252	499.878	98.6498	499.878	98.6989	499.878	98.4703	499.878	98.5684	499.878	98.1804	499.878	98.3272	499.878	97.7705	499.878	97.9653	499.878	97.2306	499.878	97.4718	499.878	96.5539	499.878	96.8371	499.878	95.7437	499.878	96.0586	499.878	94.8272	499.878	95.1515	499.878	93.8804	499.878	94.1706	499.878	93.0582	499.878	93.2452	499.878	92.5837	499.878	92.5962	499.878	92.6229	499.878	92.4479	499.878	93.124	499.878	92.8325	499.878	93.8568	499.878	93.5443	499.878	94.5881	499.878	94.3208	499.878	95.1678	499.878	94.9785	499.878	95.5182	499.878	95.421	499.878	95.6053
517.456	98.3796	517.456	98.3858	517.456	98.3606	517.456	98.3661	517.456	98.3247	517.456	98.2929	517.456	98.2511	517.456	98.1292	517.456	98.1068	517.456	97.8337	517.456	97.8522	517.456	97.3628	517.456	97.4445	517.456	96.6708	517.456	96.8407	517.456	95.7094	517.456	95.9994	517.456	94.4345	517.456	94.8891	517.456	92.8473	517.456	93.523	517.456	91.1554	517.456	92.0708	517.456	90.111	517.456	91.0684	517.456	90.6217	517.456	91.2316	517.456	92.2244	517.456	92.4445	517.456	93.8856	517.456	93.9105	517.456	95.1466	517.456	95.1131	517.456	95.9015	517.456	95.8729	517.456	96.1408
535.767	98.1993	535.767	98.2436	535.767	98.2031	535.767	98.3329	535.767	98.2467	535.767	98.4489	535.767	98.3079	535.767	98.5534	535.767	98.3472	535.767	98.5903	535.767	98.308	535.767	98.492	535.767	98.1234	535.767	98.1845	535.767	97.7202	535.767	97.5858	535.767	97.0166	535.767	96.5947	535.767	95.9113	535.767	95.0686	535.767	94.2649	535.767	92.8003	535.767	91.9029	535.767	89.6382	535.767	88.9151	535.767	87.0515	535.767	87.4972	535.767	89.0119	535.767	89.9476	535.767	92.3206	535.767	92.9062	535.767	94.6502	535.767	94.9642	535.767	95.9792	535.767	96.116	535.767	96.4478
554.81	98.192	554.81	98.173	554.81	98.2378	554.81	98.1851	554.81	98.3347	554.81	98.2524	554.81	98.5098	554.81	98.3853	554.81	98.7545	554.81	98.5529	554.81	99.01	554.81	98.684	554.81	99.186	554.81	98.6885	554.81	99.188	554.81	98.4732	554.81	98.9276	554.81	97.9403	554.81	98.3128	554.81	96.9703	554.81	97.2239	554.81	95.3884	554.81	95.4691	554.81	92.9074	554.81	92.6885	554.81	89.1207	554.81	88.1664	554.81	85.3364	554.81	83.0041	554.81	87.8294	554.81	87.2318	554.81	91.4011	554.81	91.3451	554.81	93.3958	554.81	93.4101	554.81	94.0312
574.219	98.5954	574.219	98.601	574.219	98.4224	574.219	98.4793	574.219	98.1288	574.219	98.3352	574.219	97.8438	574.219	98.2848	574.219	97.7222	574.219	98.3788	574.219	97.8351	574.219	98.5635	574.219	98.1057	574.219	98.7157	574.219	98.3686	574.219	98.6991	574.219	98.4608	574.219	98.3869	574.219	98.2501	574.219	97.6466	574.219	97.6135	574.219	96.2984	574.219	96.393	574.219	94.0304	574.219	94.3226	574.219	90.1517	574.219	90.8676	574.219	82.7751	574.219	85.0278	574.219	82.3496	574.219	83.3085	574.219	88.9566	574.219	88.8303	574.219	91.8109	574.219	91.7138	574.219	92.6043
594.727	99.8248	594.727	99.6551	594.727	99.6058	594.727	99.1227	594.727	99.0384	594.727	98.3324	594.727	98.25	594.727	97.5024	594.727	97.4873	594.727	96.9468	594.727	97.0616	594.727	96.8837	594.727	97.1186	594.727	97.2184	594.727	97.4883	594.727	97.6476	594.727	97.8646	594.727	97.8919	594.727	98.0014	594.727	97.7523	594.727	97.7253	594.727	97.0544	594.727	96.8696	594.727	95.564	594.727	95.1868	594.727	92.8378	594.727	92.1778	594.727	87.6698	594.727	86.4058	594.727	72.6123	594.727	73.0209	594.727	83.909	594.727	85.3349	594.727	89.1766	594.727	89.6126	594.727	90.6218
615.601	102.063	615.601	101.872	615.601	101.842	615.601	101.276	615.601	101.201	615.601	100.28	615.601	100.134	615.601	98.9144	615.601	98.6547	615.601	97.3001	615.601	96.8773	615.601	95.8115	615.601	95.2247	615.601	95.1211	615.601	94.5187	615.601	95.5024	615.601	95.0553	615.601	96.3606	615.601	96.0676	615.601	97.0381	615.601	96.8388	615.601	97.1976	615.601	97.0551	615.601	96.6575	615.601	96.5557	615.601	95.2532	615.601	95.1738	615.601	92.8394	615.601	92.7097	615.601	89.7817	615.601	89.3392	615.601	88.4822	615.601	87.6659	615.601	89.5897	615.601	89.1362	615.601	90.1262
637.207	102.85	637.207	102.714	637.207	102.713	637.207	102.302	637.207	102.297	637.207	101.607	637.207	101.591	637.207	100.622	637.207	100.584	637.207	99.3519	637.207	99.2759	637.207	97.8707	637.207	97.7306	637.207	96.4173	637.207	96.1739	637.207	95.4538	637.207	95.0818	637.207	95.3198	637.207	94.8588	637.207	95.7456	637.207	95.2664	637.207	96.1736	637.207	95.7131	637.207	96.2213	637.207	95.7872	637.207	95.6934	637.207	95.2826	637.207	94.4865	637.207	94.0927	637.207	92.5722	637.207	92.19	637.207	90.104	637.207	89.7457	637.207	87.6929	637.207	87.4386	637.207	86.5311
659.912	101.864	659.912	101.772	659.912	101.765	659.912	101.484	659.912	101.472	659.912	100.991	659.912	100.978	659.912	100.281	659.912	100.279	659.912	99.3542	659.912	99.3808	659.912	98.2405	659.912	98.3248	659.912	97.0394	659.912	97.2155	659.912	95.953	659.912	96.238	659.912	95.2365	659.912	95.5914	659.912	94.9868	659.912	95.3201	659.912	95.0043	659.912	95.2368	659.912	94.9603	659.912	95.0612	659.912	94.5986	659.912	94.5695	659.912	93.7847	659.912	93.6409	659.912	92.5078	659.912	92.2772	659.912	90.9285	659.912	90.6677	659.912	89.4723	659.912	89.2859	659.912	88.7888
682.983	101.497	682.983	101.435	682.983	101.383	682.983	101.191	682.983	101.09	682.983	100.749	682.983	100.605	682.983	100.091	682.983	99.9133	682.983	99.2099	682.983	99.014	682.983	98.1363	682.983	97.9432	682.983	96.9712	682.983	96.8107	682.983	95.9196	682.983	95.8238	682.983	95.2334	682.983	95.2123	682.983	95.0001	682.983	95.0246	682.983	95.018	682.983	95.0454	682.983	94.9673	682.983	94.9731	682.983	94.6055	682.983	94.5865	682.983	93.8182	682.983	93.7845	682.983	92.6297	682.983	92.5986	682.983	91.2506	682.983	91.2383	682.983	90.1063	682.983	90.1105	682.983	89.664
707.153	101.662	707.153	101.569	707.153	101.634	707.153	101.348	707.153	101.472	707.153	100.976	707.153	101.148	707.153	100.429	707.153	100.632	707.153	99.6921	707.153	99.8979	707.153	98.7751	707.153	98.9476	707.153	97.7319	707.153	97.8291	707.153	96.6726	707.153	96.6622	707.153	95.7451	707.153	95.6352	707.153	95.0509	707.153	94.9069	707.153	94.5452	707.153	94.451	707.153	94.0502	707.153	94.0545	707.153	93.38	707.153	93.4885	707.153	92.4604	707.153	92.656	707.153	91.4162	707.153	91.6654	707.153	90.5707	707.153	90.8101	707.153	90.1748	707.153	90.3212	707.153	90.1391
732.056	101.042	732.056	101.011	732.056	100.983	732.056	100.881	732.056	100.823	732.056	100.626	732.056	100.531	732.056	100.212	732.056	100.073	732.056	99.615	732.056	99.4211	732.056	98.8255	732.056	98.5752	732.056	97.8662	732.056	97.5759	732.056	96.8021	732.056	96.5245	732.056	95.7456	732.056	95.5745	732.056	94.8231	732.056	94.8539	732.056	94.0861	732.056	94.3451	732.056	93.4466	732.056	93.8714	732.056	92.7379	732.056	93.2246	732.056	91.8587	732.056	92.3028	732.056	90.8932	732.056	91.205	732.056	90.1094	732.056	90.2509	732.056	89.7058	732.056	89.7345	732.056	89.6049
757.69	101.044	757.69	100.963	757.69	100.96	757.69	100.719	757.69	100.709	757.69	100.318	757.69	100.289	757.69	99.7753	757.69	99.7082	757.69	99.1196	757.69	98.9853	757.69	98.3954	757.69	98.1611	757.69	97.6552	757.69	97.2964	757.69	96.9408	757.69	96.4564	757.69	96.2594	757.69	95.6795	757.69	95.5724	757.69	94.9463	757.69	94.8119	757.69	94.1863	757.69	93.9261	757.69	93.3348	757.69	92.954	757.69	92.4289	757.69	92.1087	757.69	91.7005	757.69	91.7199	757.69	91.4757	757.69	91.8699	757.69	91.7691	757.69	92.2213	757.69	92.1947	757.69	92.3834
784.424	101.019	784.424	100.946	784.424	100.924	784.424	100.697	784.424	100.659	784.424	100.262	784.424	100.217	784.424	99.643	784.424	99.5883	784.424	98.8637	784.424	98.78	784.424	97.9837	784.424	97.8271	784.424	97.094	784.424	96.8062	784.424	96.2842	784.424	95.8261	784.424	95.5806	784.424	94.9751	784.424	94.9021	784.424	94.2396	784.424	94.0838	784.424	93.4741	784.424	92.9511	784.424	92.4664	784.424	91.4343	784.424	91.061	784.424	89.8326	784.424	89.4023	784.424	89.0815	784.424	88.3749	784.424	89.6152	784.424	88.8646	784.424	90.4139	784.424	89.9818	784.424	90.6071
812.256	100.879	812.256	100.812	812.256	100.768	812.256	100.558	812.256	100.485	812.256	100.107	812.256	100.03	812.256	99.4501	812.256	99.4025	812.256	98.5965	812.256	98.6058	812.256	97.5975	812.256	97.6664	812.256	96.5778	812.256	96.6576	812.256	95.7288	812.256	95.7094	812.256	95.1922	812.256	94.9568	812.256	94.8913	812.256	94.4137	812.256	94.5382	812.256	93.898	812.256	93.7954	812.256	93.1132	812.256	92.3853	812.256	91.7834	812.256	90.2311	812.256	89.8454	812.256	88.1535	812.256	88.0843	812.256	88.167	812.256	88.2031	812.256	89.4666	812.256	89.4597	812.256	90.0521
840.82	100.538	840.82	100.458	840.82	100.467	840.82	100.221	840.82	100.239	840.82	99.8138	840.82	99.8395	840.82	99.206	840.82	99.2416	840.82	98.3679	840.82	98.419	840.82	97.2967	840.82	97.3674	840.82	96.0646	840.82	96.1451	840.82	94.8738	840.82	94.9207	840.82	94.0189	840.82	93.9598	840.82	93.6139	840.82	93.413	840.82	93.3731	840.82	93.0745	840.82	92.8206	840.82	92.5033	840.82	91.5467	840.82	91.2889	840.82	89.3535	840.82	89.2191	840.82	87.0229	840.82	86.9486	840.82	87.1061	840.82	86.8835	840.82	88.6768	840.82	88.4928	840.82	89.2989
870.483	100.61	870.483	100.481	870.483	100.528	870.483	100.148	870.483	100.245	870.483	99.6258	870.483	99.7788	870.483	98.9282	870.483	99.1452	870.483	98.0598	870.483	98.3462	870.483	97.0342	870.483	97.3869	870.483	95.9135	870.483	96.3111	870.483	94.8503	870.483	95.2437	870.483	94.0582	870.483	94.3832	870.483	93.6225	870.483	93.8496	870.483	93.3257	870.483	93.4889	870.483	92.7555	870.483	92.9224	870.483	91.502	870.483	91.7428	870.483	89.2986	870.483	89.6555	870.483	86.7403	870.483	87.0325	870.483	86.5641	870.483	86.3905	870.483	88.2082	870.483	87.9897	870.483	88.8735
901.245	100.437	901.245	100.286	901.245	100.391	901.245	99.9478	901.245	100.157	901.245	99.443	901.245	99.7501	901.245	98.7756	901.245	99.1685	901.245	97.924	901.245	98.3836	901.245	96.8646	901.245	97.3644	901.245	95.6284	901.245	96.1289	901.245	94.3841	901.245	94.8228	901.245	93.4611	901.245	93.7705	901.245	93.0782	901.245	93.2552	901.245	92.9629	901.245	93.0896	901.245	92.5172	901.245	92.706	901.245	91.1333	901.245	91.5344	901.245	88.134	901.245	89.0542	901.245	83.1902	901.245	85.1954	901.245	83.5908	901.245	84.4149	901.245	87.3891	901.245	87.3674	901.245	88.6018
933.105	101.302	933.105	101.116	933.105	101.15	933.105	100.609	933.105	100.7	933.105	99.844	933.105	100.035	933.105	98.9022	933.105	99.2397	933.105	97.8368	933.105	98.3459	933.105	96.6523	933.105	97.3172	933.105	95.3491	933.105	96.1028	933.105	94.055	933.105	94.7694	933.105	93.1516	933.105	93.6575	933.105	92.9942	933.105	93.2364	933.105	93.2933	933.105	93.4208	933.105	93.3283	933.105	93.5164	933.105	92.4647	933.105	92.8374	933.105	90.0633	933.105	90.7675	933.105	85.0158	933.105	86.4243	933.105	79.7781	933.105	81.0157	933.105	84.7725	933.105	84.5472	933.105	86.5556
966.064	101.478	966.064	101.303	966.064	101.268	966.064	100.801	966.064	100.702	966.064	100.086	966.064	99.8942	966.064	99.2632	966.064	98.9988	966.064	98.3522	966.064	98.1064	966.064	97.262	966.064	97.1575	966.064	95.8626	966.064	95.9883	966.064	94.1529	966.064	94.4917	966.064	92.5924	966.064	92.8865	966.064	92.1626	966.064	92.0118	966.064	92.8693	966.064	92.4387	966.064	93.5087	966.064	93.2439	966.064	93.1907	966.064	93.3315	966.064	91.2924	966.064	92.0331	966.064	86.7432	966.064	88.6048	966.064	78.4832	966.064	82.4528	966.064	83.1283	966.064	82.9436	966.064	85.3794
1,000.12	102.09	1,000.12	101.844	1,000.12	101.905	1,000.12	101.216	1,000.12	101.289	1,000.12	100.303	1,000.12	100.302	1,000.12	99.2285	1,000.12	99.0748	1,000.12	98.1065	1,000.12	97.8052	1,000.12	96.9716	1,000.12	96.6551	1,000.12	95.7623	1,000.12	95.6193	1,000.12	94.422	1,000.12	94.5542	1,000.12	93.111	1,000.12	93.3896	1,000.12	92.3603	1,000.12	92.3536	1,000.12	92.5371	1,000.12	91.9181	1,000.12	93.0769	1,000.12	92.0801	1,000.12	93.096	1,000.12	92.0833	1,000.12	91.9533	1,000.12	91.1323	1,000.12	89.0996	1,000.12	88.719	1,000.12	84.4362	1,000.12	85.2838	1,000.12	82.7971	1,000.12	84.1519	1,000.12	84.3408
1,035.28	102.203	1,035.28	101.989	1,035.28	102.026	1,035.28	101.414	1,035.28	101.47	1,035.28	100.552	1,035.28	100.579	1,035.28	99.5211	1,035.28	99.4321	1,035.28	98.438	1,035.28	98.136	1,035.28	97.3307	1,035.28	96.7878	1,035.28	96.0961	1,035.28	95.4203	1,035.28	94.5975	1,035.28	94.0138	1,035.28	92.8982	1,035.28	92.6427	1,035.28	91.6279	1,035.28	91.6781	1,035.28	91.6218	1,035.28	91.5257	1,035.28	92.3096	1,035.28	91.8211	1,035.28	92.4304	1,035.28	91.6864	1,035.28	91.2147	1,035.28	90.4317	1,035.28	88.2351	1,035.28	87.6879	1,035.28	84.8236	1,035.28	84.8622	1,035.28	85.7225	1,035.28	85.7968	1,035.28	86.8794
1,071.9	102.228	1,071.9	102.005	1,071.9	102.041	1,071.9	101.403	1,071.9	101.449	1,071.9	100.482	1,071.9	100.497	1,071.9	99.3411	1,071.9	99.2798	1,071.9	98.0912	1,071.9	97.9433	1,071.9	96.7955	1,071.9	96.6204	1,071.9	95.4145	1,071.9	95.3219	1,071.9	93.8602	1,071.9	93.9312	1,071.9	92.2302	1,071.9	92.4161	1,071.9	91.1882	1,071.9	91.2181	1,071.9	91.473	1,071.9	91.1088	1,071.9	92.3559	1,071.9	91.7383	1,071.9	92.5882	1,071.9	91.8973	1,071.9	91.408	1,071.9	90.7243	1,071.9	88.1941	1,071.9	87.6007	1,071.9	83.4968	1,071.9	83.5218	1,071.9	84.4451	1,071.9	84.7733	1,071.9	86.164
1,109.62	101.734	1,109.62	101.511	1,109.62	101.607	1,109.62	100.941	1,109.62	101.12	1,109.62	100.034	1,109.62	100.267	1,109.62	98.8456	1,109.62	99.0858	1,109.62	97.5121	1,109.62	97.7097	1,109.62	96.2047	1,109.62	96.3347	1,109.62	94.9711	1,109.62	95.056	1,109.62	93.6479	1,109.62	93.7268	1,109.62	92.0288	1,109.62	92.1006	1,109.62	90.3218	1,109.62	90.2597	1,109.62	89.699	1,109.62	89.215	1,109.62	90.622	1,109.62	89.788	1,109.62	91.4775	1,109.62	90.6281	1,109.62	91.0301	1,109.62	90.3275	1,109.62	88.5834	1,109.62	88.1152	1,109.62	83.6564	1,109.62	83.7733	1,109.62	81.324	1,109.62	81.9958	1,109.62	83.0055
1,148.8	101.558	1,148.8	101.365	1,148.8	101.499	1,148.8	100.896	1,148.8	101.145	1,148.8	100.091	1,148.8	100.414	1,148.8	98.9114	1,148.8	99.2506	1,148.8	97.3976	1,148.8	97.7013	1,148.8	95.7029	1,148.8	95.9759	1,148.8	94.0667	1,148.8	94.3872	1,148.8	92.6605	1,148.8	93.0751	1,148.8	91.4308	1,148.8	91.8162	1,148.8	90.2364	1,148.8	90.3045	1,148.8	89.2502	1,148.8	88.7424	1,148.8	89.0605	1,148.8	88.2646	1,148.8	89.6256	1,148.8	89.0313	1,148.8	89.9211	1,148.8	89.3861	1,148.8	89.072	1,148.8	88.242	1,148.8	86.6746	1,148.8	85.3615	1,148.8	83.1747	1,148.8	81.9521	1,148.8	80.9812
1,189.09	101.133	1,189.09	101.01	1,189.09	100.981	1,189.09	100.583	1,189.09	100.575	1,189.09	99.8406	1,189.09	99.9039	1,189.09	98.806	1,189.09	98.9437	1,189.09	97.53	1,189.09	97.6851	1,189.09	96.0658	1,189.09	96.1646	1,189.09	94.4523	1,189.09	94.4779	1,189.09	92.7314	1,189.09	92.7918	1,189.09	91.0108	1,189.09	91.3478	1,189.09	89.5342	1,189.09	90.3521	1,189.09	88.5708	1,189.09	89.7338	1,189.09	88.0575	1,189.09	89.1103	1,189.09	87.6241	1,189.09	88.0769	1,189.09	87.1163	1,189.09	86.6191	1,189.09	86.8688	1,189.09	85.7395	1,189.09	87.2537	1,189.09	86.4993	1,189.09	87.9375	1,189.09	87.7123	1,189.09	88.2295
1,231.2	101.363	1,231.2	101.239	1,231.2	101.151	1,231.2	100.752	1,231.2	100.608	1,231.2	99.8886	1,231.2	99.7243	1,231.2	98.6782	1,231.2	98.5098	1,231.2	97.2011	1,231.2	97.0465	1,231.2	95.5632	1,231.2	95.5049	1,231.2	93.8478	1,231.2	94.0823	1,231.2	92.0925	1,231.2	92.8691	1,231.2	90.3667	1,231.2	91.7885	1,231.2	88.9676	1,231.2	90.7401	1,231.2	88.3767	1,231.2	89.7975	1,231.2	88.4376	1,231.2	89.0766	1,231.2	88.2058	1,231.2	88.2547	1,231.2	86.8869	1,231.2	86.5667	1,231.2	84.654	1,231.2	83.6332	1,231.2	84.483	1,231.2	82.8523	1,231.2	86.5128	1,231.2	85.7331	1,231.2	87.2232
1,274.41	100.955	1,274.41	100.735	1,274.41	100.884	1,274.41	100.239	1,274.41	100.475	1,274.41	99.4534	1,274.41	99.6797	1,274.41	98.3776	1,274.41	98.4971	1,274.41	97.0513	1,274.41	97.0115	1,274.41	95.5499	1,274.41	95.3769	1,274.41	93.9398	1,274.41	93.7346	1,274.41	92.2218	1,274.41	92.1035	1,274.41	90.3481	1,274.41	90.413	1,274.41	88.4594	1,274.41	88.8539	1,274.41	87.3319	1,274.41	88.1945	1,274.41	87.5652	1,274.41	88.5779	1,274.41	87.9751	1,274.41	88.7745	1,274.41	87.1142	1,274.41	87.6058	1,274.41	84.1392	1,274.41	83.9874	1,274.41	81.468	1,274.41	79.1731	1,274.41	84.3916	1,274.41	83.4097	1,274.41	85.712
1,319.46	100.147	1,319.46	100.037	1,319.46	99.9833	1,319.46	99.6087	1,319.46	99.5409	1,319.46	98.8161	1,319.46	98.776	1,319.46	97.6746	1,319.46	97.6704	1,319.46	96.2975	1,319.46	96.2896	1,319.46	94.8644	1,319.46	94.7784	1,319.46	93.5004	1,319.46	93.2567	1,319.46	92.1368	1,319.46	91.6788	1,319.46	90.5037	1,319.46	89.8449	1,319.46	88.2943	1,319.46	87.7304	1,319.46	85.7939	1,319.46	86.1685	1,319.46	85.0205	1,319.46	86.2852	1,319.46	85.8912	1,319.46	86.9739	1,319.46	85.4057	1,319.46	86.4246	1,319.46	81.2409	1,319.46	82.8429	1,319.46	73.5969	1,319.46	71.8326	1,319.46	82.7854	1,319.46	81.6072	1,319.46	84.9527
1,365.97	100.44	1,365.97	100.371	1,365.97	100.237	1,365.97	99.9686	1,365.97	99.7665	1,365.97	99.1596	1,365.97	98.9649	1,365.97	97.9238	1,365.97	97.7362	1,365.97	96.3438	1,365.97	96.0452	1,365.97	94.6173	1,365.97	94.0037	1,365.97	93.0281	1,365.97	91.9382	1,365.97	91.7682	1,365.97	90.3285	1,365.97	90.6751	1,365.97	89.3018	1,365.97	89.3295	1,365.97	88.4016	1,365.97	87.6016	1,365.97	87.3358	1,365.97	86.7347	1,365.97	86.8385	1,365.97	87.9661	1,365.97	87.9017	1,365.97	88.9577	1,365.97	89.0333	1,365.97	87.5942	1,365.97	88.1789	1,365.97	81.9798	1,365.97	83.3653	1,365.97	73.7124	1,365.97	66.1352	1,365.97	76.9579
1,414.31	100.801	1,414.31	100.552	1,414.31	100.591	1,414.31	99.861	1,414.31	99.9587	1,414.31	98.8067	1,414.31	98.9411	1,414.31	97.4894	1,414.31	97.552	1,414.31	95.9832	1,414.31	95.8144	1,414.31	94.323	1,414.31	93.8087	1,414.31	92.5664	1,414.31	91.7076	1,414.31	90.888	1,414.31	89.814	1,414.31	89.5517	1,414.31	88.4301	1,414.31	88.6735	1,414.31	87.4925	1,414.31	88.1204	1,414.31	86.7448	1,414.31	87.8494	1,414.31	86.4299	1,414.31	88.0113	1,414.31	86.8532	1,414.31	88.2198	1,414.31	87.0962	1,414.31	87.4509	1,414.31	85.8246	1,414.31	84.8522	1,414.31	82.3201	1,414.31	80.9008	1,414.31	78.7886	1,414.31	78.9491
1,464.11	100.381	1,464.11	100.196	1,464.11	100.044	1,464.11	99.4785	1,464.11	99.2733	1,464.11	98.3087	1,464.11	98.2013	1,464.11	96.8296	1,464.11	96.9289	1,464.11	95.191	1,464.11	95.4998	1,464.11	93.5133	1,464.11	93.9327	1,464.11	91.8965	1,464.11	92.2382	1,464.11	90.4024	1,464.11	90.4362	1,464.11	89.0329	1,464.11	88.6153	1,464.11	87.8404	1,464.11	86.9019	1,464.11	87.1428	1,464.11	85.4639	1,464.11	87.259	1,464.11	84.8989	1,464.11	87.7384	1,464.11	85.5407	1,464.11	87.6913	1,464.11	86.0703	1,464.11	86.4731	1,464.11	84.974	1,464.11	83.8301	1,464.11	81.0674	1,464.11	80.2853	1,464.11	74.1429	1,464.11	76.3165
1,515.75	101.273	1,515.75	100.773	1,515.75	101.137	1,515.75	99.8438	1,515.75	100.288	1,515.75	98.687	1,515.75	98.8454	1,515.75	97.3745	1,515.75	97.116	1,515.75	95.8617	1,515.75	95.465	1,515.75	94.1704	1,515.75	94.0741	1,515.75	92.5436	1,515.75	92.8284	1,515.75	91.3186	1,515.75	91.484	1,515.75	90.4841	1,515.75	89.9398	1,515.75	89.5285	1,515.75	88.3542	1,515.75	87.8996	1,515.75	86.9654	1,515.75	86.1178	1,515.75	85.9326	1,515.75	86.3883	1,515.75	85.7178	1,515.75	87.2137	1,515.75	86.5265	1,515.75	85.8175	1,515.75	86.9579	1,515.75	81.0451	1,515.75	85.3224	1,515.75	74.5249	1,515.75	80.185	1,515.75	72.9952
1,569.21	101.36	1,569.21	101.049	1,569.21	101.199	1,569.21	100.368	1,569.21	100.5	1,569.21	99.38	1,569.21	99.2775	1,569.21	98.0747	1,569.21	97.629	1,569.21	96.4148	1,569.21	95.7197	1,569.21	94.444	1,569.21	93.7879	1,569.21	92.4526	1,569.21	92.1282	1,569.21	91.0603	1,569.21	90.9597	1,569.21	90.5866	1,569.21	90.1985	1,569.21	90.3606	1,569.21	89.4541	1,569.21	89.4256	1,569.21	88.3338	1,569.21	87.387	1,569.21	86.851	1,569.21	85.7892	1,569.21	86.0127	1,569.21	86.3315	1,569.21	86.5624	1,569.21	86.0946	1,569.21	86.919	1,569.21	83.4288	1,569.21	85.6993	1,569.21	79.3817	1,569.21	82.7047	1,569.21	79.3019
1,624.51	100.986	1,624.51	100.918	1,624.51	100.551	1,624.51	100.351	1,624.51	99.711	1,624.51	99.3853	1,624.51	98.5866	1,624.51	98.151	1,624.51	97.2369	1,624.51	96.7027	1,624.51	95.6669	1,624.51	95.0047	1,624.51	93.8943	1,624.51	93.0544	1,624.51	92.0051	1,624.51	91.0972	1,624.51	90.3134	1,624.51	89.757	1,624.51	89.3185	1,624.51	89.3932	1,624.51	88.8107	1,624.51	89.2886	1,624.51	87.8978	1,624.51	88.5528	1,624.51	86.2776	1,624.51	87.1318	1,624.51	85.2446	1,624.51	86.156	1,624.51	85.6299	1,624.51	86.0005	1,624.51	85.2485	1,624.51	85.1497	1,624.51	82.9653	1,624.51	83.2546	1,624.51	80.8642	1,624.51	81.5401
1,681.64	101.117	1,681.64	100.856	1,681.64	100.716	1,681.64	100.015	1,681.64	99.7224	1,681.64	98.7878	1,681.64	98.3411	1,681.64	97.3839	1,681.64	96.8294	1,681.64	95.919	1,681.64	95.3593	1,681.64	94.4209	1,681.64	93.9091	1,681.64	92.9093	1,681.64	92.3527	1,681.64	91.4165	1,681.64	90.7486	1,681.64	89.9814	1,681.64	89.4092	1,681.64	88.7433	1,681.64	88.3546	1,681.64	88.0461	1,681.64	87.0814	1,681.64	88.0389	1,681.64	85.4738	1,681.64	88.1135	1,681.64	84.9488	1,681.64	87.4053	1,681.64	85.8209	1,681.64	85.4673	1,681.64	85.6555	1,681.64	83.1508	1,681.64	82.9817	1,681.64	82.3205	1,681.64	79.2581	1,681.64	80.9655
1,740.97	101.121	1,740.97	100.662	1,740.97	100.907	1,740.97	99.7234	1,740.97	100.044	1,740.97	98.5832	1,740.97	98.788	1,740.97	97.3855	1,740.97	97.483	1,740.97	96.0713	1,740.97	96.2931	1,740.97	94.5291	1,740.97	95.0969	1,740.97	92.7416	1,740.97	93.7207	1,740.97	90.877	1,740.97	92.2251	1,740.97	89.3569	1,740.97	90.958	1,740.97	88.5266	1,740.97	90.1364	1,740.97	88.1456	1,740.97	89.3246	1,740.97	87.818	1,740.97	87.9369	1,740.97	87.5129	1,740.97	86.5964	1,740.97	87.0191	1,740.97	86.9285	1,740.97	85.5612	1,740.97	87.4304	1,740.97	83.1588	1,740.97	86.1502	1,740.97	82.0383	1,740.97	83.2962	1,740.97	81.9532
1,802.49	101.55	1,802.49	101.173	1,802.49	101.359	1,802.49	100.339	1,802.49	100.618	1,802.49	99.2073	1,802.49	99.4578	1,802.49	97.9028	1,802.49	98.0422	1,802.49	96.5066	1,802.49	96.5035	1,802.49	95.0461	1,802.49	94.9793	1,802.49	93.465	1,802.49	93.6322	1,802.49	91.6952	1,802.49	92.54	1,802.49	89.9012	1,802.49	91.6012	1,802.49	88.6514	1,802.49	90.5962	1,802.49	88.2223	1,802.49	89.3324	1,802.49	87.9307	1,802.49	87.929	1,802.49	87.347	1,802.49	87.1616	1,802.49	86.8672	1,802.49	87.3606	1,802.49	86.0844	1,802.49	87.219	1,802.49	84.0283	1,802.49	85.6322	1,802.49	81.8602	1,802.49	83.0659	1,802.49	81.6678
1,866.21	100.727	1,866.21	100.769	1,866.21	100.316	1,866.21	100.334	1,866.21	99.7047	1,866.21	99.4429	1,866.21	98.9817	1,866.21	98.2087	1,866.21	98.0882	1,866.21	96.7841	1,866.21	96.901	1,866.21	95.3138	1,866.21	95.3599	1,866.21	93.8455	1,866.21	93.5212	1,866.21	92.3102	1,866.21	91.6718	1,866.21	90.73	1,866.21	90.3932	1,866.21	89.4532	1,866.21	89.7733	1,866.21	88.8017	1,866.21	89.1164	1,866.21	88.3745	1,866.21	88.0789	1,866.21	87.6732	1,866.21	87.4895	1,866.21	87.0562	1,866.21	87.8455	1,866.21	86.6663	1,866.21	87.413	1,866.21	85.4851	1,866.21	85.177	1,866.21	83.6482	1,866.21	83.0334	1,866.21	82.9038
1,931.76	100.579	1,931.76	100.325	1,931.76	100.367	1,931.76	99.6212	1,931.76	99.7568	1,931.76	98.5858	1,931.76	98.8322	1,931.76	97.3873	1,931.76	97.6538	1,931.76	96.161	1,931.76	96.2869	1,931.76	94.9533	1,931.76	94.812	1,931.76	93.7274	1,931.76	93.2725	1,931.76	92.4218	1,931.76	91.6803	1,931.76	91.0501	1,931.76	90.1632	1,931.76	89.7979	1,931.76	88.981	1,931.76	88.9235	1,931.76	88.181	1,931.76	88.4937	1,931.76	87.5799	1,931.76	88.3985	1,931.76	87.3585	1,931.76	88.2776	1,931.76	87.5014	1,931.76	87.1519	1,931.76	86.7163	1,931.76	83.9039	1,931.76	83.5427	1,931.76	79.9081	1,931.76	79.1689	1,931.76	79.3071
1,999.88	100.896	1,999.88	100.634	1,999.88	100.821	1,999.88	100.011	1,999.88	100.436	1,999.88	99.0499	1,999.88	99.7712	1,999.88	97.8748	1,999.88	98.8348	1,999.88	96.6158	1,999.88	97.6066	1,999.88	95.2627	1,999.88	96.0866	1,999.88	93.7145	1,999.88	94.3408	1,999.88	91.9214	1,999.88	92.5014	1,999.88	90.0525	1,999.88	90.7774	1,999.88	88.6705	1,999.88	89.4132	1,999.88	88.1365	1,999.88	88.4262	1,999.88	87.9232	1,999.88	87.5184	1,999.88	87.6749	1,999.88	86.7071	1,999.88	87.6407	1,999.88	86.6984	1,999.88	87.0842	1,999.88	86.8144	1,999.88	84.5521	1,999.88	85.2705	1,999.88	80.9683	1,999.88	82.2608	1,999.88	80.7087
2,070.56	101.795	2,070.56	101.631	2,070.56	101.647	2,070.56	101.126	2,070.56	101.23	2,070.56	100.304	2,070.56	100.563	2,070.56	99.2643	2,070.56	99.6343	2,070.56	98.0629	2,070.56	98.4331	2,070.56	96.6081	2,070.56	96.9851	2,070.56	94.7846	2,070.56	95.3545	2,070.56	92.6187	2,070.56	93.6209	2,070.56	90.3644	2,070.56	91.8907	2,070.56	88.7081	2,070.56	90.3592	2,070.56	87.9982	2,070.56	89.2116	2,070.56	87.4962	2,070.56	88.4136	2,070.56	87.0739	2,070.56	87.9856	2,070.56	87.4377	2,070.56	88.1723	2,070.56	87.3657	2,070.56	88.1768	2,070.56	85.2815	2,070.56	86.5874	2,070.56	83.0934	2,070.56	83.8847	2,070.56	83.0991
2,143.43	101.313	2,143.43	101.284	2,143.43	101.08	2,143.43	100.943	2,143.43	100.618	2,143.43	100.282	2,143.43	99.9496	2,143.43	99.408	2,143.43	99.0799	2,143.43	98.431	2,143.43	97.9879	2,143.43	97.3096	2,143.43	96.6509	2,143.43	95.9275	2,143.43	95.0907	2,143.43	94.1442	2,143.43	93.3814	2,143.43	91.8633	2,143.43	91.6359	2,143.43	89.6389	2,143.43	90.0409	2,143.43	88.5371	2,143.43	88.8086	2,143.43	88.1052	2,143.43	87.9824	2,143.43	87.5016	2,143.43	87.7514	2,143.43	87.5124	2,143.43	88.3919	2,143.43	87.5711	2,143.43	88.6268	2,143.43	85.3725	2,143.43	86.7955	2,143.43	82.3521	2,143.43	83.4588	2,143.43	82.5257
2,219.24	100.213	2,219.24	100.216	2,219.24	100.093	2,219.24	100.009	2,219.24	99.8486	2,219.24	99.5243	2,219.24	99.4022	2,219.24	98.8228	2,219.24	98.6682	2,219.24	97.9819	2,219.24	97.5696	2,219.24	96.9506	2,219.24	96.0994	2,219.24	95.6395	2,219.24	94.3837	2,219.24	94.0107	2,219.24	92.5864	2,219.24	92.118	2,219.24	90.7903	2,219.24	90.3519	2,219.24	89.1622	2,219.24	89.1015	2,219.24	87.9553	2,219.24	87.9511	2,219.24	86.9581	2,219.24	86.9534	2,219.24	86.0075	2,219.24	87.6341	2,219.24	86.4296	2,219.24	88.215	2,219.24	87.5	2,219.24	85.9992	2,219.24	86.4873	2,219.24	81.6523	2,219.24	83.0617	2,219.24	80.9483
2,297.24	100.713	2,297.24	100.684	2,297.24	100.709	2,297.24	100.481	2,297.24	100.604	2,297.24	99.9029	2,297.24	100.226	2,297.24	98.9129	2,297.24	99.4605	2,297.24	97.613	2,297.24	98.3106	2,297.24	96.0689	2,297.24	96.8983	2,297.24	94.2945	2,297.24	95.3512	2,297.24	92.2846	2,297.24	93.6598	2,297.24	90.1313	2,297.24	91.7423	2,297.24	88.5646	2,297.24	89.7605	2,297.24	87.991	2,297.24	88.3541	2,297.24	87.3032	2,297.24	87.7103	2,297.24	85.9973	2,297.24	87.0122	2,297.24	86.207	2,297.24	86.3782	2,297.24	87.3423	2,297.24	86.8033	2,297.24	85.7533	2,297.24	86.3435	2,297.24	81.9626	2,297.24	83.5931	2,297.24	81.3554
2,378.54	100.966	2,378.54	101.037	2,378.54	100.853	2,378.54	100.891	2,378.54	100.644	2,378.54	100.311	2,378.54	100.192	2,378.54	99.3029	2,378.54	99.4316	2,378.54	98.0438	2,378.54	98.356	2,378.54	96.5465	2,378.54	96.944	2,378.54	94.6718	2,378.54	95.2204	2,378.54	92.3444	2,378.54	93.3587	2,378.54	89.5739	2,378.54	91.5285	2,378.54	86.9938	2,378.54	89.682	2,378.54	86.0497	2,378.54	87.8838	2,378.54	86.1157	2,378.54	86.5197	2,378.54	85.7575	2,378.54	85.8006	2,378.54	85.8798	2,378.54	85.928	2,378.54	86.7011	2,378.54	86.5826	2,378.54	85.6843	2,378.54	86.0936	2,378.54	82.9648	2,378.54	84.0336	2,378.54	82.3907
2,462.4	99.7108	2,462.4	99.862	2,462.4	99.5973	2,462.4	99.8396	2,462.4	99.4723	2,462.4	99.4391	2,462.4	99.1228	2,462.4	98.7098	2,462.4	98.3758	2,462.4	97.7653	2,462.4	97.1558	2,462.4	96.5016	2,462.4	95.5252	2,462.4	94.8145	2,462.4	93.6897	2,462.4	92.7882	2,462.4	91.8565	2,462.4	90.4638	2,462.4	90.0081	2,462.4	88.2003	2,462.4	88.0255	2,462.4	86.8652	2,462.4	86.3882	2,462.4	85.9002	2,462.4	85.896	2,462.4	84.378	2,462.4	86.0265	2,462.4	84.3992	2,462.4	85.8607	2,462.4	86.0153	2,462.4	85.3522	2,462.4	85.4731	2,462.4	84.1329	2,462.4	83.5389	2,462.4	82.8643	2,462.4	83.059
2,549.19	99.2305	2,549.19	99.3354	2,549.19	99.274	2,549.19	99.3888	2,549.19	99.3249	2,549.19	99.0878	2,549.19	99.1265	2,549.19	98.3571	2,549.19	98.5467	2,549.19	97.2928	2,549.19	97.5308	2,549.19	95.935	2,549.19	96.0456	2,549.19	94.3411	2,549.19	94.1569	2,549.19	92.6133	2,549.19	92.0949	2,549.19	90.6317	2,549.19	90.0625	2,549.19	88.5184	2,549.19	87.9949	2,549.19	87.1164	2,549.19	85.9903	2,549.19	86.2827	2,549.19	84.791	2,549.19	85.0625	2,549.19	84.9477	2,549.19	84.753	2,549.19	85.8324	2,549.19	85.7733	2,549.19	86.0464	2,549.19	84.3753	2,549.19	84.1938	2,549.19	80.9897	2,549.19	81.3338	2,549.19	81.0678
2,638.92	99.8698	2,638.92	100.013	2,638.92	99.925	2,638.92	100.15	2,638.92	100.026	2,638.92	99.9357	2,638.92	99.8924	2,638.92	99.2283	2,638.92	99.3324	2,638.92	98.0892	2,638.92	98.2526	2,638.92	96.5788	2,638.92	96.7037	2,638.92	94.7607	2,638.92	94.8706	2,638.92	92.7282	2,638.92	92.9102	2,638.92	90.4695	2,638.92	90.8119	2,638.92	88.2289	2,638.92	88.5732	2,638.92	86.8119	2,638.92	86.7313	2,638.92	86.126	2,638.92	85.8276	2,638.92	85.3442	2,638.92	85.386	2,638.92	85.3526	2,638.92	85.6719	2,638.92	86.2662	2,638.92	86.4749	2,638.92	85.0535	2,638.92	84.9856	2,638.92	81.9743	2,638.92	81.1597	2,638.92	81.2347
2,731.93	100.203	2,731.93	100.419	2,731.93	100.24	2,731.93	100.662	2,731.93	100.386	2,731.93	100.575	2,731.93	100.3	2,731.93	99.9983	2,731.93	99.7234	2,731.93	98.9785	2,731.93	98.5919	2,731.93	97.54	2,731.93	97.0546	2,731.93	95.7285	2,731.93	95.3258	2,731.93	93.7535	2,731.93	93.5246	2,731.93	91.7032	2,731.93	91.6354	2,731.93	89.6037	2,731.93	89.5353	2,731.93	87.8391	2,731.93	87.4941	2,731.93	86.6459	2,731.93	86.1384	2,731.93	85.9344	2,731.93	85.1584	2,731.93	86.3236	2,731.93	85.04	2,731.93	86.8342	2,731.93	86.3119	2,731.93	84.6377	2,731.93	85.1636	2,731.93	80.0655	2,731.93	80.1355	2,731.93	79.4501
2,828.25	100.564	2,828.25	100.792	2,828.25	100.648	2,828.25	101.069	2,828.25	100.891	2,828.25	101.01	2,828.25	100.891	2,828.25	100.437	2,828.25	100.361	2,828.25	99.4116	2,828.25	99.2859	2,828.25	98.0237	2,828.25	97.8548	2,828.25	96.283	2,828.25	96.2197	2,828.25	94.2274	2,828.25	94.3731	2,828.25	91.9689	2,828.25	92.2873	2,828.25	89.8976	2,828.25	90.0582	2,828.25	88.4426	2,828.25	88.2982	2,828.25	87.2143	2,828.25	87.615	2,828.25	86.0418	2,828.25	87.0316	2,828.25	86.6592	2,828.25	86.1103	2,828.25	87.6099	2,828.25	86.3342	2,828.25	85.3622	2,828.25	84.9158	2,828.25	79.9966	2,828.25	79.202	2,828.25	78.8795
2,928.22	100.884	2,928.22	101.136	2,928.22	100.942	2,928.22	101.464	2,928.22	101.11	2,928.22	101.439	2,928.22	100.998	2,928.22	100.887	2,928.22	100.429	2,928.22	99.973	2,928.22	99.4603	2,928.22	98.7721	2,928.22	98.1911	2,928.22	97.1167	2,928.22	96.6565	2,928.22	95.0226	2,928.22	94.8875	2,928.22	92.7084	2,928.22	92.9407	2,928.22	90.476	2,928.22	90.7984	2,928.22	88.8287	2,928.22	88.7725	2,928.22	87.6145	2,928.22	87.5807	2,928.22	86.1155	2,928.22	86.8444	2,928.22	85.9746	2,928.22	86.3976	2,928.22	87.1715	2,928.22	86.9149	2,928.22	85.4742	2,928.22	85.3676	2,928.22	79.487	2,928.22	79.2087	2,928.22	77.2968
3,031.49	100.717	3,031.49	100.892	3,031.49	100.753	3,031.49	101.068	3,031.49	100.886	3,031.49	100.945	3,031.49	100.801	3,031.49	100.47	3,031.49	100.314	3,031.49	99.7117	3,031.49	99.4023	3,031.49	98.5575	3,031.49	98.1375	3,031.49	96.9886	3,031.49	96.6401	3,031.49	95.2457	3,031.49	94.9211	3,031.49	93.4259	3,031.49	92.8855	3,031.49	91.5653	3,031.49	90.5021	3,031.49	89.8959	3,031.49	88.293	3,031.49	88.3417	3,031.49	87.2157	3,031.49	86.4776	3,031.49	86.6372	3,031.49	85.7771	3,031.49	86.2674	3,031.49	86.8795	3,031.49	86.8436	3,031.49	85.4758	3,031.49	84.784	3,031.49	80.5447	3,031.49	77.4863	3,031.49	79.1438
3,138.43	101.163	3,138.43	101.203	3,138.43	101.114	3,138.43	101.223	3,138.43	101.098	3,138.43	101.117	3,138.43	101.028	3,138.43	100.694	3,138.43	100.704	3,138.43	99.849	3,138.43	99.9565	3,138.43	98.5938	3,138.43	98.7944	3,138.43	96.9921	3,138.43	97.3488	3,138.43	95.1213	3,138.43	95.6223	3,138.43	93.065	3,138.43	93.6034	3,138.43	90.9327	3,138.43	91.361	3,138.43	89.0774	3,138.43	89.1387	3,138.43	87.8526	3,138.43	87.4404	3,138.43	86.5721	3,138.43	85.7955	3,138.43	85.6666	3,138.43	84.5567	3,138.43	86.7147	3,138.43	86.0922	3,138.43	85.3843	3,138.43	85.0402	3,138.43	79.7171	3,138.43	77.4474	3,138.43	78.7255
3,249.02	101.172	3,249.02	101.165	3,249.02	101.088	3,249.02	101.104	3,249.02	101.044	3,249.02	101.007	3,249.02	101.014	3,249.02	100.691	3,249.02	100.745	3,249.02	100.021	3,249.02	100.029	3,249.02	98.9195	3,249.02	98.8681	3,249.02	97.2999	3,249.02	97.4486	3,249.02	95.2886	3,249.02	95.7929	3,249.02	93.1797	3,249.02	93.8159	3,249.02	91.1759	3,249.02	91.553	3,249.02	89.2813	3,249.02	89.2364	3,249.02	87.5944	3,249.02	87.6967	3,249.02	86.192	3,249.02	86.7463	3,249.02	85.2785	3,249.02	85.7171	3,249.02	85.5655	3,249.02	86.4537	3,249.02	83.4895	3,249.02	84.8966	3,249.02	77.6643	3,249.02	75.3121	3,249.02	79.4837
3,363.65	100.452	3,363.65	100.558	3,363.65	100.278	3,363.65	100.616	3,363.65	100.159	3,363.65	100.579	3,363.65	100.088	3,363.65	100.309	3,363.65	99.8133	3,363.65	99.7214	3,363.65	99.1147	3,363.65	98.6947	3,363.65	98.0404	3,363.65	97.1631	3,363.65	96.6959	3,363.65	95.2609	3,363.65	94.9314	3,363.65	93.1897	3,363.65	92.7672	3,363.65	91.1275	3,363.65	90.4282	3,363.65	89.1057	3,363.65	88.2104	3,363.65	87.3096	3,363.65	86.9109	3,363.65	85.9266	3,363.65	86.0548	3,363.65	85.1291	3,363.65	84.8249	3,363.65	85.7647	3,363.65	85.7988	3,363.65	84.109	3,363.65	84.3161	3,363.65	76.0848	3,363.65	73.0853	3,363.65	77.8856
3,482.3	100.438	3,482.3	100.192	3,482.3	100.272	3,482.3	99.8199	3,482.3	99.9699	3,482.3	99.6291	3,482.3	99.8376	3,482.3	99.4701	3,482.3	99.6994	3,482.3	99.0047	3,482.3	99.2041	3,482.3	97.9871	3,482.3	98.2223	3,482.3	96.4149	3,482.3	96.7734	3,482.3	94.5044	3,482.3	94.8752	3,482.3	92.4587	3,482.3	92.6659	3,482.3	90.3654	3,482.3	90.2968	3,482.3	88.3427	3,482.3	87.9877	3,482.3	87.02	3,482.3	86.7138	3,482.3	86.1266	3,482.3	86.1149	3,482.3	84.8473	3,482.3	84.5756	3,482.3	85.4439	3,482.3	85.3324	3,482.3	83.7412	3,482.3	84.6439	3,482.3	73.0272	3,482.3	72.7455	3,482.3	76.6837
3,604.98	100.967	3,604.98	100.735	3,604.98	100.679	3,604.98	100.303	3,604.98	100.268	3,604.98	100.124	3,604.98	100.159	3,604.98	100.051	3,604.98	100.144	3,604.98	99.6049	3,604.98	99.782	3,604.98	98.4771	3,604.98	98.8261	3,604.98	96.6878	3,604.98	97.3231	3,604.98	94.4228	3,604.98	95.4279	3,604.98	91.989	3,604.98	93.2779	3,604.98	89.7813	3,604.98	90.9893	3,604.98	87.6405	3,604.98	88.5618	3,604.98	85.809	3,604.98	87.0281	3,604.98	85.2727	3,604.98	86.6363	3,604.98	84.8686	3,604.98	85.2244	3,604.98	85.0129	3,604.98	85.3835	3,604.98	83.3381	3,604.98	84.7554	3,604.98	72.7941	3,604.98	73.1737	3,604.98	75.9635
3,732.06	100.945	3,732.06	100.552	3,732.06	100.581	3,732.06	99.961	3,732.06	99.9093	3,732.06	99.8883	3,732.06	99.7204	3,732.06	100.097	3,732.06	99.8577	3,732.06	99.8917	3,732.06	99.5429	3,732.06	98.9658	3,732.06	98.5322	3,732.06	97.4041	3,732.06	97.0537	3,732.06	95.294	3,732.06	95.173	3,732.06	92.8835	3,732.06	92.9772	3,732.06	90.7253	3,732.06	90.6619	3,732.06	88.8137	3,732.06	88.1341	3,732.06	87.1862	3,732.06	86.166	3,732.06	86.132	3,732.06	85.7495	3,732.06	85.0706	3,732.06	84.9762	3,732.06	85.6816	3,732.06	85.2441	3,732.06	84.446	3,732.06	84.7316	3,732.06	73.6483	3,732.06	74.6973	3,732.06	74.0644
3,863.89	101.277	3,863.89	100.898	3,863.89	100.849	3,863.89	100.27	3,863.89	100.22	3,863.89	100.184	3,863.89	100.186	3,863.89	100.356	3,863.89	100.312	3,863.89	100.058	3,863.89	99.8683	3,863.89	99.0091	3,863.89	98.7501	3,863.89	97.3163	3,863.89	97.0503	3,863.89	95.1309	3,863.89	94.8664	3,863.89	92.8138	3,863.89	92.435	3,863.89	90.7583	3,863.89	90.0695	3,863.89	88.5065	3,863.89	87.7503	3,863.89	86.4399	3,863.89	86.0709	3,863.89	85.6452	3,863.89	85.9056	3,863.89	84.3209	3,863.89	84.9207	3,863.89	84.8532	3,863.89	84.7011	3,863.89	84.4682	3,863.89	84.5473	3,863.89	72.7768	3,863.89	73.8097	3,863.89	74.4913
4,000.12	101.672	4,000.12	101.32	4,000.12	101.312	4,000.12	100.811	4,000.12	100.781	4,000.12	100.767	4,000.12	100.761	4,000.12	100.775	4,000.12	100.83	4,000.12	100.213	4,000.12	100.374	4,000.12	98.9347	4,000.12	99.2763	4,000.12	97.0396	4,000.12	97.6419	4,000.12	94.6694	4,000.12	95.5532	4,000.12	92.3927	4,000.12	93.0947	4,000.12	90.5971	4,000.12	90.7407	4,000.12	88.455	4,000.12	88.3964	4,000.12	86.264	4,000.12	86.1193	4,000.12	85.9552	4,000.12	85.7007	4,000.12	85.1796	4,000.12	85.1226	4,000.12	84.5801	4,000.12	84.3627	4,000.12	84.0197	4,000.12	84.3817	4,000.12	71.3641	4,000.12	73.6898	4,000.12	74.5536
4,141.11	101.616	4,141.11	101.388	4,141.11	101.146	4,141.11	101.004	4,141.11	100.605	4,141.11	101.116	4,141.11	100.608	4,141.11	101.312	4,141.11	100.62	4,141.11	100.956	4,141.11	100.118	4,141.11	99.8481	4,141.11	99.0397	4,141.11	98.0801	4,141.11	97.3967	4,141.11	95.6201	4,141.11	95.2116	4,141.11	92.64	4,141.11	92.6622	4,141.11	89.8222	4,141.11	90.328	4,141.11	87.2921	4,141.11	88.0786	4,141.11	85.3942	4,141.11	85.9563	4,141.11	85.7833	4,141.11	85.3648	4,141.11	85.802	4,141.11	84.4965	4,141.11	84.67	4,141.11	83.8718	4,141.11	83.9583	4,141.11	84.3843	4,141.11	74.1659	4,141.11	75.1972	4,141.11	70.8107
4,287.23	102.704	4,287.23	102.19	4,287.23	102.365	4,287.23	101.416	4,287.23	101.765	4,287.23	101.096	4,287.23	101.612	4,287.23	100.879	4,287.23	101.464	4,287.23	100.208	4,287.23	100.815	4,287.23	98.9635	4,287.23	99.6604	4,287.23	97.277	4,287.23	98.0424	4,287.23	95.298	4,287.23	95.9362	4,287.23	93.3398	4,287.23	93.3214	4,287.23	91.5746	4,287.23	90.8674	4,287.23	89.3542	4,287.23	88.638	4,287.23	86.9263	4,287.23	86.3639	4,287.23	86.105	4,287.23	85.8337	4,287.23	85.0958	4,287.23	85.3451	4,287.23	84.394	4,287.23	83.7926	4,287.23	83.7978	4,287.23	84.2497	4,287.23	71.6451	4,287.23	75.3535	4,287.23	74.0222
4,438.11	102.624	4,438.11	102.326	4,438.11	102.241	4,438.11	101.951	4,438.11	101.746	4,438.11	101.94	4,438.11	101.651	4,438.11	101.76	4,438.11	101.45	4,438.11	101.08	4,438.11	100.852	4,438.11	99.865	4,438.11	99.8209	4,438.11	98.1145	4,438.11	98.2533	4,438.11	95.6785	4,438.11	96.085	4,438.11	92.6374	4,438.11	93.4414	4,438.11	89.7497	4,438.11	91.1255	4,438.11	86.9934	4,438.11	88.8123	4,438.11	84.0952	4,438.11	86.1882	4,438.11	84.4768	4,438.11	85.4942	4,438.11	85.4232	4,438.11	85.6387	4,438.11	83.4791	4,438.11	84.3937	4,438.11	83.0201	4,438.11	84.733	4,438.11	70.9431	4,438.11	76.4532	4,438.11	72.2059
4,594.85	102.692	4,594.85	102.427	4,594.85	102.412	4,594.85	102.004	4,594.85	102.076	4,594.85	101.695	4,594.85	101.928	4,594.85	101.279	4,594.85	101.503	4,594.85	100.595	4,594.85	100.773	4,594.85	99.5017	4,594.85	99.7416	4,594.85	98.0023	4,594.85	98.3052	4,594.85	95.8514	4,594.85	96.3201	4,594.85	93.4832	4,594.85	93.5707	4,594.85	91.4832	4,594.85	90.9736	4,594.85	89.2978	4,594.85	88.6738	4,594.85	86.9444	4,594.85	86.3399	4,594.85	86.0212	4,594.85	85.5707	4,594.85	86.3099	4,594.85	85.6624	4,594.85	85.0215	4,594.85	83.5651	4,594.85	84.1638	4,594.85	84.3136	4,594.85	71.6849	4,594.85	76.7059	4,594.85	72.6788
4,756.71	102.413	4,756.71	102.226	4,756.71	102.199	4,756.71	101.946	4,756.71	101.953	4,756.71	101.743	4,756.71	101.749	4,756.71	101.328	4,756.71	101.192	4,756.71	100.684	4,756.71	100.459	4,756.71	99.743	4,756.71	99.5691	4,756.71	98.3212	4,756.71	98.2407	4,756.71	96.1771	4,756.71	96.1789	4,756.71	93.4753	4,756.71	93.5517	4,756.71	90.4673	4,756.71	91.054	4,756.71	87.4137	4,756.71	88.2229	4,756.71	84.8996	4,756.71	85.3614	4,756.71	84.4141	4,756.71	84.6775	4,756.71	85.3175	4,756.71	85.586	4,756.71	83.5682	4,756.71	83.7183	4,756.71	83.1815	4,756.71	83.7347	4,756.71	73.152	4,756.71	76.5845	4,756.71	70.0883
4,924.44	102.496	4,924.44	102.379	4,924.44	102.148	4,924.44	102.029	4,924.44	101.723	4,924.44	101.586	4,924.44	101.341	4,924.44	101.005	4,924.44	100.729	4,924.44	100.438	4,924.44	100.214	4,924.44	99.5465	4,924.44	99.5551	4,924.44	98.0953	4,924.44	98.3871	4,924.44	95.9189	4,924.44	96.4366	4,924.44	93.1913	4,924.44	93.5853	4,924.44	90.3963	4,924.44	90.9655	4,924.44	88.2728	4,924.44	88.5784	4,924.44	86.8894	4,924.44	86.2836	4,924.44	85.9464	4,924.44	84.835	4,924.44	86.1096	4,924.44	85.432	4,924.44	84.2406	4,924.44	83.4216	4,924.44	83.8176	4,924.44	83.3033	4,924.44	74.523	4,924.44	77.8263	4,924.44	65.7624
5,098.39	102.753	5,098.39	102.379	5,098.39	102.656	5,098.39	101.751	5,098.39	102.342	5,098.39	101.096	5,098.39	101.861	5,098.39	100.548	5,098.39	101.26	5,098.39	100.261	5,098.39	100.954	5,098.39	99.6376	5,098.39	100.327	5,098.39	98.4651	5,098.39	99.0686	5,098.39	96.6111	5,098.39	96.9279	5,098.39	94.0441	5,098.39	94.1054	5,098.39	90.9239	5,098.39	91.4472	5,098.39	88.0617	5,098.39	88.6791	5,098.39	86.3507	5,098.39	86.4644	5,098.39	85.187	5,098.39	85.1196	5,098.39	85.6456	5,098.39	86.1472	5,098.39	83.2296	5,098.39	84.3982	5,098.39	82.8203	5,098.39	83.4784	5,098.39	72.938	5,098.39	76.3537	5,098.39	69.449
5,278.2	102.512	5,278.2	102.423	5,278.2	102.141	5,278.2	102.01	5,278.2	101.654	5,278.2	101.499	5,278.2	101.153	5,278.2	101.151	5,278.2	100.635	5,278.2	100.856	5,278.2	100.426	5,278.2	100.031	5,278.2	99.8216	5,278.2	98.5804	5,278.2	98.6247	5,278.2	96.0561	5,278.2	96.5223	5,278.2	92.8079	5,278.2	93.6417	5,278.2	89.1922	5,278.2	91.0512	5,278.2	87.0846	5,278.2	88.3067	5,278.2	86.6429	5,278.2	86.2666	5,278.2	85.4001	5,278.2	84.3139	5,278.2	86.1939	5,278.2	84.635	5,278.2	83.1168	5,278.2	83.2641	5,278.2	82.4245	5,278.2	82.2678	5,278.2	74.8522	5,278.2	76.8835	5,278.2	61.4078
5,464.23	102.548	5,464.23	102.293	5,464.23	102.228	5,464.23	101.528	5,464.23	101.695	5,464.23	100.688	5,464.23	101.092	5,464.23	100.303	5,464.23	100.616	5,464.23	100.203	5,464.23	100.454	5,464.23	99.5422	5,464.23	99.7303	5,464.23	98.2726	5,464.23	98.3229	5,464.23	96.428	5,464.23	95.9918	5,464.23	94.1325	5,464.23	93.2587	5,464.23	91.1734	5,464.23	90.6235	5,464.23	88.6177	5,464.23	87.4808	5,464.23	87.3963	5,464.23	85.647	5,464.23	85.1831	5,464.23	84.202	5,464.23	84.5385	5,464.23	83.9092	5,464.23	82.45	5,464.23	82.2911	5,464.23	80.6696	5,464.23	81.3167	5,464.23	71.7692	5,464.23	74.0866	5,464.23	67.488
5,656.86	101.926	5,656.86	101.577	5,656.86	101.556	5,656.86	100.863	5,656.86	100.815	5,656.86	100.362	5,656.86	100.209	5,656.86	100.35	5,656.86	99.9998	5,656.86	100.227	5,656.86	99.8693	5,656.86	99.2181	5,656.86	98.8935	5,656.86	97.6926	5,656.86	97.3239	5,656.86	95.3287	5,656.86	94.9837	5,656.86	92.0174	5,656.86	92.3071	5,656.86	88.0484	5,656.86	89.7167	5,656.86	85.1089	5,656.86	86.5552	5,656.86	84.6429	5,656.86	84.8896	5,656.86	83.187	5,656.86	83.4457	5,656.86	83.5414	5,656.86	83.293	5,656.86	80.8109	5,656.86	81.5357	5,656.86	80.0184	5,656.86	80.0583	5,656.86	70.3562	5,656.86	71.5892	5,656.86	69.8979
5,856.45	101.227	5,856.45	100.897	5,856.45	100.648	5,856.45	100.091	5,856.45	99.7743	5,856.45	99.6672	5,856.45	99.2789	5,856.45	99.6049	5,856.45	99.0949	5,856.45	99.1399	5,856.45	98.6928	5,856.45	97.9046	5,856.45	97.4311	5,856.45	96.2012	5,856.45	95.7156	5,856.45	93.8411	5,856.45	93.1813	5,856.45	90.8098	5,856.45	90.3987	5,856.45	87.2738	5,856.45	87.7445	5,856.45	85.1408	5,856.45	84.1152	5,856.45	84.6877	5,856.45	82.322	5,856.45	82.3263	5,856.45	80.9417	5,856.45	81.8979	5,856.45	80.5794	5,856.45	78.8098	5,856.45	78.4495	5,856.45	78.227	5,856.45	77.2945	5,856.45	70.9676	5,856.45	70.4122	5,856.45	66.1205
6,062.99	101.251	6,062.99	100.939	6,062.99	100.555	6,062.99	100.129	6,062.99	99.598	6,062.99	99.6405	6,062.99	99.1479	6,062.99	99.2741	6,062.99	98.8158	6,062.99	98.486	6,062.99	98.0397	6,062.99	97.0965	6,062.99	96.5617	6,062.99	95.3122	6,062.99	94.8411	6,062.99	92.9816	6,062.99	92.3514	6,062.99	90.292	6,062.99	89.9219	6,062.99	86.8668	6,062.99	87.2769	6,062.99	83.855	6,062.99	83.1846	6,062.99	82.8806	6,062.99	81.1469	6,062.99	80.9104	6,062.99	79.6634	6,062.99	80.1655	6,062.99	79.6265	6,062.99	76.0395	6,062.99	76.8346	6,062.99	76.1209	6,062.99	75.6564	6,062.99	62.7493	6,062.99	66.2507	6,062.99	70.9211
6,276.86	102	6,276.86	101.378	6,276.86	101.555	6,276.86	100.324	6,276.86	100.762	6,276.86	99.7475	6,276.86	100.324	6,276.86	99.2837	6,276.86	99.8479	6,276.86	98.4009	6,276.86	98.9295	6,276.86	96.9356	6,276.86	97.4033	6,276.86	95.2517	6,276.86	95.6364	6,276.86	93.0976	6,276.86	93.1235	6,276.86	90.1228	6,276.86	90.6378	6,276.86	86.3224	6,276.86	87.553	6,276.86	82.8822	6,276.86	83.1216	6,276.86	81.8191	6,276.86	81.7371	6,276.86	78.4793	6,276.86	79.8051	6,276.86	79.3378	6,276.86	78.9068	6,276.86	75.9962	6,276.86	76.7241	6,276.86	73.594	6,276.86	75.2777	6,276.86	63.8126	6,276.86	66.3987	6,276.86	71.0513
6,498.05	102.446	6,498.05	101.815	6,498.05	101.878	6,498.05	100.917	6,498.05	100.969	6,498.05	100.645	6,498.05	100.578	6,498.05	100.131	6,498.05	99.9476	6,498.05	99.0195	6,498.05	98.788	6,498.05	97.4869	6,498.05	97.2014	6,498.05	95.7109	6,498.05	95.5713	6,498.05	93.2521	6,498.05	93.0444	6,498.05	89.9796	6,498.05	90.4755	6,498.05	85.682	6,498.05	87.3297	6,498.05	82.0055	6,498.05	81.5361	6,498.05	82.4826	6,498.05	80.2989	6,498.05	79.8934	6,498.05	79.9748	6,498.05	79.6708	6,498.05	79.8004	6,498.05	74.9144	6,498.05	77.6041	6,498.05	74.9848	6,498.05	74.558	6,498.05	62.675	6,498.05	66.2816	6,498.05	71.5811
6,727.29	102.602	6,727.29	102.229	6,727.29	102.148	6,727.29	101.693	6,727.29	101.597	6,727.29	101.199	6,727.29	101.18	6,727.29	100.04	6,727.29	100.151	6,727.29	98.6682	6,727.29	98.8549	6,727.29	97.0748	6,727.29	97.3435	6,727.29	95.2318	6,727.29	95.6914	6,727.29	92.94	6,727.29	93.1558	6,727.29	90.0363	6,727.29	90.7603	6,727.29	86.0367	6,727.29	87.3963	6,727.29	82.8141	6,727.29	81.6685	6,727.29	83.1882	6,727.29	81.1933	6,727.29	79.5217	6,727.29	80.2373	6,727.29	79.5795	6,727.29	78.7113	6,727.29	75.8698	6,727.29	76.9815	6,727.29	72.955	6,727.29	73.7557	6,727.29	63.9457	6,727.29	68.117	6,727.29	71.3129
6,964.23	102.554	6,964.23	102.222	6,964.23	102.128	6,964.23	101.652	6,964.23	101.55	6,964.23	101.116	6,964.23	101.025	6,964.23	100.058	6,964.23	99.9078	6,964.23	98.8442	6,964.23	98.6354	6,964.23	97.2993	6,964.23	97.0944	6,964.23	95.435	6,964.23	95.3639	6,964.23	93.1566	6,964.23	92.5986	6,964.23	90.2475	6,964.23	90.2805	6,964.23	86.2195	6,964.23	87.0326	6,964.23	82.0611	6,964.23	81.0295	6,964.23	82.5294	6,964.23	80.5864	6,964.23	79.5273	6,964.23	79.7131	6,964.23	78.5761	6,964.23	78.6232	6,964.23	75.9992	6,964.23	76.9681	6,964.23	72.9945	6,964.23	72.531	6,964.23	64.6445	6,964.23	67.6774	6,964.23	69.6532
7,209.96	102.496	7,209.96	102.063	7,209.96	101.945	7,209.96	101.416	7,209.96	101.212	7,209.96	100.857	7,209.96	100.606	7,209.96	99.6629	7,209.96	99.3658	7,209.96	98.4631	7,209.96	98.0965	7,209.96	96.8472	7,209.96	96.3883	7,209.96	95.0964	7,209.96	94.6849	7,209.96	92.7496	7,209.96	91.8751	7,209.96	89.6209	7,209.96	89.7992	7,209.96	85.4234	7,209.96	86.5196	7,209.96	80.6762	7,209.96	80.3016	7,209.96	82.668	7,209.96	80.8237	7,209.96	80.3276	7,209.96	79.9533	7,209.96	78.0154	7,209.96	77.3611	7,209.96	75.644	7,209.96	76.4445	7,209.96	74.5256	7,209.96	74.2286	7,209.96	70.0586	7,209.96	70.7347	7,209.96	68.1241
7,464.11	100.836	7,464.11	100.657	7,464.11	100.647	7,464.11	100.396	7,464.11	100.385	7,464.11	99.7594	7,464.11	99.7271	7,464.11	98.3926	7,464.11	98.3496	7,464.11	97.1758	7,464.11	97.0229	7,464.11	95.3486	7,464.11	95.1739	7,464.11	93.4337	7,464.11	93.4219	7,464.11	91.179	7,464.11	90.6718	7,464.11	88.347	7,464.11	89.2854	7,464.11	84.6812	7,464.11	85.8369	7,464.11	80.2578	7,464.11	80.1994	7,464.11	80.9845	7,464.11	80.1161	7,464.11	79.4178	7,464.11	79.1399	7,464.11	74.7992	7,464.11	72.4591	7,464.11	74.0259	7,464.11	74.4295	7,464.11	72.2216	7,464.11	71.7943	7,464.11	72.0152	7,464.11	70.4057	7,464.11	58.787
7,727.42	100.039	7,727.42	99.7305	7,727.42	99.8158	7,727.42	99.2512	7,727.42	99.2885	7,727.42	98.5096	7,727.42	98.4809	7,727.42	97.1274	7,727.42	97.1623	7,727.42	95.7038	7,727.42	95.679	7,727.42	93.5583	7,727.42	93.6375	7,727.42	91.3683	7,727.42	91.8934	7,727.42	89.0701	7,727.42	89.1482	7,727.42	86.359	7,727.42	87.8516	7,727.42	82.3953	7,727.42	84.4639	7,727.42	78.0253	7,727.42	78.4557	7,727.42	78.729	7,727.42	78.0796	7,727.42	77.0673	7,727.42	78.0263	7,727.42	72.8137	7,727.42	70.984	7,727.42	69.8156	7,727.42	71.0436	7,727.42	72.7946	7,727.42	71.7445	7,727.42	70.2759	7,727.42	70.775	7,727.42	64.5962
7,999.88	99.4618	7,999.88	99.3021	7,999.88	99.321	7,999.88	98.802	7,999.88	98.9479	7,999.88	97.6758	7,999.88	98.0359	7,999.88	95.8931	7,999.88	96.3862	7,999.88	93.9059	7,999.88	94.4844	7,999.88	91.215	7,999.88	92.263	7,999.88	89.1222	7,999.88	90.5663	7,999.88	86.7499	7,999.88	87.9357	7,999.88	84.0285	7,999.88	86.2176	7,999.88	80.471	7,999.88	82.8	7,999.88	76.68	7,999.88	77.4984	7,999.88	76.396	7,999.88	76.2177	7,999.88	73.8208	7,999.88	76.519	7,999.88	69.4863	7,999.88	64.8575	7,999.88	65.7829	7,999.88	66.4862	7,999.88	72.0897	7,999.88	69.7382	7,999.88	70.4933	7,999.88	70.0591	7,999.88	63.9868
8,282.23	100.854	8,282.23	100.45	8,282.23	100.677	8,282.23	99.5359	8,282.23	99.926	8,282.23	98.1434	8,282.23	98.6864	8,282.23	96.1133	8,282.23	96.9348	8,282.23	93.8258	8,282.23	94.7343	8,282.23	90.8639	8,282.23	92.2824	8,282.23	88.3572	8,282.23	90.2051	8,282.23	85.9581	8,282.23	87.1033	8,282.23	82.7665	8,282.23	85.2049	8,282.23	79.529	8,282.23	82.0931	8,282.23	75.0223	8,282.23	74.3923	8,282.23	74.2366	8,282.23	72.1809	8,282.23	71.2604	8,282.23	74.9867	8,282.23	67.5431	8,282.23	62.4191	8,282.23	59.2075	8,282.23	66.2457	8,282.23	71.5683	8,282.23	69.3944	8,282.23	70.0594	8,282.23	69.5133	8,282.23	65.9552
8,574.1	102.203	8,574.1	101.884	8,574.1	102.056	8,574.1	101.036	8,574.1	101.439	8,574.1	99.6505	8,574.1	100.222	8,574.1	97.4477	8,574.1	98.1894	8,574.1	94.666	8,574.1	95.6531	8,574.1	91.7427	8,574.1	93.0153	8,574.1	89.569	8,574.1	90.9728	8,574.1	86.8858	8,574.1	87.6128	8,574.1	83.8271	8,574.1	86.6119	8,574.1	80.9202	8,574.1	83.5383	8,574.1	76.7123	8,574.1	76.936	8,574.1	73.8593	8,574.1	71.7589	8,574.1	73.5444	8,574.1	76.8082	8,574.1	66.6669	8,574.1	65.7793	8,574.1	64.8776	8,574.1	68.6058	8,574.1	69.9416	8,574.1	67.2977	8,574.1	66.7254	8,574.1	69.1855	8,574.1	62.5673
8,876.59	102.596	8,876.59	102.458	8,876.59	102.513	8,876.59	101.685	8,876.59	101.892	8,876.59	100.194	8,876.59	100.482	8,876.59	97.8848	8,876.59	98.4356	8,876.59	95.214	8,876.59	95.8189	8,876.59	92.413	8,876.59	93.1659	8,876.59	89.595	8,876.59	90.947	8,876.59	87.2027	8,876.59	87.6332	8,876.59	84.4531	8,876.59	86.7646	8,876.59	82.2218	8,876.59	83.5156	8,876.59	78.2334	8,876.59	77.8706	8,876.59	75.6684	8,876.59	73.8498	8,876.59	74.669	8,876.59	76.9444	8,876.59	68.0285	8,876.59	68.9212	8,876.59	65.5574	8,876.59	69.9132	8,876.59	72.1968	8,876.59	71.8646	8,876.59	70.7081	8,876.59	74.501	8,876.59	68.4238
9,189.7	101.88	9,189.7	101.679	9,189.7	101.697	9,189.7	100.819	9,189.7	100.96	9,189.7	99.4743	9,189.7	99.584	9,189.7	97.1291	9,189.7	97.4793	9,189.7	94.268	9,189.7	94.6293	9,189.7	91.2227	9,189.7	91.9398	9,189.7	88.5635	9,189.7	89.5536	9,189.7	86.6384	9,189.7	86.4487	9,189.7	84.1369	9,189.7	85.4861	9,189.7	82.326	9,189.7	82.3078	9,189.7	79.367	9,189.7	78.6791	9,189.7	74.2317	9,189.7	73.7653	9,189.7	74.9318	9,189.7	76.7461	9,189.7	68.2336	9,189.7	65.4465	9,189.7	61.6186	9,189.7	69.1473	9,189.7	76.0957	9,189.7	74.1907	9,189.7	73.849	9,189.7	75.4971	9,189.7	68.2601
9,513.79	100.377	9,513.79	100.324	9,513.79	100.242	9,513.79	99.497	9,513.79	99.419	9,513.79	97.9263	9,513.79	97.7545	9,513.79	95.5982	9,513.79	95.4664	9,513.79	92.7472	9,513.79	92.3897	9,513.79	89.6956	9,513.79	89.2534	9,513.79	86.9439	9,513.79	86.5831	9,513.79	85.4279	9,513.79	83.1478	9,513.79	82.4279	9,513.79	82.6709	9,513.79	81.979	9,513.79	80.3887	9,513.79	79.0409	9,513.79	76.2062	9,513.79	72.6428	9,513.79	71.3786	9,513.79	74.3114	9,513.79	74.3645	9,513.79	63.961	9,513.79	62.5839	9,513.79	50.9451	9,513.79	65.8855	9,513.79	76.1458	9,513.79	75.1813	9,513.79	74.3551	9,513.79	75.7258	9,513.79	72.2032
9,849.24	100.165	9,849.24	99.9066	9,849.24	99.8792	9,849.24	98.761	9,849.24	98.834	9,849.24	96.9918	9,849.24	96.8939	9,849.24	94.2229	9,849.24	94.1309	9,849.24	90.9017	9,849.24	90.7061	9,849.24	87.3662	9,849.24	86.9839	9,849.24	84.5544	9,849.24	84.7916	9,849.24	82.6708	9,849.24	81.544	9,849.24	79.9477	9,849.24	82.4412	9,849.24	80.3602	9,849.24	79.2669	9,849.24	77.2734	9,849.24	75.8309	9,849.24	69.0334	9,849.24	66.7706	9,849.24	72.5445	9,849.24	73.6756	9,849.24	63.3971	9,849.24	62.36	9,849.24	46.9842	9,849.24	68.2209	9,849.24	75.0425	9,849.24	74.0711	9,849.24	74.3717	9,849.24	75.281	9,849.24	70.7025
10,196.4	100.812	10,196.4	100.621	10,196.4	100.592	10,196.4	99.3162	10,196.4	99.4398	10,196.4	97.1652	10,196.4	97.1367	10,196.4	94.2026	10,196.4	94.3471	10,196.4	90.3257	10,196.4	90.4944	10,196.4	86.5847	10,196.4	86.8952	10,196.4	83.1711	10,196.4	84.7701	10,196.4	81.4797	10,196.4	81.6798	10,196.4	79.7978	10,196.4	82.1397	10,196.4	79.5514	10,196.4	79.0366	10,196.4	76.8322	10,196.4	77.5714	10,196.4	70.4204	10,196.4	67.5116	10,196.4	72.3443	10,196.4	75.2665	10,196.4	69.6642	10,196.4	59.5606	10,196.4	60.0681	10,196.4	69.5542	10,196.4	75.6833	10,196.4	74.3061	10,196.4	74.0808	10,196.4	75.8661	10,196.4	74.1663
10,556	101.189	10,556	101.022	10,556	101	10,556	99.758	10,556	99.8441	10,556	97.3804	10,556	97.3173	10,556	94.1275	10,556	94.309	10,556	90.2177	10,556	90.2982	10,556	86.1046	10,556	86.4365	10,556	83.0844	10,556	84.6135	10,556	82.3463	10,556	80.9189	10,556	80.6099	10,556	83.1734	10,556	81.3753	10,556	79.7293	10,556	80.1002	10,556	80.4918	10,556	70.3078	10,556	69.8538	10,556	74.8184	10,556	75.5605	10,556	71.1892	10,556	62.2847	10,556	63.9933	10,556	70.5089	10,556	76.5617	10,556	75.5432	10,556	74.1541	10,556	76.5332	10,556	74.9728
10,928.5	101.12	10,928.5	100.901	10,928.5	100.924	10,928.5	99.381	10,928.5	99.647	10,928.5	96.8365	10,928.5	96.9698	10,928.5	93.7052	10,928.5	94.0169	10,928.5	89.5814	10,928.5	89.8307	10,928.5	85.6261	10,928.5	86.0075	10,928.5	82.1926	10,928.5	84.0954	10,928.5	82.0616	10,928.5	81.0193	10,928.5	80.0652	10,928.5	83.5938	10,928.5	82.2344	10,928.5	80.2309	10,928.5	81.0942	10,928.5	81.6773	10,928.5	71.4226	10,928.5	71.4615	10,928.5	74.5404	10,928.5	75.3009	10,928.5	74.7449	10,928.5	67.6698	10,928.5	65.0397	10,928.5	71.8688	10,928.5	78.6909	10,928.5	77.1767	10,928.5	75.269	10,928.5	77.2348	10,928.5	75.4933
11,313.7	100.648	11,313.7	100.451	11,313.7	100.395	11,313.7	98.9183	11,313.7	99.1602	11,313.7	96.0788	11,313.7	96.3379	11,313.7	92.7477	11,313.7	93.2014	11,313.7	88.4266	11,313.7	88.9447	11,313.7	83.406	11,313.7	84.6596	11,313.7	80.4074	11,313.7	82.8214	11,313.7	80.8274	11,313.7	79.6982	11,313.7	78.3089	11,313.7	82.361	11,313.7	82.1783	11,313.7	79.3063	11,313.7	80.9667	11,313.7	81.4919	11,313.7	70.3158	11,313.7	72.4314	11,313.7	72.0405	11,313.7	73.1261	11,313.7	76.3241	11,313.7	70.4856	11,313.7	65.31	11,313.7	71.6249	11,313.7	79.3516	11,313.7	77.8071	11,313.7	76.5183	11,313.7	77.7178	11,313.7	76.2207
11,712.5	99.8657	11,712.5	99.6014	11,712.5	99.6603	11,712.5	97.8927	11,712.5	98.2988	11,712.5	94.8542	11,712.5	95.1466	11,712.5	91.5228	11,712.5	92.0293	11,712.5	86.4757	11,712.5	87.0467	11,712.5	81.5886	11,712.5	82.0625	11,712.5	78.5579	11,712.5	80.8007	11,712.5	79.1	11,712.5	77.7883	11,712.5	76.8534	11,712.5	80.9395	11,712.5	81.6582	11,712.5	77.5685	11,712.5	80.0502	11,712.5	80.5178	11,712.5	71.6257	11,712.5	70.1718	11,712.5	69.8823	11,712.5	72.0552	11,712.5	77.5315	11,712.5	73.539	11,712.5	63.3834	11,712.5	72.2124	11,712.5	80.1347	11,712.5	78.2073	11,712.5	76.6747	11,712.5	77.3146	11,712.5	77.178
12,125.6	99.7796	12,125.6	99.4137	12,125.6	99.3577	12,125.6	97.4994	12,125.6	97.7278	12,125.6	94.0485	12,125.6	94.1941	12,125.6	90.3199	12,125.6	90.6885	12,125.6	84.5521	12,125.6	85.05	12,125.6	79.2649	12,125.6	80.5652	12,125.6	75.2137	12,125.6	79.4967	12,125.6	77.8146	12,125.6	76.7366	12,125.6	74.6115	12,125.6	79.5632	12,125.6	80.9585	12,125.6	76.6718	12,125.6	79.5381	12,125.6	80.0094	12,125.6	72.572	12,125.6	70.9607	12,125.6	69.6796	12,125.6	72.0796	12,125.6	77.2668	12,125.6	73.7098	12,125.6	61.7587	12,125.6	72.8105	12,125.6	79.0751	12,125.6	77.0814	12,125.6	75.3425	12,125.6	75.8061	12,125.6	77.0327
12,553.3	100.897	12,553.3	100.539	12,553.3	100.351	12,553.3	98.5993	12,553.3	98.6179	12,553.3	94.9641	12,553.3	94.933	12,553.3	91.0622	12,553.3	91.4222	12,553.3	85.1743	12,553.3	85.538	12,553.3	80.2635	12,553.3	81.9216	12,553.3	76.9171	12,553.3	79.7835	12,553.3	79.9146	12,553.3	76.931	12,553.3	74.8928	12,553.3	80.1495	12,553.3	83.3686	12,553.3	76.3283	12,553.3	81.8278	12,553.3	80.6492	12,553.3	75.7681	12,553.3	71.8427	12,553.3	72.9698	12,553.3	73.6901	12,553.3	79.8232	12,553.3	75.8863	12,553.3	69.4047	12,553.3	74.4474	12,553.3	80.451	12,553.3	78.671	12,553.3	73.7801	12,553.3	76.2872	12,553.3	77.2359
12,996.1	102.259	12,996.1	101.612	12,996.1	101.668	12,996.1	99.3296	12,996.1	99.7265	12,996.1	95.3097	12,996.1	95.8721	12,996.1	91.0542	12,996.1	91.8731	12,996.1	84.6702	12,996.1	86.0357	12,996.1	79.8776	12,996.1	82.0469	12,996.1	74.0911	12,996.1	78.3279	12,996.1	78.8794	12,996.1	76.9691	12,996.1	71.8036	12,996.1	79.3173	12,996.1	83.1198	12,996.1	75.2015	12,996.1	81.754	12,996.1	80.8107	12,996.1	77.6619	12,996.1	74.9366	12,996.1	74.2315	12,996.1	73.8239	12,996.1	80.6249	12,996.1	77.3145	12,996.1	71.9631	12,996.1	75.6003	12,996.1	81.6375	12,996.1	79.1259	12,996.1	76.9545	12,996.1	77.3416	12,996.1	75.4663
13,454.2	102.327	13,454.2	101.53	13,454.2	101.596	13,454.2	99.1653	13,454.2	99.6135	13,454.2	94.575	13,454.2	95.5167	13,454.2	90.2222	13,454.2	91.0928	13,454.2	83.4028	13,454.2	85.0006	13,454.2	79.2601	13,454.2	81.2611	13,454.2	70.7537	13,454.2	76.5252	13,454.2	78.0297	13,454.2	77.1277	13,454.2	67.3991	13,454.2	77.7226	13,454.2	82.4205	13,454.2	73.217	13,454.2	80.8444	13,454.2	80.0294	13,454.2	77.8494	13,454.2	75.4059	13,454.2	73.9136	13,454.2	73.7081	13,454.2	80.2449	13,454.2	77.3754	13,454.2	70.4926	13,454.2	75.3843	13,454.2	82.0431	13,454.2	79.4745	13,454.2	78.8452	13,454.2	77.8011	13,454.2	79.539
13,928.8	101.77	13,928.8	100.806	13,928.8	100.934	13,928.8	98.1972	13,928.8	98.6967	13,928.8	93.593	13,928.8	94.3336	13,928.8	88.9365	13,928.8	89.7032	13,928.8	82.0257	13,928.8	83.8084	13,928.8	78.5199	13,928.8	80.5725	13,928.8	63.5231	13,928.8	74.1133	13,928.8	76.0074	13,928.8	77.0869	13,928.8	68.628	13,928.8	74.4158	13,928.8	80.8658	13,928.8	70.4308	13,928.8	79.0334	13,928.8	77.9689	13,928.8	78.1403	13,928.8	76.3047	13,928.8	74.2635	13,928.8	73.1853	13,928.8	79.2129	13,928.8	77.4427	13,928.8	68.7809	13,928.8	75.133	13,928.8	80.839	13,928.8	78.2756	13,928.8	77.2805	13,928.8	75.7591	13,928.8	78.7624
14,419.9	101.015	14,419.9	99.9622	14,419.9	100.138	14,419.9	97.3089	14,419.9	97.8876	14,419.9	92.463	14,419.9	93.4728	14,419.9	87.6084	14,419.9	88.7699	14,419.9	80.8595	14,419.9	82.9501	14,419.9	77.8308	14,419.9	80.547	14,419.9	62.464	14,419.9	69.5326	14,419.9	72.9895	14,419.9	76.8637	14,419.9	71.6633	14,419.9	70.4096	14,419.9	78.7082	14,419.9	68.2035	14,419.9	76.4635	14,419.9	75.268	14,419.9	77.6497	14,419.9	75.484	14,419.9	73.9535	14,419.9	72.4661	14,419.9	78.4538	14,419.9	76.0245	14,419.9	69.45	14,419.9	73.38	14,419.9	79.643	14,419.9	77.0638	14,419.9	75.4781	14,419.9	73.6318	14,419.9	77.5859
14,928.6	101.021	14,928.6	99.7162	14,928.6	100.22	14,928.6	96.7932	14,928.6	97.8867	14,928.6	91.5744	14,928.6	93.5223	14,928.6	86.3313	14,928.6	88.468	14,928.6	79.6207	14,928.6	82.5625	14,928.6	76.3224	14,928.6	80.8422	14,928.6	68.7263	14,928.6	56.6117	14,928.6	71.9997	14,928.6	76.9197	14,928.6	75.2368	14,928.6	60.2294	14,928.6	77.2957	14,928.6	66.7555	14,928.6	73.525	14,928.6	69.9916	14,928.6	77.1246	14,928.6	74.5734	14,928.6	72.8028	14,928.6	71.4425	14,928.6	78.0528	14,928.6	74.7727	14,928.6	69.3064	14,928.6	71.5965	14,928.6	79.6135	14,928.6	76.1734	14,928.6	76.4657	14,928.6	72.2109	14,928.6	77.6304
15,454.8	101.513	15,454.8	99.9072	15,454.8	100.574	15,454.8	96.76	15,454.8	97.9448	15,454.8	91.083	15,454.8	93.4336	15,454.8	85.2802	15,454.8	87.4282	15,454.8	78.3824	15,454.8	81.5673	15,454.8	74.7456	15,454.8	79.9404	15,454.8	72.1425	15,454.8	65.5495	15,454.8	74.388	15,454.8	76.6327	15,454.8	77.6433	15,454.8	64.889	15,454.8	77.4391	15,454.8	66.6473	15,454.8	72.272	15,454.8	66.8859	15,454.8	76.7822	15,454.8	74.4956	15,454.8	71.1624	15,454.8	70.5872	15,454.8	77.6703	15,454.8	74.6063	15,454.8	67.4069	15,454.8	70.5305	15,454.8	79.6235	15,454.8	76.4307	15,454.8	77.2933	15,454.8	71.6737	15,454.8	79.5348
16,000.1	101.242	16,000.1	99.6218	16,000.1	100.074	16,000.1	96.3429	16,000.1	97.0673	16,000.1	90.6185	16,000.1	92.2622	16,000.1	84.6453	16,000.1	85.646	16,000.1	77.8954	16,000.1	79.1031	16,000.1	73.7513	16,000.1	78.6033	16,000.1	74.7527	16,000.1	68.6636	16,000.1	75.6731	16,000.1	76.3579	16,000.1	79.8172	16,000.1	64.0873	16,000.1	76.1318	16,000.1	67.8806	16,000.1	70.9257	16,000.1	64.0749	16,000.1	75.7583	16,000.1	74.1842	16,000.1	70.3482	16,000.1	69.1324	16,000.1	76.384	16,000.1	75.0129	16,000.1	65.3218	16,000.1	69.6811	16,000.1	78.7976	16,000.1	76.2676	16,000.1	76.7982	16,000.1	71.4017	16,000.1	79.5281
16,564.1	100.416	16,564.1	98.7119	16,564.1	99.1222	16,564.1	95.2361	16,564.1	95.7614	16,564.1	89.3773	16,564.1	90.6972	16,564.1	83.0505	16,564.1	83.6478	16,564.1	75.7808	16,564.1	75.9591	16,564.1	70.9107	16,564.1	76.8557	16,564.1	75.0553	16,564.1	69.2692	16,564.1	76.152	16,564.1	76.0153	16,564.1	80.372	16,564.1	65.4735	16,564.1	74.3888	16,564.1	68.4331	16,564.1	70.6262	16,564.1	67.7704	16,564.1	73.8589	16,564.1	72.6788	16,564.1	69.7646	16,564.1	67.5422	16,564.1	73.9486	16,564.1	73.8147	16,564.1	65.2599	16,564.1	67.7341	16,564.1	77.141	16,564.1	74.7895	16,564.1	76.0655	16,564.1	70.3585	16,564.1	78.6392
17,148.2	100.127	17,148.2	98.2752	17,148.2	98.7401	17,148.2	94.496	17,148.2	94.9628	17,148.2	88.269	17,148.2	89.678	17,148.2	81.5857	17,148.2	82.0732	17,148.2	72.354	17,148.2	72.0752	17,148.2	67.9949	17,148.2	75.5911	17,148.2	75.0912	17,148.2	68.0531	17,148.2	76.2343	17,148.2	75.9135	17,148.2	80.484	17,148.2	68.386	17,148.2	71.9648	17,148.2	67.9334	17,148.2	71.623	17,148.2	70.8906	17,148.2	71.4363	17,148.2	71.2099	17,148.2	68.0163	17,148.2	66.2761	17,148.2	72.7784	17,148.2	73.2745	17,148.2	65.3487	17,148.2	66.9968	17,148.2	76.7461	17,148.2	74.4286	17,148.2	76.1625	17,148.2	70.642	17,148.2	78.9909
17,753.2	100.563	17,753.2	98.4951	17,753.2	99.0563	17,753.2	94.4559	17,753.2	94.9014	17,753.2	87.9182	17,753.2	89.5561	17,753.2	80.7888	17,753.2	81.2268	17,753.2	69.229	17,753.2	67.4911	17,753.2	66.4914	17,753.2	75.7323	17,753.2	75.7893	17,753.2	66.8007	17,753.2	76.2495	17,753.2	75.4535	17,753.2	80.4932	17,753.2	71.4808	17,753.2	67.8427	17,753.2	66.6677	17,753.2	72.7796	17,753.2	73.4753	17,753.2	67.5522	17,753.2	69.6328	17,753.2	66.0821	17,753.2	64.3197	17,753.2	73.2884	17,753.2	74.3077	17,753.2	64.1711	17,753.2	67.3827	17,753.2	77.6688	17,753.2	75.3999	17,753.2	76.6913	17,753.2	71.6966	17,753.2	80.2776
18,379	99.9505	18,379	97.849	18,379	98.3495	18,379	93.7105	18,379	93.8887	18,379	86.9127	18,379	88.4299	18,379	79.8649	18,379	79.3655	18,379	64.8115	18,379	54.9988	18,379	61.7818	18,379	75.1134	18,379	77.0575	18,379	66.5673	18,379	77.3431	18,379	74.1952	18,379	80.4789	18,379	73.1559	18,379	66.2783	18,379	67.3204	18,379	73.5482	18,379	74.9613	18,379	57.0786	18,379	65.6504	18,379	64.955	18,379	61.6207	18,379	72.5799	18,379	74.2748	18,379	62.6661	18,379	66.8975	18,379	77.0641	18,379	75.1832	18,379	75.6998	18,379	71.8778	18,379	79.8967
19,027.2	98.5337	19,027.2	96.2059	19,027.2	96.8549	19,027.2	91.8546	19,027.2	92.0269	19,027.2	84.8243	19,027.2	86.3021	19,027.2	76.2994	19,027.2	76.0198	19,027.2	58.541	19,027.2	60.4873	19,027.2	64.5688	19,027.2	73.952	19,027.2	76.6799	19,027.2	65.1741	19,027.2	77.2455	19,027.2	73.0194	19,027.2	79.6591	19,027.2	72.7298	19,027.2	65.0066	19,027.2	67.1569	19,027.2	73.0515	19,027.2	74.3525	19,027.2	59.1857	19,027.2	59.44	19,027.2	64.4093	19,027.2	60.2611	19,027.2	71.8705	19,027.2	73.1033	19,027.2	62.5114	19,027.2	64.9737	19,027.2	76.0653	19,027.2	73.9131	19,027.2	74.5984	19,027.2	70.0861	19,027.2	79.2713
19,698.5	99.0181	19,698.5	96.3056	19,698.5	97.21	19,698.5	91.2565	19,698.5	91.7355	19,698.5	83.7299	19,698.5	85.6961	19,698.5	73.875	19,698.5	74.0119	19,698.5	58.0924	19,698.5	65.1313	19,698.5	62.5733	19,698.5	74.9187	19,698.5	76.2173	19,698.5	64.9918	19,698.5	75.1364	19,698.5	70.906	19,698.5	77.339	19,698.5	73.1744	19,698.5	62.6797	19,698.5	63.3471	19,698.5	72.5164	19,698.5	73.4289	19,698.5	65.2752	19,698.5	56.4763	19,698.5	64.0939	19,698.5	62.8739	19,698.5	73.0667	19,698.5	73.3191	19,698.5	61.1413	19,698.5	65.9688	19,698.5	76.7455	19,698.5	74.4216	19,698.5	75.1773	19,698.5	70.7086	19,698.5	80.4265
19,999.9	99.1143	19,999.9	96.121	19,999.9	97.1897	19,999.9	91.2162	19,999.9	91.5695	19,999.9	84.1453	19,999.9	85.6422	19,999.9	73.1559	19,999.9	72.6301	19,999.9	54.3166	19,999.9	66.9729	19,999.9	63.4568	19,999.9	75.7917	19,999.9	76.6697	19,999.9	64.4832	19,999.9	74.3271	19,999.9	70.0138	19,999.9	76.6037	19,999.9	73.9936	19,999.9	66.5731	19,999.9	63.3561	19,999.9	73.466	19,999.9	73.7285	19,999.9	68.2999	19,999.9	60.7108	19,999.9	64.8945	19,999.9	64.532	19,999.9	74.8626	19,999.9	74.7497	19,999.9	57.1396	19,999.9	67.4617	19,999.9	77.6553	19,999.9	75.3827	19,999.9	75.4403	19,999.9	72.3425	19,999.9	81.9314
