"SPL Vertical"																																																																							
"On-Axis"		"10°"		"-10°"		"20°"		"-20°"		"30°"		"-30°"		"40°"		"-40°"		"50°"		"-50°"		"60°"		"-60°"		"70°"		"-70°"		"80°"		"-80°"		"90°"		"-90°"		"100°"		"-100°"		"110°"		"-110°"		"120°"		"-120°"		"130°"		"-130°"		"140°"		"-140°"		"150°"		"-150°"		"160°"		"-160°"		"170°"		"-170°"		"180°"	
"Frequency [Hz]"	"Sound Pessure Level [dB]  / [2.83V 1m] "	"Frequency [Hz]"	"Sound Pessure Level [dB]  / [2.83V 1m] "	"Frequency [Hz]"	"Sound Pessure Level [dB]  / [2.83V 1m] "	"Frequency [Hz]"	"Sound Pessure Level [dB]  / [2.83V 1m] "	"Frequency [Hz]"	"Sound Pessure Level [dB]  / [2.83V 1m] "	"Frequency [Hz]"	"Sound Pessure Level [dB]  / [2.83V 1m] "	"Frequency [Hz]"	"Sound Pessure Level [dB]  / [2.83V 1m] "	"Frequency [Hz]"	"Sound Pessure Level [dB]  / [2.83V 1m] "	"Frequency [Hz]"	"Sound Pessure Level [dB]  / [2.83V 1m] "	"Frequency [Hz]"	"Sound Pessure Level [dB]  / [2.83V 1m] "	"Frequency [Hz]"	"Sound Pessure Level [dB]  / [2.83V 1m] "	"Frequency [Hz]"	"Sound Pessure Level [dB]  / [2.83V 1m] "	"Frequency [Hz]"	"Sound Pessure Level [dB]  / [2.83V 1m] "	"Frequency [Hz]"	"Sound Pessure Level [dB]  / [2.83V 1m] "	"Frequency [Hz]"	"Sound Pessure Level [dB]  / [2.83V 1m] "	"Frequency [Hz]"	"Sound Pessure Level [dB]  / [2.83V 1m] "	"Frequency [Hz]"	"Sound Pessure Level [dB]  / [2.83V 1m] "	"Frequency [Hz]"	"Sound Pessure Level [dB]  / [2.83V 1m] "	"Frequency [Hz]"	"Sound Pessure Level [dB]  / [2.83V 1m] "	"Frequency [Hz]"	"Sound Pessure Level [dB]  / [2.83V 1m] "	"Frequency [Hz]"	"Sound Pessure Level [dB]  / [2.83V 1m] "	"Frequency [Hz]"	"Sound Pessure Level [dB]  / [2.83V 1m] "	"Frequency [Hz]"	"Sound Pessure Level [dB]  / [2.83V 1m] "	"Frequency [Hz]"	"Sound Pessure Level [dB]  / [2.83V 1m] "	"Frequency [Hz]"	"Sound Pessure Level [dB]  / [2.83V 1m] "	"Frequency [Hz]"	"Sound Pessure Level [dB]  / [2.83V 1m] "	"Frequency [Hz]"	"Sound Pessure Level [dB]  / [2.83V 1m] "	"Frequency [Hz]"	"Sound Pessure Level [dB]  / [2.83V 1m] "	"Frequency [Hz]"	"Sound Pessure Level [dB]  / [2.83V 1m] "	"Frequency [Hz]"	"Sound Pessure Level [dB]  / [2.83V 1m] "	"Frequency [Hz]"	"Sound Pessure Level [dB]  / [2.83V 1m] "	"Frequency [Hz]"	"Sound Pessure Level [dB]  / [2.83V 1m] "	"Frequency [Hz]"	"Sound Pessure Level [dB]  / [2.83V 1m] "	"Frequency [Hz]"	"Sound Pessure Level [dB]  / [2.83V 1m] "	"Frequency [Hz]"	"Sound Pessure Level [dB]  / [2.83V 1m] "	"Frequency [Hz]"	"Sound Pessure Level [dB]  / [2.83V 1m] "
20.1416	61.7899	20.1416	61.6709	20.1416	61.9046	20.1416	61.5626	20.1416	62.0043	20.1416	61.484	20.1416	62.0837	20.1416	61.4559	20.1416	62.1437	20.1416	61.4985	20.1416	62.1929	20.1416	61.6281	20.1416	62.2475	20.1416	61.8528	20.1416	62.3315	20.1416	62.1705	20.1416	62.4726	20.1416	62.568	20.1416	62.6946	20.1416	63.0234	20.1416	63.0081	20.1416	63.5099	20.1416	63.4043	20.1416	63.999	20.1416	63.8548	20.1416	64.4633	20.1416	64.3202	20.1416	64.8783	20.1416	64.7592	20.1416	65.2227	20.1416	65.1364	20.1416	65.4793	20.1416	65.4252	20.1416	65.6345	20.1416	65.609	20.1416	65.6792
20.5078	60.8688	20.5078	60.6228	20.5078	61.0705	20.5078	60.3536	20.5078	61.2131	20.5078	60.0898	20.5078	61.2876	20.5078	59.8687	20.5078	61.2907	20.5078	59.7333	20.5078	61.2269	20.5078	59.7263	20.5078	61.1119	20.5078	59.878	20.5078	60.9766	20.5078	60.195	20.5078	60.8705	20.5078	60.6562	20.5078	60.8565	20.5078	61.2195	20.5078	60.9937	20.5078	61.8334	20.5078	61.3092	20.5078	62.4483	20.5078	61.7806	20.5078	63.0217	20.5078	62.3447	20.5078	63.5199	20.5078	62.9242	20.5078	63.9166	20.5078	63.4513	20.5078	64.1923	20.5078	63.8781	20.5078	64.3325	20.5078	64.1751	20.5078	64.3279
21.2402	61.5042	21.2402	61.3144	21.2402	61.6683	21.2402	61.1285	21.2402	61.7859	21.2402	60.9847	21.2402	61.8448	21.2402	60.9269	21.2402	61.8423	21.2402	60.9974	21.2402	61.7872	21.2402	61.2256	21.2402	61.705	21.2402	61.6168	21.2402	61.6415	21.2402	62.1501	21.2402	61.6626	21.2402	62.7849	21.2402	61.8396	21.2402	63.4724	21.2402	62.2188	21.2402	64.1657	21.2402	62.7925	21.2402	64.825	21.2402	63.4996	21.2402	65.4176	21.2402	64.2538	21.2402	65.918	21.2402	64.9748	21.2402	66.3056	21.2402	65.6034	21.2402	66.5641	21.2402	66.1026	21.2402	66.6804	21.2402	66.4525	21.2402	66.6451
21.9727	63.3202	21.9727	62.9736	21.9727	63.5915	21.9727	62.5715	21.9727	63.7739	21.9727	62.144	21.9727	63.8581	21.9727	61.7362	21.9727	63.8384	21.9727	61.41	21.9727	63.7138	21.9727	61.2389	21.9727	63.4927	21.9727	61.2873	21.9727	63.1991	21.9727	61.5822	21.9727	62.8828	21.9727	62.0966	21.9727	62.6265	21.9727	62.7617	21.9727	62.5359	21.9727	63.4953	21.9727	62.6982	21.9727	64.224	21.9727	63.1261	21.9727	64.8917	21.9727	63.7446	21.9727	65.4582	21.9727	64.4353	21.9727	65.8954	21.9727	65.0909	21.9727	66.1831	21.9727	65.6374	21.9727	66.307	21.9727	66.033	21.9727	66.2581
22.7051	61.8884	22.7051	61.3838	22.7051	62.2677	22.7051	60.7817	22.7051	62.5048	22.7051	60.1347	22.7051	62.5875	22.7051	59.5384	22.7051	62.505	22.7051	59.1407	22.7051	62.2491	22.7051	59.1086	22.7051	61.8201	22.7051	59.53	22.7051	61.2424	22.7051	60.3418	22.7051	60.5974	22.7051	61.3803	22.7051	60.0693	22.7051	62.4842	22.7051	59.9422	22.7051	63.5435	22.7051	60.4235	22.7051	64.4948	22.7051	61.4242	22.7051	65.3033	22.7051	62.6512	22.7051	65.9486	22.7051	63.851	22.7051	66.4169	22.7051	64.8872	22.7051	66.6963	22.7051	65.705	22.7051	66.7756	22.7051	66.2898	22.7051	66.6437
23.8037	63.5846	23.8037	63.3858	23.8037	63.7706	23.8037	63.2343	23.8037	63.9024	23.8037	63.2036	23.8037	63.9564	23.8037	63.3647	23.8037	63.9275	23.8037	63.7597	23.8037	63.8336	23.8037	64.3819	23.8037	63.7253	23.8037	65.1794	23.8037	63.6954	23.8037	66.0803	23.8037	63.8685	23.8037	67.0155	23.8037	64.3497	23.8037	67.9308	23.8037	65.1515	23.8037	68.787	23.8037	66.1785	23.8037	69.5564	23.8037	67.2899	23.8037	70.2189	23.8037	68.3645	23.8037	70.7583	23.8037	69.3233	23.8037	71.1611	23.8037	70.1233	23.8037	71.4153	23.8037	70.7448	23.8037	71.5097	23.8037	71.1814	23.8037	71.4345
24.5361	66.0432	24.5361	65.839	24.5361	66.2269	24.5361	65.6602	24.5361	66.3586	24.5361	65.5642	24.5361	66.4196	24.5361	65.6121	24.5361	66.4047	24.5361	65.8515	24.5361	66.3256	24.5361	66.297	24.5361	66.2175	24.5361	66.9243	24.5361	66.1471	24.5361	67.6803	24.5361	66.2102	24.5361	68.5028	24.5361	66.5046	24.5361	69.3351	24.5361	67.0763	24.5361	70.1324	24.5361	67.8842	24.5361	70.8607	24.5361	68.8227	24.5361	71.4948	24.5361	69.7767	24.5361	72.0149	24.5361	70.6575	24.5361	72.405	24.5361	71.4093	24.5361	72.6514	24.5361	72.0022	24.5361	72.7425	24.5361	72.423	24.5361	72.6687
25.2686	67.1226	25.2686	67.0396	25.2686	67.2183	25.2686	67.0132	25.2686	67.2942	25.2686	67.0925	25.2686	67.3322	25.2686	67.32	25.2686	67.331	25.2686	67.7181	25.2686	67.3109	25.2686	68.2806	25.2686	67.3183	25.2686	68.9747	25.2686	67.4259	25.2686	69.7534	25.2686	67.717	25.2686	70.568	25.2686	68.2478	25.2686	71.3755	25.2686	69.0101	25.2686	72.1415	25.2686	69.9314	25.2686	72.839	25.2686	70.9113	25.2686	73.4465	25.2686	71.8592	25.2686	73.9466	25.2686	72.7105	25.2686	74.3241	25.2686	73.4256	25.2686	74.5662	25.2686	73.9836	25.2686	74.6613	25.2686	74.3755	25.2686	74.6001
26.3672	71.6581	26.3672	71.563	26.3672	71.7634	26.3672	71.5025	26.3672	71.8606	26.3672	71.5056	26.3672	71.9402	26.3672	71.6006	26.3672	72.0021	26.3672	71.8094	26.3672	72.0574	26.3672	72.141	26.3672	72.1299	26.3672	72.5885	26.3672	72.2548	26.3672	73.1303	26.3672	72.473	26.3672	73.7354	26.3672	72.8173	26.3672	74.3692	26.3672	73.2973	26.3672	74.9984	26.3672	73.8912	26.3672	75.5934	26.3672	74.5517	26.3672	76.1284	26.3672	75.2214	26.3672	76.5821	26.3672	75.8471	26.3672	76.9364	26.3672	76.3875	26.3672	77.1764	26.3672	76.8144	26.3672	77.2905	26.3672	77.1112	26.3672	77.2701
27.0996	73.2234	27.0996	73.1305	27.0996	73.3268	27.0996	73.0704	27.0996	73.4242	27.0996	73.0694	27.0996	73.5066	27.0996	73.1533	27.0996	73.5734	27.0996	73.3426	27.0996	73.6343	27.0996	73.6466	27.0996	73.71	27.0996	74.0606	27.0996	73.8317	27.0996	74.5662	27.0996	74.0354	27.0996	75.1357	27.0996	74.3517	27.0996	75.7367	27.0996	74.7917	27.0996	76.3375	27.0996	75.3389	27.0996	76.9087	27.0996	75.9526	27.0996	77.4247	27.0996	76.5806	27.0996	77.8638	27.0996	77.1725	27.0996	78.2076	27.0996	77.6872	27.0996	78.4411	27.0996	78.0959	27.0996	78.5525	27.0996	78.381	27.0996	78.5337
28.1982	75.806	28.1982	75.7335	28.1982	75.8946	28.1982	75.6946	28.1982	75.9865	28.1982	75.7092	28.1982	76.0745	28.1982	75.7969	28.1982	76.1584	28.1982	75.9729	28.1982	76.246	28.1982	76.245	28.1982	76.353	28.1982	76.6103	28.1982	76.5026	28.1982	77.0556	28.1982	76.7204	28.1982	77.5597	28.1982	77.0272	28.1982	78.0966	28.1982	77.4298	28.1982	78.6388	28.1982	77.9154	28.1982	79.16	28.1982	78.4529	28.1982	79.6359	28.1982	79.0015	28.1982	80.0453	28.1982	79.5192	28.1982	80.3699	28.1982	79.9705	28.1982	80.5949	28.1982	80.3284	28.1982	80.7086	28.1982	80.5758	28.1982	80.7033
29.2969	78.1371	29.2969	78.0888	29.2969	78.2072	29.2969	78.0759	29.2969	78.2892	29.2969	78.1134	29.2969	78.3777	29.2969	78.2159	29.2969	78.4731	29.2969	78.3945	29.2969	78.582	29.2969	78.6546	29.2969	78.717	29.2969	78.9938	29.2969	78.8956	29.2969	79.4018	29.2969	79.1361	29.2969	79.8617	29.2969	79.4517	29.2969	80.3522	29.2969	79.8443	29.2969	80.8498	29.2969	80.3009	29.2969	81.3312	29.2969	80.7954	29.2969	81.7742	29.2969	81.2935	29.2969	82.1588	29.2969	81.7602	29.2969	82.4672	29.2969	82.1647	29.2969	82.685	29.2969	82.4833	29.2969	82.8007	29.2969	82.7002	29.2969	82.8067
30.0293	80.0618	30.0293	80.0165	30.0293	80.1299	30.0293	80.0046	30.0293	80.213	30.0293	80.0378	30.0293	80.3069	30.0293	80.1276	30.0293	80.4116	30.0293	80.2832	30.0293	80.5322	30.0293	80.5094	30.0293	80.6778	30.0293	80.8051	30.0293	80.8613	30.0293	81.1629	30.0293	81.0954	30.0293	81.5698	30.0293	81.3892	30.0293	82.0082	30.0293	81.7433	30.0293	82.4581	30.0293	82.1474	30.0293	82.8982	30.0293	82.5805	30.0293	83.3079	30.0293	83.0148	30.0293	83.668	30.0293	83.421	30.0293	83.9611	30.0293	83.7721	30.0293	84.173	30.0293	84.0465	30.0293	84.2925	30.0293	84.2294	30.0293	84.3122
31.1279	82.349	31.1279	82.3035	31.1279	82.417	31.1279	82.2886	31.1279	82.5014	31.1279	82.3135	31.1279	82.5987	31.1279	82.3874	31.1279	82.709	31.1279	82.5177	31.1279	82.8355	31.1279	82.709	31.1279	82.9849	31.1279	82.9614	31.1279	83.1661	31.1279	83.2701	31.1279	83.3879	31.1279	83.6251	31.1279	83.6564	31.1279	84.0125	31.1279	83.9714	31.1279	84.4151	31.1279	84.3247	31.1279	84.8141	31.1279	84.6996	31.1279	85.1904	31.1279	85.0737	31.1279	85.5257	31.1279	85.4225	31.1279	85.8033	31.1279	85.7226	31.1279	86.0089	31.1279	85.9546	31.1279	86.1317	31.1279	86.1046	31.1279	86.1645
32.2266	84.5034	32.2266	84.4574	32.2266	84.5712	32.2266	84.4399	32.2266	84.6562	32.2266	84.458	32.2266	84.7556	32.2266	84.519	32.2266	84.8689	32.2266	84.6292	32.2266	84.9986	32.2266	84.7926	32.2266	85.1492	32.2266	85.0101	32.2266	85.3268	32.2266	85.2785	32.2266	85.5375	32.2266	85.5903	32.2266	85.7851	32.2266	85.9343	32.2266	86.0687	32.2266	86.2961	32.2266	86.3813	32.2266	86.6589	32.2266	86.7094	32.2266	87.0053	32.2266	87.0343	32.2266	87.3179	32.2266	87.3353	32.2266	87.5809	32.2266	87.5922	32.2266	87.7804	32.2266	87.7878	32.2266	87.9055	32.2266	87.9094	32.2266	87.9494
33.3252	86.2513	33.3252	86.2042	33.3252	86.3202	33.3252	86.1844	33.3252	86.4071	33.3252	86.1977	33.3252	86.5095	33.3252	86.2501	33.3252	86.627	33.3252	86.3467	33.3252	86.7609	33.3252	86.491	33.3252	86.9143	33.3252	86.684	33.3252	87.0912	33.3252	86.9234	33.3252	87.2956	33.3252	87.2033	33.3252	87.5295	33.3252	87.5143	33.3252	87.7911	33.3252	87.8438	33.3252	88.0739	33.3252	88.1774	33.3252	88.3662	33.3252	88.4989	33.3252	88.6524	33.3252	88.7925	33.3252	88.9146	33.3252	89.043	33.3252	89.1354	33.3252	89.2373	33.3252	89.2998	33.3252	89.3648	33.3252	89.3965	33.3252	89.4188
34.79	88.5023	34.79	88.4542	34.79	88.5717	34.79	88.4316	34.79	88.6596	34.79	88.4386	34.79	88.764	34.79	88.4798	34.79	88.884	34.79	88.5592	34.79	89.0202	34.79	88.6794	34.79	89.1739	34.79	88.8416	34.79	89.3471	34.79	89.0444	34.79	89.5413	34.79	89.2838	34.79	89.7567	34.79	89.5525	34.79	89.9908	34.79	89.8408	34.79	90.2374	34.79	90.1364	34.79	90.4869	34.79	90.4256	34.79	90.7265	34.79	90.6941	34.79	90.942	34.79	90.9281	34.79	91.119	34.79	91.1152	34.79	91.2452	34.79	91.2453	34.79	91.3112	34.79	91.3116
35.8887	89.99	35.8887	89.9396	35.8887	90.0613	35.8887	89.9135	35.8887	90.151	35.8887	89.9153	35.8887	90.2572	35.8887	89.9486	35.8887	90.379	35.8887	90.0168	35.8887	90.5161	35.8887	90.1223	35.8887	90.6692	35.8887	90.2663	35.8887	90.839	35.8887	90.4477	35.8887	91.0259	35.8887	90.6633	35.8887	91.2291	35.8887	90.9074	35.8887	91.4457	35.8887	91.1713	35.8887	91.67	35.8887	91.4443	35.8887	91.8934	35.8887	91.7141	35.8887	92.1049	35.8887	91.9674	35.8887	92.2919	35.8887	92.1913	35.8887	92.4423	35.8887	92.3739	35.8887	92.5451	35.8887	92.5055	35.8887	92.5923	35.8887	92.5794
36.9873	91.2717	36.9873	91.2192	36.9873	91.3446	36.9873	91.1898	36.9873	91.4355	36.9873	91.1866	36.9873	91.5427	36.9873	91.2125	36.9873	91.6649	36.9873	91.2705	36.9873	91.8017	36.9873	91.3627	36.9873	91.9528	36.9873	91.4901	36.9873	92.118	36.9873	91.6521	36.9873	92.297	36.9873	91.8463	36.9873	92.4882	36.9873	92.0676	36.9873	92.6884	36.9873	92.3089	36.9873	92.8923	36.9873	92.5608	36.9873	93.0922	36.9873	92.8121	36.9873	93.2784	36.9873	93.0507	36.9873	93.44	36.9873	93.2645	36.9873	93.5666	36.9873	93.4422	36.9873	93.6487	36.9873	93.5744	36.9873	93.6792	36.9873	93.6546
38.4521	92.6466	38.4521	92.5922	38.4521	92.7205	38.4521	92.5596	38.4521	92.812	38.4521	92.5513	38.4521	92.9193	38.4521	92.5695	38.4521	93.0412	38.4521	92.6168	38.4521	93.1764	38.4521	92.6947	38.4521	93.3242	38.4521	92.8043	38.4521	93.4836	38.4521	92.9453	38.4521	93.6533	38.4521	93.1159	38.4521	93.831	38.4521	93.3122	38.4521	94.0135	38.4521	93.5283	38.4521	94.1954	38.4521	93.7563	38.4521	94.3701	38.4521	93.9865	38.4521	94.5293	38.4521	94.208	38.4521	94.6639	38.4521	94.4098	38.4521	94.7649	38.4521	94.5812	38.4521	94.8245	38.4521	94.7135	38.4521	94.8372	38.4521	94.8001
39.917	93.7427	39.917	93.687	39.917	93.8174	39.917	93.6522	39.917	93.9095	39.917	93.6403	39.917	94.0173	39.917	93.6531	39.917	94.1393	39.917	93.6925	39.917	94.2741	39.917	93.7598	39.917	94.4201	39.917	93.856	39.917	94.5758	39.917	93.9809	39.917	94.739	39.917	94.133	39.917	94.907	39.917	94.3094	39.917	95.076	39.917	94.5052	39.917	95.2412	39.917	94.7136	39.917	95.3962	39.917	94.9263	39.917	95.5338	39.917	95.1336	39.917	95.6462	39.917	95.3253	39.917	95.7261	39.917	95.4917	39.917	95.7669	39.917	95.6242	39.917	95.7643	39.917	95.7164
41.3818	94.806	41.3818	94.7461	41.3818	94.8843	41.3818	94.7063	41.3818	94.9795	41.3818	94.6881	41.3818	95.0899	41.3818	94.6932	41.3818	95.2137	41.3818	94.723	41.3818	95.3491	41.3818	94.7787	41.3818	95.4941	41.3818	94.861	41.3818	95.6464	41.3818	94.9699	41.3818	95.8034	41.3818	95.1045	41.3818	95.9619	41.3818	95.2624	41.3818	96.1177	41.3818	95.4396	41.3818	96.2661	41.3818	95.6305	41.3818	96.4014	41.3818	95.8279	41.3818	96.5173	41.3818	96.0232	41.3818	96.6071	41.3818	96.2072	41.3818	96.6649	41.3818	96.3708	41.3818	96.6857	41.3818	96.5059	41.3818	96.6663	41.3818	96.6058
42.8467	95.5705	42.8467	95.5065	42.8467	95.652	42.8467	95.4615	42.8467	95.7495	42.8467	95.4369	42.8467	95.8613	42.8467	95.4339	42.8467	95.9854	42.8467	95.4538	42.8467	96.1197	42.8467	95.4975	42.8467	96.2617	42.8467	95.5657	42.8467	96.4087	42.8467	95.6586	42.8467	96.5576	42.8467	95.7755	42.8467	96.7048	42.8467	95.9148	42.8467	96.8463	42.8467	96.0733	42.8467	96.9773	42.8467	96.2465	42.8467	97.0928	42.8467	96.4281	42.8467	97.1873	42.8467	96.6108	42.8467	97.2555	42.8467	96.7861	42.8467	97.2925	42.8467	96.9458	42.8467	97.2946	42.8467	97.082	42.8467	97.2599	42.8467	97.1882
44.3115	96.2393	44.3115	96.1717	44.3115	96.3235	44.3115	96.1223	44.3115	96.4229	44.3115	96.0921	44.3115	96.5358	44.3115	96.0822	44.3115	96.6599	44.3115	96.0938	44.3115	96.7929	44.3115	96.1275	44.3115	96.932	44.3115	96.1842	44.3115	97.0742	44.3115	96.264	44.3115	97.2159	44.3115	96.3666	44.3115	97.3535	44.3115	96.4907	44.3115	97.4827	44.3115	96.634	44.3115	97.5993	44.3115	96.7926	44.3115	97.6985	44.3115	96.9613	44.3115	97.7756	44.3115	97.1335	44.3115	97.8262	44.3115	97.3016	44.3115	97.8464	44.3115	97.4579	44.3115	97.8335	44.3115	97.5948	44.3115	97.7864	44.3115	97.7059
45.7764	96.7725	45.7764	96.7015	45.7764	96.8593	45.7764	96.6477	45.7764	96.9605	45.7764	96.6122	45.7764	97.0741	45.7764	96.5959	45.7764	97.1979	45.7764	96.5997	45.7764	97.3293	45.7764	96.6243	45.7764	97.4652	45.7764	96.6705	45.7764	97.6023	45.7764	96.7386	45.7764	97.737	45.7764	96.8284	45.7764	97.8654	45.7764	96.9392	45.7764	97.9833	45.7764	97.069	45.7764	98.0866	45.7764	97.2147	45.7764	98.1711	45.7764	97.3719	45.7764	98.2327	45.7764	97.5346	45.7764	98.2676	45.7764	97.6961	45.7764	98.273	45.7764	97.8491	45.7764	98.2471	45.7764	97.9863	45.7764	98.1894	45.7764	98.1014
47.2412	97.1519	47.2412	97.0799	47.2412	97.2392	47.2412	97.0245	47.2412	97.3403	47.2412	96.9866	47.2412	97.4534	47.2412	96.9671	47.2412	97.576	47.2412	96.9666	47.2412	97.7054	47.2412	96.9858	47.2412	97.8383	47.2412	97.0253	47.2412	97.9713	47.2412	97.0853	47.2412	98.1004	47.2412	97.1659	47.2412	98.2217	47.2412	97.2664	47.2412	98.3312	47.2412	97.3854	47.2412	98.4247	47.2412	97.5202	47.2412	98.4984	47.2412	97.6671	47.2412	98.5487	47.2412	97.8209	47.2412	98.5724	47.2412	97.9753	47.2412	98.5674	47.2412	98.1237	47.2412	98.5325	47.2412	98.2593	47.2412	98.468	47.2412	98.3757
49.0723	97.5467	49.0723	97.4719	49.0723	97.6363	49.0723	97.413	49.0723	97.7391	49.0723	97.3708	49.0723	97.8531	49.0723	97.3462	49.0723	97.9757	49.0723	97.3396	49.0723	98.104	49.0723	97.3516	49.0723	98.2345	49.0723	97.3826	49.0723	98.3634	49.0723	97.4329	49.0723	98.4868	49.0723	97.5028	49.0723	98.6005	49.0723	97.5918	49.0723	98.7004	49.0723	97.6989	49.0723	98.7826	49.0723	97.8221	49.0723	98.8436	49.0723	97.9583	49.0723	98.8802	49.0723	98.1032	49.0723	98.8901	49.0723	98.2512	49.0723	98.8718	49.0723	98.3962	49.0723	98.825	49.0723	98.5318	49.0723	98.7508	49.0723	98.6517
50.9033	97.8874	50.9033	97.8085	50.9033	97.9804	50.9033	97.745	50.9033	98.086	50.9033	97.6977	50.9033	98.202	50.9033	97.6672	50.9033	98.3256	50.9033	97.6541	50.9033	98.4538	50.9033	97.6587	50.9033	98.5827	50.9033	97.6814	50.9033	98.7085	50.9033	97.7227	50.9033	98.8268	50.9033	97.7828	50.9033	98.9334	50.9033	97.8615	50.9033	99.0243	50.9033	97.9581	50.9033	99.0957	50.9033	98.0713	50.9033	99.1444	50.9033	98.1986	50.9033	99.1677	50.9033	98.3361	50.9033	99.1639	50.9033	98.4791	50.9033	99.1324	50.9033	98.622	50.9033	99.0736	50.9033	98.7586	50.9033	98.9894	50.9033	98.8829
52.7344	98.1865	52.7344	98.1041	52.7344	98.2824	52.7344	98.0364	52.7344	98.3901	52.7344	97.9842	52.7344	98.5072	52.7344	97.9482	52.7344	98.6309	52.7344	97.9288	52.7344	98.7578	52.7344	97.9264	52.7344	98.8842	52.7344	97.9413	52.7344	99.0057	52.7344	97.9739	52.7344	99.1181	52.7344	98.0245	52.7344	99.2171	52.7344	98.0932	52.7344	99.2987	52.7344	98.1797	52.7344	99.3593	52.7344	98.283	52.7344	99.396	52.7344	98.4011	52.7344	99.4068	52.7344	98.531	52.7344	99.3904	52.7344	98.6685	52.7344	99.347	52.7344	98.8084	52.7344	99.2776	52.7344	98.945	52.7344	99.1848	52.7344	99.0723
54.5654	98.4546	54.5654	98.3712	54.5654	98.5509	54.5654	98.3018	54.5654	98.6582	54.5654	98.2473	54.5654	98.7742	54.5654	98.2081	54.5654	98.896	54.5654	98.1848	54.5654	99.0201	54.5654	98.1775	54.5654	99.1426	54.5654	98.1867	54.5654	99.2592	54.5654	98.2125	54.5654	99.3655	54.5654	98.2554	54.5654	99.4574	54.5654	98.3156	54.5654	99.5309	54.5654	98.393	54.5654	99.5827	54.5654	98.487	54.5654	99.6101	54.5654	98.5961	54.5654	99.6114	54.5654	98.7178	54.5654	99.5859	54.5654	98.8486	54.5654	99.5342	54.5654	98.9837	54.5654	99.4581	54.5654	99.1179	54.5654	99.3604	54.5654	99.2453
56.3965	98.6766	56.3965	98.5909	56.3965	98.7746	56.3965	98.5189	56.3965	98.8831	56.3965	98.4614	56.3965	98.9998	56.3965	98.4189	56.3965	99.1215	56.3965	98.3916	56.3965	99.2446	56.3965	98.3799	56.3965	99.3651	56.3965	98.384	56.3965	99.4786	56.3965	98.4042	56.3965	99.5807	56.3965	98.4408	56.3965	99.6671	56.3965	98.4942	56.3965	99.7341	56.3965	98.5645	56.3965	99.7783	56.3965	98.6514	56.3965	99.7974	56.3965	98.7538	56.3965	99.79	56.3965	98.8697	56.3965	99.7559	56.3965	98.996	56.3965	99.696	56.3965	99.1284	56.3965	99.6128	56.3965	99.2618	56.3965	99.5095	56.3965	99.3908
58.2275	98.8703	58.2275	98.7827	58.2275	98.9698	58.2275	98.7081	58.2275	99.0791	58.2275	98.6476	58.2275	99.1958	58.2275	98.6016	58.2275	99.3166	58.2275	98.5703	58.2275	99.4379	58.2275	98.5541	58.2275	99.5554	58.2275	98.553	58.2275	99.6648	58.2275	98.5673	58.2275	99.7617	58.2275	98.5974	58.2275	99.8417	58.2275	98.6438	58.2275	99.9012	58.2275	98.7067	58.2275	99.9372	58.2275	98.786	58.2275	99.9475	58.2275	98.8811	58.2275	99.9311	58.2275	98.9904	58.2275	99.8883	58.2275	99.1112	58.2275	99.8206	58.2275	99.2399	58.2275	99.7308	58.2275	99.3717	58.2275	99.6227	58.2275	99.5012
60.4248	99.1799	60.4248	99.0875	60.4248	99.2835	60.4248	99.0079	60.4248	99.3964	60.4248	98.9419	60.4248	99.5157	60.4248	98.8901	60.4248	99.6381	60.4248	98.8529	60.4248	99.7598	60.4248	98.8303	60.4248	99.8763	60.4248	98.8226	60.4248	99.9832	60.4248	98.8301	60.4248	100.076	60.4248	98.8532	60.4248	100.15	60.4248	98.8924	60.4248	100.202	60.4248	98.9482	60.4248	100.229	60.4248	99.0208	60.4248	100.23	60.4248	99.11	60.4248	100.203	60.4248	99.2146	60.4248	100.149	60.4248	99.3325	60.4248	100.071	60.4248	99.4603	60.4248	99.971	60.4248	99.5935	60.4248	99.8547	60.4248	99.7269
62.6221	99.3435	62.6221	99.2464	62.6221	99.4513	62.6221	99.1614	62.6221	99.5673	62.6221	99.0897	62.6221	99.6889	62.6221	99.0319	62.6221	99.8123	62.6221	98.9885	62.6221	99.9336	62.6221	98.9596	62.6221	100.048	62.6221	98.9455	62.6221	100.152	62.6221	98.9464	62.6221	100.24	62.6221	98.9629	62.6221	100.308	62.6221	98.9955	62.6221	100.352	62.6221	99.0448	62.6221	100.37	62.6221	99.1114	62.6221	100.361	62.6221	99.1952	62.6221	100.324	62.6221	99.2954	62.6221	100.26	62.6221	99.4104	62.6221	100.172	62.6221	99.537	62.6221	100.064	62.6221	99.6712	62.6221	99.9405	62.6221	99.8076
64.8193	99.5482	64.8193	99.4483	64.8193	99.6577	64.8193	99.36	64.8193	99.7747	64.8193	99.2842	64.8193	99.8961	64.8193	99.2217	64.8193	100.018	64.8193	99.1729	64.8193	100.137	64.8193	99.138	64.8193	100.248	64.8193	99.1174	64.8193	100.347	64.8193	99.1113	64.8193	100.428	64.8193	99.1203	64.8193	100.489	64.8193	99.145	64.8193	100.525	64.8193	99.1863	64.8193	100.534	64.8193	99.245	64.8193	100.515	64.8193	99.3213	64.8193	100.469	64.8193	99.415	64.8193	100.395	64.8193	99.5248	64.8193	100.299	64.8193	99.6481	64.8193	100.184	64.8193	99.781	64.8193	100.055	64.8193	99.9185
67.0166	99.7122	67.0166	99.6096	67.0166	99.8237	67.0166	99.5176	67.0166	99.9416	67.0166	99.4375	67.0166	100.063	67.0166	99.37	67.0166	100.184	67.0166	99.3156	67.0166	100.3	67.0166	99.2746	67.0166	100.408	67.0166	99.2471	67.0166	100.502	67.0166	99.2338	67.0166	100.577	67.0166	99.2351	67.0166	100.631	67.0166	99.252	67.0166	100.658	67.0166	99.2855	67.0166	100.659	67.0166	99.3366	67.0166	100.63	67.0166	99.406	67.0166	100.574	67.0166	99.4938	67.0166	100.492	67.0166	99.5991	67.0166	100.387	67.0166	99.7196	67.0166	100.265	67.0166	99.8517	67.0166	100.13	67.0166	99.9906
69.2139	99.861	69.2139	99.7526	69.2139	99.9779	69.2139	99.6547	69.2139	100.101	69.2139	99.5687	69.2139	100.226	69.2139	99.4954	69.2139	100.351	69.2139	99.4354	69.2139	100.47	69.2139	99.3891	69.2139	100.579	69.2139	99.3569	69.2139	100.673	69.2139	99.3394	69.2139	100.748	69.2139	99.3372	69.2139	100.799	69.2139	99.3513	69.2139	100.824	69.2139	99.3828	69.2139	100.819	69.2139	99.4329	69.2139	100.785	69.2139	99.5023	69.2139	100.723	69.2139	99.5911	69.2139	100.633	69.2139	99.6987	69.2139	100.521	69.2139	99.8226	69.2139	100.391	69.2139	99.9593	69.2139	100.25	69.2139	100.104
71.7773	100.033	71.7773	99.9258	71.7773	100.149	71.7773	99.8294	71.7773	100.271	71.7773	99.7452	71.7773	100.396	71.7773	99.674	71.7773	100.52	71.7773	99.6164	71.7773	100.638	71.7773	99.5727	71.7773	100.746	71.7773	99.5433	71.7773	100.84	71.7773	99.5284	71.7773	100.914	71.7773	99.5287	71.7773	100.964	71.7773	99.5449	71.7773	100.989	71.7773	99.578	71.7773	100.985	71.7773	99.6289	71.7773	100.951	71.7773	99.6982	71.7773	100.89	71.7773	99.7861	71.7773	100.803	71.7773	99.8916	71.7773	100.693	71.7773	100.013	71.7773	100.567	71.7773	100.146	71.7773	100.429	71.7773	100.287
74.3408	100.184	74.3408	100.078	74.3408	100.299	74.3408	99.9832	74.3408	100.42	74.3408	99.9006	74.3408	100.543	74.3408	99.8313	74.3408	100.666	74.3408	99.7758	74.3408	100.782	74.3408	99.7345	74.3408	100.888	74.3408	99.7075	74.3408	100.979	74.3408	99.6948	74.3408	101.051	74.3408	99.6969	74.3408	101.099	74.3408	99.7143	74.3408	101.121	74.3408	99.7477	74.3408	101.114	74.3408	99.7976	74.3408	101.08	74.3408	99.8649	74.3408	101.018	74.3408	99.9494	74.3408	100.931	74.3408	100.05	74.3408	100.823	74.3408	100.166	74.3408	100.7	74.3408	100.294	74.3408	100.566	74.3408	100.429
76.9043	100.284	76.9043	100.176	76.9043	100.401	76.9043	100.078	76.9043	100.524	76.9043	99.992	76.9043	100.649	76.9043	99.9197	76.9043	100.771	76.9043	99.8615	76.9043	100.887	76.9043	99.8174	76.9043	100.991	76.9043	99.7878	76.9043	101.079	76.9043	99.7726	76.9043	101.146	76.9043	99.7721	76.9043	101.189	76.9043	99.7867	76.9043	101.205	76.9043	99.8171	76.9043	101.193	76.9043	99.864	76.9043	101.152	76.9043	99.9278	76.9043	101.084	76.9043	100.009	76.9043	100.992	76.9043	100.107	76.9043	100.88	76.9043	100.22	76.9043	100.753	76.9043	100.346	76.9043	100.618	76.9043	100.48
79.834	100.468	79.834	100.353	79.834	100.59	79.834	100.248	79.834	100.717	79.834	100.155	79.834	100.844	79.834	100.075	79.834	100.967	79.834	100.01	79.834	101.082	79.834	99.9603	79.834	101.184	79.834	99.9253	79.834	101.267	79.834	99.9056	79.834	101.329	79.834	99.9015	79.834	101.365	79.834	99.9133	79.834	101.374	79.834	99.9415	79.834	101.353	79.834	99.9866	79.834	101.304	79.834	100.049	79.834	101.228	79.834	100.129	79.834	101.129	79.834	100.226	79.834	101.011	79.834	100.339	79.834	100.879	79.834	100.465	79.834	100.74	79.834	100.6
82.3975	100.633	82.3975	100.52	82.3975	100.754	82.3975	100.415	82.3975	100.877	82.3975	100.321	82.3975	101	82.3975	100.239	82.3975	101.118	82.3975	100.17	82.3975	101.226	82.3975	100.116	82.3975	101.32	82.3975	100.075	82.3975	101.396	82.3975	100.049	82.3975	101.449	82.3975	100.037	82.3975	101.475	82.3975	100.041	82.3975	101.474	82.3975	100.06	82.3975	101.444	82.3975	100.095	82.3975	101.385	82.3975	100.147	82.3975	101.301	82.3975	100.217	82.3975	101.194	82.3975	100.305	82.3975	101.071	82.3975	100.41	82.3975	100.936	82.3975	100.529	82.3975	100.797	82.3975	100.659
85.3271	100.63	85.3271	100.509	85.3271	100.757	85.3271	100.399	85.3271	100.888	85.3271	100.3	85.3271	101.018	85.3271	100.214	85.3271	101.143	85.3271	100.143	85.3271	101.258	85.3271	100.087	85.3271	101.358	85.3271	100.045	85.3271	101.439	85.3271	100.019	85.3271	101.495	85.3271	100.008	85.3271	101.524	85.3271	100.013	85.3271	101.523	85.3271	100.035	85.3271	101.492	85.3271	100.073	85.3271	101.431	85.3271	100.129	85.3271	101.343	85.3271	100.204	85.3271	101.231	85.3271	100.297	85.3271	101.102	85.3271	100.407	85.3271	100.961	85.3271	100.533	85.3271	100.815	85.3271	100.67
88.2568	100.711	88.2568	100.587	88.2568	100.841	88.2568	100.474	88.2568	100.975	88.2568	100.374	88.2568	101.109	88.2568	100.288	88.2568	101.236	88.2568	100.217	88.2568	101.354	88.2568	100.162	88.2568	101.455	88.2568	100.124	88.2568	101.537	88.2568	100.102	88.2568	101.594	88.2568	100.096	88.2568	101.623	88.2568	100.107	88.2568	101.623	88.2568	100.134	88.2568	101.593	88.2568	100.178	88.2568	101.533	88.2568	100.239	88.2568	101.446	88.2568	100.318	88.2568	101.337	88.2568	100.413	88.2568	101.21	88.2568	100.524	88.2568	101.071	88.2568	100.65	88.2568	100.928	88.2568	100.786
91.5527	100.714	91.5527	100.587	91.5527	100.848	91.5527	100.47	91.5527	100.985	91.5527	100.365	91.5527	101.12	91.5527	100.276	91.5527	101.248	91.5527	100.202	91.5527	101.364	91.5527	100.146	91.5527	101.464	91.5527	100.107	91.5527	101.542	91.5527	100.085	91.5527	101.596	91.5527	100.08	91.5527	101.622	91.5527	100.093	91.5527	101.617	91.5527	100.122	91.5527	101.583	91.5527	100.168	91.5527	101.52	91.5527	100.231	91.5527	101.431	91.5527	100.311	91.5527	101.321	91.5527	100.406	91.5527	101.194	91.5527	100.516	91.5527	101.056	91.5527	100.64	91.5527	100.914	91.5527	100.774
94.8486	100.854	94.8486	100.72	94.8486	100.992	94.8486	100.594	94.8486	101.13	94.8486	100.478	94.8486	101.263	94.8486	100.375	94.8486	101.386	94.8486	100.288	94.8486	101.495	94.8486	100.217	94.8486	101.584	94.8486	100.163	94.8486	101.651	94.8486	100.128	94.8486	101.69	94.8486	100.111	94.8486	101.701	94.8486	100.113	94.8486	101.68	94.8486	100.133	94.8486	101.63	94.8486	100.171	94.8486	101.552	94.8486	100.227	94.8486	101.449	94.8486	100.302	94.8486	101.326	94.8486	100.393	94.8486	101.19	94.8486	100.501	94.8486	101.046	94.8486	100.623	94.8486	100.899	94.8486	100.757
98.1445	100.899	98.1445	100.769	98.1445	101.034	98.1445	100.647	98.1445	101.169	98.1445	100.536	98.1445	101.3	98.1445	100.438	98.1445	101.421	98.1445	100.355	98.1445	101.529	98.1445	100.288	98.1445	101.617	98.1445	100.237	98.1445	101.682	98.1445	100.204	98.1445	101.72	98.1445	100.187	98.1445	101.729	98.1445	100.187	98.1445	101.707	98.1445	100.204	98.1445	101.655	98.1445	100.238	98.1445	101.575	98.1445	100.288	98.1445	101.471	98.1445	100.356	98.1445	101.347	98.1445	100.441	98.1445	101.211	98.1445	100.542	98.1445	101.068	98.1445	100.658	98.1445	100.925	98.1445	100.786
101.44	100.881	101.44	100.747	101.44	101.019	101.44	100.621	101.44	101.157	101.44	100.506	101.44	101.291	101.44	100.405	101.44	101.414	101.44	100.321	101.44	101.521	101.44	100.253	101.44	101.609	101.44	100.203	101.44	101.673	101.44	100.171	101.44	101.708	101.44	100.157	101.44	101.714	101.44	100.161	101.44	101.689	101.44	100.181	101.44	101.633	101.44	100.218	101.44	101.551	101.44	100.272	101.44	101.445	101.44	100.342	101.44	101.321	101.44	100.427	101.44	101.186	101.44	100.527	101.44	101.044	101.44	100.642	101.44	100.904	101.44	100.768
105.103	100.817	105.103	100.678	105.103	100.96	105.103	100.546	105.103	101.103	105.103	100.427	105.103	101.239	105.103	100.323	105.103	101.364	105.103	100.236	105.103	101.472	105.103	100.167	105.103	101.559	105.103	100.119	105.103	101.62	105.103	100.09	105.103	101.652	105.103	100.08	105.103	101.654	105.103	100.089	105.103	101.625	105.103	100.115	105.103	101.567	105.103	100.158	105.103	101.482	105.103	100.216	105.103	101.375	105.103	100.289	105.103	101.252	105.103	100.376	105.103	101.119	105.103	100.477	105.103	100.981	105.103	100.589	105.103	100.844	105.103	100.712
108.765	100.925	108.765	100.779	108.765	101.073	108.765	100.639	108.765	101.216	108.765	100.51	108.765	101.351	108.765	100.394	108.765	101.472	108.765	100.295	108.765	101.574	108.765	100.214	108.765	101.652	108.765	100.154	108.765	101.702	108.765	100.114	108.765	101.722	108.765	100.095	108.765	101.71	108.765	100.096	108.765	101.666	108.765	100.115	108.765	101.592	108.765	100.153	108.765	101.492	108.765	100.206	108.765	101.373	108.765	100.275	108.765	101.239	108.765	100.358	108.765	101.097	108.765	100.454	108.765	100.955	108.765	100.564	108.765	100.816	108.765	100.685
112.793	100.999	112.793	100.855	112.793	101.145	112.793	100.718	112.793	101.289	112.793	100.592	112.793	101.424	112.793	100.481	112.793	101.546	112.793	100.387	112.793	101.649	112.793	100.313	112.793	101.728	112.793	100.259	112.793	101.779	112.793	100.225	112.793	101.799	112.793	100.212	112.793	101.788	112.793	100.217	112.793	101.745	112.793	100.24	112.793	101.672	112.793	100.279	112.793	101.574	112.793	100.333	112.793	101.457	112.793	100.401	112.793	101.326	112.793	100.481	112.793	101.189	112.793	100.573	112.793	101.051	112.793	100.678	112.793	100.918	112.793	100.793
116.455	100.949	116.455	100.797	116.455	101.102	116.455	100.652	116.455	101.252	116.455	100.519	116.455	101.391	116.455	100.401	116.455	101.516	116.455	100.303	116.455	101.62	116.455	100.226	116.455	101.698	116.455	100.172	116.455	101.748	116.455	100.14	116.455	101.766	116.455	100.131	116.455	101.752	116.455	100.142	116.455	101.706	116.455	100.173	116.455	101.631	116.455	100.221	116.455	101.532	116.455	100.283	116.455	101.415	116.455	100.358	116.455	101.285	116.455	100.444	116.455	101.151	116.455	100.54	116.455	101.016	116.455	100.646	116.455	100.885	116.455	100.762
120.85	100.966	120.85	100.813	120.85	101.119	120.85	100.666	120.85	101.266	120.85	100.529	120.85	101.401	120.85	100.407	120.85	101.518	120.85	100.304	120.85	101.612	120.85	100.224	120.85	101.678	120.85	100.167	120.85	101.714	120.85	100.134	120.85	101.717	120.85	100.124	120.85	101.687	120.85	100.136	120.85	101.626	120.85	100.166	120.85	101.538	120.85	100.212	120.85	101.429	120.85	100.271	120.85	101.305	120.85	100.34	120.85	101.175	120.85	100.417	120.85	101.045	120.85	100.502	120.85	100.92	120.85	100.594	120.85	100.803	120.85	100.694
124.878	100.923	124.878	100.763	124.878	101.081	124.878	100.608	124.878	101.232	124.878	100.463	124.878	101.37	124.878	100.334	124.878	101.488	124.878	100.224	124.878	101.581	124.878	100.136	124.878	101.645	124.878	100.074	124.878	101.675	124.878	100.036	124.878	101.67	124.878	100.022	124.878	101.63	124.878	100.031	124.878	101.556	124.878	100.058	124.878	101.454	124.878	100.102	124.878	101.33	124.878	100.158	124.878	101.193	124.878	100.223	124.878	101.051	124.878	100.296	124.878	100.912	124.878	100.376	124.878	100.782	124.878	100.462	124.878	100.664	124.878	100.558
129.272	100.856	129.272	100.691	129.272	101.019	129.272	100.532	129.272	101.175	129.272	100.383	129.272	101.317	129.272	100.25	129.272	101.438	129.272	100.137	129.272	101.534	129.272	100.048	129.272	101.598	129.272	99.984	129.272	101.629	129.272	99.9458	129.272	101.622	129.272	99.9322	129.272	101.579	129.272	99.941	129.272	101.5	129.272	99.9688	129.272	101.393	129.272	100.012	129.272	101.262	129.272	100.067	129.272	101.118	129.272	100.132	129.272	100.97	129.272	100.203	129.272	100.825	129.272	100.281	129.272	100.691	129.272	100.367	129.272	100.57	129.272	100.463
134.033	100.752	134.033	100.578	134.033	100.924	134.033	100.41	134.033	101.086	134.033	100.252	134.033	101.233	134.033	100.113	134.033	101.358	134.033	99.9954	134.033	101.454	134.033	99.9046	134.033	101.518	134.033	99.8421	134.033	101.546	134.033	99.8082	134.033	101.536	134.033	99.8013	134.033	101.487	134.033	99.8185	134.033	101.404	134.033	99.8556	134.033	101.291	134.033	99.9081	134.033	101.157	134.033	99.9714	134.033	101.011	134.033	100.042	134.033	100.863	134.033	100.117	134.033	100.722	134.033	100.197	134.033	100.592	134.033	100.281	134.033	100.476	134.033	100.373
138.794	100.679	138.794	100.496	138.794	100.857	138.794	100.318	138.794	101.025	138.794	100.152	138.794	101.174	138.794	100.003	138.794	101.3	138.794	99.8796	138.794	101.395	138.794	99.7846	138.794	101.456	138.794	99.7211	138.794	101.479	138.794	99.6895	138.794	101.462	138.794	99.6879	138.794	101.406	138.794	99.7127	138.794	101.316	138.794	99.7589	138.794	101.197	138.794	99.8206	138.794	101.058	138.794	99.8923	138.794	100.91	138.794	99.9692	138.794	100.763	138.794	100.048	138.794	100.625	138.794	100.128	138.794	100.502	138.794	100.21	138.794	100.393	138.794	100.297
143.555	100.611	143.555	100.416	143.555	100.799	143.555	100.224	143.555	100.975	143.555	100.043	143.555	101.13	143.555	99.8812	143.555	101.258	143.555	99.745	143.555	101.353	143.555	99.6401	143.555	101.41	143.555	99.57	143.555	101.426	143.555	99.5352	143.555	101.4	143.555	99.5338	143.555	101.332	143.555	99.5616	143.555	101.228	143.555	99.6124	143.555	101.094	143.555	99.6793	143.555	100.941	143.555	99.7556	143.555	100.781	143.555	99.8357	143.555	100.624	143.555	99.9157	143.555	100.481	143.555	99.9944	143.555	100.355	143.555	100.073	143.555	100.248	143.555	100.156
148.682	100.454	148.682	100.246	148.682	100.654	148.682	100.039	148.682	100.838	148.682	99.8403	148.682	100.998	148.682	99.6603	148.682	101.128	148.682	99.5073	148.682	101.223	148.682	99.388	148.682	101.279	148.682	99.3073	148.682	101.291	148.682	99.2668	148.682	101.259	148.682	99.2649	148.682	101.186	148.682	99.297	148.682	101.074	148.682	99.3562	148.682	100.933	148.682	99.4343	148.682	100.773	148.682	99.5232	148.682	100.607	148.682	99.616	148.682	100.447	148.682	99.7076	148.682	100.301	148.682	99.796	148.682	100.174	148.682	99.8821	148.682	100.065	148.682	99.9698
153.809	100.37	153.809	100.163	153.809	100.563	153.809	99.952	153.809	100.736	153.809	99.7445	153.809	100.882	153.809	99.5498	153.809	100.995	153.809	99.3767	153.809	101.07	153.809	99.2332	153.809	101.102	153.809	99.1255	153.809	101.088	153.809	99.0569	153.809	101.029	153.809	99.0276	153.809	100.925	153.809	99.0344	153.809	100.782	153.809	99.0712	153.809	100.611	153.809	99.1299	153.809	100.424	153.809	99.2022	153.809	100.235	153.809	99.2801	153.809	100.058	153.809	99.3581	153.809	99.9028	153.809	99.4335	153.809	99.7741	153.809	99.5071	153.809	99.6698	153.809	99.5835
159.302	100.422	159.302	100.212	159.302	100.62	159.302	99.9992	159.302	100.799	159.302	99.7925	159.302	100.952	159.302	99.6012	159.302	101.071	159.302	99.4339	159.302	101.151	159.302	99.2984	159.302	101.186	159.302	99.2	159.302	101.175	159.302	99.1411	159.302	101.114	159.302	99.1207	159.302	101.006	159.302	99.1344	159.302	100.856	159.302	99.1751	159.302	100.676	159.302	99.2342	159.302	100.477	159.302	99.303	159.302	100.277	159.302	99.3738	159.302	100.091	159.302	99.4414	159.302	99.9317	159.302	99.5042	159.302	99.8034	159.302	99.5643	159.302	99.7046	159.302	99.6281
164.795	100.372	164.795	100.153	164.795	100.578	164.795	99.9295	164.795	100.763	164.795	99.7117	164.795	100.92	164.795	99.5089	164.795	101.042	164.795	99.3305	164.795	101.124	164.795	99.1849	164.795	101.161	164.795	99.0781	164.795	101.15	164.795	99.0132	164.795	101.089	164.795	98.9895	164.795	100.982	164.795	99.0028	164.795	100.833	164.795	99.0461	164.795	100.652	164.795	99.1106	164.795	100.454	164.795	99.187	164.795	100.254	164.795	99.2676	164.795	100.066	164.795	99.3467	164.795	99.9027	164.795	99.4221	164.795	99.7677	164.795	99.4954	164.795	99.6597	164.795	99.5719
170.654	100.179	170.654	99.9634	170.654	100.381	170.654	99.7434	170.654	100.561	170.654	99.5292	170.654	100.712	170.654	99.3315	170.654	100.827	170.654	99.1606	170.654	100.901	170.654	99.0252	170.654	100.929	170.654	98.9318	170.654	100.908	170.654	98.8829	170.654	100.839	170.654	98.8771	170.654	100.724	170.654	98.9088	170.654	100.57	170.654	98.9693	170.654	100.39	170.654	99.0482	170.654	100.198	170.654	99.1351	170.654	100.011	170.654	99.2206	170.654	99.8454	170.654	99.2982	170.654	99.7103	170.654	99.3648	170.654	99.6079	170.654	99.4216	170.654	99.5327	170.654	99.4744
176.88	99.8659	176.88	99.6383	176.88	100.079	176.88	99.4067	176.88	100.269	176.88	99.1823	176.88	100.428	176.88	98.9772	176.88	100.549	176.88	98.8032	176.88	100.625	176.88	98.6703	176.88	100.653	176.88	98.5857	176.88	100.629	176.88	98.5515	176.88	100.553	176.88	98.565	176.88	100.428	176.88	98.6185	176.88	100.263	176.88	98.701	176.88	100.071	176.88	98.7994	176.88	99.8694	176.88	98.9013	176.88	99.6787	176.88	98.9957	176.88	99.5161	176.88	99.0751	176.88	99.3918	176.88	99.136	176.88	99.3067	176.88	99.1804	176.88	99.2524	176.88	99.2152
183.105	99.7428	183.105	99.4954	183.105	99.9707	183.105	99.2388	183.105	100.17	183.105	98.985	183.105	100.334	183.105	98.7471	183.105	100.455	183.105	98.5391	183.105	100.529	183.105	98.3738	183.105	100.549	183.105	98.2609	183.105	100.514	183.105	98.2054	183.105	100.424	183.105	98.2058	183.105	100.281	183.105	98.2545	183.105	100.094	183.105	98.3392	183.105	99.878	183.105	98.4451	183.105	99.6523	183.105	98.5572	183.105	99.4384	183.105	98.6626	183.105	99.2556	183.105	98.7523	183.105	99.1156	183.105	98.822	183.105	99.0192	183.105	98.8733	183.105	98.9571	183.105	98.9139
189.331	99.7222	189.331	99.4767	189.331	99.9456	189.331	99.2191	189.331	100.139	189.331	98.9609	189.331	100.294	189.331	98.7152	189.331	100.405	189.331	98.4958	189.331	100.466	189.331	98.3159	189.331	100.474	189.331	98.1864	189.331	100.425	189.331	98.1132	189.331	100.319	189.331	98.0962	189.331	100.16	189.331	98.1291	189.331	99.9581	189.331	98.2004	189.331	99.7278	189.331	98.2956	189.331	99.49	189.331	98.3997	189.331	99.2671	189.331	98.4994	189.331	99.0789	189.331	98.585	189.331	98.9368	189.331	98.6519	189.331	98.8408	189.331	98.7009	189.331	98.7804	189.331	98.7394
196.289	99.7051	196.289	99.4652	196.289	99.9203	196.289	99.2108	196.289	100.102	196.289	98.9538	196.289	100.244	196.289	98.7079	196.289	100.339	196.289	98.4878	196.289	100.381	196.289	98.3077	196.289	100.368	196.289	98.1792	196.289	100.295	196.289	98.109	196.289	100.165	196.289	98.0972	196.289	99.9831	196.289	98.1371	196.289	99.7612	196.289	98.2161	196.289	99.5183	196.289	98.3188	196.289	99.2786	196.289	98.4287	196.289	99.0677	196.289	98.5312	196.289	98.9054	196.289	98.615	196.289	98.7999	196.289	98.6734	196.289	98.7456	196.289	98.7059	196.289	98.7256	196.289	98.7188
202.881	99.6147	202.881	99.3717	202.881	99.8321	202.881	99.1145	202.881	100.015	202.881	98.8558	202.881	100.154	202.881	98.6102	202.881	100.243	202.881	98.3928	202.881	100.276	202.881	98.2179	202.881	100.246	202.881	98.0962	202.881	100.152	202.881	98.0332	202.881	99.9935	202.881	98.0271	202.881	99.7756	202.881	98.0692	202.881	99.5117	202.881	98.1455	202.881	99.2233	202.881	98.2391	202.881	98.9402	202.881	98.3329	202.881	98.6948	202.881	98.4116	202.881	98.5145	202.881	98.464	202.881	98.4118	202.881	98.4837	202.881	98.3802	202.881	98.4717	202.881	98.398	202.881	98.4371
210.205	99.4087	210.205	99.1576	210.205	99.6333	210.205	98.8905	210.205	99.8228	210.205	98.6199	210.205	99.9696	210.205	98.3605	210.205	100.067	210.205	98.1282	210.205	100.108	210.205	97.939	210.205	100.088	210.205	97.8057	210.205	100.003	210.205	97.7354	210.205	99.8524	210.205	97.7274	210.205	99.6397	210.205	97.7728	210.205	99.377	210.205	97.8563	210.205	99.0849	210.205	97.9592	210.205	98.7924	210.205	98.0626	210.205	98.533	210.205	98.1501	210.205	98.3356	210.205	98.2098	210.205	98.2152	210.205	98.2359	210.205	98.1677	210.205	98.23	210.205	98.1728	210.205	98.2025
217.529	99.2309	217.529	98.9663	217.529	99.4705	217.529	98.6893	217.529	99.6746	217.529	98.4142	217.529	99.8339	217.529	98.1572	217.529	99.9402	217.529	97.935	217.529	99.9864	217.529	97.7629	217.529	99.9664	217.529	97.6522	217.529	99.8765	217.529	97.6073	217.529	99.7165	217.529	97.6245	217.529	99.4922	217.529	97.6926	217.529	99.2176	217.529	97.7947	217.529	98.9166	217.529	97.9117	217.529	98.6222	217.529	98.0251	217.529	98.3706	217.529	98.1189	217.529	98.1912	217.529	98.1815	217.529	98.0963	217.529	98.2065	217.529	98.0766	217.529	98.1947	217.529	98.1067	217.529	98.1551
225.22	99.151	225.22	98.8576	225.22	99.411	225.22	98.5443	225.22	99.6267	225.22	98.2281	225.22	99.7892	225.22	97.9292	225.22	99.8909	225.22	97.6697	225.22	99.925	225.22	97.4708	225.22	99.8858	225.22	97.3485	225.22	99.7697	225.22	97.3092	225.22	99.5766	225.22	97.3479	225.22	99.3131	225.22	97.4487	225.22	98.9952	225.22	97.589	225.22	98.6513	225.22	97.7436	225.22	98.3215	225.22	97.8888	225.22	98.0506	225.22	98.0049	225.22	97.8744	225.22	98.0776	225.22	97.8054	225.22	98.0989	225.22	97.8277	225.22	98.0686	225.22	97.9051	225.22	97.9967
233.276	99.2133	233.276	98.9161	233.276	99.475	233.276	98.5963	233.276	99.6905	233.276	98.2701	233.276	99.851	233.276	97.9572	233.276	99.9483	233.276	97.68	233.276	99.9749	233.276	97.4606	233.276	99.9237	233.276	97.3168	233.276	99.7891	233.276	97.2572	233.276	99.5691	233.276	97.2785	233.276	99.2682	233.276	97.3658	233.276	98.9017	233.276	97.4957	233.276	98.4996	233.276	97.6417	233.276	98.1081	233.276	97.778	233.276	97.7826	233.276	97.8827	233.276	97.571	233.276	97.9393	233.276	97.4932	233.276	97.938	233.276	97.5315	233.276	97.8782	233.276	97.6411	233.276	97.7705
241.333	98.866	241.333	98.5359	241.333	99.1608	241.333	98.1858	241.333	99.4084	241.333	97.8349	241.333	99.5988	241.333	97.5062	241.333	99.7231	241.333	97.2248	241.333	99.7731	241.333	97.0144	241.333	99.7411	241.333	96.892	241.333	99.6205	241.333	96.8627	241.333	99.4077	241.333	96.9178	241.333	99.1051	241.333	97.0361	241.333	98.7256	241.333	97.1899	241.333	98.2971	241.333	97.3498	241.333	97.8653	241.333	97.4891	241.333	97.4897	241.333	97.5862	241.333	97.2277	241.333	97.6263	241.333	97.1107	241.333	97.6021	241.333	97.1292	241.333	97.5162	241.333	97.2393	241.333	97.3845
250.122	99.1203	250.122	98.7465	250.122	99.4404	250.122	98.3311	250.122	99.6982	250.122	97.8922	250.122	99.8875	250.122	97.4549	250.122	100.003	250.122	97.0519	250.122	100.038	250.122	96.7196	250.122	99.986	250.122	96.4903	250.122	99.842	250.122	96.3829	250.122	99.6013	250.122	96.3947	250.122	99.2646	250.122	96.5023	250.122	98.8422	250.122	96.669	250.122	98.3593	250.122	96.855	250.122	97.8606	250.122	97.0249	250.122	97.4078	250.122	97.1514	250.122	97.066	250.122	97.2167	250.122	96.8774	250.122	97.2132	250.122	96.8405	250.122	97.1453	250.122	96.9125	250.122	97.0324
258.911	98.9358	258.911	98.6056	258.911	99.2253	258.911	98.2464	258.911	99.4652	258.911	97.8739	258.911	99.6478	258.911	97.5089	258.911	99.766	258.911	97.1763	258.911	99.8122	258.911	96.9034	258.911	99.7787	258.911	96.7137	258.911	99.658	258.911	96.6206	258.911	99.4448	258.911	96.6227	258.911	99.1393	258.911	96.7028	258.911	98.751	258.911	96.8333	258.911	98.3046	258.911	96.9825	258.911	97.843	258.911	97.1205	258.911	97.4249	258.911	97.223	258.911	97.1109	258.911	97.2732	258.911	96.939	258.911	97.2632	258.911	96.9072	258.911	97.196	258.911	96.9757	258.911	97.0887
268.066	98.46	268.066	98.0332	268.066	98.8308	268.066	97.5641	268.066	99.1367	268.066	97.0748	268.066	99.3718	268.066	96.5973	268.066	99.531	268.066	96.1734	268.066	99.6089	268.066	95.8491	268.066	99.5997	268.066	95.6619	268.066	99.4969	268.066	95.6269	268.066	99.2959	268.066	95.7295	268.066	98.9962	268.066	95.9309	268.066	98.6065	268.066	96.1823	268.066	98.1497	268.066	96.4373	268.066	97.6678	268.066	96.6592	268.066	97.2206	268.066	96.8228	268.066	96.8729	268.066	96.9137	268.066	96.6698	268.066	96.9281	268.066	96.6148	268.066	96.8741	268.066	96.6694	268.066	96.7744
277.222	98.7023	277.222	98.3467	277.222	98.9965	277.222	97.9354	277.222	99.2262	277.222	97.4798	277.222	99.3891	277.222	97.0001	277.222	99.4822	277.222	96.5289	277.222	99.5017	277.222	96.1105	277.222	99.4425	277.222	95.795	277.222	99.2998	277.222	95.6234	277.222	99.0707	277.222	95.6109	277.222	98.7583	277.222	95.739	277.222	98.3756	277.222	95.9634	277.222	97.9505	277.222	96.2308	277.222	97.5277	277.222	96.4929	277.222	97.1626	277.222	96.7134	277.222	96.9054	277.222	96.8694	277.222	96.7791	277.222	96.9504	277.222	96.7686	277.222	96.9581	277.222	96.8292	277.222	96.9075
287.109	98.5593	287.109	98.2123	287.109	98.8543	287.109	97.8235	287.109	99.0896	287.109	97.4072	287.109	99.258	287.109	96.9835	287.109	99.3529	287.109	96.5802	287.109	99.3669	287.109	96.2318	287.109	99.2927	287.109	95.9736	287.109	99.1234	287.109	95.8326	287.109	98.8554	287.109	95.8166	287.109	98.4923	287.109	95.9101	287.109	98.0504	287.109	96.0795	287.109	97.5648	287.109	96.2832	287.109	97.0917	287.109	96.482	287.109	96.7003	287.109	96.6441	287.109	96.4495	287.109	96.7481	287.109	96.3593	287.109	96.7821	287.109	96.4017	287.109	96.745	287.109	96.5182	287.109	96.648
297.363	98.5455	297.363	98.127	297.363	98.8966	297.363	97.654	297.363	99.1721	297.363	97.1464	297.363	99.3661	297.363	96.6339	297.363	99.474	297.363	96.1564	297.363	99.4907	297.363	95.7612	297.363	99.4107	297.363	95.493	297.363	99.229	297.363	95.3787	297.363	98.943	297.363	95.4164	297.363	98.5574	297.363	95.575	297.363	98.0897	297.363	95.8071	297.363	97.5773	297.363	96.0632	297.363	97.0797	297.363	96.3021	297.363	96.6694	297.363	96.4941	297.363	96.4067	297.363	96.6208	297.363	96.3094	297.363	96.6735	297.363	96.3453	297.363	96.6528	297.363	96.4529	297.363	96.5704
307.617	98.6567	307.617	98.2292	307.617	99.002	307.617	97.7311	307.617	99.2597	307.617	97.1841	307.617	99.4267	307.617	96.6246	307.617	99.5003	307.617	96.1066	307.617	99.477	307.617	95.6969	307.617	99.3524	307.617	95.4579	307.617	99.122	307.617	95.4221	307.617	98.7853	307.617	95.5753	307.617	98.352	307.617	95.865	307.617	97.8512	307.617	96.2245	307.617	97.3404	307.617	96.5941	307.617	96.9056	307.617	96.9295	307.617	96.6365	307.617	97.2015	307.617	96.5803	307.617	97.3915	307.617	96.7095	307.617	97.4877	307.617	96.9415	307.617	97.4834	307.617	97.1863	307.617	97.3787
318.604	98.8573	318.604	98.4603	318.604	99.1639	318.604	97.9753	318.604	99.38	318.604	97.4108	318.604	99.5049	318.604	96.7874	318.604	99.5361	318.604	96.1446	318.604	99.4676	318.604	95.5468	318.604	99.2899	318.604	95.0785	318.604	98.9909	318.604	94.8203	318.604	98.5589	318.604	94.8103	318.604	97.9901	318.604	95.0205	318.604	97.3006	318.604	95.3742	318.604	96.5462	318.604	95.7825	318.604	95.8417	318.604	96.1719	318.604	95.349	318.604	96.4903	318.604	95.1979	318.604	96.7028	318.604	95.3816	318.604	96.7863	318.604	95.7626	318.604	96.726	318.604	96.1787	318.604	96.518
329.956	98.8318	329.956	98.4376	329.956	99.1422	329.956	97.963	329.956	99.3683	329.956	97.418	329.956	99.5095	329.956	96.825	329.956	99.5635	329.956	96.224	329.956	99.5243	329.956	95.6765	329.956	99.3822	329.956	95.2578	329.956	99.1242	329.956	95.0341	329.956	98.7365	329.956	95.0304	329.956	98.2103	329.956	95.216	329.956	97.5516	329.956	95.5203	329.956	96.7975	329.956	95.8639	329.956	96.036	329.956	96.18	329.956	95.4116	329.956	96.4198	329.956	95.0779	329.956	96.5508	329.956	95.0948	329.956	96.5523	329.956	95.3783	329.956	96.4146	329.956	95.7725	329.956	96.1438
341.675	98.5092	341.675	98.0993	341.675	98.824	341.675	97.5933	341.675	99.0465	341.675	96.997	341.675	99.1784	341.675	96.3307	341.675	99.2184	341.675	95.6382	341.675	99.1609	341.675	94.996	341.675	98.9958	341.675	94.5075	341.675	98.7094	341.675	94.2692	341.675	98.2878	341.675	94.3174	341.675	97.7234	341.675	94.6032	341.675	97.0277	341.675	95.0246	341.675	96.2507	341.675	95.4781	341.675	95.5034	341.675	95.8866	341.675	94.9533	341.675	96.2009	341.675	94.7487	341.675	96.3917	341.675	94.9033	341.675	96.4418	341.675	95.2844	341.675	96.3425	341.675	95.7222	341.675	96.0953
353.394	98.7547	353.394	98.3708	353.394	99.0403	353.394	97.882	353.394	99.2337	353.394	97.2853	353.394	99.3385	353.394	96.5882	353.394	99.3538	353.394	95.8187	353.394	99.2735	353.394	95.0397	353.394	99.0858	353.394	94.3563	353.394	98.7737	353.394	93.8991	353.394	98.3183	353.394	93.763	353.394	97.7041	353.394	93.9422	353.394	96.9321	353.394	94.3338	353.394	96.0403	353.394	94.8057	353.394	95.1349	353.394	95.2507	353.394	94.406	353.394	95.5998	353.394	94.0592	353.394	95.8125	353.394	94.1563	353.394	95.8665	353.394	94.555	353.394	95.7508	353.394	95.0434	353.394	95.4675
365.845	98.9002	365.845	98.5524	365.845	99.1543	365.845	98.1024	365.845	99.3214	365.845	97.543	365.845	99.4047	365.845	96.8742	365.845	99.4025	365.845	96.112	365.845	99.3078	365.845	95.3013	365.845	99.107	365.845	94.5283	365.845	98.7814	365.845	93.9184	365.845	98.3091	365.845	93.5939	365.845	97.6716	365.845	93.6003	365.845	96.8649	365.845	93.8721	365.845	95.922	365.845	94.28	365.845	94.9455	365.845	94.7008	365.845	94.13	365.845	95.0483	365.845	93.7003	365.845	95.2709	365.845	93.7383	365.845	95.34	365.845	94.1029	365.845	95.2414	365.845	94.5698	365.845	94.9758
379.028	98.9271	379.028	98.6014	379.028	99.1663	379.028	98.1824	379.028	99.3247	379.028	97.6651	379.028	99.4044	379.028	97.0516	379.028	99.4028	379.028	96.3595	379.028	99.3111	379.028	95.6324	379.028	99.1134	379.028	94.9475	379.028	98.788	379.028	94.4104	379.028	98.3097	379.028	94.1185	379.028	97.6569	379.028	94.1076	379.028	96.8252	379.028	94.3272	379.028	95.8536	379.028	94.6742	379.028	94.8637	379.028	95.0447	379.028	94.0823	379.028	95.3602	379.028	93.7495	379.028	95.5697	379.028	93.91	379.028	95.6406	379.028	94.3673	379.028	95.5522	379.028	94.8791	379.028	95.2944
392.212	98.3179	392.212	98.0201	392.212	98.5405	392.212	97.6356	392.212	98.6953	392.212	97.1536	392.212	98.7842	392.212	96.5698	392.212	98.8023	392.212	95.896	392.212	98.7377	392.212	95.1723	392.212	98.5708	392.212	94.4783	392.212	98.2761	392.212	93.9292	392.212	97.8245	392.212	93.6376	392.212	97.1896	392.212	93.6487	392.212	96.3606	392.212	93.908	392.212	95.3684	392.212	94.2999	392.212	94.3303	392.212	94.7088	392.212	93.4867	392.212	95.05	392.212	93.1205	392.212	95.269	392.212	93.3086	392.212	95.3316	392.212	93.8371	392.212	95.2156	392.212	94.4281	392.212	94.9102
406.128	98.1818	406.128	97.8392	406.128	98.4423	406.128	97.4041	406.128	98.6261	406.128	96.8644	406.128	98.7329	406.128	96.2126	406.128	98.7559	406.128	95.4581	406.128	98.6814	406.128	94.6435	406.128	98.4883	406.128	93.8635	406.128	98.1474	406.128	93.2659	406.128	97.6239	406.128	92.9989	406.128	96.882	406.128	93.1122	406.128	95.8994	406.128	93.5161	406.128	94.7017	406.128	94.0522	406.128	93.436	406.128	94.5818	406.128	92.4586	406.128	95.0139	406.128	92.2014	406.128	95.295	406.128	92.6956	406.128	95.3907	406.128	93.5299	406.128	95.2744	406.128	94.3283	406.128	94.9232
420.41	98.3912	420.41	98.0737	420.41	98.6389	420.41	97.6738	420.41	98.823	420.41	97.1746	420.41	98.9431	420.41	96.5599	420.41	98.9921	420.41	95.8225	420.41	98.9554	420.41	94.9785	420.41	98.8104	420.41	94.0848	420.41	98.5259	420.41	93.2575	420.41	98.0626	420.41	92.661	420.41	97.3758	420.41	92.4331	420.41	96.4216	420.41	92.582	420.41	95.1743	420.41	92.9776	420.41	93.6745	420.41	93.4477	420.41	92.1434	420.41	93.8555	420.41	91.1042	420.41	94.112	420.41	91.0568	420.41	94.1597	420.41	91.7924	420.41	93.957	420.41	92.7171	420.41	93.4748
435.425	97.9674	435.425	97.6618	435.425	98.2073	435.425	97.2804	435.425	98.3848	435.425	96.8078	435.425	98.4978	435.425	96.2283	435.425	98.5395	435.425	95.5362	435.425	98.4986	435.425	94.7514	435.425	98.3576	435.425	93.938	435.425	98.092	435.425	93.2178	435.425	97.6711	435.425	92.7483	435.425	97.0608	435.425	92.6395	435.425	96.2314	435.425	92.8689	435.425	95.1749	435.425	93.299	435.425	93.9438	435.425	93.7696	435.425	92.7231	435.425	94.1585	435.425	91.8769	435.425	94.3863	435.425	91.7456	435.425	94.4028	435.425	92.2548	435.425	94.1773	435.425	93.0127	435.425	93.7012
450.806	98.1511	450.806	97.8932	450.806	98.3391	450.806	97.5578	450.806	98.4581	450.806	97.1291	450.806	98.5045	450.806	96.5856	450.806	98.4715	450.806	95.9084	450.806	98.3482	450.806	95.0937	450.806	98.1174	450.806	94.1721	450.806	97.754	450.806	93.2311	450.806	97.2262	450.806	92.4282	450.806	96.4988	450.806	91.9488	450.806	95.5411	450.806	91.8857	450.806	94.3447	450.806	92.1556	450.806	92.962	450.806	92.5675	450.806	91.5799	450.806	92.9421	450.806	90.5795	450.806	93.1591	450.806	90.3429	450.806	93.1491	450.806	90.8219	450.806	92.8784	450.806	91.6056	450.806	92.3461
466.553	97.5378	466.553	97.2814	466.553	97.7264	466.553	96.9616	466.553	97.8415	466.553	96.5788	466.553	97.8781	466.553	96.1296	466.553	97.8313	466.553	95.6115	466.553	97.6934	466.553	95.0328	466.553	97.4514	466.553	94.4227	466.553	97.0867	466.553	93.8364	466.553	96.5783	466.553	93.3465	466.553	95.9117	466.553	93.0166	466.553	95.0928	466.553	92.8674	466.553	94.1683	466.553	92.8623	466.553	93.2422	466.553	92.9262	466.553	92.4654	466.553	92.9788	466.553	91.9695	466.553	92.9595	466.553	91.7875	466.553	92.8394	466.553	91.8527	466.553	92.6235	466.553	92.0675	466.553	92.3475
483.032	98.1636	483.032	97.8506	483.032	98.3754	483.032	97.4306	483.032	98.4906	483.032	96.898	483.032	98.5118	483.032	96.251	483.032	98.4362	483.032	95.499	483.032	98.2531	483.032	94.6767	483.032	97.9402	483.032	93.8594	483.032	97.4633	483.032	93.1677	483.032	96.7786	483.032	92.7347	483.032	95.8417	483.032	92.631	483.032	94.6301	483.032	92.8117	483.032	93.2022	483.032	93.1518	483.032	91.8153	483.032	93.5215	483.032	90.9861	483.032	93.8285	483.032	91.0739	483.032	94.0213	483.032	91.7811	483.032	94.0758	483.032	92.5974	483.032	93.9795	483.032	93.2615	483.032	93.7165
499.878	98.7252	499.878	98.4571	499.878	98.8784	499.878	98.0491	499.878	98.9368	499.878	97.4756	499.878	98.9128	499.878	96.7197	499.878	98.8085	499.878	95.7873	499.878	98.6129	499.878	94.7337	499.878	98.3001	499.878	93.7002	499.878	97.8268	499.878	92.928	499.878	97.133	499.878	92.656	499.878	96.1476	499.878	92.9184	499.878	94.8072	499.878	93.5183	499.878	93.1278	499.878	94.2178	499.878	91.4298	499.878	94.8626	499.878	90.625	499.878	95.3786	499.878	91.3323	499.878	95.7341	499.878	92.7621	499.878	95.9098	499.878	94.0777	499.878	95.8806	499.878	95.0247	499.878	95.6053
517.456	98.3796	517.456	98.3474	517.456	98.3756	517.456	98.2239	517.456	98.3707	517.456	97.9434	517.456	98.3771	517.456	97.4411	517.456	98.3868	517.456	96.6652	517.456	98.3743	517.456	95.5928	517.456	98.2981	517.456	94.2667	517.456	98.0999	517.456	92.8877	517.456	97.702	517.456	91.9264	517.456	97.0029	517.456	91.9068	517.456	95.8661	517.456	92.7637	517.456	94.0991	517.456	93.956	517.456	91.4404	517.456	95.0829	517.456	87.9139	517.456	95.9795	517.456	86.6406	517.456	96.5848	517.456	89.8297	517.456	96.8569	517.456	92.8998	517.456	96.7384	517.456	94.9293	517.456	96.1408
535.767	98.1993	535.767	98.2629	535.767	98.1633	535.767	98.3434	535.767	98.1235	535.767	98.3701	535.767	98.0411	535.767	98.2305	535.767	97.8947	535.767	97.803	535.767	97.6868	535.767	96.9773	535.767	97.4375	535.767	95.6595	535.767	97.1713	535.767	93.7995	535.767	96.8951	535.767	91.5859	535.767	96.5705	535.767	90.1207	535.767	96.0888	535.767	90.9572	535.767	95.2566	535.767	93.0937	535.767	93.7805	535.767	95.0801	535.767	91.2275	535.767	96.5406	535.767	87.3324	535.767	97.4441	535.767	86.5629	535.767	97.78	535.767	91.0168	535.767	97.4906	535.767	94.418	535.767	96.4478
554.81	98.192	554.81	98.1151	554.81	98.3839	554.81	98.2409	554.81	98.5509	554.81	98.5067	554.81	98.5916	554.81	98.7253	554.81	98.4622	554.81	98.6945	554.81	98.1622	554.81	98.258	554.81	97.7226	554.81	97.2942	554.81	97.2051	554.81	95.6761	554.81	96.7	554.81	93.2342	554.81	96.2943	554.81	89.8851	554.81	95.9865	554.81	87.2328	554.81	95.611	554.81	89.0665	554.81	94.8475	554.81	92.1824	554.81	93.2486	554.81	94.3998	554.81	90.1088	554.81	95.6785	554.81	84.3428	554.81	96.1008	554.81	84.8769	554.81	95.6232	554.81	90.7917	554.81	94.0312
574.219	98.5954	574.219	98.0215	574.219	99.096	574.219	97.6492	574.219	99.3611	574.219	97.6804	574.219	99.3374	574.219	98.0001	574.219	99.0269	574.219	98.2785	574.219	98.4548	574.219	98.2298	574.219	97.6638	574.219	97.6788	574.219	96.7372	574.219	96.4985	574.219	95.8475	574.219	94.5287	574.219	95.2572	574.219	91.4955	574.219	95.1113	574.219	87.2435	574.219	95.1719	574.219	85.4875	574.219	94.9322	574.219	89.2012	574.219	93.8464	574.219	92.3475	574.219	91.2062	574.219	94.1663	574.219	85.1474	574.219	94.8659	574.219	77.0649	574.219	94.4447	574.219	88.3375	574.219	92.6043
594.727	99.8248	594.727	98.7655	594.727	100.534	594.727	97.6296	594.727	100.836	594.727	96.9848	594.727	100.756	594.727	97.1836	594.727	100.326	594.727	97.8111	594.727	99.5631	594.727	98.2643	594.727	98.4565	594.727	98.2238	594.727	96.982	594.727	97.5542	594.727	95.198	594.727	96.1382	594.727	93.5651	594.727	93.734	594.727	93.1161	594.727	89.6773	594.727	93.9405	594.727	81.3494	594.727	94.7763	594.727	79.743	594.727	94.7219	594.727	88.1953	594.727	93.2645	594.727	91.6472	594.727	89.6338	594.727	93.009	594.727	82.385	594.727	92.7592	594.727	85.3573	594.727	90.6218
615.601	102.063	615.601	100.978	615.601	102.632	615.601	99.314	615.601	102.775	615.601	97.2	615.601	102.569	615.601	95.4519	615.601	102.058	615.601	95.4156	615.601	101.24	615.601	96.6205	615.601	100.044	615.601	97.7214	615.601	98.2982	615.601	98.2217	615.601	95.6978	615.601	98.0402	615.601	91.9848	615.601	97.1423	615.601	89.6583	615.601	95.4154	615.601	92.6076	615.601	92.5671	615.601	95.4614	615.601	87.9797	615.601	96.7248	615.601	82.8429	615.601	96.5106	615.601	86.1917	615.601	94.891	615.601	89.5321	615.601	92.1112	615.601	90.6151	615.601	89.8535	615.601	90.1262
637.207	102.85	637.207	102.176	637.207	103.14	637.207	101.027	637.207	103.122	637.207	99.3242	637.207	102.865	637.207	97.0809	637.207	102.41	637.207	94.7471	637.207	101.767	637.207	93.671	637.207	100.888	637.207	94.3894	637.207	99.6485	637.207	95.5278	637.207	97.8077	637.207	96.2129	637.207	94.9423	637.207	96.2641	637.207	90.4176	637.207	95.6707	637.207	86.8949	637.207	94.419	637.207	90.8597	637.207	92.4542	637.207	93.9768	637.207	89.6926	637.207	95.1688	637.207	86.153	637.207	94.8575	637.207	82.7265	637.207	93.2339	637.207	82.8093	637.207	90.3874	637.207	86.5311
659.912	101.864	659.912	101.534	659.912	101.901	659.912	100.83	659.912	101.731	659.912	99.7038	659.912	101.434	659.912	98.1844	659.912	101.063	659.912	96.5025	659.912	100.622	659.912	95.217	659.912	100.057	659.912	94.8427	659.912	99.2512	659.912	95.1188	659.912	98.0278	659.912	95.4128	659.912	96.1368	659.912	95.3614	659.912	93.2695	659.912	94.8498	659.912	89.6273	659.912	93.8679	659.912	88.8148	659.912	92.4564	659.912	91.4255	659.912	90.7188	659.912	93.2568	659.912	88.8732	659.912	93.6897	659.912	87.3818	659.912	92.8939	659.912	87.1731	659.912	91.0952	659.912	88.7888
682.983	101.497	682.983	101.388	682.983	101.347	682.983	100.93	682.983	101.034	682.983	100.052	682.983	100.633	682.983	98.7459	682.983	100.184	682.983	97.1474	682.983	99.6744	682.983	95.6723	682.983	99.0325	682.983	94.9033	682.983	98.1378	682.983	94.9185	682.983	96.8246	682.983	95.1921	682.983	94.8971	682.983	95.2778	682.983	92.276	682.983	95.011	682.983	89.9011	682.983	94.3855	682.983	90.2711	682.983	93.4687	682.983	92.1699	682.983	92.3689	682.983	93.3656	682.983	91.2055	682.983	93.4607	682.983	90.1071	682.983	92.5682	682.983	89.3819	682.983	91.0367	682.983	89.664
707.153	101.662	707.153	101.779	707.153	101.287	707.153	101.512	707.153	100.776	707.153	100.752	707.153	100.227	707.153	99.4226	707.153	99.6863	707.153	97.5497	707.153	99.1412	707.153	95.4833	707.153	98.5267	707.153	94.172	707.153	97.7313	707.153	94.2272	707.153	96.585	707.153	94.8392	707.153	94.8303	707.153	95.1717	707.153	92.0924	707.153	94.9555	707.153	88.2421	707.153	94.179	707.153	86.9206	707.153	92.9552	707.153	90.1061	707.153	91.5592	707.153	92.4405	707.153	90.4054	707.153	93.2114	707.153	89.7407	707.153	92.7278	707.153	89.5771	707.153	91.4432	707.153	90.1391
732.056	101.042	732.056	101.44	732.056	100.477	732.056	101.518	732.056	99.8869	732.056	101.147	732.056	99.3549	732.056	100.239	732.056	98.8912	732.056	98.7705	732.056	98.4533	732.056	96.869	732.056	97.9717	732.056	94.9957	732.056	97.3504	732.056	93.9084	732.056	96.4477	732.056	93.7616	732.056	95.045	732.056	93.8732	732.056	92.7949	732.056	93.6947	732.056	89.1814	732.056	93.0621	732.056	84.8695	732.056	92.0451	732.056	86.5798	732.056	90.8885	732.056	89.9483	732.056	89.9191	732.056	91.4799	732.056	89.3141	732.056	91.5314	732.056	89.1345	732.056	90.6516	732.056	89.6049
757.69	101.044	757.69	101.355	757.69	100.631	757.69	101.432	757.69	100.211	757.69	101.154	757.69	99.8145	757.69	100.429	757.69	99.4055	757.69	99.2296	757.69	98.9136	757.69	97.6279	757.69	98.2619	757.69	95.8741	757.69	97.3753	757.69	94.4125	757.69	96.1656	757.69	93.5822	757.69	94.5056	757.69	93.2503	757.69	92.206	757.69	93.072	757.69	89.1409	757.69	92.8838	757.69	86.5226	757.69	92.7232	757.69	87.6669	757.69	92.6638	757.69	90.2146	757.69	92.6691	757.69	91.8112	757.69	92.6185	757.69	92.4156	757.69	92.4768	757.69	92.4442	757.69	92.3834
784.424	101.019	784.424	101.264	784.424	100.64	784.424	101.27	784.424	100.204	784.424	100.943	784.424	99.7344	784.424	100.234	784.424	99.2107	784.424	99.1713	784.424	98.5953	784.424	97.8963	784.424	97.8566	784.424	96.6456	784.424	96.9623	784.424	95.613	784.424	95.8591	784.424	94.7682	784.424	94.4439	784.424	93.8998	784.424	92.5208	784.424	92.8287	784.424	89.7344	784.424	91.5822	784.424	85.6854	784.424	90.529	784.424	82.8353	784.424	90.1979	784.424	85.7357	784.424	90.5252	784.424	88.4423	784.424	90.887	784.424	89.727	784.424	90.8957	784.424	90.2522	784.424	90.6071
812.256	100.879	812.256	101.024	812.256	100.579	812.256	100.948	812.256	100.165	812.256	100.561	812.256	99.661	812.256	99.7924	812.256	99.0814	812.256	98.6516	812.256	98.4326	812.256	97.3143	812.256	97.7086	812.256	96.1482	812.256	96.8903	812.256	95.4448	812.256	95.9375	812.256	95.0389	812.256	94.7566	812.256	94.4847	812.256	93.1477	812.256	93.4326	812.256	90.7929	812.256	91.7539	812.256	87.6302	812.256	89.778	812.256	85.9211	812.256	88.793	812.256	87.5804	812.256	89.5021	812.256	89.034	812.256	90.4546	812.256	89.3533	812.256	90.6351	812.256	89.4363	812.256	90.0521
840.82	100.538	840.82	100.836	840.82	100.203	840.82	101.015	840.82	99.8095	840.82	100.901	840.82	99.3129	840.82	100.31	840.82	98.7044	840.82	99.1423	840.82	98.0147	840.82	97.4767	840.82	97.2863	840.82	95.7477	840.82	96.5466	840.82	94.6928	840.82	95.7697	840.82	94.4628	840.82	94.8109	840.82	94.366	840.82	93.3528	840.82	93.814	840.82	90.9375	840.82	92.6102	840.82	87.4855	840.82	90.9487	840.82	86.0856	840.82	89.7151	840.82	87.9781	840.82	89.8534	840.82	88.8045	840.82	90.5302	840.82	88.1246	840.82	90.4783	840.82	87.8828	840.82	89.2989
870.483	100.61	870.483	100.722	870.483	100.388	870.483	100.705	870.483	100.004	870.483	100.423	870.483	99.419	870.483	99.6939	870.483	98.6337	870.483	98.4095	870.483	97.662	870.483	96.6743	870.483	96.5111	870.483	95.002	870.483	95.2267	870.483	94.1336	870.483	93.9894	870.483	94.02	870.483	93.0793	870.483	93.8869	870.483	92.4871	870.483	93.2009	870.483	91.7541	870.483	91.823	870.483	90.6034	870.483	90.1061	870.483	89.6618	870.483	89.2725	870.483	89.626	870.483	89.9382	870.483	89.4743	870.483	90.6896	870.483	88.314	870.483	90.3977	870.483	87.4795	870.483	88.8735
901.245	100.437	901.245	100.47	901.245	100.345	901.245	100.537	901.245	100.052	901.245	100.502	901.245	99.5211	901.245	100.072	901.245	98.8165	901.245	99.005	901.245	98.007	901.245	97.2512	901.245	97.0964	901.245	95.1688	901.245	96.033	901.245	93.7755	901.245	94.7458	901.245	93.6639	901.245	93.1163	901.245	93.9101	901.245	90.9031	901.245	93.6197	901.245	88.0117	901.245	92.4769	901.245	86.6332	901.245	90.5479	901.245	88.7244	901.245	88.8028	901.245	90.2466	901.245	89.0421	901.245	89.5572	901.245	90.247	901.245	86.5214	901.245	90.3951	901.245	85.2941	901.245	88.6018
933.105	101.302	933.105	101.189	933.105	101.133	933.105	100.872	933.105	100.675	933.105	100.42	933.105	99.9765	933.105	99.7694	933.105	99.0856	933.105	98.7335	933.105	98.0155	933.105	97.164	933.105	96.7436	933.105	95.1647	933.105	95.2608	933.105	93.3459	933.105	93.6886	933.105	92.5158	933.105	92.2841	933.105	92.4176	933.105	90.9571	933.105	92.1235	933.105	88.9143	933.105	91.1441	933.105	86.0897	933.105	89.6866	933.105	87.2262	933.105	89.0632	933.105	90.2443	933.105	89.9898	933.105	90.9136	933.105	90.757	933.105	88.6473	933.105	89.9111	933.105	84.141	933.105	86.5556
966.064	101.478	966.064	101.363	966.064	101.279	966.064	101.049	966.064	100.787	966.064	100.665	966.064	100.1	966.064	100.125	966.064	99.2986	966.064	99.1255	966.064	98.3843	966.064	97.3959	966.064	97.2963	966.064	95.012	966.064	95.9807	966.064	92.9853	966.064	94.4753	966.064	92.7158	966.064	92.8961	966.064	93.271	966.064	91.0695	966.064	93.1899	966.064	87.9002	966.064	91.8719	966.064	81.2105	966.064	88.9304	966.064	85.208	966.064	84.9985	966.064	90.6071	966.064	85.8879	966.064	91.9795	966.064	88.4686	966.064	90.1532	966.064	88.4712	966.064	85.3013	966.064	85.3794
1,000.12	102.09	1,000.12	102.057	1,000.12	101.692	1,000.12	101.587	1,000.12	101.02	1,000.12	100.858	1,000.12	100.252	1,000.12	100.036	1,000.12	99.4807	1,000.12	98.9719	1,000.12	98.6908	1,000.12	97.274	1,000.12	97.7971	1,000.12	94.6679	1,000.12	96.7126	1,000.12	91.7363	1,000.12	95.4816	1,000.12	91.0399	1,000.12	94.3779	1,000.12	92.4673	1,000.12	93.5402	1,000.12	93.4248	1,000.12	92.2293	1,000.12	93.1507	1,000.12	88.6253	1,000.12	91.4821	1,000.12	74.9691	1,000.12	88.5901	1,000.12	85.149	1,000.12	86.5786	1,000.12	90.3812	1,000.12	86.9927	1,000.12	90.5954	1,000.12	86.3185	1,000.12	87.4588	1,000.12	84.3408
1,035.28	102.203	1,035.28	102.475	1,035.28	101.566	1,035.28	102.285	1,035.28	100.784	1,035.28	101.753	1,035.28	100.003	1,035.28	101.067	1,035.28	99.2179	1,035.28	100.137	1,035.28	98.3449	1,035.28	98.5599	1,035.28	97.3103	1,035.28	95.8847	1,035.28	96.1348	1,035.28	91.8986	1,035.28	95.0363	1,035.28	88.6719	1,035.28	94.3797	1,035.28	90.1363	1,035.28	94.1473	1,035.28	91.9937	1,035.28	93.5899	1,035.28	92.3758	1,035.28	91.6728	1,035.28	91.3146	1,035.28	87.4178	1,035.28	89.207	1,035.28	84.6058	1,035.28	87.6615	1,035.28	88.0968	1,035.28	87.8088	1,035.28	89.1987	1,035.28	87.6405	1,035.28	87.8985	1,035.28	86.8794
1,071.9	102.228	1,071.9	102.421	1,071.9	101.699	1,071.9	102.169	1,071.9	101.047	1,071.9	101.585	1,071.9	100.409	1,071.9	100.893	1,071.9	99.7744	1,071.9	100.084	1,071.9	99.0309	1,071.9	98.8177	1,071.9	98.0181	1,071.9	96.7117	1,071.9	96.5724	1,071.9	93.5719	1,071.9	94.6777	1,071.9	89.9448	1,071.9	92.9694	1,071.9	88.5203	1,071.9	92.6217	1,071.9	89.542	1,071.9	92.7205	1,071.9	90.2228	1,071.9	91.0446	1,071.9	90.1006	1,071.9	85.1803	1,071.9	90.0225	1,071.9	83.2695	1,071.9	90.6505	1,071.9	89.2572	1,071.9	91.0098	1,071.9	89.7904	1,071.9	89.6912	1,071.9	86.6396	1,071.9	86.164
1,109.62	101.734	1,109.62	102.065	1,109.62	101.133	1,109.62	101.91	1,109.62	100.516	1,109.62	101.287	1,109.62	99.9645	1,109.62	100.431	1,109.62	99.3995	1,109.62	99.4846	1,109.62	98.6921	1,109.62	98.2505	1,109.62	97.6968	1,109.62	96.4518	1,109.62	96.2531	1,109.62	94.0986	1,109.62	94.2343	1,109.62	91.7622	1,109.62	91.8911	1,109.62	90.3876	1,109.62	90.7176	1,109.62	89.7861	1,109.62	91.1972	1,109.62	88.6763	1,109.62	90.7723	1,109.62	86.2234	1,109.62	87.4895	1,109.62	84.0914	1,109.62	84.3145	1,109.62	86.1134	1,109.62	88.6486	1,109.62	87.7231	1,109.62	89.8652	1,109.62	86.3352	1,109.62	87.0335	1,109.62	83.0055
1,148.8	101.558	1,148.8	102.178	1,148.8	100.616	1,148.8	102.021	1,148.8	99.8705	1,148.8	101.08	1,148.8	99.4099	1,148.8	99.9181	1,148.8	98.9741	1,148.8	99.1099	1,148.8	98.3507	1,148.8	98.2447	1,148.8	97.4423	1,148.8	96.5798	1,148.8	96.1556	1,148.8	93.7812	1,148.8	94.2499	1,148.8	90.0672	1,148.8	91.2687	1,148.8	87.5455	1,148.8	88.1432	1,148.8	88.0256	1,148.8	89.8597	1,148.8	88.3327	1,148.8	91.7484	1,148.8	86.7015	1,148.8	89.8534	1,148.8	83.1036	1,148.8	80.3393	1,148.8	82.7534	1,148.8	87.4826	1,148.8	84.2331	1,148.8	91.3747	1,148.8	79.6984	1,148.8	89.6451	1,148.8	80.9812
1,189.09	101.133	1,189.09	101.477	1,189.09	100.77	1,189.09	101.344	1,189.09	100.562	1,189.09	100.409	1,189.09	100.346	1,189.09	98.7814	1,189.09	99.9128	1,189.09	97.021	1,189.09	99.1451	1,189.09	95.5632	1,189.09	98.0194	1,189.09	94.143	1,189.09	96.5429	1,189.09	92.4198	1,189.09	94.5896	1,189.09	90.6187	1,189.09	91.637	1,189.09	89.5633	1,189.09	86.5632	1,189.09	89.4649	1,189.09	84.2118	1,189.09	89.2424	1,189.09	88.8039	1,189.09	87.8979	1,189.09	89.4643	1,189.09	85.034	1,189.09	84.3568	1,189.09	81.7975	1,189.09	81.9878	1,189.09	81.2212	1,189.09	89.4856	1,189.09	83.8202	1,189.09	90.6502	1,189.09	88.2295
1,231.2	101.363	1,231.2	101.687	1,231.2	101.084	1,231.2	101.772	1,231.2	100.817	1,231.2	101.182	1,231.2	100.434	1,231.2	99.7413	1,231.2	99.8126	1,231.2	97.7573	1,231.2	98.8685	1,231.2	95.8394	1,231.2	97.6484	1,231.2	94.1537	1,231.2	96.283	1,231.2	92.2927	1,231.2	94.7496	1,231.2	90.1411	1,231.2	92.5596	1,231.2	88.7438	1,231.2	88.4031	1,231.2	89.1788	1,231.2	82.6032	1,231.2	90.0304	1,231.2	88.1062	1,231.2	90.0574	1,231.2	90.6243	1,231.2	89.1671	1,231.2	88.5166	1,231.2	87.9552	1,231.2	81.9653	1,231.2	87.1135	1,231.2	85.5002	1,231.2	86.6544	1,231.2	87.8872	1,231.2	87.2232
1,274.41	100.955	1,274.41	101.355	1,274.41	100.622	1,274.41	101.505	1,274.41	100.418	1,274.41	101.092	1,274.41	100.119	1,274.41	100.002	1,274.41	99.4792	1,274.41	98.3365	1,274.41	98.4385	1,274.41	96.2755	1,274.41	97.1158	1,274.41	93.8694	1,274.41	95.658	1,274.41	91.0082	1,274.41	94.0837	1,274.41	87.7846	1,274.41	92.2938	1,274.41	85.7792	1,274.41	90.2722	1,274.41	86.5968	1,274.41	88.5562	1,274.41	87.9584	1,274.41	87.9328	1,274.41	88.6773	1,274.41	87.1369	1,274.41	88.9895	1,274.41	84.2717	1,274.41	89.2263	1,274.41	80.98	1,274.41	89.1604	1,274.41	82.2746	1,274.41	88.0899	1,274.41	83.5362	1,274.41	85.712
1,319.46	100.147	1,319.46	100.26	1,319.46	99.7878	1,319.46	99.9579	1,319.46	99.5413	1,319.46	99.4443	1,319.46	99.3734	1,319.46	98.8601	1,319.46	98.9307	1,319.46	97.9495	1,319.46	98.0098	1,319.46	96.3843	1,319.46	96.5748	1,319.46	94.0694	1,319.46	94.507	1,319.46	91.2445	1,319.46	91.4053	1,319.46	88.7745	1,319.46	86.7984	1,319.46	87.636	1,319.46	84.1182	1,319.46	87.2063	1,319.46	86.5368	1,319.46	86.5897	1,319.46	87.8489	1,319.46	86.0807	1,319.46	88.1395	1,319.46	86.8762	1,319.46	88.165	1,319.46	88.627	1,319.46	86.8655	1,319.46	89.5962	1,319.46	81.8582	1,319.46	88.7513	1,319.46	73.5418	1,319.46	84.9527
1,365.97	100.44	1,365.97	100.968	1,365.97	100.336	1,365.97	101.193	1,365.97	100.506	1,365.97	100.582	1,365.97	100.359	1,365.97	99.3931	1,365.97	99.6481	1,365.97	98.2704	1,365.97	98.4827	1,365.97	97.1265	1,365.97	97.1069	1,365.97	95.2373	1,365.97	95.5856	1,365.97	92.0674	1,365.97	93.6189	1,365.97	88.0384	1,365.97	90.4763	1,365.97	87.5555	1,365.97	85.0597	1,365.97	89.8023	1,365.97	84.681	1,365.97	90.7843	1,365.97	88.6951	1,365.97	90.2677	1,365.97	88.0873	1,365.97	89.0604	1,365.97	81.8362	1,365.97	89.0379	1,365.97	86.3143	1,365.97	89.6862	1,365.97	88.932	1,365.97	87.8881	1,365.97	84.1858	1,365.97	76.9579
1,414.31	100.801	1,414.31	100.889	1,414.31	101.061	1,414.31	101.192	1,414.31	101.096	1,414.31	100.903	1,414.31	100.569	1,414.31	99.714	1,414.31	99.4606	1,414.31	98.0688	1,414.31	97.9347	1,414.31	96.4818	1,414.31	96.223	1,414.31	94.6895	1,414.31	94.4284	1,414.31	92.0361	1,414.31	92.4968	1,414.31	87.9537	1,414.31	90.2515	1,414.31	83.7545	1,414.31	86.7428	1,414.31	85.7189	1,414.31	79.0362	1,414.31	88.5881	1,414.31	82.9056	1,414.31	89.892	1,414.31	86.7515	1,414.31	90.0299	1,414.31	84.4026	1,414.31	89.3715	1,414.31	82.3638	1,414.31	87.7055	1,414.31	86.7421	1,414.31	83.3227	1,414.31	85.833	1,414.31	78.9491
1,464.11	100.381	1,464.11	99.7788	1,464.11	100.882	1,464.11	99.5375	1,464.11	100.822	1,464.11	99.1172	1,464.11	100.14	1,464.11	97.8232	1,464.11	98.9042	1,464.11	95.8156	1,464.11	97.2585	1,464.11	93.8922	1,464.11	95.3758	1,464.11	92.4096	1,464.11	93.3628	1,464.11	90.8817	1,464.11	91.4753	1,464.11	88.433	1,464.11	90.1116	1,464.11	83.8628	1,464.11	88.5706	1,464.11	79.9316	1,464.11	84.2354	1,464.11	84.9137	1,464.11	67.098	1,464.11	88.2389	1,464.11	80.4862	1,464.11	89.6445	1,464.11	79.6916	1,464.11	89.6365	1,464.11	77.5178	1,464.11	87.8807	1,464.11	84.5307	1,464.11	82.5663	1,464.11	84.2975	1,464.11	76.3165
1,515.75	101.273	1,515.75	100.545	1,515.75	101.495	1,515.75	99.7264	1,515.75	101.121	1,515.75	98.9184	1,515.75	100.262	1,515.75	97.7067	1,515.75	98.9488	1,515.75	95.8746	1,515.75	97.2275	1,515.75	93.7117	1,515.75	95.2124	1,515.75	91.7779	1,515.75	92.9509	1,515.75	90.361	1,515.75	90.8447	1,515.75	89.0745	1,515.75	90.2142	1,515.75	86.9915	1,515.75	90.2912	1,515.75	83.02	1,515.75	87.5517	1,515.75	78.8992	1,515.75	74.6355	1,515.75	83.8017	1,515.75	85.0613	1,515.75	88.5109	1,515.75	86.5661	1,515.75	90.9451	1,515.75	78.7593	1,515.75	90.7281	1,515.75	84.4307	1,515.75	86.0493	1,515.75	85.7327	1,515.75	72.9952
1,569.21	101.36	1,569.21	100.852	1,569.21	101.456	1,569.21	100.209	1,569.21	101.104	1,569.21	99.6233	1,569.21	100.303	1,569.21	98.8061	1,569.21	99.0202	1,569.21	97.3606	1,569.21	97.4495	1,569.21	95.1644	1,569.21	95.8394	1,569.21	92.3429	1,569.21	93.9068	1,569.21	89.6563	1,569.21	91.0946	1,569.21	88.7952	1,569.21	88.6029	1,569.21	88.9081	1,569.21	88.9475	1,569.21	87.9693	1,569.21	87.1411	1,569.21	85.3778	1,569.21	74.2698	1,569.21	82.0695	1,569.21	85.5602	1,569.21	84.668	1,569.21	86.7649	1,569.21	88.4809	1,569.21	77.7174	1,569.21	89.0048	1,569.21	86.9515	1,569.21	84.0158	1,569.21	88.2103	1,569.21	79.3019
1,624.51	100.986	1,624.51	100.303	1,624.51	101.188	1,624.51	99.3362	1,624.51	100.817	1,624.51	98.4655	1,624.51	99.8857	1,624.51	97.8294	1,624.51	98.5645	1,624.51	97.0109	1,624.51	97.1692	1,624.51	95.5966	1,624.51	95.9165	1,624.51	93.3363	1,624.51	94.4848	1,624.51	89.8024	1,624.51	92.1976	1,624.51	85.3735	1,624.51	89.3717	1,624.51	85.3625	1,624.51	88.2825	1,624.51	87.4599	1,624.51	85.5736	1,624.51	87.7761	1,624.51	76.1064	1,624.51	86.397	1,624.51	86.8161	1,624.51	85.1343	1,624.51	86.9262	1,624.51	86.3383	1,624.51	76.2122	1,624.51	86.5073	1,624.51	87.0334	1,624.51	81.252	1,624.51	88.3776	1,624.51	81.5401
1,681.64	101.117	1,681.64	100.47	1,681.64	101.371	1,681.64	99.8588	1,681.64	100.881	1,681.64	99.0611	1,681.64	99.7561	1,681.64	98.0228	1,681.64	98.3061	1,681.64	97.16	1,681.64	96.9645	1,681.64	96.3391	1,681.64	95.9604	1,681.64	94.9616	1,681.64	94.8209	1,681.64	92.4342	1,681.64	92.617	1,681.64	88.8155	1,681.64	88.3288	1,681.64	87.4368	1,681.64	82.5299	1,681.64	88.7146	1,681.64	79.5537	1,681.64	88.8818	1,681.64	84.1701	1,681.64	87.4796	1,681.64	88.1578	1,681.64	85.7966	1,681.64	85.9892	1,681.64	85.9501	1,681.64	59.3618	1,681.64	85.1976	1,681.64	85.5302	1,681.64	79.3596	1,681.64	86.7825	1,681.64	80.9655
1,740.97	101.121	1,740.97	99.8767	1,740.97	101.316	1,740.97	98.6562	1,740.97	100.66	1,740.97	98.2789	1,740.97	99.6172	1,740.97	97.6845	1,740.97	98.4228	1,740.97	96.9011	1,740.97	97.3606	1,740.97	96.387	1,740.97	96.6282	1,740.97	95.4668	1,740.97	95.7477	1,740.97	93.1805	1,740.97	93.7561	1,740.97	88.8552	1,740.97	89.2909	1,740.97	85.5088	1,740.97	77.7969	1,740.97	88.1798	1,740.97	78.246	1,740.97	89.8448	1,740.97	84.9624	1,740.97	89.3325	1,740.97	87.5231	1,740.97	87.0935	1,740.97	86.5196	1,740.97	84.1784	1,740.97	78.6811	1,740.97	79.8187	1,740.97	80.0345	1,740.97	67.3408	1,740.97	84.5252	1,740.97	81.9532
1,802.49	101.55	1,802.49	100.714	1,802.49	101.335	1,802.49	99.0701	1,802.49	100.591	1,802.49	98.0274	1,802.49	99.3715	1,802.49	97.1831	1,802.49	97.7094	1,802.49	95.7656	1,802.49	96.3824	1,802.49	94.5996	1,802.49	96.0933	1,802.49	93.7876	1,802.49	95.8759	1,802.49	92.1752	1,802.49	94.4936	1,802.49	88.705	1,802.49	91.0215	1,802.49	84.0372	1,802.49	83.4949	1,802.49	85.2287	1,802.49	75.5938	1,802.49	87.9672	1,802.49	82.7854	1,802.49	88.875	1,802.49	83.9379	1,802.49	88.4484	1,802.49	83.2971	1,802.49	86.8866	1,802.49	80.598	1,802.49	82.4503	1,802.49	74.9708	1,802.49	64.8666	1,802.49	81.9845	1,802.49	81.6678
1,866.21	100.727	1,866.21	99.6757	1,866.21	100.877	1,866.21	97.8943	1,866.21	100.162	1,866.21	97.27	1,866.21	98.4151	1,866.21	97.4696	1,866.21	96.3049	1,866.21	96.5556	1,866.21	95.7715	1,866.21	94.7582	1,866.21	96.5305	1,866.21	93.2022	1,866.21	96.6122	1,866.21	92.0538	1,866.21	95.2743	1,866.21	90.3289	1,866.21	92.0283	1,866.21	86.9511	1,866.21	86.1425	1,866.21	80.2543	1,866.21	80.5225	1,866.21	82.0052	1,866.21	83.1371	1,866.21	87.6887	1,866.21	83.3805	1,866.21	89.9801	1,866.21	78.4778	1,866.21	90.0546	1,866.21	63.0407	1,866.21	86.7732	1,866.21	79.6103	1,866.21	75.4448	1,866.21	84.2756	1,866.21	82.9038
1,931.76	100.579	1,931.76	99.4148	1,931.76	100.771	1,931.76	97.4192	1,931.76	99.6919	1,931.76	95.8298	1,931.76	97.4665	1,931.76	96.1204	1,931.76	95.4243	1,931.76	96.1295	1,931.76	95.5877	1,931.76	94.9236	1,931.76	96.6582	1,931.76	93.1713	1,931.76	96.8303	1,931.76	91.6405	1,931.76	95.7971	1,931.76	90.2799	1,931.76	93.5242	1,931.76	88.2858	1,931.76	90.3852	1,931.76	84.9231	1,931.76	88.3483	1,931.76	82.5265	1,931.76	88.1514	1,931.76	85.2758	1,931.76	86.7479	1,931.76	88.1353	1,931.76	81.389	1,931.76	89.1245	1,931.76	62.3364	1,931.76	86.7815	1,931.76	74.6196	1,931.76	77.629	1,931.76	80.6078	1,931.76	79.3071
1,999.88	100.896	1,999.88	98.7874	1,999.88	101.087	1,999.88	95.9582	1,999.88	99.4649	1,999.88	94.7673	1,999.88	96.4854	1,999.88	94.6851	1,999.88	94.195	1,999.88	94.6343	1,999.88	95.0695	1,999.88	93.6723	1,999.88	96.3851	1,999.88	91.5469	1,999.88	96.5188	1,999.88	88.8192	1,999.88	95.3414	1,999.88	87.0426	1,999.88	93.2884	1,999.88	86.801	1,999.88	91.5575	1,999.88	86.3576	1,999.88	91.3083	1,999.88	84.9449	1,999.88	91.1943	1,999.88	84.7891	1,999.88	89.0927	1,999.88	86.9153	1,999.88	82.5068	1,999.88	87.4848	1,999.88	75.2742	1,999.88	83.8994	1,999.88	75.9758	1,999.88	64.5492	1,999.88	76.4264	1,999.88	80.7087
2,070.56	101.795	2,070.56	99.5897	2,070.56	101.65	2,070.56	94.648	2,070.56	99.7003	2,070.56	93.1159	2,070.56	95.7929	2,070.56	94.2373	2,070.56	93.2919	2,070.56	93.9105	2,070.56	94.92	2,070.56	93.2603	2,070.56	95.9007	2,070.56	92.8183	2,070.56	95.5136	2,070.56	91.8738	2,070.56	94.0507	2,070.56	90.4719	2,070.56	92.8079	2,070.56	89.3609	2,070.56	93.2775	2,070.56	87.914	2,070.56	94.2311	2,070.56	85.5383	2,070.56	93.2615	2,070.56	84.3514	2,070.56	89.036	2,070.56	86.6444	2,070.56	78.3766	2,070.56	87.3562	2,070.56	76.2963	2,070.56	83.7078	2,070.56	74.4551	2,070.56	67.53	2,070.56	78.896	2,070.56	83.0991
2,143.43	101.313	2,143.43	99.3391	2,143.43	101.12	2,143.43	93.6953	2,143.43	98.8483	2,143.43	89.5594	2,143.43	93.8734	2,143.43	93.5942	2,143.43	90.3338	2,143.43	94.3995	2,143.43	93.7122	2,143.43	93.9681	2,143.43	95.5471	2,143.43	93.0999	2,143.43	95.4711	2,143.43	91.3834	2,143.43	94.4002	2,143.43	89.0738	2,143.43	93.5988	2,143.43	87.5654	2,143.43	94.0168	2,143.43	86.9125	2,143.43	94.2815	2,143.43	85.7772	2,143.43	92.5956	2,143.43	84.546	2,143.43	88.8576	2,143.43	85.6037	2,143.43	82.6988	2,143.43	86.3611	2,143.43	70.2452	2,143.43	83.6313	2,143.43	59.8496	2,143.43	61.6562	2,143.43	80.3244	2,143.43	82.5257
2,219.24	100.213	2,219.24	98.2395	2,219.24	99.9106	2,219.24	92.7368	2,219.24	96.8014	2,219.24	86.4826	2,219.24	88.9094	2,219.24	92.9969	2,219.24	88.6387	2,219.24	94.7481	2,219.24	94.4527	2,219.24	94.513	2,219.24	96.104	2,219.24	93.6927	2,219.24	95.702	2,219.24	92.411	2,219.24	94.2516	2,219.24	90.6583	2,219.24	92.8699	2,219.24	88.7424	2,219.24	92.5357	2,219.24	86.8402	2,219.24	92.1329	2,219.24	85.105	2,219.24	90.675	2,219.24	84.4943	2,219.24	87.8886	2,219.24	85.5599	2,219.24	80.8515	2,219.24	86.0807	2,219.24	70.5077	2,219.24	84.2262	2,219.24	77.0552	2,219.24	75.2201	2,219.24	81.8607	2,219.24	80.9483
2,297.24	100.713	2,297.24	98.4618	2,297.24	100.069	2,297.24	91.8057	2,297.24	96.1604	2,297.24	83.6475	2,297.24	86.1099	2,297.24	92.8987	2,297.24	91.3769	2,297.24	94.7747	2,297.24	96.1146	2,297.24	94.1301	2,297.24	97.0722	2,297.24	92.5338	2,297.24	96.1211	2,297.24	90.6997	2,297.24	93.9051	2,297.24	89.0925	2,297.24	91.4667	2,297.24	87.7767	2,297.24	90.8754	2,297.24	86.1652	2,297.24	91.841	2,297.24	83.9448	2,297.24	91.4639	2,297.24	83.1953	2,297.24	87.479	2,297.24	85.1252	2,297.24	76.828	2,297.24	86.0533	2,297.24	74.7258	2,297.24	84.5867	2,297.24	80.1357	2,297.24	79.1802	2,297.24	82.8002	2,297.24	81.3554
2,378.54	100.966	2,378.54	98.9871	2,378.54	99.8308	2,378.54	91.9946	2,378.54	95.2633	2,378.54	82.4136	2,378.54	82.6762	2,378.54	92.6172	2,378.54	92.139	2,378.54	93.9373	2,378.54	96.159	2,378.54	92.9097	2,378.54	96.6791	2,378.54	91.7886	2,378.54	95.471	2,378.54	90.8117	2,378.54	93.1131	2,378.54	89.7177	2,378.54	91.1283	2,378.54	88.5701	2,378.54	91.5359	2,378.54	86.8457	2,378.54	92.9301	2,378.54	84.4539	2,378.54	92.344	2,378.54	83.0839	2,378.54	88.4652	2,378.54	84.1111	2,378.54	81.5761	2,378.54	84.4862	2,378.54	71.0409	2,378.54	82.876	2,378.54	80.8914	2,378.54	80.4277	2,378.54	83.2089	2,378.54	82.3907
2,462.4	99.7108	2,462.4	97.6088	2,462.4	98.8209	2,462.4	89.9293	2,462.4	94.6012	2,462.4	84.0471	2,462.4	81.4553	2,462.4	92.9517	2,462.4	90.5331	2,462.4	94.3716	2,462.4	94.93	2,462.4	93.9572	2,462.4	95.3925	2,462.4	92.6823	2,462.4	93.9192	2,462.4	90.3522	2,462.4	91.0939	2,462.4	87.83	2,462.4	88.9199	2,462.4	86.6804	2,462.4	90.3661	2,462.4	86.0938	2,462.4	92.568	2,462.4	84.6138	2,462.4	92.1826	2,462.4	82.9083	2,462.4	88.5816	2,462.4	82.7919	2,462.4	81.847	2,462.4	82.5769	2,462.4	70.2255	2,462.4	80.3578	2,462.4	82.7186	2,462.4	78.9437	2,462.4	84.2144	2,462.4	83.059
2,549.19	99.2305	2,549.19	96.4982	2,549.19	98.6556	2,549.19	87.0271	2,549.19	94.3574	2,549.19	87.8497	2,549.19	78.5928	2,549.19	94.443	2,549.19	90.0353	2,549.19	95.3341	2,549.19	94.6017	2,549.19	94.3811	2,549.19	94.9979	2,549.19	92.8491	2,549.19	93.4898	2,549.19	90.7668	2,549.19	90.7521	2,549.19	88.3304	2,549.19	88.8174	2,549.19	86.3597	2,549.19	89.9883	2,549.19	84.8273	2,549.19	91.2824	2,549.19	83.3227	2,549.19	90.5402	2,549.19	82.4042	2,549.19	87.5602	2,549.19	82.1896	2,549.19	81.7004	2,549.19	81.119	2,549.19	69.6661	2,549.19	77.5584	2,549.19	81.4046	2,549.19	74.1112	2,549.19	83.192	2,549.19	81.0678
2,638.92	99.8698	2,638.92	97.0645	2,638.92	99.0627	2,638.92	88.0036	2,638.92	94.5236	2,638.92	90.2786	2,638.92	83.5573	2,638.92	95.4798	2,638.92	91.9518	2,638.92	95.8345	2,638.92	95.6246	2,638.92	94.0259	2,638.92	95.7738	2,638.92	91.5396	2,638.92	94.05	2,638.92	88.9357	2,638.92	90.7435	2,638.92	86.718	2,638.92	87.9047	2,638.92	85.3153	2,638.92	88.2415	2,638.92	83.5763	2,638.92	89.6034	2,638.92	81.4991	2,638.92	90.4414	2,638.92	81.24	2,638.92	88.5017	2,638.92	82.2262	2,638.92	81.5242	2,638.92	81.6782	2,638.92	71.9974	2,638.92	78.2899	2,638.92	82.9025	2,638.92	73.8905	2,638.92	84.4292	2,638.92	81.2347
2,731.93	100.203	2,731.93	97.6435	2,731.93	99.405	2,731.93	90.3166	2,731.93	95.0338	2,731.93	92.7457	2,731.93	87.6923	2,731.93	96.6185	2,731.93	93.4347	2,731.93	96.6168	2,731.93	96.2721	2,731.93	94.9693	2,731.93	95.9221	2,731.93	92.9841	2,731.93	93.4508	2,731.93	90.5654	2,731.93	89.5167	2,731.93	88.192	2,731.93	86.7444	2,731.93	86.9539	2,731.93	87.1882	2,731.93	85.5584	2,731.93	88.6337	2,731.93	83.0459	2,731.93	89.1919	2,731.93	81.2991	2,731.93	85.9629	2,731.93	81.6496	2,731.93	76.7282	2,731.93	80.9391	2,731.93	75.179	2,731.93	76.6069	2,731.93	83.7175	2,731.93	70.8239	2,731.93	83.9927	2,731.93	79.4501
2,828.25	100.564	2,828.25	97.9575	2,828.25	99.8166	2,828.25	91.6073	2,828.25	95.7181	2,828.25	94.1988	2,828.25	90.648	2,828.25	97.6268	2,828.25	94.2983	2,828.25	97.4305	2,828.25	96.3724	2,828.25	95.3037	2,828.25	95.7342	2,828.25	92.944	2,828.25	93.3031	2,828.25	90.7531	2,828.25	89.798	2,828.25	88.5235	2,828.25	87.6967	2,828.25	86.6031	2,828.25	87.1043	2,828.25	84.457	2,828.25	86.5602	2,828.25	81.7304	2,828.25	87.3158	2,828.25	80.1706	2,828.25	84.8597	2,828.25	80.3754	2,828.25	76.9257	2,828.25	79.6566	2,828.25	76.7581	2,828.25	75.8626	2,828.25	84.8964	2,828.25	68.8291	2,828.25	84.733	2,828.25	78.8795
2,928.22	100.884	2,928.22	98.4103	2,928.22	100.187	2,928.22	93.4964	2,928.22	96.5409	2,928.22	95.8417	2,928.22	92.9907	2,928.22	97.9966	2,928.22	95.383	2,928.22	97.0127	2,928.22	96.8434	2,928.22	94.588	2,928.22	95.8272	2,928.22	92.3998	2,928.22	92.7033	2,928.22	89.5487	2,928.22	88.5064	2,928.22	85.997	2,928.22	86.8341	2,928.22	84.6381	2,928.22	85.9004	2,928.22	83.9454	2,928.22	84.6244	2,928.22	81.8483	2,928.22	85.7297	2,928.22	79.917	2,928.22	83.7641	2,928.22	79.946	2,928.22	75.5141	2,928.22	78.991	2,928.22	81.1119	2,928.22	74.6099	2,928.22	85.8498	2,928.22	72.3096	2,928.22	83.6053	2,928.22	77.2968
3,031.49	100.717	3,031.49	98.4297	3,031.49	100.1	3,031.49	94.7773	3,031.49	96.9285	3,031.49	96.6274	3,031.49	94.5043	3,031.49	98.2718	3,031.49	96.1503	3,031.49	97.0404	3,031.49	96.9549	3,031.49	94.1463	3,031.49	95.5317	3,031.49	91.4299	3,031.49	91.9632	3,031.49	89.3532	3,031.49	86.9212	3,031.49	87.7483	3,031.49	84.3384	3,031.49	86.1108	3,031.49	83.2863	3,031.49	83.9954	3,031.49	82.2759	3,031.49	81.9969	3,031.49	84.308	3,031.49	80.5699	3,031.49	82.9367	3,031.49	78.5185	3,031.49	71.9982	3,031.49	74.5726	3,031.49	81.8934	3,031.49	69.5839	3,031.49	85.2882	3,031.49	72.2696	3,031.49	83.7018	3,031.49	79.1438
3,138.43	101.163	3,138.43	99.1949	3,138.43	100.459	3,138.43	96.1778	3,138.43	97.6778	3,138.43	97.403	3,138.43	95.7696	3,138.43	98.3074	3,138.43	96.6331	3,138.43	96.3148	3,138.43	96.8148	3,138.43	93.0822	3,138.43	95.1406	3,138.43	91.4696	3,138.43	91.5028	3,138.43	89.3781	3,138.43	86.7351	3,138.43	85.8021	3,138.43	84.597	3,138.43	83.3761	3,138.43	85.0306	3,138.43	81.9767	3,138.43	83.2732	3,138.43	79.3678	3,138.43	81.0963	3,138.43	77.9842	3,138.43	79.7251	3,138.43	78.4097	3,138.43	73.0657	3,138.43	76.1665	3,138.43	82.6651	3,138.43	60.1146	3,138.43	84.7495	3,138.43	72.9638	3,138.43	82.668	3,138.43	78.7255
3,249.02	101.172	3,249.02	99.3592	3,249.02	100.566	3,249.02	96.8322	3,249.02	98.1274	3,249.02	97.7789	3,249.02	96.5002	3,249.02	98.1489	3,249.02	96.895	3,249.02	95.9022	3,249.02	96.8212	3,249.02	92.8019	3,249.02	95.1377	3,249.02	90.3811	3,249.02	91.6875	3,249.02	87.4591	3,249.02	88.3893	3,249.02	86.4303	3,249.02	88.3835	3,249.02	86.1024	3,249.02	88.3401	3,249.02	84.2382	3,249.02	83.6508	3,249.02	81.6514	3,249.02	76.6771	3,249.02	79.5937	3,249.02	75	3,249.02	77.5162	3,249.02	73.2464	3,249.02	74.2266	3,249.02	81.849	3,249.02	64.5261	3,249.02	82.7209	3,249.02	73.0146	3,249.02	81.4359	3,249.02	79.4837
3,363.65	100.452	3,363.65	99.0317	3,363.65	99.7146	3,363.65	97.072	3,363.65	97.5762	3,363.65	97.7949	3,363.65	96.4044	3,363.65	97.8299	3,363.65	96.6724	3,363.65	95.2538	3,363.65	96.4188	3,363.65	91.7237	3,363.65	94.7044	3,363.65	90.2262	3,363.65	91.5595	3,363.65	89.3074	3,363.65	89.5432	3,363.65	87.7376	3,363.65	90.4909	3,363.65	85.1822	3,363.65	90.2984	3,363.65	83.009	3,363.65	84.4907	3,363.65	81.5282	3,363.65	69.6393	3,363.65	80.2325	3,363.65	76.488	3,363.65	79.5097	3,363.65	69.8435	3,363.65	76.9169	3,363.65	81.9793	3,363.65	69.359	3,363.65	83.4811	3,363.65	71.542	3,363.65	81.4673	3,363.65	77.8856
3,482.3	100.438	3,482.3	99.0035	3,482.3	99.6754	3,482.3	97.401	3,482.3	97.2157	3,482.3	98.0927	3,482.3	95.7325	3,482.3	97.5566	3,482.3	96.0814	3,482.3	94.4195	3,482.3	95.8742	3,482.3	92.1941	3,482.3	94.188	3,482.3	90.9275	3,482.3	91.3798	3,482.3	87.5763	3,482.3	89.8345	3,482.3	85.2301	3,482.3	90.6115	3,482.3	85.0583	3,482.3	89.819	3,482.3	83.8543	3,482.3	82.6402	3,482.3	81.4533	3,482.3	74.9445	3,482.3	79.9225	3,482.3	75.3031	3,482.3	80.1698	3,482.3	74.7144	3,482.3	78.6291	3,482.3	82.2985	3,482.3	72.7511	3,482.3	82.0096	3,482.3	71.2173	3,482.3	79.2249	3,482.3	76.6837
3,604.98	100.967	3,604.98	99.8224	3,604.98	100.28	3,604.98	98.5809	3,604.98	98.1026	3,604.98	98.6723	3,604.98	96.1138	3,604.98	97.725	3,604.98	95.615	3,604.98	95.2	3,604.98	95.2847	3,604.98	93.0399	3,604.98	93.9085	3,604.98	90.7791	3,604.98	91.5134	3,604.98	88.9076	3,604.98	89.79	3,604.98	88.1129	3,604.98	89.3834	3,604.98	86.2612	3,604.98	87.5386	3,604.98	83.944	3,604.98	78.0596	3,604.98	82.097	3,604.98	76.8584	3,604.98	80.3194	3,604.98	76.5075	3,604.98	80.2023	3,604.98	72.6262	3,604.98	79.1014	3,604.98	82.062	3,604.98	73.6913	3,604.98	82.9519	3,604.98	70.2951	3,604.98	80.1929	3,604.98	75.9635
3,732.06	100.945	3,732.06	100.29	3,732.06	100.343	3,732.06	99.3823	3,732.06	98.6373	3,732.06	99.1449	3,732.06	96.8609	3,732.06	97.9649	3,732.06	95.9336	3,732.06	95.2701	3,732.06	95.2515	3,732.06	93.3536	3,732.06	93.8545	3,732.06	92.3605	3,732.06	91.7925	3,732.06	90.5241	3,732.06	89.6893	3,732.06	87.6664	3,732.06	88.0152	3,732.06	84.3998	3,732.06	85.3852	3,732.06	83.4552	3,732.06	77.2229	3,732.06	82.7529	3,732.06	67.3193	3,732.06	80.6619	3,732.06	65.4513	3,732.06	79.245	3,732.06	74.6626	3,732.06	78.0535	3,732.06	81.2447	3,732.06	73.4637	3,732.06	82.2401	3,732.06	66.2859	3,732.06	79.9873	3,732.06	74.0644
3,863.89	101.277	3,863.89	100.442	3,863.89	100.622	3,863.89	99.5095	3,863.89	98.7494	3,863.89	99.3425	3,863.89	97.1396	3,863.89	98.0714	3,863.89	96.4796	3,863.89	95.6973	3,863.89	95.8678	3,863.89	94.1976	3,863.89	94.6507	3,863.89	91.3422	3,863.89	92.483	3,863.89	86.5942	3,863.89	90.0146	3,863.89	84.9264	3,863.89	88.3195	3,863.89	84.0225	3,863.89	85.404	3,863.89	82.0147	3,863.89	74.9932	3,863.89	79.0796	3,863.89	75.1054	3,863.89	76.9269	3,863.89	75.1679	3,863.89	78.6818	3,863.89	72.0705	3,863.89	79.082	3,863.89	81.0297	3,863.89	73.9864	3,863.89	80.9193	3,863.89	68.6743	3,863.89	78.154	3,863.89	74.4913
4,000.12	101.672	4,000.12	101.06	4,000.12	100.837	4,000.12	99.9466	4,000.12	98.9849	4,000.12	99.2448	4,000.12	97.374	4,000.12	98.0886	4,000.12	96.6749	4,000.12	96.2341	4,000.12	96.1957	4,000.12	93.5264	4,000.12	94.8317	4,000.12	89.1279	4,000.12	91.963	4,000.12	87.353	4,000.12	88.0481	4,000.12	85.976	4,000.12	84.5489	4,000.12	82.2238	4,000.12	81.5857	4,000.12	81.3759	4,000.12	74.3029	4,000.12	81.687	4,000.12	76.0323	4,000.12	79.4116	4,000.12	77.6937	4,000.12	78.0116	4,000.12	65.6037	4,000.12	77.8343	4,000.12	81.3644	4,000.12	75.8565	4,000.12	81.7391	4,000.12	74.6162	4,000.12	76.9262	4,000.12	74.5536
4,141.11	101.616	4,141.11	101.245	4,141.11	100.899	4,141.11	100.45	4,141.11	99.2504	4,141.11	99.9473	4,141.11	97.3368	4,141.11	98.5993	4,141.11	96.0358	4,141.11	95.5362	4,141.11	95.0908	4,141.11	92.1335	4,141.11	93.2823	4,141.11	89.7412	4,141.11	90.0921	4,141.11	86.4015	4,141.11	84.8721	4,141.11	82.8858	4,141.11	77.5373	4,141.11	82.062	4,141.11	75.1428	4,141.11	81.4421	4,141.11	75.5431	4,141.11	79.4835	4,141.11	58.128	4,141.11	77.2274	4,141.11	73.3581	4,141.11	77.6307	4,141.11	68.2274	4,141.11	79.3707	4,141.11	79.8558	4,141.11	78.5646	4,141.11	82.5881	4,141.11	73.9066	4,141.11	78.5095	4,141.11	70.8107
4,287.23	102.704	4,287.23	101.875	4,287.23	101.746	4,287.23	100.603	4,287.23	99.3653	4,287.23	100.068	4,287.23	97.2515	4,287.23	98.5578	4,287.23	96.2743	4,287.23	95.3549	4,287.23	95.3314	4,287.23	92.1828	4,287.23	93.6377	4,287.23	88.3441	4,287.23	89.8779	4,287.23	87.0373	4,287.23	81.0808	4,287.23	86.0891	4,287.23	77.2291	4,287.23	82.7278	4,287.23	79.5176	4,287.23	81.5202	4,287.23	77.8951	4,287.23	80.0747	4,287.23	69.1184	4,287.23	77.5974	4,287.23	75.5054	4,287.23	78.8385	4,287.23	64.6553	4,287.23	80.0163	4,287.23	79.3331	4,287.23	78.2137	4,287.23	78.8803	4,287.23	75.3624	4,287.23	75.1583	4,287.23	74.0222
4,438.11	102.624	4,438.11	101.976	4,438.11	102.037	4,438.11	101.101	4,438.11	100.246	4,438.11	100.269	4,438.11	97.7284	4,438.11	98.0537	4,438.11	95.6891	4,438.11	94.5152	4,438.11	94.65	4,438.11	92.1423	4,438.11	93.0375	4,438.11	90.3095	4,438.11	88.8217	4,438.11	87.2343	4,438.11	83.6914	4,438.11	82.725	4,438.11	84.0716	4,438.11	81.5964	4,438.11	78.6023	4,438.11	82.3155	4,438.11	81.4078	4,438.11	81.2942	4,438.11	71.938	4,438.11	78.8413	4,438.11	76.7991	4,438.11	78.0442	4,438.11	71.3232	4,438.11	81.1482	4,438.11	76.5903	4,438.11	80.6489	4,438.11	81.1938	4,438.11	76.2056	4,438.11	76.2387	4,438.11	72.2059
4,594.85	102.692	4,594.85	101.951	4,594.85	102.152	4,594.85	101.067	4,594.85	100.213	4,594.85	100.09	4,594.85	97.8035	4,594.85	97.5595	4,594.85	95.8987	4,594.85	94.4264	4,594.85	94.2842	4,594.85	92.5329	4,594.85	92.1311	4,594.85	89.2813	4,594.85	88.7623	4,594.85	87.6688	4,594.85	87.8225	4,594.85	85.8624	4,594.85	86.1041	4,594.85	82.0388	4,594.85	74.1933	4,594.85	81.0162	4,594.85	75.9294	4,594.85	81.6184	4,594.85	72.0365	4,594.85	80.6278	4,594.85	77.8017	4,594.85	78.387	4,594.85	73.2635	4,594.85	79.737	4,594.85	77.3328	4,594.85	81.2537	4,594.85	80.2527	4,594.85	78.3702	4,594.85	73.5648	4,594.85	72.6788
4,756.71	102.413	4,756.71	101.785	4,756.71	102.006	4,756.71	100.996	4,756.71	100.353	4,756.71	99.6463	4,756.71	97.8161	4,756.71	96.9594	4,756.71	95.2482	4,756.71	94.5132	4,756.71	93.7321	4,756.71	92.3676	4,756.71	92.3442	4,756.71	89.5037	4,756.71	90.3793	4,756.71	86.7565	4,756.71	89.2715	4,756.71	83.0861	4,756.71	86.5236	4,756.71	82.7772	4,756.71	75.6403	4,756.71	82.1379	4,756.71	72.7606	4,756.71	80.1645	4,756.71	55.0274	4,756.71	78.731	4,756.71	78.6446	4,756.71	78.3027	4,756.71	76.4051	4,756.71	80.604	4,756.71	75.56	4,756.71	81.5256	4,756.71	79.7697	4,756.71	78.3098	4,756.71	72.3621	4,756.71	70.0883
4,924.44	102.496	4,924.44	101.97	4,924.44	102.248	4,924.44	101.107	4,924.44	100.93	4,924.44	99.365	4,924.44	98.5936	4,924.44	96.4813	4,924.44	95.8428	4,924.44	94.3178	4,924.44	93.3204	4,924.44	91.955	4,924.44	90.9936	4,924.44	88.1319	4,924.44	89.1572	4,924.44	86.8675	4,924.44	87.93	4,924.44	84.3902	4,924.44	85.0597	4,924.44	79.9147	4,924.44	70.9195	4,924.44	78.1075	4,924.44	77.5701	4,924.44	79.7346	4,924.44	73.8503	4,924.44	79.5863	4,924.44	73.017	4,924.44	76.4745	4,924.44	76.4856	4,924.44	78.8079	4,924.44	74.1314	4,924.44	80.6352	4,924.44	78.9841	4,924.44	75.8105	4,924.44	72.9769	4,924.44	65.7624
5,098.39	102.753	5,098.39	102.149	5,098.39	102.579	5,098.39	100.889	5,098.39	101.392	5,098.39	98.6333	5,098.39	99.3378	5,098.39	95.8467	5,098.39	96.6342	5,098.39	93.0382	5,098.39	93.7483	5,098.39	89.0588	5,098.39	91.3656	5,098.39	86.8221	5,098.39	89.5415	5,098.39	84.2367	5,098.39	87.7908	5,098.39	81.1938	5,098.39	84.6485	5,098.39	80.8638	5,098.39	77.0743	5,098.39	78.9673	5,098.39	73.1431	5,098.39	78.1747	5,098.39	77.6071	5,098.39	77.5777	5,098.39	70.67	5,098.39	75.4913	5,098.39	75.745	5,098.39	76.7389	5,098.39	75.4211	5,098.39	80.1413	5,098.39	77.4074	5,098.39	78.5095	5,098.39	70.1422	5,098.39	69.449
5,278.2	102.512	5,278.2	101.871	5,278.2	102.546	5,278.2	100.502	5,278.2	101.713	5,278.2	98.0206	5,278.2	99.7088	5,278.2	94.9351	5,278.2	96.8178	5,278.2	91.6229	5,278.2	93.3838	5,278.2	87.6567	5,278.2	89.6865	5,278.2	84.8766	5,278.2	87.5113	5,278.2	82.4258	5,278.2	84.7432	5,278.2	81.0455	5,278.2	80.1248	5,278.2	77.3641	5,278.2	72.7115	5,278.2	74.419	5,278.2	81.2284	5,278.2	74.6204	5,278.2	84.0309	5,278.2	73.844	5,278.2	75.7245	5,278.2	73.331	5,278.2	71.9249	5,278.2	75.754	5,278.2	72.8368	5,278.2	80.0559	5,278.2	75.3011	5,278.2	76.6396	5,278.2	68.2832	5,278.2	61.4078
5,464.23	102.548	5,464.23	101.799	5,464.23	102.379	5,464.23	100.182	5,464.23	101.135	5,464.23	97.7451	5,464.23	99.0269	5,464.23	94.9692	5,464.23	96.0734	5,464.23	90.9545	5,464.23	92.2637	5,464.23	86.3871	5,464.23	88.6994	5,464.23	83.3248	5,464.23	85.1168	5,464.23	79.1054	5,464.23	81.2036	5,464.23	80.056	5,464.23	82.5452	5,464.23	78.9053	5,464.23	80.1725	5,464.23	78.6774	5,464.23	79.0032	5,464.23	75.4099	5,464.23	83.0963	5,464.23	70.1538	5,464.23	75.713	5,464.23	72.9707	5,464.23	71.0791	5,464.23	76.2168	5,464.23	74.3973	5,464.23	78.3259	5,464.23	74.2889	5,464.23	77.3052	5,464.23	69.9977	5,464.23	67.488
5,656.86	101.926	5,656.86	101.52	5,656.86	101.626	5,656.86	100.181	5,656.86	100.488	5,656.86	97.8063	5,656.86	98.3917	5,656.86	94.6721	5,656.86	95.4493	5,656.86	90.3433	5,656.86	92.0372	5,656.86	86.35	5,656.86	89.3818	5,656.86	83.463	5,656.86	86.6077	5,656.86	83.206	5,656.86	82.4545	5,656.86	82.2345	5,656.86	82.5143	5,656.86	79.5714	5,656.86	79.0661	5,656.86	79.0633	5,656.86	81.1745	5,656.86	76.8296	5,656.86	85.7524	5,656.86	75.6992	5,656.86	80.7822	5,656.86	76.726	5,656.86	69.9207	5,656.86	76.4593	5,656.86	76.4026	5,656.86	77.7582	5,656.86	72.7783	5,656.86	76.1255	5,656.86	69.3135	5,656.86	69.8979
5,856.45	101.227	5,856.45	100.954	5,856.45	100.936	5,856.45	99.801	5,856.45	99.9485	5,856.45	97.6805	5,856.45	98.2205	5,856.45	94.7506	5,856.45	95.4539	5,856.45	90.3053	5,856.45	91.9519	5,856.45	87.7634	5,856.45	89.2703	5,856.45	85.2965	5,856.45	84.6962	5,856.45	84.0643	5,856.45	80.6412	5,856.45	82.5231	5,856.45	82.3276	5,856.45	80.0578	5,856.45	77.2349	5,856.45	80.1933	5,856.45	82.9229	5,856.45	76.6566	5,856.45	86.8535	5,856.45	73.0251	5,856.45	81.9025	5,856.45	74.6487	5,856.45	66.254	5,856.45	76.9309	5,856.45	75.1164	5,856.45	75.6531	5,856.45	70.4574	5,856.45	73.9021	5,856.45	66.4229	5,856.45	66.1205
6,062.99	101.251	6,062.99	101.209	6,062.99	100.457	6,062.99	100.145	6,062.99	99.0696	6,062.99	98.1264	6,062.99	97.0745	6,062.99	95.0614	6,062.99	94.1673	6,062.99	91.0882	6,062.99	91.1632	6,062.99	88.4714	6,062.99	87.9217	6,062.99	85.4157	6,062.99	81.9997	6,062.99	83.9173	6,062.99	78.8854	6,062.99	81.8888	6,062.99	81.5495	6,062.99	80.1287	6,062.99	79.0293	6,062.99	79.2792	6,062.99	82.2402	6,062.99	76.6899	6,062.99	85.6606	6,062.99	75.5158	6,062.99	82.3497	6,062.99	73.3654	6,062.99	59.2519	6,062.99	76.713	6,062.99	75.7107	6,062.99	75.2567	6,062.99	74.1903	6,062.99	73.3267	6,062.99	67.2871	6,062.99	70.9211
6,276.86	102	6,276.86	101.939	6,276.86	100.792	6,276.86	100.419	6,276.86	98.873	6,276.86	97.8114	6,276.86	96.5324	6,276.86	94.486	6,276.86	93.2551	6,276.86	90.2109	6,276.86	90.0266	6,276.86	87.0894	6,276.86	86.9149	6,276.86	83.7696	6,276.86	82.0363	6,276.86	82.2902	6,276.86	82.6045	6,276.86	79.1164	6,276.86	82.3578	6,276.86	77.1629	6,276.86	77.1281	6,276.86	76.1693	6,276.86	80.3838	6,276.86	75.7929	6,276.86	83.5624	6,276.86	76.611	6,276.86	80.3502	6,276.86	72.0601	6,276.86	58.5123	6,276.86	74.2135	6,276.86	74.7162	6,276.86	73.2869	6,276.86	73.4455	6,276.86	69.924	6,276.86	66.6352	6,276.86	71.0513
6,498.05	102.446	6,498.05	102.126	6,498.05	101.439	6,498.05	100.3	6,498.05	99.3577	6,498.05	97.1811	6,498.05	96.2837	6,498.05	92.9307	6,498.05	92.4212	6,498.05	88.119	6,498.05	88.9932	6,498.05	85.385	6,498.05	85.4229	6,498.05	82.1715	6,498.05	82.446	6,498.05	82.382	6,498.05	84.0678	6,498.05	81.2589	6,498.05	82.6213	6,498.05	78.936	6,498.05	78.3601	6,498.05	76.3519	6,498.05	81.8255	6,498.05	75.2113	6,498.05	83.3562	6,498.05	75.4975	6,498.05	80.4621	6,498.05	71.8914	6,498.05	65.1098	6,498.05	69.0949	6,498.05	73.4785	6,498.05	71.2409	6,498.05	72.437	6,498.05	70.5949	6,498.05	69.31	6,498.05	71.5811
6,727.29	102.602	6,727.29	102.07	6,727.29	101.596	6,727.29	100.011	6,727.29	99.4365	6,727.29	96.6686	6,727.29	96.1337	6,727.29	91.8691	6,727.29	92.1136	6,727.29	87.8747	6,727.29	88.7269	6,727.29	85.435	6,727.29	85.3706	6,727.29	83.3877	6,727.29	84.0567	6,727.29	83.2245	6,727.29	85.2204	6,727.29	80.8899	6,727.29	83.499	6,727.29	78.6005	6,727.29	78.9364	6,727.29	76.1598	6,727.29	83.8443	6,727.29	76.0315	6,727.29	83.7837	6,727.29	77.2795	6,727.29	78.6434	6,727.29	73.2437	6,727.29	60.9346	6,727.29	66.6866	6,727.29	73.3418	6,727.29	71.6083	6,727.29	73.6751	6,727.29	68.1734	6,727.29	67.6813	6,727.29	71.3129
6,964.23	102.554	6,964.23	102.029	6,964.23	101.804	6,964.23	100.139	6,964.23	99.5948	6,964.23	96.4637	6,964.23	95.8481	6,964.23	92.064	6,964.23	91.4216	6,964.23	89.0659	6,964.23	87.5	6,964.23	85.2783	6,964.23	84.6982	6,964.23	83.5632	6,964.23	84.4129	6,964.23	82.1708	6,964.23	83.2539	6,964.23	80.8186	6,964.23	79.985	6,964.23	77.3337	6,964.23	82.41	6,964.23	75.8905	6,964.23	85.898	6,964.23	74.0957	6,964.23	85.6177	6,964.23	71.7236	6,964.23	79.7602	6,964.23	71.3588	6,964.23	67.7055	6,964.23	69.6003	6,964.23	72.8486	6,964.23	65.8595	6,964.23	71.5165	6,964.23	67.7357	6,964.23	67.7507	6,964.23	69.6532
7,209.96	102.496	7,209.96	101.781	7,209.96	101.833	7,209.96	99.6994	7,209.96	99.4408	7,209.96	96.1958	7,209.96	95.4707	7,209.96	92.8265	7,209.96	91.5394	7,209.96	89.2222	7,209.96	87.873	7,209.96	85.3543	7,209.96	84.993	7,209.96	83.4448	7,209.96	83.1379	7,209.96	80.441	7,209.96	79.9228	7,209.96	77.6869	7,209.96	77.3304	7,209.96	75.6348	7,209.96	82.3228	7,209.96	75.2024	7,209.96	86.5901	7,209.96	71.245	7,209.96	87.0776	7,209.96	69.5122	7,209.96	80.4002	7,209.96	71.5631	7,209.96	71.1287	7,209.96	71.3394	7,209.96	71.8299	7,209.96	58.8345	7,209.96	69.2555	7,209.96	68.0479	7,209.96	70.8286	7,209.96	68.1241
7,464.11	100.836	7,464.11	100.313	7,464.11	100.338	7,464.11	98.9131	7,464.11	98.1951	7,464.11	96.2526	7,464.11	94.8247	7,464.11	93.1725	7,464.11	91.3615	7,464.11	88.8927	7,464.11	87.7481	7,464.11	85.5332	7,464.11	85.3782	7,464.11	82.0824	7,464.11	82.4267	7,464.11	79.6753	7,464.11	78.1788	7,464.11	74.8416	7,464.11	79.5245	7,464.11	71.87	7,464.11	81.4244	7,464.11	73.691	7,464.11	86.0341	7,464.11	69.3921	7,464.11	87.538	7,464.11	69.0283	7,464.11	80.3626	7,464.11	59.5064	7,464.11	73.7076	7,464.11	71.0682	7,464.11	72.2301	7,464.11	68.5384	7,464.11	68.6421	7,464.11	65.2921	7,464.11	68.3565	7,464.11	58.787
7,727.42	100.039	7,727.42	99.5542	7,727.42	99.7813	7,727.42	98.4121	7,727.42	97.8453	7,727.42	95.5316	7,727.42	94.8934	7,727.42	91.7924	7,727.42	91.7131	7,727.42	87.4223	7,727.42	87.3365	7,727.42	82.6776	7,727.42	84.5106	7,727.42	78.4283	7,727.42	80.1237	7,727.42	76.3792	7,727.42	76.3667	7,727.42	74.4125	7,727.42	76.3957	7,727.42	72.4907	7,727.42	78.2858	7,727.42	68.9954	7,727.42	84.8625	7,727.42	69.863	7,727.42	86.775	7,727.42	72.7856	7,727.42	79.0677	7,727.42	61.4894	7,727.42	75.3974	7,727.42	68.3978	7,727.42	72.7519	7,727.42	68.0518	7,727.42	71.7776	7,727.42	64.5598	7,727.42	71.5015	7,727.42	64.5962
7,999.88	99.4618	7,999.88	99.3947	7,999.88	99.0307	7,999.88	98.3363	7,999.88	97.3096	7,999.88	95.0819	7,999.88	94.6378	7,999.88	91.1799	7,999.88	91.309	7,999.88	85.7048	7,999.88	87.2193	7,999.88	79.9282	7,999.88	83.8614	7,999.88	75.0267	7,999.88	78.7664	7,999.88	76.0598	7,999.88	70.176	7,999.88	72.7334	7,999.88	68.2766	7,999.88	74.7467	7,999.88	72.5719	7,999.88	67.6255	7,999.88	82.6019	7,999.88	65.0401	7,999.88	85.862	7,999.88	73.5183	7,999.88	79.244	7,999.88	66.1939	7,999.88	75.5459	7,999.88	66.2293	7,999.88	73.3902	7,999.88	69.9137	7,999.88	70.1582	7,999.88	66.0449	7,999.88	67.2554	7,999.88	63.9868
8,282.23	100.854	8,282.23	100.875	8,282.23	99.6172	8,282.23	99.0484	8,282.23	97.1397	8,282.23	94.9615	8,282.23	94.0469	8,282.23	90.4215	8,282.23	90.0928	8,282.23	82.9753	8,282.23	84.2052	8,282.23	77.7454	8,282.23	80.4177	8,282.23	71.3566	8,282.23	73.1303	8,282.23	76.7173	8,282.23	63.0889	8,282.23	73.0733	8,282.23	71.1521	8,282.23	74.1266	8,282.23	72.6567	8,282.23	65.1192	8,282.23	79.377	8,282.23	65.8549	8,282.23	83.9657	8,282.23	72.0126	8,282.23	79.1758	8,282.23	62.1006	8,282.23	73.7035	8,282.23	63.0681	8,282.23	71.009	8,282.23	69.1814	8,282.23	69.4155	8,282.23	65.8214	8,282.23	69.8929	8,282.23	65.9552
8,574.1	102.203	8,574.1	101.52	8,574.1	100.891	8,574.1	98.5854	8,574.1	98.0136	8,574.1	93.8597	8,574.1	93.8749	8,574.1	88.1428	8,574.1	87.9107	8,574.1	79.625	8,574.1	80.6282	8,574.1	71.7157	8,574.1	74.4222	8,574.1	71.376	8,574.1	68.8693	8,574.1	72.1849	8,574.1	73.4232	8,574.1	71.824	8,574.1	75.0384	8,574.1	70.4152	8,574.1	79.3009	8,574.1	60.5164	8,574.1	83.5245	8,574.1	61.4581	8,574.1	84.7762	8,574.1	67.8066	8,574.1	78.8602	8,574.1	61.4604	8,574.1	65.7905	8,574.1	57.3695	8,574.1	58.0366	8,574.1	65.9928	8,574.1	70.7393	8,574.1	62.6635	8,574.1	69.3217	8,574.1	62.5673
8,876.59	102.596	8,876.59	101.493	8,876.59	101.532	8,876.59	98.1572	8,876.59	98.5274	8,876.59	93.2087	8,876.59	93.4148	8,876.59	86.0115	8,876.59	86.9872	8,876.59	74.5608	8,876.59	75.4974	8,876.59	71.2978	8,876.59	68.9231	8,876.59	65.3935	8,876.59	76.003	8,876.59	72.9571	8,876.59	75.6844	8,876.59	71.1314	8,876.59	77.6213	8,876.59	71.9612	8,876.59	78.7884	8,876.59	62.1246	8,876.59	85.5524	8,876.59	55.8119	8,876.59	87.3339	8,876.59	65.6643	8,876.59	79.8588	8,876.59	60.6875	8,876.59	73.2411	8,876.59	59.2561	8,876.59	64.8793	8,876.59	69.8648	8,876.59	77.4406	8,876.59	63.4745	8,876.59	74.1043	8,876.59	68.4238
9,189.7	101.88	9,189.7	100.331	9,189.7	101.161	9,189.7	96.9442	9,189.7	98.5102	9,189.7	92.3243	9,189.7	93.4061	9,189.7	83.7283	9,189.7	86.6876	9,189.7	75.3227	9,189.7	68.7978	9,189.7	65.563	9,189.7	74.659	9,189.7	70.5083	9,189.7	76.3852	9,189.7	76.6137	9,189.7	77.9783	9,189.7	74.6986	9,189.7	79.6362	9,189.7	75.2749	9,189.7	72.6704	9,189.7	68.3154	9,189.7	84.8742	9,189.7	63.0627	9,189.7	87.6018	9,189.7	70.7874	9,189.7	79.952	9,189.7	67.6286	9,189.7	76.2903	9,189.7	65.6438	9,189.7	71.8446	9,189.7	72.3998	9,189.7	80.2134	9,189.7	68.4788	9,189.7	75.1596	9,189.7	68.2601
9,513.79	100.377	9,513.79	98.6652	9,513.79	100.108	9,513.79	95.983	9,513.79	97.5504	9,513.79	91.6982	9,513.79	92.1674	9,513.79	82.4044	9,513.79	85.2036	9,513.79	73.8704	9,513.79	62.172	9,513.79	71.7115	9,513.79	75.5594	9,513.79	78.6639	9,513.79	75.8629	9,513.79	79.6608	9,513.79	81.3959	9,513.79	78.493	9,513.79	81.7215	9,513.79	77.6254	9,513.79	67.8978	9,513.79	72.3761	9,513.79	80.1679	9,513.79	63.3772	9,513.79	85.8691	9,513.79	70.7439	9,513.79	78.3055	9,513.79	71.6316	9,513.79	78.8913	9,513.79	67.6066	9,513.79	71.5368	9,513.79	74.6096	9,513.79	80.3092	9,513.79	68.5021	9,513.79	75.1962	9,513.79	72.2032
9,849.24	100.165	9,849.24	98.8427	9,849.24	99.5088	9,849.24	96.3269	9,849.24	96.6273	9,849.24	90.8219	9,849.24	90.9691	9,849.24	79.5916	9,849.24	82.809	9,849.24	74.7719	9,849.24	76.9463	9,849.24	81.1661	9,849.24	78.3504	9,849.24	80.3099	9,849.24	80.3566	9,849.24	80.8665	9,849.24	82.7892	9,849.24	79.399	9,849.24	81.9524	9,849.24	78.6702	9,849.24	75.1099	9,849.24	73.3781	9,849.24	74.5157	9,849.24	67.8309	9,849.24	83.2262	9,849.24	70.1315	9,849.24	76.1958	9,849.24	71.7613	9,849.24	78.0665	9,849.24	67.4559	9,849.24	67.8196	9,849.24	73.9102	9,849.24	79.8139	9,849.24	69.9599	9,849.24	73.1377	9,849.24	70.7025
10,196.4	100.812	10,196.4	99.82	10,196.4	99.3963	10,196.4	96.4176	10,196.4	95.8531	10,196.4	89.8213	10,196.4	89.154	10,196.4	76.6499	10,196.4	78.5929	10,196.4	77.442	10,196.4	78.2612	10,196.4	82.0346	10,196.4	79.9592	10,196.4	80.4427	10,196.4	79.3132	10,196.4	80.4409	10,196.4	80.6515	10,196.4	78.3389	10,196.4	81.5393	10,196.4	77.8124	10,196.4	75.0389	10,196.4	72.7719	10,196.4	73.3113	10,196.4	64.9343	10,196.4	84.109	10,196.4	70.2121	10,196.4	79.1479	10,196.4	71.3786	10,196.4	75.5237	10,196.4	62.3642	10,196.4	60.7571	10,196.4	75.9229	10,196.4	79.9141	10,196.4	68.4528	10,196.4	74.7961	10,196.4	74.1663
10,556	101.189	10,556	100.03	10,556	99.259	10,556	95.4833	10,556	95.1881	10,556	88.2714	10,556	87.2053	10,556	70.04	10,556	73.2581	10,556	78.5267	10,556	79.5919	10,556	81.6164	10,556	78.8022	10,556	79.4157	10,556	77.6247	10,556	78.7588	10,556	79.3438	10,556	78.4873	10,556	79.5038	10,556	76.8759	10,556	67.1022	10,556	71.6036	10,556	77.5858	10,556	54.7005	10,556	84.6099	10,556	71.0156	10,556	77.3812	10,556	71.5003	10,556	75.6182	10,556	66.3635	10,556	65.498	10,556	76.7964	10,556	82.1641	10,556	71.6819	10,556	75.6756	10,556	74.9728
10,928.5	101.12	10,928.5	99.3208	10,928.5	99.1841	10,928.5	93.9228	10,928.5	94.8071	10,928.5	87.61	10,928.5	86.4799	10,928.5	71.9236	10,928.5	70.9852	10,928.5	78.6543	10,928.5	79.7008	10,928.5	80.6851	10,928.5	79.7401	10,928.5	77.2467	10,928.5	79.35	10,928.5	78.5335	10,928.5	80.5603	10,928.5	76.6516	10,928.5	79.3018	10,928.5	75.8089	10,928.5	70.9116	10,928.5	70.929	10,928.5	79.5691	10,928.5	63.0455	10,928.5	84.5588	10,928.5	71.7009	10,928.5	73.6737	10,928.5	69.1552	10,928.5	79.0097	10,928.5	68.8454	10,928.5	73.0425	10,928.5	76.444	10,928.5	83.8477	10,928.5	74.1495	10,928.5	77.4436	10,928.5	75.4933
11,313.7	100.648	11,313.7	98.335	11,313.7	98.717	11,313.7	92.8473	11,313.7	94.467	11,313.7	86.8331	11,313.7	85.9797	11,313.7	76.1761	11,313.7	68.1681	11,313.7	77.9566	11,313.7	80.8956	11,313.7	79.8777	11,313.7	81.7329	11,313.7	73.4028	11,313.7	79.9127	11,313.7	77.4585	11,313.7	79.8882	11,313.7	75.7441	11,313.7	79.427	11,313.7	74.7079	11,313.7	73.2076	11,313.7	72.5681	11,313.7	81.0138	11,313.7	63.693	11,313.7	83.7504	11,313.7	70.9193	11,313.7	67.0954	11,313.7	68.4008	11,313.7	81.2541	11,313.7	65.9699	11,313.7	73.6315	11,313.7	78.1029	11,313.7	84.2281	11,313.7	73.9359	11,313.7	78.5092	11,313.7	76.2207
11,712.5	99.8657	11,712.5	97.9854	11,712.5	97.8066	11,712.5	93.2576	11,712.5	93.5517	11,712.5	85.8442	11,712.5	84.4897	11,712.5	76.5878	11,712.5	58.9921	11,712.5	76.554	11,712.5	79.0073	11,712.5	78.0975	11,712.5	82.1221	11,712.5	74.3764	11,712.5	78.1506	11,712.5	77.0078	11,712.5	77.9627	11,712.5	75.1993	11,712.5	78.1043	11,712.5	72.967	11,712.5	75.4476	11,712.5	72.8497	11,712.5	80.6472	11,712.5	61.1813	11,712.5	82.9765	11,712.5	70.4969	11,712.5	68.8036	11,712.5	69.2872	11,712.5	80.7268	11,712.5	66.6303	11,712.5	67.0449	11,712.5	78.4858	11,712.5	83.6429	11,712.5	73.6305	11,712.5	78.6416	11,712.5	77.178
12,125.6	99.7796	12,125.6	98.3648	12,125.6	97.1688	12,125.6	92.8521	12,125.6	92.4403	12,125.6	83.354	12,125.6	83.3276	12,125.6	75.7451	12,125.6	66.882	12,125.6	75.7775	12,125.6	78.7738	12,125.6	77.418	12,125.6	80.7095	12,125.6	73.4196	12,125.6	74.3454	12,125.6	74.1532	12,125.6	77.4537	12,125.6	73.1875	12,125.6	75.8802	12,125.6	70.4746	12,125.6	72.4709	12,125.6	71.1437	12,125.6	78.3439	12,125.6	60.3953	12,125.6	81.3471	12,125.6	68.9091	12,125.6	70.2504	12,125.6	68.6201	12,125.6	77.4858	12,125.6	67.1794	12,125.6	59.1907	12,125.6	77.4476	12,125.6	81.4158	12,125.6	73.7786	12,125.6	76.4147	12,125.6	77.0327
12,553.3	100.897	12,553.3	99.2903	12,553.3	97.9505	12,553.3	92.1555	12,553.3	92.2503	12,553.3	81.7458	12,553.3	82.4901	12,553.3	77.29	12,553.3	74.7356	12,553.3	78.2752	12,553.3	81.4686	12,553.3	77.2851	12,553.3	81.2692	12,553.3	72.8381	12,553.3	76.8892	12,553.3	73.3374	12,553.3	74.2016	12,553.3	71.2563	12,553.3	72.4603	12,553.3	71.5041	12,553.3	72.0511	12,553.3	67.846	12,553.3	80.5127	12,553.3	58.742	12,553.3	82.0572	12,553.3	68.0205	12,553.3	71.6231	12,553.3	68.6028	12,553.3	76.3157	12,553.3	68.3642	12,553.3	70.3074	12,553.3	75.8416	12,553.3	82.5009	12,553.3	75.0972	12,553.3	79.0435	12,553.3	77.2359
12,996.1	102.259	12,996.1	99.991	12,996.1	99.133	12,996.1	91.2587	12,996.1	92.3392	12,996.1	81.1443	12,996.1	82.2196	12,996.1	82.382	12,996.1	79.7487	12,996.1	79.6476	12,996.1	81.6027	12,996.1	78.5858	12,996.1	83.1457	12,996.1	70.6408	12,996.1	79.4934	12,996.1	73.03	12,996.1	73.0389	12,996.1	64.7046	12,996.1	74.8713	12,996.1	70.6557	12,996.1	76.5773	12,996.1	64.4547	12,996.1	84.3389	12,996.1	56.8511	12,996.1	83.8165	12,996.1	70.6304	12,996.1	70.6516	12,996.1	65.5701	12,996.1	79.5647	12,996.1	53.2957	12,996.1	71.5387	12,996.1	78.0898	12,996.1	84.712	12,996.1	74.857	12,996.1	81.1883	12,996.1	75.4663
13,454.2	102.327	13,454.2	99.8984	13,454.2	99.0637	13,454.2	90.7876	13,454.2	92.4773	13,454.2	79.5775	13,454.2	81.9334	13,454.2	82.6427	13,454.2	80.3832	13,454.2	79.1691	13,454.2	79.5013	13,454.2	79.766	13,454.2	84.3146	13,454.2	64.725	13,454.2	80.969	13,454.2	72.4824	13,454.2	70.8967	13,454.2	69.3394	13,454.2	77.52	13,454.2	68.613	13,454.2	77.7553	13,454.2	69.7764	13,454.2	85.4818	13,454.2	65.2112	13,454.2	84.565	13,454.2	72.169	13,454.2	71.7951	13,454.2	69.2743	13,454.2	80.6617	13,454.2	63.9107	13,454.2	65.9614	13,454.2	80.5848	13,454.2	85.2765	13,454.2	73.7943	13,454.2	81.5038	13,454.2	79.539
13,928.8	101.77	13,928.8	99.5094	13,928.8	98.6771	13,928.8	90.9521	13,928.8	92.2165	13,928.8	78.8598	13,928.8	82.4073	13,928.8	81.7946	13,928.8	76.7329	13,928.8	79.79	13,928.8	76.0874	13,928.8	78.2589	13,928.8	83.0938	13,928.8	63.0163	13,928.8	77.8606	13,928.8	69.1083	13,928.8	72.425	13,928.8	69.1938	13,928.8	76.1496	13,928.8	65.6697	13,928.8	75.6161	13,928.8	68.0682	13,928.8	83.9469	13,928.8	63.218	13,928.8	83.6184	13,928.8	68.8453	13,928.8	73.1369	13,928.8	69.2785	13,928.8	78.1351	13,928.8	63.4885	13,928.8	62.5346	13,928.8	78.9391	13,928.8	83.4683	13,928.8	73.3013	13,928.8	79.9752	13,928.8	78.7624
14,419.9	101.015	14,419.9	99.0237	14,419.9	97.6687	14,419.9	90.3869	14,419.9	90.6035	14,419.9	77.8316	14,419.9	82.3943	14,419.9	82.2728	14,419.9	77.5818	14,419.9	80.8787	14,419.9	77.3419	14,419.9	76.2397	14,419.9	81.3625	14,419.9	65.4486	14,419.9	76.4766	14,419.9	67.3022	14,419.9	70.5479	14,419.9	65.6241	14,419.9	74.5196	14,419.9	66.1253	14,419.9	74.2653	14,419.9	64.8809	14,419.9	82.2401	14,419.9	58.3904	14,419.9	81.5067	14,419.9	67.6889	14,419.9	71.6208	14,419.9	67.5041	14,419.9	76.434	14,419.9	58.4368	14,419.9	67.0629	14,419.9	76.7044	14,419.9	81.6237	14,419.9	73.8832	14,419.9	77.4712	14,419.9	77.5859
14,928.6	101.021	14,928.6	98.6912	14,928.6	97.6189	14,928.6	88.9768	14,928.6	89.5502	14,928.6	77.725	14,928.6	82.2129	14,928.6	82.517	14,928.6	82.1149	14,928.6	80.0954	14,928.6	78.5844	14,928.6	75.2065	14,928.6	82.3644	14,928.6	65.3632	14,928.6	78.8915	14,928.6	69.0009	14,928.6	72.1024	14,928.6	64.7534	14,928.6	76.2682	14,928.6	67.7684	14,928.6	75.5313	14,928.6	65.4423	14,928.6	83.0097	14,928.6	51.2743	14,928.6	81.7189	14,928.6	67.5934	14,928.6	65.9285	14,928.6	66.6653	14,928.6	77.673	14,928.6	59.9308	14,928.6	66.6246	14,928.6	76.6977	14,928.6	81.8947	14,928.6	71.5147	14,928.6	78.4765	14,928.6	77.6304
15,454.8	101.513	15,454.8	98.7217	15,454.8	98.1145	15,454.8	87.812	15,454.8	89.05	15,454.8	78.7711	15,454.8	81.4782	15,454.8	82.2741	15,454.8	83.8962	15,454.8	78.026	15,454.8	77.5463	15,454.8	75.496	15,454.8	82.2902	15,454.8	61.2836	15,454.8	79.4776	15,454.8	70.7241	15,454.8	72.9732	15,454.8	65.9331	15,454.8	77.6561	15,454.8	66.7633	15,454.8	76.1349	15,454.8	67.5858	15,454.8	84.0003	15,454.8	56.8453	15,454.8	82.3062	15,454.8	67.3297	15,454.8	63.3482	15,454.8	68.4573	15,454.8	78.3934	15,454.8	63.0032	15,454.8	64.1914	15,454.8	77.7923	15,454.8	81.8951	15,454.8	67.2421	15,454.8	79.1612	15,454.8	79.5348
16,000.1	101.242	16,000.1	98.176	16,000.1	97.8025	16,000.1	86.6224	16,000.1	87.9353	16,000.1	80.1885	16,000.1	80.3644	16,000.1	81.4423	16,000.1	84.0977	16,000.1	75.2829	16,000.1	75.5466	16,000.1	75.9832	16,000.1	80.5525	16,000.1	56.3374	16,000.1	78.6021	16,000.1	70.8407	16,000.1	72.0702	16,000.1	66.3871	16,000.1	77.0403	16,000.1	64.6211	16,000.1	75.4573	16,000.1	68.0086	16,000.1	83.6086	16,000.1	59.6419	16,000.1	81.7233	16,000.1	66.3515	16,000.1	64.5007	16,000.1	69.7583	16,000.1	78.2346	16,000.1	62.2599	16,000.1	64.0921	16,000.1	77.8281	16,000.1	81.3019	16,000.1	65.7324	16,000.1	78.7052	16,000.1	79.5281
16,564.1	100.416	16,564.1	97.3288	16,564.1	96.706	16,564.1	85.8165	16,564.1	85.5865	16,564.1	81.9078	16,564.1	79.1162	16,564.1	80.298	16,564.1	83.5189	16,564.1	73.6316	16,564.1	73.5434	16,564.1	75.6793	16,564.1	78.0516	16,564.1	49.7592	16,564.1	77.6907	16,564.1	70.306	16,564.1	68.1805	16,564.1	65.943	16,564.1	76.2048	16,564.1	62.4294	16,564.1	74.4087	16,564.1	68.1171	16,564.1	82.961	16,564.1	59.5104	16,564.1	80.5176	16,564.1	65.7361	16,564.1	63.4492	16,564.1	69.6455	16,564.1	77.5183	16,564.1	57.8933	16,564.1	62.1627	16,564.1	77.3262	16,564.1	80.2663	16,564.1	66.0482	16,564.1	76.6914	16,564.1	78.6392
17,148.2	100.127	17,148.2	97.0536	17,148.2	95.9953	17,148.2	85.463	17,148.2	82.8843	17,148.2	83.5797	17,148.2	77.0022	17,148.2	79.6765	17,148.2	82.7247	17,148.2	73.5948	17,148.2	74.2037	17,148.2	75.9901	17,148.2	76.8351	17,148.2	57.3031	17,148.2	77.9418	17,148.2	70.8566	17,148.2	67.9087	17,148.2	66.0861	17,148.2	76.8969	17,148.2	64.3019	17,148.2	75.5909	17,148.2	68.4785	17,148.2	83.3918	17,148.2	59.0219	17,148.2	79.9473	17,148.2	67.9188	17,148.2	59.1955	17,148.2	68.8009	17,148.2	78.0055	17,148.2	55.9468	17,148.2	62.864	17,148.2	77.5232	17,148.2	80.3997	17,148.2	65.4005	17,148.2	76.2159	17,148.2	78.9909
17,753.2	100.563	17,753.2	97.2163	17,753.2	96.3566	17,753.2	84.9985	17,753.2	81.6969	17,753.2	84.1925	17,753.2	74.8604	17,753.2	80.0854	17,753.2	83.5673	17,753.2	72.4955	17,753.2	77.1165	17,753.2	76.1936	17,753.2	76.4919	17,753.2	62.127	17,753.2	78.807	17,753.2	71.3073	17,753.2	69.689	17,753.2	68.3813	17,753.2	78.0169	17,753.2	66.2465	17,753.2	76.7468	17,753.2	69.6518	17,753.2	84.4133	17,753.2	58.2579	17,753.2	80.2063	17,753.2	68.1356	17,753.2	51.5055	17,753.2	69.5627	17,753.2	79.2348	17,753.2	59.4859	17,753.2	67.6157	17,753.2	78.4894	17,753.2	81.0558	17,753.2	62.4916	17,753.2	77.6954	17,753.2	80.2776
18,379	99.9505	18,379	96.4544	18,379	95.871	18,379	84.5085	18,379	81.3892	18,379	83.7797	18,379	74.1828	18,379	79.7744	18,379	83.2442	18,379	69.5641	18,379	77.5494	18,379	75.487	18,379	74.6278	18,379	61.8325	18,379	78.2223	18,379	70.4755	18,379	68.0187	18,379	69.2296	18,379	77.4851	18,379	65.7008	18,379	75.9866	18,379	69.5565	18,379	83.9143	18,379	58.6643	18,379	79.2768	18,379	67.1139	18,379	53.6287	18,379	69.5114	18,379	78.7617	18,379	58.916	18,379	67.4168	18,379	77.9619	18,379	80.2968	18,379	62.2765	18,379	77.2905	18,379	79.8967
19,027.2	98.5337	19,027.2	94.9576	19,027.2	94.2767	19,027.2	83.9388	19,027.2	78.7583	19,027.2	83.9416	19,027.2	74.8955	19,027.2	79.1597	19,027.2	82.4786	19,027.2	68.1076	19,027.2	76.8845	19,027.2	74.1896	19,027.2	72.0264	19,027.2	59.1303	19,027.2	76.4112	19,027.2	68.9652	19,027.2	66.0407	19,027.2	68.6424	19,027.2	76.2105	19,027.2	64.0093	19,027.2	74.5566	19,027.2	68.7294	19,027.2	82.9702	19,027.2	58.0264	19,027.2	78.1763	19,027.2	66.0849	19,027.2	57.2537	19,027.2	68.6107	19,027.2	77.2854	19,027.2	58.0397	19,027.2	64.5371	19,027.2	76.9851	19,027.2	78.8156	19,027.2	63.0787	19,027.2	75.5151	19,027.2	79.2713
19,698.5	99.0181	19,698.5	95.1994	19,698.5	94.5282	19,698.5	84.2397	19,698.5	75.4264	19,698.5	84.6724	19,698.5	73.1722	19,698.5	79.4267	19,698.5	81.9636	19,698.5	70.6311	19,698.5	77.4127	19,698.5	74.8158	19,698.5	71.9164	19,698.5	62.8802	19,698.5	77.5948	19,698.5	70.3106	19,698.5	65.7869	19,698.5	69.5904	19,698.5	77.3677	19,698.5	65.4773	19,698.5	75.3764	19,698.5	69.4351	19,698.5	84.0251	19,698.5	59.9508	19,698.5	78.6997	19,698.5	67.4978	19,698.5	62.2176	19,698.5	69.0519	19,698.5	78.0174	19,698.5	61.4707	19,698.5	66.5195	19,698.5	77.8167	19,698.5	79.6481	19,698.5	61.5514	19,698.5	76.3095	19,698.5	80.4265
19,999.9	99.1143	19,999.9	95.3004	19,999.9	94.4089	19,999.9	83.6482	19,999.9	72.7364	19,999.9	84.3482	19,999.9	70.9794	19,999.9	80.1381	19,999.9	82.1043	19,999.9	70.7126	19,999.9	78.3614	19,999.9	75.8719	19,999.9	71.5674	19,999.9	64.2495	19,999.9	78.4367	19,999.9	71.3871	19,999.9	64.3787	19,999.9	70.4485	19,999.9	78.2826	19,999.9	64.5217	19,999.9	75.9783	19,999.9	70.9758	19,999.9	84.3106	19,999.9	61.1056	19,999.9	78.1482	19,999.9	68.9523	19,999.9	62.3741	19,999.9	69.2616	19,999.9	79.027	19,999.9	63.628	19,999.9	67.4237	19,999.9	78.6059	19,999.9	80.4516	19,999.9	65.7052	19,999.9	76.4504	19,999.9	81.9314
