"SPL Horizontal"																																																																							
"On-Axis"		"10°"		"-10°"		"20°"		"-20°"		"30°"		"-30°"		"40°"		"-40°"		"50°"		"-50°"		"60°"		"-60°"		"70°"		"-70°"		"80°"		"-80°"		"90°"		"-90°"		"100°"		"-100°"		"110°"		"-110°"		"120°"		"-120°"		"130°"		"-130°"		"140°"		"-140°"		"150°"		"-150°"		"160°"		"-160°"		"170°"		"-170°"		"180°"	
"Frequency [Hz]"	"Sound Pessure Level [dB]  / [2.83V 1m] "	"Frequency [Hz]"	"Sound Pessure Level [dB]  / [2.83V 1m] "	"Frequency [Hz]"	"Sound Pessure Level [dB]  / [2.83V 1m] "	"Frequency [Hz]"	"Sound Pessure Level [dB]  / [2.83V 1m] "	"Frequency [Hz]"	"Sound Pessure Level [dB]  / [2.83V 1m] "	"Frequency [Hz]"	"Sound Pessure Level [dB]  / [2.83V 1m] "	"Frequency [Hz]"	"Sound Pessure Level [dB]  / [2.83V 1m] "	"Frequency [Hz]"	"Sound Pessure Level [dB]  / [2.83V 1m] "	"Frequency [Hz]"	"Sound Pessure Level [dB]  / [2.83V 1m] "	"Frequency [Hz]"	"Sound Pessure Level [dB]  / [2.83V 1m] "	"Frequency [Hz]"	"Sound Pessure Level [dB]  / [2.83V 1m] "	"Frequency [Hz]"	"Sound Pessure Level [dB]  / [2.83V 1m] "	"Frequency [Hz]"	"Sound Pessure Level [dB]  / [2.83V 1m] "	"Frequency [Hz]"	"Sound Pessure Level [dB]  / [2.83V 1m] "	"Frequency [Hz]"	"Sound Pessure Level [dB]  / [2.83V 1m] "	"Frequency [Hz]"	"Sound Pessure Level [dB]  / [2.83V 1m] "	"Frequency [Hz]"	"Sound Pessure Level [dB]  / [2.83V 1m] "	"Frequency [Hz]"	"Sound Pessure Level [dB]  / [2.83V 1m] "	"Frequency [Hz]"	"Sound Pessure Level [dB]  / [2.83V 1m] "	"Frequency [Hz]"	"Sound Pessure Level [dB]  / [2.83V 1m] "	"Frequency [Hz]"	"Sound Pessure Level [dB]  / [2.83V 1m] "	"Frequency [Hz]"	"Sound Pessure Level [dB]  / [2.83V 1m] "	"Frequency [Hz]"	"Sound Pessure Level [dB]  / [2.83V 1m] "	"Frequency [Hz]"	"Sound Pessure Level [dB]  / [2.83V 1m] "	"Frequency [Hz]"	"Sound Pessure Level [dB]  / [2.83V 1m] "	"Frequency [Hz]"	"Sound Pessure Level [dB]  / [2.83V 1m] "	"Frequency [Hz]"	"Sound Pessure Level [dB]  / [2.83V 1m] "	"Frequency [Hz]"	"Sound Pessure Level [dB]  / [2.83V 1m] "	"Frequency [Hz]"	"Sound Pessure Level [dB]  / [2.83V 1m] "	"Frequency [Hz]"	"Sound Pessure Level [dB]  / [2.83V 1m] "	"Frequency [Hz]"	"Sound Pessure Level [dB]  / [2.83V 1m] "	"Frequency [Hz]"	"Sound Pessure Level [dB]  / [2.83V 1m] "	"Frequency [Hz]"	"Sound Pessure Level [dB]  / [2.83V 1m] "	"Frequency [Hz]"	"Sound Pessure Level [dB]  / [2.83V 1m] "	"Frequency [Hz]"	"Sound Pessure Level [dB]  / [2.83V 1m] "	"Frequency [Hz]"	"Sound Pessure Level [dB]  / [2.83V 1m] "
20.5078	47.6075	20.5078	47.4715	20.5078	47.8991	20.5078	47.5413	20.5078	48.3128	20.5078	47.8677	20.5078	48.8323	20.5078	48.4737	20.5078	49.4503	20.5078	49.3334	20.5078	50.1605	20.5078	50.3776	20.5078	50.9513	20.5078	51.5213	20.5078	51.8045	20.5078	52.6885	20.5078	52.697	20.5078	53.8217	20.5078	53.6033	20.5078	54.8817	20.5078	54.4983	20.5078	55.8426	20.5078	55.3581	20.5078	56.6873	20.5078	56.1614	20.5078	57.4043	20.5078	56.8888	20.5078	57.9855	20.5078	57.5232	20.5078	58.4255	20.5078	58.0501	20.5078	58.7206	20.5078	58.457	20.5078	58.8696	20.5078	58.7338	20.5078	58.8731
21.9727	52.7675	21.9727	52.9134	21.9727	52.6314	21.9727	53.0726	21.9727	52.5282	21.9727	53.2714	21.9727	52.5086	21.9727	53.5517	21.9727	52.6434	21.9727	53.9587	21.9727	53.001	21.9727	54.5238	21.9727	53.6132	21.9727	55.2488	21.9727	54.4545	21.9727	56.1035	21.9727	55.4542	21.9727	57.0362	21.9727	56.5273	21.9727	57.99	21.9727	57.5999	21.9727	58.9146	21.9727	58.6181	21.9727	59.7702	21.9727	59.5455	21.9727	60.528	21.9727	60.3585	21.9727	61.1674	21.9727	61.0417	21.9727	61.6741	21.9727	61.5848	21.9727	62.0385	21.9727	61.9809	21.9727	62.254	21.9727	62.2258	21.9727	62.317
23.4375	53.366	23.4375	53.371	23.4375	53.2634	23.4375	53.2977	23.4375	53.0834	23.4375	53.2068	23.4375	52.893	23.4375	53.2055	23.4375	52.8164	23.4375	53.4337	23.4375	53.0194	23.4375	54.0058	23.4375	53.6303	23.4375	54.9347	23.4375	54.6438	23.4375	56.1213	23.4375	55.9244	23.4375	57.4236	23.4375	57.3047	23.4375	58.7221	23.4375	58.6587	23.4375	59.9393	23.4375	59.9116	23.4375	61.031	23.4375	61.0248	23.4375	61.9739	23.4375	61.9792	23.4375	62.7554	23.4375	62.7657	23.4375	63.3688	23.4375	63.3796	23.4375	63.81	23.4375	63.8186	23.4375	64.0766	23.4375	64.0813	23.4375	64.1673
25.6348	59.906	25.6348	59.8894	25.6348	59.8803	25.6348	59.8419	25.6348	59.8231	25.6348	59.7973	25.6348	59.7683	25.6348	59.8122	25.6348	59.7731	25.6348	59.9592	25.6348	59.9118	25.6348	60.3064	25.6348	60.2548	25.6348	60.8862	25.6348	60.836	25.6348	61.6763	25.6348	61.6327	25.6348	62.6098	25.6348	62.5758	25.6348	63.6049	25.6348	63.5809	25.6348	64.5889	25.6348	64.5738	25.6348	65.5077	25.6348	65.4996	25.6348	66.3245	25.6348	66.3215	25.6348	67.0155	25.6348	67.0155	25.6348	67.5654	25.6348	67.5669	25.6348	67.9643	25.6348	67.966	25.6348	68.2061	25.6348	68.2072	25.6348	68.2875
27.0996	63.5854	27.0996	63.5769	27.0996	63.5857	27.0996	63.5691	27.0996	63.5854	27.0996	63.5877	27.0996	63.6087	27.0996	63.6724	27.0996	63.6941	27.0996	63.8705	27.0996	63.8886	27.0996	64.2232	27.0996	64.2339	27.0996	64.7484	27.0996	64.7502	27.0996	65.4312	27.0996	65.4249	27.0996	66.228	27.0996	66.2161	27.0996	67.0816	27.0996	67.0671	27.0996	67.9361	27.0996	67.9216	27.0996	68.7451	27.0996	68.7321	27.0996	69.4734	27.0996	69.4628	27.0996	70.0958	27.0996	70.0879	27.0996	70.595	27.0996	70.5894	27.0996	70.9588	27.0996	70.9554	27.0996	71.1797	27.0996	71.1781	27.0996	71.2533
29.2969	68.6537	29.2969	68.6378	29.2969	68.6581	29.2969	68.6161	29.2969	68.6557	29.2969	68.6055	29.2969	68.6624	29.2969	68.6328	29.2969	68.7037	29.2969	68.7319	29.2969	68.8125	29.2969	68.9375	29.2969	69.0226	29.2969	69.2742	29.2969	69.3586	29.2969	69.7469	29.2969	69.8264	29.2969	70.3368	29.2969	70.4088	29.2969	71.0062	29.2969	71.0697	29.2969	71.7089	29.2969	71.7639	29.2969	72.3997	29.2969	72.4465	29.2969	73.04	29.2969	73.079	29.2969	73.5995	29.2969	73.6309	29.2969	74.0558	29.2969	74.0796	29.2969	74.3932	29.2969	74.4091	29.2969	74.6011	29.2969	74.6092	29.2969	74.6738
31.4941	72.7581	31.4941	72.7647	31.4941	72.7587	31.4941	72.7832	31.4941	72.7702	31.4941	72.8263	31.4941	72.8049	31.4941	72.9132	31.4941	72.8818	31.4941	73.067	31.4941	73.0245	31.4941	73.3093	31.4941	73.2559	31.4941	73.6538	31.4941	73.5913	31.4941	74.1008	31.4941	74.0324	31.4941	74.635	31.4941	74.5651	31.4941	75.2285	31.4941	75.1611	31.4941	75.8467	31.4941	75.7851	31.4941	76.454	31.4941	76.4005	31.4941	77.0184	31.4941	76.9739	31.4941	77.5131	31.4941	77.478	31.4941	77.9171	31.4941	77.8912	31.4941	78.215	31.4941	78.198	31.4941	78.3961	31.4941	78.3877	31.4941	78.4544
33.6914	76.6382	33.6914	76.6367	33.6914	76.6498	33.6914	76.6488	33.6914	76.6748	33.6914	76.6837	33.6914	76.7224	33.6914	76.7565	33.6914	76.8072	33.6914	76.8849	33.6914	76.9466	33.6914	77.0865	33.6914	77.1576	33.6914	77.3737	33.6914	77.452	33.6914	77.7494	33.6914	77.8322	33.6914	78.2044	33.6914	78.2885	33.6914	78.7179	33.6914	78.8003	33.6914	79.2618	33.6914	79.3398	33.6914	79.8051	33.6914	79.8761	33.6914	80.3176	33.6914	80.3797	33.6914	80.7733	33.6914	80.8248	33.6914	81.1507	33.6914	81.1903	33.6914	81.4334	33.6914	81.4604	33.6914	81.6103	33.6914	81.6239	33.6914	81.6746
35.8887	80.3477	35.8887	80.3501	35.8887	80.3613	35.8887	80.3711	35.8887	80.3932	35.8887	80.4177	35.8887	80.45	35.8887	80.5005	35.8887	80.542	35.8887	80.632	35.8887	80.6812	35.8887	80.8244	35.8887	80.8797	35.8887	81.0862	35.8887	81.1456	35.8887	81.419	35.8887	81.4805	35.8887	81.8161	35.8887	81.8776	35.8887	82.262	35.8887	82.3216	35.8887	82.7349	35.8887	82.7909	35.8887	83.2094	35.8887	83.2602	35.8887	83.6598	35.8887	83.7043	35.8887	84.0628	35.8887	84.0997	35.8887	84.3982	35.8887	84.4267	35.8887	84.6505	35.8887	84.6699	35.8887	84.8083	35.8887	84.8181	35.8887	84.865
38.8184	84.4136	38.8184	84.416	38.8184	84.4294	38.8184	84.4388	38.8184	84.465	38.8184	84.487	38.8184	84.5249	38.8184	84.5682	38.8184	84.6161	38.8184	84.6912	38.8184	84.747	38.8184	84.8647	38.8184	84.926	38.8184	85.0946	38.8184	85.1589	38.8184	85.3822	38.8184	85.4473	38.8184	85.7226	38.8184	85.7864	38.8184	86.1046	38.8184	86.1653	38.8184	86.5109	38.8184	86.5672	38.8184	86.9212	38.8184	86.9718	38.8184	87.3137	38.8184	87.3575	38.8184	87.6673	38.8184	87.7036	38.8184	87.9637	38.8184	87.9916	38.8184	88.1879	38.8184	88.2068	38.8184	88.3288	38.8184	88.3384	38.8184	88.3797
41.0156	87.4657	41.0156	87.4766	41.0156	87.4769	41.0156	87.5105	41.0156	87.5111	41.0156	87.5706	41.0156	87.5715	41.0156	87.6619	41.0156	87.6631	41.0156	87.7898	41.0156	87.7916	41.0156	87.9595	41.0156	87.9623	41.0156	88.1744	41.0156	88.1787	41.0156	88.4346	41.0156	88.441	41.0156	88.7361	41.0156	88.745	41.0156	89.0699	41.0156	89.0816	41.0156	89.423	41.0156	89.4371	41.0156	89.7791	41.0156	89.7948	41.0156	90.1202	41.0156	90.1364	41.0156	90.4286	41.0156	90.4438	41.0156	90.6877	41.0156	90.7007	41.0156	90.884	41.0156	90.8935	41.0156	91.0072	41.0156	91.0121	41.0156	91.0507
43.9453	90.5532	43.9453	90.559	43.9453	90.5661	43.9453	90.5843	43.9453	90.5984	43.9453	90.6313	43.9453	90.6525	43.9453	90.7035	43.9453	90.7316	43.9453	90.8049	43.9453	90.8398	43.9453	90.9396	43.9453	90.9811	43.9453	91.1107	43.9453	91.1581	43.9453	91.3189	43.9453	91.3715	43.9453	91.5622	43.9453	91.6187	43.9453	91.8345	43.9453	91.8932	43.9453	92.1261	43.9453	92.185	43.9453	92.4242	43.9453	92.4809	43.9453	92.7135	43.9453	92.7656	43.9453	92.9785	43.9453	93.0235	43.9453	93.204	43.9453	93.2399	43.9453	93.3772	43.9453	93.4021	43.9453	93.488	43.9453	93.5007	43.9453	93.5299
47.6074	93.4616	47.6074	93.4698	47.6074	93.4726	47.6074	93.4977	47.6074	93.5033	47.6074	93.5466	47.6074	93.5552	47.6074	93.6184	47.6074	93.63	47.6074	93.7154	47.6074	93.7303	47.6074	93.8398	47.6074	93.858	47.6074	93.9931	47.6074	94.0148	47.6074	94.1753	47.6074	94.2004	47.6074	94.3846	47.6074	94.4126	47.6074	94.6162	47.6074	94.6465	47.6074	94.8628	47.6074	94.8943	47.6074	95.1142	47.6074	95.1455	47.6074	95.3584	47.6074	95.388	47.6074	95.5823	47.6074	95.6086	47.6074	95.7733	47.6074	95.7946	47.6074	95.92	47.6074	95.935	47.6074	96.0134	47.6074	96.0212	47.6074	96.0479
50.5371	95.4434	50.5371	95.4515	50.5371	95.4544	50.5371	95.4789	50.5371	95.4849	50.5371	95.5264	50.5371	95.5355	50.5371	95.5949	50.5371	95.6074	50.5371	95.6858	50.5371	95.7018	50.5371	95.8001	50.5371	95.8197	50.5371	95.9383	50.5371	95.9616	50.5371	96.1003	50.5371	96.1271	50.5371	96.284	50.5371	96.314	50.5371	96.4857	50.5371	96.5181	50.5371	96.6995	50.5371	96.7331	50.5371	96.917	50.5371	96.9506	50.5371	97.1285	50.5371	97.1603	50.5371	97.323	50.5371	97.3512	50.5371	97.4894	50.5371	97.5123	50.5371	97.6177	50.5371	97.6338	50.5371	97.6999	50.5371	97.7082	50.5371	97.7308
54.1992	97.4858	54.1992	97.494	54.1992	97.4961	54.1992	97.5208	54.1992	97.525	54.1992	97.5662	54.1992	97.5728	54.1992	97.6305	54.1992	97.6396	54.1992	97.7139	54.1992	97.7258	54.1992	97.8163	54.1992	97.8312	54.1992	97.9376	54.1992	97.9556	54.1992	98.0767	54.1992	98.0979	54.1992	98.2321	54.1992	98.2561	54.1992	98.4005	54.1992	98.427	54.1992	98.5776	54.1992	98.6056	54.1992	98.757	54.1992	98.7853	54.1992	98.9311	54.1992	98.9583	54.1992	99.0913	54.1992	99.1157	54.1992	99.2287	54.1992	99.2487	54.1992	99.335	54.1992	99.3492	54.1992	99.4033	54.1992	99.4107	54.1992	99.4291
58.5938	99.2926	58.5938	99.2994	58.5938	99.3034	58.5938	99.3237	58.5938	99.3317	58.5938	99.3651	58.5938	99.3771	58.5938	99.4231	58.5938	99.4393	58.5938	99.4972	58.5938	99.5176	58.5938	99.5864	58.5938	99.611	58.5938	99.6899	58.5938	99.7185	58.5938	99.8063	58.5938	99.8386	58.5938	99.9339	58.5938	99.9693	58.5938	100.07	58.5938	100.108	58.5938	100.212	58.5938	100.251	58.5938	100.355	58.5938	100.393	58.5938	100.494	58.5938	100.53	58.5938	100.621	58.5938	100.653	58.5938	100.731	58.5938	100.757	58.5938	100.817	58.5938	100.835	58.5938	100.872	58.5938	100.882	58.5938	100.895
62.2559	100.449	62.2559	100.455	62.2559	100.46	62.2559	100.477	62.2559	100.488	62.2559	100.516	62.2559	100.532	62.2559	100.571	62.2559	100.592	62.2559	100.64	62.2559	100.665	62.2559	100.721	62.2559	100.751	62.2559	100.815	62.2559	100.849	62.2559	100.918	62.2559	100.955	62.2559	101.029	62.2559	101.068	62.2559	101.145	62.2559	101.187	62.2559	101.265	62.2559	101.307	62.2559	101.385	62.2559	101.425	62.2559	101.5	62.2559	101.537	62.2559	101.606	62.2559	101.638	62.2559	101.697	62.2559	101.723	62.2559	101.768	62.2559	101.786	62.2559	101.814	62.2559	101.823	62.2559	101.833
66.6504	101.236	66.6504	101.24	66.6504	101.247	66.6504	101.26	66.6504	101.274	66.6504	101.295	66.6504	101.316	66.6504	101.345	66.6504	101.372	66.6504	101.406	66.6504	101.439	66.6504	101.477	66.6504	101.516	66.6504	101.557	66.6504	101.6	66.6504	101.644	66.6504	101.691	66.6504	101.735	66.6504	101.784	66.6504	101.829	66.6504	101.879	66.6504	101.923	66.6504	101.973	66.6504	102.016	66.6504	102.064	66.6504	102.104	66.6504	102.148	66.6504	102.185	66.6504	102.223	66.6504	102.254	66.6504	102.284	66.6504	102.308	66.6504	102.329	66.6504	102.345	66.6504	102.356	66.6504	102.361
71.7773	101.436	71.7773	101.441	71.7773	101.446	71.7773	101.461	71.7773	101.471	71.7773	101.494	71.7773	101.51	71.7773	101.539	71.7773	101.56	71.7773	101.595	71.7773	101.62	71.7773	101.658	71.7773	101.688	71.7773	101.727	71.7773	101.76	71.7773	101.799	71.7773	101.835	71.7773	101.872	71.7773	101.91	71.7773	101.945	71.7773	101.984	71.7773	102.016	71.7773	102.054	71.7773	102.083	71.7773	102.12	71.7773	102.146	71.7773	102.179	71.7773	102.201	71.7773	102.23	71.7773	102.248	71.7773	102.271	71.7773	102.285	71.7773	102.301	71.7773	102.31	71.7773	102.318	71.7773	102.321
76.9043	101.347	76.9043	101.358	76.9043	101.349	76.9043	101.383	76.9043	101.365	76.9043	101.419	76.9043	101.393	76.9043	101.466	76.9043	101.432	76.9043	101.52	76.9043	101.479	76.9043	101.579	76.9043	101.532	76.9043	101.641	76.9043	101.588	76.9043	101.701	76.9043	101.646	76.9043	101.76	76.9043	101.702	76.9043	101.814	76.9043	101.756	76.9043	101.863	76.9043	101.806	76.9043	101.905	76.9043	101.852	76.9043	101.941	76.9043	101.893	76.9043	101.97	76.9043	101.929	76.9043	101.991	76.9043	101.959	76.9043	102.005	76.9043	101.983	76.9043	102.011	76.9043	102	76.9043	102.009
82.7637	101.632	82.7637	101.641	82.7637	101.635	82.7637	101.661	82.7637	101.649	82.7637	101.691	82.7637	101.673	82.7637	101.729	82.7637	101.706	82.7637	101.772	82.7637	101.745	82.7637	101.818	82.7637	101.787	82.7637	101.863	82.7637	101.829	82.7637	101.906	82.7637	101.871	82.7637	101.944	82.7637	101.908	82.7637	101.976	82.7637	101.941	82.7637	102.001	82.7637	101.968	82.7637	102.02	82.7637	101.989	82.7637	102.032	82.7637	102.005	82.7637	102.04	82.7637	102.018	82.7637	102.043	82.7637	102.027	82.7637	102.044	82.7637	102.033	82.7637	102.044	82.7637	102.038	82.7637	102.041
88.623	101.616	88.623	101.62	88.623	101.625	88.623	101.636	88.623	101.646	88.623	101.664	88.623	101.678	88.623	101.7	88.623	101.718	88.623	101.744	88.623	101.764	88.623	101.791	88.623	101.814	88.623	101.838	88.623	101.863	88.623	101.883	88.623	101.909	88.623	101.924	88.623	101.95	88.623	101.959	88.623	101.984	88.623	101.986	88.623	102.011	88.623	102.007	88.623	102.03	88.623	102.021	88.623	102.042	88.623	102.031	88.623	102.048	88.623	102.037	88.623	102.05	88.623	102.04	88.623	102.05	88.623	102.043	88.623	102.048	88.623	102.046
94.4824	101.806	94.4824	101.808	94.4824	101.815	94.4824	101.822	94.4824	101.835	94.4824	101.845	94.4824	101.864	94.4824	101.877	94.4824	101.9	94.4824	101.914	94.4824	101.941	94.4824	101.953	94.4824	101.984	94.4824	101.992	94.4824	102.025	94.4824	102.028	94.4824	102.062	94.4824	102.059	94.4824	102.093	94.4824	102.083	94.4824	102.115	94.4824	102.098	94.4824	102.129	94.4824	102.106	94.4824	102.134	94.4824	102.108	94.4824	102.132	94.4824	102.105	94.4824	102.125	94.4824	102.1	94.4824	102.116	94.4824	102.096	94.4824	102.106	94.4824	102.093	94.4824	102.098	94.4824	102.094
101.807	101.919	101.807	101.923	101.807	101.925	101.807	101.938	101.807	101.942	101.807	101.963	101.807	101.969	101.807	101.995	101.807	102.002	101.807	102.032	101.807	102.039	101.807	102.071	101.807	102.077	101.807	102.107	101.807	102.113	101.807	102.14	101.807	102.144	101.807	102.165	101.807	102.168	101.807	102.181	101.807	102.182	101.807	102.188	101.807	102.188	101.807	102.186	101.807	102.184	101.807	102.177	101.807	102.174	101.807	102.162	101.807	102.159	101.807	102.146	101.807	102.144	101.807	102.132	101.807	102.13	101.807	102.122	101.807	102.12	101.807	102.118
109.131	101.801	109.131	101.801	109.131	101.813	109.131	101.812	109.131	101.836	109.131	101.833	109.131	101.868	109.131	101.863	109.131	101.908	109.131	101.899	109.131	101.952	109.131	101.937	109.131	101.997	109.131	101.974	109.131	102.039	109.131	102.007	109.131	102.075	109.131	102.033	109.131	102.102	109.131	102.051	109.131	102.119	109.131	102.06	109.131	102.124	109.131	102.059	109.131	102.119	109.131	102.052	109.131	102.105	109.131	102.041	109.131	102.085	109.131	102.028	109.131	102.062	109.131	102.018	109.131	102.041	109.131	102.013	109.131	102.025	109.131	102.015
116.455	101.825	116.455	101.824	116.455	101.833	116.455	101.833	116.455	101.85	116.455	101.849	116.455	101.874	116.455	101.87	116.455	101.903	116.455	101.895	116.455	101.933	116.455	101.92	116.455	101.964	116.455	101.943	116.455	101.991	116.455	101.961	116.455	102.011	116.455	101.972	116.455	102.022	116.455	101.974	116.455	102.023	116.455	101.967	116.455	102.014	116.455	101.951	116.455	101.994	116.455	101.929	116.455	101.967	116.455	101.904	116.455	101.936	116.455	101.88	116.455	101.904	116.455	101.86	116.455	101.877	116.455	101.848	116.455	101.857	116.455	101.847
125.244	102.002	125.244	101.994	125.244	102.015	125.244	101.991	125.244	102.033	125.244	101.992	125.244	102.055	125.244	101.997	125.244	102.079	125.244	102.003	125.244	102.103	125.244	102.009	125.244	102.123	125.244	102.012	125.244	102.138	125.244	102.009	125.244	102.145	125.244	102.001	125.244	102.141	125.244	101.984	125.244	102.126	125.244	101.961	125.244	102.099	125.244	101.931	125.244	102.061	125.244	101.899	125.244	102.016	125.244	101.866	125.244	101.966	125.244	101.838	125.244	101.917	125.244	101.818	125.244	101.873	125.244	101.811	125.244	101.839	125.244	101.818
134.033	102.159	134.033	102.163	134.033	102.159	134.033	102.17	134.033	102.161	134.033	102.179	134.033	102.165	134.033	102.188	134.033	102.17	134.033	102.197	134.033	102.175	134.033	102.203	134.033	102.177	134.033	102.204	134.033	102.176	134.033	102.199	134.033	102.168	134.033	102.185	134.033	102.152	134.033	102.161	134.033	102.129	134.033	102.129	134.033	102.097	134.033	102.089	134.033	102.058	134.033	102.044	134.033	102.016	134.033	101.997	134.033	101.973	134.033	101.953	134.033	101.934	134.033	101.916	134.033	101.903	134.033	101.891	134.033	101.884	134.033	101.88
143.555	102.392	143.555	102.385	143.555	102.398	143.555	102.379	143.555	102.403	143.555	102.372	143.555	102.407	143.555	102.363	143.555	102.408	143.555	102.353	143.555	102.406	143.555	102.34	143.555	102.398	143.555	102.322	143.555	102.383	143.555	102.299	143.555	102.36	143.555	102.27	143.555	102.328	143.555	102.233	143.555	102.287	143.555	102.19	143.555	102.238	143.555	102.143	143.555	102.182	143.555	102.093	143.555	102.124	143.555	102.044	143.555	102.068	143.555	102	143.555	102.017	143.555	101.965	143.555	101.976	143.555	101.944	143.555	101.949	143.555	101.938
153.809	102.461	153.809	102.453	153.809	102.467	153.809	102.445	153.809	102.472	153.809	102.436	153.809	102.476	153.809	102.425	153.809	102.478	153.809	102.411	153.809	102.477	153.809	102.394	153.809	102.471	153.809	102.373	153.809	102.461	153.809	102.347	153.809	102.443	153.809	102.316	153.809	102.417	153.809	102.28	153.809	102.384	153.809	102.24	153.809	102.342	153.809	102.197	153.809	102.294	153.809	102.153	153.809	102.242	153.809	102.113	153.809	102.189	153.809	102.08	153.809	102.14	153.809	102.057	153.809	102.098	153.809	102.046	153.809	102.067	153.809	102.049
164.795	102.571	164.795	102.565	164.795	102.572	164.795	102.554	164.795	102.567	164.795	102.537	164.795	102.557	164.795	102.516	164.795	102.542	164.795	102.49	164.795	102.522	164.795	102.459	164.795	102.496	164.795	102.423	164.795	102.464	164.795	102.383	164.795	102.427	164.795	102.338	164.795	102.383	164.795	102.289	164.795	102.334	164.795	102.237	164.795	102.28	164.795	102.185	164.795	102.224	164.795	102.134	164.795	102.168	164.795	102.087	164.795	102.115	164.795	102.047	164.795	102.069	164.795	102.017	164.795	102.032	164.795	102	164.795	102.007	164.795	101.996
176.514	102.665	176.514	102.657	176.514	102.663	176.514	102.64	176.514	102.652	176.514	102.613	176.514	102.632	176.514	102.578	176.514	102.605	176.514	102.535	176.514	102.57	176.514	102.485	176.514	102.529	176.514	102.429	176.514	102.483	176.514	102.369	176.514	102.432	176.514	102.307	176.514	102.376	176.514	102.243	176.514	102.318	176.514	102.181	176.514	102.258	176.514	102.123	176.514	102.198	176.514	102.07	176.514	102.14	176.514	102.025	176.514	102.086	176.514	101.991	176.514	102.039	176.514	101.968	176.514	102.002	176.514	101.957	176.514	101.975	176.514	101.959
189.697	102.612	189.697	102.614	189.697	102.597	189.697	102.605	189.697	102.572	189.697	102.585	189.697	102.535	189.697	102.554	189.697	102.489	189.697	102.515	189.697	102.435	189.697	102.467	189.697	102.374	189.697	102.413	189.697	102.308	189.697	102.354	189.697	102.241	189.697	102.292	189.697	102.172	189.697	102.228	189.697	102.106	189.697	102.166	189.697	102.045	189.697	102.105	189.697	101.99	189.697	102.05	189.697	101.945	189.697	102	189.697	101.91	189.697	101.958	189.697	101.886	189.697	101.923	189.697	101.874	189.697	101.897	189.697	101.872	189.697	101.88
202.881	102.587	202.881	102.569	202.881	102.588	202.881	102.536	202.881	102.572	202.881	102.488	202.881	102.542	202.881	102.429	202.881	102.498	202.881	102.36	202.881	102.443	202.881	102.285	202.881	102.38	202.881	102.208	202.881	102.312	202.881	102.133	202.881	102.241	202.881	102.063	202.881	102.171	202.881	102.001	202.881	102.104	202.881	101.95	202.881	102.043	202.881	101.91	202.881	101.991	202.881	101.881	202.881	101.948	202.881	101.863	202.881	101.915	202.881	101.854	202.881	101.891	202.881	101.851	202.881	101.875	202.881	101.852	202.881	101.864	202.881	101.857
217.529	102.579	217.529	102.571	217.529	102.567	217.529	102.542	217.529	102.535	217.529	102.493	217.529	102.485	217.529	102.427	217.529	102.421	217.529	102.345	217.529	102.346	217.529	102.253	217.529	102.264	217.529	102.155	217.529	102.18	217.529	102.057	217.529	102.098	217.529	101.965	217.529	102.022	217.529	101.884	217.529	101.957	217.529	101.819	217.529	101.904	217.529	101.773	217.529	101.864	217.529	101.747	217.529	101.838	217.529	101.738	217.529	101.822	217.529	101.743	217.529	101.813	217.529	101.757	217.529	101.806	217.529	101.773	217.529	101.799	217.529	101.788
232.91	102.509	232.91	102.505	232.91	102.485	232.91	102.473	232.91	102.433	232.91	102.414	232.91	102.354	232.91	102.333	232.91	102.252	232.91	102.235	232.91	102.133	232.91	102.123	232.91	102.002	232.91	102.006	232.91	101.868	232.91	101.89	232.91	101.739	232.91	101.782	232.91	101.625	232.91	101.689	232.91	101.532	232.91	101.617	232.91	101.467	232.91	101.569	232.91	101.433	232.91	101.545	232.91	101.428	232.91	101.54	232.91	101.445	232.91	101.547	232.91	101.476	232.91	101.557	232.91	101.51	232.91	101.563	232.91	101.54	232.91	101.558
249.756	102.617	249.756	102.596	249.756	102.596	249.756	102.537	249.756	102.536	249.756	102.44	249.756	102.437	249.756	102.311	249.756	102.304	249.756	102.155	249.756	102.142	249.756	101.978	249.756	101.958	249.756	101.791	249.756	101.761	249.756	101.603	249.756	101.563	249.756	101.427	249.756	101.376	249.756	101.273	249.756	101.214	249.756	101.152	249.756	101.086	249.756	101.068	249.756	101	249.756	101.022	249.756	100.957	249.756	101.008	249.756	100.95	249.756	101.015	249.756	100.968	249.756	101.031	249.756	100.998	249.756	101.042	249.756	101.025	249.756	101.041
268.066	102.669	268.066	102.642	268.066	102.65	268.066	102.57	268.066	102.585	268.066	102.453	268.066	102.477	268.066	102.297	268.066	102.33	268.066	102.106	268.066	102.149	268.066	101.889	268.066	101.94	268.066	101.657	268.066	101.713	268.066	101.422	268.066	101.478	268.066	101.198	268.066	101.249	268.066	100.999	268.066	101.038	268.066	100.838	268.066	100.859	268.066	100.723	268.066	100.724	268.066	100.655	268.066	100.637	268.066	100.626	268.066	100.596	268.066	100.624	268.066	100.59	268.066	100.634	268.066	100.606	268.066	100.643	268.066	100.626	268.066	100.641
287.109	102.752	287.109	102.729	287.109	102.729	287.109	102.662	287.109	102.66	287.109	102.554	287.109	102.547	287.109	102.406	287.109	102.393	287.109	102.226	287.109	102.204	287.109	102.02	287.109	101.987	287.109	101.797	287.109	101.754	287.109	101.569	287.109	101.518	287.109	101.348	287.109	101.294	287.109	101.149	287.109	101.097	287.109	100.986	287.109	100.941	287.109	100.868	287.109	100.833	287.109	100.798	287.109	100.774	287.109	100.77	287.109	100.757	287.109	100.773	287.109	100.767	287.109	100.791	287.109	100.79	287.109	100.809	287.109	100.81	287.109	100.817
307.617	102.696	307.617	102.663	307.617	102.679	307.617	102.579	307.617	102.612	307.617	102.446	307.617	102.5	307.617	102.268	307.617	102.347	307.617	102.053	307.617	102.16	307.617	101.809	307.617	101.946	307.617	101.55	307.617	101.716	307.617	101.293	307.617	101.482	307.617	101.058	307.617	101.258	307.617	100.864	307.617	101.063	307.617	100.729	307.617	100.911	307.617	100.661	307.617	100.814	307.617	100.659	307.617	100.775	307.617	100.707	307.617	100.786	307.617	100.783	307.617	100.83	307.617	100.86	307.617	100.885	307.617	100.917	307.617	100.927	307.617	100.94
329.59	102.735	329.59	102.728	329.59	102.676	329.59	102.655	329.59	102.554	329.59	102.517	329.59	102.375	329.59	102.316	329.59	102.144	329.59	102.057	329.59	101.873	329.59	101.749	329.59	101.574	329.59	101.406	329.59	101.265	329.59	101.045	329.59	100.967	329.59	100.695	329.59	100.701	329.59	100.384	329.59	100.491	329.59	100.146	329.59	100.35	329.59	100.003	329.59	100.284	329.59	99.9624	329.59	100.284	329.59	100.01	329.59	100.328	329.59	100.116	329.59	100.391	329.59	100.242	329.59	100.443	329.59	100.356	329.59	100.461	329.59	100.433
353.76	102.939	353.76	102.887	353.76	102.909	353.76	102.756	353.76	102.794	353.76	102.551	353.76	102.594	353.76	102.281	353.76	102.312	353.76	101.955	353.76	101.953	353.76	101.59	353.76	101.528	353.76	101.204	353.76	101.055	353.76	100.823	353.76	100.565	353.76	100.477	353.76	100.097	353.76	100.199	353.76	99.702	353.76	100.011	353.76	99.4304	353.76	99.9253	353.76	99.3124	353.76	99.9309	353.76	99.3453	353.76	100	353.76	99.4924	353.76	100.095	353.76	99.6983	353.76	100.176	353.76	99.9075	353.76	100.212	353.76	100.077	353.76	100.182
378.662	103.405	378.662	103.378	378.662	103.355	378.662	103.275	378.662	103.228	378.662	103.095	378.662	103.026	378.662	102.838	378.662	102.75	378.662	102.507	378.662	102.404	378.662	102.108	378.662	101.996	378.662	101.653	378.662	101.54	378.662	101.165	378.662	101.061	378.662	100.68	378.662	100.596	378.662	100.245	378.662	100.194	378.662	99.9162	378.662	99.9057	378.662	99.7377	378.662	99.7653	378.662	99.7204	378.662	99.7754	378.662	99.8344	378.662	99.9009	378.662	100.02	378.662	100.083	378.662	100.212	378.662	100.259	378.662	100.355	378.662	100.38	378.662	100.415
405.762	103.321	405.762	103.281	405.762	103.277	405.762	103.157	405.762	103.146	405.762	102.95	405.762	102.927	405.762	102.662	405.762	102.62	405.762	102.298	405.762	102.225	405.762	101.863	405.762	101.75	405.762	101.372	405.762	101.207	405.762	100.851	405.762	100.624	405.762	100.34	405.762	100.049	405.762	99.8961	405.762	99.5478	405.762	99.5789	405.762	99.1985	405.762	99.4334	405.762	99.0579	405.762	99.4636	405.762	99.13	405.762	99.6265	405.762	99.3588	405.762	99.8505	405.762	99.6564	405.762	100.061	405.762	99.9378	405.762	100.201	405.762	100.141	405.762	100.232
435.059	103.713	435.059	103.671	435.059	103.668	435.059	103.541	435.059	103.536	435.059	103.324	435.059	103.314	435.059	103.016	435.059	103.001	435.059	102.619	435.059	102.597	435.059	102.135	435.059	102.103	435.059	101.576	435.059	101.53	435.059	100.965	435.059	100.899	435.059	100.347	435.059	100.254	435.059	99.7916	435.059	99.6662	435.059	99.3856	435.059	99.2293	435.059	99.201	435.059	99.0257	435.059	99.2531	435.059	99.0787	435.059	99.4846	435.059	99.3309	435.059	99.795	435.059	99.6749	435.059	100.084	435.059	100.003	435.059	100.278	435.059	100.238	435.059	100.334
466.553	104.891	466.553	104.858	466.553	104.845	466.553	104.745	466.553	104.718	466.553	104.549	466.553	104.506	466.553	104.263	466.553	104.201	466.553	103.883	466.553	103.797	466.553	103.402	466.553	103.285	466.553	102.822	466.553	102.665	466.553	102.155	466.553	101.946	466.553	101.437	466.553	101.161	466.553	100.736	466.553	100.386	466.553	100.164	466.553	99.7458	466.553	99.8398	466.553	99.3903	466.553	99.8263	466.553	99.4019	466.553	100.073	466.553	99.722	466.553	100.447	466.553	100.19	466.553	100.806	466.553	100.642	466.553	101.045	466.553	100.966	466.553	101.105
500.244	104.9	500.244	104.827	500.244	104.896	500.244	104.679	500.244	104.816	500.244	104.453	500.244	104.653	500.244	104.145	500.244	104.401	500.244	103.748	500.244	104.05	500.244	103.258	500.244	103.59	500.244	102.671	500.244	103.013	500.244	101.994	500.244	102.315	500.244	101.254	500.244	101.511	500.244	100.517	500.244	100.653	500.244	99.8917	500.244	99.8517	500.244	99.517	500.244	99.2804	500.244	99.4804	500.244	99.1002	500.244	99.7422	500.244	99.3249	500.244	100.154	500.244	99.7945	500.244	100.55	500.244	100.298	500.244	100.807	500.244	100.679	500.244	100.857
536.133	105.375	536.133	105.334	536.133	105.318	536.133	105.192	536.133	105.166	536.133	104.95	536.133	104.922	536.133	104.604	536.133	104.587	536.133	104.154	536.133	104.156	536.133	103.593	536.133	103.621	536.133	102.914	536.133	102.964	536.133	102.116	536.133	102.169	536.133	101.212	536.133	101.233	536.133	100.259	536.133	100.191	536.133	99.3939	536.133	99.1716	536.133	98.8395	536.133	98.4395	536.133	98.7872	536.133	98.2884	536.133	99.2061	536.133	98.7446	536.133	99.8517	536.133	99.5092	536.133	100.461	536.133	100.249	536.133	100.865	536.133	100.765	536.133	100.976
574.219	105.809	574.219	105.792	574.219	105.745	574.219	105.691	574.219	105.602	574.219	105.503	574.219	105.382	574.219	105.221	574.219	105.082	574.219	104.835	574.219	104.694	574.219	104.327	574.219	104.206	574.219	103.681	574.219	103.598	574.219	102.879	574.219	102.848	574.219	101.921	574.219	101.944	574.219	100.846	574.219	100.904	574.219	99.7858	574.219	99.824	574.219	99.003	574.219	98.9331	574.219	98.7836	574.219	98.5502	574.219	99.1532	574.219	98.8115	574.219	99.8228	574.219	99.4852	574.219	100.465	574.219	100.212	574.219	100.882	574.219	100.749	574.219	100.983
615.234	105.925	615.234	105.85	615.234	105.92	615.234	105.708	615.234	105.829	615.234	105.511	615.234	105.651	615.234	105.264	615.234	105.386	615.234	104.953	615.234	105.031	615.234	104.545	615.234	104.573	615.234	103.988	615.234	103.986	615.234	103.222	615.234	103.232	615.234	102.189	615.234	102.27	615.234	100.864	615.234	101.074	615.234	99.3394	615.234	99.6945	615.234	98.0228	615.234	98.3897	615.234	97.6604	615.234	97.7296	615.234	98.4502	615.234	98.1289	615.234	99.6758	615.234	99.2036	615.234	100.712	615.234	100.311	615.234	101.323	615.234	101.102	615.234	101.452
659.912	105.793	659.912	105.729	659.912	105.768	659.912	105.587	659.912	105.658	659.912	105.383	659.912	105.471	659.912	105.131	659.912	105.222	659.912	104.828	659.912	104.91	659.912	104.444	659.912	104.521	659.912	103.927	659.912	104.017	659.912	103.207	659.912	103.346	659.912	102.21	659.912	102.446	659.912	100.88	659.912	101.272	659.912	99.2555	659.912	99.8494	659.912	97.6948	659.912	98.4276	659.912	97.0937	659.912	97.6602	659.912	97.9238	659.912	98.095	659.912	99.3565	659.912	99.2843	659.912	100.591	659.912	100.468	659.912	101.348	659.912	101.269	659.912	101.573
706.787	106.035	706.787	105.939	706.787	105.993	706.787	105.718	706.787	105.823	706.787	105.408	706.787	105.554	706.787	105.051	706.787	105.223	706.787	104.685	706.787	104.861	706.787	104.31	706.787	104.474	706.787	103.88	706.787	104.024	706.787	103.307	706.787	103.437	706.787	102.477	706.787	102.612	706.787	101.275	706.787	101.442	706.787	99.6274	706.787	99.8528	706.787	97.6931	706.787	97.9632	706.787	96.3909	706.787	96.5505	706.787	96.9757	706.787	96.8764	706.787	98.6929	706.787	98.4855	706.787	100.236	706.787	100.061	706.787	101.178	706.787	101.083	706.787	101.459
758.057	106.118	758.057	106.01	758.057	106.073	758.057	105.769	758.057	105.873	758.057	105.437	758.057	105.539	758.057	105.059	758.057	105.101	758.057	104.661	758.057	104.592	758.057	104.231	758.057	104.028	758.057	103.708	758.057	103.394	758.057	102.994	758.057	102.634	758.057	101.97	758.057	101.651	758.057	100.508	758.057	100.318	758.057	98.5135	758.057	98.5026	758.057	96.1789	758.057	96.2227	758.057	94.8092	758.057	94.3455	758.057	95.8852	758.057	94.834	758.057	97.9245	758.057	96.9815	758.057	99.5351	758.057	98.9171	758.057	100.441	758.057	100.143	758.057	100.643
812.256	106.46	812.256	106.304	812.256	106.36	812.256	105.918	812.256	106.047	812.256	105.414	812.256	105.631	812.256	104.977	812.256	105.262	812.256	104.782	812.256	105.054	812.256	104.825	812.256	104.987	812.256	104.9	812.256	104.908	812.256	104.734	812.256	104.613	812.256	104.082	812.256	103.911	812.256	102.706	812.256	102.617	812.256	100.294	812.256	100.515	812.256	96.4525	812.256	97.4092	812.256	92.9159	812.256	94.2002	812.256	95.7763	812.256	95.0301	812.256	99.267	812.256	98.1105	812.256	101.302	812.256	100.406	812.256	102.248	812.256	101.771	812.256	102.37
870.85	109.225	870.85	109.062	870.85	109.022	870.85	108.525	870.85	108.478	870.85	107.632	870.85	107.654	870.85	106.495	870.85	106.697	870.85	105.425	870.85	105.888	870.85	104.882	870.85	105.516	870.85	105	870.85	105.573	870.85	105.331	870.85	105.719	870.85	105.33	870.85	105.562	870.85	104.603	870.85	104.788	870.85	102.747	870.85	103.08	870.85	98.9594	870.85	99.9289	870.85	90.8008	870.85	94.6575	870.85	93.4126	870.85	93.9773	870.85	100.069	870.85	99.2958	870.85	103.186	870.85	102.559	870.85	104.622	870.85	104.289	870.85	104.94
933.105	109.736	933.105	109.638	933.105	109.524	933.105	109.212	933.105	108.985	933.105	108.41	933.105	108.087	933.105	107.21	933.105	106.841	933.105	105.737	933.105	105.434	933.105	104.511	933.105	104.393	933.105	104.281	933.105	104.254	933.105	104.914	933.105	104.745	933.105	105.506	933.105	105.112	933.105	105.415	933.105	104.829	933.105	104.24	933.105	103.535	933.105	101.391	933.105	100.698	933.105	94.8559	933.105	94.8919	933.105	82.7281	933.105	89.6637	933.105	97.8854	933.105	97.8485	933.105	102.231	933.105	101.931	933.105	104.099	933.105	103.903	933.105	104.572
999.756	109.586	999.756	109.483	999.756	109.486	999.756	109.155	999.756	109.133	999.756	108.506	999.756	108.426	999.756	107.386	999.756	107.239	999.756	105.638	999.756	105.483	999.756	103.309	999.756	103.321	999.756	101.483	999.756	101.784	999.756	102.074	999.756	102.168	999.756	103.816	999.756	103.406	999.756	104.892	999.756	104.051	999.756	104.771	999.756	103.541	999.756	103.109	999.756	101.413	999.756	98.9734	999.756	96.3098	999.756	88.1756	999.756	76.5021	999.756	94.8849	999.756	95.6424	999.756	100.901	999.756	100.967	999.756	103.308	999.756	103.254	999.756	103.957
1,071.53	108.576	1,071.53	108.515	1,071.53	108.537	1,071.53	108.346	1,071.53	108.357	1,071.53	107.99	1,071.53	107.943	1,071.53	107.282	1,071.53	107.151	1,071.53	105.992	1,071.53	105.786	1,071.53	103.86	1,071.53	103.643	1,071.53	100.861	1,071.53	100.807	1,071.53	98.866	1,071.53	99.1301	1,071.53	100.566	1,071.53	100.589	1,071.53	102.737	1,071.53	102.392	1,071.53	103.572	1,071.53	102.957	1,071.53	102.753	1,071.53	101.924	1,071.53	99.7085	1,071.53	98.6513	1,071.53	92.187	1,071.53	90.3897	1,071.53	91.5897	1,071.53	90.7372	1,071.53	98.8794	1,071.53	98.3677	1,071.53	101.67	1,071.53	101.378	1,071.53	102.341
1,148.44	107.939	1,148.44	107.759	1,148.44	107.944	1,148.44	107.45	1,148.44	107.858	1,148.44	107.139	1,148.44	107.756	1,148.44	106.831	1,148.44	107.537	1,148.44	106.286	1,148.44	106.924	1,148.44	105.102	1,148.44	105.554	1,148.44	102.766	1,148.44	103.006	1,148.44	98.5472	1,148.44	98.9963	1,148.44	94.4982	1,148.44	96.8676	1,148.44	98.6874	1,148.44	100.031	1,148.44	101.997	1,148.44	102.34	1,148.44	102.976	1,148.44	102.724	1,148.44	101.848	1,148.44	101.105	1,148.44	98.3018	1,148.44	96.9172	1,148.44	94.1211	1,148.44	92.3	1,148.44	97.698	1,148.44	97.1853	1,148.44	100.86	1,148.44	100.655	1,148.44	101.752
1,231.2	107.74	1,231.2	107.525	1,231.2	107.554	1,231.2	106.926	1,231.2	107.037	1,231.2	106.064	1,231.2	106.367	1,231.2	105.178	1,231.2	105.782	1,231.2	104.472	1,231.2	105.337	1,231.2	103.845	1,231.2	104.763	1,231.2	102.9	1,231.2	103.634	1,231.2	101.169	1,231.2	101.522	1,231.2	98.2692	1,231.2	98.1532	1,231.2	95.0307	1,231.2	95.5589	1,231.2	95.8415	1,231.2	97.723	1,231.2	98.3012	1,231.2	99.9572	1,231.2	99.1006	1,231.2	100.279	1,231.2	97.7578	1,231.2	98.3773	1,231.2	93.3461	1,231.2	93.0172	1,231.2	78.9592	1,231.2	77.721	1,231.2	88.5122	1,231.2	90.2528	1,231.2	92.4713
1,319.82	105.845	1,319.82	105.635	1,319.82	105.696	1,319.82	105.06	1,319.82	105.202	1,319.82	104.147	1,319.82	104.432	1,319.82	103.015	1,319.82	103.549	1,319.82	101.873	1,319.82	102.73	1,319.82	100.857	1,319.82	101.957	1,319.82	99.8416	1,319.82	100.96	1,319.82	98.516	1,319.82	99.3993	1,319.82	96.7189	1,319.82	97.1821	1,319.82	95.0445	1,319.82	95.326	1,319.82	94.8939	1,319.82	95.6636	1,319.82	95.6622	1,319.82	96.6923	1,319.82	95.4286	1,319.82	96.3357	1,319.82	92.8248	1,319.82	93.3875	1,319.82	84.999	1,319.82	84.0598	1,319.82	87.2148	1,319.82	87.4117	1,319.82	93.7857	1,319.82	94.0443	1,319.82	95.5622
1,414.31	105.11	1,414.31	104.829	1,414.31	105.011	1,414.31	104.18	1,414.31	104.509	1,414.31	103.185	1,414.31	103.61	1,414.31	101.929	1,414.31	102.436	1,414.31	100.573	1,414.31	101.248	1,414.31	99.2704	1,414.31	100.292	1,414.31	98.0403	1,414.31	99.4985	1,414.31	96.7569	1,414.31	98.4814	1,414.31	95.3834	1,414.31	96.8983	1,414.31	94.3426	1,414.31	94.9803	1,414.31	94.2764	1,414.31	94.2474	1,414.31	94.6889	1,414.31	95.1256	1,414.31	94.26	1,414.31	95.4612	1,414.31	91.6591	1,414.31	93.6636	1,414.31	83.2317	1,414.31	87.2096	1,414.31	83.4186	1,414.31	79.2455	1,414.31	91.6162	1,414.31	91.1165	1,414.31	93.4026
1,515.38	104.994	1,515.38	104.758	1,515.38	104.883	1,515.38	104.175	1,515.38	104.423	1,515.38	103.273	1,515.38	103.624	1,515.38	102.127	1,515.38	102.528	1,515.38	100.855	1,515.38	101.255	1,515.38	99.5721	1,515.38	100.007	1,515.38	98.2777	1,515.38	98.9275	1,515.38	96.7941	1,515.38	97.8977	1,515.38	94.9735	1,515.38	96.6445	1,515.38	93.3601	1,515.38	95.2812	1,515.38	93.3788	1,515.38	94.8117	1,515.38	94.4597	1,515.38	95.5415	1,515.38	94.6696	1,515.38	95.9243	1,515.38	92.8077	1,515.38	94.5541	1,515.38	86.8472	1,515.38	89.8361	1,515.38	80.5121	1,515.38	82.595	1,515.38	90.1448	1,515.38	90.1594	1,515.38	92.3761
1,624.51	104.39	1,624.51	104.167	1,624.51	104.259	1,624.51	103.616	1,624.51	103.772	1,624.51	102.763	1,624.51	102.95	1,624.51	101.645	1,624.51	101.834	1,624.51	100.341	1,624.51	100.492	1,624.51	98.988	1,624.51	99.0482	1,624.51	97.6562	1,624.51	97.637	1,624.51	96.2067	1,624.51	96.2482	1,624.51	94.4236	1,624.51	94.6644	1,624.51	92.6176	1,624.51	92.8456	1,624.51	92.1908	1,624.51	91.8165	1,624.51	93.1329	1,624.51	92.5645	1,624.51	93.4236	1,624.51	93.3247	1,624.51	91.7059	1,624.51	92.2259	1,624.51	86.5258	1,624.51	87.5889	1,624.51	83.9994	1,624.51	83.0332	1,624.51	90.1594	1,624.51	89.8614	1,624.51	91.9468
1,740.97	104.383	1,740.97	104.078	1,740.97	104.335	1,740.97	103.466	1,740.97	103.916	1,740.97	102.575	1,740.97	103.143	1,740.97	101.412	1,740.97	102.064	1,740.97	100.004	1,740.97	100.756	1,740.97	98.4521	1,740.97	99.3189	1,740.97	96.8893	1,740.97	97.8417	1,740.97	95.3364	1,740.97	96.3359	1,740.97	93.583	1,740.97	94.7005	1,740.97	91.4364	1,740.97	92.9061	1,740.97	89.6976	1,740.97	91.5219	1,740.97	90.0287	1,740.97	91.407	1,740.97	90.7076	1,740.97	91.5727	1,740.97	89.2343	1,740.97	90.079	1,740.97	82.8603	1,740.97	85.0209	1,740.97	81.7794	1,740.97	83.8881	1,740.97	89.6591	1,740.97	89.9498	1,740.97	91.6598
1,866.21	104.101	1,866.21	103.902	1,866.21	103.939	1,866.21	103.343	1,866.21	103.424	1,866.21	102.468	1,866.21	102.573	1,866.21	101.365	1,866.21	101.429	1,866.21	100.109	1,866.21	100.056	1,866.21	98.7133	1,866.21	98.5061	1,866.21	97.1933	1,866.21	96.8396	1,866.21	95.629	1,866.21	95.1372	1,866.21	94.0713	1,866.21	93.449	1,866.21	92.4428	1,866.21	91.7875	1,866.21	90.9392	1,866.21	90.4598	1,866.21	90.4724	1,866.21	90.1981	1,866.21	90.8772	1,866.21	90.5508	1,866.21	90.3288	1,866.21	89.7799	1,866.21	87.046	1,866.21	85.9508	1,866.21	81.7265	1,866.21	79.1135	1,866.21	86.8946	1,866.21	86.5807	1,866.21	89.1125
2,000.24	104.024	2,000.24	103.789	2,000.24	103.95	2,000.24	103.22	2,000.24	103.542	2,000.24	102.282	2,000.24	102.773	2,000.24	100.988	2,000.24	101.659	2,000.24	99.4329	2,000.24	100.286	2,000.24	97.7998	2,000.24	98.7985	2,000.24	96.2921	2,000.24	97.3197	2,000.24	94.9011	2,000.24	95.8262	2,000.24	93.3242	2,000.24	94.163	2,000.24	91.4012	2,000.24	92.3039	2,000.24	89.8995	2,000.24	90.7341	2,000.24	89.7588	2,000.24	90.2683	2,000.24	89.8682	2,000.24	90.563	2,000.24	88.7359	2,000.24	90.2152	2,000.24	85.6956	2,000.24	87.9904	2,000.24	84.5047	2,000.24	84.628	2,000.24	87.8957	2,000.24	86.9483	2,000.24	89.0589
2,143.8	104.651	2,143.8	104.435	2,143.8	104.459	2,143.8	103.885	2,143.8	103.879	2,143.8	103.11	2,143.8	103	2,143.8	102.138	2,143.8	101.906	2,143.8	100.901	2,143.8	100.613	2,143.8	99.3517	2,143.8	99.105	2,143.8	97.6095	2,143.8	97.4691	2,143.8	95.9878	2,143.8	95.8976	2,143.8	94.6499	2,143.8	94.3861	2,143.8	93.1972	2,143.8	92.5834	2,143.8	91.3018	2,143.8	90.5145	2,143.8	90.2606	2,143.8	89.8941	2,143.8	91.0937	2,143.8	90.9672	2,143.8	91.1309	2,143.8	90.8939	2,143.8	88.1479	2,143.8	87.8203	2,143.8	84.0523	2,143.8	83.899	2,143.8	89.1948	2,143.8	89.091	2,143.8	91.2347
2,297.61	105.347	2,297.61	105.09	2,297.61	105.24	2,297.61	104.491	2,297.61	104.785	2,297.61	103.602	2,297.61	104.047	2,297.61	102.493	2,297.61	103.086	2,297.61	101.2	2,297.61	101.907	2,297.61	99.6799	2,297.61	100.537	2,297.61	97.8862	2,297.61	99.0594	2,297.61	95.9624	2,297.61	97.5068	2,297.61	94.2647	2,297.61	95.8765	2,297.61	92.9045	2,297.61	94.2539	2,297.61	91.3869	2,297.61	92.6599	2,297.61	89.784	2,297.61	91.0243	2,297.61	89.9085	2,297.61	90.3042	2,297.61	91.0053	2,297.61	91.2871	2,297.61	90.118	2,297.61	91.5354	2,297.61	86.0509	2,297.61	89.1303	2,297.61	86.7639	2,297.61	87.0499	2,297.61	88.674
2,462.4	105.585	2,462.4	105.405	2,462.4	105.362	2,462.4	104.861	2,462.4	104.835	2,462.4	104.094	2,462.4	104.103	2,462.4	103.183	2,462.4	103.188	2,462.4	102.123	2,462.4	102.098	2,462.4	100.899	2,462.4	100.829	2,462.4	99.4984	2,462.4	99.3652	2,462.4	97.9166	2,462.4	97.7469	2,462.4	96.2254	2,462.4	96.0993	2,462.4	94.5603	2,462.4	94.5209	2,462.4	92.9638	2,462.4	93.0071	2,462.4	91.705	2,462.4	91.7643	2,462.4	91.7239	2,462.4	91.4518	2,462.4	92.3773	2,462.4	91.7245	2,462.4	91.4772	2,462.4	90.9228	2,462.4	88.6856	2,462.4	88.8358	2,462.4	89.5859	2,462.4	89.8167	2,462.4	91.2553
2,638.92	105.773	2,638.92	105.656	2,638.92	105.773	2,638.92	105.427	2,638.92	105.58	2,638.92	104.987	2,638.92	105.118	2,638.92	104.224	2,638.92	104.381	2,638.92	103.141	2,638.92	103.406	2,638.92	101.799	2,638.92	102.209	2,638.92	100.228	2,638.92	100.773	2,638.92	98.4936	2,638.92	99.0607	2,638.92	96.7646	2,638.92	97.1266	2,638.92	95.2039	2,638.92	95.3179	2,638.92	93.7079	2,638.92	93.9442	2,638.92	92.2165	2,638.92	92.6982	2,638.92	91.7966	2,638.92	91.874	2,638.92	92.6119	2,638.92	92.498	2,638.92	92.2484	2,638.92	92.6054	2,638.92	89.5239	2,638.92	90.0366	2,638.92	89.6565	2,638.92	89.3411	2,638.92	91.3263
2,828.61	105.847	2,828.61	105.867	2,828.61	105.889	2,828.61	105.897	2,828.61	105.9	2,828.61	105.724	2,828.61	105.738	2,828.61	105.164	2,828.61	105.215	2,828.61	104.141	2,828.61	104.199	2,828.61	102.665	2,828.61	102.77	2,828.61	100.851	2,828.61	101.135	2,828.61	98.8862	2,828.61	99.4318	2,828.61	96.9352	2,828.61	97.6606	2,828.61	95.2739	2,828.61	95.8132	2,828.61	94.0366	2,828.61	94.1838	2,828.61	92.6973	2,828.61	93.159	2,828.61	91.4867	2,828.61	92.7718	2,828.61	92.1737	2,828.61	93.2818	2,828.61	92.7699	2,828.61	93.5839	2,828.61	90.5448	2,828.61	91.3666	2,828.61	89.1656	2,828.61	89.0407	2,828.61	90.5922
3,031.49	105.493	3,031.49	105.583	3,031.49	105.544	3,031.49	105.727	3,031.49	105.698	3,031.49	105.691	3,031.49	105.679	3,031.49	105.175	3,031.49	105.196	3,031.49	104.093	3,031.49	104.195	3,031.49	102.6	3,031.49	102.727	3,031.49	100.886	3,031.49	100.937	3,031.49	99.0692	3,031.49	99.0722	3,031.49	97.2123	3,031.49	97.1797	3,031.49	95.4371	3,031.49	95.2495	3,031.49	94.104	3,031.49	93.7778	3,031.49	93.3427	3,031.49	92.9797	3,031.49	92.9029	3,031.49	92.3733	3,031.49	93.1339	3,031.49	92.8932	3,031.49	93.184	3,031.49	93.536	3,031.49	90.9098	3,031.49	91.0695	3,031.49	88.7837	3,031.49	87.9322	3,031.49	90.0006
3,249.02	105.246	3,249.02	105.467	3,249.02	105.357	3,249.02	105.824	3,249.02	105.637	3,249.02	105.91	3,249.02	105.73	3,249.02	105.488	3,249.02	105.321	3,249.02	104.466	3,249.02	104.307	3,249.02	102.811	3,249.02	102.746	3,249.02	100.761	3,249.02	100.786	3,249.02	98.6891	3,249.02	98.6814	3,249.02	96.6203	3,249.02	96.6561	3,249.02	94.6031	3,249.02	94.7159	3,249.02	93.2908	3,249.02	93.0225	3,249.02	92.7289	3,249.02	92.2469	3,249.02	92.0624	3,249.02	92.3092	3,249.02	92.0571	3,249.02	92.7423	3,249.02	92.659	3,249.02	93.1939	3,249.02	90.5098	3,249.02	91.3043	3,249.02	87.7891	3,249.02	87.0546	3,249.02	88.8768
3,481.93	104.253	3,481.93	104.686	3,481.93	104.596	3,481.93	105.38	3,481.93	105.307	3,481.93	105.585	3,481.93	105.6	3,481.93	104.964	3,481.93	105.157	3,481.93	103.604	3,481.93	104	3,481.93	101.775	3,481.93	102.221	3,481.93	99.7615	3,481.93	100.168	3,481.93	97.7176	3,481.93	98.2112	3,481.93	95.7101	3,481.93	96.3471	3,481.93	93.8855	3,481.93	94.4828	3,481.93	92.4477	3,481.93	92.6998	3,481.93	91.6031	3,481.93	91.5278	3,481.93	91.4832	3,481.93	91.1404	3,481.93	92.4756	3,481.93	91.8244	3,481.93	93.2045	3,481.93	93.0684	3,481.93	90.8087	3,481.93	91.5348	3,481.93	86.7123	3,481.93	87.2259	3,481.93	88.2685
3,732.42	103.605	3,732.42	104.17	3,732.42	103.993	3,732.42	104.974	3,732.42	104.844	3,732.42	105.205	3,732.42	105.177	3,732.42	104.676	3,732.42	104.615	3,732.42	103.449	3,732.42	103.353	3,732.42	101.604	3,732.42	101.631	3,732.42	99.5087	3,732.42	99.5959	3,732.42	97.5129	3,732.42	97.5164	3,732.42	95.4893	3,732.42	95.4994	3,732.42	93.2747	3,732.42	93.4336	3,732.42	91.6199	3,732.42	91.4342	3,732.42	91.5612	3,732.42	90.237	3,732.42	91.5292	3,732.42	90.6039	3,732.42	91.2229	3,732.42	91.8223	3,732.42	91.9012	3,732.42	92.4474	3,732.42	89.8203	3,732.42	90.1477	3,732.42	82.8477	3,732.42	83.3162	3,732.42	84.1557
3,999.76	104.486	3,999.76	104.897	3,999.76	104.901	3,999.76	105.544	3,999.76	105.565	3,999.76	105.603	3,999.76	105.658	3,999.76	104.852	3,999.76	105.016	3,999.76	103.434	3,999.76	103.746	3,999.76	101.575	3,999.76	101.897	3,999.76	99.5489	3,999.76	99.7886	3,999.76	97.4104	3,999.76	97.5619	3,999.76	95.2427	3,999.76	95.1612	3,999.76	93.1457	3,999.76	92.9874	3,999.76	90.977	3,999.76	91.3059	3,999.76	89.7886	3,999.76	90.2279	3,999.76	90.3163	3,999.76	89.9461	3,999.76	91.5254	3,999.76	90.934	3,999.76	92.7335	3,999.76	92.5893	3,999.76	91.2617	3,999.76	91.0567	3,999.76	85.1742	3,999.76	82.9695	3,999.76	82.719
4,286.87	105.186	4,286.87	105.588	4,286.87	105.501	4,286.87	106.126	4,286.87	106.064	4,286.87	105.979	4,286.87	106.02	4,286.87	105.013	4,286.87	105.215	4,286.87	103.559	4,286.87	103.872	4,286.87	101.756	4,286.87	102.056	4,286.87	99.6147	4,286.87	100.06	4,286.87	97.3192	4,286.87	97.9356	4,286.87	95.2012	4,286.87	95.773	4,286.87	93.1537	4,286.87	93.7173	4,286.87	90.677	4,286.87	91.1883	4,286.87	89.211	4,286.87	89.2298	4,286.87	89.6911	4,286.87	89.2903	4,286.87	90.3273	4,286.87	89.3944	4,286.87	91.883	4,286.87	91.6685	4,286.87	91.0599	4,286.87	91.7851	4,286.87	85.464	4,286.87	86.1801	4,286.87	83.6134
4,594.48	106.166	4,594.48	106.223	4,594.48	106.259	4,594.48	106.246	4,594.48	106.39	4,594.48	105.856	4,594.48	106.102	4,594.48	105.088	4,594.48	105.308	4,594.48	103.992	4,594.48	104.113	4,594.48	102.454	4,594.48	102.543	4,594.48	100.535	4,594.48	100.734	4,594.48	98.3778	4,594.48	98.4697	4,594.48	96.4057	4,594.48	96.0426	4,594.48	94.4716	4,594.48	93.9667	4,594.48	92.0322	4,594.48	91.8774	4,594.48	90.3047	4,594.48	90.439	4,594.48	89.6244	4,594.48	89.7753	4,594.48	89.4201	4,594.48	88.6557	4,594.48	92.0146	4,594.48	91.1125	4,594.48	91.1724	4,594.48	91.2778	4,594.48	83.9589	4,594.48	84.8126	4,594.48	83.3513
4,924.8	106.671	4,924.8	106.525	4,924.8	106.481	4,924.8	106.107	4,924.8	106.209	4,924.8	105.567	4,924.8	105.797	4,924.8	105.223	4,924.8	105.271	4,924.8	104.6	4,924.8	104.553	4,924.8	103.152	4,924.8	103.287	4,924.8	101.09	4,924.8	101.376	4,924.8	98.5858	4,924.8	98.8433	4,924.8	96.1411	4,924.8	96.2789	4,924.8	94.0559	4,924.8	94.2298	4,924.8	91.9247	4,924.8	92.2438	4,924.8	90.58	4,924.8	90.6649	4,924.8	90.727	4,924.8	90.5233	4,924.8	90.6754	4,924.8	89.9559	4,924.8	92.3013	4,924.8	91.8039	4,924.8	91.5725	4,924.8	92.2115	4,924.8	85.5455	4,924.8	85.6839	4,924.8	83.5247
5,277.83	106.842	5,277.83	106.299	5,277.83	106.298	5,277.83	105.28	5,277.83	105.26	5,277.83	104.769	5,277.83	104.652	5,277.83	104.882	5,277.83	104.74	5,277.83	104.346	5,277.83	104.392	5,277.83	102.783	5,277.83	103.084	5,277.83	100.557	5,277.83	101.061	5,277.83	97.7057	5,277.83	98.2438	5,277.83	94.9325	5,277.83	95.3336	5,277.83	92.8573	5,277.83	93.2228	5,277.83	90.7794	5,277.83	91.3065	5,277.83	89.109	5,277.83	89.4934	5,277.83	89.0542	5,277.83	89.4261	5,277.83	88.0426	5,277.83	88.9508	5,277.83	90.5443	5,277.83	91.4007	5,277.83	91.0368	5,277.83	91.8146	5,277.83	84.8074	5,277.83	85.094	5,277.83	82.992
5,656.49	106.036	5,656.49	105.2	5,656.49	105.234	5,656.49	103.777	5,656.49	103.734	5,656.49	103.612	5,656.49	103.34	5,656.49	104.074	5,656.49	103.708	5,656.49	103.318	5,656.49	103.214	5,656.49	101.571	5,656.49	101.714	5,656.49	99.2457	5,656.49	99.5312	5,656.49	96.2785	5,656.49	96.8607	5,656.49	93.6596	5,656.49	94.171	5,656.49	91.8582	5,656.49	91.9365	5,656.49	89.7808	5,656.49	89.6154	5,656.49	87.7911	5,656.49	86.8922	5,656.49	88.1026	5,656.49	87.4718	5,656.49	86.7907	5,656.49	85.827	5,656.49	89.4029	5,656.49	89.1113	5,656.49	90.3277	5,656.49	90.8723	5,656.49	83.9629	5,656.49	82.9668	5,656.49	82.1547
6,062.99	106.136	6,062.99	105.079	6,062.99	105.101	6,062.99	103.242	6,062.99	103.366	6,062.99	103.074	6,062.99	103.151	6,062.99	103.222	6,062.99	103.248	6,062.99	101.901	6,062.99	102.216	6,062.99	100.207	6,062.99	100.534	6,062.99	98.1347	6,062.99	98.7252	6,062.99	95.4484	6,062.99	96.4168	6,062.99	93.3197	6,062.99	93.2231	6,062.99	91.9125	6,062.99	90.8109	6,062.99	89.593	6,062.99	88.9908	6,062.99	86.0828	6,062.99	84.8061	6,062.99	86.1416	6,062.99	86.3324	6,062.99	82.9081	6,062.99	85.2658	6,062.99	87.8436	6,062.99	84.4544	6,062.99	90.0532	6,062.99	89.4133	6,062.99	82.7027	6,062.99	80.9751	6,062.99	82.1278
6,498.05	106.474	6,498.05	105.552	6,498.05	105.451	6,498.05	104.007	6,498.05	103.902	6,498.05	103.713	6,498.05	103.547	6,498.05	103.215	6,498.05	102.996	6,498.05	101.842	6,498.05	101.82	6,498.05	100.95	6,498.05	101.013	6,498.05	99.1694	6,498.05	100.059	6,498.05	96.6025	6,498.05	97.8413	6,498.05	93.9529	6,498.05	94.2791	6,498.05	92.009	6,498.05	91.6186	6,498.05	89.696	6,498.05	90.8172	6,498.05	84.0818	6,498.05	87.434	6,498.05	85.0245	6,498.05	85.6913	6,498.05	84.4613	6,498.05	87.8265	6,498.05	86.0634	6,498.05	83.6507	6,498.05	89.8607	6,498.05	89.7759	6,498.05	81.9928	6,498.05	79.7289	6,498.05	82.5141
6,964.6	106.275	6,964.6	105.465	6,964.6	105.372	6,964.6	104.151	6,964.6	104.455	6,964.6	103.543	6,964.6	104.055	6,964.6	102.581	6,964.6	102.955	6,964.6	102.121	6,964.6	102.5	6,964.6	101.921	6,964.6	102.297	6,964.6	100.178	6,964.6	101.389	6,964.6	97.6997	6,964.6	99.0424	6,964.6	94.5804	6,964.6	95.0653	6,964.6	92.6033	6,964.6	91.6782	6,964.6	90.7837	6,964.6	91.2523	6,964.6	84.5645	6,964.6	88.9801	6,964.6	84.2177	6,964.6	84.1987	6,964.6	86.0654	6,964.6	89.1375	6,964.6	85.132	6,964.6	84.3551	6,964.6	90.8991	6,964.6	91.4334	6,964.6	82.5331	6,964.6	83.9251	6,964.6	80.5435
7,464.11	104.976	7,464.11	104.451	7,464.11	104.191	7,464.11	103.222	7,464.11	103.589	7,464.11	102.228	7,464.11	102.958	7,464.11	101.638	7,464.11	102.054	7,464.11	102.027	7,464.11	102.248	7,464.11	101.457	7,464.11	101.652	7,464.11	99.3375	7,464.11	100.518	7,464.11	96.6844	7,464.11	97.9368	7,464.11	93.2001	7,464.11	93.8562	7,464.11	90.7222	7,464.11	90.2693	7,464.11	89.3072	7,464.11	89.7599	7,464.11	84.4834	7,464.11	88.9844	7,464.11	82.8372	7,464.11	83.1339	7,464.11	86.9456	7,464.11	88.2108	7,464.11	83.7606	7,464.11	82.2677	7,464.11	90.7723	7,464.11	90.509	7,464.11	83.4666	7,464.11	83.1104	7,464.11	80.3745
8,000.24	103.317	8,000.24	103.005	8,000.24	102.832	8,000.24	101.995	8,000.24	102.596	8,000.24	101.339	8,000.24	102.049	8,000.24	101.372	8,000.24	101.804	8,000.24	101.168	8,000.24	101.431	8,000.24	99.6061	8,000.24	99.6814	8,000.24	97.3568	8,000.24	98.4919	8,000.24	94.6802	8,000.24	95.5168	8,000.24	90.951	8,000.24	91.592	8,000.24	87.5283	8,000.24	87.5523	8,000.24	87.214	8,000.24	86.5742	8,000.24	85.2482	8,000.24	87.044	8,000.24	78.8574	8,000.24	79.7259	8,000.24	85.7815	8,000.24	86.0281	8,000.24	82.2357	8,000.24	77.9345	8,000.24	88.4817	8,000.24	87.5024	8,000.24	82.0938	8,000.24	79.5293	8,000.24	78.8283
8,574.46	104.859	8,574.46	104.738	8,574.46	104.797	8,574.46	104.503	8,574.46	104.964	8,574.46	104.514	8,574.46	104.945	8,574.46	104.19	8,574.46	104.584	8,574.46	102.689	8,574.46	103.054	8,574.46	100.662	8,574.46	101.256	8,574.46	98.8298	8,574.46	100.345	8,574.46	96.5374	8,574.46	97.1786	8,574.46	93.083	8,574.46	94.1021	8,574.46	86.7427	8,574.46	89.8896	8,574.46	85.102	8,574.46	85.9649	8,574.46	86.6023	8,574.46	87.3835	8,574.46	80.8887	8,574.46	79.7237	8,574.46	85.3709	8,574.46	84.749	8,574.46	82.5177	8,574.46	76.9576	8,574.46	86.8476	8,574.46	86.1985	8,574.46	80.833	8,574.46	78.7115	8,574.46	79.5287
9,189.7	103.809	9,189.7	104.147	9,189.7	104.136	9,189.7	104.737	9,189.7	105.178	9,189.7	105.14	9,189.7	105.601	9,189.7	104.449	9,189.7	104.783	9,189.7	102.686	9,189.7	103.123	9,189.7	101.565	9,189.7	102.108	9,189.7	99.7473	9,189.7	101.02	9,189.7	97.4363	9,189.7	97.4867	9,189.7	93.9208	9,189.7	94.6618	9,189.7	87.6719	9,189.7	91.1196	9,189.7	85.799	9,189.7	87.7818	9,189.7	87.1369	9,189.7	87.5887	9,189.7	81.8264	9,189.7	80.8393	9,189.7	83.54	9,189.7	84.7375	9,189.7	81.6496	9,189.7	75.0059	9,189.7	85.5988	9,189.7	85.4163	9,189.7	77.4788	9,189.7	77.4162	9,189.7	77.8712
9,848.88	102.601	9,848.88	103.204	9,848.88	103.37	9,848.88	104.067	9,848.88	104.477	9,848.88	103.956	9,848.88	104.417	9,848.88	102.812	9,848.88	103.313	9,848.88	101.625	9,848.88	102.134	9,848.88	100.123	9,848.88	100.865	9,848.88	97.0898	9,848.88	98.7881	9,848.88	95.2747	9,848.88	94.792	9,848.88	91.6304	9,848.88	91.4655	9,848.88	86.1041	9,848.88	87.556	9,848.88	85.2215	9,848.88	85.0111	9,848.88	84.8194	9,848.88	85.3463	9,848.88	79.6941	9,848.88	73.1598	9,848.88	81.5289	9,848.88	82.6474	9,848.88	79.0656	9,848.88	67.9021	9,848.88	84.0206	9,848.88	83.117	9,848.88	75.574	9,848.88	73.2745	9,848.88	77.4411
10,556.4	105.602	10,556.4	105.61	10,556.4	105.811	10,556.4	105.286	10,556.4	105.847	10,556.4	104.324	10,556.4	105.078	10,556.4	103.173	10,556.4	104.051	10,556.4	101.695	10,556.4	102.547	10,556.4	99.5051	10,556.4	100.347	10,556.4	96.8052	10,556.4	98.1411	10,556.4	94.8597	10,556.4	93.8462	10,556.4	90.0359	10,556.4	91.554	10,556.4	84.478	10,556.4	87.0032	10,556.4	82.9783	10,556.4	81.5401	10,556.4	83.0048	10,556.4	83.0347	10,556.4	72.9698	10,556.4	70.8606	10,556.4	77.4989	10,556.4	80.293	10,556.4	74.3904	10,556.4	60.5354	10,556.4	81.4047	10,556.4	78.0779	10,556.4	77.473	10,556.4	72.6751	10,556.4	77.6452
11,313.7	107.137	11,313.7	106.662	11,313.7	107.05	11,313.7	105.433	11,313.7	106.101	11,313.7	103.282	11,313.7	104.434	11,313.7	100.975	11,313.7	102.31	11,313.7	98.2963	11,313.7	99.28	11,313.7	94.9338	11,313.7	96.4617	11,313.7	91.891	11,313.7	92.8377	11,313.7	88.8863	11,313.7	87.4992	11,313.7	84.3131	11,313.7	83.3246	11,313.7	79.5133	11,313.7	78.0528	11,313.7	75.3136	11,313.7	76.4344	11,313.7	74.3413	11,313.7	73.7361	11,313.7	70.9266	11,313.7	70.0054	11,313.7	68.2541	11,313.7	73.1637	11,313.7	68.7884	11,313.7	63.5994	11,313.7	69.7948	11,313.7	63.1685	11,313.7	67.9639	11,313.7	76.1201	11,313.7	76.8222
12,126	106.647	12,126	106.213	12,126	106.826	12,126	105.092	12,126	105.745	12,126	102.034	12,126	103.352	12,126	98.5788	12,126	100.427	12,126	93.6906	12,126	96.1134	12,126	86.4832	12,126	91.2375	12,126	77.9024	12,126	83.7049	12,126	76.4467	12,126	78.7564	12,126	74.2004	12,126	76.7453	12,126	75.6962	12,126	75.5298	12,126	39.8732	12,126	72.2923	12,126	70.2205	12,126	75.7267	12,126	74.8497	12,126	75.8495	12,126	67.3981	12,126	77.1649	12,126	67.883	12,126	73.9624	12,126	77.012	12,126	79.7136	12,126	71.4779	12,126	77.0246	12,126	79.1307
12,996.1	107.388	12,996.1	106.888	12,996.1	107.562	12,996.1	105.848	12,996.1	106.256	12,996.1	102.793	12,996.1	103.643	12,996.1	99.1402	12,996.1	100.476	12,996.1	93.5505	12,996.1	95.8523	12,996.1	87.1337	12,996.1	90.64	12,996.1	74.0326	12,996.1	84.4094	12,996.1	84.9264	12,996.1	82.8197	12,996.1	77.5538	12,996.1	83.7332	12,996.1	79.1003	12,996.1	81.9853	12,996.1	63.5805	12,996.1	76.2519	12,996.1	72.8505	12,996.1	78.9941	12,996.1	79.5319	12,996.1	77.9098	12,996.1	73.8087	12,996.1	81.117	12,996.1	76.2982	12,996.1	75.5842	12,996.1	80.4661	12,996.1	82.6099	12,996.1	77.7491	12,996.1	77.0392	12,996.1	81.3344
13,928.5	106.733	13,928.5	106.138	13,928.5	106.636	13,928.5	104.98	13,928.5	104.996	13,928.5	101.709	13,928.5	101.795	13,928.5	97.5843	13,928.5	98.1006	13,928.5	91.2805	13,928.5	92.4715	13,928.5	85.2071	13,928.5	86.1443	13,928.5	75.6501	13,928.5	82.0839	13,928.5	85.562	13,928.5	81.2804	13,928.5	78.8211	13,928.5	83.5901	13,928.5	81.909	13,928.5	83.5604	13,928.5	75.7895	13,928.5	79.077	13,928.5	72.2116	13,928.5	79.314	13,928.5	81.0113	13,928.5	78.6232	13,928.5	75.0427	13,928.5	83.0341	13,928.5	77.8541	13,928.5	78.6265	13,928.5	83.639	13,928.5	83.7099	13,928.5	81.3847	13,928.5	79.8581	13,928.5	84.8735
14,928.2	105.604	14,928.2	105.035	14,928.2	105.291	14,928.2	103.895	14,928.2	103.506	14,928.2	100.368	14,928.2	99.6628	14,928.2	95.2827	14,928.2	95.449	14,928.2	88.5382	14,928.2	88.2226	14,928.2	83.5857	14,928.2	82.3946	14,928.2	77.3609	14,928.2	82.5396	14,928.2	86.5993	14,928.2	81.8112	14,928.2	80.0666	14,928.2	84.1334	14,928.2	83.4082	14,928.2	85.3731	14,928.2	79.776	14,928.2	81.9648	14,928.2	72.3707	14,928.2	80.1059	14,928.2	82.3844	14,928.2	80.3011	14,928.2	75.4902	14,928.2	83.7861	14,928.2	79.5026	14,928.2	79.9396	14,928.2	84.2894	14,928.2	83.5694	14,928.2	81.9308	14,928.2	83.0726	14,928.2	86.1562
15,999.8	104.935	15,999.8	104.521	15,999.8	104.035	15,999.8	102.981	15,999.8	102.029	15,999.8	99.1007	15,999.8	97.4629	15,999.8	93.304	15,999.8	92.0767	15,999.8	85.9357	15,999.8	83.3046	15,999.8	80.0649	15,999.8	76.9087	15,999.8	78.5652	15,999.8	84.1133	15,999.8	86.315	15,999.8	81.5928	15,999.8	78.6149	15,999.8	82.286	15,999.8	84.0346	15,999.8	85.1654	15,999.8	82.4119	15,999.8	81.6675	15,999.8	69.7791	15,999.8	80.5108	15,999.8	82.6554	15,999.8	78.5238	15,999.8	74.5064	15,999.8	83.1236	15,999.8	79.8542	15,999.8	79.568	15,999.8	84.0391	15,999.8	82.3613	15,999.8	82.1037	15,999.8	85.396	15,999.8	86.7356
17,148.2	104.337	17,148.2	103.972	17,148.2	102.764	17,148.2	101.49	17,148.2	99.9724	17,148.2	96.7083	17,148.2	93.6377	17,148.2	87.8835	17,148.2	85.8653	17,148.2	78.0529	17,148.2	72.9607	17,148.2	77.7244	17,148.2	70.1975	17,148.2	77.6403	17,148.2	81.8473	17,148.2	84.8806	17,148.2	79.6351	17,148.2	74.3445	17,148.2	76.7576	17,148.2	82.1774	17,148.2	81.1856	17,148.2	80.4987	17,148.2	76.9155	17,148.2	67.6586	17,148.2	77.4907	17,148.2	80.5846	17,148.2	74.3653	17,148.2	73.1559	17,148.2	78.2596	17,148.2	77.8409	17,148.2	79.7787	17,148.2	82.5167	17,148.2	78.8122	17,148.2	81.6605	17,148.2	85.3357	17,148.2	84.4887
18,379.4	104.097	18,379.4	103.692	18,379.4	101.478	18,379.4	99.9293	18,379.4	97.7039	18,379.4	94.1997	18,379.4	89.8981	18,379.4	83.238	18,379.4	80.4877	18,379.4	76.6789	18,379.4	74.8064	18,379.4	75.6108	18,379.4	75.3783	18,379.4	63.9352	18,379.4	76.3537	18,379.4	80.5578	18,379.4	76.971	18,379.4	68.5971	18,379.4	70.151	18,379.4	78.3711	18,379.4	72.9674	18,379.4	79.8931	18,379.4	64.7893	18,379.4	66.3189	18,379.4	75.6931	18,379.4	79.0802	18,379.4	69.8967	18,379.4	72.9901	18,379.4	75.5428	18,379.4	77.6701	18,379.4	77.7103	18,379.4	80.1561	18,379.4	75.1484	18,379.4	79.2574	18,379.4	84.9911	18,379.4	83.7227
19,698.5	102.759	19,698.5	102.358	19,698.5	99.2912	19,698.5	97.5129	19,698.5	94.2472	19,698.5	91.4268	19,698.5	86.184	19,698.5	80.2033	19,698.5	76.8354	19,698.5	70.6263	19,698.5	74.8164	19,698.5	72.4535	19,698.5	70.8081	19,698.5	70.4575	19,698.5	69.792	19,698.5	79.204	19,698.5	78.4984	19,698.5	67.5126	19,698.5	74.3307	19,698.5	76.3502	19,698.5	70.0341	19,698.5	78.5799	19,698.5	65.6221	19,698.5	65.687	19,698.5	76.2864	19,698.5	77.5111	19,698.5	70.618	19,698.5	72.3312	19,698.5	74.687	19,698.5	77.9075	19,698.5	77.2163	19,698.5	77.1845	19,698.5	70.4956	19,698.5	79.3372	19,698.5	83.9252	19,698.5	81.1945
19,999.5	102.669	19,999.5	102.275	19,999.5	98.9612	19,999.5	96.972	19,999.5	94.053	19,999.5	91.157	19,999.5	85.5411	19,999.5	80.9823	19,999.5	75.861	19,999.5	67.7689	19,999.5	77.41	19,999.5	72.503	19,999.5	73.6899	19,999.5	70.6678	19,999.5	70.6934	19,999.5	79.7189	19,999.5	79.591	19,999.5	69.5109	19,999.5	75.3949	19,999.5	75.6504	19,999.5	70.1944	19,999.5	77.7608	19,999.5	64.8504	19,999.5	65.7177	19,999.5	76.5411	19,999.5	76.3577	19,999.5	69.8158	19,999.5	72.9665	19,999.5	74.9117	19,999.5	77.1536	19,999.5	77.1852	19,999.5	77.8096	19,999.5	71.8719	19,999.5	78.7375	19,999.5	83.8459	19,999.5	81.8113
