"SPL Vertical"																																																																							
"On-Axis"		"10°"		"-10°"		"20°"		"-20°"		"30°"		"-30°"		"40°"		"-40°"		"50°"		"-50°"		"60°"		"-60°"		"70°"		"-70°"		"80°"		"-80°"		"90°"		"-90°"		"100°"		"-100°"		"110°"		"-110°"		"120°"		"-120°"		"130°"		"-130°"		"140°"		"-140°"		"150°"		"-150°"		"160°"		"-160°"		"170°"		"-170°"		"180°"	
"Frequency [Hz]"	"Sound Pessure Level [dB]  / [2.83V 1m] "	"Frequency [Hz]"	"Sound Pessure Level [dB]  / [2.83V 1m] "	"Frequency [Hz]"	"Sound Pessure Level [dB]  / [2.83V 1m] "	"Frequency [Hz]"	"Sound Pessure Level [dB]  / [2.83V 1m] "	"Frequency [Hz]"	"Sound Pessure Level [dB]  / [2.83V 1m] "	"Frequency [Hz]"	"Sound Pessure Level [dB]  / [2.83V 1m] "	"Frequency [Hz]"	"Sound Pessure Level [dB]  / [2.83V 1m] "	"Frequency [Hz]"	"Sound Pessure Level [dB]  / [2.83V 1m] "	"Frequency [Hz]"	"Sound Pessure Level [dB]  / [2.83V 1m] "	"Frequency [Hz]"	"Sound Pessure Level [dB]  / [2.83V 1m] "	"Frequency [Hz]"	"Sound Pessure Level [dB]  / [2.83V 1m] "	"Frequency [Hz]"	"Sound Pessure Level [dB]  / [2.83V 1m] "	"Frequency [Hz]"	"Sound Pessure Level [dB]  / [2.83V 1m] "	"Frequency [Hz]"	"Sound Pessure Level [dB]  / [2.83V 1m] "	"Frequency [Hz]"	"Sound Pessure Level [dB]  / [2.83V 1m] "	"Frequency [Hz]"	"Sound Pessure Level [dB]  / [2.83V 1m] "	"Frequency [Hz]"	"Sound Pessure Level [dB]  / [2.83V 1m] "	"Frequency [Hz]"	"Sound Pessure Level [dB]  / [2.83V 1m] "	"Frequency [Hz]"	"Sound Pessure Level [dB]  / [2.83V 1m] "	"Frequency [Hz]"	"Sound Pessure Level [dB]  / [2.83V 1m] "	"Frequency [Hz]"	"Sound Pessure Level [dB]  / [2.83V 1m] "	"Frequency [Hz]"	"Sound Pessure Level [dB]  / [2.83V 1m] "	"Frequency [Hz]"	"Sound Pessure Level [dB]  / [2.83V 1m] "	"Frequency [Hz]"	"Sound Pessure Level [dB]  / [2.83V 1m] "	"Frequency [Hz]"	"Sound Pessure Level [dB]  / [2.83V 1m] "	"Frequency [Hz]"	"Sound Pessure Level [dB]  / [2.83V 1m] "	"Frequency [Hz]"	"Sound Pessure Level [dB]  / [2.83V 1m] "	"Frequency [Hz]"	"Sound Pessure Level [dB]  / [2.83V 1m] "	"Frequency [Hz]"	"Sound Pessure Level [dB]  / [2.83V 1m] "	"Frequency [Hz]"	"Sound Pessure Level [dB]  / [2.83V 1m] "	"Frequency [Hz]"	"Sound Pessure Level [dB]  / [2.83V 1m] "	"Frequency [Hz]"	"Sound Pessure Level [dB]  / [2.83V 1m] "	"Frequency [Hz]"	"Sound Pessure Level [dB]  / [2.83V 1m] "	"Frequency [Hz]"	"Sound Pessure Level [dB]  / [2.83V 1m] "	"Frequency [Hz]"	"Sound Pessure Level [dB]  / [2.83V 1m] "	"Frequency [Hz]"	"Sound Pessure Level [dB]  / [2.83V 1m] "
20.5078	47.6075	20.5078	47.2911	20.5078	48.1217	20.5078	47.2467	20.5078	48.7732	20.5078	47.5302	20.5078	49.5238	20.5078	48.1418	20.5078	50.3517	20.5078	49.0179	20.5078	51.2409	20.5078	50.0622	20.5078	52.1733	20.5078	51.1822	20.5078	53.1254	20.5078	52.3083	20.5078	54.0704	20.5078	53.3946	20.5078	54.9804	20.5078	54.4126	20.5078	55.8303	20.5078	55.3448	20.5078	56.5994	20.5078	56.1804	20.5078	57.2716	20.5078	56.9121	20.5078	57.836	20.5078	57.5349	20.5078	58.2852	20.5078	58.045	20.5078	58.6149	20.5078	58.4395	20.5078	58.8231	20.5078	58.7161	20.5078	58.909	20.5078	58.8731
21.9727	52.7675	21.9727	52.9402	21.9727	52.6414	21.9727	53.2071	21.9727	52.523	21.9727	53.6088	21.9727	52.3955	21.9727	54.164	21.9727	52.2765	21.9727	54.8626	21.9727	52.2297	21.9727	55.671	21.9727	52.3651	21.9727	56.545	21.9727	52.8025	21.9727	57.441	21.9727	53.5964	21.9727	58.3226	21.9727	54.6867	21.9727	59.161	21.9727	55.9371	21.9727	59.9344	21.9727	57.2109	21.9727	60.6254	21.9727	58.4111	21.9727	61.2193	21.9727	59.481	21.9727	61.7034	21.9727	60.3921	21.9727	62.0658	21.9727	61.1321	21.9727	62.2955	21.9727	61.6977	21.9727	62.3824	21.9727	62.091	21.9727	62.317
23.4375	53.366	23.4375	53.3703	23.4375	53.3466	23.4375	53.4691	23.4375	53.2272	23.4375	53.7744	23.4375	52.952	23.4375	54.3568	23.4375	52.5008	23.4375	55.2087	23.4375	51.9188	23.4375	56.2549	23.4375	51.391	23.4375	57.3974	23.4375	51.3141	23.4375	58.5522	23.4375	52.0937	23.4375	59.6613	23.4375	53.6607	23.4375	60.6882	23.4375	55.5588	23.4375	61.6105	23.4375	57.423	23.4375	62.4134	23.4375	59.0922	23.4375	63.0859	23.4375	60.518	23.4375	63.6186	23.4375	61.6966	23.4375	64.0024	23.4375	62.6377	23.4375	64.2281	23.4375	63.3546	23.4375	64.2864	23.4375	63.8604	23.4375	64.1673
25.6348	59.906	25.6348	59.8445	25.6348	59.9766	25.6348	59.8576	25.6348	60.0068	25.6348	60.0145	25.6348	59.9663	25.6348	60.3676	25.6348	59.8477	25.6348	60.9307	25.6348	59.6739	25.6348	61.6736	25.6348	59.5114	25.6348	62.5375	25.6348	59.4803	25.6348	63.4574	25.6348	59.7316	25.6348	64.3776	25.6348	60.3652	25.6348	65.2557	25.6348	61.3488	25.6348	66.0617	25.6348	62.5381	25.6348	66.7736	25.6348	63.7728	25.6348	67.3748	25.6348	64.9364	25.6348	67.8514	25.6348	65.9624	25.6348	68.1917	25.6348	66.8185	25.6348	68.3844	25.6348	67.4919	25.6348	68.4194	25.6348	67.9804	25.6348	68.2875
27.0996	63.5854	27.0996	63.6324	27.0996	63.563	27.0996	63.7456	27.0996	63.5316	27.0996	63.966	27.0996	63.4717	27.0996	64.3229	27.0996	63.383	27.0996	64.8241	27.0996	63.2906	27.0996	65.4534	27.0996	63.2514	27.0996	66.1767	27.0996	63.3525	27.0996	66.9521	27.0996	63.6862	27.0996	67.7393	27.0996	64.3015	27.0996	68.5034	27.0996	65.1667	27.0996	69.2161	27.0996	66.1854	27.0996	69.8545	27.0996	67.246	27.0996	70.4002	27.0996	68.2586	27.0996	70.8375	27.0996	69.164	27.0996	71.1527	27.0996	69.9282	27.0996	71.3337	27.0996	70.5343	27.0996	71.3702	27.0996	70.976	27.0996	71.2533
29.2969	68.6537	29.2969	68.6179	29.2969	68.7017	29.2969	68.6247	29.2969	68.7381	29.2969	68.7078	29.2969	68.7494	29.2969	68.8966	29.2969	68.7339	29.2969	69.2088	29.2969	68.705	29.2969	69.6445	29.2969	68.694	29.2969	70.1864	29.2969	68.7501	29.2969	70.804	29.2969	68.9322	29.2969	71.4615	29.2969	69.2885	29.2969	72.1235	29.2969	69.8321	29.2969	72.7583	29.2969	70.5294	29.2969	73.3392	29.2969	71.3138	29.2969	73.844	29.2969	72.1112	29.2969	74.2539	29.2969	72.8585	29.2969	74.5535	29.2969	73.5108	29.2969	74.7299	29.2969	74.0396	29.2969	74.7725	29.2969	74.4294	29.2969	74.6738
31.4941	72.7581	31.4941	72.7747	31.4941	72.7655	31.4941	72.8371	31.4941	72.7799	31.4941	72.9678	31.4941	72.7918	31.4941	73.1854	31.4941	72.8014	31.4941	73.5002	31.4941	72.8211	31.4941	73.9105	31.4941	72.8757	31.4941	74.4033	31.4941	73.0014	31.4941	74.9562	31.4941	73.2373	31.4941	75.5424	31.4941	73.6119	31.4941	76.1337	31.4941	74.1284	31.4941	76.7037	31.4941	74.7597	31.4941	77.2286	31.4941	75.4563	31.4941	77.6875	31.4941	76.1616	31.4941	78.0624	31.4941	76.8249	31.4941	78.3379	31.4941	77.4073	31.4941	78.5013	31.4941	77.8823	31.4941	78.5424	31.4941	78.2338	31.4941	78.4544
33.6914	76.6382	33.6914	76.6358	33.6914	76.6641	33.6914	76.6741	33.6914	76.7002	33.6914	76.7714	33.6914	76.739	33.6914	76.9435	33.6914	76.7804	33.6914	77.1999	33.6914	76.833	33.6914	77.5418	33.6914	76.9146	33.6914	77.9605	33.6914	77.0503	33.6914	78.439	33.6914	77.2676	33.6914	78.9552	33.6914	77.5877	33.6914	79.4842	33.6914	78.0156	33.6914	80.0016	33.6914	78.5355	33.6914	80.4842	33.6914	79.1133	33.6914	80.9113	33.6914	79.706	33.6914	81.2647	33.6914	80.2709	33.6914	81.5289	33.6914	80.7722	33.6914	81.6912	33.6914	81.1835	33.6914	81.7418	33.6914	81.4875	33.6914	81.6746
35.8887	80.3477	35.8887	80.3534	35.8887	80.3679	35.8887	80.3976	35.8887	80.4042	35.8887	80.4931	35.8887	80.4512	35.8887	80.6513	35.8887	80.5086	35.8887	80.879	35.8887	80.5826	35.8887	81.1771	35.8887	80.6857	35.8887	81.5395	35.8887	80.8352	35.8887	81.954	35.8887	81.0497	35.8887	82.4034	35.8887	81.3431	35.8887	82.8677	35.8887	81.7189	35.8887	83.326	35.8887	82.1658	35.8887	83.7578	35.8887	82.6592	35.8887	84.1437	35.8887	83.166	35.8887	84.4664	35.8887	83.6516	35.8887	84.7107	35.8887	84.085	35.8887	84.8642	35.8887	84.4419	35.8887	84.9175	35.8887	84.7052	35.8887	84.865
38.8184	84.4136	38.8184	84.4152	38.8184	84.4377	38.8184	84.4519	38.8184	84.4802	38.8184	84.5332	38.8184	84.5367	38.8184	84.6676	38.8184	84.6067	38.8184	84.8603	38.8184	84.6938	38.8184	85.1126	38.8184	84.8064	38.8184	85.4205	38.8184	84.9559	38.8184	85.7748	38.8184	85.1546	38.8184	86.1625	38.8184	85.4123	38.8184	86.5671	38.8184	85.7316	38.8184	86.9706	38.8184	86.1055	38.8184	87.3548	38.8184	86.5168	38.8184	87.7016	38.8184	86.9408	38.8184	87.9947	38.8184	87.3499	38.8184	88.2193	38.8184	87.7175	38.8184	88.3636	38.8184	88.0217	38.8184	88.4188	38.8184	88.2458	38.8184	88.3797
41.0156	87.4657	41.0156	87.4886	41.0156	87.4691	41.0156	87.5436	41.0156	87.4941	41.0156	87.6366	41.0156	87.5383	41.0156	87.7728	41.0156	87.6017	41.0156	87.9552	41.0156	87.6877	41.0156	88.1843	41.0156	87.8023	41.0156	88.4568	41.0156	87.9535	41.0156	88.7662	41.0156	88.1496	41.0156	89.1026	41.0156	88.3962	41.0156	89.4533	41.0156	88.6934	41.0156	89.804	41.0156	89.0341	41.0156	90.1394	41.0156	89.4033	41.0156	90.444	41.0156	89.7806	41.0156	90.7029	41.0156	90.143	41.0156	90.9028	41.0156	90.4679	41.0156	91.0324	41.0156	90.7363	41.0156	91.0834	41.0156	90.9336	41.0156	91.0507
43.9453	90.5532	43.9453	90.5519	43.9453	90.5764	43.9453	90.577	43.9453	90.6181	43.9453	90.6335	43.9453	90.6759	43.9453	90.7256	43.9453	90.7498	43.9453	90.8567	43.9453	90.8413	43.9453	91.0282	43.9453	90.9541	43.9453	91.2388	43.9453	91.093	43.9453	91.4846	43.9453	91.2632	43.9453	91.7586	43.9453	91.468	43.9453	92.0512	43.9453	91.7078	43.9453	92.3505	43.9453	91.9779	43.9453	92.643	43.9453	92.2679	43.9453	92.9147	43.9453	92.5632	43.9453	93.1517	43.9453	92.8461	43.9453	93.3412	43.9453	93.0987	43.9453	93.4723	43.9453	93.3047	43.9453	93.5367	43.9453	93.4513	43.9453	93.5299
47.6074	93.4616	47.6074	93.4583	47.6074	93.4863	47.6074	93.4796	47.6074	93.5302	47.6074	93.5284	47.6074	93.5915	47.6074	93.6075	47.6074	93.6697	47.6074	93.7191	47.6074	93.7654	47.6074	93.8638	47.6074	93.8802	47.6074	94.0409	47.6074	94.0163	47.6074	94.2474	47.6074	94.1762	47.6074	94.4782	47.6074	94.3611	47.6074	94.7261	47.6074	94.57	47.6074	94.9817	47.6074	94.799	47.6074	95.234	47.6074	95.0403	47.6074	95.4713	47.6074	95.2827	47.6074	95.6813	47.6074	95.5127	47.6074	95.8526	47.6074	95.7161	47.6074	95.9753	47.6074	95.8797	47.6074	96.0418	47.6074	95.9927	47.6074	96.0479
50.5371	95.4434	50.5371	95.4372	50.5371	95.4702	50.5371	95.4537	50.5371	95.5159	50.5371	95.495	50.5371	95.5793	50.5371	95.5627	50.5371	95.6595	50.5371	95.6583	50.5371	95.7565	50.5371	95.7822	50.5371	95.8707	50.5371	95.9337	50.5371	96.0028	50.5371	96.1107	50.5371	96.1535	50.5371	96.3092	50.5371	96.3228	50.5371	96.5237	50.5371	96.509	50.5371	96.7466	50.5371	96.7084	50.5371	96.9688	50.5371	96.9146	50.5371	97.1802	50.5371	97.1186	50.5371	97.37	50.5371	97.3097	50.5371	97.528	50.5371	97.4762	50.5371	97.6451	50.5371	97.6075	50.5371	97.714	50.5371	97.6943	50.5371	97.7308
54.1992	97.4858	54.1992	97.4759	54.1992	97.5152	54.1992	97.4866	54.1992	97.563	54.1992	97.5191	54.1992	97.6281	54.1992	97.5742	54.1992	97.7095	54.1992	97.6523	54.1992	97.8064	54.1992	97.7537	54.1992	97.9181	54.1992	97.8775	54.1992	98.0437	54.1992	98.0223	54.1992	98.1824	54.1992	98.1852	54.1992	98.333	54.1992	98.3622	54.1992	98.493	54.1992	98.5478	54.1992	98.6592	54.1992	98.7349	54.1992	98.8263	54.1992	98.9155	54.1992	98.9877	54.1992	99.0807	54.1992	99.1354	54.1992	99.2217	54.1992	99.2608	54.1992	99.3307	54.1992	99.3558	54.1992	99.4011	54.1992	99.4134	54.1992	99.4291
58.5938	99.2926	58.5938	99.278	58.5938	99.3253	58.5938	99.2818	58.5938	99.3754	58.5938	99.3044	58.5938	99.4419	58.5938	99.3458	58.5938	99.5237	58.5938	99.4059	58.5938	99.6192	58.5938	99.4843	58.5938	99.7268	58.5938	99.5805	58.5938	99.8446	58.5938	99.6934	58.5938	99.9705	58.5938	99.8213	58.5938	100.102	58.5938	99.9615	58.5938	100.237	58.5938	100.11	58.5938	100.371	58.5938	100.263	58.5938	100.501	58.5938	100.413	58.5938	100.622	58.5938	100.555	58.5938	100.728	58.5938	100.68	58.5938	100.813	58.5938	100.782	58.5938	100.872	58.5938	100.854	58.5938	100.9	58.5938	100.895
62.2559	100.449	62.2559	100.431	62.2559	100.484	62.2559	100.431	62.2559	100.535	62.2559	100.447	62.2559	100.603	62.2559	100.479	62.2559	100.685	62.2559	100.528	62.2559	100.78	62.2559	100.592	62.2559	100.886	62.2559	100.67	62.2559	100.999	62.2559	100.763	62.2559	101.118	62.2559	100.868	62.2559	101.239	62.2559	100.984	62.2559	101.359	62.2559	101.108	62.2559	101.474	62.2559	101.238	62.2559	101.581	62.2559	101.369	62.2559	101.676	62.2559	101.494	62.2559	101.755	62.2559	101.609	62.2559	101.814	62.2559	101.707	62.2559	101.848	62.2559	101.783	62.2559	101.855	62.2559	101.833
66.6504	101.236	66.6504	101.215	66.6504	101.272	66.6504	101.209	66.6504	101.325	66.6504	101.218	66.6504	101.393	66.6504	101.241	66.6504	101.474	66.6504	101.277	66.6504	101.567	66.6504	101.324	66.6504	101.669	66.6504	101.383	66.6504	101.776	66.6504	101.452	66.6504	101.886	66.6504	101.531	66.6504	101.993	66.6504	101.62	66.6504	102.095	66.6504	101.716	66.6504	102.188	66.6504	101.819	66.6504	102.269	66.6504	101.925	66.6504	102.334	66.6504	102.03	66.6504	102.382	66.6504	102.131	66.6504	102.41	66.6504	102.223	66.6504	102.416	66.6504	102.301	66.6504	102.4	66.6504	102.361
71.7773	101.436	71.7773	101.413	71.7773	101.475	71.7773	101.403	71.7773	101.528	71.7773	101.407	71.7773	101.596	71.7773	101.422	71.7773	101.676	71.7773	101.448	71.7773	101.767	71.7773	101.482	71.7773	101.864	71.7773	101.524	71.7773	101.965	71.7773	101.573	71.7773	102.064	71.7773	101.63	71.7773	102.159	71.7773	101.693	71.7773	102.243	71.7773	101.764	71.7773	102.315	71.7773	101.84	71.7773	102.371	71.7773	101.922	71.7773	102.41	71.7773	102.008	71.7773	102.429	71.7773	102.094	71.7773	102.43	71.7773	102.177	71.7773	102.411	71.7773	102.254	71.7773	102.374	71.7773	102.321
76.9043	101.347	76.9043	101.319	76.9043	101.389	76.9043	101.303	76.9043	101.444	76.9043	101.298	76.9043	101.513	76.9043	101.304	76.9043	101.592	76.9043	101.317	76.9043	101.679	76.9043	101.337	76.9043	101.772	76.9043	101.363	76.9043	101.864	76.9043	101.394	76.9043	101.953	76.9043	101.43	76.9043	102.034	76.9043	101.471	76.9043	102.102	76.9043	101.518	76.9043	102.154	76.9043	101.573	76.9043	102.188	76.9043	101.635	76.9043	102.202	76.9043	101.704	76.9043	102.197	76.9043	101.779	76.9043	102.173	76.9043	101.857	76.9043	102.132	76.9043	101.935	76.9043	102.076	76.9043	102.009
82.7637	101.632	82.7637	101.597	82.7637	101.679	82.7637	101.572	82.7637	101.737	82.7637	101.556	82.7637	101.805	82.7637	101.548	82.7637	101.883	82.7637	101.544	82.7637	101.966	82.7637	101.545	82.7637	102.052	82.7637	101.549	82.7637	102.136	82.7637	101.555	82.7637	102.213	82.7637	101.566	82.7637	102.279	82.7637	101.581	82.7637	102.329	82.7637	101.603	82.7637	102.361	82.7637	101.633	82.7637	102.371	82.7637	101.675	82.7637	102.359	82.7637	101.729	82.7637	102.326	82.7637	101.794	82.7637	102.274	82.7637	101.87	82.7637	102.206	82.7637	101.954	82.7637	102.127	82.7637	102.041
88.623	101.616	88.623	101.579	88.623	101.665	88.623	101.554	88.623	101.726	88.623	101.537	88.623	101.799	88.623	101.529	88.623	101.881	88.623	101.526	88.623	101.97	88.623	101.527	88.623	102.061	88.623	101.532	88.623	102.15	88.623	101.538	88.623	102.233	88.623	101.549	88.623	102.303	88.623	101.563	88.623	102.357	88.623	101.585	88.623	102.391	88.623	101.616	88.623	102.403	88.623	101.658	88.623	102.39	88.623	101.714	88.623	102.355	88.623	101.782	88.623	102.298	88.623	101.863	88.623	102.225	88.623	101.952	88.623	102.139	88.623	102.046
94.4824	101.806	94.4824	101.77	94.4824	101.852	94.4824	101.744	94.4824	101.909	94.4824	101.725	94.4824	101.977	94.4824	101.712	94.4824	102.053	94.4824	101.703	94.4824	102.134	94.4824	101.696	94.4824	102.218	94.4824	101.69	94.4824	102.299	94.4824	101.685	94.4824	102.373	94.4824	101.681	94.4824	102.435	94.4824	101.681	94.4824	102.479	94.4824	101.688	94.4824	102.504	94.4824	101.704	94.4824	102.505	94.4824	101.733	94.4824	102.482	94.4824	101.776	94.4824	102.436	94.4824	101.836	94.4824	102.369	94.4824	101.911	94.4824	102.286	94.4824	101.998	94.4824	102.192	94.4824	102.094
101.807	101.919	101.807	101.892	101.807	101.956	101.807	101.874	101.807	102.005	101.807	101.864	101.807	102.064	101.807	101.858	101.807	102.133	101.807	101.853	101.807	102.207	101.807	101.848	101.807	102.284	101.807	101.842	101.807	102.359	101.807	101.832	101.807	102.427	101.807	101.822	101.807	102.482	101.807	101.812	101.807	102.521	101.807	101.806	101.807	102.539	101.807	101.808	101.807	102.535	101.807	101.82	101.807	102.507	101.807	101.848	101.807	102.456	101.807	101.892	101.807	102.387	101.807	101.953	101.807	102.303	101.807	102.03	101.807	102.211	101.807	102.118
109.131	101.801	109.131	101.776	109.131	101.839	109.131	101.762	109.131	101.89	109.131	101.757	109.131	101.952	109.131	101.758	109.131	102.024	109.131	101.761	109.131	102.103	109.131	101.765	109.131	102.183	109.131	101.765	109.131	102.26	109.131	101.762	109.131	102.33	109.131	101.756	109.131	102.386	109.131	101.748	109.131	102.424	109.131	101.741	109.131	102.442	109.131	101.739	109.131	102.436	109.131	101.746	109.131	102.406	109.131	101.767	109.131	102.354	109.131	101.805	109.131	102.282	109.131	101.86	109.131	102.198	109.131	101.931	109.131	102.106	109.131	102.015
116.455	101.825	116.455	101.789	116.455	101.87	116.455	101.764	116.455	101.926	116.455	101.746	116.455	101.99	116.455	101.735	116.455	102.059	116.455	101.725	116.455	102.13	116.455	101.716	116.455	102.2	116.455	101.703	116.455	102.263	116.455	101.687	116.455	102.316	116.455	101.668	116.455	102.353	116.455	101.646	116.455	102.372	116.455	101.626	116.455	102.37	116.455	101.611	116.455	102.344	116.455	101.606	116.455	102.295	116.455	101.616	116.455	102.226	116.455	101.645	116.455	102.14	116.455	101.693	116.455	102.043	116.455	101.762	116.455	101.943	116.455	101.847
125.244	102.002	125.244	101.954	125.244	102.058	125.244	101.913	125.244	102.12	125.244	101.879	125.244	102.187	125.244	101.85	125.244	102.255	125.244	101.823	125.244	102.321	125.244	101.795	125.244	102.38	125.244	101.766	125.244	102.43	125.244	101.733	125.244	102.467	125.244	101.698	125.244	102.486	125.244	101.661	125.244	102.485	125.244	101.627	125.244	102.461	125.244	101.6	125.244	102.414	125.244	101.584	125.244	102.345	125.244	101.586	125.244	102.255	125.244	101.609	125.244	102.151	125.244	101.656	125.244	102.037	125.244	101.727	125.244	101.924	125.244	101.818
134.033	102.159	134.033	102.102	134.033	102.222	134.033	102.05	134.033	102.289	134.033	102.004	134.033	102.357	134.033	101.963	134.033	102.423	134.033	101.923	134.033	102.485	134.033	101.882	134.033	102.538	134.033	101.84	134.033	102.58	134.033	101.796	134.033	102.607	134.033	101.75	134.033	102.617	134.033	101.705	134.033	102.607	134.033	101.665	134.033	102.576	134.033	101.634	134.033	102.521	134.033	101.617	134.033	102.445	134.033	101.621	134.033	102.349	134.033	101.649	134.033	102.237	134.033	101.702	134.033	102.117	134.033	101.78	134.033	101.995	134.033	101.88
143.555	102.392	143.555	102.324	143.555	102.462	143.555	102.26	143.555	102.531	143.555	102.198	143.555	102.598	143.555	102.139	143.555	102.659	143.555	102.08	143.555	102.712	143.555	102.021	143.555	102.752	143.555	101.96	143.555	102.779	143.555	101.897	143.555	102.79	143.555	101.834	143.555	102.782	143.555	101.773	143.555	102.755	143.555	101.721	143.555	102.707	143.555	101.681	143.555	102.638	143.555	101.66	143.555	102.549	143.555	101.662	143.555	102.441	143.555	101.691	143.555	102.319	143.555	101.748	143.555	102.19	143.555	101.832	143.555	102.06	143.555	101.938
153.809	102.461	153.809	102.393	153.809	102.531	153.809	102.33	153.809	102.601	153.809	102.271	153.809	102.668	153.809	102.216	153.809	102.728	153.809	102.161	153.809	102.778	153.809	102.107	153.809	102.816	153.809	102.05	153.809	102.839	153.809	101.991	153.809	102.844	153.809	101.932	153.809	102.833	153.809	101.877	153.809	102.803	153.809	101.829	153.809	102.754	153.809	101.794	153.809	102.687	153.809	101.778	153.809	102.604	153.809	101.784	153.809	102.505	153.809	101.815	153.809	102.395	153.809	101.871	153.809	102.278	153.809	101.951	153.809	102.16	153.809	102.049
164.795	102.571	164.795	102.49	164.795	102.651	164.795	102.41	164.795	102.728	164.795	102.334	164.795	102.796	164.795	102.26	164.795	102.853	164.795	102.188	164.795	102.895	164.795	102.117	164.795	102.92	164.795	102.046	164.795	102.928	164.795	101.974	164.795	102.917	164.795	101.905	164.795	102.887	164.795	101.841	164.795	102.84	164.795	101.786	164.795	102.774	164.795	101.747	164.795	102.691	164.795	101.727	164.795	102.593	164.795	101.731	164.795	102.482	164.795	101.761	164.795	102.361	164.795	101.816	164.795	102.235	164.795	101.896	164.795	102.112	164.795	101.996
176.514	102.665	176.514	102.572	176.514	102.753	176.514	102.477	176.514	102.831	176.514	102.382	176.514	102.896	176.514	102.287	176.514	102.944	176.514	102.194	176.514	102.973	176.514	102.101	176.514	102.982	176.514	102.01	176.514	102.971	176.514	101.921	176.514	102.94	176.514	101.838	176.514	102.892	176.514	101.765	176.514	102.828	176.514	101.707	176.514	102.75	176.514	101.669	176.514	102.659	176.514	101.654	176.514	102.557	176.514	101.666	176.514	102.444	176.514	101.704	176.514	102.324	176.514	101.768	176.514	102.2	176.514	101.855	176.514	102.076	176.514	101.959
189.697	102.612	189.697	102.519	189.697	102.7	189.697	102.424	189.697	102.778	189.697	102.33	189.697	102.841	189.697	102.237	189.697	102.885	189.697	102.144	189.697	102.907	189.697	102.05	189.697	102.905	189.697	101.955	189.697	102.88	189.697	101.86	189.697	102.833	189.697	101.77	189.697	102.768	189.697	101.69	189.697	102.69	189.697	101.627	189.697	102.601	189.697	101.586	189.697	102.506	189.697	101.573	189.697	102.407	189.697	101.589	189.697	102.304	189.697	101.632	189.697	102.199	189.697	101.698	189.697	102.091	189.697	101.783	189.697	101.984	189.697	101.88
202.881	102.587	202.881	102.48	202.881	102.686	202.881	102.37	202.881	102.77	202.881	102.262	202.881	102.834	202.881	102.158	202.881	102.874	202.881	102.057	202.881	102.885	202.881	101.961	202.881	102.869	202.881	101.869	202.881	102.825	202.881	101.782	202.881	102.759	202.881	101.705	202.881	102.675	202.881	101.641	202.881	102.581	202.881	101.596	202.881	102.482	202.881	101.574	202.881	102.383	202.881	101.576	202.881	102.287	202.881	101.602	202.881	102.195	202.881	101.647	202.881	102.106	202.881	101.708	202.881	102.021	202.881	101.779	202.881	101.938	202.881	101.857
217.529	102.579	217.529	102.462	217.529	102.685	217.529	102.34	217.529	102.774	217.529	102.217	217.529	102.838	217.529	102.096	217.529	102.873	217.529	101.977	217.529	102.877	217.529	101.863	217.529	102.848	217.529	101.753	217.529	102.789	217.529	101.653	217.529	102.705	217.529	101.567	217.529	102.602	217.529	101.502	217.529	102.489	217.529	101.463	217.529	102.373	217.529	101.455	217.529	102.261	217.529	101.475	217.529	102.159	217.529	101.519	217.529	102.069	217.529	101.58	217.529	101.991	217.529	101.649	217.529	101.92	217.529	101.719	217.529	101.854	217.529	101.788
232.91	102.509	232.91	102.382	232.91	102.622	232.91	102.249	232.91	102.711	232.91	102.115	232.91	102.768	232.91	101.983	232.91	102.787	232.91	101.855	232.91	102.766	232.91	101.729	232.91	102.704	232.91	101.608	232.91	102.605	232.91	101.496	232.91	102.478	232.91	101.399	232.91	102.333	232.91	101.325	232.91	102.182	232.91	101.283	232.91	102.037	232.91	101.275	232.91	101.91	232.91	101.299	232.91	101.805	232.91	101.345	232.91	101.726	232.91	101.404	232.91	101.668	232.91	101.463	232.91	101.627	232.91	101.516	232.91	101.593	232.91	101.558
249.756	102.617	249.756	102.419	249.756	102.787	249.756	102.207	249.756	102.917	249.756	101.992	249.756	102.998	249.756	101.784	249.756	103.024	249.756	101.587	249.756	102.991	249.756	101.404	249.756	102.902	249.756	101.236	249.756	102.761	249.756	101.089	249.756	102.577	249.756	100.967	249.756	102.36	249.756	100.877	249.756	102.127	249.756	100.826	249.756	101.892	249.756	100.813	249.756	101.671	249.756	100.833	249.756	101.478	249.756	100.875	249.756	101.322	249.756	100.924	249.756	101.206	249.756	100.971	249.756	101.127	249.756	101.009	249.756	101.076	249.756	101.041
268.066	102.669	268.066	102.453	268.066	102.844	268.066	102.207	268.066	102.969	268.066	101.941	268.066	103.037	268.066	101.667	268.066	103.047	268.066	101.394	268.066	102.997	268.066	101.13	268.066	102.892	268.066	100.883	268.066	102.737	268.066	100.662	268.066	102.541	268.066	100.479	268.066	102.315	268.066	100.345	268.066	102.072	268.066	100.268	268.066	101.824	268.066	100.246	268.066	101.584	268.066	100.272	268.066	101.361	268.066	100.33	268.066	101.161	268.066	100.404	268.066	100.989	268.066	100.482	268.066	100.848	268.066	100.56	268.066	100.733	268.066	100.641
287.109	102.752	287.109	102.595	287.109	102.872	287.109	102.409	287.109	102.948	287.109	102.197	287.109	102.973	287.109	101.964	287.109	102.944	287.109	101.709	287.109	102.861	287.109	101.437	287.109	102.726	287.109	101.156	287.109	102.549	287.109	100.88	287.109	102.342	287.109	100.629	287.109	102.123	287.109	100.43	287.109	101.908	287.109	100.3	287.109	101.711	287.109	100.249	287.109	101.541	287.109	100.27	287.109	101.396	287.109	100.346	287.109	101.27	287.109	100.455	287.109	101.154	287.109	100.577	287.109	101.043	287.109	100.699	287.109	100.931	287.109	100.817
307.617	102.696	307.617	102.488	307.617	102.869	307.617	102.263	307.617	102.99	307.617	102.035	307.617	103.048	307.617	101.813	307.617	103.034	307.617	101.597	307.617	102.946	307.617	101.384	307.617	102.789	307.617	101.171	307.617	102.568	307.617	100.964	307.617	102.3	307.617	100.775	307.617	102.004	307.617	100.624	307.617	101.706	307.617	100.53	307.617	101.435	307.617	100.504	307.617	101.215	307.617	100.543	307.617	101.061	307.617	100.629	307.617	100.974	307.617	100.734	307.617	100.941	307.617	100.832	307.617	100.94	307.617	100.903	307.617	100.948	307.617	100.94
329.59	102.735	329.59	102.485	329.59	102.929	329.59	102.198	329.59	103.051	329.59	101.895	329.59	103.093	329.59	101.592	329.59	103.05	329.59	101.298	329.59	102.924	329.59	101.016	329.59	102.722	329.59	100.748	329.59	102.455	329.59	100.501	329.59	102.139	329.59	100.288	329.59	101.8	329.59	100.129	329.59	101.463	329.59	100.04	329.59	101.157	329.59	100.027	329.59	100.903	329.59	100.08	329.59	100.709	329.59	100.172	329.59	100.575	329.59	100.273	329.59	100.494	329.59	100.356	329.59	100.455	329.59	100.409	329.59	100.441	329.59	100.433
353.76	102.939	353.76	102.63	353.76	103.161	353.76	102.253	353.76	103.285	353.76	101.833	353.76	103.305	353.76	101.395	353.76	103.22	353.76	100.966	353.76	103.033	353.76	100.565	353.76	102.752	353.76	100.211	353.76	102.389	353.76	99.9211	353.76	101.967	353.76	99.712	353.76	101.517	353.76	99.5984	353.76	101.084	353.76	99.5836	353.76	100.713	353.76	99.6546	353.76	100.436	353.76	99.7817	353.76	100.258	353.76	99.9269	353.76	100.166	353.76	100.055	353.76	100.133	353.76	100.142	353.76	100.138	353.76	100.181	353.76	100.16	353.76	100.182
378.662	103.405	378.662	103.146	378.662	103.583	378.662	102.818	378.662	103.672	378.662	102.434	378.662	103.667	378.662	102.008	378.662	103.567	378.662	101.553	378.662	103.371	378.662	101.082	378.662	103.08	378.662	100.614	378.662	102.7	378.662	100.179	378.662	102.241	378.662	99.8196	378.662	101.73	378.662	99.5815	378.662	101.21	378.662	99.4949	378.662	100.739	378.662	99.5569	378.662	100.378	378.662	99.7291	378.662	100.164	378.662	99.9526	378.662	100.097	378.662	100.168	378.662	100.141	378.662	100.33	378.662	100.242	378.662	100.414	378.662	100.348	378.662	100.415
405.762	103.321	405.762	103.044	405.762	103.517	405.762	102.698	405.762	103.621	405.762	102.297	405.762	103.627	405.762	101.854	405.762	103.532	405.762	101.376	405.762	103.333	405.762	100.875	405.762	103.029	405.762	100.368	405.762	102.623	405.762	99.8893	405.762	102.124	405.762	99.494	405.762	101.559	405.762	99.2427	405.762	100.975	405.762	99.1763	405.762	100.437	405.762	99.2891	405.762	100.017	405.762	99.5264	405.762	99.7662	405.762	99.8087	405.762	99.6931	405.762	100.061	405.762	99.7636	405.762	100.228	405.762	99.9191	405.762	100.285	405.762	100.095	405.762	100.232
435.059	103.713	435.059	103.377	435.059	103.943	435.059	102.946	435.059	104.064	435.059	102.432	435.059	104.078	435.059	101.855	435.059	103.987	435.059	101.234	435.059	103.798	435.059	100.592	435.059	103.516	435.059	99.9637	435.059	103.151	435.059	99.4055	435.059	102.721	435.059	98.9931	435.059	102.25	435.059	98.7993	435.059	101.77	435.059	98.8529	435.059	101.313	435.059	99.1124	435.059	100.907	435.059	99.4841	435.059	100.57	435.059	99.8637	435.059	100.32	435.059	100.168	435.059	100.179	435.059	100.349	435.059	100.157	435.059	100.394	435.059	100.229	435.059	100.334
466.553	104.891	466.553	104.706	466.553	104.99	466.553	104.439	466.553	104.998	466.553	104.085	466.553	104.905	466.553	103.631	466.553	104.708	466.553	103.057	466.553	104.402	466.553	102.348	466.553	103.986	466.553	101.505	466.553	103.464	466.553	100.569	466.553	102.859	466.553	99.6537	466.553	102.215	466.553	98.9518	466.553	101.605	466.553	98.6701	466.553	101.116	466.553	98.866	466.553	100.809	466.553	99.3853	466.553	100.683	466.553	99.9977	466.553	100.691	466.553	100.531	466.553	100.777	466.553	100.898	466.553	100.899	466.553	101.081	466.553	101.025	466.553	101.105
500.244	104.9	500.244	104.67	500.244	105.068	500.244	104.417	500.244	105.144	500.244	104.166	500.244	105.109	500.244	103.909	500.244	104.955	500.244	103.606	500.244	104.68	500.244	103.201	500.244	104.283	500.244	102.645	500.244	103.764	500.244	101.919	500.244	103.13	500.244	101.05	500.244	102.406	500.244	100.144	500.244	101.648	500.244	99.3934	500.244	100.947	500.244	99.0234	500.244	100.413	500.244	99.1225	500.244	100.126	500.244	99.5548	500.244	100.096	500.244	100.086	500.244	100.259	500.244	100.531	500.244	100.509	500.244	100.796	500.244	100.74	500.244	100.857
536.133	105.375	536.133	105.149	536.133	105.45	536.133	104.777	536.133	105.378	536.133	104.287	536.133	105.166	536.133	103.734	536.133	104.816	536.133	103.179	536.133	104.335	536.133	102.667	536.133	103.74	536.133	102.197	536.133	103.071	536.133	101.733	536.133	102.404	536.133	101.248	536.133	101.84	536.133	100.757	536.133	101.447	536.133	100.342	536.133	101.203	536.133	100.125	536.133	101.001	536.133	100.184	536.133	100.748	536.133	100.472	536.133	100.457	536.133	100.834	536.133	100.272	536.133	101.099	536.133	100.343	536.133	101.156	536.133	100.642	536.133	100.976
574.219	105.809	574.219	105.585	574.219	105.924	574.219	105.256	574.219	105.923	574.219	104.832	574.219	105.795	574.219	104.336	574.219	105.522	574.219	103.803	574.219	105.089	574.219	103.261	574.219	104.488	574.219	102.719	574.219	103.722	574.219	102.165	574.219	102.82	574.219	101.592	574.219	101.861	574.219	101.028	574.219	100.991	574.219	100.551	574.219	100.392	574.219	100.27	574.219	100.149	574.219	100.249	574.219	100.182	574.219	100.442	574.219	100.333	574.219	100.716	574.219	100.505	574.219	100.937	574.219	100.677	574.219	101.028	574.219	100.847	574.219	100.983
615.234	105.925	615.234	105.552	615.234	106.157	615.234	105.086	615.234	106.209	615.234	104.574	615.234	106.061	615.234	104.048	615.234	105.705	615.234	103.521	615.234	105.145	615.234	102.978	615.234	104.393	615.234	102.389	615.234	103.469	615.234	101.716	615.234	102.425	615.234	100.95	615.234	101.361	615.234	100.144	615.234	100.449	615.234	99.4673	615.234	99.8635	615.234	99.1722	615.234	99.6616	615.234	99.4005	615.234	99.7564	615.234	100.005	615.234	100.029	615.234	100.686	615.234	100.405	615.234	101.21	615.234	100.825	615.234	101.469	615.234	101.208	615.234	101.452
659.912	105.793	659.912	105.458	659.912	105.986	659.912	105.012	659.912	106.008	659.912	104.475	659.912	105.844	659.912	103.86	659.912	105.499	659.912	103.197	659.912	104.987	659.912	102.536	659.912	104.325	659.912	101.924	659.912	103.525	659.912	101.357	659.912	102.602	659.912	100.787	659.912	101.586	659.912	100.175	659.912	100.549	659.912	99.5799	659.912	99.6391	659.912	99.1955	659.912	99.0864	659.912	99.2512	659.912	99.0765	659.912	99.7624	659.912	99.5524	659.912	100.478	659.912	100.245	659.912	101.11	659.912	100.896	659.912	101.492	659.912	101.362	659.912	101.573
706.787	106.035	706.787	105.703	706.787	106.11	706.787	105.131	706.787	105.952	706.787	104.373	706.787	105.608	706.787	103.511	706.787	105.127	706.787	102.628	706.787	104.55	706.787	101.798	706.787	103.895	706.787	101.072	706.787	103.157	706.787	100.468	706.787	102.3	706.787	99.9475	706.787	101.267	706.787	99.4449	706.787	100.022	706.787	98.9488	706.787	98.7027	706.787	98.5935	706.787	97.8536	706.787	98.6348	706.787	98.1015	706.787	99.1877	706.787	99.1303	706.787	100.026	706.787	100.177	706.787	100.8	706.787	100.912	706.787	101.295	706.787	101.326	706.787	101.459
758.057	106.118	758.057	105.927	758.057	106.103	758.057	105.553	758.057	105.887	758.057	105.033	758.057	105.5	758.057	104.376	758.057	104.983	758.057	103.544	758.057	104.379	758.057	102.497	758.057	103.737	758.057	101.283	758.057	103.091	758.057	100.1	758.057	102.42	758.057	99.2327	758.057	101.598	758.057	98.777	758.057	100.404	758.057	98.5381	758.057	98.6249	758.057	98.3219	758.057	96.5708	758.057	98.1814	758.057	96.0656	758.057	98.3648	758.057	97.6987	758.057	98.9714	758.057	99.3675	758.057	99.7418	758.057	100.301	758.057	100.343	758.057	100.65	758.057	100.643
812.256	106.46	812.256	106.295	812.256	106.396	812.256	105.905	812.256	106.128	812.256	105.39	812.256	105.66	812.256	104.92	812.256	104.973	812.256	104.55	812.256	104.069	812.256	104.098	812.256	103.023	812.256	103.308	812.256	102.044	812.256	102.072	812.256	101.448	812.256	100.603	812.256	101.306	812.256	99.5716	812.256	101.162	812.256	99.5661	812.256	100.307	812.256	100.217	812.256	98.1064	812.256	100.883	812.256	95.0309	812.256	101.34	812.256	96.2297	812.256	101.641	812.256	99.6478	812.256	101.892	812.256	101.619	812.256	102.148	812.256	102.341	812.256	102.37
870.85	109.225	870.85	108.89	870.85	109.207	870.85	108.183	870.85	108.876	870.85	107.181	870.85	108.254	870.85	106.132	870.85	107.345	870.85	105.321	870.85	106.142	870.85	104.731	870.85	104.64	870.85	104.042	870.85	102.951	870.85	103.004	870.85	101.635	870.85	101.658	870.85	101.578	870.85	100.428	870.85	102.406	870.85	99.9303	870.85	102.785	870.85	100.31	870.85	101.757	870.85	101.183	870.85	98.4651	870.85	102.235	870.85	93.9291	870.85	103.297	870.85	98.2938	870.85	104.217	870.85	102.363	870.85	104.825	870.85	104.286	870.85	104.94
933.105	109.736	933.105	109.551	933.105	109.6	933.105	108.953	933.105	109.22	933.105	107.897	933.105	108.648	933.105	106.543	933.105	107.894	933.105	105.372	933.105	106.91	933.105	104.739	933.105	105.564	933.105	104.245	933.105	103.647	933.105	103.224	933.105	101.104	933.105	101.313	933.105	99.3793	933.105	98.7693	933.105	100.771	933.105	97.5286	933.105	102.596	933.105	98.9083	933.105	102.678	933.105	100.712	933.105	99.9762	933.105	101.999	933.105	91.8528	933.105	102.934	933.105	95.8328	933.105	103.725	933.105	101.758	933.105	104.345	933.105	103.986	933.105	104.572
999.756	109.586	999.756	109.694	999.756	109.055	999.756	109.211	999.756	108.309	999.756	108.038	999.756	107.559	999.756	106.211	999.756	106.939	999.756	104.173	999.756	106.432	999.756	103.001	999.756	105.858	999.756	103.066	999.756	104.866	999.756	103.217	999.756	102.874	999.756	102.491	999.756	98.992	999.756	100.419	999.756	96.1066	999.756	96.9001	999.756	100.743	999.756	94.8222	999.756	103.312	999.756	97.6276	999.756	102.644	999.756	100.42	999.756	97.5519	999.756	102.193	999.756	79.1195	999.756	103.333	999.756	98.6457	999.756	103.992	999.756	102.662	999.756	103.957
1,071.53	108.576	1,071.53	109.104	1,071.53	107.693	1,071.53	109.205	1,071.53	106.577	1,071.53	108.777	1,071.53	105.505	1,071.53	107.708	1,071.53	104.826	1,071.53	105.991	1,071.53	104.711	1,071.53	104.096	1,071.53	104.991	1,071.53	103.258	1,071.53	105.218	1,071.53	103.628	1,071.53	104.776	1,071.53	103.786	1,071.53	102.865	1,071.53	102.888	1,071.53	98.8002	1,071.53	100.639	1,071.53	98.6594	1,071.53	97.0333	1,071.53	102.686	1,071.53	94.9714	1,071.53	103.728	1,071.53	98.1144	1,071.53	101.365	1,071.53	101.205	1,071.53	93.1079	1,071.53	102.898	1,071.53	90.6779	1,071.53	103.291	1,071.53	99.413	1,071.53	102.341
1,148.44	107.939	1,148.44	108.526	1,148.44	107.02	1,148.44	108.82	1,148.44	105.806	1,148.44	108.654	1,148.44	104.508	1,148.44	107.726	1,148.44	103.299	1,148.44	105.837	1,148.44	102.482	1,148.44	103.063	1,148.44	102.688	1,148.44	100.166	1,148.44	103.784	1,148.44	98.7688	1,148.44	104.594	1,148.44	98.8657	1,148.44	103.954	1,148.44	98.928	1,148.44	100.497	1,148.44	98.1084	1,148.44	94.4948	1,148.44	95.7318	1,148.44	101.328	1,148.44	91.3718	1,148.44	104.965	1,148.44	93.5846	1,148.44	104.979	1,148.44	99.0395	1,148.44	101.433	1,148.44	102.019	1,148.44	91.4881	1,148.44	102.954	1,148.44	96.8848	1,148.44	101.752
1,231.2	107.74	1,231.2	107.745	1,231.2	107.26	1,231.2	107.352	1,231.2	106.516	1,231.2	106.825	1,231.2	105.656	1,231.2	106.102	1,231.2	104.661	1,231.2	104.851	1,231.2	103.485	1,231.2	102.999	1,231.2	102.027	1,231.2	100.921	1,231.2	100.47	1,231.2	99.1898	1,231.2	99.9119	1,231.2	98.0548	1,231.2	100.535	1,231.2	97.4944	1,231.2	100.393	1,231.2	97.3833	1,231.2	97.4179	1,231.2	97.0753	1,231.2	91.5574	1,231.2	95.5719	1,231.2	99.1386	1,231.2	91.9126	1,231.2	102.869	1,231.2	89.5388	1,231.2	102.618	1,231.2	93.7371	1,231.2	98.2468	1,231.2	95.4792	1,231.2	83.4554	1,231.2	92.4713
1,319.82	105.845	1,319.82	106.432	1,319.82	104.795	1,319.82	106.409	1,319.82	103.675	1,319.82	105.821	1,319.82	102.784	1,319.82	104.651	1,319.82	102.191	1,319.82	102.889	1,319.82	101.804	1,319.82	100.851	1,319.82	101.3	1,319.82	99.0472	1,319.82	100.388	1,319.82	97.4446	1,319.82	99.1151	1,319.82	95.7139	1,319.82	97.9449	1,319.82	94.4782	1,319.82	97.149	1,319.82	94.948	1,319.82	95.8501	1,319.82	95.9669	1,319.82	93.6651	1,319.82	95.7667	1,319.82	95.3407	1,319.82	93.6924	1,319.82	98.4275	1,319.82	91.8096	1,319.82	98.5594	1,319.82	94.2299	1,319.82	95.0668	1,319.82	96.2865	1,319.82	92.1674	1,319.82	95.5622
1,414.31	105.11	1,414.31	105.631	1,414.31	104.104	1,414.31	105.379	1,414.31	103.011	1,414.31	104.615	1,414.31	102.234	1,414.31	103.635	1,414.31	102.169	1,414.31	102.151	1,414.31	102.441	1,414.31	99.7918	1,414.31	102.491	1,414.31	97.0051	1,414.31	102.069	1,414.31	96.6646	1,414.31	100.949	1,414.31	97.9024	1,414.31	98.9778	1,414.31	97.569	1,414.31	97.0171	1,414.31	95.4903	1,414.31	96.4513	1,414.31	93.8111	1,414.31	95.122	1,414.31	94.4215	1,414.31	93.7188	1,414.31	94.8514	1,414.31	96.7057	1,414.31	93.9116	1,414.31	97.2016	1,414.31	93.0175	1,414.31	92.9139	1,414.31	93.6958	1,414.31	89.7302	1,414.31	93.4026
1,515.38	104.994	1,515.38	105.514	1,515.38	103.804	1,515.38	105.205	1,515.38	102.638	1,515.38	104.35	1,515.38	102.212	1,515.38	103.477	1,515.38	102.216	1,515.38	102.677	1,515.38	102.094	1,515.38	101.295	1,515.38	101.768	1,515.38	98.5895	1,515.38	101.304	1,515.38	94.2984	1,515.38	100.503	1,515.38	90.5536	1,515.38	98.7706	1,515.38	91.0183	1,515.38	95.7403	1,515.38	92.3095	1,515.38	94.1497	1,515.38	92.944	1,515.38	94.2936	1,515.38	92.9068	1,515.38	91.1706	1,515.38	92.3303	1,515.38	92.2282	1,515.38	92.0501	1,515.38	95.3271	1,515.38	92.8467	1,515.38	93.1084	1,515.38	93.6616	1,515.38	88.493	1,515.38	92.3761
1,624.51	104.39	1,624.51	105.432	1,624.51	103.014	1,624.51	105.677	1,624.51	101.832	1,624.51	104.918	1,624.51	101.445	1,624.51	103.434	1,624.51	101.717	1,624.51	101.832	1,624.51	101.931	1,624.51	100.23	1,624.51	101.832	1,624.51	98.0941	1,624.51	101.527	1,624.51	95.0807	1,624.51	101.004	1,624.51	91.5392	1,624.51	99.6942	1,624.51	89.0289	1,624.51	96.3337	1,624.51	89.036	1,624.51	90.2674	1,624.51	90.3032	1,624.51	92.2573	1,624.51	91.3488	1,624.51	92.9482	1,624.51	91.6875	1,624.51	87.7065	1,624.51	91.8053	1,624.51	88.0459	1,624.51	92.4991	1,624.51	89.4102	1,624.51	93.148	1,624.51	88.7102	1,624.51	91.9468
1,740.97	104.383	1,740.97	105.418	1,740.97	102.404	1,740.97	105.355	1,740.97	100.229	1,740.97	104.324	1,740.97	99.3705	1,740.97	102.453	1,740.97	99.9002	1,740.97	99.6783	1,740.97	100.492	1,740.97	96.3147	1,740.97	100.676	1,740.97	93.8447	1,740.97	100.526	1,740.97	93.4215	1,740.97	100.121	1,740.97	92.9168	1,740.97	99.2827	1,740.97	89.9421	1,740.97	97.5166	1,740.97	83.972	1,740.97	94.1934	1,740.97	85.8418	1,740.97	90.0333	1,740.97	89.401	1,740.97	89.3421	1,740.97	90.1524	1,740.97	89.4168	1,740.97	89.3023	1,740.97	88.173	1,740.97	89.8276	1,740.97	86.2926	1,740.97	91.7224	1,740.97	88.5457	1,740.97	91.6598
1,866.21	104.101	1,866.21	105.207	1,866.21	101.869	1,866.21	104.904	1,866.21	98.8966	1,866.21	103.159	1,866.21	97.7932	1,866.21	100.727	1,866.21	99.1767	1,866.21	98.6457	1,866.21	100.093	1,866.21	96.559	1,866.21	100.186	1,866.21	93.1741	1,866.21	99.8863	1,866.21	88.6566	1,866.21	99.4093	1,866.21	86.3849	1,866.21	98.4108	1,866.21	84.4514	1,866.21	96.2034	1,866.21	80.7123	1,866.21	92.8823	1,866.21	80.3439	1,866.21	91.6664	1,866.21	85.0901	1,866.21	91.3662	1,866.21	87.8294	1,866.21	89.3212	1,866.21	88.7865	1,866.21	86.0027	1,866.21	89.301	1,866.21	76.7672	1,866.21	89.8795	1,866.21	84.3748	1,866.21	89.1125
2,000.24	104.024	2,000.24	104.751	2,000.24	101.38	2,000.24	104.352	2,000.24	96.519	2,000.24	102.954	2,000.24	95.2286	2,000.24	100.297	2,000.24	98.1595	2,000.24	96.6346	2,000.24	99.6463	2,000.24	92.8866	2,000.24	99.5324	2,000.24	88.7162	2,000.24	98.5762	2,000.24	81.8735	2,000.24	97.8413	2,000.24	73.1871	2,000.24	97.4447	2,000.24	76.3394	2,000.24	96.2907	2,000.24	77.6853	2,000.24	93.6923	2,000.24	78.6921	2,000.24	91.3018	2,000.24	81.0799	2,000.24	89.9744	2,000.24	83.5718	2,000.24	87.4557	2,000.24	86.3546	2,000.24	82.2965	2,000.24	88.5741	2,000.24	77.6936	2,000.24	89.5099	2,000.24	86.2997	2,000.24	89.0589
2,143.8	104.651	2,143.8	105.596	2,143.8	101.347	2,143.8	104.642	2,143.8	93.2376	2,143.8	101.885	2,143.8	92.0593	2,143.8	97.7134	2,143.8	98.6838	2,143.8	92.9807	2,143.8	100.381	2,143.8	87.59	2,143.8	99.9852	2,143.8	76.3139	2,143.8	98.7793	2,143.8	78.7193	2,143.8	97.8168	2,143.8	84.0053	2,143.8	96.9648	2,143.8	84.341	2,143.8	94.8323	2,143.8	83.8383	2,143.8	91.2572	2,143.8	83.0352	2,143.8	90.7209	2,143.8	81.1464	2,143.8	89.2122	2,143.8	78.312	2,143.8	88.5977	2,143.8	80.4636	2,143.8	88.3549	2,143.8	86.5647	2,143.8	73.1571	2,143.8	90.1359	2,143.8	88.221	2,143.8	91.2347
2,297.61	105.347	2,297.61	105.411	2,297.61	102.261	2,297.61	103.725	2,297.61	91.9715	2,297.61	100.901	2,297.61	93.7528	2,297.61	96.4202	2,297.61	100.855	2,297.61	87.4379	2,297.61	102.475	2,297.61	79.8598	2,297.61	101.44	2,297.61	87.9404	2,297.61	98.8096	2,297.61	90.17	2,297.61	96.7531	2,297.61	90.5533	2,297.61	96.7913	2,297.61	89.2783	2,297.61	96.1129	2,297.61	87.4985	2,297.61	93.0612	2,297.61	86.4229	2,297.61	92.803	2,297.61	85.2777	2,297.61	92.3271	2,297.61	81.7349	2,297.61	88.4437	2,297.61	70.672	2,297.61	86.5833	2,297.61	77.3986	2,297.61	81.612	2,297.61	85.3385	2,297.61	87.8419	2,297.61	88.674
2,462.4	105.585	2,462.4	106.074	2,462.4	102.736	2,462.4	104.454	2,462.4	96.3035	2,462.4	100.64	2,462.4	94.8059	2,462.4	94.9126	2,462.4	100.548	2,462.4	92.7828	2,462.4	102.532	2,462.4	93.8907	2,462.4	102.354	2,462.4	93.4707	2,462.4	100.603	2,462.4	92.6125	2,462.4	97.8383	2,462.4	92.4143	2,462.4	95.5994	2,462.4	92.2344	2,462.4	94.4161	2,462.4	91.2135	2,462.4	91.2214	2,462.4	89.5371	2,462.4	88.9859	2,462.4	87.942	2,462.4	90.3069	2,462.4	85.9874	2,462.4	87.5419	2,462.4	81.0401	2,462.4	86.4362	2,462.4	73.2505	2,462.4	85.1307	2,462.4	87.1175	2,462.4	89.9886	2,462.4	91.2553
2,638.92	105.773	2,638.92	106.076	2,638.92	102.901	2,638.92	104.192	2,638.92	98.1852	2,638.92	100.869	2,638.92	99.1888	2,638.92	97.9042	2,638.92	101.919	2,638.92	96.6254	2,638.92	102.473	2,638.92	96.3495	2,638.92	101.385	2,638.92	96.1858	2,638.92	99.309	2,638.92	95.4968	2,638.92	97.5149	2,638.92	94.3051	2,638.92	96.9256	2,638.92	92.8631	2,638.92	95.7997	2,638.92	91.3097	2,638.92	92.2208	2,638.92	89.5835	2,638.92	91.6011	2,638.92	88.198	2,638.92	91.3577	2,638.92	87.7637	2,638.92	86.7299	2,638.92	86.1635	2,638.92	87.0725	2,638.92	78.5651	2,638.92	85.7456	2,638.92	87.0723	2,638.92	89.6053	2,638.92	91.3263
2,828.61	105.847	2,828.61	106.144	2,828.61	103.442	2,828.61	104.469	2,828.61	99.8543	2,828.61	101.467	2,828.61	100.206	2,828.61	99.3511	2,828.61	102.404	2,828.61	99.2849	2,828.61	103.031	2,828.61	98.916	2,828.61	101.945	2,828.61	97.3788	2,828.61	99.3158	2,828.61	95.5987	2,828.61	96.3064	2,828.61	94.7429	2,828.61	96.0934	2,828.61	94.4595	2,828.61	96.9097	2,828.61	93.5228	2,828.61	94.4	2,828.61	91.4302	2,828.61	92.2262	2,828.61	89.2927	2,828.61	92.4169	2,828.61	88.7275	2,828.61	87.4959	2,828.61	87.5766	2,828.61	86.1085	2,828.61	81.8473	2,828.61	87.7671	2,828.61	85.2317	2,828.61	90.5825	2,828.61	90.5922
3,031.49	105.493	3,031.49	105.495	3,031.49	103.961	3,031.49	104.11	3,031.49	101.687	3,031.49	102.3	3,031.49	100.858	3,031.49	101.227	3,031.49	101.719	3,031.49	100.613	3,031.49	102.383	3,031.49	99.8783	3,031.49	102.203	3,031.49	98.5959	3,031.49	101.176	3,031.49	96.592	3,031.49	99.2543	3,031.49	94.6423	3,031.49	96.6021	3,031.49	93.7285	3,031.49	94.6081	3,031.49	93.0339	3,031.49	92.9172	3,031.49	91.7437	3,031.49	91.7785	3,031.49	90.2545	3,031.49	92.4066	3,031.49	88.9154	3,031.49	89.7276	3,031.49	87.161	3,031.49	87.2993	3,031.49	82.5818	3,031.49	88.1636	3,031.49	83.5844	3,031.49	90.4627	3,031.49	90.0006
3,249.02	105.246	3,249.02	105.701	3,249.02	103.854	3,249.02	104.548	3,249.02	102.762	3,249.02	102.697	3,249.02	102.319	3,249.02	102.026	3,249.02	102.07	3,249.02	101.368	3,249.02	101.814	3,249.02	99.7079	3,249.02	101.328	3,249.02	98.5275	3,249.02	100.426	3,249.02	97.8594	3,249.02	99.0439	3,249.02	96.6938	3,249.02	97.0751	3,249.02	95.2079	3,249.02	95.5265	3,249.02	93.5831	3,249.02	94.1064	3,249.02	91.5605	3,249.02	92.0811	3,249.02	90.2103	3,249.02	92.0593	3,249.02	89.6996	3,249.02	89.4897	3,249.02	88.3219	3,249.02	86.1263	3,249.02	84.7397	3,249.02	88.3566	3,249.02	81.0313	3,249.02	90.9433	3,249.02	88.8768
3,481.93	104.253	3,481.93	104.78	3,481.93	103.138	3,481.93	104.356	3,481.93	102.457	3,481.93	103.328	3,481.93	102.541	3,481.93	102.372	3,481.93	102.707	3,481.93	102.125	3,481.93	102.407	3,481.93	101.828	3,481.93	101.497	3,481.93	100.273	3,481.93	100.003	3,481.93	97.8813	3,481.93	97.8079	3,481.93	96.3636	3,481.93	94.9205	3,481.93	95.5324	3,481.93	93.1707	3,481.93	93.8788	3,481.93	93.0744	3,481.93	91.4193	3,481.93	90.9421	3,481.93	89.9457	3,481.93	87.7371	3,481.93	89.9756	3,481.93	85.9036	3,481.93	89.0251	3,481.93	85.4478	3,481.93	85.1825	3,481.93	87.435	3,481.93	82.0597	3,481.93	89.7094	3,481.93	88.2685
3,732.42	103.605	3,732.42	104.974	3,732.42	102.273	3,732.42	104.624	3,732.42	102.46	3,732.42	103.174	3,732.42	103.061	3,732.42	103.285	3,732.42	103.378	3,732.42	103.423	3,732.42	103.293	3,732.42	101.771	3,732.42	102.716	3,732.42	98.7522	3,732.42	101.574	3,732.42	95.3853	3,732.42	99.1915	3,732.42	93.4312	3,732.42	93.7423	3,732.42	93.6366	3,732.42	88.2006	3,732.42	92.8672	3,732.42	91.5674	3,732.42	89.5695	3,732.42	92.0415	3,732.42	87.0583	3,732.42	91.6936	3,732.42	88.68	3,732.42	86.4141	3,732.42	88.2621	3,732.42	80.7805	3,732.42	83.887	3,732.42	86.0329	3,732.42	77.6216	3,732.42	88.2692	3,732.42	84.1557
3,999.76	104.486	3,999.76	105.373	3,999.76	102.76	3,999.76	104.467	3,999.76	102.303	3,999.76	103.776	3,999.76	102.803	3,999.76	104.228	3,999.76	103.109	3,999.76	102.754	3,999.76	103.233	3,999.76	99.8615	3,999.76	103.379	3,999.76	98.7896	3,999.76	103.238	3,999.76	96.9593	3,999.76	101.591	3,999.76	94.8471	3,999.76	96.0354	3,999.76	94.6293	3,999.76	91.2383	3,999.76	93.1642	3,999.76	91.7373	3,999.76	89.4652	3,999.76	89.0259	3,999.76	87.1397	3,999.76	90.8542	3,999.76	88.7323	3,999.76	85.0285	3,999.76	88.2993	3,999.76	78.8264	3,999.76	82.7959	3,999.76	87.129	3,999.76	72.6561	3,999.76	88.4628	3,999.76	82.719
4,286.87	105.186	4,286.87	105.525	4,286.87	103.641	4,286.87	104.796	4,286.87	102.37	4,286.87	104.426	4,286.87	102.298	4,286.87	103.769	4,286.87	102.288	4,286.87	102.189	4,286.87	102.029	4,286.87	100.86	4,286.87	102.541	4,286.87	98.3908	4,286.87	103.43	4,286.87	95.2636	4,286.87	102.174	4,286.87	94.7717	4,286.87	95.0237	4,286.87	93.6247	4,286.87	87.5733	4,286.87	90.7516	4,286.87	92.713	4,286.87	89.3324	4,286.87	85.5119	4,286.87	87.5259	4,286.87	86.7844	4,286.87	86.9535	4,286.87	86.195	4,286.87	86.3606	4,286.87	81.3276	4,286.87	84.3795	4,286.87	85.9697	4,286.87	78.4731	4,286.87	87.1967	4,286.87	83.6134
4,594.48	106.166	4,594.48	106.144	4,594.48	105.459	4,594.48	105.49	4,594.48	104.311	4,594.48	104.788	4,594.48	102.973	4,594.48	103.844	4,594.48	101.693	4,594.48	102.405	4,594.48	101.019	4,594.48	100.521	4,594.48	101.516	4,594.48	97.8996	4,594.48	101.882	4,594.48	96.4458	4,594.48	99.321	4,594.48	95.4344	4,594.48	90.3705	4,594.48	93.2261	4,594.48	86.6217	4,594.48	91.3073	4,594.48	85.8037	4,594.48	90.427	4,594.48	79.1773	4,594.48	87.9878	4,594.48	80.1598	4,594.48	88.4119	4,594.48	81.7363	4,594.48	89.2612	4,594.48	77.6496	4,594.48	86.8278	4,594.48	85.0124	4,594.48	77.2058	4,594.48	87.9894	4,594.48	83.3513
4,924.8	106.671	4,924.8	106.491	4,924.8	106.405	4,924.8	105.723	4,924.8	105.766	4,924.8	104.884	4,924.8	104.416	4,924.8	103.801	4,924.8	102.203	4,924.8	102.272	4,924.8	100.064	4,924.8	101.098	4,924.8	99.8049	4,924.8	99.2792	4,924.8	99.814	4,924.8	97.0022	4,924.8	97.649	4,924.8	95.0942	4,924.8	93.7447	4,924.8	92.3595	4,924.8	85.6823	4,924.8	90.8233	4,924.8	86.7828	4,924.8	90.5739	4,924.8	78.3607	4,924.8	87.568	4,924.8	85.0593	4,924.8	87.4031	4,924.8	82.4697	4,924.8	89.6339	4,924.8	59.6303	4,924.8	87.4697	4,924.8	85.2408	4,924.8	77.962	4,924.8	89.0673	4,924.8	83.5247
5,277.83	106.842	5,277.83	106.383	5,277.83	106.941	5,277.83	105.529	5,277.83	106.541	5,277.83	104.75	5,277.83	105.238	5,277.83	103.84	5,277.83	102.957	5,277.83	102.251	5,277.83	100.221	5,277.83	100.323	5,277.83	98.5195	5,277.83	98.1846	5,277.83	98.6511	5,277.83	96.5358	5,277.83	98.3902	5,277.83	94.8384	5,277.83	95.0491	5,277.83	92.2516	5,277.83	88.2137	5,277.83	90.8048	5,277.83	85.6291	5,277.83	89.8557	5,277.83	73.5655	5,277.83	87.0174	5,277.83	74.4729	5,277.83	86.2693	5,277.83	81.3965	5,277.83	89.1669	5,277.83	76.7627	5,277.83	87.4114	5,277.83	85.8509	5,277.83	74.9091	5,277.83	87.6939	5,277.83	82.992
5,656.49	106.036	5,656.49	105.432	5,656.49	106.47	5,656.49	104.969	5,656.49	106.302	5,656.49	104.859	5,656.49	105.186	5,656.49	104.041	5,656.49	103.199	5,656.49	102.011	5,656.49	100.907	5,656.49	100.125	5,656.49	99.7415	5,656.49	97.7964	5,656.49	99.6948	5,656.49	95.1299	5,656.49	98.13	5,656.49	93.9064	5,656.49	92.3628	5,656.49	92.5794	5,656.49	85.966	5,656.49	90.4699	5,656.49	83.451	5,656.49	87.9941	5,656.49	79.3312	5,656.49	85.7763	5,656.49	64.1921	5,656.49	85.8409	5,656.49	82.7161	5,656.49	87.1657	5,656.49	77.1485	5,656.49	85.9268	5,656.49	81.2502	5,656.49	70.5073	5,656.49	84.0974	5,656.49	82.1547
6,062.99	106.136	6,062.99	105.652	6,062.99	106.141	6,062.99	105.18	6,062.99	105.652	6,062.99	105.007	6,062.99	104.535	6,062.99	103.973	6,062.99	102.703	6,062.99	102.452	6,062.99	100.57	6,062.99	100.839	6,062.99	99.2255	6,062.99	96.7583	6,062.99	98.6731	6,062.99	93.2839	6,062.99	96.9544	6,062.99	91.8177	6,062.99	92.6118	6,062.99	90.4669	6,062.99	90.0617	6,062.99	90.3286	6,062.99	85.7636	6,062.99	88.1444	6,062.99	85.8453	6,062.99	81.1536	6,062.99	76.5541	6,062.99	83.2627	6,062.99	83.5348	6,062.99	87.1222	6,062.99	77.727	6,062.99	86.0794	6,062.99	80.2299	6,062.99	76.1264	6,062.99	84.7287	6,062.99	82.1278
6,498.05	106.474	6,498.05	105.963	6,498.05	106.424	6,498.05	105.433	6,498.05	105.411	6,498.05	104.509	6,498.05	103.655	6,498.05	102.898	6,498.05	102.102	6,498.05	101.71	6,498.05	101.175	6,498.05	99.483	6,498.05	100.725	6,498.05	96.4751	6,498.05	99.2299	6,498.05	95.1589	6,498.05	93.8598	6,498.05	91.7183	6,498.05	86.1443	6,498.05	88.5419	6,498.05	87.5249	6,498.05	88.6318	6,498.05	84.3449	6,498.05	87.7554	6,498.05	84.7573	6,498.05	84.6054	6,498.05	81.5303	6,498.05	81.2582	6,498.05	79.0296	6,498.05	87.4529	6,498.05	76.3033	6,498.05	85.817	6,498.05	79.4672	6,498.05	76.9704	6,498.05	84.7061	6,498.05	82.5141
6,964.6	106.275	6,964.6	105.637	6,964.6	106.589	6,964.6	105.033	6,964.6	105.418	6,964.6	103.994	6,964.6	102.946	6,964.6	103.037	6,964.6	100.844	6,964.6	101.417	6,964.6	99.9597	6,964.6	98.566	6,964.6	99.9196	6,964.6	96.0396	6,964.6	98.1796	6,964.6	93.8009	6,964.6	94.3041	6,964.6	91.871	6,964.6	94.6901	6,964.6	89.4953	6,964.6	91.9781	6,964.6	87.1594	6,964.6	84.8647	6,964.6	86.7197	6,964.6	73.8654	6,964.6	86.2405	6,964.6	78.6553	6,964.6	82.649	6,964.6	79.9761	6,964.6	84.3122	6,964.6	72.8114	6,964.6	86.6271	6,964.6	84.7458	6,964.6	82.499	6,964.6	86.1804	6,964.6	80.5435
7,464.11	104.976	7,464.11	103.769	7,464.11	105.619	7,464.11	103.307	7,464.11	104.492	7,464.11	103.417	7,464.11	102.568	7,464.11	102.764	7,464.11	101.633	7,464.11	101.119	7,464.11	100.301	7,464.11	99.1066	7,464.11	98.558	7,464.11	96.8713	7,464.11	97.1264	7,464.11	95.1265	7,464.11	96.0341	7,464.11	92.3171	7,464.11	94.1794	7,464.11	89.7417	7,464.11	91.9559	7,464.11	88.6679	7,464.11	88.6705	7,464.11	87.1146	7,464.11	81.2743	7,464.11	85.6265	7,464.11	72.4484	7,464.11	85.2717	7,464.11	82.4718	7,464.11	84.7704	7,464.11	77.7127	7,464.11	86.2059	7,464.11	83.099	7,464.11	81.9574	7,464.11	85.4944	7,464.11	80.3745
8,000.24	103.317	8,000.24	103.102	8,000.24	103.396	8,000.24	103.128	8,000.24	102.446	8,000.24	103.187	8,000.24	102.264	8,000.24	102.632	8,000.24	102.438	8,000.24	101.367	8,000.24	101.038	8,000.24	100.093	8,000.24	98.7124	8,000.24	97.9096	8,000.24	95.6531	8,000.24	95.2548	8,000.24	92.0767	8,000.24	91.5022	8,000.24	89.7023	8,000.24	88.2787	8,000.24	91.5078	8,000.24	88.1544	8,000.24	87.9559	8,000.24	86.9171	8,000.24	63.9877	8,000.24	83.4052	8,000.24	70.5084	8,000.24	85.0555	8,000.24	83.9009	8,000.24	84.2161	8,000.24	80.679	8,000.24	84.4601	8,000.24	79.8035	8,000.24	82.9793	8,000.24	80.3858	8,000.24	78.8283
8,574.46	104.859	8,574.46	105.235	8,574.46	103.507	8,574.46	104.751	8,574.46	102.422	8,574.46	103.484	8,574.46	103.011	8,574.46	101.995	8,574.46	102.619	8,574.46	101.507	8,574.46	100.536	8,574.46	99.6488	8,574.46	98.4384	8,574.46	96.4223	8,574.46	95.4255	8,574.46	93.9053	8,574.46	90.8966	8,574.46	89.2091	8,574.46	89.0801	8,574.46	85.5469	8,574.46	87.38	8,574.46	84.8042	8,574.46	76.9707	8,574.46	84.2076	8,574.46	80.341	8,574.46	81.6486	8,574.46	80.8463	8,574.46	82.013	8,574.46	77.8798	8,574.46	83.6198	8,574.46	71.2311	8,574.46	80.7557	8,574.46	75.1441	8,574.46	80.48	8,574.46	80.5624	8,574.46	79.5287
9,189.7	103.809	9,189.7	104.279	9,189.7	103.506	9,189.7	103.908	9,189.7	103.762	9,189.7	102.805	9,189.7	103.833	9,189.7	102.447	9,189.7	102.388	9,189.7	100.689	9,189.7	100.068	9,189.7	97.1925	9,189.7	98.3176	9,189.7	93.9821	9,189.7	95.8272	9,189.7	90.8543	9,189.7	93.0465	9,189.7	87.5204	9,189.7	90.8167	9,189.7	82.3649	9,189.7	87.8273	9,189.7	80.264	9,189.7	82.5973	9,189.7	80.6593	9,189.7	76.6826	9,189.7	76.0985	9,189.7	80.0865	9,189.7	77.3108	9,189.7	80.4096	9,189.7	78.0141	9,189.7	62.4654	9,189.7	74.5537	9,189.7	77.198	9,189.7	78.0871	9,189.7	80.1012	9,189.7	77.8712
9,848.88	102.601	9,848.88	103.593	9,848.88	103.159	9,848.88	103.956	9,848.88	104.316	9,848.88	103.619	9,848.88	104.371	9,848.88	103.27	9,848.88	102.419	9,848.88	100.538	9,848.88	99.7048	9,848.88	97.2051	9,848.88	98.0869	9,848.88	93.7864	9,848.88	94.9216	9,848.88	90.4507	9,848.88	91.2032	9,848.88	85.3909	9,848.88	87.9872	9,848.88	79.4532	9,848.88	87.2069	9,848.88	80.6957	9,848.88	83.1253	9,848.88	82.7884	9,848.88	69.4332	9,848.88	79.8952	9,848.88	72.6294	9,848.88	75.1467	9,848.88	82.3249	9,848.88	82.541	9,848.88	75.0305	9,848.88	74.125	9,848.88	77.5512	9,848.88	78.6895	9,848.88	76.0392	9,848.88	77.4411
10,556.4	105.602	10,556.4	106.096	10,556.4	105.203	10,556.4	105.467	10,556.4	105.106	10,556.4	105.026	10,556.4	104.107	10,556.4	103.937	10,556.4	102.128	10,556.4	100.572	10,556.4	100.562	10,556.4	97.974	10,556.4	98.4723	10,556.4	94.6548	10,556.4	94.2242	10,556.4	92.5723	10,556.4	87.9578	10,556.4	86.8698	10,556.4	81.5354	10,556.4	85.0507	10,556.4	85.1784	10,556.4	79.7324	10,556.4	83.8185	10,556.4	83.1534	10,556.4	78.3997	10,556.4	85.2946	10,556.4	70.9312	10,556.4	72.8715	10,556.4	82.4396	10,556.4	84.1518	10,556.4	77.0264	10,556.4	77.0583	10,556.4	79.0293	10,556.4	80.3689	10,556.4	66.3333	10,556.4	77.6452
11,313.7	107.137	11,313.7	106.423	11,313.7	107.208	11,313.7	105.734	11,313.7	106.2	11,313.7	105.793	11,313.7	104.476	11,313.7	103.798	11,313.7	102.909	11,313.7	100.936	11,313.7	100.689	11,313.7	98.7401	11,313.7	98.1694	11,313.7	94.8525	11,313.7	93.5466	11,313.7	92.159	11,313.7	85.5406	11,313.7	88.7209	11,313.7	58.678	11,313.7	84.6476	11,313.7	80.6531	11,313.7	68.9427	11,313.7	81.4379	11,313.7	81.4937	11,313.7	79.5774	11,313.7	84.4634	11,313.7	77.8327	11,313.7	69.0346	11,313.7	77.6089	11,313.7	79.5122	11,313.7	75.8987	11,313.7	69.158	11,313.7	78.4273	11,313.7	76.9967	11,313.7	77.6121	11,313.7	76.8222
12,126	106.647	12,126	106.658	12,126	106.723	12,126	106.427	12,126	105.715	12,126	104.732	12,126	103.824	12,126	102.228	12,126	101.673	12,126	100.041	12,126	98.5193	12,126	96.0314	12,126	96.0267	12,126	91.4492	12,126	91.0818	12,126	88.4412	12,126	83.5453	12,126	85.1435	12,126	73.9923	12,126	79.613	12,126	78.8059	12,126	68.4423	12,126	76.4261	12,126	78.2068	12,126	67.6317	12,126	80.0494	12,126	77.0937	12,126	63.3638	12,126	72.0002	12,126	75.4243	12,126	70.4856	12,126	68.7249	12,126	74.2266	12,126	72.4266	12,126	82.056	12,126	79.1307
12,996.1	107.388	12,996.1	107.025	12,996.1	106.388	12,996.1	105.088	12,996.1	104.52	12,996.1	102.583	12,996.1	102.158	12,996.1	99.9571	12,996.1	99.2305	12,996.1	95.8852	12,996.1	95.7445	12,996.1	90.9788	12,996.1	92.7153	12,996.1	85.8959	12,996.1	87.5774	12,996.1	82.113	12,996.1	77.1645	12,996.1	78.55	12,996.1	73.2868	12,996.1	74.3688	12,996.1	72.9243	12,996.1	61.0553	12,996.1	78.206	12,996.1	70.0757	12,996.1	68.989	12,996.1	74.6617	12,996.1	70.1928	12,996.1	63.8303	12,996.1	62.8068	12,996.1	59.5186	12,996.1	69.0336	12,996.1	66.2434	12,996.1	73.8057	12,996.1	70.9417	12,996.1	82.0891	12,996.1	81.3344
13,928.5	106.733	13,928.5	106.039	13,928.5	105.755	13,928.5	104.28	13,928.5	103.643	13,928.5	101.197	13,928.5	99.9001	13,928.5	97.049	13,928.5	94.9845	13,928.5	91.7109	13,928.5	90.4683	13,928.5	86.1039	13,928.5	83.9083	13,928.5	77.7016	13,928.5	77.0681	13,928.5	70.0463	13,928.5	72.2803	13,928.5	68.4578	13,928.5	77.7375	13,928.5	62.7955	13,928.5	73.4345	13,928.5	70.1629	13,928.5	66.5175	13,928.5	62.0829	13,928.5	74.7636	13,928.5	67.2439	13,928.5	69.6277	13,928.5	70.0678	13,928.5	70.7807	13,928.5	74.1635	13,928.5	63.7959	13,928.5	75.1596	13,928.5	72.7932	13,928.5	76.1184	13,928.5	80.4541	13,928.5	84.8735
14,928.2	105.604	14,928.2	105.068	14,928.2	103.968	14,928.2	102.721	14,928.2	101.382	14,928.2	99.0717	14,928.2	97.2584	14,928.2	93.9646	14,928.2	92.575	14,928.2	87.1463	14,928.2	85.2869	14,928.2	80.9871	14,928.2	72.7307	14,928.2	67.3451	14,928.2	67.0056	14,928.2	66.252	14,928.2	73.6973	14,928.2	76.0793	14,928.2	78.904	14,928.2	74.5553	14,928.2	83.0957	14,928.2	74.1398	14,928.2	77.5587	14,928.2	68.3384	14,928.2	73.9748	14,928.2	74.4181	14,928.2	76.2075	14,928.2	76.6896	14,928.2	67.2438	14,928.2	78.2854	14,928.2	64.8725	14,928.2	79.241	14,928.2	70.0162	14,928.2	80.2252	14,928.2	77.1985	14,928.2	86.1562
15,999.8	104.935	15,999.8	103.867	15,999.8	103.149	15,999.8	101.474	15,999.8	100.658	15,999.8	97.5995	15,999.8	96.0209	15,999.8	91.1567	15,999.8	88.5805	15,999.8	82.6782	15,999.8	78.6187	15,999.8	77.7719	15,999.8	76.3988	15,999.8	71.5409	15,999.8	76.0592	15,999.8	71.08	15,999.8	73.3291	15,999.8	78.632	15,999.8	81.6362	15,999.8	76.5813	15,999.8	82.7425	15,999.8	75.7527	15,999.8	76.7511	15,999.8	71.7431	15,999.8	77.4101	15,999.8	74.5025	15,999.8	78.056	15,999.8	79.6188	15,999.8	74.1309	15,999.8	77.4029	15,999.8	69.9308	15,999.8	80.6093	15,999.8	79.2597	15,999.8	79.8761	15,999.8	76.8426	15,999.8	86.7356
17,148.2	104.337	17,148.2	103.383	17,148.2	102.539	17,148.2	100.411	17,148.2	99.705	17,148.2	95.3683	17,148.2	93.8958	17,148.2	87.3322	17,148.2	84.8351	17,148.2	73.717	17,148.2	75.3515	17,148.2	71.3586	17,148.2	83.0448	17,148.2	70.3271	17,148.2	73.1303	17,148.2	65.3472	17,148.2	76.2253	17,148.2	75.7017	17,148.2	80.2704	17,148.2	74.0639	17,148.2	84.371	17,148.2	70.1383	17,148.2	78.4905	17,148.2	74.3599	17,148.2	74.415	17,148.2	73.5707	17,148.2	78.2607	17,148.2	79.4904	17,148.2	69.3053	17,148.2	76.694	17,148.2	71.45	17,148.2	80.529	17,148.2	78.5987	17,148.2	78.9994	17,148.2	71.648	17,148.2	84.4887
18,379.4	104.097	18,379.4	102.379	18,379.4	101.987	18,379.4	98.0996	18,379.4	98.0063	18,379.4	92.311	18,379.4	90.5328	18,379.4	82.1883	18,379.4	78.991	18,379.4	75.6389	18,379.4	61.9927	18,379.4	79.2784	18,379.4	82.3744	18,379.4	65.351	18,379.4	74.2493	18,379.4	65.3417	18,379.4	75.9762	18,379.4	72.9628	18,379.4	80.5505	18,379.4	69.7318	18,379.4	82.689	18,379.4	66.0917	18,379.4	77.3595	18,379.4	75.1299	18,379.4	74.9421	18,379.4	69.3585	18,379.4	78.4256	18,379.4	79.2499	18,379.4	72.6937	18,379.4	72.8136	18,379.4	73.9842	18,379.4	78.8195	18,379.4	77.7482	18,379.4	77.0286	18,379.4	65.3261	18,379.4	83.7227
19,698.5	102.759	19,698.5	100.988	19,698.5	99.9111	19,698.5	94.9577	19,698.5	94.4498	19,698.5	88.0891	19,698.5	85.9482	19,698.5	75.3393	19,698.5	71.9628	19,698.5	78.4731	19,698.5	69.9822	19,698.5	78.0446	19,698.5	79.5453	19,698.5	66.0166	19,698.5	75.8619	19,698.5	66.2627	19,698.5	73.7046	19,698.5	69.0443	19,698.5	75.7334	19,698.5	66.1419	19,698.5	77.7467	19,698.5	68.3737	19,698.5	73.6214	19,698.5	71.1835	19,698.5	71.1826	19,698.5	65.7811	19,698.5	74.9136	19,698.5	75.1661	19,698.5	71.1008	19,698.5	60.3827	19,698.5	71.1881	19,698.5	74.6718	19,698.5	74.9815	19,698.5	73.7582	19,698.5	58.5048	19,698.5	81.1945
19,999.5	102.669	19,999.5	100.626	19,999.5	99.7855	19,999.5	94.2521	19,999.5	93.9458	19,999.5	87.4853	19,999.5	84.7417	19,999.5	74.3451	19,999.5	72.3618	19,999.5	77.0806	19,999.5	70.73	19,999.5	78.9722	19,999.5	81.5473	19,999.5	65.7021	19,999.5	79.0423	19,999.5	68.5997	19,999.5	68.6764	19,999.5	69.7797	19,999.5	77.2143	19,999.5	64.4568	19,999.5	78.2558	19,999.5	71.5856	19,999.5	76.5613	19,999.5	70.316	19,999.5	72.691	19,999.5	65.4074	19,999.5	74.3873	19,999.5	74.7067	19,999.5	74.433	19,999.5	54.9627	19,999.5	70.8561	19,999.5	75.5274	19,999.5	77.2868	19,999.5	72.5628	19,999.5	56.7312	19,999.5	81.8113
