"Horizontal Reflections"							
"Front"		"Side"		"Rear"		"Total Horizontal Reflection"	
"Frequency [Hz]"	"Sound Pessure Level [dB]  / [2.83V 1m] "	"Frequency [Hz]"	"Sound Pessure Level [dB]  / [2.83V 1m] "	"Frequency [Hz]"	"Sound Pessure Level [dB]  / [2.83V 1m] "	"Frequency [Hz]"	"Sound Pessure Level [dB]  / [2.83V 1m] "
20.5078	51.1365	20.5078	51.2778	20.5078	51.7486	20.5078	51.5071
21.2402	49.8542	21.2402	50.1426	21.2402	50.8902	21.2402	50.5035
21.9727	52.1794	21.9727	52.4304	21.9727	52.9851	21.9727	52.6875
22.7051	54.4275	22.7051	54.6833	22.7051	55.2645	22.7051	54.9545
23.4375	58.7703	23.4375	59.0147	23.4375	59.6012	23.4375	59.2909
24.1699	59.9326	24.1699	60.1531	24.1699	60.6816	24.1699	60.4007
25.6348	63.9507	25.6348	64.1185	25.6348	64.5081	25.6348	64.2979
26.3672	65.5501	26.3672	65.685	26.3672	65.9902	26.3672	65.8238
27.0996	67.5704	27.0996	67.6851	27.0996	67.9379	27.0996	67.7989
27.832	69.2994	27.832	69.3957	27.832	69.6065	27.832	69.4901
29.2969	72.6934	29.2969	72.7608	29.2969	72.8979	29.2969	72.8209
30.0293	74.296	30.0293	74.3469	30.0293	74.4415	30.0293	74.3873
31.4941	77.3083	31.4941	77.3352	31.4941	77.3735	31.4941	77.3503
32.2266	78.7344	32.2266	78.7449	32.2266	78.7425	32.2266	78.7416
33.6914	81.2908	33.6914	81.2805	33.6914	81.2281	33.6914	81.2549
34.4238	82.4752	34.4238	82.4589	34.4238	82.394	34.4238	82.428
35.8887	84.6509	35.8887	84.6163	35.8887	84.5057	35.8887	84.5651
37.3535	86.5074	37.3535	86.4594	37.3535	86.3189	37.3535	86.3953
38.8184	87.9889	38.8184	87.9324	38.8184	87.7759	38.8184	87.8618
39.5508	88.5644	39.5508	88.502	39.5508	88.3351	39.5508	88.4272
41.0156	89.6124	41.0156	89.5349	41.0156	89.3375	41.0156	89.4474
42.4805	90.4412	42.4805	90.3483	42.4805	90.1138	42.4805	90.2449
43.9453	91.0323	43.9453	90.9287	43.9453	90.6748	43.9453	90.8175
45.4102	91.438	45.4102	91.3212	45.4102	91.0366	45.4102	91.1971
47.6074	91.8756	47.6074	91.7502	47.6074	91.4479	47.6074	91.6189
49.0723	92.0602	49.0723	91.9259	49.0723	91.6076	49.0723	91.7883
50.5371	92.1904	50.5371	92.0504	50.5371	91.7225	50.5371	91.9091
52.7344	92.3489	52.7344	92.2023	52.7344	91.8665	52.7344	92.0584
54.1992	92.4148	54.1992	92.2644	54.1992	91.9287	54.1992	92.1213
56.3965	92.4698	56.3965	92.3163	56.3965	91.9909	56.3965	92.1791
58.5938	92.5402	58.5938	92.3773	58.5938	92.0413	58.5938	92.2367
60.0586	92.5915	60.0586	92.4222	60.0586	92.0802	60.0586	92.2799
62.2559	92.6163	62.2559	92.4346	62.2559	92.0782	62.2559	92.2876
64.4531	92.6588	64.4531	92.4641	64.4531	92.0907	64.4531	92.3113
66.6504	92.6925	66.6504	92.4789	66.6504	92.0649	66.6504	92.3098
69.5801	92.7616	69.5801	92.525	69.5801	92.0605	69.5801	92.3357
71.7773	92.7888	71.7773	92.5525	71.7773	92.0877	71.7773	92.363
73.9746	92.8297	73.9746	92.5963	73.9746	92.1526	73.9746	92.4166
76.9043	92.8407	76.9043	92.62	76.9043	92.2372	76.9043	92.468
79.834	92.9269	79.834	92.6792	79.834	92.2825	79.834	92.526
82.7637	93.078	82.7637	92.7826	82.7637	92.2749	82.7637	92.5847
85.6934	92.9965	85.6934	92.7387	85.6934	92.2539	85.6934	92.5439
88.623	92.8888	88.623	92.6638	88.623	92.3941	88.623	92.5697
91.5527	92.8869	91.5527	92.613	91.5527	92.3021	91.5527	92.5083
94.4824	93.0034	94.4824	92.6714	94.4824	92.2757	94.4824	92.5368
98.1445	93.1371	98.1445	92.7887	98.1445	92.2437	98.1445	92.5841
101.807	93.0807	101.807	92.7213	101.807	92.246	101.807	92.5533
105.469	93.0546	105.469	92.685	105.469	92.2089	105.469	92.5189
109.131	93.111	109.131	92.7294	109.131	92.2935	109.131	92.5857
112.793	92.9903	112.793	92.5689	112.793	92.1728	112.793	92.4536
116.455	92.9876	116.455	92.5118	116.455	91.9826	116.455	92.3434
120.85	93.2136	120.85	92.7169	120.85	92.088	120.85	92.5051
125.244	93.108	125.244	92.6503	125.244	92.0934	125.244	92.4644
129.639	92.9914	129.639	92.5101	129.639	92.0095	129.639	92.3568
134.033	92.8871	134.033	92.383	134.033	91.8796	134.033	92.2335
138.428	92.7233	138.428	92.2045	138.428	91.8374	138.428	92.1251
143.555	92.6142	143.555	91.9931	143.555	91.4875	143.555	91.8693
148.682	92.6122	148.682	91.9317	148.682	91.2067	148.682	91.7173
153.809	92.5381	153.809	91.8414	153.809	90.9991	153.809	91.5763
159.668	92.3853	159.668	91.7499	159.668	91.0652	159.668	91.5438
164.795	91.9534	164.795	91.2964	164.795	90.9638	164.795	91.2652
170.654	92.167	170.654	91.2652	170.654	90.6153	170.654	91.1397
176.514	92.4223	176.514	91.5062	176.514	90.9486	176.514	91.4276
183.105	92.6503	183.105	91.6769	183.105	90.8012	183.105	91.4654
189.697	92.9674	189.697	91.9492	189.697	90.8904	189.697	91.6674
196.289	92.9711	196.289	91.9086	196.289	90.8653	196.289	91.6454
202.881	93.0251	202.881	91.9704	202.881	90.6503	202.881	91.5852
210.205	92.9766	210.205	91.9321	210.205	90.5682	210.205	91.5255
217.529	92.9087	217.529	91.8671	217.529	90.8242	217.529	91.5986
225.586	93.115	225.586	91.8059	225.586	90.621	225.586	91.5481
232.91	93.3392	232.91	92.0212	232.91	90.2468	232.91	91.5245
241.699	93.3007	241.699	91.9942	241.699	90.1824	241.699	91.4794
249.756	93.6214	249.756	92.28	249.756	90.1975	249.756	91.6718
258.545	93.5535	258.545	92.274	258.545	90.2256	258.545	91.66
268.066	93.124	268.066	91.7734	268.066	89.868	268.066	91.2354
277.588	92.9083	277.588	91.5561	277.588	89.5439	277.588	90.9778
287.109	92.4451	287.109	91.0502	287.109	89.2197	287.109	90.5545
297.363	92.3608	297.363	90.858	297.363	88.4448	297.363	90.1797
307.617	91.5625	307.617	90.241	307.617	88.2249	307.617	89.6519
318.604	91.3703	318.604	89.7796	318.604	87.1885	318.604	89.068
329.59	91.6992	329.59	90.2337	329.59	86.8757	329.59	89.2311
341.309	91.3485	341.309	89.7997	341.309	87.3299	341.309	89.1163
353.76	91.634	353.76	90.1207	353.76	86.8247	353.76	89.1536
366.211	91.9499	366.211	90.3654	366.211	86.681	366.211	89.3073
378.662	92.4136	378.662	90.8794	378.662	87.4666	378.662	89.8838
392.578	92.4816	392.578	91.2551	392.578	87.0352	392.578	89.9204
405.762	92.5749	405.762	91.2774	405.762	87.8918	405.762	90.2093
420.41	93.2373	420.41	91.93	420.41	86.9325	420.41	90.4273
435.059	92.6634	435.059	91.4607	435.059	87.9053	435.059	90.3088
450.439	92.8461	450.439	91.7768	450.439	87.6851	450.439	90.4233
466.553	92.8892	466.553	91.6918	466.553	87.598	466.553	90.3816
482.666	92.8813	482.666	91.3803	482.666	87.2881	482.666	90.1781
500.244	93.0609	500.244	91.5611	500.244	87.0488	500.244	90.2485
517.822	92.8399	517.822	91.7793	517.822	87.3051	517.822	90.3186
536.133	93.2673	536.133	91.4289	536.133	86.8588	536.133	90.2311
554.443	92.7601	554.443	90.9579	554.443	86.8111	554.443	89.8529
574.219	93.0043	574.219	90.7765	574.219	86.2923	574.219	89.7555
594.727	92.8023	594.727	90.3262	594.727	85.9949	594.727	89.4449
615.234	93.0253	615.234	90.8285	615.234	85.6894	615.234	89.6473
637.207	93.6007	637.207	90.2897	637.207	86.7112	637.207	89.9561
659.912	92.8236	659.912	90.2806	659.912	84.9692	659.912	89.2146
683.35	93.1863	683.35	89.8496	683.35	85.7316	683.35	89.3993
706.787	93.1437	706.787	89.8542	706.787	84.9148	706.787	89.2079
731.689	92.2807	731.689	89.6211	731.689	84.3129	731.689	88.6081
758.057	92.3132	758.057	88.8608	758.057	83.9359	758.057	88.2965
784.424	92.191	784.424	89.4305	784.424	83.1171	784.424	88.2857
812.256	93.1177	812.256	89.7163	812.256	84.3873	812.256	89.0513
840.82	93.0353	840.82	90.1486	840.82	83.9289	840.82	89.0795
870.85	92.5636	870.85	89.7278	870.85	83.9669	870.85	88.7119
901.611	92.5528	901.611	89.6772	901.611	83.4654	901.611	88.604
933.105	92.5103	933.105	89.2919	933.105	83.6373	933.105	88.479
966.064	91.8299	966.064	88.6472	966.064	82.9144	966.064	87.8033
999.756	91.8421	999.756	88.3052	999.756	83.0773	999.756	87.7261
1,034.91	91.844	1,034.91	88.2549	1,034.91	82.6385	1,034.91	87.6347
1,071.53	92.1395	1,071.53	88.4083	1,071.53	82.343	1,071.53	87.7909
1,109.62	92.4283	1,109.62	88.7344	1,109.62	81.668	1,109.62	87.9599
1,148.44	92.9818	1,148.44	88.8148	1,148.44	81.9306	1,148.44	88.3258
1,189.45	93.5747	1,189.45	89.2872	1,189.45	82.2724	1,189.45	88.8516
1,231.2	93.4971	1,231.2	89.1926	1,231.2	81.6419	1,231.2	88.7081
1,274.41	93.6257	1,274.41	89.6985	1,274.41	81.5272	1,274.41	88.9335
1,319.82	93.348	1,319.82	89.2032	1,319.82	82.0308	1,319.82	88.6675
1,365.97	92.811	1,365.97	88.6153	1,365.97	81.4291	1,365.97	88.1073
1,414.31	92.205	1,414.31	87.9663	1,414.31	80.8232	1,414.31	87.4879
1,464.11	91.9018	1,464.11	88.0989	1,464.11	80.1761	1,464.11	87.288
1,515.38	91.9345	1,515.38	88.1244	1,515.38	79.57	1,515.38	87.2568
1,568.85	92.4561	1,568.85	88.0823	1,568.85	79.4507	1,568.85	87.5391
1,624.51	91.8162	1,624.51	87.6571	1,624.51	78.8358	1,624.51	86.9699
1,681.64	91.5591	1,681.64	87.3146	1,681.64	78.7531	1,681.64	86.6998
1,740.97	91.2727	1,740.97	87.3066	1,740.97	78.8525	1,740.97	86.5377
1,802.49	91.1565	1,802.49	86.9201	1,802.49	77.6767	1,802.49	86.2466
1,866.21	90.7395	1,866.21	86.9979	1,866.21	77.5963	1,866.21	86.021
1,932.13	90.1576	1,932.13	86.3826	1,932.13	76.1901	1,932.13	85.37
2,000.24	90.7253	2,000.24	86.6334	2,000.24	75.3432	2,000.24	85.7495
2,070.56	91.9685	2,070.56	87.8312	2,070.56	76.5791	2,070.56	86.977
2,143.8	91.5775	2,143.8	87.8808	2,143.8	76.8267	2,143.8	86.7719
2,219.24	90.9927	2,219.24	87.261	2,219.24	76.4647	2,219.24	86.1868
2,297.61	92.4014	2,297.61	88.0181	2,297.61	76.5859	2,297.61	87.3083
2,378.17	93.221	2,378.17	88.7952	2,378.17	76.5063	2,378.17	88.0775
2,462.4	92.5014	2,462.4	87.9995	2,462.4	76.1034	2,462.4	87.3452
2,548.83	92.453	2,548.83	87.3747	2,548.83	74.5885	2,548.83	87.0672
2,638.92	92.4737	2,638.92	87.0819	2,638.92	73.322	2,638.92	86.9627
2,731.93	92.0125	2,731.93	86.4293	2,731.93	73.4928	2,731.93	86.4634
2,828.61	91.8207	2,828.61	86.4354	2,828.61	73.8794	2,828.61	86.3433
2,928.22	91.494	2,928.22	86.1865	2,928.22	73.9648	2,928.22	86.0516
3,031.49	90.948	3,031.49	85.5055	3,031.49	73.4353	3,031.49	85.4679
3,138.43	90.9929	3,138.43	85.3062	3,138.43	72.4911	3,138.43	85.416
3,249.02	90.8363	3,249.02	85.2479	3,249.02	72.2451	3,249.02	85.2839
3,363.28	90.4152	3,363.28	84.5783	3,363.28	71.7883	3,363.28	84.7948
3,481.93	90.5428	3,481.93	84.5425	3,481.93	71.3345	3,481.93	84.8653
3,604.98	90.8141	3,604.98	84.8102	3,604.98	71.1596	3,604.98	85.1257
3,732.42	90.4916	3,732.42	84.7441	3,732.42	71.2727	3,732.42	84.8804
3,863.53	90.6761	3,863.53	84.9003	3,863.53	71.1028	3,863.53	85.0495
3,999.76	90.8731	3,999.76	84.9809	3,999.76	71.8892	3,999.76	85.229
4,141.11	90.2063	4,141.11	85.0518	4,141.11	71.6659	4,141.11	84.7791
4,286.87	90.7608	4,286.87	84.7869	4,286.87	72.2038	4,286.87	85.1064
4,438.48	90.833	4,438.48	85.0537	4,438.48	71.0048	4,438.48	85.2001
4,594.48	91.2318	4,594.48	84.5067	4,594.48	71.6914	4,594.48	85.3708
4,757.08	90.7202	4,757.08	84.7682	4,757.08	71.5178	4,757.08	85.0553
4,924.8	89.5932	4,924.8	83.8671	4,924.8	70.8765	4,924.8	84
5,098.39	89.1073	5,098.39	83.5644	5,098.39	70.663	5,098.39	83.5714
5,277.83	88.6372	5,277.83	83.9808	5,277.83	70.3626	5,277.83	83.3702
5,463.87	89.8278	5,463.87	85.395	5,463.87	71.6779	5,463.87	84.6368
5,656.49	90.1546	5,656.49	86.1755	5,656.49	71.7568	5,656.49	85.1128
5,856.45	90.0111	5,856.45	86.0095	5,856.45	71.0697	5,856.45	84.9488
6,062.99	91.0328	6,062.99	85.4455	6,062.99	69.0835	6,062.99	85.4189
6,276.86	92.1029	6,276.86	86.0732	6,276.86	69.3422	6,276.86	86.3605
6,498.05	91.9803	6,498.05	86.2207	6,498.05	69.1395	6,498.05	86.309
6,727.29	92.3187	6,727.29	86.1744	6,727.29	68.7089	6,727.29	86.5387
6,964.6	92.4253	6,964.6	86.2585	6,964.6	69.1134	6,964.6	86.6422
7,209.96	92.2478	7,209.96	86.1964	7,209.96	70.2479	7,209.96	86.5085
7,464.11	91.3229	7,464.11	85.967	7,464.11	71.2145	7,464.11	85.8026
7,727.78	89.5877	7,727.78	85.1893	7,727.78	71.2005	7,727.78	84.402
8,000.24	88.5956	8,000.24	84.4603	8,000.24	70.4797	8,000.24	83.5061
8,282.23	89.3693	8,282.23	85.2858	8,282.23	69.6257	8,282.23	84.2622
8,574.46	90.3798	8,574.46	86.3433	8,574.46	70.1131	8,574.46	85.2804
8,876.22	90.3854	8,876.22	86.2747	8,876.22	69.7814	8,876.22	85.2545
9,189.7	89.2429	9,189.7	85.3051	9,189.7	68.2621	9,189.7	84.1682
9,513.43	87.4782	9,513.43	83.762	9,513.43	66.0182	9,513.43	82.4787
9,848.88	87.0914	9,848.88	83.1536	9,848.88	64.2518	9,848.88	81.9962
10,196.8	87.2901	10,196.8	84.1027	10,196.8	64.7797	10,196.8	82.485
10,556.4	87.6149	10,556.4	85.8535	10,556.4	67.3519	10,556.4	83.4647
10,928.5	88.6492	10,928.5	86.7083	10,928.5	69.3846	10,928.5	84.4283
11,313.7	89.5684	11,313.7	86.1081	11,313.7	70.2631	11,313.7	84.6987
11,712.9	89.0022	11,712.9	84.4716	11,712.9	68.9577	11,712.9	83.7376
12,126	88.5885	12,126	83.3227	12,126	66.4458	12,126	83.0646
12,553.7	89.3293	12,553.7	83.4689	12,553.7	65.1065	12,553.7	83.6187
12,996.1	90.8892	12,996.1	83.675	12,996.1	64.262	12,996.1	84.8398
13,454.6	91.7573	13,454.6	83.7205	13,454.6	64.4332	13,454.6	85.5426
13,928.5	91.6889	13,928.5	83.322	13,928.5	65.0235	13,928.5	85.4187
14,419.9	91.7063	14,419.9	82.2089	14,419.9	63.3244	14,419.9	85.255
14,928.2	91.9266	14,928.2	81.7731	14,928.2	60.189	14,928.2	85.3825
15,454.8	92.1268	15,454.8	81.6467	15,454.8	60.7166	15,454.8	85.545
15,999.8	91.6751	15,999.8	80.4083	15,999.8	61.485	15,999.8	85.0136
16,564.5	90.4246	16,564.5	78.0685	16,564.5	60.6645	16,564.5	83.6705
17,148.2	89.3373	17,148.2	75.7858	17,148.2	58.939	17,148.2	82.5009
17,753.2	89.1542	17,753.2	74.5179	17,753.2	59.4021	17,753.2	82.2623
18,379.4	88.337	18,379.4	72.5767	18,379.4	60.3732	18,379.4	81.4047
19,027.6	86.7593	19,027.6	69.5854	19,027.6	58.4446	19,027.6	79.7815
19,698.5	86.8713	19,698.5	68.49	19,698.5	55.9075	19,698.5	79.8576
19,999.5	86.8855	19,999.5	68.4132	19,999.5	54.661	19,999.5	79.8677
