"SPL Vertical"																																																																							
"On-Axis"		"10°"		"-10°"		"20°"		"-20°"		"30°"		"-30°"		"40°"		"-40°"		"50°"		"-50°"		"60°"		"-60°"		"70°"		"-70°"		"80°"		"-80°"		"90°"		"-90°"		"100°"		"-100°"		"110°"		"-110°"		"120°"		"-120°"		"130°"		"-130°"		"140°"		"-140°"		"150°"		"-150°"		"160°"		"-160°"		"170°"		"-170°"		"180°"	
"Frequency [Hz]"	"Sound Pessure Level [dB]  / [2.83V 1m] "	"Frequency [Hz]"	"Sound Pessure Level [dB]  / [2.83V 1m] "	"Frequency [Hz]"	"Sound Pessure Level [dB]  / [2.83V 1m] "	"Frequency [Hz]"	"Sound Pessure Level [dB]  / [2.83V 1m] "	"Frequency [Hz]"	"Sound Pessure Level [dB]  / [2.83V 1m] "	"Frequency [Hz]"	"Sound Pessure Level [dB]  / [2.83V 1m] "	"Frequency [Hz]"	"Sound Pessure Level [dB]  / [2.83V 1m] "	"Frequency [Hz]"	"Sound Pessure Level [dB]  / [2.83V 1m] "	"Frequency [Hz]"	"Sound Pessure Level [dB]  / [2.83V 1m] "	"Frequency [Hz]"	"Sound Pessure Level [dB]  / [2.83V 1m] "	"Frequency [Hz]"	"Sound Pessure Level [dB]  / [2.83V 1m] "	"Frequency [Hz]"	"Sound Pessure Level [dB]  / [2.83V 1m] "	"Frequency [Hz]"	"Sound Pessure Level [dB]  / [2.83V 1m] "	"Frequency [Hz]"	"Sound Pessure Level [dB]  / [2.83V 1m] "	"Frequency [Hz]"	"Sound Pessure Level [dB]  / [2.83V 1m] "	"Frequency [Hz]"	"Sound Pessure Level [dB]  / [2.83V 1m] "	"Frequency [Hz]"	"Sound Pessure Level [dB]  / [2.83V 1m] "	"Frequency [Hz]"	"Sound Pessure Level [dB]  / [2.83V 1m] "	"Frequency [Hz]"	"Sound Pessure Level [dB]  / [2.83V 1m] "	"Frequency [Hz]"	"Sound Pessure Level [dB]  / [2.83V 1m] "	"Frequency [Hz]"	"Sound Pessure Level [dB]  / [2.83V 1m] "	"Frequency [Hz]"	"Sound Pessure Level [dB]  / [2.83V 1m] "	"Frequency [Hz]"	"Sound Pessure Level [dB]  / [2.83V 1m] "	"Frequency [Hz]"	"Sound Pessure Level [dB]  / [2.83V 1m] "	"Frequency [Hz]"	"Sound Pessure Level [dB]  / [2.83V 1m] "	"Frequency [Hz]"	"Sound Pessure Level [dB]  / [2.83V 1m] "	"Frequency [Hz]"	"Sound Pessure Level [dB]  / [2.83V 1m] "	"Frequency [Hz]"	"Sound Pessure Level [dB]  / [2.83V 1m] "	"Frequency [Hz]"	"Sound Pessure Level [dB]  / [2.83V 1m] "	"Frequency [Hz]"	"Sound Pessure Level [dB]  / [2.83V 1m] "	"Frequency [Hz]"	"Sound Pessure Level [dB]  / [2.83V 1m] "	"Frequency [Hz]"	"Sound Pessure Level [dB]  / [2.83V 1m] "	"Frequency [Hz]"	"Sound Pessure Level [dB]  / [2.83V 1m] "	"Frequency [Hz]"	"Sound Pessure Level [dB]  / [2.83V 1m] "	"Frequency [Hz]"	"Sound Pessure Level [dB]  / [2.83V 1m] "	"Frequency [Hz]"	"Sound Pessure Level [dB]  / [2.83V 1m] "
20.5078	51.1211	20.5078	50.9895	20.5078	51.2949	20.5078	50.8928	20.5078	51.5152	20.5078	50.8231	20.5078	51.7809	20.5078	50.7732	20.5078	52.0841	20.5078	50.7373	20.5078	52.41	20.5078	50.712	20.5078	52.7379	20.5078	50.6957	20.5078	53.0441	20.5078	50.6888	20.5078	53.3049	20.5078	50.6933	20.5078	53.4998	20.5078	50.7127	20.5078	53.6133	20.5078	50.7513	20.5078	53.6364	20.5078	50.8142	20.5078	53.5675	20.5078	50.9067	20.5078	53.4127	20.5078	51.034	20.5078	53.1845	20.5078	51.2005	20.5078	52.9017	20.5078	51.409	20.5078	52.5862	20.5078	51.6593	20.5078	52.261	20.5078	51.9467
21.2402	49.8188	21.2402	49.4468	21.2402	50.2652	21.2402	49.1508	21.2402	50.7752	21.2402	48.9256	21.2402	51.3291	21.2402	48.7619	21.2402	51.9005	21.2402	48.6494	21.2402	52.4592	21.2402	48.5793	21.2402	52.9748	21.2402	48.5455	21.2402	53.4196	21.2402	48.5452	21.2402	53.7696	21.2402	48.5785	21.2402	54.0064	21.2402	48.6484	21.2402	54.1173	21.2402	48.7597	21.2402	54.0961	21.2402	48.9188	21.2402	53.9433	21.2402	49.1326	21.2402	53.6665	21.2402	49.4078	21.2402	53.2807	21.2402	49.7496	21.2402	52.8078	21.2402	50.1595	21.2402	52.2755	21.2402	50.6333	21.2402	51.7154	21.2402	51.1588
21.9727	52.1471	21.9727	51.7998	21.9727	52.5606	21.9727	51.5194	21.9727	53.0317	21.9727	51.3006	21.9727	53.5437	21.9727	51.1346	21.9727	54.0735	21.9727	51.0119	21.9727	54.5937	21.9727	50.9243	21.9727	55.0759	21.9727	50.8659	21.9727	55.4936	21.9727	50.8342	21.9727	55.8231	21.9727	50.8298	21.9727	56.0458	21.9727	50.8564	21.9727	56.1482	21.9727	50.9208	21.9727	56.1228	21.9727	51.0322	21.9727	55.9686	21.9727	51.2014	21.9727	55.6914	21.9727	51.4393	21.9727	55.3043	21.9727	51.7545	21.9727	54.8276	21.9727	52.1502	21.9727	54.2884	21.9727	52.6214	21.9727	53.7187	21.9727	53.1525
22.7051	54.3943	22.7051	53.921	22.7051	54.915	22.7051	53.5049	22.7051	55.4683	22.7051	53.151	22.7051	56.0352	22.7051	52.8602	22.7051	56.5937	22.7051	52.631	22.7051	57.1209	22.7051	52.461	22.7051	57.5941	22.7051	52.3486	22.7051	57.9923	22.7051	52.2934	22.7051	58.2974	22.7051	52.2971	22.7051	58.495	22.7051	52.3633	22.7051	58.575	22.7051	52.4969	22.7051	58.5318	22.7051	52.703	22.7051	58.3653	22.7051	52.9858	22.7051	58.0808	22.7051	53.3474	22.7051	57.6893	22.7051	53.7855	22.7051	57.2075	22.7051	54.2926	22.7051	56.657	22.7051	54.8551	22.7051	56.0631	22.7051	55.4534
23.4375	58.7388	23.4375	58.3807	23.4375	59.1393	23.4375	58.0713	23.4375	59.5721	23.4375	57.8135	23.4375	60.0234	23.4375	57.6075	23.4375	60.4763	23.4375	57.4523	23.4375	60.9118	23.4375	57.3458	23.4375	61.3104	23.4375	57.2864	23.4375	61.6531	23.4375	57.273	23.4375	61.923	23.4375	57.3055	23.4375	62.1061	23.4375	57.3847	23.4375	62.1923	23.4375	57.5121	23.4375	62.1762	23.4375	57.6899	23.4375	62.0573	23.4375	57.92	23.4375	61.8409	23.4375	58.2035	23.4375	61.5372	23.4375	58.5396	23.4375	61.1615	23.4375	58.9249	23.4375	60.7334	23.4375	59.3514	23.4375	60.2744	23.4375	59.8069
24.1699	59.9042	24.1699	59.5523	24.1699	60.2971	24.1699	59.2478	24.1699	60.7209	24.1699	58.9935	24.1699	61.162	24.1699	58.7899	24.1699	61.6036	24.1699	58.6358	24.1699	62.027	24.1699	58.5294	24.1699	62.413	24.1699	58.4687	24.1699	62.743	24.1699	58.4527	24.1699	63.0002	24.1699	58.481	24.1699	63.1713	24.1699	58.5543	24.1699	63.2464	24.1699	58.6738	24.1699	63.2207	24.1699	58.8414	24.1699	63.0944	24.1699	59.059	24.1699	62.8729	24.1699	59.328	24.1699	62.5673	24.1699	59.6481	24.1699	62.1935	24.1699	60.0165	24.1699	61.7709	24.1699	60.4264	24.1699	61.3214	24.1699	60.8666
25.6348	63.9288	25.6348	63.5888	25.6348	64.3031	25.6348	63.2899	25.6348	64.702	25.6348	63.0357	25.6348	65.1128	25.6348	62.8279	25.6348	65.5203	25.6348	62.6665	25.6348	65.9077	25.6348	62.5503	25.6348	66.2576	25.6348	62.4784	25.6348	66.5531	25.6348	62.4498	25.6348	66.7792	25.6348	62.464	25.6348	66.9235	25.6348	62.5215	25.6348	66.9771	25.6348	62.6234	25.6348	66.9358	25.6348	62.7711	25.6348	66.8	25.6348	62.9665	25.6348	66.5756	25.6348	63.2109	25.6348	66.2735	25.6348	63.5046	25.6348	65.9092	25.6348	63.8454	25.6348	65.5019	25.6348	64.2277	25.6348	65.0724	25.6348	64.6415
26.3672	65.5324	26.3672	65.1921	26.3672	65.9037	26.3672	64.8899	26.3672	66.2964	26.3672	64.6302	26.3672	66.6979	26.3672	64.4149	26.3672	67.0933	26.3672	64.2448	26.3672	67.4665	26.3672	64.1194	26.3672	67.8007	26.3672	64.0379	26.3672	68.0797	26.3672	63.9997	26.3672	68.2892	26.3672	64.0046	26.3672	68.4172	26.3672	64.0528	26.3672	68.4558	26.3672	64.1453	26.3672	68.401	26.3672	64.2835	26.3672	68.2539	26.3672	64.469	26.3672	68.0209	26.3672	64.7031	26.3672	67.7133	26.3672	64.986	26.3672	67.3469	26.3672	65.3159	26.3672	66.9408	26.3672	65.6878	26.3672	66.5159	26.3672	66.0923
27.0996	67.5552	27.0996	67.2255	27.0996	67.9126	27.0996	66.9304	27.0996	68.2886	27.0996	66.6744	27.0996	68.6713	27.0996	66.4601	27.0996	69.0469	27.0996	66.2884	27.0996	69.4001	27.0996	66.1596	27.0996	69.7154	27.0996	66.0736	27.0996	69.9773	27.0996	66.0299	27.0996	70.1723	27.0996	66.0287	27.0996	70.2892	27.0996	66.0703	27.0996	70.3201	27.0996	66.1557	27.0996	70.2616	27.0996	66.2859	27.0996	70.1147	27.0996	66.4625	27.0996	69.8858	27.0996	66.6863	27.0996	69.5859	27.0996	66.9574	27.0996	69.2303	27.0996	67.274	27.0996	68.8377	27.0996	67.6311	27.0996	68.4278	27.0996	68.0201
27.832	69.2866	27.832	68.9672	27.832	69.6318	27.832	68.6801	27.832	69.9937	27.832	68.43	27.832	70.361	27.832	68.2195	27.832	70.7205	27.832	68.0498	27.832	71.0575	27.832	67.9215	27.832	71.3572	27.832	67.8344	27.832	71.6048	27.832	67.7886	27.832	71.7872	27.832	67.7839	27.832	71.8938	27.832	67.8208	27.832	71.9173	27.832	67.9	27.832	71.8545	27.832	68.0225	27.832	71.7069	27.832	68.1896	27.832	71.4807	27.832	68.4021	27.832	71.1872	27.832	68.66	27.832	70.8414	27.832	68.9616	27.832	70.4614	27.832	69.3026	27.832	70.0665	27.832	69.6749
29.2969	72.6842	29.2969	72.3837	29.2969	73.0068	29.2969	72.1118	29.2969	73.3431	29.2969	71.8731	29.2969	73.6825	29.2969	71.6704	29.2969	74.0128	29.2969	71.5054	29.2969	74.3207	29.2969	71.3789	29.2969	74.5923	29.2969	71.2912	29.2969	74.8141	29.2969	71.2423	29.2969	74.9741	29.2969	71.2323	29.2969	75.0625	29.2969	71.2614	29.2969	75.0728	29.2969	71.3299	29.2969	75.0025	29.2969	71.4386	29.2969	74.8535	29.2969	71.5883	29.2969	74.6326	29.2969	71.7796	29.2969	74.3508	29.2969	72.0127	29.2969	74.023	29.2969	72.2864	29.2969	73.6665	29.2969	72.597	29.2969	73.2993	29.2969	72.9381
30.0293	74.289	30.0293	73.9983	30.0293	74.5999	30.0293	73.7342	30.0293	74.9228	30.0293	73.5011	30.0293	75.2478	30.0293	73.3021	30.0293	75.5631	30.0293	73.1388	30.0293	75.8559	30.0293	73.0124	30.0293	76.1129	30.0293	72.9232	30.0293	76.3213	30.0293	72.8713	30.0293	76.4695	30.0293	72.857	30.0293	76.5482	30.0293	72.8804	30.0293	76.5515	30.0293	72.942	30.0293	76.4769	30.0293	73.0424	30.0293	76.3268	30.0293	73.1824	30.0293	76.108	30.0293	73.3626	30.0293	75.8316	30.0293	73.5832	30.0293	75.5122	30.0293	73.8432	30.0293	75.1667	30.0293	74.1393	30.0293	74.8125	30.0293	74.4657
31.4941	77.3044	31.4941	77.0281	31.4941	77.5988	31.4941	76.7761	31.4941	77.9034	31.4941	76.5529	31.4941	78.2083	31.4941	76.3618	31.4941	78.5025	31.4941	76.2046	31.4941	78.7738	31.4941	76.0824	31.4941	79.0097	31.4941	75.9956	31.4941	79.1981	31.4941	75.9441	31.4941	79.3283	31.4941	75.9279	31.4941	79.3917	31.4941	75.9468	31.4941	79.383	31.4941	76.0009	31.4941	79.3006	31.4941	76.0903	31.4941	79.1475	31.4941	76.2156	31.4941	78.9308	31.4941	76.3772	31.4941	78.6622	31.4941	76.5756	31.4941	78.3564	31.4941	76.8103	31.4941	78.0297	31.4941	77.0793	31.4941	77.6987	31.4941	77.3781
32.2266	78.7326	32.2266	78.4576	32.2266	79.0241	32.2266	78.2052	32.2266	79.3242	32.2266	77.9803	32.2266	79.6234	32.2266	77.7861	32.2266	79.9108	32.2266	77.6248	32.2266	80.1746	32.2266	77.4977	32.2266	80.4026	32.2266	77.4054	32.2266	80.5831	32.2266	77.3482	32.2266	80.7057	32.2266	77.326	32.2266	80.762	32.2266	77.339	32.2266	80.7471	32.2266	77.3872	32.2266	80.6595	32.2266	77.4709	32.2266	80.5022	32.2266	77.5907	32.2266	80.2826	32.2266	77.7472	32.2266	80.0122	32.2266	77.9407	32.2266	79.7058	32.2266	78.1711	32.2266	79.3796	32.2266	78.4363	32.2266	79.0502	32.2266	78.7319
33.6914	81.2917	33.6914	81.0238	33.6914	81.5736	33.6914	80.776	33.6914	81.8617	33.6914	80.5532	33.6914	82.1471	33.6914	80.3588	33.6914	82.4193	33.6914	80.1954	33.6914	82.6672	33.6914	80.0645	33.6914	82.8793	33.6914	79.9672	33.6914	83.0448	33.6914	79.9041	33.6914	83.1537	33.6914	79.8755	33.6914	83.1986	33.6914	79.8816	33.6914	83.1748	33.6914	79.9226	33.6914	83.0815	33.6914	79.9987	33.6914	82.922	33.6914	80.1105	33.6914	82.7036	33.6914	80.2582	33.6914	82.4379	33.6914	80.4422	33.6914	82.1391	33.6914	80.662	33.6914	81.823	33.6914	80.9157	33.6914	81.5052	33.6914	81.1992
34.4238	82.477	34.4238	82.2141	34.4238	82.7529	34.4238	81.9705	34.4238	83.0342	34.4238	81.7509	34.4238	83.3121	34.4238	81.5591	34.4238	83.5764	34.4238	81.3975	34.4238	83.8163	34.4238	81.2679	34.4238	84.0206	34.4238	81.1714	34.4238	84.1786	34.4238	81.1086	34.4238	84.2811	34.4238	81.0798	34.4238	84.3209	34.4238	81.0852	34.4238	84.2936	34.4238	81.1248	34.4238	84.1988	34.4238	81.1989	34.4238	84.0399	34.4238	81.3075	34.4238	83.8246	34.4238	81.4509	34.4238	83.5641	34.4238	81.6293	34.4238	83.2727	34.4238	81.842	34.4238	82.9654	34.4238	82.0873	34.4238	82.6573	34.4238	82.3613
35.8887	84.655	35.8887	84.3999	35.8887	84.9212	35.8887	84.1621	35.8887	85.1911	35.8887	83.9466	35.8887	85.456	35.8887	83.7572	35.8887	85.7061	35.8887	83.5966	35.8887	85.931	35.8887	83.4667	35.8887	86.1202	35.8887	83.3688	35.8887	86.2636	35.8887	83.3035	35.8887	86.3524	35.8887	83.2712	35.8887	86.3801	35.8887	83.2719	35.8887	86.3432	35.8887	83.3057	35.8887	86.2416	35.8887	83.3724	35.8887	86.0794	35.8887	83.4719	35.8887	85.8645	35.8887	83.6045	35.8887	85.6085	35.8887	83.7701	35.8887	85.3253	35.8887	83.9684	35.8887	85.0298	35.8887	84.198	35.8887	84.7359	35.8887	84.4557
37.3535	86.5132	37.3535	86.2645	37.3535	86.7716	37.3535	86.0317	37.3535	87.0324	37.3535	85.8198	37.3535	87.2869	37.3535	85.6327	37.3535	87.5258	37.3535	85.4733	37.3535	87.7391	37.3535	85.3437	37.3535	87.9165	37.3535	85.2452	37.3535	88.0487	37.3535	85.1786	37.3535	88.1273	37.3535	85.1442	37.3535	88.1464	37.3535	85.1421	37.3535	88.1028	37.3535	85.172	37.3535	87.9971	37.3535	85.2337	37.3535	87.8335	37.3535	85.3271	37.3535	87.6205	37.3535	85.452	37.3535	87.3693	37.3535	85.6085	37.3535	87.0939	37.3535	85.7961	37.3535	86.8085	37.3535	86.0138	37.3535	86.5265	37.3535	86.2589
38.8184	87.996	38.8184	87.7531	38.8184	88.2474	38.8184	87.525	38.8184	88.4999	38.8184	87.3167	38.8184	88.7453	38.8184	87.1324	38.8184	88.9743	38.8184	86.9751	38.8184	89.1773	38.8184	86.847	38.8184	89.3446	38.8184	86.7495	38.8184	89.4671	38.8184	86.6835	38.8184	89.5372	38.8184	86.6493	38.8184	89.5494	38.8184	86.6467	38.8184	89.501	38.8184	86.6753	38.8184	89.393	38.8184	86.7347	38.8184	89.2301	38.8184	86.8244	38.8184	89.0207	38.8184	86.9441	38.8184	88.7763	38.8184	87.0934	38.8184	88.5103	38.8184	87.272	38.8184	88.2363	38.8184	87.4789	38.8184	87.9668	38.8184	87.712
39.5508	88.5722	39.5508	88.332	39.5508	88.8205	39.5508	88.1059	39.5508	89.0693	39.5508	87.8993	39.5508	89.3104	39.5508	87.7162	39.5508	89.5347	39.5508	87.5599	39.5508	89.7327	39.5508	87.4326	39.5508	89.8948	39.5508	87.3358	39.5508	90.0123	39.5508	87.2703	39.5508	90.0776	39.5508	87.2362	39.5508	90.0857	39.5508	87.2334	39.5508	90.0341	39.5508	87.2614	39.5508	89.924	39.5508	87.3194	39.5508	89.7604	39.5508	87.4069	39.5508	89.552	39.5508	87.5233	39.5508	89.3101	39.5508	87.6684	39.5508	89.0482	39.5508	87.8417	39.5508	88.7797	39.5508	88.0424	39.5508	88.5167	39.5508	88.2687
41.0156	89.6223	41.0156	89.3812	41.0156	89.8698	41.0156	89.1529	41.0156	90.1163	41.0156	88.9429	41.0156	90.3535	41.0156	88.7556	41.0156	90.5727	41.0156	88.5946	41.0156	90.7644	41.0156	88.4624	41.0156	90.9194	41.0156	88.3608	41.0156	91.0295	41.0156	88.291	41.0156	91.0874	41.0156	88.2532	41.0156	91.0885	41.0156	88.2472	41.0156	91.0306	41.0156	88.2726	41.0156	90.9153	41.0156	88.3284	41.0156	90.7479	41.0156	88.4139	41.0156	90.5372	41.0156	88.5284	41.0156	90.2947	41.0156	88.6711	41.0156	90.0336	41.0156	88.8417	41.0156	89.7671	41.0156	89.0394	41.0156	89.507	41.0156	89.2623
42.4805	90.4531	42.4805	90.2146	42.4805	90.6964	42.4805	89.9874	42.4805	90.9373	42.4805	89.7769	42.4805	91.1676	42.4805	89.5878	42.4805	91.3788	42.4805	89.4237	42.4805	91.5619	42.4805	89.2877	42.4805	91.708	42.4805	89.1815	42.4805	91.8091	42.4805	89.1067	42.4805	91.8585	42.4805	89.0636	42.4805	91.8518	42.4805	89.0523	42.4805	91.7874	42.4805	89.0724	42.4805	91.667	42.4805	89.1231	42.4805	91.4963	42.4805	89.2035	42.4805	91.284	42.4805	89.3127	42.4805	91.0419	42.4805	89.4502	42.4805	90.7829	42.4805	89.6155	42.4805	90.52	42.4805	89.8076	42.4805	90.2645	42.4805	90.0251
43.9453	91.0456	43.9453	90.8083	43.9453	91.2866	43.9453	90.5812	43.9453	91.524	43.9453	90.3697	43.9453	91.7499	43.9453	90.1786	43.9453	91.9559	43.9453	90.0119	43.9453	92.1332	43.9453	89.8727	43.9453	92.2733	43.9453	89.7632	43.9453	92.3685	43.9453	89.685	43.9453	92.4124	43.9453	89.6387	43.9453	92.401	43.9453	89.6246	43.9453	92.3329	43.9453	89.6422	43.9453	92.2101	43.9453	89.6908	43.9453	92.0383	43.9453	89.7694	43.9453	91.8264	43.9453	89.8771	43.9453	91.5859	43.9453	90.013	43.9453	91.3295	43.9453	90.1765	43.9453	91.0697	43.9453	90.3665	43.9453	90.8175	43.9453	90.5812
45.4102	91.4531	45.4102	91.2186	45.4102	91.6898	45.4102	90.9925	45.4102	91.9216	45.4102	90.7805	45.4102	92.1407	45.4102	90.5874	45.4102	92.339	45.4102	90.4173	45.4102	92.5081	45.4102	90.2735	45.4102	92.6398	45.4102	90.1586	45.4102	92.7268	45.4102	90.0745	45.4102	92.7632	45.4102	90.0223	45.4102	92.7452	45.4102	90.0025	45.4102	92.6719	45.4102	90.015	45.4102	92.5458	45.4102	90.0593	45.4102	92.3724	45.4102	90.1343	45.4102	92.1609	45.4102	90.2391	45.4102	91.9224	45.4102	90.3726	45.4102	91.6692	45.4102	90.5336	45.4102	91.4134	45.4102	90.7209	45.4102	91.1652	45.4102	90.9326
47.6074	91.8919	47.6074	91.6699	47.6074	92.1151	47.6074	91.4555	47.6074	92.3327	47.6074	91.2542	47.6074	92.5369	47.6074	91.0709	47.6074	92.7199	47.6074	90.9094	47.6074	92.8736	47.6074	90.7729	47.6074	92.9902	47.6074	90.6639	47.6074	93.0629	47.6074	90.584	47.6074	93.0864	47.6074	90.534	47.6074	93.0578	47.6074	90.5143	47.6074	92.9771	47.6074	90.5243	47.6074	92.8475	47.6074	90.5632	47.6074	92.6754	47.6074	90.6298	47.6074	92.4704	47.6074	90.7228	47.6074	92.2437	47.6074	90.8412	47.6074	92.0073	47.6074	90.9838	47.6074	91.7721	47.6074	91.1499	47.6074	91.547	47.6074	91.3384
49.0723	92.0777	49.0723	91.857	49.0723	92.2989	49.0723	91.6434	49.0723	92.5136	49.0723	91.4426	49.0723	92.7143	49.0723	91.2593	49.0723	92.8929	49.0723	91.0978	49.0723	93.0416	49.0723	90.9614	49.0723	93.1526	49.0723	90.8524	49.0723	93.2194	49.0723	90.7726	49.0723	93.2371	49.0723	90.7227	49.0723	93.2029	49.0723	90.7027	49.0723	93.1172	49.0723	90.712	49.0723	92.9837	49.0723	90.7495	49.0723	92.8091	49.0723	90.8137	49.0723	92.6034	49.0723	90.9033	49.0723	92.378	49.0723	91.017	49.0723	92.1449	49.0723	91.1538	49.0723	91.9147	49.0723	91.3132	49.0723	91.696	49.0723	91.4944
50.5371	92.2086	50.5371	91.9872	50.5371	92.43	50.5371	91.7722	50.5371	92.6441	50.5371	91.5695	50.5371	92.8434	50.5371	91.3842	50.5371	93.0201	50.5371	91.2206	50.5371	93.1662	50.5371	91.0821	50.5371	93.2743	50.5371	90.9714	50.5371	93.3379	50.5371	90.8902	50.5371	93.3525	50.5371	90.8394	50.5371	93.3154	50.5371	90.819	50.5371	93.2271	50.5371	90.8282	50.5371	93.0916	50.5371	90.8659	50.5371	92.9158	50.5371	90.9304	50.5371	92.7096	50.5371	91.02	50.5371	92.4846	50.5371	91.1334	50.5371	92.2525	50.5371	91.2696	50.5371	92.024	50.5371	91.4278	50.5371	91.8072	50.5371	91.6074
52.7344	92.3682	52.7344	92.1492	52.7344	92.5863	52.7344	91.9357	52.7344	92.7963	52.7344	91.7339	52.7344	92.9908	52.7344	91.5488	52.7344	93.1619	52.7344	91.385	52.7344	93.3021	52.7344	91.2461	52.7344	93.4042	52.7344	91.135	52.7344	93.4622	52.7344	91.0534	52.7344	93.4715	52.7344	91.0023	52.7344	93.4301	52.7344	90.9816	52.7344	93.339	52.7344	90.9906	52.7344	93.2022	52.7344	91.0279	52.7344	93.027	52.7344	91.0916	52.7344	92.8235	52.7344	91.1799	52.7344	92.6028	52.7344	91.2911	52.7344	92.3766	52.7344	91.4239	52.7344	92.1547	52.7344	91.5776	52.7344	91.9448	52.7344	91.7516
54.1992	92.4347	54.1992	92.2175	54.1992	92.6504	54.1992	92.0056	54.1992	92.8577	54.1992	91.805	54.1992	93.049	54.1992	91.6208	54.1992	93.2168	54.1992	91.4578	54.1992	93.3534	54.1992	91.3196	54.1992	93.452	54.1992	91.2091	54.1992	93.5065	54.1992	91.1281	54.1992	93.513	54.1992	91.0777	54.1992	93.4695	54.1992	91.0576	54.1992	93.3772	54.1992	91.0671	54.1992	93.2404	54.1992	91.1047	54.1992	93.0666	54.1992	91.1683	54.1992	92.8657	54.1992	91.2559	54.1992	92.6489	54.1992	91.3658	54.1992	92.4274	54.1992	91.4965	54.1992	92.2106	54.1992	91.6471	54.1992	92.0058	54.1992	91.8172
56.3965	92.4904	56.3965	92.2757	56.3965	92.7031	56.3965	92.0658	56.3965	92.9068	56.3965	91.8668	56.3965	93.094	56.3965	91.6842	56.3965	93.2571	56.3965	91.5227	56.3965	93.3888	56.3965	91.3863	56.3965	93.4824	56.3965	91.2779	56.3965	93.5323	56.3965	91.1994	56.3965	93.5349	56.3965	91.1518	56.3965	93.4887	56.3965	91.1348	56.3965	93.3953	56.3965	91.1474	56.3965	93.2595	56.3965	91.1877	56.3965	93.0891	56.3965	91.2535	56.3965	92.8938	56.3965	91.3422	56.3965	92.6848	56.3965	91.4517	56.3965	92.4725	56.3965	91.58	56.3965	92.2656	56.3965	91.7263	56.3965	92.0702	56.3965	91.8899
58.5938	92.5622	58.5938	92.3494	58.5938	92.7722	58.5938	92.1406	58.5938	92.9721	58.5938	91.9421	58.5938	93.1546	58.5938	91.7597	58.5938	93.312	58.5938	91.5983	58.5938	93.4373	58.5938	91.4619	58.5938	93.524	58.5938	91.3537	58.5938	93.5668	58.5938	91.2757	58.5938	93.5624	58.5938	91.2287	58.5938	93.5099	58.5938	91.2125	58.5938	93.4114	58.5938	91.2257	58.5938	93.2723	58.5938	91.2661	58.5938	93.1009	58.5938	91.3311	58.5938	92.9072	58.5938	91.4178	58.5938	92.7025	58.5938	91.5237	58.5938	92.4969	58.5938	91.6469	58.5938	92.2985	58.5938	91.7862	58.5938	92.1124	58.5938	91.9414
60.0586	92.6144	60.0586	92.4015	60.0586	92.8239	60.0586	92.1923	60.0586	93.0227	60.0586	91.993	60.0586	93.2034	60.0586	91.8096	60.0586	93.3585	60.0586	91.6471	60.0586	93.4809	60.0586	91.5099	60.0586	93.5643	60.0586	91.4011	60.0586	93.6035	60.0586	91.3228	60.0586	93.5956	60.0586	91.2758	60.0586	93.5397	60.0586	91.2598	60.0586	93.4385	60.0586	91.2734	60.0586	93.2975	60.0586	91.3143	60.0586	93.1252	60.0586	91.3795	60.0586	92.932	60.0586	91.466	60.0586	92.729	60.0586	91.5711	60.0586	92.5262	60.0586	91.6926	60.0586	92.3312	60.0586	91.8295	60.0586	92.149	60.0586	91.9816
62.2559	92.641	62.2559	92.4261	62.2559	92.8516	62.2559	92.214	62.2559	93.0504	62.2559	92.0114	62.2559	93.2299	62.2559	91.8244	62.2559	93.3826	62.2559	91.6585	62.2559	93.5015	62.2559	91.5183	62.2559	93.5804	62.2559	91.4071	62.2559	93.6144	62.2559	91.3272	62.2559	93.6008	62.2559	91.2795	62.2559	93.5393	62.2559	91.2636	62.2559	93.4328	62.2559	91.2778	62.2559	93.2875	62.2559	91.3195	62.2559	93.1121	62.2559	91.3855	62.2559	92.9175	62.2559	91.4725	62.2559	92.7149	62.2559	91.5771	62.2559	92.5141	62.2559	91.6974	62.2559	92.3225	62.2559	91.8319	62.2559	92.1442	62.2559	91.9807
64.4531	92.6854	64.4531	92.4698	64.4531	92.8955	64.4531	92.2559	64.4531	93.0926	64.4531	92.0506	64.4531	93.2692	64.4531	91.8604	64.4531	93.4178	64.4531	91.691	64.4531	93.5318	64.4531	91.5472	64.4531	93.6049	64.4531	91.4329	64.4531	93.6329	64.4531	91.3504	64.4531	93.6131	64.4531	91.3009	64.4531	93.5458	64.4531	91.2839	64.4531	93.4342	64.4531	91.2977	64.4531	93.2851	64.4531	91.3395	64.4531	93.1075	64.4531	91.4058	64.4531	92.9127	64.4531	91.4926	64.4531	92.7116	64.4531	91.5967	64.4531	92.5138	64.4531	91.7155	64.4531	92.3262	64.4531	91.8476	64.4531	92.1523	64.4531	91.9929
66.6504	92.7216	66.6504	92.5042	66.6504	92.9321	66.6504	92.287	66.6504	93.128	66.6504	92.0772	66.6504	93.3019	66.6504	91.8815	66.6504	93.4465	66.6504	91.7058	66.6504	93.5551	66.6504	91.5554	66.6504	93.6219	66.6504	91.4343	66.6504	93.6425	66.6504	91.3454	66.6504	93.6147	66.6504	91.29	66.6504	93.5391	66.6504	91.2678	66.6504	93.4194	66.6504	91.2773	66.6504	93.2626	66.6504	91.3155	66.6504	93.0785	66.6504	91.3788	66.6504	92.8784	66.6504	91.4632	66.6504	92.6738	66.6504	91.5651	66.6504	92.4742	66.6504	91.6818	66.6504	92.2863	66.6504	91.8119	66.6504	92.1132	66.6504	91.9553
69.5801	92.7937	69.5801	92.5746	69.5801	93.0037	69.5801	92.3537	69.5801	93.1972	69.5801	92.1383	69.5801	93.367	69.5801	91.9351	69.5801	93.5059	69.5801	91.7505	69.5801	93.6075	69.5801	91.5902	69.5801	93.6663	69.5801	91.4587	69.5801	93.6782	69.5801	91.3595	69.5801	93.6414	69.5801	91.2944	69.5801	93.5568	69.5801	91.2637	69.5801	93.4287	69.5801	91.2662	69.5801	93.2643	69.5801	91.2991	69.5801	93.0739	69.5801	91.3589	69.5801	92.8688	69.5801	91.4413	69.5801	92.6605	69.5801	91.5426	69.5801	92.4584	69.5801	91.6595	69.5801	92.2687	69.5801	91.7905	69.5801	92.0941	69.5801	91.9351
71.7773	92.8209	71.7773	92.6059	71.7773	93.0265	71.7773	92.3888	71.7773	93.2156	71.7773	92.1766	71.7773	93.3809	71.7773	91.9758	71.7773	93.5155	71.7773	91.7929	71.7773	93.6129	71.7773	91.6334	71.7773	93.6679	71.7773	91.5018	71.7773	93.6766	71.7773	91.4018	71.7773	93.6373	71.7773	91.3354	71.7773	93.5513	71.7773	91.3031	71.7773	93.423	71.7773	91.3039	71.7773	93.2599	71.7773	91.3352	71.7773	93.0721	71.7773	91.3936	71.7773	92.8712	71.7773	91.4749	71.7773	92.668	71.7773	91.5751	71.7773	92.4715	71.7773	91.6908	71.7773	92.2871	71.7773	91.8199	71.7773	92.1173	71.7773	91.9619
73.9746	92.8616	73.9746	92.654	73.9746	93.0602	73.9746	92.4446	73.9746	93.2425	73.9746	92.2407	73.9746	93.401	73.9746	92.0487	73.9746	93.5288	73.9746	91.8748	73.9746	93.6195	73.9746	91.7243	73.9746	93.6679	73.9746	91.6017	73.9746	93.6703	73.9746	91.5099	73.9746	93.6257	73.9746	91.4506	73.9746	93.5358	73.9746	91.424	73.9746	93.4057	73.9746	91.4286	73.9746	93.2438	73.9746	91.4615	73.9746	93.0608	73.9746	91.5189	73.9746	92.8685	73.9746	91.5965	73.9746	92.6778	73.9746	91.69	73.9746	92.4967	73.9746	91.796	73.9746	92.3296	73.9746	91.9125	73.9746	92.1776	73.9746	92.0393
76.9043	92.8715	76.9043	92.6626	76.9043	93.0723	76.9043	92.4533	76.9043	93.2572	76.9043	92.2513	76.9043	93.4185	76.9043	92.0636	76.9043	93.549	76.9043	91.8966	76.9043	93.6423	76.9043	91.7558	76.9043	93.6931	76.9043	91.6453	76.9043	93.6981	76.9043	91.5676	76.9043	93.6562	76.9043	91.5237	76.9043	93.5697	76.9043	91.5125	76.9043	93.4439	76.9043	91.5314	76.9043	93.2875	76.9043	91.5768	76.9043	93.1117	76.9043	91.6436	76.9043	92.9283	76.9043	91.727	76.9043	92.748	76.9043	91.8225	76.9043	92.5785	76.9043	91.9266	76.9043	92.4237	76.9043	92.0376	76.9043	92.2836	76.9043	92.1559
79.834	92.9618	79.834	92.7477	79.834	93.1655	79.834	92.5314	79.834	93.3508	79.834	92.3209	79.834	93.5102	79.834	92.1239	79.834	93.6366	79.834	91.9476	79.834	93.7237	79.834	91.7983	79.834	93.7668	79.834	91.681	79.834	93.7629	79.834	91.5988	79.834	93.7118	79.834	91.553	79.834	93.6164	79.834	91.5427	79.834	93.4831	79.834	91.5652	79.834	93.3215	79.834	91.6159	79.834	93.1435	79.834	91.6893	79.834	92.9612	79.834	91.7792	79.834	92.785	79.834	91.8802	79.834	92.6218	79.834	91.9879	79.834	92.474	79.834	92.1001	79.834	92.3401	79.834	92.2167
82.7637	93.1189	82.7637	92.902	82.7637	93.3223	82.7637	92.6799	82.7637	93.5041	82.7637	92.461	82.7637	93.6567	82.7637	92.2533	82.7637	93.7729	82.7637	92.0646	82.7637	93.8467	82.7637	91.9016	82.7637	93.8732	82.7637	91.7699	82.7637	93.85	82.7637	91.6733	82.7637	93.777	82.7637	91.6135	82.7637	93.6581	82.7637	91.5901	82.7637	93.5006	82.7637	91.6002	82.7637	93.3158	82.7637	91.6394	82.7637	93.1172	82.7637	91.7017	82.7637	92.9187	82.7637	91.781	82.7637	92.7321	82.7637	91.8713	82.7637	92.5646	82.7637	91.9681	82.7637	92.4181	82.7637	92.0694	82.7637	92.2901	82.7637	92.1756
85.6934	93.0318	85.6934	92.8147	85.6934	93.2381	85.6934	92.5947	85.6934	93.4255	85.6934	92.3798	85.6934	93.5863	85.6934	92.1777	85.6934	93.7131	85.6934	91.9953	85.6934	93.7995	85.6934	91.8385	85.6934	93.8403	85.6934	91.7122	85.6934	93.8322	85.6934	91.6195	85.6934	93.7746	85.6934	91.5615	85.6934	93.67	85.6934	91.5378	85.6934	93.5244	85.6934	91.5457	85.6934	93.3475	85.6934	91.5814	85.6934	93.1515	85.6934	91.6401	85.6934	92.9494	85.6934	91.7167	85.6934	92.7531	85.6934	91.8066	85.6934	92.5711	85.6934	91.9065	85.6934	92.4075	85.6934	92.0148	85.6934	92.2622	85.6934	92.1325
88.623	92.9221	88.623	92.7007	88.623	93.1336	88.623	92.4785	88.623	93.3266	88.623	92.2647	88.623	93.493	88.623	92.0681	88.623	93.6254	88.623	91.8969	88.623	93.7178	88.623	91.758	88.623	93.7659	88.623	91.6564	88.623	93.7673	88.623	91.5949	88.623	93.7227	88.623	91.5738	88.623	93.636	88.623	91.5908	88.623	93.5144	88.623	91.6413	88.623	93.3683	88.623	91.7192	88.623	93.2094	88.623	91.8173	88.623	93.0492	88.623	91.9283	88.623	92.8965	88.623	92.0455	88.623	92.7561	88.623	92.1638	88.623	92.628	88.623	92.2802	88.623	92.5091	88.623	92.3946
91.5527	92.9274	91.5527	92.699	91.5527	93.142	91.5527	92.4664	91.5527	93.334	91.5527	92.2394	91.5527	93.4953	91.5527	92.028	91.5527	93.6189	91.5527	91.8416	91.5527	93.6991	91.5527	91.6886	91.5527	93.7319	91.5527	91.5754	91.5527	93.716	91.5527	91.5059	91.5527	93.6531	91.5527	91.4809	91.5527	93.5482	91.5527	91.4982	91.5527	93.4105	91.5527	91.5524	91.5527	93.2517	91.5527	91.6363	91.5527	93.0854	91.5527	91.7411	91.5527	92.924	91.5527	91.8581	91.5527	92.776	91.5527	91.9793	91.5527	92.6451	91.5527	92.0983	91.5527	92.5292	91.5527	92.2115	91.5527	92.4226	91.5527	92.3186
94.4824	93.0518	94.4824	92.8107	94.4824	93.2741	94.4824	92.5607	94.4824	93.4692	94.4824	92.312	94.4824	93.629	94.4824	92.0754	94.4824	93.7471	94.4824	91.8618	94.4824	93.818	94.4824	91.6815	94.4824	93.8384	94.4824	91.5428	94.4824	93.8073	94.4824	91.4519	94.4824	93.727	94.4824	91.411	94.4824	93.6037	94.4824	91.4189	94.4824	93.4473	94.4824	91.4703	94.4824	93.2711	94.4824	91.557	94.4824	93.09	94.4824	91.6691	94.4824	92.9171	94.4824	91.7958	94.4824	92.7614	94.4824	91.9274	94.4824	92.6259	94.4824	92.0562	94.4824	92.5072	94.4824	92.1775	94.4824	92.3981	94.4824	92.2904
98.1445	93.186	98.1445	92.9574	98.1445	93.3959	98.1445	92.7189	98.1445	93.5786	98.1445	92.48	98.1445	93.7264	98.1445	92.2503	98.1445	93.8326	98.1445	92.039	98.1445	93.8913	98.1445	91.855	98.1445	93.8989	98.1445	91.7058	98.1445	93.8539	98.1445	91.5968	98.1445	93.7581	98.1445	91.531	98.1445	93.6174	98.1445	91.5082	98.1445	93.4417	98.1445	91.5251	98.1445	93.2445	98.1445	91.5758	98.1445	93.0412	98.1445	91.6525	98.1445	92.8464	98.1445	91.7469	98.1445	92.6707	98.1445	91.8506	98.1445	92.5185	98.1445	91.9573	98.1445	92.3882	98.1445	92.063	98.1445	92.2736	98.1445	92.1674
101.807	93.1324	101.807	92.9015	101.807	93.3434	101.807	92.6603	101.807	93.5259	101.807	92.4189	101.807	93.6719	101.807	92.1876	101.807	93.7747	101.807	91.9769	101.807	93.8289	101.807	91.7963	101.807	93.8314	101.807	91.654	101.807	93.7813	101.807	91.5556	101.807	93.6817	101.807	91.5037	101.807	93.5395	101.807	91.4973	101.807	93.3661	101.807	91.5318	101.807	93.1762	101.807	91.6001	101.807	92.9857	101.807	91.6929	101.807	92.809	101.807	91.8004	101.807	92.6548	101.807	91.9134	101.807	92.5255	101.807	92.0245	101.807	92.4167	101.807	92.1292	101.807	92.3201	101.807	92.2266
105.469	93.1078	105.469	92.8684	105.469	93.3269	105.469	92.6193	105.469	93.5162	105.469	92.3713	105.469	93.6672	105.469	92.1359	105.469	93.7726	105.469	91.9242	105.469	93.8268	105.469	91.7462	105.469	93.8262	105.469	91.6098	105.469	93.7703	105.469	91.5202	105.469	93.662	105.469	91.479	105.469	93.5091	105.469	91.4836	105.469	93.3238	105.469	91.5283	105.469	93.1225	105.469	91.6044	105.469	92.923	105.469	91.7017	105.469	92.7411	105.469	91.8099	105.469	92.5872	105.469	91.9195	105.469	92.4636	105.469	92.0233	105.469	92.365	105.469	92.1173	105.469	92.2814	105.469	92.2018
109.131	93.1669	109.131	92.9069	109.131	93.4035	109.131	92.634	109.131	93.6074	109.131	92.3601	109.131	93.7706	109.131	92.0978	109.131	93.8865	109.131	91.8602	109.131	93.9504	109.131	91.6599	109.131	93.9592	109.131	91.5072	109.131	93.9131	109.131	91.4092	109.131	93.8154	109.131	91.3685	109.131	93.6736	109.131	91.3826	109.131	93.4995	109.131	91.4446	109.131	93.3083	109.131	91.5442	109.131	93.116	109.131	91.6692	109.131	92.9369	109.131	91.8074	109.131	92.7796	109.131	91.948	109.131	92.6459	109.131	92.0828	109.131	92.5309	109.131	92.2071	109.131	92.4255	109.131	92.32
112.793	93.0527	112.793	92.7968	112.793	93.2814	112.793	92.524	112.793	93.4743	112.793	92.2458	112.793	93.6239	112.793	91.9754	112.793	93.7244	112.793	91.7265	112.793	93.7717	112.793	91.513	112.793	93.7641	112.793	91.3474	112.793	93.7029	112.793	91.2392	112.793	93.5935	112.793	91.193	112.793	93.4457	112.793	91.208	112.793	93.2736	112.793	91.2778	112.793	93.0938	112.793	91.3915	112.793	92.923	112.793	91.5355	112.793	92.7731	112.793	91.6954	112.793	92.6489	112.793	91.8577	112.793	92.5469	112.793	92.0115	112.793	92.4571	112.793	92.149	112.793	92.3675	112.793	92.2671
116.455	93.056	116.455	92.8015	116.455	93.2804	116.455	92.5271	116.455	93.4659	116.455	92.2441	116.455	93.6047	116.455	91.9653	116.455	93.6905	116.455	91.7042	116.455	93.7188	116.455	91.4746	116.455	93.6875	116.455	91.2894	116.455	93.5983	116.455	91.1592	116.455	93.457	116.455	91.0903	116.455	93.2753	116.455	91.0837	116.455	93.0697	116.455	91.1346	116.455	92.8607	116.455	91.2329	116.455	92.6683	116.455	91.3652	116.455	92.5071	116.455	91.5164	116.455	92.3824	116.455	91.6716	116.455	92.2887	116.455	91.8179	116.455	92.2128	116.455	91.9463	116.455	92.1386	116.455	92.0526
120.85	93.2835	120.85	93.0298	120.85	93.5066	120.85	92.7564	120.85	93.6897	120.85	92.475	120.85	93.8244	120.85	92.1988	120.85	93.9035	120.85	91.9413	120.85	93.9218	120.85	91.7164	120.85	93.8763	120.85	91.5364	120.85	93.7677	120.85	91.411	120.85	93.6013	120.85	91.3453	120.85	93.3887	120.85	91.339	120.85	93.1479	120.85	91.3859	120.85	92.9022	120.85	91.475	120.85	92.6766	120.85	91.5921	120.85	92.4914	120.85	91.7216	120.85	92.3564	120.85	91.8488	120.85	92.2681	120.85	91.9617	120.85	92.2121	120.85	92.0527	120.85	92.1688	120.85	92.1199
125.244	93.1733	125.244	92.902	125.244	93.415	125.244	92.6123	125.244	93.6174	125.244	92.3165	125.244	93.772	125.244	92.0285	125.244	93.872	125.244	91.7628	125.244	93.912	125.244	91.5339	125.244	93.8892	125.244	91.355	125.244	93.8041	125.244	91.2358	125.244	93.6613	125.244	91.1813	125.244	93.4713	125.244	91.19	125.244	93.2501	125.244	91.2547	125.244	93.0186	125.244	91.3628	125.244	92.7992	125.244	91.4993	125.244	92.6104	125.244	91.6479	125.244	92.4623	125.244	91.7942	125.244	92.3535	125.244	91.9268	125.244	92.2725	125.244	92.0387	125.244	92.203	125.244	92.129
129.639	93.0615	129.639	92.7877	129.639	93.3032	129.639	92.4935	129.639	93.5029	129.639	92.192	129.639	93.6521	129.639	91.8978	129.639	93.7441	129.639	91.6266	129.639	93.7741	129.639	91.394	129.639	93.7402	129.639	91.2141	129.639	93.644	129.639	91.0973	129.639	93.4921	129.639	91.0489	129.639	93.297	129.639	91.0672	129.639	93.0771	129.639	91.1442	129.639	92.8548	129.639	91.2667	129.639	92.6529	129.639	91.4183	129.639	92.4882	129.639	91.5818	129.639	92.3671	129.639	91.7417	129.639	92.2836	129.639	91.8854	129.639	92.2226	129.639	92.0045	129.639	92.1658	129.639	92.0967
134.033	92.9605	134.033	92.6702	134.033	93.2169	134.033	92.3584	134.033	93.4287	134.033	92.0394	134.033	93.587	134.033	91.7293	134.033	93.6848	134.033	91.4451	134.033	93.7172	134.033	91.204	134.033	93.682	134.033	91.021	134.033	93.5811	134.033	90.907	134.033	93.4212	134.033	90.8666	134.033	93.2154	134.033	90.8967	134.033	92.9832	134.033	90.9876	134.033	92.7488	134.033	91.124	134.033	92.5365	134.033	91.288	134.033	92.3651	134.033	91.4616	134.033	92.2415	134.033	91.6284	134.033	92.1595	134.033	91.7757	134.033	92.1025	134.033	91.8955	134.033	92.0505	134.033	91.9855
138.428	92.8007	138.428	92.4942	138.428	93.07	138.428	92.1636	138.428	93.2914	138.428	91.8243	138.428	93.456	138.428	91.4945	138.428	93.5576	138.428	91.1941	138.428	93.5917	138.428	90.9435	138.428	93.5574	138.428	90.7607	138.428	93.4575	138.428	90.6588	138.428	93.3004	138.428	90.6424	138.428	93.1009	138.428	90.707	138.428	92.8802	138.428	90.8391	138.428	92.6637	138.428	91.0196	138.428	92.4758	138.428	91.2266	138.428	92.3332	138.428	91.439	138.428	92.2395	138.428	91.6385	138.428	92.1842	138.428	91.8108	138.428	92.1476	138.428	91.947	138.428	92.1072	138.428	92.0444
143.555	92.7045	143.555	92.368	143.555	92.996	143.555	91.9995	143.555	93.2318	143.555	91.6149	143.555	93.4035	143.555	91.2336	143.555	93.5047	143.555	90.878	143.555	93.5311	143.555	90.5723	143.555	93.4814	143.555	90.3399	143.555	93.3588	143.555	90.1992	143.555	93.1722	143.555	90.1591	143.555	92.9376	143.555	90.2165	143.555	92.6787	143.555	90.3567	143.555	92.4249	143.555	90.5567	143.555	92.2048	143.555	90.7901	143.555	92.0385	143.555	91.0312	143.555	91.9306	143.555	91.258	143.555	91.8689	143.555	91.4537	143.555	91.8296	143.555	91.6078	143.555	91.7863	143.555	91.717
148.682	92.7082	148.682	92.3618	148.682	93.0039	148.682	91.9767	148.682	93.239	148.682	91.5683	148.682	93.4056	148.682	91.1551	148.682	93.4977	148.682	90.7594	148.682	93.5115	148.682	90.4065	148.682	93.4461	148.682	90.1222	148.682	93.3046	148.682	89.9286	148.682	93.0958	148.682	89.8398	148.682	92.8361	148.682	89.857	148.682	92.5494	148.682	89.9683	148.682	92.2654	148.682	90.1514	148.682	92.0139	148.682	90.3787	148.682	91.8163	148.682	90.6226	148.682	91.6785	148.682	90.8585	148.682	91.5889	148.682	91.0679	148.682	91.5242	148.682	91.2389	148.682	91.4577	148.682	91.3673
153.809	92.6353	153.809	92.2852	153.809	92.9311	153.809	91.8916	153.809	93.1638	153.809	91.4685	153.809	93.3264	153.809	91.0334	153.809	93.4138	153.809	90.608	153.809	93.4227	153.809	90.2183	153.809	93.3526	153.809	89.892	153.809	93.2068	153.809	89.6555	153.809	92.9944	153.809	89.5273	153.809	92.7313	153.809	89.5133	153.809	92.4405	153.809	89.6045	153.809	92.1504	153.809	89.7791	153.809	91.8893	153.809	90.0085	153.809	91.6772	153.809	90.2627	153.809	91.5195	153.809	90.5154	153.809	91.4052	153.809	90.7462	153.809	91.3127	153.809	90.942	153.809	91.2171	153.809	91.0977
159.668	92.4762	159.668	92.1226	159.668	92.7785	159.668	91.7296	159.668	93.0195	159.668	91.312	159.668	93.1914	159.668	90.8876	159.668	93.2882	159.668	90.4776	159.668	93.3068	159.668	90.1064	159.668	93.2471	159.668	89.7996	159.668	93.1139	159.668	89.5809	159.668	92.9176	159.668	89.4669	159.668	92.6761	159.668	89.4634	159.668	92.4137	159.668	89.5625	159.668	92.1583	159.668	89.7451	159.668	91.9348	159.668	89.9846	159.668	91.7577	159.668	90.2532	159.668	91.6261	159.668	90.525	159.668	91.5249	159.668	90.7791	159.668	91.4312	159.668	91.0006	159.668	91.3225	159.668	91.1818
164.795	92.0543	164.795	91.6741	164.795	92.3768	164.795	91.251	164.795	92.6305	164.795	90.8033	164.795	92.8071	164.795	90.3537	164.795	92.9014	164.795	89.929	164.795	92.9118	164.795	89.5593	164.795	92.8412	164.795	89.2744	164.795	92.6987	164.795	89.0992	164.795	92.5008	164.795	89.0475	164.795	92.272	164.795	89.1185	164.795	92.0428	164.795	89.2966	164.795	91.8441	164.795	89.5558	164.795	91.6977	164.795	89.8658	164.795	91.6085	164.795	90.1963	164.795	91.5622	164.795	90.5208	164.795	91.5317	164.795	90.8173	164.795	91.487	164.795	91.0693	164.795	91.4034	164.795	91.2658
170.654	92.2958	170.654	91.9129	170.654	92.6091	170.654	91.4739	170.654	92.8419	170.654	90.996	170.654	92.986	170.654	90.5011	170.654	93.0355	170.654	90.0166	170.654	92.9875	170.654	89.5751	170.654	92.8437	170.654	89.2128	170.654	92.6119	170.654	88.9641	170.654	92.3095	170.654	88.8533	170.654	91.9663	170.654	88.8874	170.654	91.6244	170.654	89.053	170.654	91.3323	170.654	89.3197	170.654	91.1306	170.654	89.6487	170.654	91.0351	170.654	90	170.654	91.0281	170.654	90.3381	170.654	91.0675	170.654	90.6339	170.654	91.1042	170.654	90.866	170.654	91.0973	170.654	91.0213
176.514	92.5532	176.514	92.1518	176.514	92.8823	176.514	91.6921	176.514	93.1287	176.514	91.1925	176.514	93.2845	176.514	90.6775	176.514	93.3446	176.514	90.1788	176.514	93.3064	176.514	89.7346	176.514	93.1712	176.514	89.3862	176.514	92.9466	176.514	89.1709	176.514	92.6488	176.514	89.1109	176.514	92.3059	176.514	89.2058	176.514	91.9592	176.514	89.4323	176.514	91.658	176.514	89.751	176.514	91.4463	176.514	90.1169	176.514	91.3456	176.514	90.4879	176.514	91.3433	176.514	90.8289	176.514	91.3992	176.514	91.113	176.514	91.4624	176.514	91.3219	176.514	91.4883	176.514	91.4465
183.105	92.7821	183.105	92.342	183.105	93.1411	183.105	91.8324	183.105	93.4101	183.105	91.269	183.105	93.5826	183.105	90.6741	183.105	93.654	183.105	90.0785	183.105	93.6218	183.105	89.5236	183.105	93.4871	183.105	89.0607	183.105	93.2558	183.105	88.7429	183.105	92.942	183.105	88.6107	183.105	92.5711	183.105	88.6756	183.105	92.1815	183.105	88.9139	183.105	91.8224	183.105	89.2751	183.105	91.5423	183.105	89.6994	183.105	91.3709	183.105	90.1318	183.105	91.3053	183.105	90.5287	183.105	91.3105	183.105	90.8597	183.105	91.3353	183.105	91.1061	183.105	91.3309	183.105	91.2613
189.697	93.1047	189.697	92.6771	189.697	93.4464	189.697	92.1728	189.697	93.6953	189.697	91.6044	189.697	93.8467	189.697	90.9901	189.697	93.8977	189.697	90.356	189.697	93.8478	189.697	89.7393	189.697	93.6999	189.697	89.1899	189.697	93.4621	189.697	88.7665	189.697	93.1505	189.697	88.5242	189.697	92.7911	189.697	88.4945	189.697	92.4214	189.697	88.6695	189.697	92.0852	189.697	89.0046	189.697	91.8218	189.697	89.4355	189.697	91.6508	189.697	89.8989	189.697	91.5628	189.697	90.3433	189.697	91.5233	189.697	90.7326	189.697	91.4871	189.697	91.0448	189.697	91.4128	189.697	91.2706
196.289	93.1123	196.289	92.6933	196.289	93.4411	196.289	92.1925	196.289	93.6734	196.289	91.6215	196.289	93.8048	196.289	90.9966	196.289	93.8326	196.289	90.3424	196.289	93.757	196.289	89.6947	196.289	93.5822	196.289	89.1043	196.289	93.3187	196.289	88.6351	196.289	92.9862	196.289	88.3515	196.289	92.6169	196.289	88.2966	196.289	92.2544	196.289	88.4702	196.289	91.9471	196.289	88.8272	196.289	91.733	196.289	89.2975	196.289	91.6227	196.289	89.8096	196.289	91.5931	196.289	90.3053	196.289	91.5976	196.289	90.7433	196.289	91.5849	196.289	91.0974	196.289	91.5128	196.289	91.3543
202.881	93.1612	202.881	92.7424	202.881	93.4869	202.881	92.2401	202.881	93.7116	202.881	91.6669	202.881	93.829	202.881	91.0393	202.881	93.8352	202.881	90.3803	202.881	93.7284	202.881	89.7229	202.881	93.5113	202.881	89.1132	202.881	93.1934	202.881	88.61	202.881	92.7947	202.881	88.2766	202.881	92.3501	202.881	88.1615	202.881	91.9109	202.881	88.2756	202.881	91.5378	202.881	88.5849	202.881	91.2818	202.881	89.0241	202.881	91.1604	202.881	89.5197	202.881	91.1468	202.881	90.0078	202.881	91.1833	202.881	90.441	202.881	91.2064	202.881	90.7874	202.881	91.1656	202.881	91.03
210.205	93.1122	210.205	92.6935	210.205	93.4365	210.205	92.1882	210.205	93.6598	210.205	91.6065	210.205	93.7776	210.205	90.9622	210.205	93.7869	210.205	90.2749	210.205	93.6874	210.205	89.5746	210.205	93.4829	210.205	88.9055	210.205	93.1837	210.205	88.3292	210.205	92.8102	210.205	87.9189	210.205	92.3955	210.205	87.7394	210.205	91.9865	210.205	87.8178	210.205	91.6366	210.205	88.126	210.205	91.3882	210.205	88.5932	210.205	91.2537	210.205	89.1351	210.205	91.2073	210.205	89.6783	210.205	91.197	210.205	90.1694	210.205	91.166	210.205	90.5742	210.205	91.0682	210.205	90.8749
217.529	93.0485	217.529	92.6435	217.529	93.3581	217.529	92.1537	217.529	93.564	217.529	91.5921	217.529	93.6601	217.529	90.9756	217.529	93.6431	217.529	90.3267	217.529	93.5132	217.529	89.6771	217.529	93.2763	217.529	89.0707	217.529	92.947	217.529	88.5655	217.529	92.5523	217.529	88.2263	217.529	92.1353	217.529	88.1071	217.529	91.7539	217.529	88.227	217.529	91.4679	217.529	88.5573	217.529	91.3161	217.529	89.0321	217.529	91.2951	217.529	89.574	217.529	91.359	217.529	90.1132	217.529	91.4414	217.529	90.597	217.529	91.4804	217.529	90.9896	217.529	91.4315	217.529	91.2702
225.586	93.2863	225.586	92.8827	225.586	93.5786	225.586	92.3762	225.586	93.753	225.586	91.7767	225.586	93.8047	225.586	91.0977	225.586	93.7311	225.586	90.3585	225.586	93.5336	225.586	89.5892	225.586	93.2197	225.586	88.8385	225.586	92.8071	225.586	88.1802	225.586	92.33	225.586	87.7106	225.586	91.8441	225.586	87.5225	225.586	91.4248	225.586	87.6575	225.586	91.1476	225.586	88.076	225.586	91.0532	225.586	88.6776	225.586	91.1208	225.586	89.35	225.586	91.2784	225.586	90.0025	225.586	91.4386	225.586	90.5734	225.586	91.5293	225.586	91.0254	225.586	91.5036	225.586	91.3378
232.91	93.5039	232.91	93.1306	232.91	93.767	232.91	92.657	232.91	93.9112	232.91	92.0939	232.91	93.9291	232.91	91.4538	232.91	93.8152	232.91	90.7528	232.91	93.5669	232.91	90.0137	232.91	93.1871	232.91	89.2721	232.91	92.6888	232.91	88.5831	232.91	92.1018	232.91	88.0247	232.91	91.483	232.91	87.6861	232.91	90.9199	232.91	87.6344	232.91	90.5148	232.91	87.8738	232.91	90.3385	232.91	88.337	232.91	90.3826	232.91	88.9192	232.91	90.5622	232.91	89.5192	232.91	90.7662	232.91	90.0598	232.91	90.9031	232.91	90.4902	232.91	90.9165	232.91	90.7802
241.699	93.4626	241.699	93.0688	241.699	93.7426	241.699	92.5707	241.699	93.9006	241.699	91.9791	241.699	93.93	241.699	91.307	241.699	93.826	241.699	90.5714	241.699	93.5867	241.699	89.7972	241.699	93.2154	241.699	89.0234	241.699	92.7242	241.699	88.311	241.699	92.1409	241.699	87.7462	241.699	91.5186	241.699	87.4257	241.699	90.9401	241.699	87.4164	241.699	90.5063	241.699	87.711	241.699	90.294	241.699	88.2268	241.699	90.3066	241.699	88.848	241.699	90.4683	241.699	89.4703	241.699	90.6698	241.699	90.0183	241.699	90.8155	241.699	90.4445	241.699	90.8435	241.699	90.7226
249.756	93.7851	249.756	93.4276	249.756	94.0267	249.756	92.9636	249.756	94.1437	249.756	92.4028	249.756	94.1284	249.756	91.7553	249.756	93.9749	249.756	91.0331	249.756	93.6802	249.756	90.2529	249.756	93.2468	249.756	89.4426	249.756	92.6873	249.756	88.6508	249.756	92.033	249.756	87.9573	249.756	91.3449	249.756	87.4717	249.756	90.7212	249.756	87.3005	249.756	90.2806	249.756	87.4842	249.756	90.1056	249.756	87.9608	249.756	90.1832	249.756	88.6017	249.756	90.4101	249.756	89.2758	249.756	90.6567	249.756	89.8855	249.756	90.821	249.756	90.3692	249.756	90.8422	249.756	90.6929
258.545	93.7106	258.545	93.3687	258.545	93.9428	258.545	92.929	258.545	94.0546	258.545	92.4039	258.545	94.0369	258.545	91.8064	258.545	93.8826	258.545	91.1505	258.545	93.5876	258.545	90.4534	258.545	93.1526	258.545	89.7398	258.545	92.5876	258.545	89.0492	258.545	91.9197	258.545	88.4427	258.545	91.2055	258.545	88.0027	258.545	90.5415	258.545	87.8129	258.545	90.053	258.545	87.9155	258.545	89.8398	258.545	88.2783	258.545	89.9051	258.545	88.8059	258.545	90.148	258.545	89.3846	258.545	90.4303	258.545	89.9185	258.545	90.6398	258.545	90.3407	258.545	90.7097	258.545	90.6107
268.066	93.2908	268.066	92.9217	268.066	93.5416	268.066	92.445	268.066	93.6654	268.066	91.8731	268.066	93.6548	268.066	91.2199	268.066	93.5052	268.066	90.5027	268.066	93.2145	268.066	89.7449	268.066	92.7855	268.066	88.9816	268.066	92.2296	268.066	88.2679	268.066	91.5743	268.066	87.6843	268.066	90.8746	268.066	87.3285	268.066	90.2227	268.066	87.2781	268.066	89.7393	268.066	87.5413	268.066	89.524	268.066	88.0419	268.066	89.5875	268.066	88.6591	268.066	89.8385	268.066	89.2779	268.066	90.1429	268.066	89.8133	268.066	90.387	268.066	90.2117	268.066	90.499	268.066	90.4436
277.588	93.072	277.588	92.7865	277.588	93.2414	277.588	92.3942	277.588	93.2867	277.588	91.9037	277.588	93.2011	277.588	91.3236	277.588	92.9808	277.588	90.6623	277.588	92.6261	277.588	89.9311	277.588	92.1445	277.588	89.1504	277.588	91.5551	277.588	88.3599	277.588	90.8972	277.588	87.6335	277.588	90.2397	277.588	87.0855	277.588	89.6833	277.588	86.8443	277.588	89.3364	277.588	86.9792	277.588	89.2586	277.588	87.4399	277.588	89.4157	277.588	88.0855	277.588	89.7	277.588	88.7661	277.588	89.99	277.588	89.3722	277.588	90.1924	277.588	89.8391	277.588	90.2502	277.588	90.1351
287.109	92.6125	287.109	92.3329	287.109	92.7701	287.109	91.9442	287.109	92.794	287.109	91.4589	287.109	92.6745	287.109	90.8891	287.109	92.405	287.109	90.2462	287.109	91.9841	287.109	89.543	287.109	91.4188	287.109	88.799	287.109	90.7324	287.109	88.0507	287.109	89.9777	287.109	87.3643	287.109	89.2535	287.109	86.844	287.109	88.7049	287.109	86.6108	287.109	88.472	287.109	86.7381	287.109	88.5921	287.109	87.1906	287.109	88.9626	287.109	87.8399	287.109	89.4165	287.109	88.5392	287.109	89.8127	287.109	89.1748	287.109	90.065	287.109	89.6754	287.109	90.1323	287.109	90.001
297.363	92.5353	297.363	92.2126	297.363	92.7289	297.363	91.7752	297.363	92.7798	297.363	91.2377	297.363	92.6768	297.363	90.6133	297.363	92.411	297.363	89.9133	297.363	91.9776	297.363	89.1479	297.363	91.3774	297.363	88.3307	297.363	90.6239	297.363	87.4893	297.363	89.7572	297.363	86.6819	297.363	88.8676	297.363	86.0162	297.363	88.1157	297.363	85.6433	297.363	87.6989	297.363	85.6871	297.363	87.7219	297.363	86.1409	297.363	88.0933	297.363	86.8583	297.363	88.6034	297.363	87.6522	297.363	89.0648	297.363	88.3776	297.363	89.3655	297.363	88.9467	297.363	89.4536	297.363	89.3127
307.617	91.7146	307.617	91.3973	307.617	91.9044	307.617	90.97	307.617	91.9515	307.617	90.4512	307.617	91.8439	307.617	89.8597	307.617	91.5733	307.617	89.2138	307.617	91.1363	307.617	88.5316	307.617	90.5381	307.617	87.8351	307.617	89.8003	307.617	87.1576	307.617	88.9757	307.617	86.554	307.617	88.1707	307.617	86.1065	307.617	87.5516	307.617	85.9102	307.617	87.2884	307.617	86.0269	307.617	87.4312	307.617	86.4355	307.617	87.8584	307.617	87.0345	307.617	88.3753	307.617	87.6941	307.617	88.8244	307.617	88.3035	307.617	89.1159	307.617	88.7866	307.617	89.21	307.617	89.0973
318.604	91.5541	318.604	91.284	318.604	91.6736	318.604	90.88	318.604	91.6256	318.604	90.3579	318.604	91.3936	318.604	89.7304	318.604	90.9623	318.604	89.0065	318.604	90.3178	318.604	88.1912	318.604	89.4511	318.604	87.2901	318.604	88.3687	318.604	86.3192	318.604	87.1232	318.604	85.3285	318.604	85.8808	318.604	84.4389	318.604	84.9907	318.604	83.8647	318.604	84.8406	318.604	83.83	318.604	85.4299	318.604	84.3679	318.604	86.3577	318.604	85.2656	318.604	87.2521	318.604	86.2511	318.604	87.9297	318.604	87.1364	318.604	88.3286	318.604	87.823	318.604	88.4379	318.604	88.2646
329.59	91.8637	329.59	91.5782	329.59	92.018	329.59	91.1803	329.59	92.0231	329.59	90.6893	329.59	91.8635	329.59	90.1223	329.59	91.5246	329.59	89.4922	329.59	90.9931	329.59	88.8069	329.59	90.2566	329.59	88.0703	329.59	89.3067	329.59	87.2885	329.59	88.1515	329.59	86.4818	329.59	86.8491	329.59	85.705	329.59	85.5779	329.59	85.0669	329.59	84.6944	329.59	84.7204	329.59	84.5533	329.59	84.7794	329.59	85.0984	329.59	85.2139	329.59	85.9214	329.59	85.8575	329.59	86.6745	329.59	86.5174	329.59	87.1928	329.59	87.0501	329.59	87.4246	329.59	87.3688
341.309	91.5314	341.309	91.2547	341.309	91.663	341.309	90.8506	341.309	91.633	341.309	90.3368	341.309	91.427	341.309	89.73	341.309	91.0325	341.309	89.0441	341.309	90.4394	341.309	88.2912	341.309	89.6417	341.309	87.4849	341.309	88.6451	341.309	86.6507	341.309	87.4874	341.309	85.8434	341.309	86.2851	341.309	85.1685	341.309	85.2976	341.309	84.7805	341.309	84.8835	341.309	84.8122	341.309	85.1933	341.309	85.2625	341.309	85.9746	341.309	85.9795	341.309	86.8546	341.309	86.7655	341.309	87.5958	341.309	87.4674	341.309	88.097	341.309	87.9919	341.309	88.3278	341.309	88.288
353.76	91.797	353.76	91.516	353.76	91.9396	353.76	91.118	353.76	91.9238	353.76	90.6235	353.76	91.7317	353.76	90.0497	353.76	91.3472	353.76	89.4079	353.76	90.7552	353.76	88.7019	353.76	89.9417	353.76	87.9306	353.76	88.8966	353.76	87.0952	353.76	87.6279	353.76	86.2157	353.76	86.2046	353.76	85.36	353.76	84.8533	353.76	84.6761	353.76	84.0348	353.76	84.3753	353.76	84.1453	353.76	84.5938	353.76	84.988	353.76	85.2429	353.76	86.034	353.76	86.0756	353.76	86.9311	353.76	86.8622	353.76	87.5409	353.76	87.46	353.76	87.8279	353.76	87.7945
366.211	92.1265	366.211	91.8496	366.211	92.2522	366.211	91.4434	366.211	92.2073	366.211	90.9303	366.211	91.9754	366.211	90.3301	366.211	91.5427	366.211	89.6571	366.211	90.8975	366.211	88.917	366.211	90.0304	366.211	88.1081	366.211	88.939	366.211	87.2274	366.211	87.6442	366.211	86.2855	366.211	86.2354	366.211	85.3369	366.211	84.9556	366.211	84.5213	366.211	84.2305	366.211	84.0696	366.211	84.3545	366.211	84.1725	366.211	85.1064	366.211	84.7781	366.211	86.0269	366.211	85.6232	366.211	86.8115	366.211	86.4462	366.211	87.3332	366.211	87.0867	366.211	87.5533	366.211	87.467
378.662	92.5778	378.662	92.2561	378.662	92.7478	378.662	91.811	378.662	92.7412	378.662	91.2718	378.662	92.5367	378.662	90.6655	378.662	92.1156	378.662	90.0117	378.662	91.4601	378.662	89.3195	378.662	90.553	378.662	88.5874	378.662	89.3814	378.662	87.8104	378.662	87.956	378.662	86.9942	378.662	86.3749	378.662	86.1825	378.662	84.9682	378.662	85.4904	378.662	84.3505	378.662	85.1107	378.662	84.8344	378.662	85.2136	378.662	85.9378	378.662	85.7802	378.662	87.0639	378.662	86.5975	378.662	87.9317	378.662	87.4242	378.662	88.4631	378.662	88.0956	378.662	88.6536	378.662	88.5214
392.578	92.5946	392.578	92.2616	392.578	92.7739	392.578	91.7999	392.578	92.7787	392.578	91.2379	392.578	92.5928	392.578	90.6037	392.578	92.2029	392.578	89.9202	392.578	91.5969	392.578	89.2007	392.578	90.7621	392.578	88.4469	392.578	89.6861	392.578	87.6533	392.578	88.3648	392.578	86.8205	392.578	86.836	392.578	85.9803	392.578	85.2712	392.578	85.2331	392.578	84.12	392.578	84.7659	392.578	83.9498	392.578	84.7714	392.578	84.7279	392.578	85.2658	392.578	85.8468	392.578	86.0424	392.578	86.8401	392.578	86.8385	392.578	87.523	392.578	87.4661	392.578	87.8487	392.578	87.8208
405.762	92.73	405.762	92.3938	405.762	92.8851	405.762	91.9041	405.762	92.8368	405.762	91.2925	405.762	92.5677	405.762	90.5908	405.762	92.0649	405.762	89.8261	405.762	91.319	405.762	89.0153	405.762	90.325	405.762	88.1632	405.762	89.0889	405.762	87.2685	405.762	87.6506	405.762	86.3415	405.762	86.1472	405.762	85.4409	405.762	84.9179	405.762	84.7228	405.762	84.4594	405.762	84.4384	405.762	84.9361	405.762	84.7611	405.762	85.9388	405.762	85.5768	405.762	86.9932	405.762	86.5778	405.762	87.8506	405.762	87.4986	405.762	88.4181	405.762	88.191	405.762	88.6663	405.762	88.5886
420.41	93.3652	420.41	93.0431	420.41	93.5248	420.41	92.591	420.41	93.4935	420.41	92.0438	420.41	93.2472	420.41	91.4331	420.41	92.7643	420.41	90.7808	420.41	92.0224	420.41	90.0932	420.41	90.9939	420.41	89.3586	420.41	89.6433	420.41	88.5493	420.41	87.9315	420.41	87.6287	420.41	85.8573	420.41	86.5701	420.41	83.6426	420.41	85.3965	420.41	82.1705	420.41	84.2658	420.41	82.5015	420.41	83.5522	420.41	83.9823	420.41	83.6496	420.41	85.4688	420.41	84.4751	420.41	86.5507	420.41	85.5494	420.41	87.1704	420.41	86.487	420.41	87.3475	420.41	87.109
435.059	92.806	435.059	92.4288	435.059	93.0096	435.059	91.915	435.059	93.0107	435.059	91.3076	435.059	92.7881	435.059	90.6496	435.059	92.3256	435.059	89.9754	435.059	91.611	435.059	89.3017	435.059	90.6337	435.059	88.6253	435.059	89.3869	435.059	87.9286	435.059	87.88	435.059	87.1964	435.059	86.186	435.059	86.444	435.059	84.5702	435.059	85.7568	435.059	83.6237	435.059	85.3159	435.059	83.8503	435.059	85.3242	435.059	84.921	435.059	85.8152	435.059	86.163	435.059	86.5865	435.059	87.2029	435.059	87.3686	435.059	87.9168	435.059	87.9698	435.059	88.2775	435.059	88.2884
450.439	92.9622	450.439	92.5103	450.439	93.2326	450.439	91.9188	450.439	93.2919	450.439	91.2406	450.439	93.1196	450.439	90.5319	450.439	92.701	450.439	89.8369	450.439	92.0223	450.439	89.1714	450.439	91.0665	450.439	88.5148	450.439	89.8096	450.439	87.8167	450.439	88.2245	450.439	87.0153	450.439	86.3205	450.439	86.0669	450.439	84.3133	450.439	85.0057	450.439	83.0094	450.439	84.0595	450.439	83.3952	450.439	83.7157	450.439	84.9334	450.439	84.3203	450.439	86.5276	450.439	85.5556	450.439	87.7325	450.439	86.8552	450.439	88.462	450.439	87.886	450.439	88.7196	450.439	88.5213
466.553	93.0498	466.553	92.5014	466.553	93.3947	466.553	91.7912	466.553	93.5092	466.553	90.9789	466.553	93.377	466.553	90.1379	466.553	92.9877	466.553	89.3407	466.553	92.3332	466.553	88.6333	466.553	91.4033	466.553	88.0154	466.553	90.1836	466.553	87.4405	466.553	88.6604	466.553	86.8363	466.553	86.8535	466.553	86.1366	466.553	84.9456	466.553	85.3254	466.553	83.5561	466.553	84.5091	466.553	83.5364	466.553	83.9931	466.553	84.6847	466.553	84.1526	466.553	86.0646	466.553	84.9965	466.553	87.1569	466.553	86.1141	466.553	87.8147	466.553	87.1074	466.553	88.0152	466.553	87.7688
482.666	93.106	482.666	92.5665	482.666	93.403	482.666	91.8145	482.666	93.4423	482.666	90.9014	482.666	93.2176	482.666	89.9047	482.666	92.7277	482.666	88.9218	482.666	91.9731	482.666	88.0463	482.666	90.9529	482.666	87.3281	482.666	89.6637	482.666	86.7491	482.666	88.1055	482.666	86.2362	482.666	86.3151	482.666	85.7058	482.666	84.4812	482.666	85.1205	482.666	83.1703	482.666	84.5549	482.666	83.1368	482.666	84.244	482.666	84.2422	482.666	84.4708	482.666	85.6442	482.666	85.2483	482.666	86.8135	482.666	86.2572	482.666	87.5701	482.666	87.1496	482.666	87.8708	482.666	87.7187
500.244	93.2521	500.244	92.6554	500.244	93.5812	500.244	91.8188	500.244	93.6253	500.244	90.785	500.244	93.3727	500.244	89.6164	500.244	92.814	500.244	88.3939	500.244	91.9394	500.244	87.2057	500.244	90.7385	500.244	86.123	500.244	89.205	500.244	85.1748	500.244	87.3637	500.244	84.3434	500.244	85.3644	500.244	83.6004	500.244	83.6936	500.244	82.981	500.244	83.1452	500.244	82.6561	500.244	83.8422	500.244	82.8766	500.244	85.0361	500.244	83.6981	500.244	86.1536	500.244	84.8512	500.244	86.9932	500.244	85.9893	500.244	87.502	500.244	86.8908	500.244	87.6611	500.244	87.4578
517.822	93.0179	517.822	92.4073	517.822	93.3839	517.822	91.5822	517.822	93.4864	517.822	90.5882	517.822	93.3132	517.822	89.4887	517.822	92.8555	517.822	88.3595	517.822	92.1043	517.822	87.2718	517.822	91.0477	517.822	86.2641	517.822	89.6678	517.822	85.3185	517.822	87.9461	517.822	84.3609	517.822	85.9012	517.822	83.2985	517.822	83.7527	517.822	82.1119	517.822	82.2973	517.822	81.0628	517.822	82.5368	517.822	80.8768	517.822	83.9863	517.822	82.0081	517.822	85.5479	517.822	83.7994	517.822	86.7516	517.822	85.4798	517.822	87.4876	517.822	86.7341	517.822	87.7357	517.822	87.4875
536.133	93.6037	536.133	93.0002	536.133	93.9074	536.133	92.1283	536.133	93.8915	536.133	91.0364	536.133	93.5432	536.133	89.796	536.133	92.8554	536.133	88.5051	536.133	91.8258	536.133	87.2786	536.133	90.4594	536.133	86.2169	536.133	88.7782	536.133	85.3547	536.133	86.8521	536.133	84.6205	536.133	84.8826	536.133	83.8433	536.133	83.344	536.133	82.8027	536.133	82.882	536.133	81.3167	536.133	83.5965	536.133	79.5523	536.133	84.8884	536.133	78.9398	536.133	86.1828	536.133	80.8435	536.133	87.1699	536.133	83.5082	536.133	87.6929	536.133	85.6251	536.133	87.6581	536.133	86.9925
554.443	93.112	554.443	92.422	554.443	93.4965	554.443	91.4568	554.443	93.5588	554.443	90.2672	554.443	93.2905	554.443	88.9325	554.443	92.6887	554.443	87.5634	554.443	91.7544	554.443	86.2933	554.443	90.4939	554.443	85.2446	554.443	88.9217	554.443	84.47	554.443	87.0718	554.443	83.9029	554.443	85.035	554.443	83.3668	554.443	83.0743	554.443	82.6455	554.443	81.8215	554.443	81.5835	554.443	81.9783	554.443	80.2986	554.443	83.2662	554.443	79.663	554.443	84.7918	554.443	80.7879	554.443	86.0013	554.443	82.92	554.443	86.6767	554.443	84.8381	554.443	86.7332	554.443	86.1278
574.219	93.4214	574.219	92.6584	574.219	93.9023	574.219	91.6518	574.219	94.076	574.219	90.4603	574.219	93.9254	574.219	89.1682	574.219	93.4391	574.219	87.884	574.219	92.6092	574.219	86.7299	574.219	91.4307	574.219	85.8178	574.219	89.9	574.219	85.2039	574.219	88.0192	574.219	84.8237	574.219	85.8214	574.219	84.4702	574.219	83.4944	574.219	83.8449	574.219	81.7388	574.219	82.6042	574.219	81.7191	574.219	80.3496	574.219	83.2451	574.219	76.9928	574.219	85.0291	574.219	76.4603	574.219	86.3728	574.219	80.5675	574.219	87.0463	574.219	83.9304	574.219	86.9466	574.219	85.9671
594.727	93.2072	594.727	92.5651	594.727	93.6157	594.727	91.7288	594.727	93.7576	594.727	90.7406	594.727	93.6074	594.727	89.6412	594.727	93.146	594.727	88.4669	594.727	92.3592	594.727	87.2584	594.727	91.2358	594.727	86.0865	594.727	89.7653	594.727	85.0723	594.727	87.9444	594.727	84.3328	594.727	85.8245	594.727	83.8361	594.727	83.7004	594.727	83.3388	594.727	82.4508	594.727	82.5063	594.727	82.8972	594.727	81.0898	594.727	84.3516	594.727	79.3475	594.727	85.7927	594.727	79.1246	594.727	86.7881	594.727	81.4357	594.727	87.1929	594.727	84.0509	594.727	86.9263	594.727	85.9064
615.234	93.3866	615.234	92.8089	615.234	93.7111	615.234	92.0235	615.234	93.7541	615.234	91.0887	615.234	93.5047	615.234	90.0662	615.234	92.9678	615.234	89.0088	615.234	92.1605	615.234	87.9528	615.234	91.1054	615.234	86.9255	615.234	89.8175	615.234	85.973	615.234	88.2839	615.234	85.1834	615.234	86.4431	615.234	84.6414	615.234	84.2108	615.234	84.2989	615.234	81.7667	615.234	83.9113	615.234	80.5175	615.234	83.1358	615.234	81.8454	615.234	81.6733	615.234	83.8946	615.234	79.5984	615.234	85.2511	615.234	78.6775	615.234	85.6394	615.234	80.7534	615.234	85.0167	615.234	83.3441
637.207	94.1393	637.207	93.4315	637.207	94.4749	637.207	92.4018	637.207	94.41	637.207	91.1279	637.207	93.9375	637.207	89.718	637.207	93.0753	637.207	88.306	637.207	91.8815	637.207	87.0305	637.207	90.4753	637.207	86.0067	637.207	89.0352	637.207	85.2981	637.207	87.709	637.207	84.8837	637.207	86.4471	637.207	84.6234	637.207	84.9712	637.207	84.2665	637.207	83.0671	637.207	83.4991	637.207	81.5673	637.207	81.9809	637.207	82.68	637.207	79.5142	637.207	85.2248	637.207	77.7743	637.207	87.1318	637.207	80.4577	637.207	87.9794	637.207	84.0488	637.207	87.769	637.207	86.4903
659.912	93.1855	659.912	92.2376	659.912	93.8008	659.912	91.0313	659.912	94.0431	659.912	89.679	659.912	93.897	659.912	88.3197	659.912	93.365	659.912	87.0774	659.912	92.4665	659.912	86.0084	659.912	91.2419	659.912	85.0887	659.912	89.7626	659.912	84.2806	659.912	88.1348	659.912	83.6365	659.912	86.4737	659.912	83.3094	659.912	84.856	659.912	83.3438	659.912	83.3895	659.912	83.4768	659.912	82.5472	659.912	83.2805	659.912	82.997	659.912	82.3929	659.912	84.2923	659.912	80.7121	659.912	85.3586	659.912	79.2651	659.912	85.6192	659.912	80.4632	659.912	84.8623	659.912	83.0201
683.35	93.6694	683.35	92.7411	683.35	94.2516	683.35	91.546	683.35	94.4422	683.35	90.203	683.35	94.2207	683.35	88.8536	683.35	93.5882	683.35	87.6146	683.35	92.5723	683.35	86.5261	683.35	91.244	683.35	85.55	683.35	89.738	683.35	84.6289	683.35	88.2319	683.35	83.7692	683.35	86.8173	683.35	83.0938	683.35	85.3575	683.35	82.7472	683.35	83.6604	683.35	82.6487	683.35	82.2744	683.35	82.4479	683.35	82.8652	683.35	81.7977	683.35	84.8676	683.35	80.7577	683.35	86.4209	683.35	80.5147	683.35	86.9291	683.35	82.2952	683.35	86.3291	683.35	84.6749
706.787	93.5489	706.787	92.5615	706.787	94.1977	706.787	91.3452	706.787	94.4315	706.787	90.042	706.787	94.2001	706.787	88.7998	706.787	93.4765	706.787	87.7203	706.787	92.2667	706.787	86.8144	706.787	90.6484	706.787	86.0061	706.787	88.8534	706.787	85.1811	706.787	87.2923	706.787	84.2623	706.787	86.2107	706.787	83.308	706.787	85.2551	706.787	82.5563	706.787	83.8462	706.787	82.1841	706.787	82.1811	706.787	81.917	706.787	82.4105	706.787	81.1808	706.787	84.6933	706.787	79.6846	706.787	86.5202	706.787	78.8107	706.787	87.0961	706.787	81.1528	706.787	86.3585	706.787	84.305
731.689	92.6177	731.689	91.447	731.689	93.5628	731.689	90.1929	731.689	94.1686	731.689	89.0015	731.689	94.3541	731.689	87.9902	731.689	94.0646	731.689	87.2292	731.689	93.2663	731.689	86.7234	731.689	91.9522	731.689	86.3678	731.689	90.1728	731.689	85.9443	731.689	88.123	731.689	85.2069	731.689	86.2273	731.689	84.0185	731.689	84.8604	731.689	82.5859	731.689	83.8241	731.689	81.7103	731.689	82.9231	731.689	81.8743	731.689	83.0111	731.689	82.1281	731.689	84.4472	731.689	81.4104	731.689	85.7734	731.689	79.4654	731.689	85.9773	731.689	78.7963	731.689	84.7171	731.689	81.8943
758.057	92.7009	758.057	91.8227	758.057	93.4361	758.057	90.8911	758.057	93.9247	758.057	89.9529	758.057	94.0759	758.057	89.0154	758.057	93.8254	758.057	88.0919	758.057	93.1385	758.057	87.253	758.057	92.013	758.057	86.5998	758.057	90.4931	758.057	86.1219	758.057	88.6997	758.057	85.604	758.057	86.8279	758.057	84.7416	758.057	84.9973	758.057	83.358	758.057	83.1509	758.057	81.7233	758.057	81.8526	758.057	80.828	758.057	82.7634	758.057	81.0155	758.057	84.8601	758.057	81.0475	758.057	86.1409	758.057	80.1175	758.057	86.0275	758.057	79.4114	758.057	84.4203	758.057	81.5565
784.424	92.4957	784.424	91.9259	784.424	92.9872	784.424	91.2625	784.424	93.3651	784.424	90.4755	784.424	93.5442	784.424	89.5623	784.424	93.4227	784.424	88.5758	784.424	92.918	784.424	87.6291	784.424	91.9881	784.424	86.8456	784.424	90.6524	784.424	86.2374	784.424	89.0295	784.424	85.6191	784.424	87.3436	784.424	84.6898	784.424	85.7221	784.424	83.2334	784.424	83.8974	784.424	81.4639	784.424	81.7089	784.424	80.4612	784.424	81.1424	784.424	80.7675	784.424	83.3555	784.424	81.0282	784.424	85.1816	784.424	80.3262	784.424	85.4393	784.424	79.6457	784.424	84.0669	784.424	81.4488
812.256	93.5052	812.256	93.0327	812.256	93.5907	812.256	92.1879	812.256	93.3427	812.256	91.0407	812.256	92.8837	812.256	89.7061	812.256	92.3615	812.256	88.3321	812.256	91.8492	812.256	87.0804	812.256	91.2779	812.256	86.1211	812.256	90.487	812.256	85.5982	812.256	89.3241	812.256	85.4257	812.256	87.7164	812.256	85.1539	812.256	85.7618	812.256	84.1661	812.256	83.9217	812.256	81.7829	812.256	83.0594	812.256	77.2334	812.256	83.495	812.256	74.7732	812.256	84.3506	812.256	79.1463	812.256	84.6585	812.256	81.5324	812.256	83.9936	812.256	81.9607	812.256	82.626	812.256	81.7985
840.82	93.4107	840.82	92.2415	840.82	94.0271	840.82	90.6186	840.82	94.0602	840.82	88.7599	840.82	93.5245	840.82	87.0073	840.82	92.4912	840.82	85.6501	840.82	91.1395	840.82	84.734	840.82	89.8134	840.82	84.2805	840.82	88.8825	840.82	84.4398	840.82	88.3255	840.82	85.0535	840.82	87.6625	840.82	85.5562	840.82	86.3269	840.82	85.4312	840.82	83.8897	840.82	84.3609	840.82	80.8569	840.82	82.1899	840.82	80.9204	840.82	79.2876	840.82	83.1975	840.82	77.5721	840.82	84.2537	840.82	77.793	840.82	83.6768	840.82	78.1953	840.82	81.7267	840.82	79.3586
870.85	92.9248	870.85	91.8909	870.85	93.7113	870.85	90.7582	870.85	94.1382	870.85	89.6857	870.85	94.1162	870.85	88.7406	870.85	93.5645	870.85	87.7866	870.85	92.4147	870.85	86.527	870.85	90.67	870.85	84.7548	870.85	88.6434	870.85	82.9573	870.85	87.3253	870.85	82.7591	870.85	87.3451	870.85	84.0067	870.85	87.568	870.85	84.8329	870.85	86.7962	870.85	84.4501	870.85	84.6019	870.85	82.7329	870.85	82.4397	870.85	80.235	870.85	83.6112	870.85	79.0418	870.85	85.1896	870.85	79.4854	870.85	85.0661	870.85	79.8225	870.85	83.3014	870.85	80.9303
901.611	92.9754	901.611	91.8368	901.611	93.741	901.611	90.5762	901.611	94.0468	901.611	89.5867	901.611	93.9	901.611	89.1178	901.611	93.3391	901.611	88.9766	901.611	92.3855	901.611	88.7144	901.611	91.0246	901.611	87.9771	901.611	89.2546	901.611	86.6942	901.611	87.3036	901.611	85.3041	901.611	85.94	901.611	84.6684	901.611	85.6899	901.611	84.7182	901.611	85.6702	901.611	84.3512	901.611	85.1039	901.611	82.7573	901.611	84.5141	901.611	79.7516	901.611	84.7663	901.611	77.388	901.611	84.9484	901.611	78.2634	901.611	83.8335	901.611	78.9147	901.611	81.2776	901.611	79.1009
933.105	93.0212	933.105	91.4987	933.105	94.1428	933.105	90.0818	933.105	94.6444	933.105	89.2814	933.105	94.4976	933.105	89.028	933.105	93.765	933.105	88.9201	933.105	92.5476	933.105	88.7195	933.105	90.9424	933.105	88.2945	933.105	89.0342	933.105	87.5225	933.105	87.0322	933.105	86.4364	933.105	85.4845	933.105	85.4723	933.105	84.6611	933.105	85.1821	933.105	83.691	933.105	85.219	933.105	82.0096	933.105	84.6353	933.105	81.7476	933.105	82.7279	933.105	83.6511	933.105	79.35	933.105	84.6147	933.105	77.3287	933.105	83.8848	933.105	79.0911	933.105	82.1943	933.105	80.7045
966.064	92.342	966.064	91.4646	966.064	93.5253	966.064	91.2757	966.064	94.3977	966.064	91.3831	966.064	94.6567	966.064	91.2636	966.064	94.2463	966.064	90.739	966.064	93.2212	966.064	89.863	966.064	91.6858	966.064	88.7551	966.064	89.7607	966.064	87.5426	966.064	87.6154	966.064	86.4342	966.064	85.7003	966.064	85.7473	966.064	84.6504	966.064	85.5386	966.064	84.0693	966.064	85.3177	966.064	83.0764	966.064	84.4892	966.064	82.5718	966.064	82.8806	966.064	83.7345	966.064	81.3626	966.064	84.5018	966.064	81.2178	966.064	83.5621	966.064	81.3233	966.064	81.5014	966.064	80.797
999.756	92.4152	999.756	92.1294	999.756	93.1332	999.756	92.1347	999.756	93.9138	999.756	92.0315	999.756	94.2936	999.756	91.5957	999.756	93.9999	999.756	90.8289	999.756	92.9038	999.756	89.851	999.756	90.9603	999.756	88.7692	999.756	88.3232	999.756	87.563	999.756	85.8523	999.756	86.1168	999.756	84.9076	999.756	84.5128	999.756	84.7358	999.756	83.4265	999.756	83.6045	999.756	83.4076	999.756	80.8617	999.756	83.5898	999.756	79.1974	999.756	82.9359	999.756	81.5566	999.756	81.2557	999.756	83.069	999.756	79.7185	999.756	82.7842	999.756	79.8665	999.756	81.6389	999.756	80.6786
1,034.91	92.4695	1,034.91	92.4325	1,034.91	93.005	1,034.91	92.603	1,034.91	93.7067	1,034.91	92.5288	1,034.91	94.0576	1,034.91	92.0395	1,034.91	93.7921	1,034.91	91.2155	1,034.91	92.8698	1,034.91	90.2299	1,034.91	91.3609	1,034.91	89.1745	1,034.91	89.3492	1,034.91	87.9607	1,034.91	86.9167	1,034.91	86.4134	1,034.91	84.6489	1,034.91	84.5575	1,034.91	84.1223	1,034.91	82.9853	1,034.91	84.6945	1,034.91	82.3591	1,034.91	84.134	1,034.91	82.0809	1,034.91	82.1735	1,034.91	81.4984	1,034.91	81.9777	1,034.91	81.3095	1,034.91	83.4537	1,034.91	81.9125	1,034.91	83.219	1,034.91	81.9805	1,034.91	81.4858	1,034.91	81.0987
1,071.53	92.6989	1,071.53	93.1079	1,071.53	92.5999	1,071.53	93.2744	1,071.53	93.1404	1,071.53	92.9593	1,071.53	93.8404	1,071.53	92.1586	1,071.53	94.0283	1,071.53	90.9793	1,071.53	93.326	1,071.53	89.6253	1,071.53	91.5577	1,071.53	88.4459	1,071.53	88.7339	1,071.53	87.8032	1,071.53	85.7207	1,071.53	87.6241	1,071.53	84.798	1,071.53	87.4174	1,071.53	85.2103	1,071.53	86.7691	1,071.53	84.6359	1,071.53	85.4895	1,071.53	82.5719	1,071.53	83.5136	1,071.53	81.0473	1,071.53	81.0268	1,071.53	82.6304	1,071.53	79.399	1,071.53	83.7987	1,071.53	79.9931	1,071.53	83.0224	1,071.53	80.7428	1,071.53	81.1702	1,071.53	80.5754
1,109.62	93.0166	1,109.62	93.4086	1,109.62	92.74	1,109.62	93.3951	1,109.62	93.0854	1,109.62	92.8306	1,109.62	93.7156	1,109.62	91.7746	1,109.62	93.9357	1,109.62	90.367	1,109.62	93.3887	1,109.62	88.758	1,109.62	91.9941	1,109.62	87.0346	1,109.62	89.7594	1,109.62	85.2371	1,109.62	86.6493	1,109.62	83.512	1,109.62	82.9157	1,109.62	82.4619	1,109.62	81.694	1,109.62	82.8382	1,109.62	83.7366	1,109.62	83.8503	1,109.62	84.5269	1,109.62	84.0886	1,109.62	83.4314	1,109.62	82.9114	1,109.62	82.6669	1,109.62	80.9419	1,109.62	83.208	1,109.62	80.7193	1,109.62	82.1021	1,109.62	81.1485	1,109.62	79.1727	1,109.62	79.6675
1,148.44	93.5993	1,148.44	93.7461	1,148.44	93.0205	1,148.44	93.1712	1,148.44	92.8626	1,148.44	92.0466	1,148.44	93.4614	1,148.44	90.7699	1,148.44	93.9603	1,148.44	89.6975	1,148.44	93.6092	1,148.44	88.8336	1,148.44	92.1467	1,148.44	87.9315	1,148.44	89.5935	1,148.44	86.8604	1,148.44	86.4689	1,148.44	85.6774	1,148.44	84.1907	1,148.44	84.569	1,148.44	83.1582	1,148.44	83.8636	1,148.44	82.3468	1,148.44	83.5437	1,148.44	81.8411	1,148.44	82.6924	1,148.44	81.8764	1,148.44	79.9933	1,148.44	82.3167	1,148.44	75.7405	1,148.44	82.0237	1,148.44	78.8455	1,148.44	79.553	1,148.44	81.7967	1,148.44	78.2086	1,148.44	81.214
1,189.45	94.1932	1,189.45	94.0431	1,189.45	93.5942	1,189.45	93.2007	1,189.45	92.8547	1,189.45	92.114	1,189.45	92.873	1,189.45	91.2535	1,189.45	93.3323	1,189.45	90.6355	1,189.45	93.2285	1,189.45	89.8629	1,189.45	92.0311	1,189.45	88.6712	1,189.45	89.578	1,189.45	87.2117	1,189.45	86.2044	1,189.45	85.7552	1,189.45	83.7418	1,189.45	84.1395	1,189.45	83.0716	1,189.45	82.2423	1,189.45	82.1752	1,189.45	81.4903	1,189.45	80.8783	1,189.45	82.4425	1,189.45	80.2227	1,189.45	82.5189	1,189.45	80.5962	1,189.45	80.3957	1,189.45	80.016	1,189.45	78.9867	1,189.45	76.6713	1,189.45	81.5873	1,189.45	78.5587	1,189.45	82.0064
1,231.2	94.1542	1,231.2	93.7526	1,231.2	93.9187	1,231.2	92.8558	1,231.2	93.2497	1,231.2	91.8025	1,231.2	92.7044	1,231.2	90.9245	1,231.2	92.6375	1,231.2	90.2863	1,231.2	92.6121	1,231.2	89.5692	1,231.2	91.9404	1,231.2	88.3975	1,231.2	90.1527	1,231.2	86.7365	1,231.2	86.9444	1,231.2	85.0154	1,231.2	82.8688	1,231.2	83.6691	1,231.2	81.2973	1,231.2	82.3073	1,231.2	80.6876	1,231.2	80.503	1,231.2	76.6577	1,231.2	79.632	1,231.2	71.6673	1,231.2	80.2336	1,231.2	76.3999	1,231.2	79.5572	1,231.2	77.6335	1,231.2	76.6576	1,231.2	78.5973	1,231.2	77.3365	1,231.2	80.4849	1,231.2	80.3073
1,274.41	94.1851	1,274.41	93.8828	1,274.41	93.7241	1,274.41	92.8734	1,274.41	92.901	1,274.41	91.4925	1,274.41	92.4674	1,274.41	90.0653	1,274.41	92.5393	1,274.41	88.6952	1,274.41	92.3399	1,274.41	87.3937	1,274.41	91.2173	1,274.41	86.1138	1,274.41	88.9154	1,274.41	84.79	1,274.41	85.7334	1,274.41	83.5898	1,274.41	83.6392	1,274.41	82.8302	1,274.41	83.7653	1,274.41	82.452	1,274.41	83.6002	1,274.41	82.0113	1,274.41	81.703	1,274.41	81.1965	1,274.41	77.4555	1,274.41	79.8757	1,274.41	75.3457	1,274.41	78.1957	1,274.41	77.7228	1,274.41	78.0454	1,274.41	78.5041	1,274.41	79.8909	1,274.41	79.6959	1,274.41	80.7022
1,319.82	93.9181	1,319.82	93.7863	1,319.82	93.5529	1,319.82	93.1544	1,319.82	92.9053	1,319.82	92.0995	1,319.82	92.3631	1,319.82	90.6969	1,319.82	92.0675	1,319.82	89.087	1,319.82	91.6818	1,319.82	87.5237	1,319.82	90.8101	1,319.82	86.2026	1,319.82	89.2387	1,319.82	85.0847	1,319.82	86.7419	1,319.82	83.9475	1,319.82	82.7881	1,319.82	82.6036	1,319.82	78.3495	1,319.82	81.2103	1,319.82	80.6395	1,319.82	80.3615	1,319.82	82.5383	1,319.82	80.0373	1,319.82	81.1061	1,319.82	78.9998	1,319.82	78.4663	1,319.82	76.4284	1,319.82	78.9068	1,319.82	76.4324	1,319.82	79.2857	1,319.82	79.9151	1,319.82	80.2086	1,319.82	81.1952
1,365.97	93.424	1,365.97	93.3227	1,365.97	93.0999	1,365.97	92.7414	1,365.97	92.495	1,365.97	91.6521	1,365.97	91.8963	1,365.97	90.0835	1,365.97	91.5241	1,365.97	88.1933	1,365.97	91.2158	1,365.97	86.2114	1,365.97	90.5896	1,365.97	84.2467	1,365.97	89.3724	1,365.97	82.6384	1,365.97	87.445	1,365.97	82.4819	1,365.97	84.7906	1,365.97	83.4544	1,365.97	81.7038	1,365.97	83.9372	1,365.97	79.3213	1,365.97	83.2367	1,365.97	77.5617	1,365.97	81.2453	1,365.97	74.5758	1,365.97	78.074	1,365.97	74.7169	1,365.97	74.2381	1,365.97	76.9513	1,365.97	73.9854	1,365.97	77.9879	1,365.97	78.0536	1,365.97	79.6343	1,365.97	80.1435
1,414.31	92.8482	1,414.31	92.4862	1,414.31	92.7441	1,414.31	91.8079	1,414.31	92.2172	1,414.31	90.9258	1,414.31	91.6194	1,414.31	89.8159	1,414.31	91.2472	1,414.31	88.448	1,414.31	90.83	1,414.31	86.9154	1,414.31	89.8666	1,414.31	85.2946	1,414.31	88.1336	1,414.31	83.3708	1,414.31	85.9215	1,414.31	80.5716	1,414.31	84.0117	1,414.31	76.2411	1,414.31	82.2819	1,414.31	74.1383	1,414.31	79.8297	1,414.31	78.3207	1,414.31	77.4273	1,414.31	80.9159	1,414.31	74.9039	1,414.31	81.0112	1,414.31	71.9702	1,414.31	78.257	1,414.31	74.0001	1,414.31	73.4807	1,414.31	76.4926	1,414.31	77.0009	1,414.31	78.9432	1,414.31	79.6458
1,464.11	92.3191	1,464.11	92.0439	1,464.11	92.19	1,464.11	91.1238	1,464.11	91.9441	1,464.11	89.5425	1,464.11	91.6302	1,464.11	87.6166	1,464.11	91.0595	1,464.11	86.0572	1,464.11	90.0913	1,464.11	85.4015	1,464.11	88.7845	1,464.11	85.3014	1,464.11	87.3364	1,464.11	85.0884	1,464.11	85.8316	1,464.11	84.347	1,464.11	84.1564	1,464.11	82.879	1,464.11	82.7369	1,464.11	80.6566	1,464.11	82.3721	1,464.11	78.5161	1,464.11	81.5178	1,464.11	78.429	1,464.11	77.6764	1,464.11	78.9398	1,464.11	71.989	1,464.11	77.4193	1,464.11	76.3478	1,464.11	73.3663	1,464.11	78.507	1,464.11	74.9718	1,464.11	79.1527	1,464.11	78.4229
1,515.38	92.4426	1,515.38	92.1447	1,515.38	91.7447	1,515.38	90.5183	1,515.38	91.1035	1,515.38	88.0198	1,515.38	91.3066	1,515.38	86.3703	1,515.38	91.5218	1,515.38	86.2657	1,515.38	90.8075	1,515.38	86.1332	1,515.38	88.8883	1,515.38	85.6013	1,515.38	85.9457	1,515.38	85.1701	1,515.38	82.6248	1,515.38	84.7712	1,515.38	79.4694	1,515.38	83.8532	1,515.38	77.7225	1,515.38	82.2368	1,515.38	79.981	1,515.38	80.78	1,515.38	81.5369	1,515.38	80.4563	1,515.38	80.0622	1,515.38	79.809	1,515.38	76.1986	1,515.38	76.9531	1,515.38	75.4332	1,515.38	72.5272	1,515.38	76.4758	1,515.38	75.4225	1,515.38	77.3337	1,515.38	77.6805
1,568.85	93.0961	1,568.85	92.1077	1,568.85	92.5587	1,568.85	90.0793	1,568.85	90.9947	1,568.85	88.6714	1,568.85	90.4063	1,568.85	88.8934	1,568.85	91.2459	1,568.85	89.1299	1,568.85	91.4417	1,568.85	88.2604	1,568.85	90.0887	1,568.85	86.4253	1,568.85	87.0515	1,568.85	84.8235	1,568.85	83.1581	1,568.85	84.2996	1,568.85	80.7665	1,568.85	83.7162	1,568.85	78.7784	1,568.85	82.1233	1,568.85	79.554	1,568.85	80.1097	1,568.85	82.2316	1,568.85	79.5099	1,568.85	81.3013	1,568.85	79.2217	1,568.85	76.0756	1,568.85	77.2541	1,568.85	76.9219	1,568.85	75.2781	1,568.85	79.681	1,568.85	76.695	1,568.85	79.4362	1,568.85	78.2739
1,624.51	92.4084	1,624.51	91.4601	1,624.51	92.2089	1,624.51	89.8761	1,624.51	90.9528	1,624.51	88.5398	1,624.51	89.7604	1,624.51	87.7234	1,624.51	89.9929	1,624.51	87.1306	1,624.51	90.47	1,624.51	86.6698	1,624.51	89.7727	1,624.51	85.9506	1,624.51	87.4673	1,624.51	84.4741	1,624.51	83.5607	1,624.51	82.6794	1,624.51	80.0438	1,624.51	82.0833	1,624.51	78.5215	1,624.51	82.1611	1,624.51	77.1795	1,624.51	81.1203	1,624.51	80.6369	1,624.51	78.7135	1,624.51	81.7517	1,624.51	77.3695	1,624.51	78.267	1,624.51	77.3279	1,624.51	75.2305	1,624.51	75.9871	1,624.51	77.2823	1,624.51	76.1168	1,624.51	77.8726	1,624.51	77.7376
1,681.64	92.2795	1,681.64	91.211	1,681.64	92.3067	1,681.64	89.9536	1,681.64	91.178	1,681.64	89.4796	1,681.64	89.8542	1,681.64	89.3248	1,681.64	89.9256	1,681.64	88.5601	1,681.64	90.5506	1,681.64	87.0817	1,681.64	90.1528	1,681.64	85.1324	1,681.64	87.968	1,681.64	82.5818	1,681.64	83.1694	1,681.64	79.3938	1,681.64	76.6389	1,681.64	77.1941	1,681.64	77.6791	1,681.64	78.0323	1,681.64	78.6349	1,681.64	79.674	1,681.64	80.4282	1,681.64	80.2883	1,681.64	80.7973	1,681.64	79.3291	1,681.64	78.0064	1,681.64	75.6876	1,681.64	76.9122	1,681.64	70.1629	1,681.64	76.3124	1,681.64	75.6351	1,681.64	75.5837	1,681.64	77.4088
1,740.97	91.7559	1,740.97	90.2954	1,740.97	92.0193	1,740.97	88.8807	1,740.97	90.8878	1,740.97	88.5711	1,740.97	89.3082	1,740.97	88.3789	1,740.97	89.2209	1,740.97	87.3304	1,740.97	90.0848	1,740.97	85.3438	1,740.97	90.1923	1,740.97	83.0378	1,740.97	88.9101	1,740.97	81.3857	1,740.97	85.9156	1,740.97	80.5243	1,740.97	80.8204	1,740.97	79.3381	1,740.97	72.0901	1,740.97	76.2338	1,740.97	71.822	1,740.97	68.5233	1,740.97	78.5678	1,740.97	71.5605	1,740.97	79.6903	1,740.97	76.5578	1,740.97	77.791	1,740.97	76.427	1,740.97	75.7456	1,740.97	70.3522	1,740.97	75.8638	1,740.97	71.191	1,740.97	77.7217	1,740.97	77.2707
1,802.49	91.7502	1,802.49	90.4096	1,802.49	91.899	1,802.49	89.2018	1,802.49	90.519	1,802.49	88.899	1,802.49	88.5295	1,802.49	88.5166	1,802.49	88.3369	1,802.49	87.4102	1,802.49	89.3211	1,802.49	85.5273	1,802.49	89.2694	1,802.49	83.0471	1,802.49	87.5107	1,802.49	80.4876	1,802.49	84.0261	1,802.49	79.3795	1,802.49	79.8852	1,802.49	80.2262	1,802.49	75.9822	1,802.49	80.5577	1,802.49	70.0009	1,802.49	78.4642	1,802.49	76.7845	1,802.49	73.6944	1,802.49	78.813	1,802.49	74.1014	1,802.49	75.7035	1,802.49	74.9211	1,802.49	74.4356	1,802.49	71.7351	1,802.49	75.8368	1,802.49	72.8491	1,802.49	75.8418	1,802.49	75.7536
1,866.21	91.1223	1,866.21	90.0064	1,866.21	91.7648	1,866.21	89.8215	1,866.21	91.0168	1,866.21	89.7517	1,866.21	89.2038	1,866.21	88.4448	1,866.21	88.477	1,866.21	86.1623	1,866.21	89.3322	1,866.21	84.4135	1,866.21	89.4299	1,866.21	83.7525	1,866.21	87.7482	1,866.21	82.751	1,866.21	83.9864	1,866.21	80.2879	1,866.21	80.2542	1,866.21	77.6969	1,866.21	78.9158	1,866.21	78.3406	1,866.21	74.0082	1,866.21	78.8466	1,866.21	76.7601	1,866.21	76.8632	1,866.21	79.2729	1,866.21	73.536	1,866.21	76.0954	1,866.21	72.2662	1,866.21	73.6251	1,866.21	69.3065	1,866.21	73.9277	1,866.21	70.5582	1,866.21	74.2112	1,866.21	74.5568
1,932.13	90.4477	1,932.13	89.7531	1,932.13	90.9963	1,932.13	89.7367	1,932.13	90.423	1,932.13	89.8633	1,932.13	88.8044	1,932.13	89.2632	1,932.13	87.9197	1,932.13	87.5535	1,932.13	88.5582	1,932.13	84.7475	1,932.13	88.7273	1,932.13	81.4433	1,932.13	87.2956	1,932.13	78.7285	1,932.13	83.8635	1,932.13	76.657	1,932.13	79.3658	1,932.13	74.9663	1,932.13	76.9459	1,932.13	74.402	1,932.13	70.5044	1,932.13	74.9125	1,932.13	72.4439	1,932.13	73.9428	1,932.13	76.2926	1,932.13	72.1235	1,932.13	72.5828	1,932.13	70.6572	1,932.13	71.0702	1,932.13	63.379	1,932.13	71.6038	1,932.13	67.1497	1,932.13	72.4623	1,932.13	73.1639
2,000.24	90.8487	2,000.24	90.1025	2,000.24	90.913	2,000.24	89.6075	2,000.24	89.7134	2,000.24	89.2492	2,000.24	87.8707	2,000.24	88.2133	2,000.24	87.2983	2,000.24	86.0379	2,000.24	87.9626	2,000.24	82.8981	2,000.24	88.071	2,000.24	80.0126	2,000.24	86.7052	2,000.24	78.6098	2,000.24	83.5424	2,000.24	78.0073	2,000.24	79.4308	2,000.24	76.8405	2,000.24	77.3875	2,000.24	75.2342	2,000.24	74.5684	2,000.24	74.8022	2,000.24	69.0712	2,000.24	74.4056	2,000.24	71.4653	2,000.24	71.8318	2,000.24	70.5943	2,000.24	69.2475	2,000.24	68.7686	2,000.24	67.9646	2,000.24	69.5661	2,000.24	63.7053	2,000.24	70.5505	2,000.24	68.4443
2,070.56	92.2217	2,070.56	91.2942	2,070.56	92.5	2,070.56	91.0231	2,070.56	91.071	2,070.56	90.3237	2,070.56	88.3506	2,070.56	88.029	2,070.56	87.3484	2,070.56	84.4508	2,070.56	88.4815	2,070.56	82.5559	2,070.56	88.4899	2,070.56	82.6185	2,070.56	86.6633	2,070.56	82.1581	2,070.56	83.1879	2,070.56	81.2633	2,070.56	79.4447	2,070.56	79.5992	2,070.56	77.0811	2,070.56	76.9417	2,070.56	74.6058	2,070.56	75.0137	2,070.56	72.7408	2,070.56	75.159	2,070.56	71.9064	2,070.56	73.8486	2,070.56	70.8271	2,070.56	70.2027	2,070.56	68.8588	2,070.56	67.253	2,070.56	68.8238	2,070.56	68.0315	2,070.56	71.2523	2,070.56	71.3265
2,143.8	91.8595	2,143.8	91.5635	2,143.8	92.7637	2,143.8	92.004	2,143.8	92.2659	2,143.8	90.9283	2,143.8	89.6467	2,143.8	88.1366	2,143.8	86.9445	2,143.8	86.1927	2,143.8	88.0996	2,143.8	86.0874	2,143.8	88.6402	2,143.8	85.0538	2,143.8	86.6527	2,143.8	82.3243	2,143.8	81.8569	2,143.8	79.4932	2,143.8	77.5118	2,143.8	78.4953	2,143.8	77.3959	2,143.8	78.2582	2,143.8	74.2396	2,143.8	77.4182	2,143.8	76.8977	2,143.8	75.8841	2,143.8	75.5559	2,143.8	73.2841	2,143.8	71.2412	2,143.8	69.5831	2,143.8	72.2495	2,143.8	66.0832	2,143.8	71.8434	2,143.8	66.2753	2,143.8	71.988	2,143.8	70.8559
2,219.24	90.995	2,219.24	91.5597	2,219.24	91.7638	2,219.24	91.9283	2,219.24	92.1099	2,219.24	90.689	2,219.24	90.491	2,219.24	88.6828	2,219.24	87.8361	2,219.24	87.6811	2,219.24	88.0651	2,219.24	86.7939	2,219.24	89.1465	2,219.24	84.8424	2,219.24	87.9987	2,219.24	81.7217	2,219.24	83.5653	2,219.24	78.7232	2,219.24	73.6571	2,219.24	77.4165	2,219.24	76.1898	2,219.24	76.8665	2,219.24	72.8248	2,219.24	75.5565	2,219.24	75.1124	2,219.24	74.4155	2,219.24	76.3253	2,219.24	73.8758	2,219.24	70.2594	2,219.24	71.741	2,219.24	73.0721	2,219.24	65.3729	2,219.24	73.618	2,219.24	65.0525	2,219.24	72.5933	2,219.24	70.6556
2,297.61	92.5758	2,297.61	92.5378	2,297.61	92.3906	2,297.61	91.7279	2,297.61	91.9458	2,297.61	90.3344	2,297.61	90.4492	2,297.61	89.0988	2,297.61	88.2355	2,297.61	87.8082	2,297.61	88.05	2,297.61	85.4617	2,297.61	89.1319	2,297.61	82.4133	2,297.61	88.7369	2,297.61	80.0474	2,297.61	85.748	2,297.61	78.6033	2,297.61	77.9667	2,297.61	76.9679	2,297.61	69.8169	2,297.61	75.5513	2,297.61	72.5719	2,297.61	74.8168	2,297.61	75.4251	2,297.61	73.8186	2,297.61	76.4409	2,297.61	72.6891	2,297.61	71.4667	2,297.61	70.9102	2,297.61	70.9421	2,297.61	65.2596	2,297.61	71.818	2,297.61	62.8238	2,297.61	71.6805	2,297.61	70.0801
2,378.17	93.4335	2,378.17	93.1989	2,378.17	93.3077	2,378.17	92.1388	2,378.17	92.6147	2,378.17	90.3343	2,378.17	90.6199	2,378.17	88.7231	2,378.17	87.6308	2,378.17	87.4856	2,378.17	87.3778	2,378.17	85.6876	2,378.17	88.8905	2,378.17	83.1084	2,378.17	88.952	2,378.17	80.5983	2,378.17	86.5833	2,378.17	78.5875	2,378.17	81.1488	2,378.17	76.5904	2,378.17	75.4205	2,378.17	74.9152	2,378.17	65.828	2,378.17	74.7206	2,378.17	75.4476	2,378.17	73.8744	2,378.17	77.1458	2,378.17	71.7017	2,378.17	72.0917	2,378.17	70.3455	2,378.17	73.2309	2,378.17	66.9122	2,378.17	72.6542	2,378.17	58.9987	2,378.17	70.6911	2,378.17	68.8001
2,462.4	92.7531	2,462.4	92.9797	2,462.4	92.6828	2,462.4	92.2211	2,462.4	92.6061	2,462.4	90.4288	2,462.4	91.154	2,462.4	88.8666	2,462.4	87.9276	2,462.4	87.5386	2,462.4	86.0226	2,462.4	85.2837	2,462.4	87.5354	2,462.4	81.9158	2,462.4	87.7007	2,462.4	79.5271	2,462.4	84.8737	2,462.4	78.8707	2,462.4	77.9445	2,462.4	77.8183	2,462.4	74.4839	2,462.4	74.5696	2,462.4	67.462	2,462.4	72.3403	2,462.4	72.6134	2,462.4	73.8535	2,462.4	75.5497	2,462.4	73.3287	2,462.4	67.4368	2,462.4	70.6591	2,462.4	70.1255	2,462.4	67.5963	2,462.4	68.7441	2,462.4	53.3673	2,462.4	70.8721	2,462.4	70.1378
2,548.83	92.8071	2,548.83	92.6102	2,548.83	92.5285	2,548.83	91.7179	2,548.83	92.0664	2,548.83	90.5901	2,548.83	90.8395	2,548.83	89.1539	2,548.83	88.2855	2,548.83	86.4198	2,548.83	85.7777	2,548.83	82.8664	2,548.83	86.1079	2,548.83	80.8575	2,548.83	86.4328	2,548.83	79.8989	2,548.83	84.4715	2,548.83	78.2171	2,548.83	78.2091	2,548.83	77.488	2,548.83	71.2987	2,548.83	76.7567	2,548.83	69.5274	2,548.83	73.5904	2,548.83	68.0284	2,548.83	72.0265	2,548.83	73.8749	2,548.83	74.009	2,548.83	69.0308	2,548.83	72.9187	2,548.83	67.5544	2,548.83	69.0653	2,548.83	69.2829	2,548.83	60.2934	2,548.83	71.1153	2,548.83	67.2042
2,638.92	92.8659	2,638.92	92.3995	2,638.92	92.4787	2,638.92	91.4179	2,638.92	91.6133	2,638.92	90.5625	2,638.92	90.2261	2,638.92	89.2072	2,638.92	87.7367	2,638.92	86.6398	2,638.92	85.0083	2,638.92	84.1426	2,638.92	85.1155	2,638.92	82.922	2,638.92	85.9718	2,638.92	81.3698	2,638.92	84.6716	2,638.92	78.752	2,638.92	79.262	2,638.92	76.7119	2,638.92	70.2615	2,638.92	76.2024	2,638.92	68.5197	2,638.92	74.8712	2,638.92	67.7432	2,638.92	72.7082	2,638.92	71.385	2,638.92	73.0433	2,638.92	56.9112	2,638.92	73.162	2,638.92	65.1777	2,638.92	69.6814	2,638.92	66.0995	2,638.92	59.4584	2,638.92	69.3261	2,638.92	66.1496
2,731.93	92.3094	2,731.93	92.0513	2,731.93	91.9781	2,731.93	91.3369	2,731.93	91.2048	2,731.93	90.274	2,731.93	89.8494	2,731.93	88.5668	2,731.93	87.546	2,731.93	86.3288	2,731.93	84.7317	2,731.93	84.3673	2,731.93	83.7477	2,731.93	82.5525	2,731.93	84.4221	2,731.93	80.42	2,731.93	83.5641	2,731.93	78.2751	2,731.93	78.8015	2,731.93	76.4358	2,731.93	70.5979	2,731.93	75.0052	2,731.93	69.0589	2,731.93	73.9219	2,731.93	63.1127	2,731.93	72.0182	2,731.93	71.7201	2,731.93	71.6197	2,731.93	67.7034	2,731.93	72.6994	2,731.93	61.3439	2,731.93	70.613	2,731.93	68.6242	2,731.93	65.0244	2,731.93	71.0126	2,731.93	67.6049
2,828.61	92.0338	2,828.61	91.9021	2,828.61	91.6686	2,828.61	91.2983	2,828.61	90.7316	2,828.61	90.047	2,828.61	89.2298	2,828.61	88.131	2,828.61	87.1966	2,828.61	86.0102	2,828.61	84.8095	2,828.61	83.7954	2,828.61	83.1904	2,828.61	80.9374	2,828.61	83.0511	2,828.61	77.9908	2,828.61	82.0867	2,828.61	76.5946	2,828.61	77.0205	2,828.61	75.697	2,828.61	65.0555	2,828.61	73.825	2,828.61	68.7896	2,828.61	71.9639	2,828.61	60.6128	2,828.61	70.7538	2,828.61	65.6674	2,828.61	69.2139	2,828.61	61.0403	2,828.61	67.6755	2,828.61	62.1598	2,828.61	65.1845	2,828.61	69.5212	2,828.61	60.7865	2,828.61	70.9852	2,828.61	67.3277
2,928.22	91.9621	2,928.22	91.8407	2,928.22	91.709	2,928.22	91.2722	2,928.22	90.7728	2,928.22	89.9533	2,928.22	88.9717	2,928.22	87.9332	2,928.22	86.5856	2,928.22	85.613	2,928.22	84.1718	2,928.22	83.0311	2,928.22	82.3201	2,928.22	79.8972	2,928.22	80.9333	2,928.22	76.8459	2,928.22	78.6176	2,928.22	75.2235	2,928.22	73.0406	2,928.22	74.4266	2,928.22	59.5902	2,928.22	72.7215	2,928.22	50.7538	2,928.22	70.3939	2,928.22	60.5875	2,928.22	69.3546	2,928.22	66.0341	2,928.22	68.9002	2,928.22	65.6323	2,928.22	67.7285	2,928.22	60.9708	2,928.22	64.0327	2,928.22	68.4605	2,928.22	55.7696	2,928.22	70.3839	2,928.22	67.1511
3,031.49	91.5685	3,031.49	91.4155	3,031.49	91.3001	3,031.49	90.8118	3,031.49	90.5278	3,031.49	89.5648	3,031.49	89.1031	3,031.49	87.4962	3,031.49	86.8105	3,031.49	84.7654	3,031.49	83.8099	3,031.49	81.859	3,031.49	81.5079	3,031.49	78.9778	3,031.49	80.4699	3,031.49	75.9808	3,031.49	78.1935	3,031.49	73.6175	3,031.49	71.8831	3,031.49	73.0714	3,031.49	51.7148	3,031.49	73.0055	3,031.49	59.5216	3,031.49	70.9613	3,031.49	47.856	3,031.49	68.4144	3,031.49	63.988	3,031.49	69.0531	3,031.49	64.211	3,031.49	68.7001	3,031.49	62.2497	3,031.49	65.8404	3,031.49	68.0051	3,031.49	55.16	3,031.49	69.3627	3,031.49	64.8579
3,138.43	91.8423	3,138.43	91.5587	3,138.43	91.4813	3,138.43	90.5532	3,138.43	90.5202	3,138.43	88.9624	3,138.43	88.9461	3,138.43	87.0854	3,138.43	86.8814	3,138.43	84.758	3,138.43	84.6288	3,138.43	81.578	3,138.43	82.424	3,138.43	78.5674	3,138.43	80.2635	3,138.43	77.3492	3,138.43	77.7574	3,138.43	76.1595	3,138.43	73.9427	3,138.43	73.7792	3,138.43	66.6794	3,138.43	72.0084	3,138.43	55.5067	3,138.43	71.3495	3,138.43	57.0454	3,138.43	69.5799	3,138.43	63.9237	3,138.43	67.3429	3,138.43	65.6647	3,138.43	67.7012	3,138.43	61.6467	3,138.43	64.5996	3,138.43	67.2013	3,138.43	54.1329	3,138.43	68.4891	3,138.43	63.5864
3,249.02	91.6541	3,249.02	91.3644	3,249.02	91.3534	3,249.02	90.4165	3,249.02	90.5301	3,249.02	88.8844	3,249.02	89.143	3,249.02	86.733	3,249.02	87.1813	3,249.02	83.9466	3,249.02	84.8532	3,249.02	81.2757	3,249.02	82.7853	3,249.02	79.1186	3,249.02	81.1131	3,249.02	76.4567	3,249.02	78.8857	3,249.02	73.42	3,249.02	74.6666	3,249.02	71.7075	3,249.02	66.5124	3,249.02	70.9714	3,249.02	52.5196	3,249.02	70.6223	3,249.02	58.2885	3,249.02	69.9752	3,249.02	63.4967	3,249.02	68.024	3,249.02	63.6767	3,249.02	66.3603	3,249.02	64.2281	3,249.02	64.3803	3,249.02	67.6294	3,249.02	51.4566	3,249.02	67.2865	3,249.02	62.2384
3,363.28	91.3606	3,363.28	91.197	3,363.28	91.0401	3,363.28	90.3643	3,363.28	90.3607	3,363.28	88.7921	3,363.28	89.2156	3,363.28	86.6054	3,363.28	87.3299	3,363.28	84.1151	3,363.28	84.6986	3,363.28	81.4358	3,363.28	82.266	3,363.28	78.4242	3,363.28	81.1047	3,363.28	75.9365	3,363.28	80.2295	3,363.28	74.8914	3,363.28	77.8401	3,363.28	73.7316	3,363.28	72.6317	3,363.28	71.4474	3,363.28	64.3233	3,363.28	69.1274	3,363.28	57.8322	3,363.28	68.5902	3,363.28	64.386	3,363.28	68.5701	3,363.28	64.4599	3,363.28	68.2283	3,363.28	62.332	3,363.28	66.1244	3,363.28	66.8128	3,363.28	55.7363	3,363.28	65.9975	3,363.28	58.9713
3,481.93	91.8504	3,481.93	91.3783	3,481.93	91.4692	3,481.93	90.2938	3,481.93	90.4366	3,481.93	88.9348	3,481.93	89.0947	3,481.93	87.0512	3,481.93	87.4324	3,481.93	84.163	3,481.93	85.3818	3,481.93	80.9022	3,481.93	83.5463	3,481.93	78.4955	3,481.93	82.4738	3,481.93	76.3922	3,481.93	81.3755	3,481.93	73.6886	3,481.93	78.8018	3,481.93	71.4267	3,481.93	73.1207	3,481.93	70.6573	3,481.93	63.0706	3,481.93	69.796	3,481.93	49.5166	3,481.93	68.3186	3,481.93	61.934	3,481.93	68.117	3,481.93	63.7422	3,481.93	67.8746	3,481.93	60.3059	3,481.93	65.8643	3,481.93	65.8056	3,481.93	55.7719	3,481.93	65.602	3,481.93	60.6498
3,604.98	92.2632	3,604.98	91.8102	3,604.98	91.9538	3,604.98	90.7038	3,604.98	90.9459	3,604.98	89.0546	3,604.98	89.345	3,604.98	86.9176	3,604.98	87.4189	3,604.98	84.259	3,604.98	85.6644	3,604.98	80.7917	3,604.98	84.0756	3,604.98	76.9526	3,604.98	82.3145	3,604.98	75.2464	3,604.98	80.6143	3,604.98	75.4297	3,604.98	78.763	3,604.98	74.4154	3,604.98	74.928	3,604.98	72.1699	3,604.98	65.5381	3,604.98	70.828	3,604.98	49.5091	3,604.98	69.0207	3,604.98	61.4634	3,604.98	67.1574	3,604.98	62.2269	3,604.98	68.3172	3,604.98	57.8972	3,604.98	66.2112	3,604.98	65.6627	3,604.98	57.0153	3,604.98	65.846	3,604.98	57.7131
3,732.42	92.0328	3,732.42	91.7781	3,732.42	91.9512	3,732.42	90.9928	3,732.42	91.2594	3,732.42	89.5148	3,732.42	89.6538	3,732.42	87.253	3,732.42	87.4056	3,732.42	83.8957	3,732.42	85.2054	3,732.42	80.3256	3,732.42	83.7503	3,732.42	78.8145	3,732.42	82.7476	3,732.42	77.7275	3,732.42	80.7109	3,732.42	75.7484	3,732.42	76.6166	3,732.42	73.6907	3,732.42	71.4634	3,732.42	71.7828	3,732.42	63.6361	3,732.42	70.419	3,732.42	50.3228	3,732.42	70.3711	3,732.42	61.889	3,732.42	69.4929	3,732.42	64.1727	3,732.42	69.2679	3,732.42	59.811	3,732.42	68.7125	3,732.42	66.0225	3,732.42	60.3892	3,732.42	66.2599	3,732.42	58.8107
3,863.53	92.14	3,863.53	91.8266	3,863.53	91.7952	3,863.53	91.0512	3,863.53	90.8531	3,863.53	89.6972	3,863.53	89.5535	3,863.53	87.2852	3,863.53	87.7698	3,863.53	84.2512	3,863.53	85.4567	3,863.53	81.8386	3,863.53	83.6245	3,863.53	79.3378	3,863.53	82.703	3,863.53	76.8479	3,863.53	80.975	3,863.53	75.7827	3,863.53	76.707	3,863.53	75.3504	3,863.53	69.7191	3,863.53	74.599	3,863.53	65.1774	3,863.53	73.4928	3,863.53	61.0246	3,863.53	71.9697	3,863.53	64.9173	3,863.53	70.9412	3,863.53	65.2725	3,863.53	70.327	3,863.53	59.3759	3,863.53	67.7244	3,863.53	65.2578	3,863.53	59.0431	3,863.53	66.0739	3,863.53	58.4018
3,999.76	92.4735	3,999.76	92.3148	3,999.76	91.9177	3,999.76	91.3385	3,999.76	90.8353	3,999.76	89.5693	3,999.76	89.3543	3,999.76	87.2628	3,999.76	87.4788	3,999.76	84.9983	3,999.76	85.4246	3,999.76	83.02	3,999.76	83.6911	3,999.76	80.7327	3,999.76	82.1163	3,999.76	78.124	3,999.76	79.8915	3,999.76	76.3149	3,999.76	76.3904	3,999.76	75.0686	3,999.76	70.8546	3,999.76	73.3675	3,999.76	61.7102	3,999.76	72.3325	3,999.76	60.7101	3,999.76	71.2136	3,999.76	59.3265	3,999.76	68.8504	3,999.76	65.8656	3,999.76	70.7805	3,999.76	60.0317	3,999.76	69.7619	3,999.76	67.7984	3,999.76	61.6427	3,999.76	67.7507	3,999.76	54.4102
4,141.11	91.8557	4,141.11	91.9471	4,141.11	91.5564	4,141.11	91.4695	4,141.11	90.677	4,141.11	89.8727	4,141.11	88.9388	4,141.11	87.6178	4,141.11	86.8112	4,141.11	85.6421	4,141.11	85.1388	4,141.11	83.4938	4,141.11	83.9548	4,141.11	80.8711	4,141.11	81.9578	4,141.11	78.6089	4,141.11	78.1205	4,141.11	76.7618	4,141.11	75.0619	4,141.11	75.2994	4,141.11	74.3435	4,141.11	73.831	4,141.11	69.7218	4,141.11	72.8271	4,141.11	62.8573	4,141.11	73.0606	4,141.11	50.6843	4,141.11	70.6857	4,141.11	66.4828	4,141.11	70.4092	4,141.11	63.7623	4,141.11	70.8309	4,141.11	68.8851	4,141.11	61.6915	4,141.11	67.8573	4,141.11	59.3487
4,286.87	92.6249	4,286.87	92.2978	4,286.87	92.1267	4,286.87	91.0911	4,286.87	90.9288	4,286.87	89.5513	4,286.87	89.0974	4,286.87	88.256	4,286.87	86.5719	4,286.87	86.2211	4,286.87	84.2189	4,286.87	83.4078	4,286.87	83.4402	4,286.87	81.3226	4,286.87	82.3751	4,286.87	79.4009	4,286.87	78.6847	4,286.87	76.77	4,286.87	72.3112	4,286.87	74.4938	4,286.87	66.0021	4,286.87	73.6466	4,286.87	65.7149	4,286.87	72.9237	4,286.87	63.7935	4,286.87	71.9997	4,286.87	60.7262	4,286.87	70.7041	4,286.87	64.11	4,286.87	70.4124	4,286.87	60.4044	4,286.87	70.4098	4,286.87	66.1829	4,286.87	61.4163	4,286.87	66.4269	4,286.87	59.6476
4,438.48	92.4322	4,438.48	92.3062	4,438.48	91.9293	4,438.48	91.3398	4,438.48	90.9752	4,438.48	89.9247	4,438.48	89.2606	4,438.48	88.4035	4,438.48	86.7527	4,438.48	86.4484	4,438.48	84.3767	4,438.48	84.2559	4,438.48	82.5641	4,438.48	82.1878	4,438.48	80.2879	4,438.48	80.0045	4,438.48	77.5962	4,438.48	77.9091	4,438.48	74.42	4,438.48	75.9578	4,438.48	71.5508	4,438.48	73.9225	4,438.48	65.9896	4,438.48	73.4835	4,438.48	60.6612	4,438.48	73.5931	4,438.48	64.1179	4,438.48	70.6706	4,438.48	66.4966	4,438.48	70.3254	4,438.48	62.9227	4,438.48	70.6751	4,438.48	65.9481	4,438.48	62.4983	4,438.48	66.5927	4,438.48	58.3764
4,594.48	92.8475	4,594.48	92.4786	4,594.48	92.4275	4,594.48	91.529	4,594.48	91.2157	4,594.48	90.4194	4,594.48	89.1775	4,594.48	88.7928	4,594.48	86.3534	4,594.48	86.53	4,594.48	83.4059	4,594.48	84.821	4,594.48	81.8252	4,594.48	82.9825	4,594.48	81.6199	4,594.48	79.9868	4,594.48	80.7254	4,594.48	76.9346	4,594.48	76.7035	4,594.48	74.982	4,594.48	72.6728	4,594.48	73.2061	4,594.48	71.4533	4,594.48	71.3775	4,594.48	58.4893	4,594.48	72.0273	4,594.48	61.4999	4,594.48	71.1642	4,594.48	65.5395	4,594.48	69.4962	4,594.48	63.5754	4,594.48	70.8149	4,594.48	66.9045	4,594.48	62.393	4,594.48	66.0726	4,594.48	59.8961
4,757.08	92.4832	4,757.08	92.1036	4,757.08	92.2019	4,757.08	91.1723	4,757.08	91.1197	4,757.08	89.8898	4,757.08	89.0305	4,757.08	88.4909	4,757.08	86.2223	4,757.08	87.0031	4,757.08	83.9535	4,757.08	85.1312	4,757.08	83.1727	4,757.08	82.7561	4,757.08	83.3362	4,757.08	80.3349	4,757.08	82.7183	4,757.08	77.8714	4,757.08	78.9792	4,757.08	75.0293	4,757.08	71.8091	4,757.08	72.8212	4,757.08	71.6732	4,757.08	72.5193	4,757.08	65.6359	4,757.08	73.1068	4,757.08	55.0008	4,757.08	71.7513	4,757.08	65.3464	4,757.08	69.5983	4,757.08	55.6106	4,757.08	70.508	4,757.08	65.597	4,757.08	63.8706	4,757.08	66.9473	4,757.08	61.2185
4,924.8	91.2443	4,924.8	90.8603	4,924.8	91.2912	4,924.8	90.1961	4,924.8	90.4621	4,924.8	89.1665	4,924.8	88.5441	4,924.8	87.7489	4,924.8	86.2931	4,924.8	86.0202	4,924.8	83.9664	4,924.8	84.1116	4,924.8	82.3691	4,924.8	81.816	4,924.8	82.3858	4,924.8	79.0467	4,924.8	81.3717	4,924.8	76.4031	4,924.8	76.5568	4,924.8	74.6442	4,924.8	70.0922	4,924.8	72.5657	4,924.8	67.5083	4,924.8	71.2683	4,924.8	64.8198	4,924.8	72.5393	4,924.8	53.9161	4,924.8	70.0282	4,924.8	64.5339	4,924.8	68.5266	4,924.8	61.6458	4,924.8	68.8607	4,924.8	65.7357	4,924.8	60.9155	4,924.8	67.9599	4,924.8	56.5286
5,098.39	90.7452	5,098.39	90.2931	5,098.39	90.6106	5,098.39	89.3312	5,098.39	89.5751	5,098.39	88.1131	5,098.39	87.7038	5,098.39	86.7292	5,098.39	85.2688	5,098.39	84.7489	5,098.39	82.5049	5,098.39	82.6191	5,098.39	81.4573	5,098.39	80.6091	5,098.39	81.9477	5,098.39	77.9559	5,098.39	80.3034	5,098.39	74.4181	5,098.39	73.6814	5,098.39	71.3902	5,098.39	54.3021	5,098.39	69.6704	5,098.39	62.1094	5,098.39	67.4614	5,098.39	65.8068	5,098.39	69.8122	5,098.39	61.2317	5,098.39	69.8951	5,098.39	61.4907	5,098.39	66.3279	5,098.39	61.0909	5,098.39	68.1253	5,098.39	62.9776	5,098.39	59.9122	5,098.39	65.0472	5,098.39	57.4247
5,277.83	89.9321	5,277.83	89.6142	5,277.83	90.0473	5,277.83	89.1677	5,277.83	89.2753	5,277.83	88.1928	5,277.83	87.3827	5,277.83	86.7745	5,277.83	85.2969	5,277.83	85.0966	5,277.83	83.5864	5,277.83	82.8693	5,277.83	82.5368	5,277.83	80.4266	5,277.83	81.9619	5,277.83	78.4125	5,277.83	79.5796	5,277.83	75.8419	5,277.83	73.6257	5,277.83	72.7152	5,277.83	67.1265	5,277.83	70.4818	5,277.83	61.7388	5,277.83	68.6288	5,277.83	58.575	5,277.83	70.4196	5,277.83	60.8269	5,277.83	69.4564	5,277.83	59.7693	5,277.83	67.5847	5,277.83	60.5291	5,277.83	68.7315	5,277.83	64.8153	5,277.83	61.3016	5,277.83	67.3237	5,277.83	54.1167
5,463.87	90.947	5,463.87	90.5884	5,463.87	90.9542	5,463.87	89.9588	5,463.87	90.0978	5,463.87	89.3957	5,463.87	88.622	5,463.87	88.6604	5,463.87	87.1065	5,463.87	86.6478	5,463.87	85.1163	5,463.87	84.006	5,463.87	83.3364	5,463.87	81.8614	5,463.87	82.4106	5,463.87	79.7264	5,463.87	79.5486	5,463.87	76.6054	5,463.87	71.2798	5,463.87	72.8516	5,463.87	65.5965	5,463.87	71.8841	5,463.87	68.2237	5,463.87	69.9479	5,463.87	63.5346	5,463.87	69.2709	5,463.87	62.1091	5,463.87	70.598	5,463.87	62.7513	5,463.87	65.7427	5,463.87	62.2006	5,463.87	69.1707	5,463.87	64.6463	5,463.87	61.7665	5,463.87	65.2394	5,463.87	60.8357
5,656.49	91.2271	5,656.49	90.9462	5,656.49	91.1661	5,656.49	90.6013	5,656.49	90.288	5,656.49	90.3396	5,656.49	89.2172	5,656.49	89.5135	5,656.49	88.4668	5,656.49	87.393	5,656.49	86.8722	5,656.49	84.3274	5,656.49	84.5123	5,656.49	81.0833	5,656.49	82.4206	5,656.49	78.4231	5,656.49	78.6948	5,656.49	75.8284	5,656.49	71.276	5,656.49	72.0765	5,656.49	65.2119	5,656.49	69.8373	5,656.49	60.3733	5,656.49	69.1414	5,656.49	66.4429	5,656.49	70.281	5,656.49	66.3711	5,656.49	70.7128	5,656.49	58.9055	5,656.49	66.4067	5,656.49	63.158	5,656.49	68.9102	5,656.49	66.4644	5,656.49	60.2697	5,656.49	68.5173	5,656.49	60.2028
5,856.45	90.5672	5,856.45	90.4781	5,856.45	90.5917	5,856.45	90.5452	5,856.45	90.0306	5,856.45	90.6362	5,856.45	89.6054	5,856.45	90.3328	5,856.45	89.2084	5,856.45	88.5125	5,856.45	87.3484	5,856.45	84.585	5,856.45	83.8857	5,856.45	79.8259	5,856.45	80.263	5,856.45	77.4122	5,856.45	76.9535	5,856.45	76.1726	5,856.45	72.9992	5,856.45	72.9109	5,856.45	63.9731	5,856.45	70.3459	5,856.45	56.7057	5,856.45	70.1791	5,856.45	60.7157	5,856.45	68.9097	5,856.45	60.9745	5,856.45	69.6637	5,856.45	61.3415	5,856.45	65.749	5,856.45	58.0408	5,856.45	68.1407	5,856.45	64.7458	5,856.45	58.4014	5,856.45	65.4383	5,856.45	61.3333
6,062.99	91.7671	6,062.99	91.794	6,062.99	91.274	6,062.99	91.3977	6,062.99	90.4618	6,062.99	91.098	6,062.99	89.93	6,062.99	90.5409	6,062.99	89.2593	6,062.99	88.1937	6,062.99	87.1628	6,062.99	83.8713	6,062.99	83.1495	6,062.99	79.1835	6,062.99	77.6728	6,062.99	75.1725	6,062.99	72.8482	6,062.99	72.6333	6,062.99	70.5654	6,062.99	70.3721	6,062.99	67.0595	6,062.99	67.3454	6,062.99	60.0139	6,062.99	65.6407	6,062.99	63.5575	6,062.99	67.129	6,062.99	57.8699	6,062.99	67.1816	6,062.99	61.4786	6,062.99	63.3714	6,062.99	56.5189	6,062.99	66.0563	6,062.99	64.7258	6,062.99	61.3638	6,062.99	66.1767	6,062.99	56.4346
6,276.86	93.1769	6,276.86	92.7727	6,276.86	92.2134	6,276.86	91.5859	6,276.86	90.6407	6,276.86	91.1529	6,276.86	89.9775	6,276.86	90.4338	6,276.86	89.4745	6,276.86	87.5338	6,276.86	87.4822	6,276.86	83.2085	6,276.86	83.6734	6,276.86	78.9999	6,276.86	77.9793	6,276.86	74.633	6,276.86	72.3411	6,276.86	72.3232	6,276.86	69.4467	6,276.86	71.6226	6,276.86	63.6742	6,276.86	70.0325	6,276.86	62.0867	6,276.86	67.6135	6,276.86	66.2318	6,276.86	67.4232	6,276.86	59.4578	6,276.86	68.2517	6,276.86	62.2354	6,276.86	61.6317	6,276.86	57.3925	6,276.86	65.1376	6,276.86	63.7355	6,276.86	58.2189	6,276.86	65.6048	6,276.86	61.2908
6,498.05	92.9906	6,498.05	92.4025	6,498.05	92.2679	6,498.05	91.3153	6,498.05	90.7559	6,498.05	90.9247	6,498.05	89.9661	6,498.05	89.6537	6,498.05	89.4387	6,498.05	86.3985	6,498.05	87.1982	6,498.05	82.5597	6,498.05	83.0187	6,498.05	78.8417	6,498.05	78.142	6,498.05	75.1716	6,498.05	74.4182	6,498.05	71.8406	6,498.05	72.2025	6,498.05	68.7686	6,498.05	68.0524	6,498.05	67.4959	6,498.05	62.3331	6,498.05	64.9358	6,498.05	59.5058	6,498.05	66.1776	6,498.05	61.385	6,498.05	66.8132	6,498.05	57.1383	6,498.05	61.7176	6,498.05	57.9112	6,498.05	64.972	6,498.05	63.3551	6,498.05	55.4283	6,498.05	67.6477	6,498.05	60.7794
6,727.29	93.1689	6,727.29	92.437	6,727.29	92.3637	6,727.29	91.5073	6,727.29	90.7733	6,727.29	91.2976	6,727.29	90.0891	6,727.29	89.707	6,727.29	89.1888	6,727.29	86.0682	6,727.29	86.3518	6,727.29	81.4057	6,727.29	81.6828	6,727.29	77.0021	6,727.29	76.8903	6,727.29	75.1097	6,727.29	74.5299	6,727.29	73.293	6,727.29	73.0169	6,727.29	70.453	6,727.29	69.0968	6,727.29	69.716	6,727.29	65.9927	6,727.29	67.5568	6,727.29	63.7814	6,727.29	66.4218	6,727.29	62.509	6,727.29	68.7583	6,727.29	53.0246	6,727.29	61.1407	6,727.29	52.7561	6,727.29	65.0676	6,727.29	62.9689	6,727.29	56.6583	6,727.29	64.554	6,727.29	55.6467
6,964.6	93.3739	6,964.6	92.6002	6,964.6	92.8377	6,964.6	92.0252	6,964.6	91.5445	6,964.6	92.0006	6,964.6	91.0171	6,964.6	90.1571	6,964.6	89.5059	6,964.6	85.4543	6,964.6	84.9935	6,964.6	79.9188	6,964.6	78.6252	6,964.6	77.8693	6,964.6	74.3748	6,964.6	76.4821	6,964.6	71.9974	6,964.6	74.2371	6,964.6	71.6764	6,964.6	70.8853	6,964.6	69.9873	6,964.6	70.667	6,964.6	66.7701	6,964.6	69.1429	6,964.6	62.5808	6,964.6	64.3553	6,964.6	60.9553	6,964.6	69.9797	6,964.6	58.08	6,964.6	59.4237	6,964.6	57.2949	6,964.6	65.1901	6,964.6	63.4342	6,964.6	56.2647	6,964.6	65.1051	6,964.6	58.7421
7,209.96	93.0019	7,209.96	92.0137	7,209.96	92.6247	7,209.96	91.8792	7,209.96	91.6526	7,209.96	92.4205	7,209.96	91.5396	7,209.96	90.1825	7,209.96	90.0293	7,209.96	84.9159	7,209.96	84.8684	7,209.96	81.0054	7,209.96	77.3155	7,209.96	78.8883	7,209.96	73.5446	7,209.96	77.2308	7,209.96	72.2709	7,209.96	75.2709	7,209.96	71.0244	7,209.96	71.0537	7,209.96	68.985	7,209.96	69.6671	7,209.96	69.829	7,209.96	70.5748	7,209.96	65.4205	7,209.96	64.1857	7,209.96	62.0489	7,209.96	70.1291	7,209.96	61.3668	7,209.96	62.4369	7,209.96	58.8162	7,209.96	67.9922	7,209.96	65.9837	7,209.96	60.8893	7,209.96	66.7725	7,209.96	59.821
7,464.11	91.8379	7,464.11	90.6915	7,464.11	91.9416	7,464.11	91.6603	7,464.11	91.6474	7,464.11	92.445	7,464.11	92.2004	7,464.11	90.0112	7,464.11	90.2607	7,464.11	85.0706	7,464.11	83.5868	7,464.11	82.483	7,464.11	78.2095	7,464.11	80.1085	7,464.11	77.4243	7,464.11	77.4902	7,464.11	75.804	7,464.11	76.4949	7,464.11	73.0089	7,464.11	73.7248	7,464.11	65.3225	7,464.11	70.9412	7,464.11	69.5751	7,464.11	71.702	7,464.11	61.0848	7,464.11	62.2698	7,464.11	57.8614	7,464.11	70.2091	7,464.11	62.0624	7,464.11	61.8357	7,464.11	59.2324	7,464.11	66.9348	7,464.11	65.2193	7,464.11	61.6164	7,464.11	64.8257	7,464.11	61.1023
7,727.78	88.9212	7,727.78	88.252	7,727.78	89.3857	7,727.78	90.7339	7,727.78	90.2717	7,727.78	91.7265	7,727.78	91.5628	7,727.78	88.7783	7,727.78	89.3275	7,727.78	84.6272	7,727.78	82.1086	7,727.78	83.5198	7,727.78	80.7415	7,727.78	81.1211	7,727.78	79.5053	7,727.78	78.6897	7,727.78	77.9739	7,727.78	76.6803	7,727.78	77.3544	7,727.78	72.9237	7,727.78	70.4956	7,727.78	68.0579	7,727.78	59.3182	7,727.78	71.5243	7,727.78	56.1799	7,727.78	67.5422	7,727.78	59.8632	7,727.78	71.1172	7,727.78	64.1596	7,727.78	64.7509	7,727.78	62.1771	7,727.78	68.9526	7,727.78	66.6567	7,727.78	65.1193	7,727.78	65.5656	7,727.78	61.1204
8,000.24	85.3711	8,000.24	86.7988	8,000.24	86.603	8,000.24	90.8098	8,000.24	89.3568	8,000.24	91.2845	8,000.24	91.0059	8,000.24	87.7785	8,000.24	88.0372	8,000.24	85.125	8,000.24	81.9487	8,000.24	84.0303	8,000.24	83.8866	8,000.24	81.6193	8,000.24	82.0674	8,000.24	79.2308	8,000.24	78.747	8,000.24	76.8623	8,000.24	76.5898	8,000.24	73.552	8,000.24	70.8235	8,000.24	67.9209	8,000.24	59.2134	8,000.24	69.9722	8,000.24	60.2736	8,000.24	64.2764	8,000.24	60.3321	8,000.24	70.4375	8,000.24	63.1466	8,000.24	63.7019	8,000.24	60.4301	8,000.24	67.427	8,000.24	62.919	8,000.24	63.0066	8,000.24	59.9969	8,000.24	60.8661
8,282.23	84.0715	8,282.23	88.0814	8,282.23	85.0296	8,282.23	91.2849	8,282.23	88.8335	8,282.23	90.6265	8,282.23	89.887	8,282.23	86.8998	8,282.23	85.9675	8,282.23	85.7196	8,282.23	82.3226	8,282.23	84.5158	8,282.23	84.2932	8,282.23	82.0558	8,282.23	81.8126	8,282.23	78.4417	8,282.23	76.756	8,282.23	74.5714	8,282.23	74.0306	8,282.23	72.6926	8,282.23	73.8313	8,282.23	69.8635	8,282.23	69.6665	8,282.23	70.7728	8,282.23	63.2982	8,282.23	64.7036	8,282.23	59.9992	8,282.23	69.4096	8,282.23	58.7155	8,282.23	65.5494	8,282.23	56.922	8,282.23	65.1532	8,282.23	56.048	8,282.23	64.137	8,282.23	54.025	8,282.23	57.8706
8,574.46	86.298	8,574.46	89.2735	8,574.46	86.6501	8,574.46	91.1619	8,574.46	88.8837	8,574.46	89.5967	8,574.46	88.4221	8,574.46	86.2563	8,574.46	83.6597	8,574.46	85.6729	8,574.46	82.9714	8,574.46	83.7777	8,574.46	84.5155	8,574.46	81.6817	8,574.46	81.1524	8,574.46	78.1813	8,574.46	73.5107	8,574.46	73.1722	8,574.46	65.2376	8,574.46	70.2628	8,574.46	63.5369	8,574.46	66.6738	8,574.46	62.0478	8,574.46	67.7405	8,574.46	58.7809	8,574.46	64.4193	8,574.46	47.7756	8,574.46	66.7057	8,574.46	44.2765	8,574.46	65.7361	8,574.46	49.0949	8,574.46	58.7602	8,574.46	52.4763	8,574.46	62.622	8,574.46	57.8723	8,574.46	51.763
8,876.22	87.3489	8,876.22	89.7763	8,876.22	87.9247	8,876.22	91.1275	8,876.22	89.6429	8,876.22	89.1273	8,876.22	87.8013	8,876.22	86.0634	8,876.22	82.1785	8,876.22	85.2246	8,876.22	83.4217	8,876.22	83.3897	8,876.22	82.9337	8,876.22	80.9969	8,876.22	78.2604	8,876.22	75.7777	8,876.22	71.3466	8,876.22	69.3377	8,876.22	64.1882	8,876.22	69.2133	8,876.22	39.5787	8,876.22	67.0789	8,876.22	55.1022	8,876.22	64.2122	8,876.22	52.3388	8,876.22	64.1476	8,876.22	58.6139	8,876.22	63.4478	8,876.22	54.0522	8,876.22	64.8754	8,876.22	55.4204	8,876.22	52.2933	8,876.22	57.3628	8,876.22	62.5446	8,876.22	63.7091	8,876.22	51.4541
9,189.7	86.8968	9,189.7	88.6976	9,189.7	88.3949	9,189.7	89.9648	9,189.7	89.7972	9,189.7	87.9316	9,189.7	86.9274	9,189.7	85.4286	9,189.7	83.2613	9,189.7	84.8063	9,189.7	84.2939	9,189.7	82.3735	9,189.7	82.1228	9,189.7	79.4022	9,189.7	77.3991	9,189.7	74.3206	9,189.7	71.2901	9,189.7	68.1888	9,189.7	63.8609	9,189.7	66.9624	9,189.7	45.126	9,189.7	66.6502	9,189.7	55.6572	9,189.7	61.1116	9,189.7	55.2915	9,189.7	60.8929	9,189.7	61.7719	9,189.7	61.6522	9,189.7	48.0121	9,189.7	62.506	9,189.7	57.0146	9,189.7	57.7688	9,189.7	58.5859	9,189.7	61.2022	9,189.7	63.1277	9,189.7	58.2975
9,513.43	85.4479	9,513.43	87.4212	9,513.43	87.8823	9,513.43	89.2509	9,513.43	89.3651	9,513.43	87.0585	9,513.43	86.4101	9,513.43	85.2435	9,513.43	84.4087	9,513.43	84.6736	9,513.43	84.5393	9,513.43	81.4014	9,513.43	81.8106	9,513.43	77.8143	9,513.43	76.9147	9,513.43	72.1641	9,513.43	69.837	9,513.43	67.8428	9,513.43	65.4799	9,513.43	66.133	9,513.43	62.1681	9,513.43	65.9557	9,513.43	49.5223	9,513.43	63.3845	9,513.43	58.2965	9,513.43	56.4767	9,513.43	57.3481	9,513.43	62.6113	9,513.43	58.5206	9,513.43	50.0436	9,513.43	57.6841	9,513.43	59.3202	9,513.43	60.4987	9,513.43	56.8801	9,513.43	60.9564	9,513.43	59.6454
9,848.88	85.0149	9,848.88	87.7398	9,848.88	87.5002	9,848.88	89.5428	9,848.88	89.0195	9,848.88	87.142	9,848.88	86.221	9,848.88	86.4306	9,848.88	85.587	9,848.88	85.2328	9,848.88	85.085	9,848.88	80.9579	9,848.88	81.42	9,848.88	75.8105	9,848.88	74.1343	9,848.88	68.4845	9,848.88	63.2472	9,848.88	67.773	9,848.88	67.2369	9,848.88	66.6041	9,848.88	68.365	9,848.88	58.7349	9,848.88	61.9189	9,848.88	63.3336	9,848.88	63.1767	9,848.88	56.1823	9,848.88	60.1991	9,848.88	61.9107	9,848.88	59.7944	9,848.88	50.9199	9,848.88	57.805	9,848.88	58.9534	9,848.88	61.3666	9,848.88	56.242	9,848.88	56.9781	9,848.88	63.4769
10,196.8	84.1229	10,196.8	88.3265	10,196.8	86.6483	10,196.8	90.3017	10,196.8	88.6998	10,196.8	87.8441	10,196.8	86.2742	10,196.8	88.0868	10,196.8	87.0146	10,196.8	86.3674	10,196.8	86.2155	10,196.8	81.0908	10,196.8	81.929	10,196.8	75.1013	10,196.8	72.3652	10,196.8	68.0764	10,196.8	51.5018	10,196.8	67.4549	10,196.8	68.4301	10,196.8	67.3042	10,196.8	71.8606	10,196.8	56.4947	10,196.8	67.2686	10,196.8	63.7686	10,196.8	65.5176	10,196.8	60.1383	10,196.8	59.7133	10,196.8	62.5639	10,196.8	62.3905	10,196.8	59.5226	10,196.8	58.2157	10,196.8	59.7452	10,196.8	63.0109	10,196.8	56.8275	10,196.8	59.7019	10,196.8	67.2659
10,556.4	82.2554	10,556.4	87.2013	10,556.4	85.445	10,556.4	89.5582	10,556.4	87.8831	10,556.4	87.8393	10,556.4	86.1847	10,556.4	89.1661	10,556.4	88.491	10,556.4	86.5337	10,556.4	87.2825	10,556.4	80.5766	10,556.4	82.3942	10,556.4	76.4742	10,556.4	71.7422	10,556.4	71.6994	10,556.4	68.3699	10,556.4	66.8959	10,556.4	67.5315	10,556.4	66.9827	10,556.4	73.6281	10,556.4	61.4755	10,556.4	69.7569	10,556.4	65.2694	10,556.4	67.2847	10,556.4	61.5623	10,556.4	62.522	10,556.4	64.6622	10,556.4	62.4963	10,556.4	59.0396	10,556.4	58.1489	10,556.4	65.4112	10,556.4	65.6878	10,556.4	60.0226	10,556.4	62.5097	10,556.4	70.8151
10,928.5	86.6607	10,928.5	86.6799	10,928.5	87.5028	10,928.5	87.5955	10,928.5	87.0274	10,928.5	87.1492	10,928.5	85.9625	10,928.5	88.9109	10,928.5	89.1691	10,928.5	85.1221	10,928.5	86.9881	10,928.5	79.8536	10,928.5	80.7004	10,928.5	77.4243	10,928.5	74.5135	10,928.5	73.6482	10,928.5	74.1575	10,928.5	68.0146	10,928.5	69.3373	10,928.5	67.8979	10,928.5	74.8755	10,928.5	63.6073	10,928.5	70.553	10,928.5	66.9079	10,928.5	67.1875	10,928.5	61.39	10,928.5	62.6736	10,928.5	65.8637	10,928.5	63.4094	10,928.5	52.6651	10,928.5	56.1634	10,928.5	67.6842	10,928.5	68.3761	10,928.5	64.1501	10,928.5	63.2449	10,928.5	73.177
11,313.7	90.0253	11,313.7	88.2113	11,313.7	89.9684	11,313.7	86.5266	11,313.7	87.0982	11,313.7	87.3844	11,313.7	86.7934	11,313.7	87.95	11,313.7	88.6568	11,313.7	82.6528	11,313.7	84.0109	11,313.7	79.8221	11,313.7	78.6939	11,313.7	78.6766	11,313.7	77.9249	11,313.7	74.2799	11,313.7	74.3692	11,313.7	68.0553	11,313.7	65.6937	11,313.7	68.8775	11,313.7	70.9262	11,313.7	64.0521	11,313.7	66.437	11,313.7	66.3983	11,313.7	65.5713	11,313.7	58.7896	11,313.7	62.5826	11,313.7	66.258	11,313.7	64.2937	11,313.7	50.0939	11,313.7	55.3436	11,313.7	68.3913	11,313.7	67.901	11,313.7	64.9485	11,313.7	61.197	11,313.7	73.7045
11,712.9	90.3527	11,712.9	88.8097	11,712.9	90.3305	11,712.9	87.3318	11,712.9	87.8576	11,712.9	87.8483	11,712.9	87.814	11,712.9	86.87	11,712.9	87.4343	11,712.9	81.3499	11,712.9	80.3089	11,712.9	80.3333	11,712.9	80.2027	11,712.9	78.5313	11,712.9	77.9525	11,712.9	73.938	11,712.9	72.4197	11,712.9	67.8858	11,712.9	65.4039	11,712.9	68.1502	11,712.9	67.947	11,712.9	62.73	11,712.9	62.5681	11,712.9	63.9156	11,712.9	63.6417	11,712.9	55.9258	11,712.9	59.8295	11,712.9	65.1545	11,712.9	67.7832	11,712.9	56.5576	11,712.9	59.9335	11,712.9	67.6563	11,712.9	67.2793	11,712.9	64.5965	11,712.9	61.1538	11,712.9	72.7986
12,126	89.9613	12,126	88.9679	12,126	89.8421	12,126	87.9518	12,126	88.088	12,126	87.9097	12,126	88.3392	12,126	85.9596	12,126	86.8603	12,126	80.623	12,126	80.4808	12,126	80.9172	12,126	82.2636	12,126	77.8054	12,126	78.0563	12,126	71.6879	12,126	69.3901	12,126	64.3471	12,126	66.1072	12,126	65.6951	12,126	66.9514	12,126	60.0527	12,126	60.2098	12,126	62.7863	12,126	64.3534	12,126	59.4728	12,126	56.6769	12,126	64.6753	12,126	67.4385	12,126	59.417	12,126	61.4511	12,126	67.8101	12,126	66.7364	12,126	63.5396	12,126	55.5965	12,126	71.9127
12,553.7	90.2623	12,553.7	89.3495	12,553.7	90.0456	12,553.7	88.3591	12,553.7	88.8767	12,553.7	88.2687	12,553.7	88.9909	12,553.7	85.6038	12,553.7	86.6265	12,553.7	81.1348	12,553.7	81.9096	12,553.7	81.2431	12,553.7	82.7731	12,553.7	76.5736	12,553.7	75.6399	12,553.7	70.29	12,553.7	62.2272	12,553.7	59.7191	12,553.7	66.4734	12,553.7	62.5847	12,553.7	68.3932	12,553.7	60.4173	12,553.7	60.6709	12,553.7	62.1051	12,553.7	66.1854	12,553.7	61.2099	12,553.7	65.5456	12,553.7	65.1658	12,553.7	64.9921	12,553.7	61.3025	12,553.7	63.7949	12,553.7	68.5363	12,553.7	65.3294	12,553.7	62.6054	12,553.7	32.4216	12,553.7	71.7131
12,996.1	91.6289	12,996.1	90.7032	12,996.1	91.2939	12,996.1	89.735	12,996.1	90.1938	12,996.1	88.8858	12,996.1	89.4496	12,996.1	84.9885	12,996.1	86.4428	12,996.1	81.7214	12,996.1	83.0257	12,996.1	80.5086	12,996.1	82.3777	12,996.1	74.5598	12,996.1	74.552	12,996.1	67.8393	12,996.1	66.5652	12,996.1	44.8816	12,996.1	63.7697	12,996.1	59.3226	12,996.1	67.3755	12,996.1	62.1263	12,996.1	63.7845	12,996.1	59.8736	12,996.1	64.5024	12,996.1	60.3144	12,996.1	67.4958	12,996.1	63.1337	12,996.1	58.5852	12,996.1	60.118	12,996.1	62.5005	12,996.1	67.0157	12,996.1	62.3807	12,996.1	62.1237	12,996.1	53.2995	12,996.1	70.814
13,454.6	92.412	13,454.6	91.4591	13,454.6	92.1046	13,454.6	90.7843	13,454.6	91.0291	13,454.6	89.3067	13,454.6	89.7199	13,454.6	84.3641	13,454.6	85.9892	13,454.6	82.1678	13,454.6	82.6265	13,454.6	78.9667	13,454.6	81.4873	13,454.6	72.473	13,454.6	73.5453	13,454.6	65.3768	13,454.6	67.7629	13,454.6	57.6793	13,454.6	62.0817	13,454.6	58.7193	13,454.6	67.4177	13,454.6	61.4353	13,454.6	62.8895	13,454.6	58.3772	13,454.6	58.7248	13,454.6	58.5723	13,454.6	66.6503	13,454.6	62.318	13,454.6	58.4081	13,454.6	60.6878	13,454.6	60.0352	13,454.6	64.9822	13,454.6	58.441	13,454.6	64.2243	13,454.6	60.8603	13,454.6	70.7451
13,928.5	92.265	13,928.5	91.637	13,928.5	92.2779	13,928.5	91.2937	13,928.5	91.596	13,928.5	88.7203	13,928.5	89.3534	13,928.5	83.6048	13,928.5	84.7409	13,928.5	82.1897	13,928.5	82.2479	13,928.5	76.2799	13,928.5	78.744	13,928.5	70.9146	13,928.5	68.6496	13,928.5	65.1731	13,928.5	61.7334	13,928.5	62.0088	13,928.5	60.6767	13,928.5	57.3605	13,928.5	48.793	13,928.5	58.1744	13,928.5	60.3856	13,928.5	54.8696	13,928.5	50.4051	13,928.5	59.0892	13,928.5	63.9116	13,928.5	59.6075	13,928.5	61.7709	13,928.5	61.2638	13,928.5	57.4739	13,928.5	62.9895	13,928.5	58.6038	13,928.5	64.2095	13,928.5	62.2572	13,928.5	70.1005
14,419.9	92.6015	14,419.9	92.5081	14,419.9	92.5016	14,419.9	91.8264	14,419.9	91.8581	14,419.9	88.3348	14,419.9	88.8621	14,419.9	84.2992	14,419.9	84.7959	14,419.9	81.1102	14,419.9	81.6971	14,419.9	72.6042	14,419.9	73.3677	14,419.9	71.1193	14,419.9	68.5617	14,419.9	66.3624	14,419.9	63.0919	14,419.9	60.8476	14,419.9	54.4404	14,419.9	56.2471	14,419.9	65.786	14,419.9	54.2816	14,419.9	65.4428	14,419.9	51.7162	14,419.9	54.1585	14,419.9	59.2305	14,419.9	53.6886	14,419.9	53.1416	14,419.9	58.5019	14,419.9	58.5795	14,419.9	45.6066	14,419.9	56.6357	14,419.9	51.4811	14,419.9	60.2937	14,419.9	61.8157	14,419.9	66.0047
14,928.2	92.8707	14,928.2	92.6312	14,928.2	92.6928	14,928.2	91.4377	14,928.2	91.703	14,928.2	87.8975	14,928.2	88.4739	14,928.2	84.198	14,928.2	85.4035	14,928.2	79.4076	14,928.2	80.5082	14,928.2	72.4242	14,928.2	74.4848	14,928.2	70.7176	14,928.2	71.7548	14,928.2	64.5024	14,928.2	58.0043	14,928.2	56.4695	14,928.2	55.2406	14,928.2	56.6602	14,928.2	68.1135	14,928.2	53.309	14,928.2	65.88	14,928.2	49.3133	14,928.2	55.7274	14,928.2	55.0328	14,928.2	39.9579	14,928.2	49.6276	14,928.2	53.6202	14,928.2	46.0845	14,928.2	31.5443	14,928.2	56.2797	14,928.2	56.5495	14,928.2	38.2114	14,928.2	60.1134	14,928.2	61.1655
15,454.8	93.0268	15,454.8	92.284	15,454.8	92.7859	15,454.8	90.7984	15,454.8	91.479	15,454.8	87.41	15,454.8	88.3539	15,454.8	83.4159	15,454.8	84.6415	15,454.8	77.8555	15,454.8	78.518	15,454.8	71.3319	15,454.8	74.5132	15,454.8	68.881	15,454.8	67.9874	15,454.8	59.9345	15,454.8	55.3753	15,454.8	53.1871	15,454.8	59.3283	15,454.8	53.9587	15,454.8	65.9346	15,454.8	41.3668	15,454.8	60.7	15,454.8	48.6735	15,454.8	57.0435	15,454.8	48.566	15,454.8	51.5894	15,454.8	48.5219	15,454.8	58.1177	15,454.8	55.3281	15,454.8	47.9338	15,454.8	61.8294	15,454.8	62.6695	15,454.8	56.2669	15,454.8	61.3696	15,454.8	66.4817
15,999.8	92.7099	15,999.8	91.8288	15,999.8	92.4993	15,999.8	90.3891	15,999.8	91.2954	15,999.8	86.8981	15,999.8	87.9787	15,999.8	82.5499	15,999.8	83.4728	15,999.8	75.8162	15,999.8	77.8561	15,999.8	69.3938	15,999.8	71.0648	15,999.8	64.6942	15,999.8	59.2542	15,999.8	54.2433	15,999.8	52.4119	15,999.8	54.5887	15,999.8	63.8045	15,999.8	52.5154	15,999.8	65.99	15,999.8	49.1537	15,999.8	59.7366	15,999.8	48.3819	15,999.8	60.8192	15,999.8	47.4516	15,999.8	59.6039	15,999.8	55.2314	15,999.8	61.1997	15,999.8	60.4486	15,999.8	55.8555	15,999.8	64.9743	15,999.8	65.5224	15,999.8	60.5993	15,999.8	61.7707	15,999.8	68.868
16,564.5	91.7876	16,564.5	91.0902	16,564.5	91.5522	16,564.5	89.6581	16,564.5	90.4316	16,564.5	85.9568	16,564.5	86.8383	16,564.5	81.0759	16,564.5	82.132	16,564.5	72.8712	16,564.5	77.0961	16,564.5	66.7933	16,564.5	66.2266	16,564.5	55.4668	16,564.5	59.5854	16,564.5	52.7827	16,564.5	59.0589	16,564.5	56.2586	16,564.5	65.0191	16,564.5	49.453	16,564.5	68.903	16,564.5	50.2541	16,564.5	65.0834	16,564.5	51.3823	16,564.5	61.4506	16,564.5	47.7939	16,564.5	63.0734	16,564.5	57.7039	16,564.5	59.1545	16,564.5	61.9763	16,564.5	58.8026	16,564.5	65.6331	16,564.5	64.1832	16,564.5	62.0359	16,564.5	60.1469	16,564.5	68.6188
17,148.2	91.0497	17,148.2	90.4921	17,148.2	90.4427	17,148.2	88.7408	17,148.2	88.9628	17,148.2	84.6817	17,148.2	84.9881	17,148.2	78.9936	17,148.2	80.6801	17,148.2	70.4832	17,148.2	75.8621	17,148.2	61.273	17,148.2	60.5825	17,148.2	54.5529	17,148.2	62.2626	17,148.2	49.0417	17,148.2	56.0089	17,148.2	55.8163	17,148.2	60.706	17,148.2	49.5732	17,148.2	67.7571	17,148.2	48.1616	17,148.2	63.9006	17,148.2	47.5255	17,148.2	57.8392	17,148.2	50.7269	17,148.2	59.9464	17,148.2	54.695	17,148.2	50.529	17,148.2	60.5046	17,148.2	55.2388	17,148.2	61.682	17,148.2	59.1415	17,148.2	61.6396	17,148.2	55.4156	17,148.2	65.5377
17,753.2	91.0253	17,753.2	90.1394	17,753.2	90.0274	17,753.2	87.7854	17,753.2	87.7646	17,753.2	83.0828	17,753.2	83.2746	17,753.2	76.7369	17,753.2	78.3505	17,753.2	67.6955	17,753.2	72.3664	17,753.2	60.5261	17,753.2	51.9819	17,753.2	58.8004	17,753.2	60.4495	17,753.2	48.4564	17,753.2	58.5277	17,753.2	57.6191	17,753.2	62.3813	17,753.2	51.7495	17,753.2	65.0775	17,753.2	49.7602	17,753.2	56.4631	17,753.2	41.8849	17,753.2	57.6451	17,753.2	53.2287	17,753.2	58.404	17,753.2	54.9644	17,753.2	55.2915	17,753.2	57.9423	17,753.2	54.5466	17,753.2	57.5909	17,753.2	61.8485	17,753.2	61.9924	17,753.2	57.5002	17,753.2	64.7392
18,379.4	90.5139	18,379.4	89.5139	18,379.4	89.4943	18,379.4	87.1264	18,379.4	87.176	18,379.4	82.0603	18,379.4	82.2179	18,379.4	76.3462	18,379.4	75.6146	18,379.4	65.4674	18,379.4	67.759	18,379.4	64.0088	18,379.4	60.4052	18,379.4	60.9079	18,379.4	58.7899	18,379.4	49.798	18,379.4	63.9001	18,379.4	60.1021	18,379.4	67.0941	18,379.4	48.5705	18,379.4	67.9901	18,379.4	54.0475	18,379.4	61.5163	18,379.4	50.1881	18,379.4	61.9467	18,379.4	51.209	18,379.4	64.9592	18,379.4	58.2699	18,379.4	59.411	18,379.4	58.7224	18,379.4	61.1816	18,379.4	62.3089	18,379.4	64.7446	18,379.4	63.654	18,379.4	60.0444	18,379.4	67.2111
19,027.6	89.275	19,027.6	88.7581	19,027.6	88.2003	19,027.6	86.1928	19,027.6	85.8237	19,027.6	80.8436	19,027.6	80.7568	19,027.6	75.3882	19,027.6	75.0505	19,027.6	60.7653	19,027.6	67.383	19,027.6	63.4922	19,027.6	60.3623	19,027.6	60.3213	19,027.6	59.4551	19,027.6	47.0325	19,027.6	63.2609	19,027.6	58.6965	19,027.6	65.6736	19,027.6	30.7989	19,027.6	68.2063	19,027.6	53.5473	19,027.6	62.1933	19,027.6	51.1695	19,027.6	60.423	19,027.6	47.5136	19,027.6	65.2545	19,027.6	57.1438	19,027.6	56.0112	19,027.6	57.9345	19,027.6	61.3515	19,027.6	60.2796	19,027.6	62.1717	19,027.6	63.5667	19,027.6	60.0918	19,027.6	65.138
19,698.5	89.7577	19,698.5	88.8814	19,698.5	88.001	19,698.5	85.0309	19,698.5	84.3291	19,698.5	79.2012	19,698.5	78.6445	19,698.5	72.7578	19,698.5	72.3935	19,698.5	58.0183	19,698.5	65.4909	19,698.5	60.2443	19,698.5	53.9533	19,698.5	55.587	19,698.5	54.6693	19,698.5	41.8463	19,698.5	56.2283	19,698.5	49.524	19,698.5	60.9317	19,698.5	45.9884	19,698.5	63.1791	19,698.5	47.8871	19,698.5	56.3575	19,698.5	45.7166	19,698.5	53.5934	19,698.5	46.9307	19,698.5	60.549	19,698.5	51.0945	19,698.5	47.8355	19,698.5	55.592	19,698.5	56.6352	19,698.5	52.8281	19,698.5	56.1346	19,698.5	61.4603	19,698.5	57.6966	19,698.5	60.8221
19,999.5	89.8911	19,999.5	88.6702	19,999.5	87.9105	19,999.5	84.1746	19,999.5	83.6315	19,999.5	78.1426	19,999.5	77.5975	19,999.5	70.7039	19,999.5	71.536	19,999.5	58.7513	19,999.5	66.1298	19,999.5	56.8383	19,999.5	56.4807	19,999.5	52.3649	19,999.5	47.2465	19,999.5	39.6411	19,999.5	54.9444	19,999.5	42.4906	19,999.5	60.1778	19,999.5	50.6017	19,999.5	59.2388	19,999.5	35.0519	19,999.5	48.2703	19,999.5	46.9725	19,999.5	47.9879	19,999.5	50.6521	19,999.5	57.3226	19,999.5	51.0596	19,999.5	37.3027	19,999.5	54.5979	19,999.5	53.4355	19,999.5	51.8752	19,999.5	53.2958	19,999.5	59.8354	19,999.5	56.6584	19,999.5	59.0416
