"SPL Horizontal"																																																																							
"On-Axis"		"10°"		"-10°"		"20°"		"-20°"		"30°"		"-30°"		"40°"		"-40°"		"50°"		"-50°"		"60°"		"-60°"		"70°"		"-70°"		"80°"		"-80°"		"90°"		"-90°"		"100°"		"-100°"		"110°"		"-110°"		"120°"		"-120°"		"130°"		"-130°"		"140°"		"-140°"		"150°"		"-150°"		"160°"		"-160°"		"170°"		"-170°"		"180°"	
"Frequency [Hz]"	"Sound Pessure Level [dB]  / [2.83V 1m] "	"Frequency [Hz]"	"Sound Pessure Level [dB]  / [2.83V 1m] "	"Frequency [Hz]"	"Sound Pessure Level [dB]  / [2.83V 1m] "	"Frequency [Hz]"	"Sound Pessure Level [dB]  / [2.83V 1m] "	"Frequency [Hz]"	"Sound Pessure Level [dB]  / [2.83V 1m] "	"Frequency [Hz]"	"Sound Pessure Level [dB]  / [2.83V 1m] "	"Frequency [Hz]"	"Sound Pessure Level [dB]  / [2.83V 1m] "	"Frequency [Hz]"	"Sound Pessure Level [dB]  / [2.83V 1m] "	"Frequency [Hz]"	"Sound Pessure Level [dB]  / [2.83V 1m] "	"Frequency [Hz]"	"Sound Pessure Level [dB]  / [2.83V 1m] "	"Frequency [Hz]"	"Sound Pessure Level [dB]  / [2.83V 1m] "	"Frequency [Hz]"	"Sound Pessure Level [dB]  / [2.83V 1m] "	"Frequency [Hz]"	"Sound Pessure Level [dB]  / [2.83V 1m] "	"Frequency [Hz]"	"Sound Pessure Level [dB]  / [2.83V 1m] "	"Frequency [Hz]"	"Sound Pessure Level [dB]  / [2.83V 1m] "	"Frequency [Hz]"	"Sound Pessure Level [dB]  / [2.83V 1m] "	"Frequency [Hz]"	"Sound Pessure Level [dB]  / [2.83V 1m] "	"Frequency [Hz]"	"Sound Pessure Level [dB]  / [2.83V 1m] "	"Frequency [Hz]"	"Sound Pessure Level [dB]  / [2.83V 1m] "	"Frequency [Hz]"	"Sound Pessure Level [dB]  / [2.83V 1m] "	"Frequency [Hz]"	"Sound Pessure Level [dB]  / [2.83V 1m] "	"Frequency [Hz]"	"Sound Pessure Level [dB]  / [2.83V 1m] "	"Frequency [Hz]"	"Sound Pessure Level [dB]  / [2.83V 1m] "	"Frequency [Hz]"	"Sound Pessure Level [dB]  / [2.83V 1m] "	"Frequency [Hz]"	"Sound Pessure Level [dB]  / [2.83V 1m] "	"Frequency [Hz]"	"Sound Pessure Level [dB]  / [2.83V 1m] "	"Frequency [Hz]"	"Sound Pessure Level [dB]  / [2.83V 1m] "	"Frequency [Hz]"	"Sound Pessure Level [dB]  / [2.83V 1m] "	"Frequency [Hz]"	"Sound Pessure Level [dB]  / [2.83V 1m] "	"Frequency [Hz]"	"Sound Pessure Level [dB]  / [2.83V 1m] "	"Frequency [Hz]"	"Sound Pessure Level [dB]  / [2.83V 1m] "	"Frequency [Hz]"	"Sound Pessure Level [dB]  / [2.83V 1m] "	"Frequency [Hz]"	"Sound Pessure Level [dB]  / [2.83V 1m] "	"Frequency [Hz]"	"Sound Pessure Level [dB]  / [2.83V 1m] "	"Frequency [Hz]"	"Sound Pessure Level [dB]  / [2.83V 1m] "	"Frequency [Hz]"	"Sound Pessure Level [dB]  / [2.83V 1m] "
20.5078	51.1211	20.5078	51.0674	20.5078	51.1816	20.5078	51.0218	20.5078	51.248	20.5078	50.9859	20.5078	51.3195	20.5078	50.9618	20.5078	51.3955	20.5078	50.9518	20.5078	51.4752	20.5078	50.9579	20.5078	51.5576	20.5078	50.982	20.5078	51.6411	20.5078	51.0249	20.5078	51.7238	20.5078	51.0866	20.5078	51.8031	20.5078	51.1656	20.5078	51.8763	20.5078	51.2591	20.5078	51.9403	20.5078	51.3631	20.5078	51.9923	20.5078	51.473	20.5078	52.0297	20.5078	51.5838	20.5078	52.0503	20.5078	51.6907	20.5078	52.0528	20.5078	51.7891	20.5078	52.0364	20.5078	51.8754	20.5078	52.0008	20.5078	51.9467
21.2402	49.8188	21.2402	49.7746	21.2402	49.8801	21.2402	49.7489	21.2402	49.9568	21.2402	49.7435	21.2402	50.0473	21.2402	49.7595	21.2402	50.1499	21.2402	49.7977	21.2402	50.2624	21.2402	49.8581	21.2402	50.3824	21.2402	49.9395	21.2402	50.5069	21.2402	50.0398	21.2402	50.6325	21.2402	50.1555	21.2402	50.7551	21.2402	50.2823	21.2402	50.8706	21.2402	50.4156	21.2402	50.9748	21.2402	50.5504	21.2402	51.0639	21.2402	50.6818	21.2402	51.1348	21.2402	50.8057	21.2402	51.1849	21.2402	50.9183	21.2402	51.2127	21.2402	51.0163	21.2402	51.2175	21.2402	51.0972	21.2402	51.1993	21.2402	51.1588
21.9727	52.1471	21.9727	52.097	21.9727	52.2127	21.9727	52.063	21.9727	52.2928	21.9727	52.0455	21.9727	52.3863	21.9727	52.0448	21.9727	52.4912	21.9727	52.0607	21.9727	52.6053	21.9727	52.0927	21.9727	52.7252	21.9727	52.1399	21.9727	52.847	21.9727	52.201	21.9727	52.9662	21.9727	52.2742	21.9727	53.0774	21.9727	52.3575	21.9727	53.1756	21.9727	52.4489	21.9727	53.2558	21.9727	52.5466	21.9727	53.3139	21.9727	52.6485	21.9727	53.3473	21.9727	52.7531	21.9727	53.3546	21.9727	52.8584	21.9727	53.3362	21.9727	52.9621	21.9727	53.2941	21.9727	53.0614	21.9727	53.2315	21.9727	53.1525
22.7051	54.3943	22.7051	54.3893	22.7051	54.416	22.7051	54.4016	22.7051	54.4534	22.7051	54.4314	22.7051	54.505	22.7051	54.4784	22.7051	54.5693	22.7051	54.5415	22.7051	54.644	22.7051	54.619	22.7051	54.7268	22.7051	54.7083	22.7051	54.8149	22.7051	54.8061	22.7051	54.9053	22.7051	54.9086	22.7051	54.995	22.7051	55.0114	22.7051	55.0812	22.7051	55.1101	22.7051	55.1614	22.7051	55.2008	22.7051	55.2337	22.7051	55.2799	22.7051	55.2969	22.7051	55.3453	22.7051	55.35	22.7051	55.3953	22.7051	55.3927	22.7051	55.4296	22.7051	55.4246	22.7051	55.4487	22.7051	55.4451	22.7051	55.4534
23.4375	58.7388	23.4375	58.7401	23.4375	58.7533	23.4375	58.7573	23.4375	58.7833	23.4375	58.7902	23.4375	58.828	23.4375	58.8379	23.4375	58.8862	23.4375	58.8993	23.4375	58.9563	23.4375	58.9728	23.4375	59.0362	23.4375	59.0563	23.4375	59.1235	23.4375	59.1472	23.4375	59.2154	23.4375	59.2424	23.4375	59.309	23.4375	59.3387	23.4375	59.4012	23.4375	59.4328	23.4375	59.489	23.4375	59.5213	23.4375	59.5699	23.4375	59.6015	23.4375	59.6414	23.4375	59.6706	23.4375	59.7018	23.4375	59.7268	23.4375	59.7495	23.4375	59.7688	23.4375	59.7835	23.4375	59.7956	23.4375	59.8028	23.4375	59.8069
24.1699	59.9042	24.1699	59.8962	24.1699	59.9264	24.1699	59.9027	24.1699	59.9624	24.1699	59.9234	24.1699	60.0115	24.1699	59.9578	24.1699	60.0724	24.1699	60.005	24.1699	60.1436	24.1699	60.0637	24.1699	60.2231	24.1699	60.1321	24.1699	60.3085	24.1699	60.2082	24.1699	60.3972	24.1699	60.2897	24.1699	60.486	24.1699	60.3739	24.1699	60.5719	24.1699	60.4582	24.1699	60.6517	24.1699	60.5401	24.1699	60.7226	24.1699	60.6173	24.1699	60.7822	24.1699	60.6875	24.1699	60.8286	24.1699	60.749	24.1699	60.8606	24.1699	60.8003	24.1699	60.8776	24.1699	60.8399	24.1699	60.8794	24.1699	60.8666
25.6348	63.9288	25.6348	63.9245	25.6348	63.9441	25.6348	63.9315	25.6348	63.9701	25.6348	63.9494	25.6348	64.0059	25.6348	63.9779	25.6348	64.0506	25.6348	64.0162	25.6348	64.1029	25.6348	64.063	25.6348	64.1611	25.6348	64.1169	25.6348	64.2234	25.6348	64.1763	25.6348	64.2876	25.6348	64.2389	25.6348	64.3517	25.6348	64.3028	25.6348	64.4134	25.6348	64.3658	25.6348	64.4707	25.6348	64.4257	25.6348	64.5218	25.6348	64.4808	25.6348	64.5653	25.6348	64.5296	25.6348	64.6	25.6348	64.5708	25.6348	64.6252	25.6348	64.6036	25.6348	64.6406	25.6348	64.6273	25.6348	64.6461	25.6348	64.6415
26.3672	65.5324	26.3672	65.5332	26.3672	65.5405	26.3672	65.5431	26.3672	65.5574	26.3672	65.5617	26.3672	65.5824	26.3672	65.5885	26.3672	65.6148	26.3672	65.6228	26.3672	65.6535	26.3672	65.6634	26.3672	65.6972	26.3672	65.709	26.3672	65.7445	26.3672	65.7579	26.3672	65.7938	26.3672	65.8086	26.3672	65.8433	26.3672	65.8591	26.3672	65.8914	26.3672	65.9077	26.3672	65.9365	26.3672	65.9527	26.3672	65.9774	26.3672	65.9927	26.3672	66.013	26.3672	66.0267	26.3672	66.0425	26.3672	66.054	26.3672	66.0654	26.3672	66.0741	26.3672	66.0815	26.3672	66.0869	26.3672	66.0905	26.3672	66.0923
27.0996	67.5552	27.0996	67.5584	27.0996	67.5597	27.0996	67.5692	27.0996	67.5717	27.0996	67.5875	27.0996	67.5908	27.0996	67.6125	27.0996	67.6163	27.0996	67.6436	27.0996	67.6474	27.0996	67.6797	27.0996	67.6829	27.0996	67.7195	27.0996	67.7217	27.0996	67.7616	27.0996	67.7622	27.0996	67.8045	27.0996	67.8032	27.0996	67.8464	27.0996	67.8431	27.0996	67.886	27.0996	67.8808	27.0996	67.9218	27.0996	67.9151	27.0996	67.9528	27.0996	67.9453	27.0996	67.9783	27.0996	67.9707	27.0996	67.9978	27.0996	67.9911	27.0996	68.0112	27.0996	68.0062	27.0996	68.0185	27.0996	68.0159	27.0996	68.0201
27.832	69.2866	27.832	69.2875	27.832	69.2922	27.832	69.2949	27.832	69.3041	27.832	69.3086	27.832	69.3219	27.832	69.3281	27.832	69.3449	27.832	69.3528	27.832	69.3724	27.832	69.3819	27.832	69.4033	27.832	69.4143	27.832	69.4367	27.832	69.4488	27.832	69.4712	27.832	69.4842	27.832	69.5057	27.832	69.5191	27.832	69.539	27.832	69.5524	27.832	69.5701	27.832	69.5828	27.832	69.598	27.832	69.6096	27.832	69.622	27.832	69.6322	27.832	69.6418	27.832	69.6501	27.832	69.6571	27.832	69.6632	27.832	69.6677	27.832	69.6714	27.832	69.6737	27.832	69.6749
29.2969	72.6842	29.2969	72.6854	29.2969	72.6877	29.2969	72.6913	29.2969	72.6956	29.2969	72.7015	29.2969	72.7078	29.2969	72.7158	29.2969	72.7236	29.2969	72.7335	29.2969	72.7426	29.2969	72.7541	29.2969	72.7639	29.2969	72.7766	29.2969	72.7867	29.2969	72.8002	29.2969	72.8101	29.2969	72.8239	29.2969	72.8332	29.2969	72.8467	29.2969	72.855	29.2969	72.8679	29.2969	72.875	29.2969	72.8867	29.2969	72.8925	29.2969	72.9027	29.2969	72.9072	29.2969	72.9156	29.2969	72.9189	29.2969	72.9255	29.2969	72.9277	29.2969	72.9324	29.2969	72.9338	29.2969	72.9366	29.2969	72.9372	29.2969	72.9381
30.0293	74.289	30.0293	74.292	30.0293	74.2895	30.0293	74.2986	30.0293	74.2935	30.0293	74.3085	30.0293	74.3008	30.0293	74.3214	30.0293	74.3109	30.0293	74.3368	30.0293	74.3234	30.0293	74.3539	30.0293	74.3376	30.0293	74.3721	30.0293	74.3529	30.0293	74.3905	30.0293	74.3687	30.0293	74.4083	30.0293	74.3842	30.0293	74.4247	30.0293	74.3989	30.0293	74.4389	30.0293	74.4124	30.0293	74.4506	30.0293	74.4244	30.0293	74.4594	30.0293	74.4347	30.0293	74.4653	30.0293	74.4434	30.0293	74.4685	30.0293	74.4508	30.0293	74.4694	30.0293	74.4568	30.0293	74.4683	30.0293	74.4618	30.0293	74.4657
31.4941	77.3044	31.4941	77.3066	31.4941	77.3043	31.4941	77.3107	31.4941	77.3061	31.4941	77.3167	31.4941	77.3096	31.4941	77.3243	31.4941	77.3145	31.4941	77.3331	31.4941	77.3205	31.4941	77.3427	31.4941	77.3272	31.4941	77.3525	31.4941	77.3342	31.4941	77.3621	31.4941	77.341	31.4941	77.3707	31.4941	77.3473	31.4941	77.3781	31.4941	77.3529	31.4941	77.3836	31.4941	77.3576	31.4941	77.3873	31.4941	77.3614	31.4941	77.3889	31.4941	77.3645	31.4941	77.3888	31.4941	77.3671	31.4941	77.3872	31.4941	77.3696	31.4941	77.3845	31.4941	77.3721	31.4941	77.3814	31.4941	77.375	31.4941	77.3781
32.2266	78.7326	32.2266	78.7323	32.2266	78.7339	32.2266	78.7329	32.2266	78.736	32.2266	78.7343	32.2266	78.7388	32.2266	78.7365	32.2266	78.742	32.2266	78.7391	32.2266	78.7454	32.2266	78.7419	32.2266	78.7485	32.2266	78.7445	32.2266	78.7511	32.2266	78.7466	32.2266	78.7529	32.2266	78.748	32.2266	78.7537	32.2266	78.7483	32.2266	78.7532	32.2266	78.7475	32.2266	78.7515	32.2266	78.7457	32.2266	78.7488	32.2266	78.7431	32.2266	78.7453	32.2266	78.74	32.2266	78.7415	32.2266	78.7369	32.2266	78.7378	32.2266	78.7343	32.2266	78.7347	32.2266	78.7325	32.2266	78.7327	32.2266	78.7319
33.6914	81.2917	33.6914	81.2905	33.6914	81.2925	33.6914	81.2888	33.6914	81.2928	33.6914	81.2866	33.6914	81.2926	33.6914	81.2838	33.6914	81.2917	33.6914	81.2802	33.6914	81.29	33.6914	81.2758	33.6914	81.2873	33.6914	81.2703	33.6914	81.2834	33.6914	81.2638	33.6914	81.2783	33.6914	81.2562	33.6914	81.2719	33.6914	81.2477	33.6914	81.2641	33.6914	81.2386	33.6914	81.2552	33.6914	81.2292	33.6914	81.2455	33.6914	81.2201	33.6914	81.2354	33.6914	81.2119	33.6914	81.2254	33.6914	81.2052	33.6914	81.2161	33.6914	81.2006	33.6914	81.2083	33.6914	81.1985	33.6914	81.2025	33.6914	81.1992
34.4238	82.477	34.4238	82.4764	34.4238	82.4767	34.4238	82.475	34.4238	82.4755	34.4238	82.4727	34.4238	82.4734	34.4238	82.4695	34.4238	82.4702	34.4238	82.4653	34.4238	82.4659	34.4238	82.46	34.4238	82.4604	34.4238	82.4535	34.4238	82.4535	34.4238	82.4458	34.4238	82.4453	34.4238	82.4369	34.4238	82.4359	34.4238	82.4269	34.4238	82.4255	34.4238	82.4161	34.4238	82.4144	34.4238	82.405	34.4238	82.4031	34.4238	82.3939	34.4238	82.392	34.4238	82.3836	34.4238	82.3818	34.4238	82.3746	34.4238	82.3731	34.4238	82.3676	34.4238	82.3665	34.4238	82.363	34.4238	82.3625	34.4238	82.3613
35.8887	84.655	35.8887	84.6544	35.8887	84.6535	35.8887	84.6517	35.8887	84.6501	35.8887	84.647	35.8887	84.6445	35.8887	84.6403	35.8887	84.6369	35.8887	84.6316	35.8887	84.6273	35.8887	84.6208	35.8887	84.6155	35.8887	84.6081	35.8887	84.6019	35.8887	84.5936	35.8887	84.5866	35.8887	84.5775	35.8887	84.5699	35.8887	84.5602	35.8887	84.5522	35.8887	84.5422	35.8887	84.534	35.8887	84.5241	35.8887	84.5161	35.8887	84.5066	35.8887	84.4992	35.8887	84.4905	35.8887	84.484	35.8887	84.4767	35.8887	84.4715	35.8887	84.4659	35.8887	84.4623	35.8887	84.4588	35.8887	84.4569	35.8887	84.4557
37.3535	86.5132	37.3535	86.5115	37.3535	86.512	37.3535	86.5069	37.3535	86.5079	37.3535	86.4994	37.3535	86.5008	37.3535	86.4892	37.3535	86.4908	37.3535	86.4762	37.3535	86.478	37.3535	86.4608	37.3535	86.4625	37.3535	86.4431	37.3535	86.4447	37.3535	86.4235	37.3535	86.4248	37.3535	86.4023	37.3535	86.4032	37.3535	86.3801	37.3535	86.3807	37.3535	86.3576	37.3535	86.3578	37.3535	86.3355	37.3535	86.3355	37.3535	86.3147	37.3535	86.3145	37.3535	86.2961	37.3535	86.2958	37.3535	86.2806	37.3535	86.2802	37.3535	86.2688	37.3535	86.2685	37.3535	86.2615	37.3535	86.2613	37.3535	86.2589
38.8184	87.996	38.8184	87.994	38.8184	87.9944	38.8184	87.9886	38.8184	87.9893	38.8184	87.9797	38.8184	87.9807	38.8184	87.9675	38.8184	87.9687	38.8184	87.9523	38.8184	87.9536	38.8184	87.9342	38.8184	87.9355	38.8184	87.9136	38.8184	87.9148	38.8184	87.891	38.8184	87.8921	38.8184	87.8669	38.8184	87.8678	38.8184	87.842	38.8184	87.8426	38.8184	87.8172	38.8184	87.8174	38.8184	87.7931	38.8184	87.7931	38.8184	87.7707	38.8184	87.7705	38.8184	87.751	38.8184	87.7506	38.8184	87.7346	38.8184	87.7342	38.8184	87.7223	38.8184	87.722	38.8184	87.7146	38.8184	87.7144	38.8184	87.712
39.5508	88.5722	39.5508	88.5703	39.5508	88.5703	39.5508	88.5643	39.5508	88.5644	39.5508	88.5546	39.5508	88.5546	39.5508	88.5413	39.5508	88.5412	39.5508	88.5245	39.5508	88.5243	39.5508	88.5047	39.5508	88.5043	39.5508	88.4823	39.5508	88.4816	39.5508	88.4578	39.5508	88.4568	39.5508	88.4319	39.5508	88.4306	39.5508	88.4053	39.5508	88.4037	39.5508	88.3789	39.5508	88.377	39.5508	88.3536	39.5508	88.3515	39.5508	88.3302	39.5508	88.328	39.5508	88.3095	39.5508	88.3075	39.5508	88.2925	39.5508	88.2908	39.5508	88.2797	39.5508	88.2784	39.5508	88.2717	39.5508	88.271	39.5508	88.2687
41.0156	89.6223	41.0156	89.6201	41.0156	89.6194	41.0156	89.6131	41.0156	89.6116	41.0156	89.6012	41.0156	89.599	41.0156	89.5848	41.0156	89.5819	41.0156	89.5642	41.0156	89.5606	41.0156	89.5398	41.0156	89.5357	41.0156	89.5125	41.0156	89.5078	41.0156	89.4827	41.0156	89.4777	41.0156	89.4516	41.0156	89.4462	41.0156	89.4199	41.0156	89.4144	41.0156	89.3887	41.0156	89.3833	41.0156	89.3591	41.0156	89.3539	41.0156	89.3321	41.0156	89.3273	41.0156	89.3085	41.0156	89.3044	41.0156	89.2892	41.0156	89.2859	41.0156	89.2748	41.0156	89.2725	41.0156	89.2658	41.0156	89.2646	41.0156	89.2623
42.4805	90.4531	42.4805	90.451	42.4805	90.4492	42.4805	90.4428	42.4805	90.4394	42.4805	90.4289	42.4805	90.4239	42.4805	90.4093	42.4805	90.4031	42.4805	90.3847	42.4805	90.3775	42.4805	90.3555	42.4805	90.3477	42.4805	90.3225	42.4805	90.3146	42.4805	90.2867	42.4805	90.2789	42.4805	90.2492	42.4805	90.2419	42.4805	90.211	42.4805	90.2045	42.4805	90.1736	42.4805	90.1681	42.4805	90.1382	42.4805	90.1337	42.4805	90.106	42.4805	90.1026	42.4805	90.0781	42.4805	90.0757	42.4805	90.0555	42.4805	90.0539	42.4805	90.0389	42.4805	90.0379	42.4805	90.0286	42.4805	90.0282	42.4805	90.0251
43.9453	91.0456	43.9453	91.0442	43.9453	91.0403	43.9453	91.036	43.9453	91.0284	43.9453	91.0211	43.9453	91.0102	43.9453	90.9999	43.9453	90.9862	43.9453	90.9729	43.9453	90.9571	43.9453	90.9407	43.9453	90.9237	43.9453	90.9044	43.9453	90.8869	43.9453	90.8649	43.9453	90.8477	43.9453	90.8235	43.9453	90.8075	43.9453	90.7816	43.9453	90.7674	43.9453	90.7408	43.9453	90.7287	43.9453	90.7023	43.9453	90.6926	43.9453	90.6676	43.9453	90.6602	43.9453	90.6377	43.9453	90.6325	43.9453	90.6137	43.9453	90.6102	43.9453	90.596	43.9453	90.594	43.9453	90.5852	43.9453	90.5842	43.9453	90.5812
45.4102	91.4531	45.4102	91.4532	45.4102	91.4454	45.4102	91.4455	45.4102	91.4303	45.4102	91.4303	45.4102	91.4081	45.4102	91.4078	45.4102	91.3796	45.4102	91.3785	45.4102	91.3455	45.4102	91.3433	45.4102	91.3067	45.4102	91.3031	45.4102	91.2644	45.4102	91.2592	45.4102	91.2198	45.4102	91.2129	45.4102	91.1744	45.4102	91.1657	45.4102	91.1296	45.4102	91.1195	45.4102	91.0868	45.4102	91.0757	45.4102	91.0473	45.4102	91.0359	45.4102	91.0124	45.4102	91.0015	45.4102	90.9829	45.4102	90.9733	45.4102	90.9597	45.4102	90.9522	45.4102	90.9433	45.4102	90.9386	45.4102	90.9342	45.4102	90.9326
47.6074	91.8919	47.6074	91.892	47.6074	91.8835	47.6074	91.8839	47.6074	91.867	47.6074	91.8678	47.6074	91.8429	47.6074	91.8442	47.6074	91.8117	47.6074	91.8136	47.6074	91.7742	47.6074	91.7769	47.6074	91.7316	47.6074	91.7351	47.6074	91.685	47.6074	91.6896	47.6074	91.636	47.6074	91.6417	47.6074	91.5862	47.6074	91.5929	47.6074	91.5372	47.6074	91.5449	47.6074	91.4908	47.6074	91.4991	47.6074	91.4486	47.6074	91.457	47.6074	91.4118	47.6074	91.42	47.6074	91.3817	47.6074	91.3889	47.6074	91.3589	47.6074	91.3646	47.6074	91.3439	47.6074	91.3476	47.6074	91.3371	47.6074	91.3384
49.0723	92.0777	49.0723	92.0764	49.0723	92.0701	49.0723	92.0663	49.0723	92.0538	49.0723	92.0477	49.0723	92.0291	49.0723	92.0211	49.0723	91.9968	49.0723	91.9874	49.0723	91.9575	49.0723	91.9474	49.0723	91.9126	49.0723	91.9025	49.0723	91.8634	49.0723	91.8539	49.0723	91.8114	49.0723	91.8033	49.0723	91.7585	49.0723	91.7522	49.0723	91.7065	49.0723	91.7024	49.0723	91.6572	49.0723	91.6554	49.0723	91.6123	49.0723	91.6126	49.0723	91.5734	49.0723	91.5752	49.0723	91.5414	49.0723	91.544	49.0723	91.5173	49.0723	91.5199	49.0723	91.5013	49.0723	91.5033	49.0723	91.4937	49.0723	91.4944
50.5371	92.2086	50.5371	92.2049	50.5371	92.2031	50.5371	92.192	50.5371	92.1884	50.5371	92.1704	50.5371	92.1648	50.5371	92.1407	50.5371	92.1331	50.5371	92.1037	50.5371	92.094	50.5371	92.0605	50.5371	92.0488	50.5371	92.0126	50.5371	91.9988	50.5371	91.9613	50.5371	91.9458	50.5371	91.9085	50.5371	91.8914	50.5371	91.8559	50.5371	91.8377	50.5371	91.8052	50.5371	91.7865	50.5371	91.758	50.5371	91.7396	50.5371	91.7158	50.5371	91.6984	50.5371	91.6795	50.5371	91.6642	50.5371	91.6501	50.5371	91.6377	50.5371	91.6281	50.5371	91.6193	50.5371	91.6138	50.5371	91.6093	50.5371	91.6074
52.7344	92.3682	52.7344	92.3639	52.7344	92.3627	52.7344	92.3499	52.7344	92.3476	52.7344	92.3266	52.7344	92.3232	52.7344	92.2948	52.7344	92.2904	52.7344	92.2553	52.7344	92.2501	52.7344	92.2094	52.7344	92.2036	52.7344	92.1586	52.7344	92.1524	52.7344	92.1047	52.7344	92.0982	52.7344	92.0494	52.7344	92.043	52.7344	91.9948	52.7344	91.9886	52.7344	91.9426	52.7344	91.9369	52.7344	91.8947	52.7344	91.8896	52.7344	91.8525	52.7344	91.848	52.7344	91.8169	52.7344	91.8133	52.7344	91.7888	52.7344	91.786	52.7344	91.7684	52.7344	91.7666	52.7344	91.756	52.7344	91.7551	52.7344	91.7516
54.1992	92.4347	54.1992	92.4313	54.1992	92.428	54.1992	92.4178	54.1992	92.4113	54.1992	92.3948	54.1992	92.3852	54.1992	92.3629	54.1992	92.3506	54.1992	92.3232	54.1992	92.3083	54.1992	92.2769	54.1992	92.26	54.1992	92.2256	54.1992	92.2073	54.1992	92.1713	54.1992	92.152	54.1992	92.1157	54.1992	92.0961	54.1992	92.0609	54.1992	92.0417	54.1992	92.0088	54.1992	91.9905	54.1992	91.9611	54.1992	91.9444	54.1992	91.9192	54.1992	91.9045	54.1992	91.8839	54.1992	91.8717	54.1992	91.8559	54.1992	91.8465	54.1992	91.8355	54.1992	91.8291	54.1992	91.8226	54.1992	91.8194	54.1992	91.8172
56.3965	92.4904	56.3965	92.4854	56.3965	92.4848	56.3965	92.4702	56.3965	92.469	56.3965	92.4452	56.3965	92.4434	56.3965	92.4113	56.3965	92.4088	56.3965	92.3697	56.3965	92.3666	56.3965	92.322	56.3965	92.3182	56.3965	92.2698	56.3965	92.2655	56.3965	92.2153	56.3965	92.2105	56.3965	92.1604	56.3965	92.1553	56.3965	92.1074	56.3965	92.102	56.3965	92.0579	56.3965	92.0526	56.3965	92.0136	56.3965	92.0086	56.3965	91.9757	56.3965	91.971	56.3965	91.9447	56.3965	91.9407	56.3965	91.9208	56.3965	91.9176	56.3965	91.9039	56.3965	91.9017	56.3965	91.8937	56.3965	91.8926	56.3965	91.8899
58.5938	92.5622	58.5938	92.5558	58.5938	92.5574	58.5938	92.5384	58.5938	92.5416	58.5938	92.5107	58.5938	92.5152	58.5938	92.4737	58.5938	92.4793	58.5938	92.4288	58.5938	92.4351	58.5938	92.3777	58.5938	92.3843	58.5938	92.3224	58.5938	92.3289	58.5938	92.265	58.5938	92.2712	58.5938	92.208	58.5938	92.2134	58.5938	92.1533	58.5938	92.1579	58.5938	92.1031	58.5938	92.1066	58.5938	92.0589	58.5938	92.0614	58.5938	92.0216	58.5938	92.0231	58.5938	91.9917	58.5938	91.9925	58.5938	91.9691	58.5938	91.9694	58.5938	91.9535	58.5938	91.9536	58.5938	91.9444	58.5938	91.9444	58.5938	91.9414
60.0586	92.6144	60.0586	92.6079	60.0586	92.6092	60.0586	92.59	60.0586	92.5924	60.0586	92.5613	60.0586	92.5647	60.0586	92.523	60.0586	92.5271	60.0586	92.4765	60.0586	92.481	60.0586	92.4236	60.0586	92.4281	60.0586	92.3665	60.0586	92.3706	60.0586	92.3076	60.0586	92.311	60.0586	92.2492	60.0586	92.2515	60.0586	92.1936	60.0586	92.1948	60.0586	92.1429	60.0586	92.1428	60.0586	92.0984	60.0586	92.0973	60.0586	92.0613	60.0586	92.0593	60.0586	92.0317	60.0586	92.0293	60.0586	92.0095	60.0586	92.0072	60.0586	91.9941	60.0586	91.9923	60.0586	91.985	60.0586	91.984	60.0586	91.9816
62.2559	92.641	62.2559	92.633	62.2559	92.6364	62.2559	92.6127	62.2559	92.6193	62.2559	92.5808	62.2559	92.5904	62.2559	92.5385	62.2559	92.5508	62.2559	92.4877	62.2559	92.502	62.2559	92.4303	62.2559	92.4461	62.2559	92.3687	62.2559	92.3854	62.2559	92.3057	62.2559	92.3225	62.2559	92.2439	62.2559	92.2601	62.2559	92.1858	62.2559	92.2007	62.2559	92.1335	62.2559	92.1467	62.2559	92.0887	62.2559	92.0998	62.2559	92.0521	62.2559	92.061	62.2559	92.0238	62.2559	92.0305	62.2559	92.0034	62.2559	92.0081	62.2559	91.9899	62.2559	91.9929	62.2559	91.9826	62.2559	91.984	62.2559	91.9807
64.4531	92.6854	64.4531	92.6771	64.4531	92.6802	64.4531	92.6555	64.4531	92.6615	64.4531	92.6215	64.4531	92.6301	64.4531	92.5764	64.4531	92.5874	64.4531	92.522	64.4531	92.5349	64.4531	92.4607	64.4531	92.4749	64.4531	92.395	64.4531	92.41	64.4531	92.328	64.4531	92.343	64.4531	92.2626	64.4531	92.2769	64.4531	92.2015	64.4531	92.2146	64.4531	92.1469	64.4531	92.1584	64.4531	92.1006	64.4531	92.1102	64.4531	92.0633	64.4531	92.0708	64.4531	92.035	64.4531	92.0405	64.4531	92.0149	64.4531	92.0187	64.4531	92.0019	64.4531	92.0042	64.4531	91.9948	64.4531	91.9959	64.4531	91.9929
66.6504	92.7216	66.6504	92.7113	66.6504	92.7171	66.6504	92.6865	66.6504	92.6979	66.6504	92.6481	66.6504	92.6647	66.6504	92.5977	66.6504	92.6187	66.6504	92.5374	66.6504	92.5618	66.6504	92.4696	66.6504	92.4963	66.6504	92.3972	66.6504	92.4249	66.6504	92.3234	66.6504	92.3508	66.6504	92.2514	66.6504	92.2773	66.6504	92.1843	66.6504	92.2074	66.6504	92.1245	66.6504	92.1441	66.6504	92.0737	66.6504	92.0894	66.6504	92.0328	66.6504	92.0446	66.6504	92.0017	66.6504	92.0099	66.6504	91.9796	66.6504	91.9848	66.6504	91.9653	66.6504	91.9682	66.6504	91.9574	66.6504	91.9587	66.6504	91.9553
69.5801	92.7937	69.5801	92.7768	69.5801	92.7941	69.5801	92.7441	69.5801	92.7782	69.5801	92.6964	69.5801	92.7468	69.5801	92.6354	69.5801	92.7012	69.5801	92.5635	69.5801	92.6432	69.5801	92.4835	69.5801	92.5751	69.5801	92.3988	69.5801	92.4999	69.5801	92.3131	69.5801	92.4206	69.5801	92.2303	69.5801	92.3407	69.5801	92.1539	69.5801	92.2633	69.5801	92.087	69.5801	92.1916	69.5801	92.0316	69.5801	92.1277	69.5801	91.9888	69.5801	92.0731	69.5801	91.9584	69.5801	92.0284	69.5801	91.9394	69.5801	91.9931	69.5801	91.9302	69.5801	91.9665	69.5801	91.9291	69.5801	91.9475	69.5801	91.9351
71.7773	92.8209	71.7773	92.8024	71.7773	92.823	71.7773	92.7677	71.7773	92.8091	71.7773	92.7178	71.7773	92.78	71.7773	92.6542	71.7773	92.7371	71.7773	92.5791	71.7773	92.6823	71.7773	92.4953	71.7773	92.618	71.7773	92.4064	71.7773	92.547	71.7773	92.3163	71.7773	92.472	71.7773	92.2291	71.7773	92.3962	71.7773	92.149	71.7773	92.3223	71.7773	92.0795	71.7773	92.2529	71.7773	92.0231	71.7773	92.1899	71.7773	91.9813	71.7773	92.1342	71.7773	91.9541	71.7773	92.0861	71.7773	91.9405	71.7773	92.0455	71.7773	91.9387	71.7773	92.0116	71.7773	91.9464	71.7773	91.9838	71.7773	91.9619
73.9746	92.8616	73.9746	92.8504	73.9746	92.8565	73.9746	92.8229	73.9746	92.8357	73.9746	92.7799	73.9746	92.8002	73.9746	92.7229	73.9746	92.7518	73.9746	92.6538	73.9746	92.6927	73.9746	92.5753	73.9746	92.6255	73.9746	92.491	73.9746	92.5532	73.9746	92.4045	73.9746	92.4791	73.9746	92.32	73.9746	92.4063	73.9746	92.2415	73.9746	92.3375	73.9746	92.1726	73.9746	92.275	73.9746	92.116	73.9746	92.2201	73.9746	92.0732	73.9746	92.1735	73.9746	92.0444	73.9746	92.1347	73.9746	92.0286	73.9746	92.1028	73.9746	92.024	73.9746	92.0767	73.9746	92.0282	73.9746	92.0556	73.9746	92.0393
76.9043	92.8715	76.9043	92.8646	76.9043	92.8627	76.9043	92.8421	76.9043	92.8385	76.9043	92.8049	76.9043	92.8003	76.9043	92.7544	76.9043	92.7499	76.9043	92.6931	76.9043	92.6896	76.9043	92.6235	76.9043	92.6224	76.9043	92.5492	76.9043	92.5517	76.9043	92.4738	76.9043	92.481	76.9043	92.401	76.9043	92.4136	76.9043	92.3344	76.9043	92.3525	76.9043	92.2769	76.9043	92.3	76.9043	92.2304	76.9043	92.2571	76.9043	92.1957	76.9043	92.2239	76.9043	92.1724	76.9043	92.1995	76.9043	92.1588	76.9043	92.1823	76.9043	92.153	76.9043	92.1702	76.9043	92.1526	76.9043	92.1618	76.9043	92.1559
79.834	92.9618	79.834	92.9568	79.834	92.9488	79.834	92.9341	79.834	92.9186	79.834	92.8948	79.834	92.8725	79.834	92.8405	79.834	92.8127	79.834	92.7741	79.834	92.7423	79.834	92.6987	79.834	92.6648	79.834	92.6183	79.834	92.5843	79.834	92.5373	79.834	92.5053	79.834	92.4601	79.834	92.4319	79.834	92.3906	79.834	92.3677	79.834	92.3319	79.834	92.3151	79.834	92.286	79.834	92.2753	79.834	92.2533	79.834	92.248	79.834	92.2325	79.834	92.2314	79.834	92.2214	79.834	92.2227	79.834	92.2169	79.834	92.219	79.834	92.2161	79.834	92.2175	79.834	92.2167
82.7637	93.1189	82.7637	93.1198	82.7637	93.0969	82.7637	93.1	82.7637	93.0546	82.7637	93.0605	82.7637	92.9935	82.7637	93.0032	82.7637	92.9159	82.7637	92.9308	82.7637	92.8251	82.7637	92.8467	82.7637	92.7252	82.7637	92.7551	82.7637	92.6213	82.7637	92.6606	82.7637	92.5184	82.7637	92.5679	82.7637	92.4222	82.7637	92.4817	82.7637	92.3373	82.7637	92.4054	82.7637	92.2676	82.7637	92.3415	82.7637	92.2151	82.7637	92.2909	82.7637	92.1801	82.7637	92.2527	82.7637	92.1608	82.7637	92.2248	82.7637	92.1542	82.7637	92.2044	82.7637	92.1566	82.7637	92.1887	82.7637	92.1646	82.7637	92.1756
85.6934	93.0318	85.6934	93.0242	85.6934	93.0214	85.6934	92.9991	85.6934	92.9931	85.6934	92.9577	85.6934	92.9476	85.6934	92.9021	85.6934	92.8865	85.6934	92.8346	85.6934	92.8121	85.6934	92.7584	85.6934	92.7275	85.6934	92.677	85.6934	92.6363	85.6934	92.5939	85.6934	92.5427	85.6934	92.5128	85.6934	92.4512	85.6934	92.4369	85.6934	92.3661	85.6934	92.3687	85.6934	92.2912	85.6934	92.3099	85.6934	92.2293	85.6934	92.2609	85.6934	92.182	85.6934	92.2214	85.6934	92.1494	85.6934	92.19	85.6934	92.1304	85.6934	92.1654	85.6934	92.1227	85.6934	92.1464	85.6934	92.1242	85.6934	92.1325
88.623	92.9221	88.623	92.9064	88.623	92.9205	88.623	92.8743	88.623	92.9022	88.623	92.8271	88.623	92.8684	88.623	92.7677	88.623	92.8214	88.623	92.6993	88.623	92.7643	88.623	92.6264	88.623	92.7008	88.623	92.5535	88.623	92.6353	88.623	92.4856	88.623	92.5722	88.623	92.4271	88.623	92.5153	88.623	92.3814	88.623	92.4682	88.623	92.3506	88.623	92.4328	88.623	92.3349	88.623	92.4097	88.623	92.3327	88.623	92.3976	88.623	92.3407	88.623	92.3941	88.623	92.3549	88.623	92.3957	88.623	92.3709	88.623	92.3983	88.623	92.385	88.623	92.3988	88.623	92.3946
91.5527	92.9274	91.5527	92.9144	91.5527	92.9195	91.5527	92.881	91.5527	92.8914	91.5527	92.8288	91.5527	92.845	91.5527	92.7608	91.5527	92.7832	91.5527	92.6809	91.5527	92.71	91.5527	92.5943	91.5527	92.6304	91.5527	92.5067	91.5527	92.5498	91.5527	92.4242	91.5527	92.4737	91.5527	92.3526	91.5527	92.4074	91.5527	92.2966	91.5527	92.3548	91.5527	92.2591	91.5527	92.3183	91.5527	92.2406	91.5527	92.2981	91.5527	92.2391	91.5527	92.2921	91.5527	92.2506	91.5527	92.2964	91.5527	92.2697	91.5527	92.3061	91.5527	92.2905	91.5527	92.3158	91.5527	92.308	91.5527	92.3209	91.5527	92.3186
94.4824	93.0518	94.4824	93.047	94.4824	93.0316	94.4824	93.0176	94.4824	92.9875	94.4824	92.9652	94.4824	92.9219	94.4824	92.8926	94.4824	92.8382	94.4824	92.8041	94.4824	92.7413	94.4824	92.7051	94.4824	92.6372	94.4824	92.6021	94.4824	92.5327	94.4824	92.5023	94.4824	92.4349	94.4824	92.4125	94.4824	92.3505	94.4824	92.3389	94.4824	92.2848	94.4824	92.2855	94.4824	92.241	94.4824	92.2537	94.4824	92.2192	94.4824	92.242	94.4824	92.217	94.4824	92.2458	94.4824	92.229	94.4824	92.2591	94.4824	92.2486	94.4824	92.2748	94.4824	92.2689	94.4824	92.2867	94.4824	92.2841	94.4824	92.2904
98.1445	93.186	98.1445	93.1785	98.1445	93.1684	98.1445	93.1464	98.1445	93.1262	98.1445	93.0913	98.1445	93.0611	98.1445	93.0159	98.1445	92.976	98.1445	92.924	98.1445	92.8747	98.1445	92.8203	98.1445	92.7624	98.1445	92.7105	98.1445	92.6449	98.1445	92.6008	98.1445	92.5289	98.1445	92.4972	98.1445	92.421	98.1445	92.4052	98.1445	92.3271	98.1445	92.329	98.1445	92.2516	98.1445	92.2706	98.1445	92.1969	98.1445	92.2298	98.1445	92.1628	98.1445	92.2041	98.1445	92.1466	98.1445	92.1894	98.1445	92.1439	98.1445	92.181	98.1445	92.1495	98.1445	92.1746	98.1445	92.1585	98.1445	92.1674
101.807	93.1324	101.807	93.1198	101.807	93.1184	101.807	93.0813	101.807	93.0782	101.807	93.019	101.807	93.0139	101.807	92.9361	101.807	92.9287	101.807	92.8374	101.807	92.8272	101.807	92.7286	101.807	92.7152	101.807	92.6165	101.807	92.5996	101.807	92.5081	101.807	92.488	101.807	92.4105	101.807	92.3875	101.807	92.3294	101.807	92.3042	101.807	92.2686	101.807	92.2424	101.807	92.2292	101.807	92.2033	101.807	92.2095	101.807	92.1854	101.807	92.2054	101.807	92.1843	101.807	92.2108	101.807	92.1939	101.807	92.2195	101.807	92.2078	101.807	92.226	101.807	92.22	101.807	92.2266
105.469	93.1078	105.469	93.0933	105.469	93.0949	105.469	93.0523	105.469	93.0551	105.469	92.9868	105.469	92.9903	105.469	92.9005	105.469	92.9038	105.469	92.798	105.469	92.8001	105.469	92.6856	105.469	92.6853	105.469	92.5703	105.469	92.5665	105.469	92.4597	105.469	92.4513	105.469	92.3611	105.469	92.3476	105.469	92.2805	105.469	92.2619	105.469	92.2219	105.469	92.1989	105.469	92.1862	105.469	92.1602	105.469	92.1711	105.469	92.1441	105.469	92.1717	105.469	92.1462	105.469	92.1815	105.469	92.1598	105.469	92.1934	105.469	92.1777	105.469	92.2015	105.469	92.1932	105.469	92.2018
109.131	93.1669	109.131	93.1552	109.131	93.1498	109.131	93.1153	109.131	93.1047	109.131	93.0493	109.131	93.0341	109.131	92.9609	109.131	92.942	109.131	92.8554	109.131	92.8339	109.131	92.7397	109.131	92.7166	109.131	92.6215	109.131	92.5981	109.131	92.5092	109.131	92.4865	109.131	92.4111	109.131	92.3899	109.131	92.3336	109.131	92.3144	109.131	92.2808	109.131	92.2638	109.131	92.2532	109.131	92.2385	109.131	92.248	109.131	92.2356	109.131	92.2593	109.131	92.2492	109.131	92.2793	109.131	92.2716	109.131	92.3003	109.131	92.295	109.131	92.3154	109.131	92.3127	109.131	92.32
112.793	93.0527	112.793	93.0402	112.793	93.033	112.793	92.9965	112.793	92.9817	112.793	92.9244	112.793	92.9013	112.793	92.8286	112.793	92.7961	112.793	92.7154	112.793	92.6723	112.793	92.5929	112.793	92.5381	112.793	92.4702	112.793	92.4033	112.793	92.3571	112.793	92.2784	112.793	92.2628	112.793	92.1738	112.793	92.1944	112.793	92.0977	112.793	92.1554	112.793	92.0551	112.793	92.1453	112.793	92.0462	112.793	92.1589	112.793	92.0664	112.793	92.188	112.793	92.1072	112.793	92.2225	112.793	92.1577	112.793	92.2522	112.793	92.207	112.793	92.2688	112.793	92.2457	112.793	92.2671
116.455	93.056	116.455	93.0281	116.455	93.0486	116.455	92.966	116.455	93.0067	116.455	92.8721	116.455	92.9326	116.455	92.7511	116.455	92.8301	116.455	92.6093	116.455	92.705	116.455	92.4553	116.455	92.565	116.455	92.2995	116.455	92.4194	116.455	92.1535	116.455	92.2787	116.455	92.0289	116.455	92.1537	116.455	91.9351	116.455	92.0538	116.455	91.8783	116.455	91.9855	116.455	91.859	116.455	91.9508	116.455	91.8724	116.455	91.9467	116.455	91.9089	116.455	91.9654	116.455	91.9562	116.455	91.9962	116.455	92.0022	116.455	92.0273	116.455	92.0365	116.455	92.0486	116.455	92.0526
120.85	93.2835	120.85	93.2584	120.85	93.2727	120.85	93.1981	120.85	93.2267	120.85	93.1047	120.85	93.1479	120.85	92.9819	120.85	93.04	120.85	92.8356	120.85	92.9087	120.85	92.6734	120.85	92.7615	120.85	92.505	120.85	92.6075	120.85	92.3417	120.85	92.4573	120.85	92.1956	120.85	92.3217	120.85	92.0776	120.85	92.2105	120.85	91.9958	120.85	92.1305	120.85	91.9534	120.85	92.0841	120.85	91.9479	120.85	92.0684	120.85	91.9714	120.85	92.0756	120.85	92.0123	120.85	92.0951	120.85	92.0576	120.85	92.1151	120.85	92.0962	120.85	92.1256	120.85	92.1199
125.244	93.1733	125.244	93.1523	125.244	93.1607	125.244	93.0984	125.244	93.1154	125.244	93.0137	125.244	93.0397	125.244	92.902	125.244	92.9377	125.244	92.7689	125.244	92.8149	125.244	92.6217	125.244	92.6787	125.244	92.4696	125.244	92.5379	125.244	92.3231	125.244	92.4022	125.244	92.1928	125.244	92.2815	125.244	92.0883	125.244	92.1844	125.244	92.0165	125.244	92.1165	125.244	91.9798	125.244	92.0793	125.244	91.9759	125.244	92.0696	125.244	91.9974	125.244	92.0801	125.244	92.034	125.244	92.101	125.244	92.0745	125.244	92.1215	125.244	92.1085	125.244	92.1328	125.244	92.129
129.639	93.0615	129.639	93.0518	129.639	93.035	129.639	93.0066	129.639	92.9736	129.639	92.9281	129.639	92.8804	129.639	92.8205	129.639	92.7603	129.639	92.69	129.639	92.6204	129.639	92.5448	129.639	92.4698	129.639	92.395	129.639	92.319	129.639	92.2518	129.639	92.1797	129.639	92.1264	129.639	92.0629	129.639	92.0287	129.639	91.9776	129.639	91.9652	129.639	91.9287	129.639	91.9376	129.639	91.9158	129.639	91.9423	129.639	91.9333	129.639	91.9709	129.639	91.9712	129.639	92.0119	129.639	92.0173	129.639	92.0532	129.639	92.0595	129.639	92.084	129.639	92.088	129.639	92.0967
134.033	92.9605	134.033	92.956	134.033	92.9271	134.033	92.9146	134.033	92.8565	134.033	92.8392	134.033	92.7515	134.033	92.7347	134.033	92.6168	134.033	92.6078	134.033	92.4598	134.033	92.4674	134.033	92.2899	134.033	92.3238	134.033	92.119	134.033	92.1882	134.033	91.9603	134.033	92.0716	134.033	91.8271	134.033	91.9828	134.033	91.7304	134.033	91.927	134.033	91.6771	134.033	91.9041	134.033	91.668	134.033	91.9092	134.033	91.6972	134.033	91.9327	134.033	91.7538	134.033	91.963	134.033	91.8238	134.033	91.988	134.033	91.893	134.033	91.9977	134.033	91.9496	134.033	91.9855
138.428	92.8007	138.428	92.7785	138.428	92.7829	138.428	92.7179	138.428	92.7254	138.428	92.6228	138.428	92.6311	138.428	92.4993	138.428	92.5049	138.428	92.3562	138.428	92.3545	138.428	92.2043	138.428	92.1904	138.428	92.0565	138.428	92.0255	138.428	91.9263	138.428	91.8742	138.428	91.8263	138.428	91.7512	138.428	91.7654	138.428	91.6686	138.428	91.7472	138.428	91.6332	138.428	91.7687	138.428	91.6452	138.428	91.8205	138.428	91.697	138.428	91.8888	138.428	91.7756	138.428	91.9582	138.428	91.8645	138.428	92.0141	138.428	91.9473	138.428	92.0451	138.428	92.0104	138.428	92.0444
143.555	92.7045	143.555	92.6693	143.555	92.6931	143.555	92.5889	143.555	92.6359	143.555	92.4668	143.555	92.5358	143.555	92.3091	143.555	92.398	143.555	92.1251	143.555	92.2307	143.555	91.9273	143.555	92.0446	143.555	91.731	143.555	91.8538	143.555	91.5539	143.555	91.6742	143.555	91.4133	143.555	91.5228	143.555	91.3231	143.555	91.4142	143.555	91.29	143.555	91.3578	143.555	91.3118	143.555	91.3547	143.555	91.377	143.555	91.3977	143.555	91.4678	143.555	91.4718	143.555	91.5639	143.555	91.5583	143.555	91.6463	143.555	91.638	143.555	91.7002	143.555	91.6947	143.555	91.717
148.682	92.7082	148.682	92.6753	148.682	92.6917	148.682	92.5939	148.682	92.6269	148.682	92.4668	148.682	92.5166	148.682	92.2993	148.682	92.366	148.682	92.0993	148.682	92.1828	148.682	91.8783	148.682	91.9777	148.682	91.651	148.682	91.7643	148.682	91.4352	148.682	91.5588	148.682	91.2496	148.682	91.3786	148.682	91.1113	148.682	91.2393	148.682	91.0316	148.682	91.152	148.682	91.0127	148.682	91.1195	148.682	91.0465	148.682	91.1357	148.682	91.1166	148.682	91.1864	148.682	91.2023	148.682	91.2528	148.682	91.2829	148.682	91.3152	148.682	91.3414	148.682	91.3571	148.682	91.3673
153.809	92.6353	153.809	92.608	153.809	92.6128	153.809	92.5312	153.809	92.5417	153.809	92.4073	153.809	92.425	153.809	92.2409	153.809	92.2681	153.809	92.0393	153.809	92.0785	153.809	91.8128	153.809	91.8666	153.809	91.5756	153.809	91.6456	153.809	91.3447	153.809	91.4312	153.809	91.1391	153.809	91.24	153.809	90.9765	153.809	91.0872	153.809	90.8698	153.809	90.9837	153.809	90.8234	153.809	90.9329	153.809	90.8318	153.809	90.9298	153.809	90.8804	153.809	90.9617	153.809	90.9495	153.809	91.0113	153.809	91.019	153.809	91.0601	153.809	91.072	153.809	91.0925	153.809	91.0977
159.668	92.4762	159.668	92.4529	159.668	92.4528	159.668	92.3838	159.668	92.3832	159.668	92.2724	159.668	92.2705	159.668	92.1242	159.668	92.12	159.668	91.9468	159.668	91.9399	159.668	91.751	159.668	91.741	159.668	91.5496	159.668	91.5375	159.668	91.3575	159.668	91.3452	159.668	91.19	159.668	91.1802	159.668	91.0607	159.668	91.0565	159.668	90.9785	159.668	90.9823	159.668	90.9456	159.668	90.9582	159.668	90.9567	159.668	90.9767	159.668	90.9998	159.668	91.0241	159.668	91.0591	159.668	91.0831	159.668	91.1179	159.668	91.1371	159.668	91.1621	159.668	91.1727	159.668	91.1818
164.795	92.0543	164.795	92.0192	164.795	92.0369	164.795	91.9333	164.795	91.9685	164.795	91.8016	164.795	91.8535	164.795	91.6325	164.795	91.6998	164.795	91.438	164.795	91.5191	164.795	91.2341	164.795	91.3263	164.795	91.0395	164.795	91.1395	164.795	90.8741	164.795	90.9779	164.795	90.7555	164.795	90.8588	164.795	90.6953	164.795	90.7941	164.795	90.6964	164.795	90.7873	164.795	90.7517	164.795	90.8321	164.795	90.8463	164.795	90.9145	164.795	90.9606	164.795	91.0158	164.795	91.075	164.795	91.1167	164.795	91.1719	164.795	91.1998	164.795	91.2382	164.795	91.2522	164.795	91.2658
170.654	92.2958	170.654	92.2703	170.654	92.255	170.654	92.1798	170.654	92.1488	170.654	92.0283	170.654	91.9809	170.654	91.8229	170.654	91.7582	170.654	91.5751	170.654	91.492	170.654	91.3015	170.654	91.199	170.654	91.0241	170.654	90.9021	170.654	90.7696	170.654	90.6297	170.654	90.5658	170.654	90.4122	170.654	90.436	170.654	90.2755	170.654	90.392	170.654	90.2335	170.654	90.4303	170.654	90.2828	170.654	90.5321	170.654	90.4031	170.654	90.6692	170.654	90.5636	170.654	90.8109	170.654	90.7312	170.654	90.9294	170.654	90.8764	170.654	91.0038	170.654	90.9774	170.654	91.0213
176.514	92.5532	176.514	92.5294	176.514	92.5096	176.514	92.4383	176.514	92.4008	176.514	92.2829	176.514	92.2314	176.514	92.0698	176.514	92.0093	176.514	91.8105	176.514	91.7458	176.514	91.5228	176.514	91.4576	176.514	91.2314	176.514	91.1668	176.514	90.9673	176.514	90.9007	176.514	90.7634	176.514	90.6889	176.514	90.6472	176.514	90.5576	176.514	90.6317	176.514	90.5222	176.514	90.71	176.514	90.5817	176.514	90.8568	176.514	90.7177	176.514	91.0364	176.514	90.8996	176.514	91.2118	176.514	91.0924	176.514	91.3517	176.514	91.2635	176.514	91.434	176.514	91.3871	176.514	91.4465
183.105	92.7821	183.105	92.7667	183.105	92.7301	183.105	92.6831	183.105	92.6126	183.105	92.5326	183.105	92.4333	183.105	92.3182	183.105	92.1986	183.105	92.047	183.105	91.9185	183.105	91.731	183.105	91.6082	183.105	91.3897	183.105	91.2894	183.105	91.0511	183.105	90.9906	183.105	90.7509	183.105	90.7439	183.105	90.5272	183.105	90.5795	183.105	90.4103	183.105	90.5165	183.105	90.4111	183.105	90.5549	183.105	90.5156	183.105	90.6747	183.105	90.6889	183.105	90.8409	183.105	90.887	183.105	91.0141	183.105	91.0679	183.105	91.1582	183.105	91.1994	183.105	91.246	183.105	91.2613
189.697	93.1047	189.697	93.0851	189.697	93.0541	189.697	92.9969	189.697	92.9328	189.697	92.8434	189.697	92.7424	189.697	92.6298	189.697	92.4873	189.697	92.364	189.697	92.1763	189.697	92.058	189.697	91.8246	189.697	91.7297	189.697	91.4551	189.697	91.4033	189.697	91.0998	189.697	91.1088	189.697	90.7966	189.697	90.8779	189.697	90.5829	189.697	90.7365	189.697	90.4836	189.697	90.6958	189.697	90.5016	189.697	90.7471	189.697	90.6152	189.697	90.8634	189.697	90.7857	189.697	91.0078	189.697	90.9693	189.697	91.1428	189.697	91.1276	189.697	91.2374	189.697	91.2332	189.697	91.2706
196.289	93.1123	196.289	93.0744	196.289	93.0781	196.289	92.9669	196.289	92.9705	196.289	92.7936	196.289	92.7894	196.289	92.5602	196.289	92.5372	196.289	92.2761	196.289	92.2199	196.289	91.9554	196.289	91.8496	196.289	91.6186	196.289	91.4474	196.289	91.2938	196.289	91.0454	196.289	91.0144	196.289	90.6869	196.289	90.8135	196.289	90.4197	196.289	90.7148	196.289	90.2833	196.289	90.723	196.289	90.2918	196.289	90.8207	196.289	90.4266	196.289	90.9729	196.289	90.6429	196.289	91.1374	196.289	90.8862	196.289	91.2746	196.289	91.1072	196.289	91.3534	196.289	91.2701	196.289	91.3543
202.881	93.1612	202.881	93.0998	202.881	93.1533	202.881	92.9709	202.881	93.0747	202.881	92.7772	202.881	92.9251	202.881	92.5232	202.881	92.7054	202.881	92.2164	202.881	92.419	202.881	91.8689	202.881	92.0741	202.881	91.4995	202.881	91.6858	202.881	91.1354	202.881	91.2787	202.881	90.8109	202.881	90.889	202.881	90.563	202.881	90.5611	202.881	90.4212	202.881	90.3387	202.881	90.3966	202.881	90.2497	202.881	90.4748	202.881	90.2925	202.881	90.6202	202.881	90.435	202.881	90.787	202.881	90.6267	202.881	90.9313	202.881	90.8153	202.881	91.0191	202.881	90.9586	202.881	91.03
210.205	93.1122	210.205	93.0551	210.205	93.1002	210.205	92.9291	210.205	93.0195	210.205	92.7356	210.205	92.8714	210.205	92.4781	210.205	92.6585	210.205	92.1633	210.205	92.3855	210.205	91.803	210.205	92.0612	210.205	91.4164	210.205	91.7002	210.205	91.0316	210.205	91.3247	210.205	90.6847	210.205	90.9657	210.205	90.415	210.205	90.6602	210.205	90.2547	210.205	90.4439	210.205	90.2162	210.205	90.3398	210.205	90.2856	210.205	90.3478	210.205	90.4271	210.205	90.4431	210.205	90.5947	210.205	90.5843	210.205	90.7448	210.205	90.7266	210.205	90.8445	210.205	90.8319	210.205	90.8749
217.529	93.0485	217.529	93.0093	217.529	93.0163	217.529	92.898	217.529	92.9145	217.529	92.7157	217.529	92.7468	217.529	92.4659	217.529	92.5188	217.529	92.1558	217.529	92.2394	217.529	91.7986	217.529	91.9223	217.529	91.4155	217.529	91.5874	217.529	91.0375	217.529	91.2617	217.529	90.7041	217.529	90.9774	217.529	90.458	217.529	90.7675	217.529	90.3323	217.529	90.6563	217.529	90.3379	217.529	90.6505	217.529	90.457	217.529	90.7351	217.529	90.6492	217.529	90.8775	217.529	90.8655	217.529	91.0368	217.529	91.0611	217.529	91.1741	217.529	91.2025	217.529	91.2584	217.529	91.2702
225.586	93.2863	225.586	93.2721	225.586	93.2129	225.586	93.1707	225.586	93.0524	225.586	92.9834	225.586	92.8064	225.586	92.7134	225.586	92.479	225.586	92.3676	225.586	92.0786	225.586	91.9593	225.586	91.6215	225.586	91.5115	225.586	91.1357	225.586	91.0605	225.586	90.6647	225.586	90.6561	225.586	90.2665	225.586	90.3551	225.586	90.003	225.586	90.2044	225.586	89.9176	225.586	90.2205	225.586	90.0129	225.586	90.379	225.586	90.2471	225.586	90.6249	225.586	90.5527	225.586	90.8931	225.586	90.8602	225.586	91.1264	225.586	91.115	225.586	91.283	225.586	91.2805	225.586	91.3378
232.91	93.5039	232.91	93.471	232.91	93.4533	232.91	93.3567	232.91	93.3168	232.91	93.1635	232.91	93.092	232.91	92.8943	232.91	92.7774	232.91	92.5547	232.91	92.374	232.91	92.155	232.91	91.8884	232.91	91.7128	232.91	91.3368	232.91	91.2568	232.91	90.7513	232.91	90.8279	232.91	90.1857	232.91	90.476	232.91	89.7148	232.91	90.2472	232.91	89.4172	232.91	90.1665	232.91	89.3423	232.91	90.2233	232.91	89.4791	232.91	90.3735	232.91	89.7609	232.91	90.5566	232.91	90.0983	232.91	90.7134	232.91	90.4125	232.91	90.7976	232.91	90.6494	232.91	90.7802
241.699	93.4626	241.699	93.3769	241.699	93.4659	241.699	93.208	241.699	93.3872	241.699	92.9554	241.699	93.2264	241.699	92.6196	241.699	92.9837	241.699	92.2049	241.699	92.6602	241.699	91.7219	241.699	92.2605	241.699	91.1929	241.699	91.7955	241.699	90.6562	241.699	91.287	241.699	90.1691	241.699	90.7723	241.699	89.8013	241.699	90.3061	241.699	89.6126	241.699	89.9536	241.699	89.6233	241.699	89.7696	241.699	89.7994	241.699	89.7719	241.699	90.0684	241.699	89.9282	241.699	90.3496	241.699	90.1705	241.699	90.5772	241.699	90.4224	241.699	90.7083	241.699	90.6204	241.699	90.7226
249.756	93.7851	249.756	93.7455	249.756	93.7419	249.756	93.6224	249.756	93.6161	249.756	93.4146	249.756	93.4074	249.756	93.1212	249.756	93.1158	249.756	92.743	249.756	92.743	249.756	92.2851	249.756	92.2945	249.756	91.7605	249.756	91.7835	249.756	91.1958	249.756	91.2355	249.756	90.6368	249.756	90.6933	249.756	90.1494	249.756	90.2181	249.756	89.8081	249.756	89.8789	249.756	89.6669	249.756	89.7273	249.756	89.7281	249.756	89.7692	249.756	89.9369	249.756	89.9575	249.756	90.2082	249.756	90.2136	249.756	90.4603	249.756	90.4581	249.756	90.6331	249.756	90.6302	249.756	90.6929
258.545	93.7106	258.545	93.651	258.545	93.6906	258.545	93.5117	258.545	93.5908	258.545	93.2925	258.545	93.4108	258.545	92.9933	258.545	93.1503	258.545	92.6164	258.545	92.811	258.545	92.168	258.545	92.398	258.545	91.6622	258.545	91.9229	258.545	91.1259	258.545	91.4082	258.545	90.603	258.545	90.8908	258.545	90.1537	258.545	90.4237	258.545	89.8429	258.545	90.0684	258.545	89.7149	258.545	89.8749	258.545	89.7681	258.545	89.8574	258.545	89.9523	258.545	89.9833	258.545	90.1919	258.545	90.1869	258.545	90.4134	258.545	90.3956	258.545	90.5631	258.545	90.5497	258.545	90.6107
268.066	93.2908	268.066	93.2309	268.066	93.2661	268.066	93.0856	268.066	93.1576	268.066	92.8535	268.066	92.9655	268.066	92.5344	268.066	92.6906	268.066	92.13	268.066	92.3355	268.066	91.6478	268.066	91.9064	268.066	91.105	268.066	91.4171	268.066	90.5346	268.066	90.8933	268.066	89.9906	268.066	90.3768	268.066	89.5466	268.066	89.9264	268.066	89.2767	268.066	89.6073	268.066	89.2227	268.066	89.468	268.066	89.3663	268.066	89.5141	268.066	89.6368	268.066	89.7015	268.066	89.9446	268.066	89.9557	268.066	90.2123	268.066	90.2004	268.066	90.3877	268.066	90.3758	268.066	90.4436
277.588	93.072	277.588	93.0388	277.588	93.0226	277.588	92.9221	277.588	92.8906	277.588	92.72	277.588	92.6756	277.588	92.4307	277.588	92.377	277.588	92.0534	277.588	91.9968	277.588	91.5911	277.588	91.5415	277.588	91.0547	277.588	91.0271	277.588	90.4683	277.588	90.484	277.588	89.8767	277.588	89.9618	277.588	89.3491	277.588	89.5279	277.588	88.9695	277.588	89.2513	277.588	88.8065	277.588	89.1728	277.588	88.874	277.588	89.2794	277.588	89.1183	277.588	89.5076	277.588	89.4466	277.588	89.7727	277.588	89.7664	277.588	89.9979	277.588	90.0093	277.588	90.1288	277.588	90.1351
287.109	92.6125	287.109	92.5782	287.109	92.5625	287.109	92.4586	287.109	92.4277	287.109	92.2515	287.109	92.2068	287.109	91.9548	287.109	91.8978	287.109	91.5686	287.109	91.5005	287.109	91.0975	287.109	91.0195	287.109	90.5567	287.109	90.4697	287.109	89.9775	287.109	89.8835	287.109	89.4147	287.109	89.318	287.109	88.9463	287.109	88.8551	287.109	88.656	287.109	88.5818	287.109	88.5962	287.109	88.549	287.109	88.7539	287.109	88.7363	287.109	89.0555	287.109	89.0612	287.109	89.4035	287.109	89.4215	287.109	89.7125	287.109	89.7316	287.109	89.9229	287.109	89.9347	287.109	90.001
297.363	92.5353	297.363	92.5064	297.363	92.4765	297.363	92.39	297.363	92.3277	297.363	92.1846	297.363	92.0849	297.363	91.8873	297.363	91.7427	297.363	91.4951	297.363	91.296	297.363	91.008	297.363	90.7421	297.363	90.4338	297.363	90.0863	297.363	89.7955	297.363	89.3502	297.363	89.1422	297.363	88.5863	297.363	88.5563	297.363	87.8919	297.363	88.144	297.363	87.4034	297.363	87.9916	297.363	87.2416	297.363	88.1082	297.363	87.4256	297.363	88.4121	297.363	87.8507	297.363	88.7791	297.363	88.3603	297.363	89.097	297.363	88.8223	297.363	89.289	297.363	89.1535	297.363	89.3127
307.617	91.7146	307.617	91.6214	307.617	91.731	307.617	91.4523	307.617	91.6678	307.617	91.2068	307.617	91.5202	307.617	90.8836	307.617	91.2821	307.617	90.4823	307.617	90.9467	307.617	90.0067	307.617	90.5093	307.617	89.469	307.617	89.9712	307.617	88.8981	307.617	89.3471	307.617	88.3468	307.617	88.6767	307.617	87.8947	307.617	88.037	307.617	87.6309	307.617	87.5434	307.617	87.6124	307.617	87.3144	307.617	87.8235	307.617	87.3994	307.617	88.1786	307.617	87.735	307.617	88.5657	307.617	88.1858	307.617	88.8873	307.617	88.6181	307.617	89.0767	307.617	88.9388	307.617	89.0973
318.604	91.5541	318.604	91.4887	318.604	91.527	318.604	91.3268	318.604	91.4093	318.604	91.0626	318.604	91.2009	318.604	90.689	318.604	90.8994	318.604	90.1989	318.604	90.5012	318.604	89.588	318.604	90.0032	318.604	88.8608	318.604	89.4062	318.604	88.0418	318.604	88.7227	318.604	87.1954	318.604	87.9887	318.604	86.4467	318.604	87.2797	318.604	85.9721	318.604	86.7176	318.604	85.9109	318.604	86.4376	318.604	86.2457	318.604	86.5054	318.604	86.8081	318.604	86.8569	318.604	87.4014	318.604	87.3393	318.604	87.8853	318.604	87.7988	318.604	88.1835	318.604	88.1276	318.604	88.2646
329.59	91.8637	329.59	91.8066	329.59	91.8385	329.59	91.6637	329.59	91.7318	329.59	91.4295	329.59	91.5423	329.59	91.0964	329.59	91.2669	329.59	90.6548	329.59	90.9003	329.59	90.0954	329.59	90.4371	329.59	89.4122	329.59	89.8742	329.59	88.6107	329.59	89.2158	329.59	87.7221	329.59	88.483	329.59	86.8266	329.59	87.7261	329.59	86.0715	329.59	87.0365	329.59	85.6403	329.59	86.5377	329.59	85.6358	329.59	86.3316	329.59	85.9798	329.59	86.424	329.59	86.475	329.59	86.71	329.59	86.9367	329.59	87.0397	329.59	87.2513	329.59	87.2861	329.59	87.3688
341.309	91.5314	341.309	91.5452	341.309	91.4245	341.309	91.4652	341.309	91.2237	341.309	91.2888	341.309	90.9281	341.309	91.0115	341.309	90.5372	341.309	90.6264	341.309	90.053	341.309	90.1268	341.309	89.4824	341.309	89.5092	341.309	88.8427	341.309	88.7816	341.309	88.1692	341.309	87.9769	341.309	87.5254	341.309	87.1743	341.309	87.0048	341.309	86.5134	341.309	86.7104	341.309	86.1637	341.309	86.7021	341.309	86.2193	341.309	86.9505	341.309	86.6107	341.309	87.349	341.309	87.1572	341.309	87.7698	341.309	87.6844	341.309	88.1078	341.309	88.0797	341.309	88.2934	341.309	88.288
353.76	91.797	353.76	91.7468	353.76	91.7662	353.76	91.6182	353.76	91.6484	353.76	91.4099	353.76	91.4344	353.76	91.1171	353.76	91.1122	353.76	90.7314	353.76	90.6674	353.76	90.2429	353.76	90.0854	353.76	89.6435	353.76	89.3549	353.76	88.934	353.76	88.4767	353.76	88.1369	353.76	87.4828	353.76	87.3164	353.76	86.4701	353.76	86.5984	353.76	85.6354	353.76	86.1534	353.76	85.2349	353.76	86.1025	353.76	85.3915	353.76	86.4073	353.76	85.9554	353.76	86.8921	353.76	86.6471	353.76	87.3646	353.76	87.2491	353.76	87.6902	353.76	87.6465	353.76	87.7945
366.211	92.1265	366.211	92.0395	366.211	92.1245	366.211	91.8617	366.211	92.0332	366.211	91.589	366.211	91.8491	366.211	91.2151	366.211	91.5659	366.211	90.7323	366.211	91.1736	366.211	90.1323	366.211	90.6598	366.211	89.4102	366.211	90.0119	366.211	88.5725	366.211	89.2229	366.211	87.6533	366.211	88.3029	366.211	86.7396	366.211	87.3025	366.211	85.9924	366.211	86.3474	366.211	85.6076	366.211	85.6518	366.211	85.6799	366.211	85.4273	366.211	86.1017	366.211	85.6931	366.211	86.6498	366.211	86.2427	366.211	87.1285	366.211	86.822	366.211	87.4195	366.211	87.2586	366.211	87.467
378.662	92.5778	378.662	92.5277	378.662	92.5463	378.662	92.3894	378.662	92.4363	378.662	92.1532	378.662	92.2466	378.662	91.8065	378.662	91.9717	378.662	91.3343	378.662	91.6017	378.662	90.7211	378.662	91.1233	378.662	89.9549	378.662	90.5231	378.662	89.0368	378.662	89.7947	378.662	88.0034	378.662	88.9511	378.662	86.9657	378.662	88.0482	378.662	86.1472	378.662	87.214	378.662	85.8211	378.662	86.6496	378.662	86.0816	378.662	86.5296	378.662	86.7261	378.662	86.8437	378.662	87.4537	378.662	87.3931	378.662	88.0536	378.662	87.9484	378.662	88.4221	378.662	88.3521	378.662	88.5214
392.578	92.5946	392.578	92.5858	392.578	92.5487	392.578	92.5196	392.578	92.4459	392.578	92.388	392.578	92.2792	392.578	92.1771	392.578	92.0362	392.578	91.8668	392.578	91.699	392.578	91.4311	392.578	91.2451	392.578	90.8396	392.578	90.6492	392.578	90.0621	392.578	89.8887	392.578	89.0769	392.578	88.9551	392.578	87.8952	392.578	87.8793	392.578	86.6171	392.578	86.7816	392.578	85.5214	392.578	85.922	392.578	85.04	392.578	85.6184	392.578	85.3619	392.578	85.9429	392.578	86.1604	392.578	86.6122	392.578	86.9847	392.578	87.275	392.578	87.572	392.578	87.7113	392.578	87.8208
405.762	92.73	405.762	92.7143	405.762	92.666	405.762	92.623	405.762	92.5205	405.762	92.4601	405.762	92.2933	405.762	92.2269	405.762	91.985	405.762	91.919	405.762	91.5937	405.762	91.5242	405.762	91.1134	405.762	91.0241	405.762	90.5345	405.762	90.3982	405.762	89.8485	405.762	89.6342	405.762	89.0608	405.762	88.747	405.762	88.2135	405.762	87.8138	405.762	87.4192	405.762	87.0142	405.762	86.8712	405.762	86.6045	405.762	86.7549	405.762	86.7295	405.762	87.076	405.762	87.2506	405.762	87.6307	405.762	87.8733	405.762	88.1694	405.762	88.3606	405.762	88.5177	405.762	88.5886
420.41	93.3652	420.41	93.2603	420.41	93.4061	420.41	93.0934	420.41	93.3775	420.41	92.8625	420.41	93.2704	420.41	92.5605	420.41	93.0709	420.41	92.1739	420.41	92.7599	420.41	91.6826	420.41	92.3128	420.41	91.0612	420.41	91.6996	420.41	90.2838	420.41	90.8874	420.41	89.3341	420.41	89.8439	420.41	88.2275	420.41	88.5525	420.41	87.0569	420.41	87.0529	420.41	86.0511	420.41	85.5434	420.41	85.5362	420.41	84.4977	420.41	85.6581	420.41	84.4051	420.41	86.1851	420.41	85.1116	420.41	86.7493	420.41	86.0256	420.41	87.0978	420.41	86.7424	420.41	87.109
435.059	92.806	435.059	92.8113	435.059	92.727	435.059	92.7369	435.059	92.5834	435.059	92.5786	435.059	92.3843	435.059	92.3325	435.059	92.136	435.059	91.9927	435.059	91.8369	435.059	91.5488	435.059	91.4755	435.059	90.9867	435.059	91.0315	435.059	90.2924	435.059	90.4812	435.059	89.4615	435.059	89.8078	435.059	88.5203	435.059	89.0197	435.059	87.562	435.059	88.1785	435.059	86.7818	435.059	87.4299	435.059	86.4277	435.059	86.9847	435.059	86.5992	435.059	86.9809	435.059	87.1205	435.059	87.3343	435.059	87.7015	435.059	87.8035	435.059	88.1262	435.059	88.1651	435.059	88.2884
450.439	92.9622	450.439	92.9498	450.439	92.9148	450.439	92.8799	450.439	92.8079	450.439	92.7546	450.439	92.6441	450.439	92.5696	450.439	92.4235	450.439	92.3102	450.439	92.1385	450.439	91.9492	450.439	91.7694	450.439	91.4488	450.439	91.2845	450.439	90.7663	450.439	90.6442	450.439	89.8635	450.439	89.8107	450.439	88.7293	450.439	88.768	450.439	87.4366	450.439	87.5686	450.439	86.2544	450.439	86.4254	450.439	85.6819	450.439	85.7671	450.439	86.0109	450.439	85.9357	450.439	86.8875	450.439	86.7189	450.439	87.7702	450.439	87.6088	450.439	88.3521	450.439	88.259	450.439	88.5213
466.553	93.0498	466.553	92.9739	466.553	93.0403	466.553	92.823	466.553	92.9434	466.553	92.6126	466.553	92.7637	466.553	92.3571	466.553	92.5081	466.553	92.061	466.553	92.179	466.553	91.713	466.553	91.7687	466.553	91.2846	466.553	91.2568	466.553	90.7358	466.553	90.6121	466.553	90.0264	466.553	89.8011	466.553	89.134	466.553	88.8052	466.553	88.089	466.553	87.659	466.553	87.0353	466.553	86.5239	466.553	86.2764	466.553	85.7465	466.553	86.1218	466.553	85.6707	466.553	86.5359	466.553	86.2189	466.553	87.1512	466.553	86.9609	466.553	87.6226	466.553	87.5346	466.553	87.7688
482.666	93.106	482.666	93.0378	482.666	93.054	482.666	92.8514	482.666	92.8914	482.666	92.5604	482.666	92.6378	482.666	92.1847	482.666	92.3166	482.666	91.7436	482.666	91.9465	482.666	91.245	482.666	91.5323	482.666	90.6779	482.666	91.0594	482.666	90.0107	482.666	90.4946	482.666	89.1988	482.666	89.7955	482.666	88.207	482.666	88.9279	482.666	87.0551	482.666	87.8992	482.666	85.9116	482.666	86.8224	482.666	85.1795	482.666	85.9903	482.666	85.2556	482.666	85.7733	482.666	85.9961	482.666	86.2136	482.666	86.8737	482.666	86.9255	482.666	87.5013	482.666	87.5012	482.666	87.7187
500.244	93.2521	500.244	93.2075	500.244	93.1971	500.244	93.0665	500.244	93.0446	500.244	92.8352	500.244	92.8011	500.244	92.5193	500.244	92.474	500.244	92.1193	500.244	92.0665	500.244	91.6274	500.244	91.572	500.244	91.0264	500.244	90.9715	500.244	90.2924	500.244	90.2346	500.244	89.4034	500.244	89.3276	500.244	88.3587	500.244	88.2328	500.244	87.2204	500.244	86.9941	500.244	86.1799	500.244	85.8035	500.244	85.5698	500.244	85.0598	500.244	85.626	500.244	85.1072	500.244	86.1851	500.244	85.7799	500.244	86.8523	500.244	86.5949	500.244	87.3255	500.244	87.2037	500.244	87.4578
517.822	93.0179	517.822	92.9736	517.822	92.9627	517.822	92.8389	517.822	92.8185	517.822	92.6373	517.822	92.6124	517.822	92.394	517.822	92.3759	517.822	92.1209	517.822	92.1272	517.822	91.8049	517.822	91.855	517.822	91.4055	517.822	91.5156	517.822	90.862	517.822	91.0413	517.822	90.1043	517.822	90.3536	517.822	89.0686	517.822	89.3769	517.822	87.7302	517.822	88.0611	517.822	86.2031	517.822	86.4593	517.822	84.9463	517.822	84.9431	517.822	84.6953	517.822	84.3459	517.822	85.4881	517.822	85.027	517.822	86.5455	517.822	86.1954	517.822	87.284	517.822	87.1069	517.822	87.4875
536.133	93.6037	536.133	93.4828	536.133	93.54	536.133	93.196	536.133	93.2961	536.133	92.7858	536.133	92.8977	536.133	92.3155	536.133	92.3903	536.133	91.8533	536.133	91.8321	536.133	91.4403	536.133	91.2761	536.133	91.0592	536.133	90.7428	536.133	90.63	536.133	90.1992	536.133	90.0336	536.133	89.5619	536.133	89.1422	536.133	88.7221	536.133	87.8466	536.133	87.5835	536.133	86.1261	536.133	86.1358	536.133	84.307	536.133	84.6476	536.133	83.4643	536.133	83.9005	536.133	84.2788	536.133	84.465	536.133	85.6697	536.133	85.6598	536.133	86.6676	536.133	86.6232	536.133	86.9925
554.443	93.112	554.443	93.0023	554.443	93.0285	554.443	92.7043	554.443	92.7702	554.443	92.2475	554.443	92.38	554.443	91.6897	554.443	91.9236	554.443	91.1127	554.443	91.4761	554.443	90.5999	554.443	91.0911	554.443	90.1907	554.443	90.7641	554.443	89.8444	554.443	90.4231	554.443	89.4504	554.443	89.9517	554.443	88.873	554.443	89.2224	554.443	87.9991	554.443	88.1213	554.443	86.791	554.443	86.5869	554.443	85.4084	554.443	84.7609	554.443	84.4018	554.443	83.3709	554.443	84.4115	554.443	83.4638	554.443	85.1826	554.443	84.6175	554.443	85.9139	554.443	85.6726	554.443	86.1278
574.219	93.4214	574.219	93.3084	574.219	93.3074	574.219	92.9843	574.219	92.9714	574.219	92.4892	574.219	92.4414	574.219	91.8921	574.219	91.7766	574.219	91.2861	574.219	91.0726	574.219	90.758	574.219	90.4457	574.219	90.3349	574.219	89.9753	574.219	89.9504	574.219	89.6367	574.219	89.4633	574.219	89.2947	574.219	88.7043	574.219	88.7641	574.219	87.5086	574.219	87.8649	574.219	85.7541	574.219	86.4567	574.219	83.5718	574.219	84.5457	574.219	82.0717	574.219	82.7416	574.219	82.7717	574.219	82.5709	574.219	84.4683	574.219	83.9872	574.219	85.6608	574.219	85.3617	574.219	85.9671
594.727	93.2072	594.727	93.0512	594.727	93.1473	594.727	92.6886	594.727	92.8726	594.727	92.1417	594.727	92.3983	594.727	91.4525	594.727	91.7629	594.727	90.6907	594.727	91.0368	594.727	89.949	594.727	90.3189	594.727	89.3101	594.727	89.7006	594.727	88.7905	594.727	89.2021	594.727	88.3101	594.727	88.7351	594.727	87.7257	594.727	88.1351	594.727	86.8996	594.727	87.2244	594.727	85.7817	594.727	85.8757	594.727	84.5561	594.727	84.1547	594.727	83.8134	594.727	82.731	594.727	84.1014	594.727	82.8107	594.727	85.0113	594.727	84.1091	594.727	85.755	594.727	85.3314	594.727	85.9064
615.234	93.3866	615.234	93.2811	615.234	93.3005	615.234	92.9883	615.234	93.028	615.234	92.5264	615.234	92.5849	615.234	91.9367	615.234	92.0033	615.234	91.2909	615.234	91.3386	615.234	90.6823	615.234	90.6671	615.234	90.1827	615.234	90.0631	615.234	89.7811	615.234	89.5518	615.234	89.3621	615.234	89.0719	615.234	88.7437	615.234	88.4845	615.234	87.7246	615.234	87.616	615.234	86.1034	615.234	86.3008	615.234	83.7237	615.234	84.4508	615.234	80.8875	615.234	82.3311	615.234	79.685	615.234	81.1414	615.234	81.1741	615.234	81.7802	615.234	82.7554	615.234	82.9046	615.234	83.3441
637.207	94.1393	637.207	93.9877	637.207	94.0068	637.207	93.5458	637.207	93.5972	637.207	92.8163	637.207	92.9222	637.207	91.8334	637.207	92.0167	637.207	90.7074	637.207	90.9743	637.207	89.6703	637.207	89.9874	637.207	89.0135	637.207	89.3134	637.207	88.8228	637.207	89.0737	637.207	88.837	637.207	89.0898	637.207	88.6741	637.207	89.0232	637.207	88.0371	637.207	88.58	637.207	86.7424	637.207	87.5623	637.207	84.8179	637.207	85.8993	637.207	83.0995	637.207	83.9574	637.207	83.3531	637.207	83.1865	637.207	84.9724	637.207	84.3401	637.207	86.2026	637.207	85.7929	637.207	86.4903
659.912	93.1855	659.912	93.067	659.912	93.1157	659.912	92.7606	659.912	92.8591	659.912	92.272	659.912	92.4205	659.912	91.6176	659.912	91.8124	659.912	90.8355	659.912	91.0646	659.912	89.9945	659.912	90.2358	659.912	89.1901	659.912	89.4165	659.912	88.5035	659.912	88.6991	659.912	87.932	659.912	88.1088	659.912	87.3558	659.912	87.5493	659.912	86.5805	659.912	86.8281	659.912	85.4149	659.912	85.7356	659.912	83.7736	659.912	84.1404	659.912	81.9579	659.912	82.2251	659.912	81.0639	659.912	80.9932	659.912	81.7034	659.912	81.4285	659.912	82.6818	659.912	82.497	659.912	83.0201
683.35	93.6694	683.35	93.5192	683.35	93.5701	683.35	93.1128	683.35	93.2203	683.35	92.4425	683.35	92.6146	683.35	91.5175	683.35	91.758	683.35	90.4005	683.35	90.6975	683.35	89.2642	683.35	89.5739	683.35	88.4055	683.35	88.6497	683.35	88.0555	683.35	88.1713	683.35	88.0902	683.35	88.086	683.35	88.1158	683.35	88.0417	683.35	87.762	683.35	87.659	683.35	86.7708	683.35	86.6589	683.35	84.9911	683.35	84.8719	683.35	82.6554	683.35	82.5074	683.35	81.4083	683.35	81.2195	683.35	82.5917	683.35	82.4435	683.35	84.1203	683.35	84.0478	683.35	84.6749
706.787	93.5489	706.787	93.4318	706.787	93.4626	706.787	93.1025	706.787	93.1669	706.787	92.5402	706.787	92.6434	706.787	91.7222	706.787	91.8712	706.787	90.6486	706.787	90.8482	706.787	89.3956	706.787	89.6366	706.787	88.1953	706.787	88.4318	706.787	87.4127	706.787	87.5592	706.787	87.194	706.787	87.2025	706.787	87.1926	706.787	87.1129	706.787	86.8858	706.787	86.8204	706.787	85.8701	706.787	85.943	706.787	83.8806	706.787	84.2566	706.787	81.1188	706.787	81.9322	706.787	79.9663	706.787	80.6266	706.787	81.8875	706.787	81.9159	706.787	83.7165	706.787	83.6185	706.787	84.305
731.689	92.6177	731.689	92.4931	731.689	92.5703	731.689	92.2062	731.689	92.3371	731.689	91.7623	731.689	91.9027	731.689	91.1611	731.689	91.2544	731.689	90.4026	731.689	90.3985	731.689	89.508	731.689	89.3903	731.689	88.5598	731.689	88.3725	731.689	87.7277	731.689	87.5605	731.689	87.1843	731.689	87.0825	731.689	86.8967	731.689	86.7953	731.689	86.5626	731.689	86.3536	731.689	85.7872	731.689	85.4023	731.689	84.2214	731.689	83.6551	731.689	81.6746	731.689	81.0465	731.689	79.0091	731.689	78.8228	731.689	79.22	731.689	79.552	731.689	81.0612	731.689	81.279	731.689	81.8943
758.057	92.7009	758.057	92.6215	758.057	92.5876	758.057	92.3267	758.057	92.2879	758.057	91.7824	758.057	91.7857	758.057	90.9502	758.057	91.0417	758.057	89.8071	758.057	90.0053	758.057	88.3992	758.057	88.6565	758.057	86.9643	758.057	87.115	758.057	86.0125	758.057	85.8281	758.057	85.8926	758.057	85.4217	758.057	86.2106	758.057	85.8061	758.057	86.2952	758.057	86.1947	758.057	85.7008	758.057	85.9644	758.057	84.1616	758.057	84.7465	758.057	81.6073	758.057	82.2386	758.057	79.1663	758.057	78.656	758.057	79.6209	758.057	77.7606	758.057	81.2072	758.057	80.1945	758.057	81.5565
784.424	92.4957	784.424	92.4135	784.424	92.4222	784.424	92.173	784.424	92.1954	784.424	91.7675	784.424	91.8106	784.424	91.178	784.424	91.2456	784.424	90.3717	784.424	90.4566	784.424	89.3194	784.424	89.3946	784.424	88.0443	784.424	88.0569	784.424	86.7102	784.424	86.5955	784.424	85.6684	784.424	85.4321	784.424	85.1838	784.424	84.9754	784.424	85.0017	784.424	84.9581	784.424	84.5406	784.424	84.6494	784.424	83.3119	784.424	83.4381	784.424	81.0888	784.424	80.9018	784.424	78.7247	784.424	77.5503	784.424	79.0429	784.424	77.7631	784.424	80.8207	784.424	80.332	784.424	81.4488
812.256	93.5052	812.256	93.4359	812.256	93.3777	812.256	93.16	812.256	93.0559	812.256	92.6541	812.256	92.5354	812.256	91.8764	812.256	91.7991	812.256	90.7774	812.256	90.8158	812.256	89.344	812.256	89.5636	812.256	87.7218	812.256	88.1044	812.256	86.4092	812.256	86.7354	812.256	86.0286	812.256	86.0041	812.256	86.3815	812.256	86.0777	812.256	86.652	812.256	86.3496	812.256	86.2768	812.256	86.1329	812.256	85.006	812.256	85.0165	812.256	82.8748	812.256	82.7962	812.256	80.8118	812.256	79.9314	812.256	80.6711	812.256	79.1057	812.256	81.6143	812.256	80.7164	812.256	81.7985
840.82	93.4107	840.82	93.2584	840.82	93.3599	840.82	92.9152	840.82	93.1134	840.82	92.408	840.82	92.6873	840.82	91.7556	840.82	92.0869	840.82	90.9425	840.82	91.2904	840.82	89.9163	840.82	90.254	840.82	88.6371	840.82	88.9534	840.82	87.2091	840.82	87.4905	840.82	86.0585	840.82	86.2465	840.82	85.7042	840.82	85.7191	840.82	85.9167	840.82	85.7888	840.82	85.8875	840.82	85.7423	840.82	84.9963	840.82	84.9856	840.82	82.8859	840.82	83.191	840.82	79.6644	840.82	80.382	840.82	77.7043	840.82	78.1044	840.82	78.7383	840.82	78.5687	840.82	79.3586
870.85	92.9248	870.85	92.7957	870.85	92.8579	870.85	92.4853	870.85	92.6022	870.85	92.0206	870.85	92.1764	870.85	91.4129	870.85	91.5895	870.85	90.6273	870.85	90.8208	870.85	89.5818	870.85	89.8183	870.85	88.1997	870.85	88.5362	870.85	86.5694	870.85	87.0506	870.85	85.2576	870.85	85.7759	870.85	85.0799	870.85	85.3562	870.85	85.6776	870.85	85.6988	870.85	85.9288	870.85	85.9493	870.85	85.1449	870.85	85.4473	870.85	82.99	870.85	83.8546	870.85	79.7777	870.85	81.1847	870.85	78.7006	870.85	79.0968	870.85	80.3323	870.85	79.9167	870.85	80.9303
901.611	92.9754	901.611	92.8232	901.611	92.8906	901.611	92.4509	901.611	92.59	901.611	91.9044	901.611	92.1239	901.611	91.2269	901.611	91.5376	901.611	90.4183	901.611	90.8277	901.611	89.4117	901.611	89.9226	901.611	88.1069	901.611	88.7229	901.611	86.4989	901.611	87.2209	901.611	84.9787	901.611	85.7339	901.611	84.4313	901.611	84.9907	901.611	84.9298	901.611	85.1953	901.611	85.3543	901.611	85.5054	901.611	84.8352	901.611	85.123	901.611	82.8966	901.611	83.6463	901.611	79.2933	901.611	81.0276	901.611	76.2503	901.611	78.5772	901.611	77.8274	901.611	78.6576	901.611	79.1009
933.105	93.0212	933.105	92.8376	933.105	92.9195	933.105	92.39	933.105	92.5486	933.105	91.7336	933.105	91.9563	933.105	90.9339	933.105	91.2066	933.105	90.0285	933.105	90.3497	933.105	88.9976	933.105	89.3814	933.105	87.7823	933.105	88.2312	933.105	86.3868	933.105	86.8402	933.105	85.0838	933.105	85.4002	933.105	84.4813	933.105	84.6069	933.105	84.7424	933.105	84.8967	933.105	85.1054	933.105	85.453	933.105	84.7893	933.105	85.3067	933.105	83.3863	933.105	83.9825	933.105	80.9499	933.105	81.5348	933.105	79.143	933.105	79.6584	933.105	79.8833	933.105	80.1953	933.105	80.7045
966.064	92.342	966.064	92.1489	966.064	92.2525	966.064	91.6808	966.064	91.9006	966.064	90.9887	966.064	91.3232	966.064	90.1687	966.064	90.5666	966.064	89.3196	966.064	89.6786	966.064	88.4445	966.064	88.6837	966.064	87.3924	966.064	87.5434	966.064	85.953	966.064	86.1601	966.064	84.1436	966.064	84.5353	966.064	82.7657	966.064	83.214	966.064	82.9293	966.064	83.2392	966.064	83.7739	966.064	84.2253	966.064	83.9202	966.064	84.7926	966.064	82.8705	966.064	84.2646	966.064	80.8451	966.064	82.6361	966.064	79.5085	966.064	80.8955	966.064	80.1557	966.064	80.5974	966.064	80.797
999.756	92.4152	999.756	92.2477	999.756	92.2695	999.756	91.7853	999.756	91.8149	999.756	91.0731	999.756	91.0807	999.756	90.1844	999.756	90.1345	999.756	89.2003	999.756	89.0862	999.756	88.1581	999.756	88.0445	999.756	87.004	999.756	87.0203	999.756	85.6399	999.756	85.8946	999.756	84.16	999.756	84.6052	999.756	83.2309	999.756	83.5639	999.756	83.5279	999.756	83.6044	999.756	84.3023	999.756	84.4428	999.756	84.4302	999.756	84.8574	999.756	83.3916	999.756	84.1137	999.756	81.3093	999.756	82.0642	999.756	79.8237	999.756	79.8308	999.756	80.3348	999.756	79.8813	999.756	80.6786
1,034.91	92.4695	1,034.91	92.3132	1,034.91	92.2811	1,034.91	91.829	1,034.91	91.7575	1,034.91	91.0574	1,034.91	90.9503	1,034.91	90.0804	1,034.91	89.9669	1,034.91	89.0353	1,034.91	88.9503	1,034.91	88.059	1,034.91	87.9969	1,034.91	87.1436	1,034.91	87.0555	1,034.91	86.0864	1,034.91	85.9331	1,034.91	84.7026	1,034.91	84.4703	1,034.91	83.3041	1,034.91	82.9305	1,034.91	82.9589	1,034.91	82.3187	1,034.91	83.6967	1,034.91	82.8885	1,034.91	84.0767	1,034.91	83.3372	1,034.91	83.2605	1,034.91	82.7779	1,034.91	81.4103	1,034.91	81.2181	1,034.91	80.2416	1,034.91	79.9322	1,034.91	80.7948	1,034.91	80.383	1,034.91	81.0987
1,071.53	92.6989	1,071.53	92.5234	1,071.53	92.5717	1,071.53	92.0536	1,071.53	92.1515	1,071.53	91.313	1,071.53	91.462	1,071.53	90.3381	1,071.53	90.5384	1,071.53	89.1915	1,071.53	89.4393	1,071.53	87.9738	1,071.53	88.2579	1,071.53	86.7614	1,071.53	87.0648	1,071.53	85.4636	1,071.53	85.7732	1,071.53	83.8727	1,071.53	84.1434	1,071.53	82.3331	1,071.53	82.2311	1,071.53	82.3994	1,071.53	81.2753	1,071.53	83.8247	1,071.53	82.1402	1,071.53	84.5448	1,071.53	83.1037	1,071.53	83.6776	1,071.53	82.9767	1,071.53	81.2849	1,071.53	81.6403	1,071.53	79.4325	1,071.53	79.9911	1,071.53	80.1423	1,071.53	79.911	1,071.53	80.5754
1,109.62	93.0166	1,109.62	92.8149	1,109.62	92.8942	1,109.62	92.289	1,109.62	92.4761	1,109.62	91.479	1,109.62	91.8008	1,109.62	90.4624	1,109.62	90.9072	1,109.62	89.3441	1,109.62	89.8453	1,109.62	88.2383	1,109.62	88.6851	1,109.62	87.2006	1,109.62	87.4663	1,109.62	86.1057	1,109.62	86.0906	1,109.62	84.6394	1,109.62	84.3227	1,109.62	82.6384	1,109.62	82.1317	1,109.62	81.1151	1,109.62	80.6342	1,109.62	81.7545	1,109.62	81.2397	1,109.62	82.8863	1,109.62	82.2921	1,109.62	82.7053	1,109.62	82.1778	1,109.62	80.8891	1,109.62	80.6007	1,109.62	78.6917	1,109.62	78.7666	1,109.62	78.9207	1,109.62	79.0551	1,109.62	79.6675
1,148.44	93.5993	1,148.44	93.3936	1,148.44	93.4731	1,148.44	92.8482	1,148.44	93.0322	1,148.44	91.9712	1,148.44	92.2973	1,148.44	90.803	1,148.44	91.2856	1,148.44	89.45	1,148.44	90.0271	1,148.44	88.0979	1,148.44	88.6215	1,148.44	86.8877	1,148.44	87.2743	1,148.44	85.6916	1,148.44	86.1318	1,148.44	84.1479	1,148.44	84.9987	1,148.44	82.0943	1,148.44	83.4576	1,148.44	80.4583	1,148.44	81.5746	1,148.44	80.795	1,148.44	80.9776	1,148.44	81.7877	1,148.44	82.1624	1,148.44	81.7916	1,148.44	82.7908	1,148.44	80.6903	1,148.44	81.9197	1,148.44	79.8933	1,148.44	80.5042	1,148.44	80.6512	1,148.44	80.6428	1,148.44	81.214
1,189.45	94.1932	1,189.45	93.9847	1,189.45	94.0706	1,189.45	93.4553	1,189.45	93.6138	1,189.45	92.6148	1,189.45	92.8347	1,189.45	91.4702	1,189.45	91.7702	1,189.45	90.045	1,189.45	90.4968	1,189.45	88.4401	1,189.45	89.1422	1,189.45	86.8903	1,189.45	87.8576	1,189.45	85.6034	1,189.45	86.6932	1,189.45	84.39	1,189.45	85.4665	1,189.45	82.7423	1,189.45	83.9014	1,189.45	80.6542	1,189.45	82.2534	1,189.45	79.964	1,189.45	81.8486	1,189.45	81.1984	1,189.45	82.6366	1,189.45	81.766	1,189.45	82.8508	1,189.45	80.9877	1,189.45	81.9172	1,189.45	80.4312	1,189.45	80.9412	1,189.45	81.3919	1,189.45	81.4251	1,189.45	82.0064
1,231.2	94.1542	1,231.2	93.9202	1,231.2	94.0224	1,231.2	93.3406	1,231.2	93.5422	1,231.2	92.4645	1,231.2	92.7517	1,231.2	91.3364	1,231.2	91.6884	1,231.2	89.9724	1,231.2	90.3992	1,231.2	88.402	1,231.2	89.0006	1,231.2	86.7833	1,231.2	87.728	1,231.2	85.4042	1,231.2	86.7669	1,231.2	84.2989	1,231.2	85.9011	1,231.2	83.0364	1,231.2	84.6032	1,231.2	81.4557	1,231.2	82.633	1,231.2	80.5919	1,231.2	80.9275	1,231.2	80.8493	1,231.2	80.8741	1,231.2	80.3864	1,231.2	81.0884	1,231.2	78.2999	1,231.2	80.1347	1,231.2	77.4014	1,231.2	78.7348	1,231.2	79.4847	1,231.2	79.2965	1,231.2	80.3073
1,274.41	94.1851	1,274.41	94.0498	1,274.41	94.0131	1,274.41	93.5976	1,274.41	93.5728	1,274.41	92.846	1,274.41	92.9176	1,274.41	91.8252	1,274.41	92.0787	1,274.41	90.5594	1,274.41	91.0333	1,274.41	89.0663	1,274.41	89.7279	1,274.41	87.4149	1,274.41	88.176	1,274.41	85.8115	1,274.41	86.5454	1,274.41	84.4784	1,274.41	85.0075	1,274.41	83.2833	1,274.41	83.4107	1,274.41	81.9328	1,274.41	81.5954	1,274.41	80.8606	1,274.41	80.4624	1,274.41	80.7907	1,274.41	80.9021	1,274.41	80.6809	1,274.41	81.2864	1,274.41	79.2621	1,274.41	80.3777	1,274.41	77.7533	1,274.41	79.266	1,274.41	79.3058	1,274.41	80.119	1,274.41	80.7022
1,319.82	93.9181	1,319.82	93.7252	1,319.82	93.8149	1,319.82	93.2488	1,319.82	93.3904	1,319.82	92.4868	1,319.82	92.6326	1,319.82	91.4449	1,319.82	91.5656	1,319.82	90.1723	1,319.82	90.2453	1,319.82	88.7894	1,319.82	88.7474	1,319.82	87.4719	1,319.82	87.1964	1,319.82	86.3194	1,319.82	85.7822	1,319.82	85.171	1,319.82	84.5773	1,319.82	83.6779	1,319.82	83.3578	1,319.82	81.882	1,319.82	82.0533	1,319.82	81.1164	1,319.82	81.5274	1,319.82	81.8852	1,319.82	82.2105	1,319.82	82.0669	1,319.82	82.5055	1,319.82	80.325	1,319.82	81.2338	1,319.82	77.8225	1,319.82	79.4819	1,319.82	79.5088	1,319.82	80.4217	1,319.82	81.1952
1,365.97	93.424	1,365.97	93.1552	1,365.97	93.3585	1,365.97	92.628	1,365.97	92.902	1,365.97	91.9057	1,365.97	92.053	1,365.97	91.006	1,365.97	90.8868	1,365.97	89.8802	1,365.97	89.5281	1,365.97	88.4576	1,365.97	88.0631	1,365.97	86.7835	1,365.97	86.516	1,365.97	85.1634	1,365.97	85.0272	1,365.97	83.9414	1,365.97	83.9521	1,365.97	82.8657	1,365.97	83.2661	1,365.97	81.4474	1,365.97	82.2605	1,365.97	80.4902	1,365.97	80.7683	1,365.97	81.317	1,365.97	80.3879	1,365.97	82.0914	1,365.97	81.1223	1,365.97	81.1179	1,365.97	80.5627	1,365.97	79.0129	1,365.97	78.6231	1,365.97	79.3283	1,365.97	78.9502	1,365.97	80.1435
1,414.31	92.8482	1,414.31	92.5599	1,414.31	92.7913	1,414.31	91.9308	1,414.31	92.382	1,414.31	91.0002	1,414.31	91.6128	1,414.31	89.8536	1,414.31	90.5269	1,414.31	88.5603	1,414.31	89.265	1,414.31	87.1264	1,414.31	88.0067	1,414.31	85.6113	1,414.31	86.7757	1,414.31	84.3168	1,414.31	85.3748	1,414.31	83.4901	1,414.31	83.6674	1,414.31	82.7051	1,414.31	81.8889	1,414.31	81.509	1,414.31	80.4261	1,414.31	80.7966	1,414.31	79.4763	1,414.31	81.4801	1,414.31	79.5548	1,414.31	81.6623	1,414.31	80.2428	1,414.31	79.8693	1,414.31	79.8675	1,414.31	77.9048	1,414.31	77.9307	1,414.31	79.3211	1,414.31	77.7929	1,414.31	79.6458
1,464.11	92.3191	1,464.11	92.2895	1,464.11	92.1518	1,464.11	91.911	1,464.11	91.8916	1,464.11	91.1283	1,464.11	91.4919	1,464.11	90.0204	1,464.11	90.8029	1,464.11	88.7041	1,464.11	89.704	1,464.11	87.1968	1,464.11	88.2296	1,464.11	85.4483	1,464.11	86.6449	1,464.11	83.6691	1,464.11	85.2659	1,464.11	82.4562	1,464.11	84.0108	1,464.11	81.6411	1,464.11	82.4356	1,464.11	80.1048	1,464.11	80.373	1,464.11	78.2754	1,464.11	78.9944	1,464.11	79.2655	1,464.11	79.8212	1,464.11	80.5849	1,464.11	80.8563	1,464.11	79.2523	1,464.11	80.2107	1,464.11	75.4561	1,464.11	77.8294	1,464.11	76.632	1,464.11	77.3631	1,464.11	78.4229
1,515.38	92.4426	1,515.38	92.2239	1,515.38	92.3967	1,515.38	91.7744	1,515.38	92.0413	1,515.38	91.0674	1,515.38	91.4136	1,515.38	90.0622	1,515.38	90.6194	1,515.38	88.7879	1,515.38	89.6848	1,515.38	87.3437	1,515.38	88.4635	1,515.38	85.7431	1,515.38	86.7782	1,515.38	83.8571	1,515.38	84.7674	1,515.38	81.7998	1,515.38	83.1606	1,515.38	80.263	1,515.38	82.3375	1,515.38	79.2387	1,515.38	81.3689	1,515.38	77.7589	1,515.38	79.7268	1,515.38	76.9077	1,515.38	79.0016	1,515.38	78.147	1,515.38	79.768	1,515.38	78.5219	1,515.38	79.4285	1,515.38	76.7915	1,515.38	77.6927	1,515.38	76.1665	1,515.38	77.516	1,515.38	77.6805
1,568.85	93.0961	1,568.85	92.8254	1,568.85	93.0298	1,568.85	92.2317	1,568.85	92.5957	1,568.85	91.3376	1,568.85	91.7803	1,568.85	90.2106	1,568.85	90.6442	1,568.85	88.9409	1,568.85	89.33	1,568.85	87.5493	1,568.85	87.9615	1,568.85	85.9184	1,568.85	86.4945	1,568.85	83.9423	1,568.85	84.7896	1,568.85	81.8899	1,568.85	83.0067	1,568.85	80.2925	1,568.85	81.7312	1,568.85	78.7859	1,568.85	80.8016	1,568.85	76.8703	1,568.85	79.4211	1,568.85	76.9751	1,568.85	78.6209	1,568.85	78.9399	1,568.85	79.4775	1,568.85	79.0127	1,568.85	79.4561	1,568.85	76.7384	1,568.85	77.6122	1,568.85	76.781	1,568.85	77.3739	1,568.85	78.2739
1,624.51	92.4084	1,624.51	92.1223	1,624.51	92.3672	1,624.51	91.612	1,624.51	91.9313	1,624.51	90.9087	1,624.51	91.1267	1,624.51	89.9511	1,624.51	90.0347	1,624.51	88.7009	1,624.51	88.7346	1,624.51	87.2683	1,624.51	87.2844	1,624.51	85.8366	1,624.51	85.6956	1,624.51	84.3509	1,624.51	83.9776	1,624.51	82.5605	1,624.51	82.3172	1,624.51	80.6534	1,624.51	80.9136	1,624.51	79.3596	1,624.51	79.3593	1,624.51	78.4636	1,624.51	77.2971	1,624.51	77.5505	1,624.51	76.6778	1,624.51	77.5458	1,624.51	78.0849	1,624.51	77.3546	1,624.51	78.0883	1,624.51	75.6671	1,624.51	76.0536	1,624.51	76.2565	1,624.51	76.4486	1,624.51	77.7376
1,681.64	92.2795	1,681.64	92.0102	1,681.64	92.1027	1,681.64	91.4393	1,681.64	91.4889	1,681.64	90.7251	1,681.64	90.5616	1,681.64	89.8734	1,681.64	89.4345	1,681.64	88.76	1,681.64	88.1534	1,681.64	87.3242	1,681.64	86.6653	1,681.64	85.7281	1,681.64	84.8338	1,681.64	84.2726	1,681.64	82.653	1,681.64	83.0562	1,681.64	80.6133	1,681.64	81.9011	1,681.64	79.3903	1,681.64	80.5576	1,681.64	78.4896	1,681.64	78.807	1,681.64	76.9408	1,681.64	77.4917	1,681.64	75.8476	1,681.64	78.1345	1,681.64	77.1174	1,681.64	78.4004	1,681.64	77.5207	1,681.64	76.4464	1,681.64	75.8974	1,681.64	75.8106	1,681.64	76.4289	1,681.64	77.4088
1,740.97	91.7559	1,740.97	91.8755	1,740.97	91.3627	1,740.97	91.5673	1,740.97	90.9057	1,740.97	90.8266	1,740.97	90.4157	1,740.97	89.7036	1,740.97	89.7075	1,740.97	88.2885	1,740.97	88.5832	1,740.97	86.7623	1,740.97	87.0365	1,740.97	85.2526	1,740.97	85.2897	1,740.97	83.6832	1,740.97	83.5601	1,740.97	82.0242	1,740.97	81.8149	1,740.97	80.6212	1,740.97	80.2176	1,740.97	79.7673	1,740.97	79.3533	1,740.97	79.2154	1,740.97	78.5604	1,740.97	79.0512	1,740.97	77.0525	1,740.97	79.2931	1,740.97	76.8493	1,740.97	78.716	1,740.97	76.9099	1,740.97	77.0457	1,740.97	73.6554	1,740.97	77.2394	1,740.97	73.5644	1,740.97	77.2707
1,802.49	91.7502	1,802.49	91.479	1,802.49	91.6812	1,802.49	90.9754	1,802.49	91.2353	1,802.49	90.3008	1,802.49	90.4478	1,802.49	89.3715	1,802.49	89.37	1,802.49	88.0235	1,802.49	88.0928	1,802.49	86.1889	1,802.49	86.7787	1,802.49	84.0438	1,802.49	85.5008	1,802.49	81.9799	1,802.49	84.0294	1,802.49	80.2807	1,802.49	82.0573	1,802.49	78.9106	1,802.49	79.9806	1,802.49	77.5838	1,802.49	78.9395	1,802.49	75.8396	1,802.49	78.3749	1,802.49	74.9487	1,802.49	77.2262	1,802.49	76.5495	1,802.49	76.7883	1,802.49	76.6175	1,802.49	77.2902	1,802.49	73.5613	1,802.49	75.6683	1,802.49	74.4089	1,802.49	73.8249	1,802.49	75.7536
1,866.21	91.1223	1,866.21	90.9834	1,866.21	91.0385	1,866.21	90.604	1,866.21	90.8242	1,866.21	90.0326	1,866.21	90.4705	1,866.21	89.2324	1,866.21	89.8117	1,866.21	88.046	1,866.21	88.6513	1,866.21	86.3309	1,866.21	86.915	1,866.21	84.1638	1,866.21	84.8485	1,866.21	81.9162	1,866.21	83.0177	1,866.21	79.9426	1,866.21	81.5621	1,866.21	78.3705	1,866.21	80.085	1,866.21	77.4895	1,866.21	78.8145	1,866.21	76.8463	1,866.21	78.3091	1,866.21	75.4254	1,866.21	78.1665	1,866.21	75.0332	1,866.21	78.1754	1,866.21	76.1449	1,866.21	77.623	1,866.21	74.6594	1,866.21	75.2069	1,866.21	72.489	1,866.21	74.1006	1,866.21	74.5568
1,932.13	90.4477	1,932.13	90.3756	1,932.13	90.4204	1,932.13	90.173	1,932.13	90.2087	1,932.13	89.7118	1,932.13	89.6963	1,932.13	88.8788	1,932.13	88.8039	1,932.13	87.6525	1,932.13	87.5053	1,932.13	86.1349	1,932.13	85.8377	1,932.13	84.5141	1,932.13	83.9217	1,932.13	82.8483	1,932.13	81.8816	1,932.13	80.9608	1,932.13	79.6475	1,932.13	78.9429	1,932.13	77.2312	1,932.13	77.5796	1,932.13	75.6761	1,932.13	76.7994	1,932.13	75.1764	1,932.13	75.6922	1,932.13	74.1527	1,932.13	75.1135	1,932.13	74.062	1,932.13	74.9239	1,932.13	74.8425	1,932.13	72.8155	1,932.13	72.4193	1,932.13	72.5036	1,932.13	69.6893	1,932.13	73.1639
2,000.24	90.8487	2,000.24	90.8237	2,000.24	90.9182	2,000.24	90.6185	2,000.24	90.9973	2,000.24	89.9879	2,000.24	90.8055	2,000.24	88.8131	2,000.24	90.07	2,000.24	87.0834	2,000.24	88.6963	2,000.24	84.9033	2,000.24	86.8149	2,000.24	82.6217	2,000.24	84.7497	2,000.24	80.6739	2,000.24	82.7813	2,000.24	78.8652	2,000.24	80.7988	2,000.24	76.65	2,000.24	78.4639	2,000.24	74.8775	2,000.24	76.1291	2,000.24	74.7531	2,000.24	75.1079	2,000.24	74.4916	2,000.24	74.8672	2,000.24	74.1105	2,000.24	74.2105	2,000.24	73.6661	2,000.24	73.7252	2,000.24	69.7777	2,000.24	72.2537	2,000.24	66.1407	2,000.24	68.6772	2,000.24	68.4443
2,070.56	92.2217	2,070.56	92.0806	2,070.56	92.3088	2,070.56	91.8181	2,070.56	92.2207	2,070.56	91.2271	2,070.56	91.8073	2,070.56	90.1529	2,070.56	90.9879	2,070.56	88.5507	2,070.56	89.7265	2,070.56	86.4353	2,070.56	88.036	2,070.56	83.9686	2,070.56	86.0388	2,070.56	81.5871	2,070.56	83.9977	2,070.56	79.5694	2,070.56	82.1329	2,070.56	77.4374	2,070.56	80.3236	2,070.56	75.0997	2,070.56	78.3964	2,070.56	74.2414	2,070.56	76.8406	2,070.56	74.4402	2,070.56	76.4671	2,070.56	73.9959	2,070.56	76.7845	2,070.56	73.1322	2,070.56	76.1455	2,070.56	70.6637	2,070.56	72.9616	2,070.56	69.5762	2,070.56	70.0348	2,070.56	71.3265
2,143.8	91.8595	2,143.8	91.7436	2,143.8	91.869	2,143.8	91.5051	2,143.8	91.6932	2,143.8	91.0642	2,143.8	91.2414	2,143.8	90.3376	2,143.8	90.4445	2,143.8	89.2098	2,143.8	89.2262	2,143.8	87.5727	2,143.8	87.554	2,143.8	85.4565	2,143.8	85.5511	2,143.8	83.0789	2,143.8	83.5223	2,143.8	80.7625	2,143.8	81.6785	2,143.8	78.5386	2,143.8	79.8093	2,143.8	76.2764	2,143.8	77.9002	2,143.8	74.9699	2,143.8	76.7787	2,143.8	74.8591	2,143.8	76.5406	2,143.8	74.7258	2,143.8	76.7974	2,143.8	74.2495	2,143.8	76.8499	2,143.8	70.8583	2,143.8	74.5767	2,143.8	66.8812	2,143.8	70.8665	2,143.8	70.8559
2,219.24	90.995	2,219.24	90.9115	2,219.24	91.2258	2,219.24	90.8556	2,219.24	91.355	2,219.24	90.4953	2,219.24	91.0581	2,219.24	89.6451	2,219.24	90.1826	2,219.24	88.3439	2,219.24	88.7552	2,219.24	86.7146	2,219.24	86.8979	2,219.24	84.8317	2,219.24	84.7285	2,219.24	82.7819	2,219.24	82.4097	2,219.24	80.8129	2,219.24	80.1943	2,219.24	78.977	2,219.24	78.0402	2,219.24	77.1093	2,219.24	76.1313	2,219.24	76.134	2,219.24	75.3648	2,219.24	76.2564	2,219.24	74.8908	2,219.24	76.227	2,219.24	74.7087	2,219.24	76.0597	2,219.24	75.8699	2,219.24	73.797	2,219.24	74.4801	2,219.24	69.3944	2,219.24	70.0642	2,219.24	70.6556
2,297.61	92.5758	2,297.61	92.3972	2,297.61	92.7856	2,297.61	92.0759	2,297.61	92.886	2,297.61	91.3273	2,297.61	92.5749	2,297.61	89.9894	2,297.61	91.6933	2,297.61	88.0989	2,297.61	90.3125	2,297.61	85.8692	2,297.61	88.543	2,297.61	83.5588	2,297.61	86.3583	2,297.61	81.3465	2,297.61	83.8835	2,297.61	79.3573	2,297.61	81.6445	2,297.61	77.4706	2,297.61	79.7278	2,297.61	75.5706	2,297.61	77.6372	2,297.61	74.8693	2,297.61	76.4621	2,297.61	75.4415	2,297.61	76.7825	2,297.61	75.4235	2,297.61	76.7438	2,297.61	74.5512	2,297.61	76.749	2,297.61	71.1968	2,297.61	75.2953	2,297.61	67.6462	2,297.61	70.3766	2,297.61	70.0801
2,378.17	93.4335	2,378.17	93.3905	2,378.17	93.4836	2,378.17	93.1441	2,378.17	93.4602	2,378.17	92.4273	2,378.17	93.1143	2,378.17	91.1524	2,378.17	92.2801	2,378.17	89.3951	2,378.17	90.9013	2,378.17	87.232	2,378.17	88.9639	2,378.17	84.6819	2,378.17	86.5855	2,378.17	81.9289	2,378.17	84.1591	2,378.17	79.4344	2,378.17	82.0562	2,378.17	77.1215	2,378.17	79.9748	2,378.17	74.2648	2,378.17	77.5332	2,378.17	72.7289	2,378.17	76.3491	2,378.17	74.107	2,378.17	77.0622	2,378.17	75.0171	2,378.17	76.858	2,378.17	75.643	2,378.17	75.5923	2,378.17	73.8812	2,378.17	73.9602	2,378.17	66.56	2,378.17	71.5179	2,378.17	68.8001
2,462.4	92.7531	2,462.4	92.7164	2,462.4	92.7382	2,462.4	92.5242	2,462.4	92.5997	2,462.4	92.0008	2,462.4	92.1121	2,462.4	90.9762	2,462.4	91.0762	2,462.4	89.3507	2,462.4	89.4685	2,462.4	87.2012	2,462.4	87.4044	2,462.4	84.7527	2,462.4	84.9712	2,462.4	82.2564	2,462.4	82.3941	2,462.4	80.072	2,462.4	80.3487	2,462.4	78.2509	2,462.4	78.7253	2,462.4	75.8435	2,462.4	76.2791	2,462.4	73.2051	2,462.4	74.163	2,462.4	73.8225	2,462.4	75.6593	2,462.4	74.8308	2,462.4	77.0643	2,462.4	74.9861	2,462.4	76.8331	2,462.4	73.4578	2,462.4	73.8493	2,462.4	69.2102	2,462.4	69.1894	2,462.4	70.1378
2,548.83	92.8071	2,548.83	92.7059	2,548.83	92.8151	2,548.83	92.3781	2,548.83	92.6514	2,548.83	91.5835	2,548.83	92.0908	2,548.83	90.153	2,548.83	90.9681	2,548.83	88.1624	2,548.83	89.2864	2,548.83	85.8986	2,548.83	87.1244	2,548.83	83.4954	2,548.83	84.5009	2,548.83	80.9123	2,548.83	81.4888	2,548.83	78.6582	2,548.83	78.5443	2,548.83	77.287	2,548.83	76.3981	2,548.83	75.5956	2,548.83	74.6989	2,548.83	72.9389	2,548.83	72.7069	2,548.83	73.1893	2,548.83	71.7313	2,548.83	74.6839	2,548.83	73.3115	2,548.83	74.7465	2,548.83	74.7538	2,548.83	73.1033	2,548.83	72.5002	2,548.83	68.067	2,548.83	66.1706	2,548.83	67.2042
2,638.92	92.8659	2,638.92	92.8494	2,638.92	92.7601	2,638.92	92.4945	2,638.92	92.5685	2,638.92	91.5934	2,638.92	92.0331	2,638.92	90.029	2,638.92	90.8436	2,638.92	87.8797	2,638.92	88.9584	2,638.92	85.4263	2,638.92	86.6083	2,638.92	82.8529	2,638.92	84.0063	2,638.92	80.101	2,638.92	81.2103	2,638.92	77.2749	2,638.92	78.3288	2,638.92	75.0245	2,638.92	75.5555	2,638.92	73.6018	2,638.92	72.744	2,638.92	72.4216	2,638.92	70.517	2,638.92	72.4804	2,638.92	71.2099	2,638.92	73.2058	2,638.92	72.5707	2,638.92	72.7878	2,638.92	73.3059	2,638.92	70.7557	2,638.92	71.4808	2,638.92	67.0751	2,638.92	64.944	2,638.92	66.1496
2,731.93	92.3094	2,731.93	92.3505	2,731.93	92.2662	2,731.93	92.2097	2,731.93	92.0347	2,731.93	91.5216	2,731.93	91.2734	2,731.93	90.076	2,731.93	89.7849	2,731.93	87.9738	2,731.93	87.6183	2,731.93	85.5164	2,731.93	84.9941	2,731.93	82.8942	2,731.93	82.1533	2,731.93	80.1789	2,731.93	79.3095	2,731.93	77.709	2,731.93	76.8711	2,731.93	75.9417	2,731.93	75.1785	2,731.93	74.3253	2,731.93	73.4991	2,731.93	72.1452	2,731.93	71.5537	2,731.93	71.9419	2,731.93	71.1637	2,731.93	73.9544	2,731.93	71.554	2,731.93	74.8972	2,731.93	72.23	2,731.93	72.9612	2,731.93	71.0958	2,731.93	68.0666	2,731.93	66.3735	2,731.93	67.6049
2,828.61	92.0338	2,828.61	92.1048	2,828.61	92.0158	2,828.61	92.0231	2,828.61	91.8784	2,828.61	91.3895	2,828.61	91.2142	2,828.61	89.9859	2,828.61	89.7369	2,828.61	87.9548	2,828.61	87.5519	2,828.61	85.5727	2,828.61	85.055	2,828.61	82.9983	2,828.61	82.5185	2,828.61	80.4123	2,828.61	80.0131	2,828.61	78.0237	2,828.61	77.6422	2,828.61	76.0325	2,828.61	75.5421	2,828.61	74.3723	2,828.61	73.5585	2,828.61	72.9369	2,828.61	71.8227	2,828.61	72.5666	2,828.61	71.8944	2,828.61	73.3859	2,828.61	72.9139	2,828.61	74.62	2,828.61	74.0321	2,828.61	72.8621	2,828.61	72.7806	2,828.61	66.5073	2,828.61	66.4566	2,828.61	67.3277
2,928.22	91.9621	2,928.22	91.9676	2,928.22	91.8129	2,928.22	91.6818	2,928.22	91.425	2,928.22	90.8773	2,928.22	90.5179	2,928.22	89.5328	2,928.22	88.9958	2,928.22	87.8376	2,928.22	87.0744	2,928.22	85.8785	2,928.22	84.9403	2,928.22	83.6691	2,928.22	82.5601	2,928.22	81.2788	2,928.22	80.0068	2,928.22	78.7904	2,928.22	77.7532	2,928.22	76.459	2,928.22	76.0809	2,928.22	74.2149	2,928.22	73.9945	2,928.22	71.8988	2,928.22	71.7692	2,928.22	71.5512	2,928.22	72.4182	2,928.22	72.6311	2,928.22	72.6826	2,928.22	74.1026	2,928.22	73.6224	2,928.22	73.1591	2,928.22	72.7104	2,928.22	67.402	2,928.22	65.8999	2,928.22	67.1511
3,031.49	91.5685	3,031.49	91.4304	3,031.49	91.3771	3,031.49	90.9613	3,031.49	90.9012	3,031.49	90.1161	3,031.49	90.0168	3,031.49	88.8189	3,031.49	88.54	3,031.49	87.0442	3,031.49	86.5453	3,031.49	84.9188	3,031.49	84.2648	3,031.49	82.723	3,031.49	81.8642	3,031.49	80.5634	3,031.49	79.3745	3,031.49	78.391	3,031.49	76.9422	3,031.49	76.5368	3,031.49	75.1144	3,031.49	75.0099	3,031.49	73.2911	3,031.49	73.1882	3,031.49	70.4698	3,031.49	72.6411	3,031.49	69.5076	3,031.49	73.079	3,031.49	69.6495	3,031.49	73.5805	3,031.49	71.8976	3,031.49	72.4163	3,031.49	71.9997	3,031.49	66.4764	3,031.49	63.2617	3,031.49	64.8579
3,138.43	91.8423	3,138.43	91.5819	3,138.43	91.5459	3,138.43	90.942	3,138.43	90.8071	3,138.43	90.0297	3,138.43	89.7742	3,138.43	88.6985	3,138.43	88.3505	3,138.43	86.8488	3,138.43	86.446	3,138.43	84.5981	3,138.43	84.2071	3,138.43	82.1091	3,138.43	81.8601	3,138.43	79.4948	3,138.43	79.3608	3,138.43	76.9651	3,138.43	76.6061	3,138.43	74.9959	3,138.43	74.2293	3,138.43	73.2172	3,138.43	72.4476	3,138.43	71.1732	3,138.43	70.1227	3,138.43	71.6134	3,138.43	70.2564	3,138.43	72.3635	3,138.43	70.6073	3,138.43	72.8744	3,138.43	70.6463	3,138.43	71.4887	3,138.43	71.556	3,138.43	64.7403	3,138.43	65.0489	3,138.43	63.5864
3,249.02	91.6541	3,249.02	91.3836	3,249.02	91.3845	3,249.02	90.7663	3,249.02	90.6886	3,249.02	89.9311	3,249.02	89.6533	3,249.02	88.6819	3,249.02	88.125	3,249.02	86.8984	3,249.02	86.1559	3,249.02	84.7515	3,249.02	84.0233	3,249.02	82.4716	3,249.02	81.6918	3,249.02	80.0482	3,249.02	79.1146	3,249.02	77.2031	3,249.02	76.5479	3,249.02	74.532	3,249.02	74.4424	3,249.02	72.9905	3,249.02	72.5299	3,249.02	70.4168	3,249.02	69.8882	3,249.02	69.4363	3,249.02	70.2488	3,249.02	71.0886	3,249.02	70.777	3,249.02	71.768	3,249.02	70.5971	3,249.02	71.4762	3,249.02	71.4058	3,249.02	64.8298	3,249.02	64.6138	3,249.02	62.2384
3,363.28	91.3606	3,363.28	91.1205	3,363.28	90.9953	3,363.28	90.4477	3,363.28	90.1111	3,363.28	89.4518	3,363.28	88.8454	3,363.28	88.0832	3,363.28	87.2616	3,363.28	86.3868	3,363.28	85.5084	3,363.28	84.2993	3,363.28	83.3488	3,363.28	81.8105	3,363.28	80.6698	3,363.28	79.3637	3,363.28	78.024	3,363.28	77.0133	3,363.28	75.4838	3,363.28	74.4776	3,363.28	73.2535	3,363.28	72.5216	3,363.28	72.0719	3,363.28	71.2594	3,363.28	69.8318	3,363.28	70.7257	3,363.28	68.4282	3,363.28	71.1389	3,363.28	70.1981	3,363.28	71.2783	3,363.28	70.3368	3,363.28	70.4183	3,363.28	70.7718	3,363.28	64.0046	3,363.28	63.5924	3,363.28	58.9713
3,481.93	91.8504	3,481.93	91.2736	3,481.93	91.4735	3,481.93	90.0875	3,481.93	90.3589	3,481.93	88.7614	3,481.93	89.0182	3,481.93	87.4525	3,481.93	87.7063	3,481.93	85.8973	3,481.93	86.1453	3,481.93	83.7543	3,481.93	83.9816	3,481.93	81.1857	3,481.93	81.3787	3,481.93	78.4305	3,481.93	78.6787	3,481.93	75.4502	3,481.93	75.9793	3,481.93	73.2977	3,481.93	73.7334	3,481.93	72.1403	3,481.93	72.1748	3,481.93	69.9724	3,481.93	69.5977	3,481.93	70.0937	3,481.93	68.6963	3,481.93	70.3618	3,481.93	69.8427	3,481.93	70.5313	3,481.93	69.5213	3,481.93	69.6287	3,481.93	70.9592	3,481.93	61.8641	3,481.93	66.0104	3,481.93	60.6498
3,604.98	92.2632	3,604.98	91.6935	3,604.98	91.6896	3,604.98	90.4394	3,604.98	90.3375	3,604.98	89.229	3,604.98	88.9336	3,604.98	88.0878	3,604.98	87.7172	3,604.98	86.4441	3,604.98	86.2461	3,604.98	84.0617	3,604.98	84.0782	3,604.98	81.281	3,604.98	81.4391	3,604.98	78.5184	3,604.98	78.7245	3,604.98	75.6438	3,604.98	75.5887	3,604.98	72.8715	3,604.98	72.6287	3,604.98	71.4088	3,604.98	71.8186	3,604.98	68.7937	3,604.98	70.252	3,604.98	68.3782	3,604.98	69.0016	3,604.98	70.4039	3,604.98	70.805	3,604.98	69.7778	3,604.98	70.6695	3,604.98	70.4178	3,604.98	71.4486	3,604.98	63.8275	3,604.98	65.2978	3,604.98	57.7131
3,732.42	92.0328	3,732.42	91.3342	3,732.42	91.4438	3,732.42	89.9728	3,732.42	89.9798	3,732.42	88.825	3,732.42	88.6688	3,732.42	87.7931	3,732.42	87.7157	3,732.42	86.2654	3,732.42	86.344	3,732.42	84.0201	3,732.42	84.1693	3,732.42	81.2235	3,732.42	81.5154	3,732.42	78.427	3,732.42	78.8777	3,732.42	75.7137	3,732.42	76.1606	3,732.42	72.9652	3,732.42	73.2202	3,732.42	71.7379	3,732.42	71.761	3,732.42	70.3314	3,732.42	70.2366	3,732.42	68.8273	3,732.42	68.5496	3,732.42	69.7516	3,732.42	69.8256	3,732.42	69.4449	3,732.42	69.6635	3,732.42	69.7534	3,732.42	71.7442	3,732.42	63.6814	3,732.42	66.6951	3,732.42	58.8107
3,863.53	92.14	3,863.53	91.4693	3,863.53	91.6196	3,863.53	90.0705	3,863.53	90.3574	3,863.53	88.7755	3,863.53	89.1978	3,863.53	87.6817	3,863.53	88.1861	3,863.53	86.1772	3,863.53	86.6934	3,863.53	83.9055	3,863.53	84.4599	3,863.53	81.2397	3,863.53	81.7508	3,863.53	78.761	3,863.53	79.0821	3,863.53	76.0216	3,863.53	76.3685	3,863.53	72.7364	3,863.53	73.368	3,863.53	70.7426	3,863.53	71.6082	3,863.53	68.4114	3,863.53	69.5772	3,863.53	69.1824	3,863.53	67.5395	3,863.53	71.1251	3,863.53	69.4054	3,863.53	69.6189	3,863.53	68.7135	3,863.53	69.3785	3,863.53	70.9325	3,863.53	60.2446	3,863.53	65.6649	3,863.53	58.4018
3,999.76	92.4735	3,999.76	91.6805	3,999.76	91.8946	3,999.76	90.1371	3,999.76	90.4797	3,999.76	88.8993	3,999.76	89.2785	3,999.76	87.8571	3,999.76	88.3307	3,999.76	86.1177	3,999.76	86.8474	3,999.76	83.4984	3,999.76	84.66	3,999.76	80.5997	3,999.76	82.262	3,999.76	78.1811	3,999.76	79.9536	3,999.76	75.9799	3,999.76	77.2912	3,999.76	73.2949	3,999.76	74.1235	3,999.76	71.9666	3,999.76	72.3246	3,999.76	69.6109	3,999.76	70.5223	3,999.76	66.7775	3,999.76	68.555	3,999.76	71.4914	3,999.76	70.7646	3,999.76	70.6696	3,999.76	70.0638	3,999.76	71.0373	3,999.76	72.7418	3,999.76	64.1251	3,999.76	67.6087	3,999.76	54.4102
4,141.11	91.8557	4,141.11	91.1668	4,141.11	91.0522	4,141.11	89.7708	4,141.11	89.356	4,141.11	88.84	4,141.11	88.1207	4,141.11	88.1766	4,141.11	87.387	4,141.11	86.9778	4,141.11	86.1051	4,141.11	85.124	4,141.11	84.0242	4,141.11	82.7242	4,141.11	81.5564	4,141.11	79.9314	4,141.11	79.1324	4,141.11	76.8435	4,141.11	76.7046	4,141.11	73.3119	4,141.11	73.707	4,141.11	71.131	4,141.11	71.85	4,141.11	70.0369	4,141.11	70.5875	4,141.11	67.6642	4,141.11	67.5997	4,141.11	70.6789	4,141.11	69.3172	4,141.11	70.5473	4,141.11	67.9985	4,141.11	70.7342	4,141.11	72.117	4,141.11	65.452	4,141.11	68.4217	4,141.11	59.3487
4,286.87	92.6249	4,286.87	91.6249	4,286.87	91.8989	4,286.87	89.821	4,286.87	90.1977	4,286.87	88.5504	4,286.87	88.9512	4,286.87	87.4794	4,286.87	88.0264	4,286.87	85.7795	4,286.87	86.558	4,286.87	83.5163	4,286.87	84.6038	4,286.87	81.0233	4,286.87	82.2487	4,286.87	79.1076	4,286.87	79.8271	4,286.87	77.5003	4,286.87	77.5031	4,286.87	74.7419	4,286.87	74.3275	4,286.87	72.694	4,286.87	71.7184	4,286.87	71.0342	4,286.87	69.9339	4,286.87	66.0126	4,286.87	66.5703	4,286.87	70.6482	4,286.87	70.7043	4,286.87	70.5484	4,286.87	66.8824	4,286.87	71.7977	4,286.87	72.1081	4,286.87	64.7819	4,286.87	68.3155	4,286.87	59.6476
4,438.48	92.4322	4,438.48	91.7351	4,438.48	91.737	4,438.48	90.3682	4,438.48	90.24	4,438.48	89.1302	4,438.48	88.9352	4,438.48	87.9434	4,438.48	87.7188	4,438.48	86.6249	4,438.48	86.2225	4,438.48	85.0171	4,438.48	84.5155	4,438.48	82.5204	4,438.48	82.15	4,438.48	79.2441	4,438.48	79.1153	4,438.48	75.8763	4,438.48	76.2559	4,438.48	72.4094	4,438.48	73.5548	4,438.48	70.2661	4,438.48	71.4876	4,438.48	69.0958	4,438.48	70.1352	4,438.48	64.3471	4,438.48	65.6151	4,438.48	70.1888	4,438.48	70.4023	4,438.48	69.3403	4,438.48	67.9371	4,438.48	70.7845	4,438.48	70.3485	4,438.48	65.225	4,438.48	67.6901	4,438.48	58.3764
4,594.48	92.8475	4,594.48	92.1319	4,594.48	92.2519	4,594.48	90.6784	4,594.48	90.8683	4,594.48	89.1008	4,594.48	89.3068	4,594.48	87.3099	4,594.48	87.4962	4,594.48	85.5239	4,594.48	85.7918	4,594.48	83.7649	4,594.48	84.3495	4,594.48	81.423	4,594.48	82.1421	4,594.48	79.1957	4,594.48	79.5707	4,594.48	77.3483	4,594.48	77.1119	4,594.48	74.1459	4,594.48	73.6808	4,594.48	71.1089	4,594.48	70.9723	4,594.48	71.5026	4,594.48	70.342	4,594.48	65.3447	4,594.48	61.8683	4,594.48	69.6926	4,594.48	69.4553	4,594.48	69.4459	4,594.48	67.1463	4,594.48	70.9106	4,594.48	71.4911	4,594.48	66.3241	4,594.48	67.979	4,594.48	59.8961
4,757.08	92.4832	4,757.08	91.6983	4,757.08	91.8047	4,757.08	90.1554	4,757.08	90.1895	4,757.08	88.5311	4,757.08	88.4722	4,757.08	87.0523	4,757.08	86.8137	4,757.08	86.1731	4,757.08	85.7114	4,757.08	85.2265	4,757.08	84.7696	4,757.08	83.1321	4,757.08	82.682	4,757.08	80.1001	4,757.08	79.8757	4,757.08	77.0298	4,757.08	77.161	4,757.08	74.0829	4,757.08	74.1121	4,757.08	70.8317	4,757.08	71.0577	4,757.08	69.9059	4,757.08	70.8397	4,757.08	64.3479	4,757.08	64.3731	4,757.08	69.2468	4,757.08	68.0801	4,757.08	69.6307	4,757.08	66.4911	4,757.08	70.0173	4,757.08	71.1505	4,757.08	64.2719	4,757.08	68.9397	4,757.08	61.2185
4,924.8	91.2443	4,924.8	90.785	4,924.8	90.3546	4,924.8	89.5423	4,924.8	88.7036	4,924.8	87.9946	4,924.8	86.8764	4,924.8	86.4301	4,924.8	85.2948	4,924.8	85.615	4,924.8	84.816	4,924.8	84.5848	4,924.8	83.9335	4,924.8	82.1905	4,924.8	81.4136	4,924.8	79.2003	4,924.8	78.3739	4,924.8	76.7351	4,924.8	75.7491	4,924.8	74.0968	4,924.8	72.6736	4,924.8	70.8819	4,924.8	69.2488	4,924.8	70.746	4,924.8	70.1784	4,924.8	64.5702	4,924.8	63.9869	4,924.8	68.7004	4,924.8	68.2147	4,924.8	68.9986	4,924.8	64.9306	4,924.8	71.0645	4,924.8	69.7387	4,924.8	64.9811	4,924.8	66.3897	4,924.8	56.5286
5,098.39	90.7452	5,098.39	90.2294	5,098.39	90.0094	5,098.39	88.7456	5,098.39	88.6766	5,098.39	86.6216	5,098.39	87.0758	5,098.39	84.8189	5,098.39	85.6942	5,098.39	84.4871	5,098.39	85.3426	5,098.39	83.8087	5,098.39	84.349	5,098.39	81.6374	5,098.39	81.9632	5,098.39	78.8289	5,098.39	79.1771	5,098.39	76.4276	5,098.39	76.3303	5,098.39	74.0059	5,098.39	73.5474	5,098.39	70.1423	5,098.39	69.3335	5,098.39	69.4913	5,098.39	69.1947	5,098.39	63.0668	5,098.39	64.6529	5,098.39	67.059	5,098.39	66.2137	5,098.39	68.3713	5,098.39	64.9293	5,098.39	68.6301	5,098.39	69.8623	5,098.39	62.044	5,098.39	68.5884	5,098.39	57.4247
5,277.83	89.9321	5,277.83	89.1758	5,277.83	89.7472	5,277.83	87.6985	5,277.83	89.0373	5,277.83	85.6383	5,277.83	87.8064	5,277.83	84.0556	5,277.83	86.9621	5,277.83	84.2107	5,277.83	86.7399	5,277.83	83.3242	5,277.83	85.3818	5,277.83	80.4009	5,277.83	82.9411	5,277.83	76.6488	5,277.83	80.0346	5,277.83	73.549	5,277.83	76.8376	5,277.83	71.3951	5,277.83	74.8295	5,277.83	67.2796	5,277.83	71.6423	5,277.83	68.0762	5,277.83	71.0263	5,277.83	63.916	5,277.83	67.5987	5,277.83	65.9103	5,277.83	67.8963	5,277.83	67.0809	5,277.83	66.4748	5,277.83	69.4998	5,277.83	68.8238	5,277.83	62.4781	5,277.83	67.7915	5,277.83	54.1167
5,463.87	90.947	5,463.87	89.6352	5,463.87	91.3826	5,463.87	87.6054	5,463.87	91.026	5,463.87	85.3195	5,463.87	90.03	5,463.87	84.5517	5,463.87	89.2498	5,463.87	84.3877	5,463.87	88.6934	5,463.87	82.5264	5,463.87	87.2256	5,463.87	79.3323	5,463.87	85.0751	5,463.87	76.0742	5,463.87	82.2308	5,463.87	73.7231	5,463.87	78.712	5,463.87	72.7866	5,463.87	76.81	5,463.87	69.7349	5,463.87	74.2488	5,463.87	68.2034	5,463.87	71.4669	5,463.87	62.1243	5,463.87	68.1492	5,463.87	62.8224	5,463.87	67.2758	5,463.87	65.3903	5,463.87	67.7367	5,463.87	67.5724	5,463.87	70.9905	5,463.87	59.8944	5,463.87	71.0762	5,463.87	60.8357
5,656.49	91.2271	5,656.49	89.5888	5,656.49	91.75	5,656.49	87.7162	5,656.49	91.3016	5,656.49	86.6115	5,656.49	90.5019	5,656.49	86.6206	5,656.49	89.8899	5,656.49	86.0828	5,656.49	89.1273	5,656.49	83.7298	5,656.49	87.4565	5,656.49	80.9292	5,656.49	85.2681	5,656.49	77.8016	5,656.49	82.4056	5,656.49	74.1569	5,656.49	78.8942	5,656.49	72.5573	5,656.49	76.9599	5,656.49	68.795	5,656.49	74.2235	5,656.49	65.9487	5,656.49	71.9339	5,656.49	61.703	5,656.49	69.3297	5,656.49	64.7244	5,656.49	68.1787	5,656.49	65.5523	5,656.49	67.1402	5,656.49	69.2566	5,656.49	70.3737	5,656.49	60.5352	5,656.49	70.0257	5,656.49	60.2028
5,856.45	90.5672	5,856.45	89.4004	5,856.45	91.0959	5,856.45	88.562	5,856.45	90.9771	5,856.45	88.1103	5,856.45	90.4245	5,856.45	87.6049	5,856.45	89.6497	5,856.45	86.1954	5,856.45	88.6298	5,856.45	83.6036	5,856.45	86.8368	5,856.45	81.0709	5,856.45	84.7169	5,856.45	77.1892	5,856.45	81.9535	5,856.45	73.3394	5,856.45	78.0621	5,856.45	73.2409	5,856.45	75.7823	5,856.45	70.24	5,856.45	73.4126	5,856.45	69.1561	5,856.45	70.4574	5,856.45	64.6651	5,856.45	67.2505	5,856.45	63.4792	5,856.45	67.1858	5,856.45	61.9753	5,856.45	66.6811	5,856.45	68.5788	5,856.45	68.4541	5,856.45	61.5536	5,856.45	68.8891	5,856.45	61.3333
6,062.99	91.7671	6,062.99	91.2121	6,062.99	91.8355	6,062.99	90.5956	6,062.99	91.302	6,062.99	89.811	6,062.99	90.3148	6,062.99	88.4479	6,062.99	89.1244	6,062.99	86.0593	6,062.99	87.5093	6,062.99	83.2245	6,062.99	85.2883	6,062.99	80.6156	6,062.99	83.2627	6,062.99	76.2323	6,062.99	80.1102	6,062.99	72.1445	6,062.99	75.205	6,062.99	72.6698	6,062.99	73.0571	6,062.99	70.0951	6,062.99	71.7408	6,062.99	65.7361	6,062.99	68.244	6,062.99	61.0565	6,062.99	66.1936	6,062.99	63.126	6,062.99	64.6892	6,062.99	62.5754	6,062.99	65.7827	6,062.99	65.618	6,062.99	66.8948	6,062.99	58.8528	6,062.99	66.2901	6,062.99	56.4346
6,276.86	93.1769	6,276.86	92.4102	6,276.86	93.0058	6,276.86	91.5269	6,276.86	92.1838	6,276.86	90.4913	6,276.86	91.2962	6,276.86	88.7159	6,276.86	90.0748	6,276.86	86.3304	6,276.86	88.2634	6,276.86	83.9201	6,276.86	86.0405	6,276.86	81.3086	6,276.86	83.7664	6,276.86	77.406	6,276.86	80.4411	6,276.86	73.8237	6,276.86	75.9733	6,276.86	72.659	6,276.86	73.2696	6,276.86	69.3368	6,276.86	71.4049	6,276.86	65.415	6,276.86	67.7292	6,276.86	61.185	6,276.86	62.9264	6,276.86	58.2551	6,276.86	64.8171	6,276.86	62.4796	6,276.86	63.889	6,276.86	66.6179	6,276.86	67.1749	6,276.86	60.2964	6,276.86	66.7216	6,276.86	61.2908
6,498.05	92.9906	6,498.05	92.4219	6,498.05	92.6485	6,498.05	91.7471	6,498.05	91.8102	6,498.05	90.7906	6,498.05	90.9844	6,498.05	89.2382	6,498.05	89.774	6,498.05	87.2788	6,498.05	88.0406	6,498.05	84.9114	6,498.05	85.7806	6,498.05	82.056	6,498.05	83.4136	6,498.05	77.9371	6,498.05	79.9283	6,498.05	73.7036	6,498.05	75.0979	6,498.05	72.975	6,498.05	72.5773	6,498.05	70.5959	6,498.05	70.5366	6,498.05	64.9562	6,498.05	67.13	6,498.05	62.85	6,498.05	60.89	6,498.05	60.6763	6,498.05	66.3426	6,498.05	63.1538	6,498.05	64.7988	6,498.05	67.8232	6,498.05	67.0915	6,498.05	60.9092	6,498.05	65.68	6,498.05	60.7794
6,727.29	93.1689	6,727.29	92.7936	6,727.29	92.7361	6,727.29	92.3275	6,727.29	92.0181	6,727.29	91.5241	6,727.29	91.3466	6,727.29	89.8371	6,727.29	89.9387	6,727.29	87.2972	6,727.29	87.6909	6,727.29	84.492	6,727.29	85.1393	6,727.29	81.583	6,727.29	82.5989	6,727.29	77.8032	6,727.29	78.8444	6,727.29	74.4792	6,727.29	74.5173	6,727.29	73.0962	6,727.29	71.9744	6,727.29	70.7964	6,727.29	70.348	6,727.29	64.9993	6,727.29	66.6505	6,727.29	62.5168	6,727.29	62.8151	6,727.29	51.9166	6,727.29	58.2652	6,727.29	62.0284	6,727.29	62.3289	6,727.29	65.5761	6,727.29	64.4318	6,727.29	59.2266	6,727.29	64.128	6,727.29	55.6467
6,964.6	93.3739	6,964.6	92.7726	6,964.6	92.8529	6,964.6	92.2992	6,964.6	92.156	6,964.6	91.5741	6,964.6	91.6465	6,964.6	89.7329	6,964.6	90.1452	6,964.6	87.3311	6,964.6	87.9605	6,964.6	84.5657	6,964.6	85.267	6,964.6	81.6508	6,964.6	82.155	6,964.6	78.7756	6,964.6	78.8292	6,964.6	75.7632	6,964.6	75.1652	6,964.6	73.4682	6,964.6	72.3919	6,964.6	69.9796	6,964.6	69.1538	6,964.6	63.966	6,964.6	65.1698	6,964.6	59.5092	6,964.6	59.667	6,964.6	55.1149	6,964.6	61.0745	6,964.6	60.8122	6,964.6	61.3081	6,964.6	67.7101	6,964.6	66.4655	6,964.6	61.2252	6,964.6	63.8798	6,964.6	58.7421
7,209.96	93.0019	7,209.96	92.4006	7,209.96	92.6201	7,209.96	92.2237	7,209.96	92.1316	7,209.96	91.5322	7,209.96	91.6376	7,209.96	89.7603	7,209.96	90.0805	7,209.96	87.3279	7,209.96	87.7293	7,209.96	84.3361	7,209.96	84.4516	7,209.96	82.1867	7,209.96	82.09	7,209.96	79.5382	7,209.96	79.9834	7,209.96	76.2645	7,209.96	76.2726	7,209.96	74.6653	7,209.96	73.7417	7,209.96	72.2128	7,209.96	71.7961	7,209.96	64.2174	7,209.96	66.0979	7,209.96	63.8292	7,209.96	62.6809	7,209.96	54.1005	7,209.96	60.0545	7,209.96	60.7791	7,209.96	60.9456	7,209.96	68.0482	7,209.96	65.9665	7,209.96	62.8607	7,209.96	65.8357	7,209.96	59.821
7,464.11	91.8379	7,464.11	91.3126	7,464.11	91.1919	7,464.11	91.5524	7,464.11	90.9733	7,464.11	91.2947	7,464.11	91.0345	7,464.11	89.5288	7,464.11	89.5732	7,464.11	86.887	7,464.11	86.9387	7,464.11	84.5808	7,464.11	83.7548	7,464.11	83.2587	7,464.11	82.7119	7,464.11	80.9878	7,464.11	80.6581	7,464.11	77.7907	7,464.11	76.8766	7,464.11	75.5341	7,464.11	74.4393	7,464.11	73.5124	7,464.11	73.0618	7,464.11	65.3822	7,464.11	68.4411	7,464.11	65.4619	7,464.11	62.1706	7,464.11	42.4024	7,464.11	60.0411	7,464.11	59.9775	7,464.11	62.9961	7,464.11	67.7903	7,464.11	66.1235	7,464.11	62.796	7,464.11	65.1903	7,464.11	61.1023
7,727.78	88.9212	7,727.78	88.6375	7,727.78	88.4725	7,727.78	90.2639	7,727.78	89.6385	7,727.78	90.4996	7,727.78	90.2001	7,727.78	88.6051	7,727.78	88.364	7,727.78	85.8591	7,727.78	85.469	7,727.78	83.95	7,727.78	83.6556	7,727.78	83.1328	7,727.78	83.3955	7,727.78	80.8452	7,727.78	81.0699	7,727.78	77.5686	7,727.78	77.5804	7,727.78	74.4767	7,727.78	74.6237	7,727.78	73.011	7,727.78	72.8536	7,727.78	65.6648	7,727.78	68.5421	7,727.78	65.0528	7,727.78	63.9109	7,727.78	56.5617	7,727.78	59.1863	7,727.78	61	7,727.78	59.948	7,727.78	69.1011	7,727.78	66.0071	7,727.78	64.1922	7,727.78	65.6792	7,727.78	61.1204
8,000.24	85.3711	8,000.24	86.7678	8,000.24	86.1384	8,000.24	89.8934	8,000.24	89.3668	8,000.24	89.8153	8,000.24	90.1574	8,000.24	87.1903	8,000.24	88.0544	8,000.24	84.4635	8,000.24	85.2174	8,000.24	83.5317	8,000.24	83.5275	8,000.24	82.2645	8,000.24	82.8688	8,000.24	79.6133	8,000.24	80.5662	8,000.24	76.9483	8,000.24	77.3319	8,000.24	74.068	8,000.24	74.046	8,000.24	71.7311	8,000.24	72.0514	8,000.24	63.1352	8,000.24	67.6354	8,000.24	61.2671	8,000.24	63.0525	8,000.24	56.9903	8,000.24	54.9949	8,000.24	57.1384	8,000.24	62.0303	8,000.24	66.7203	8,000.24	63.9449	8,000.24	62.1657	8,000.24	64.0353	8,000.24	60.8661
8,282.23	84.0715	8,282.23	87.5835	8,282.23	86.7426	8,282.23	90.9139	8,282.23	90.7458	8,282.23	90.2859	8,282.23	91.015	8,282.23	87.5016	8,282.23	88.6085	8,282.23	85.7476	8,282.23	86.3749	8,282.23	84.5831	8,282.23	85.1451	8,282.23	82.4632	8,282.23	84.1841	8,282.23	79.8194	8,282.23	81.164	8,282.23	76.8045	8,282.23	77.0587	8,282.23	72.9245	8,282.23	72.5069	8,282.23	70.386	8,282.23	69.4483	8,282.23	59.8518	8,282.23	65.8684	8,282.23	56.6236	8,282.23	61.3243	8,282.23	48.1173	8,282.23	53.5723	8,282.23	58.8507	8,282.23	58.821	8,282.23	66.2277	8,282.23	62.5776	8,282.23	61.3687	8,282.23	62.9747	8,282.23	57.8706
8,574.46	86.298	8,574.46	89.4907	8,574.46	88.4997	8,574.46	91.8398	8,574.46	91.6392	8,574.46	90.8091	8,574.46	91.5392	8,574.46	88.4939	8,574.46	89.3577	8,574.46	87.1441	8,574.46	87.5427	8,574.46	85.8633	8,574.46	86.4514	8,574.46	83.6636	8,574.46	85.0186	8,574.46	81.0815	8,574.46	81.681	8,574.46	77.7044	8,574.46	78.3815	8,574.46	71.7954	8,574.46	74.1821	8,574.46	68.475	8,574.46	69.7685	8,574.46	57.9089	8,574.46	64.7731	8,574.46	54.6221	8,574.46	60.4641	8,574.46	54.5124	8,574.46	51.0749	8,574.46	59.002	8,574.46	57.6228	8,574.46	60.6732	8,574.46	51.6518	8,574.46	52.654	8,574.46	59.4926	8,574.46	51.763
8,876.22	87.3489	8,876.22	90.0869	8,876.22	88.9591	8,876.22	91.8213	8,876.22	91.5199	8,876.22	90.3701	8,876.22	91.0394	8,876.22	88.2538	8,876.22	88.828	8,876.22	87.4465	8,876.22	87.5544	8,876.22	86.102	8,876.22	86.5694	8,876.22	83.6208	8,876.22	85.1284	8,876.22	80.5862	8,876.22	81.8163	8,876.22	76.884	8,876.22	78.3214	8,876.22	71.4368	8,876.22	74.3415	8,876.22	67.9384	8,876.22	69.0958	8,876.22	60.6066	8,876.22	65.8267	8,876.22	53.9115	8,876.22	57.9426	8,876.22	57.9575	8,876.22	53.8745	8,876.22	57.9349	8,876.22	54.3224	8,876.22	54.1529	8,876.22	54.2165	8,876.22	47.6273	8,876.22	52.2295	8,876.22	51.4541
9,189.7	86.8968	9,189.7	89.407	9,189.7	88.0485	9,189.7	90.7157	9,189.7	90.1143	9,189.7	89.1508	9,189.7	89.3047	9,189.7	87.6347	9,189.7	87.357	9,189.7	86.9043	9,189.7	86.5912	9,189.7	85.2752	9,189.7	85.8058	9,189.7	82.2886	9,189.7	84.0785	9,189.7	78.8054	9,189.7	80.133	9,189.7	75.2998	9,189.7	76.5754	9,189.7	69.8235	9,189.7	72.9919	9,189.7	66.3853	9,189.7	67.8259	9,189.7	61.6267	9,189.7	64.7118	9,189.7	46.2766	9,189.7	55.1611	9,189.7	57.8963	9,189.7	55.5777	9,189.7	55.3919	9,189.7	54.6964	9,189.7	53.6004	9,189.7	56.4387	9,189.7	52.1978	9,189.7	52.1112	9,189.7	58.2975
9,513.43	85.4479	9,513.43	87.8196	9,513.43	86.457	9,513.43	88.9305	9,513.43	88.2844	9,513.43	87.3441	9,513.43	87.1652	9,513.43	86.2494	9,513.43	85.6456	9,513.43	85.7783	9,513.43	85.5143	9,513.43	83.806	9,513.43	84.3157	9,513.43	80.1686	9,513.43	81.6602	9,513.43	76.8187	9,513.43	76.6429	9,513.43	73.8359	9,513.43	73.3663	9,513.43	67.9486	9,513.43	70.5692	9,513.43	63.9164	9,513.43	64.1751	9,513.43	61.208	9,513.43	63.5382	9,513.43	44.54	9,513.43	49.0895	9,513.43	54.9254	9,513.43	54.0218	9,513.43	52.4602	9,513.43	55.458	9,513.43	53.1227	9,513.43	59.1191	9,513.43	55.9454	9,513.43	53.618	9,513.43	59.6454
9,848.88	85.0149	9,848.88	87.4552	9,848.88	86.2012	9,848.88	88.4649	9,848.88	87.981	9,848.88	86.8333	9,848.88	86.8062	9,848.88	86.2964	9,848.88	86.1047	9,848.88	85.2281	9,848.88	85.4958	9,848.88	81.9739	9,848.88	83.1444	9,848.88	77.061	9,848.88	79.3213	9,848.88	73.9996	9,848.88	73.0098	9,848.88	71.9343	9,848.88	71.1692	9,848.88	65.6633	9,848.88	69.1113	9,848.88	59.7177	9,848.88	60.3293	9,848.88	60.3152	9,848.88	61.0635	9,848.88	41.1927	9,848.88	41.3495	9,848.88	57.4057	9,848.88	54.3183	9,848.88	44.1817	9,848.88	58.1985	9,848.88	56.687	9,848.88	57.0458	9,848.88	56.3379	9,848.88	57.0583	9,848.88	63.4769
10,196.8	84.1229	10,196.8	87.2942	10,196.8	85.8379	10,196.8	88.7589	10,196.8	88.3063	10,196.8	87.582	10,196.8	87.5651	10,196.8	87.4766	10,196.8	87.4179	10,196.8	86.0941	10,196.8	86.6785	10,196.8	82.1547	10,196.8	83.8182	10,196.8	77.4284	10,196.8	78.9593	10,196.8	75.124	10,196.8	72.2883	10,196.8	71.7835	10,196.8	70.7924	10,196.8	66.6298	10,196.8	69.1924	10,196.8	55.2234	10,196.8	57.3376	10,196.8	63.3514	10,196.8	60.5451	10,196.8	53.8095	10,196.8	53.7294	10,196.8	62.0598	10,196.8	60.5044	10,196.8	51.6784	10,196.8	60.0845	10,196.8	62.103	10,196.8	54.4544	10,196.8	58.2326	10,196.8	58.3639	10,196.8	67.2659
10,556.4	82.2554	10,556.4	86.8833	10,556.4	85.2003	10,556.4	89.1624	10,556.4	88.7854	10,556.4	88.7204	10,556.4	88.6293	10,556.4	89.3029	10,556.4	89.4331	10,556.4	87.5433	10,556.4	88.4429	10,556.4	83.4667	10,556.4	85.1448	10,556.4	79.8084	10,556.4	80.716	10,556.4	77.0597	10,556.4	75.9681	10,556.4	72.6357	10,556.4	73.385	10,556.4	69.6557	10,556.4	71.2895	10,556.4	62.9249	10,556.4	63.4937	10,556.4	66.45	10,556.4	62.024	10,556.4	55.4198	10,556.4	58.5271	10,556.4	65.8796	10,556.4	64.4884	10,556.4	57.0313	10,556.4	62.33	10,556.4	66.8539	10,556.4	60.7914	10,556.4	61.4406	10,556.4	58.7544	10,556.4	70.8151
10,928.5	86.6607	10,928.5	88.4011	10,928.5	87.2173	10,928.5	89.4668	10,928.5	89.1716	10,928.5	89.3928	10,928.5	89.3756	10,928.5	90.2601	10,928.5	90.5538	10,928.5	87.9695	10,928.5	89.0746	10,928.5	83.8669	10,928.5	85.697	10,928.5	81.4108	10,928.5	81.8864	10,928.5	79.2327	10,928.5	77.9561	10,928.5	74.4822	10,928.5	74.9702	10,928.5	71.8394	10,928.5	72.4411	10,928.5	65.703	10,928.5	65.7934	10,928.5	68.5452	10,928.5	64.4594	10,928.5	60.5533	10,928.5	60.4735	10,928.5	67.7612	10,928.5	67.4624	10,928.5	57.6347	10,928.5	62.3543	10,928.5	70.5836	10,928.5	66.0918	10,928.5	60.9797	10,928.5	61.7793	10,928.5	73.177
11,313.7	90.0253	11,313.7	90.1516	11,313.7	89.5025	11,313.7	89.3975	11,313.7	89.2037	11,313.7	89.4802	11,313.7	89.1094	11,313.7	89.8249	11,313.7	90.2981	11,313.7	86.3911	11,313.7	87.9509	11,313.7	83.2808	11,313.7	84.6853	11,313.7	81.892	11,313.7	81.8999	11,313.7	79.332	11,313.7	79.4558	11,313.7	74.6614	11,313.7	76.556	11,313.7	72.608	11,313.7	73.6162	11,313.7	66.194	11,313.7	66.9315	11,313.7	69.0226	11,313.7	64.3589	11,313.7	58.5506	11,313.7	61.1924	11,313.7	69.355	11,313.7	67.8594	11,313.7	58.8477	11,313.7	62.8712	11,313.7	71.7237	11,313.7	67.448	11,313.7	63.3546	11,313.7	59.0784	11,313.7	73.7045
11,712.9	90.3527	11,712.9	89.8525	11,712.9	89.5231	11,712.9	88.2291	11,712.9	88.0247	11,712.9	88.4935	11,712.9	87.8487	11,712.9	87.9713	11,712.9	88.4508	11,712.9	84.2513	11,712.9	85.5459	11,712.9	82.5954	11,712.9	83.723	11,712.9	80.999	11,712.9	81.8895	11,712.9	78.0422	11,712.9	79.3951	11,712.9	72.6192	11,712.9	75.0368	11,712.9	71.3432	11,712.9	71.5915	11,712.9	64.6365	11,712.9	65.591	11,712.9	67.1208	11,712.9	62.4596	11,712.9	55.9899	11,712.9	60.5677	11,712.9	68.2134	11,712.9	67.4293	11,712.9	58.3065	11,712.9	62.493	11,712.9	71.3679	11,712.9	67.6412	11,712.9	62.5769	11,712.9	61.0536	11,712.9	72.7986
12,126	89.9613	12,126	89.32	12,126	89.0698	12,126	87.8106	12,126	87.4938	12,126	88.2019	12,126	87.6168	12,126	86.6402	12,126	87.3887	12,126	83.0313	12,126	84.1515	12,126	82.1413	12,126	83.4335	12,126	79.4511	12,126	80.9053	12,126	75.113	12,126	77.0467	12,126	67.8684	12,126	71.2609	12,126	68.6703	12,126	68.1989	12,126	63.8196	12,126	63.4241	12,126	64.971	12,126	59.2952	12,126	58.3943	12,126	59.4327	12,126	65.4301	12,126	65.2996	12,126	55.2728	12,126	59.6801	12,126	69.66	12,126	66.3513	12,126	62.9141	12,126	59.9584	12,126	71.9127
12,553.7	90.2623	12,553.7	89.5856	12,553.7	89.8526	12,553.7	88.5309	12,553.7	89.116	12,553.7	88.5526	12,553.7	89.1117	12,553.7	86.1102	12,553.7	87.9687	12,553.7	83.4633	12,553.7	84.9793	12,553.7	81.9389	12,553.7	84.0315	12,553.7	78.2357	12,553.7	80.5404	12,553.7	73.1456	12,553.7	76.1816	12,553.7	62.4149	12,553.7	69.0321	12,553.7	67.0424	12,553.7	64.7735	12,553.7	65.2857	12,553.7	63.2679	12,553.7	64.2427	12,553.7	56.1225	12,553.7	60.6446	12,553.7	61.3979	12,553.7	63.8931	12,553.7	63.8111	12,553.7	53.3667	12,553.7	61.4359	12,553.7	67.5972	12,553.7	64.0141	12,553.7	63.6853	12,553.7	58.773	12,553.7	71.7131
12,996.1	91.6289	12,996.1	90.742	12,996.1	91.8447	12,996.1	89.988	12,996.1	91.4543	12,996.1	89.2195	12,996.1	90.7533	12,996.1	86.3686	12,996.1	88.5494	12,996.1	84.289	12,996.1	85.2618	12,996.1	81.8246	12,996.1	83.8334	12,996.1	77.5645	12,996.1	79.1938	12,996.1	72.108	12,996.1	74.2603	12,996.1	63.3379	12,996.1	66.8244	12,996.1	66.6014	12,996.1	61.8081	12,996.1	65.1065	12,996.1	62.7084	12,996.1	64.9395	12,996.1	55.4282	12,996.1	61.3211	12,996.1	61.2225	12,996.1	65.1304	12,996.1	63.0286	12,996.1	47.8931	12,996.1	62.1889	12,996.1	66.1359	12,996.1	61.8474	12,996.1	60.5965	12,996.1	57.4012	12,996.1	70.814
13,454.6	92.412	13,454.6	91.9288	13,454.6	92.5339	13,454.6	91.1449	13,454.6	92.3567	13,454.6	90.053	13,454.6	91.3444	13,454.6	87.2105	13,454.6	88.5855	13,454.6	84.6463	13,454.6	85.3246	13,454.6	81.4097	13,454.6	83.1428	13,454.6	76.7339	13,454.6	77.1231	13,454.6	71.964	13,454.6	72.0318	13,454.6	63.969	13,454.6	61.7601	13,454.6	66.1491	13,454.6	58.0593	13,454.6	66.232	13,454.6	64.3499	13,454.6	64.1986	13,454.6	56.1696	13,454.6	60.6697	13,454.6	62.3713	13,454.6	66.8961	13,454.6	63.0396	13,454.6	49.839	13,454.6	59.9404	13,454.6	68.7714	13,454.6	65.2503	13,454.6	54.8371	13,454.6	48.3278	13,454.6	70.7451
13,928.5	92.265	13,928.5	92.1889	13,928.5	92.226	13,928.5	91.684	13,928.5	92.0546	13,928.5	90.2923	13,928.5	90.6802	13,928.5	87.3041	13,928.5	87.6514	13,928.5	84.7882	13,928.5	85.0916	13,928.5	80.812	13,928.5	82.3053	13,928.5	76.295	13,928.5	75.6515	13,928.5	72.2489	13,928.5	72.5814	13,928.5	67.5672	13,928.5	67.3222	13,928.5	65.521	13,928.5	58.3955	13,928.5	66.5044	13,928.5	65.1392	13,928.5	63.0641	13,928.5	56.3852	13,928.5	58.2972	13,928.5	61.9955	13,928.5	66.9733	13,928.5	63.7221	13,928.5	51.5093	13,928.5	59.2535	13,928.5	69.2443	13,928.5	66.9299	13,928.5	57.6461	13,928.5	50.6764	13,928.5	70.1005
14,419.9	92.6015	14,419.9	92.4817	14,419.9	92.4555	14,419.9	91.8547	14,419.9	91.925	14,419.9	89.8156	14,419.9	89.8613	14,419.9	86.3958	14,419.9	86.672	14,419.9	83.7508	14,419.9	84.1794	14,419.9	78.4419	14,419.9	80.0712	14,419.9	74.7799	14,419.9	74.0637	14,419.9	71.7889	14,419.9	73.2339	14,419.9	67.5178	14,419.9	68.7825	14,419.9	63.8857	14,419.9	58.6064	14,419.9	63.5725	14,419.9	63.7701	14,419.9	60.3716	14,419.9	56.5301	14,419.9	49.6102	14,419.9	60.8258	14,419.9	64.5685	14,419.9	61.9517	14,419.9	47.6933	14,419.9	58.1758	14,419.9	65.9202	14,419.9	64.3854	14,419.9	58.1665	14,419.9	57.2994	14,419.9	66.0047
14,928.2	92.8707	14,928.2	92.8245	14,928.2	92.7658	14,928.2	92.0959	14,928.2	92.2327	14,928.2	89.4779	14,928.2	89.9372	14,928.2	86.0725	14,928.2	86.9136	14,928.2	82.4698	14,928.2	83.6187	14,928.2	76.524	14,928.2	78.6833	14,928.2	74.2123	14,928.2	74.3628	14,928.2	69.955	14,928.2	72.8038	14,928.2	63.8226	14,928.2	67.4343	14,928.2	62.4508	14,928.2	56.2813	14,928.2	58.8566	14,928.2	61.0489	14,928.2	58.6461	14,928.2	54.3004	14,928.2	41.4074	14,928.2	58.2909	14,928.2	61.658	14,928.2	50.9028	14,928.2	39.7322	14,928.2	54.7997	14,928.2	59.8849	14,928.2	58.8148	14,928.2	55.8344	14,928.2	58.162	14,928.2	61.1655
15,454.8	93.0268	15,454.8	93.1718	15,454.8	92.9396	15,454.8	92.2506	15,454.8	92.5334	15,454.8	89.3517	15,454.8	90.1685	15,454.8	86.2584	15,454.8	87.0777	15,454.8	81.658	15,454.8	83.1643	15,454.8	76.4762	15,454.8	78.5152	15,454.8	72.7486	15,454.8	73.7621	15,454.8	66.901	15,454.8	70.6565	15,454.8	55.7919	15,454.8	64.0951	15,454.8	61.0105	15,454.8	54.5741	15,454.8	58.1832	15,454.8	60.3752	15,454.8	59.4284	15,454.8	49.6056	15,454.8	41.0966	15,454.8	57.689	15,454.8	63.7259	15,454.8	53.0518	15,454.8	50.483	15,454.8	50.8064	15,454.8	65.6424	15,454.8	63.9121	15,454.8	54.951	15,454.8	59.6164	15,454.8	66.4817
15,999.8	92.7099	15,999.8	92.8515	15,999.8	92.5456	15,999.8	91.7091	15,999.8	92.0638	15,999.8	88.5294	15,999.8	89.5412	15,999.8	85.29	15,999.8	86.0111	15,999.8	80.1786	15,999.8	81.6769	15,999.8	75.0625	15,999.8	76.9919	15,999.8	69.5087	15,999.8	70.8751	15,999.8	60.4822	15,999.8	67.5291	15,999.8	45.0946	15,999.8	59.7171	15,999.8	59.2625	15,999.8	53.8451	15,999.8	59.3918	15,999.8	59.0462	15,999.8	58.5933	15,999.8	42.7359	15,999.8	51.656	15,999.8	55.0403	15,999.8	64.664	15,999.8	58.6883	15,999.8	51.4157	15,999.8	50.0037	15,999.8	66.8986	15,999.8	65.6472	15,999.8	57.1843	15,999.8	60.4553	15,999.8	68.868
16,564.5	91.7876	16,564.5	91.6799	16,564.5	91.5321	16,564.5	90.1452	16,564.5	90.7766	16,564.5	86.6375	16,564.5	87.9486	16,564.5	82.9639	16,564.5	84.0388	16,564.5	77.2588	16,564.5	79.4305	16,564.5	71.6519	16,564.5	74.0192	16,564.5	62.6609	16,564.5	66.6659	16,564.5	47.3452	16,564.5	63.7416	16,564.5	57.5804	16,564.5	55.0938	16,564.5	57.4199	16,564.5	55.1084	16,564.5	59.916	16,564.5	55.9401	16,564.5	57.5198	16,564.5	37.2584	16,564.5	54.6073	16,564.5	52.7969	16,564.5	63.4166	16,564.5	58.7283	16,564.5	50.5998	16,564.5	48.7955	16,564.5	65.5429	16,564.5	64.448	16,564.5	58.1596	16,564.5	57.1124	16,564.5	68.6188
17,148.2	91.0497	17,148.2	90.5304	17,148.2	90.7447	17,148.2	88.5797	17,148.2	89.7217	17,148.2	84.7133	17,148.2	86.6646	17,148.2	80.3534	17,148.2	82.3635	17,148.2	73.9281	17,148.2	77.1581	17,148.2	66.8394	17,148.2	70.8551	17,148.2	53.9791	17,148.2	64.4927	17,148.2	57.3424	17,148.2	59.3203	17,148.2	61.3377	17,148.2	53.7426	17,148.2	56.2764	17,148.2	56.5706	17,148.2	59.2125	17,148.2	53.157	17,148.2	57.5974	17,148.2	36.3961	17,148.2	54.0074	17,148.2	52.9417	17,148.2	62.3021	17,148.2	55.231	17,148.2	45.5162	17,148.2	50.0238	17,148.2	63.8524	17,148.2	62.2082	17,148.2	54.4753	17,148.2	53.3925	17,148.2	65.5377
17,753.2	91.0253	17,753.2	90.1278	17,753.2	90.9027	17,753.2	87.8482	17,753.2	89.8328	17,753.2	83.415	17,753.2	86.4647	17,753.2	78.2434	17,753.2	81.6586	17,753.2	71.0944	17,753.2	76.0035	17,753.2	59.9644	17,753.2	70.0047	17,753.2	54.4857	17,753.2	65.7583	17,753.2	62.5428	17,753.2	53.1775	17,753.2	63.7865	17,753.2	56.895	17,753.2	56.7783	17,753.2	56.7626	17,753.2	60.0072	17,753.2	51.1245	17,753.2	57.6507	17,753.2	45.6984	17,753.2	55.768	17,753.2	53.3971	17,753.2	62.6636	17,753.2	55.1602	17,753.2	48.812	17,753.2	53.476	17,753.2	65.0323	17,753.2	60.7148	17,753.2	45.6446	17,753.2	57.2044	17,753.2	64.7392
18,379.4	90.5139	18,379.4	89.1637	18,379.4	90.4944	18,379.4	86.5224	18,379.4	88.9642	18,379.4	81.6166	18,379.4	85.0531	18,379.4	75.9135	18,379.4	79.9365	18,379.4	67.635	18,379.4	73.5366	18,379.4	50.8672	18,379.4	68.5766	18,379.4	58.0614	18,379.4	66.1674	18,379.4	64.5529	18,379.4	49.3114	18,379.4	65.1784	18,379.4	60.2194	18,379.4	56.5601	18,379.4	54.3368	18,379.4	61.7813	18,379.4	51.3145	18,379.4	56.5039	18,379.4	52.2761	18,379.4	59.5706	18,379.4	53.2284	18,379.4	61.531	18,379.4	58.7497	18,379.4	52.8565	18,379.4	53.0358	18,379.4	64.1467	18,379.4	59.9942	18,379.4	53.0047	18,379.4	58.024	18,379.4	67.2111
19,027.6	89.275	19,027.6	87.5472	19,027.6	89.2274	19,027.6	84.3886	19,027.6	87.1753	19,027.6	78.7626	19,027.6	82.9154	19,027.6	72.5116	19,027.6	77.0712	19,027.6	63.3334	19,027.6	70.0235	19,027.6	49.6215	19,027.6	65.4951	19,027.6	60.8898	19,027.6	63.5349	19,027.6	64.1251	19,027.6	53.0767	19,027.6	64.5932	19,027.6	58.3137	19,027.6	52.4176	19,027.6	51.4448	19,027.6	60.7328	19,027.6	49.6519	19,027.6	54.4537	19,027.6	52.9802	19,027.6	58.7305	19,027.6	53.1592	19,027.6	57.981	19,027.6	58.0693	19,027.6	50.793	19,027.6	53.6893	19,027.6	60.0506	19,027.6	56.2903	19,027.6	49.7383	19,027.6	54.515	19,027.6	65.138
19,698.5	89.7577	19,698.5	87.8679	19,698.5	89.412	19,698.5	84.1466	19,698.5	86.8055	19,698.5	77.8382	19,698.5	82.4265	19,698.5	70.8352	19,698.5	76.3019	19,698.5	60.3864	19,698.5	69.5627	19,698.5	49.9091	19,698.5	63.6154	19,698.5	60.5334	19,698.5	59.8327	19,698.5	60.4355	19,698.5	50.1836	19,698.5	61.4063	19,698.5	58.1839	19,698.5	49.0197	19,698.5	54.4375	19,698.5	58.4041	19,698.5	46.2433	19,698.5	52.5024	19,698.5	50.9941	19,698.5	54.7013	19,698.5	51.3081	19,698.5	55.3801	19,698.5	56.5505	19,698.5	48.16	19,698.5	52.7828	19,698.5	58.7537	19,698.5	55.5324	19,698.5	47.0378	19,698.5	50.7411	19,698.5	60.8221
19,999.5	89.8911	19,999.5	87.966	19,999.5	89.4109	19,999.5	83.9441	19,999.5	86.6844	19,999.5	77.4399	19,999.5	82.3836	19,999.5	70.3841	19,999.5	76.1825	19,999.5	60.7316	19,999.5	69.9488	19,999.5	54.2092	19,999.5	64.1182	19,999.5	59.6283	19,999.5	60.9813	19,999.5	57.516	19,999.5	54.8151	19,999.5	59.5864	19,999.5	58.6915	19,999.5	49.9411	19,999.5	55.2868	19,999.5	56.8117	19,999.5	46.6008	19,999.5	51.4975	19,999.5	46.5447	19,999.5	52.4499	19,999.5	51.3137	19,999.5	52.2973	19,999.5	53.4054	19,999.5	46.4192	19,999.5	52.4816	19,999.5	57.5929	19,999.5	54.011	19,999.5	51.3059	19,999.5	48.7839	19,999.5	59.0416
