"Vertical Reflections"					
"Floor Reflection"		"Ceiling Reflection"		"Total Vertical Reflection"	
"Frequency [Hz]"	"Sound Pessure Level [dB]  / [2.83V 1m] "	"Frequency [Hz]"	"Sound Pessure Level [dB]  / [2.83V 1m] "	"Frequency [Hz]"	"Sound Pessure Level [dB]  / [2.83V 1m] "
20.5078	51.7996	20.5078	50.7409	20.5078	51.3024
21.2402	51.3592	21.2402	48.6642	21.2402	50.2175
21.9727	53.5704	21.9727	51.0244	21.9727	52.4814
22.7051	56.0567	22.7051	52.6538	22.7051	54.6803
23.4375	60.0396	23.4375	57.4699	23.4375	58.9421
24.1699	61.1771	24.1699	58.653	24.1699	60.0959
25.6348	65.1245	25.6348	62.6831	25.6348	64.0732
26.3672	66.708	26.3672	64.2614	26.3672	65.6548
27.0996	68.6799	27.0996	66.3045	27.0996	67.6526
27.832	70.3685	27.832	68.0653	27.832	69.3679
29.2969	73.6881	29.2969	71.5199	29.2969	72.7379
30.0293	75.2524	30.0293	73.1527	30.0293	74.3282
31.4941	78.2116	31.4941	76.2178	31.4941	77.3281
32.2266	79.6261	32.2266	77.6378	32.2266	78.7448
33.6914	82.1486	33.6914	80.2079	33.6914	81.2858
34.4238	83.3132	34.4238	81.4098	34.4238	82.465
35.8887	85.4562	35.8887	83.6085	35.8887	84.6298
37.3535	87.2864	37.3535	85.4848	37.3535	86.4783
38.8184	88.7442	38.8184	86.9864	38.8184	87.9536
39.5508	89.309	39.5508	87.5711	39.5508	88.5264
41.0156	90.3515	41.0156	88.6058	41.0156	89.5658
42.4805	91.165	42.4805	89.4348	42.4805	90.3855
43.9453	91.7468	43.9453	90.0229	43.9453	90.9698
45.4102	92.1371	45.4102	90.428	45.4102	91.3661
47.6074	92.5327	47.6074	90.9194	47.6074	91.8006
49.0723	92.7097	49.0723	91.1079	49.0723	91.9822
50.5371	92.8386	50.5371	91.2307	50.5371	92.1086
52.7344	92.9856	52.7344	91.3951	52.7344	92.2627
54.1992	93.0436	54.1992	91.4678	54.1992	92.3268
56.3965	93.0883	56.3965	91.5328	56.3965	92.3798
58.5938	93.1485	58.5938	91.6083	58.5938	92.4463
60.0586	93.197	60.0586	91.6573	60.0586	92.495
62.2559	93.2231	62.2559	91.6689	62.2559	92.5151
64.4531	93.2619	64.4531	91.7014	64.4531	92.5514
66.6504	93.2941	66.6504	91.7163	66.6504	92.5765
69.5801	93.3586	69.5801	91.7609	69.5801	92.6328
71.7773	93.3724	71.7773	91.803	71.7773	92.6582
73.9746	93.3923	73.9746	91.8846	73.9746	92.7036
76.9043	93.4099	76.9043	91.9072	76.9043	92.7232
79.834	93.5008	79.834	91.9587	79.834	92.7978
82.7637	93.646	82.7637	92.0756	82.7637	92.9314
85.6934	93.5766	85.6934	92.0061	85.6934	92.8619
88.623	93.4834	88.623	91.9096	88.623	92.7674
91.5527	93.4843	91.5527	91.8549	91.5527	92.7456
94.4824	93.6166	94.4824	91.8759	94.4824	92.8329
98.1445	93.7138	98.1445	92.0511	98.1445	92.9615
101.807	93.6587	101.807	91.9899	101.807	92.9039
105.469	93.6533	105.469	91.9384	105.469	92.8799
109.131	93.7563	109.131	91.8763	109.131	92.9173
112.793	93.6088	112.793	91.7424	112.793	92.7751
116.455	93.588	116.455	91.7193	116.455	92.7534
120.85	93.8068	120.85	91.9567	120.85	92.9795
125.244	93.7551	125.244	91.7798	125.244	92.8788
129.639	93.6342	129.639	91.6444	129.639	92.7523
134.033	93.5681	134.033	91.4647	134.033	92.6425
138.428	93.4364	138.428	91.2166	138.428	92.4668
143.555	93.3815	143.555	90.9031	143.555	92.3167
148.682	93.3821	148.682	90.7844	148.682	92.2747
153.809	93.3026	153.809	90.6327	153.809	92.1696
159.668	93.1678	159.668	90.5023	159.668	92.0364
164.795	92.7811	164.795	89.9594	164.795	91.5955
170.654	92.9552	170.654	90.0474	170.654	91.7402
176.514	93.2536	176.514	90.2141	176.514	91.9945
183.105	93.5501	183.105	90.1175	183.105	92.1644
189.697	93.8141	189.697	90.3918	189.697	92.4316
196.289	93.7708	196.289	90.377	196.289	92.3973
202.881	93.7923	202.881	90.414	202.881	92.4237
210.205	93.7418	210.205	90.3074	210.205	92.3556
217.529	93.6226	217.529	90.3588	217.529	92.2903
225.586	93.763	225.586	90.392	225.586	92.3967
232.91	93.8855	232.91	90.7797	232.91	92.6045
241.699	93.8857	241.699	90.6021	241.699	92.5471
249.756	94.083	249.756	91.0569	249.756	92.8283
258.545	93.9921	258.545	91.1718	258.545	92.807
268.066	93.6091	268.066	90.5307	268.066	92.3371
277.588	93.1581	277.588	90.676	277.588	92.092
287.109	92.6275	287.109	90.2607	287.109	91.6034
297.363	92.6253	297.363	89.9325	297.363	91.4844
307.617	91.7925	307.617	89.2354	307.617	90.6995
318.604	91.3358	318.604	89.0213	318.604	90.3309
329.59	91.8087	329.59	89.5069	329.59	90.8085
341.309	91.3712	341.309	89.0613	341.309	90.3681
353.76	91.6741	353.76	89.4212	353.76	90.6922
366.211	91.9171	366.211	89.6729	366.211	90.9384
378.662	92.4723	378.662	90.0335	378.662	91.4219
392.578	92.5314	392.578	89.9458	392.578	91.4282
405.762	92.5014	405.762	89.8582	405.762	91.3779
420.41	93.1788	420.41	90.8034	420.41	92.1515
435.059	92.7174	435.059	90.0104	435.059	91.5715
450.439	93.0445	450.439	89.8822	450.439	91.7451
466.553	93.2969	466.553	89.4142	466.553	91.7757
482.666	93.1393	482.666	89.0239	482.666	91.5519
500.244	93.2837	500.244	88.5163	500.244	91.5238
517.822	93.2264	517.822	88.4673	517.822	91.4685
536.133	93.4511	536.133	88.6476	536.133	91.6822
554.443	93.1944	554.443	87.7296	554.443	91.2702
574.219	93.8219	574.219	88.0414	574.219	91.8298
594.727	93.5114	594.727	88.5636	594.727	91.707
615.234	93.4211	615.234	89.0946	615.234	91.7757
637.207	93.8422	637.207	88.4898	637.207	91.9431
659.912	93.778	659.912	87.2379	659.912	91.6378
683.35	94.0986	683.35	87.7688	683.35	91.9973
706.787	94.0548	706.787	87.8541	706.787	91.9781
731.689	94.1974	731.689	87.3457	731.689	92.0022
758.057	93.9432	758.057	88.1797	758.057	91.9547
784.424	93.4446	784.424	88.6606	784.424	91.6805
812.256	92.881	812.256	88.5048	812.256	91.2223
840.82	93.4064	840.82	85.8986	840.82	91.1058
870.85	93.9476	870.85	87.7778	870.85	91.877
901.611	93.7725	901.611	88.9395	901.611	91.9962
933.105	94.319	933.105	88.8911	933.105	92.403
966.064	94.4369	966.064	90.6597	966.064	92.9466
999.756	94.0722	999.756	90.8165	999.756	92.7425
1,034.91	93.8547	1,034.91	91.224	1,034.91	92.7356
1,071.53	93.6862	1,071.53	91.0427	1,071.53	92.5626
1,109.62	93.5936	1,109.62	90.4717	1,109.62	92.3074
1,148.44	93.4512	1,148.44	89.8395	1,148.44	92.0104
1,189.45	93.0257	1,189.45	90.6209	1,189.45	91.9877
1,231.2	92.8727	1,231.2	90.2951	1,231.2	91.7724
1,274.41	92.6401	1,274.41	88.8543	1,274.41	91.1473
1,319.82	92.4593	1,319.82	89.294	1,319.82	91.1588
1,365.97	91.9903	1,365.97	88.4449	1,365.97	90.5698
1,414.31	91.7131	1,414.31	88.5522	1,414.31	90.4141
1,464.11	91.5599	1,464.11	86.4604	1,464.11	89.7192
1,515.38	91.314	1,515.38	86.2575	1,515.38	89.4835
1,568.85	90.8964	1,568.85	88.7765	1,568.85	89.9645
1,624.51	90.2667	1,624.51	87.1961	1,624.51	88.9973
1,681.64	90.3631	1,681.64	88.4189	1,681.64	89.4989
1,740.97	89.8757	1,740.97	87.1921	1,740.97	88.7379
1,802.49	89.2455	1,802.49	87.32	1,802.49	88.3886
1,866.21	89.7012	1,866.21	86.6544	1,866.21	88.4397
1,932.13	89.1751	1,932.13	87.5629	1,932.13	88.4434
2,000.24	88.4207	2,000.24	86.2298	2,000.24	87.462
2,070.56	89.2199	2,070.56	85.6189	2,070.56	87.7824
2,143.8	90.1447	2,143.8	86.9123	2,143.8	88.8225
2,219.24	90.4829	2,219.24	87.7878	2,219.24	89.3411
2,297.61	90.4666	2,297.61	87.7036	2,297.61	89.3013
2,378.17	90.7419	2,378.17	87.4721	2,378.17	89.4077
2,462.4	90.9658	2,462.4	87.4696	2,462.4	89.5604
2,548.83	90.665	2,548.83	86.8573	2,548.83	89.1657
2,638.92	90.1384	2,638.92	87.1433	2,638.92	88.8941
2,731.93	89.7833	2,731.93	86.7568	2,731.93	88.5285
2,828.61	89.2863	2,828.61	86.3312	2,828.61	88.0554
2,928.22	89.1018	2,928.22	85.9713	2,928.22	87.8127
3,031.49	89.0713	3,031.49	85.2929	3,031.49	87.5807
3,138.43	89.0299	3,138.43	85.0245	3,138.43	87.4735
3,249.02	89.1615	3,249.02	84.5411	3,249.02	87.4388
3,363.28	89.1418	3,363.28	84.5473	3,363.28	87.4258
3,481.93	89.158	3,481.93	84.7276	3,481.93	87.4848
3,604.98	89.4699	3,604.98	84.6656	3,604.98	87.7007
3,732.42	89.7159	3,732.42	84.6946	3,732.42	87.8938
3,863.53	89.5709	3,863.53	85.0245	3,863.53	87.8673
3,999.76	89.4342	3,999.76	85.4365	3,999.76	87.88
4,141.11	89.088	4,141.11	85.9031	4,141.11	87.7812
4,286.87	89.2168	4,286.87	86.3927	4,286.87	88.0303
4,438.48	89.3258	4,438.48	86.6908	4,438.48	88.2052
4,594.48	89.349	4,594.48	87.0202	4,594.48	88.3388
4,757.08	89.2308	4,757.08	87.0869	4,757.08	88.2898
4,924.8	88.757	4,924.8	86.209	4,924.8	87.6673
5,098.39	87.8594	5,098.39	85.0157	5,098.39	86.6663
5,277.83	87.615	5,277.83	85.1973	5,277.83	86.5722
5,463.87	88.7785	5,463.87	86.8373	5,463.87	87.9155
5,656.49	89.3889	5,656.49	87.5677	5,656.49	88.5731
5,856.45	89.6278	5,856.45	88.4032	5,856.45	89.0585
6,062.99	89.9114	6,062.99	88.3171	6,062.99	89.187
6,276.86	90.0573	6,276.86	87.9729	6,276.86	89.139
6,498.05	90.0876	6,498.05	87.1041	6,498.05	88.8471
6,727.29	90.065	6,727.29	86.9237	6,727.29	88.7724
6,964.6	90.7718	6,964.6	86.9492	6,964.6	89.2682
7,209.96	91.1342	7,209.96	86.9289	7,209.96	89.5218
7,464.11	91.4436	7,464.11	86.993	7,464.11	89.7651
7,727.78	90.4847	7,727.78	86.2665	7,727.78	88.8688
8,000.24	89.6369	8,000.24	85.9402	8,000.24	88.1705
8,282.23	88.5206	8,282.23	85.82	8,282.23	87.3769
8,574.46	87.5357	8,574.46	85.358	8,574.46	86.582
8,876.22	87.5049	8,876.22	85.0299	8,876.22	86.4414
9,189.7	87.4277	9,189.7	84.389	9,189.7	86.1689
9,513.43	87.2085	9,513.43	84.0704	9,513.43	85.9169
9,848.88	87.212	9,848.88	84.7612	9,848.88	86.1572
10,196.8	87.4513	10,196.8	86.0404	10,196.8	86.8029
10,556.4	87.6245	10,556.4	86.6579	10,556.4	87.168
10,928.5	87.5964	10,928.5	86.021	10,928.5	86.8798
11,313.7	87.5955	11,313.7	84.7901	11,313.7	86.4155
11,712.9	87.7061	11,712.9	83.867	11,712.9	86.1976
12,126	87.8089	12,126	83.2453	12,126	86.1009
12,553.7	88.2923	12,553.7	83.1972	12,553.7	86.4526
12,996.1	88.9716	12,996.1	82.8365	12,996.1	86.9077
13,454.6	89.3819	13,454.6	82.3613	13,454.6	87.1583
13,928.5	89.3847	13,928.5	81.6373	13,928.5	87.0487
14,419.9	89.3872	14,419.9	81.4244	14,419.9	87.0209
14,928.2	89.2615	14,928.2	80.8829	14,928.2	86.8402
15,454.8	88.9971	15,454.8	79.9152	15,454.8	86.4927
15,999.8	88.6488	15,999.8	78.7841	15,999.8	86.0649
16,564.5	87.661	16,564.5	77.0546	16,564.5	85.0129
17,148.2	86.0919	17,148.2	74.8588	17,148.2	83.3968
17,753.2	84.6668	17,753.2	72.5675	17,753.2	81.9164
18,379.4	83.8321	18,379.4	72.1443	18,379.4	81.1067
19,027.6	82.4985	19,027.6	71.0274	19,027.6	79.7872
19,698.5	80.8099	19,698.5	68.3594	19,698.5	78.0398
19,999.5	80.0362	19,999.5	66.3657	19,999.5	77.2085
