Freq[Hz]     dBSPL  Phase[Deg]
5.00000    -12.716    45.480
5.07273    -13.157    51.077
5.14651    -13.360    57.264
5.22137    -12.898    65.094
5.29732    -12.436    72.924
5.37437    -11.974    80.754
5.45254    -11.512    88.583
5.53185    -10.928    93.770
5.61231    -10.217    96.160
5.69394     -9.506    98.551
5.77676     -8.794   100.941
5.86079     -8.091   103.289
5.94604     -7.881   103.195
6.03252     -7.671   103.102
6.12027     -7.461   103.008
6.20929     -7.250   102.913
6.29961     -7.618   103.345
6.39124     -8.113   103.892
6.48420     -8.608   104.439
6.57851     -9.104   104.986
6.67420    -10.171   112.953
6.77128    -11.331   122.125
6.86977    -12.491   131.296
6.96969    -13.375   141.063
7.07107    -12.157   155.356
7.17392    -10.939   169.649
7.27827     -9.721  -176.058
7.38413     -8.468  -169.071
7.49154     -7.189  -167.729
7.60050     -5.910  -166.387
7.71105     -4.812  -165.603
7.82321     -4.510  -167.273
7.93701     -4.208  -168.942
8.05245     -3.906  -170.612
8.16958     -4.744  -170.934
8.28841     -5.625  -171.205
8.40896     -6.505  -171.476
8.53128     -8.331  -154.471
8.65537    -10.278  -135.238
8.78126    -12.225  -116.005
8.90899     -9.476   -99.126
9.03857     -6.418   -82.402
9.17004     -3.507   -67.585
9.30342     -1.759   -67.941
9.43874     -0.011   -68.298
9.57603      1.275   -68.836
9.71532      1.855   -69.651
9.85663      2.435   -70.467
10.0000      2.434   -67.001
10.1455      2.272   -62.344
10.2930      2.369   -55.727
10.4427      3.194   -43.640
10.5946      4.019   -31.554
10.7487      5.887   -25.712
10.9051      7.964   -21.118
11.0637      9.853   -20.084
11.2246     11.543   -22.817
11.3879     13.100   -26.215
11.5535     14.172   -32.039
11.7216     15.235   -37.888
11.8921     15.708   -45.213
12.0650     16.182   -52.538
12.2405     16.068   -60.614
12.4186     15.878   -68.786
12.5992     14.915   -77.262
12.7825     13.781   -85.807
12.9684     10.921   -93.466
13.1570      7.659  -100.919
13.3484      3.970   -40.685
13.5426      0.211    30.541
13.7395      6.803    30.524
13.9394     13.282    26.961
14.1421     15.885    17.280
14.3478     18.086     7.363
14.5565     19.422    -3.061
14.7683     20.317   -13.563
14.9831     20.873   -24.124
15.2010     20.863   -34.427
15.4221     20.626   -44.492
15.6464     19.818   -53.704
15.8740     18.518   -61.268
16.1049     16.825   -67.515
16.3392     14.101   -64.358
16.5768     11.993   -51.869
16.8179     10.834   -26.337
17.0626     13.042   -11.252
17.3107     15.441    -3.339
17.5625     17.472    -4.290
17.8180     18.615    -8.286
18.0771     19.373   -12.207
18.3401     19.777   -15.613
18.6068     19.868   -17.008
18.8775     19.940   -16.364
19.1521     20.101   -14.354
19.4306     20.426   -11.359
19.7133     20.979    -8.476
20.0000     21.590    -6.189
20.2909     22.205    -4.207
20.5860     22.812    -2.301
20.8855     23.430    -0.234
21.1893     24.134     1.837
21.4975     24.907     3.330
21.8102     25.682     3.994
22.1274     26.386     3.866
22.4492     26.956     3.267
22.7758     27.369     2.730
23.1071     27.658     2.818
23.4432     27.911     3.871
23.7841     28.245     5.711
24.1301     28.705     7.535
24.4811     29.228     8.731
24.8372     29.713     9.233
25.1984     30.087     9.507
25.5649     30.357    10.276
25.9368     30.617    12.084
26.3141     31.012    14.828
26.6968     31.637    17.625
27.0851     32.447    19.397
27.4791     33.296    19.627
27.8788     34.035    18.677
28.2843     34.608    17.376
28.6957     35.040    16.474
29.1131     35.409    16.443
29.5365     35.820    17.303
29.9661     36.345    18.636
30.4020     36.994    19.836
30.8442     37.713    20.407
31.2929     38.421    20.414
31.7480     39.079    20.092
32.2098     39.682    19.695
32.6783     40.243    19.399
33.1536     40.780    19.222
33.6359     41.304    19.153
34.1251     41.819    19.248
34.6215     42.344    19.550
35.1250     42.905    19.963
35.6359     43.518    20.229
36.1543     44.153    20.156
36.6802     44.767    19.780
37.2137     45.346    19.343
37.7550     45.918    19.024
38.3041     46.508    18.764
38.8613     47.114    18.385
39.4265     47.713    17.850
40.0000     48.296    17.303
40.5818     48.876    16.796
41.1721     49.460    16.246
41.7710     50.034    15.625
42.3785     50.595    15.023
42.9949     51.161    14.454
43.6203     51.735    13.788
44.2548     52.300    12.951
44.8985     52.844    12.104
45.5515     53.391    11.301
46.2141     53.956    10.358
46.8863     54.504     9.165
47.5683     55.010     7.952
48.2602     55.510     6.910
48.9621     56.031     5.842
49.6743     56.548     4.555
50.3968     57.032     3.178
51.1299     57.495     1.868
51.8736     57.961     0.550
52.6281     58.417    -0.877
53.3936     58.854    -2.373
54.1702     59.277    -3.904
54.9581     59.688    -5.483
55.7575     60.082    -7.097
56.5685     60.459    -8.739
57.3914     60.815   -10.405
58.2261     61.142   -12.031
59.0730     61.451   -13.576
59.9323     61.744   -15.117
60.8040     62.006   -16.651
61.6884     62.248   -18.098
62.5857     62.485   -19.572
63.4960     62.688   -21.157
64.4196     62.846   -22.639
65.3566     62.985   -23.869
66.3073     63.125   -24.955
67.2717     63.242   -25.927
68.2502     63.343   -26.512
69.2429     63.486   -26.936
70.2501     63.597   -27.571
71.2719     63.679   -27.616
72.3086     63.871   -27.837
73.3603     63.973   -28.858
74.4274     63.978   -29.184
75.5099     64.051   -29.275
76.6083     64.102   -29.373
77.7226     64.178   -29.207
78.8531     64.252   -29.097
80.0000     64.323   -28.816
81.1636     64.390   -28.523
82.3442     64.450   -28.145
83.5419     64.491   -27.750
84.7570     64.530   -27.121
85.9899     64.585   -26.536
87.2406     64.611   -25.878
88.5096     64.635   -25.047
89.7970     64.646   -24.126
91.1031     64.642   -23.041
92.4282     64.637   -21.707
93.7726     64.646   -20.265
95.1366     64.663   -18.682
96.5204     64.696   -16.976
97.9243     64.751   -15.154
99.3486     64.823   -13.385
100.794     64.887   -11.569
102.260     64.958    -9.765
103.747     65.027    -7.865
105.256     65.108    -6.155
106.787     65.152    -4.380
108.340     65.179    -2.491
109.916     65.211    -0.308
111.515     65.265     1.960
113.137     65.325     4.135
114.783     65.370     6.402
116.452     65.410     8.733
118.146     65.445    11.140
119.865     65.475    13.766
121.608     65.524    16.481
123.377     65.585    19.222
125.171     65.652    21.956
126.992     65.706    24.675
128.839     65.763    27.540
130.713     65.818    30.447
132.615     65.878    33.426
134.543     65.938    36.505
136.500     66.004    39.683
138.486     66.064    42.498
140.500     66.133    45.621
142.544     66.192    48.798
144.617     66.171    51.805
146.721     66.182    55.230
148.855     66.254    58.949
151.020     66.325    62.274
153.217     66.335    65.419
155.445     66.238    68.744
157.706     66.175    73.231
160.000     66.252    77.911
162.327     66.354    82.158
164.688     66.434    85.797
167.084     66.561    89.610
169.514     66.599    92.308
171.980     66.328    96.508
174.481     66.287   101.394
177.019     66.270   105.479
179.594     66.161   110.227
182.206     66.133   116.014
184.856     66.147   121.279
187.545     66.137   125.954
190.273     66.055   131.390
193.041     66.042   137.185
195.849     66.084   142.952
198.697     66.169   148.419
201.587     66.122   153.930
204.520     66.144   159.927
207.494     66.169   165.418
210.512     66.137   171.131
213.574     65.981   177.282
216.681     65.915  -175.743
219.833     66.014  -168.953
223.030     66.075  -162.403
226.274     66.060  -156.064
229.565     65.951  -149.262
232.905     65.930  -141.792
236.292     65.935  -134.482
239.729     66.013  -126.999
243.216     66.032  -120.062
246.754     65.975  -112.633
250.343     65.987  -104.800
253.984     65.929   -97.143
257.678     65.870   -89.214
261.426     65.704   -80.857
265.229     65.626   -71.016
269.087     65.677   -62.009
273.001     65.725   -53.246
276.972     65.649   -44.885
281.000     65.596   -34.868
285.088     65.631   -24.686
289.234     65.786   -14.631
293.441     65.875    -6.377
297.709     65.616     2.985
302.040     65.683    12.656
306.433     65.340    22.191
310.890     65.223    34.389
315.412     65.039    45.889
320.000     65.036    58.114
324.655     64.944    69.546
329.377     65.018    81.653
334.168     65.138    92.688
339.028     64.889   103.676
343.959     64.768   116.735
348.962     64.723   127.945
354.038     64.452   140.458
359.188     64.326   153.931
364.412     64.302   167.619
369.713     64.207  -178.364
375.090     64.109  -165.447
380.546     63.942  -150.598
386.081     63.899  -135.890
391.697     63.666  -121.264
397.394     63.516  -103.560
403.175     63.573   -87.896
409.039     63.459   -71.808
414.989     63.369   -54.272
421.025     63.247   -37.170
427.149     63.084   -19.165
433.362     63.059    -0.495
439.665     63.037    18.883
446.060     62.933    38.234
452.548     62.906    58.735
459.131     62.916    79.232
465.809     62.972   100.744
472.584     62.962   121.500
479.458     62.881   143.479
486.432     62.979   165.846
493.507     62.989  -171.690
500.686     62.936  -148.099
507.968     62.956  -124.399
515.357     62.918  -100.746
522.853     62.902   -76.260
530.458     62.879   -51.286
538.174     62.816   -26.194
546.002     62.751    -0.880
553.943     62.687    25.182
562.001     62.605    51.874
570.175     62.541    79.304
578.469     62.473   107.282
586.883     62.381   135.472
595.419     62.307   163.820
604.080     62.256  -167.326
612.866     62.206  -137.817
621.780     62.175  -107.726
630.824     62.164   -77.117
640.000     62.172   -46.628
649.309     62.198   -16.208
658.753     62.241    14.747
668.335     62.299    46.816
678.056     62.367    78.771
687.919     62.443   111.200
697.925     62.523   144.098
708.077     62.601   176.867
718.376     62.675  -149.891
728.825     62.741  -116.168
739.426     62.797   -81.952
750.181     62.841   -47.228
761.093     62.870   -11.980
772.163     62.885    23.221
783.394     62.883    58.982
794.789     62.866    95.902
806.349     62.835   132.825
818.078     62.789   170.350
829.977     62.730  -151.513
842.050     62.659  -112.757
854.298     62.579   -73.376
866.724     62.492   -33.959
879.330     62.397     6.669
892.120     62.298    47.913
905.097     62.196    89.762
918.262     62.091   132.200
931.618     61.984   175.207
945.169     61.873  -141.238
958.917     61.758   -97.159
972.864     61.633   -52.581
987.015     61.493    -7.522
1001.37     61.325    38.588
1015.94     61.127    85.164
1030.71     60.892   131.639
1045.71     60.600   179.214
1060.92     60.237  -132.049
1076.35     59.800   -83.209
1092.00     59.274   -33.540
1107.89     58.645    17.755
1124.00     57.920    70.374
1140.35     57.122   124.683
1156.94     56.294  -178.290
1173.77     55.554  -118.866
1190.84     55.054   -57.204
1208.16     54.928     5.793
1225.73     55.206    69.373
1243.56     55.774   132.332
1261.65     56.454  -166.414
1280.00     57.102  -106.640
1298.62     57.629   -47.895
1317.51     57.992    10.860
1336.67     58.166    70.020
1356.11     58.140   129.383
1375.84     57.908  -170.150
1395.85     57.474  -108.239
1416.15     56.855   -45.077
1436.75     56.082    19.707
1457.65     55.207    87.069
1478.85     54.321   157.249
1500.36     53.549  -130.473
1522.19     52.982   -56.102
1544.33     52.638    19.436
1566.79     52.442    95.391
1589.58     52.274   171.557
1612.70     52.036  -112.351
1636.16     51.686   -35.119
1659.95     51.245    43.907
1684.10     50.802   125.196
1708.60     50.488  -151.283
1733.45     50.410   -66.843
1758.66     50.570    18.717
1784.24     50.870   104.007
1810.19     51.170  -171.715
1836.52     51.372   -86.918
1863.24     51.417    -1.667
1890.34     51.294    84.584
1917.83     51.022   172.319
1945.73     50.645   -98.073
1974.03     50.223    -5.740
2002.74     49.836    88.813
2031.87     49.567  -174.576
2061.43     49.482   -76.353
2091.41     49.606    23.438
2121.83     49.904   124.137
2152.69     50.287  -135.846
2184.01     50.660   -35.338
2215.77     50.942    65.959
2248.00     51.085   167.953
2280.70     51.088   -88.787
2313.87     50.990    16.815
2347.53     50.867   125.026
2381.68     50.805  -124.873
2416.32     50.846   -12.793
2451.46     50.958   100.724
2487.12     51.053  -144.491
2523.30     51.046   -28.072
2560.00     50.921    90.716
2597.24     50.763  -148.050
2635.01     50.732   -23.790
2673.34     50.938   102.469
2712.23     51.306  -130.588
2751.68     51.625    -2.744
2791.70     51.717   126.271
2832.31     51.570  -102.045
2873.50     51.379    33.362
2915.30     51.415   171.846
2957.70     51.712   -48.123
3000.72     51.977    91.684
3044.37     51.906  -127.579
3088.65     51.479    17.122
3133.58     51.049   166.789
3179.16     51.042   -39.687
3225.40     51.328   114.278
3272.31     51.387   -92.025
3319.91     51.043    65.180
3368.20     50.739  -131.776
3417.19     50.993    33.794
3466.89     51.465  -161.650
3517.32     51.471     3.733
3568.48     50.959   173.482
3620.39     50.679    -9.738
3673.05     51.127   169.736
3726.47     51.627   -12.215
3780.67     51.692   168.054
3835.67     51.827    -6.453
3891.46     52.489  -178.877
3948.06     53.044     6.966
4005.49     52.909  -164.997
4063.75     52.591    31.388
4122.86     52.980  -128.275
4182.82     53.548    70.083
4243.66     53.458   -88.684
4305.39     53.292   119.905
4368.01     53.972   -28.215
4431.55     54.675  -178.617
4496.01     54.715    34.081
4561.40     54.928  -106.553
4627.75     55.666   113.205
4695.06     55.912   -26.989
4763.35     55.669  -161.078
4832.64     55.936    69.593
4902.93     56.191   -60.466
4974.24     55.645   174.171
5046.60     55.424    57.174
5120.00     55.871   -60.281
5194.47     55.506  -177.872
5270.03     54.650    72.219
5346.68     54.163   -33.707
5424.45     52.921  -136.010
5503.35     51.708   134.650
5583.40     51.712    46.470
5664.61     50.713   -38.063
5747.01     50.988  -109.291
5830.60     52.306   170.362
5915.41     52.131    94.073
6001.45     52.606    25.698
6088.74     52.798   -44.282
6177.30     52.846  -102.800
6267.15     53.987  -162.111
6358.31     54.033   139.966
6450.80     54.607    90.723
6544.62     55.062    38.330
6639.82     54.660    -4.517
6736.40     55.046   -43.032
6834.38     54.639   -78.953
6933.79     54.819  -107.111
7034.64     54.339  -137.552
7136.96     53.140  -155.254
7240.77     52.486  -170.338
7346.09     50.722  -172.363
7452.94     50.544  -169.394
7561.35     49.441  -156.687
7671.33     50.755  -139.860
7782.91     50.982  -123.371
7896.12     52.245  -104.374
8010.97     51.872   -81.807
8127.49     52.390   -51.020
8245.71     51.642   -14.270
8365.65     52.315    29.530
8487.33     51.838    77.290
8610.78     52.200   130.445
8736.03     51.734  -168.456
8863.09     51.873  -104.726
8992.01     51.636   -29.593
9122.80     51.734    43.840
9255.50     51.435   128.287
9390.12     50.716  -142.524
9526.70     50.828   -43.874
9665.27     50.226    59.157
9805.86     50.178   166.645
9948.49     49.534   -75.554
10093.2     48.197    46.262
10240.0     47.482  -176.747
10388.9     46.732   -27.210
10540.1     46.809   123.844
10693.4     47.923   -77.236
10848.9     48.462    85.950
11006.7     48.609  -110.400
11166.8     48.337    62.936
11329.2     47.382  -107.196
11494.0     47.211    91.635
11661.2     48.020   -64.922
11830.8     48.988   145.394
12002.9     49.437     0.695
12177.5     49.732  -139.203
12354.6     49.774    88.554
12534.3     49.280   -32.226
12716.6     48.493  -142.215
12901.6     47.629   117.731
13089.2     47.005    28.622
13279.6     46.618   -50.133
13472.8     46.721  -118.536
13668.8     46.896   177.433
13867.6     46.491   121.924
14069.3     45.753    76.262
14273.9     44.749    44.781
14481.5     44.694    24.350
14692.2     43.359    15.250
14905.9     44.377    22.582
15122.7     45.339    26.361
15342.7     45.161    39.966
15565.8     44.705    66.724
15792.2     44.208   104.482
16021.9     43.612   153.831
16255.0     42.945  -142.987
16491.4     42.528   -68.743
16731.3     42.274    16.631
16974.7     41.995   112.416
17221.6     41.443  -141.107
17472.1     40.478   -23.300
17726.2     38.971   109.770
17984.0     37.799  -100.659
18245.6     37.055    63.608
18511.0     36.728  -121.077
18780.2     36.301    65.348
19053.4     35.682   -94.585
19330.5     35.141   117.420
19611.7     34.908   -13.006
19897.0     35.085  -132.674
20186.4     35.001   118.528
20480.0     34.313    22.747
20777.9     32.749   -53.573
21080.1     32.520  -114.106
21386.7     32.381  -159.393
21697.8     32.695   167.328
22013.4     32.644   147.734
22333.6     32.349   144.176
22658.4     32.723   156.249
22988.0     32.927   176.049
23322.4     32.073  -147.238
23661.6     30.790   -93.247
24005.8     29.102   -21.245
24355.0     28.000    72.175
24709.2     26.837  -178.041
25068.6     24.708   -47.949
25433.2     23.888   107.151
25803.2     23.754   -88.550
26178.5     23.282    84.365
26559.3     22.818   -82.797
26945.6     21.571   132.668
27337.5     21.516    -0.176
27735.2     20.218  -131.828
28138.6     18.409    94.056
28547.9     20.261   -39.317
28963.1     22.654  -143.485
29384.4     21.984   165.793
29811.8     22.741   145.729
30245.4     22.555   142.430
30685.3     21.308   162.469
31131.7     18.705  -144.178
31584.5     18.064   -60.201
32043.9     14.949    22.309
32510.0     12.530   158.695
32982.8     11.007   -42.088
33462.6     11.102   123.735
33949.3     11.825   -46.172
34443.1     11.520   134.495
34944.1      5.907    95.459
35452.4     14.834   -43.289
35968.0     19.768  -175.054
36491.2     20.880    96.038
37022.0     22.671    34.637
37560.5     20.664     4.638
38106.8     19.626     6.871
38661.1      8.875   -61.844
39223.4     19.253  -146.998
39793.9     23.393  -109.118
