Freq[Hz]     dBSPL  Phase[Deg]
5.00000    -12.732    28.768
5.07273    -13.173    34.128
5.14651    -13.376    40.071
5.22137    -12.914    47.645
5.29732    -12.452    55.219
5.37437    -11.990    62.793
5.45254    -11.528    70.366
5.53185    -10.944    75.288
5.61231    -10.233    77.405
5.69394     -9.522    79.522
5.77676     -8.810    81.638
5.86079     -8.107    83.712
5.94604     -7.897    83.327
6.03252     -7.687    82.942
6.12027     -7.477    82.557
6.20929     -7.266    82.171
6.29961     -7.634    82.296
6.39124     -8.129    82.535
6.48420     -8.624    82.773
6.57851     -9.120    83.011
6.67420    -10.187    90.654
6.77128    -11.347    99.499
6.86977    -12.507   108.343
6.96969    -13.391   117.781
7.07107    -12.173   131.730
7.17392    -10.955   145.679
7.27827     -9.737   159.627
7.38413     -8.484   166.260
7.49154     -7.205   167.240
7.60050     -5.926   168.220
7.71105     -4.828   168.638
7.82321     -4.526   166.589
7.93701     -4.224   164.539
8.05245     -3.922   162.490
8.16958     -4.760   161.772
8.28841     -5.640   161.103
8.40896     -6.520   160.434
8.53128     -8.346   177.026
8.65537    -10.293  -164.156
8.78126    -12.240  -145.338
8.90899     -9.491  -128.891
9.03857     -6.433  -112.600
9.17004     -3.522   -98.217
9.30342     -1.774   -99.024
9.43874     -0.026   -99.831
9.57603      1.260  -100.827
9.71532      1.840  -102.110
9.85663      2.420  -103.393
10.0000      2.419  -100.410
10.1455      2.257   -96.238
10.2930      2.354   -90.112
10.4427      3.179   -78.528
10.5946      4.004   -66.945
10.7487      5.872   -61.622
10.9051      7.949   -57.549
11.0637      9.838   -57.044
11.2246     11.528   -60.316
11.3879     13.085   -64.257
11.5535     14.157   -70.637
11.7216     15.220   -77.043
11.8921     15.693   -84.942
12.0650     16.167   -92.842
12.2405     16.053  -101.507
12.4186     15.863  -110.271
12.5992     14.900  -119.354
12.7825     13.766  -128.508
12.9684     10.906  -136.790
13.1570      7.645  -144.871
13.3484      3.956   -85.279
13.5426      0.197   -14.698
13.7395      6.789   -15.377
13.9394     13.268   -19.605
14.1421     15.871   -29.966
14.3478     18.071   -40.568
14.5565     19.408   -51.691
14.7683     20.303   -62.900
14.9831     20.859   -74.177
15.2010     20.849   -85.210
15.4221     20.612   -96.012
15.6464     19.804  -105.975
15.8740     18.504  -114.300
16.1049     16.811  -121.315
16.3392     14.087  -118.944
16.5768     11.979  -107.248
16.8179     10.820   -82.520
17.0626     13.028   -68.255
17.3107     15.428   -61.170
17.5625     17.459   -62.961
17.8180     18.602   -67.813
18.0771     19.360   -72.600
18.3401     19.764   -76.882
18.6068     19.855   -79.170
18.8775     19.927   -79.432
19.1521     20.088   -78.338
19.4306     20.413   -76.272
19.7133     20.966   -74.335
20.0000     21.577   -73.007
20.2909     22.192   -71.997
20.5860     22.799   -71.077
20.8855     23.418   -70.009
21.1893     24.121   -68.954
21.4975     24.894   -68.492
21.8102     25.670   -68.874
22.1274     26.374   -70.062
22.4492     26.944   -71.735
22.7758     27.358   -73.364
23.1071     27.647   -74.382
23.4432     27.900   -74.452
23.7841     28.234   -73.751
24.1301     28.694   -73.084
24.4811     29.217   -73.062
24.8372     29.702   -73.750
25.1984     30.076   -74.684
25.5649     30.346   -75.140
25.9368     30.606   -74.575
26.3141     31.001   -73.091
26.6968     31.627   -71.573
27.0851     32.437   -71.100
27.4791     33.287   -72.186
27.8788     34.026   -74.473
28.2843     34.599   -77.130
28.6957     35.031   -79.408
29.1131     35.400   -80.835
29.5365     35.811   -81.390
29.9661     36.337   -81.493
30.4020     36.986   -81.749
30.8442     37.705   -82.657
31.2929     38.414   -84.151
31.7480     39.071   -85.995
32.2098     39.675   -87.935
32.6783     40.236   -89.798
33.1536     40.774   -91.565
33.6359     41.298   -93.246
34.1251     41.813   -94.787
34.6215     42.338   -96.145
35.1250     42.900   -97.415
35.6359     43.513   -98.859
36.1543     44.148  -100.665
36.6802     44.763  -102.799
37.2137     45.342  -105.022
37.7550     45.914  -107.150
38.3041     46.504  -109.247
38.8613     47.111  -111.489
39.4265     47.711  -113.915
40.0000     48.294  -116.380
40.5818     48.875  -118.833
41.1721     49.459  -121.358
41.7710     50.033  -123.982
42.3785     50.595  -126.617
42.9949     51.161  -129.248
43.6203     51.736  -132.007
44.2548     52.302  -134.966
44.8985     52.846  -137.967
45.5515     53.394  -140.955
46.2141     53.959  -144.115
46.8863     54.508  -147.557
47.5683     55.014  -151.052
48.2602     55.515  -154.410
48.9621     56.037  -157.827
49.6743     56.554  -161.498
50.3968     57.038  -165.293
51.1299     57.503  -169.056
51.8736     57.969  -172.863
52.6281     58.425  -176.815
53.3936     58.864   179.127
54.1702     59.287   174.997
54.9581     59.699   170.780
55.7575     60.094   166.490
56.5685     60.472   162.132
57.3914     60.828   157.712
58.2261     61.156   153.292
59.0730     61.466   148.911
59.9323     61.759   144.493
60.8040     62.023   140.040
61.6884     62.266   135.631
62.5857     62.503   131.153
63.4960     62.707   126.520
64.4196     62.866   121.944
65.3566     63.006   117.576
66.3073     63.147   113.307
67.2717     63.264   109.104
68.2502     63.367   105.241
69.2429     63.511   101.493
70.2501     63.623    97.485
71.2719     63.706    94.016
72.3086     63.900    90.322
73.3603     64.002    85.778
74.4274     64.009    81.877
75.5099     64.083    78.159
76.6083     64.135    74.381
77.7226     64.212    70.814
78.8531     64.288    67.135
80.0000     64.360    63.573
81.1636     64.428    59.967
82.3442     64.489    56.389
83.5419     64.532    52.769
84.7570     64.572    49.326
85.9899     64.628    45.779
87.2406     64.656    42.245
88.5096     64.681    38.822
89.7970     64.694    35.428
91.1031     64.691    32.135
92.4282     64.687    29.027
93.7726     64.698    25.962
95.1366     64.717    22.972
96.5204     64.751    20.038
97.9243     64.808    17.153
99.3486     64.881    14.147
100.794     64.946    11.118
102.260     65.020     8.006
103.747     65.090     4.918
105.256     65.172     1.567
106.787     65.218    -1.791
108.340     65.246    -5.111
109.916     65.281    -8.212
111.515     65.336   -11.307
113.137     65.398   -14.571
114.783     65.444   -17.824
116.452     65.486   -21.092
118.146     65.522   -24.367
119.865     65.553   -27.505
121.608     65.604   -30.638
123.377     65.667   -33.831
125.171     65.736   -37.116
126.992     65.792   -40.505
128.839     65.850   -43.836
130.713     65.907   -47.216
132.615     65.968   -50.615
134.543     66.030   -54.139
136.500     66.098   -57.718
138.486     66.160   -61.046
140.500     66.230   -64.680
142.544     66.291   -68.876
144.617     66.271   -72.627
146.721     66.284   -75.959
148.855     66.359   -79.613
151.020     66.431   -83.659
153.217     66.443   -87.887
155.445     66.347   -91.934
157.706     66.285   -94.820
160.000     66.364   -98.127
162.327     66.468  -101.867
164.688     66.549  -105.601
167.084     66.678  -109.775
169.514     66.717  -115.679
171.980     66.449  -120.080
174.481     66.409  -123.181
177.019     66.393  -127.083
179.594     66.286  -130.936
182.206     66.260  -134.365
184.856     66.275  -138.315
187.545     66.267  -142.242
190.273     66.186  -146.021
193.041     66.174  -149.442
195.849     66.218  -152.890
198.697     66.305  -157.252
201.587     66.259  -161.571
204.520     66.282  -165.403
207.494     66.309  -169.741
210.512     66.279  -174.471
213.574     66.124  -178.762
216.681     66.059   178.384
219.833     66.160   174.731
223.030     66.222   170.225
226.274     66.208   165.508
229.565     66.100   161.254
232.905     66.081   157.669
236.292     66.087   153.924
239.729     66.166   149.739
243.216     66.187   145.007
246.754     66.131   140.768
250.343     66.145   136.320
253.984     66.088   131.697
257.678     66.031   127.346
261.426     65.866   122.809
265.229     65.789   119.758
269.087     65.841   115.872
273.001     65.891   111.744
276.972     65.817   107.215
281.000     65.765   103.729
285.088     65.802    99.795
289.234     65.958    95.736
293.441     66.050    89.876
297.709     65.792    85.125
302.040     65.862    80.685
306.433     65.521    75.496
310.890     65.406    72.359
315.412     65.226    68.524
320.000     65.226    65.416
324.655     65.137    61.516
329.377     65.215    58.293
334.168     65.339    52.772
339.028     65.096    47.205
343.959     64.979    43.710
348.962     64.941    38.367
354.038     64.676    34.326
359.188     64.558    30.632
364.412     64.542    26.538
369.713     64.456    22.773
375.090     64.368    17.904
380.546     64.211    14.351
386.081     64.181    10.654
391.697     63.960     6.256
397.394     63.823     4.317
403.175     63.894     0.946
409.039     63.793    -2.620
414.989     63.718    -5.360
421.025     63.611    -8.539
427.149     63.462   -10.821
433.362     63.452   -12.444
439.665     63.445   -14.592
446.060     63.355   -16.773
452.548     63.342   -17.808
459.131     63.367   -19.464
465.809     63.437   -20.725
472.584     63.441   -22.744
479.458     63.375   -23.544
486.432     63.487   -24.573
493.507     63.512   -26.124
500.686     63.474   -27.168
507.968     63.510   -28.108
515.357     63.487   -29.100
522.853     63.487   -29.881
530.458     63.480   -30.799
538.174     63.434   -31.608
546.002     63.385   -32.204
553.943     63.337   -32.682
562.001     63.271   -33.158
570.175     63.221   -33.528
578.469     63.166   -33.980
586.883     63.086   -34.233
595.419     63.021   -34.338
604.080     62.975   -34.565
612.866     62.928   -34.759
621.780     62.896   -34.992
630.824     62.880   -35.322
640.000     62.880   -35.762
649.309     62.894   -36.259
658.753     62.922   -36.823
668.335     62.963   -37.488
678.056     63.013   -38.249
687.919     63.069   -39.132
697.925     63.128   -40.144
708.077     63.186   -41.269
718.376     63.239   -42.523
728.825     63.286   -43.901
739.426     63.322   -45.392
750.181     63.346   -46.987
761.093     63.356   -48.668
772.163     63.351   -50.393
783.394     63.330   -52.172
794.789     63.291   -54.017
806.349     63.236   -55.855
818.078     63.165   -57.698
829.977     63.079   -59.533
842.050     62.980   -61.346
854.298     62.868   -63.129
866.724     62.749   -64.847
879.330     62.621   -66.550
892.120     62.489   -68.215
905.097     62.356   -69.850
918.262     62.224   -71.472
931.618     62.095   -73.105
945.169     61.969   -74.780
958.917     61.846   -76.533
972.864     61.722   -78.403
987.015     61.592   -80.424
1001.37     61.440   -82.654
1015.94     61.265   -85.080
1030.71     61.054   -87.666
1045.71     60.788   -90.445
1060.92     60.449   -93.359
1076.35     60.029   -96.237
1092.00     59.510   -98.961
1107.89     58.872  -101.339
1124.00     58.116  -103.023
1140.35     57.256  -103.582
1156.94     56.332  -102.478
1173.77     55.470   -99.220
1190.84     54.863   -93.806
1208.16     54.708   -87.251
1225.73     55.059   -81.347
1243.56     55.772   -77.696
1261.65     56.612   -76.839
1280.00     57.404   -78.404
1298.62     58.051   -81.790
1317.51     58.516   -86.476
1336.67     58.778   -92.018
1356.11     58.828   -97.977
1375.84     58.669  -104.065
1395.85     58.306  -109.943
1416.15     57.758  -115.207
1436.75     57.060  -119.509
1457.65     56.260  -122.548
1478.85     55.443  -124.116
1500.36     54.722  -124.312
1522.19     54.178  -123.684
1544.33     53.829  -123.038
1566.79     53.613  -123.046
1589.58     53.427  -123.910
1612.70     53.184  -125.350
1636.16     52.845  -126.832
1659.95     52.436  -127.771
1684.10     52.041  -127.781
1708.60     51.780  -126.975
1733.45     51.739  -126.060
1758.66     51.904  -125.987
1784.24     52.169  -127.397
1810.19     52.403  -130.315
1836.52     52.509  -134.380
1863.24     52.439  -138.971
1890.34     52.189  -143.448
1917.83     51.803  -147.235
1945.73     51.361  -149.920
1974.03     50.972  -151.431
2002.74     50.745  -152.116
2031.87     50.731  -152.693
2061.43     50.906  -153.888
2091.41     51.198  -156.138
2121.83     51.530  -159.531
2152.69     51.836  -163.876
2184.01     52.082  -168.982
2215.77     52.247  -174.572
2248.00     52.325   179.676
2280.70     52.331   174.039
2313.87     52.297   168.678
2347.53     52.265   163.620
2381.68     52.269   158.712
2416.32     52.305   153.628
2451.46     52.329   148.164
2487.12     52.273   142.425
2523.30     52.090   136.887
2560.00     51.793   132.269
2597.24     51.496   129.158
2635.01     51.368   127.331
2673.34     51.505   125.569
2712.23     51.802   122.541
2751.68     52.031   118.018
2791.70     52.023   113.079
2832.31     51.804   109.327
2873.50     51.616   107.675
2915.30     51.740   107.027
2957.70     52.149   104.977
3000.72     52.497   100.641
3044.37     52.507    95.465
3088.65     52.205    91.750
3133.58     51.931    90.629
3179.16     51.997    90.364
3225.40     52.243    88.455
3272.31     52.282    85.310
3319.91     52.078    83.465
3368.20     52.040    83.822
3417.19     52.406    83.476
3466.89     52.746    80.149
3517.32     52.585    76.048
3568.48     52.087    75.357
3620.39     52.028    78.376
3673.05     52.618    79.581
3726.47     53.105    77.034
3780.67     53.159    74.680
3835.67     53.290    74.717
3891.46     53.817    73.628
3948.06     54.145    69.273
4005.49     53.845    65.707
4063.75     53.531    67.053
4122.86     53.993    69.093
4182.82     54.571    66.631
4243.66     54.579    63.768
4305.39     54.647    64.662
4368.01     55.358    64.358
4431.55     55.872    59.657
4496.01     55.779    56.021
4561.40     55.920    55.665
4627.75     56.461    52.612
4695.06     56.458    47.206
4763.35     56.142    45.952
4832.64     56.536    45.892
4902.93     56.952    41.096
4974.24     56.785    37.045
5046.60     56.986    35.296
5120.00     57.364    28.734
5194.47     56.824    20.557
5270.03     55.960    17.248
5346.68     55.353    13.802
5424.45     53.954    11.547
5503.35     53.008    18.875
5583.40     53.313    21.265
5664.61     52.593    22.128
5747.01     52.753    30.508
5830.60     53.616    29.563
5915.41     53.332    29.133
6001.45     53.748    32.177
6088.74     53.982    30.659
6177.30     54.211    33.544
6267.15     55.076    31.502
6358.31     55.031    29.055
6450.80     55.663    29.400
6544.62     55.989    23.532
6639.82     55.901    22.648
6736.40     56.509    18.566
6834.38     56.309    13.280
6933.79     56.551     8.770
7034.64     55.873    -0.968
7136.96     54.653    -2.800
7240.77     53.578    -6.490
7346.09     51.832    -0.221
7452.94     51.619     5.272
7561.35     51.081    15.783
7671.33     52.415    19.660
7782.91     52.633    22.047
7896.12     53.750    20.119
8010.97     53.450    18.665
8127.49     54.046    17.466
8245.71     53.667    16.711
8365.65     54.110    14.905
8487.33     53.572    14.576
8610.78     53.793    13.213
8736.03     53.526    13.976
8863.09     53.508    10.274
8992.01     53.274    12.209
9122.80     53.211     8.054
9255.50     53.104     7.249
9390.12     52.497     4.286
9526.70     52.465     2.678
9665.27     51.906     2.717
9805.86     51.940    -1.296
9948.49     51.684    -3.388
10093.2     50.536    -8.205
10240.0     49.582    -7.234
10388.9     48.801     2.186
10540.1     48.918     7.543
10693.4     50.056     9.606
10848.9     50.579     9.802
11006.7     50.652     4.436
11166.8     50.344    -0.120
11329.2     49.578     4.056
11494.0     49.548     9.019
11661.2     50.247     9.781
11830.8     50.997     8.798
12002.9     51.456     7.240
12177.5     51.803     1.621
12354.6     51.787    -5.764
12534.3     51.280   -10.741
12716.6     50.526   -12.808
12901.6     49.777   -14.256
13089.2     49.034   -14.046
13279.6     48.584   -11.800
13472.8     48.719    -8.434
13668.8     49.109   -10.197
13867.6     48.880   -14.333
14069.3     48.175   -17.691
14273.9     47.237   -18.354
14481.5     46.307   -16.450
14692.2     45.721    -7.459
14905.9     46.791    -3.332
15122.7     47.458    -6.397
15342.7     47.607   -10.939
15565.8     47.355   -16.054
15792.2     46.627   -19.145
16021.9     46.129   -20.215
16255.0     45.448   -21.747
16491.4     44.893   -21.565
16731.3     44.550   -21.849
16974.7     44.271   -24.057
17221.6     43.674   -27.639
17472.1     42.668   -30.060
17726.2     41.550   -30.339
17984.0     40.345   -28.546
18245.6     39.358   -23.799
18511.0     38.763   -19.288
18780.2     38.363   -16.825
19053.4     37.850   -14.350
19330.5     37.394   -11.270
19611.7     37.250    -7.393
19897.0     37.157    -5.651
20186.4     36.970    -5.475
20480.0     36.683    -8.861
20777.9     34.953    -8.013
21080.1     34.693    -1.249
21386.7     34.471     3.633
21697.8     34.614     5.034
22013.4     34.619     5.894
22333.6     34.833     6.187
22658.4     35.014     4.442
22988.0     34.908    -0.257
23322.4     34.292    -7.607
23661.6     33.151   -12.904
24005.8     31.396   -13.119
24355.0     30.086   -13.985
24709.2     29.043   -16.293
25068.6     27.047   -14.673
25433.2     25.577    -6.675
25803.2     25.584    -0.781
26178.5     25.314    -3.365
26559.3     24.774    -9.496
26945.6     23.247   -19.697
27337.5     22.676   -25.748
27735.2     22.057   -50.901
28138.6     20.177   -99.907
28547.9     22.717  -172.572
28963.1     24.739   133.397
29384.4     25.238   106.905
29811.8     26.082    87.922
30245.4     26.160    67.848
30685.3     25.148    53.140
31131.7     23.135    43.638
31584.5     21.664    40.902
32043.9     19.144    20.126
32510.0     15.378    16.275
32982.8     11.964    40.922
33462.6     13.640    54.024
33949.3     16.312    49.826
34443.1     14.563    11.015
34944.1      9.849    14.285
35452.4     18.813    21.073
35968.0     22.875   -38.262
36491.2     25.016   -83.674
37022.0     25.913  -133.664
37560.5     24.602  -171.334
38106.8     22.068   155.770
38661.1     15.216    46.057
39223.4     22.076  -138.200
39793.9     26.629   142.262
