Freq[Hz]     dBSPL  Phase[Deg]
5.00000    -11.981    47.456
5.07273    -12.422    53.082
5.14651    -12.625    59.297
5.22137    -12.164    67.158
5.29732    -11.702    75.018
5.37437    -11.240    82.878
5.45254    -10.778    90.738
5.53185    -10.195    95.956
5.61231     -9.484    98.379
5.69394     -8.773   100.801
5.77676     -8.061   103.224
5.86079     -7.358   105.604
5.94604     -7.148   105.545
6.03252     -6.938   105.486
6.12027     -6.728   105.426
6.20929     -6.518   105.366
6.29961     -6.886   105.834
6.39124     -7.381   106.418
6.48420     -7.877   107.002
6.57851     -8.373   107.585
6.67420     -9.440   115.590
6.77128    -10.600   124.801
6.86977    -11.761   134.011
6.96969    -12.645   143.816
7.07107    -11.427   158.150
7.17392    -10.209   172.484
7.27827     -8.992  -173.182
7.38413     -7.740  -166.154
7.49154     -6.461  -164.769
7.60050     -5.182  -163.384
7.71105     -4.084  -162.558
7.82321     -3.782  -164.182
7.93701     -3.481  -165.807
8.05245     -3.179  -167.432
8.16958     -4.017  -167.706
8.28841     -4.898  -167.930
8.40896     -5.779  -168.155
8.53128     -7.605  -151.101
8.65537     -9.553  -131.819
8.78126    -11.500  -112.537
8.90899     -8.751   -95.607
9.03857     -5.694   -78.832
9.17004     -2.783   -63.963
9.30342     -1.036   -64.266
9.43874      0.712   -64.570
9.57603      1.997   -65.055
9.71532      2.576   -65.814
9.85663      3.155   -66.575
10.0000      3.154   -63.052
10.1455      2.991   -58.337
10.2930      3.088   -51.663
10.4427      3.913   -39.516
10.5946      4.737   -27.370
10.7487      6.605   -21.468
10.9051      8.681   -16.812
11.0637     10.569   -15.715
11.2246     12.258   -18.385
11.3879     13.815   -21.719
11.5535     14.886   -27.477
11.7216     15.948   -33.260
11.8921     16.420   -40.518
12.0650     16.893   -47.776
12.2405     16.778   -55.781
12.4186     16.588   -63.884
12.5992     15.624   -72.288
12.7825     14.489   -80.761
12.9684     11.628   -88.347
13.1570      8.365   -95.726
13.3484      4.675   -35.416
13.5426      0.915    35.886
13.7395      7.505    35.947
13.9394     13.984    32.462
14.1421     16.586    22.862
14.3478     18.786    13.025
14.5565     20.120     2.683
14.7683     21.015    -7.735
14.9831     21.569   -18.212
15.2010     21.558   -28.429
15.4221     21.320   -38.407
15.6464     20.510   -47.531
15.8740     19.209   -55.005
16.1049     17.515   -61.161
16.3392     14.789   -57.911
16.5768     12.679   -45.329
16.8179     11.520   -19.702
17.0626     13.725    -4.521
17.3107     16.124     3.490
17.5625     18.153     2.637
17.8180     19.294    -1.258
18.0771     20.050    -5.077
18.3401     20.453    -8.380
18.6068     20.542    -9.670
18.8775     20.612    -8.920
19.1521     20.771    -6.801
19.4306     21.094    -3.697
19.7133     21.644    -0.703
20.0000     22.253     1.697
20.2909     22.867     3.793
20.5860     23.472     5.815
20.8855     24.088     8.000
21.1893     24.789    10.190
21.4975     25.559    11.805
21.8102     26.333    12.591
22.1274     27.034    12.588
22.4492     27.602    12.116
22.7758     28.013    11.707
23.1071     28.299    11.925
23.4432     28.549    13.110
23.7841     28.880    15.085
24.1301     29.337    17.045
24.4811     29.857    18.378
24.8372     30.339    19.020
25.1984     30.710    19.436
25.5649     30.976    20.349
25.9368     31.234    22.303
26.3141     31.625    25.196
26.6968     32.247    28.143
27.0851     33.054    30.067
27.4791     33.899    30.453
27.8788     34.635    29.660
28.2843     35.203    28.518
28.6957     35.631    27.779
29.1131     35.996    27.911
29.5365     36.403    28.938
29.9661     36.925    30.440
30.4020     37.570    31.812
30.8442     38.284    32.558
31.2929     38.988    32.741
31.7480     39.641    32.598
32.2098     40.239    32.383
32.6783     40.796    32.272
33.1536     41.328    32.282
33.6359     41.846    32.403
34.1251     42.356    32.692
34.6215     42.876    33.190
35.1250     43.432    33.802
35.6359     44.040    34.270
36.1543     44.669    34.402
36.6802     45.278    34.234
37.2137     45.851    34.008
37.7550     46.416    33.904
38.3041     47.000    33.861
38.8613     47.601    33.703
39.4265     48.193    33.393
40.0000     48.770    33.074
40.5818     49.344    32.798
41.1721     49.920    32.483
41.7710     50.488    32.101
42.3785     51.041    31.741
42.9949     51.600    31.418
43.6203     52.168    31.001
44.2548     52.724    30.418
44.8985     53.261    29.829
45.5515     53.801    29.288
46.2141     54.358    28.611
46.8863     54.897    27.687
47.5683     55.395    26.749
48.2602     55.887    25.986
48.9621     56.399    25.201
49.6743     56.907    24.202
50.3968     57.382    23.117
51.1299     57.837    22.105
51.8736     58.293    21.088
52.6281     58.740    19.968
53.3936     59.168    18.784
54.1702     59.582    17.570
54.9581     59.982    16.313
55.7575     60.365    15.026
56.5685     60.732    13.717
57.3914     61.077    12.389
58.2261     61.394    11.107
59.0730     61.692     9.912
59.9323     61.974     8.727
60.8040     62.225     7.553
61.6884     62.457     6.474
62.5857     62.681     5.374
63.4960     62.873     4.170
64.4196     63.018     3.073
65.3566     63.146     2.237
66.3073     63.274     1.551
67.2717     63.378     0.986
68.2502     63.467     0.814
69.2429     63.597     0.812
70.2501     63.694     0.605
71.2719     63.764     0.995
72.3086     63.942     1.217
73.3603     64.030     0.647
74.4274     64.023     0.780
75.5099     64.081     1.155
76.6083     64.118     1.532
77.7226     64.180     2.182
78.8531     64.240     2.783
80.0000     64.296     3.565
81.1636     64.349     4.368
82.3442     64.393     5.264
83.5419     64.421     6.186
84.7570     64.444     7.352
85.9899     64.482     8.484
87.2406     64.494     9.699
88.5096     64.502    11.095
89.7970     64.498    12.592
91.1031     64.478    14.264
92.4282     64.457    16.195
93.7726     64.450    18.245
95.1366     64.451    20.446
96.5204     64.467    22.781
97.9243     64.506    25.244
99.3486     64.561    27.665
100.794     64.609    30.145
102.260     64.664    32.624
103.747     64.717    35.212
105.256     64.781    37.621
106.787     64.808    40.109
108.340     64.818    42.723
109.916     64.834    45.644
111.515     64.872    48.662
113.137     64.916    51.602
114.783     64.944    54.646
116.452     64.966    57.768
118.146     64.984    60.980
119.865     64.998    64.426
121.608     65.031    67.974
123.377     65.075    71.563
125.171     65.127    75.160
126.992     65.165    78.756
128.839     65.205    82.514
130.713     65.245    86.329
132.615     65.289    90.232
134.543     65.334    94.269
136.500     65.385    98.431
138.486     65.431   102.141
140.500     65.485   106.252
142.544     65.528   110.509
144.617     65.494   114.507
146.721     65.492   118.927
148.855     65.551   123.732
151.020     65.609   128.146
153.217     65.606   132.382
155.445     65.498   136.799
157.706     65.423   142.380
160.000     65.489   148.247
162.327     65.580   153.682
164.688     65.651   158.420
167.084     65.769   163.424
169.514     65.797   167.406
171.980     65.518   172.893
174.481     65.470   178.973
177.019     65.447  -175.746
179.594     65.332  -169.709
182.206     65.298  -162.541
184.856     65.308  -155.894
187.545     65.294  -149.930
190.273     65.210  -143.111
193.041     65.194  -135.935
195.849     65.236  -128.786
198.697     65.321  -121.845
201.587     65.275  -114.862
204.520     65.299  -107.393
207.494     65.327  -100.432
210.512     65.300   -93.159
213.574     65.150   -85.449
216.681     65.089   -77.009
219.833     65.197   -68.666
223.030     65.267   -60.474
226.274     65.263   -52.495
229.565     65.165   -44.059
232.905     65.158   -34.958
236.292     65.177   -26.022
239.729     65.271   -16.827
243.216     65.308    -8.185
246.754     65.270     0.943
250.343     65.304    10.557
253.984     65.268    19.988
257.678     65.233    29.682
261.426     65.093    39.881
265.229     65.042    51.555
269.087     65.122    62.383
273.001     65.200    72.955
276.972     65.155    83.112
281.000     65.136    94.997
285.088     65.208   107.114
289.234     65.399   119.088
293.441     65.526   129.241
297.709     65.306   140.483
302.040     65.411   152.013
306.433     65.109   163.465
310.890     65.034   177.635
315.412     64.892  -168.920
320.000     64.930  -154.777
324.655     64.877  -141.455
329.377     64.989  -127.486
334.168     65.147  -114.471
339.028     64.934  -101.535
343.959     64.843   -86.558
348.962     64.826   -73.457
354.038     64.575   -59.079
359.188     64.465   -43.694
364.412     64.450   -28.045
369.713     64.356   -12.077
375.090     64.250     2.786
380.546     64.065    19.653
386.081     63.996    36.395
391.697     63.724    53.150
397.394     63.526    73.095
403.175     63.528    90.980
409.039     63.350   109.426
414.989     63.189   129.467
421.025     62.993   149.157
427.149     62.755   169.834
433.362     62.657  -168.741
439.665     62.562  -146.355
446.060     62.392  -123.919
452.548     62.307  -100.267
459.131     62.270   -76.473
465.809     62.290   -51.533
472.584     62.256   -27.325
479.458     62.167    -1.889
486.432     62.269    24.018
493.507     62.296    50.085
500.686     62.274    77.327
507.968     62.337   104.618
515.357     62.350   131.790
522.853     62.393   159.800
530.458     62.437  -171.710
538.174     62.443  -143.202
546.002     62.446  -114.575
553.943     62.450   -85.227
562.001     62.430   -55.276
570.175     62.419   -24.619
578.469     62.392     6.565
586.883     62.324    37.881
595.419     62.255    69.299
604.080     62.186   101.257
612.866     62.094   133.933
621.780     61.994   167.290
630.824     61.887  -158.696
640.000     61.775  -124.693
649.309     61.661   -90.618
658.753     61.545   -55.761
668.335     61.427   -19.432
678.056     61.315    17.000
687.919     61.210    54.217
697.925     61.114    92.212
708.077     61.031   130.281
718.376     60.963   169.099
728.825     60.911  -151.352
739.426     60.876  -111.093
750.181     60.860   -70.147
761.093     60.860   -28.536
772.163     60.877    13.022
783.394     60.909    55.202
794.789     60.954    98.675
806.349     61.007   142.044
818.078     61.067  -174.013
829.977     61.129  -129.503
842.050     61.188   -84.431
854.298     61.242   -38.795
866.724     61.284     6.731
879.330     61.311    53.519
892.120     61.317   100.907
905.097     61.298   148.924
918.262     61.249  -162.396
931.618     61.166  -113.004
945.169     61.048   -62.843
958.917     60.893   -11.844
972.864     60.704    40.076
987.015     60.484    93.008
1001.37     60.240   147.739
1015.94     59.995  -156.331
1030.71     59.780   -99.864
1045.71     59.619   -41.464
1060.92     59.549    18.764
1076.35     59.595    79.165
1092.00     59.768   140.156
1107.89     60.057  -157.856
1124.00     60.433   -95.832
1140.35     60.853   -33.904
1156.94     61.282    28.590
1173.77     61.679    91.016
1190.84     62.016   153.489
1208.16     62.272  -143.849
1225.73     62.434   -80.187
1243.56     62.491   -15.371
1261.65     62.435    50.103
1280.00     62.266   116.406
1298.62     61.987  -176.277
1317.51     61.607  -107.083
1336.67     61.143   -35.800
1356.11     60.633    37.072
1375.84     60.122   112.328
1395.85     59.668  -170.071
1416.15     59.333   -91.084
1436.75     59.144   -11.159
1457.65     59.088    69.934
1478.85     59.120   151.834
1500.36     59.179  -126.301
1522.19     59.206   -43.693
1544.33     59.161    39.863
1566.79     59.023   124.637
1589.58     58.788  -149.087
1612.70     58.474   -61.752
1636.16     58.108    27.514
1659.95     57.726   118.781
1684.10     57.365  -148.006
1708.60     57.051   -53.013
1733.45     56.791    42.842
1758.66     56.570   140.816
1784.24     56.370  -119.865
1810.19     56.179   -19.880
1836.52     55.990    82.258
1863.24     55.812  -174.121
1890.34     55.658   -69.052
1917.83     55.535    37.352
1945.73     55.437   144.948
1974.03     55.344  -105.668
2002.74     55.233     4.753
2031.87     55.080   116.237
2061.43     54.868  -131.156
2091.41     54.578   -16.659
2121.83     54.195    99.798
2152.69     53.706  -143.092
2184.01     53.086   -23.805
2215.77     52.318    97.844
2248.00     51.391  -138.625
2280.70     50.294   -12.982
2313.87     48.992   115.777
2347.53     47.432  -111.757
2381.68     45.573    25.150
2416.32     43.573   170.202
2451.46     42.344   -34.406
2487.12     42.951   124.139
2523.30     44.607   -83.932
2560.00     46.037    62.256
2597.24     46.824  -153.605
2635.01     47.017    -7.498
2673.34     46.852   142.655
2712.23     46.678   -62.637
2751.68     46.742    95.953
2791.70     46.968  -104.014
2832.31     47.139    57.499
2873.50     47.231  -138.222
2915.30     47.446    29.334
2957.70     47.947  -160.380
3000.72     48.610    10.374
3044.37     49.197  -178.365
3088.65     49.613    -4.782
3133.58     49.917   171.295
3179.16     50.216    -9.187
3225.40     50.600   173.559
3272.31     51.138    -1.786
3319.91     51.813  -175.584
3368.20     52.440    11.366
3417.19     52.769  -161.108
3466.89     52.687    29.439
3517.32     52.323  -134.455
3568.48     51.973    66.199
3620.39     51.801   -89.038
3673.05     51.766   119.944
3726.47     51.959   -27.461
3780.67     52.515  -172.813
3835.67     53.189    41.942
3891.46     53.609  -101.671
3948.06     53.753   117.843
4005.49     53.858   -18.942
4063.75     53.990  -151.689
4122.86     54.001    78.052
4182.82     53.888   -48.763
4243.66     53.764  -170.630
4305.39     53.629    70.711
4368.01     53.515   -43.700
4431.55     53.527  -154.500
4496.01     53.527    97.376
4561.40     53.375    -7.002
4627.75     53.240  -107.044
4695.06     53.109   156.914
4763.35     52.852    65.172
4832.64     52.772   -21.913
4902.93     52.758  -106.408
4974.24     52.298   174.055
5046.60     52.051   102.739
5120.00     52.610    34.326
5194.47     53.074   -33.766
5270.03     53.341   -98.373
5346.68     53.616  -160.119
5424.45     53.428   142.048
5503.35     52.857    91.515
5583.40     52.501    48.912
5664.61     52.745    12.146
5747.01     53.352   -23.524
5830.60     53.758   -57.340
5915.41     54.017   -86.444
6001.45     53.859  -112.294
6088.74     53.392  -130.745
6177.30     53.231  -142.427
6267.15     52.924  -149.115
6358.31     52.885  -149.002
6450.80     52.951  -145.876
6544.62     52.945  -137.158
6639.82     52.951  -123.771
6736.40     52.882  -102.886
6834.38     53.226   -78.938
6933.79     53.092   -51.141
7034.64     52.824   -16.408
7136.96     52.313    24.519
7240.77     52.101    73.462
7346.09     51.807   127.618
7452.94     51.497  -173.225
7561.35     50.693  -106.109
7671.33     50.416   -28.475
7782.91     50.520    53.520
7896.12     50.817   138.167
8010.97     50.267  -130.085
8127.49     50.014   -26.678
8245.71     50.582    83.413
8365.65     51.139  -167.817
8487.33     51.010   -51.500
8610.78     50.384    71.547
8736.03     49.780  -155.322
8863.09     48.778   -13.635
8992.01     48.097   139.815
9122.80     48.359   -58.252
9255.50     48.804   105.221
9390.12     49.124   -84.357
9526.70     49.263    94.510
9665.27     49.573   -80.641
9805.86     50.017   112.669
9948.49     50.515   -46.637
10093.2     51.029   159.338
10240.0     51.346    12.910
10388.9     51.291  -123.942
10540.1     51.324   107.986
10693.4     51.446   -12.786
10848.9     51.297  -124.598
11006.7     50.934   133.004
11166.8     50.528    38.660
11329.2     49.774   -45.287
11494.0     48.876  -115.976
11661.2     48.520  -175.735
11830.8     48.457   132.230
12002.9     48.084    86.619
12177.5     47.209    53.269
12354.6     46.584    34.035
12534.3     46.703    25.055
12716.6     46.760    20.868
12901.6     45.943    26.882
13089.2     44.875    49.928
13279.6     44.972    88.762
13472.8     45.888   130.768
13668.8     46.135   179.010
13867.6     45.855  -118.601
14069.3     45.916   -43.390
14273.9     46.183    41.374
14481.5     46.298   136.895
14692.2     46.037  -114.163
14905.9     46.369     7.214
15122.7     46.709   136.663
15342.7     46.540   -82.346
15565.8     46.137    72.033
15792.2     45.712  -121.108
16021.9     45.174    58.851
16255.0     44.488  -109.086
16491.4     43.151    96.961
16731.3     41.785   -39.819
16974.7     40.548  -161.668
17221.6     38.834    91.689
17472.1     37.142     3.942
17726.2     36.331   -66.973
17984.0     35.783  -124.220
18245.6     36.134  -167.034
18511.0     36.607   160.509
18780.2     36.773   140.444
19053.4     36.342   133.970
19330.5     35.872   144.046
19611.7     35.517   170.944
19897.0     34.701  -148.045
20186.4     33.817   -86.406
20480.0     33.183   -10.717
20777.9     31.175    81.654
21080.1     29.902  -156.092
21386.7     30.759   -18.165
21697.8     30.808   124.965
22013.4     30.373   -67.618
22333.6     31.232   117.160
22658.4     32.025   -45.777
22988.0     31.888   166.023
23322.4     31.249    36.585
23661.6     30.530   -74.149
24005.8     28.989  -163.678
24355.0     27.111   129.449
24709.2     25.490    86.841
25068.6     23.842    57.472
25433.2     21.852    53.996
25803.2     19.209    82.434
26178.5     18.789   139.466
26559.3     17.577  -145.467
26945.6     19.553   -55.083
27337.5     19.009    33.216
27735.2     16.217   154.362
28138.6     14.109   -19.016
28547.9     19.811   167.834
28963.1     20.103    -7.597
29384.4     20.812  -148.279
29811.8     20.838    87.890
30245.4     20.704   -13.665
30685.3     20.618   -90.786
31131.7     19.157  -140.579
31584.5     16.936  -157.027
32043.9     13.552  -159.949
32510.0     10.096  -106.397
32982.8      7.663   -15.837
33462.6      7.555    70.853
33949.3      9.857  -162.006
34443.1     14.093   -34.706
34944.1     16.631   126.981
35452.4     20.779   -63.963
35968.0     23.723   107.510
36491.2     24.755   -30.990
37022.0     25.121  -146.032
37560.5     24.260   133.922
38106.8     17.838    70.321
38661.1     10.371   146.819
39223.4     23.113  -143.161
39793.9     30.308  -120.193
