Freq[Hz]     dBSPL  Phase[Deg]
5.00000    -12.017    27.729
5.07273    -12.458    33.074
5.14651    -12.661    39.002
5.22137    -12.199    46.560
5.29732    -11.737    54.118
5.37437    -11.275    61.676
5.45254    -10.813    69.234
5.53185    -10.230    74.139
5.61231     -9.519    76.239
5.69394     -8.808    78.339
5.77676     -8.096    80.438
5.86079     -7.393    82.495
5.94604     -7.183    82.092
6.03252     -6.973    81.689
6.12027     -6.763    81.285
6.20929     -6.553    80.882
6.29961     -6.921    80.988
6.39124     -7.416    81.207
6.48420     -7.912    81.426
6.57851     -8.408    81.645
6.67420     -9.475    89.268
6.77128    -10.635    98.092
6.86977    -11.795   106.917
6.96969    -12.679   116.334
7.07107    -11.461   130.262
7.17392    -10.243   144.189
7.27827     -9.026   158.116
7.38413     -7.774   164.727
7.49154     -6.495   165.684
7.60050     -5.216   166.642
7.71105     -4.118   167.037
7.82321     -3.816   164.964
7.93701     -3.515   162.892
8.05245     -3.213   160.818
8.16958     -4.051   160.076
8.28841     -4.932   159.383
8.40896     -5.812   158.689
8.53128     -7.638   175.255
8.65537     -9.586  -165.952
8.78126    -11.533  -147.160
8.90899     -8.784  -130.740
9.03857     -5.727  -114.475
9.17004     -2.816  -100.119
9.30342     -1.068  -100.954
9.43874      0.680  -101.789
9.57603      1.965  -102.813
9.71532      2.544  -104.125
9.85663      3.124  -105.438
10.0000      3.123  -102.484
10.1455      2.960   -98.342
10.2930      3.057   -92.247
10.4427      3.882   -80.694
10.5946      4.706   -69.142
10.7487      6.574   -63.851
10.9051      8.650   -59.810
11.0637     10.538   -59.338
11.2246     12.227   -62.643
11.3879     13.784   -66.618
11.5535     14.856   -73.032
11.7216     15.918   -79.473
11.8921     16.390   -87.407
12.0650     16.863   -95.342
12.2405     16.749  -104.044
12.4186     16.559  -112.844
12.5992     15.595  -121.964
12.7825     14.460  -131.156
12.9684     11.600  -139.477
13.1570      8.337  -147.596
13.3484      4.647   -88.044
13.5426      0.888   -17.503
13.7395      7.478   -18.222
13.9394     13.957   -22.491
14.1421     16.559   -32.894
14.3478     18.759   -43.539
14.5565     20.094   -54.704
14.7683     20.989   -65.957
14.9831     21.544   -77.277
15.2010     21.533   -88.356
15.4221     21.295   -99.203
15.6464     20.485  -109.212
15.8740     19.184  -117.583
16.1049     17.491  -124.646
16.3392     14.766  -122.322
16.5768     12.656  -110.675
16.8179     11.497   -85.996
17.0626     13.703   -71.782
17.3107     16.102   -64.747
17.5625     18.131   -66.589
17.8180     19.273   -71.493
18.0771     20.029   -76.333
18.3401     20.432   -80.669
18.6068     20.521   -83.012
18.8775     20.592   -83.328
19.1521     20.752   -82.291
19.4306     21.075   -80.281
19.7133     21.626   -78.401
20.0000     22.235   -77.131
20.2909     22.849   -76.181
20.5860     23.455   -75.321
20.8855     24.071   -74.313
21.1893     24.773   -73.320
21.4975     25.544   -72.920
21.8102     26.318   -73.365
22.1274     27.020   -74.617
22.4492     27.588   -76.356
22.7758     27.999   -78.050
23.1071     28.286   -79.135
23.4432     28.537   -79.272
23.7841     28.868   -78.640
24.1301     29.326   -78.043
24.4811     29.847   -78.091
24.8372     30.329   -78.851
25.1984     30.702   -79.857
25.5649     30.968   -80.386
25.9368     31.226   -79.895
26.3141     31.618   -78.487
26.6968     32.241   -77.045
27.0851     33.048   -76.649
27.4791     33.895   -77.813
27.8788     34.631   -80.179
28.2843     35.200   -82.917
28.6957     35.629   -85.276
29.1131     35.996   -86.785
29.5365     36.403   -87.424
29.9661     36.925   -87.611
30.4020     37.571   -87.953
30.8442     38.286   -88.948
31.2929     38.990   -90.529
31.7480     39.645   -92.462
32.2098     40.244   -94.492
32.6783     40.801   -96.447
33.1536     41.335   -98.306
33.6359     41.854  -100.080
34.1251     42.365  -101.716
34.6215     42.886  -103.170
35.1250     43.443  -104.536
35.6359     44.052  -106.078
36.1543     44.682  -107.984
36.6802     45.292  -110.218
37.2137     45.866  -112.542
37.7550     46.432  -114.773
38.3041     47.018  -116.975
38.8613     47.619  -119.322
39.4265     48.213  -121.854
40.0000     48.791  -124.427
40.5818     49.366  -126.988
41.1721     49.944  -129.624
41.7710     50.512  -132.358
42.3785     51.067  -135.106
42.9949     51.627  -137.851
43.6203     52.196  -140.724
44.2548     52.754  -143.800
44.8985     53.291  -146.918
45.5515     53.833  -150.025
46.2141     54.391  -153.304
46.8863     54.932  -156.867
47.5683     55.431  -160.485
48.2602     55.925  -163.966
48.9621     56.438  -167.508
49.6743     56.948  -171.304
50.3968     57.423  -175.226
51.1299     57.880  -179.117
51.8736     58.337   176.946
52.6281     58.785   172.863
53.3936     59.215   168.673
54.1702     59.630   164.411
54.9581     60.032   160.060
55.7575     60.417   155.634
56.5685     60.786   151.141
57.3914     61.132   146.583
58.2261     61.451   142.024
59.0730     61.750   137.504
59.9323     62.033   132.946
60.8040     62.285   128.351
61.6884     62.518   123.799
62.5857     62.744   119.177
63.4960     62.938   114.399
64.4196     63.085   109.679
65.3566     63.214   105.164
66.3073     63.343   100.747
67.2717     63.449    96.396
68.2502     63.539    92.384
69.2429     63.671    88.486
70.2501     63.770    84.326
71.2719     63.841    80.706
72.3086     64.021    76.859
73.3603     64.111    72.162
74.4274     64.105    68.106
75.5099     64.165    64.234
76.6083     64.203    60.300
77.7226     64.266    56.577
78.8531     64.328    52.742
80.0000     64.386    49.022
81.1636     64.441    45.259
82.3442     64.487    41.522
83.5419     64.515    37.744
84.7570     64.540    34.141
85.9899     64.580    30.435
87.2406     64.593    26.741
88.5096     64.603    23.158
89.7970     64.600    19.603
91.1031     64.582    16.149
92.4282     64.562    12.879
93.7726     64.557     9.653
95.1366     64.560     6.501
96.5204     64.578     3.405
97.9243     64.618     0.358
99.3486     64.675    -2.810
100.794     64.725    -6.002
102.260     64.781    -9.276
103.747     64.835   -12.526
105.256     64.900   -16.039
106.787     64.929   -19.561
108.340     64.941   -23.043
109.916     64.958   -26.307
111.515     64.998   -29.564
113.137     65.043   -32.991
114.783     65.072   -36.406
116.452     65.097   -39.836
118.146     65.116   -43.274
119.865     65.131   -46.574
121.608     65.166   -49.869
123.377     65.212   -53.223
125.171     65.265   -56.671
126.992     65.304   -60.222
128.839     65.346   -63.714
130.713     65.387   -67.257
132.615     65.433   -70.818
134.543     65.479   -74.506
136.500     65.532   -78.252
138.486     65.580   -81.729
140.500     65.635   -85.526
142.544     65.680   -89.896
144.617     65.647   -93.805
146.721     65.647   -97.293
148.855     65.708  -101.115
151.020     65.767  -105.328
153.217     65.766  -109.720
155.445     65.658  -113.930
157.706     65.586  -116.977
160.000     65.652  -120.457
162.327     65.745  -124.368
164.688     65.818  -128.258
167.084     65.937  -132.600
169.514     65.967  -138.685
171.980     65.690  -143.264
174.481     65.643  -146.531
177.019     65.621  -150.598
179.594     65.508  -154.627
182.206     65.475  -158.245
184.856     65.486  -162.384
187.545     65.474  -166.486
190.273     65.391  -170.453
193.041     65.377  -174.063
195.849     65.421  -177.700
198.697     65.507   177.736
201.587     65.463   173.213
204.520     65.488   169.177
207.494     65.517   164.633
210.512     65.492   159.682
213.574     65.343   155.168
216.681     65.285   152.102
219.833     65.393   148.221
223.030     65.465   143.470
226.274     65.463   138.505
229.565     65.367   133.998
232.905     65.360   130.156
236.292     65.382   126.149
239.729     65.478   121.682
243.216     65.516   116.662
246.754     65.480   112.129
250.343     65.515   107.363
253.984     65.481   102.413
257.678     65.448    97.728
261.426     65.310    92.828
265.229     65.261    89.404
269.087     65.343    85.134
273.001     65.424    80.609
276.972     65.381    75.669
281.000     65.363    71.739
285.088     65.438    67.322
289.234     65.632    62.763
293.441     65.762    56.383
297.709     65.544    51.092
302.040     65.653    46.091
306.433     65.354    40.293
310.890     65.283    36.496
315.412     65.145    31.974
320.000     65.187    28.149
324.655     65.138    23.505
329.377     65.255    19.509
334.168     65.419    13.121
339.028     65.212     6.656
343.959     65.127     2.231
348.962     65.117    -4.070
354.038     64.874    -9.094
359.188     64.772   -13.831
364.412     64.766   -19.023
369.713     64.682   -23.898
375.090     64.586   -29.880
380.546     64.413   -34.579
386.081     64.356   -39.407
391.697     64.098   -44.944
397.394     63.915   -48.018
403.175     63.932   -52.437
409.039     63.769   -57.022
414.989     63.625   -60.740
421.025     63.446   -64.816
427.149     63.225   -67.915
433.362     63.145   -70.274
439.665     63.068   -73.124
446.060     62.915   -75.932
452.548     62.848   -77.533
459.131     62.828   -79.721
465.809     62.863   -81.491
472.584     62.845   -83.999
479.458     62.770   -85.284
486.432     62.886   -86.823
493.507     62.926   -88.926
500.686     62.917   -90.580
507.968     62.990   -92.185
515.357     63.014   -93.910
522.853     63.068   -95.519
530.458     63.121   -97.372
538.174     63.136   -99.208
546.002     63.149  -100.924
553.943     63.161  -102.644
562.001     63.149  -104.486
570.175     63.147  -106.347
578.469     63.128  -108.407
586.883     63.068  -110.339
595.419     63.005  -112.174
604.080     62.942  -114.197
612.866     62.856  -116.231
621.780     62.760  -118.313
630.824     62.654  -120.467
640.000     62.543  -122.637
649.309     62.427  -124.739
658.753     62.307  -126.785
668.335     62.182  -128.806
678.056     62.060  -130.722
687.919     61.941  -132.568
697.925     61.827  -134.350
708.077     61.725  -136.042
718.376     61.633  -137.688
728.825     61.555  -139.302
739.426     61.492  -140.902
750.181     61.445  -142.507
761.093     61.416  -144.141
772.163     61.403  -145.798
783.394     61.407  -147.529
794.789     61.424  -149.385
806.349     61.452  -151.326
818.078     61.489  -153.397
829.977     61.530  -155.611
842.050     61.572  -157.975
854.298     61.609  -160.491
866.724     61.636  -163.116
879.330     61.650  -165.916
892.120     61.643  -168.832
905.097     61.612  -171.838
918.262     61.551  -174.894
931.618     61.457  -177.948
945.169     61.328   179.060
958.917     61.162   176.207
972.864     60.962   173.581
987.015     60.736   171.279
1001.37     60.489   169.376
1015.94     60.251   167.983
1030.71     60.053   167.145
1045.71     59.924   166.795
1060.92     59.901   166.787
1076.35     60.006   166.857
1092.00     60.244   166.677
1107.89     60.598   165.930
1124.00     61.029   164.397
1140.35     61.494   161.979
1156.94     61.957   158.647
1173.77     62.379   154.513
1190.84     62.733   149.700
1208.16     63.000   144.354
1225.73     63.169   138.557
1243.56     63.229   132.455
1261.65     63.172   126.261
1280.00     62.996   120.134
1298.62     62.702   114.242
1317.51     62.292   108.711
1336.67     61.777   103.752
1356.11     61.183    99.614
1375.84     60.541    96.443
1395.85     59.903    94.342
1416.15     59.335    93.273
1436.75     58.890    92.950
1457.65     58.591    92.939
1478.85     58.426    92.792
1500.36     58.354    92.212
1522.19     58.319    91.115
1544.33     58.282    89.599
1566.79     58.219    87.855
1589.58     58.131    86.078
1612.70     58.033    84.402
1636.16     57.945    82.832
1659.95     57.882    81.286
1684.10     57.845    79.635
1708.60     57.822    77.774
1733.45     57.792    75.694
1758.66     57.735    73.431
1784.24     57.642    71.128
1810.19     57.519    68.938
1836.52     57.381    66.918
1863.24     57.247    65.091
1890.34     57.134    63.383
1917.83     57.047    61.683
1945.73     56.982    59.901
1974.03     56.931    57.980
2002.74     56.891    55.910
2031.87     56.865    53.641
2061.43     56.850    51.061
2091.41     56.832    47.997
2121.83     56.779    44.323
2152.69     56.644    40.082
2184.01     56.383    35.376
2215.77     55.960    30.481
2248.00     55.364    25.775
2280.70     54.606    21.580
2313.87     53.701    18.109
2347.53     52.664    15.495
2381.68     51.493    13.914
2416.32     50.157    13.815
2451.46     48.681    16.217
2487.12     47.266    22.369
2523.30     46.340    32.094
2560.00     46.181    42.278
2597.24     46.518    49.714
2635.01     46.914    54.393
2673.34     47.204    57.902
2712.23     47.462    61.290
2751.68     47.785    64.488
2791.70     48.156    67.029
2832.31     48.502    69.033
2873.50     48.825    71.083
2915.30     49.229    73.336
2957.70     49.788    75.094
3000.72     50.432    75.469
3044.37     51.007    74.302
3088.65     51.396    72.166
3133.58     51.562    69.947
3179.16     51.548    68.516
3225.40     51.489    68.461
3272.31     51.569    69.495
3319.91     51.862    70.282
3368.20     52.217    69.695
3417.19     52.410    68.145
3466.89     52.395    67.124
3517.32     52.351    67.601
3568.48     52.474    68.921
3620.39     52.738    69.992
3673.05     53.057    70.912
3726.47     53.505    71.927
3780.67     54.149    72.018
3835.67     54.830    70.226
3891.46     55.356    67.053
3948.06     55.705    63.493
4005.49     55.934    59.867
4063.75     56.044    56.192
4122.86     56.038    52.795
4182.82     55.954    49.791
4243.66     55.777    47.167
4305.39     55.520    45.604
4368.01     55.373    45.287
4431.55     55.410    44.662
4496.01     55.393    43.174
4561.40     55.271    42.356
4627.75     55.270    42.208
4695.06     55.341    41.468
4763.35     55.383    40.729
4832.64     55.522    39.676
4902.93     55.526    37.255
4974.24     55.196    36.211
5046.60     55.109    38.148
5120.00     55.496    38.779
5194.47     55.813    37.080
5270.03     56.009    35.069
5346.68     56.163    32.260
5424.45     56.088    28.705
5503.35     55.670    25.884
5583.40     55.060    26.683
5664.61     55.121    30.769
5747.01     55.797    30.620
5830.60     56.040    26.900
5915.41     55.904    24.233
6001.45     55.731    23.031
6088.74     55.725    22.342
6177.30     55.688    20.260
6267.15     55.413    19.340
6358.31     55.329    19.385
6450.80     55.247    19.594
6544.62     55.520    19.950
6639.82     55.702    17.057
6736.40     55.603    15.192
6834.38     55.594    12.649
6933.79     55.276     9.884
7034.64     54.786     8.545
7136.96     54.390     9.799
7240.77     54.338    10.197
7346.09     54.222    10.382
7452.94     54.122     9.100
7561.35     53.705     9.992
7671.33     53.745    11.425
7782.91     53.869    11.598
7896.12     53.845     8.798
8010.97     53.236     7.202
8127.49     52.196     9.632
8245.71     52.231    18.762
8365.65     52.967    21.155
8487.33     53.649    19.409
8610.78     53.564    14.913
8736.03     53.107    11.350
8863.09     52.109     9.225
8992.01     50.599    13.175
9122.80     50.426    23.993
9255.50     51.132    29.807
9390.12     51.941    30.466
9526.70     52.506    28.877
9665.27     52.742    27.177
9805.86     52.987    25.438
9948.49     53.315    24.180
10093.2     53.632    22.161
10240.0     53.949    19.103
10388.9     54.188    16.048
10540.1     54.409    12.758
10693.4     54.505     8.259
10848.9     54.450     3.560
11006.7     54.268    -0.683
11166.8     53.854    -5.954
11329.2     52.955    -9.729
11494.0     52.109    -8.816
11661.2     51.884    -7.021
11830.8     51.846    -8.023
12002.9     51.440   -11.124
12177.5     50.583   -11.797
12354.6     50.122    -8.101
12534.3     50.301    -6.566
12716.6     50.260    -9.169
12901.6     49.567   -11.904
13089.2     48.314   -10.275
13279.6     47.792    -0.345
13472.8     48.712     4.620
13668.8     49.129     3.702
13867.6     49.237     4.822
14069.3     49.795     5.356
14273.9     50.310     2.827
14481.5     50.483    -1.358
14692.2     50.254    -5.871
14905.9     50.078    -6.069
15122.7     50.294    -8.729
15342.7     50.305   -13.777
15565.8     49.872   -18.872
15792.2     49.452   -22.333
16021.9     49.146   -27.016
16255.0     48.530   -34.121
16491.4     47.190   -39.938
16731.3     45.700   -42.171
16974.7     44.268   -43.503
17221.6     42.430   -43.252
17472.1     40.599   -37.033
17726.2     39.480   -25.647
17984.0     39.419   -14.635
18245.6     39.783    -9.048
18511.0     40.299    -6.550
18780.2     40.619    -8.120
19053.4     40.300   -10.347
19330.5     40.251    -9.298
19611.7     40.152   -13.874
19897.0     39.198   -18.556
20186.4     37.928   -19.542
20480.0     37.014   -19.888
20777.9     34.736   -18.619
21080.1     33.704    -4.575
21386.7     34.070     4.193
21697.8     34.246     6.820
22013.4     34.200    10.191
22333.6     34.883    12.015
22658.4     35.222    10.741
22988.0     35.701     6.205
23322.4     35.330    -0.151
23661.6     34.529    -7.305
24005.8     33.149   -12.587
24355.0     31.766   -17.886
24709.2     30.221   -22.339
25068.6     27.578   -24.164
25433.2     25.316   -22.946
25803.2     22.629   -14.401
26178.5     20.934    -0.815
26559.3     19.871    14.576
26945.6     19.304    24.254
27337.5     20.194    23.500
27735.2     16.879    17.848
28138.6     14.917    70.607
28547.9     20.511    82.638
28963.1     22.052    78.906
29384.4     23.578    77.692
29811.8     24.532    60.931
30245.4     24.586    54.625
30685.3     24.212    41.092
31131.7     21.694    31.227
31584.5     19.853    31.736
32043.9     16.766    22.692
32510.0     13.572    31.313
32982.8      8.140    46.157
33462.6      5.931   110.380
33949.3     15.345    96.116
34443.1     18.935    85.355
34944.1     22.057    65.819
35452.4     26.436    24.129
35968.0     28.009   -24.180
36491.2     29.729   -73.594
37022.0     29.704  -120.239
37560.5     29.256  -164.547
38106.8     21.890   139.950
38661.1     15.631  -137.000
39223.4     28.957  -144.832
39793.9     35.929   149.404
