Freq[Hz]     dBSPL  Phase[Deg]
5.00000    -12.238    27.750
5.07273    -12.679    33.095
5.14651    -12.882    39.023
5.22137    -12.420    46.582
5.29732    -11.958    54.141
5.37437    -11.496    61.699
5.45254    -11.034    69.257
5.53185    -10.451    74.163
5.61231     -9.740    76.263
5.69394     -9.029    78.363
5.77676     -8.317    80.462
5.86079     -7.614    82.520
5.94604     -7.404    82.117
6.03252     -7.194    81.714
6.12027     -6.984    81.311
6.20929     -6.773    80.908
6.29961     -7.141    81.015
6.39124     -7.636    81.235
6.48420     -8.132    81.454
6.57851     -8.628    81.673
6.67420     -9.695    89.296
6.77128    -10.855    98.121
6.86977    -12.015   106.946
6.96969    -12.899   116.364
7.07107    -11.681   130.292
7.17392    -10.463   144.220
7.27827     -9.245   158.148
7.38413     -7.993   164.759
7.49154     -6.714   165.717
7.60050     -5.435   166.675
7.71105     -4.337   167.071
7.82321     -4.035   164.999
7.93701     -3.734   162.926
8.05245     -3.432   160.854
8.16958     -4.270   160.112
8.28841     -5.151   159.419
8.40896     -6.031   158.726
8.53128     -7.857   175.293
8.65537     -9.804  -165.914
8.78126    -11.751  -147.121
8.90899     -9.002  -130.700
9.03857     -5.945  -114.435
9.17004     -3.034  -100.078
9.30342     -1.286  -100.912
9.43874      0.462  -101.747
9.57603      1.747  -102.770
9.71532      2.327  -104.082
9.85663      2.907  -105.393
10.0000      2.906  -102.439
10.1455      2.743   -98.296
10.2930      2.840   -92.200
10.4427      3.665   -80.646
10.5946      4.490   -69.094
10.7487      6.358   -63.801
10.9051      8.435   -59.759
11.0637     10.323   -59.287
11.2246     12.012   -62.591
11.3879     13.569   -66.565
11.5535     14.641   -72.978
11.7216     15.704   -79.417
11.8921     16.176   -87.351
12.0650     16.649   -95.285
12.2405     16.535  -103.985
12.4186     16.345  -112.785
12.5992     15.382  -121.904
12.7825     14.247  -131.094
12.9684     11.387  -139.414
13.1570      8.125  -147.532
13.3484      4.435   -87.978
13.5426      0.676   -17.436
13.7395      7.267   -18.154
13.9394     13.746   -22.422
14.1421     16.348   -32.823
14.3478     18.548   -43.467
14.5565     19.884   -54.630
14.7683     20.779   -65.882
14.9831     21.334   -77.201
15.2010     21.323   -88.278
15.4221     21.086   -99.123
15.6464     20.277  -109.131
15.8740     18.976  -117.500
16.1049     17.283  -124.561
16.3392     14.558  -122.236
16.5768     12.448  -110.587
16.8179     11.289   -85.906
17.0626     13.497   -71.690
17.3107     15.896   -64.654
17.5625     17.926   -66.494
17.8180     19.068   -71.396
18.0771     19.825   -76.233
18.3401     20.228   -80.567
18.6068     20.319   -82.907
18.8775     20.390   -83.222
19.1521     20.550   -82.182
19.4306     20.874   -80.170
19.7133     21.425   -78.287
20.0000     22.035   -77.015
20.2909     22.650   -76.062
20.5860     23.256   -75.199
20.8855     23.873   -74.189
21.1893     24.575   -73.193
21.4975     25.347   -72.790
21.8102     26.121   -73.232
22.1274     26.824   -74.481
22.4492     27.393   -76.217
22.7758     27.805   -77.908
23.1071     28.092   -78.989
23.4432     28.344   -79.123
23.7841     28.677   -78.488
24.1301     29.135   -77.886
24.4811     29.657   -77.931
24.8372     30.140   -78.687
25.1984     30.513   -79.689
25.5649     30.781   -80.215
25.9368     31.039   -79.719
26.3141     31.432   -78.307
26.6968     32.056   -76.861
27.0851     32.864   -76.460
27.4791     33.712   -77.620
27.8788     34.449   -79.981
28.2843     35.020   -82.714
28.6957     35.449   -85.068
29.1131     35.816   -86.572
29.5365     36.225   -87.206
29.9661     36.749   -87.388
30.4020     37.395   -87.723
30.8442     38.112   -88.713
31.2929     38.818   -90.288
31.7480     39.473   -92.215
32.2098     40.074   -94.239
32.6783     40.632   -96.187
33.1536     41.167   -98.040
33.6359     41.687   -99.807
34.1251     42.200  -101.436
34.6215     42.722  -102.883
35.1250     43.280  -104.242
35.6359     43.890  -105.777
36.1543     44.521  -107.675
36.6802     45.133  -109.902
37.2137     45.709  -112.218
37.7550     46.277  -114.440
38.3041     46.863  -116.634
38.8613     47.467  -118.973
39.4265     48.062  -121.496
40.0000     48.642  -124.060
40.5818     49.217  -126.612
41.1721     49.798  -129.238
41.7710     50.368  -131.963
42.3785     50.925  -134.701
42.9949     51.486  -137.436
43.6203     52.056  -140.299
44.2548     52.617  -143.364
44.8985     53.156  -146.472
45.5515     53.699  -149.567
46.2141     54.260  -152.835
46.8863     54.803  -156.387
47.5683     55.303  -159.993
48.2602     55.799  -163.462
48.9621     56.314  -166.993
49.6743     56.825  -170.776
50.3968     57.304  -174.686
51.1299     57.762  -178.564
51.8736     58.222   177.512
52.6281     58.671   173.442
53.3936     59.103   169.266
54.1702     59.521   165.017
54.9581     59.924   160.681
55.7575     60.312   156.269
56.5685     60.682   151.790
57.3914     61.032   147.247
58.2261     61.352   142.703
59.0730     61.654   138.198
59.9323     61.939   133.655
60.8040     62.195   129.076
61.6884     62.430   124.540
62.5857     62.658   119.934
63.4960     62.854   115.172
64.4196     63.004   110.468
65.3566     63.135   105.970
66.3073     63.267   101.570
67.2717     63.375    97.236
68.2502     63.468    93.241
69.2429     63.603    89.361
70.2501     63.704    85.219
71.2719     63.778    81.617
72.3086     63.961    77.788
73.3603     64.054    73.109
74.4274     64.050    69.072
75.5099     64.113    65.218
76.6083     64.154    61.304
77.7226     64.220    57.599
78.8531     64.285    53.783
80.0000     64.345    50.083
81.1636     64.403    46.339
82.3442     64.452    42.622
83.5419     64.484    38.864
84.7570     64.511    35.280
85.9899     64.554    31.594
87.2406     64.571    27.920
88.5096     64.584    24.357
89.7970     64.585    20.822
91.1031     64.569    17.389
92.4282     64.553    14.140
93.7726     64.550    10.934
95.1366     64.556     7.802
96.5204     64.578     4.727
97.9243     64.621     1.701
99.3486     64.681    -1.447
100.794     64.735    -4.618
102.260     64.794    -7.872
103.747     64.851   -11.101
105.256     64.921   -14.593
106.787     64.952   -18.094
108.340     64.968   -21.555
109.916     64.989   -24.799
111.515     65.031   -28.035
113.137     65.080   -31.441
114.783     65.113   -34.836
116.452     65.142   -38.246
118.146     65.165   -41.663
119.865     65.183   -44.943
121.608     65.221   -48.217
123.377     65.271   -51.552
125.171     65.329   -54.979
126.992     65.371   -58.510
128.839     65.417   -61.983
130.713     65.462   -65.506
132.615     65.511   -69.047
134.543     65.561   -72.716
136.500     65.618   -76.442
138.486     65.669   -79.902
140.500     65.729   -83.680
142.544     65.777   -88.029
144.617     65.748   -91.920
146.721     65.752   -95.391
148.855     65.816   -99.194
151.020     65.879  -103.389
153.217     65.882  -107.762
155.445     65.778  -111.955
157.706     65.709  -114.985
160.000     65.780  -118.447
162.327     65.877  -122.340
164.688     65.953  -126.215
167.084     66.075  -130.540
169.514     66.110  -136.607
171.980     65.836  -141.169
174.481     65.793  -144.421
177.019     65.774  -148.472
179.594     65.665  -152.486
182.206     65.637  -156.087
184.856     65.651  -160.210
187.545     65.643  -164.297
190.273     65.563  -168.249
193.041     65.553  -171.843
195.849     65.599  -175.466
198.697     65.690   179.985
201.587     65.648   175.478
204.520     65.677   171.457
207.494     65.710   166.927
210.512     65.688   161.991
213.574     65.542   157.492
216.681     65.486   154.440
219.833     65.598   150.574
223.030     65.673   145.838
226.274     65.673   140.888
229.565     65.581   136.396
232.905     65.577   132.569
236.292     65.601   128.577
239.729     65.699   124.126
243.216     65.740   119.122
246.754     65.707   114.604
250.343     65.744   109.855
253.984     65.713   104.923
257.678     65.682   100.254
261.426     65.546    95.374
265.229     65.499    91.968
269.087     65.584    87.717
273.001     65.666    83.212
276.972     65.624    78.292
281.000     65.609    74.384
285.088     65.685    69.991
289.234     65.881    65.455
293.441     66.012    59.101
297.709     65.796    53.836
302.040     65.906    48.862
306.433     65.608    43.094
310.890     65.539    39.328
315.412     65.402    34.840
320.000     65.445    31.050
324.655     65.399    26.443
329.377     65.517    22.485
334.168     65.682    16.140
339.028     65.477     9.719
343.959     65.395     5.341
348.962     65.386    -0.912
354.038     65.146    -5.886
359.188     65.048   -10.569
364.412     65.045   -15.704
369.713     64.965   -20.521
375.090     64.874   -26.444
380.546     64.707   -31.082
386.081     64.657   -35.849
391.697     64.406   -41.325
397.394     64.231   -44.338
403.175     64.257   -48.701
409.039     64.104   -53.231
414.989     63.972   -56.898
421.025     63.805   -60.930
427.149     63.596   -63.992
433.362     63.529   -66.322
439.665     63.466   -69.149
446.060     63.327   -71.945
452.548     63.273   -73.542
459.131     63.266   -75.735
465.809     63.315   -77.519
472.584     63.309   -80.050
479.458     63.245   -81.364
486.432     63.371   -82.939
493.507     63.421   -85.084
500.686     63.420   -86.784
507.968     63.501   -88.439
515.357     63.531   -90.215
522.853     63.590   -91.878
530.458     63.647   -93.786
538.174     63.665   -95.676
546.002     63.679   -97.447
553.943     63.692   -99.221
562.001     63.680  -101.117
570.175     63.677  -103.031
578.469     63.656  -105.144
586.883     63.593  -107.126
595.419     63.526  -109.010
604.080     63.458  -111.081
612.866     63.366  -113.160
621.780     63.263  -115.287
630.824     63.150  -117.483
640.000     63.030  -119.692
649.309     62.904  -121.829
658.753     62.772  -123.906
668.335     62.634  -125.952
678.056     62.498  -127.886
687.919     62.363  -129.743
697.925     62.233  -131.523
708.077     62.112  -133.202
718.376     62.002  -134.820
728.825     61.903  -136.390
739.426     61.820  -137.926
750.181     61.753  -139.447
761.093     61.704  -140.975
772.163     61.673  -142.509
783.394     61.660  -144.095
794.789     61.663  -145.785
806.349     61.681  -147.548
818.078     61.710  -149.429
829.977     61.747  -151.445
842.050     61.788  -153.609
854.298     61.829  -155.926
866.724     61.863  -158.361
879.330     61.887  -160.979
892.120     61.895  -163.727
905.097     61.879  -166.582
918.262     61.837  -169.507
931.618     61.762  -172.454
945.169     61.652  -175.361
958.917     61.506  -178.153
972.864     61.324   179.258
987.015     61.114   176.970
1001.37     60.880   175.063
1015.94     60.650   173.656
1030.71     60.455   172.805
1045.71     60.324   172.461
1060.92     60.294   172.496
1076.35     60.392   172.654
1092.00     60.625   172.605
1107.89     60.980   172.019
1124.00     61.418   170.656
1140.35     61.897   168.397
1156.94     62.377   165.204
1173.77     62.818   161.179
1190.84     63.192   156.446
1208.16     63.480   151.151
1225.73     63.667   145.377
1243.56     63.742   139.272
1261.65     63.695   133.051
1280.00     63.522   126.878
1298.62     63.223   120.929
1317.51     62.795   115.345
1336.67     62.247   110.367
1356.11     61.601   106.296
1375.84     60.890   103.361
1395.85     60.174   101.769
1416.15     59.540   101.560
1436.75     59.073   102.430
1457.65     58.826   103.793
1478.85     58.794   104.943
1500.36     58.919   105.342
1522.19     59.121   104.800
1544.33     59.333   103.390
1566.79     59.513   101.322
1589.58     59.642    98.834
1612.70     59.718    96.145
1636.16     59.750    93.361
1659.95     59.747    90.550
1684.10     59.715    87.740
1708.60     59.656    84.945
1733.45     59.572    82.213
1758.66     59.462    79.551
1784.24     59.332    77.036
1810.19     59.194    74.728
1836.52     59.059    72.598
1863.24     58.943    70.615
1890.34     58.854    68.699
1917.83     58.793    66.758
1945.73     58.758    64.716
1974.03     58.747    62.495
2002.74     58.756    60.030
2031.87     58.783    57.205
2061.43     58.810    53.875
2091.41     58.808    49.895
2121.83     58.733    45.224
2152.69     58.540    40.021
2184.01     58.186    34.464
2215.77     57.648    28.884
2248.00     56.926    23.677
2280.70     56.043    19.134
2313.87     55.020    15.381
2347.53     53.863    12.421
2381.68     52.538    10.349
2416.32     50.957     9.747
2451.46     49.086    12.305
2487.12     47.201    20.731
2523.30     46.158    35.306
2560.00     46.498    49.172
2597.24     47.440    56.598
2635.01     48.166    59.258
2673.34     48.496    60.558
2712.23     48.603    62.598
2751.68     48.748    65.664
2791.70     49.046    68.728
2832.31     49.421    71.007
2873.50     49.774    72.712
2915.30     50.119    74.340
2957.70     50.526    75.841
3000.72     50.998    76.669
3044.37     51.448    76.533
3088.65     51.787    75.765
3133.58     51.989    75.077
3179.16     52.128    75.089
3225.40     52.336    75.824
3272.31     52.702    76.434
3319.91     53.146    75.848
3368.20     53.463    73.990
3417.19     53.524    72.115
3466.89     53.435    71.770
3517.32     53.483    73.064
3568.48     53.785    74.233
3620.39     54.133    74.258
3673.05     54.385    74.226
3726.47     54.710    75.060
3780.67     55.286    75.484
3835.67     55.946    73.946
3891.46     56.432    70.965
3948.06     56.726    67.967
4005.49     56.966    65.374
4063.75     57.215    62.654
4122.86     57.423    59.447
4182.82     57.520    55.798
4243.66     57.435    52.166
4305.39     57.193    49.569
4368.01     56.977    48.363
4431.55     56.887    47.501
4496.01     56.812    46.552
4561.40     56.777    46.048
4627.75     56.854    45.110
4695.06     56.816    43.366
4763.35     56.647    42.743
4832.64     56.671    42.805
4902.93     56.671    41.503
4974.24     56.374    41.660
5046.60     56.451    44.952
5120.00     57.125    45.949
5194.47     57.651    43.553
5270.03     57.933    41.044
5346.68     58.254    38.310
5424.45     58.486    33.861
5503.35     58.296    28.618
5583.40     57.706    25.916
5664.61     57.347    26.587
5747.01     57.376    26.620
5830.60     57.416    25.439
5915.41     57.402    23.196
6001.45     57.046    21.024
6088.74     56.712    21.573
6177.30     56.606    21.543
6267.15     56.322    22.206
6358.31     56.292    24.492
6450.80     56.535    26.730
6544.62     57.192    27.210
6639.82     57.671    24.071
6736.40     57.919    20.964
6834.38     58.074    16.209
6933.79     57.753    11.092
7034.64     57.023     8.224
7136.96     56.446     9.787
7240.77     56.396    10.510
7346.09     56.311    10.206
7452.94     56.095     8.604
7561.35     55.674    10.158
7671.33     55.822    11.351
7782.91     55.963    10.689
7896.12     55.914     7.271
8010.97     55.210     4.524
8127.49     53.895     6.882
8245.71     53.776    17.776
8365.65     54.741    21.505
8487.33     55.584    19.122
8610.78     55.597    13.612
8736.03     55.004     8.994
8863.09     53.886     6.786
8992.01     52.200    11.149
9122.80     51.987    23.403
9255.50     52.807    29.657
9390.12     53.628    31.066
9526.70     54.397    29.441
9665.27     54.624    26.970
9805.86     54.809    25.453
9948.49     55.148    25.085
10093.2     55.652    23.548
10240.0     56.125    20.284
10388.9     56.492    16.472
10540.1     56.747    12.440
10693.4     56.835     7.313
10848.9     56.764     2.833
11006.7     56.683    -1.678
11166.8     56.328    -7.502
11329.2     55.496   -11.816
11494.0     54.635   -11.860
11661.2     54.382   -10.533
11830.8     54.324   -12.143
12002.9     53.773   -15.900
12177.5     52.796   -15.241
12354.6     52.538   -10.818
12534.3     52.880   -10.227
12716.6     52.889   -14.226
12901.6     52.050   -18.042
13089.2     50.591   -16.563
13279.6     49.972    -5.033
13472.8     51.112     0.641
13668.8     51.680    -1.783
13867.6     51.610    -2.100
14069.3     51.943    -0.530
14273.9     52.521    -1.858
14481.5     52.854    -5.569
14692.2     52.864    -8.573
14905.9     53.042   -11.845
15122.7     53.099   -15.955
15342.7     53.059   -21.972
15565.8     52.446   -27.749
15792.2     51.850   -30.016
16021.9     51.689   -33.612
16255.0     51.241   -40.813
16491.4     50.064   -47.322
16731.3     48.736   -50.952
16974.7     47.350   -53.819
17221.6     45.500   -56.373
17472.1     43.035   -51.790
17726.2     41.472   -37.288
17984.0     41.789   -25.426
18245.6     42.099   -20.176
18511.0     42.647   -17.446
18780.2     43.118   -18.933
19053.4     42.928   -21.885
19330.5     42.696   -22.442
19611.7     42.498   -26.325
19897.0     41.646   -31.305
20186.4     40.400   -32.540
20480.0     39.332   -33.197
20777.9     36.970   -33.491
21080.1     35.492   -19.888
21386.7     35.886    -8.845
21697.8     35.958    -5.451
22013.4     36.206     3.546
22333.6     37.431     3.932
22658.4     37.825     2.192
22988.0     38.305    -3.084
23322.4     38.252   -10.063
23661.6     37.656   -19.630
24005.8     36.516   -25.687
24355.0     34.996   -30.719
24709.2     33.468   -36.699
25068.6     31.210   -41.317
25433.2     28.870   -40.009
25803.2     26.009   -36.637
26178.5     23.925   -28.792
26559.3     22.495   -11.192
26945.6     22.137     0.434
27337.5     21.496     7.181
27735.2     16.434     2.349
28138.6     15.410    83.253
28547.9     23.315    82.930
28963.1     25.855    72.840
29384.4     27.958    64.758
29811.8     29.155    53.019
30245.4     29.170    38.322
30685.3     28.136    26.782
31131.7     26.594    11.311
31584.5     24.693    10.526
32043.9     22.218    -0.164
32510.0     17.076    -3.891
32982.8      5.397    30.593
33462.6     10.437    95.125
33949.3     20.102    90.388
34443.1     23.535    73.047
34944.1     26.984    48.978
35452.4     30.653     6.593
35968.0     32.402   -41.991
36491.2     33.776   -92.548
37022.0     33.743  -142.640
37560.5     33.450   169.634
38106.8     25.439   101.877
38661.1     16.987  -100.427
39223.4     32.841  -161.630
39793.9     39.975   127.441
