Freq[Hz]     dBSPL  Phase[Deg]
5.00000    -13.576    38.339
5.07273    -14.017    43.835
5.14651    -14.220    49.917
5.22137    -13.758    57.638
5.29732    -13.296    65.358
5.37437    -12.834    73.079
5.45254    -12.372    80.799
5.53185    -11.788    85.872
5.61231    -11.077    88.146
5.69394    -10.366    90.419
5.77676     -9.654    92.692
5.86079     -8.951    94.923
5.94604     -8.741    94.705
6.03252     -8.530    94.487
6.12027     -8.320    94.268
6.20929     -8.109    94.049
6.29961     -8.477    94.350
6.39124     -8.972    94.765
6.48420     -9.468    95.180
6.57851     -9.964    95.595
6.67420    -11.031   103.423
6.77128    -12.190   112.455
6.86977    -13.350   121.487
6.96969    -14.234   131.113
7.07107    -13.016   145.259
7.17392    -11.798   159.405
7.27827    -10.580   173.551
7.38413     -9.327  -179.614
7.49154     -8.048  -178.427
7.60050     -6.769  -177.240
7.71105     -5.671  -176.612
7.82321     -5.369  -178.444
7.93701     -5.066   179.724
8.05245     -4.764   177.892
8.16958     -5.602   177.401
8.28841     -6.483   176.960
8.40896     -7.363   176.518
8.53128     -9.188  -166.654
8.65537    -11.135  -147.598
8.78126    -13.082  -128.543
8.90899    -10.333  -111.849
9.03857     -7.275   -95.309
9.17004     -4.364   -80.678
9.30342     -2.616   -81.227
9.43874     -0.868   -81.777
9.57603      0.418   -82.511
9.71532      0.998   -83.526
9.85663      1.578   -84.542
10.0000      1.577   -81.282
10.1455      1.415   -76.833
10.2930      1.513   -70.426
10.4427      2.338   -58.554
10.5946      3.163   -46.683
10.7487      5.031   -41.064
10.9051      7.108   -36.692
11.0637      8.997   -35.885
11.2246     10.688   -38.848
11.3879     12.245   -42.479
11.5535     13.317   -48.541
11.7216     14.380   -54.628
11.8921     14.853   -62.199
12.0650     15.327   -69.770
12.2405     15.213   -78.098
12.4186     15.023   -86.524
12.5992     14.061   -95.260
12.7825     12.927  -104.065
12.9684     10.067  -111.991
13.1570      6.806  -119.713
13.3484      3.117   -59.754
13.5426     -0.642    11.195
13.7395      5.950    10.895
13.9394     12.429     7.047
14.1421     15.032    -2.925
14.3478     17.233   -13.136
14.5565     18.570   -23.859
14.7683     19.466   -34.664
14.9831     20.022   -45.532
15.2010     20.012   -56.148
15.4221     19.776   -66.529
15.6464     18.967   -76.063
15.8740     17.667   -83.953
16.1049     15.975   -90.530
16.3392     13.251   -87.709
16.5768     11.143   -75.560
16.8179      9.985   -50.373
17.0626     12.193   -35.640
17.3107     14.593   -28.082
17.5625     16.624   -29.394
17.8180     17.768   -33.757
18.0771     18.526   -38.049
18.3401     18.931   -41.831
18.6068     19.022   -43.610
18.8775     19.095   -43.354
19.1521     19.256   -41.738
19.4306     19.581   -39.141
19.7133     20.134   -36.664
20.0000     20.746   -34.789
20.2909     21.362   -33.225
20.5860     21.969   -31.743
20.8855     22.588   -30.105
21.1893     23.292   -28.470
21.4975     24.066   -27.420
21.8102     24.842   -27.206
22.1274     25.547   -27.790
22.4492     26.117   -28.851
22.7758     26.531   -29.857
23.1071     26.820   -30.245
23.4432     27.074   -29.675
23.7841     27.409   -28.325
24.1301     27.870   -26.999
24.4811     28.393   -26.308
24.8372     28.878   -26.319
25.1984     29.254   -26.565
25.5649     29.525   -26.324
25.9368     29.785   -25.051
26.3141     30.181   -22.849
26.6968     30.807   -20.604
27.0851     31.618   -19.392
27.4791     32.468   -19.729
27.8788     33.208   -21.255
28.2843     33.782   -23.141
28.6957     34.215   -24.636
29.1131     34.586   -25.270
29.5365     34.998   -25.021
29.9661     35.524   -24.308
30.4020     36.174   -23.736
30.8442     36.894   -23.804
31.2929     37.604   -24.445
31.7480     38.263   -25.425
32.2098     38.867   -26.489
32.6783     39.429   -27.463
33.1536     39.968   -28.327
33.6359     40.493   -29.093
34.1251     41.010   -29.706
34.6215     41.536   -30.123
35.1250     42.099   -30.438
35.6359     42.714   -30.913
36.1543     43.350   -31.737
36.6802     43.967   -32.874
37.2137     44.547   -34.085
37.7550     45.120   -35.188
38.3041     45.712   -36.245
38.8613     46.320   -37.433
39.4265     46.922   -38.788
40.0000     47.507   -40.168
40.5818     48.089   -41.520
41.1721     48.675   -42.928
41.7710     49.251   -44.419
42.3785     49.814   -45.905
42.9949     50.383   -47.371
43.6203     50.960   -48.948
44.2548     51.527   -50.708
44.8985     52.073   -52.492
45.5515     52.624   -54.247
46.2141     53.191   -56.156
46.8863     53.742   -58.329
47.5683     54.251   -60.537
48.2602     54.754   -62.589
48.9621     55.278   -64.682
49.6743     55.798   -67.009
50.3968     56.284   -69.442
51.1299     56.752   -71.824
51.8736     57.220   -74.230
52.6281     57.680   -76.761
53.3936     58.121   -79.377
54.1702     58.547   -82.045
54.9581     58.961   -84.778
55.7575     59.359   -87.564
56.5685     59.740   -90.396
57.3914     60.099   -93.269
58.2261     60.431   -96.120
59.0730     60.744   -98.909
59.9323     61.041  -101.712
60.8040     61.308  -104.528
61.6884     61.555  -107.276
62.5857     61.795  -110.070
63.4960     62.003  -112.994
64.4196     62.166  -115.837
65.3566     62.310  -118.448
66.3073     62.454  -120.935
67.2717     62.575  -123.329
68.2502     62.682  -125.358
69.2429     62.830  -127.247
70.2501     62.946  -129.369
71.2719     63.033  -130.924
72.3086     63.231  -132.678
73.3603     63.339  -135.254
74.4274     63.349  -137.160
75.5099     63.428  -138.854
76.6083     63.484  -140.579
77.7226     63.566  -142.063
78.8531     63.647  -143.630
80.0000     63.723  -145.050
81.1636     63.797  -146.483
82.3442     63.862  -147.858
83.5419     63.910  -149.243
84.7570     63.956  -150.420
85.9899     64.016  -151.668
87.2406     64.050  -152.870
88.5096     64.080  -153.928
89.7970     64.099  -154.924
91.1031     64.100  -155.783
92.4282     64.102  -156.424
93.7726     64.118  -156.987
95.1366     64.142  -157.438
96.5204     64.182  -157.797
97.9243     64.244  -158.071
99.3486     64.322  -158.429
100.794     64.395  -158.772
102.260     64.474  -159.159
103.747     64.549  -159.483
105.256     64.638  -160.031
106.787     64.688  -160.547
108.340     64.723  -160.983
109.916     64.764  -161.159
111.515     64.825  -161.287
113.137     64.893  -161.543
114.783     64.945  -161.743
116.452     64.993  -161.916
118.146     65.035  -162.050
119.865     65.072  -162.003
121.608     65.129  -161.906
123.377     65.198  -161.821
125.171     65.274  -161.783
126.992     65.335  -161.800
128.839     65.399  -161.711
130.713     65.463  -161.622
132.615     65.530  -161.503
134.543     65.598  -161.384
136.500     65.673  -161.237
138.486     65.740  -161.178
140.500     65.816  -161.087
142.544     65.882  -161.220
144.617     65.869  -161.247
146.721     65.888  -160.856
148.855     65.968  -160.449
151.020     66.047  -160.435
153.217     66.064  -160.602
155.445     65.975  -160.591
157.706     65.919  -159.418
160.000     66.003  -158.328
162.327     66.113  -157.673
164.688     66.200  -157.349
167.084     66.334  -157.128
169.514     66.380  -158.300
171.980     66.117  -157.970
174.481     66.082  -156.678
177.019     66.072  -156.187
179.594     65.970  -155.310
182.206     65.949  -153.672
184.856     65.970  -152.556
187.545     65.967  -151.754
190.273     65.892  -150.467
193.041     65.885  -148.823
195.849     65.934  -147.206
198.697     66.026  -146.166
201.587     65.985  -145.084
204.520     66.013  -143.515
207.494     66.045  -142.453
210.512     66.020  -141.446
213.574     65.870  -140.000
216.681     65.809  -137.455
219.833     65.915  -135.372
223.030     65.982  -133.806
226.274     65.973  -132.450
229.565     65.869  -130.633
232.905     65.854  -128.147
236.292     65.865  -125.822
239.729     65.948  -123.600
243.216     65.972  -121.925
246.754     65.921  -119.757
250.343     65.939  -117.463
253.984     65.886  -115.344
257.678     65.833  -112.954
261.426     65.672  -110.413
265.229     65.599  -106.387
269.087     65.656  -103.196
273.001     65.709  -100.248
276.972     65.638   -97.702
281.000     65.590   -93.777
285.088     65.632   -89.964
289.234     65.791   -86.277
293.441     65.887   -84.391
297.709     65.633   -81.397
302.040     65.706   -78.094
306.433     65.369   -75.203
310.890     65.259   -69.926
315.412     65.083   -65.346
320.000     65.087   -60.042
324.655     65.003   -55.532
329.377     65.085   -50.346
334.168     65.214   -46.787
339.028     64.976   -43.278
343.959     64.866   -37.699
348.962     64.833   -33.972
354.038     64.574   -28.946
359.188     64.463   -23.243
364.412     64.454   -17.609
369.713     64.377   -11.653
375.090     64.296    -6.808
380.546     64.148    -0.321
386.081     64.126     6.012
391.697     63.915    11.968
397.394     63.787    20.705
403.175     63.866    27.664
409.039     63.774    34.748
414.989     63.706    42.979
421.025     63.607    50.756
427.149     63.464    59.418
433.362     63.458    68.727
439.665     63.454    78.159
446.060     63.366    87.546
452.548     63.352    98.067
459.131     63.375   108.286
465.809     63.440   119.219
472.584     63.437   129.382
479.458     63.361   140.755
486.432     63.460   152.218
493.507     63.468   163.478
500.686     63.411   175.564
507.968     63.423  -172.253
515.357     63.372  -160.129
522.853     63.340  -147.470
530.458     63.295  -134.623
538.174     63.205  -121.667
546.002     63.107  -108.493
553.943     63.005   -94.865
562.001     62.876   -80.892
570.175     62.757   -66.464
578.469     62.626   -51.762
586.883     62.464   -36.825
595.419     62.312   -21.701
604.080     62.176    -6.320
612.866     62.034     9.476
621.780     61.904    25.621
630.824     61.789    42.056
640.000     61.693    58.427
649.309     61.615    74.779
658.753     61.553    91.431
668.335     61.505   108.675
678.056     61.470   125.835
687.919     61.442   143.214
697.925     61.418   160.800
708.077     61.391   178.273
718.376     61.358  -164.042
728.825     61.312  -146.130
739.426     61.252  -127.969
750.181     61.173  -109.530
761.093     61.073   -90.780
772.163     60.955   -71.995
783.394     60.819   -52.825
794.789     60.665   -32.921
806.349     60.503   -12.886
818.078     60.336     7.616
829.977     60.172    28.588
842.050     60.019    50.020
854.298     59.884    71.877
866.724     59.774    93.783
879.330     59.688   116.328
892.120     59.628   139.112
905.097     59.588   162.067
918.262     59.560  -174.863
931.618     59.532  -151.718
945.169     59.492  -128.511
958.917     59.425  -105.235
972.864     59.319   -81.858
987.015     59.161   -58.328
1001.37     58.930   -34.269
1015.94     58.623    -9.893
1030.71     58.235    14.617
1045.71     57.746    40.028
1060.92     57.149    66.556
1076.35     56.458    93.841
1092.00     55.683   122.543
1107.89     54.855   153.441
1124.00     54.076  -173.400
1140.35     53.497  -137.879
1156.94     53.291  -100.210
1173.77     53.557   -62.233
1190.84     54.223   -25.484
1208.16     55.106     9.258
1225.73     56.045    42.331
1243.56     56.924    74.100
1261.65     57.672   104.694
1280.00     58.260   134.543
1298.62     58.674   163.991
1317.51     58.912  -166.388
1336.67     58.963  -136.342
1356.11     58.824  -105.895
1375.84     58.490   -74.469
1395.85     57.966   -41.712
1416.15     57.274    -7.497
1436.75     56.466    28.632
1457.65     55.628    67.428
1478.85     54.911   108.995
1500.36     54.483   152.373
1522.19     54.409  -163.362
1544.33     54.616  -119.462
1566.79     54.942   -76.453
1589.58     55.246   -34.117
1612.70     55.453     7.789
1636.16     55.561    50.189
1659.95     55.610    93.479
1684.10     55.666   137.755
1708.60     55.778  -177.227
1733.45     55.953  -132.235
1758.66     56.146   -86.957
1784.24     56.281   -41.790
1810.19     56.286     3.215
1836.52     56.124    49.219
1863.24     55.805    96.548
1890.34     55.402   145.790
1917.83     55.050  -162.857
1945.73     54.890  -109.894
1974.03     54.971   -56.085
2002.74     55.204    -2.773
2031.87     55.435    49.798
2061.43     55.545   102.073
2091.41     55.496   155.111
2121.83     55.327  -150.443
2152.69     55.137   -95.015
2184.01     55.012   -38.306
2215.77     54.962    18.956
2248.00     54.904    75.878
2280.70     54.712   132.480
2313.87     54.286  -170.380
2347.53     53.593  -111.872
2381.68     52.680   -51.473
2416.32     51.653    11.666
2451.46     50.642    77.516
2487.12     49.721   145.619
2523.30     48.907  -144.335
2560.00     48.250   -72.422
2597.24     47.855     0.324
2635.01     47.693    72.650
2673.34     47.483   143.488
2712.23     46.864  -146.279
2751.68     45.641   -73.428
2791.70     44.110     5.702
2832.31     43.267    91.424
2873.50     43.520   175.741
2915.30     43.759  -105.784
2957.70     43.071   -28.065
3000.72     41.641    56.681
3044.37     41.173   150.978
3088.65     42.434  -118.843
3133.58     43.489   -39.325
3179.16     43.215    36.894
3225.40     41.648   117.799
3272.31     39.950  -151.377
3319.91     39.591   -58.279
3368.20     39.390    25.160
3417.19     37.513   101.559
3466.89     33.082   179.837
3517.32     26.913   -88.247
3568.48     24.361   -10.997
3620.39     28.828    25.939
3673.05     34.612    82.351
3726.47     37.281   156.782
3780.67     37.715  -112.409
3835.67     38.561    -6.174
3891.46     40.608    96.633
3948.06     41.345  -167.608
4005.49     40.031   -63.830
4063.75     39.388    59.304
4122.86     41.052   177.379
4182.82     41.423   -73.283
4243.66     40.589    48.483
4305.39     41.664   177.852
4368.01     43.150   -62.115
4431.55     43.628    60.561
4496.01     44.860  -171.588
4561.40     46.438   -49.381
4627.75     47.082    72.296
4695.06     47.606  -160.520
4763.35     48.460   -33.956
4832.64     48.707    91.061
4902.93     48.240  -139.454
4974.24     47.644    -3.992
5046.60     47.220   136.363
5120.00     47.348   -80.080
5194.47     47.691    62.579
5270.03     47.712  -153.644
5346.68     47.733    -6.186
5424.45     48.011   143.604
5503.35     48.283   -67.444
5583.40     47.728    83.905
5664.61     47.450  -113.955
5747.01     48.480    45.894
5830.60     48.855  -157.543
5915.41     49.051     1.846
6001.45     48.217   161.415
6088.74     47.282   -24.066
6177.30     47.974   146.737
6267.15     46.972   -38.214
6358.31     48.122   144.429
6450.80     48.241   -42.701
6544.62     48.696   142.456
6639.82     49.203   -42.558
6736.40     48.433   145.761
6834.38     49.032   -29.638
6933.79     47.826   163.099
7034.64     48.672    -1.468
7136.96     47.932  -165.982
7240.77     48.665    33.267
7346.09     47.430  -126.815
7452.94     47.777    81.795
7561.35     46.759   -69.228
7671.33     47.664   145.634
7782.91     46.978    -2.498
7896.12     47.284  -145.881
8010.97     45.929    74.449
8127.49     45.642   -58.716
8245.71     44.825   176.856
8365.65     45.435    49.534
8487.33     45.489   -73.104
8610.78     45.764   160.351
8736.03     45.264    38.155
8863.09     43.997   -84.536
8992.01     41.550   166.695
9122.80     39.246    69.187
9255.50     39.604   -17.908
9390.12     40.088  -109.160
9526.70     40.853   151.566
9665.27     41.061    59.558
9805.86     39.869   -28.464
9948.49     39.499  -112.353
10093.2     39.570   177.845
10240.0     39.619   108.491
10388.9     40.529    35.258
10540.1     41.664   -33.002
10693.4     41.429   -98.530
10848.9     40.637  -163.262
11006.7     40.474   142.396
11166.8     39.760    94.241
11329.2     38.633    54.448
11494.0     38.345    19.333
11661.2     39.089   -13.436
11830.8     39.413   -43.750
12002.9     39.069   -69.501
12177.5     38.488   -89.038
12354.6     38.533  -102.013
12534.3     38.691  -111.365
12716.6     38.723  -115.836
12901.6     38.546  -114.817
13089.2     38.481  -105.615
13279.6     39.533   -91.666
13472.8     40.386   -79.662
13668.8     40.837   -62.509
13867.6     40.867   -38.740
14069.3     41.030    -8.904
14273.9     41.250    25.430
14481.5     41.424    66.632
14692.2     41.581   109.904
14905.9     41.018   159.855
15122.7     40.795  -138.572
15342.7     41.106   -76.789
15565.8     40.684    -9.884
15792.2     40.114    64.365
16021.9     39.469   144.668
16255.0     38.730  -128.317
16491.4     37.393   -35.760
16731.3     35.697    65.652
16974.7     33.929   176.537
17221.6     31.855   -63.860
17472.1     29.281    64.824
17726.2     26.184  -151.301
17984.0     24.569    15.064
18245.6     26.218   178.925
18511.0     27.507   -25.551
18780.2     27.282   133.682
19053.4     26.584   -53.152
19330.5     26.689   130.363
19611.7     26.589   -45.526
19897.0     25.593   149.558
20186.4     24.893    -5.086
20480.0     25.094  -150.397
20777.9     23.359    70.944
21080.1     22.114   -46.559
21386.7     23.911  -160.547
21697.8     24.717    79.300
22013.4     25.098   -29.644
22333.6     25.007  -127.829
22658.4     25.501   141.678
22988.0     25.191    57.193
23322.4     24.269   -23.016
23661.6     23.474   -85.330
24005.8     21.825  -141.891
24355.0     20.217   172.577
24709.2     18.020   135.685
25068.6     16.364   111.582
25433.2     13.753    94.441
25803.2     11.373   111.776
26178.5      8.396   128.433
26559.3      5.608   172.203
26945.6      7.694  -147.623
27337.5      8.942  -108.627
27735.2      8.140   -40.490
28138.6      4.142    65.578
28547.9      7.948  -163.791
28963.1     13.273   -96.054
29384.4     16.097    -2.448
29811.8     17.233    89.386
30245.4     16.442  -159.510
30685.3     13.729   -43.466
31131.7     13.399    83.285
31584.5      9.684  -126.731
32043.9      5.536    27.882
32510.0     -1.007  -173.898
32982.8      1.617    90.463
33462.6     -0.275  -134.719
33949.3      3.250    92.870
34443.1     -0.629   -98.966
34944.1      6.121    25.084
35452.4      9.599  -119.537
35968.0     13.528   106.397
36491.2     16.686   -19.509
37022.0     16.742  -112.565
37560.5     18.453   169.679
38106.8     14.453    93.527
38661.1      3.862   -67.019
39223.4     12.592   161.324
39793.9     19.845   133.521
