Freq[Hz]     dBSPL  Phase[Deg]
5.00000    -13.950    38.516
5.07273    -14.390    44.015
5.14651    -14.593    50.100
5.22137    -14.131    57.823
5.29732    -13.669    65.547
5.37437    -13.207    73.270
5.45254    -12.745    80.993
5.53185    -12.161    86.069
5.61231    -11.450    88.345
5.69394    -10.738    90.621
5.77676    -10.027    92.897
5.86079     -9.323    95.131
5.94604     -9.113    94.916
6.03252     -8.902    94.701
6.12027     -8.692    94.486
6.20929     -8.481    94.270
6.29961     -8.849    94.574
6.39124     -9.344    94.992
6.48420     -9.839    95.411
6.57851    -10.335    95.829
6.67420    -11.402   103.661
6.77128    -12.561   112.696
6.86977    -13.721   121.731
6.96969    -14.604   131.361
7.07107    -13.386   145.510
7.17392    -12.168   159.660
7.27827    -10.950   173.809
7.38413     -9.697  -179.351
7.49154     -8.418  -178.160
7.60050     -7.138  -176.969
7.71105     -6.040  -176.338
7.82321     -5.738  -178.166
7.93701     -5.435  -179.994
8.05245     -5.133   178.178
8.16958     -5.971   177.691
8.28841     -6.851   177.254
8.40896     -7.731   176.817
8.53128     -9.556  -166.350
8.65537    -11.503  -147.290
8.78126    -13.450  -128.231
8.90899    -10.700  -111.532
9.03857     -7.642   -94.988
9.17004     -4.731   -80.351
9.30342     -2.982   -80.896
9.43874     -1.234   -81.441
9.57603      0.052   -82.170
9.71532      0.633   -83.180
9.85663      1.213   -84.191
10.0000      1.212   -80.926
10.1455      1.050   -76.471
10.2930      1.149   -70.060
10.4427      1.974   -58.183
10.5946      2.799   -46.306
10.7487      4.668   -40.681
10.9051      6.745   -36.304
11.0637      8.634   -35.491
11.2246     10.325   -38.449
11.3879     11.882   -42.073
11.5535     12.956   -48.129
11.7216     14.019   -54.211
11.8921     14.493   -61.775
12.0650     14.967   -69.341
12.2405     14.853   -77.662
12.4186     14.664   -86.081
12.5992     13.702   -94.811
12.7825     12.569  -103.609
12.9684      9.709  -111.529
13.1570      6.448  -119.244
13.3484      2.760   -59.278
13.5426     -0.998    11.679
13.7395      5.594    11.385
13.9394     12.074     7.544
14.1421     14.678    -2.420
14.3478     16.879   -12.624
14.5565     18.216   -23.340
14.7683     19.113   -34.137
14.9831     19.670   -44.997
15.2010     19.661   -55.605
15.4221     19.425   -65.978
15.6464     18.618   -75.504
15.8740     17.318   -83.386
16.1049     15.627   -89.954
16.3392     12.904   -87.125
16.5768     10.796   -74.968
16.8179      9.639   -49.772
17.0626     11.848   -35.030
17.3107     14.249   -27.463
17.5625     16.281   -28.766
17.8180     17.425   -33.119
18.0771     18.184   -37.402
18.3401     18.590   -41.175
18.6068     18.682   -42.944
18.8775     18.756   -42.679
19.1521     18.919   -41.052
19.4306     19.245   -38.446
19.7133     19.798   -35.958
20.0000     20.411   -34.073
20.2909     21.029   -32.499
20.5860     21.637   -31.005
20.8855     22.257   -29.356
21.1893     22.963   -27.711
21.4975     23.738   -26.650
21.8102     24.515   -26.424
22.1274     25.220   -26.996
22.4492     25.793   -28.046
22.7758     26.209   -29.041
23.1071     26.499   -29.416
23.4432     26.754   -28.834
23.7841     27.091   -27.472
24.1301     27.552   -26.133
24.4811     28.078   -25.430
24.8372     28.565   -25.428
25.1984     28.942   -25.660
25.5649     29.214   -25.406
25.9368     29.477   -24.120
26.3141     29.874   -21.905
26.6968     30.502   -19.646
27.0851     31.315   -18.420
27.4791     32.167   -18.743
27.8788     32.909   -20.255
28.2843     33.486   -22.127
28.6957     33.920   -23.607
29.1131     34.292   -24.225
29.5365     34.706   -23.961
29.9661     35.235   -23.233
30.4020     35.888   -22.646
30.8442     36.610   -22.698
31.2929     37.322   -23.323
31.7480     37.984   -24.287
32.2098     38.590   -25.335
32.6783     39.154   -26.292
33.1536     39.696   -27.140
33.6359     40.223   -27.889
34.1251     40.743   -28.485
34.6215     41.272   -28.884
35.1250     41.837   -29.182
35.6359     42.455   -29.639
36.1543     43.095   -30.445
36.6802     43.714   -31.565
37.2137     44.297   -32.758
37.7550     44.873   -33.843
38.3041     45.469   -34.881
38.8613     46.081   -36.050
39.4265     46.685   -37.386
40.0000     47.273   -38.747
40.5818     47.858   -40.079
41.1721     48.448   -41.468
41.7710     49.028   -42.940
42.3785     49.595   -44.406
42.9949     50.166   -45.852
43.6203     50.747   -47.408
44.2548     51.318   -49.149
44.8985     51.868   -50.912
45.5515     52.422   -52.647
46.2141     52.994   -54.534
46.8863     53.549   -56.687
47.5683     54.061   -58.874
48.2602     54.568   -60.905
48.9621     55.097   -62.977
49.6743     55.621   -65.283
50.3968     56.111   -67.695
51.1299     56.583   -70.055
51.8736     57.057   -72.439
52.6281     57.520   -74.949
53.3936     57.966   -77.544
54.1702     58.397   -80.190
54.9581     58.817   -82.901
55.7575     59.218   -85.666
56.5685     59.604   -88.476
57.3914     59.969   -91.327
58.2261     60.305   -94.156
59.0730     60.623   -96.924
59.9323     60.925   -99.705
60.8040     61.197  -102.499
61.6884     61.449  -105.225
62.5857     61.694  -107.998
63.4960     61.908  -110.901
64.4196     62.075  -113.722
65.3566     62.225  -116.312
66.3073     62.375  -118.777
67.2717     62.502  -121.151
68.2502     62.614  -123.159
69.2429     62.768  -125.027
70.2501     62.889  -127.129
71.2719     62.982  -128.664
72.3086     63.185  -130.397
73.3603     63.298  -132.954
74.4274     63.315  -134.839
75.5099     63.400  -136.513
76.6083     63.461  -138.219
77.7226     63.549  -139.685
78.8531     63.636  -141.233
80.0000     63.718  -142.634
81.1636     63.798  -144.049
82.3442     63.870  -145.406
83.5419     63.924  -146.773
84.7570     63.975  -147.933
85.9899     64.041  -149.164
87.2406     64.081  -150.349
88.5096     64.118  -151.391
89.7970     64.142  -152.371
91.1031     64.150  -153.216
92.4282     64.158  -153.841
93.7726     64.179  -154.389
95.1366     64.210  -154.827
96.5204     64.256  -155.172
97.9243     64.324  -155.432
99.3486     64.409  -155.777
100.794     64.487  -156.107
102.260     64.572  -156.483
103.747     64.654  -156.795
105.256     64.748  -157.331
106.787     64.805  -157.836
108.340     64.845  -158.262
109.916     64.891  -158.429
111.515     64.959  -158.547
113.137     65.033  -158.794
114.783     65.091  -158.986
116.452     65.144  -159.151
118.146     65.192  -159.278
119.865     65.235  -159.224
121.608     65.297  -159.119
123.377     65.371  -159.028
125.171     65.453  -158.984
126.992     65.519  -158.996
128.839     65.589  -158.903
130.713     65.657  -158.809
132.615     65.730  -158.686
134.543     65.803  -158.564
136.500     65.882  -158.413
138.486     65.954  -158.352
140.500     66.035  -158.259
142.544     66.106  -158.389
144.617     66.097  -158.416
146.721     66.120  -158.023
148.855     66.205  -157.615
151.020     66.288  -157.601
153.217     66.309  -157.768
155.445     66.224  -157.757
157.706     66.171  -156.585
160.000     66.260  -155.496
162.327     66.373  -154.842
164.688     66.463  -154.519
167.084     66.600  -154.300
169.514     66.649  -155.474
171.980     66.389  -155.145
174.481     66.358  -153.856
177.019     66.349  -153.367
179.594     66.250  -152.493
182.206     66.232  -150.857
184.856     66.255  -149.744
187.545     66.253  -148.945
190.273     66.180  -147.661
193.041     66.174  -146.020
195.849     66.225  -144.406
198.697     66.318  -143.369
201.587     66.278  -142.290
204.520     66.306  -140.723
207.494     66.338  -139.664
210.512     66.313  -138.660
213.574     66.163  -137.216
216.681     66.102  -134.672
219.833     66.206  -132.591
223.030     66.272  -131.026
226.274     66.262  -129.671
229.565     66.157  -127.853
232.905     66.140  -125.367
236.292     66.148  -123.040
239.729     66.229  -120.816
243.216     66.251  -119.138
246.754     66.196  -116.967
250.343     66.210  -114.667
253.984     66.153  -112.542
257.678     66.095  -110.143
261.426     65.930  -107.592
265.229     65.851  -103.554
269.087     65.902  -100.349
273.001     65.949   -97.385
276.972     65.872   -94.820
281.000     65.816   -90.872
285.088     65.850   -87.033
289.234     66.001   -83.315
293.441     66.088   -81.394
297.709     65.826   -78.362
302.040     65.889   -75.015
306.433     65.542   -72.073
310.890     65.421   -66.736
315.412     65.234   -62.091
320.000     65.227   -56.713
324.655     65.132   -52.120
329.377     65.204   -46.845
334.168     65.322   -43.180
339.028     65.074   -39.554
343.959     64.954   -33.849
348.962     64.913   -29.986
354.038     64.647   -24.815
359.188     64.529   -18.952
364.412     64.517   -13.146
369.713     64.437    -7.011
375.090     64.358    -1.984
380.546     64.214     4.693
386.081     64.199    11.214
391.697     63.997    17.358
397.394     63.883    26.279
403.175     63.978    33.403
409.039     63.904    40.642
414.989     63.858    49.012
421.025     63.780    56.908
427.149     63.660    65.666
433.362     63.678    75.049
439.665     63.699    84.538
446.060     63.635    93.961
452.548     63.644   104.498
459.131     63.689   114.716
465.809     63.775   125.632
472.584     63.790   135.765
479.458     63.730   147.097
486.432     63.845   158.509
493.507     63.866   169.708
500.686     63.819  -178.273
507.968     63.839  -166.162
515.357     63.795  -154.113
522.853     63.766  -141.533
530.458     63.723  -128.767
538.174     63.632  -115.890
546.002     63.532  -102.794
553.943     63.423   -89.240
562.001     63.286   -75.337
570.175     63.156   -60.971
578.469     63.011   -46.318
586.883     62.832   -31.415
595.419     62.662   -16.303
604.080     62.504    -0.909
612.866     62.340    14.929
621.780     62.188    31.151
630.824     62.052    47.701
640.000     61.936    64.222
649.309     61.844    80.757
658.753     61.772    97.623
668.335     61.721   115.113
678.056     61.690   132.529
687.919     61.675   150.171
697.925     61.673   168.014
708.077     61.678  -174.279
718.376     61.684  -156.389
728.825     61.688  -138.315
739.426     61.685  -120.046
750.181     61.670  -101.568
761.093     61.641   -82.860
772.163     61.597   -64.210
783.394     61.536   -45.282
794.789     61.456   -25.742
806.349     61.361    -6.186
818.078     61.250    13.715
829.977     61.126    33.978
842.050     60.991    54.616
854.298     60.848    75.640
866.724     60.702    96.737
879.330     60.551   118.538
892.120     60.401   140.724
905.097     60.255   163.289
918.262     60.115  -173.779
931.618     59.984  -150.495
945.169     59.864  -126.880
958.917     59.758  -102.961
972.864     59.666   -78.772
987.015     59.590   -54.355
1001.37     59.522   -29.444
1015.94     59.465    -4.410
1030.71     59.413    20.387
1045.71     59.354    45.524
1060.92     59.274    70.962
1076.35     59.161    96.086
1092.00     58.997   121.213
1107.89     58.761   146.677
1124.00     58.438   172.258
1140.35     58.006  -161.931
1156.94     57.442  -135.434
1173.77     56.731  -108.305
1190.84     55.862   -80.202
1208.16     54.838   -50.654
1225.73     53.683   -18.665
1243.56     52.508    16.549
1261.65     51.558    55.023
1280.00     51.123    95.771
1298.62     51.317   136.362
1317.51     51.957   174.972
1336.67     52.739  -149.062
1356.11     53.432  -115.541
1375.84     53.930   -83.330
1395.85     54.189   -51.706
1416.15     54.195   -20.369
1436.75     53.954    11.187
1457.65     53.481    43.704
1478.85     52.805    77.636
1500.36     51.987   113.111
1522.19     51.112   150.713
1544.33     50.297  -169.601
1566.79     49.645  -128.393
1589.58     49.181   -86.587
1612.70     48.826   -45.271
1636.16     48.450    -4.294
1659.95     47.942    36.769
1684.10     47.258    78.740
1708.60     46.451   122.577
1733.45     45.697   168.575
1758.66     45.233  -143.055
1784.24     45.197   -94.504
1810.19     45.451   -48.078
1836.52     45.717    -3.805
1863.24     45.756    38.484
1890.34     45.425    79.745
1917.83     44.655   121.035
1945.73     43.418   163.488
1974.03     41.736  -151.271
2002.74     39.773  -102.056
2031.87     37.886   -48.256
2061.43     36.441     8.152
2091.41     35.309    63.879
2121.83     33.850   117.672
2152.69     31.327   171.788
2184.01     27.032  -122.552
2215.77     24.191   -22.529
2248.00     28.005    68.395
2280.70     31.456   131.191
2313.87     33.313  -171.358
2347.53     34.370  -112.273
2381.68     35.302   -51.071
2416.32     36.414    10.119
2451.46     37.466    69.045
2487.12     38.039   126.024
2523.30     37.833  -176.716
2560.00     36.748  -115.499
2597.24     35.202   -45.309
2635.01     34.710    35.264
2673.34     36.022   113.735
2712.23     37.543  -176.502
2751.68     38.260  -109.816
2791.70     38.211   -40.677
2832.31     38.054    33.938
2873.50     38.522   111.199
2915.30     39.395  -174.448
2957.70     39.879  -102.964
3000.72     39.603   -30.639
3044.37     38.886    46.960
3088.65     38.632   130.154
3133.58     39.102  -148.249
3179.16     39.313   -71.223
3225.40     38.453     5.665
3272.31     36.679    90.115
3319.91     35.766  -174.794
3368.20     36.517   -84.872
3417.19     36.639    -8.167
3466.89     34.484    60.457
3517.32     28.460   117.676
3568.48     22.819   117.915
3620.39     28.755   154.064
3673.05     33.133  -119.151
3726.47     36.683   -28.546
3780.67     38.925    58.460
3835.67     39.468   147.858
3891.46     39.142  -112.341
3948.06     39.739    -5.399
4005.49     40.876    96.332
4063.75     40.924  -163.537
4122.86     40.281   -55.076
4182.82     40.810    58.487
4243.66     41.733   165.126
4305.39     41.343   -90.080
4368.01     40.437    24.423
4431.55     40.913   141.908
4496.01     41.421  -109.284
4561.40     40.558    -0.578
4627.75     39.553   116.157
4695.06     39.497  -128.955
4763.35     38.575   -21.794
4832.64     35.977    90.510
4902.93     34.372  -144.624
4974.24     34.649   -30.088
5046.60     33.545    74.752
5120.00     31.532  -164.353
5194.47     33.362   -32.488
5270.03     36.116    80.708
5346.68     36.240  -167.430
5424.45     34.705   -35.845
5503.35     35.379   108.198
5583.40     35.815  -120.508
5664.61     33.171    23.686
5747.01     33.784  -171.640
5830.60     34.596   -37.986
5915.41     28.008   103.666
6001.45     24.883   -55.160
6088.74     18.038   154.911
6177.30     31.807    13.358
6267.15     34.222   151.360
6358.31     35.610   -25.807
6450.80     39.454   132.511
6544.62     39.051   -62.763
6639.82     40.911   112.423
6736.40     40.744   -83.913
6834.38     40.807    99.386
6933.79     41.331   -94.970
7034.64     38.585    87.778
7136.96     39.103   -91.206
7240.77     34.492    82.709
7346.09     32.280   -80.413
7452.94     24.659    12.934
7561.35     23.438    65.677
7671.33     26.995   -30.242
7782.91     32.729   140.308
7896.12     32.942     4.201
8010.97     34.667  -160.617
8127.49     33.915    69.475
8245.71     34.431   -82.266
8365.65     33.432   155.538
8487.33     32.823    17.896
8610.78     31.904   -94.574
8736.03     30.281   154.045
8863.09     32.761    57.120
8992.01     34.610   -50.596
9122.80     37.689  -166.007
9255.50     38.904    77.903
9390.12     39.317   -37.815
9526.70     39.539  -144.924
9665.27     38.187   109.852
9805.86     37.655    14.713
9948.49     36.907   -67.987
10093.2     36.561  -149.872
10240.0     38.106   129.457
10388.9     38.897    54.000
10540.1     39.065   -27.704
10693.4     39.441  -103.747
10848.9     39.113  -170.272
11006.7     38.068   126.332
11166.8     37.677    65.414
11329.2     37.014    16.572
11494.0     36.623   -25.895
11661.2     36.471   -67.635
11830.8     36.831  -107.884
12002.9     37.119  -143.000
12177.5     36.916  -174.292
12354.6     36.354   157.410
12534.3     35.376   134.308
12716.6     34.715   125.453
12901.6     34.800   120.361
13089.2     35.059   119.540
13279.6     35.731   119.612
13472.8     35.957   120.415
13668.8     35.504   127.491
13867.6     34.711   140.218
14069.3     33.196   163.988
14273.9     32.865  -162.558
14481.5     32.399  -130.077
14692.2     32.627   -83.464
14905.9     32.204   -49.323
15122.7     30.842     3.790
15342.7     30.582    63.843
15565.8     30.483   122.762
15792.2     29.673  -174.020
16021.9     28.326  -105.771
16255.0     26.792   -27.710
16491.4     25.191    55.694
16731.3     23.331   145.931
16974.7     21.430  -126.433
17221.6     19.089   -38.749
17472.1     15.953    52.648
17726.2     13.255   131.245
17984.0     13.277  -138.079
18245.6     13.192   -39.774
18511.0     12.232    92.848
18780.2     14.689  -108.014
19053.4     14.936    36.017
19330.5     15.032  -154.977
19611.7     15.354    13.811
19897.0     13.328  -165.613
20186.4     10.286    53.065
20480.0     13.998   -90.778
20777.9     14.066   101.939
21080.1     13.209   -35.666
21386.7     15.268  -169.042
21697.8     15.691    62.913
22013.4     16.373   -54.479
22333.6     17.290  -162.977
22658.4     17.533    85.059
22988.0     17.317    -7.361
23322.4     18.494  -102.936
23661.6     17.561   174.055
24005.8     14.818   106.437
24355.0     13.015    47.938
24709.2     11.884   -16.332
25068.6     10.904   -52.547
25433.2     10.398   -77.227
25803.2      7.435   -99.532
26178.5      3.939   -98.886
26559.3      1.673  -108.281
26945.6      2.656  -103.950
27337.5      5.247   -47.008
27735.2      3.739   -31.133
28138.6      1.196   151.670
28547.9      3.474   176.686
28963.1      5.932  -144.904
29384.4      2.270   -31.812
29811.8      1.971   -67.131
30245.4      3.636    -3.084
30685.3      1.341    82.038
31131.7      3.271  -110.953
31584.5      2.185   154.123
32043.9      4.158    60.742
32510.0     -3.144   130.853
32982.8      2.238  -179.346
33462.6     -2.665   -40.693
33949.3     -7.039    45.976
34443.1     -0.027     7.774
34944.1     -0.923  -104.734
35452.4      5.661    42.873
35968.0      7.533   -66.400
36491.2     11.008   140.461
37022.0      6.900    20.119
37560.5      3.532   -58.244
38106.8      4.664   162.285
38661.1      0.197    62.023
39223.4     -5.546   -35.773
39793.9      9.265   166.272
