Freq[Hz]     dBSPL  Phase[Deg]
5.00000    -13.634    47.396
5.07273    -14.075    53.020
5.14651    -14.278    59.234
5.22137    -13.816    67.094
5.29732    -13.353    74.953
5.37437    -12.891    82.812
5.45254    -12.429    90.671
5.53185    -11.845    95.887
5.61231    -11.134    98.309
5.69394    -10.422   100.730
5.77676     -9.711   103.151
5.86079     -9.007   105.530
5.94604     -8.797   105.470
6.03252     -8.586   105.409
6.12027     -8.376   105.348
6.20929     -8.165   105.287
6.29961     -8.532   105.752
6.39124     -9.027   106.335
6.48420     -9.523   106.917
6.57851    -10.018   107.499
6.67420    -11.085   115.502
6.77128    -12.244   124.711
6.86977    -13.404   133.919
6.96969    -14.287   143.723
7.07107    -13.069   158.055
7.17392    -11.851   172.387
7.27827    -10.633  -173.281
7.38413     -9.380  -166.255
7.49154     -8.101  -164.872
7.60050     -6.821  -163.490
7.71105     -5.723  -162.665
7.82321     -5.420  -164.292
7.93701     -5.118  -165.919
8.05245     -4.815  -167.546
8.16958     -5.652  -167.823
8.28841     -6.532  -168.050
8.40896     -7.412  -168.277
8.53128     -9.237  -151.227
8.65537    -11.184  -131.947
8.78126    -13.131  -112.668
8.90899    -10.381   -95.741
9.03857     -7.323   -78.969
9.17004     -4.411   -64.103
9.30342     -2.662   -64.409
9.43874     -0.914   -64.717
9.57603      0.372   -65.204
9.71532      0.953   -65.968
9.85663      1.533   -66.731
10.0000      1.533   -63.213
10.1455      1.371   -58.502
10.2930      1.470   -51.831
10.4427      2.295   -39.689
10.5946      3.121   -27.547
10.7487      4.990   -21.649
10.9051      7.067   -16.998
11.0637      8.957   -15.906
11.2246     10.647   -18.580
11.3879     12.205   -21.920
11.5535     13.279   -27.683
11.7216     14.343   -33.471
11.8921     14.817   -40.734
12.0650     15.291   -47.998
12.2405     15.177   -56.009
12.4186     14.988   -64.118
12.5992     14.027   -72.529
12.7825     12.894   -81.008
12.9684     10.035   -88.600
13.1570      6.775   -95.987
13.3484      3.087   -35.684
13.5426     -0.671    35.610
13.7395      5.922    35.664
13.9394     12.403    32.171
14.1421     15.007    22.562
14.3478     17.209    12.717
14.5565     18.546     2.366
14.7683     19.443    -8.061
14.9831     20.000   -18.547
15.2010     19.991   -28.774
15.4221     19.756   -38.763
15.6464     18.949   -47.897
15.8740     17.651   -55.382
16.1049     15.960   -61.550
16.3392     13.237   -58.312
16.5768     11.130   -45.742
16.8179      9.974   -20.128
17.0626     12.183    -4.960
17.3107     14.585     3.037
17.5625     16.618     2.171
17.8180     17.763    -1.739
18.0771     18.523    -5.573
18.3401     18.929    -8.891
18.6068     19.022   -10.198
18.8775     19.097    -9.465
19.1521     19.260    -7.364
19.4306     19.587    -4.278
19.7133     20.142    -1.302
20.0000     20.756     1.078
20.2909     21.374     3.154
20.5860     21.984     5.154
20.8855     22.605     7.318
21.1893     23.311     9.485
21.4975     24.087    11.076
21.8102     24.866    11.838
22.1274     25.573    11.810
22.4492     26.146    11.311
22.7758     26.563    10.875
23.1071     26.854    11.065
23.4432     27.112    12.221
23.7841     27.449    14.165
24.1301     27.912    16.093
24.4811     28.440    17.394
24.8372     28.928    18.002
25.1984     29.306    18.383
25.5649     29.580    19.259
25.9368     29.844    21.176
26.3141     30.244    24.029
26.6968     30.874    26.936
27.0851     31.689    28.817
27.4791     32.543    29.159
27.8788     33.287    28.321
28.2843     33.865    27.132
28.6957     34.301    26.343
29.1131     34.676    26.425
29.5365     35.093    27.399
29.9661     35.624    28.847
30.4020     36.279    30.162
30.8442     37.004    30.849
31.2929     37.718    30.972
31.7480     38.382    30.766
32.2098     38.991    30.486
32.6783     39.559    30.307
33.1536     40.104    30.247
33.6359     40.634    30.296
34.1251     41.157    30.509
34.6215     41.689    30.929
35.1250     42.258    31.461
35.6359     42.879    31.845
36.1543     43.522    31.890
36.6802     44.144    31.632
37.2137     44.732    31.313
37.7550     45.312    31.113
38.3041     45.911    30.971
38.8613     46.527    30.710
39.4265     47.135    30.294
40.0000     47.729    29.864
40.5818     48.318    29.474
41.1721     48.912    29.041
41.7710     49.497    28.537
42.3785     50.068    28.050
42.9949     50.645    27.597
43.6203     51.231    27.045
44.2548     51.807    26.322
44.8985     52.362    25.589
45.5515     52.922    24.899
46.2141     53.499    24.068
46.8863     54.060    22.985
47.5683     54.578    21.882
48.2602     55.092    20.949
48.9621     55.626    19.988
49.6743     56.157    18.808
50.3968     56.654    17.536
51.1299     57.133    16.331
51.8736     57.613    15.115
52.6281     58.083    13.790
53.3936     58.537    12.393
54.1702     58.975    10.961
54.9581     59.401     9.479
55.7575     59.811     7.960
56.5685     60.205     6.411
57.3914     60.577     4.836
58.2261     60.921     3.300
59.0730     61.247     1.842
59.9323     61.558     0.387
60.8040     61.838    -1.064
61.6884     62.098    -2.429
62.5857     62.353    -3.824
63.4960     62.575    -5.332
64.4196     62.752    -6.740
65.3566     62.910    -7.898
66.3073     63.070    -8.914
67.2717     63.206    -9.819
68.2502     63.327   -10.340
69.2429     63.491   -10.701
70.2501     63.622   -11.277
71.2719     63.725   -11.265
72.3086     63.938   -11.433
73.3603     64.061   -12.402
74.4274     64.088   -12.681
75.5099     64.183   -12.726
76.6083     64.255   -12.782
77.7226     64.353   -12.577
78.8531     64.450   -12.431
80.0000     64.543   -12.117
81.1636     64.634   -11.793
82.3442     64.715   -11.389
83.5419     64.780   -10.970
84.7570     64.842   -10.321
85.9899     64.919    -9.718
87.2406     64.969    -9.046
88.5096     65.016    -8.204
89.7970     65.052    -7.276
91.1031     65.070    -6.187
92.4282     65.089    -4.852
93.7726     65.122    -3.412
95.1366     65.162    -1.835
96.5204     65.219    -0.139
97.9243     65.297     1.671
99.3486     65.392     3.425
100.794     65.481     5.222
102.260     65.575     7.004
103.747     65.667     8.879
105.256     65.772    10.560
106.787     65.838    12.303
108.340     65.889    14.157
109.916     65.944    16.303
111.515     66.021    18.529
113.137     66.104    20.660
114.783     66.171    22.879
116.452     66.233    25.160
118.146     66.289    27.513
119.865     66.341    30.083
121.608     66.411    32.739
123.377     66.494    35.418
125.171     66.582    38.087
126.992     66.657    40.738
128.839     66.734    43.534
130.713     66.809    46.367
132.615     66.888    49.271
134.543     66.968    52.271
136.500     67.054    55.367
138.486     67.131    58.106
140.500     67.217    61.145
142.544     67.294    64.229
144.617     67.290    67.149
146.721     67.317    70.488
148.855     67.406    74.111
151.020     67.491    77.341
153.217     67.516    80.391
155.445     67.433    83.619
157.706     67.384    88.010
160.000     67.474    92.586
162.327     67.589    96.729
164.688     67.679   100.273
167.084     67.817   103.984
169.514     67.866   106.571
171.980     67.605   110.662
174.481     67.572   115.447
177.019     67.563   119.433
179.594     67.462   124.075
182.206     67.440   129.750
184.856     67.459   134.905
187.545     67.454   139.478
190.273     67.376   144.808
193.041     67.365   150.498
195.849     67.410   156.162
198.697     67.496   161.523
201.587     67.448   166.930
204.520     67.469   172.826
207.494     67.492   178.219
210.512     67.457  -176.168
213.574     67.296  -170.113
216.681     67.225  -163.225
219.833     67.317  -156.524
223.030     67.370  -150.064
226.274     67.345  -143.808
229.565     67.225  -137.085
232.905     67.193  -129.687
236.292     67.185  -122.444
239.729     67.248  -115.025
243.216     67.251  -108.145
246.754     67.177  -100.764
250.343     67.170   -92.974
253.984     67.090   -85.350
257.678     67.010   -77.445
261.426     66.819   -69.102
265.229     66.715   -59.262
269.087     66.740   -50.244
273.001     66.760   -41.457
276.972     66.655   -33.057
281.000     66.570   -22.983
285.088     66.572   -12.724
289.234     66.692    -2.571
293.441     66.747     5.802
297.709     66.452    15.304
302.040     66.483    25.139
306.433     66.103    34.870
310.890     65.948    47.301
315.412     65.728    59.064
320.000     65.690    71.581
324.655     65.564    83.336
329.377     65.609    95.796
334.168     65.700   107.243
339.028     65.428   118.674
343.959     65.289   132.202
348.962     65.233   143.903
354.038     64.958   156.922
359.188     64.837   170.927
364.412     64.827  -174.835
369.713     64.756  -160.279
375.090     64.691  -146.850
380.546     64.567  -131.510
386.081     64.577  -116.361
391.697     64.404  -101.345
397.394     64.321   -83.315
403.175     64.446   -67.414
409.039     64.402   -51.165
414.989     64.382   -33.548
421.025     64.327   -16.446
427.149     64.222     1.489
433.362     64.248    20.028
439.665     64.270    39.215
446.060     64.198    58.336
452.548     64.191    78.580
459.131     64.210    98.801
465.809     64.263   120.027
472.584     64.237   140.508
479.458     64.130   162.231
486.432     64.189  -175.633
493.507     64.149  -153.368
500.686     64.036  -129.932
507.968     63.987  -106.331
515.357     63.871   -82.715
522.853     63.769   -58.198
530.458     63.653   -33.115
538.174     63.493    -7.832
546.002     63.328    17.758
553.943     63.162    44.193
562.001     62.976    71.361
570.175     62.811    99.373
578.469     62.645   128.040
586.883     62.465   157.002
595.419     62.313  -173.807
604.080     62.196  -144.039
612.866     62.093  -113.561
621.780     62.022   -82.468
630.824     61.983   -50.844
640.000     61.976   -19.364
649.309     61.995    12.013
658.753     62.037    43.903
668.335     62.099    76.905
678.056     62.173   109.759
687.919     62.255   143.081
697.925     62.340   176.878
708.077     62.424  -149.455
718.376     62.504  -115.290
728.825     62.579   -80.612
739.426     62.647   -45.408
750.181     62.707    -9.665
761.093     62.759    26.628
772.163     62.802    62.874
783.394     62.837    99.685
794.789     62.862   137.667
806.349     62.877   175.619
818.078     62.881  -145.851
829.977     62.872  -106.734
842.050     62.848   -67.019
854.298     62.808   -26.687
866.724     62.752    13.682
879.330     62.679    55.320
892.120     62.588    97.658
905.097     62.484   140.733
918.262     62.370  -175.421
931.618     62.252  -130.773
945.169     62.139   -85.303
958.917     62.041   -39.005
972.864     61.970     8.102
987.015     61.936    55.978
1001.37     61.946   105.173
1015.94     62.011   154.971
1030.71     62.132  -155.360
1045.71     62.307  -104.693
1060.92     62.529   -53.142
1076.35     62.779    -2.019
1092.00     63.043    49.231
1107.89     63.308   101.173
1124.00     63.551   153.195
1140.35     63.755  -154.686
1156.94     63.902  -101.850
1173.77     63.973   -48.826
1190.84     63.951     4.469
1208.16     63.818    58.140
1225.73     63.555   112.893
1243.56     63.143   168.908
1261.65     62.568  -134.136
1280.00     61.823   -75.908
1298.62     60.913   -15.951
1317.51     59.865    46.938
1336.67     58.777   113.461
1356.11     57.859  -176.685
1375.84     57.355  -103.568
1395.85     57.388   -29.179
1416.15     57.823    43.838
1436.75     58.390   114.875
1457.65     58.886  -174.968
1478.85     59.210  -104.840
1500.36     59.335   -34.499
1522.19     59.296    37.384
1544.33     59.167   111.331
1566.79     59.062  -172.487
1589.58     59.092   -94.407
1612.70     59.306   -15.829
1636.16     59.666    63.078
1659.95     60.068   141.919
1684.10     60.409  -139.229
1708.60     60.618   -59.968
1733.45     60.667    19.622
1758.66     60.571   101.209
1784.24     60.374  -175.431
1810.19     60.144   -90.756
1836.52     59.942    -3.700
1863.24     59.806    84.773
1890.34     59.725   174.273
1917.83     59.656   -95.411
1945.73     59.552    -4.238
1974.03     59.385    88.607
2002.74     59.157  -177.223
2031.87     58.895   -81.565
2061.43     58.632    15.590
2091.41     58.390   114.730
2121.83     58.179  -144.324
2152.69     57.995   -42.945
2184.01     57.820    59.951
2215.77     57.634   164.280
2248.00     57.407   -90.577
2280.70     57.110    15.475
2313.87     56.719   123.250
2347.53     56.241  -126.977
2381.68     55.710   -15.607
2416.32     55.167    97.922
2451.46     54.631  -146.621
2487.12     54.082   -29.430
2523.30     53.483    89.591
2560.00     52.841  -149.244
2597.24     52.222   -26.394
2635.01     51.687    98.393
2673.34     51.223  -135.475
2712.23     50.757    -8.177
2751.68     50.254   121.244
2791.70     49.787  -107.633
2832.31     49.426    24.495
2873.50     49.075   156.645
2915.30     48.518   -71.089
2957.70     47.627    63.482
3000.72     46.592  -158.145
3044.37     45.896   -15.977
3088.65     45.746   127.238
3133.58     45.706   -91.204
3179.16     45.319    51.748
3225.40     44.773  -159.291
3272.31     44.977    -4.233
3319.91     46.245   150.794
3368.20     47.642   -57.681
3417.19     48.462    93.243
3466.89     48.735  -111.562
3517.32     48.920    50.229
3568.48     49.367  -144.409
3620.39     49.935    22.981
3673.05     50.424  -166.569
3726.47     50.923     6.791
3780.67     51.428  -178.110
3835.67     51.669    -1.189
3891.46     51.621  -179.446
3948.06     51.747     7.190
4005.49     52.224  -164.782
4063.75     52.531    24.355
4122.86     52.415  -143.505
4182.82     52.293    53.357
4243.66     52.387  -106.461
4305.39     52.312    95.003
4368.01     52.043   -59.064
4431.55     51.982   150.867
4496.01     51.948     2.317
4561.40     51.618  -142.641
4627.75     51.443    77.922
4695.06     51.687   -58.908
4763.35     51.868   165.033
4832.64     51.932    31.852
4902.93     52.028   -98.702
4974.24     51.834   133.058
5046.60     51.300     9.528
5120.00     50.892  -107.896
5194.47     50.782   138.674
5270.03     50.929    27.482
5346.68     51.163   -82.500
5424.45     51.035   170.701
5503.35     50.889    70.096
5583.40     51.225   -28.172
5664.61     51.247  -125.183
5747.01     51.086   144.073
5830.60     51.424    55.714
5915.41     51.344   -30.775
6001.45     51.105  -110.788
6088.74     51.110   171.348
6177.30     50.696    99.122
6267.15     50.760    32.490
6358.31     50.475   -33.373
6450.80     50.026   -89.783
6544.62     50.152  -144.696
6639.82     49.590   166.586
6736.40     49.707   124.149
6834.38     49.229    84.550
6933.79     49.435    53.733
7034.64     49.169    22.767
7136.96     49.224     3.781
7240.77     49.709   -17.333
7346.09     49.665   -29.681
7452.94     49.742   -40.037
7561.35     49.988   -40.152
7671.33     50.611   -41.762
7782.91     50.878   -35.736
7896.12     51.302   -29.880
8010.97     51.264   -16.282
8127.49     51.043    -1.394
8245.71     50.229    23.882
8365.65     49.452    53.089
8487.33     48.859    91.950
8610.78     47.844   132.761
8736.03     47.355  -175.695
8863.09     46.505  -121.127
8992.01     46.186   -60.700
9122.80     45.179     7.100
9255.50     44.442    79.543
9390.12     44.012   164.531
9526.70     43.370  -109.537
9665.27     43.569   -16.084
9805.86     43.129    83.665
9948.49     43.215  -173.886
10093.2     43.229   -65.834
10240.0     41.640    48.846
10388.9     40.365   176.001
10540.1     39.563   -44.480
10693.4     38.468   102.310
10848.9     37.617  -107.582
11006.7     37.156    52.414
11166.8     35.426  -136.188
11329.2     33.690    43.904
11494.0     32.735  -124.187
11661.2     33.807    76.057
11830.8     34.690   -84.906
12002.9     34.644   112.412
12177.5     33.289   -45.570
12354.6     31.627   167.542
12534.3     29.504    34.634
12716.6     26.922   -85.486
12901.6     24.980   164.877
13089.2     22.317    63.824
13279.6     21.323   -36.289
13472.8     11.290   159.797
13668.8     15.134   -88.086
13867.6     19.965   177.586
14069.3     20.237    91.855
14273.9     21.007    21.066
14481.5     25.276   -67.665
14692.2     25.842   178.527
14905.9     21.257    68.503
15122.7     23.158     2.870
15342.7     25.902   -13.884
15565.8     28.327    -9.743
15792.2     29.035     4.377
16021.9     28.658    29.873
16255.0     27.543    66.904
16491.4     25.755   114.557
16731.3     23.172  -172.753
16974.7     22.357   -81.379
17221.6     23.183    20.341
17472.1     23.665   121.642
17726.2     24.302  -122.669
17984.0     23.967    -5.053
18245.6     22.766   129.683
18511.0     20.646   -87.252
18780.2     16.453    73.831
19053.4     14.737   -88.620
19330.5     15.901   117.276
19611.7     16.869   -40.478
19897.0     17.257   167.152
20186.4     15.539    20.723
20480.0     11.563  -102.931
20777.9      3.854  -166.247
21080.1      6.341   145.891
21386.7      8.403    84.988
21697.8     15.351    16.824
22013.4     14.996   -22.052
22333.6     16.328   -37.790
22658.4     17.220   -53.603
22988.0     16.877   -57.031
23322.4     18.689   -42.020
23661.6     17.766   -33.496
24005.8     15.294     2.063
24355.0     11.778    58.325
24709.2      6.244   172.305
25068.6      5.189   -98.092
25433.2      4.274    28.197
25803.2      6.973   141.218
26178.5      3.790   -30.444
26559.3      3.397   -54.786
26945.6      9.025    13.783
27337.5      7.456  -166.716
27735.2      5.032    77.047
28138.6      7.563   -21.036
28547.9      5.023  -105.026
28963.1     12.766   179.370
29384.4     12.529   103.484
29811.8     10.514    37.691
30245.4      8.715    -6.869
30685.3     10.258   -21.635
31131.7      6.213     2.568
31584.5      2.858    19.496
32043.9      0.371    91.640
32510.0     -2.418    96.243
32982.8     -3.092   111.515
33462.6     -0.619   145.491
33949.3    -10.273    34.080
34443.1     -4.704    37.413
34944.1      3.889    36.256
35452.4     -4.146  -170.200
35968.0      3.182   -70.353
36491.2      7.575   166.557
37022.0      5.047    73.137
37560.5     -1.453  -113.771
38106.8      2.967   -63.499
38661.1      0.469  -136.832
39223.4      2.597   -75.644
39793.9      3.016  -161.833
