Freq[Hz]     dBSPL  Phase[Deg]
5.00000    -14.238    48.457
5.07273    -14.679    54.097
5.14651    -14.881    60.326
5.22137    -14.418    68.201
5.29732    -13.956    76.077
5.37437    -13.493    83.952
5.45254    -13.031    91.826
5.53185    -12.447    97.059
5.61231    -11.735    99.498
5.69394    -11.024   101.937
5.77676    -10.312   104.375
5.86079     -9.608   106.771
5.94604     -9.397   106.729
6.03252     -9.186   106.687
6.12027     -8.975   106.644
6.20929     -8.764   106.601
6.29961     -9.131   107.086
6.39124     -9.626   107.687
6.48420    -10.120   108.289
6.57851    -10.615   108.890
6.67420    -11.681   116.914
6.77128    -12.840   126.143
6.86977    -14.000   135.371
6.96969    -14.882   145.195
7.07107    -13.663   159.549
7.17392    -12.444   173.902
7.27827    -11.225  -171.745
7.38413     -9.972  -164.696
7.49154     -8.692  -163.291
7.60050     -7.412  -161.886
7.71105     -6.313  -161.039
7.82321     -6.010  -162.642
7.93701     -5.707  -164.246
8.05245     -5.404  -165.850
8.16958     -6.240  -166.102
8.28841     -7.119  -166.305
8.40896     -7.999  -166.507
8.53128     -9.823  -149.431
8.65537    -11.769  -130.126
8.78126    -13.715  -110.822
8.90899    -10.964   -93.868
9.03857     -7.905   -77.070
9.17004     -4.992   -62.177
9.30342     -3.243   -62.456
9.43874     -1.493   -62.736
9.57603     -0.206   -63.196
9.71532      0.376   -63.931
9.85663      0.957   -64.666
10.0000      0.958   -61.118
10.1455      0.797   -56.378
10.2930      0.897   -49.678
10.4427      1.724   -37.505
10.5946      2.550   -25.333
10.7487      4.421   -19.404
10.9051      6.500   -14.721
11.0637      8.391   -13.597
11.2246     10.083   -16.239
11.3879     11.642   -19.546
11.5535     12.717   -25.276
11.7216     13.782   -31.032
11.8921     14.258   -38.261
12.0650     14.734   -45.490
12.2405     14.622   -53.467
12.4186     14.435   -61.540
12.5992     13.475   -69.916
12.7825     12.344   -78.359
12.9684      9.486   -85.915
13.1570      6.227   -93.265
13.3484      2.541   -32.924
13.5426     -1.214    38.408
13.7395      5.381    38.499
13.9394     11.864    35.045
14.1421     14.469    25.475
14.3478     16.673    15.670
14.5565     18.013     5.359
14.7683     18.913    -5.028
14.9831     19.472   -15.473
15.2010     19.466   -25.659
15.4221     19.233   -35.605
15.6464     18.428   -44.698
15.8740     17.132   -52.140
16.1049     15.444   -58.265
16.3392     12.724   -54.983
16.5768     10.621   -42.369
16.8179      9.467   -16.710
17.0626     11.679    -1.497
17.3107     14.084     6.546
17.5625     16.120     5.725
17.8180     17.268     1.862
18.0771     18.032    -1.925
18.3401     18.442    -5.196
18.6068     18.538    -6.455
18.8775     18.616    -5.673
19.1521     18.783    -3.523
19.4306     19.114    -0.388
19.7133     19.672     2.638
20.0000     20.290     5.068
20.2909     20.912     7.194
20.5860     21.526     9.246
20.8855     22.151    11.461
21.1893     22.862    13.680
21.4975     23.642    15.324
21.8102     24.425    16.138
22.1274     25.137    16.163
22.4492     25.715    15.718
22.7758     26.137    15.336
23.1071     26.434    15.580
23.4432     26.695    16.791
23.7841     27.037    18.790
24.1301     27.507    20.774
24.4811     28.039    22.131
24.8372     28.534    22.795
25.1984     28.918    23.233
25.5649     29.197    24.166
25.9368     29.467    26.140
26.3141     29.873    29.051
26.6968     30.509    32.016
27.0851     31.330    33.956
27.4791     32.191    34.356
27.8788     32.941    33.576
28.2843     33.525    32.446
28.6957     33.969    31.717
29.1131     34.351    31.859
29.5365     34.775    32.892
29.9661     35.313    34.400
30.4020     35.975    35.775
30.8442     36.707    36.523
31.2929     37.430    36.706
31.7480     38.102    36.560
32.2098     38.719    36.341
32.6783     39.295    36.222
33.1536     39.848    36.223
33.6359     40.387    36.333
34.1251     40.918    36.607
34.6215     41.459    37.088
35.1250     42.037    37.680
35.6359     42.667    38.125
36.1543     43.319    38.231
36.6802     43.951    38.034
37.2137     44.548    37.776
37.7550     45.138    37.636
38.3041     45.746    37.554
38.8613     46.373    37.353
39.4265     46.991    36.996
40.0000     47.594    36.626
40.5818     48.194    36.296
41.1721     48.798    35.922
41.7710     49.394    35.477
42.3785     49.976    35.049
42.9949     50.564    34.654
43.6203     51.161    34.160
44.2548     51.749    33.494
44.8985     52.316    32.819
45.5515     52.887    32.185
46.2141     53.476    31.410
46.8863     54.048    30.383
47.5683     54.578    29.335
48.2602     55.104    28.457
48.9621     55.650    27.551
49.6743     56.193    26.424
50.3968     56.703    25.205
51.1299     57.194    24.053
51.8736     57.686    22.889
52.6281     58.169    21.614
53.3936     58.635    20.269
54.1702     59.086    18.887
54.9581     59.525    17.454
55.7575     59.949    15.983
56.5685     60.355    14.482
57.3914     60.740    12.955
58.2261     61.098    11.465
59.0730     61.437    10.053
59.9323     61.761     8.643
60.8040     62.054     7.236
61.6884     62.328     5.914
62.5857     62.596     4.562
63.4960     62.831     3.096
64.4196     63.022     1.729
65.3566     63.194     0.612
66.3073     63.366    -0.364
67.2717     63.516    -1.230
68.2502     63.651    -1.713
69.2429     63.828    -2.036
70.2501     63.972    -2.576
71.2719     64.088    -2.528
72.3086     64.315    -2.660
73.3603     64.451    -3.595
74.4274     64.491    -3.840
75.5099     64.599    -3.852
76.6083     64.685    -3.876
77.7226     64.795    -3.638
78.8531     64.906    -3.461
80.0000     65.011    -3.116
81.1636     65.114    -2.763
82.3442     65.209    -2.329
83.5419     65.287    -1.881
84.7570     65.361    -1.203
85.9899     65.451    -0.573
87.2406     65.513     0.127
88.5096     65.572     0.996
89.7970     65.619     1.951
91.1031     65.650     3.067
92.4282     65.680     4.428
93.7726     65.724     5.893
95.1366     65.777     7.496
96.5204     65.844     9.218
97.9243     65.934    11.053
99.3486     66.039    12.832
100.794     66.138    14.654
102.260     66.244    16.461
103.747     66.346    18.360
105.256     66.461    20.067
106.787     66.538    21.835
108.340     66.598    23.715
109.916     66.663    25.886
111.515     66.749    28.138
113.137     66.842    30.295
114.783     66.918    32.540
116.452     66.989    34.848
118.146     67.053    37.228
119.865     67.114    39.826
121.608     67.192    42.510
123.377     67.282    45.218
125.171     67.379    47.917
126.992     67.461    50.599
128.839     67.545    53.425
130.713     67.627    56.291
132.615     67.712    59.228
134.543     67.798    62.262
136.500     67.891    65.394
138.486     67.973    68.166
140.500     68.065    71.242
142.544     68.148    74.367
144.617     68.149    77.326
146.721     68.180    80.705
148.855     68.274    84.372
151.020     68.365    87.646
153.217     68.393    90.741
155.445     68.314    94.017
157.706     68.268    98.455
160.000     68.361   103.084
162.327     68.479   107.281
164.688     68.572   110.875
167.084     68.712   114.642
169.514     68.763   117.291
171.980     68.504   121.446
174.481     68.473   126.292
177.019     68.464   130.339
179.594     68.364   135.049
182.206     68.343   140.799
184.856     68.363   146.030
187.545     68.357   150.676
190.273     68.279   156.086
193.041     68.267   161.858
195.849     68.311   167.607
198.697     68.396   173.060
201.587     68.347   178.560
204.520     68.365  -175.446
207.494     68.386  -169.954
210.512     68.348  -164.234
213.574     68.185  -158.068
216.681     68.110  -151.073
219.833     68.199  -144.256
223.030     68.248  -137.669
226.274     68.220  -131.283
229.565     68.095  -124.426
232.905     68.058  -116.891
236.292     68.046  -109.507
239.729     68.103  -101.934
243.216     68.101   -94.897
246.754     68.022   -87.355
250.343     68.009   -79.390
253.984     67.923   -71.585
257.678     67.837   -63.494
261.426     67.641   -54.950
265.229     67.530   -44.903
269.087     67.549   -35.672
273.001     67.564   -26.665
276.972     67.454   -18.039
281.000     67.364    -7.720
285.088     67.362     2.802
289.234     67.478    13.226
293.441     67.529    21.877
297.709     67.233    31.664
302.040     67.263    41.792
306.433     66.884    51.836
310.890     66.731    64.600
315.412     66.516    76.700
320.000     66.484    89.560
324.655     66.369   101.659
329.377     66.425   114.464
334.168     66.532   126.282
339.028     66.279   138.077
343.959     66.162   151.960
348.962     66.132   164.003
354.038     65.884   177.346
359.188     65.795  -168.334
364.412     65.819  -153.797
369.713     65.784  -138.971
375.090     65.755  -125.304
380.546     65.668  -109.749
386.081     65.712   -94.416
391.697     65.572   -79.240
397.394     65.521   -61.069
403.175     65.672   -45.051
409.039     65.649   -28.693
414.989     65.648   -10.969
421.025     65.605     6.240
427.149     65.510    24.289
433.362     65.541    42.953
439.665     65.565    62.290
446.060     65.492    81.580
452.548     65.483   102.016
459.131     65.498   122.456
465.809     65.547   143.932
472.584     65.517   164.687
479.458     65.407  -173.294
486.432     65.466  -150.835
493.507     65.427  -128.220
500.686     65.319  -104.412
507.968     65.278   -80.428
515.357     65.176   -56.427
522.853     65.092   -31.517
530.458     64.999    -6.043
538.174     64.867    19.612
546.002     64.735    45.547
553.943     64.606    72.295
562.001     64.461    99.736
570.175     64.338   127.969
578.469     64.215   156.797
586.883     64.074  -174.144
595.419     63.954  -144.917
604.080     63.860  -115.164
612.866     63.770   -84.738
621.780     63.698   -53.715
630.824     63.645   -22.155
640.000     63.609     9.291
649.309     63.589    40.684
658.753     63.582    72.657
668.335     63.587   105.822
678.056     63.601   138.919
687.919     63.623   172.565
697.925     63.650  -153.242
708.077     63.680  -119.126
718.376     63.711   -84.466
728.825     63.743   -49.262
739.426     63.771   -13.516
750.181     63.796    22.776
761.093     63.814    59.616
772.163     63.823    96.397
783.394     63.822   133.744
794.789     63.807   172.279
806.349     63.778  -149.201
818.078     63.732  -110.065
829.977     63.669   -70.286
842.050     63.589   -29.835
854.298     63.494    11.316
866.724     63.388    52.579
879.330     63.272    95.209
892.120     63.152   138.607
905.097     63.034  -177.220
918.262     62.925  -132.276
931.618     62.828   -86.574
945.169     62.749   -40.137
958.917     62.692     7.012
972.864     62.657    54.852
987.015     62.648   103.364
1001.37     62.664   153.160
1015.94     62.714  -156.411
1030.71     62.804  -106.015
1045.71     62.940   -54.454
1060.92     63.129    -1.825
1076.35     63.366    50.502
1092.00     63.643   103.026
1107.89     63.951   156.243
1124.00     64.263  -150.552
1140.35     64.555   -97.396
1156.94     64.800   -43.687
1173.77     64.969    10.034
1190.84     65.038    63.864
1208.16     64.985   117.934
1225.73     64.788   172.975
1243.56     64.427  -130.815
1261.65     63.887   -73.755
1280.00     63.160   -15.525
1298.62     62.248    44.297
1317.51     61.164   106.858
1336.67     59.979   172.830
1356.11     58.857  -117.926
1375.84     58.013   -44.968
1395.85     57.628    30.319
1416.15     57.677   105.350
1436.75     57.949   179.097
1457.65     58.243  -107.643
1478.85     58.452   -34.127
1500.36     58.564    39.805
1522.19     58.644   115.321
1544.33     58.785  -167.488
1566.79     59.065   -89.029
1589.58     59.494    -9.981
1612.70     60.003    68.502
1636.16     60.504   146.903
1659.95     60.915  -134.574
1684.10     61.188   -55.552
1708.60     61.308    24.391
1733.45     61.288   105.034
1758.66     61.157  -172.148
1784.24     60.957   -87.597
1810.19     60.733    -1.911
1836.52     60.520    86.006
1863.24     60.336   175.345
1890.34     60.184   -94.108
1917.83     60.049    -2.535
1945.73     59.905    89.960
1974.03     59.716  -176.016
2002.74     59.453   -80.945
2031.87     59.096    15.436
2061.43     58.652   113.473
2091.41     58.165  -145.911
2121.83     57.715   -42.648
2152.69     57.384    61.662
2184.01     57.189   167.589
2215.77     57.073   -85.434
2248.00     56.949    21.829
2280.70     56.754   129.602
2313.87     56.469  -121.224
2347.53     56.100   -10.531
2381.68     55.641   101.022
2416.32     55.050  -145.981
2451.46     54.268   -31.259
2487.12     53.272    85.841
2523.30     52.127  -153.915
2560.00     50.989   -30.233
2597.24     50.021    95.591
2635.01     49.236  -136.998
2673.34     48.544    -8.629
2712.23     47.903   120.624
2751.68     47.324  -109.050
2791.70     46.749    20.832
2832.31     45.992   149.917
2873.50     44.904   -80.852
2915.30     43.560    50.328
2957.70     42.353  -174.806
3000.72     41.740   -38.181
3044.37     41.665    98.018
3088.65     41.702  -124.563
3133.58     41.693    17.414
3179.16     42.043   166.938
3225.40     43.153   -39.066
3272.31     44.587   114.906
3319.91     45.813   -89.423
3368.20     46.925    70.165
3417.19     48.204  -128.064
3466.89     49.453    34.304
3517.32     50.300  -161.007
3568.48     50.852     7.675
3620.39     51.629  -179.327
3673.05     52.664    -5.125
3726.47     53.408   168.950
3780.67     53.651   -13.941
3835.67     53.779   168.170
3891.46     54.108    -6.070
3948.06     54.390  -178.841
4005.49     54.497    11.522
4063.75     54.731  -153.553
4122.86     55.045    42.401
4182.82     55.065  -119.881
4243.66     54.962    83.349
4305.39     55.108   -70.805
4368.01     55.147   136.152
4431.55     54.822   -12.775
4496.01     54.671  -156.321
4561.40     54.759    61.754
4627.75     54.572   -77.585
4695.06     54.508   149.071
4763.35     54.868    17.017
4832.64     54.961  -114.445
4902.93     54.931   119.384
4974.24     55.269    -4.410
5046.60     55.276  -128.623
5120.00     54.749   112.919
5194.47     54.596     0.829
5270.03     54.764  -111.067
5346.68     54.636   138.640
5424.45     54.215    32.629
5503.35     53.492   -68.006
5583.40     53.035  -161.539
5664.61     53.032   107.300
5747.01     52.657    19.772
5830.60     52.820   -60.611
5915.41     53.453  -141.027
6001.45     53.520   141.367
6088.74     53.743    68.988
6177.30     53.824     0.683
6267.15     54.057   -61.003
6358.31     54.461  -120.997
6450.80     54.511  -175.532
6544.62     54.811   134.106
6639.82     54.764    88.996
6736.40     55.142    49.678
6834.38     55.141    11.561
6933.79     55.028   -19.307
7034.64     54.512   -46.836
7136.96     53.964   -63.263
7240.77     54.048   -77.099
7346.09     53.862   -84.376
7452.94     53.722   -88.199
7561.35     53.948   -83.113
7671.33     54.429   -78.764
7782.91     54.644   -67.878
7896.12     54.908   -55.271
8010.97     55.036   -36.819
8127.49     54.722   -15.979
8245.71     54.044    13.094
8365.65     53.101    49.448
8487.33     52.830    92.593
8610.78     52.189   140.892
8736.03     52.216  -166.845
8863.09     51.756  -108.642
8992.01     51.282   -46.365
9122.80     50.786    26.270
9255.50     50.288   104.084
9390.12     50.281  -169.333
9526.70     50.265   -76.468
9665.27     50.294    19.148
9805.86     50.155   123.779
9948.49     49.763  -124.216
10093.2     49.324    -6.239
10240.0     48.887   120.553
10388.9     47.865  -102.871
10540.1     47.184    41.611
10693.4     47.039  -165.518
10848.9     46.983    -6.208
11006.7     46.585   155.519
11166.8     45.423   -36.276
11329.2     43.846   146.234
11494.0     42.597   -16.807
11661.2     42.323  -173.588
11830.8     42.199    30.555
12002.9     41.529  -123.018
12177.5     39.461    91.868
12354.6     36.338   -38.901
12534.3     33.156  -147.347
12716.6     32.972   118.401
12901.6     34.655    16.032
13089.2     36.191   -92.158
13279.6     36.264   163.673
13472.8     34.456    69.565
13668.8     32.971     5.460
13867.6     33.845   -47.199
14069.3     34.939   -98.802
14273.9     35.674  -140.868
14481.5     36.316  -174.711
14692.2     35.068   159.690
14905.9     33.845   164.221
15122.7     34.340   170.643
15342.7     34.222  -168.575
15565.8     34.915  -139.230
15792.2     35.636  -104.950
16021.9     35.931   -64.478
16255.0     35.713   -13.763
16491.4     34.874    50.144
16731.3     34.394   131.231
16974.7     34.834  -136.769
17221.6     35.313   -35.741
17472.1     35.745    74.427
17726.2     35.747  -163.400
17984.0     35.615   -27.585
18245.6     34.898   119.295
18511.0     34.086   -82.914
18780.2     32.623    90.537
19053.4     31.400   -82.504
19330.5     29.933   121.595
19611.7     28.770   -19.623
19897.0     28.278  -142.049
20186.4     28.778   103.584
20480.0     28.866    -2.537
20777.9     27.803   -89.232
21080.1     27.820  -155.678
21386.7     27.877   148.041
21697.8     28.233   104.473
22013.4     28.531    71.955
22333.6     28.449    55.096
22658.4     28.419    55.341
22988.0     28.076    66.742
23322.4     27.661    92.191
23661.6     26.748   133.574
24005.8     26.111  -168.706
24355.0     24.548   -90.807
24709.2     23.820     5.680
25068.6     22.342   113.014
25433.2     20.380  -111.811
25803.2     17.954    42.857
26178.5     15.284  -143.519
26559.3     11.100    62.566
26945.6     14.616   -67.813
27337.5     16.325   146.006
27735.2     15.914    17.274
28138.6     15.599   -67.645
28547.9     18.609  -125.865
28963.1     20.824   178.283
29384.4     23.753   119.827
29811.8     22.913    77.814
30245.4     22.240    61.331
30685.3     21.009    69.113
31131.7     19.122   106.733
31584.5     16.500   148.650
32043.9     12.885  -146.558
32510.0      8.049   -55.335
32982.8      3.984   173.078
33462.6      5.502   133.459
33949.3     10.119  -157.705
34443.1      4.943   -54.323
34944.1      6.882   162.784
35452.4     12.077    27.320
35968.0     14.631   -97.611
36491.2     14.736   155.251
37022.0     17.674    89.383
37560.5     18.745    50.071
38106.8     18.199     4.030
38661.1      8.686    72.769
39223.4     12.426   153.307
39793.9     16.354  -112.671
