Freq[Hz]     dBSPL  Phase[Deg]
5.00000    -13.081    30.280
5.07273    -13.522    35.660
5.14651    -13.724    41.626
5.22137    -13.262    49.223
5.29732    -12.799    56.820
5.37437    -12.337    64.417
5.45254    -11.875    72.013
5.53185    -11.291    76.959
5.61231    -10.580    79.100
5.69394     -9.868    81.242
5.77676     -9.157    83.383
5.86079     -8.453    85.482
5.94604     -8.242    85.123
6.03252     -8.031    84.764
6.12027     -7.820    84.405
6.20929     -7.609    84.045
6.29961     -7.976    84.198
6.39124     -8.471    84.464
6.48420     -8.967    84.730
6.57851     -9.462    84.996
6.67420    -10.528    92.668
6.77128    -11.688   101.542
6.86977    -12.847   110.416
6.96969    -13.730   119.883
7.07107    -12.512   133.863
7.17392    -11.293   147.843
7.27827    -10.074   161.822
7.38413     -8.821   168.486
7.49154     -7.541   169.499
7.60050     -6.261   170.511
7.71105     -5.163   170.962
7.82321     -4.860   168.947
7.93701     -4.557   166.931
8.05245     -4.254   164.915
8.16958     -5.091   164.233
8.28841     -5.971   163.600
8.40896     -6.850   162.967
8.53128     -8.675   179.595
8.65537    -10.622  -161.550
8.78126    -12.568  -142.695
8.90899     -9.818  -126.209
9.03857     -6.759  -109.879
9.17004     -3.847   -95.458
9.30342     -2.098   -96.225
9.43874     -0.348   -96.992
9.57603      0.939   -97.947
9.71532      1.520   -99.188
9.85663      2.100  -100.430
10.0000      2.101   -97.404
10.1455      1.940   -93.189
10.2930      2.039   -87.020
10.4427      2.865   -75.392
10.5946      3.692   -63.764
10.7487      5.561   -58.395
10.9051      7.640   -54.275
11.0637      9.530   -53.724
11.2246     11.221   -56.948
11.3879     12.779   -60.842
11.5535     13.854   -67.173
11.7216     14.918   -73.529
11.8921     15.393   -81.378
12.0650     15.868   -89.227
12.2405     15.756   -97.840
12.4186     15.568  -106.552
12.5992     14.607  -115.582
12.7825     13.475  -124.682
12.9684     10.617  -132.911
13.1570      7.357  -140.937
13.3484      3.670   -81.288
13.5426     -0.086   -10.651
13.7395      6.508   -11.272
13.9394     12.990   -15.442
14.1421     15.594   -25.744
14.3478     17.797   -36.287
14.5565     19.136   -47.349
14.7683     20.034   -58.497
14.9831     20.593   -69.712
15.2010     20.585   -80.683
15.4221     20.352   -91.421
15.6464     19.546  -101.319
15.8740     18.249  -109.578
16.1049     16.559  -116.528
16.3392     13.838  -114.089
16.5768     11.732  -102.325
16.8179     10.577   -77.528
17.0626     12.788   -63.194
17.3107     15.192   -56.038
17.5625     17.226   -57.758
17.8180     18.372   -62.537
18.0771     19.134   -67.250
18.3401     19.542   -71.458
18.6068     19.637   -73.671
18.8775     19.713   -73.856
19.1521     19.879   -72.686
19.4306     20.208   -70.542
19.7133     20.764   -68.525
20.0000     21.380   -67.117
20.2909     22.000   -66.027
20.5860     22.611   -65.025
20.8855     23.235   -63.874
21.1893     23.943   -62.735
21.4975     24.722   -62.188
21.8102     25.503   -62.484
22.1274     26.212   -63.585
22.4492     26.788   -65.171
22.7758     27.206   -66.711
23.1071     27.501   -67.639
23.4432     27.760   -67.618
23.7841     28.101   -66.825
24.1301     28.566   -66.065
24.4811     29.096   -65.949
24.8372     29.587   -66.542
25.1984     29.969   -67.380
25.5649     30.245   -67.739
25.9368     30.512   -67.076
26.3141     30.914   -65.493
26.6968     31.547   -63.875
27.0851     32.365   -63.300
27.4791     33.223   -64.284
27.8788     33.970   -66.467
28.2843     34.551   -69.021
28.6957     34.991   -71.192
29.1131     35.369   -72.513
29.5365     35.788   -72.961
29.9661     36.323   -72.956
30.4020     36.981   -73.102
30.8442     37.710   -73.900
31.2929     38.428   -75.282
31.7480     39.096   -77.014
32.2098     39.709   -78.840
32.6783     40.280   -80.590
33.1536     40.829   -82.241
33.6359     41.362   -83.805
34.1251     41.889   -85.229
34.6215     42.425   -86.469
35.1250     42.999   -87.620
35.6359     43.624   -88.944
36.1543     44.270   -90.630
36.6802     44.898   -92.642
37.2137     45.490   -94.742
37.7550     46.074   -96.747
38.3041     46.678   -98.720
38.8613     47.298  -100.838
39.4265     47.911  -103.138
40.0000     48.508  -105.477
40.5818     49.102  -107.802
41.1721     49.701  -110.200
41.7710     50.291  -112.695
42.3785     50.867  -115.201
42.9949     51.448  -117.703
43.6203     52.040  -120.331
44.2548     52.620  -123.160
44.8985     53.180  -126.029
45.5515     53.745  -128.885
46.2141     54.327  -131.912
46.8863     54.893  -135.222
47.5683     55.417  -138.584
48.2602     55.935  -141.808
48.9621     56.474  -145.092
49.6743     57.010  -148.628
50.3968     57.513  -152.290
51.1299     57.997  -155.918
51.8736     58.481  -159.591
52.6281     58.958  -163.408
53.3936     59.416  -167.331
54.1702     59.860  -171.326
54.9581     60.291  -175.408
55.7575     60.707  -179.564
56.5685     61.106   176.213
57.3914     61.483   171.928
58.2261     61.833   167.642
59.0730     62.165   163.395
59.9323     62.481   159.111
60.8040     62.766   154.792
61.6884     63.032   150.517
62.5857     63.292   146.171
63.4960     63.520   141.670
64.4196     63.702   137.227
65.3566     63.866   132.990
66.3073     64.031   128.852
67.2717     64.173   124.780
68.2502     64.300   121.047
69.2429     64.469   117.428
70.2501     64.606   113.547
71.2719     64.714   110.207
72.3086     64.933   106.639
73.3603     65.062   102.221
74.4274     65.094    98.445
75.5099     65.195    94.852
76.6083     65.272    91.197
77.7226     65.376    87.752
78.8531     65.479    84.195
80.0000     65.578    80.753
81.1636     65.674    77.267
82.3442     65.761    73.807
83.5419     65.832    70.305
84.7570     65.900    66.978
85.9899     65.982    63.546
87.2406     66.038    60.127
88.5096     66.091    56.817
89.7970     66.132    53.534
91.1031     66.157    50.352
92.4282     66.181    47.354
93.7726     66.220    44.398
95.1366     66.267    41.515
96.5204     66.329    38.688
97.9243     66.414    35.908
99.3486     66.515    33.007
100.794     66.610    30.081
102.260     66.711    27.071
103.747     66.809    24.085
105.256     66.920    20.835
106.787     66.993    17.575
108.340     67.049    14.354
109.916     67.112    11.351
111.515     67.196     8.353
113.137     67.286     5.185
114.783     67.360     2.027
116.452     67.429    -1.146
118.146     67.492    -4.326
119.865     67.551    -7.370
121.608     67.628   -10.410
123.377     67.718   -13.509
125.171     67.815   -16.702
126.992     67.897   -19.999
128.839     67.982   -23.237
130.713     68.065   -26.525
132.615     68.153   -29.832
134.543     68.241   -33.261
136.500     68.335   -36.745
138.486     68.420   -39.988
140.500     68.516   -43.529
142.544     68.603   -47.623
144.617     68.608   -51.283
146.721     68.645   -54.524
148.855     68.744   -58.079
151.020     68.840   -62.027
153.217     68.875   -66.156
155.445     68.803   -70.106
157.706     68.764   -72.894
160.000     68.866   -76.095
162.327     68.993   -79.729
164.688     69.095   -83.364
167.084     69.246   -87.431
169.514     69.308   -93.219
171.980     69.062   -97.504
174.481     69.042  -100.496
177.019     69.046  -104.289
179.594     68.960  -108.023
182.206     68.954  -111.322
184.856     68.990  -115.143
187.545     69.000  -118.946
190.273     68.940  -122.591
193.041     68.947  -125.877
195.849     69.009  -129.188
198.697     69.115  -133.401
201.587     69.088  -137.569
204.520     69.129  -141.247
207.494     69.173  -145.428
210.512     69.162  -149.990
213.574     69.025  -154.109
216.681     68.976  -156.797
219.833     69.094  -160.272
223.030     69.174  -164.585
226.274     69.178  -169.105
229.565     69.087  -173.158
232.905     69.084  -176.537
236.292     69.108   179.927
239.729     69.204   175.968
243.216     69.242   171.467
246.754     69.203   167.465
250.343     69.235   163.271
253.984     69.196   158.908
257.678     69.157   154.823
261.426     69.012   150.572
265.229     68.955   147.813
269.087     69.029   144.227
273.001     69.099   140.404
276.972     69.047   136.186
281.000     69.019   133.033
285.088     69.082   129.454
289.234     69.265   125.756
293.441     69.385   120.265
297.709     69.158   115.888
302.040     69.259   111.826
306.433     68.953   107.037
310.890     68.878   104.319
315.412     68.740   100.905
320.000     68.784    98.218
324.655     68.744    94.737
329.377     68.873    91.928
334.168     69.055    86.846
339.028     68.875    81.705
343.959     68.824    78.620
348.962     68.856    73.667
354.038     68.664    69.992
359.188     68.624    66.648
364.412     68.692    62.881
369.713     68.693    59.403
375.090     68.692    54.779
380.546     68.626    51.432
386.081     68.684    47.894
391.697     68.553    43.612
397.394     68.505    41.745
403.175     68.657    38.402
409.039     68.635    34.828
414.989     68.634    32.050
421.025     68.594    28.809
427.149     68.505    26.451
433.362     68.547    24.745
439.665     68.588    22.510
446.060     68.539    20.250
452.548     68.561    19.148
459.131     68.615    17.442
465.809     68.711    16.151
472.584     68.736    14.126
479.458     68.688    13.345
486.432     68.815    12.360
493.507     68.853    10.878
500.686     68.827     9.929
507.968     68.873     9.106
515.357     68.860     8.250
522.853     68.868     7.624
530.458     68.869     6.882
538.174     68.828     6.261
546.002     68.784     5.866
553.943     68.739     5.605
562.001     68.674     5.364
570.175     68.622     5.250
578.469     68.562     5.077
586.883     68.473     5.129
595.419     68.395     5.358
604.080     68.332     5.513
612.866     68.265     5.756
621.780     68.210     6.030
630.824     68.169     6.288
640.000     68.145     6.510
649.309     68.139     6.754
658.753     68.152     7.023
668.335     68.186     7.299
678.056     68.240     7.547
687.919     68.313     7.746
697.925     68.405     7.872
708.077     68.512     7.905
718.376     68.631     7.828
728.825     68.761     7.628
739.426     68.897     7.296
750.181     69.037     6.826
761.093     69.177     6.216
772.163     69.311     5.485
783.394     69.439     4.630
794.789     69.558     3.646
806.349     69.664     2.581
818.078     69.755     1.436
829.977     69.831     0.235
842.050     69.892    -1.002
854.298     69.938    -2.250
866.724     69.969    -3.470
879.330     69.990    -4.679
892.120     70.003    -5.846
905.097     70.013    -6.965
918.262     70.025    -8.046
931.618     70.043    -9.107
945.169     70.072   -10.183
958.917     70.111   -11.321
972.864     70.162   -12.572
987.015     70.218   -13.991
1001.37     70.270   -15.645
1015.94     70.310   -17.549
1030.71     70.327   -19.689
1045.71     70.305   -22.105
1060.92     70.230   -24.766
1076.35     70.088   -27.540
1092.00     69.864   -30.361
1107.89     69.545   -33.124
1124.00     69.124   -35.614
1140.35     68.599   -37.595
1156.94     67.972   -38.777
1173.77     67.281   -38.781
1190.84     66.592   -37.261
1208.16     66.015   -34.078
1225.73     65.684   -29.495
1243.56     65.705   -24.446
1261.65     66.072   -20.231
1280.00     66.661   -17.724
1298.62     67.326   -17.151
1317.51     67.958   -18.289
1336.67     68.486   -20.760
1356.11     68.868   -24.123
1375.84     69.095   -28.030
1395.85     69.166   -32.150
1416.15     69.091   -36.149
1436.75     68.895   -39.775
1457.65     68.608   -42.854
1478.85     68.273   -45.265
1500.36     67.943   -47.001
1522.19     67.657   -48.258
1544.33     67.438   -49.344
1566.79     67.279   -50.597
1589.58     67.141   -52.255
1612.70     66.976   -54.343
1636.16     66.737   -56.721
1659.95     66.399   -59.088
1684.10     65.962   -61.059
1708.60     65.463   -62.271
1733.45     64.978   -62.523
1758.66     64.588   -61.963
1784.24     64.359   -61.134
1810.19     64.283   -60.765
1836.52     64.283   -61.373
1863.24     64.252   -63.040
1890.34     64.104   -65.450
1917.83     63.795   -68.052
1945.73     63.328   -70.226
1974.03     62.756   -71.446
2002.74     62.184   -71.460
2031.87     61.716   -70.528
2061.43     61.401   -69.328
2091.41     61.193   -68.496
2121.83     60.998   -68.179
2152.69     60.752   -67.966
2184.01     60.467   -67.199
2215.77     60.248   -65.490
2248.00     60.239   -63.210
2280.70     60.495   -61.454
2313.87     60.931   -61.296
2347.53     61.382   -63.109
2381.68     61.701   -66.566
2416.32     61.805   -71.017
2451.46     61.657   -75.713
2487.12     61.269   -79.864
2523.30     60.703   -82.667
2560.00     60.099   -83.505
2597.24     59.669   -82.452
2635.01     59.577   -80.684
2673.34     59.800   -79.862
2712.23     60.145   -80.837
2751.68     60.435   -83.297
2791.70     60.601   -86.388
2832.31     60.687   -89.461
2873.50     60.768   -92.430
2915.30     60.873   -95.642
2957.70     60.958   -99.387
3000.72     60.958  -103.496
3044.37     60.843  -107.485
3088.65     60.644  -110.877
3133.58     60.431  -113.396
3179.16     60.283  -115.102
3225.40     60.263  -116.391
3272.31     60.368  -117.905
3319.91     60.503  -120.055
3368.20     60.554  -122.437
3417.19     60.516  -124.001
3466.89     60.556  -124.135
3517.32     60.852  -123.561
3568.48     61.395  -123.510
3620.39     62.098  -124.398
3673.05     62.953  -126.556
3726.47     63.866  -130.961
3780.67     64.557  -137.879
3835.67     64.759  -145.680
3891.46     64.500  -151.554
3948.06     64.222  -153.786
4005.49     64.386  -154.598
4063.75     64.800  -157.448
4122.86     64.992  -161.924
4182.82     64.916  -165.560
4243.66     64.849  -167.659
4305.39     64.910  -169.452
4368.01     64.984  -171.521
4431.55     65.036  -173.531
4496.01     65.073  -175.616
4561.40     65.018  -177.745
4627.75     64.860  -179.207
4695.06     64.688  -179.828
4763.35     64.491  -179.918
4832.64     64.211  -178.862
4902.93     63.983  -175.486
4974.24     64.135  -170.142
5046.60     64.764  -165.293
5120.00     65.603  -161.816
5194.47     66.710  -158.633
5270.03     68.309  -158.144
5346.68     69.906  -163.179
5424.45     70.931  -171.746
5503.35     71.349   179.348
5583.40     71.369   171.496
5664.61     71.137   164.708
5747.01     70.615   158.828
5830.60     69.725   155.723
5915.41     69.007   157.337
6001.45     68.884   159.268
6088.74     68.766   159.782
6177.30     68.670   161.205
6267.15     68.689   162.558
6358.31     68.793   164.284
6450.80     69.012   165.363
6544.62     69.204   166.776
6639.82     69.651   168.036
6736.40     70.113   167.487
6834.38     70.426   166.276
6933.79     70.640   165.844
7034.64     71.134   165.249
7136.96     71.540   161.800
7240.77     71.620   157.764
7346.09     71.362   153.650
7452.94     70.823   151.515
7561.35     70.165   151.080
7671.33     69.517   153.828
7782.91     69.224   158.373
7896.12     69.325   162.857
8010.97     69.535   166.321
8127.49     69.933   168.659
8245.71     70.070   169.904
8365.65     70.222   172.292
8487.33     70.495   175.029
8610.78     70.931   176.388
8736.03     71.316   177.068
8863.09     71.723   176.540
8992.01     72.081   174.522
9122.80     72.124   170.987
9255.50     71.783   168.141
9390.12     71.345   167.697
9526.70     71.021   168.514
9665.27     70.925   170.148
9805.86     71.039   171.711
9948.49     71.302   172.163
10093.2     71.602   172.081
10240.0     71.936   171.335
10388.9     72.230   169.497
10540.1     72.370   167.198
10693.4     72.407   165.366
10848.9     72.437   162.992
11006.7     72.303   159.862
11166.8     71.849   157.125
11329.2     71.200   156.600
11494.0     70.692   158.505
11661.2     70.541   160.711
11830.8     70.553   161.642
12002.9     70.484   160.972
12177.5     70.172   159.617
12354.6     69.559   158.980
12534.3     68.762   160.560
12716.6     68.097   165.346
12901.6     67.968   170.992
13089.2     68.066   174.571
13279.6     68.094   176.596
13472.8     67.896  -179.983
13668.8     68.144  -176.503
13867.6     68.376  -174.916
14069.3     68.546  -174.485
14273.9     68.535  -174.586
14481.5     68.399  -174.833
14692.2     68.196  -174.508
14905.9     67.766  -175.220
15122.7     67.187  -173.838
15342.7     66.585  -171.453
15565.8     66.085  -167.686
15792.2     65.670  -163.466
16021.9     65.477  -158.666
16255.0     65.452  -155.173
16491.4     65.306  -152.844
16731.3     65.016  -150.228
16974.7     64.699  -146.832
17221.6     64.467  -143.107
17472.1     64.239  -139.741
17726.2     63.936  -136.091
17984.0     63.717  -131.833
18245.6     63.550  -128.088
18511.0     63.331  -124.518
18780.2     63.036  -120.509
19053.4     62.793  -115.683
19330.5     62.681  -110.793
19611.7     62.682  -106.260
19897.0     62.664  -102.694
20186.4     62.618   -99.302
20480.0     62.597   -97.768
20777.9     61.553   -93.987
21080.1     61.717   -86.060
21386.7     61.751   -82.049
21697.8     61.674   -78.226
22013.4     61.568   -73.986
22333.6     61.516   -69.456
22658.4     61.599   -65.383
22988.0     61.607   -62.671
23322.4     61.509   -59.856
23661.6     61.403   -57.450
24005.8     61.110   -55.518
24355.0     60.618   -52.669
24709.2     60.164   -48.469
25068.6     59.769   -43.953
25433.2     59.434   -38.896
25803.2     59.288   -33.826
26178.5     59.189   -29.951
26559.3     59.023   -25.498
26945.6     58.996   -20.845
27337.5     59.026   -17.070
27735.2     58.980   -13.418
28138.6     59.015   -10.158
28547.9     58.704    -7.619
28963.1     58.221    -2.525
29384.4     58.081     3.465
29811.8     57.819     9.136
30245.4     57.739    15.748
30685.3     57.721    21.025
31131.7     57.560    26.611
31584.5     57.409    32.503
32043.9     57.376    38.587
32510.0     57.455    43.827
32982.8     57.471    48.654
33462.6     57.548    53.575
33949.3     57.667    59.893
34443.1     58.471    64.697
34944.1     59.191    68.062
35452.4     60.589    70.125
35968.0     62.418    64.702
36491.2     63.897    49.230
37022.0     63.463    25.703
37560.5     60.756     9.403
38106.8     58.190     5.504
38661.1     56.355     3.876
39223.4     54.547     1.766
39793.9     53.916     7.941
