Freq[Hz]     dBSPL  Phase[Deg]
5.00000    -14.133    32.253
5.07273    -14.574    37.661
5.14651    -14.776    43.655
5.22137    -14.313    51.282
5.29732    -13.850    58.909
5.37437    -13.388    66.536
5.45254    -12.925    74.162
5.53185    -12.341    79.139
5.61231    -11.629    81.312
5.69394    -10.917    83.485
5.77676    -10.205    85.658
5.86079     -9.501    87.788
5.94604     -9.290    87.463
6.03252     -9.079    87.138
6.12027     -8.868    86.813
6.20929     -8.656    86.487
6.29961     -9.023    86.675
6.39124     -9.517    86.977
6.48420    -10.012    87.279
6.57851    -10.506    87.580
6.67420    -11.572    95.290
6.77128    -12.731   104.202
6.86977    -13.890   113.113
6.96969    -14.772   122.618
7.07107    -13.553   136.638
7.17392    -12.334   150.657
7.27827    -11.115   164.676
7.38413     -9.862   171.381
7.49154     -8.581   172.435
7.60050     -7.300   173.488
7.71105     -6.201   173.981
7.82321     -5.897   172.009
7.93701     -5.594   170.037
8.05245     -5.291   168.065
8.16958     -6.127   167.427
8.28841     -7.006   166.839
8.40896     -7.885   166.251
8.53128     -9.708  -177.074
8.65537    -11.654  -158.172
8.78126    -13.599  -139.270
8.90899    -10.848  -122.735
9.03857     -7.789  -106.357
9.17004     -4.876   -91.886
9.30342     -3.126   -92.602
9.43874     -1.376   -93.319
9.57603     -0.088   -94.223
9.71532      0.494   -95.412
9.85663      1.076   -96.602
10.0000      1.078   -93.522
10.1455      0.918   -89.253
10.2930      1.018   -83.029
10.4427      1.845   -71.345
10.5946      2.672   -59.661
10.7487      4.544   -54.235
10.9051      6.623   -50.058
11.0637      8.515   -49.449
11.2246     10.208   -52.614
11.3879     11.768   -56.448
11.5535     12.843   -62.718
11.7216     13.909   -69.014
11.8921     14.385   -76.801
12.0650     14.862   -84.588
12.2405     14.751   -93.137
12.4186     14.565  -101.785
12.5992     13.606  -110.750
12.7825     12.476  -119.785
12.9684      9.619  -127.947
13.1570      6.361  -135.906
13.3484      2.676   -76.189
13.5426     -1.078    -5.484
13.7395      5.517    -6.035
13.9394     12.001   -10.135
14.1421     14.608   -20.366
14.3478     16.813   -30.838
14.5565     18.154   -41.827
14.7683     19.054   -52.902
14.9831     19.615   -64.043
15.2010     19.610   -74.938
15.4221     19.379   -85.601
15.6464     18.576   -95.423
15.8740     17.281  -103.605
16.1049     15.594  -110.477
16.3392     12.876  -107.958
16.5768     10.773   -96.116
16.8179      9.621   -71.239
17.0626     11.835   -56.823
17.3107     14.241   -49.586
17.5625     16.279   -51.223
17.8180     17.428   -55.918
18.0771     18.192   -60.548
18.3401     18.604   -64.672
18.6068     18.702   -66.799
18.8775     18.783   -66.898
19.1521     18.951   -65.641
19.4306     19.284   -63.409
19.7133     19.844   -61.304
20.0000     20.463   -59.808
20.2909     21.088   -58.628
20.5860     21.703   -57.536
20.8855     22.330   -56.294
21.1893     23.043   -55.064
21.4975     23.826   -54.424
21.8102     24.611   -54.628
22.1274     25.325   -55.636
22.4492     25.906   -57.128
22.7758     26.329   -58.573
23.1071     26.628   -59.407
23.4432     26.893   -59.290
23.7841     27.238   -58.402
24.1301     27.709   -57.545
24.4811     28.245   -57.332
24.8372     28.741   -57.829
25.1984     29.128   -58.568
25.5649     29.410   -58.830
25.9368     29.683   -58.068
26.3141     30.091   -56.387
26.6968     30.730   -54.670
27.0851     31.555   -53.996
27.4791     32.419   -54.881
27.8788     33.172   -56.965
28.2843     33.759   -59.419
28.6957     34.206   -61.491
29.1131     34.591   -62.712
29.5365     35.018   -63.060
29.9661     35.560   -62.955
30.4020     36.226   -63.002
30.8442     36.962   -63.700
31.2929     37.688   -64.983
31.7480     38.363   -66.615
32.2098     38.984   -68.343
32.6783     39.564   -69.993
33.1536     40.121   -71.546
33.6359     40.663   -73.012
34.1251     41.198   -74.338
34.6215     41.743   -75.481
35.1250     42.325   -76.535
35.6359     42.960   -77.763
36.1543     43.616   -79.353
36.6802     44.252   -81.270
37.2137     44.854   -83.275
37.7550     45.447   -85.186
38.3041     46.061   -87.067
38.8613     46.691   -89.092
39.4265     47.314   -91.300
40.0000     47.922   -93.549
40.5818     48.527   -95.785
41.1721     49.136   -98.094
41.7710     49.735  -100.502
42.3785     50.323  -102.922
42.9949     50.916  -105.338
43.6203     51.517  -107.882
44.2548     52.109  -110.629
44.8985     52.681  -113.416
45.5515     53.258  -116.193
46.2141     53.852  -119.141
46.8863     54.429  -122.374
47.5683     54.964  -125.661
48.2602     55.496  -128.810
48.9621     56.047  -132.022
49.6743     56.595  -135.487
50.3968     57.110  -139.079
51.1299     57.606  -142.640
51.8736     58.104  -146.247
52.6281     58.593  -150.000
53.3936     59.063  -153.861
54.1702     59.520  -157.795
54.9581     59.964  -161.818
55.7575     60.393  -165.917
56.5685     60.805  -170.085
57.3914     61.196  -174.318
58.2261     61.559  -178.553
59.0730     61.904   177.250
59.9323     62.233   173.013
60.8040     62.531   168.739
61.6884     62.811   164.506
62.5857     63.084   160.202
63.4960     63.325   155.740
64.4196     63.520   151.334
65.3566     63.699   147.132
66.3073     63.877   143.027
67.2717     64.032   138.986
68.2502     64.172   135.282
69.2429     64.354   131.690
70.2501     64.504   127.835
71.2719     64.626   124.517
72.3086     64.858   120.971
73.3603     65.000   116.572
74.4274     65.045   112.813
75.5099     65.158   109.235
76.6083     65.248   105.594
77.7226     65.365   102.161
78.8531     65.480    98.613
80.0000     65.591    95.180
81.1636     65.700    91.700
82.3442     65.800    88.245
83.5419     65.882    84.746
84.7570     65.961    81.420
85.9899     66.055    77.989
87.2406     66.123    74.568
88.5096     66.187    71.255
89.7970     66.239    67.968
91.1031     66.275    64.781
92.4282     66.309    61.775
93.7726     66.358    58.811
95.1366     66.415    55.919
96.5204     66.488    53.081
97.9243     66.582    50.290
99.3486     66.692    47.376
100.794     66.796    44.437
102.260     66.906    41.413
103.747     67.013    38.412
105.256     67.132    35.146
106.787     67.212    31.870
108.340     67.277    28.632
109.916     67.346    25.611
111.515     67.437    22.595
113.137     67.533    19.409
114.783     67.613    16.233
116.452     67.688    13.041
118.146     67.757     9.841
119.865     67.821     6.778
121.608     67.903     3.720
123.377     67.997     0.602
125.171     68.098    -2.610
126.992     68.183    -5.925
128.839     68.271    -9.182
130.713     68.357   -12.487
132.615     68.446   -15.812
134.543     68.535   -19.258
136.500     68.631   -22.758
138.486     68.717   -26.015
140.500     68.812   -29.570
142.544     68.899   -33.679
144.617     68.903   -37.351
146.721     68.938   -40.603
148.855     69.035   -44.168
151.020     69.129   -48.126
153.217     69.161   -52.262
155.445     69.085   -56.218
157.706     69.042   -59.011
160.000     69.138   -62.215
162.327     69.259   -65.850
164.688     69.356   -69.484
167.084     69.499   -73.549
169.514     69.554   -79.332
171.980     69.298   -83.609
174.481     69.270   -86.593
177.019     69.264   -90.374
179.594     69.167   -94.093
182.206     69.150   -97.375
184.856     69.173  -101.174
187.545     69.171  -104.956
190.273     69.096  -108.574
193.041     69.088  -111.830
195.849     69.135  -115.109
198.697     69.224  -119.283
201.587     69.179  -123.409
204.520     69.201  -127.042
207.494     69.226  -131.174
210.512     69.192  -135.679
213.574     69.033  -139.736
216.681     68.963  -142.362
219.833     69.056  -145.766
223.030     69.110  -150.000
226.274     69.087  -154.433
229.565     68.968  -158.394
232.905     68.936  -161.676
236.292     68.929  -165.107
239.729     68.993  -168.949
243.216     68.997  -173.324
246.754     68.925  -177.193
250.343     68.919   178.762
253.984     68.842   174.558
257.678     68.764   170.643
261.426     68.577   166.582
265.229     68.477   164.025
269.087     68.506   160.655
273.001     68.533   157.061
276.972     68.434   153.088
281.000     68.359   150.207
285.088     68.371   146.931
289.234     68.503   143.556
293.441     68.572   138.409
297.709     68.294   134.396
302.040     68.344   130.721
306.433     67.987   126.359
310.890     67.859   124.112
315.412     67.670   121.196
320.000     67.666   119.031
324.655     67.580   116.096
329.377     67.666   113.856
334.168     67.808   109.410
339.028     67.591   104.924
343.959     67.510   102.508
348.962     67.516    98.232
354.038     67.306    95.235
359.188     67.253    92.590
364.412     67.315    89.532
369.713     67.316    86.742
375.090     67.320    82.775
380.546     67.264    80.072
386.081     67.337    77.134
391.697     67.222    73.423
397.394     67.194    72.093
403.175     67.363    69.221
409.039     67.356    66.083
414.989     67.368    63.710
421.025     67.336    60.834
427.149     67.249    58.808
433.362     67.287    57.411
439.665     67.317    55.485
446.060     67.250    53.526
452.548     67.245    52.724
459.131     67.266    51.332
465.809     67.319    50.379
472.584     67.295    48.713
479.458     67.192    48.318
486.432     67.258    47.761
493.507     67.227    46.758
500.686     67.127    46.343
507.968     67.096    46.102
515.357     67.003    45.877
522.853     66.928    45.950
530.458     66.845    45.977
538.174     66.721    46.180
546.002     66.597    46.658
553.943     66.474    47.340
562.001     66.333    48.108
570.175     66.211    49.063
578.469     66.087    50.015
586.883     65.941    51.208
595.419     65.815    52.585
604.080     65.711    53.905
612.866     65.609    55.320
621.780     65.525    56.760
630.824     65.458    58.167
640.000     65.410    59.495
649.309     65.380    60.802
658.753     65.366    62.118
668.335     65.366    63.452
678.056     65.381    64.740
687.919     65.407    65.997
697.925     65.444    67.214
708.077     65.488    68.365
718.376     65.539    69.468
728.825     65.595    70.522
739.426     65.654    71.526
750.181     65.715    72.479
761.093     65.776    73.384
772.163     65.834    74.231
783.394     65.890    75.039
794.789     65.944    75.828
806.349     65.991    76.578
818.078     66.032    77.312
829.977     66.068    78.038
842.050     66.097    78.767
854.298     66.119    79.508
866.724     66.134    80.258
879.330     66.144    81.048
892.120     66.148    81.878
905.097     66.147    82.756
918.262     66.140    83.696
931.618     66.130    84.714
945.169     66.119    85.829
958.917     66.109    87.061
972.864     66.106    88.430
987.015     66.119    89.945
1001.37     66.152    91.618
1015.94     66.225    93.388
1030.71     66.344    95.157
1045.71     66.519    96.852
1060.92     66.750    98.327
1076.35     67.024    99.398
1092.00     67.325    99.964
1107.89     67.632    99.942
1124.00     67.914    99.296
1140.35     68.143    98.052
1156.94     68.294    96.260
1173.77     68.339    94.046
1190.84     68.254    91.560
1208.16     68.019    88.995
1225.73     67.612    86.574
1243.56     67.013    84.640
1261.65     66.220    83.688
1280.00     65.256    84.347
1298.62     64.199    87.398
1317.51     63.226    93.549
1336.67     62.639   102.559
1356.11     62.676   112.347
1375.84     63.260   120.354
1395.85     64.086   125.321
1416.15     64.874   127.527
1436.75     65.486   127.928
1457.65     65.880   127.424
1478.85     66.060   126.758
1500.36     66.065   126.537
1522.19     65.964   127.192
1544.33     65.853   128.911
1566.79     65.830   131.506
1589.58     65.964   134.406
1612.70     66.245   136.879
1636.16     66.610   138.450
1659.95     66.969   139.008
1684.10     67.251   138.747
1708.60     67.413   138.036
1733.45     67.447   137.280
1758.66     67.371   136.831
1784.24     67.224   136.952
1810.19     67.061   137.736
1836.52     66.933   139.092
1863.24     66.877   140.739
1890.34     66.899   142.323
1917.83     66.971   143.558
1945.73     67.051   144.319
1974.03     67.096   144.667
2002.74     67.077   144.788
2031.87     66.987   144.943
2061.43     66.843   145.367
2091.41     66.681   146.197
2121.83     66.544   147.379
2152.69     66.463   148.656
2184.01     66.434   149.724
2215.77     66.425   150.352
2248.00     66.392   150.491
2280.70     66.299   150.263
2313.87     66.127   149.854
2347.53     65.871   149.446
2381.68     65.534   149.206
2416.32     65.120   149.320
2451.46     64.651   150.018
2487.12     64.175   151.474
2523.30     63.768   153.605
2560.00     63.482   155.936
2597.24     63.304   157.819
2635.01     63.152   158.921
2673.34     62.942   159.390
2712.23     62.641   159.669
2751.68     62.275   160.147
2791.70     61.901   160.921
2832.31     61.562   161.800
2873.50     61.274   162.480
2915.30     61.022   162.664
2957.70     60.769   162.148
3000.72     60.465   160.966
3044.37     60.090   159.455
3088.65     59.695   157.940
3133.58     59.381   156.171
3179.16     59.170   153.240
3225.40     58.939   148.561
3272.31     58.554   142.693
3319.91     58.031   136.868
3368.20     57.572   131.782
3417.19     57.366   126.702
3466.89     57.367   120.488
3517.32     57.402   113.340
3568.48     57.434   106.479
3620.39     57.556   100.330
3673.05     57.760    94.345
3726.47     57.876    88.636
3780.67     57.828    84.595
3835.67     57.814    83.294
3891.46     58.081    83.800
3948.06     58.613    84.339
4005.49     59.256    84.166
4063.75     59.877    83.151
4122.86     60.328    81.772
4182.82     60.613    81.381
4243.66     60.976    82.312
4305.39     61.504    82.829
4368.01     61.950    82.238
4431.55     62.219    81.923
4496.01     62.481    82.303
4561.40     62.758    82.529
4627.75     62.972    82.785
4695.06     63.204    83.166
4763.35     63.411    82.895
4832.64     63.475    82.519
4902.93     63.512    82.433
4974.24     63.459    81.601
5046.60     63.113    81.580
5120.00     62.925    83.858
5194.47     63.054    83.842
5270.03     62.572    81.395
5346.68     61.565    84.306
5424.45     61.456    91.035
5503.35     61.767    92.803
5583.40     61.685    93.633
5664.61     61.834    95.078
5747.01     62.082    92.961
5830.60     61.810    88.160
5915.41     60.809    84.581
6001.45     59.684    86.542
6088.74     59.274    89.398
6177.30     58.836    90.099
6267.15     58.587    91.513
6358.31     58.350    90.059
6450.80     57.987    90.347
6544.62     58.137    88.059
6639.82     57.793    83.063
6736.40     57.375    78.723
6834.38     56.510    74.622
6933.79     56.068    75.472
7034.64     56.227    72.491
7136.96     56.354    65.740
7240.77     55.438    53.355
7346.09     53.191    48.159
7452.94     50.539    46.609
7561.35     47.328    63.095
7671.33     46.242    83.947
7782.91     47.127   107.398
7896.12     47.634   120.392
8010.97     49.692   136.590
8127.49     51.311   143.199
8245.71     52.614   143.405
8365.65     52.485   151.791
8487.33     53.563   158.538
8610.78     54.042   166.230
8736.03     54.691   175.762
8863.09     56.325  -176.142
8992.01     57.622  -173.096
9122.80     58.780  -173.165
9255.50     59.489  -173.735
9390.12     59.853  -174.974
9526.70     60.147  -175.757
9665.27     60.168  -176.302
9805.86     60.044  -176.069
9948.49     60.081  -174.464
10093.2     60.155  -172.439
10240.0     60.358  -171.840
10388.9     60.673  -171.056
10540.1     60.867  -172.128
10693.4     60.897  -173.564
10848.9     60.895  -174.524
11006.7     60.919  -174.949
11166.8     61.105  -175.323
11329.2     61.452  -177.793
11494.0     61.671   178.523
11661.2     61.717   175.342
11830.8     61.719   172.176
12002.9     61.649   169.657
12177.5     61.649   168.227
12354.6     61.741   166.384
12534.3     61.647   164.695
12716.6     61.462   164.379
12901.6     61.392   165.198
13089.2     61.396   166.096
13279.6     61.367   166.404
13472.8     61.133   168.400
13668.8     61.251   170.537
13867.6     61.259   170.699
14069.3     61.090   170.880
14273.9     60.836   171.089
14481.5     60.443   170.859
14692.2     59.888   169.703
14905.9     58.931   170.331
15122.7     58.119   171.548
15342.7     57.163   173.458
15565.8     56.383   175.986
15792.2     55.587   178.129
16021.9     54.734  -179.507
16255.0     53.899  -176.582
16491.4     53.050  -173.756
16731.3     52.038  -169.935
16974.7     51.001  -163.283
17221.6     50.298  -154.754
17472.1     49.964  -146.144
17726.2     50.001  -139.791
17984.0     49.894  -136.258
18245.6     49.715  -133.878
18511.0     49.243  -133.100
18780.2     48.589  -132.082
19053.4     47.937  -130.388
19330.5     47.381  -129.692
19611.7     46.567  -129.147
19897.0     45.413  -126.998
20186.4     44.332  -121.224
20480.0     43.268  -116.109
20777.9     41.018  -104.385
21080.1     40.721   -82.687
21386.7     41.275   -67.840
21697.8     42.011   -58.244
22013.4     42.333   -51.092
22333.6     42.591   -42.605
22658.4     43.253   -35.728
22988.0     43.780   -31.982
23322.4     43.914   -30.213
23661.6     43.753   -28.593
24005.8     43.471   -27.644
24355.0     43.032   -26.796
24709.2     42.549   -24.833
25068.6     42.371   -22.568
25433.2     42.098   -21.275
25803.2     41.836   -21.002
26178.5     41.308   -23.072
26559.3     39.810   -19.364
26945.6     39.342   -15.379
27337.5     38.645   -17.911
27735.2     37.068   -21.718
28138.6     34.412   -31.120
28547.9     29.591   -32.645
28963.1     21.838   -30.091
29384.4     18.890   122.159
29811.8     30.191   108.054
30245.4     34.068    98.758
30685.3     35.764    89.705
31131.7     36.506    81.461
31584.5     37.012    69.043
32043.9     36.223    54.014
32510.0     35.085    40.710
32982.8     34.049    25.544
33462.6     33.506     3.418
33949.3     31.743   -21.676
34443.1     31.273   -26.148
34944.1     33.016   -50.276
35452.4     31.617   -73.092
35968.0     32.053   -64.211
36491.2     36.345   -72.572
37022.0     37.667  -107.773
37560.5     35.319  -127.094
38106.8     35.462  -130.114
38661.1     34.905  -150.793
39223.4     35.242  -163.833
39793.9     38.729   128.121
