Freq[Hz]     dBSPL  Phase[Deg]
5.00000    -13.132    29.753
5.07273    -13.572    35.126
5.14651    -13.775    41.084
5.22137    -13.313    48.673
5.29732    -12.850    56.262
5.37437    -12.388    63.851
5.45254    -11.926    71.440
5.53185    -11.342    76.377
5.61231    -10.630    78.510
5.69394     -9.919    80.642
5.77676     -9.207    82.775
5.86079     -8.503    84.865
5.94604     -8.293    84.498
6.03252     -8.082    84.130
6.12027     -7.871    83.761
6.20929     -7.660    83.393
6.29961     -8.027    83.536
6.39124     -8.522    83.793
6.48420     -9.017    84.049
6.57851     -9.512    84.305
6.67420    -10.578    91.967
6.77128    -11.738   100.831
6.86977    -12.897   109.695
6.96969    -13.780   119.152
7.07107    -12.562   133.121
7.17392    -11.343   147.091
7.27827    -10.124   161.059
7.38413     -8.871   167.713
7.49154     -7.591   168.714
7.60050     -6.311   169.715
7.71105     -5.213   170.155
7.82321     -4.910   168.128
7.93701     -4.607   166.101
8.05245     -4.304   164.074
8.16958     -5.141   163.379
8.28841     -6.021   162.734
8.40896     -6.900   162.088
8.53128     -8.725   178.704
8.65537    -10.672  -162.453
8.78126    -12.618  -143.611
8.90899     -9.868  -127.138
9.03857     -6.809  -110.821
9.17004     -3.897   -96.413
9.30342     -2.148   -97.193
9.43874     -0.398   -97.974
9.57603      0.889   -98.943
9.71532      1.470  -100.199
9.85663      2.050  -101.455
10.0000      2.051   -98.443
10.1455      1.890   -94.243
10.2930      1.989   -88.088
10.4427      2.815   -76.475
10.5946      3.641   -64.862
10.7487      5.510   -59.508
10.9051      7.589   -55.404
11.0637      9.479   -54.869
11.2246     11.171   -58.109
11.3879     12.729   -62.018
11.5535     13.804   -68.366
11.7216     14.868   -74.739
11.8921     15.343   -82.604
12.0650     15.818   -90.470
12.2405     15.705   -99.101
12.4186     15.517  -107.830
12.5992     14.557  -116.877
12.7825     13.425  -125.995
12.9684     10.567  -134.242
13.1570      7.306  -142.285
13.3484      3.619   -82.656
13.5426     -0.137   -12.037
13.7395      6.457   -12.677
13.9394     12.939   -16.866
14.1421     15.543   -27.187
14.3478     17.746   -37.750
14.5565     19.085   -48.831
14.7683     19.983   -59.999
14.9831     20.542   -71.234
15.2010     20.534   -82.225
15.4221     20.300   -92.984
15.6464     19.494  -102.903
15.8740     18.197  -111.183
16.1049     16.507  -118.154
16.3392     13.786  -115.736
16.5768     11.681  -103.994
16.8179     10.526   -79.219
17.0626     12.737   -64.907
17.3107     15.140   -57.774
17.5625     17.174   -59.516
17.8180     18.320   -64.318
18.0771     19.082   -69.054
18.3401     19.490   -73.286
18.6068     19.585   -75.522
18.8775     19.661   -75.731
19.1521     19.826   -74.584
19.4306     20.156   -72.464
19.7133     20.712   -70.472
20.0000     21.327   -69.089
20.2909     21.947   -68.023
20.5860     22.558   -67.046
20.8855     23.182   -65.920
21.1893     23.890   -64.807
21.4975     24.668   -64.285
21.8102     25.449   -64.607
22.1274     26.158   -65.734
22.4492     26.734   -67.346
22.7758     27.152   -68.912
23.1071     27.447   -69.867
23.4432     27.706   -69.872
23.7841     28.046   -69.107
24.1301     28.511   -68.373
24.4811     29.040   -68.284
24.8372     29.531   -68.905
25.1984     29.913   -69.770
25.5649     30.189   -70.157
25.9368     30.456   -69.521
26.3141     30.858   -67.967
26.6968     31.490   -66.377
27.0851     32.308   -65.830
27.4791     33.165   -66.843
27.8788     33.911   -69.055
28.2843     34.492   -71.636
28.6957     34.932   -73.836
29.1131     35.310   -75.186
29.5365     35.728   -75.663
29.9661     36.263   -75.686
30.4020     36.921   -75.862
30.8442     37.649   -76.688
31.2929     38.366   -78.100
31.7480     39.033   -79.861
32.2098     39.646   -81.716
32.6783     40.216   -83.495
33.1536     40.765   -85.175
33.6359     41.298   -86.769
34.1251     41.824   -88.222
34.6215     42.359   -89.491
35.1250     42.932   -90.671
35.6359     43.556   -92.024
36.1543     44.202   -93.739
36.6802     44.829   -95.780
37.2137     45.419   -97.909
37.7550     46.003   -99.943
38.3041     46.605  -101.945
38.8613     47.225  -104.091
39.4265     47.836  -106.419
40.0000     48.433  -108.787
40.5818     49.026  -111.140
41.1721     49.624  -113.566
41.7710     50.212  -116.089
42.3785     50.788  -118.623
42.9949     51.367  -121.152
43.6203     51.957  -123.807
44.2548     52.536  -126.663
44.8985     53.096  -129.559
45.5515     53.659  -132.442
46.2141     54.240  -135.496
46.8863     54.804  -138.831
47.5683     55.326  -142.220
48.2602     55.843  -145.469
48.9621     56.380  -148.778
49.6743     56.915  -152.339
50.3968     57.415  -156.025
51.1299     57.898  -159.677
51.8736     58.381  -163.374
52.6281     58.855  -167.215
53.3936     59.311  -171.161
54.1702     59.754  -175.179
54.9581     60.183  -179.283
55.7575     60.597   176.539
56.5685     60.993   172.295
57.3914     61.368   167.988
58.2261     61.717   163.682
59.0730     62.046   159.415
59.9323     62.359   155.111
60.8040     62.643   150.772
61.6884     62.906   146.478
62.5857     63.164   142.114
63.4960     63.389   137.595
64.4196     63.569   133.135
65.3566     63.731   128.881
66.3073     63.894   124.726
67.2717     64.032   120.638
68.2502     64.157   116.889
69.2429     64.324   113.255
70.2501     64.457   109.360
71.2719     64.563   106.005
72.3086     64.779   102.424
73.3603     64.906    97.993
74.4274     64.935    94.204
75.5099     65.033    90.598
76.6083     65.107    86.932
77.7226     65.209    83.476
78.8531     65.309    79.908
80.0000     65.404    76.457
81.1636     65.497    72.960
82.3442     65.582    69.491
83.5419     65.649    65.981
84.7570     65.714    62.645
85.9899     65.794    59.205
87.2406     65.847    55.778
88.5096     65.898    52.462
89.7970     65.936    49.172
91.1031     65.957    45.984
92.4282     65.979    42.980
93.7726     66.014    40.018
95.1366     66.058    37.131
96.5204     66.118    34.299
97.9243     66.199    31.515
99.3486     66.298    28.609
100.794     66.390    25.679
102.260     66.488    22.666
103.747     66.584    19.677
105.256     66.692    16.423
106.787     66.762    13.161
108.340     66.816     9.938
109.916     66.875     6.932
111.515     66.957     3.932
113.137     67.044     0.762
114.783     67.116    -2.397
116.452     67.182    -5.572
118.146     67.244    -8.754
119.865     67.300   -11.799
121.608     67.375   -14.840
123.377     67.463   -17.941
125.171     67.557   -21.136
126.992     67.638   -24.433
128.839     67.720   -27.673
130.713     67.802   -30.963
132.615     67.887   -34.272
134.543     67.973   -37.702
136.500     68.067   -41.188
138.486     68.150   -44.433
140.500     68.244   -47.976
142.544     68.330   -52.073
144.617     68.333   -55.735
146.721     68.369   -58.979
148.855     68.467   -62.537
151.020     68.562   -66.489
153.217     68.597   -70.622
155.445     68.524   -74.576
157.706     68.484   -77.369
160.000     68.585   -80.576
162.327     68.712   -84.216
164.688     68.814   -87.857
167.084     68.964   -91.931
169.514     69.027   -97.727
171.980     68.780  -102.020
174.481     68.761  -105.021
177.019     68.765  -108.823
179.594     68.679  -112.567
182.206     68.674  -115.879
184.856     68.711  -119.711
187.545     68.722  -123.528
190.273     68.663  -127.187
193.041     68.671  -130.488
195.849     68.735  -133.815
198.697     68.842  -138.045
201.587     68.817  -142.232
204.520     68.860  -145.930
207.494     68.906  -150.133
210.512     68.897  -154.718
213.574     68.763  -158.862
216.681     68.717  -161.575
219.833     68.837  -165.077
223.030     68.920  -169.421
226.274     68.927  -173.972
229.565     68.840  -178.058
232.905     68.841   178.527
236.292     68.868   174.955
239.729     68.969   170.955
243.216     69.010   166.412
246.754     68.977   162.365
250.343     69.013   158.122
253.984     68.979   153.707
257.678     68.946   149.569
261.426     68.806   145.258
265.229     68.754   142.437
269.087     68.833   138.785
273.001     68.909   134.894
276.972     68.862   130.606
281.000     68.840   127.375
285.088     68.909   123.711
289.234     69.098   119.924
293.441     69.224   114.340
297.709     69.003   109.865
302.040     69.109   105.703
306.433     68.809   100.804
310.890     68.739    97.968
315.412     68.606    94.432
320.000     68.655    91.618
324.655     68.617    88.006
329.377     68.749    85.063
334.168     68.934    79.833
339.028     68.755    74.542
343.959     68.705    71.305
348.962     68.735    66.200
354.038     68.541    62.372
359.188     68.498    58.873
364.412     68.562    54.947
369.713     68.557    51.315
375.090     68.549    46.543
380.546     68.475    43.051
386.081     68.525    39.375
391.697     68.384    34.960
397.394     68.328    32.966
403.175     68.471    29.510
409.039     68.439    25.828
414.989     68.430    22.947
421.025     68.383    19.611
427.149     68.287    17.164
433.362     68.325    15.374
439.665     68.362    13.052
446.060     68.311    10.706
452.548     68.332     9.518
459.131     68.387     7.720
465.809     68.485     6.332
472.584     68.514     4.203
479.458     68.469     3.312
486.432     68.602     2.206
493.507     68.646     0.592
500.686     68.628    -0.503
507.968     68.681    -1.481
515.357     68.674    -2.503
522.853     68.689    -3.307
530.458     68.697    -4.242
538.174     68.662    -5.063
546.002     68.623    -5.668
553.943     68.583    -6.149
562.001     68.520    -6.620
570.175     68.471    -6.974
578.469     68.411    -7.392
586.883     68.320    -7.586
595.419     68.240    -7.599
604.080     68.174    -7.688
612.866     68.102    -7.686
621.780     68.041    -7.651
630.824     67.994    -7.630
640.000     67.965    -7.637
649.309     67.954    -7.618
658.753     67.962    -7.575
668.335     67.992    -7.533
678.056     68.042    -7.523
687.919     68.113    -7.571
697.925     68.201    -7.702
708.077     68.303    -7.934
718.376     68.417    -8.284
728.825     68.539    -8.765
739.426     68.665    -9.380
750.181     68.792   -10.131
761.093     68.917   -11.010
772.163     69.034   -11.992
783.394     69.142   -13.078
794.789     69.243   -14.269
806.349     69.330   -15.510
818.078     69.406   -16.800
829.977     69.471   -18.122
842.050     69.525   -19.457
854.298     69.572   -20.794
866.724     69.612   -22.103
879.330     69.651   -23.424
892.120     69.691   -24.743
905.097     69.734   -26.079
918.262     69.784   -27.458
931.618     69.840   -28.912
945.169     69.901   -30.481
958.917     69.963   -32.202
972.864     70.020   -34.107
987.015     70.065   -36.219
1001.37     70.082   -38.577
1015.94     70.066   -41.142
1030.71     70.004   -43.847
1045.71     69.883   -46.704
1060.92     69.689   -49.628
1076.35     69.417   -52.431
1092.00     69.058   -54.993
1107.89     68.604   -57.134
1124.00     68.070   -58.563
1140.35     67.481   -58.977
1156.94     66.887   -58.072
1173.77     66.385   -55.692
1190.84     66.094   -52.055
1208.16     66.107   -47.898
1225.73     66.443   -44.229
1243.56     67.023   -41.954
1261.65     67.714   -41.493
1280.00     68.403   -42.743
1298.62     69.014   -45.388
1317.51     69.508   -49.095
1336.67     69.862   -53.534
1356.11     70.065   -58.355
1375.84     70.121   -63.326
1395.85     70.038   -68.190
1416.15     69.834   -72.664
1436.75     69.540   -76.555
1457.65     69.189   -79.751
1478.85     68.831   -82.208
1500.36     68.515   -84.015
1522.19     68.274   -85.448
1544.33     68.114   -86.847
1566.79     68.014   -88.505
1589.58     67.933   -90.567
1612.70     67.826   -92.967
1636.16     67.663   -95.520
1659.95     67.437   -97.947
1684.10     67.167   -99.969
1708.60     66.896  -101.424
1733.45     66.684  -102.347
1758.66     66.572  -103.048
1784.24     66.567  -103.958
1810.19     66.632  -105.447
1836.52     66.703  -107.684
1863.24     66.719  -110.536
1890.34     66.638  -113.691
1917.83     66.451  -116.746
1945.73     66.184  -119.333
1974.03     65.888  -121.241
2002.74     65.627  -122.484
2031.87     65.449  -123.357
2061.43     65.354  -124.257
2091.41     65.303  -125.445
2121.83     65.247  -126.889
2152.69     65.162  -128.299
2184.01     65.068  -129.377
2215.77     65.021  -130.010
2248.00     65.084  -130.443
2280.70     65.269  -131.203
2313.87     65.530  -132.776
2347.53     65.780  -135.306
2381.68     65.940  -138.551
2416.32     65.966  -142.057
2451.46     65.858  -145.285
2487.12     65.659  -147.762
2523.30     65.449  -149.221
2560.00     65.321  -149.761
2597.24     65.344  -149.880
2635.01     65.515  -150.255
2673.34     65.767  -151.349
2712.23     66.010  -153.180
2751.68     66.189  -155.393
2791.70     66.304  -157.528
2832.31     66.407  -159.374
2873.50     66.545  -161.110
2915.30     66.709  -163.095
2957.70     66.845  -165.458
3000.72     66.901  -167.899
3044.37     66.888  -169.969
3088.65     66.861  -171.453
3133.58     66.875  -172.478
3179.16     66.944  -173.268
3225.40     67.074  -173.919
3272.31     67.288  -174.623
3319.91     67.574  -175.822
3368.20     67.846  -177.738
3417.19     68.020  -179.890
3466.89     68.130   178.499
3517.32     68.317   177.526
3568.48     68.650   176.320
3620.39     69.043   174.079
3673.05     69.373   170.841
3726.47     69.582   166.974
3780.67     69.620   162.728
3835.67     69.412   158.798
3891.46     69.007   156.607
3948.06     68.707   156.781
4005.49     68.751   157.376
4063.75     68.916   156.366
4122.86     68.901   154.686
4182.82     68.793   154.086
4243.66     68.826   154.183
4305.39     68.965   153.697
4368.01     69.077   152.683
4431.55     69.148   151.459
4496.01     69.132   150.126
4561.40     69.019   149.511
4627.75     68.964   149.854
4695.06     68.983   150.325
4763.35     69.011   151.397
4832.64     69.241   153.141
4902.93     69.629   153.734
4974.24     69.892   154.132
5046.60     70.329   156.109
5120.00     71.239   156.833
5194.47     72.246   154.108
5270.03     73.065   148.733
5346.68     73.549   141.279
5424.45     73.534   133.250
5503.35     73.134   126.513
5583.40     72.508   121.179
5664.61     71.645   117.758
5747.01     70.743   117.439
5830.60     70.139   119.894
5915.41     70.127   122.315
6001.45     70.199   120.753
6088.74     69.679   119.141
6177.30     69.196   120.880
6267.15     68.925   122.792
6358.31     68.802   125.746
6450.80     68.986   127.494
6544.62     69.159   128.111
6639.82     69.375   126.963
6736.40     69.228   124.900
6834.38     69.022   123.627
6933.79     68.630   121.380
7034.64     67.849   119.202
7136.96     66.252   120.608
7240.77     65.176   132.787
7346.09     65.611   144.244
7452.94     66.652   150.230
7561.35     67.322   151.606
7671.33     67.872   153.299
7782.91     68.280   153.735
7896.12     68.655   153.718
8010.97     68.648   153.691
8127.49     68.765   155.520
8245.71     68.994   157.077
8365.65     69.260   156.585
8487.33     69.213   156.023
8610.78     68.936   154.818
8736.03     68.356   155.773
8863.09     67.678   158.872
8992.01     67.232   164.265
9122.80     67.060   172.807
9255.50     67.982  -179.989
9390.12     69.138  -179.505
9526.70     69.681   177.938
9665.27     69.950   175.656
9805.86     70.077   174.053
9948.49     70.072   172.863
10093.2     70.084   172.579
10240.0     70.104   173.187
10388.9     70.216   174.229
10540.1     70.396   175.100
10693.4     70.650   176.462
10848.9     71.033   177.398
11006.7     71.496   177.170
11166.8     71.948   175.404
11329.2     72.178   172.507
11494.0     72.088   169.551
11661.2     71.828   168.246
11830.8     71.652   167.998
12002.9     71.561   168.011
12177.5     71.521   167.730
12354.6     71.440   166.890
12534.3     71.306   165.796
12716.6     71.025   164.394
12901.6     70.577   163.513
13089.2     70.022   163.772
13279.6     69.450   164.988
13472.8     68.844   167.200
13668.8     68.356   171.891
13867.6     68.316   176.344
14069.3     68.428   179.110
14273.9     68.442  -179.689
14481.5     68.273  -178.506
14692.2     68.113  -177.186
14905.9     67.840  -175.528
15122.7     67.609  -174.081
15342.7     67.233  -172.835
15565.8     66.711  -170.195
15792.2     66.331  -166.342
16021.9     66.101  -162.340
16255.0     65.953  -159.121
16491.4     65.707  -156.323
16731.3     65.391  -152.935
16974.7     65.140  -148.690
17221.6     65.049  -144.571
17472.1     64.979  -141.201
17726.2     64.857  -138.353
17984.0     64.655  -135.564
18245.6     64.326  -132.628
18511.0     63.961  -128.535
18780.2     63.680  -123.654
19053.4     63.558  -118.447
19330.5     63.563  -113.890
19611.7     63.621  -109.651
19897.0     63.701  -106.463
20186.4     63.732  -103.987
20480.0     63.655  -103.958
20777.9     62.367  -100.837
21080.1     62.269   -91.534
21386.7     62.432   -85.444
21697.8     62.679   -81.335
22013.4     62.718   -78.135
22333.6     62.771   -74.589
22658.4     62.842   -72.265
22988.0     62.667   -70.504
23322.4     62.341   -67.620
23661.6     62.087   -64.013
24005.8     61.837   -60.375
24355.0     61.597   -56.621
24709.2     61.400   -52.901
25068.6     61.189   -49.480
25433.2     60.919   -46.130
25803.2     60.660   -42.691
26178.5     60.370   -39.316
26559.3     60.090   -35.004
26945.6     59.952   -30.234
27337.5     59.898   -25.382
27735.2     60.051   -21.217
28138.6     60.280   -18.985
28547.9     59.939   -19.742
28963.1     58.810   -16.799
29384.4     57.910    -7.778
29811.8     57.588     2.920
30245.4     57.766    13.064
30685.3     58.210    20.484
31131.7     58.487    25.870
31584.5     58.611    31.149
32043.9     58.731    36.464
32510.0     58.852    41.447
32982.8     58.951    46.616
33462.6     59.169    52.401
33949.3     59.599    59.997
34443.1     61.000    63.588
34944.1     61.944    65.084
35452.4     63.613    64.678
35968.0     65.512    55.715
36491.2     66.687    37.045
37022.0     65.785    11.710
37560.5     62.400    -5.287
38106.8     58.995    -1.772
38661.1     58.110    -0.042
39223.4     55.925    -6.540
39793.9     53.291    16.805
