"SPL Vertical"
"On-Axis"		"10°"		"-10°"		"20°"		"-20°"		"30°"		"-30°"		"40°"		"-40°"		"50°"		"-50°"		"60°"		"-60°"		"70°"		"-70°"		"80°"		"-80°"		"90°"		"-90°"		"100°"		"-100°"		"110°"		"-110°"		"120°"		"-120°"		"130°"		"-130°"		"140°"		"-140°"		"150°"		"-150°"		"160°"		"-160°"		"170°"		"-170°"		"180°"
"Frequency / Hz"	"Sound Pressure Level / dB (re 20 µPa/V)  [2.83  V @ 1. m]"	"Frequency / Hz"	"Sound Pressure Level / dB (re 20 µPa/V)  [2.83  V @ 1. m]"	"Frequency / Hz"	"Sound Pressure Level / dB (re 20 µPa/V)  [2.83  V @ 1. m]"	"Frequency / Hz"	"Sound Pressure Level / dB (re 20 µPa/V)  [2.83  V @ 1. m]"	"Frequency / Hz"	"Sound Pressure Level / dB (re 20 µPa/V)  [2.83  V @ 1. m]"	"Frequency / Hz"	"Sound Pressure Level / dB (re 20 µPa/V)  [2.83  V @ 1. m]"	"Frequency / Hz"	"Sound Pressure Level / dB (re 20 µPa/V)  [2.83  V @ 1. m]"	"Frequency / Hz"	"Sound Pressure Level / dB (re 20 µPa/V)  [2.83  V @ 1. m]"	"Frequency / Hz"	"Sound Pressure Level / dB (re 20 µPa/V)  [2.83  V @ 1. m]"	"Frequency / Hz"	"Sound Pressure Level / dB (re 20 µPa/V)  [2.83  V @ 1. m]"	"Frequency / Hz"	"Sound Pressure Level / dB (re 20 µPa/V)  [2.83  V @ 1. m]"	"Frequency / Hz"	"Sound Pressure Level / dB (re 20 µPa/V)  [2.83  V @ 1. m]"	"Frequency / Hz"	"Sound Pressure Level / dB (re 20 µPa/V)  [2.83  V @ 1. m]"	"Frequency / Hz"	"Sound Pressure Level / dB (re 20 µPa/V)  [2.83  V @ 1. m]"	"Frequency / Hz"	"Sound Pressure Level / dB (re 20 µPa/V)  [2.83  V @ 1. m]"	"Frequency / Hz"	"Sound Pressure Level / dB (re 20 µPa/V)  [2.83  V @ 1. m]"	"Frequency / Hz"	"Sound Pressure Level / dB (re 20 µPa/V)  [2.83  V @ 1. m]"	"Frequency / Hz"	"Sound Pressure Level / dB (re 20 µPa/V)  [2.83  V @ 1. m]"	"Frequency / Hz"	"Sound Pressure Level / dB (re 20 µPa/V)  [2.83  V @ 1. m]"	"Frequency / Hz"	"Sound Pressure Level / dB (re 20 µPa/V)  [2.83  V @ 1. m]"	"Frequency / Hz"	"Sound Pressure Level / dB (re 20 µPa/V)  [2.83  V @ 1. m]"	"Frequency / Hz"	"Sound Pressure Level / dB (re 20 µPa/V)  [2.83  V @ 1. m]"	"Frequency / Hz"	"Sound Pressure Level / dB (re 20 µPa/V)  [2.83  V @ 1. m]"	"Frequency / Hz"	"Sound Pressure Level / dB (re 20 µPa/V)  [2.83  V @ 1. m]"	"Frequency / Hz"	"Sound Pressure Level / dB (re 20 µPa/V)  [2.83  V @ 1. m]"	"Frequency / Hz"	"Sound Pressure Level / dB (re 20 µPa/V)  [2.83  V @ 1. m]"	"Frequency / Hz"	"Sound Pressure Level / dB (re 20 µPa/V)  [2.83  V @ 1. m]"	"Frequency / Hz"	"Sound Pressure Level / dB (re 20 µPa/V)  [2.83  V @ 1. m]"	"Frequency / Hz"	"Sound Pressure Level / dB (re 20 µPa/V)  [2.83  V @ 1. m]"	"Frequency / Hz"	"Sound Pressure Level / dB (re 20 µPa/V)  [2.83  V @ 1. m]"	"Frequency / Hz"	"Sound Pressure Level / dB (re 20 µPa/V)  [2.83  V @ 1. m]"	"Frequency / Hz"	"Sound Pressure Level / dB (re 20 µPa/V)  [2.83  V @ 1. m]"	"Frequency / Hz"	"Sound Pressure Level / dB (re 20 µPa/V)  [2.83  V @ 1. m]"	"Frequency / Hz"	"Sound Pressure Level / dB (re 20 µPa/V)  [2.83  V @ 1. m]"	"Frequency / Hz"	"Sound Pressure Level / dB (re 20 µPa/V)  [2.83  V @ 1. m]"	"Frequency / Hz"	"Sound Pressure Level / dB (re 20 µPa/V)  [2.83  V @ 1. m]"
20.5078	61.386	20.5078	61.3097	20.5078	61.2931	20.5078	61.0617	20.5078	61.0275	20.5078	60.633	20.5078	60.5792	20.5078	60.0105	20.5078	59.9331	20.5078	59.1811	20.5078	59.0733	20.5078	58.1482	20.5078	57.9992	20.5078	56.9778	20.5078	56.7741	20.5078	55.9072	20.5078	55.646	20.5078	55.4426	20.5078	55.1672	20.5078	56.031	20.5078	55.8221	20.5078	57.4483	20.5078	57.3342	20.5078	59.1163	20.5078	59.0719	20.5078	60.6697	20.5078	60.6653	20.5078	61.9723	20.5078	61.9872	20.5078	62.9879	20.5078	63.0089	20.5078	63.7119	20.5078	63.7304	20.5078	64.1471	20.5078	64.1576	20.5078	64.2957
21.9727	62.3006	21.9727	62.2266	21.9727	62.2284	21.9727	62.0073	21.9727	62.0107	21.9727	61.6479	21.9727	61.6522	21.9727	61.1641	21.9727	61.1677	21.9727	60.5977	21.9727	60.5971	21.9727	60.0422	21.9727	60.0306	21.9727	59.6677	21.9727	59.6363	21.9727	59.6936	21.9727	59.6373	21.9727	60.2524	21.9727	60.1776	21.9727	61.2625	21.9727	61.1845	21.9727	62.502	21.9727	62.4338	21.9727	63.7653	21.9727	63.7128	21.9727	64.9248	21.9727	64.8884	21.9727	65.9145	21.9727	65.8917	21.9727	66.7024	21.9727	66.6897	21.9727	67.2728	21.9727	67.2667	21.9727	67.6176	21.9727	67.6153	21.9727	67.7324
23.4375	64.3778	23.4375	64.3225	23.4375	64.3334	23.4375	64.1715	23.4375	64.1925	23.4375	63.9373	23.4375	63.9666	23.4375	63.6464	23.4375	63.6805	23.4375	63.3474	23.4375	63.3803	23.4375	63.1188	23.4375	63.142	23.4375	63.0654	23.4375	63.0694	23.4375	63.2868	23.4375	63.2659	23.4375	63.8227	23.4375	63.7797	23.4375	64.6231	23.4375	64.5679	23.4375	65.5774	23.4375	65.5214	23.4375	66.5684	23.4375	66.5199	23.4375	67.5051	23.4375	67.4677	23.4375	68.3264	23.4375	68.3005	23.4375	68.9941	23.4375	68.978	23.4375	69.4847	23.4375	69.4758	23.4375	69.7838	23.4375	69.7799	23.4375	69.8832
24.9023	66.3788	24.9023	66.3427	24.9023	66.3556	24.9023	66.2525	24.9023	66.2767	24.9023	66.123	24.9023	66.1551	24.9023	65.9816	24.9023	66.0157	24.9023	65.87	24.9023	65.8981	24.9023	65.8442	24.9023	65.8566	24.9023	65.9651	24.9023	65.9534	24.9023	66.2787	24.9023	66.2393	24.9023	66.7943	24.9023	66.7313	24.9023	67.4769	24.9023	67.4005	24.9023	68.2613	24.9023	68.1833	24.9023	69.0744	24.9023	69.004	24.9023	69.8516	24.9023	69.7943	24.9023	70.5431	24.9023	70.5003	24.9023	71.1126	24.9023	71.0834	24.9023	71.5349	24.9023	71.5173	24.9023	71.7933	24.9023	71.7851	24.9023	71.8779
26.3672	68.4455	26.3672	68.4213	26.3672	68.4407	26.3672	68.3727	26.3672	68.4096	26.3672	68.312	26.3672	68.3627	26.3672	68.2601	26.3672	68.3186	26.3672	68.246	26.3672	68.3045	26.3672	68.3054	26.3672	68.3547	26.3672	68.4735	26.3672	68.5051	26.3672	68.7752	26.3672	68.7841	26.3672	69.2151	26.3672	69.2012	26.3672	69.7731	26.3672	69.7416	26.3672	70.4095	26.3672	70.3684	26.3672	71.075	26.3672	71.0324	26.3672	71.7209	26.3672	71.6828	26.3672	72.3046	26.3672	72.2743	26.3672	72.792	26.3672	72.7703	26.3672	73.1572	26.3672	73.1437	26.3672	73.3823	26.3672	73.3759	26.3672	73.4565
27.832	70.5101	27.832	70.5015	27.832	70.5089	27.832	70.4868	27.832	70.4995	27.832	70.4754	27.832	70.4894	27.832	70.482	27.832	70.4914	27.832	70.5261	27.832	70.5238	27.832	70.63	27.832	70.6088	27.832	70.8147	27.832	70.7689	27.832	71.0943	27.832	71.022	27.832	71.4712	27.832	71.3751	27.832	71.9328	27.832	71.8202	27.832	72.4536	27.832	72.3344	27.832	72.9995	27.832	72.8837	27.832	73.5335	27.832	73.4295	27.832	74.0205	27.832	73.934	27.832	74.4298	27.832	74.364	27.832	74.737	27.832	74.6931	27.832	74.9242	27.832	74.9023	27.832	74.9806
29.2969	72.1789	29.2969	72.1825	29.2969	72.1761	29.2969	72.1896	29.2969	72.1754	29.2969	72.207	29.2969	72.1819	29.2969	72.2448	29.2969	72.2049	29.2969	72.3163	29.2969	72.257	29.2969	72.4358	29.2969	72.3535	29.2969	72.6169	29.2969	72.5096	29.2969	72.8686	29.2969	72.7376	29.2969	73.1924	29.2969	73.0426	29.2969	73.5802	29.2969	73.4199	29.2969	74.0147	29.2969	73.8537	29.2969	74.4708	29.2969	74.3191	29.2969	74.9199	29.2969	74.7857	29.2969	75.3325	29.2969	75.2215	29.2969	75.6815	29.2969	75.5971	29.2969	75.9442	29.2969	75.8878	29.2969	76.1034	29.2969	76.0752	29.2969	76.1483
30.7617	73.7102	30.7617	73.7212	30.7617	73.7065	30.7617	73.7412	30.7617	73.7113	30.7617	73.7745	30.7617	73.7284	30.7617	73.8277	30.7617	73.7643	30.7617	73.9093	30.7617	73.8277	30.7617	74.0288	30.7617	73.9289	30.7617	74.1951	30.7617	74.0779	30.7617	74.4142	30.7617	74.2828	30.7617	74.6878	30.7617	74.5469	30.7617	75.011	30.7617	74.867	30.7617	75.3718	30.7617	75.2319	30.7617	75.7522	30.7617	75.6232	30.7617	76.1296	30.7617	76.0171	30.7617	76.4795	30.7617	76.3874	30.7617	76.7783	30.7617	76.7087	30.7617	77.0049	30.7617	76.9586	30.7617	77.1433	30.7617	77.1202	30.7617	77.1829
32.2266	74.9644	32.2266	74.9742	32.2266	74.965	32.2266	74.9958	32.2266	74.9767	32.2266	75.032	32.2266	75.0022	32.2266	75.0876	32.2266	75.0457	32.2266	75.1685	32.2266	75.1132	32.2266	75.2813	32.2266	75.2118	32.2266	75.432	32.2266	75.3482	32.2266	75.625	32.2266	75.5282	32.2266	75.8615	32.2266	75.7544	32.2266	76.1377	32.2266	76.025	32.2266	76.4449	32.2266	76.332	32.2266	76.7689	32.2266	76.6618	32.2266	77.0915	32.2266	76.9957	32.2266	77.3922	32.2266	77.3119	32.2266	77.6502	32.2266	77.5883	32.2266	77.8467	32.2266	77.8049	32.2266	77.9668	32.2266	77.9458	32.2266	78.0009
33.6914	76.0444	33.6914	76.0548	33.6914	76.0465	33.6914	76.0784	33.6914	76.0616	33.6914	76.1174	33.6914	76.0912	33.6914	76.1748	33.6914	76.1385	33.6914	76.2546	33.6914	76.2073	33.6914	76.3611	33.6914	76.3023	33.6914	76.4985	33.6914	76.4282	33.6914	76.6695	33.6914	76.589	33.6914	76.875	33.6914	76.7864	33.6914	77.1123	33.6914	77.0191	33.6914	77.3746	33.6914	77.2812	33.6914	77.6511	33.6914	77.5622	33.6914	77.927	33.6914	77.8471	33.6914	78.1853	33.6914	78.118	33.6914	78.4079	33.6914	78.3559	33.6914	78.5783	33.6914	78.543	33.6914	78.6828	33.6914	78.665	33.6914	78.7127
35.1562	76.9629	35.1562	76.9738	35.1562	76.9655	35.1562	76.9988	35.1562	76.9819	35.1562	77.039	35.1562	77.0131	35.1562	77.0966	35.1562	77.0612	35.1562	77.1741	35.1562	77.1286	35.1562	77.2742	35.1562	77.2185	35.1562	77.3996	35.1562	77.334	35.1562	77.5522	35.1562	77.4777	35.1562	77.7322	35.1562	77.6508	35.1562	77.9375	35.1562	77.8522	35.1562	78.163	35.1562	78.0775	35.1562	78.4	35.1562	78.3184	35.1562	78.6366	35.1562	78.5629	35.1562	78.8584	35.1562	78.7961	35.1562	79.0502	35.1562	79.0017	35.1562	79.1972	35.1562	79.1642	35.1562	79.2874	35.1562	79.2707	35.1562	79.3128
36.6211	78.4146	36.6211	78.4257	36.6211	78.419	36.6211	78.4526	36.6211	78.4391	36.6211	78.4961	36.6211	78.4756	36.6211	78.5572	36.6211	78.5294	36.6211	78.6373	36.6211	78.6021	36.6211	78.7378	36.6211	78.6953	36.6211	78.86	36.6211	78.8106	36.6211	79.0047	36.6211	78.9493	36.6211	79.1715	36.6211	79.1118	36.6211	79.3583	36.6211	79.2966	36.6211	79.5609	36.6211	79.5001	36.6211	79.7723	36.6211	79.7152	36.6211	79.9827	36.6211	79.9322	36.6211	80.1803	36.6211	80.1385	36.6211	80.3517	36.6211	80.3199	36.6211	80.484	36.6211	80.4627	36.6211	80.5662	36.6211	80.5557	36.6211	80.591
38.0859	79.0692	38.0859	79.0798	38.0859	79.0732	38.0859	79.1051	38.0859	79.0918	38.0859	79.1454	38.0859	79.1255	38.0859	79.2013	38.0859	79.1749	38.0859	79.2734	38.0859	79.2407	38.0859	79.3626	38.0859	79.3239	38.0859	79.4695	38.0859	79.4254	38.0859	79.5946	38.0859	79.5461	38.0859	79.7375	38.0859	79.686	38.0859	79.8966	38.0859	79.8441	38.0859	80.0686	38.0859	80.0173	38.0859	80.2481	38.0859	80.2002	38.0859	80.4271	38.0859	80.3849	38.0859	80.5957	38.0859	80.5609	38.0859	80.7426	38.0859	80.7161	38.0859	80.8564	38.0859	80.8388	38.0859	80.9274	38.0859	80.9186	38.0859	80.949
39.5508	79.5496	39.5508	79.5586	39.5508	79.555	39.5508	79.5821	39.5508	79.5748	39.5508	79.6202	39.5508	79.6091	39.5508	79.6731	39.5508	79.6582	39.5508	79.7411	39.5508	79.7221	39.5508	79.8244	39.5508	79.8014	39.5508	79.9232	39.5508	79.8964	39.5508	80.0375	39.5508	80.0073	39.5508	80.1666	39.5508	80.1339	39.5508	80.3092	39.5508	80.2751	39.5508	80.4623	39.5508	80.4284	39.5508	80.6213	39.5508	80.5894	39.5508	80.7796	39.5508	80.7514	39.5508	80.9287	39.5508	80.9053	39.5508	81.0588	39.5508	81.0411	39.5508	81.1599	39.5508	81.1482	39.5508	81.2235	39.5508	81.2176	39.5508	81.2434
41.0156	80.0005	41.0156	80.0079	41.0156	80.0066	41.0156	80.0288	41.0156	80.0261	41.0156	80.0631	41.0156	80.059	41.0156	80.1107	41.0156	80.1049	41.0156	80.1713	41.0156	80.1639	41.0156	80.2449	41.0156	80.2355	41.0156	80.3311	41.0156	80.3198	41.0156	80.4296	41.0156	80.4164	41.0156	80.5397	41.0156	80.5249	41.0156	80.6602	41.0156	80.6443	41.0156	80.7888	41.0156	80.7725	41.0156	80.9219	41.0156	80.9063	41.0156	81.0543	41.0156	81.0403	41.0156	81.1792	41.0156	81.1676	41.0156	81.2884	41.0156	81.2797	41.0156	81.3738	41.0156	81.3681	41.0156	81.4279	41.0156	81.4251	41.0156	81.4457
42.4805	80.5072	42.4805	80.5135	42.4805	80.5139	42.4805	80.5328	42.4805	80.5337	42.4805	80.5648	42.4805	80.566	42.4805	80.6094	42.4805	80.6107	42.4805	80.6659	42.4805	80.6671	42.4805	80.7339	42.4805	80.7348	42.4805	80.8129	42.4805	80.8132	42.4805	80.9023	42.4805	80.9018	42.4805	81.0014	42.4805	81.0001	42.4805	81.109	42.4805	81.107	42.4805	81.2231	42.4805	81.2208	42.4805	81.3408	42.4805	81.3385	42.4805	81.4578	42.4805	81.456	42.4805	81.5682	42.4805	81.5671	42.4805	81.6652	42.4805	81.6647	42.4805	81.7414	42.4805	81.7413	42.4805	81.7903	42.4805	81.7904	42.4805	81.8072
43.9453	80.9246	43.9453	80.9302	43.9453	80.9314	43.9453	80.9482	43.9453	80.9503	43.9453	80.9781	43.9453	80.9811	43.9453	81.0195	43.9453	81.0231	43.9453	81.0717	43.9453	81.0756	43.9453	81.134	43.9453	81.1379	43.9453	81.2057	43.9453	81.209	43.9453	81.2858	43.9453	81.2883	43.9453	81.3736	43.9453	81.375	43.9453	81.4678	43.9453	81.4681	43.9453	81.5669	43.9453	81.5661	43.9453	81.6684	43.9453	81.6669	43.9453	81.7687	43.9453	81.7669	43.9453	81.863	43.9453	81.8614	43.9453	81.9457	43.9453	81.9444	43.9453	82.0105	43.9453	82.0098	43.9453	82.052	43.9453	82.0517	43.9453	82.0662
45.4102	81.3092	45.4102	81.3148	45.4102	81.3156	45.4102	81.3323	45.4102	81.3338	45.4102	81.3612	45.4102	81.3633	45.4102	81.401	45.4102	81.4034	45.4102	81.4506	45.4102	81.4531	45.4102	81.5093	45.4102	81.5114	45.4102	81.5758	45.4102	81.5773	45.4102	81.6492	45.4102	81.6497	45.4102	81.7285	45.4102	81.7278	45.4102	81.8125	45.4102	81.8103	45.4102	81.8996	45.4102	81.8962	45.4102	81.9878	45.4102	81.9836	45.4102	82.0741	45.4102	82.0696	45.4102	82.1548	45.4102	82.1505	45.4102	82.2252	45.4102	82.2216	45.4102	82.2801	45.4102	82.2775	45.4102	82.3149	45.4102	82.3136	45.4102	82.3265
46.875	81.6663	46.875	81.6719	46.875	81.6723	46.875	81.6887	46.875	81.6895	46.875	81.7164	46.875	81.7176	46.875	81.754	46.875	81.7555	46.875	81.8007	46.875	81.8023	46.875	81.8551	46.875	81.8567	46.875	81.9162	46.875	81.9175	46.875	81.9827	46.875	81.9834	46.875	82.0534	46.875	82.0533	46.875	82.1272	46.875	82.1262	46.875	82.2028	46.875	82.2009	46.875	82.2785	46.875	82.2758	46.875	82.3519	46.875	82.3489	46.875	82.4201	46.875	82.4172	46.875	82.4794	46.875	82.4768	46.875	82.5255	46.875	82.5237	46.875	82.5548	46.875	82.5539	46.875	82.5646
48.3398	81.9872	48.3398	81.9919	48.3398	81.9935	48.3398	82.0072	48.3398	82.0104	48.3398	82.0326	48.3398	82.0374	48.3398	82.0673	48.3398	82.0735	48.3398	82.11	48.3398	82.1175	48.3398	82.1596	48.3398	82.1681	48.3398	82.2147	48.3398	82.2238	48.3398	82.274	48.3398	82.2832	48.3398	82.3361	48.3398	82.345	48.3398	82.4001	48.3398	82.4081	48.3398	82.4647	48.3398	82.4716	48.3398	82.5286	48.3398	82.5342	48.3398	82.59	48.3398	82.5943	48.3398	82.6467	48.3398	82.6498	48.3398	82.6957	48.3398	82.6979	48.3398	82.734	48.3398	82.7354	48.3398	82.7586	48.3398	82.7592	48.3398	82.7672
51.2695	82.6283	51.2695	82.6319	51.2695	82.6342	51.2695	82.6449	51.2695	82.6496	51.2695	82.6667	51.2695	82.6736	51.2695	82.6963	51.2695	82.7053	51.2695	82.7326	51.2695	82.7433	51.2695	82.7741	51.2695	82.7861	51.2695	82.8192	51.2695	82.832	51.2695	82.8666	51.2695	82.8794	51.2695	82.9148	51.2695	82.9268	51.2695	82.9626	51.2695	82.9733	51.2695	83.0091	51.2695	83.0178	51.2695	83.0533	51.2695	83.0599	51.2695	83.0945	51.2695	83.0989	51.2695	83.1313	51.2695	83.134	51.2695	83.1626	51.2695	83.1639	51.2695	83.1865	51.2695	83.187	51.2695	83.2016	51.2695	83.2018	51.2695	83.2068
52.7344	82.8936	52.7344	82.8985	52.7344	82.8982	52.7344	82.9128	52.7344	82.9122	52.7344	82.9358	52.7344	82.9349	52.7344	82.9663	52.7344	82.9652	52.7344	83.003	52.7344	83.0017	52.7344	83.0443	52.7344	83.0426	52.7344	83.0885	52.7344	83.0862	52.7344	83.1338	52.7344	83.1307	52.7344	83.1787	52.7344	83.1747	52.7344	83.222	52.7344	83.2168	52.7344	83.2627	52.7344	83.2562	52.7344	83.3001	52.7344	83.2926	52.7344	83.3335	52.7344	83.3255	52.7344	83.3624	52.7344	83.3546	52.7344	83.3861	52.7344	83.3792	52.7344	83.4035	52.7344	83.3985	52.7344	83.4139	52.7344	83.4112	52.7344	83.4165
54.1992	83.2087	54.1992	83.216	54.1992	83.2101	54.1992	83.2318	54.1992	83.2202	54.1992	83.2552	54.1992	83.2385	54.1992	83.285	54.1992	83.2639	54.1992	83.3197	54.1992	83.295	54.1992	83.3576	54.1992	83.3302	54.1992	83.3968	54.1992	83.3676	54.1992	83.4356	54.1992	83.4053	54.1992	83.4726	54.1992	83.4419	54.1992	83.5065	54.1992	83.4761	54.1992	83.5365	54.1992	83.5071	54.1992	83.5622	54.1992	83.5346	54.1992	83.5837	54.1992	83.5586	54.1992	83.6008	54.1992	83.5793	54.1992	83.6137	54.1992	83.5966	54.1992	83.6223	54.1992	83.6104	54.1992	83.6263	54.1992	83.6202	54.1992	83.6256
55.6641	83.508	55.6641	83.5148	55.6641	83.5093	55.6641	83.5293	55.6641	83.5186	55.6641	83.5508	55.6641	83.5354	55.6641	83.578	55.6641	83.5585	55.6641	83.6095	55.6641	83.5867	55.6641	83.6435	55.6641	83.6182	55.6641	83.6783	55.6641	83.6512	55.6641	83.7121	55.6641	83.6839	55.6641	83.7433	55.6641	83.7146	55.6641	83.7708	55.6641	83.7422	55.6641	83.7938	55.6641	83.7659	55.6641	83.8122	55.6641	83.7857	55.6641	83.8262	55.6641	83.8019	55.6641	83.8362	55.6641	83.815	55.6641	83.8426	55.6641	83.8256	55.6641	83.846	55.6641	83.8341	55.6641	83.8466	55.6641	83.8405	55.6641	83.8447
58.5938	84.1042	58.5938	84.1078	58.5938	84.108	58.5938	84.1184	58.5938	84.119	58.5938	84.1352	58.5938	84.1364	58.5938	84.1571	58.5938	84.1592	58.5938	84.1825	58.5938	84.1857	58.5938	84.2097	58.5938	84.2141	58.5938	84.2369	58.5938	84.2422	58.5938	84.2621	58.5938	84.2681	58.5938	84.2838	58.5938	84.29	58.5938	84.3009	58.5938	84.3066	58.5938	84.3127	58.5938	84.3174	58.5938	84.3193	58.5938	84.3226	58.5938	84.3214	58.5938	84.3232	58.5938	84.3201	58.5938	84.3206	58.5938	84.317	58.5938	84.3166	58.5938	84.3134	58.5938	84.3126	58.5938	84.3105	58.5938	84.31	58.5938	84.3092
60.0586	84.3034	60.0586	84.3064	60.0586	84.3079	60.0586	84.3164	60.0586	84.3193	60.0586	84.3329	60.0586	84.3371	60.0586	84.3546	60.0586	84.36	60.0586	84.3801	60.0586	84.3863	60.0586	84.4075	60.0586	84.4141	60.0586	84.4348	60.0586	84.4413	60.0586	84.4602	60.0586	84.4659	60.0586	84.4818	60.0586	84.486	60.0586	84.4983	60.0586	84.5006	60.0586	84.5091	60.0586	84.5089	60.0586	84.5141	60.0586	84.5114	60.0586	84.5139	60.0586	84.5093	60.0586	84.51	60.0586	84.5042	60.0586	84.504	60.0586	84.4981	60.0586	84.4976	60.0586	84.4928	60.0586	84.4924	60.0586	84.4897	60.0586	84.4896
62.9883	84.7454	62.9883	84.7487	62.9883	84.7503	62.9883	84.7598	62.9883	84.7631	62.9883	84.7779	62.9883	84.7829	62.9883	84.8019	62.9883	84.8087	62.9883	84.83	62.9883	84.8387	62.9883	84.8605	62.9883	84.8708	62.9883	84.8911	62.9883	84.9026	62.9883	84.9197	62.9883	84.9319	62.9883	84.9443	62.9883	84.9566	62.9883	84.9633	62.9883	84.975	62.9883	84.9759	62.9883	84.9862	62.9883	84.9819	62.9883	84.9903	62.9883	84.9821	62.9883	84.9883	62.9883	84.9779	62.9883	84.9821	62.9883	84.9713	62.9883	84.9738	62.9883	84.9646	62.9883	84.9659	62.9883	84.9597	62.9883	84.9602	62.9883	84.9581
64.4531	84.9745	64.4531	84.9751	64.4531	84.9812	64.4531	84.9829	64.4531	84.995	64.4531	84.9971	64.4531	85.0152	64.4531	85.0167	64.4531	85.0405	64.4531	85.0401	64.4531	85.0693	64.4531	85.0655	64.4531	85.0994	64.4531	85.0909	64.4531	85.1286	64.4531	85.1142	64.4531	85.1545	64.4531	85.1335	64.4531	85.1749	64.4531	85.1474	64.4531	85.1884	64.4531	85.155	64.4531	85.1938	64.4531	85.1562	64.4531	85.1915	64.4531	85.152	64.4531	85.1825	64.4531	85.144	64.4531	85.1689	64.4531	85.1348	64.4531	85.1536	64.4531	85.1266	64.4531	85.1392	64.4531	85.1219	64.4531	85.1282	64.4531	85.1223
67.3828	85.4706	67.3828	85.4691	67.3828	85.4776	67.3828	85.4727	67.3828	85.4898	67.3828	85.481	67.3828	85.5066	67.3828	85.4929	67.3828	85.5269	67.3828	85.5071	67.3828	85.5492	67.3828	85.5221	67.3828	85.5716	67.3828	85.536	67.3828	85.5919	67.3828	85.5471	67.3828	85.6078	67.3828	85.5537	67.3828	85.6171	67.3828	85.5544	67.3828	85.6184	67.3828	85.5488	67.3828	85.6108	67.3828	85.5372	67.3828	85.5947	67.3828	85.5208	67.3828	85.5717	67.3828	85.502	67.3828	85.5445	67.3828	85.4837	67.3828	85.5164	67.3828	85.4692	67.3828	85.4914	67.3828	85.4614	67.3828	85.4726	67.3828	85.4623
68.8477	85.6881	68.8477	85.6877	68.8477	85.6932	68.8477	85.6919	68.8477	85.7031	68.8477	85.6999	68.8477	85.7171	68.8477	85.7109	68.8477	85.7342	68.8477	85.7235	68.8477	85.7531	68.8477	85.7362	68.8477	85.7718	68.8477	85.7472	68.8477	85.7882	68.8477	85.7547	68.8477	85.8002	68.8477	85.7571	68.8477	85.8055	68.8477	85.7532	68.8477	85.8026	68.8477	85.7424	68.8477	85.7908	68.8477	85.7252	68.8477	85.7704	68.8477	85.7032	68.8477	85.7433	68.8477	85.6788	68.8477	85.7122	68.8477	85.6553	68.8477	85.6811	68.8477	85.6364	68.8477	85.6538	68.8477	85.6253	68.8477	85.634	68.8477	85.6242
71.7773	86.0803	71.7773	86.0854	71.7773	86.0793	71.7773	86.094	71.7773	86.0824	71.7773	86.1055	71.7773	86.0892	71.7773	86.1188	71.7773	86.0991	71.7773	86.1325	71.7773	86.1108	71.7773	86.1451	71.7773	86.1226	71.7773	86.1547	71.7773	86.1325	71.7773	86.1594	71.7773	86.1384	71.7773	86.1577	71.7773	86.1381	71.7773	86.1481	71.7773	86.1302	71.7773	86.1304	71.7773	86.114	71.7773	86.1049	71.7773	86.0898	71.7773	86.0734	71.7773	86.0596	71.7773	86.0387	71.7773	86.0265	71.7773	86.0048	71.7773	85.9946	71.7773	85.9758	71.7773	85.9684	71.7773	85.9557	71.7773	85.9518	71.7773	85.9473
74.707	86.5046	74.707	86.5115	74.707	86.5009	74.707	86.5214	74.707	86.5005	74.707	86.5334	74.707	86.5033	74.707	86.5465	74.707	86.5086	74.707	86.5596	74.707	86.5152	74.707	86.5709	74.707	86.5217	74.707	86.5787	74.707	86.5262	74.707	86.5811	74.707	86.5267	74.707	86.5762	74.707	86.5212	74.707	86.5628	74.707	86.5082	74.707	86.5402	74.707	86.4871	74.707	86.509	74.707	86.4585	74.707	86.4709	74.707	86.4245	74.707	86.4291	74.707	86.3885	74.707	86.3877	74.707	86.3549	74.707	86.3516	74.707	86.3284	74.707	86.3252	74.707	86.3132	74.707	86.3119
77.6367	86.8694	77.6367	86.8742	77.6367	86.8667	77.6367	86.881	77.6367	86.8662	77.6367	86.8889	77.6367	86.8678	77.6367	86.8974	77.6367	86.8708	77.6367	86.9051	77.6367	86.8743	77.6367	86.9108	77.6367	86.8769	77.6367	86.9127	77.6367	86.8768	77.6367	86.9091	77.6367	86.872	77.6367	86.8983	77.6367	86.8608	77.6367	86.879	77.6367	86.8416	77.6367	86.8506	77.6367	86.8139	77.6367	86.8137	77.6367	86.7785	77.6367	86.7703	77.6367	86.7375	77.6367	86.7238	77.6367	86.6946	77.6367	86.6786	77.6367	86.6546	77.6367	86.6398	77.6367	86.6227	77.6367	86.6123	77.6367	86.6034	77.6367	86.5997
79.1016	87.0215	79.1016	87.0252	79.1016	87.0196	79.1016	87.0302	79.1016	87.0194	79.1016	87.0362	79.1016	87.0208	79.1016	87.0424	79.1016	87.0232	79.1016	87.0478	79.1016	87.0257	79.1016	87.051	79.1016	87.0269	79.1016	87.0505	79.1016	87.0252	79.1016	87.0446	79.1016	87.0185	79.1016	87.0316	79.1016	87.0051	79.1016	87.0102	79.1016	86.9836	79.1016	86.9798	79.1016	86.9534	79.1016	86.9412	79.1016	86.9153	79.1016	86.8962	79.1016	86.8716	79.1016	86.8483	79.1016	86.826	79.1016	86.8021	79.1016	86.7835	79.1016	86.7628	79.1016	86.7493	79.1016	86.7352	79.1016	86.7281	79.1016	86.7232
82.0312	87.3376	82.0312	87.3394	82.0312	87.3365	82.0312	87.3417	82.0312	87.3362	82.0312	87.3441	82.0312	87.3365	82.0312	87.346	82.0312	87.337	82.0312	87.3464	82.0312	87.3368	82.0312	87.3442	82.0312	87.3347	82.0312	87.338	82.0312	87.329	82.0312	87.3262	82.0312	87.3178	82.0312	87.3072	82.0312	87.2994	82.0312	87.2799	82.0312	87.2724	82.0312	87.2439	82.0312	87.2363	82.0312	87.1998	82.0312	87.1919	82.0312	87.1499	82.0312	87.1416	82.0312	87.0978	82.0312	87.0896	82.0312	87.0483	82.0312	87.0409	82.0312	87.007	82.0312	87.0013	82.0312	86.979	82.0312	86.9759	82.0312	86.9682
84.9609	87.6283	84.9609	87.6292	84.9609	87.6277	84.9609	87.6301	84.9609	87.6276	84.9609	87.6306	84.9609	87.6278	84.9609	87.6301	84.9609	87.628	84.9609	87.6278	84.9609	87.6274	84.9609	87.6226	84.9609	87.6248	84.9609	87.6132	84.9609	87.6185	84.9609	87.5981	84.9609	87.6066	84.9609	87.576	84.9609	87.5872	84.9609	87.5457	84.9609	87.5587	84.9609	87.5069	84.9609	87.5206	84.9609	87.4606	84.9609	87.4738	84.9609	87.4088	84.9609	87.4205	84.9609	87.3556	84.9609	87.365	84.9609	87.3057	84.9609	87.3126	84.9609	87.2649	84.9609	87.2693	84.9609	87.2383	84.9609	87.2404	84.9609	87.2297
87.8906	87.944	87.8906	87.9459	87.8906	87.9419	87.8906	87.9474	87.8906	87.9401	87.8906	87.948	87.8906	87.9389	87.8906	87.9473	87.8906	87.9381	87.8906	87.9446	87.8906	87.9375	87.8906	87.9391	87.8906	87.9361	87.8906	87.9298	87.8906	87.9321	87.8906	87.9152	87.8906	87.9238	87.8906	87.894	87.8906	87.9089	87.8906	87.865	87.8906	87.8854	87.8906	87.828	87.8906	87.8523	87.8906	87.7836	87.8906	87.8099	87.8906	87.7341	87.8906	87.7602	87.8906	87.6831	87.8906	87.7069	87.8906	87.6358	87.8906	87.6553	87.8906	87.5976	87.8906	87.6114	87.8906	87.5738	87.8906	87.5809	87.8906	87.5678
90.8203	88.2831	90.8203	88.2851	90.8203	88.2785	90.8203	88.2842	90.8203	88.2718	90.8203	88.2799	90.8203	88.2632	90.8203	88.2717	90.8203	88.2527	90.8203	88.259	90.8203	88.2401	90.8203	88.241	90.8203	88.2244	90.8203	88.2167	90.8203	88.2044	90.8203	88.1848	90.8203	88.1782	90.8203	88.1442	90.8203	88.144	90.8203	88.0943	90.8203	88.1002	90.8203	88.0351	90.8203	88.0462	90.8203	87.9682	90.8203	87.9828	90.8203	87.8966	90.8203	87.9129	90.8203	87.8251	90.8203	87.8411	90.8203	87.7599	90.8203	87.7737	90.8203	87.7077	90.8203	87.7178	90.8203	87.6747	90.8203	87.6799	90.8203	87.6649
95.2148	88.5481	95.2148	88.556	95.2148	88.5374	95.2148	88.5605	95.2148	88.5245	95.2148	88.5612	95.2148	88.5098	95.2148	88.5577	95.2148	88.494	95.2148	88.5496	95.2148	88.477	95.2148	88.5362	95.2148	88.4584	95.2148	88.5164	95.2148	88.4373	95.2148	88.4891	95.2148	88.4119	95.2148	88.4531	95.2148	88.3806	95.2148	88.4075	95.2148	88.3418	95.2148	88.3523	95.2148	88.2946	95.2148	88.2887	95.2148	88.2396	95.2148	88.2196	95.2148	88.1791	95.2148	88.1493	95.2148	88.1174	95.2148	88.0839	95.2148	88.0602	95.2148	88.0297	95.2148	88.0141	95.2148	87.9928	95.2148	87.9851	95.2148	87.9774
98.1445	88.731	98.1445	88.7433	98.1445	88.715	98.1445	88.7512	98.1445	88.696	98.1445	88.7544	98.1445	88.675	98.1445	88.7526	98.1445	88.6528	98.1445	88.7455	98.1445	88.63	98.1445	88.7325	98.1445	88.6064	98.1445	88.713	98.1445	88.5816	98.1445	88.6857	98.1445	88.5542	98.1445	88.6497	98.1445	88.5226	98.1445	88.6042	98.1445	88.4852	98.1445	88.549	98.1445	88.4411	98.1445	88.4854	98.1445	88.3906	98.1445	88.416	98.1445	88.3357	98.1445	88.3452	98.1445	88.2802	98.1445	88.2786	98.1445	88.2296	98.1445	88.2226	98.1445	88.1897	98.1445	88.1829	98.1445	88.1664	98.1445	88.1636
101.074	88.8607	101.074	88.8799	101.074	88.8358	101.074	88.8926	101.074	88.806	101.074	88.8986	101.074	88.7725	101.074	88.898	101.074	88.7369	101.074	88.8906	101.074	88.7003	101.074	88.8763	101.074	88.6634	101.074	88.8545	101.074	88.6266	101.074	88.8244	101.074	88.5892	101.074	88.7851	101.074	88.5504	101.074	88.7358	101.074	88.5088	101.074	88.6766	101.074	88.4639	101.074	88.6083	101.074	88.4158	101.074	88.5338	101.074	88.3662	101.074	88.4571	101.074	88.3185	101.074	88.3838	101.074	88.2773	101.074	88.3201	101.074	88.2479	101.074	88.2718	101.074	88.2353	101.074	88.2429
105.469	89.1876	105.469	89.2033	105.469	89.1618	105.469	89.209	105.469	89.1267	105.469	89.205	105.469	89.0833	105.469	89.1919	105.469	89.0332	105.469	89.1703	105.469	88.9779	105.469	89.1409	105.469	88.9188	105.469	89.1036	105.469	88.8572	105.469	89.0583	105.469	88.7936	105.469	89.0043	105.469	88.7284	105.469	88.9411	105.469	88.6619	105.469	88.8687	105.469	88.5947	105.469	88.7879	105.469	88.5284	105.469	88.7012	105.469	88.4656	105.469	88.6125	105.469	88.41	105.469	88.5271	105.469	88.3664	105.469	88.4512	105.469	88.3396	105.469	88.3908	105.469	88.3336	105.469	88.3507
108.398	89.453	108.398	89.4656	108.398	89.4289	108.398	89.4666	108.398	89.3937	108.398	89.4565	108.398	89.3487	108.398	89.4359	108.398	89.2952	108.398	89.4057	108.398	89.2348	108.398	89.3666	108.398	89.1691	108.398	89.3189	108.398	89.0993	108.398	89.2626	108.398	89.0263	108.398	89.1974	108.398	88.9507	108.398	89.1231	108.398	88.873	108.398	89.0402	108.398	88.7945	108.398	88.9499	108.398	88.7168	108.398	88.8551	108.398	88.6432	108.398	88.7599	108.398	88.5777	108.398	88.6701	108.398	88.5254	108.398	88.5918	108.398	88.4913	108.398	88.5312	108.398	88.4796	108.398	88.493
112.793	89.7253	112.793	89.7338	112.793	89.7037	112.793	89.7294	112.793	89.6696	112.793	89.7127	112.793	89.624	112.793	89.6844	112.793	89.5682	112.793	89.6457	112.793	89.504	112.793	89.5973	112.793	89.4328	112.793	89.5398	112.793	89.3559	112.793	89.4733	112.793	89.2743	112.793	89.3979	112.793	89.1888	112.793	89.3136	112.793	89.1004	112.793	89.221	112.793	89.0104	112.793	89.1219	112.793	88.9211	112.793	89.0194	112.793	88.8361	112.793	88.9181	112.793	88.7599	112.793	88.824	112.793	88.6981	112.793	88.7437	112.793	88.656	112.793	88.6831	112.793	88.6381	112.793	88.6471
117.188	89.8384	117.188	89.851	117.188	89.8116	117.188	89.8497	117.188	89.7713	117.188	89.8352	117.188	89.7185	117.188	89.8085	117.188	89.6552	117.188	89.7708	117.188	89.5832	117.188	89.7231	117.188	89.5046	117.188	89.666	117.188	89.4212	117.188	89.5997	117.188	89.3348	117.188	89.5242	117.188	89.2463	117.188	89.4395	117.188	89.1572	117.188	89.3461	117.188	89.0688	117.188	89.2457	117.188	88.9834	117.188	89.1415	117.188	88.9042	117.188	89.0381	117.188	88.8351	117.188	88.9413	117.188	88.7811	117.188	88.8575	117.188	88.7468	117.188	88.7928	117.188	88.7362	117.188	88.7515
120.117	89.9542	120.117	89.9629	120.117	89.9305	120.117	89.9574	120.117	89.892	120.117	89.9388	120.117	89.8394	120.117	89.9086	120.117	89.7742	120.117	89.8685	120.117	89.6982	120.117	89.8196	120.117	89.6135	120.117	89.7628	120.117	89.5222	120.117	89.6981	120.117	89.4262	120.117	89.6252	120.117	89.3277	120.117	89.5438	120.117	89.2286	120.117	89.4537	120.117	89.1317	120.117	89.3561	120.117	89.0401	120.117	89.2533	120.117	88.958	120.117	89.1494	120.117	88.8898	120.117	89.0499	120.117	88.8403	120.117	88.9608	120.117	88.8135	120.117	88.8884	120.117	88.8124	120.117	88.8378
124.512	90.049	124.512	90.0428	124.512	90.04	124.512	90.0222	124.512	90.0158	124.512	89.9887	124.512	89.9772	124.512	89.9445	124.512	89.9255	124.512	89.8917	124.512	89.8627	124.512	89.8325	124.512	89.7904	124.512	89.7682	124.512	89.7105	124.512	89.6998	124.512	89.6246	124.512	89.6273	124.512	89.5341	124.512	89.5507	124.512	89.4406	124.512	89.4697	124.512	89.3462	124.512	89.385	124.512	89.2538	124.512	89.2985	124.512	89.1675	124.512	89.2135	124.512	89.0919	124.512	89.1342	124.512	89.032	124.512	89.0661	124.512	88.992	124.512	89.0142	124.512	88.9753	124.512	88.9829
128.906	90.0913	128.906	90.0796	128.906	90.0856	128.906	90.0512	128.906	90.0624	128.906	90.008	128.906	90.0229	128.906	89.9525	128.906	89.9688	128.906	89.8877	128.906	89.9026	128.906	89.8165	128.906	89.8267	128.906	89.7412	128.906	89.7435	128.906	89.6637	128.906	89.655	128.906	89.5851	128.906	89.5633	128.906	89.5059	128.906	89.4702	128.906	89.4265	128.906	89.3779	128.906	89.3476	128.906	89.289	128.906	89.2708	128.906	89.207	128.906	89.1983	128.906	89.1355	128.906	89.1334	128.906	89.0784	128.906	89.0798	128.906	89.0389	128.906	89.041	128.906	89.0192	128.906	89.0202
133.301	90.1037	133.301	90.09	133.301	90.0972	133.301	90.057	133.301	90.071	133.301	90.0064	133.301	90.0264	133.301	89.9409	133.301	89.9658	133.301	89.8636	133.301	89.8917	133.301	89.778	133.301	89.807	133.301	89.6872	133.301	89.7146	133.301	89.5939	133.301	89.6168	133.301	89.4999	133.301	89.5159	133.301	89.4069	133.301	89.4141	133.301	89.3161	133.301	89.3138	133.301	89.2289	133.301	89.2177	133.301	89.1471	133.301	89.1292	133.301	89.0732	133.301	89.0518	133.301	89.01	133.301	88.9891	133.301	88.9606	133.301	88.944	133.301	88.9275	133.301	88.9184	133.301	88.913
139.16	90.0308	139.16	90.0165	139.16	90.0232	139.16	89.9812	139.16	89.9941	139.16	89.927	139.16	89.9452	139.16	89.8569	139.16	89.8787	139.16	89.7745	139.16	89.7979	139.16	89.6838	139.16	89.706	139.16	89.5883	139.16	89.6062	139.16	89.4912	139.16	89.5018	139.16	89.3949	139.16	89.3953	139.16	89.3009	139.16	89.2896	139.16	89.2107	139.16	89.1875	139.16	89.1254	139.16	89.092	139.16	89.0466	139.16	89.0064	139.16	88.9761	139.16	88.9341	139.16	88.916	139.16	88.8779	139.16	88.8685	139.16	88.8395	139.16	88.8356	139.16	88.8199	139.16	88.8189
143.555	89.9511	143.555	89.9296	143.555	89.9483	143.555	89.8848	143.555	89.9217	143.555	89.819	143.555	89.8729	143.555	89.7361	143.555	89.8051	143.555	89.6405	143.555	89.7215	143.555	89.5373	143.555	89.6263	143.555	89.4313	143.555	89.5231	143.555	89.3266	143.555	89.4154	143.555	89.2266	143.555	89.3065	143.555	89.1333	143.555	89.1992	143.555	89.0481	143.555	89.0966	143.555	88.9717	143.555	89.0017	143.555	88.9045	143.555	88.9177	143.555	88.8472	143.555	88.8475	143.555	88.8004	143.555	88.7933	143.555	88.7648	143.555	88.756	143.555	88.7414	143.555	88.7357	143.555	88.7312
147.949	89.9008	147.949	89.8699	147.949	89.9027	147.949	89.8111	147.949	89.8766	147.949	89.727	147.949	89.8246	147.949	89.6217	147.949	89.7504	147.949	89.501	147.949	89.6582	147.949	89.3712	147.949	89.5528	147.949	89.2391	147.949	89.4388	147.949	89.111	147.949	89.3205	147.949	88.9922	147.949	89.2018	147.949	88.8867	147.949	89.0862	147.949	88.7967	147.949	88.977	147.949	88.7233	147.949	88.8772	147.949	88.666	147.949	88.7898	147.949	88.6237	147.949	88.7169	147.949	88.5949	147.949	88.6597	147.949	88.5779	147.949	88.618	147.949	88.5715	147.949	88.5905	147.949	88.5755
153.809	89.9734	153.809	89.936	153.809	89.9774	153.809	89.8654	153.809	89.949	153.809	89.7637	153.809	89.891	153.809	89.6349	153.809	89.8073	153.809	89.4845	153.809	89.7023	153.809	89.3193	153.809	89.5813	153.809	89.1473	153.809	89.4491	153.809	88.9769	153.809	89.3106	153.809	88.8162	153.809	89.1703	153.809	88.6726	153.809	89.0325	153.809	88.5519	153.809	88.9012	153.809	88.4575	153.809	88.7802	153.809	88.3904	153.809	88.6727	153.809	88.3491	153.809	88.5811	153.809	88.3302	153.809	88.5059	153.809	88.3292	153.809	88.4465	153.809	88.3422	153.809	88.4006	153.809	88.3662
159.668	90.108	159.668	90.0913	159.668	90.0909	159.668	90.0399	159.668	90.0424	159.668	89.9543	159.668	89.9665	159.668	89.8371	159.668	89.8682	159.668	89.6921	159.668	89.7535	159.668	89.5249	159.668	89.6283	159.668	89.3422	159.668	89.4984	159.668	89.1523	159.668	89.3686	159.668	88.9646	159.668	89.2429	159.668	88.7889	159.668	89.1237	159.668	88.6352	159.668	89.0129	159.668	88.5118	159.668	88.9111	159.668	88.4243	159.668	88.8185	159.668	88.3746	159.668	88.7345	159.668	88.3602	159.668	88.6579	159.668	88.3751	159.668	88.5873	159.668	88.4117	159.668	88.522	159.668	88.4625
165.527	89.9478	165.527	89.9415	165.527	89.9193	165.527	89.9004	165.527	89.8573	165.527	89.8266	165.527	89.7653	165.527	89.7235	165.527	89.648	165.527	89.5957	165.527	89.5115	165.527	89.4492	165.527	89.3629	165.527	89.2906	165.527	89.2096	165.527	89.1271	165.527	89.0587	165.527	88.9663	165.527	88.9171	165.527	88.8158	165.527	88.7904	165.527	88.6828	165.527	88.6828	165.527	88.5733	165.527	88.5967	165.527	88.491	165.527	88.5322	165.527	88.4367	165.527	88.4872	165.527	88.4076	165.527	88.4575	165.527	88.3981	165.527	88.4377	165.527	88.4013	165.527	88.4232	165.527	88.4109
171.387	89.7836	171.387	89.758	171.387	89.7709	171.387	89.6947	171.387	89.7212	171.387	89.596	171.387	89.6375	171.387	89.4659	171.387	89.5243	171.387	89.3101	171.387	89.3873	171.387	89.1355	171.387	89.2331	171.387	88.9505	171.387	89.0692	171.387	88.764	171.387	88.9031	171.387	88.5857	171.387	88.7424	171.387	88.4248	171.387	88.5944	171.387	88.2897	171.387	88.4652	171.387	88.1866	171.387	88.3595	171.387	88.1182	171.387	88.2793	171.387	88.0829	171.387	88.2233	171.387	88.0747	171.387	88.1868	171.387	88.0848	171.387	88.1628	171.387	88.104	171.387	88.1439	171.387	88.1247
177.246	89.5878	177.246	89.5603	177.246	89.5751	177.246	89.4923	177.246	89.5246	177.246	89.3857	177.246	89.4402	177.246	89.2439	177.246	89.3272	177.246	89.0727	177.246	89.1923	177.246	88.8795	177.246	89.0423	177.246	88.6734	177.246	88.8845	177.246	88.4648	177.246	88.7256	177.246	88.2652	177.246	88.5721	177.246	88.0862	177.246	88.4294	177.246	87.9384	177.246	88.3025	177.246	87.8297	177.246	88.1947	177.246	87.7637	177.246	88.1077	177.246	87.7384	177.246	88.0402	177.246	87.7466	177.246	87.9882	177.246	87.7775	177.246	87.9456	177.246	87.8195	177.246	87.9056	177.246	87.8638
183.105	89.4215	183.105	89.4	183.105	89.398	183.105	89.3323	183.105	89.3333	183.105	89.2192	183.105	89.233	183.105	89.0643	183.105	89.1048	183.105	88.8737	183.105	88.9577	183.105	88.6559	183.105	88.8012	183.105	88.4225	183.105	88.6448	183.105	88.1874	183.105	88.4966	183.105	87.9665	183.105	88.3632	183.105	87.7761	183.105	88.2491	183.105	87.6307	183.105	88.1563	183.105	87.5399	183.105	88.0845	183.105	87.5062	183.105	88.0311	183.105	87.5235	183.105	87.9908	183.105	87.5791	183.105	87.9566	183.105	87.656	183.105	87.92	183.105	87.7381	183.105	87.8736	183.105	87.8128
188.965	89.5624	188.965	89.5688	188.965	89.5044	188.965	89.5212	188.965	89.3996	188.965	89.419	188.965	89.2547	188.965	89.2633	188.965	89.0787	188.965	89.0577	188.965	88.8823	188.965	88.8081	188.965	88.6779	188.965	88.524	188.965	88.4778	188.965	88.219	188.965	88.2936	188.965	87.9118	188.965	88.1343	188.965	87.6258	188.965	88.0056	188.965	87.3866	188.965	87.9089	188.965	87.2171	188.965	87.8411	188.965	87.1306	188.965	87.7952	188.965	87.1262	188.965	87.7611	188.965	87.1884	188.965	87.7269	188.965	87.2923	188.965	87.681	188.965	87.4111	188.965	87.6142	188.965	87.5228
196.289	89.4934	196.289	89.5491	196.289	89.3848	196.289	89.5504	196.289	89.2268	196.289	89.4974	196.289	89.0256	196.289	89.3912	196.289	88.7906	196.289	89.2341	196.289	88.5346	196.289	89.0294	196.289	88.2736	196.289	88.7822	196.289	88.0256	196.289	88.5008	196.289	87.8085	196.289	88.1978	196.289	87.6371	196.289	87.8913	196.289	87.5195	196.289	87.6054	196.289	87.4558	196.289	87.367	196.289	87.437	196.289	87.1999	196.289	87.4477	196.289	87.117	196.289	87.4688	196.289	87.1145	196.289	87.4816	196.289	87.1727	196.289	87.4709	196.289	87.2626	196.289	87.4285	196.289	87.3552
203.613	89.3602	203.613	89.4186	203.613	89.2436	203.613	89.4205	203.613	89.0685	203.613	89.3687	203.613	88.837	203.613	89.2664	203.613	88.5544	203.613	89.1174	203.613	88.2299	203.613	88.9256	203.613	87.8782	203.613	88.6959	203.613	87.5196	203.613	88.4348	203.613	87.1802	203.613	88.1519	203.613	86.8889	203.613	87.8612	203.613	86.6721	203.613	87.5813	203.613	86.5468	203.613	87.3341	203.613	86.5137	203.613	87.1398	203.613	86.5565	203.613	87.0106	203.613	86.6467	203.613	86.9452	203.613	86.7518	203.613	86.9276	203.613	86.8438	203.613	86.932	203.613	86.9052	203.613	86.9315
210.938	89.2308	210.938	89.2931	210.938	89.1144	210.938	89.3043	210.938	88.9424	210.938	89.2676	210.938	88.7147	210.938	89.1864	210.938	88.4344	210.938	89.0634	210.938	88.1081	210.938	88.901	210.938	87.7474	210.938	88.7014	210.938	87.3704	210.938	88.468	210.938	87.0016	210.938	88.2066	210.938	86.6712	210.938	87.9273	210.938	86.4103	210.938	87.6457	210.938	86.2431	210.938	87.3816	210.938	86.1788	210.938	87.1559	210.938	86.2066	210.938	86.9841	210.938	86.2992	210.938	86.8694	210.938	86.4219	210.938	86.8006	210.938	86.5428	210.938	86.7556	210.938	86.6407	210.938	86.7089
218.262	88.8788	218.262	88.9033	218.262	88.7971	218.262	88.8779	218.262	88.6525	218.262	88.8111	218.262	88.4423	218.262	88.712	218.262	88.1673	218.262	88.5889	218.262	87.8331	218.262	88.4491	218.262	87.4524	218.262	88.2983	218.262	87.0469	218.262	88.1407	218.262	86.6493	218.262	87.9805	218.262	86.3018	218.262	87.8226	218.262	86.0495	218.262	87.6739	218.262	85.9276	218.262	87.5429	218.262	85.9463	218.262	87.4368	218.262	86.0853	218.262	87.3584	218.262	86.3019	218.262	87.3024	218.262	86.5465	218.262	87.2549	218.262	86.777	218.262	87.1959	218.262	86.9666	218.262	87.1048
225.586	89.0821	225.586	89.0549	225.586	89.0404	225.586	88.9661	225.586	88.9238	225.586	88.8238	225.586	88.7274	225.586	88.637	225.586	88.4483	225.586	88.4156	225.586	88.0864	225.586	88.1698	225.586	87.6469	225.586	87.9109	225.586	87.1436	225.586	87.6507	225.586	86.6049	225.586	87.4024	225.586	86.078	225.586	87.1808	225.586	85.6299	225.586	87.0004	225.586	85.3342	225.586	86.8732	225.586	85.2414	225.586	86.8034	225.586	85.3504	225.586	86.7831	225.586	85.6062	225.586	86.7915	225.586	85.9281	225.586	86.7977	225.586	86.2423	225.586	86.7682	225.586	86.4988	225.586	86.6742
232.91	89.0329	232.91	88.9841	232.91	89.018	232.91	88.8789	232.91	88.9327	232.91	88.7245	232.91	88.77	232.91	88.5284	232.91	88.5237	232.91	88.2978	232.91	88.1881	232.91	88.0399	232.91	87.7598	232.91	87.7615	232.91	87.241	232.91	87.4709	232.91	86.6448	232.91	87.1781	232.91	86.0032	232.91	86.8973	232.91	85.3764	232.91	86.6456	232.91	84.854	232.91	86.4409	232.91	84.5335	232.91	86.2948	232.91	84.4716	232.91	86.2056	232.91	84.6446	232.91	86.1542	232.91	84.962	232.91	86.107	232.91	85.3189	232.91	86.0249	232.91	85.6365	232.91	85.8741
241.699	88.7596	241.699	88.6403	241.699	88.8179	241.699	88.4682	241.699	88.8093	241.699	88.2533	241.699	88.7283	241.699	88.0081	241.699	88.5698	241.699	87.7464	241.699	88.3286	241.699	87.4818	241.699	87.9992	241.699	87.2259	241.699	87.5782	241.699	86.9869	241.699	87.067	241.699	86.7694	241.699	86.4788	241.699	86.576	241.699	85.8466	241.699	86.4087	241.699	85.2333	241.699	86.2691	241.699	84.7303	241.699	86.1565	241.699	84.4328	241.699	86.0641	241.699	84.3885	241.699	85.9758	241.699	84.5639	241.699	85.8671	241.699	84.8661	241.699	85.7113	241.699	85.1968	241.699	85.4882
250.488	89.4956	250.488	89.3277	250.488	89.5841	250.488	89.0801	250.488	89.5944	250.488	88.7538	250.488	89.5273	250.488	88.3532	250.488	89.3828	250.488	87.8873	250.488	89.1596	250.488	87.3719	250.488	88.855	250.488	86.8315	250.488	88.4665	250.488	86.3014	250.488	87.994	250.488	85.8257	250.488	87.444	250.488	85.4506	250.488	86.8366	250.488	85.2109	250.488	86.2124	250.488	85.1152	250.488	85.6366	250.488	85.1395	250.488	85.1896	250.488	85.2342	250.488	84.9358	250.488	85.3412	250.488	84.8865	250.488	85.4089	250.488	84.9893	250.488	85.403	250.488	85.1581	250.488	85.3132
259.277	89.0341	259.277	88.9254	259.277	89.0807	259.277	88.7536	259.277	89.0668	259.277	88.519	259.277	88.9933	259.277	88.2237	259.277	88.8599	259.277	87.8727	259.277	88.6643	259.277	87.4742	259.277	88.4022	259.277	87.0413	259.277	88.0691	259.277	86.5925	259.277	87.6622	259.277	86.154	259.277	87.1858	259.277	85.7581	259.277	86.6564	259.277	85.4401	259.277	86.1101	259.277	85.228	259.277	85.6043	259.277	85.1302	259.277	85.208	259.277	85.1278	259.277	84.9751	259.277	85.1788	259.277	84.9136	259.277	85.2327	259.277	84.9782	259.277	85.2464	259.277	85.0955	259.277	85.1982
268.066	89.0079	268.066	88.8831	268.066	89.0592	268.066	88.6778	268.066	89.044	268.066	88.3855	268.066	88.9687	268.066	88.0015	268.066	88.838	268.066	87.5238	268.066	88.6546	268.066	86.9565	268.066	88.4182	268.066	86.3144	268.066	88.1258	268.066	85.6304	268.066	87.7737	268.066	84.9631	268.066	87.3604	268.066	84.3976	268.066	86.8925	268.066	84.0256	268.066	86.3908	268.066	83.9018	268.066	85.8952	268.066	84.0058	268.066	85.462	268.066	84.2517	268.066	85.1477	268.066	84.5352	268.066	84.98	268.066	84.7737	268.066	84.9383	268.066	84.9226	268.066	84.9613	268.066	84.9755
276.855	88.9668	276.855	88.9621	276.855	88.9122	276.855	88.8901	276.855	88.8072	276.855	88.7427	276.855	88.6606	276.855	88.5122	276.855	88.4808	276.855	88.1902	276.855	88.2744	276.855	87.7687	276.855	88.0459	276.855	87.2416	276.855	87.7972	276.855	86.6098	276.855	87.5287	276.855	85.8898	276.855	87.2408	276.855	85.1277	276.855	86.9374	276.855	84.4135	276.855	86.6276	276.855	83.8766	276.855	86.3269	276.855	83.6344	276.855	86.0543	276.855	83.711	276.855	85.8244	276.855	84.015	276.855	85.638	276.855	84.4078	276.855	85.4762	276.855	84.7807	276.855	85.3036	276.855	85.0807
287.109	88.9057	287.109	88.9305	287.109	88.8057	287.109	88.8764	287.109	88.6347	287.109	88.7407	287.109	88.3991	287.109	88.5199	287.109	88.1069	287.109	88.2107	287.109	87.769	287.109	87.8098	287.109	87.3991	287.109	87.3162	287.109	87.0141	287.109	86.7354	287.109	86.6356	287.109	86.0875	287.109	86.2889	287.109	85.4181	287.109	86.0017	287.109	84.8074	287.109	85.7981	287.109	84.3637	287.109	85.6906	287.109	84.1804	287.109	85.6714	287.109	84.275	287.109	85.7113	287.109	84.5714	287.109	85.7662	287.109	84.9495	287.109	85.7873	287.109	85.3048	287.109	85.7324	287.109	85.5737
297.363	89.5689	297.363	89.6316	297.363	89.4301	297.363	89.6215	297.363	89.21	297.363	89.539	297.363	88.9023	297.363	89.3806	297.363	88.5007	297.363	89.1387	297.363	88	297.363	88.8012	297.363	87.3987	297.363	88.354	297.363	86.7042	297.363	87.7839	297.363	85.9422	297.363	87.0858	297.363	85.171	297.363	86.2758	297.363	84.4932	297.363	85.4109	297.363	84.042	297.363	84.6122	297.363	83.9156	297.363	84.0557	297.363	84.0989	297.363	83.8829	297.363	84.4643	297.363	84.0783	297.363	84.8528	297.363	84.475	297.363	85.1397	297.363	84.8802	297.363	85.2518	297.363	85.1608
307.617	88.7823	307.617	88.7274	307.617	88.7892	307.617	88.6304	307.617	88.742	307.617	88.4958	307.617	88.6335	307.617	88.3253	307.617	88.4551	307.617	88.1158	307.617	88.1958	307.617	87.8584	307.617	87.8424	307.617	87.5393	307.617	87.3815	307.617	87.1429	307.617	86.803	307.617	86.6587	307.617	86.1091	307.617	86.0916	307.617	85.3278	307.617	85.4741	307.617	84.532	307.617	84.8765	307.617	83.8504	307.617	84.3996	307.617	83.4341	307.617	84.13	307.617	83.3597	307.617	84.0785	307.617	83.5577	307.617	84.163	307.617	83.8645	307.617	84.2595	307.617	84.1286	307.617	84.2648
319.336	88.5123	319.336	88.474	319.336	88.4962	319.336	88.385	319.336	88.4225	319.336	88.2493	319.336	88.2879	319.336	88.0693	319.336	88.0876	319.336	87.8442	319.336	87.8136	319.336	87.5678	319.336	87.4553	319.336	87.2289	319.336	87.0008	319.336	86.8146	319.336	86.4421	319.336	86.3169	319.336	85.7848	319.336	85.7442	319.336	85.063	319.336	85.1354	319.336	84.3573	319.336	84.5705	319.336	83.797	319.336	84.1579	319.336	83.5137	319.336	83.9811	319.336	83.5473	319.336	84.0337	319.336	83.8033	319.336	84.2141	319.336	84.1204	319.336	84.3891	319.336	84.3622	319.336	84.4549
329.59	88.5503	329.59	88.4862	329.59	88.5618	329.59	88.371	329.59	88.5203	329.59	88.2073	329.59	88.4252	329.59	87.9971	329.59	88.2723	329.59	87.7393	329.59	88.052	329.59	87.427	329.59	87.7476	329.59	87.0473	329.59	87.3363	329.59	86.5842	329.59	86.7939	329.59	86.0269	329.59	86.1034	329.59	85.383	329.59	85.2711	329.59	84.6984	329.59	84.3547	329.59	84.0721	329.59	83.4965	329.59	83.641	329.59	82.9167	329.59	83.5022	329.59	82.785	329.59	83.625	329.59	83.0514	329.59	83.8621	329.59	83.486	329.59	84.0464	329.59	83.8649	329.59	84.0623
341.309	88.0067	341.309	87.9154	341.309	88.03	341.309	87.7568	341.309	87.9913	341.309	87.5387	341.309	87.9011	341.309	87.2732	341.309	87.7699	341.309	86.9724	341.309	87.6021	341.309	86.6424	341.309	87.3912	341.309	86.2788	341.309	87.1181	341.309	85.8668	341.309	86.755	341.309	85.3884	341.309	86.2736	341.309	84.8376	341.309	85.6587	341.309	84.2415	341.309	84.9273	341.309	83.6788	341.309	84.1533	341.309	83.2721	341.309	83.482	341.309	83.1224	341.309	83.0857	341.309	83.2193	341.309	83.0392	341.309	83.4343	341.309	83.2394	341.309	83.6091	341.309	83.4909	341.309	83.6364
353.027	88.375	353.027	88.3299	353.027	88.3398	353.027	88.2033	353.027	88.232	353.027	87.9996	353.027	88.0649	353.027	87.7262	353.027	87.8541	353.027	87.3897	353.027	87.6128	353.027	86.9916	353.027	87.3452	353.027	86.525	353.027	87.0424	353.027	85.9749	353.027	86.6832	353.027	85.3248	353.027	86.2408	353.027	84.5721	353.027	85.6955	353.027	83.7532	353.027	85.0518	353.027	82.9737	353.027	84.3584	353.027	82.4092	353.027	83.7193	353.027	82.2136	353.027	83.2672	353.027	82.3746	353.027	83.0786	353.027	82.7109	353.027	83.1004	353.027	83.0196	353.027	83.1835	353.027	83.1823
366.211	89.407	366.211	89.3813	366.211	89.3217	366.211	89.25	366.211	89.1243	366.211	89.021	366.211	88.8182	366.211	88.7038	366.211	88.4123	366.211	88.3062	366.211	87.9209	366.211	87.8315	366.211	87.3638	366.211	87.2746	366.211	86.7639	366.211	86.6206	366.211	86.144	366.211	85.8473	366.211	85.524	366.211	84.9353	366.211	84.9205	366.211	83.8904	366.211	84.3528	366.211	82.785	366.211	83.85	366.211	81.8083	366.211	83.4508	366.211	81.2409	366.211	83.1844	366.211	81.2372	366.211	83.0398	366.211	81.6407	366.211	82.9521	366.211	82.153	366.211	82.8241	366.211	82.569
379.395	89.1687	379.395	89.0783	379.395	89.1851	379.395	88.9205	379.395	89.1229	379.395	88.7038	379.395	88.978	379.395	88.4366	379.395	88.7453	379.395	88.1248	379.395	88.4171	379.395	87.7678	379.395	87.9826	379.395	87.3568	379.395	87.4299	379.395	86.8757	379.395	86.751	379.395	86.3083	379.395	85.9536	379.395	85.6506	379.395	85.0801	379.395	84.9308	379.395	84.2336	379.395	84.2314	379.395	83.5823	379.395	83.6908	379.395	83.2889	379.395	83.4449	379.395	83.376	379.395	83.519	379.395	83.6919	379.395	83.7924	379.395	84.031	379.395	84.0866	379.395	84.2434	379.395	84.2608
392.578	88.6026	392.578	88.538	392.578	88.6076	392.578	88.4147	392.578	88.5575	392.578	88.2392	392.578	88.4589	392.578	88.0216	392.578	88.3156	392.578	87.769	392.578	88.1227	392.578	87.4786	392.578	87.8641	392.578	87.1324	392.578	87.5126	392.578	86.6968	392.578	87.0342	392.578	86.1306	392.578	86.3977	392.578	85.4006	392.578	85.5894	392.578	84.5096	392.578	84.641	392.578	83.5419	392.578	83.6709	392.578	82.7102	392.578	82.9084	392.578	82.3002	392.578	82.5928	392.578	82.4188	392.578	82.7417	392.578	82.8505	392.578	83.1107	392.578	83.276	392.578	83.4166	392.578	83.4877
405.762	88.1359	405.762	88.1169	405.762	88.0667	405.762	88.0084	405.762	87.9205	405.762	87.8187	405.762	87.7168	405.762	87.5624	405.762	87.4777	405.762	87.2556	405.762	87.2199	405.762	86.9078	405.762	86.9446	405.762	86.5142	405.762	86.633	405.762	86.0522	405.762	86.2498	405.762	85.4864	405.762	85.7557	405.762	84.7853	405.762	85.1288	405.762	83.9521	405.762	84.3924	405.762	83.0735	405.762	83.6496	405.762	82.3632	405.762	83.0902	405.762	82.091	405.762	82.8941	405.762	82.3318	405.762	83.0586	405.762	82.8547	405.762	83.38	405.762	83.3506	405.762	83.62	405.762	83.626
420.41	88.3633	420.41	88.3417	420.41	88.3162	420.41	88.2576	420.41	88.2086	420.41	88.1301	420.41	88.0608	420.41	87.9837	420.41	87.8961	420.41	87.8359	420.41	87.7282	420.41	87.6836	420.41	87.5482	420.41	87.494	420.41	87.3191	420.41	87.2079	420.41	86.9819	420.41	86.7507	420.41	86.47	420.41	86.0473	420.41	85.7275	420.41	85.0419	420.41	84.7371	420.41	83.7398	420.41	83.5741	420.41	82.3118	420.41	82.4902	420.41	81.2351	420.41	81.8919	420.41	81.0561	420.41	81.9681	420.41	81.6418	420.41	82.4098	420.41	82.3556	420.41	82.7668	420.41	82.7723
435.059	88.7372	435.059	88.6644	435.059	88.6128	435.059	88.4095	435.059	88.2931	435.059	88.0078	435.059	87.8005	435.059	87.5234	435.059	87.188	435.059	87.051	435.059	86.5482	435.059	86.6948	435.059	86.0017	435.059	86.5131	435.059	85.642	435.059	86.4681	435.059	85.4641	435.059	86.438	435.059	85.3572	435.059	86.2778	435.059	85.1752	435.059	85.8706	435.059	84.8106	435.059	85.1519	435.059	84.2354	435.059	84.1365	435.059	83.5247	435.059	82.9757	435.059	82.8563	435.059	82.0085	435.059	82.4204	435.059	81.5899	435.059	82.2432	435.059	81.6955	435.059	82.1531	435.059	81.97
451.172	90.0818	451.172	89.9163	451.172	90.0936	451.172	89.5987	451.172	89.9479	451.172	89.1304	451.172	89.639	451.172	88.5168	451.172	89.1604	451.172	87.7737	451.172	88.507	451.172	86.9369	451.172	87.6798	451.172	86.0713	451.172	86.6903	451.172	85.2672	451.172	85.5684	451.172	84.6099	451.172	84.3711	451.172	84.1306	451.172	83.19	451.172	83.7867	451.172	82.1558	451.172	83.5036	451.172	81.4235	451.172	83.2372	451.172	81.1163	451.172	83.002	451.172	81.2352	451.172	82.8456	451.172	81.6324	451.172	82.7856	451.172	82.1001	451.172	82.7682	451.172	82.4771	451.172	82.6934
465.82	89.2384	465.82	89.152	465.82	89.2205	465.82	88.9577	465.82	89.1004	465.82	88.6514	465.82	88.8793	465.82	88.229	465.82	88.5567	465.82	87.6883	465.82	88.131	465.82	87.0321	465.82	87.5986	465.82	86.2731	465.82	86.9536	465.82	85.4385	465.82	86.1877	465.82	84.5731	465.82	85.2914	465.82	83.7382	465.82	84.2604	465.82	83.0035	465.82	83.1146	465.82	82.4368	465.82	81.9402	465.82	82.0887	465.82	80.9465	465.82	81.9697	465.82	80.4334	465.82	82.0244	465.82	80.5376	465.82	82.1351	465.82	81.0429	465.82	82.1634	465.82	81.6044	465.82	82.0002
483.398	88.8987	483.398	88.8077	483.398	88.9239	483.398	88.6476	483.398	88.8869	483.398	88.4151	483.398	88.7894	483.398	88.1045	483.398	88.6282	483.398	87.7035	483.398	88.393	483.398	87.1902	483.398	88.0647	483.398	86.5317	483.398	87.6177	483.398	85.6861	483.398	87.0236	483.398	84.6115	483.398	86.2585	483.398	83.2918	483.398	85.3176	483.398	81.8089	483.398	84.2425	483.398	80.4951	483.398	83.1673	483.398	79.9636	483.398	82.3472	483.398	80.4732	483.398	82.0445	483.398	81.497	483.398	82.2673	483.398	82.4475	483.398	82.7374	483.398	83.0634	483.398	83.1432	483.398	83.2851
499.512	88.3636	499.512	88.3332	499.512	88.346	499.512	88.2575	499.512	88.2867	499.512	88.1478	499.512	88.1946	499.512	88.0165	499.512	88.0732	499.512	87.8663	499.512	87.9127	499.512	87.6799	499.512	87.6895	499.512	87.4174	499.512	87.3706	499.512	87.022	499.512	86.9235	499.512	86.4304	499.512	86.3267	499.512	85.5856	499.512	85.5846	499.512	84.4587	499.512	84.7477	499.512	83.1	499.512	83.9349	499.512	81.7532	499.512	83.3227	499.512	80.9338	499.512	83.0505	499.512	81.0346	499.512	83.0891	499.512	81.7614	499.512	83.2452	499.512	82.5492	499.512	83.2959	499.512	83.0847
517.09	87.2855	517.09	87.2804	517.09	87.1384	517.09	87.1421	517.09	86.866	517.09	86.9301	517.09	86.5407	517.09	86.7298	517.09	86.2636	517.09	86.6162	517.09	86.1168	517.09	86.6043	517.09	86.1021	517.09	86.6257	517.09	86.1254	517.09	86.5556	517.09	86.045	517.09	86.2602	517.09	85.7333	517.09	85.6302	517.09	85.1168	517.09	84.6106	517.09	84.2215	517.09	83.2795	517.09	83.2626	517.09	82.0515	517.09	82.7063	517.09	81.7226	517.09	82.9395	517.09	82.528	517.09	83.7408	517.09	83.7223	517.09	84.5747	517.09	84.6664	517.09	85.0881	517.09	85.1336
536.133	88.7687	536.133	88.5815	536.133	88.6921	536.133	88.1401	536.133	88.3498	536.133	87.4698	536.133	87.7502	536.133	86.6328	536.133	86.9237	536.133	85.7571	536.133	85.9476	536.133	85.0393	536.133	84.9714	536.133	84.6453	536.133	84.1923	536.133	84.5443	536.133	83.7188	536.133	84.5024	536.133	83.4376	536.133	84.2486	536.133	83.0884	536.133	83.5941	536.133	82.4501	536.133	82.4851	536.133	81.4896	536.133	81.1486	536.133	80.5516	536.133	80.3574	536.133	80.4051	536.133	80.8596	536.133	81.3126	536.133	82.0945	536.133	82.5269	536.133	83.1374	536.133	83.3723	536.133	83.5923
555.176	88.822	555.176	88.5852	555.176	88.888	555.176	88.1873	555.176	88.7836	555.176	87.6561	555.176	88.5143	555.176	87.0456	555.176	88.0874	555.176	86.4392	555.176	87.5098	555.176	85.9294	555.176	86.7881	555.176	85.5612	555.176	85.9283	555.176	85.2757	555.176	84.9361	555.176	84.9135	555.176	83.8184	555.176	84.2719	555.176	82.593	555.176	83.1514	555.176	81.3325	555.176	81.3928	555.176	80.2606	555.176	79.0676	555.176	79.7958	555.176	77.3319	555.176	80.1971	555.176	78.1319	555.176	81.1376	555.176	80.16	555.176	82.0564	555.176	81.7236	555.176	82.5793	555.176	82.5095
574.219	88.8077	574.219	88.5772	574.219	88.8229	574.219	88.1088	574.219	88.6551	574.219	87.3954	574.219	88.3444	574.219	86.4625	574.219	87.9355	574.219	85.41	574.219	87.4696	574.219	84.4667	574.219	86.971	574.219	83.9458	574.219	86.4304	574.219	83.9653	574.219	85.7921	574.219	84.2659	574.219	84.9519	574.219	84.4601	574.219	83.7642	574.219	84.2749	574.219	82.0629	574.219	83.5727	574.219	79.7631	574.219	82.3408	574.219	77.4229	574.219	80.8238	574.219	77.1177	574.219	79.796	574.219	78.9402	574.219	80.0203	574.219	80.6751	574.219	80.9448	574.219	81.5736	574.219	81.6119
594.727	89.1069	594.727	89.0443	594.727	88.9409	594.727	88.7399	594.727	88.5607	594.727	88.1793	594.727	87.9899	594.727	87.3491	594.727	87.2742	594.727	86.2516	594.727	86.4997	594.727	84.9396	594.727	85.7969	594.727	83.5743	594.727	85.2869	594.727	82.4372	594.727	84.9664	594.727	81.7361	594.727	84.6533	594.727	81.3325	594.727	84.0653	594.727	80.8601	594.727	82.9053	594.727	80.0728	594.727	80.8674	594.727	79.1053	594.727	77.7256	594.727	78.6749	594.727	74.8688	594.727	79.4147	594.727	76.5506	594.727	80.7286	594.727	79.5134	594.727	81.7292	594.727	81.3206	594.727	81.9937
615.234	88.258	615.234	88.1725	615.234	88.2013	615.234	87.9388	615.234	87.9989	615.234	87.5422	615.234	87.6389	615.234	86.9617	615.234	87.104	615.234	86.1784	615.234	86.3825	615.234	85.192	615.234	85.4947	615.234	84.0448	615.234	84.5367	615.234	82.8411	615.234	83.7052	615.234	81.7142	615.234	83.1876	615.234	80.7085	615.234	82.9288	615.234	79.6883	615.234	82.6077	615.234	78.4394	615.234	81.8668	615.234	76.9581	615.234	80.4736	615.234	75.896	615.234	78.4743	615.234	76.2367	615.234	76.7323	615.234	77.4783	615.234	76.7516	615.234	78.4364	615.234	77.8712	615.234	78.5885
637.207	88.077	637.207	87.9539	637.207	88.0779	637.207	87.7015	637.207	87.9722	637.207	87.3241	637.207	87.7753	637.207	86.8358	637.207	87.4904	637.207	86.2571	637.207	87.1012	637.207	85.6143	637.207	86.5753	637.207	84.9369	637.207	85.8774	637.207	84.2441	637.207	84.9834	637.207	83.5155	637.207	83.8824	637.207	82.6613	637.207	82.556	637.207	81.5196	637.207	80.9482	637.207	79.8796	637.207	78.9992	637.207	77.5521	637.207	76.9365	637.207	74.815	637.207	75.9088	637.207	73.8904	637.207	76.8036	637.207	75.8599	637.207	78.2639	637.207	77.931	637.207	79.1175	637.207	79.036
659.18	87.4392	659.18	87.3964	659.18	87.2435	659.18	87.1241	659.18	86.824	659.18	86.6531	659.18	86.2301	659.18	86.0441	659.18	85.5625	659.18	85.3978	659.18	84.9772	659.18	84.8447	659.18	84.6316	659.18	84.4792	659.18	84.5615	659.18	84.2662	659.18	84.6152	659.18	84.03	659.18	84.5368	659.18	83.5443	659.18	84.0812	659.18	82.6114	659.18	83.0467	659.18	81.0957	659.18	81.2641	659.18	79.0224	659.18	78.6791	659.18	77.0283	659.18	76.0558	659.18	76.6602	659.18	75.8701	659.18	77.8831	659.18	77.6586	659.18	79.086	659.18	79.0695	659.18	79.5395
682.617	87.8494	682.617	87.6326	682.617	87.8077	682.617	87.1621	682.617	87.5025	682.617	86.4406	682.617	86.9281	682.617	85.4687	682.617	86.0822	682.617	84.2637	682.617	84.9913	682.617	82.9327	682.617	83.7934	682.617	81.8083	682.617	82.8624	682.617	81.3777	682.617	82.6536	682.617	81.6694	682.617	83.0749	682.617	82.0991	682.617	83.5072	682.617	82.1164	682.617	83.4347	682.617	81.4469	682.617	82.5864	682.617	80.0579	682.617	80.8553	682.617	78.4148	682.617	78.5517	682.617	77.881	682.617	77.3553	682.617	78.912	682.617	78.463	682.617	80.0816	682.617	79.9015	682.617	80.487
707.52	88.0191	707.52	87.8503	707.52	87.9793	707.52	87.4811	707.52	87.7275	707.52	86.9193	707.52	87.261	707.52	86.1608	707.52	86.5679	707.52	85.1859	707.52	85.627	707.52	83.9838	707.52	84.4333	707.52	82.6262	707.52	83.0686	707.52	81.3748	707.52	81.7827	707.52	80.6089	707.52	80.8803	707.52	80.3392	707.52	80.3045	707.52	80.0128	707.52	79.5578	707.52	78.9624	707.52	78.1326	707.52	76.6093	707.52	75.9968	707.52	72.8245	707.52	74.9037	707.52	72.3664	707.52	76.7346	707.52	76.3161	707.52	78.9781	707.52	79.0331	707.52	80.1993	707.52	80.2432
732.422	86.6459	732.422	86.5617	732.422	86.5541	732.422	86.3141	732.422	86.2856	732.422	85.9174	732.422	85.8485	732.422	85.3718	732.422	85.2496	732.422	84.6578	732.422	84.4915	732.422	83.7606	732.422	83.5938	732.422	82.7299	732.422	82.6392	732.422	81.7508	732.422	81.7965	732.422	81.0913	732.422	81.2097	732.422	80.802	732.422	80.7775	732.422	80.5455	732.422	80.1275	732.422	79.8668	732.422	78.7943	732.422	78.4592	732.422	76.3291	732.422	76.3892	732.422	72.8759	732.422	74.8554	732.422	72.423	732.422	75.5389	732.422	75.3886	732.422	77.0673	732.422	77.3487	732.422	77.8312
757.324	86.6246	757.324	86.3749	757.324	86.6963	757.324	85.9764	757.324	86.5756	757.324	85.4616	757.324	86.2602	757.324	84.8447	757.324	85.7467	757.324	84.1052	757.324	85.0167	757.324	83.1919	757.324	84.04	757.324	82.0691	757.324	82.8245	757.324	80.8329	757.324	81.5425	757.324	79.8282	757.324	80.6423	757.324	79.3646	757.324	80.4728	757.324	79.1118	757.324	80.6409	757.324	78.3506	757.324	80.3952	757.324	76.5763	757.324	79.1807	757.324	74.061	757.324	76.715	757.324	73.5709	757.324	74.0197	757.324	75.8586	757.324	74.832	757.324	77.6945	757.324	77.1206	757.324	78.1535
785.156	85.9735	785.156	85.9296	785.156	85.9358	785.156	85.7972	785.156	85.8011	785.156	85.5427	785.156	85.5318	785.156	85.1014	785.156	85.0734	785.156	84.3901	785.156	84.3675	785.156	83.3573	785.156	83.3786	785.156	82.0833	785.156	82.1559	785.156	80.8757	785.156	80.9158	785.156	80.0887	785.156	79.9514	785.156	79.6451	785.156	79.204	785.156	79.1111	785.156	78.1301	785.156	78.16	785.156	76.0802	785.156	76.6319	785.156	72.6891	785.156	74.4611	785.156	70.702	785.156	72.3658	785.156	73.7498	785.156	72.8971	785.156	76.4152	785.156	75.2973	785.156	77.4426	785.156	77.0177
811.523	85.2725	811.523	85.3988	811.523	85.0689	811.523	85.3746	811.523	84.8806	811.523	85.1662	811.523	84.7599	811.523	84.7735	811.523	84.6656	811.523	84.2187	811.523	84.4671	811.523	83.5407	811.523	84.0041	811.523	82.7933	811.523	83.1757	811.523	82.038	811.523	82.0748	811.523	81.2995	811.523	81.1094	811.523	80.5003	811.523	80.6633	811.523	79.4709	811.523	80.3864	811.523	78.0433	811.523	79.4534	811.523	76.0971	811.523	77.0241	811.523	73.6396	811.523	71.8533	811.523	71.8014	811.523	67.0767	811.523	73.0828	811.523	73.1885	811.523	75.4996	811.523	76.2055	811.523	76.7419
840.82	85.9494	840.82	85.8771	840.82	85.7482	840.82	85.5258	840.82	85.26	840.82	84.8678	840.82	84.4638	840.82	83.8714	840.82	83.3681	840.82	82.5724	840.82	82.1225	840.82	81.2252	840.82	81.1847	840.82	80.3811	840.82	81.0606	840.82	80.3839	840.82	81.5036	840.82	80.8205	840.82	81.8042	840.82	81.0514	840.82	81.5787	840.82	80.6558	840.82	80.8164	840.82	79.3572	840.82	79.6567	840.82	76.9668	840.82	78.163	840.82	73.8209	840.82	76.3556	840.82	72.4695	840.82	74.8747	840.82	74.0884	840.82	74.9406	840.82	75.6922	840.82	75.8788	840.82	76.2875
870.117	85.625	870.117	85.775	870.117	85.4188	870.117	85.7868	870.117	85.1955	870.117	85.5523	870.117	84.9196	870.117	84.9314	870.117	84.4622	870.117	83.7266	870.117	83.6049	870.117	81.6436	870.117	82.0484	870.117	78.2887	870.117	79.455	870.117	74.1697	870.117	76.0615	870.117	74.5369	870.117	75.3179	870.117	77.3068	870.117	77.6217	870.117	78.5686	870.117	78.9999	870.117	78.2973	870.117	78.6981	870.117	76.7636	870.117	76.6305	870.117	74.5135	870.117	73.5086	870.117	73.5801	870.117	74.0708	870.117	75.3755	870.117	77.0315	870.117	77.5322	870.117	78.6292	870.117	78.7201
900.879	85.0608	900.879	85.0844	900.879	84.8404	900.879	84.945	900.879	84.4935	900.879	84.711	900.879	84.1572	900.879	84.3751	900.879	83.8894	900.879	83.7878	900.879	83.561	900.879	82.6752	900.879	82.9187	900.879	80.6832	900.879	81.7136	900.879	77.4275	900.879	79.8167	900.879	73.2041	900.879	77.5465	900.879	72.2469	900.879	76.3239	900.879	74.2586	900.879	76.9173	900.879	74.9187	900.879	77.5386	900.879	73.5455	900.879	76.7688	900.879	69.9554	900.879	73.949	900.879	68.5492	900.879	71.2455	900.879	73.2265	900.879	74.4194	900.879	76.4636	900.879	77.1329	900.879	77.7337
933.105	84.6506	933.105	84.7104	933.105	84.4774	933.105	84.6036	933.105	84.2856	933.105	84.3257	933.105	84.1285	933.105	83.8724	933.105	83.9302	933.105	83.1835	933.105	83.482	933.105	82.1271	933.105	82.5054	933.105	80.5444	933.105	80.7613	933.105	78.3685	933.105	78.3934	933.105	75.9008	933.105	76.7443	933.105	74.161	933.105	76.853	933.105	73.8313	933.105	77.0133	933.105	73.933	933.105	75.9425	933.105	73.3717	933.105	73.1096	933.105	71.5092	933.105	68.4827	933.105	68.6842	933.105	69.5107	933.105	69.9175	933.105	73.8514	933.105	73.6815	933.105	75.852	933.105	75.7522
965.332	85.6344	965.332	85.4201	965.332	85.3803	965.332	84.7882	965.332	84.7941	965.332	83.9246	965.332	84.154	965.332	83.0389	965.332	83.6701	965.332	82.2153	965.332	83.2637	965.332	81.3254	965.332	82.6326	965.332	80.0936	965.332	81.44	965.332	78.283	965.332	79.4062	965.332	76.0338	965.332	76.5936	965.332	74.3591	965.332	74.5925	965.332	73.9762	965.332	75.0308	965.332	73.5704	965.332	75.5509	965.332	71.8419	965.332	74.4249	965.332	68.584	965.332	71.2303	965.332	68.5701	965.332	70.3447	965.332	72.9379	965.332	74.3955	965.332	75.989	965.332	76.8406	965.332	77.2805
1,000.49	84.6929	1,000.49	84.3207	1,000.49	84.5597	1,000.49	83.5635	1,000.49	83.977	1,000.49	82.6477	1,000.49	83.2055	1,000.49	81.7926	1,000.49	82.5698	1,000.49	81.0507	1,000.49	82.1052	1,000.49	80.2153	1,000.49	81.465	1,000.49	78.9236	1,000.49	80.2512	1,000.49	77.0001	1,000.49	78.4156	1,000.49	75.3038	1,000.49	76.8273	1,000.49	75.5023	1,000.49	76.6497	1,000.49	76.4013	1,000.49	76.9133	1,000.49	76.1645	1,000.49	76.0338	1,000.49	74.0297	1,000.49	72.6598	1,000.49	68.8338	1,000.49	61.5622	1,000.49	57.5369	1,000.49	66.5121	1,000.49	68.0919	1,000.49	73.44	1,000.49	73.0719	1,000.49	75.4823	1,000.49	75.2313
1,035.64	85.6377	1,035.64	85.1604	1,035.64	85.495	1,035.64	84.1771	1,035.64	84.7344	1,035.64	82.8568	1,035.64	83.5636	1,035.64	81.4357	1,035.64	82.4349	1,035.64	80.2081	1,035.64	81.7493	1,035.64	79.1783	1,035.64	81.2595	1,035.64	77.7279	1,035.64	80.1562	1,035.64	74.8247	1,035.64	77.5889	1,035.64	69.0869	1,035.64	73.414	1,035.64	68.0618	1,035.64	73.3894	1,035.64	73.7436	1,035.64	76.8053	1,035.64	76.1203	1,035.64	78.2183	1,035.64	75.7569	1,035.64	77.2026	1,035.64	71.94	1,035.64	72.8057	1,035.64	54.7011	1,035.64	62.052	1,035.64	69.6436	1,035.64	71.1058	1,035.64	74.8903	1,035.64	75.2895	1,035.64	76.2667
1,072.27	84.8477	1,072.27	84.484	1,072.27	84.7611	1,072.27	83.7371	1,072.27	84.2304	1,072.27	82.6897	1,072.27	83.4007	1,072.27	81.4426	1,072.27	82.5648	1,072.27	80.2111	1,072.27	81.9841	1,072.27	79.2826	1,072.27	81.5266	1,072.27	78.5354	1,072.27	80.6142	1,072.27	77.3094	1,072.27	78.5468	1,072.27	74.8037	1,072.27	74.6878	1,072.27	69.9966	1,072.27	70.3621	1,072.27	66.8309	1,072.27	72.0763	1,072.27	71.3286	1,072.27	73.8946	1,072.27	73.023	1,072.27	72.8287	1,072.27	71.4399	1,072.27	67.7298	1,072.27	65.0181	1,072.27	59.645	1,072.27	61.8137	1,072.27	69.249	1,072.27	70.3767	1,072.27	72.6985	1,072.27	73.0217
1,108.89	84.4691	1,108.89	84.2437	1,108.89	84.361	1,108.89	83.6524	1,108.89	83.9494	1,108.89	82.6019	1,108.89	83.3001	1,108.89	80.975	1,108.89	82.5263	1,108.89	78.8976	1,108.89	81.8331	1,108.89	77.2139	1,108.89	81.4074	1,108.89	76.903	1,108.89	81.0007	1,108.89	77.2788	1,108.89	79.8768	1,108.89	76.8271	1,108.89	77.0837	1,108.89	74.1333	1,108.89	71.3471	1,108.89	67.6571	1,108.89	70.0653	1,108.89	68.8876	1,108.89	74.8126	1,108.89	73.0218	1,108.89	75.5661	1,108.89	73.1026	1,108.89	72.2381	1,108.89	69.0338	1,108.89	62.0554	1,108.89	50.648	1,108.89	68.0167	1,108.89	67.7566	1,108.89	72.0951	1,108.89	71.9918
1,148.44	84.2581	1,148.44	83.7364	1,148.44	84.3445	1,148.44	82.8856	1,148.44	83.9933	1,148.44	81.8088	1,148.44	83.3453	1,148.44	80.5252	1,148.44	82.6523	1,148.44	79.035	1,148.44	82.1448	1,148.44	77.4829	1,148.44	81.7841	1,148.44	76.4095	1,148.44	81.1551	1,148.44	76.3776	1,148.44	79.6616	1,148.44	76.5923	1,148.44	76.6618	1,148.44	75.8754	1,148.44	71.6809	1,148.44	74.0123	1,148.44	69.1703	1,148.44	72.5632	1,148.44	71.4182	1,148.44	73.3053	1,148.44	71.0942	1,148.44	73.7863	1,148.44	66.6967	1,148.44	71.5483	1,148.44	59.6108	1,148.44	62.5773	1,148.44	67.6899	1,148.44	64.1639	1,148.44	71.0469	1,148.44	70.56
1,189.45	84.2412	1,189.45	83.5038	1,189.45	84.538	1,189.45	82.4995	1,189.45	84.3598	1,189.45	81.4335	1,189.45	83.7808	1,189.45	80.3483	1,189.45	82.924	1,189.45	79.0842	1,189.45	81.9901	1,189.45	77.4465	1,189.45	81.3604	1,189.45	75.6991	1,189.45	81.2759	1,189.45	75.2979	1,189.45	81.1753	1,189.45	76.2994	1,189.45	80.0767	1,189.45	76.6388	1,189.45	77.0002	1,189.45	75.4878	1,189.45	70.1013	1,189.45	73.6895	1,189.45	64.2063	1,189.45	73.8696	1,189.45	68.9941	1,189.45	74.6344	1,189.45	66.4457	1,189.45	72.8349	1,189.45	58.083	1,189.45	65.0273	1,189.45	68.1568	1,189.45	62.4491	1,189.45	71.4229	1,189.45	70.4914
1,230.47	84.8412	1,230.47	84.0535	1,230.47	85.0457	1,230.47	82.8555	1,230.47	84.662	1,230.47	81.5122	1,230.47	83.8362	1,230.47	80.3016	1,230.47	82.741	1,230.47	79.3478	1,230.47	81.5167	1,230.47	78.3128	1,230.47	80.406	1,230.47	76.2996	1,230.47	79.6322	1,230.47	71.8265	1,230.47	78.8852	1,230.47	63.311	1,230.47	77.5236	1,230.47	68.8977	1,230.47	75.1254	1,230.47	72.9652	1,230.47	72.4715	1,230.47	74.6704	1,230.47	72.5152	1,230.47	75.9237	1,230.47	73.1231	1,230.47	76.547	1,230.47	70.8722	1,230.47	74.9553	1,230.47	61.5737	1,230.47	68.6978	1,230.47	65.03	1,230.47	64.6599	1,230.47	71.2651	1,230.47	71.264
1,274.41	84.505	1,274.41	83.6995	1,274.41	85.0756	1,274.41	82.9284	1,274.41	85.1095	1,274.41	81.9944	1,274.41	84.5793	1,274.41	80.5785	1,274.41	83.6608	1,274.41	78.7766	1,274.41	82.639	1,274.41	77.1964	1,274.41	81.748	1,274.41	76.3801	1,274.41	81.0201	1,274.41	75.8265	1,274.41	80.299	1,274.41	74.5857	1,274.41	79.2169	1,274.41	72.0573	1,274.41	77.2403	1,274.41	67.8808	1,274.41	74.1436	1,274.41	65.7099	1,274.41	72.4441	1,274.41	70.5593	1,274.41	73.2163	1,274.41	73.497	1,274.41	71.8425	1,274.41	72.7702	1,274.41	65.7001	1,274.41	66.246	1,274.41	61.7895	1,274.41	58.5797	1,274.41	68.4674	1,274.41	68.576
1,319.82	83.7518	1,319.82	83.2129	1,319.82	84.4137	1,319.82	82.2346	1,319.82	85.3366	1,319.82	80.7038	1,319.82	85.9972	1,319.82	79.2839	1,319.82	85.8786	1,319.82	78.4856	1,319.82	84.7806	1,319.82	77.4313	1,319.82	82.9357	1,319.82	75.0203	1,319.82	81.2465	1,319.82	70.461	1,319.82	80.4509	1,319.82	65.3218	1,319.82	79.6009	1,319.82	69.7604	1,319.82	77.1878	1,319.82	73.1093	1,319.82	71.7017	1,319.82	73.3731	1,319.82	69.9378	1,319.82	74.2438	1,319.82	73.8591	1,319.82	76.5746	1,319.82	73.6234	1,319.82	76.226	1,319.82	69.8242	1,319.82	71.6005	1,319.82	67.3124	1,319.82	59.1791	1,319.82	69.7178	1,319.82	68.067
1,366.7	83.9493	1,366.7	82.8627	1,366.7	84.2619	1,366.7	81.2179	1,366.7	84.1953	1,366.7	80.0259	1,366.7	84.2527	1,366.7	79.7192	1,366.7	84.3363	1,366.7	79.3459	1,366.7	83.8755	1,366.7	78.8014	1,366.7	82.4953	1,366.7	78.6709	1,366.7	80.5494	1,366.7	78.4411	1,366.7	79.8223	1,366.7	76.8416	1,366.7	80.653	1,366.7	71.3298	1,366.7	80.6607	1,366.7	63.605	1,366.7	78.5586	1,366.7	69.7417	1,366.7	74.8052	1,366.7	70.3551	1,366.7	71.8177	1,366.7	74.6474	1,366.7	68.5948	1,366.7	76.3734	1,366.7	68.6759	1,366.7	74.1353	1,366.7	71.4392	1,366.7	65.0345	1,366.7	70.9872	1,366.7	63.8646
1,413.57	83.2823	1,413.57	81.6728	1,413.57	84.1981	1,413.57	80.7245	1,413.57	83.9712	1,413.57	80.8577	1,413.57	83.1188	1,413.57	81.0212	1,413.57	82.8721	1,413.57	80.1353	1,413.57	83.4523	1,413.57	77.7382	1,413.57	83.5263	1,413.57	75.6608	1,413.57	81.9981	1,413.57	77.1633	1,413.57	78.5327	1,413.57	79.1428	1,413.57	77.1303	1,413.57	78.7464	1,413.57	78.9297	1,413.57	75.6866	1,413.57	78.4459	1,413.57	72.065	1,413.57	76.3642	1,413.57	63.9349	1,413.57	75.2643	1,413.57	69.3414	1,413.57	72.0792	1,413.57	75.5208	1,413.57	64.1638	1,413.57	75.9429	1,413.57	70.8016	1,413.57	70.7333	1,413.57	71.2667	1,413.57	57.961
1,463.38	83.6393	1,463.38	82.7886	1,463.38	84.6265	1,463.38	82.1901	1,463.38	84.9629	1,463.38	81.4233	1,463.38	84.2822	1,463.38	80.6296	1,463.38	83.0528	1,463.38	79.956	1,463.38	82.4286	1,463.38	79.2262	1,463.38	82.5345	1,463.38	77.9368	1,463.38	82.1923	1,463.38	76.9088	1,463.38	80.8327	1,463.38	78.6832	1,463.38	79.5827	1,463.38	79.2068	1,463.38	78.8217	1,463.38	77.2571	1,463.38	76.9376	1,463.38	75.172	1,463.38	76.5928	1,463.38	71.1092	1,463.38	77.1709	1,463.38	61.4766	1,463.38	74.1071	1,463.38	74.451	1,463.38	66.4221	1,463.38	76.5256	1,463.38	71.784	1,463.38	71.1735	1,463.38	73.5763	1,463.38	65.3689
1,516.11	84.1153	1,516.11	83.9117	1,516.11	84.3573	1,516.11	83.4663	1,516.11	84.9703	1,516.11	83.0368	1,516.11	85.2663	1,516.11	82.6737	1,516.11	84.5268	1,516.11	82.4052	1,516.11	82.9492	1,516.11	82.4073	1,516.11	82.0331	1,516.11	81.9438	1,516.11	82.0175	1,516.11	80.0396	1,516.11	80.7625	1,516.11	76.9829	1,516.11	77.2415	1,516.11	74.8652	1,516.11	73.5525	1,516.11	75.7313	1,516.11	75.0002	1,516.11	77.9763	1,516.11	76.772	1,516.11	77.8648	1,516.11	76.7896	1,516.11	72.8881	1,516.11	73.787	1,516.11	70.9587	1,516.11	70.7699	1,516.11	76.7053	1,516.11	75.1601	1,516.11	74.3398	1,516.11	74.7543	1,516.11	59.6083
1,568.85	85.0996	1,568.85	84.1646	1,568.85	85.4141	1,568.85	83.9777	1,568.85	85.1431	1,568.85	84.424	1,568.85	85.072	1,568.85	84.1895	1,568.85	84.7819	1,568.85	83.1724	1,568.85	83.6578	1,568.85	81.7678	1,568.85	82.5083	1,568.85	80.632	1,568.85	81.8729	1,568.85	80.0265	1,568.85	80.5587	1,568.85	78.3858	1,568.85	78.6958	1,568.85	74.1632	1,568.85	77.1546	1,568.85	67.9119	1,568.85	73.4066	1,568.85	74.7709	1,568.85	66.0104	1,568.85	78.03	1,568.85	70.9621	1,568.85	75.2056	1,568.85	72.0802	1,568.85	66.0568	1,568.85	71.991	1,568.85	77.4956	1,568.85	75.6577	1,568.85	77.2058	1,568.85	73.8909	1,568.85	62.3766
1,624.51	84.7715	1,624.51	85.0757	1,624.51	85.8761	1,624.51	85.4911	1,624.51	86.3912	1,624.51	84.7642	1,624.51	85.6517	1,624.51	83.8521	1,624.51	84.254	1,624.51	83.6893	1,624.51	82.7366	1,624.51	83.0333	1,624.51	81.9001	1,624.51	80.716	1,624.51	82.0127	1,624.51	77.705	1,624.51	81.0573	1,624.51	77.086	1,624.51	78.2644	1,624.51	77.6048	1,624.51	76.7626	1,624.51	73.1786	1,624.51	74.8399	1,624.51	67.1956	1,624.51	70.0453	1,624.51	77.197	1,624.51	74.4437	1,624.51	77.2993	1,624.51	74.2046	1,624.51	66.0962	1,624.51	66.7868	1,624.51	75.2567	1,624.51	73.7355	1,624.51	76.6034	1,624.51	72.8317	1,624.51	64.1741
1,681.64	84.537	1,681.64	85.5694	1,681.64	84.5479	1,681.64	85.6347	1,681.64	85.8329	1,681.64	84.7935	1,681.64	86.2561	1,681.64	84.3034	1,681.64	85.4002	1,681.64	84.2193	1,681.64	83.8323	1,681.64	83.3769	1,681.64	82.1248	1,681.64	81.5961	1,681.64	81.406	1,681.64	79.5603	1,681.64	80.51	1,681.64	76.3809	1,681.64	77.096	1,681.64	72.6059	1,681.64	74.0003	1,681.64	74.0079	1,681.64	74.0303	1,681.64	69.9648	1,681.64	72.7502	1,681.64	72.7327	1,681.64	77.7398	1,681.64	78.9807	1,681.64	78.7547	1,681.64	75.2772	1,681.64	74.3534	1,681.64	72.809	1,681.64	75.8921	1,681.64	76.984	1,681.64	74.4462	1,681.64	67.5959
1,741.7	85.9346	1,741.7	85.939	1,741.7	85.6304	1,741.7	85.6247	1,741.7	85.5446	1,741.7	84.9292	1,741.7	85.5248	1,741.7	84.2986	1,741.7	84.8847	1,741.7	84.081	1,741.7	84.3533	1,741.7	83.4142	1,741.7	84.0481	1,741.7	82.0601	1,741.7	83.0108	1,741.7	81.6222	1,741.7	81.7407	1,741.7	82.4083	1,741.7	80.4045	1,741.7	80.9853	1,741.7	78.6063	1,741.7	76.7576	1,741.7	75.6987	1,741.7	71.3924	1,741.7	71.0058	1,741.7	69.6716	1,741.7	74.8402	1,741.7	77.0179	1,741.7	74.9804	1,741.7	76.5824	1,741.7	73.3398	1,741.7	71.1901	1,741.7	74.6984	1,741.7	72.8343	1,741.7	70.0367	1,741.7	66.9799
1,803.22	87.0673	1,803.22	87.1158	1,803.22	86.2172	1,803.22	85.7117	1,803.22	85.7967	1,803.22	84.2815	1,803.22	85.6466	1,803.22	84.3153	1,803.22	84.922	1,803.22	84.2367	1,803.22	83.9939	1,803.22	84.279	1,803.22	83.3915	1,803.22	84.3883	1,803.22	83.1813	1,803.22	83.3344	1,803.22	83.2285	1,803.22	81.7517	1,803.22	81.6985	1,803.22	80.2105	1,803.22	79.422	1,803.22	77.8874	1,803.22	78.0518	1,803.22	76.6997	1,803.22	71.223	1,803.22	72.8802	1,803.22	73.3638	1,803.22	71.775	1,803.22	74.4039	1,803.22	74.8463	1,803.22	72.0086	1,803.22	74.5726	1,803.22	75.7797	1,803.22	74.7529	1,803.22	73.0004	1,803.22	69.6843
1,866.21	87.1503	1,866.21	86.456	1,866.21	86.9164	1,866.21	85.8905	1,866.21	86.1704	1,866.21	86.5085	1,866.21	85.8746	1,866.21	86.2472	1,866.21	85.4583	1,866.21	83.8589	1,866.21	83.9862	1,866.21	82.185	1,866.21	81.9703	1,866.21	83.0362	1,866.21	80.8836	1,866.21	82.5837	1,866.21	79.9641	1,866.21	80.2016	1,866.21	76.4726	1,866.21	77.8117	1,866.21	75.4393	1,866.21	75.9654	1,866.21	77.8482	1,866.21	76.7865	1,866.21	73.148	1,866.21	76.4766	1,866.21	66.6073	1,866.21	75.3767	1,866.21	73.8462	1,866.21	73.6585	1,866.21	72.9517	1,866.21	73.2659	1,866.21	75.6761	1,866.21	74.2543	1,866.21	74.6317	1,866.21	60.527
1,932.13	86.9648	1,932.13	86.9601	1,932.13	86.9009	1,932.13	86.7879	1,932.13	86.5885	1,932.13	86.5368	1,932.13	86.0809	1,932.13	85.8579	1,932.13	85.7969	1,932.13	84.7205	1,932.13	85.1141	1,932.13	83.6844	1,932.13	83.5877	1,932.13	82.7609	1,932.13	81.4415	1,932.13	81.8574	1,932.13	79.6083	1,932.13	80.5153	1,932.13	77.6973	1,932.13	79.7726	1,932.13	75.0097	1,932.13	78.6549	1,932.13	75.3276	1,932.13	72.8173	1,932.13	73.6349	1,932.13	72.097	1,932.13	66.0129	1,932.13	76.6771	1,932.13	74.3079	1,932.13	76.4002	1,932.13	74.7738	1,932.13	72.3307	1,932.13	75.7213	1,932.13	74.2383	1,932.13	72.8356	1,932.13	69.4591
1,999.51	86.3775	1,999.51	86.9685	1,999.51	87.0316	1,999.51	86.6584	1,999.51	87.2564	1,999.51	85.258	1,999.51	86.0289	1,999.51	85.7747	1,999.51	85.1795	1,999.51	85.8499	1,999.51	84.5551	1,999.51	84.2055	1,999.51	82.2734	1,999.51	83.8517	1,999.51	79.6955	1,999.51	83.9538	1,999.51	78.8127	1,999.51	82.1994	1,999.51	74.0855	1,999.51	79.8656	1,999.51	72.102	1,999.51	78.799	1,999.51	76.762	1,999.51	76.3122	1,999.51	76.1171	1,999.51	74.002	1,999.51	71.867	1,999.51	76.8964	1,999.51	73.5033	1,999.51	76.0192	1,999.51	75.422	1,999.51	72.3146	1,999.51	75.413	1,999.51	72.2117	1,999.51	71.5855	1,999.51	57.8473
2,069.82	87.6534	2,069.82	87.6427	2,069.82	87.5209	2,069.82	86.2852	2,069.82	87.5208	2,069.82	85.3048	2,069.82	86.4347	2,069.82	85.3933	2,069.82	85.0922	2,069.82	84.8495	2,069.82	84.2454	2,069.82	84.285	2,069.82	82.8992	2,069.82	83.3361	2,069.82	80.0248	2,069.82	81.3667	2,069.82	77.0654	2,069.82	79.5735	2,069.82	74.6678	2,069.82	76.8791	2,069.82	65.6735	2,069.82	77.6199	2,069.82	74.7846	2,069.82	78.3681	2,069.82	76.4143	2,069.82	73.5073	2,069.82	72.6084	2,069.82	76.633	2,069.82	73.7211	2,069.82	75.5333	2,069.82	74.4749	2,069.82	71.8686	2,069.82	75.7955	2,069.82	74.3809	2,069.82	71.9607	2,069.82	62.6902
2,143.07	87.9829	2,143.07	87.937	2,143.07	87.7023	2,143.07	86.7469	2,143.07	87.8025	2,143.07	85.9666	2,143.07	86.7713	2,143.07	85.4691	2,143.07	85.0459	2,143.07	83.6172	2,143.07	83.9589	2,143.07	82.3166	2,143.07	82.4768	2,143.07	83.0475	2,143.07	80.6136	2,143.07	81.958	2,143.07	78.2147	2,143.07	79.319	2,143.07	75.2351	2,143.07	77.879	2,143.07	66.5105	2,143.07	76.0218	2,143.07	71.5993	2,143.07	77.7205	2,143.07	75.0884	2,143.07	74.362	2,143.07	71.0036	2,143.07	75.7908	2,143.07	70.8854	2,143.07	76.9576	2,143.07	72.4138	2,143.07	71.6248	2,143.07	74.6946	2,143.07	74.5901	2,143.07	70.2494	2,143.07	67.2125
2,219.24	88.1469	2,219.24	87.2646	2,219.24	87.6795	2,219.24	86.2525	2,219.24	87.5225	2,219.24	86.0679	2,219.24	87.2265	2,219.24	84.7428	2,219.24	85.1627	2,219.24	83.9436	2,219.24	83.0614	2,219.24	83.7246	2,219.24	81.7321	2,219.24	82.6753	2,219.24	79.3402	2,219.24	81.2941	2,219.24	76.0505	2,219.24	79.2594	2,219.24	72.5076	2,219.24	78.8813	2,219.24	67.0954	2,219.24	76.7548	2,219.24	67.8172	2,219.24	76.8815	2,219.24	73.3582	2,219.24	76.3188	2,219.24	70.607	2,219.24	74.0882	2,219.24	67.4431	2,219.24	77.3088	2,219.24	69.9134	2,219.24	72.7309	2,219.24	73.5999	2,219.24	74.0086	2,219.24	68.6111	2,219.24	68.4827
2,296.88	88.8923	2,296.88	87.5722	2,296.88	88.7671	2,296.88	86.2776	2,296.88	87.3609	2,296.88	84.7215	2,296.88	86.5948	2,296.88	84.2926	2,296.88	85.2164	2,296.88	84.7964	2,296.88	82.4011	2,296.88	83.7813	2,296.88	80.7676	2,296.88	83.0205	2,296.88	79.7166	2,296.88	83.1224	2,296.88	77.566	2,296.88	81.362	2,296.88	76.7618	2,296.88	79.3308	2,296.88	73.1757	2,296.88	77.2396	2,296.88	65.7913	2,296.88	76.6431	2,296.88	74.0711	2,296.88	77.2183	2,296.88	70.559	2,296.88	74.4094	2,296.88	68.317	2,296.88	75.9	2,296.88	67.4487	2,296.88	71.8359	2,296.88	72.4765	2,296.88	73.3273	2,296.88	66.653	2,296.88	69.1723
2,378.91	88.6775	2,378.91	87.862	2,378.91	89.2816	2,378.91	86.3375	2,378.91	88.3123	2,378.91	84.2159	2,378.91	86.3546	2,378.91	83.9384	2,378.91	84.7892	2,378.91	83.6938	2,378.91	82.0848	2,378.91	83.7603	2,378.91	78.3277	2,378.91	82.8141	2,378.91	78.3574	2,378.91	81.575	2,378.91	78.1525	2,378.91	79.948	2,378.91	76.6219	2,378.91	77.1601	2,378.91	74.9961	2,378.91	75.9089	2,378.91	66.1059	2,378.91	74.9958	2,378.91	70.9121	2,378.91	76.4229	2,378.91	69.5475	2,378.91	74.4689	2,378.91	67.6065	2,378.91	75.7859	2,378.91	62.3097	2,378.91	72.1034	2,378.91	70.1807	2,378.91	72.1073	2,378.91	67.6524	2,378.91	67.5721
2,462.4	87.8151	2,462.4	87.0763	2,462.4	88.3014	2,462.4	85.0763	2,462.4	88.493	2,462.4	84.6478	2,462.4	86.9288	2,462.4	84.1229	2,462.4	84.3849	2,462.4	83.4842	2,462.4	81.8294	2,462.4	82.4481	2,462.4	77.3034	2,462.4	81.5854	2,462.4	75.3047	2,462.4	81.8707	2,462.4	75.6098	2,462.4	80.389	2,462.4	72.2662	2,462.4	76.6169	2,462.4	67.721	2,462.4	75.0937	2,462.4	68.3168	2,462.4	73.6228	2,462.4	71.2465	2,462.4	74.1673	2,462.4	68.9041	2,462.4	74.7461	2,462.4	66.7346	2,462.4	74.8501	2,462.4	60.6647	2,462.4	72.4857	2,462.4	69.6377	2,462.4	70.5018	2,462.4	65.4062	2,462.4	67.1865
2,548.83	88.3683	2,548.83	86.5818	2,548.83	88.0909	2,548.83	84.4956	2,548.83	87.2971	2,548.83	83.6023	2,548.83	86.3035	2,548.83	82.6001	2,548.83	83.6566	2,548.83	82.663	2,548.83	80.4772	2,548.83	82.8537	2,548.83	76.7586	2,548.83	82.0795	2,548.83	71.6018	2,548.83	80.585	2,548.83	72.5891	2,548.83	79.3251	2,548.83	72.5602	2,548.83	77.5772	2,548.83	69.0729	2,548.83	75.1707	2,548.83	66.2594	2,548.83	73.9292	2,548.83	68.9176	2,548.83	72.4704	2,548.83	63.1544	2,548.83	73.8692	2,548.83	67.0952	2,548.83	75.0207	2,548.83	59.4358	2,548.83	73.4406	2,548.83	67.9699	2,548.83	68.2386	2,548.83	60.4413	2,548.83	66.2257
2,639.65	88.7296	2,639.65	86.8208	2,639.65	88.9037	2,639.65	84.2778	2,639.65	87.2377	2,639.65	81.5917	2,639.65	85.1563	2,639.65	81.01	2,639.65	82.6058	2,639.65	81.8793	2,639.65	78.3405	2,639.65	81.9183	2,639.65	74.6351	2,639.65	81.4346	2,639.65	71.252	2,639.65	80.6597	2,639.65	71.1268	2,639.65	79.2898	2,639.65	69.0512	2,639.65	76.737	2,639.65	66.954	2,639.65	74.372	2,639.65	60.3546	2,639.65	73.4519	2,639.65	65.4579	2,639.65	72.8513	2,639.65	60.3119	2,639.65	73.1161	2,639.65	66.5384	2,639.65	73.3856	2,639.65	64.1227	2,639.65	73.0423	2,639.65	66.1576	2,639.65	68.9134	2,639.65	54.4193	2,639.65	66.072
2,731.93	87.3869	2,731.93	85.8098	2,731.93	88.3596	2,731.93	83.2408	2,731.93	87.468	2,731.93	80.2769	2,731.93	84.4274	2,731.93	80.2489	2,731.93	80.7691	2,731.93	80.7361	2,731.93	75.6361	2,731.93	80.7138	2,731.93	69.7708	2,731.93	79.8861	2,731.93	70.0797	2,731.93	78.8543	2,731.93	69.4578	2,731.93	77.5635	2,731.93	64.6004	2,731.93	75.0437	2,731.93	67.2029	2,731.93	73.0638	2,731.93	60.6122	2,731.93	71.2609	2,731.93	61.9703	2,731.93	70.8338	2,731.93	64.2782	2,731.93	72.4141	2,731.93	64.7495	2,731.93	72.6436	2,731.93	63.2054	2,731.93	72.575	2,731.93	65.4058	2,731.93	67.6283	2,731.93	54.1527	2,731.93	66.8037
2,828.61	86.8848	2,828.61	85.1415	2,828.61	87.2777	2,828.61	81.9441	2,828.61	86.6369	2,828.61	78.0299	2,828.61	83.9423	2,828.61	78.5331	2,828.61	78.8001	2,828.61	79.2004	2,828.61	71.1377	2,828.61	80.1032	2,828.61	66.6264	2,828.61	79.8023	2,828.61	70.2898	2,828.61	78.5621	2,828.61	70.8022	2,828.61	77.7879	2,828.61	58.2598	2,828.61	74.9933	2,828.61	66.9017	2,828.61	72.9056	2,828.61	65.5327	2,828.61	69.9244	2,828.61	67.3138	2,828.61	70.1769	2,828.61	65.3987	2,828.61	70.8889	2,828.61	66.9829	2,828.61	72.9633	2,828.61	62.0744	2,828.61	71.7767	2,828.61	66.7253	2,828.61	68.3597	2,828.61	54.9756	2,828.61	66.9671
2,928.22	87.2434	2,928.22	85.4571	2,928.22	87.2968	2,928.22	81.3927	2,928.22	86.0122	2,928.22	75.7796	2,928.22	82.9321	2,928.22	74.7564	2,928.22	76.7668	2,928.22	78.227	2,928.22	63.397	2,928.22	79.4808	2,928.22	67.0351	2,928.22	79.7716	2,928.22	70.3443	2,928.22	79.7671	2,928.22	69.6061	2,928.22	78.2168	2,928.22	64.9067	2,928.22	75.4304	2,928.22	62.3111	2,928.22	72.8975	2,928.22	68.6506	2,928.22	69.6205	2,928.22	62.7056	2,928.22	71.0292	2,928.22	67.1054	2,928.22	68.9632	2,928.22	65.0235	2,928.22	72.5412	2,928.22	65.2959	2,928.22	70.9648	2,928.22	68.666	2,928.22	67.945	2,928.22	62.3972	2,928.22	68.2253
3,030.76	86.6761	3,030.76	85.0261	3,030.76	87.123	3,030.76	81.3473	3,030.76	85.749	3,030.76	73.1513	3,030.76	82.3217	3,030.76	69.1252	3,030.76	75.3629	3,030.76	77.6433	3,030.76	60.959	3,030.76	80.1817	3,030.76	71.6441	3,030.76	80.5264	3,030.76	74.0366	3,030.76	78.8949	3,030.76	73.8478	3,030.76	76.1425	3,030.76	72.1135	3,030.76	73.225	3,030.76	62.4097	3,030.76	71.5194	3,030.76	68.5718	3,030.76	69.1296	3,030.76	62.8294	3,030.76	70.5452	3,030.76	61.2973	3,030.76	68.7678	3,030.76	64.1414	3,030.76	71.4373	3,030.76	62.0963	3,030.76	70.5746	3,030.76	68.2484	3,030.76	69.3626	3,030.76	62.1031	3,030.76	66.5711
3,137.7	86.2415	3,137.7	84.6877	3,137.7	86.4691	3,137.7	80.6445	3,137.7	85.2688	3,137.7	71.7866	3,137.7	81.7697	3,137.7	74.4849	3,137.7	74.3848	3,137.7	79.3944	3,137.7	69.351	3,137.7	80.9359	3,137.7	74.6861	3,137.7	79.8275	3,137.7	77.1448	3,137.7	77.0657	3,137.7	77.3226	3,137.7	77.0818	3,137.7	75.4669	3,137.7	73.9274	3,137.7	67.9541	3,137.7	71.4404	3,137.7	68.6716	3,137.7	67.258	3,137.7	63.7817	3,137.7	70.419	3,137.7	64.4386	3,137.7	67.7892	3,137.7	62.6019	3,137.7	69.7044	3,137.7	60.8338	3,137.7	70.2002	3,137.7	68.7665	3,137.7	69.7227	3,137.7	61.885	3,137.7	64.3758
3,249.02	86.8578	3,249.02	85.0363	3,249.02	86.7012	3,249.02	81.3861	3,249.02	84.6039	3,249.02	75.0871	3,249.02	80.7198	3,249.02	78.0061	3,249.02	74.4511	3,249.02	80.7895	3,249.02	72.5307	3,249.02	81.4168	3,249.02	75.841	3,249.02	79.6667	3,249.02	78.5697	3,249.02	79.7287	3,249.02	79.0306	3,249.02	78.2634	3,249.02	77.796	3,249.02	74.3495	3,249.02	73.2747	3,249.02	69.9809	3,249.02	67.4574	3,249.02	67.1357	3,249.02	68.8841	3,249.02	67.9767	3,249.02	62.7373	3,249.02	67.7123	3,249.02	67.4375	3,249.02	70.024	3,249.02	63.4655	3,249.02	66.8403	3,249.02	66.5576	3,249.02	70.0944	3,249.02	63.7804	3,249.02	63.6222
3,363.28	86.758	3,363.28	85.8672	3,363.28	86.5629	3,363.28	82.3165	3,363.28	84.7751	3,363.28	77.2647	3,363.28	80.1019	3,363.28	79.9012	3,363.28	75.2279	3,363.28	82.2847	3,363.28	76.3373	3,363.28	80.6845	3,363.28	77.7136	3,363.28	80.81	3,363.28	78.0058	3,363.28	79.1182	3,363.28	78.0666	3,363.28	74.3847	3,363.28	77.2389	3,363.28	70.0962	3,363.28	74.6345	3,363.28	67.6515	3,363.28	72.7926	3,363.28	65.5272	3,363.28	68.0465	3,363.28	68.4754	3,363.28	62.5203	3,363.28	64.9487	3,363.28	65.6549	3,363.28	68.6344	3,363.28	63.806	3,363.28	64.9717	3,363.28	68.0407	3,363.28	66.0594	3,363.28	64.9463	3,363.28	67.2003
3,481.93	87.4436	3,481.93	86.1017	3,481.93	86.3591	3,481.93	81.7803	3,481.93	84.1043	3,481.93	79.7779	3,481.93	80.8866	3,481.93	81.982	3,481.93	78.5296	3,481.93	82.5243	3,481.93	78.0084	3,481.93	80.9648	3,481.93	79.2828	3,481.93	80.7243	3,481.93	79.0704	3,481.93	74.9796	3,481.93	77.5909	3,481.93	73.9309	3,481.93	72.856	3,481.93	71.5104	3,481.93	70.8099	3,481.93	66.2365	3,481.93	75.0619	3,481.93	63.9213	3,481.93	71.7428	3,481.93	67.8052	3,481.93	58.0936	3,481.93	64.7843	3,481.93	55.6732	3,481.93	67.5414	3,481.93	65.6688	3,481.93	60.4158	3,481.93	66.4948	3,481.93	69.891	3,481.93	67.4476	3,481.93	62.2511
3,604.98	88.2152	3,604.98	87.0201	3,604.98	87.245	3,604.98	81.5917	3,604.98	84.5277	3,604.98	80.2388	3,604.98	81.1142	3,604.98	82.4283	3,604.98	80.3717	3,604.98	82.8146	3,604.98	80.1476	3,604.98	82.458	3,604.98	79.832	3,604.98	78.5365	3,604.98	79.9232	3,604.98	78.0208	3,604.98	76.5439	3,604.98	77.4347	3,604.98	66.5959	3,604.98	72.1463	3,604.98	54.3845	3,604.98	65.4622	3,604.98	72.136	3,604.98	64.4361	3,604.98	68.0542	3,604.98	66.4297	3,604.98	63.2955	3,604.98	67.0175	3,604.98	67.7416	3,604.98	65.5582	3,604.98	63.2699	3,604.98	61.1899	3,604.98	69.2045	3,604.98	64.3238	3,604.98	65.8575	3,604.98	68.1699
3,732.42	88.9355	3,732.42	87.0261	3,732.42	87.669	3,732.42	82.9512	3,732.42	85.2768	3,732.42	82.2036	3,732.42	82.511	3,732.42	84.0355	3,732.42	80.89	3,732.42	83.2112	3,732.42	80.4847	3,732.42	80.95	3,732.42	79.634	3,732.42	78.2915	3,732.42	78.299	3,732.42	77.7586	3,732.42	76.9709	3,732.42	73.8308	3,732.42	75.482	3,732.42	69.5127	3,732.42	68.6467	3,732.42	64.1861	3,732.42	64.9031	3,732.42	58.7547	3,732.42	63.1042	3,732.42	64.7354	3,732.42	68.6362	3,732.42	63.5093	3,732.42	70.0496	3,732.42	65.3119	3,732.42	65.0607	3,732.42	50.3582	3,732.42	65.4632	3,732.42	66.6238	3,732.42	65.2515	3,732.42	67.7174
3,864.26	89.4197	3,864.26	87.5843	3,864.26	88.1686	3,864.26	83.311	3,864.26	85.7347	3,864.26	83.9176	3,864.26	83.6192	3,864.26	83.3779	3,864.26	81.562	3,864.26	82.8781	3,864.26	80.3656	3,864.26	81.0848	3,864.26	79.3399	3,864.26	79.4882	3,864.26	79.5686	3,864.26	76.0757	3,864.26	78.6079	3,864.26	72.9242	3,864.26	77.0252	3,864.26	69.2273	3,864.26	72.5123	3,864.26	65.5905	3,864.26	66.7795	3,864.26	58.0572	3,864.26	65.9965	3,864.26	61.9987	3,864.26	66.713	3,864.26	62.6015	3,864.26	67.0746	3,864.26	63.5376	3,864.26	64.5639	3,864.26	54.2246	3,864.26	63.5274	3,864.26	65.8468	3,864.26	66.3644	3,864.26	66.1331
4,000.49	90.03	4,000.49	87.9097	4,000.49	88.8725	4,000.49	84.4423	4,000.49	85.8743	4,000.49	82.4611	4,000.49	83.575	4,000.49	83.7397	4,000.49	82.0868	4,000.49	83.8444	4,000.49	80.1969	4,000.49	80.5957	4,000.49	79.15	4,000.49	80.3993	4,000.49	79.5661	4,000.49	74.5471	4,000.49	79.9507	4,000.49	70.7899	4,000.49	77.2988	4,000.49	68.264	4,000.49	75.2983	4,000.49	63.3082	4,000.49	69.4533	4,000.49	52.7861	4,000.49	68.4207	4,000.49	63.5574	4,000.49	69.394	4,000.49	61.6677	4,000.49	65.0541	4,000.49	63.314	4,000.49	65.3208	4,000.49	53.3831	4,000.49	65.3326	4,000.49	63.5923	4,000.49	67.6194	4,000.49	68.2976
4,141.11	90.0733	4,141.11	88.1067	4,141.11	89.6741	4,141.11	84.2386	4,141.11	87.3881	4,141.11	83.6443	4,141.11	84.5048	4,141.11	84.9596	4,141.11	82.3168	4,141.11	83.0547	4,141.11	81.0623	4,141.11	83.4462	4,141.11	81.0557	4,141.11	76.7378	4,141.11	78.9403	4,141.11	73.7519	4,141.11	78.77	4,141.11	74.156	4,141.11	79.2897	4,141.11	68.3445	4,141.11	78.9033	4,141.11	64.6471	4,141.11	63.8882	4,141.11	48.9062	4,141.11	63.379	4,141.11	63.1825	4,141.11	64.4498	4,141.11	54.002	4,141.11	66.2036	4,141.11	59.1802	4,141.11	60.5987	4,141.11	52.425	4,141.11	65.9189	4,141.11	58.2895	4,141.11	66.1375	4,141.11	70.0908
4,287.6	90.0471	4,287.6	87.8452	4,287.6	90.2004	4,287.6	85.0286	4,287.6	88.1694	4,287.6	84.0383	4,287.6	86.1105	4,287.6	85.1586	4,287.6	83.2593	4,287.6	84.272	4,287.6	82.5542	4,287.6	81.174	4,287.6	80.2072	4,287.6	77.4878	4,287.6	78.6576	4,287.6	79.8759	4,287.6	81.2969	4,287.6	72.5365	4,287.6	82.2484	4,287.6	67.2993	4,287.6	80.5028	4,287.6	63.7217	4,287.6	74.2254	4,287.6	56.2638	4,287.6	63.7548	4,287.6	61.4741	4,287.6	66.7651	4,287.6	63.2313	4,287.6	68.5834	4,287.6	56.8895	4,287.6	63.9139	4,287.6	37.2767	4,287.6	62.3911	4,287.6	58.465	4,287.6	66.9199	4,287.6	65.7807
4,438.48	89.9618	4,438.48	88.6562	4,438.48	90.6935	4,438.48	85.9636	4,438.48	88.9454	4,438.48	85.704	4,438.48	85.2151	4,438.48	85.6352	4,438.48	82.7277	4,438.48	84.466	4,438.48	83.2635	4,438.48	80.7102	4,438.48	80.1608	4,438.48	81.7307	4,438.48	79.4669	4,438.48	72.92	4,438.48	81.0602	4,438.48	66.9088	4,438.48	80.2051	4,438.48	64.702	4,438.48	76.2531	4,438.48	60.8488	4,438.48	74.4852	4,438.48	52.5501	4,438.48	64.1028	4,438.48	52.2198	4,438.48	72.4372	4,438.48	65.6281	4,438.48	60.6133	4,438.48	61.8024	4,438.48	69.464	4,438.48	57.1337	4,438.48	63.9016	4,438.48	61.8767	4,438.48	66.3267	4,438.48	66.2222
4,595.21	89.3844	4,595.21	88.0877	4,595.21	90.263	4,595.21	87.8226	4,595.21	89.5197	4,595.21	86.5523	4,595.21	85.6928	4,595.21	85.4719	4,595.21	83.3447	4,595.21	83.3479	4,595.21	82.1504	4,595.21	81.3329	4,595.21	81.9457	4,595.21	76.6942	4,595.21	82.4366	4,595.21	72.9218	4,595.21	80.5441	4,595.21	74.6889	4,595.21	75.9846	4,595.21	66.3063	4,595.21	75.8964	4,595.21	66.3171	4,595.21	70.4187	4,595.21	53.6847	4,595.21	62.2364	4,595.21	56.4051	4,595.21	74.3858	4,595.21	63.1936	4,595.21	67.999	4,595.21	58.537	4,595.21	66.2291	4,595.21	54.4723	4,595.21	60.1903	4,595.21	62.6811	4,595.21	63.6133	4,595.21	62.0862
4,756.35	89.0622	4,756.35	88.8275	4,756.35	89.877	4,756.35	87.9661	4,756.35	89.0172	4,756.35	86.2569	4,756.35	86.7372	4,756.35	85.7322	4,756.35	84.002	4,756.35	83.6246	4,756.35	80.9249	4,756.35	80.7053	4,756.35	82.7839	4,756.35	75.2077	4,756.35	83.4982	4,756.35	78.041	4,756.35	77.9524	4,756.35	70.4982	4,756.35	75.3255	4,756.35	66.7271	4,756.35	76.1913	4,756.35	64.0508	4,756.35	73.6916	4,756.35	59.7796	4,756.35	71.5201	4,756.35	62.4079	4,756.35	72.9721	4,756.35	62.9658	4,756.35	66.6802	4,756.35	56.2528	4,756.35	58.9363	4,756.35	53.709	4,756.35	63.3174	4,756.35	58.9639	4,756.35	64.1384	4,756.35	60.46
4,924.8	89.2925	4,924.8	88.8966	4,924.8	90.2892	4,924.8	87.9472	4,924.8	89.0417	4,924.8	87.162	4,924.8	86.1239	4,924.8	85.1349	4,924.8	84.9035	4,924.8	82.3373	4,924.8	83.2037	4,924.8	77.0266	4,924.8	82.1545	4,924.8	78.6025	4,924.8	81.6365	4,924.8	73.0298	4,924.8	76.9856	4,924.8	67.7224	4,924.8	77.502	4,924.8	68.1726	4,924.8	78.3674	4,924.8	59.6796	4,924.8	77.5733	4,924.8	59.2751	4,924.8	69.8775	4,924.8	58.8013	4,924.8	71.7306	4,924.8	57.3435	4,924.8	66.2523	4,924.8	59.4966	4,924.8	57.5097	4,924.8	55.9777	4,924.8	62.1353	4,924.8	61.6185	4,924.8	63.3424	4,924.8	65.0464
5,097.66	90.1853	5,097.66	88.8768	5,097.66	89.6049	5,097.66	89.0706	5,097.66	89.3044	5,097.66	87.3361	5,097.66	87.2314	5,097.66	84.8202	5,097.66	84.0256	5,097.66	82.0758	5,097.66	83.4449	5,097.66	79.3432	5,097.66	83.3962	5,097.66	76.5836	5,097.66	75.9131	5,097.66	70.872	5,097.66	77.3096	5,097.66	71.7823	5,097.66	76.1051	5,097.66	62.5675	5,097.66	77.5993	5,097.66	65.2411	5,097.66	76.2213	5,097.66	57.561	5,097.66	66.3396	5,097.66	54.6989	5,097.66	61.6455	5,097.66	58.8375	5,097.66	60.8218	5,097.66	62.3391	5,097.66	53.8423	5,097.66	63.3727	5,097.66	59.2082	5,097.66	55.2075	5,097.66	62.2872	5,097.66	65.7655
5,277.83	89.1312	5,277.83	89.1285	5,277.83	89.4991	5,277.83	89.149	5,277.83	88.6832	5,277.83	86.7739	5,277.83	87.321	5,277.83	84.4583	5,277.83	84.2252	5,277.83	80.7757	5,277.83	83.6334	5,277.83	77.9475	5,277.83	82.0211	5,277.83	74.0553	5,277.83	77.027	5,277.83	75.5443	5,277.83	73.5615	5,277.83	69.4679	5,277.83	73.2794	5,277.83	69.0344	5,277.83	74.1953	5,277.83	61.0068	5,277.83	75.8197	5,277.83	58.0641	5,277.83	72.8591	5,277.83	52.0851	5,277.83	64.6893	5,277.83	54.3736	5,277.83	69.2192	5,277.83	59.5364	5,277.83	63.6574	5,277.83	63.6028	5,277.83	61.7233	5,277.83	51.5437	5,277.83	61.7032	5,277.83	62.4502
5,463.87	90.0107	5,463.87	89.145	5,463.87	89.1876	5,463.87	88.5224	5,463.87	88.0069	5,463.87	87.0833	5,463.87	87.3511	5,463.87	84.3369	5,463.87	84.9415	5,463.87	81.2957	5,463.87	82.2799	5,463.87	77.6823	5,463.87	79.5128	5,463.87	76.032	5,463.87	77.3951	5,463.87	72.2538	5,463.87	74.7788	5,463.87	68.4224	5,463.87	74.4881	5,463.87	65.7056	5,463.87	74.5401	5,463.87	58.7766	5,463.87	73.8303	5,463.87	60.283	5,463.87	69.5985	5,463.87	40.8341	5,463.87	66.4089	5,463.87	60.3937	5,463.87	65.3357	5,463.87	60.5889	5,463.87	65.8553	5,463.87	59.0654	5,463.87	62.512	5,463.87	47.5402	5,463.87	57.9251	5,463.87	58.845
5,657.23	90.3931	5,657.23	88.8719	5,657.23	89.3718	5,657.23	88.5828	5,657.23	87.9582	5,657.23	87.1244	5,657.23	87.1485	5,657.23	84.4213	5,657.23	85.4685	5,657.23	81.1213	5,657.23	81.7017	5,657.23	76.8809	5,657.23	78.1741	5,657.23	74.8608	5,657.23	76.9988	5,657.23	70.8267	5,657.23	74.0322	5,657.23	68.1627	5,657.23	74.3638	5,657.23	65.2255	5,657.23	74.9392	5,657.23	63.5895	5,657.23	77.5379	5,657.23	57.712	5,657.23	73.588	5,657.23	52.596	5,657.23	67.6763	5,657.23	60.9525	5,657.23	51.8653	5,657.23	58.4687	5,657.23	61.5608	5,657.23	55.2298	5,657.23	61.473	5,657.23	47.1576	5,657.23	58.9075	5,657.23	51.5409
5,856.45	90.0896	5,856.45	88.5696	5,856.45	89.5148	5,856.45	88.5039	5,856.45	88.1016	5,856.45	87.1469	5,856.45	87.4269	5,856.45	83.8402	5,856.45	85.0177	5,856.45	80.0025	5,856.45	79.6701	5,856.45	78.5901	5,856.45	78.2686	5,856.45	74.3524	5,856.45	78.0789	5,856.45	73.3509	5,856.45	73.8091	5,856.45	68.3368	5,856.45	68.8923	5,856.45	65.9997	5,856.45	73.7567	5,856.45	53.9705	5,856.45	77.3323	5,856.45	58.7223	5,856.45	73.2733	5,856.45	57.0748	5,856.45	67.4528	5,856.45	60.1151	5,856.45	52.1511	5,856.45	55.3337	5,856.45	65.6652	5,856.45	58.938	5,856.45	58.4166	5,856.45	53.571	5,856.45	51.8591	5,856.45	41.1585
6,062.99	89.2794	6,062.99	87.9332	6,062.99	90.0648	6,062.99	87.9203	6,062.99	88.7475	6,062.99	87.175	6,062.99	86.4863	6,062.99	84.0863	6,062.99	84.3242	6,062.99	80.616	6,062.99	80.7646	6,062.99	76.5684	6,062.99	78.5899	6,062.99	75.1423	6,062.99	78.0726	6,062.99	69.2813	6,062.99	76.1714	6,062.99	66.8359	6,062.99	66.7359	6,062.99	64.7216	6,062.99	73.9908	6,062.99	61.5874	6,062.99	76.9838	6,062.99	57.6881	6,062.99	76.4468	6,062.99	55.6884	6,062.99	68.4874	6,062.99	58.4897	6,062.99	61.8623	6,062.99	56.1088	6,062.99	64.4671	6,062.99	55.5372	6,062.99	61.3527	6,062.99	56.8137	6,062.99	54.951	6,062.99	53.4936
6,276.86	89.6435	6,276.86	87.9827	6,276.86	90.2795	6,276.86	87.9888	6,276.86	88.1125	6,276.86	87.265	6,276.86	85.6175	6,276.86	83.7079	6,276.86	83.5077	6,276.86	79.354	6,276.86	80.5595	6,276.86	76.2195	6,276.86	77.7603	6,276.86	74.3581	6,276.86	78.2806	6,276.86	71.6748	6,276.86	72.6667	6,276.86	69.1802	6,276.86	68.076	6,276.86	66.5376	6,276.86	72.3329	6,276.86	59.6032	6,276.86	77.1184	6,276.86	56.0879	6,276.86	75.6206	6,276.86	56.3711	6,276.86	68.7733	6,276.86	56.3388	6,276.86	66.0324	6,276.86	51.3055	6,276.86	51.8574	6,276.86	53.4973	6,276.86	60.3173	6,276.86	60.3411	6,276.86	61.2454	6,276.86	53.848
6,498.05	88.5864	6,498.05	88.1696	6,498.05	89.3438	6,498.05	88.0418	6,498.05	88.2961	6,498.05	86.9482	6,498.05	85.3146	6,498.05	83.5283	6,498.05	83.6686	6,498.05	79.5142	6,498.05	80.83	6,498.05	76.4161	6,498.05	78.2372	6,498.05	74.1226	6,498.05	76.8077	6,498.05	69.6595	6,498.05	69.3385	6,498.05	65.2871	6,498.05	67.3303	6,498.05	58.7087	6,498.05	71.5741	6,498.05	56.8545	6,498.05	78.9171	6,498.05	53.4475	6,498.05	77.8915	6,498.05	52.6197	6,498.05	68.2627	6,498.05	47.427	6,498.05	65.1863	6,498.05	55.0677	6,498.05	45.7553	6,498.05	55.2062	6,498.05	58.7825	6,498.05	59.0388	6,498.05	58.3754	6,498.05	50.2378
6,726.56	87.7056	6,726.56	87.6817	6,726.56	89.8007	6,726.56	87.5554	6,726.56	88.9743	6,726.56	86.6054	6,726.56	85.6344	6,726.56	82.9038	6,726.56	84.2087	6,726.56	79.1569	6,726.56	81.8531	6,726.56	74.9067	6,726.56	79.6423	6,726.56	73.4506	6,726.56	74.5403	6,726.56	69.5917	6,726.56	71.5678	6,726.56	67.1168	6,726.56	57.3665	6,726.56	62.6096	6,726.56	71.6985	6,726.56	56.4378	6,726.56	79.1879	6,726.56	48.4644	6,726.56	79.8034	6,726.56	49.7039	6,726.56	70.1237	6,726.56	53.4087	6,726.56	65.7849	6,726.56	55.8738	6,726.56	59.1055	6,726.56	56.9242	6,726.56	62.4923	6,726.56	57.6263	6,726.56	54.7713	6,726.56	53.5267
6,963.87	88.5701	6,963.87	88.0118	6,963.87	89.7098	6,963.87	87.45	6,963.87	88.7697	6,963.87	86.0893	6,963.87	86.5792	6,963.87	82.8828	6,963.87	83.7362	6,963.87	78.1274	6,963.87	81.9669	6,963.87	74.4831	6,963.87	77.9736	6,963.87	71.7662	6,963.87	72.2482	6,963.87	69.2619	6,963.87	75.4607	6,963.87	63.0974	6,963.87	66.7286	6,963.87	62.5072	6,963.87	68.9381	6,963.87	57.0727	6,963.87	79.7647	6,963.87	50.3436	6,963.87	79.3729	6,963.87	52.5005	6,963.87	71.8877	6,963.87	47.7973	6,963.87	60.8053	6,963.87	42.3614	6,963.87	62.5683	6,963.87	50.2447	6,963.87	54.2723	6,963.87	58.8229	6,963.87	52.2027	6,963.87	51.8495
7,209.96	87.9714	7,209.96	87.9678	7,209.96	89.0479	7,209.96	87.033	7,209.96	88.5068	7,209.96	85.9218	7,209.96	86.1943	7,209.96	82.233	7,209.96	83.1191	7,209.96	78.6409	7,209.96	81.005	7,209.96	73.8914	7,209.96	76.5877	7,209.96	72.2541	7,209.96	74.6301	7,209.96	68.2494	7,209.96	77.3849	7,209.96	66.1921	7,209.96	69.1552	7,209.96	62.8244	7,209.96	70.9161	7,209.96	58.0335	7,209.96	79.2396	7,209.96	35.1575	7,209.96	78.7158	7,209.96	37.7511	7,209.96	70.1418	7,209.96	53.7387	7,209.96	60.7864	7,209.96	48.7872	7,209.96	60.6109	7,209.96	48.8866	7,209.96	54.7802	7,209.96	59.3437	7,209.96	48.1211	7,209.96	47.6826
7,464.84	87.9007	7,464.84	87.4429	7,464.84	88.6896	7,464.84	86.7759	7,464.84	87.7852	7,464.84	84.9479	7,464.84	85.6464	7,464.84	82.0696	7,464.84	83.3485	7,464.84	78.6442	7,464.84	80.2184	7,464.84	75.3779	7,464.84	75.1962	7,464.84	72.33	7,464.84	78.4539	7,464.84	68.2572	7,464.84	77.506	7,464.84	62.855	7,464.84	70.273	7,464.84	61.611	7,464.84	66.8586	7,464.84	57.1701	7,464.84	78.9143	7,464.84	49.5442	7,464.84	79.3817	7,464.84	48.6225	7,464.84	67.7924	7,464.84	52.1906	7,464.84	64.0298	7,464.84	48.6113	7,464.84	60.4418	7,464.84	56.8456	7,464.84	52.9275	7,464.84	52.6377	7,464.84	48.302	7,464.84	46.3513
7,727.05	89.1042	7,727.05	87.8773	7,727.05	89.0879	7,727.05	86.8803	7,727.05	87.0985	7,727.05	84.5327	7,727.05	85.2511	7,727.05	81.7678	7,727.05	83.2322	7,727.05	78.3754	7,727.05	78.9006	7,727.05	75.8735	7,727.05	77.691	7,727.05	71.5679	7,727.05	78.0121	7,727.05	68.7894	7,727.05	73.4797	7,727.05	63.1355	7,727.05	72.7012	7,727.05	62.2655	7,727.05	62.9272	7,727.05	54.0868	7,727.05	79.4215	7,727.05	50.0486	7,727.05	81.5077	7,727.05	50.3228	7,727.05	67.1017	7,727.05	47.9948	7,727.05	61.7918	7,727.05	56.536	7,727.05	56.1421	7,727.05	49.8296	7,727.05	62.38	7,727.05	56.2055	7,727.05	51.7898	7,727.05	47.5039
7,999.51	88.3198	7,999.51	87.5191	7,999.51	88.8826	7,999.51	86.6862	7,999.51	87.1875	7,999.51	83.8723	7,999.51	85.9513	7,999.51	81.3488	7,999.51	83.5991	7,999.51	78.1237	7,999.51	77.6159	7,999.51	76.9218	7,999.51	79.6541	7,999.51	73.7611	7,999.51	73.0047	7,999.51	69.6022	7,999.51	71.4236	7,999.51	64.2491	7,999.51	74.0189	7,999.51	60.3852	7,999.51	70.2481	7,999.51	57.4777	7,999.51	81.7294	7,999.51	52.0269	7,999.51	83.4236	7,999.51	55.814	7,999.51	70.6758	7,999.51	53.004	7,999.51	60.7496	7,999.51	54.0041	7,999.51	50.7789	7,999.51	52.8002	7,999.51	65.0263	7,999.51	56.727	7,999.51	52.4947	7,999.51	55.7821
8,282.23	88.7116	8,282.23	87.1836	8,282.23	87.9962	8,282.23	86.6614	8,282.23	86.6625	8,282.23	83.6024	8,282.23	86.3632	8,282.23	80.8956	8,282.23	83.751	8,282.23	79.2348	8,282.23	80.0725	8,282.23	77.8962	8,282.23	79.908	8,282.23	74.8067	8,282.23	73.9175	8,282.23	71.6269	8,282.23	76.8177	8,282.23	64.1572	8,282.23	74.8175	8,282.23	61.9475	8,282.23	72.491	8,282.23	56.2017	8,282.23	82.0749	8,282.23	45.1633	8,282.23	82.8376	8,282.23	51.3877	8,282.23	71.3854	8,282.23	44.498	8,282.23	64.8147	8,282.23	55.8819	8,282.23	58.0977	8,282.23	55.0874	8,282.23	61.4118	8,282.23	54.8465	8,282.23	50.941	8,282.23	58.1998
8,573.73	88.4327	8,573.73	87.1405	8,573.73	87.721	8,573.73	86.4038	8,573.73	85.1006	8,573.73	82.8778	8,573.73	85.5541	8,573.73	81.0521	8,573.73	83.3688	8,573.73	80.7099	8,573.73	82.9977	8,573.73	80.33	8,573.73	78.3078	8,573.73	76.3808	8,573.73	78.3724	8,573.73	72.6821	8,573.73	78.0095	8,573.73	66.509	8,573.73	75.9305	8,573.73	59.0714	8,573.73	73.3491	8,573.73	59.7903	8,573.73	81.6197	8,573.73	55.0625	8,573.73	82.9682	8,573.73	52.9349	8,573.73	69.658	8,573.73	51.1583	8,573.73	66.6399	8,573.73	55.9964	8,573.73	62.7453	8,573.73	57.435	8,573.73	49.0112	8,573.73	56.7023	8,573.73	56.9326	8,573.73	44.0634
8,876.95	87.1833	8,876.95	85.7425	8,876.95	86.5766	8,876.95	85.919	8,876.95	85.0626	8,876.95	82.844	8,876.95	84.1428	8,876.95	83.3492	8,876.95	84.4683	8,876.95	82.6356	8,876.95	84.4936	8,876.95	81.4682	8,876.95	79.4669	8,876.95	77.8778	8,876.95	81.036	8,876.95	74.5588	8,876.95	75.7834	8,876.95	68.4784	8,876.95	76.1389	8,876.95	63.2752	8,876.95	73.1677	8,876.95	59.0341	8,876.95	80.9347	8,876.95	50.2968	8,876.95	82.4752	8,876.95	55.9986	8,876.95	59.7593	8,876.95	51.7354	8,876.95	66.5391	8,876.95	59.8549	8,876.95	57.2367	8,876.95	59.7239	8,876.95	60.8916	8,876.95	49.0693	8,876.95	54.3102	8,876.95	50.9944
9,188.96	86.2564	9,188.96	86.3233	9,188.96	85.7185	9,188.96	85.3698	9,188.96	85.8573	9,188.96	84.4669	9,188.96	87.4932	9,188.96	85.7353	9,188.96	87.1906	9,188.96	84.3179	9,188.96	84.8068	9,188.96	82.3507	9,188.96	83.6344	9,188.96	78.5047	9,188.96	80.0686	9,188.96	73.6393	9,188.96	76.8298	9,188.96	67.279	9,188.96	75.3311	9,188.96	62.4896	9,188.96	75.3323	9,188.96	59.8684	9,188.96	82.5107	9,188.96	55.6992	9,188.96	83.3826	9,188.96	48.5953	9,188.96	70.4658	9,188.96	50.8329	9,188.96	62.1164	9,188.96	57.4238	9,188.96	60.0764	9,188.96	59.032	9,188.96	59.3366	9,188.96	54.8861	9,188.96	59.621	9,188.96	57.229
9,514.16	86.3452	9,514.16	85.9818	9,514.16	85.8747	9,514.16	86.4588	9,514.16	86.4991	9,514.16	87.0404	9,514.16	88.4515	9,514.16	87.4812	9,514.16	88.3441	9,514.16	85.4027	9,514.16	84.9209	9,514.16	82.8848	9,514.16	83.8819	9,514.16	79.1347	9,514.16	80.4311	9,514.16	73.1022	9,514.16	76.5021	9,514.16	68.5906	9,514.16	77.0869	9,514.16	64.5294	9,514.16	74.7904	9,514.16	58.5419	9,514.16	84.4319	9,514.16	53.8193	9,514.16	85.1461	9,514.16	54.1962	9,514.16	72.537	9,514.16	49.7843	9,514.16	65.832	9,514.16	51.0705	9,514.16	61.5152	9,514.16	60.1933	9,514.16	53.9211	9,514.16	52.3779	9,514.16	53.5429	9,514.16	55.5483
9,849.61	88.2443	9,849.61	88.5424	9,849.61	88.8409	9,849.61	88.7649	9,849.61	87.7702	9,849.61	88.5661	9,849.61	88.3416	9,849.61	88.0723	9,849.61	88.2558	9,849.61	85.2111	9,849.61	86.0161	9,849.61	82.9955	9,849.61	82.7041	9,849.61	78.609	9,849.61	80.9531	9,849.61	72.8469	9,849.61	76.3965	9,849.61	69.036	9,849.61	74.1914	9,849.61	63.5802	9,849.61	78.3589	9,849.61	52.6316	9,849.61	85.9067	9,849.61	56.7728	9,849.61	86.3891	9,849.61	60.7002	9,849.61	74.0492	9,849.61	52.0698	9,849.61	69.4631	9,849.61	53.9246	9,849.61	58.7307	9,849.61	56.2457	9,849.61	48.8594	9,849.61	53.576	9,849.61	49.4844	9,849.61	53.1708
10,196.8	90.5182	10,196.8	89.8874	10,196.8	91.0534	10,196.8	90.2065	10,196.8	90.787	10,196.8	89.1093	10,196.8	90.0087	10,196.8	87.6262	10,196.8	88.2379	10,196.8	84.4103	10,196.8	86.8171	10,196.8	81.9105	10,196.8	81.7468	10,196.8	77.0505	10,196.8	79.1059	10,196.8	71.0946	10,196.8	76.3021	10,196.8	65.4683	10,196.8	76.4479	10,196.8	62.6585	10,196.8	78.9449	10,196.8	50.2124	10,196.8	87.0846	10,196.8	52.9814	10,196.8	87.5874	10,196.8	60.4888	10,196.8	75.5599	10,196.8	52.725	10,196.8	70.3306	10,196.8	55.3343	10,196.8	58.2016	10,196.8	56.3674	10,196.8	54.0685	10,196.8	55.0312	10,196.8	54.1018	10,196.8	49.9455
10,555.7	91.6848	10,555.7	91.5092	10,555.7	92.0299	10,555.7	90.924	10,555.7	91.3535	10,555.7	89.3164	10,555.7	90.0599	10,555.7	87.1133	10,555.7	88.3627	10,555.7	83.4249	10,555.7	85.2753	10,555.7	80.7954	10,555.7	79.2104	10,555.7	75.1429	10,555.7	79.0017	10,555.7	70.7158	10,555.7	71.1357	10,555.7	63.7098	10,555.7	75.5419	10,555.7	59.6485	10,555.7	80.6263	10,555.7	49.5022	10,555.7	87.4292	10,555.7	49.8378	10,555.7	87.9794	10,555.7	58.3291	10,555.7	76.9216	10,555.7	52.3227	10,555.7	69.8437	10,555.7	47.9047	10,555.7	56.8372	10,555.7	50.8975	10,555.7	51.3276	10,555.7	50.5624	10,555.7	43.7376	10,555.7	31.0934
10,927.7	92.3021	10,927.7	91.97	10,927.7	92.2677	10,927.7	91.4144	10,927.7	91.2786	10,927.7	89.6803	10,927.7	90.1171	10,927.7	86.9976	10,927.7	88.3004	10,927.7	83.0924	10,927.7	85.0259	10,927.7	80.0082	10,927.7	80.7608	10,927.7	74.2804	10,927.7	77.0237	10,927.7	69.1508	10,927.7	68.4468	10,927.7	62.8897	10,927.7	74.4487	10,927.7	60.0685	10,927.7	80.9695	10,927.7	50.5738	10,927.7	87.7686	10,927.7	52.8622	10,927.7	88.0842	10,927.7	58.2362	10,927.7	76.7581	10,927.7	53.2402	10,927.7	70.2231	10,927.7	39.5738	10,927.7	62.4846	10,927.7	39.2117	10,927.7	55.5756	10,927.7	49.747	10,927.7	55.4328	10,927.7	41.8664
11,313	92.1182	11,313	91.672	11,313	92.0298	11,313	90.8718	11,313	91.2212	11,313	89.0442	11,313	89.8875	11,313	86.4813	11,313	86.9845	11,313	81.9899	11,313	83.4556	11,313	79.11	11,313	80.7128	11,313	74.3614	11,313	73.1342	11,313	67.3771	11,313	70.2526	11,313	62.0799	11,313	74.822	11,313	58.6055	11,313	80.3281	11,313	43.9485	11,313	87.402	11,313	48.2505	11,313	87.6556	11,313	55.6112	11,313	76.7918	11,313	50.1238	11,313	70.8201	11,313	45.8418	11,313	58.2177	11,313	47.1827	11,313	55.8562	11,313	52.5737	11,313	57.849	11,313	43.8311
11,712.9	91.8544	11,712.9	91.3763	11,712.9	91.6451	11,712.9	90.0481	11,712.9	90.3223	11,712.9	87.7567	11,712.9	88.6662	11,712.9	84.3385	11,712.9	85.1939	11,712.9	79.6462	11,712.9	82.6291	11,712.9	75.8659	11,712.9	78.437	11,712.9	71.3396	11,712.9	76.0273	11,712.9	63.9312	11,712.9	66.2233	11,712.9	55.7987	11,712.9	71.7814	11,712.9	52.4655	11,712.9	79.1231	11,712.9	42.7157	11,712.9	86.209	11,712.9	45.3726	11,712.9	86.5128	11,712.9	51.4445	11,712.9	76.0796	11,712.9	52.6275	11,712.9	68.9654	11,712.9	46.5952	11,712.9	56.5706	11,712.9	49.2304	11,712.9	52.003	11,712.9	54.2196	11,712.9	40.3555	11,712.9	39.5598
12,126	91.4489	12,126	90.8451	12,126	91.2818	12,126	89.1824	12,126	90.4516	12,126	86.6309	12,126	88.6478	12,126	83.5371	12,126	85.2327	12,126	78.9143	12,126	82.7261	12,126	75.12	12,126	76.5365	12,126	70.445	12,126	74.6601	12,126	64.4938	12,126	64.2547	12,126	58.0073	12,126	69.5394	12,126	54.8156	12,126	77.6967	12,126	42.465	12,126	84.7123	12,126	47.021	12,126	84.9326	12,126	50.0017	12,126	74.3157	12,126	53.2454	12,126	66.297	12,126	49.9943	12,126	56.4825	12,126	50.4553	12,126	45.5562	12,126	43.926	12,126	52.4835	12,126	42.0055
12,553.7	90.7233	12,553.7	89.7903	12,553.7	90.574	12,553.7	87.3305	12,553.7	89.3379	12,553.7	84.5637	12,553.7	87.3481	12,553.7	81.1903	12,553.7	83.2651	12,553.7	76.5929	12,553.7	78.683	12,553.7	72.5503	12,553.7	75.6968	12,553.7	69.0745	12,553.7	70.3135	12,553.7	62.104	12,553.7	63.4376	12,553.7	56.3041	12,553.7	67.8702	12,553.7	50.1299	12,553.7	74.934	12,553.7	39.5263	12,553.7	82.4152	12,553.7	45.7318	12,553.7	82.3666	12,553.7	47.0673	12,553.7	71.6326	12,553.7	51.9363	12,553.7	62.7653	12,553.7	41.8545	12,553.7	54.8895	12,553.7	45.4884	12,553.7	48.8455	12,553.7	29.2914	12,553.7	46.0062	12,553.7	37.9879
12,996.1	90.7217	12,996.1	89.4146	12,996.1	90.7245	12,996.1	86.2681	12,996.1	89.0338	12,996.1	82.7196	12,996.1	86.3757	12,996.1	78.3565	12,996.1	80.8873	12,996.1	73.5809	12,996.1	76.354	12,996.1	69.8808	12,996.1	71.5182	12,996.1	66.6381	12,996.1	70.4761	12,996.1	58.9169	12,996.1	53.4963	12,996.1	55.3322	12,996.1	65.8976	12,996.1	46.1455	12,996.1	71.703	12,996.1	38.6319	12,996.1	79.6834	12,996.1	48.3441	12,996.1	79.9988	12,996.1	43.7673	12,996.1	69.7246	12,996.1	51.7892	12,996.1	60.4171	12,996.1	47.0402	12,996.1	51.3352	12,996.1	38.9253	12,996.1	34.0376	12,996.1	46.6061	12,996.1	44.9075	12,996.1	36.2177
13,454.6	90.7638	13,454.6	89.267	13,454.6	90.6658	13,454.6	85.992	13,454.6	88.7084	13,454.6	81.7706	13,454.6	85.7913	13,454.6	76.4796	13,454.6	79.5651	13,454.6	71.0215	13,454.6	74.0149	13,454.6	66.5968	13,454.6	64.3781	13,454.6	65.0034	13,454.6	65.1073	13,454.6	58.3597	13,454.6	49.454	13,454.6	54.8463	13,454.6	61.744	13,454.6	47.0895	13,454.6	70.0459	13,454.6	33.8194	13,454.6	77.9671	13,454.6	44.9068	13,454.6	78.1819	13,454.6	39.1641	13,454.6	67.3667	13,454.6	51.0475	13,454.6	58.2245	13,454.6	47.4607	13,454.6	45.7702	13,454.6	44.8528	13,454.6	42.6182	13,454.6	41.8155	13,454.6	44.9728	13,454.6	42.7209
13,929.2	90.4087	13,929.2	89.1646	13,929.2	90.0686	13,929.2	86.4973	13,929.2	88.2108	13,929.2	82.9393	13,929.2	85.5397	13,929.2	77.7506	13,929.2	80.0232	13,929.2	70.928	13,929.2	74.1241	13,929.2	63.6685	13,929.2	66.5991	13,929.2	61.5319	13,929.2	62.6754	13,929.2	55.3029	13,929.2	55.6544	13,929.2	51.7677	13,929.2	56.5471	13,929.2	43.5161	13,929.2	66.613	13,929.2	37.05	13,929.2	75.6371	13,929.2	43.0371	13,929.2	75.7182	13,929.2	38.2722	13,929.2	65.0781	13,929.2	49.8801	13,929.2	53.4347	13,929.2	44.9099	13,929.2	41.782	13,929.2	42.9167	13,929.2	42.4175	13,929.2	36.8009	13,929.2	38.9227	13,929.2	26.9105
14,419.9	89.4779	14,419.9	88.7802	14,419.9	88.6874	14,419.9	86.4778	14,419.9	86.5096	14,419.9	83.199	14,419.9	83.8094	14,419.9	78.4944	14,419.9	78.0883	14,419.9	72.3852	14,419.9	73.3656	14,419.9	66.5983	14,419.9	64.7102	14,419.9	62.9996	14,419.9	60.208	14,419.9	55.2565	14,419.9	58.1291	14,419.9	52.0498	14,419.9	54.1607	14,419.9	43.944	14,419.9	64.7204	14,419.9	39.0526	14,419.9	73.0757	14,419.9	45.8334	14,419.9	73.3767	14,419.9	37.452	14,419.9	63.1954	14,419.9	49.5754	14,419.9	52.4709	14,419.9	46.5684	14,419.9	37.2082	14,419.9	42.6571	14,419.9	43.0866	14,419.9	36.5222	14,419.9	40.9105	14,419.9	36.19
14,928.2	88.7409	14,928.2	88.0542	14,928.2	87.5805	14,928.2	85.6447	14,928.2	85.1471	14,928.2	81.6601	14,928.2	82.4931	14,928.2	76.7925	14,928.2	77.0067	14,928.2	71.9437	14,928.2	72.4904	14,928.2	67.2986	14,928.2	64.7625	14,928.2	64.2901	14,928.2	59.7314	14,928.2	57.1408	14,928.2	58.0874	14,928.2	53.589	14,928.2	47.6916	14,928.2	46.854	14,928.2	62.6603	14,928.2	41.4666	14,928.2	71.3557	14,928.2	44.311	14,928.2	72.3484	14,928.2	37.1594	14,928.2	63.7244	14,928.2	44.3482	14,928.2	53.6931	14,928.2	41.8352	14,928.2	38.1022	14,928.2	38.8574	14,928.2	38.3666	14,928.2	37.481	14,928.2	43.6658	14,928.2	32.9895
15,455.6	88.2776	15,455.6	87.1927	15,455.6	87.4357	15,455.6	84.2111	15,455.6	84.8073	15,455.6	79.1334	15,455.6	81.7391	15,455.6	73.4073	15,455.6	75.3814	15,455.6	70.2452	15,455.6	70.5266	15,455.6	66.4939	15,455.6	66.8919	15,455.6	63.4594	15,455.6	61.0919	15,455.6	58.1668	15,455.6	58.9488	15,455.6	53.2363	15,455.6	48.5639	15,455.6	47.5785	15,455.6	61.5978	15,455.6	41.8222	15,455.6	70.3071	15,455.6	46.8801	15,455.6	71.4598	15,455.6	43.9729	15,455.6	63.2144	15,455.6	7.44919	15,455.6	49.3925	15,455.6	40.7113	15,455.6	37.0504	15,455.6	45.8387	15,455.6	39.304	15,455.6	47.6685	15,455.6	43.8313	15,455.6	42.9487
16,000.5	87.8034	16,000.5	86.5424	16,000.5	87.219	16,000.5	83.0394	16,000.5	84.4852	16,000.5	77.0295	16,000.5	80.5673	16,000.5	69.2271	16,000.5	73.0164	16,000.5	66.9134	16,000.5	65.8344	16,000.5	62.4616	16,000.5	61.5181	16,000.5	61.8353	16,000.5	60.1515	16,000.5	56.2309	16,000.5	55.6034	16,000.5	51.0995	16,000.5	29.1744	16,000.5	46.1318	16,000.5	59.4783	16,000.5	42.026	16,000.5	68.9071	16,000.5	43.9266	16,000.5	69.7751	16,000.5	46.3734	16,000.5	61.6572	16,000.5	34.0066	16,000.5	47.4207	16,000.5	39.5017	16,000.5	34.5691	16,000.5	41.9053	16,000.5	44.1098	16,000.5	46.0017	16,000.5	47.4117	16,000.5	27.6772
16,564.5	87.7915	16,564.5	86.1835	16,564.5	86.8151	16,564.5	82.6948	16,564.5	83.1447	16,564.5	76.5956	16,564.5	78.5576	16,564.5	69.9845	16,564.5	71.7269	16,564.5	65.5487	16,564.5	66.6851	16,564.5	53.5749	16,564.5	58.8519	16,564.5	56.4654	16,564.5	51.4307	16,564.5	47.5425	16,564.5	53.9401	16,564.5	44.2293	16,564.5	48.0227	16,564.5	45.9579	16,564.5	57.147	16,564.5	47.0295	16,564.5	67.2264	16,564.5	40.3366	16,564.5	67.7229	16,564.5	49.2737	16,564.5	61.4886	16,564.5	37.3719	16,564.5	50.5341	16,564.5	45.9897	16,564.5	43.7017	16,564.5	49.5265	16,564.5	47.7894	16,564.5	51.1035	16,564.5	49.784	16,564.5	41.2309
17,148.9	88.0007	17,148.9	85.9294	17,148.9	86.7787	17,148.9	82.0687	17,148.9	81.7546	17,148.9	76.0103	17,148.9	76.1622	17,148.9	71.5688	17,148.9	70.7828	17,148.9	68.9571	17,148.9	69.6184	17,148.9	56.9828	17,148.9	66.2615	17,148.9	56.4729	17,148.9	56.1636	17,148.9	47.9658	17,148.9	55.1449	17,148.9	39.7483	17,148.9	53.6074	17,148.9	52.0727	17,148.9	54.0305	17,148.9	52.5646	17,148.9	66.755	17,148.9	49.0441	17,148.9	65.5666	17,148.9	54.4753	17,148.9	60.9742	17,148.9	49.545	17,148.9	56.0693	17,148.9	52.3142	17,148.9	45.0461	17,148.9	54.7237	17,148.9	53.7549	17,148.9	56.7907	17,148.9	55.3695	17,148.9	49.8078
17,752.4	86.9067	17,752.4	84.4931	17,752.4	85.4334	17,752.4	79.7753	17,752.4	79.2239	17,752.4	74.7556	17,752.4	72.3163	17,752.4	72.1435	17,752.4	68.0193	17,752.4	71.7669	17,752.4	71.2044	17,752.4	61.2124	17,752.4	69.7002	17,752.4	59.997	17,752.4	62.7583	17,752.4	56.1403	17,752.4	56.7089	17,752.4	27.6901	17,752.4	56.6687	17,752.4	55.2762	17,752.4	55.3886	17,752.4	55.4019	17,752.4	66.1851	17,752.4	53.7395	17,752.4	63.9785	17,752.4	57.8561	17,752.4	61.0078	17,752.4	53.7472	17,752.4	55.1968	17,752.4	55.2683	17,752.4	47.2979	17,752.4	56.9684	17,752.4	56.831	17,752.4	59.5415	17,752.4	57.8898	17,752.4	54.0877
18,379.4	84.2275	18,379.4	81.6458	18,379.4	82.2248	18,379.4	75.0534	18,379.4	75.9463	18,379.4	71.7055	18,379.4	64.3251	18,379.4	71.2917	18,379.4	63.7153	18,379.4	72.1167	18,379.4	70.3695	18,379.4	62.2871	18,379.4	69.5904	18,379.4	61.7232	18,379.4	64.2002	18,379.4	56.2291	18,379.4	59.2141	18,379.4	40.7917	18,379.4	56.9858	18,379.4	55.341	18,379.4	56.3671	18,379.4	55.3618	18,379.4	64.6608	18,379.4	53.108	18,379.4	59.9827	18,379.4	58.2183	18,379.4	57.221	18,379.4	54.5568	18,379.4	57.1166	18,379.4	56.0222	18,379.4	46.1217	18,379.4	57.6567	18,379.4	56.7321	18,379.4	59.6779	18,379.4	58.476	18,379.4	53.5873
19,026.9	81.7559	19,026.9	79.3493	19,026.9	79.5366	19,026.9	72.7152	19,026.9	75.53	19,026.9	67.265	19,026.9	63.6771	19,026.9	70.1092	19,026.9	59.0912	19,026.9	70.3326	19,026.9	67.4886	19,026.9	62.4309	19,026.9	67.4683	19,026.9	61.1827	19,026.9	63.461	19,026.9	52.2857	19,026.9	58.1067	19,026.9	44.2791	19,026.9	54.2727	19,026.9	53.6306	19,026.9	52.5772	19,026.9	54.6746	19,026.9	63.2187	19,026.9	50.8906	19,026.9	56.7598	19,026.9	57.1114	19,026.9	56.7015	19,026.9	54.0109	19,026.9	57.2645	19,026.9	55.9416	19,026.9	43.173	19,026.9	57.2822	19,026.9	56.673	19,026.9	59.7217	19,026.9	58.531	19,026.9	53.4989
19,697.8	78.4866	19,697.8	76.4128	19,697.8	76.3197	19,697.8	70.9372	19,697.8	74.2088	19,697.8	61.1691	19,697.8	64.7355	19,697.8	68.06	19,697.8	57.5953	19,697.8	66.2158	19,697.8	64.7626	19,697.8	60.3027	19,697.8	64.9896	19,697.8	58.3462	19,697.8	61.6775	19,697.8	50.7824	19,697.8	57.5771	19,697.8	44.3652	19,697.8	53.5941	19,697.8	50.7854	19,697.8	55.064	19,697.8	51.9719	19,697.8	60.0279	19,697.8	47.7047	19,697.8	49.1042	19,697.8	54.6797	19,697.8	54.5428	19,697.8	52.4301	19,697.8	55.6963	19,697.8	54.1981	19,697.8	43.2493	19,697.8	55.3811	19,697.8	54.225	19,697.8	57.6266	19,697.8	56.4046	19,697.8	51.5599
19,999.5	76.261	19,999.5	74.8453	19,999.5	73.6688	19,999.5	69.9974	19,999.5	72.7501	19,999.5	58.7492	19,999.5	64.3584	19,999.5	67.1214	19,999.5	57.5811	19,999.5	63.709	19,999.5	64.2801	19,999.5	58.5994	19,999.5	63.9521	19,999.5	55.8399	19,999.5	62.4467	19,999.5	51.0805	19,999.5	57.5	19,999.5	44.0281	19,999.5	53.4531	19,999.5	48.503	19,999.5	55.1074	19,999.5	47.7517	19,999.5	57.0889	19,999.5	47.3453	19,999.5	45.6154	19,999.5	52.3452	19,999.5	50.66	19,999.5	47.639	19,999.5	54.1412	19,999.5	52.9777	19,999.5	37.9061	19,999.5	51.3002	19,999.5	50.4837	19,999.5	54.016	19,999.5	54.6972	19,999.5	48.6607
