"SPL Horizontal"																																																																							
"On-Axis"		"10°"		"-10°"		"20°"		"-20°"		"30°"		"-30°"		"40°"		"-40°"		"50°"		"-50°"		"60°"		"-60°"		"70°"		"-70°"		"80°"		"-80°"		"90°"		"-90°"		"100°"		"-100°"		"110°"		"-110°"		"120°"		"-120°"		"130°"		"-130°"		"140°"		"-140°"		"150°"		"-150°"		"160°"		"-160°"		"170°"		"-170°"		"180°"	
"Frequency / Hz"	"Sound Pressure Level / dB (re 20 µPa/V)  [2.83  V @ 1. m]"	"Frequency / Hz"	"Sound Pressure Level / dB (re 20 µPa/V)  [2.83  V @ 1. m]"	"Frequency / Hz"	"Sound Pressure Level / dB (re 20 µPa/V)  [2.83  V @ 1. m]"	"Frequency / Hz"	"Sound Pressure Level / dB (re 20 µPa/V)  [2.83  V @ 1. m]"	"Frequency / Hz"	"Sound Pressure Level / dB (re 20 µPa/V)  [2.83  V @ 1. m]"	"Frequency / Hz"	"Sound Pressure Level / dB (re 20 µPa/V)  [2.83  V @ 1. m]"	"Frequency / Hz"	"Sound Pressure Level / dB (re 20 µPa/V)  [2.83  V @ 1. m]"	"Frequency / Hz"	"Sound Pressure Level / dB (re 20 µPa/V)  [2.83  V @ 1. m]"	"Frequency / Hz"	"Sound Pressure Level / dB (re 20 µPa/V)  [2.83  V @ 1. m]"	"Frequency / Hz"	"Sound Pressure Level / dB (re 20 µPa/V)  [2.83  V @ 1. m]"	"Frequency / Hz"	"Sound Pressure Level / dB (re 20 µPa/V)  [2.83  V @ 1. m]"	"Frequency / Hz"	"Sound Pressure Level / dB (re 20 µPa/V)  [2.83  V @ 1. m]"	"Frequency / Hz"	"Sound Pressure Level / dB (re 20 µPa/V)  [2.83  V @ 1. m]"	"Frequency / Hz"	"Sound Pressure Level / dB (re 20 µPa/V)  [2.83  V @ 1. m]"	"Frequency / Hz"	"Sound Pressure Level / dB (re 20 µPa/V)  [2.83  V @ 1. m]"	"Frequency / Hz"	"Sound Pressure Level / dB (re 20 µPa/V)  [2.83  V @ 1. m]"	"Frequency / Hz"	"Sound Pressure Level / dB (re 20 µPa/V)  [2.83  V @ 1. m]"	"Frequency / Hz"	"Sound Pressure Level / dB (re 20 µPa/V)  [2.83  V @ 1. m]"	"Frequency / Hz"	"Sound Pressure Level / dB (re 20 µPa/V)  [2.83  V @ 1. m]"	"Frequency / Hz"	"Sound Pressure Level / dB (re 20 µPa/V)  [2.83  V @ 1. m]"	"Frequency / Hz"	"Sound Pressure Level / dB (re 20 µPa/V)  [2.83  V @ 1. m]"	"Frequency / Hz"	"Sound Pressure Level / dB (re 20 µPa/V)  [2.83  V @ 1. m]"	"Frequency / Hz"	"Sound Pressure Level / dB (re 20 µPa/V)  [2.83  V @ 1. m]"	"Frequency / Hz"	"Sound Pressure Level / dB (re 20 µPa/V)  [2.83  V @ 1. m]"	"Frequency / Hz"	"Sound Pressure Level / dB (re 20 µPa/V)  [2.83  V @ 1. m]"	"Frequency / Hz"	"Sound Pressure Level / dB (re 20 µPa/V)  [2.83  V @ 1. m]"	"Frequency / Hz"	"Sound Pressure Level / dB (re 20 µPa/V)  [2.83  V @ 1. m]"	"Frequency / Hz"	"Sound Pressure Level / dB (re 20 µPa/V)  [2.83  V @ 1. m]"	"Frequency / Hz"	"Sound Pressure Level / dB (re 20 µPa/V)  [2.83  V @ 1. m]"	"Frequency / Hz"	"Sound Pressure Level / dB (re 20 µPa/V)  [2.83  V @ 1. m]"	"Frequency / Hz"	"Sound Pressure Level / dB (re 20 µPa/V)  [2.83  V @ 1. m]"	"Frequency / Hz"	"Sound Pressure Level / dB (re 20 µPa/V)  [2.83  V @ 1. m]"	"Frequency / Hz"	"Sound Pressure Level / dB (re 20 µPa/V)  [2.83  V @ 1. m]"	"Frequency / Hz"	"Sound Pressure Level / dB (re 20 µPa/V)  [2.83  V @ 1. m]"	"Frequency / Hz"	"Sound Pressure Level / dB (re 20 µPa/V)  [2.83  V @ 1. m]"	"Frequency / Hz"	"Sound Pressure Level / dB (re 20 µPa/V)  [2.83  V @ 1. m]"
20.5078	61.386	20.5078	61.5009	20.5078	61.1228	20.5078	61.4669	20.5078	60.7054	20.5078	61.2762	20.5078	60.1222	20.5078	60.9135	20.5078	59.3609	20.5078	60.3569	20.5078	58.4209	20.5078	59.5797	20.5078	57.3515	20.5078	58.561	20.5078	56.3395	20.5078	57.3221	20.5078	55.8109	20.5078	56.034	20.5078	56.2286	20.5078	55.2139	20.5078	57.5172	20.5078	55.5611	20.5078	59.1526	20.5078	57.0169	20.5078	60.728	20.5078	58.8468	20.5078	62.0683	20.5078	60.554	20.5078	63.1179	20.5078	61.9703	20.5078	63.8648	20.5078	63.0626	20.5078	64.3092	20.5078	63.8346	20.5078	64.4528	20.5078	64.2957
21.9727	62.3006	21.9727	62.3849	21.9727	62.0911	21.9727	62.3395	21.9727	61.7621	21.9727	62.1599	21.9727	61.3259	21.9727	61.8427	21.9727	60.813	21.9727	61.3918	21.9727	60.293	21.9727	60.8319	21.9727	59.9	21.9727	60.2355	21.9727	59.8299	21.9727	59.7601	21.9727	60.2479	21.9727	59.6503	21.9727	61.1466	21.9727	60.1087	21.9727	62.3437	21.9727	61.1019	21.9727	63.6221	21.9727	62.388	21.9727	64.8269	21.9727	63.7193	21.9727	65.871	21.9727	64.9416	21.9727	66.7105	21.9727	65.9791	21.9727	67.3242	21.9727	66.7983	21.9727	67.7016	21.9727	67.3849	21.9727	67.8382	21.9727	67.7324
23.4375	64.3778	23.4375	64.4406	23.4375	64.2339	23.4375	64.4156	23.4375	64.0216	23.4375	64.3005	23.4375	63.7628	23.4375	64.0991	23.4375	63.4965	23.4375	63.826	23.4375	63.2861	23.4375	63.5165	23.4375	63.2204	23.4375	63.2388	23.4375	63.3944	23.4375	63.0998	23.4375	63.8649	23.4375	63.2242	23.4375	64.6103	23.4375	63.6912	23.4375	65.5383	23.4375	64.4747	23.4375	66.5324	23.4375	65.4569	23.4375	67.4914	23.4375	66.4985	23.4375	68.3434	23.4375	67.4888	23.4375	69.0418	23.4375	68.3564	23.4375	69.558	23.4375	69.0589	23.4375	69.8753	23.4375	69.5723	23.4375	69.9847	23.4375	69.8832
24.9023	66.3788	24.9023	66.4149	24.9023	66.2978	24.9023	66.3991	24.9023	66.1857	24.9023	66.3309	24.9023	66.0655	24.9023	66.2178	24.9023	65.9714	24.9023	66.0786	24.9023	65.95	24.9023	65.948	24.9023	66.0555	24.9023	65.8797	24.9023	66.335	24.9023	65.9419	24.9023	66.8092	24.9023	66.1983	24.9023	67.4583	24.9023	66.6782	24.9023	68.2272	24.9023	67.3566	24.9023	69.044	24.9023	68.1643	24.9023	69.8391	24.9023	69.016	24.9023	70.5555	24.9023	69.8355	24.9023	71.1509	24.9023	70.565	24.9023	71.5958	24.9023	71.1645	24.9023	71.8713	24.9023	71.6076	24.9023	71.9667	24.9023	71.8779
26.3672	68.4455	26.3672	68.4596	26.3672	68.4138	26.3672	68.4507	26.3672	68.3758	26.3672	68.4188	26.3672	68.3485	26.3672	68.3706	26.3672	68.3556	26.3672	68.321	26.3672	68.4258	26.3672	68.2949	26.3672	68.59	26.3672	68.327	26.3672	68.8733	26.3672	68.4578	26.3672	69.286	26.3672	68.7224	26.3672	69.8176	26.3672	69.1369	26.3672	70.4361	26.3672	69.6886	26.3672	71.0958	26.3672	70.3374	26.3672	71.7467	26.3672	71.0285	26.3672	72.3424	26.3672	71.7056	26.3672	72.8442	26.3672	72.32	26.3672	73.2229	26.3672	72.8335	26.3672	73.4579	26.3672	73.2185	26.3672	73.5373	26.3672	73.4565
27.832	70.5101	27.832	70.5107	27.832	70.5081	27.832	70.5057	27.832	70.5126	27.832	70.4955	27.832	70.5357	27.832	70.4852	27.832	70.5929	27.832	70.4856	27.832	70.7024	27.832	70.514	27.832	70.8826	27.832	70.5928	27.832	71.1484	27.832	70.7474	27.832	71.5058	27.832	70.9991	27.832	71.9484	27.832	71.3577	27.832	72.4563	27.832	71.8159	27.832	72.9983	27.832	72.3486	27.832	73.5375	27.832	72.9183	27.832	74.0363	27.832	73.4827	27.832	74.461	27.832	74.0015	27.832	74.7841	27.832	74.4405	27.832	74.9853	27.832	74.7731	27.832	75.0524	27.832	74.9806
29.2969	72.1789	29.2969	72.1737	29.2969	72.1914	29.2969	72.1728	29.2969	72.2169	29.2969	72.1765	29.2969	72.2638	29.2969	72.1884	29.2969	72.3425	29.2969	72.2161	29.2969	72.4652	29.2969	72.2714	29.2969	72.6436	29.2969	72.3692	29.2969	72.8872	29.2969	72.526	29.2969	73.1998	29.2969	72.756	29.2969	73.577	29.2969	73.0658	29.2969	74.0051	29.2969	73.4516	29.2969	74.4614	29.2969	73.8965	29.2969	74.9173	29.2969	74.374	29.2969	75.3419	29.2969	74.8513	29.2969	75.7058	29.2969	75.295	29.2969	75.9839	29.2969	75.6746	29.2969	76.1571	29.2969	75.9651	29.2969	76.2134	29.2969	76.1483
30.7617	73.7102	30.7617	73.704	30.7617	73.729	30.7617	73.7086	30.7617	73.7645	30.7617	73.7238	30.7617	73.8221	30.7617	73.752	30.7617	73.9088	30.7617	73.7981	30.7617	74.0323	30.7617	73.8696	30.7617	74.1999	30.7617	73.976	30.7617	74.4177	30.7617	74.1278	30.7617	74.6879	30.7617	74.334	30.7617	75.0075	30.7617	74.5994	30.7617	75.3667	30.7617	74.9216	30.7617	75.749	30.7617	75.2898	30.7617	76.1324	30.7617	75.685	30.7617	76.4918	30.7617	76.0826	30.7617	76.802	30.7617	76.4554	30.7617	77.0407	30.7617	76.7773	30.7617	77.19	30.7617	77.0255	30.7617	77.2388	30.7617	77.1829
32.2266	74.9644	32.2266	74.9555	32.2266	74.9882	32.2266	74.9599	32.2266	75.0297	32.2266	74.9776	32.2266	75.0926	32.2266	75.0098	32.2266	75.1815	32.2266	75.0599	32.2266	75.3014	32.2266	75.1325	32.2266	75.4573	32.2266	75.2343	32.2266	75.6528	32.2266	75.3722	32.2266	75.8893	32.2266	75.5529	32.2266	76.1644	32.2266	75.78	32.2266	76.4705	32.2266	76.0525	32.2266	76.795	32.2266	76.3632	32.2266	77.1203	32.2266	76.698	32.2266	77.4257	32.2266	77.0375	32.2266	77.6895	32.2266	77.3592	32.2266	77.892	32.2266	77.64	32.2266	78.0172	32.2266	77.8593	32.2266	78.0547	32.2266	78.0009
33.6914	76.0444	33.6914	76.0339	33.6914	76.0712	33.6914	76.0385	33.6914	76.1161	33.6914	76.0579	33.6914	76.1816	33.6914	76.0928	33.6914	76.2706	33.6914	76.1452	33.6914	76.3864	33.6914	76.2181	33.6914	76.5318	33.6914	76.3156	33.6914	76.7089	33.6914	76.4424	33.6914	76.9182	33.6914	76.6031	33.6914	77.1573	33.6914	76.8003	33.6914	77.4205	33.6914	77.0336	33.6914	77.6976	33.6914	77.2978	33.6914	77.9746	33.6914	77.5826	33.6914	78.2344	33.6914	77.8727	33.6914	78.4586	33.6914	78.1497	33.6914	78.6302	33.6914	78.3936	33.6914	78.7348	33.6914	78.5863	33.6914	78.7634	33.6914	78.7127
35.1562	76.9629	35.1562	76.9506	35.1562	76.9919	35.1562	76.9542	35.1562	77.0389	35.1562	76.9734	35.1562	77.1052	35.1562	77.0087	35.1562	77.1928	35.1562	77.0609	35.1562	77.3033	35.1562	77.1319	35.1562	77.4383	35.1562	77.2242	35.1562	77.5988	35.1562	77.341	35.1562	77.7847	35.1562	77.485	35.1562	77.9936	35.1562	77.6581	35.1562	78.2209	35.1562	77.86	35.1562	78.4585	35.1562	78.0869	35.1562	78.6948	35.1562	78.3309	35.1562	78.916	35.1562	78.5801	35.1562	79.1066	35.1562	78.8191	35.1562	79.2516	35.1562	79.0312	35.1562	79.3388	35.1562	79.2002	35.1562	79.3601	35.1562	79.3128
36.6211	78.4146	36.6211	78.399	36.6211	78.4484	36.6211	78.4014	36.6211	78.5012	36.6211	78.4212	36.6211	78.5735	36.6211	78.4586	36.6211	78.666	36.6211	78.5138	36.6211	78.7794	36.6211	78.5874	36.6211	78.9139	36.6211	78.6805	36.6211	79.0696	36.6211	78.7945	36.6211	79.2454	36.6211	78.9309	36.6211	79.4392	36.6211	79.0906	36.6211	79.6466	36.6211	79.2732	36.6211	79.8606	36.6211	79.476	36.6211	80.0716	36.6211	79.6933	36.6211	80.2672	36.6211	79.9158	36.6211	80.434	36.6211	80.1311	36.6211	80.5587	36.6211	80.3249	36.6211	80.6302	36.6211	80.4824	36.6211	80.6416	36.6211	80.591
38.0859	79.0692	38.0859	79.0529	38.0859	79.1025	38.0859	79.0534	38.0859	79.1531	38.0859	79.0705	38.0859	79.2211	38.0859	79.1038	38.0859	79.3066	38.0859	79.1534	38.0859	79.4097	38.0859	79.2193	38.0859	79.5302	38.0859	79.302	38.0859	79.6677	38.0859	79.4021	38.0859	79.8209	38.0859	79.5205	38.0859	79.9879	38.0859	79.6578	38.0859	80.165	38.0859	79.8137	38.0859	80.3466	38.0859	79.9862	38.0859	80.5248	38.0859	80.1712	38.0859	80.6895	38.0859	80.3612	38.0859	80.8292	38.0859	80.5463	38.0859	80.9327	38.0859	80.7142	38.0859	80.9904	38.0859	80.8522	38.0859	80.9963	38.0859	80.949
39.5508	79.5496	39.5508	79.5346	39.5508	79.5812	39.5508	79.536	39.5508	79.6293	39.5508	79.5536	39.5508	79.6939	39.5508	79.587	39.5508	79.7748	39.5508	79.636	39.5508	79.8714	39.5508	79.7001	39.5508	79.9832	39.5508	79.7792	39.5508	80.1094	39.5508	79.8734	39.5508	80.2486	39.5508	79.9828	39.5508	80.3989	39.5508	80.1074	39.5508	80.5568	39.5508	80.2468	39.5508	80.7176	39.5508	80.3994	39.5508	80.8746	39.5508	80.5617	39.5508	81.0191	39.5508	80.7279	39.5508	81.1413	39.5508	80.8897	39.5508	81.2316	39.5508	81.0367	39.5508	81.2814	39.5508	81.1579	39.5508	81.2858	39.5508	81.2434
41.0156	80.0005	41.0156	79.9868	41.0156	80.0293	41.0156	79.9883	41.0156	80.0731	41.0156	80.0048	41.0156	80.1314	41.0156	80.0358	41.0156	80.2039	41.0156	80.0807	41.0156	80.2898	41.0156	80.1391	41.0156	80.3883	41.0156	80.2101	41.0156	80.4982	41.0156	80.2934	41.0156	80.6183	41.0156	80.3885	41.0156	80.7465	41.0156	80.4951	41.0156	80.88	41.0156	80.6127	41.0156	81.015	41.0156	80.7401	41.0156	81.146	41.0156	80.8749	41.0156	81.2661	41.0156	81.0128	41.0156	81.3672	41.0156	81.1473	41.0156	81.4412	41.0156	81.2703	41.0156	81.4812	41.0156	81.3726	41.0156	81.4829	41.0156	81.4457
42.4805	80.5072	42.4805	80.4911	42.4805	80.5378	42.4805	80.4897	42.4805	80.5827	42.4805	80.5028	42.4805	80.6414	42.4805	80.5299	42.4805	80.7129	42.4805	80.5704	42.4805	80.7964	42.4805	80.6234	42.4805	80.8906	42.4805	80.6882	42.4805	80.9942	42.4805	80.7637	42.4805	81.1056	42.4805	80.8496	42.4805	81.2227	42.4805	80.9452	42.4805	81.3428	42.4805	81.0501	42.4805	81.4622	42.4805	81.1635	42.4805	81.5764	42.4805	81.2835	42.4805	81.6792	42.4805	81.4068	42.4805	81.7639	42.4805	81.5283	42.4805	81.8235	42.4805	81.6408	42.4805	81.8523	42.4805	81.7364	42.4805	81.8469	42.4805	81.8072
43.9453	80.9246	43.9453	80.9105	43.9453	80.9523	43.9453	80.9102	43.9453	80.9932	43.9453	80.9235	43.9453	81.0467	43.9453	80.9499	43.9453	81.1119	43.9453	80.9886	43.9453	81.1878	43.9453	81.0387	43.9453	81.2729	43.9453	81.099	43.9453	81.3659	43.9453	81.1683	43.9453	81.465	43.9453	81.2458	43.9453	81.5683	43.9453	81.3305	43.9453	81.6733	43.9453	81.422	43.9453	81.7767	43.9453	81.5194	43.9453	81.8748	43.9453	81.6215	43.9453	81.9624	43.9453	81.7259	43.9453	82.0339	43.9453	81.8285	43.9453	82.0837	43.9453	81.9239	43.9453	82.107	43.9453	82.0053	43.9453	82.1011	43.9453	82.0662
45.4102	81.3092	45.4102	81.2955	45.4102	81.3359	45.4102	81.295	45.4102	81.375	45.4102	81.3075	45.4102	81.4258	45.4102	81.3327	45.4102	81.4873	45.4102	81.3697	45.4102	81.5582	45.4102	81.4174	45.4102	81.6372	45.4102	81.4745	45.4102	81.7225	45.4102	81.5395	45.4102	81.8124	45.4102	81.6111	45.4102	81.9049	45.4102	81.6882	45.4102	81.9976	45.4102	81.77	45.4102	82.0877	45.4102	81.8557	45.4102	82.172	45.4102	81.9443	45.4102	82.2462	45.4102	82.034	45.4102	82.306	45.4102	82.1218	45.4102	82.3467	45.4102	82.2034	45.4102	82.3647	45.4102	82.2735	45.4102	82.3578	45.4102	82.3265
46.875	81.6663	46.875	81.6513	46.875	81.6934	46.875	81.6488	46.875	81.732	46.875	81.6587	46.875	81.7812	46.875	81.6807	46.875	81.8399	46.875	81.7141	46.875	81.9067	46.875	81.7578	46.875	81.9801	46.875	81.8102	46.875	82.0584	46.875	81.87	46.875	82.1397	46.875	81.9354	46.875	82.222	46.875	82.0052	46.875	82.3031	46.875	82.0784	46.875	82.3805	46.875	82.154	46.875	82.4515	46.875	82.2313	46.875	82.5128	46.875	82.3089	46.875	82.5608	46.875	82.3848	46.875	82.592	46.875	82.4556	46.875	82.6036	46.875	82.517	46.875	82.5943	46.875	82.5646
48.3398	81.9872	48.3398	81.9716	48.3398	82.014	48.3398	81.9675	48.3398	82.0513	48.3398	81.9752	48.3398	82.098	48.3398	81.9943	48.3398	82.153	48.3398	82.0243	48.3398	82.2149	48.3398	82.0639	48.3398	82.2822	48.3398	82.1118	48.3398	82.353	48.3398	82.1663	48.3398	82.4255	48.3398	82.2255	48.3398	82.4976	48.3398	82.288	48.3398	82.5674	48.3398	82.3524	48.3398	82.6327	48.3398	82.4179	48.3398	82.6911	48.3398	82.4839	48.3398	82.7402	48.3398	82.5495	48.3398	82.7773	48.3398	82.6133	48.3398	82.7999	48.3398	82.673	48.3398	82.8059	48.3398	82.7255	48.3398	82.7948	48.3398	82.7672
51.2695	82.6283	51.2695	82.6121	51.2695	82.6536	51.2695	82.6058	51.2695	82.6874	51.2695	82.6097	51.2695	82.7286	51.2695	82.6237	51.2695	82.7761	51.2695	82.6474	51.2695	82.8285	51.2695	82.6798	51.2695	82.8843	51.2695	82.7195	51.2695	82.9417	51.2695	82.7647	51.2695	82.9988	51.2695	82.8132	51.2695	83.0537	51.2695	82.8632	51.2695	83.1047	51.2695	82.9131	51.2695	83.1499	51.2695	82.9619	51.2695	83.1879	51.2695	83.009	51.2695	83.2173	51.2695	83.0543	51.2695	83.2369	51.2695	83.0978	51.2695	83.2458	51.2695	83.1387	51.2695	83.2434	51.2695	83.1757	51.2695	83.23	51.2695	83.2068
52.7344	82.8936	52.7344	82.8769	52.7344	82.9191	52.7344	82.8697	52.7344	82.9525	52.7344	82.8726	52.7344	82.9928	52.7344	82.8855	52.7344	83.0386	52.7344	82.9082	52.7344	83.0887	52.7344	82.9397	52.7344	83.1415	52.7344	82.9784	52.7344	83.1951	52.7344	83.0224	52.7344	83.2477	52.7344	83.0694	52.7344	83.2973	52.7344	83.1172	52.7344	83.3424	52.7344	83.164	52.7344	83.3812	52.7344	83.2084	52.7344	83.4126	52.7344	83.2501	52.7344	83.4357	52.7344	83.289	52.7344	83.4498	52.7344	83.3254	52.7344	83.4546	52.7344	83.3593	52.7344	83.4502	52.7344	83.39	52.7344	83.437	52.7344	83.4165
54.1992	83.2087	54.1992	83.1899	54.1992	83.2352	54.1992	83.1796	54.1992	83.2684	54.1992	83.1786	54.1992	83.3073	54.1992	83.1869	54.1992	83.3506	54.1992	83.2044	54.1992	83.3968	54.1992	83.2303	54.1992	83.4445	54.1992	83.2631	54.1992	83.4918	54.1992	83.301	54.1992	83.537	54.1992	83.3415	54.1992	83.5781	54.1992	83.3823	54.1992	83.6135	54.1992	83.4215	54.1992	83.642	54.1992	83.4578	54.1992	83.6625	54.1992	83.4909	54.1992	83.6747	54.1992	83.521	54.1992	83.6786	54.1992	83.5491	54.1992	83.6747	54.1992	83.5759	54.1992	83.6637	54.1992	83.6016	54.1992	83.6468	54.1992	83.6256
55.6641	83.508	55.6641	83.488	55.6641	83.5344	55.6641	83.4754	55.6641	83.5663	55.6641	83.4709	55.6641	83.6025	55.6641	83.4751	55.6641	83.642	55.6641	83.4879	55.6641	83.6835	55.6641	83.5087	55.6641	83.7256	55.6641	83.5364	55.6641	83.7667	55.6641	83.5691	55.6641	83.8052	55.6641	83.6046	55.6641	83.8393	55.6641	83.6403	55.6641	83.8676	55.6641	83.6744	55.6641	83.8888	55.6641	83.7054	55.6641	83.9022	55.6641	83.7329	55.6641	83.9078	55.6641	83.7574	55.6641	83.9058	55.6641	83.78	55.6641	83.8972	55.6641	83.8017	55.6641	83.8831	55.6641	83.8233	55.6641	83.8651	55.6641	83.8447
58.5938	84.1042	58.5938	84.0799	58.5938	84.1333	58.5938	84.0616	58.5938	84.166	58.5938	84.0505	58.5938	84.2012	58.5938	84.0474	58.5938	84.2378	58.5938	84.0528	58.5938	84.2746	58.5938	84.0664	58.5938	84.3104	58.5938	84.0873	58.5938	84.3436	58.5938	84.1137	58.5938	84.3725	58.5938	84.1429	58.5938	84.3954	58.5938	84.1723	58.5938	84.4111	58.5938	84.1994	58.5938	84.4185	58.5938	84.2224	58.5938	84.4174	58.5938	84.2407	58.5938	84.4084	58.5938	84.255	58.5938	84.393	58.5938	84.2669	58.5938	84.3731	58.5938	84.2788	58.5938	84.351	58.5938	84.2925	58.5938	84.3291	58.5938	84.3092
60.0586	84.3034	60.0586	84.2756	60.0586	84.3357	60.0586	84.2535	60.0586	84.3712	60.0586	84.2386	60.0586	84.4086	60.0586	84.232	60.0586	84.4468	60.0586	84.2342	60.0586	84.4847	60.0586	84.2454	60.0586	84.5209	60.0586	84.2645	60.0586	84.5539	60.0586	84.2898	60.0586	84.5821	60.0586	84.3187	60.0586	84.6036	60.0586	84.3483	60.0586	84.6171	60.0586	84.3758	60.0586	84.6216	60.0586	84.3993	60.0586	84.6171	60.0586	84.4181	60.0586	84.6042	60.0586	84.4328	60.0586	84.5848	60.0586	84.4451	60.0586	84.5611	60.0586	84.4573	60.0586	84.5357	60.0586	84.4717	60.0586	84.5113	60.0586	84.4896
62.9883	84.7454	62.9883	84.7121	62.9883	84.7831	62.9883	84.6847	62.9883	84.8235	62.9883	84.6649	62.9883	84.8654	62.9883	84.6545	62.9883	84.9077	62.9883	84.6545	62.9883	84.9492	62.9883	84.6653	62.9883	84.9886	62.9883	84.6862	62.9883	85.0245	62.9883	84.7153	62.9883	85.0549	62.9883	84.7499	62.9883	85.0782	62.9883	84.7865	62.9883	85.0928	62.9883	84.8216	62.9883	85.0975	62.9883	84.8525	62.9883	85.0923	62.9883	84.8776	62.9883	85.0781	62.9883	84.897	62.9883	85.0569	62.9883	84.9123	62.9883	85.0314	62.9883	84.9259	62.9883	85.0048	62.9883	84.9404	62.9883	84.9797	62.9883	84.9581
64.4531	84.9745	64.4531	84.9428	64.4531	85.0091	64.4531	84.9156	64.4531	85.0453	64.4531	84.895	64.4531	85.0817	64.4531	84.8828	64.4531	85.1176	64.4531	84.8802	64.4531	85.152	64.4531	84.8881	64.4531	85.184	64.4531	84.9058	64.4531	85.2122	64.4531	84.9319	64.4531	85.2353	64.4531	84.9634	64.4531	85.2516	64.4531	84.9968	64.4531	85.2598	64.4531	85.0284	64.4531	85.259	64.4531	85.0553	64.4531	85.2493	64.4531	85.0757	64.4531	85.2319	64.4531	85.0894	64.4531	85.209	64.4531	85.098	64.4531	85.1836	64.4531	85.1043	64.4531	85.1591	64.4531	85.1115	64.4531	85.1381	64.4531	85.1223
67.3828	85.4706	67.3828	85.4358	67.3828	85.5054	67.3828	85.403	67.3828	85.5387	67.3828	85.3744	67.3828	85.5696	67.3828	85.3525	67.3828	85.5973	67.3828	85.3393	67.3828	85.6214	67.3828	85.336	67.3828	85.6413	67.3828	85.3428	67.3828	85.6563	67.3828	85.3585	67.3828	85.6652	67.3828	85.3803	67.3828	85.667	67.3828	85.4047	67.3828	85.6606	67.3828	85.4277	67.3828	85.6455	67.3828	85.4458	67.3828	85.6223	67.3828	85.4572	67.3828	85.5926	67.3828	85.4615	67.3828	85.5595	67.3828	85.4606	67.3828	85.5265	67.3828	85.4579	67.3828	85.4975	67.3828	85.4572	67.3828	85.4756	67.3828	85.4623
68.8477	85.6881	68.8477	85.6513	68.8477	85.7238	68.8477	85.6154	68.8477	85.7569	68.8477	85.5829	68.8477	85.7864	68.8477	85.5563	68.8477	85.812	68.8477	85.538	68.8477	85.8332	68.8477	85.5296	68.8477	85.8496	68.8477	85.5314	68.8477	85.8607	68.8477	85.5424	68.8477	85.8654	68.8477	85.5601	68.8477	85.8628	68.8477	85.5808	68.8477	85.8518	68.8477	85.6007	68.8477	85.832	68.8477	85.6161	68.8477	85.804	68.8477	85.625	68.8477	85.7696	68.8477	85.6272	68.8477	85.732	68.8477	85.6245	68.8477	85.695	68.8477	85.6203	68.8477	85.6628	68.8477	85.6189	68.8477	85.6387	68.8477	85.6242
71.7773	86.0803	71.7773	86.0414	71.7773	86.1163	71.7773	86.0016	71.7773	86.1478	71.7773	85.9637	71.7773	86.1742	71.7773	85.9307	71.7773	86.1952	71.7773	85.9055	71.7773	86.2108	71.7773	85.8902	71.7773	86.221	71.7773	85.8857	71.7773	86.2256	71.7773	85.8913	71.7773	86.2239	71.7773	85.9047	71.7773	86.2149	71.7773	85.9222	71.7773	86.1979	71.7773	85.9396	71.7773	86.1723	71.7773	85.9531	71.7773	86.139	71.7773	85.9601	71.7773	86.0998	71.7773	85.9602	71.7773	86.0582	71.7773	85.9551	71.7773	86.0184	71.7773	85.9482	71.7773	85.9847	71.7773	85.9442	71.7773	85.9605	71.7773	85.9473
74.707	86.5046	74.707	86.4704	74.707	86.534	74.707	86.4337	74.707	86.5572	74.707	86.3974	74.707	86.5738	74.707	86.365	74.707	86.584	74.707	86.3396	74.707	86.5882	74.707	86.3239	74.707	86.587	74.707	86.3189	74.707	86.5806	74.707	86.3241	74.707	86.5689	74.707	86.337	74.707	86.5515	74.707	86.3536	74.707	86.5278	74.707	86.3692	74.707	86.4977	74.707	86.3794	74.707	86.4621	74.707	86.3811	74.707	86.4232	74.707	86.3736	74.707	86.3845	74.707	86.3585	74.707	86.3505	74.707	86.3397	74.707	86.3255	74.707	86.3224	74.707	86.3123	74.707	86.3119
77.6367	86.8694	77.6367	86.8336	77.6367	86.8982	77.6367	86.7934	77.6367	86.9187	77.6367	86.7521	77.6367	86.9304	77.6367	86.7137	77.6367	86.9339	77.6367	86.6822	77.6367	86.93	77.6367	86.6607	77.6367	86.9197	77.6367	86.6508	77.6367	86.9039	77.6367	86.6521	77.6367	86.8829	77.6367	86.6622	77.6367	86.8565	77.6367	86.6769	77.6367	86.8246	77.6367	86.6908	77.6367	86.7874	77.6367	86.6989	77.6367	86.746	77.6367	86.6978	77.6367	86.7028	77.6367	86.6863	77.6367	86.6617	77.6367	86.6658	77.6367	86.6273	77.6367	86.6407	77.6367	86.604	77.6367	86.6166	77.6367	86.5947	77.6367	86.5997
79.1016	87.0215	79.1016	86.9834	79.1016	87.0516	79.1016	86.94	79.1016	87.0722	79.1016	86.8948	79.1016	87.083	79.1016	86.8523	79.1016	87.0845	79.1016	86.8166	79.1016	87.078	79.1016	86.7913	79.1016	87.0646	79.1016	86.7783	79.1016	87.0454	79.1016	86.7775	79.1016	87.021	79.1016	86.7865	79.1016	86.9913	79.1016	86.8008	79.1016	86.9563	79.1016	86.8149	79.1016	86.9163	79.1016	86.8237	79.1016	86.8725	79.1016	86.8232	79.1016	86.8275	79.1016	86.812	79.1016	86.785	79.1016	86.7915	79.1016	86.7499	79.1016	86.7659	79.1016	86.7264	79.1016	86.741	79.1016	86.7174	79.1016	86.7232
82.0312	87.3376	82.0312	87.3005	82.0312	87.3645	82.0312	87.256	82.0312	87.3799	82.0312	87.2083	82.0312	87.3835	82.0312	87.1621	82.0312	87.3762	82.0312	87.1221	82.0312	87.3597	82.0312	87.0925	82.0312	87.3357	82.0312	87.0757	82.0312	87.3059	82.0312	87.0716	82.0312	87.2713	82.0312	87.078	82.0312	87.2325	82.0312	87.09	82.0312	87.1898	82.0312	87.1019	82.0312	87.1439	82.0312	87.1079	82.0312	87.0961	82.0312	87.1037	82.0312	87.0492	82.0312	87.0876	82.0312	87.0073	82.0312	87.0608	82.0312	86.975	82.0312	87.0277	82.0312	86.9565	82.0312	86.9945	82.0312	86.9544	82.0312	86.9682
84.9609	87.6283	84.9609	87.5848	84.9609	87.6599	84.9609	87.5327	84.9609	87.6781	84.9609	87.4765	84.9609	87.6826	84.9609	87.4217	84.9609	87.6747	84.9609	87.3738	84.9609	87.6562	84.9609	87.3376	84.9609	87.6292	84.9609	87.316	84.9609	87.5957	84.9609	87.3095	84.9609	87.5572	84.9609	87.3156	84.9609	87.5144	84.9609	87.3292	84.9609	87.4679	84.9609	87.3442	84.9609	87.4184	84.9609	87.354	84.9609	87.3675	84.9609	87.3538	84.9609	87.3179	84.9609	87.3413	84.9609	87.2737	84.9609	87.3175	84.9609	87.2396	84.9609	87.2867	84.9609	87.2198	84.9609	87.255	84.9609	87.2167	84.9609	87.2297
87.8906	87.944	87.8906	87.9041	87.8906	87.9705	87.8906	87.8543	87.8906	87.9823	87.8906	87.7995	87.8906	87.9794	87.8906	87.7457	87.8906	87.9635	87.8906	87.6992	87.8906	87.9369	87.8906	87.6653	87.8906	87.9024	87.8906	87.6476	87.8906	87.8626	87.8906	87.6466	87.8906	87.8194	87.8906	87.6597	87.8906	87.774	87.8906	87.6814	87.8906	87.7271	87.8906	87.7042	87.8906	87.6796	87.8906	87.7207	87.8906	87.633	87.8906	87.7249	87.8906	87.5904	87.8906	87.7135	87.8906	87.5557	87.8906	87.6869	87.8906	87.5337	87.8906	87.649	87.8906	87.5279	87.8906	87.6067	87.8906	87.5399	87.8906	87.5678
90.8203	88.2831	90.8203	88.2297	90.8203	88.3191	90.8203	88.1627	90.8203	88.3361	90.8203	88.0875	90.8203	88.334	90.8203	88.0112	90.8203	88.3148	90.8203	87.9408	90.8203	88.2809	90.8203	87.8829	90.8203	88.2357	90.8203	87.8419	90.8203	88.1818	90.8203	87.8192	90.8203	88.1217	90.8203	87.8128	90.8203	88.0569	90.8203	87.8173	90.8203	87.9885	90.8203	87.8256	90.8203	87.9178	90.8203	87.8301	90.8203	87.847	90.8203	87.8246	90.8203	87.7799	90.8203	87.8061	90.8203	87.7214	90.8203	87.7752	90.8203	87.6772	90.8203	87.7364	90.8203	87.652	90.8203	87.6968	90.8203	87.6484	90.8203	87.6649
95.2148	88.5481	95.2148	88.4945	95.2148	88.582	95.2148	88.4251	95.2148	88.5943	95.2148	88.3461	95.2148	88.5857	95.2148	88.2654	95.2148	88.5585	95.2148	88.1914	95.2148	88.5163	95.2148	88.1316	95.2148	88.4634	95.2148	88.0913	95.2148	88.4035	95.2148	88.0725	95.2148	88.3399	95.2148	88.073	95.2148	88.2747	95.2148	88.0871	95.2148	88.2094	95.2148	88.1065	95.2148	88.1453	95.2148	88.1224	95.2148	88.0842	95.2148	88.1276	95.2148	88.0293	95.2148	88.1178	95.2148	87.9846	95.2148	88.0927	95.2148	87.9548	95.2148	88.0561	95.2148	87.9434	95.2148	88.0149	95.2148	87.9517	95.2148	87.9774
98.1445	88.731	98.1445	88.6745	98.1445	88.7653	98.1445	88.6004	98.1445	88.7757	98.1445	88.5154	98.1445	88.763	98.1445	88.4281	98.1445	88.73	98.1445	88.3481	98.1445	88.6809	98.1445	88.2839	98.1445	88.6206	98.1445	88.2416	98.1445	88.5538	98.1445	88.2237	98.1445	88.4842	98.1445	88.228	98.1445	88.4147	98.1445	88.2483	98.1445	88.3473	98.1445	88.2753	98.1445	88.2834	98.1445	88.2994	98.1445	88.225	98.1445	88.3119	98.1445	88.1751	98.1445	88.3078	98.1445	88.1374	98.1445	88.286	98.1445	88.1159	98.1445	88.2499	98.1445	88.1136	98.1445	88.2062	98.1445	88.1306	98.1445	88.1636
101.074	88.8607	101.074	88.7977	101.074	88.8983	101.074	88.7139	101.074	88.9085	101.074	88.6168	101.074	88.8925	101.074	88.5162	101.074	88.8534	101.074	88.4227	101.074	88.7962	101.074	88.3462	101.074	88.7265	101.074	88.2942	101.074	88.6499	101.074	88.27	101.074	88.5709	101.074	88.2719	101.074	88.4931	101.074	88.2933	101.074	88.419	101.074	88.3244	101.074	88.3505	101.074	88.3544	101.074	88.2898	101.074	88.3738	101.074	88.2398	101.074	88.3763	101.074	88.204	101.074	88.36	101.074	88.1858	101.074	88.3278	101.074	88.1873	101.074	88.2858	101.074	88.2077	101.074	88.2429
105.469	89.1876	105.469	89.115	105.469	89.2284	105.469	89.0157	105.469	89.2359	105.469	88.8976	105.469	89.2118	105.469	88.7715	105.469	89.1599	105.469	88.6494	105.469	89.0862	105.469	88.5433	105.469	88.9973	105.469	88.4628	105.469	88.8997	105.469	88.4132	105.469	88.7992	105.469	88.3946	105.469	88.7002	105.469	88.4012	105.469	88.6058	105.469	88.4234	105.469	88.5187	105.469	88.4494	105.469	88.4416	105.469	88.4685	105.469	88.3778	105.469	88.4731	105.469	88.3311	105.469	88.4599	105.469	88.3049	105.469	88.4307	105.469	88.301	105.469	88.3914	105.469	88.3179	105.469	88.3507
108.398	89.453	108.398	89.3801	108.398	89.4911	108.398	89.2771	108.398	89.4926	108.398	89.1525	108.398	89.4595	108.398	89.0174	108.398	89.3963	108.398	88.8845	108.398	89.3095	108.398	88.7664	108.398	89.2064	108.398	88.6734	108.398	89.0944	108.398	88.6116	108.398	88.9801	108.398	88.5816	108.398	88.8685	108.398	88.5782	108.398	88.7635	108.398	88.5919	108.398	88.668	108.398	88.611	108.398	88.5848	108.398	88.6248	108.398	88.5172	108.398	88.6252	108.398	88.4688	108.398	88.6089	108.398	88.4425	108.398	88.5772	108.398	88.4396	108.398	88.5357	108.398	88.4582	108.398	88.493
112.793	89.7253	112.793	89.6477	112.793	89.7638	112.793	89.5365	112.793	89.7617	112.793	89.4008	112.793	89.7209	112.793	89.2526	112.793	89.6465	112.793	89.106	112.793	89.5457	112.793	88.9746	112.793	89.4268	112.793	88.8699	112.793	89.2983	112.793	88.7986	112.793	89.1678	112.793	88.7616	112.793	89.0413	112.793	88.7535	112.793	88.9235	112.793	88.7641	112.793	88.818	112.793	88.7813	112.793	88.7279	112.793	88.7936	112.793	88.6566	112.793	88.7924	112.793	88.6076	112.793	88.774	112.793	88.5833	112.793	88.7394	112.793	88.5841	112.793	88.6943	112.793	88.6075	112.793	88.6471
117.188	89.8384	117.188	89.7499	117.188	89.8836	117.188	89.624	117.188	89.8838	117.188	89.4709	117.188	89.8414	117.188	89.3041	117.188	89.762	117.188	89.1394	117.188	89.6538	117.188	88.9925	117.188	89.5263	117.188	88.8765	117.188	89.3891	117.188	88.7996	117.188	89.2511	117.188	88.763	117.188	89.1192	117.188	88.7609	117.188	88.9988	117.188	88.7821	117.188	88.8937	117.188	88.8131	117.188	88.8071	117.188	88.8406	117.188	88.7416	117.188	88.8549	117.188	88.6995	117.188	88.851	117.188	88.682	117.188	88.8288	117.188	88.6881	117.188	88.7931	117.188	88.7135	117.188	88.7515
120.117	89.9542	120.117	89.861	120.117	90.0012	120.117	89.7279	120.117	90.0005	120.117	89.5651	120.117	89.9548	120.117	89.387	120.117	89.8701	120.117	89.2101	120.117	89.7552	120.117	89.0514	120.117	89.6201	120.117	88.9253	120.117	89.4753	120.117	88.8409	120.117	89.33	120.117	88.8004	120.117	89.192	120.117	88.7982	120.117	89.0672	120.117	88.8228	120.117	88.9598	120.117	88.86	120.117	88.8731	120.117	88.8956	120.117	88.8098	120.117	88.9187	120.117	88.7719	120.117	88.9232	120.117	88.7594	120.117	88.9081	120.117	88.7702	120.117	88.8772	120.117	88.799	120.117	88.8378
124.512	90.049	124.512	89.9526	124.512	90.0963	124.512	89.8133	124.512	90.0931	124.512	89.642	124.512	90.0428	124.512	89.4539	124.512	89.9523	124.512	89.2669	124.512	89.8312	124.512	89.0994	124.512	89.6909	124.512	88.9675	124.512	89.5426	124.512	88.8816	124.512	89.3963	124.512	88.8447	124.512	89.2603	124.512	88.851	124.512	89.1404	124.512	88.8884	124.512	89.0406	124.512	88.941	124.512	88.9637	124.512	88.9932	124.512	88.9117	124.512	89.0323	124.512	88.8856	124.512	89.0506	124.512	88.8846	124.512	89.0459	124.512	88.9052	124.512	89.021	124.512	88.941	124.512	88.9829
128.906	90.0913	128.906	89.9973	128.906	90.1314	128.906	89.8555	128.906	90.1163	128.906	89.6777	128.906	90.0501	128.906	89.4799	128.906	89.9407	128.906	89.2815	128.906	89.7993	128.906	89.1027	128.906	89.6388	128.906	88.9611	128.906	89.4726	128.906	88.8688	128.906	89.3124	128.906	88.8295	128.906	89.168	128.906	88.838	128.906	89.0464	128.906	88.8817	128.906	88.9521	128.906	88.9437	128.906	88.8875	128.906	89.007	128.906	88.8536	128.906	89.0573	128.906	88.8495	128.906	89.0852	128.906	88.8716	128.906	89.0867	128.906	88.9137	128.906	89.0631	128.906	88.9668	128.906	89.0202
133.301	90.1037	133.301	90.0099	133.301	90.1382	133.301	89.8639	133.301	90.1122	133.301	89.678	133.301	90.0299	133.301	89.4697	133.301	89.9	133.301	89.2598	133.301	89.7346	133.301	89.0698	133.301	89.5482	133.301	88.9187	133.301	89.3555	133.301	88.8194	133.301	89.1704	133.301	88.7759	133.301	89.0043	133.301	88.7824	133.301	88.8659	133.301	88.8255	133.301	88.7609	133.301	88.8871	133.301	88.6927	133.301	88.9491	133.301	88.6624	133.301	88.996	133.301	88.6685	133.301	89.0177	133.301	88.7063	133.301	89.0095	133.301	88.7674	133.301	88.9726	133.301	88.8405	133.301	88.913
139.16	90.0308	139.16	89.922	139.16	90.0743	139.16	89.756	139.16	90.0508	139.16	89.5471	139.16	89.9647	139.16	89.315	139.16	89.8251	139.16	89.0836	139.16	89.6453	139.16	88.8775	139.16	89.4411	139.16	88.7184	139.16	89.2289	139.16	88.6204	139.16	89.0243	139.16	88.5873	139.16	88.8406	139.16	88.6114	139.16	88.6881	139.16	88.6764	139.16	88.5744	139.16	88.7609	139.16	88.5041	139.16	88.8436	139.16	88.4789	139.16	88.9067	139.16	88.4973	139.16	88.9382	139.16	88.5528	139.16	88.9326	139.16	88.6348	139.16	88.8906	139.16	88.7287	139.16	88.8189
143.555	89.9511	143.555	89.8256	143.555	90.0055	143.555	89.6373	143.555	89.9872	143.555	89.4015	143.555	89.9013	143.555	89.1399	143.555	89.7579	143.555	88.879	143.555	89.5716	143.555	88.6468	143.555	89.3596	143.555	88.4681	143.555	89.1397	143.555	88.36	143.555	88.9288	143.555	88.3272	143.555	88.7408	143.555	88.3617	143.555	88.5867	143.555	88.4448	143.555	88.4739	143.555	88.5525	143.555	88.4066	143.555	88.6607	143.555	88.3861	143.555	88.7493	143.555	88.4096	143.555	88.8042	143.555	88.4696	143.555	88.8186	143.555	88.5539	143.555	88.7923	143.555	88.6467	143.555	88.7312
147.949	89.9008	147.949	89.7668	147.949	89.9557	147.949	89.5621	147.949	89.9305	147.949	89.3027	147.949	89.8309	147.949	89.0119	147.949	89.6682	147.949	88.7183	147.949	89.4586	147.949	88.4533	147.949	89.2211	147.949	88.2459	147.949	88.9757	147.949	88.1167	147.949	88.7415	147.949	88.0732	147.949	88.5346	147.949	88.1078	147.949	88.3677	147.949	88.2003	147.949	88.2491	147.949	88.3239	147.949	88.1834	147.949	88.451	147.949	88.171	147.949	88.5584	147.949	88.2073	147.949	88.6298	147.949	88.2824	147.949	88.6562	147.949	88.3811	147.949	88.6364	147.949	88.485	147.949	88.5755
153.809	89.9734	153.809	89.8335	153.809	90.0249	153.809	89.6134	153.809	89.9872	153.809	89.3294	153.809	89.8665	153.809	89.0051	153.809	89.6751	153.809	88.6708	153.809	89.4305	153.809	88.36	153.809	89.1533	153.809	88.1054	153.809	88.8661	153.809	87.9324	153.809	88.5903	153.809	87.8531	153.809	88.3451	153.809	87.8634	153.809	88.146	153.809	87.9444	153.809	88.0039	153.809	88.0679	153.809	87.9246	153.809	88.2034	153.809	87.9089	153.809	88.3235	153.809	87.9509	153.809	88.408	153.809	88.0377	153.809	88.4445	153.809	88.1506	153.809	88.4291	153.809	88.2674	153.809	88.3662
159.668	90.108	159.668	89.9582	159.668	90.1654	159.668	89.7245	159.668	90.1293	159.668	89.4241	159.668	90.0062	159.668	89.0817	159.668	89.8089	159.668	88.7289	159.668	89.5553	159.668	88.4011	159.668	89.2671	159.668	88.1325	159.668	88.9674	159.668	87.9496	159.668	88.6791	159.668	87.8653	159.668	88.4223	159.668	87.8755	159.668	88.214	159.668	87.9612	159.668	88.0662	159.668	88.0934	159.668	87.9861	159.668	88.2407	159.668	87.9745	159.668	88.3749	159.668	88.0246	159.668	88.4739	159.668	88.1212	159.668	88.524	159.668	88.2427	159.668	88.5193	159.668	88.3642	159.668	88.4625
165.527	89.9478	165.527	89.7875	165.527	90.0093	165.527	89.5374	165.527	89.9712	165.527	89.2159	165.527	89.8407	165.527	88.85	165.527	89.6319	165.527	88.4746	165.527	89.3646	165.527	88.129	165.527	89.0622	165.527	87.8514	165.527	88.7501	165.527	87.6714	165.527	88.4526	165.527	87.6029	165.527	88.1917	165.527	87.6405	165.527	87.9853	165.527	87.7612	165.527	87.8465	165.527	87.9316	165.527	87.7826	165.527	88.1161	165.527	87.7941	165.527	88.2826	165.527	87.8726	165.527	88.4068	165.527	88.0001	165.527	88.4727	165.527	88.1511	165.527	88.4733	165.527	88.2968	165.527	88.4109
171.387	89.7836	171.387	89.6067	171.387	89.853	171.387	89.3312	171.387	89.815	171.387	88.9756	171.387	89.6779	171.387	88.5679	171.387	89.4569	171.387	88.1451	171.387	89.1735	171.387	87.7498	171.387	88.8526	171.387	87.4252	171.387	88.5211	171.387	87.2068	171.387	88.205	171.387	87.1137	171.387	87.9273	171.387	87.1433	171.387	87.7068	171.387	87.273	171.387	87.5574	171.387	87.4664	171.387	87.4876	171.387	87.6834	171.387	87.4983	171.387	87.8869	171.387	87.5805	171.387	88.0477	171.387	87.7143	171.387	88.1459	171.387	87.8707	171.387	88.1714	171.387	88.0173	171.387	88.1247
177.246	89.5878	177.246	89.4138	177.246	89.647	177.246	89.1346	177.246	89.5919	177.246	88.7694	177.246	89.4316	177.246	88.348	177.246	89.1831	177.246	87.909	177.246	88.8703	177.246	87.4972	177.246	88.5213	177.246	87.1575	177.246	88.1664	177.246	86.9266	177.246	87.8346	177.246	86.8239	177.246	87.5512	177.246	86.847	177.246	87.3356	177.246	86.973	177.246	87.2006	177.246	87.1655	177.246	87.1518	177.246	87.3845	177.246	87.186	177.246	87.5931	177.246	87.2904	177.246	87.7617	177.246	87.4414	177.246	87.8691	177.246	87.6085	177.246	87.9036	177.246	87.7588	177.246	87.8638
183.105	89.4215	183.105	89.2365	183.105	89.4812	183.105	88.9368	183.105	89.4155	183.105	88.544	183.105	89.2338	183.105	88.091	183.105	88.9541	183.105	87.6217	183.105	88.602	183.105	87.1872	183.105	88.2087	183.105	86.8395	183.105	87.8087	183.105	86.62	183.105	87.4365	183.105	86.5492	183.105	87.1236	183.105	86.62	183.105	86.8951	183.105	86.8012	183.105	86.7686	183.105	87.0477	183.105	86.751	183.105	87.3127	183.105	86.8368	183.105	87.5549	183.105	87.0064	183.105	87.7429	183.105	87.2275	183.105	87.8548	183.105	87.4606	183.105	87.8787	183.105	87.6664	183.105	87.8128
188.965	89.5624	188.965	89.3524	188.965	89.6336	188.965	89.0136	188.965	89.5665	188.965	88.5669	188.965	89.3707	188.965	88.0455	188.965	89.0642	188.965	87.4947	188.965	88.6728	188.965	86.9705	188.965	88.2284	188.965	86.5333	188.965	87.7668	188.965	86.2369	188.965	87.3251	188.965	86.1139	188.965	86.939	188.965	86.1645	188.965	86.6396	188.965	86.356	188.965	86.4512	188.965	86.6351	188.965	86.3878	188.965	86.9429	188.965	86.4489	188.965	87.2271	188.965	86.6162	188.965	87.4476	188.965	86.8536	188.965	87.5774	188.965	87.1145	188.965	87.6027	188.965	87.351	188.965	87.5228
196.289	89.4934	196.289	89.2717	196.289	89.5701	196.289	88.9147	196.289	89.5025	196.289	88.4433	196.289	89.3008	196.289	87.8911	196.289	88.9838	196.289	87.304	196.289	88.5779	196.289	86.7394	196.289	88.1156	196.289	86.2599	196.289	87.6332	196.289	85.9232	196.289	87.1687	196.289	85.7673	196.289	86.7588	196.289	85.7979	196.289	86.4371	196.289	85.9861	196.289	86.2316	196.289	86.2791	196.289	86.1603	196.289	86.6152	196.289	86.2251	196.289	86.937	196.289	86.4062	196.289	87.1979	196.289	86.6626	196.289	87.3648	196.289	86.9407	196.289	87.4187	196.289	87.1863	196.289	87.3552
203.613	89.3602	203.613	89.1241	203.613	89.4408	203.613	88.7413	203.613	89.3678	203.613	88.2323	203.613	89.1528	203.613	87.6303	203.613	88.8163	203.613	86.982	203.613	88.3869	203.613	86.3464	203.613	87.899	203.613	85.791	203.613	87.3906	203.613	85.3811	203.613	86.9006	203.613	85.1647	203.613	86.466	203.613	85.1566	203.613	86.1207	203.613	85.3321	203.613	85.8929	203.613	85.6365	203.613	85.8023	203.613	86.0018	203.613	85.8526	203.613	86.3633	203.613	86.0246	203.613	86.6678	203.613	86.2754	203.613	86.8767	203.613	86.5473	203.613	86.9668	203.613	86.7817	203.613	86.9315
210.938	89.2308	210.938	88.9909	210.938	89.3086	210.938	88.5987	210.938	89.2257	210.938	88.0767	210.938	88.9941	210.938	87.4601	210.938	88.6355	210.938	86.7983	210.938	88.1801	210.938	86.1525	210.938	87.665	210.938	85.5909	210.938	87.1314	210.938	85.1784	210.938	86.6211	210.938	84.9608	210.938	86.1734	210.938	84.951	210.938	85.8228	210.938	85.1239	210.938	85.597	210.938	85.4252	210.938	85.5139	210.938	85.7882	210.938	85.5752	210.938	86.1486	210.938	85.7599	210.938	86.4526	210.938	86.0236	210.938	86.6607	210.938	86.3075	210.938	86.7487	210.938	86.5518	210.938	86.7089
218.262	88.8788	218.262	88.6338	218.262	88.9484	218.262	88.2229	218.262	88.8448	218.262	87.6694	218.262	88.5822	218.262	87.0112	218.262	88.1851	218.262	86.303	218.262	87.6885	218.262	85.6155	218.262	87.1357	218.262	85.0312	218.262	86.5758	218.262	84.6313	218.262	86.0598	218.262	84.4736	218.262	85.6364	218.262	84.5707	218.262	85.3476	218.262	84.8829	218.262	85.224	218.262	85.3349	218.262	85.2778	218.262	85.8414	218.262	85.4956	218.262	86.3259	218.262	85.8352	218.262	86.7286	218.262	86.2326	218.262	87.0071	218.262	86.6162	218.262	87.1356	218.262	86.9226	218.262	87.1048
225.586	89.0821	225.586	88.8285	225.586	89.146	225.586	88.3951	225.586	89.0217	225.586	87.8035	225.586	88.7213	225.586	87.0894	225.586	88.267	225.586	86.3036	225.586	87.6907	225.586	85.5133	225.586	87.0333	225.586	84.8014	225.586	86.3427	225.586	84.2585	225.586	85.6725	225.586	83.965	225.586	85.0804	225.586	83.962	225.586	84.6266	225.586	84.2297	225.586	84.3699	225.586	84.6931	225.586	84.3528	225.586	85.2501	225.586	84.5786	225.586	85.8019	225.586	84.9963	225.586	86.2681	225.586	85.5114	225.586	86.5902	225.586	86.0179	225.586	86.731	225.586	86.4259	225.586	86.6742
232.91	89.0329	232.91	88.751	232.91	89.1195	232.91	88.284	232.91	89.0121	232.91	87.6546	232.91	88.7228	232.91	86.8991	232.91	88.2736	232.91	86.0687	232.91	87.6955	232.91	85.2292	232.91	87.0266	232.91	84.4596	232.91	86.3102	232.91	83.8462	232.91	85.5919	232.91	83.4686	232.91	84.9198	232.91	83.3766	232.91	84.3465	232.91	83.5665	232.91	83.9335	232.91	83.976	232.91	83.7449	232.91	84.5056	232.91	83.8219	232.91	85.0487	232.91	84.1458	232.91	85.5135	232.91	84.6291	232.91	85.8311	232.91	85.1486	232.91	85.9575	232.91	85.5903	232.91	85.8741
241.699	88.7596	241.699	88.4603	241.699	88.8544	241.699	87.9662	241.699	88.7487	241.699	87.3009	241.699	88.4582	241.699	86.5045	241.699	88.0104	241.699	85.6338	241.699	87.4426	241.699	84.7631	241.699	86.7996	241.699	83.9801	241.699	86.1291	241.699	83.3763	241.699	85.4773	241.699	83.0283	241.699	84.885	241.699	82.9734	241.699	84.3878	241.699	83.193	241.699	84.0213	241.699	83.6166	241.699	83.8243	241.699	84.1462	241.699	83.8299	241.699	84.6813	241.699	84.0411	241.699	85.1355	241.699	84.4091	241.699	85.4439	241.699	84.8403	241.699	85.5659	241.699	85.2288	241.699	85.4882
250.488	89.4956	250.488	89.2002	250.488	89.5674	250.488	88.6894	250.488	89.4192	250.488	87.9838	250.488	89.066	250.488	87.118	250.488	88.5338	250.488	86.1425	250.488	87.8597	250.488	85.1254	250.488	87.0904	250.488	84.1525	250.488	86.2796	250.488	83.3254	250.488	85.4843	250.488	82.7501	250.488	84.7604	250.488	82.5085	250.488	84.1613	250.488	82.6205	250.488	83.7381	250.488	83.0242	250.488	83.5362	250.488	83.6001	250.488	83.5791	250.488	84.2157	250.488	83.8449	250.488	84.7585	250.488	84.2574	250.488	85.1487	250.488	84.7072	250.488	85.339	250.488	85.0865	250.488	85.3132
259.277	89.0341	259.277	88.732	259.277	89.1111	259.277	88.2149	259.277	88.9661	259.277	87.5071	259.277	88.6149	259.277	86.6481	259.277	88.0856	259.277	85.6945	259.277	87.4181	259.277	84.7192	259.277	86.6625	259.277	83.8094	259.277	85.8757	259.277	83.0594	259.277	85.1155	259.277	82.5586	259.277	84.4362	259.277	82.3696	259.277	83.8855	259.277	82.5034	259.277	83.5071	259.277	82.9059	259.277	83.3402	259.277	83.4728	259.277	83.4075	259.277	84.0829	259.277	83.6911	259.277	84.6273	259.277	84.1188	259.277	85.0237	259.277	84.5815	259.277	85.2206	259.277	84.9692	259.277	85.1982
268.066	89.0079	268.066	88.6768	268.066	89.0967	268.066	88.114	268.066	88.9452	268.066	87.3448	268.066	88.5676	268.066	86.4098	268.066	87.9909	268.066	85.3674	268.066	87.2542	268.066	84.2941	268.066	86.4093	268.066	83.2823	268.066	85.5178	268.066	82.435	268.066	84.6487	268.066	81.8528	268.066	83.873	268.066	81.6129	268.066	83.2596	268.066	81.7392	268.066	82.8709	268.066	82.1836	268.066	82.7528	268.066	82.8346	268.066	82.9131	268.066	83.5522	268.066	83.3031	268.066	84.2055	268.066	83.8207	268.066	84.6951	268.066	84.3419	268.066	84.9597	268.066	84.7541	268.066	84.9755
276.855	88.9668	276.855	88.6322	276.855	89.0668	276.855	88.0737	276.855	88.9353	276.855	87.3167	276.855	88.5877	276.855	86.4038	276.855	88.0509	276.855	85.3958	276.855	87.3615	276.855	84.3721	276.855	86.5642	276.855	83.4276	276.855	85.7098	276.855	82.6639	276.855	84.8534	276.855	82.1729	276.855	84.0531	276.855	82.0126	276.855	83.3727	276.855	82.1832	276.855	82.8854	276.855	82.621	276.855	82.668	276.855	83.2209	276.855	82.7695	276.855	83.8661	276.855	83.1629	276.855	84.45	276.855	83.7341	276.855	84.8847	276.855	84.328	276.855	85.1065	276.855	84.8072	276.855	85.0807
287.109	88.9057	287.109	88.5651	287.109	88.9773	287.109	87.9659	287.109	88.7844	287.109	87.1347	287.109	88.3461	287.109	86.117	287.109	87.6963	287.109	84.9799	287.109	86.8834	287.109	83.8154	287.109	85.9683	287.109	82.7415	287.109	85.0205	287.109	81.8962	287.109	84.1117	287.109	81.415	287.109	83.3126	287.109	81.3831	287.109	82.6939	287.109	81.7837	287.109	82.3323	287.109	82.4966	287.109	82.2998	287.109	83.3535	287.109	82.6203	287.109	84.1971	287.109	83.2249	287.109	84.9064	287.109	83.9661	287.109	85.3996	287.109	84.6818	287.109	85.6284	287.109	85.2446	287.109	85.5737
297.363	89.5689	297.363	89.2164	297.363	89.6421	297.363	88.5963	297.363	89.438	297.363	87.7349	297.363	88.9721	297.363	86.6742	297.363	88.2738	297.363	85.4729	297.363	87.3864	297.363	84.2065	297.363	86.3666	297.363	82.965	297.363	85.2816	297.363	81.8531	297.363	84.2033	297.363	80.995	297.363	83.203	297.363	80.5375	297.363	82.3531	297.363	80.6067	297.363	81.7426	297.363	81.2052	297.363	81.4888	297.363	82.16	297.363	81.6925	297.363	83.2165	297.363	82.3287	297.363	84.1565	297.363	83.21	297.363	84.8377	297.363	84.0913	297.363	85.1828	297.363	84.7796	297.363	85.1608
307.617	88.7823	307.617	88.3795	307.617	88.8953	307.617	87.6991	307.617	88.7232	307.617	86.7716	307.617	88.2862	307.617	85.649	307.617	87.62	307.617	84.4073	307.617	86.7751	307.617	83.1474	307.617	85.815	307.617	81.9894	307.617	84.8112	307.617	81.0571	307.617	83.8365	307.617	80.4556	307.617	82.9553	307.617	80.2493	307.617	82.2207	307.617	80.447	307.617	81.6826	307.617	80.9942	307.617	81.4049	307.617	81.7767	307.617	81.4597	307.617	82.6413	307.617	81.869	307.617	83.4308	307.617	82.5383	307.617	84.0151	307.617	83.2793	307.617	84.3065	307.617	83.8998	307.617	84.2648
319.336	88.5123	319.336	88.0978	319.336	88.6096	319.336	87.3761	319.336	88.3951	319.336	86.3745	319.336	87.8891	319.336	85.1405	319.336	87.1272	319.336	83.7466	319.336	86.1603	319.336	82.2948	319.336	85.0541	319.336	80.918	319.336	83.8866	319.336	79.7765	319.336	82.7434	319.336	79.0447	319.336	81.7129	319.336	78.873	319.336	80.8857	319.336	79.3054	319.336	80.3631	319.336	80.2171	319.336	80.2553	319.336	81.3685	319.336	80.6248	319.336	82.5198	319.336	81.3986	319.336	83.4928	319.336	82.3711	319.336	84.1748	319.336	83.3103	319.336	84.5035	319.336	84.0402	319.336	84.4549
329.59	88.5503	329.59	88.1377	329.59	88.6315	329.59	87.406	329.59	88.3855	329.59	86.385	329.59	87.8331	329.59	85.1233	329.59	87.0125	329.59	83.6897	329.59	85.9793	329.59	82.1724	329.59	84.8062	329.59	80.6756	329.59	83.5778	329.59	79.3169	329.59	82.3821	329.59	78.2463	329.59	81.2986	329.59	77.6891	329.59	80.3936	329.59	77.8965	329.59	79.7394	329.59	78.8829	329.59	79.4525	329.59	80.3084	329.59	79.6773	329.59	81.758	329.59	80.4395	329.59	82.9589	329.59	81.5346	329.59	83.7746	329.59	82.651	329.59	84.1472	329.59	83.5412	329.59	84.0623
341.309	88.0067	341.309	87.5466	341.309	88.0918	341.309	86.7278	341.309	87.8054	341.309	85.5904	341.309	87.1712	341.309	84.2046	341.309	86.2344	341.309	82.6779	341.309	85.066	341.309	81.155	341.309	83.7635	341.309	79.7985	341.309	82.4469	341.309	78.7446	341.309	81.243	341.309	78.0601	341.309	80.2612	341.309	77.757	341.309	79.5732	341.309	77.8688	341.309	79.2162	341.309	78.4761	341.309	79.2212	341.309	79.5667	341.309	79.6207	341.309	80.9078	341.309	80.3931	341.309	82.1724	341.309	81.3976	341.309	83.1162	341.309	82.4076	341.309	83.6158	341.309	83.205	341.309	83.6364
353.027	88.375	353.027	87.8517	353.027	88.5088	353.027	86.9519	353.027	88.2577	353.027	85.7112	353.027	87.6421	353.027	84.1953	353.027	86.6984	353.027	82.5089	353.027	85.4814	353.027	80.8001	353.027	84.0681	353.027	79.2445	353.027	82.5609	353.027	78.0021	353.027	81.086	353.027	77.1693	353.027	79.7811	353.027	76.7893	353.027	78.7754	353.027	76.9229	353.027	78.1798	353.027	77.6463	353.027	78.0915	353.027	78.8866	353.027	78.5617	353.027	80.3471	353.027	79.5069	353.027	81.6847	353.027	80.6903	353.027	82.6655	353.027	81.8316	353.027	83.1755	353.027	82.7091	353.027	83.1823
366.211	89.407	366.211	88.8743	366.211	89.5143	366.211	87.919	366.211	89.2071	366.211	86.5609	366.211	88.5087	366.211	84.8467	366.211	87.4564	366.211	82.8667	366.211	86.1052	366.211	80.779	366.211	84.532	366.211	78.8209	366.211	82.8423	366.211	77.2709	366.211	81.1736	366.211	76.3344	366.211	79.6874	366.211	76.0446	366.211	78.5426	366.211	76.3178	366.211	77.8645	366.211	77.0866	366.211	77.7301	366.211	78.2794	366.211	78.1503	366.211	79.692	366.211	79.0266	366.211	81.0225	366.211	80.1447	366.211	82.0207	366.211	81.2451	366.211	82.5501	366.211	82.1047	366.211	82.569
379.395	89.1687	379.395	88.6463	379.395	89.265	379.395	87.6983	379.395	88.9492	379.395	86.3407	379.395	88.2502	379.395	84.6124	379.395	87.2122	379.395	82.5897	379.395	85.8951	379.395	80.411	379.395	84.3735	379.395	78.3009	379.395	82.7361	379.395	76.5584	379.395	81.0866	379.395	75.4748	379.395	79.5453	379.395	75.2163	379.395	78.2628	379.395	75.7779	379.395	77.4831	379.395	77.026	379.395	77.5586	379.395	78.7171	379.395	78.6026	379.395	80.5221	379.395	80.1947	379.395	82.1341	379.395	81.7939	379.395	83.3504	379.395	83.0821	379.395	84.0706	379.395	83.9231	379.395	84.2608
392.578	88.6026	392.578	88.0749	392.578	88.6689	392.578	87.0882	392.578	88.2873	392.578	85.6626	392.578	87.4905	392.578	83.8429	392.578	86.3333	392.578	81.7184	392.578	84.8959	392.578	79.4562	392.578	83.2808	392.578	77.3344	392.578	81.6039	392.578	75.7084	392.578	79.9861	392.578	74.848	392.578	78.5471	392.578	74.767	392.578	77.3967	392.578	75.2978	392.578	76.6536	392.578	76.3251	392.578	76.5272	392.578	77.8066	392.578	77.2617	392.578	79.5612	392.578	78.748	392.578	81.247	392.578	80.4788	392.578	82.5602	392.578	81.9886	392.578	83.3296	392.578	83.0277	392.578	83.4877
405.762	88.1359	405.762	87.6001	405.762	88.1579	405.762	86.5526	405.762	87.6765	405.762	85.0066	405.762	86.718	405.762	82.9915	405.762	85.3308	405.762	80.5694	405.762	83.5924	405.762	77.874	405.762	81.6143	405.762	75.1761	405.762	79.5386	405.762	72.9338	405.762	77.5266	405.762	71.7396	405.762	75.7491	405.762	72.0034	405.762	74.378	405.762	73.4641	405.762	73.6241	405.762	75.4875	405.762	73.8704	405.762	77.654	405.762	75.3956	405.762	79.7277	405.762	77.7019	405.762	81.5046	405.762	79.9945	405.762	82.8119	405.762	81.8312	405.762	83.5377	405.762	83.056	405.762	83.626
420.41	88.3633	420.41	87.8217	420.41	88.3607	420.41	86.7418	420.41	87.8203	420.41	85.1411	420.41	86.7672	420.41	83.0538	420.41	85.2548	420.41	80.5517	420.41	83.3784	420.41	77.7937	420.41	81.2805	420.41	75.0995	420.41	79.137	420.41	72.9358	420.41	77.1271	420.41	71.65	420.41	75.414	420.41	71.2551	420.41	74.1008	420.41	71.6462	420.41	73.1883	420.41	72.8788	420.41	72.839	420.41	74.987	420.41	73.7276	420.41	77.5304	420.41	75.9937	420.41	79.8679	420.41	78.598	420.41	81.6054	420.41	80.7396	420.41	82.5883	420.41	82.1519	420.41	82.7723
435.059	88.7372	435.059	88.0867	435.059	88.7685	435.059	86.8208	435.059	88.1735	435.059	84.9385	435.059	86.9445	435.059	82.4348	435.059	85.0804	435.059	79.3166	435.059	82.6052	435.059	75.6663	435.059	79.6171	435.059	71.8275	435.059	76.389	435.059	68.7553	435.059	73.4565	435.059	68.0376	435.059	71.416	435.059	69.8852	435.059	70.5014	435.059	72.4717	435.059	70.6049	435.059	74.7163	435.059	71.6108	435.059	76.5188	435.059	73.498	435.059	78.0974	435.059	75.9502	435.059	79.5881	435.059	78.3563	435.059	80.8787	435.059	80.2672	435.059	81.7346	435.059	81.4889	435.059	81.97
451.172	90.0818	451.172	89.4025	451.172	90.1783	451.172	88.1471	451.172	89.6829	451.172	86.3198	451.172	88.5838	451.172	83.9236	451.172	86.8641	451.172	80.9776	451.172	84.4995	451.172	77.5891	451.172	81.4621	451.172	74.1006	451.172	77.7411	451.172	70.9747	451.172	73.4229	451.172	67.9532	451.172	68.897	451.172	64.9146	451.172	65.0369	451.172	67.3302	451.172	62.8594	451.172	72.5652	451.172	63.9351	451.172	76.5312	451.172	68.2373	451.172	79.3626	451.172	72.9033	451.172	81.3257	451.172	76.75	451.172	82.5292	451.172	79.631	451.172	82.9923	451.172	81.5911	451.172	82.6934
465.82	89.2384	465.82	88.5207	465.82	89.3509	465.82	87.2031	465.82	88.8536	465.82	85.2904	465.82	87.7417	465.82	82.7809	465.82	86.0054	465.82	79.6695	465.82	83.6227	465.82	76.0143	465.82	80.5509	465.82	72.2164	465.82	76.7291	465.82	69.2133	465.82	72.1538	465.82	66.914	465.82	67.284	465.82	63.9084	465.82	63.5742	465.82	64.791	465.82	61.2535	465.82	70.7264	465.82	60.9394	465.82	75.2193	465.82	66.1334	465.82	78.3055	465.82	71.678	465.82	80.4077	465.82	75.8755	465.82	81.7099	465.82	78.8956	465.82	82.2505	465.82	80.9046	465.82	82.0002
483.398	88.8987	483.398	88.0983	483.398	89.0386	483.398	86.6266	483.398	88.5291	483.398	84.4709	483.398	87.3803	483.398	81.6098	483.398	85.5952	483.398	78.01	483.398	83.1554	483.398	73.7065	483.398	79.9991	483.398	69.4292	483.398	76.001	483.398	67.5478	483.398	71.1006	483.398	67.6397	483.398	66.4844	483.398	66.6997	483.398	65.0889	483.398	62.3358	483.398	64.1952	483.398	62.7397	483.398	59.1649	483.398	72.0777	483.398	59.9166	483.398	77.4441	483.398	70.4781	483.398	80.7526	483.398	76.1588	483.398	82.6816	483.398	79.7834	483.398	83.4914	483.398	82.0759	483.398	83.2851
499.512	88.3636	499.512	87.5345	499.512	88.4752	499.512	85.9711	499.512	87.8771	499.512	83.6343	499.512	86.5702	499.512	80.4311	499.512	84.5436	499.512	76.1432	499.512	81.7536	499.512	70.3446	499.512	78.0672	499.512	63.9536	499.512	73.1052	499.512	64.1302	499.512	65.7499	499.512	65.1172	499.512	56.571	499.512	62.8895	499.512	61.0772	499.512	59.0155	499.512	61.4461	499.512	67.5563	499.512	54.7754	499.512	73.9128	499.512	62.7723	499.512	78.0389	499.512	71.3791	499.512	80.8041	499.512	76.4468	499.512	82.512	499.512	79.8	499.512	83.2647	499.512	81.9525	499.512	83.0847
517.09	87.2855	517.09	86.3069	517.09	87.4108	517.09	84.4379	517.09	86.6965	517.09	81.5916	517.09	85.1399	517.09	77.5491	517.09	82.7191	517.09	71.6755	517.09	79.3659	517.09	62.6472	517.09	74.8461	517.09	64.5324	517.09	68.1967	517.09	68.9095	517.09	53.8406	517.09	70.3629	517.09	63.2979	517.09	69.6361	517.09	68.0923	517.09	65.8236	517.09	69.229	517.09	63.6948	517.09	67.5401	517.09	72.9596	517.09	65.3393	517.09	78.6019	517.09	72.2039	517.09	82.1147	517.09	78.0387	517.09	84.2259	517.09	81.7557	517.09	85.2005	517.09	84.0219	517.09	85.1336
536.133	88.7687	536.133	87.7935	536.133	88.8627	536.133	85.8907	536.133	88.0816	536.133	82.9524	536.133	86.3911	536.133	78.7537	536.133	83.6929	536.133	72.9326	536.133	79.7463	536.133	67.3398	536.133	73.8727	536.133	69.0328	536.133	63.1931	536.133	71.4799	536.133	62.1055	536.133	72.6663	536.133	68.5926	536.133	72.7509	536.133	71.0537	536.133	71.3218	536.133	72.045	536.133	67.3377	536.133	71.8419	536.133	68.4545	536.133	70.19	536.133	75.7811	536.133	69.2589	536.133	80.2701	536.133	74.1296	536.133	82.7943	536.133	78.9497	536.133	83.8472	536.133	82.0164	536.133	83.5923
555.176	88.822	555.176	87.8004	555.176	88.9274	555.176	85.8007	555.176	88.1333	555.176	82.6734	555.176	86.4196	555.176	78.0431	555.176	83.7107	555.176	70.7573	555.176	79.793	555.176	60.5811	555.176	73.9702	555.176	67.5647	555.176	62.4721	555.176	70.8712	555.176	63.0715	555.176	72.1712	555.176	70.2083	555.176	72.4221	555.176	72.8283	555.176	71.4433	555.176	73.7823	555.176	67.8133	555.176	73.4707	555.176	61.0798	555.176	71.4769	555.176	72.3131	555.176	67.2953	555.176	78.2675	555.176	70.7891	555.176	81.4007	555.176	77.0791	555.176	82.7225	555.176	80.7384	555.176	82.5095
574.219	88.8077	574.219	87.7086	574.219	88.9047	574.219	85.5119	574.219	88.013	574.219	81.9628	574.219	86.073	574.219	76.3422	574.219	82.9025	574.219	65.9143	574.219	77.9885	574.219	65.945	574.219	69.2715	574.219	71.3788	574.219	57.3254	574.219	73.1884	574.219	69.7792	574.219	73.8224	574.219	73.0313	574.219	73.9484	574.219	74.4276	574.219	73.3684	574.219	74.882	574.219	71.1297	574.219	74.376	574.219	66.2731	574.219	72.3761	574.219	71.2582	574.219	67.518	574.219	77.4984	574.219	67.3043	574.219	80.7797	574.219	75.0832	574.219	82.0447	574.219	79.4484	574.219	81.6119
594.727	89.1069	594.727	88.0243	594.727	89.1688	594.727	85.829	594.727	88.2192	594.727	82.2642	594.727	86.1937	594.727	76.5672	594.727	82.9035	594.727	65.6778	594.727	77.8242	594.727	67.5754	594.727	68.8444	594.727	72.8277	594.727	59.2575	594.727	74.4585	594.727	70.0704	594.727	74.5474	594.727	73.4508	594.727	73.8437	594.727	75.1497	594.727	72.818	594.727	75.9841	594.727	71.1493	594.727	76.0508	594.727	67.5334	594.727	75.0844	594.727	69.602	594.727	72.444	594.727	76.5108	594.727	70.2858	594.727	80.4633	594.727	75.5318	594.727	82.1694	594.727	79.9025	594.727	81.9937
615.234	88.258	615.234	87.1004	615.234	88.3449	615.234	84.7516	615.234	87.3761	615.234	80.8504	615.234	85.2773	615.234	74.1292	615.234	81.8143	615.234	49.7099	615.234	76.2607	615.234	69.8118	615.234	65.057	615.234	74.0099	615.234	65.9427	615.234	75.2542	615.234	72.576	615.234	75.3359	615.234	75.1307	615.234	75.0349	615.234	76.3248	615.234	74.6446	615.234	76.7463	615.234	73.6241	615.234	76.4514	615.234	70.4433	615.234	75.165	615.234	63.023	615.234	72.0216	615.234	71.3917	615.234	64.2548	615.234	76.881	615.234	68.9244	615.234	78.9387	615.234	75.7495	615.234	78.5885
637.207	88.077	637.207	86.7839	637.207	88.1806	637.207	84.1522	637.207	87.1079	637.207	79.6981	637.207	84.7596	637.207	71.3989	637.207	80.8411	637.207	60.4824	637.207	74.5232	637.207	72.5543	637.207	65.3091	637.207	75.7493	637.207	69.7492	637.207	76.6946	637.207	73.6987	637.207	76.3011	637.207	75.8446	637.207	75.0314	637.207	77.0811	637.207	73.9035	637.207	77.5592	637.207	73.526	637.207	77.3714	637.207	72.08	637.207	76.5183	637.207	67.4987	637.207	74.3821	637.207	71.4357	637.207	68.5568	637.207	77.2396	637.207	66.4378	637.207	79.4973	637.207	75.572	637.207	79.036
659.18	87.4392	659.18	85.9296	659.18	87.581	659.18	82.8193	659.18	86.3632	659.18	77.2748	659.18	83.5908	659.18	64.2048	659.18	78.6707	659.18	68.4466	659.18	70.467	659.18	74.5635	659.18	70.4611	659.18	76.8182	659.18	74.2475	659.18	77.6954	659.18	75.4949	659.18	77.6701	659.18	75.9824	659.18	76.8955	659.18	76.5109	659.18	75.6324	659.18	76.8775	659.18	74.0492	659.18	76.6139	659.18	70.9907	659.18	75.3408	659.18	58.7801	659.18	72.1642	659.18	69.8536	659.18	61.831	659.18	77.0484	659.18	68.9733	659.18	79.6627	659.18	76.6609	659.18	79.5395
682.617	87.8494	682.617	86.338	682.617	87.9598	682.617	83.1464	682.617	86.6724	682.617	77.2191	682.617	83.7196	682.617	59.765	682.617	78.117	682.617	71.1354	682.617	64.413	682.617	75.9451	682.617	71.8972	682.617	77.3465	682.617	76.5388	682.617	77.4267	682.617	77.7776	682.617	76.8614	682.617	77.8002	682.617	76.0338	682.617	77.5279	682.617	75.2004	682.617	77.2866	682.617	74.0564	682.617	76.8353	682.617	71.0272	682.617	75.5618	682.617	62.7123	682.617	72.1971	682.617	72.3374	682.617	61.964	682.617	78.3284	682.617	71.1573	682.617	80.6553	682.617	77.8078	682.617	80.487
707.52	88.0191	707.52	86.4178	707.52	88.1385	707.52	83.0105	707.52	86.7911	707.52	76.4954	707.52	83.7222	707.52	57.2934	707.52	78.051	707.52	73.6678	707.52	67.7151	707.52	77.9274	707.52	72.5823	707.52	79.5716	707.52	76.5114	707.52	79.9922	707.52	77.9618	707.52	79.4172	707.52	78.5116	707.52	77.837	707.52	78.5678	707.52	75.834	707.52	78.2228	707.52	75.1741	707.52	77.7134	707.52	75.0549	707.52	77.1863	707.52	72.7379	707.52	75.9038	707.52	72.0659	707.52	71.9216	707.52	77.6469	707.52	68.9265	707.52	80.4694	707.52	76.7522	707.52	80.2432
732.422	86.6459	732.422	84.8496	732.422	86.7767	732.422	80.993	732.422	85.2305	732.422	73.4072	732.422	81.5531	732.422	63.9379	732.422	73.7537	732.422	73.7064	732.422	67.178	732.422	77.0404	732.422	75.9389	732.422	78.6409	732.422	78.5419	732.422	79.3941	732.422	79.1788	732.422	79.3215	732.422	79.0365	732.422	78.2896	732.422	78.6165	732.422	76.5258	732.422	78.0122	732.422	75.2308	732.422	77.199	732.422	74.4791	732.422	76.1749	732.422	71.0592	732.422	74.4104	732.422	60.81	732.422	69.5285	732.422	73.8176	732.422	56.8986	732.422	77.8935	732.422	73.7444	732.422	77.8312
757.324	86.6246	757.324	84.6284	757.324	86.8056	757.324	80.2232	757.324	85.2089	757.324	70.5668	757.324	81.3781	757.324	69.7092	757.324	73.2075	757.324	76.2689	757.324	67.6491	757.324	78.3605	757.324	75.6861	757.324	79.0144	757.324	77.9128	757.324	79.1322	757.324	78.3306	757.324	78.9077	757.324	78.2884	757.324	78.1559	757.324	78.2639	757.324	76.875	757.324	77.9959	757.324	75.8392	757.324	77.1749	757.324	75.1209	757.324	75.8911	757.324	72.2477	757.324	74.0735	757.324	67.1353	757.324	69.6593	757.324	74.8409	757.324	58.9306	757.324	78.4378	757.324	73.8221	757.324	78.1535
785.156	85.9735	785.156	83.6391	785.156	86.2153	785.156	78.2015	785.156	84.456	785.156	61.9773	785.156	80.0877	785.156	73.078	785.156	70.1682	785.156	77.4207	785.156	72.148	785.156	78.6093	785.156	77.6598	785.156	78.9043	785.156	79.3228	785.156	78.9586	785.156	79.5165	785.156	78.5299	785.156	79.1967	785.156	77.1397	785.156	78.7989	785.156	74.8641	785.156	78.264	785.156	74.0179	785.156	77.3896	785.156	75.0546	785.156	76.2571	785.156	73.7969	785.156	74.8167	785.156	64.4609	785.156	71.2838	785.156	70.5948	785.156	52.6599	785.156	76.7346	785.156	72.237	785.156	77.0177
811.523	85.2725	811.523	82.7453	811.523	85.4717	811.523	76.4938	811.523	83.4149	811.523	57.8427	811.523	78.0752	811.523	75.0383	811.523	62.0121	811.523	78.3684	811.523	74.6189	811.523	79.0089	811.523	78.6999	811.523	78.8633	811.523	79.4857	811.523	78.8981	811.523	78.9664	811.523	78.9614	811.523	78.4969	811.523	78.2868	811.523	78.6188	811.523	76.5773	811.523	78.5452	811.523	75.2639	811.523	77.613	811.523	75.4969	811.523	76.02	811.523	73.8663	811.523	74.5322	811.523	64.1977	811.523	72.0157	811.523	71.6986	811.523	59.8964	811.523	77.0649	811.523	70.575	811.523	76.7419
840.82	85.9494	840.82	83.3142	840.82	86.1791	840.82	76.7703	840.82	84.0734	840.82	61.8871	840.82	78.4962	840.82	76.0733	840.82	52.1874	840.82	78.9874	840.82	75.4568	840.82	79.1616	840.82	79.412	840.82	78.3215	840.82	80.1299	840.82	77.678	840.82	79.468	840.82	77.3637	840.82	78.4787	840.82	76.4427	840.82	77.8905	840.82	74.4339	840.82	77.5209	840.82	73.1437	840.82	76.7864	840.82	74.2255	840.82	75.6147	840.82	73.612	840.82	74.2508	840.82	66.4861	840.82	71.3967	840.82	69.3281	840.82	61.7376	840.82	75.9336	840.82	71.3378	840.82	76.2875
870.117	85.625	870.117	82.8874	870.117	85.8241	870.117	75.819	870.117	83.5403	870.117	64.3215	870.117	77.2593	870.117	76.8259	870.117	60.3426	870.117	79.5266	870.117	77.4743	870.117	79.7428	870.117	80.8152	870.117	78.9612	870.117	81.2693	870.117	78.1945	870.117	80.239	870.117	77.7792	870.117	78.6969	870.117	76.911	870.117	77.6123	870.117	74.5547	870.117	76.8941	870.117	71.7852	870.117	75.7308	870.117	72.7249	870.117	74.2227	870.117	71.6538	870.117	73.1967	870.117	57.1468	870.117	70.6413	870.117	74.0957	870.117	59.9753	870.117	78.8956	870.117	73.7796	870.117	78.7201
900.879	85.0608	900.879	82.2315	900.879	85.1949	900.879	74.6936	900.879	82.6924	900.879	67.5104	900.879	75.8261	900.879	77.0432	900.879	65.2202	900.879	79.0855	900.879	77.3817	900.879	78.6234	900.879	80.2685	900.879	77.2688	900.879	80.5872	900.879	76.6659	900.879	79.7011	900.879	76.9386	900.879	78.668	900.879	76.634	900.879	78.2464	900.879	74.6647	900.879	77.9938	900.879	71.6443	900.879	76.9022	900.879	72.4607	900.879	74.4275	900.879	72.5318	900.879	71.8236	900.879	65.9553	900.879	69.9697	900.879	73.1678	900.879	58.0293	900.879	78.1106	900.879	71.6749	900.879	77.7337
933.105	84.6506	933.105	81.5688	933.105	84.8101	933.105	73.1586	933.105	82.1103	933.105	70.853	933.105	74.4382	933.105	78.1183	933.105	69.3678	933.105	79.8603	933.105	78.4159	933.105	79.2362	933.105	80.8543	933.105	77.2929	933.105	80.7912	933.105	75.7509	933.105	79.0871	933.105	75.9073	933.105	76.8412	933.105	76.0181	933.105	76.2761	933.105	74.4549	933.105	76.9025	933.105	71.3615	933.105	76.5185	933.105	72.1145	933.105	74.1836	933.105	73.0337	933.105	70.5976	933.105	66.1828	933.105	69.5821	933.105	68.9139	933.105	65.2234	933.105	76.129	933.105	68.53	933.105	75.7522
965.332	85.6344	965.332	82.5105	965.332	85.8395	965.332	74.5225	965.332	83.2282	965.332	72.8191	965.332	76.3669	965.332	78.7879	965.332	71.3628	965.332	80.0538	965.332	78.5022	965.332	78.9687	965.332	80.6856	965.332	76.3825	965.332	80.4745	965.332	73.9064	965.332	78.5993	965.332	74.0755	965.332	75.8668	965.332	74.8026	965.332	74.6646	965.332	73.4206	965.332	75.3147	965.332	70.1383	965.332	75.1951	965.332	72.6295	965.332	73.2316	965.332	74.4757	965.332	70.145	965.332	70.33	965.332	68.1866	965.332	71.1793	965.332	60.4343	965.332	77.3119	965.332	71.379	965.332	77.2805
1,000.49	84.6929	1,000.49	81.7955	1,000.49	84.7736	1,000.49	74.5484	1,000.49	82.1125	1,000.49	71.5786	1,000.49	75.5428	1,000.49	77.9543	1,000.49	70.5349	1,000.49	79.7573	1,000.49	77.4532	1,000.49	78.9678	1,000.49	80.0333	1,000.49	75.8519	1,000.49	80.0394	1,000.49	70.7522	1,000.49	77.8118	1,000.49	70.6228	1,000.49	73.7816	1,000.49	73.1121	1,000.49	72.4709	1,000.49	72.1739	1,000.49	74.4015	1,000.49	65.2955	1,000.49	74.9054	1,000.49	69.8747	1,000.49	73.1429	1,000.49	74.408	1,000.49	68.0043	1,000.49	71.8006	1,000.49	60.8379	1,000.49	58.0752	1,000.49	62.1975	1,000.49	73.9413	1,000.49	70.5422	1,000.49	75.2313
1,035.64	85.6377	1,035.64	82.538	1,035.64	85.8029	1,035.64	75.0338	1,035.64	83.0415	1,035.64	70.5098	1,035.64	76.036	1,035.64	77.1769	1,035.64	68.3578	1,035.64	79.2467	1,035.64	75.7905	1,035.64	78.9933	1,035.64	78.444	1,035.64	76.6832	1,035.64	78.8432	1,035.64	71.8979	1,035.64	77.0849	1,035.64	67.4158	1,035.64	72.7596	1,035.64	70.1894	1,035.64	67.6009	1,035.64	70.4561	1,035.64	69.8061	1,035.64	62.7324	1,035.64	71.9076	1,035.64	65.9864	1,035.64	71.2721	1,035.64	72.597	1,035.64	67.5991	1,035.64	69.5803	1,035.64	59.2236	1,035.64	65.0525	1,035.64	59.3333	1,035.64	75.3876	1,035.64	71.8413	1,035.64	76.2667
1,072.27	84.8477	1,072.27	81.3724	1,072.27	85.1112	1,072.27	72.688	1,072.27	82.2034	1,072.27	69.5445	1,072.27	74.6515	1,072.27	75.6395	1,072.27	70.8751	1,072.27	77.3554	1,072.27	75.9811	1,072.27	77.127	1,072.27	77.3649	1,072.27	74.8521	1,072.27	77.1658	1,072.27	69.5998	1,072.27	75.0146	1,072.27	59.4299	1,072.27	70.0544	1,072.27	64.4272	1,072.27	64.9512	1,072.27	67.7824	1,072.27	68.1743	1,072.27	64.4837	1,072.27	70.5373	1,072.27	61.5545	1,072.27	70.4259	1,072.27	71.1318	1,072.27	67.6479	1,072.27	71.02	1,072.27	62.0934	1,072.27	52.0987	1,072.27	52.7859	1,072.27	70.4958	1,072.27	68.5256	1,072.27	73.0217
1,108.89	84.4691	1,108.89	80.5686	1,108.89	84.9941	1,108.89	70.6761	1,108.89	82.374	1,108.89	71.4997	1,108.89	75.6722	1,108.89	75.7432	1,108.89	71.8018	1,108.89	76.3093	1,108.89	75.0234	1,108.89	75.7155	1,108.89	75.2644	1,108.89	73.7783	1,108.89	74.5115	1,108.89	69.3534	1,108.89	72.1856	1,108.89	60.507	1,108.89	66.7652	1,108.89	61.7326	1,108.89	58.3212	1,108.89	67.2344	1,108.89	62.883	1,108.89	67.3359	1,108.89	66.4905	1,108.89	63.3994	1,108.89	67.0013	1,108.89	68.3367	1,108.89	63.4724	1,108.89	68.1288	1,108.89	56.2489	1,108.89	54.1884	1,108.89	48.5787	1,108.89	71.1379	1,108.89	64.8435	1,108.89	71.9918
1,148.44	84.2581	1,148.44	80.3787	1,148.44	84.8889	1,148.44	72.5898	1,148.44	82.5111	1,148.44	72.7935	1,148.44	76.8929	1,148.44	74.6602	1,148.44	73.5141	1,148.44	73.6544	1,148.44	74.6902	1,148.44	71.8847	1,148.44	73.5901	1,148.44	69.1738	1,148.44	72.2103	1,148.44	63.4066	1,148.44	70.1013	1,148.44	42.9244	1,148.44	63.5415	1,148.44	57.0503	1,148.44	60.6198	1,148.44	60.7907	1,148.44	65.8525	1,148.44	62.3921	1,148.44	65.6653	1,148.44	61.7299	1,148.44	63.0377	1,148.44	65.5394	1,148.44	58.3079	1,148.44	66.3272	1,148.44	41.085	1,148.44	60.4389	1,148.44	59.135	1,148.44	69.1444	1,148.44	66.4875	1,148.44	70.56
1,189.45	84.2412	1,189.45	80.8839	1,189.45	84.7099	1,189.45	74.5489	1,189.45	82.4921	1,189.45	73.4641	1,189.45	77.4137	1,189.45	74.4905	1,189.45	72.5394	1,189.45	72.1684	1,189.45	72.9508	1,189.45	69.4773	1,189.45	71.8195	1,189.45	68.5951	1,189.45	70.5239	1,189.45	65.1486	1,189.45	69.191	1,189.45	60.2874	1,189.45	64.3326	1,189.45	63.0632	1,189.45	64.1158	1,189.45	60.5307	1,189.45	65.8626	1,189.45	54.2476	1,189.45	62.175	1,189.45	63.3002	1,189.45	21.5393	1,189.45	64.2758	1,189.45	60.3823	1,189.45	62.5738	1,189.45	63.1864	1,189.45	57.8736	1,189.45	65.1203	1,189.45	67.3719	1,189.45	68.7794	1,189.45	70.4914
1,230.47	84.8412	1,230.47	81.5697	1,230.47	85.1325	1,230.47	75.2176	1,230.47	82.6685	1,230.47	73.5155	1,230.47	77.4962	1,230.47	74.9615	1,230.47	73.0222	1,230.47	73.9044	1,230.47	73.607	1,230.47	71.8301	1,230.47	72.9336	1,230.47	70.5069	1,230.47	72.4989	1,230.47	68.095	1,230.47	72.5671	1,230.47	63.3902	1,230.47	70.5338	1,230.47	65.2696	1,230.47	70.1332	1,230.47	63.9385	1,230.47	70.9128	1,230.47	49.0595	1,230.47	68.7145	1,230.47	62.3283	1,230.47	62.0024	1,230.47	62.8606	1,230.47	56.93	1,230.47	59.5495	1,230.47	64.0626	1,230.47	62.834	1,230.47	67.0081	1,230.47	69.5332	1,230.47	69.44	1,230.47	71.264
1,274.41	84.505	1,274.41	80.9474	1,274.41	84.8218	1,274.41	75.0328	1,274.41	82.149	1,274.41	75.2338	1,274.41	76.9263	1,274.41	75.9246	1,274.41	73.411	1,274.41	74.6702	1,274.41	73.5298	1,274.41	73.7259	1,274.41	73.0148	1,274.41	73.2829	1,274.41	73.0574	1,274.41	71.6366	1,274.41	72.9002	1,274.41	69.8193	1,274.41	71.0996	1,274.41	69.9314	1,274.41	71.892	1,274.41	68.2294	1,274.41	72.9823	1,274.41	64.3294	1,274.41	71.0461	1,274.41	64.7673	1,274.41	65.7521	1,274.41	62.5388	1,274.41	63.2416	1,274.41	55.9396	1,274.41	64.085	1,274.41	59.7735	1,274.41	65.6957	1,274.41	66.8856	1,274.41	67.1712	1,274.41	68.576
1,319.82	83.7518	1,319.82	80.6496	1,319.82	84.4904	1,319.82	77.7916	1,319.82	82.5583	1,319.82	78.4083	1,319.82	78.532	1,319.82	78.8897	1,319.82	75.8014	1,319.82	78.3466	1,319.82	75.4694	1,319.82	77.6643	1,319.82	74.8613	1,319.82	77.0612	1,319.82	73.8835	1,319.82	76.1185	1,319.82	73.2739	1,319.82	74.3832	1,319.82	71.2464	1,319.82	73.0583	1,319.82	69.1087	1,319.82	71.5816	1,319.82	70.3068	1,319.82	65.7048	1,319.82	70.9457	1,319.82	62.0597	1,319.82	68.7984	1,319.82	62.0838	1,319.82	66.1125	1,319.82	59.7734	1,319.82	66.3305	1,319.82	61.5927	1,319.82	66.2978	1,319.82	65.7887	1,319.82	67.4512	1,319.82	68.067
1,366.7	83.9493	1,366.7	81.5786	1,366.7	84.6045	1,366.7	79.8385	1,366.7	83.0414	1,366.7	80.0487	1,366.7	80.2032	1,366.7	80.346	1,366.7	78.5315	1,366.7	80.0368	1,366.7	77.9953	1,366.7	79.4835	1,366.7	77.5611	1,366.7	78.8043	1,366.7	77.4353	1,366.7	77.89	1,366.7	76.9687	1,366.7	76.2715	1,366.7	75.0943	1,366.7	74.7164	1,366.7	73.5918	1,366.7	75.3778	1,366.7	73.6274	1,366.7	73.9018	1,366.7	73.2426	1,366.7	71.0802	1,366.7	71.059	1,366.7	67.4822	1,366.7	67.3899	1,366.7	30.9712	1,366.7	65.9699	1,366.7	59.7602	1,366.7	66.6766	1,366.7	62.3689	1,366.7	66.0939	1,366.7	63.8646
1,413.57	83.2823	1,413.57	81.473	1,413.57	83.69	1,413.57	80.0087	1,413.57	82.5079	1,413.57	80.349	1,413.57	80.8587	1,413.57	81.1683	1,413.57	80.3466	1,413.57	80.9966	1,413.57	80.5542	1,413.57	79.8916	1,413.57	80.4431	1,413.57	78.6229	1,413.57	79.8672	1,413.57	77.321	1,413.57	79.11	1,413.57	76.0904	1,413.57	77.824	1,413.57	75.6393	1,413.57	76.0366	1,413.57	76.4387	1,413.57	75.2453	1,413.57	76.8238	1,413.57	74.5564	1,413.57	76.2582	1,413.57	72.2034	1,413.57	72.8512	1,413.57	68.7523	1,413.57	56.7059	1,413.57	66.0861	1,413.57	57.481	1,413.57	69.5947	1,413.57	54.7105	1,413.57	69.6223	1,413.57	57.961
1,463.38	83.6393	1,463.38	82.1402	1,463.38	83.6829	1,463.38	80.8445	1,463.38	82.291	1,463.38	81.3896	1,463.38	80.9738	1,463.38	82.6049	1,463.38	81.2544	1,463.38	82.6753	1,463.38	82.4558	1,463.38	81.6971	1,463.38	83.0206	1,463.38	80.3296	1,463.38	82.3564	1,463.38	77.9335	1,463.38	81.3745	1,463.38	76.0801	1,463.38	79.7459	1,463.38	75.1103	1,463.38	76.9962	1,463.38	75.1432	1,463.38	77.0054	1,463.38	76.3637	1,463.38	76.9762	1,463.38	76.7884	1,463.38	76.5823	1,463.38	75.1158	1,463.38	75.2492	1,463.38	61.3144	1,463.38	70.9028	1,463.38	58.2287	1,463.38	69.1175	1,463.38	64.1241	1,463.38	69.1047	1,463.38	65.3689
1,516.11	84.1153	1,516.11	82.6377	1,516.11	84.0697	1,516.11	81.6549	1,516.11	82.3804	1,516.11	82.6195	1,516.11	81.3888	1,516.11	84.2668	1,516.11	82.8321	1,516.11	84.5895	1,516.11	84.6977	1,516.11	83.1615	1,516.11	85.2809	1,516.11	81.5461	1,516.11	84.4724	1,516.11	80.2265	1,516.11	83.0692	1,516.11	77.8497	1,516.11	81.3038	1,516.11	76.1126	1,516.11	78.7046	1,516.11	73.7218	1,516.11	77.1188	1,516.11	73.5397	1,516.11	78.632	1,516.11	76.0579	1,516.11	78.6508	1,516.11	75.2972	1,516.11	76.9816	1,516.11	67.5932	1,516.11	73.6549	1,516.11	62.8253	1,516.11	67.1997	1,516.11	64.3234	1,516.11	69.8527	1,516.11	59.6083
1,568.85	85.0996	1,568.85	83.9637	1,568.85	84.8884	1,568.85	83.2005	1,568.85	83.0137	1,568.85	84.0325	1,568.85	81.4632	1,568.85	85.3504	1,568.85	82.7604	1,568.85	85.7236	1,568.85	84.7764	1,568.85	84.5114	1,568.85	85.2025	1,568.85	82.1876	1,568.85	84.0391	1,568.85	80.666	1,568.85	82.1469	1,568.85	79.3131	1,568.85	80.1492	1,568.85	76.6489	1,568.85	78.3982	1,568.85	75.7374	1,568.85	76.6663	1,568.85	74.848	1,568.85	77.4859	1,568.85	71.9502	1,568.85	78.5275	1,568.85	72.0299	1,568.85	76.8997	1,568.85	61.3185	1,568.85	74.0503	1,568.85	65.8167	1,568.85	69.2531	1,568.85	58.7516	1,568.85	72.0851	1,568.85	62.3766
1,624.51	84.7715	1,624.51	82.6133	1,624.51	85.2546	1,624.51	81.9276	1,624.51	83.6905	1,624.51	84.0051	1,624.51	82.4489	1,624.51	85.5432	1,624.51	84.0903	1,624.51	85.8999	1,624.51	86.0011	1,624.51	85.0884	1,624.51	86.3902	1,624.51	82.7386	1,624.51	85.3482	1,624.51	80.8891	1,624.51	83.1447	1,624.51	80.0837	1,624.51	80.3698	1,624.51	77.9448	1,624.51	78.5724	1,624.51	76.5419	1,624.51	76.2916	1,624.51	76.8647	1,624.51	77.0812	1,624.51	75.7788	1,624.51	77.4787	1,624.51	73.8596	1,624.51	76.3744	1,624.51	48.6442	1,624.51	74.0604	1,624.51	68.1906	1,624.51	65.2818	1,624.51	63.1743	1,624.51	68.8292	1,624.51	64.1741
1,681.64	84.537	1,681.64	82.6456	1,681.64	84.8171	1,681.64	81.94	1,681.64	83.1686	1,681.64	83.6603	1,681.64	81.6912	1,681.64	85.6291	1,681.64	83.406	1,681.64	86.389	1,681.64	85.8588	1,681.64	85.1687	1,681.64	86.5365	1,681.64	82.7628	1,681.64	85.7822	1,681.64	81.2856	1,681.64	84.1195	1,681.64	80.19	1,681.64	81.6103	1,681.64	80.2841	1,681.64	78.7071	1,681.64	77.9113	1,681.64	76.839	1,681.64	77.3077	1,681.64	76.7661	1,681.64	79.0276	1,681.64	78.3614	1,681.64	77.846	1,681.64	77.7254	1,681.64	61.6945	1,681.64	75.4059	1,681.64	68.522	1,681.64	58.289	1,681.64	67.7469	1,681.64	70.5568	1,681.64	67.5959
1,741.7	85.9346	1,741.7	84.1272	1,741.7	86.3011	1,741.7	82.6872	1,741.7	84.8718	1,741.7	84.2231	1,741.7	83.3323	1,741.7	85.3383	1,741.7	84.5281	1,741.7	84.9636	1,741.7	86.7198	1,741.7	84.144	1,741.7	86.8536	1,741.7	81.6773	1,741.7	85.6009	1,741.7	78.7464	1,741.7	84.6767	1,741.7	79.1474	1,741.7	82.7744	1,741.7	79.582	1,741.7	79.7607	1,741.7	79.216	1,741.7	77.4785	1,741.7	75.5065	1,741.7	75.7618	1,741.7	76.0471	1,741.7	79.0932	1,741.7	77.8004	1,741.7	79.0483	1,741.7	63.2233	1,741.7	75.8303	1,741.7	69.655	1,741.7	60.6951	1,741.7	60.1095	1,741.7	71.3992	1,741.7	66.9799
1,803.22	87.0673	1,803.22	86.3105	1,803.22	86.7839	1,803.22	84.7086	1,803.22	85.8315	1,803.22	85.1436	1,803.22	84.8227	1,803.22	86.4951	1,803.22	85.6902	1,803.22	86.4312	1,803.22	87.2024	1,803.22	85.4374	1,803.22	87.305	1,803.22	83.0409	1,803.22	86.0966	1,803.22	78.72	1,803.22	84.8897	1,803.22	75.5207	1,803.22	83.5531	1,803.22	75.2405	1,803.22	81.3675	1,803.22	77.7475	1,803.22	79.1913	1,803.22	76.5996	1,803.22	77.128	1,803.22	75.733	1,803.22	78.5274	1,803.22	75.8105	1,803.22	78.256	1,803.22	61.8225	1,803.22	76.9789	1,803.22	72.7701	1,803.22	70.2466	1,803.22	69.282	1,803.22	69.3536	1,803.22	69.6843
1,866.21	87.1503	1,866.21	87.1035	1,866.21	87.1766	1,866.21	86.1177	1,866.21	86.755	1,866.21	86.0868	1,866.21	85.1847	1,866.21	87.2632	1,866.21	85.488	1,866.21	87.5552	1,866.21	86.9189	1,866.21	86.8112	1,866.21	86.8114	1,866.21	84.8654	1,866.21	85.5228	1,866.21	81.8663	1,866.21	83.723	1,866.21	79.991	1,866.21	82.2833	1,866.21	77.9981	1,866.21	81.1459	1,866.21	76.8196	1,866.21	79.055	1,866.21	75.6656	1,866.21	77.1264	1,866.21	74.7305	1,866.21	78.5333	1,866.21	75.6807	1,866.21	78.5915	1,866.21	59.3918	1,866.21	75.6614	1,866.21	72.9151	1,866.21	69.4301	1,866.21	65.5699	1,866.21	67.6891	1,866.21	60.527
1,932.13	86.9648	1,932.13	86.834	1,932.13	86.6692	1,932.13	85.443	1,932.13	86.6781	1,932.13	85.7689	1,932.13	85.5422	1,932.13	86.891	1,932.13	85.0612	1,932.13	87.0742	1,932.13	86.4646	1,932.13	86.4227	1,932.13	86.4673	1,932.13	85.0709	1,932.13	85.3101	1,932.13	82.1198	1,932.13	83.696	1,932.13	79.9378	1,932.13	81.0919	1,932.13	79.2336	1,932.13	78.846	1,932.13	79.4426	1,932.13	77.7094	1,932.13	78.0946	1,932.13	75.9828	1,932.13	71.9927	1,932.13	75.4996	1,932.13	73.587	1,932.13	77.5737	1,932.13	59.3658	1,932.13	69.2553	1,932.13	73.7874	1,932.13	60.4411	1,932.13	70.4623	1,932.13	71.8426	1,932.13	69.4591
1,999.51	86.3775	1,999.51	86.8202	1,999.51	86.3266	1,999.51	85.1312	1,999.51	87.11	1,999.51	84.2832	1,999.51	86.2346	1,999.51	85.8621	1,999.51	85.1078	1,999.51	86.5723	1,999.51	86.3512	1,999.51	86.0172	1,999.51	87.1896	1,999.51	84.3721	1,999.51	86.4835	1,999.51	81.539	1,999.51	84.8585	1,999.51	79.1106	1,999.51	82.7206	1,999.51	78.8182	1,999.51	80.7074	1,999.51	78.6176	1,999.51	79.0612	1,999.51	77.1852	1,999.51	77.6465	1,999.51	75.8564	1,999.51	77.5811	1,999.51	71.289	1,999.51	78.4624	1,999.51	59.4109	1,999.51	72.1612	1,999.51	72.2608	1,999.51	67.854	1,999.51	54.9613	1,999.51	68.4088	1,999.51	57.8473
2,069.82	87.6534	2,069.82	88.2538	2,069.82	87.2717	2,069.82	86.4217	2,069.82	87.7585	2,069.82	84.3719	2,069.82	86.6989	2,069.82	85.8653	2,069.82	84.8081	2,069.82	86.8538	2,069.82	86.0399	2,069.82	86.4532	2,069.82	87.4742	2,069.82	84.9883	2,069.82	87.0428	2,069.82	81.8736	2,069.82	85.3725	2,069.82	78.8349	2,069.82	83.0958	2,069.82	77.257	2,069.82	81.0855	2,069.82	77.8725	2,069.82	79.9361	2,069.82	75.8408	2,069.82	78.3687	2,069.82	75.3354	2,069.82	77.8718	2,069.82	70.5238	2,069.82	78.8313	2,069.82	60.9362	2,069.82	72.7346	2,069.82	74.2696	2,069.82	68.7962	2,069.82	59.8879	2,069.82	70.724	2,069.82	62.6902
2,143.07	87.9829	2,143.07	88.3573	2,143.07	87.8414	2,143.07	86.959	2,143.07	88.039	2,143.07	84.8435	2,143.07	86.2107	2,143.07	85.7653	2,143.07	83.4347	2,143.07	87.1663	2,143.07	84.3993	2,143.07	86.7087	2,143.07	86.4662	2,143.07	85.2717	2,143.07	86.1778	2,143.07	83.0925	2,143.07	84.2781	2,143.07	79.7231	2,143.07	81.9405	2,143.07	77.9326	2,143.07	78.904	2,143.07	77.0083	2,143.07	78.8431	2,143.07	76.2368	2,143.07	76.7793	2,143.07	73.5813	2,143.07	76.281	2,143.07	66.0837	2,143.07	77.0838	2,143.07	64.7047	2,143.07	71.24	2,143.07	74.0135	2,143.07	68.7892	2,143.07	66.4308	2,143.07	71.6363	2,143.07	67.2125
2,219.24	88.1469	2,219.24	88.1348	2,219.24	87.8673	2,219.24	86.4907	2,219.24	88.0982	2,219.24	84.4235	2,219.24	86.8628	2,219.24	85.4244	2,219.24	83.7128	2,219.24	86.7891	2,219.24	83.6588	2,219.24	86.3506	2,219.24	85.7823	2,219.24	84.6356	2,219.24	85.9825	2,219.24	82.9905	2,219.24	84.1692	2,219.24	80.5857	2,219.24	81.8549	2,219.24	78.5425	2,219.24	78.8405	2,219.24	77.4785	2,219.24	78.0054	2,219.24	76.8054	2,219.24	76.786	2,219.24	73.1275	2,219.24	75.7376	2,219.24	65.6658	2,219.24	74.7328	2,219.24	66.8167	2,219.24	69.6016	2,219.24	73.4407	2,219.24	68.2916	2,219.24	64.6644	2,219.24	71.3326	2,219.24	68.4827
2,296.88	88.8923	2,296.88	88.6141	2,296.88	88.9081	2,296.88	86.8706	2,296.88	88.8925	2,296.88	83.933	2,296.88	87.8563	2,296.88	84.5609	2,296.88	85.1638	2,296.88	86.3165	2,296.88	84.8188	2,296.88	85.7534	2,296.88	86.6055	2,296.88	83.7245	2,296.88	86.6381	2,296.88	81.4166	2,296.88	84.9313	2,296.88	79.6549	2,296.88	82.6505	2,296.88	78.3412	2,296.88	80.3214	2,296.88	77.3745	2,296.88	79.0526	2,296.88	77.3606	2,296.88	78.1973	2,296.88	73.273	2,296.88	77.3173	2,296.88	69.1903	2,296.88	74.9975	2,296.88	66.9302	2,296.88	71.9133	2,296.88	73.4932	2,296.88	69.0083	2,296.88	67.7311	2,296.88	72.1252	2,296.88	69.1723
2,378.91	88.6775	2,378.91	88.2923	2,378.91	88.9449	2,378.91	87.444	2,378.91	88.4535	2,378.91	85.1036	2,378.91	87.5302	2,378.91	84.5337	2,378.91	85.0533	2,378.91	86.1319	2,378.91	84.1761	2,378.91	86.0856	2,378.91	86.0328	2,378.91	84.3357	2,378.91	86.0179	2,378.91	81.8383	2,378.91	84.2752	2,378.91	79.0966	2,378.91	81.9946	2,378.91	77.3848	2,378.91	79.9535	2,378.91	76.0159	2,378.91	78.0916	2,378.91	76.1355	2,378.91	78.511	2,378.91	70.3853	2,378.91	76.9059	2,378.91	69.24	2,378.91	74.6653	2,378.91	68.8978	2,378.91	71.4105	2,378.91	71.9326	2,378.91	70.2581	2,378.91	67.6613	2,378.91	73.3042	2,378.91	67.5721
2,462.4	87.8151	2,462.4	86.7986	2,462.4	87.7779	2,462.4	86.3583	2,462.4	86.7346	2,462.4	83.9927	2,462.4	86.5171	2,462.4	83.241	2,462.4	84.0708	2,462.4	85.2153	2,462.4	82.0755	2,462.4	85.6113	2,462.4	83.9745	2,462.4	84.3087	2,462.4	84.2284	2,462.4	82.1777	2,462.4	83.0371	2,462.4	79.5992	2,462.4	80.6148	2,462.4	77.9053	2,462.4	78.3164	2,462.4	76.3934	2,462.4	76.1105	2,462.4	75.3334	2,462.4	76.4763	2,462.4	69.9967	2,462.4	75.373	2,462.4	66.5273	2,462.4	72.3754	2,462.4	70.8862	2,462.4	68.3604	2,462.4	71.3058	2,462.4	68.6665	2,462.4	67.8476	2,462.4	71.3483	2,462.4	67.1865
2,548.83	88.3683	2,548.83	87.0538	2,548.83	88.6629	2,548.83	86.9213	2,548.83	87.0657	2,548.83	83.9181	2,548.83	87.068	2,548.83	81.8639	2,548.83	85.1347	2,548.83	84.2398	2,548.83	82.2633	2,548.83	84.7986	2,548.83	84.472	2,548.83	83.4027	2,548.83	85.4157	2,548.83	81.1526	2,548.83	84.0751	2,548.83	78.5946	2,548.83	82.0872	2,548.83	77.8901	2,548.83	79.4829	2,548.83	76.9077	2,548.83	77.6953	2,548.83	75.3093	2,548.83	76.2274	2,548.83	70.1818	2,548.83	75.0991	2,548.83	66.0011	2,548.83	72.2465	2,548.83	71.4988	2,548.83	67.4371	2,548.83	69.3043	2,548.83	68.395	2,548.83	67.5649	2,548.83	68.9535	2,548.83	66.2257
2,639.65	88.7296	2,639.65	87.5692	2,639.65	88.7905	2,639.65	87.5485	2,639.65	87.5912	2,639.65	85.1306	2,639.65	87.2445	2,639.65	81.772	2,639.65	84.7894	2,639.65	84.2539	2,639.65	81.2621	2,639.65	85.4643	2,639.65	84.1215	2,639.65	83.9685	2,639.65	85.3573	2,639.65	81.3513	2,639.65	84.156	2,639.65	77.9718	2,639.65	82.1407	2,639.65	76.4999	2,639.65	79.4837	2,639.65	74.6818	2,639.65	78.2296	2,639.65	74.0104	2,639.65	76.8675	2,639.65	69.3776	2,639.65	76.6098	2,639.65	66.5966	2,639.65	73.1063	2,639.65	71.2336	2,639.65	66.0871	2,639.65	67.7243	2,639.65	69.8379	2,639.65	67.3822	2,639.65	70.6115	2,639.65	66.072
2,731.93	87.3869	2,731.93	86.2859	2,731.93	87.4634	2,731.93	86.3428	2,731.93	86.1035	2,731.93	84.2689	2,731.93	85.8933	2,731.93	81.4925	2,731.93	83.6654	2,731.93	83.8245	2,731.93	78.9242	2,731.93	85.1699	2,731.93	82.2428	2,731.93	83.965	2,731.93	84.0452	2,731.93	81.49	2,731.93	82.648	2,731.93	78.9596	2,731.93	80.1915	2,731.93	76.8451	2,731.93	77.4955	2,731.93	75.5083	2,731.93	76.4213	2,731.93	73.4369	2,731.93	75.1018	2,731.93	68.0346	2,731.93	74.3696	2,731.93	67.1547	2,731.93	72.2135	2,731.93	71.3394	2,731.93	63.729	2,731.93	65.7307	2,731.93	69.113	2,731.93	68.2209	2,731.93	69.2794	2,731.93	66.8037
2,828.61	86.8848	2,828.61	86.3192	2,828.61	86.9948	2,828.61	85.4842	2,828.61	86.4596	2,828.61	83.3759	2,828.61	85.6817	2,828.61	80.4915	2,828.61	83.8708	2,828.61	82.9095	2,828.61	80.5398	2,828.61	83.9798	2,828.61	82.0089	2,828.61	82.7877	2,828.61	83.6742	2,828.61	80.014	2,828.61	82.859	2,828.61	77.8837	2,828.61	79.8818	2,828.61	76.06	2,828.61	77.1898	2,828.61	76.0862	2,828.61	75.5302	2,828.61	73.5791	2,828.61	74.6748	2,828.61	68.5738	2,828.61	73.3238	2,828.61	67.8045	2,828.61	70.3266	2,828.61	69.8617	2,828.61	63.1973	2,828.61	63.4682	2,828.61	69.1495	2,828.61	65.8579	2,828.61	68.5779	2,828.61	66.9671
2,928.22	87.2434	2,928.22	86.8953	2,928.22	87.3447	2,928.22	85.586	2,928.22	87.131	2,928.22	84.4362	2,928.22	85.9059	2,928.22	81.3763	2,928.22	84.5362	2,928.22	82.5933	2,928.22	81.3328	2,928.22	83.6923	2,928.22	82.2975	2,928.22	82.4183	2,928.22	83.7544	2,928.22	79.5364	2,928.22	82.9335	2,928.22	76.9009	2,928.22	80.2288	2,928.22	74.5595	2,928.22	77.6008	2,928.22	74.2448	2,928.22	75.863	2,928.22	72.0554	2,928.22	75.5227	2,928.22	67.1741	2,928.22	73.7068	2,928.22	66.7733	2,928.22	69.5131	2,928.22	70.6183	2,928.22	64.717	2,928.22	61.8086	2,928.22	69.6729	2,928.22	65.8405	2,928.22	67.8895	2,928.22	68.2253
3,030.76	86.6761	3,030.76	86.7295	3,030.76	86.5086	3,030.76	85.1273	3,030.76	86.7883	3,030.76	84.601	3,030.76	85.3524	3,030.76	82.1594	3,030.76	84.4358	3,030.76	82.3086	3,030.76	81.3701	3,030.76	83.4995	3,030.76	80.9858	3,030.76	82.1418	3,030.76	82.5775	3,030.76	79.9726	3,030.76	82.1741	3,030.76	76.8584	3,030.76	79.4189	3,030.76	74.9437	3,030.76	76.6445	3,030.76	74.3781	3,030.76	75.5828	3,030.76	72.517	3,030.76	74.2524	3,030.76	62.84	3,030.76	73.4667	3,030.76	67.7961	3,030.76	67.4088	3,030.76	71.0626	3,030.76	66.1129	3,030.76	64.2729	3,030.76	69.1589	3,030.76	63.8279	3,030.76	66.6013	3,030.76	66.5711
3,137.7	86.2415	3,137.7	86.3251	3,137.7	86.1158	3,137.7	84.4823	3,137.7	86.5856	3,137.7	84.3831	3,137.7	84.8011	3,137.7	81.6297	3,137.7	84.6217	3,137.7	81.496	3,137.7	81.7726	3,137.7	82.6638	3,137.7	79.9464	3,137.7	81.686	3,137.7	81.9608	3,137.7	79.2776	3,137.7	81.5148	3,137.7	76.3801	3,137.7	79.5709	3,137.7	74.1382	3,137.7	76.1769	3,137.7	73.6142	3,137.7	74.4773	3,137.7	72.5656	3,137.7	74.9339	3,137.7	57.0877	3,137.7	72.3899	3,137.7	66.469	3,137.7	66.9655	3,137.7	70.2779	3,137.7	67.9457	3,137.7	63.9061	3,137.7	70.1631	3,137.7	63.8285	3,137.7	68.1776	3,137.7	64.3758
3,249.02	86.8578	3,249.02	87.3208	3,249.02	86.6059	3,249.02	85.5663	3,249.02	87.3382	3,249.02	84.9187	3,249.02	85.764	3,249.02	81.6287	3,249.02	85.1498	3,249.02	80.9506	3,249.02	82.5488	3,249.02	82.4528	3,249.02	80.218	3,249.02	81.4759	3,249.02	82.1594	3,249.02	78.2238	3,249.02	81.6465	3,249.02	75.4378	3,249.02	79.5586	3,249.02	74.1047	3,249.02	76.1063	3,249.02	72.6973	3,249.02	74.5183	3,249.02	72.1444	3,249.02	73.6324	3,249.02	51.8451	3,249.02	73.5898	3,249.02	67.5111	3,249.02	67.1762	3,249.02	70.3024	3,249.02	68.7379	3,249.02	59.7883	3,249.02	69.252	3,249.02	63.3377	3,249.02	66.2935	3,249.02	63.6222
3,363.28	86.758	3,363.28	87.2992	3,363.28	86.6545	3,363.28	86.0678	3,363.28	87.068	3,363.28	84.8789	3,363.28	85.8169	3,363.28	82.0284	3,363.28	84.9636	3,363.28	81.4816	3,363.28	82.9841	3,363.28	83.0801	3,363.28	80.3161	3,363.28	82.0636	3,363.28	81.7281	3,363.28	78.6954	3,363.28	81.4404	3,363.28	76.2048	3,363.28	79.1777	3,363.28	73.9909	3,363.28	75.3281	3,363.28	71.9394	3,363.28	73.2138	3,363.28	69.8378	3,363.28	72.6518	3,363.28	56.9297	3,363.28	72.6123	3,363.28	69.1407	3,363.28	67.7977	3,363.28	68.7681	3,363.28	69.9036	3,363.28	53.333	3,363.28	68.1049	3,363.28	58.9251	3,363.28	67.1645	3,363.28	67.2003
3,481.93	87.4436	3,481.93	87.6544	3,481.93	87.3302	3,481.93	86.3906	3,481.93	87.5805	3,481.93	84.3642	3,481.93	86.7452	3,481.93	82.4031	3,481.93	85.4022	3,481.93	80.4235	3,481.93	84.0804	3,481.93	82.6661	3,481.93	81.5065	3,481.93	81.3985	3,481.93	81.6695	3,481.93	78.5403	3,481.93	81.9081	3,481.93	76.1751	3,481.93	79.1597	3,481.93	74.3552	3,481.93	75.7094	3,481.93	73.0262	3,481.93	74.1674	3,481.93	70.3615	3,481.93	74.5007	3,481.93	53.5248	3,481.93	72.8913	3,481.93	67.3883	3,481.93	67.2025	3,481.93	70.9979	3,481.93	68.3972	3,481.93	56.9383	3,481.93	69.0868	3,481.93	61.033	3,481.93	66.7211	3,481.93	62.2511
3,604.98	88.2152	3,604.98	88.6309	3,604.98	88.0786	3,604.98	87.532	3,604.98	87.9824	3,604.98	85.6067	3,604.98	87.327	3,604.98	83.847	3,604.98	85.3962	3,604.98	79.8055	3,604.98	84.5302	3,604.98	82.1909	3,604.98	80.8149	3,604.98	80.7514	3,604.98	81.1608	3,604.98	78.4239	3,604.98	80.0282	3,604.98	75.7642	3,604.98	78.6227	3,604.98	73.2335	3,604.98	74.5471	3,604.98	74.5605	3,604.98	72.6528	3,604.98	70.6306	3,604.98	75.2282	3,604.98	56.3657	3,604.98	70.3238	3,604.98	69.1522	3,604.98	66.1528	3,604.98	69.1971	3,604.98	70.4258	3,604.98	50.6582	3,604.98	66.2268	3,604.98	62.1873	3,604.98	62.4713	3,604.98	68.1699
3,732.42	88.9355	3,732.42	89.3812	3,732.42	88.8743	3,732.42	88.1296	3,732.42	88.9526	3,732.42	86.288	3,732.42	88.3329	3,732.42	84.6598	3,732.42	86.7453	3,732.42	79.3806	3,732.42	85.5432	3,732.42	81.976	3,732.42	81.5089	3,732.42	81.4364	3,732.42	82.5008	3,732.42	78.151	3,732.42	81.789	3,732.42	75.5264	3,732.42	79.5174	3,732.42	73.2216	3,732.42	76.5417	3,732.42	72.8173	3,732.42	72.7626	3,732.42	69.8655	3,732.42	74.903	3,732.42	57.2176	3,732.42	72.2414	3,732.42	69.4741	3,732.42	69.5057	3,732.42	70.8957	3,732.42	71.014	3,732.42	57.8622	3,732.42	70.659	3,732.42	64.7243	3,732.42	67.2746	3,732.42	67.7174
3,864.26	89.4197	3,864.26	89.8604	3,864.26	89.1439	3,864.26	88.8508	3,864.26	89.0657	3,864.26	86.8546	3,864.26	88.2925	3,864.26	85.2518	3,864.26	86.7053	3,864.26	79.3751	3,864.26	84.7998	3,864.26	81.3238	3,864.26	80.1741	3,864.26	81.7219	3,864.26	81.5698	3,864.26	78.064	3,864.26	80.7072	3,864.26	74.6504	3,864.26	78.0101	3,864.26	72.9483	3,864.26	75.0174	3,864.26	72.6139	3,864.26	72.2115	3,864.26	68.8772	3,864.26	73.0095	3,864.26	51.0264	3,864.26	72.049	3,864.26	70.0674	3,864.26	70.4774	3,864.26	67.8463	3,864.26	71.0085	3,864.26	55.4925	3,864.26	70.8605	3,864.26	60.5357	3,864.26	68.2651	3,864.26	66.1331
4,000.49	90.03	4,000.49	90.2627	4,000.49	89.9638	4,000.49	89.5844	4,000.49	90.1053	4,000.49	86.9926	4,000.49	89.5232	4,000.49	84.8643	4,000.49	87.7044	4,000.49	79.9145	4,000.49	85.4079	4,000.49	80.975	4,000.49	81.946	4,000.49	81.3068	4,000.49	81.6727	4,000.49	78.0307	4,000.49	81.215	4,000.49	74.3185	4,000.49	79.2923	4,000.49	73.7259	4,000.49	76.7955	4,000.49	72.3491	4,000.49	73.2611	4,000.49	70.4154	4,000.49	71.5307	4,000.49	50.1791	4,000.49	72.9969	4,000.49	68.7863	4,000.49	68.3018	4,000.49	69.0866	4,000.49	71.2594	4,000.49	63.1087	4,000.49	70.2857	4,000.49	56.0658	4,000.49	63.7364	4,000.49	68.2976
4,141.11	90.0733	4,141.11	90.4606	4,141.11	89.925	4,141.11	90.0169	4,141.11	89.8899	4,141.11	87.5015	4,141.11	89.5321	4,141.11	84.4241	4,141.11	87.392	4,141.11	81.4727	4,141.11	85.5905	4,141.11	81.5095	4,141.11	81.7386	4,141.11	81.7759	4,141.11	81.0973	4,141.11	79.3864	4,141.11	81.2847	4,141.11	74.1898	4,141.11	76.6756	4,141.11	68.3889	4,141.11	74.311	4,141.11	70.6905	4,141.11	70.3383	4,141.11	71.5991	4,141.11	69.0088	4,141.11	63.3345	4,141.11	71.9372	4,141.11	67.0187	4,141.11	67.5843	4,141.11	70.9726	4,141.11	71.3819	4,141.11	64.0956	4,141.11	68.4458	4,141.11	61.3876	4,141.11	63.8436	4,141.11	70.0908
4,287.6	90.0471	4,287.6	90.0631	4,287.6	89.8839	4,287.6	89.9321	4,287.6	90.1293	4,287.6	87.4884	4,287.6	89.7949	4,287.6	84.2801	4,287.6	87.8398	4,287.6	79.6427	4,287.6	86.1677	4,287.6	80.7757	4,287.6	81.9649	4,287.6	80.8465	4,287.6	81.1768	4,287.6	79.3179	4,287.6	81.5525	4,287.6	73.3994	4,287.6	79.3117	4,287.6	70.1984	4,287.6	75.6729	4,287.6	74.123	4,287.6	72.5304	4,287.6	69.4113	4,287.6	73.335	4,287.6	66.3916	4,287.6	71.7217	4,287.6	69.2694	4,287.6	63.5819	4,287.6	70.003	4,287.6	71.4732	4,287.6	58.006	4,287.6	68.018	4,287.6	62.3143	4,287.6	61.201	4,287.6	65.7807
4,438.48	89.9618	4,438.48	89.6379	4,438.48	89.9332	4,438.48	89.9434	4,438.48	90.5011	4,438.48	88.4043	4,438.48	89.685	4,438.48	86.5647	4,438.48	88.2913	4,438.48	80.4461	4,438.48	85.5295	4,438.48	80.3902	4,438.48	81.2994	4,438.48	79.9289	4,438.48	81.4004	4,438.48	76.5964	4,438.48	81.0285	4,438.48	75.3832	4,438.48	80.1853	4,438.48	69.9489	4,438.48	76.3412	4,438.48	72.7517	4,438.48	73.8028	4,438.48	67.7623	4,438.48	72.4142	4,438.48	64.2948	4,438.48	72.8442	4,438.48	63.2238	4,438.48	56.7898	4,438.48	68.421	4,438.48	72.1713	4,438.48	62.0569	4,438.48	66.7251	4,438.48	59.2736	4,438.48	58.3793	4,438.48	66.2222
4,595.21	89.3844	4,595.21	89.2841	4,595.21	89.7741	4,595.21	89.2725	4,595.21	89.8456	4,595.21	88.1393	4,595.21	89.3814	4,595.21	86.6777	4,595.21	88.2272	4,595.21	81.2317	4,595.21	85.1361	4,595.21	78.6788	4,595.21	81.0537	4,595.21	78.2729	4,595.21	80.9027	4,595.21	76.3629	4,595.21	80.2031	4,595.21	77.9773	4,595.21	78.0823	4,595.21	71.9583	4,595.21	73.2647	4,595.21	73.8542	4,595.21	73.2803	4,595.21	65.9428	4,595.21	70.9597	4,595.21	57.2471	4,595.21	72.7459	4,595.21	64.5735	4,595.21	61.9673	4,595.21	63.7233	4,595.21	68.6606	4,595.21	50.4078	4,595.21	60.873	4,595.21	57.6398	4,595.21	65.4554	4,595.21	62.0862
4,756.35	89.0622	4,756.35	89.3046	4,756.35	89.7051	4,756.35	88.3563	4,756.35	89.571	4,756.35	87.8898	4,756.35	89.4681	4,756.35	85.1679	4,756.35	88.0408	4,756.35	83.4922	4,756.35	85.3615	4,756.35	79.8189	4,756.35	81.5075	4,756.35	81.0525	4,756.35	80.0716	4,756.35	78.1183	4,756.35	78.9095	4,756.35	76.5678	4,756.35	75.8888	4,756.35	68.4676	4,756.35	72.8417	4,756.35	73.1058	4,756.35	69.4665	4,756.35	64.7333	4,756.35	70.5426	4,756.35	57.2279	4,756.35	69.7673	4,756.35	60.9855	4,756.35	46.2593	4,756.35	56.8946	4,756.35	67.8806	4,756.35	55.4086	4,756.35	49.7527	4,756.35	60.6992	4,756.35	61.7325	4,756.35	60.46
4,924.8	89.2925	4,924.8	88.5793	4,924.8	89.1505	4,924.8	88.4592	4,924.8	89.2956	4,924.8	88.0445	4,924.8	88.8694	4,924.8	84.6973	4,924.8	87.818	4,924.8	83.2037	4,924.8	85.4699	4,924.8	79.3917	4,924.8	81.2626	4,924.8	80.1116	4,924.8	78.7725	4,924.8	78.8425	4,924.8	79.8594	4,924.8	74.2618	4,924.8	76.9477	4,924.8	72.3156	4,924.8	73.0034	4,924.8	72.1968	4,924.8	68.6666	4,924.8	59.6266	4,924.8	69.2198	4,924.8	63.3236	4,924.8	65.0469	4,924.8	61.0315	4,924.8	61.1972	4,924.8	64.7521	4,924.8	69.3425	4,924.8	56.8959	4,924.8	52.0406	4,924.8	63.3668	4,924.8	57.1857	4,924.8	65.0464
5,097.66	90.1853	5,097.66	88.4526	5,097.66	89.8829	5,097.66	88.9462	5,097.66	89.5721	5,097.66	87.3759	5,097.66	88.3092	5,097.66	85.0967	5,097.66	87.6857	5,097.66	80.3351	5,097.66	85.8857	5,097.66	79.357	5,097.66	82.3267	5,097.66	79.6224	5,097.66	78.0756	5,097.66	77.2744	5,097.66	79.7883	5,097.66	70.4996	5,097.66	76.8433	5,097.66	72.4395	5,097.66	72.7499	5,097.66	70.1547	5,097.66	71.9235	5,097.66	59.187	5,097.66	69.0904	5,097.66	51.315	5,097.66	67.2555	5,097.66	61.5819	5,097.66	63.8729	5,097.66	62.4216	5,097.66	63.9866	5,097.66	55.3994	5,097.66	53.3397	5,097.66	62.0153	5,097.66	52.723	5,097.66	65.7655
5,277.83	89.1312	5,277.83	88.9667	5,277.83	89.6909	5,277.83	87.5849	5,277.83	88.5017	5,277.83	87.1134	5,277.83	87.5431	5,277.83	85.6647	5,277.83	87.2386	5,277.83	81.6888	5,277.83	85.5328	5,277.83	78.2418	5,277.83	80.6272	5,277.83	77.8716	5,277.83	77.6843	5,277.83	74.0438	5,277.83	76.271	5,277.83	71.097	5,277.83	74.1544	5,277.83	71.6494	5,277.83	69.7295	5,277.83	66.5908	5,277.83	71.6463	5,277.83	62.3426	5,277.83	67.4141	5,277.83	55.196	5,277.83	66.8377	5,277.83	58.0391	5,277.83	60.1675	5,277.83	56.596	5,277.83	61.5252	5,277.83	57.8372	5,277.83	47.385	5,277.83	54.6567	5,277.83	57.784	5,277.83	62.4502
5,463.87	90.0107	5,463.87	89.8967	5,463.87	90.2624	5,463.87	87.7792	5,463.87	88.9069	5,463.87	87.5687	5,463.87	87.9666	5,463.87	84.7711	5,463.87	87.3752	5,463.87	81.7769	5,463.87	85.522	5,463.87	73.7327	5,463.87	81.2195	5,463.87	77.5665	5,463.87	77.0348	5,463.87	76.1569	5,463.87	78.5538	5,463.87	70.3837	5,463.87	75.5195	5,463.87	70.148	5,463.87	69.7916	5,463.87	68.0126	5,463.87	66.493	5,463.87	55.029	5,463.87	64.7379	5,463.87	64.6629	5,463.87	67.8873	5,463.87	61.1485	5,463.87	61.5254	5,463.87	50.2154	5,463.87	62.4401	5,463.87	46.6506	5,463.87	50.3867	5,463.87	49.5406	5,463.87	52.8206	5,463.87	58.845
5,657.23	90.3931	5,657.23	88.6125	5,657.23	89.7572	5,657.23	88.1983	5,657.23	88.8207	5,657.23	87.5333	5,657.23	87.2977	5,657.23	84.9897	5,657.23	86.2406	5,657.23	81.4594	5,657.23	84.1767	5,657.23	76.915	5,657.23	81.849	5,657.23	79.5023	5,657.23	74.0248	5,657.23	76.5134	5,657.23	76.2992	5,657.23	70.1379	5,657.23	74.5213	5,657.23	67.4751	5,657.23	69.7308	5,657.23	67.8242	5,657.23	67.817	5,657.23	62.546	5,657.23	67.8055	5,657.23	64.2607	5,657.23	64.8143	5,657.23	49.7722	5,657.23	57.7048	5,657.23	57.6041	5,657.23	57.7305	5,657.23	56.9739	5,657.23	55.2756	5,657.23	49.0685	5,657.23	58.9043	5,657.23	51.5409
5,856.45	90.0896	5,856.45	88.4795	5,856.45	90.1046	5,856.45	88.3073	5,856.45	88.5835	5,856.45	87.3288	5,856.45	87.2266	5,856.45	85.5226	5,856.45	86.3733	5,856.45	80.623	5,856.45	83.6379	5,856.45	77.3366	5,856.45	79.5327	5,856.45	77.6896	5,856.45	73.0931	5,856.45	73.3775	5,856.45	74.4878	5,856.45	69.8253	5,856.45	70.7374	5,856.45	71.2619	5,856.45	69.3674	5,856.45	63.1505	5,856.45	65.0135	5,856.45	67.4579	5,856.45	63.2365	5,856.45	61.2065	5,856.45	65.508	5,856.45	51.7404	5,856.45	64.4579	5,856.45	46.295	5,856.45	56.3141	5,856.45	49.8112	5,856.45	58.0167	5,856.45	51.8	5,856.45	46.7124	5,856.45	41.1585
6,062.99	89.2794	6,062.99	88.6237	6,062.99	89.7988	6,062.99	86.3403	6,062.99	87.9122	6,062.99	86.4694	6,062.99	86.9746	6,062.99	84.5882	6,062.99	85.7354	6,062.99	81.5771	6,062.99	83.8036	6,062.99	72.8547	6,062.99	77.4115	6,062.99	74.9809	6,062.99	73.646	6,062.99	73.4286	6,062.99	74.6242	6,062.99	70.1685	6,062.99	71.769	6,062.99	67.8852	6,062.99	67.6317	6,062.99	59.054	6,062.99	61.7636	6,062.99	57.4744	6,062.99	62.3974	6,062.99	48.7423	6,062.99	64.6782	6,062.99	55.3054	6,062.99	59.2517	6,062.99	52.9251	6,062.99	55.9695	6,062.99	56.8524	6,062.99	47.6662	6,062.99	43.4225	6,062.99	47.2546	6,062.99	53.4936
6,276.86	89.6435	6,276.86	88.5487	6,276.86	89.0535	6,276.86	86.8742	6,276.86	87.9573	6,276.86	86.4852	6,276.86	86.7597	6,276.86	85.194	6,276.86	85.489	6,276.86	81.2817	6,276.86	82.8906	6,276.86	74.3058	6,276.86	79.6542	6,276.86	76.3262	6,276.86	71.0432	6,276.86	71.6093	6,276.86	73.8591	6,276.86	68.0666	6,276.86	72.34	6,276.86	66.3825	6,276.86	67.9592	6,276.86	62.8408	6,276.86	63.3175	6,276.86	58.0023	6,276.86	58.4545	6,276.86	57.1653	6,276.86	57.6246	6,276.86	51.5297	6,276.86	53.3512	6,276.86	51.9341	6,276.86	60.0421	6,276.86	62.5806	6,276.86	36.8833	6,276.86	52.94	6,276.86	56.7644	6,276.86	53.848
6,498.05	88.5864	6,498.05	87.5513	6,498.05	88.212	6,498.05	87.0733	6,498.05	87.5537	6,498.05	85.8551	6,498.05	85.4146	6,498.05	84.8998	6,498.05	84.3942	6,498.05	80.1503	6,498.05	82.4871	6,498.05	75.0104	6,498.05	77.6148	6,498.05	75.8522	6,498.05	70.6296	6,498.05	72.8089	6,498.05	71.3487	6,498.05	67.3479	6,498.05	68.731	6,498.05	67.4946	6,498.05	67.5871	6,498.05	56.6798	6,498.05	64.033	6,498.05	61.0994	6,498.05	63.6955	6,498.05	62.2827	6,498.05	66.4544	6,498.05	56.0297	6,498.05	59.6972	6,498.05	48.2759	6,498.05	51.4789	6,498.05	56.5107	6,498.05	58.6379	6,498.05	50.7275	6,498.05	51.1754	6,498.05	50.2378
6,726.56	87.7056	6,726.56	87.733	6,726.56	88.6996	6,726.56	85.8812	6,726.56	87.5849	6,726.56	85.0621	6,726.56	85.7428	6,726.56	84.0771	6,726.56	83.8858	6,726.56	81.2523	6,726.56	82.9538	6,726.56	74.6941	6,726.56	77.4977	6,726.56	75.216	6,726.56	70.4909	6,726.56	74.4324	6,726.56	72.2105	6,726.56	70.2117	6,726.56	70.7345	6,726.56	65.4832	6,726.56	65.5835	6,726.56	61.8347	6,726.56	62.0312	6,726.56	53.1108	6,726.56	57.1182	6,726.56	56.2733	6,726.56	61.0497	6,726.56	60.9421	6,726.56	62.7273	6,726.56	39.5754	6,726.56	39.517	6,726.56	50.0715	6,726.56	61.2698	6,726.56	45.9164	6,726.56	47.838	6,726.56	53.5267
6,963.87	88.5701	6,963.87	88.2405	6,963.87	87.9614	6,963.87	86.2465	6,963.87	87.6683	6,963.87	84.6824	6,963.87	85.3857	6,963.87	83.6259	6,963.87	83.861	6,963.87	81.0949	6,963.87	82.1202	6,963.87	71.8983	6,963.87	80.1748	6,963.87	75.0382	6,963.87	71.3801	6,963.87	74.0989	6,963.87	72.8099	6,963.87	69.0086	6,963.87	71.6387	6,963.87	63.3767	6,963.87	67.6452	6,963.87	58.8243	6,963.87	61.0125	6,963.87	58.8817	6,963.87	63.1171	6,963.87	57.6869	6,963.87	59.1901	6,963.87	59.5679	6,963.87	59.9561	6,963.87	53.162	6,963.87	56.5164	6,963.87	60.1495	6,963.87	54.8122	6,963.87	46.4564	6,963.87	54.586	6,963.87	51.8495
7,209.96	87.9714	7,209.96	87.8247	7,209.96	87.6707	7,209.96	86.0844	7,209.96	87.5306	7,209.96	84.6291	7,209.96	85.0379	7,209.96	83.962	7,209.96	82.2166	7,209.96	81.1209	7,209.96	81.3388	7,209.96	74.8029	7,209.96	79.831	7,209.96	74.5791	7,209.96	75.983	7,209.96	70.9882	7,209.96	72.2669	7,209.96	68.726	7,209.96	69.6687	7,209.96	64.0599	7,209.96	66.6929	7,209.96	57.6229	7,209.96	60.8556	7,209.96	52.472	7,209.96	62.2801	7,209.96	57.4547	7,209.96	61.7313	7,209.96	49.1298	7,209.96	54.1361	7,209.96	54.4759	7,209.96	54.8126	7,209.96	60.5951	7,209.96	52.7708	7,209.96	51.4945	7,209.96	53.6279	7,209.96	47.6826
7,464.84	87.9007	7,464.84	87.8582	7,464.84	88.3186	7,464.84	85.7951	7,464.84	87.342	7,464.84	83.5575	7,464.84	85.0113	7,464.84	83.5253	7,464.84	81.553	7,464.84	81.9196	7,464.84	81.808	7,464.84	77.2622	7,464.84	80.2018	7,464.84	73.9365	7,464.84	75.39	7,464.84	72.4285	7,464.84	72.92	7,464.84	68.2225	7,464.84	71.8311	7,464.84	65.9071	7,464.84	65.8027	7,464.84	59.8864	7,464.84	62.2523	7,464.84	53.3876	7,464.84	65.1256	7,464.84	60.089	7,464.84	61.7028	7,464.84	54.5746	7,464.84	52.3986	7,464.84	56.3705	7,464.84	56.1453	7,464.84	58.7652	7,464.84	43.8917	7,464.84	41.7279	7,464.84	50.931	7,464.84	46.3513
7,727.05	89.1042	7,727.05	88.3394	7,727.05	87.9876	7,727.05	85.3851	7,727.05	87.3233	7,727.05	82.3184	7,727.05	84.8247	7,727.05	83.227	7,727.05	82.0251	7,727.05	82.173	7,727.05	80.9432	7,727.05	77.2364	7,727.05	81.9529	7,727.05	74.54	7,727.05	77.387	7,727.05	73.1243	7,727.05	74.4982	7,727.05	67.2761	7,727.05	73.551	7,727.05	62.2597	7,727.05	68.8141	7,727.05	58.8207	7,727.05	60.1232	7,727.05	54.2821	7,727.05	61.1015	7,727.05	59.5804	7,727.05	57.458	7,727.05	52.9956	7,727.05	53.0117	7,727.05	58.7756	7,727.05	52.3343	7,727.05	55.6397	7,727.05	58.6526	7,727.05	55.3019	7,727.05	51.7212	7,727.05	47.5039
7,999.51	88.3198	7,999.51	87.8278	7,999.51	88.8666	7,999.51	85.8299	7,999.51	87.8144	7,999.51	83.0596	7,999.51	85.0119	7,999.51	83.3312	7,999.51	81.3654	7,999.51	82.7131	7,999.51	81.8972	7,999.51	78.511	7,999.51	81.5618	7,999.51	74.5983	7,999.51	78.9934	7,999.51	73.1614	7,999.51	72.069	7,999.51	68.5369	7,999.51	73.8165	7,999.51	65.8918	7,999.51	70.8618	7,999.51	61.8544	7,999.51	66.1388	7,999.51	56.7231	7,999.51	65.5933	7,999.51	57.3964	7,999.51	51.4625	7,999.51	61.5382	7,999.51	50.0492	7,999.51	53.7872	7,999.51	58.3003	7,999.51	57.1297	7,999.51	57.5359	7,999.51	41.6022	7,999.51	44.3255	7,999.51	55.7821
8,282.23	88.7116	8,282.23	88.1266	8,282.23	88.6417	8,282.23	86.1188	8,282.23	87.5248	8,282.23	83.0741	8,282.23	85.0956	8,282.23	83.2318	8,282.23	82.1454	8,282.23	83.8277	8,282.23	82.0056	8,282.23	80.0622	8,282.23	82.4217	8,282.23	74.8582	8,282.23	79.5338	8,282.23	75.5419	8,282.23	75.1736	8,282.23	68.7571	8,282.23	75.3555	8,282.23	67.3664	8,282.23	67.7428	8,282.23	64.6914	8,282.23	60.7159	8,282.23	59.6819	8,282.23	61.8451	8,282.23	56.3665	8,282.23	58.4447	8,282.23	55.6584	8,282.23	51.3155	8,282.23	58.0689	8,282.23	54.5236	8,282.23	56.4477	8,282.23	56.5879	8,282.23	57.8005	8,282.23	58.0625	8,282.23	58.1998
8,573.73	88.4327	8,573.73	87.8475	8,573.73	88.5899	8,573.73	85.8924	8,573.73	87.2525	8,573.73	83.9009	8,573.73	85.0156	8,573.73	83.7071	8,573.73	82.751	8,573.73	84.2983	8,573.73	81.8034	8,573.73	81.3871	8,573.73	83.4509	8,573.73	75.5631	8,573.73	81.3172	8,573.73	76.5079	8,573.73	76.6537	8,573.73	69.5609	8,573.73	76.3759	8,573.73	63.9528	8,573.73	72.269	8,573.73	65.7722	8,573.73	66.7846	8,573.73	54.0914	8,573.73	65.5803	8,573.73	63.0871	8,573.73	50.0814	8,573.73	57.7043	8,573.73	53.4091	8,573.73	44.7585	8,573.73	59.5729	8,573.73	53.9711	8,573.73	62.1482	8,573.73	58.8629	8,573.73	55.2917	8,573.73	44.0634
8,876.95	87.1833	8,876.95	86.4815	8,876.95	87.5658	8,876.95	87.1517	8,876.95	86.0094	8,876.95	85.5885	8,876.95	85.2263	8,876.95	84.1208	8,876.95	83.6487	8,876.95	85.4308	8,876.95	83.2741	8,876.95	83.1731	8,876.95	84.2018	8,876.95	78.3519	8,876.95	82.2288	8,876.95	76.9643	8,876.95	77.5565	8,876.95	70.4995	8,876.95	77.7686	8,876.95	66.709	8,876.95	72.8095	8,876.95	66.867	8,876.95	65.9322	8,876.95	63.6837	8,876.95	61.1383	8,876.95	58.3339	8,876.95	64.8869	8,876.95	62.1286	8,876.95	59.6236	8,876.95	60.443	8,876.95	62.5788	8,876.95	50.8031	8,876.95	57.8603	8,876.95	57.5807	8,876.95	52.227	8,876.95	50.9944
9,188.96	86.2564	9,188.96	85.6602	9,188.96	86.0381	9,188.96	87.2033	9,188.96	84.8407	9,188.96	87.1338	9,188.96	86.0717	9,188.96	85.6662	9,188.96	85.5707	9,188.96	86.1305	9,188.96	84.0829	9,188.96	83.5406	9,188.96	85.6935	9,188.96	77.7253	9,188.96	83.9118	9,188.96	78.3085	9,188.96	78.7905	9,188.96	69.1365	9,188.96	77.0546	9,188.96	68.9035	9,188.96	72.8599	9,188.96	67.7241	9,188.96	66.8877	9,188.96	63.6606	9,188.96	67.7743	9,188.96	60.3946	9,188.96	60.8323	9,188.96	50.6353	9,188.96	57.3836	9,188.96	58.2734	9,188.96	52.1187	9,188.96	57.1559	9,188.96	55.5337	9,188.96	58.94	9,188.96	56.2159	9,188.96	57.229
9,514.16	86.3452	9,514.16	86.855	9,514.16	85.4754	9,514.16	88.1151	9,514.16	85.3863	9,514.16	88.2756	9,514.16	86.227	9,514.16	86.7543	9,514.16	86.539	9,514.16	86.7168	9,514.16	85.8679	9,514.16	83.9793	9,514.16	85.0134	9,514.16	79.1258	9,514.16	83.549	9,514.16	77.5765	9,514.16	77.1036	9,514.16	73.2595	9,514.16	76.7894	9,514.16	62.5376	9,514.16	72.7848	9,514.16	65.3802	9,514.16	66.6872	9,514.16	59.5826	9,514.16	66.7469	9,514.16	60.8739	9,514.16	65.879	9,514.16	61.3243	9,514.16	49.6683	9,514.16	49.5393	9,514.16	61.4419	9,514.16	60.185	9,514.16	59.991	9,514.16	54.9344	9,514.16	53.8671	9,514.16	55.5483
9,849.61	88.2443	9,849.61	89.5261	9,849.61	87.9341	9,849.61	89.5618	9,849.61	87.6959	9,849.61	89.8673	9,849.61	87.1051	9,849.61	87.4707	9,849.61	87.5651	9,849.61	86.0047	9,849.61	85.315	9,849.61	83.4765	9,849.61	83.6822	9,849.61	77.8868	9,849.61	83.1222	9,849.61	76.5299	9,849.61	77.0882	9,849.61	68.4436	9,849.61	76.4743	9,849.61	65.4467	9,849.61	70.0729	9,849.61	63.9751	9,849.61	63.9551	9,849.61	58.6028	9,849.61	63.4669	9,849.61	61.1019	9,849.61	66.1263	9,849.61	52.1475	9,849.61	53.5189	9,849.61	57.5557	9,849.61	58.0039	9,849.61	57.5149	9,849.61	38.6322	9,849.61	58.2014	9,849.61	47.2491	9,849.61	53.1708
10,196.8	90.5182	10,196.8	91.0153	10,196.8	89.5289	10,196.8	90.5543	10,196.8	89.2507	10,196.8	89.8881	10,196.8	87.3388	10,196.8	87.5945	10,196.8	86.7429	10,196.8	84.9865	10,196.8	84.1405	10,196.8	82.4557	10,196.8	81.2258	10,196.8	77.3455	10,196.8	79.5145	10,196.8	73.8236	10,196.8	74.5343	10,196.8	67.5415	10,196.8	71.5714	10,196.8	65.154	10,196.8	66.5235	10,196.8	60.9053	10,196.8	62.5263	10,196.8	54.3295	10,196.8	61.1874	10,196.8	52.0033	10,196.8	58.5457	10,196.8	54.4196	10,196.8	56.1226	10,196.8	57.6734	10,196.8	60.0141	10,196.8	44.6304	10,196.8	52.8751	10,196.8	58.1055	10,196.8	51.8304	10,196.8	49.9455
10,555.7	91.6848	10,555.7	92.188	10,555.7	90.8165	10,555.7	91.5172	10,555.7	89.6096	10,555.7	90.1682	10,555.7	87.2807	10,555.7	87.4864	10,555.7	85.7548	10,555.7	84.0406	10,555.7	82.6144	10,555.7	80.6938	10,555.7	78.87	10,555.7	73.1628	10,555.7	76.0092	10,555.7	70.0798	10,555.7	69.986	10,555.7	63.6668	10,555.7	69.2635	10,555.7	56.4625	10,555.7	60.6329	10,555.7	53.9604	10,555.7	58.4585	10,555.7	52.9223	10,555.7	58.5495	10,555.7	49.6009	10,555.7	60.6208	10,555.7	52.0319	10,555.7	36.3677	10,555.7	47.8993	10,555.7	58.981	10,555.7	53.6462	10,555.7	48.5327	10,555.7	57.2014	10,555.7	43.8345	10,555.7	31.0934
10,927.7	92.3021	10,927.7	92.6325	10,927.7	91.2801	10,927.7	91.75	10,927.7	89.6503	10,927.7	89.9506	10,927.7	87.7161	10,927.7	87.0829	10,927.7	85.8489	10,927.7	83.0899	10,927.7	83.9546	10,927.7	79.0026	10,927.7	79.3642	10,927.7	70.2462	10,927.7	74.9517	10,927.7	68.489	10,927.7	70.1104	10,927.7	56.7322	10,927.7	65.0884	10,927.7	51.6082	10,927.7	60.952	10,927.7	53.352	10,927.7	54.8626	10,927.7	62.0917	10,927.7	60.5453	10,927.7	51.8427	10,927.7	57.0337	10,927.7	47.6589	10,927.7	51.2805	10,927.7	54.6506	10,927.7	48.026	10,927.7	51.8528	10,927.7	43.0069	10,927.7	58.3845	10,927.7	56.0666	10,927.7	41.8664
11,313	92.1182	11,313	92.2274	11,313	91.4791	11,313	91.2532	11,313	90.686	11,313	89.453	11,313	89.1716	11,313	86.4294	11,313	87.4544	11,313	82.0959	11,313	85.0884	11,313	77.5665	11,313	80.2539	11,313	69.3258	11,313	75.8237	11,313	68.1853	11,313	68.5789	11,313	62.4528	11,313	65.4447	11,313	48.3754	11,313	58.0799	11,313	59.7255	11,313	52.8412	11,313	55.8514	11,313	59.0975	11,313	50.3319	11,313	59.1154	11,313	51.5193	11,313	42.6428	11,313	55.3826	11,313	48.2567	11,313	56.2851	11,313	43.1887	11,313	49.2283	11,313	47.1863	11,313	43.8311
11,712.9	91.8544	11,712.9	91.7692	11,712.9	91.7974	11,712.9	90.7629	11,712.9	91.1718	11,712.9	89.1037	11,712.9	89.8777	11,712.9	86.2723	11,712.9	88.0707	11,712.9	82.7989	11,712.9	85.0221	11,712.9	79.4889	11,712.9	79.5339	11,712.9	71.2766	11,712.9	74.3406	11,712.9	67.8953	11,712.9	66.3931	11,712.9	59.5994	11,712.9	63.4498	11,712.9	49.1751	11,712.9	60.2605	11,712.9	45.5975	11,712.9	50.5827	11,712.9	51.736	11,712.9	56.374	11,712.9	44.8974	11,712.9	59.2444	11,712.9	42.1239	11,712.9	31.2471	11,712.9	47.738	11,712.9	51.1338	11,712.9	50.7743	11,712.9	43.2363	11,712.9	54.875	11,712.9	39.9006	11,712.9	39.5598
12,126	91.4489	12,126	91.3135	12,126	91.4239	12,126	90.634	12,126	91.4461	12,126	89.2299	12,126	90.3507	12,126	86.6677	12,126	88.3475	12,126	82.38	12,126	85.4126	12,126	78.6197	12,126	79.5683	12,126	71.0554	12,126	75.0196	12,126	67.0201	12,126	65.7413	12,126	62.1055	12,126	62.667	12,126	54.099	12,126	55.9345	12,126	50.5915	12,126	48.8321	12,126	51.7312	12,126	53.8472	12,126	48.0016	12,126	55.8692	12,126	49.4448	12,126	42.8848	12,126	54.8048	12,126	52.4334	12,126	44.4141	12,126	45.0879	12,126	47.2222	12,126	47.3113	12,126	42.0055
12,553.7	90.7233	12,553.7	90.5612	12,553.7	90.955	12,553.7	89.723	12,553.7	91.1263	12,553.7	88.0772	12,553.7	89.9202	12,553.7	85.0283	12,553.7	87.9919	12,553.7	81.3899	12,553.7	85.0166	12,553.7	77.4126	12,553.7	79.1723	12,553.7	70.176	12,553.7	74.4838	12,553.7	64.5093	12,553.7	66.3101	12,553.7	58.1475	12,553.7	63.9972	12,553.7	48.7626	12,553.7	55.5876	12,553.7	49.1507	12,553.7	46.2058	12,553.7	50.2876	12,553.7	52.6006	12,553.7	46.6112	12,553.7	52.932	12,553.7	36.6888	12,553.7	34.8042	12,553.7	41.738	12,553.7	35.6772	12,553.7	48.6629	12,553.7	43.4253	12,553.7	45.6377	12,553.7	49.38	12,553.7	37.9879
12,996.1	90.7217	12,996.1	89.9485	12,996.1	90.9823	12,996.1	88.3088	12,996.1	90.4812	12,996.1	85.8714	12,996.1	88.5828	12,996.1	82.8528	12,996.1	85.65	12,996.1	78.5805	12,996.1	82.2972	12,996.1	74.9203	12,996.1	75.967	12,996.1	67.8888	12,996.1	71.6698	12,996.1	62.0778	12,996.1	62.4096	12,996.1	55.0351	12,996.1	60.499	12,996.1	47.3737	12,996.1	50.2368	12,996.1	39.1898	12,996.1	48.8292	12,996.1	48.3626	12,996.1	52.8163	12,996.1	41.6854	12,996.1	49.3173	12,996.1	41.6988	12,996.1	35.3467	12,996.1	45.2876	12,996.1	33.2146	12,996.1	51.2172	12,996.1	35.2117	12,996.1	44.9302	12,996.1	46.1871	12,996.1	36.2177
13,454.6	90.7638	13,454.6	89.6855	13,454.6	90.9645	13,454.6	87.5171	13,454.6	90.024	13,454.6	84.5515	13,454.6	87.2987	13,454.6	80.9375	13,454.6	83.0865	13,454.6	76.4449	13,454.6	78.1713	13,454.6	71.6891	13,454.6	69.9762	13,454.6	64.9595	13,454.6	63.3211	13,454.6	57.7197	13,454.6	53.4804	13,454.6	50.144	13,454.6	47.9266	13,454.6	46.5096	13,454.6	46.542	13,454.6	24.9632	13,454.6	46.1388	13,454.6	36.1732	13,454.6	48.9017	13,454.6	46.1553	13,454.6	46.796	13,454.6	42.9114	13,454.6	37.4121	13,454.6	34.4483	13,454.6	37.6079	13,454.6	48.9211	13,454.6	31.3333	13,454.6	47.5859	13,454.6	37.3303	13,454.6	42.7209
13,929.2	90.4087	13,929.2	89.4667	13,929.2	90.4932	13,929.2	87.3836	13,929.2	89.5707	13,929.2	84.2617	13,929.2	86.9705	13,929.2	80.1023	13,929.2	83.2205	13,929.2	74.9849	13,929.2	78.2775	13,929.2	69.1564	13,929.2	69.399	13,929.2	61.4277	13,929.2	60.8686	13,929.2	55.0212	13,929.2	51.3934	13,929.2	45.8932	13,929.2	45.5924	13,929.2	45.2363	13,929.2	48.979	13,929.2	41.4718	13,929.2	43.3114	13,929.2	33.9878	13,929.2	49.0139	13,929.2	48.4845	13,929.2	48.2954	13,929.2	42.9987	13,929.2	28.4983	13,929.2	37.6845	13,929.2	32.4332	13,929.2	47.892	13,929.2	39.9763	13,929.2	39.3248	13,929.2	42.4059	13,929.2	26.9105
14,419.9	89.4779	14,419.9	88.8956	14,419.9	89.1839	14,419.9	87.0149	14,419.9	88.0624	14,419.9	83.9869	14,419.9	85.621	14,419.9	79.9471	14,419.9	82.3889	14,419.9	75.0328	14,419.9	78.3045	14,419.9	70.1235	14,419.9	71.6066	14,419.9	61.7099	14,419.9	66.0051	14,419.9	57.845	14,419.9	58.7015	14,419.9	41.7474	14,419.9	53.6276	14,419.9	40.8334	14,419.9	48.171	14,419.9	43.0638	14,419.9	26.0132	14,419.9	37.0641	14,419.9	49.8812	14,419.9	47.6452	14,419.9	46.5654	14,419.9	39.1365	14,419.9	21.9528	14,419.9	35.0732	14,419.9	37.385	14,419.9	48.8674	14,419.9	38.6345	14,419.9	40.7196	14,419.9	40.3155	14,419.9	36.19
14,928.2	88.7409	14,928.2	87.7909	14,928.2	88.3027	14,928.2	85.5469	14,928.2	86.3783	14,928.2	82.2423	14,928.2	83.3054	14,928.2	78.6569	14,928.2	79.8023	14,928.2	74.1454	14,928.2	76.6537	14,928.2	69.7515	14,928.2	72.4559	14,928.2	63.3247	14,928.2	68.2804	14,928.2	57.3682	14,928.2	61.7039	14,928.2	46.961	14,928.2	54.8832	14,928.2	39.5228	14,928.2	44.5453	14,928.2	45.9972	14,928.2	43.1579	14,928.2	39.5635	14,928.2	45.5124	14,928.2	48.2876	14,928.2	42.731	14,928.2	42.1297	14,928.2	32.253	14,928.2	41.8032	14,928.2	41.64	14,928.2	49.8644	14,928.2	41.5681	14,928.2	40.8591	14,928.2	40.9202	14,928.2	32.9895
15,455.6	88.2776	15,455.6	86.7569	15,455.6	88.1225	15,455.6	83.722	15,455.6	86.0976	15,455.6	79.4934	15,455.6	82.6185	15,455.6	75.5162	15,455.6	78.1719	15,455.6	71.4963	15,455.6	74.5869	15,455.6	68.0925	15,455.6	71.2071	15,455.6	63.4071	15,455.6	68.1062	15,455.6	56.421	15,455.6	62.9889	15,455.6	45.675	15,455.6	55.2109	15,455.6	30.9393	15,455.6	51.5738	15,455.6	39.2163	15,455.6	45.9078	15,455.6	31.5432	15,455.6	42.3261	15,455.6	48.2228	15,455.6	35.6846	15,455.6	26.7644	15,455.6	38.0063	15,455.6	39.777	15,455.6	28.8905	15,455.6	51.0244	15,455.6	38.0785	15,455.6	41.3766	15,455.6	41.4838	15,455.6	42.9487
16,000.5	87.8034	16,000.5	86.0763	16,000.5	87.6714	16,000.5	82.3858	16,000.5	85.5264	16,000.5	76.7282	16,000.5	81.9418	16,000.5	71.0061	16,000.5	77.3429	16,000.5	66.6522	16,000.5	72.5805	16,000.5	63.4147	16,000.5	66.8513	16,000.5	60.2653	16,000.5	63.3083	16,000.5	51.2312	16,000.5	58.6131	16,000.5	43.4605	16,000.5	49.4711	16,000.5	33.2712	16,000.5	50.0832	16,000.5	41.4139	16,000.5	40.9157	16,000.5	24.4912	16,000.5	34.9397	16,000.5	43.6987	16,000.5	35.0861	16,000.5	38.5951	16,000.5	24.9271	16,000.5	41.1774	16,000.5	40.7912	16,000.5	50.0671	16,000.5	42.7298	16,000.5	44.1891	16,000.5	43.982	16,000.5	27.6772
16,564.5	87.7915	16,564.5	85.541	16,564.5	87.4277	16,564.5	81.4553	16,564.5	84.2192	16,564.5	76.0732	16,564.5	79.6179	16,564.5	71.9543	16,564.5	76.105	16,564.5	67.6593	16,564.5	73.0546	16,564.5	62.8913	16,564.5	68.2381	16,564.5	56.6873	16,564.5	62.9234	16,564.5	47.1996	16,564.5	42.1541	16,564.5	37.201	16,564.5	44.0226	16,564.5	37.403	16,564.5	42.7005	16,564.5	41.6519	16,564.5	39.2214	16,564.5	35.1416	16,564.5	37.5621	16,564.5	39.4018	16,564.5	41.3801	16,564.5	34.1433	16,564.5	23.8421	16,564.5	34.2408	16,564.5	40.8589	16,564.5	50.5132	16,564.5	45.6554	16,564.5	42.5385	16,564.5	47.0952	16,564.5	41.2309
17,148.9	88.0007	17,148.9	85.1355	17,148.9	87.4804	17,148.9	80.37	17,148.9	83.2055	17,148.9	74.5673	17,148.9	76.6716	17,148.9	72.8152	17,148.9	75.027	17,148.9	70.6196	17,148.9	74.197	17,148.9	66.5394	17,148.9	71.1016	17,148.9	60.3047	17,148.9	66.1252	17,148.9	49.1736	17,148.9	55.6863	17,148.9	37.9306	17,148.9	50.9374	17,148.9	33.4793	17,148.9	32.168	17,148.9	39.644	17,148.9	33.7628	17,148.9	31.7849	17,148.9	40.9053	17,148.9	39.2652	17,148.9	45.1639	17,148.9	32.5293	17,148.9	19.4403	17,148.9	34.1018	17,148.9	40.7203	17,148.9	54.4832	17,148.9	44.567	17,148.9	50.8851	17,148.9	51.1138	17,148.9	49.8078
17,752.4	86.9067	17,752.4	83.5792	17,752.4	86.3197	17,752.4	78.1346	17,752.4	81.4074	17,752.4	70.9793	17,752.4	72.9426	17,752.4	71.8167	17,752.4	74.0612	17,752.4	70.6367	17,752.4	74.0909	17,752.4	66.9947	17,752.4	71.1184	17,752.4	61.5375	17,752.4	66.113	17,752.4	49.4316	17,752.4	56.5902	17,752.4	37.817	17,752.4	51.7164	17,752.4	25.8381	17,752.4	41.7855	17,752.4	40.9017	17,752.4	30.6704	17,752.4	37.8721	17,752.4	37.8418	17,752.4	35.2261	17,752.4	47.4891	17,752.4	43.8032	17,752.4	37.8814	17,752.4	37.4842	17,752.4	37.9405	17,752.4	55.479	17,752.4	42.267	17,752.4	54.8651	17,752.4	53.4707	17,752.4	54.0877
18,379.4	84.2275	18,379.4	80.206	18,379.4	83.6994	18,379.4	74.0364	18,379.4	77.9317	18,379.4	66.6187	18,379.4	66.1156	18,379.4	70.2345	18,379.4	71.5825	18,379.4	68.9186	18,379.4	71.7403	18,379.4	64.9981	18,379.4	68.5667	18,379.4	59.1241	18,379.4	63.4069	18,379.4	45.0484	18,379.4	53.8607	18,379.4	42.4077	18,379.4	46.7279	18,379.4	37.0364	18,379.4	42.4784	18,379.4	39.4885	18,379.4	33.5689	18,379.4	39.6938	18,379.4	34.3326	18,379.4	37.4716	18,379.4	44.8374	18,379.4	45.0474	18,379.4	42.8822	18,379.4	39.4581	18,379.4	38.4202	18,379.4	54.341	18,379.4	37.6798	18,379.4	54.5356	18,379.4	55.3462	18,379.4	53.5873
19,026.9	81.7559	19,026.9	77.1279	19,026.9	81.411	19,026.9	69.4837	19,026.9	74.5453	19,026.9	63.722	19,026.9	57.5154	19,026.9	69.7072	19,026.9	68.7122	19,026.9	68.3371	19,026.9	69.2498	19,026.9	63.604	19,026.9	65.9119	19,026.9	56.3796	19,026.9	59.3251	19,026.9	45.9096	19,026.9	49.5448	19,026.9	39.9209	19,026.9	40.8798	19,026.9	34.0393	19,026.9	39.6069	19,026.9	42.7542	19,026.9	38.6693	19,026.9	32.9117	19,026.9	39.168	19,026.9	35.2031	19,026.9	42.1317	19,026.9	50.3805	19,026.9	42.3441	19,026.9	48.714	19,026.9	42.6929	19,026.9	51.4051	19,026.9	42.1833	19,026.9	53.8101	19,026.9	57.1969	19,026.9	53.4989
19,697.8	78.4866	19,697.8	74.425	19,697.8	78.2383	19,697.8	67.0233	19,697.8	69.8314	19,697.8	63.2143	19,697.8	55.42	19,697.8	68.8093	19,697.8	66.888	19,697.8	66.8446	19,697.8	68.5293	19,697.8	60.1425	19,697.8	64.8886	19,697.8	51.6679	19,697.8	57.0317	19,697.8	46.341	19,697.8	52.9379	19,697.8	39.5997	19,697.8	45.8909	19,697.8	41.4097	19,697.8	35.4075	19,697.8	45.0089	19,697.8	33.9764	19,697.8	36.9251	19,697.8	38.3884	19,697.8	47.9952	19,697.8	39.3714	19,697.8	51.2619	19,697.8	41.3237	19,697.8	50.2264	19,697.8	46.2823	19,697.8	44.83	19,697.8	45.6497	19,697.8	50.2433	19,697.8	56.8219	19,697.8	51.5599
19,999.5	76.261	19,999.5	73.2772	19,999.5	76.0068	19,999.5	67.42	19,999.5	66.8612	19,999.5	62.8387	19,999.5	57.691	19,999.5	68.8829	19,999.5	66.7567	19,999.5	66.3723	19,999.5	68.7941	19,999.5	59.5682	19,999.5	65.4768	19,999.5	49.8998	19,999.5	59.0281	19,999.5	47.4863	19,999.5	55.0192	19,999.5	42.6019	19,999.5	47.3853	19,999.5	38.4402	19,999.5	38.081	19,999.5	44.0044	19,999.5	41.1329	19,999.5	41.8399	19,999.5	35.6848	19,999.5	50.183	19,999.5	45.1712	19,999.5	51.2604	19,999.5	35.7681	19,999.5	50.3358	19,999.5	44.5028	19,999.5	45.1957	19,999.5	47.2429	19,999.5	46.9044	19,999.5	55.0545	19,999.5	48.6607
