"SPL Vertical"																																																																							
"On-Axis"		"10°"		"-10°"		"20°"		"-20°"		"30°"		"-30°"		"40°"		"-40°"		"50°"		"-50°"		"60°"		"-60°"		"70°"		"-70°"		"80°"		"-80°"		"90°"		"-90°"		"100°"		"-100°"		"110°"		"-110°"		"120°"		"-120°"		"130°"		"-130°"		"140°"		"-140°"		"150°"		"-150°"		"160°"		"-160°"		"170°"		"-170°"		"180°"	
"Frequency [Hz]"	"Sound Pessure Level [dB]  / [2.83V 1m] "	"Frequency [Hz]"	"Sound Pessure Level [dB]  / [2.83V 1m] "	"Frequency [Hz]"	"Sound Pessure Level [dB]  / [2.83V 1m] "	"Frequency [Hz]"	"Sound Pessure Level [dB]  / [2.83V 1m] "	"Frequency [Hz]"	"Sound Pessure Level [dB]  / [2.83V 1m] "	"Frequency [Hz]"	"Sound Pessure Level [dB]  / [2.83V 1m] "	"Frequency [Hz]"	"Sound Pessure Level [dB]  / [2.83V 1m] "	"Frequency [Hz]"	"Sound Pessure Level [dB]  / [2.83V 1m] "	"Frequency [Hz]"	"Sound Pessure Level [dB]  / [2.83V 1m] "	"Frequency [Hz]"	"Sound Pessure Level [dB]  / [2.83V 1m] "	"Frequency [Hz]"	"Sound Pessure Level [dB]  / [2.83V 1m] "	"Frequency [Hz]"	"Sound Pessure Level [dB]  / [2.83V 1m] "	"Frequency [Hz]"	"Sound Pessure Level [dB]  / [2.83V 1m] "	"Frequency [Hz]"	"Sound Pessure Level [dB]  / [2.83V 1m] "	"Frequency [Hz]"	"Sound Pessure Level [dB]  / [2.83V 1m] "	"Frequency [Hz]"	"Sound Pessure Level [dB]  / [2.83V 1m] "	"Frequency [Hz]"	"Sound Pessure Level [dB]  / [2.83V 1m] "	"Frequency [Hz]"	"Sound Pessure Level [dB]  / [2.83V 1m] "	"Frequency [Hz]"	"Sound Pessure Level [dB]  / [2.83V 1m] "	"Frequency [Hz]"	"Sound Pessure Level [dB]  / [2.83V 1m] "	"Frequency [Hz]"	"Sound Pessure Level [dB]  / [2.83V 1m] "	"Frequency [Hz]"	"Sound Pessure Level [dB]  / [2.83V 1m] "	"Frequency [Hz]"	"Sound Pessure Level [dB]  / [2.83V 1m] "	"Frequency [Hz]"	"Sound Pessure Level [dB]  / [2.83V 1m] "	"Frequency [Hz]"	"Sound Pessure Level [dB]  / [2.83V 1m] "	"Frequency [Hz]"	"Sound Pessure Level [dB]  / [2.83V 1m] "	"Frequency [Hz]"	"Sound Pessure Level [dB]  / [2.83V 1m] "	"Frequency [Hz]"	"Sound Pessure Level [dB]  / [2.83V 1m] "	"Frequency [Hz]"	"Sound Pessure Level [dB]  / [2.83V 1m] "	"Frequency [Hz]"	"Sound Pessure Level [dB]  / [2.83V 1m] "	"Frequency [Hz]"	"Sound Pessure Level [dB]  / [2.83V 1m] "	"Frequency [Hz]"	"Sound Pessure Level [dB]  / [2.83V 1m] "	"Frequency [Hz]"	"Sound Pessure Level [dB]  / [2.83V 1m] "	"Frequency [Hz]"	"Sound Pessure Level [dB]  / [2.83V 1m] "	"Frequency [Hz]"	"Sound Pessure Level [dB]  / [2.83V 1m] "	"Frequency [Hz]"	"Sound Pessure Level [dB]  / [2.83V 1m] "
20.5078	57.5374	20.5078	57.1659	20.5078	57.8367	20.5078	56.8073	20.5078	58.0145	20.5078	56.5904	20.5078	58.0454	20.5078	56.6668	20.5078	57.9248	20.5078	57.1402	20.5078	57.678	20.5078	57.9954	20.5078	57.3878	20.5078	59.1127	20.5078	57.232	20.5078	60.349	20.5078	57.4721	20.5078	61.5944	20.5078	58.2919	20.5078	62.7812	20.5078	59.607	20.5078	63.8712	20.5078	61.1463	20.5078	64.8425	20.5078	62.6675	20.5078	65.6802	20.5078	64.033	20.5078	66.3721	20.5078	65.1824	20.5078	66.9065	20.5078	66.0957	20.5078	67.2709	20.5078	66.7711	20.5078	67.4526	20.5078	67.2152	20.5078	67.4383
21.2402	58.4755	21.2402	58.0778	21.2402	58.8014	21.2402	57.6937	21.2402	59.0064	21.2402	57.453	21.2402	59.0647	21.2402	57.5098	21.2402	58.9695	21.2402	57.9699	21.2402	58.7401	21.2402	58.8173	21.2402	58.4452	21.2402	59.9295	21.2402	58.2397	21.2402	61.1606	21.2402	58.3707	21.2402	62.3995	21.2402	59.0512	21.2402	63.578	21.2402	60.2552	21.2402	64.6579	21.2402	61.7368	21.2402	65.6172	21.2402	63.2412	21.2402	66.4415	21.2402	64.6121	21.2402	67.1186	21.2402	65.777	21.2402	67.6368	21.2402	66.7097	21.2402	67.9839	21.2402	67.4057	21.2402	68.1472	21.2402	67.8704	21.2402	68.1136
21.9727	59.7955	21.9727	59.4471	21.9727	60.0836	21.9727	59.1133	21.9727	60.2661	21.9727	58.904	21.9727	60.3187	21.9727	58.9473	21.9727	60.2355	21.9727	59.3366	21.9727	60.0351	21.9727	60.0736	21.9727	59.7808	21.9727	61.0685	21.9727	59.6092	21.9727	62.1982	21.9727	59.732	21.9727	63.3585	21.9727	60.3369	21.9727	64.4791	21.9727	61.421	21.9727	65.5172	21.9727	62.7855	21.9727	66.4465	21.9727	64.1993	21.9727	67.2494	21.9727	65.5067	21.9727	67.9118	21.9727	66.6282	21.9727	68.4205	21.9727	67.5314	21.9727	68.7626	21.9727	68.2075	21.9727	68.925	21.9727	68.6592	21.9727	68.8947
22.7051	60.1865	22.7051	59.8638	22.7051	60.4582	22.7051	59.5692	22.7051	60.6298	22.7051	59.4143	22.7051	60.6751	22.7051	59.5217	22.7051	60.5875	22.7051	59.9712	22.7051	60.3873	22.7051	60.7497	22.7051	60.1418	22.7051	61.7632	22.7051	59.9936	22.7051	62.8938	22.7051	60.1576	22.7051	64.0445	22.7051	60.812	22.7051	65.1507	22.7051	61.9368	22.7051	66.173	22.7051	63.3248	22.7051	67.0868	22.7051	64.7493	22.7051	67.8751	22.7051	66.0607	22.7051	68.5241	22.7051	67.1843	22.7051	69.0208	22.7051	68.0897	22.7051	69.3523	22.7051	68.7691	22.7051	69.5054	22.7051	69.2255	22.7051	69.4673
23.4375	61.7043	23.4375	61.4487	23.4375	61.9264	23.4375	61.2224	23.4375	62.0738	23.4375	61.1102	23.4375	62.1244	23.4375	61.2028	23.4375	62.0742	23.4375	61.5644	23.4375	61.9431	23.4375	62.1995	23.4375	61.7886	23.4375	63.0511	23.4375	61.7214	23.4375	64.0325	23.4375	61.8975	23.4375	65.0608	23.4375	62.4494	23.4375	66.0726	23.4375	63.3829	23.4375	67.0242	23.4375	64.5644	23.4375	67.8861	23.4375	65.8167	23.4375	68.6369	23.4375	67.0014	23.4375	69.2595	23.4375	68.0366	23.4375	69.7389	23.4375	68.8819	23.4375	70.061	23.4375	69.5214	23.4375	70.2121	23.4375	69.9524	23.4375	70.1797
24.1699	62.5185	24.1699	62.2745	24.1699	62.7286	24.1699	62.0545	24.1699	62.8669	24.1699	61.9362	24.1699	62.913	24.1699	62.0045	24.1699	62.8632	24.1699	62.323	24.1699	62.7367	24.1699	62.9039	24.1699	62.5876	24.1699	63.7011	24.1699	62.5193	24.1699	64.636	24.1699	62.6775	24.1699	65.6284	24.1699	63.1897	24.1699	66.6142	24.1699	64.0695	24.1699	67.5477	24.1699	65.1982	24.1699	68.3973	24.1699	66.4076	24.1699	69.14	24.1699	67.561	24.1699	69.7576	24.1699	68.5741	24.1699	70.2344	24.1699	69.404	24.1699	70.5558	24.1699	70.0327	24.1699	70.7081	24.1699	70.4562	24.1699	70.6785
25.6348	64.1379	25.6348	63.9531	25.6348	64.3074	25.6348	63.801	25.6348	64.4285	25.6348	63.7427	25.6348	64.4834	25.6348	63.8415	25.6348	64.4704	25.6348	64.1437	25.6348	64.408	25.6348	64.6592	25.6348	64.3433	25.6348	65.3577	25.6348	64.3586	25.6348	66.182	25.6348	64.5616	25.6348	67.0687	25.6348	65.0424	25.6348	67.9625	25.6348	65.8138	25.6348	68.8202	25.6348	66.7954	25.6348	69.6093	25.6348	67.8609	25.6348	70.3053	25.6348	68.8948	25.6348	70.888	25.6348	69.8174	25.6348	71.3404	25.6348	70.5823	25.6348	71.647	25.6348	71.1664	25.6348	71.7938	25.6348	71.5616	25.6348	71.7686
26.3672	65.0194	26.3672	64.8569	26.3672	65.1716	26.3672	64.7263	26.3672	65.2839	26.3672	64.6802	26.3672	65.3404	26.3672	64.7729	26.3672	65.3395	26.3672	65.0453	26.3672	65.298	26.3672	65.5095	26.3672	65.2575	26.3672	66.1434	26.3672	65.2891	26.3672	66.9007	26.3672	65.485	26.3672	67.7257	26.3672	65.9241	26.3672	68.5669	26.3672	66.6236	26.3672	69.382	26.3672	67.5215	26.3672	70.1378	26.3672	68.5093	26.3672	70.8083	26.3672	69.4805	26.3672	71.3724	26.3672	70.3562	26.3672	71.8117	26.3672	71.088	26.3672	72.1103	26.3672	71.6497	26.3672	72.254	26.3672	72.031	26.3672	72.2306
27.0996	65.843	27.0996	65.6987	27.0996	65.981	27.0996	65.5854	27.0996	66.0864	27.0996	65.5489	27.0996	66.145	27.0996	65.6364	27.0996	66.1556	27.0996	65.8844	27.0996	66.1339	27.0996	66.3059	27.0996	66.1172	27.0996	66.8855	27.0996	66.1675	27.0996	67.5848	27.0996	66.3641	27.0996	68.3554	27.0996	66.775	27.0996	69.1494	27.0996	67.4185	27.0996	69.9257	27.0996	68.2454	27.0996	70.651	27.0996	69.1627	27.0996	71.2983	27.0996	70.0735	27.0996	71.8456	27.0996	70.902	27.0996	72.2739	27.0996	71.5986	27.0996	72.5665	27.0996	72.1355	27.0996	72.7092	27.0996	72.5002	27.0996	72.69
27.832	66.5881	27.832	66.4626	27.832	66.7111	27.832	66.3677	27.832	66.8079	27.832	66.3436	27.832	66.8659	27.832	66.4313	27.832	66.884	27.832	66.6629	27.832	66.8769	27.832	67.0513	27.832	66.8782	27.832	67.5855	27.832	66.9426	27.832	68.234	27.832	67.1391	27.832	68.9545	27.832	67.5274	27.832	69.7033	27.832	68.1255	27.832	70.4413	27.832	68.8937	27.832	71.1354	27.832	69.7512	27.832	71.7583	27.832	70.6096	27.832	72.2872	27.832	71.3964	27.832	72.7025	27.832	72.0619	27.832	72.9873	27.832	72.5771	27.832	73.127	27.832	72.9277	27.832	73.1099
29.2969	68.0344	29.2969	67.9341	29.2969	68.1383	29.2969	67.8637	29.2969	68.2273	29.2969	67.8541	29.2969	68.2912	29.2969	67.9367	29.2969	68.3297	29.2969	68.1369	29.2969	68.3552	29.2969	68.4669	29.2969	68.3942	29.2969	68.9217	29.2969	68.489	29.2969	69.48	29.2969	68.6904	29.2969	70.1099	29.2969	69.0429	29.2969	70.7754	29.2969	69.5619	29.2969	71.4414	29.2969	70.2217	29.2969	72.0765	29.2969	70.9629	29.2969	72.6533	29.2969	71.7141	29.2969	73.1483	29.2969	72.4113	29.2969	73.5411	29.2969	73.007	29.2969	73.8141	29.2969	73.4706	29.2969	73.9528	29.2969	73.7854	29.2969	73.9456
30.0293	68.5286	30.0293	68.4356	30.0293	68.6273	30.0293	68.3724	30.0293	68.7144	30.0293	68.3673	30.0293	68.7802	30.0293	68.449	30.0293	68.8248	30.0293	68.6406	30.0293	68.8592	30.0293	68.9537	30.0293	68.9082	30.0293	69.3845	30.0293	69.0099	30.0293	69.9146	30.0293	69.2106	30.0293	70.5152	30.0293	69.5507	30.0293	71.1526	30.0293	70.0451	30.0293	71.7937	30.0293	70.6715	30.0293	72.4079	30.0293	71.3764	30.0293	72.968	30.0293	72.0936	30.0293	73.4505	30.0293	72.7619	30.0293	73.8348	30.0293	73.3346	30.0293	74.1032	30.0293	73.7811	30.0293	74.241	30.0293	74.084	30.0293	74.237
31.4941	69.7692	31.4941	69.6916	31.4941	69.8566	31.4941	69.6423	31.4941	69.9401	31.4941	69.6431	31.4941	70.0123	31.4941	69.7162	31.4941	70.0734	31.4941	69.8803	31.4941	70.1323	31.4941	70.1457	31.4941	70.208	31.4941	70.5121	31.4941	70.329	31.4941	70.9674	31.4941	70.5292	31.4941	71.4904	31.4941	70.838	31.4941	72.0539	31.4941	71.2678	31.4941	72.6291	31.4941	71.8043	31.4941	73.1876	31.4941	72.4088	31.4941	73.7033	31.4941	73.0293	31.4941	74.1524	31.4941	73.6135	31.4941	74.5142	31.4941	74.1187	31.4941	74.7706	31.4941	74.5142	31.4941	74.9071	31.4941	74.7817	31.4941	74.9127
32.2266	70.2487	32.2266	70.1785	32.2266	70.3308	32.2266	70.1373	32.2266	70.4125	32.2266	70.1448	32.2266	70.4867	32.2266	70.2209	32.2266	70.5536	32.2266	70.3822	32.2266	70.6211	32.2266	70.6382	32.2266	70.706	32.2266	70.9887	32.2266	70.834	32.2266	71.423	32.2266	71.0348	32.2266	71.9221	32.2266	71.3349	32.2266	72.461	32.2266	71.7456	32.2266	73.0126	32.2266	72.255	32.2266	73.5501	32.2266	72.8285	32.2266	74.0478	32.2266	73.4186	32.2266	74.4826	32.2266	73.9764	32.2266	74.8336	32.2266	74.4603	32.2266	75.0831	32.2266	74.8403	32.2266	75.2165	32.2266	75.0975	32.2266	75.2231
33.6914	71.2713	33.6914	71.2193	33.6914	71.3386	33.6914	71.196	33.6914	71.4111	33.6914	71.217	33.6914	71.4833	33.6914	71.2977	33.6914	71.5553	33.6914	71.4512	33.6914	71.6338	33.6914	71.6851	33.6914	71.7323	33.6914	72	33.6914	71.871	33.6914	72.3882	33.6914	72.0731	33.6914	72.835	33.6914	72.3588	33.6914	73.3202	33.6914	72.7368	33.6914	73.8206	33.6914	73.1975	33.6914	74.3121	33.6914	73.7133	33.6914	74.7709	33.6914	74.2443	33.6914	75.1746	33.6914	74.748	33.6914	75.5031	33.6914	75.1869	33.6914	75.7387	33.6914	75.5323	33.6914	75.8669	33.6914	75.7655	33.6914	75.8775
34.4238	71.9108	34.4238	71.8633	34.4238	71.9746	34.4238	71.8437	34.4238	72.0458	34.4238	71.8655	34.4238	72.12	34.4238	71.942	34.4238	72.1972	34.4238	72.0847	34.4238	72.2833	34.4238	72.3008	34.4238	72.39	34.4238	72.5913	34.4238	72.5345	34.4238	72.9503	34.4238	72.7363	34.4238	73.3652	34.4238	73.0123	34.4238	73.8185	34.4238	73.3694	34.4238	74.2891	34.4238	73.7993	34.4238	74.7544	34.4238	74.2778	34.4238	75.1917	34.4238	74.7696	34.4238	75.5793	34.4238	75.2363	34.4238	75.8971	34.4238	75.6428	34.4238	76.1276	34.4238	75.9619	34.4238	76.2567	34.4238	76.1755	34.4238	76.2743
35.8887	72.9501	35.8887	72.899	35.8887	73.0174	35.8887	72.8738	35.8887	73.0938	35.8887	72.8853	35.8887	73.1753	35.8887	72.9447	35.8887	73.2616	35.8887	73.0617	35.8887	73.3566	35.8887	73.2429	35.8887	73.469	35.8887	73.4902	35.8887	73.6114	35.8887	73.8002	35.8887	73.7987	35.8887	74.1633	35.8887	74.0438	35.8887	74.5653	35.8887	74.3531	35.8887	74.988	35.8887	74.7216	35.8887	75.4112	35.8887	75.1315	35.8887	75.8136	35.8887	75.5546	35.8887	76.1743	35.8887	75.9585	35.8887	76.4738	35.8887	76.3118	35.8887	76.695	35.8887	76.5889	35.8887	76.824	35.8887	76.7719	35.8887	76.851
37.3535	73.7264	37.3535	73.6788	37.3535	73.7909	37.3535	73.6561	37.3535	73.8665	37.3535	73.6672	37.3535	73.9495	37.3535	73.7214	37.3535	74.0395	37.3535	73.8267	37.3535	74.1395	37.3535	73.9889	37.3535	74.2559	37.3535	74.2101	37.3535	74.3985	37.3535	74.4878	37.3535	74.5788	37.3535	74.8147	37.3535	74.8072	37.3535	75.1789	37.3535	75.0889	37.3535	75.5648	37.3535	75.42	37.3535	75.9542	37.3535	75.7863	37.3535	76.3275	37.3535	76.1642	37.3535	76.6649	37.3535	76.5255	37.3535	76.9476	37.3535	76.8419	37.3535	77.1589	37.3535	77.0896	37.3535	77.2853	37.3535	77.2513	37.3535	77.3174
38.8184	74.4003	38.8184	74.3592	38.8184	74.4597	38.8184	74.3429	38.8184	74.5324	38.8184	74.3586	38.8184	74.6154	38.8184	74.4139	38.8184	74.7082	38.8184	74.5153	38.8184	74.8128	38.8184	74.6676	38.8184	74.9342	38.8184	74.8725	38.8184	75.0802	38.8184	75.1282	38.8184	75.2595	38.8184	75.4288	38.8184	75.4801	38.8184	75.7641	38.8184	75.7457	38.8184	76.1207	38.8184	76.0529	38.8184	76.4822	38.8184	76.3893	38.8184	76.8308	38.8184	76.7346	38.8184	77.1479	38.8184	77.0638	38.8184	77.4155	38.8184	77.3517	38.8184	77.6176	38.8184	77.5761	38.8184	77.741	38.8184	77.7209	38.8184	77.7767
39.5508	74.8254	39.5508	74.7852	39.5508	74.8847	39.5508	74.7698	39.5508	74.9585	39.5508	74.7857	39.5508	75.0442	39.5508	74.8394	39.5508	75.1409	39.5508	74.9367	39.5508	75.2504	39.5508	75.0819	39.5508	75.3767	39.5508	75.2765	39.5508	75.5261	39.5508	75.519	39.5508	75.7058	39.5508	75.804	39.5508	75.9222	39.5508	76.1225	39.5508	76.1781	39.5508	76.4621	39.5508	76.4701	39.5508	76.8077	39.5508	76.7869	39.5508	77.1423	39.5508	77.1102	39.5508	77.4481	39.5508	77.4173	39.5508	77.708	39.5508	77.6847	39.5508	77.9061	39.5508	77.8917	39.5508	78.0297	39.5508	78.0231	39.5508	78.0699
41.0156	75.598	41.0156	75.5545	41.0156	75.6602	41.0156	75.5343	41.0156	75.7372	41.0156	75.5428	41.0156	75.8265	41.0156	75.5853	41.0156	75.9271	41.0156	75.6666	41.0156	76.0397	41.0156	75.7904	41.0156	76.1667	41.0156	75.9585	41.0156	76.3122	41.0156	76.1701	41.0156	76.4813	41.0156	76.4212	41.0156	76.6785	41.0156	76.7046	41.0156	76.9059	41.0156	77.01	41.0156	77.1611	41.0156	77.3239	41.0156	77.4352	41.0156	77.6311	41.0156	77.7137	41.0156	77.9152	41.0156	77.9775	41.0156	78.1597	41.0156	78.2062	41.0156	78.3495	41.0156	78.3815	41.0156	78.4725	41.0156	78.4889	41.0156	78.5201
42.4805	76.1535	42.4805	76.1154	42.4805	76.2099	42.4805	76.0996	42.4805	76.2813	42.4805	76.1104	42.4805	76.3653	42.4805	76.1523	42.4805	76.4608	42.4805	76.2292	42.4805	76.568	42.4805	76.3444	42.4805	76.6886	42.4805	76.4993	42.4805	76.8257	42.4805	76.6934	42.4805	76.9833	42.4805	76.9236	42.4805	77.1653	42.4805	77.1837	42.4805	77.374	42.4805	77.4646	42.4805	77.6074	42.4805	77.7543	42.4805	77.8585	42.4805	78.0388	42.4805	78.1144	42.4805	78.3027	42.4805	78.3579	42.4805	78.5302	42.4805	78.5703	42.4805	78.707	42.4805	78.734	42.4805	78.8214	42.4805	78.8351	42.4805	78.8651
43.9453	76.7966	43.9453	76.7569	43.9453	76.8552	43.9453	76.7394	43.9453	76.9301	43.9453	76.7475	43.9453	77.0191	43.9453	76.7848	43.9453	77.121	43.9453	76.8548	43.9453	77.2357	43.9453	76.9599	43.9453	77.3637	43.9453	77.1015	43.9453	77.5068	43.9453	77.2795	43.9453	77.6672	43.9453	77.4912	43.9453	77.8471	43.9453	77.7316	43.9453	78.047	43.9453	77.9926	43.9453	78.2648	43.9453	78.2639	43.9453	78.4936	43.9453	78.5324	43.9453	78.7226	43.9453	78.7841	43.9453	78.937	43.9453	79.0042	43.9453	79.1207	43.9453	79.1792	43.9453	79.2582	43.9453	79.2975	43.9453	79.3376	43.9453	79.3514
45.4102	77.4234	45.4102	77.3844	45.4102	77.4814	45.4102	77.3671	45.4102	77.5561	45.4102	77.3744	45.4102	77.6455	45.4102	77.4092	45.4102	77.7482	45.4102	77.474	45.4102	77.8633	45.4102	77.5709	45.4102	77.9908	45.4102	77.701	45.4102	78.1314	45.4102	77.8641	45.4102	78.2861	45.4102	78.0579	45.4102	78.4563	45.4102	78.2783	45.4102	78.6419	45.4102	78.5182	45.4102	78.8409	45.4102	78.7686	45.4102	79.0477	45.4102	79.0177	45.4102	79.2528	45.4102	79.2527	45.4102	79.4436	45.4102	79.4599	45.4102	79.6057	45.4102	79.6264	45.4102	79.7254	45.4102	79.7416	45.4102	79.7917	45.4102	79.7977
47.6074	78.3107	47.6074	78.2727	47.6074	78.3678	47.6074	78.2558	47.6074	78.4423	47.6074	78.2619	47.6074	78.5325	47.6074	78.2927	47.6074	78.6368	47.6074	78.3502	47.6074	78.7538	47.6074	78.4355	47.6074	78.8825	47.6074	78.5494	47.6074	79.0222	47.6074	78.6919	47.6074	79.1727	47.6074	78.8614	47.6074	79.3335	47.6074	79.0547	47.6074	79.5039	47.6074	79.2664	47.6074	79.6813	47.6074	79.4891	47.6074	79.861	47.6074	79.713	47.6074	80.0352	47.6074	79.927	47.6074	80.1938	47.6074	80.1189	47.6074	80.325	47.6074	80.277	47.6074	80.4177	47.6074	80.3911	47.6074	80.4625	47.6074	80.4541
49.0723	78.832	49.0723	78.7924	49.0723	78.8904	49.0723	78.7731	49.0723	78.9661	49.0723	78.7756	49.0723	79.0574	49.0723	78.8014	49.0723	79.1626	49.0723	78.8516	49.0723	79.28	49.0723	78.9275	49.0723	79.408	49.0723	79.0296	49.0723	79.5451	49.0723	79.1579	49.0723	79.6903	49.0723	79.3112	49.0723	79.8426	49.0723	79.4869	49.0723	80.0004	49.0723	79.6806	49.0723	80.1616	49.0723	79.8857	49.0723	80.3218	49.0723	80.0937	49.0723	80.4746	49.0723	80.2944	49.0723	80.6114	49.0723	80.4766	49.0723	80.722	49.0723	80.6292	49.0723	80.7968	49.0723	80.7426	49.0723	80.8276	49.0723	80.8099
50.5371	79.328	50.5371	79.2874	50.5371	79.3875	50.5371	79.2669	50.5371	79.4644	50.5371	79.2676	50.5371	79.5573	50.5371	79.2904	50.5371	79.6642	50.5371	79.3362	50.5371	79.7832	50.5371	79.4059	50.5371	79.9121	50.5371	79.4999	50.5371	80.049	50.5371	79.6182	50.5371	80.1919	50.5371	79.7597	50.5371	80.3392	50.5371	79.9223	50.5371	80.489	50.5371	80.1023	50.5371	80.6388	50.5371	80.2939	50.5371	80.7848	50.5371	80.4896	50.5371	80.9213	50.5371	80.6799	50.5371	81.0408	50.5371	80.8545	50.5371	81.1348	50.5371	81.0031	50.5371	81.1948	50.5371	81.1165	50.5371	81.2138	50.5371	81.1878
52.7344	80.0707	52.7344	80.0309	52.7344	80.1292	52.7344	80.0105	52.7344	80.2052	52.7344	80.0101	52.7344	80.2973	52.7344	80.0301	52.7344	80.4035	52.7344	80.0708	52.7344	80.5214	52.7344	80.1326	52.7344	80.6484	52.7344	80.2157	52.7344	80.7817	52.7344	80.3197	52.7344	80.9186	52.7344	80.4441	52.7344	81.0566	52.7344	80.5872	52.7344	81.1934	52.7344	80.746	52.7344	81.3263	52.7344	80.9162	52.7344	81.452	52.7344	81.0913	52.7344	81.566	52.7344	81.2636	52.7344	81.6624	52.7344	81.4239	52.7344	81.7346	52.7344	81.563	52.7344	81.776	52.7344	81.6727	52.7344	81.7809	52.7344	81.7464
54.1992	80.558	54.1992	80.5188	54.1992	80.6154	54.1992	80.4984	54.1992	80.6901	54.1992	80.4969	54.1992	80.7807	54.1992	80.5146	54.1992	80.8851	54.1992	80.5514	54.1992	81.001	54.1992	80.6074	54.1992	81.1253	54.1992	80.6826	54.1992	81.2549	54.1992	80.7768	54.1992	81.3867	54.1992	80.8894	54.1992	81.5178	54.1992	81.0192	54.1992	81.6455	54.1992	81.1639	54.1992	81.7673	54.1992	81.3196	54.1992	81.88	54.1992	81.481	54.1992	81.9798	54.1992	81.6411	54.1992	82.0617	54.1992	81.7917	54.1992	82.1203	54.1992	81.9244	54.1992	82.1499	54.1992	82.0313	54.1992	82.146	54.1992	82.1063
56.3965	81.2613	56.3965	81.2206	56.3965	81.3201	56.3965	81.1982	56.3965	81.3963	56.3965	81.1941	56.3965	81.4885	56.3965	81.2078	56.3965	81.5947	56.3965	81.2392	56.3965	81.7119	56.3965	81.2877	56.3965	81.8368	56.3965	81.3533	56.3965	81.9657	56.3965	81.4356	56.3965	82.0946	56.3965	81.5343	56.3965	82.2202	56.3965	81.6485	56.3965	82.339	56.3965	81.7765	56.3965	82.4482	56.3965	81.9156	56.3965	82.545	56.3965	82.0617	56.3965	82.6261	56.3965	82.2089	56.3965	82.6878	56.3965	82.3503	56.3965	82.7261	56.3965	82.4784	56.3965	82.7371	56.3965	82.5859	56.3965	82.7177	56.3965	82.6669
58.5938	81.9781	58.5938	81.936	58.5938	82.0377	58.5938	81.9114	58.5938	82.1143	58.5938	81.9039	58.5938	82.2066	58.5938	81.9128	58.5938	82.3125	58.5938	81.9374	58.5938	82.4289	58.5938	81.9772	58.5938	82.5522	58.5938	82.0319	58.5938	82.6781	58.5938	82.101	58.5938	82.8024	58.5938	82.1843	58.5938	82.9208	58.5938	82.2816	58.5938	83.0296	58.5938	82.3919	58.5938	83.1256	58.5938	82.5134	58.5938	83.2061	58.5938	82.6431	58.5938	83.2685	58.5938	82.7765	58.5938	83.3101	58.5938	82.9078	58.5938	83.3284	58.5938	83.0306	58.5938	83.3209	58.5938	83.1381	58.5938	83.2864	58.5938	83.2247
60.0586	82.3871	60.0586	82.3415	60.0586	82.4497	60.0586	82.3128	60.0586	82.5287	60.0586	82.3004	60.0586	82.6227	60.0586	82.3036	60.0586	82.7296	60.0586	82.3216	60.0586	82.8462	60.0586	82.3536	60.0586	82.9683	60.0586	82.3993	60.0586	83.0916	60.0586	82.4584	60.0586	83.2113	60.0586	82.5307	60.0586	83.323	60.0586	82.6163	60.0586	83.4227	60.0586	82.7146	60.0586	83.5072	60.0586	82.8244	60.0586	83.5741	60.0586	82.9435	60.0586	83.6212	60.0586	83.0681	60.0586	83.647	60.0586	83.1932	60.0586	83.6497	60.0586	83.3129	60.0586	83.6283	60.0586	83.4211	60.0586	83.5822	60.0586	83.5123
62.2559	82.9629	62.2559	82.9149	62.2559	83.0275	62.2559	82.8832	62.2559	83.1081	62.2559	82.8672	62.2559	83.2031	62.2559	82.8659	62.2559	83.3102	62.2559	82.8783	62.2559	83.4259	62.2559	82.9036	62.2559	83.5459	62.2559	82.941	62.2559	83.6653	62.2559	82.9902	62.2559	83.7791	62.2559	83.0512	62.2559	83.8826	62.2559	83.124	62.2559	83.9716	62.2559	83.2086	62.2559	84.0432	62.2559	83.3044	62.2559	84.0951	62.2559	83.4101	62.2559	84.1261	62.2559	83.5228	62.2559	84.1352	62.2559	83.6387	62.2559	84.1221	62.2559	83.7526	62.2559	84.0867	62.2559	83.859	62.2559	84.0298	62.2559	83.9529
64.4531	83.5627	64.4531	83.513	64.4531	83.6284	64.4531	83.4792	64.4531	83.7098	64.4531	83.4603	64.4531	83.8055	64.4531	83.4552	64.4531	83.9129	64.4531	83.4626	64.4531	84.0284	64.4531	83.4815	64.4531	84.1477	64.4531	83.511	64.4531	84.2654	64.4531	83.5507	64.4531	84.3763	64.4531	83.6008	64.4531	84.4752	64.4531	83.6615	64.4531	84.5576	64.4531	83.7333	64.4531	84.6203	64.4531	83.8164	64.4531	84.661	64.4531	83.9103	64.4531	84.6786	64.4531	84.0131	64.4531	84.6729	64.4531	84.122	64.4531	84.6447	64.4531	84.2327	64.4531	84.5949	64.4531	84.3402	64.4531	84.5256	64.4531	84.4394
66.6504	84.0497	66.6504	83.9989	66.6504	84.1154	66.6504	83.9626	66.6504	84.1955	66.6504	83.9397	66.6504	84.2888	66.6504	83.9289	66.6504	84.3928	66.6504	83.9288	66.6504	84.504	66.6504	83.9384	66.6504	84.6177	66.6504	83.9566	66.6504	84.7287	66.6504	83.9833	66.6504	84.8314	66.6504	84.0186	66.6504	84.9206	66.6504	84.0632	66.6504	84.9916	66.6504	84.1183	66.6504	85.0409	66.6504	84.1846	66.6504	85.0666	66.6504	84.2627	66.6504	85.0679	66.6504	84.3519	66.6504	85.0455	66.6504	84.4502	66.6504	85.001	66.6504	84.5544	66.6504	84.9367	66.6504	84.66	66.6504	84.8559	66.6504	84.7621
69.5801	84.7865	69.5801	84.7327	69.5801	84.8545	69.5801	84.6926	69.5801	84.9363	69.5801	84.6652	69.5801	85.0304	69.5801	84.649	69.5801	85.1344	69.5801	84.6427	69.5801	85.2443	69.5801	84.6448	69.5801	85.3555	69.5801	84.6545	69.5801	85.4624	69.5801	84.6715	69.5801	85.5593	69.5801	84.696	69.5801	85.6407	69.5801	84.729	69.5801	85.7018	69.5801	84.7719	69.5801	85.7393	69.5801	84.8261	69.5801	85.7514	69.5801	84.8927	69.5801	85.738	69.5801	84.972	69.5801	85.7005	69.5801	85.0627	69.5801	85.6414	69.5801	85.1623	69.5801	85.5642	69.5801	85.2671	69.5801	85.4729	69.5801	85.3723
71.7773	85.1823	71.7773	85.1261	71.7773	85.2526	71.7773	85.0836	71.7773	85.3366	71.7773	85.0538	71.7773	85.4327	71.7773	85.0352	71.7773	85.5384	71.7773	85.0263	71.7773	85.6496	71.7773	85.0255	71.7773	85.7615	71.7773	85.0319	71.7773	85.8684	71.7773	85.045	71.7773	85.9644	71.7773	85.065	71.7773	86.0438	71.7773	85.0929	71.7773	86.1017	71.7773	85.13	71.7773	86.1344	71.7773	85.1781	71.7773	86.1401	71.7773	85.2387	71.7773	86.1188	71.7773	85.3127	71.7773	86.0722	71.7773	85.3994	71.7773	86.0036	71.7773	85.4972	71.7773	85.9172	71.7773	85.6026	71.7773	85.8179	71.7773	85.7112
73.9746	85.6906	73.9746	85.6346	73.9746	85.7599	73.9746	85.5914	73.9746	85.8421	73.9746	85.5598	73.9746	85.9356	73.9746	85.5383	73.9746	86.0378	73.9746	85.5253	73.9746	86.1447	73.9746	85.5191	73.9746	86.2513	73.9746	85.5185	73.9746	86.352	73.9746	85.5231	73.9746	86.4406	73.9746	85.5329	73.9746	86.5113	73.9746	85.549	73.9746	86.5591	73.9746	85.5731	73.9746	86.5805	73.9746	85.6073	73.9746	86.5739	73.9746	85.6539	73.9746	86.5396	73.9746	85.7145	73.9746	86.4801	73.9746	85.7897	73.9746	86.3995	73.9746	85.8788	73.9746	86.3031	73.9746	85.9791	73.9746	86.1968	73.9746	86.0869
76.9043	86.1151	76.9043	86.0601	76.9043	86.1835	76.9043	86.0181	76.9043	86.2649	76.9043	85.9875	76.9043	86.358	76.9043	85.9667	76.9043	86.4598	76.9043	85.9536	76.9043	86.5663	76.9043	85.9463	76.9043	86.6725	76.9043	85.9434	76.9043	86.7724	76.9043	85.9441	76.9043	86.8597	76.9043	85.9484	76.9043	86.9284	76.9043	85.9574	76.9043	86.9733	76.9043	85.973	76.9043	86.9905	76.9043	85.998	76.9043	86.9785	76.9043	86.0353	76.9043	86.9375	76.9043	86.0874	76.9043	86.8704	76.9043	86.1559	76.9043	86.7817	76.9043	86.2408	76.9043	86.6773	76.9043	86.34	76.9043	86.5643	76.9043	86.4497
79.834	86.5349	79.834	86.4787	79.834	86.6036	79.834	86.4345	79.834	86.6847	79.834	86.4008	79.834	86.7767	79.834	86.3761	79.834	86.8772	79.834	86.3583	79.834	86.9826	79.834	86.3456	79.834	87.0881	79.834	86.3366	79.834	87.1879	79.834	86.3307	79.834	87.2757	79.834	86.3281	79.834	87.3454	79.834	86.33	79.834	87.3911	79.834	86.3388	79.834	87.4085	79.834	86.3577	79.834	87.395	79.834	86.3901	79.834	87.3506	79.834	86.4393	79.834	87.2775	79.834	86.5075	79.834	87.1805	79.834	86.595	79.834	87.0662	79.834	86.7	79.834	86.9426	79.834	86.8179
82.7637	87.0715	82.7637	87.013	82.7637	87.1389	82.7637	86.963	82.7637	87.215	82.7637	86.9204	82.7637	87.2982	82.7637	86.8834	82.7637	87.3861	82.7637	86.8503	82.7637	87.4752	82.7637	86.8192	82.7637	87.5607	82.7637	86.789	82.7637	87.6374	82.7637	86.759	82.7637	87.6994	82.7637	86.7297	82.7637	87.7408	82.7637	86.7028	82.7637	87.7568	82.7637	86.6812	82.7637	87.7435	82.7637	86.669	82.7637	87.6994	82.7637	86.6709	82.7637	87.6254	82.7637	86.6917	82.7637	87.5252	82.7637	86.7353	82.7637	87.405	82.7637	86.8037	82.7637	87.2728	82.7637	86.8963	82.7637	87.138	82.7637	87.0097
85.6934	87.4265	85.6934	87.3641	85.6934	87.4968	85.6934	87.3089	85.6934	87.5744	85.6934	87.2597	85.6934	87.6578	85.6934	87.2148	85.6934	87.7443	85.6934	87.1721	85.6934	87.83	85.6934	87.13	85.6934	87.9101	85.6934	87.0869	85.6934	87.9788	85.6934	87.0424	85.6934	88.0301	85.6934	86.9972	85.6934	88.0582	85.6934	86.9532	85.6934	88.0582	85.6934	86.9138	85.6934	88.0267	85.6934	86.884	85.6934	87.9628	85.6934	86.8693	85.6934	87.8681	85.6934	86.8755	85.6934	87.7475	85.6934	86.9077	85.6934	87.6082	85.6934	86.9688	85.6934	87.4595	85.6934	87.0591	85.6934	87.3119	85.6934	87.1756
88.623	87.4012	88.623	87.3373	88.623	87.4778	88.623	87.2858	88.623	87.5667	88.623	87.2452	88.623	87.6662	88.623	87.2136	88.623	87.7731	88.623	87.1886	88.623	87.8833	88.623	87.168	88.623	87.9914	88.623	87.15	88.623	88.0911	88.623	87.1337	88.623	88.1755	88.623	87.119	88.623	88.2381	88.623	87.1074	88.623	88.2729	88.623	87.1015	88.623	88.2755	88.623	87.1052	88.623	88.2435	88.623	87.1232	88.623	88.1774	88.623	87.1602	88.623	88.0807	88.623	87.2199	88.623	87.9595	88.623	87.304	88.623	87.8223	88.623	87.4117	88.623	87.6787	88.623	87.5389
91.5527	87.4354	91.5527	87.371	91.5527	87.5149	91.5527	87.3215	91.5527	87.6088	91.5527	87.2859	91.5527	87.7153	91.5527	87.2624	91.5527	87.8315	91.5527	87.2488	91.5527	87.9536	91.5527	87.2428	91.5527	88.0765	91.5527	87.2423	91.5527	88.1942	91.5527	87.2458	91.5527	88.2998	91.5527	87.2529	91.5527	88.3864	91.5527	87.2641	91.5527	88.4471	91.5527	87.2815	91.5527	88.4763	91.5527	87.3083	91.5527	88.4703	91.5527	87.3484	91.5527	88.428	91.5527	87.4058	91.5527	88.3513	91.5527	87.4836	91.5527	88.2453	91.5527	87.5828	91.5527	88.1176	91.5527	87.7019	91.5527	87.9778	91.5527	87.8361
94.4824	87.8677	94.4824	87.7972	94.4824	87.9443	94.4824	87.7326	94.4824	88.0265	94.4824	87.6731	94.4824	88.1133	94.4824	87.6177	94.4824	88.2028	94.4824	87.5651	94.4824	88.2921	94.4824	87.5141	94.4824	88.3774	94.4824	87.4639	94.4824	88.4541	94.4824	87.4145	94.4824	88.5166	94.4824	87.3668	94.4824	88.5586	94.4824	87.3234	94.4824	88.5743	94.4824	87.2879	94.4824	88.5586	94.4824	87.2654	94.4824	88.5081	94.4824	87.2619	94.4824	88.4225	94.4824	87.2833	94.4824	88.3045	94.4824	87.3344	94.4824	88.1602	94.4824	87.4178	94.4824	87.9993	94.4824	87.5325	94.4824	87.8331	94.4824	87.6738
98.1445	88.0552	98.1445	87.9884	98.1445	88.1271	98.1445	87.9262	98.1445	88.2035	98.1445	87.8678	98.1445	88.283	98.1445	87.8116	98.1445	88.3636	98.1445	87.756	98.1445	88.4421	98.1445	87.6992	98.1445	88.5146	98.1445	87.6399	98.1445	88.5763	98.1445	87.5777	98.1445	88.6216	98.1445	87.5135	98.1445	88.6447	98.1445	87.4497	98.1445	88.6399	98.1445	87.3906	98.1445	88.6027	98.1445	87.342	98.1445	88.5307	98.1445	87.3112	98.1445	88.4243	98.1445	87.3057	98.1445	88.2875	98.1445	87.3322	98.1445	88.1278	98.1445	87.3948	98.1445	87.956	98.1445	87.4944	98.1445	87.7848	98.1445	87.6271
101.807	88.0534	101.807	87.9893	101.807	88.1224	101.807	87.9301	101.807	88.1958	101.807	87.8751	101.807	88.2723	101.807	87.8228	101.807	88.3497	101.807	87.7717	101.807	88.4253	101.807	87.72	101.807	88.4954	101.807	87.6664	101.807	88.5558	101.807	87.6104	101.807	88.6012	101.807	87.5525	101.807	88.6262	101.807	87.4949	101.807	88.6253	101.807	87.4415	101.807	88.5939	101.807	87.3979	101.807	88.5294	101.807	87.3707	101.807	88.4317	101.807	87.3672	101.807	88.3042	101.807	87.3939	101.807	88.1541	101.807	87.4549	101.807	87.9915	101.807	87.5508	101.807	87.8286	101.807	87.678
105.469	88.0745	105.469	88.0106	105.469	88.1417	105.469	87.9506	105.469	88.2112	105.469	87.8941	105.469	88.2814	105.469	87.8403	105.469	88.3499	105.469	87.7875	105.469	88.4142	105.469	87.7341	105.469	88.4713	105.469	87.6786	105.469	88.5176	105.469	87.6203	105.469	88.5491	105.469	87.5596	105.469	88.5614	105.469	87.4985	105.469	88.55	105.469	87.4405	105.469	88.5111	105.469	87.3913	105.469	88.4425	105.469	87.3576	105.469	88.344	105.469	87.3465	105.469	88.2189	105.469	87.3649	105.469	88.0737	105.469	87.4169	105.469	87.9179	105.469	87.5036	105.469	87.7631	105.469	87.6215
109.131	88.1821	109.131	88.102	109.131	88.2645	109.131	88.0252	109.131	88.3477	109.131	87.952	109.131	88.4297	109.131	87.8817	109.131	88.5081	109.131	87.8136	109.131	88.5801	109.131	87.7465	109.131	88.6425	109.131	87.6792	109.131	88.6918	109.131	87.6116	109.131	88.7239	109.131	87.5443	109.131	88.7344	109.131	87.4796	109.131	88.7189	109.131	87.4216	109.131	88.6737	109.131	87.3757	109.131	88.5965	109.131	87.3489	109.131	88.4874	109.131	87.3481	109.131	88.3496	109.131	87.3795	109.131	88.1899	109.131	87.447	109.131	88.018	109.131	87.5507	109.131	87.846	109.131	87.6865
112.793	88.2007	112.793	88.1227	112.793	88.28	112.793	88.0468	112.793	88.3591	112.793	87.9734	112.793	88.4362	112.793	87.9021	112.793	88.5094	112.793	87.832	112.793	88.5763	112.793	87.7623	112.793	88.6343	112.793	87.692	112.793	88.6801	112.793	87.6211	112.793	88.71	112.793	87.5505	112.793	88.7197	112.793	87.4827	112.793	88.7048	112.793	87.4218	112.793	88.6611	112.793	87.3736	112.793	88.586	112.793	87.3449	112.793	88.4791	112.793	87.3429	112.793	88.3433	112.793	87.3739	112.793	88.1848	112.793	87.4413	112.793	88.0136	112.793	87.5454	112.793	87.8416	112.793	87.6817
116.455	88.1401	116.455	88.0642	116.455	88.2166	116.455	87.9902	116.455	88.292	116.455	87.9187	116.455	88.3644	116.455	87.8499	116.455	88.4319	116.455	87.783	116.455	88.4925	116.455	87.7173	116.455	88.5443	116.455	87.6521	116.455	88.5849	116.455	87.5872	116.455	88.6115	116.455	87.5234	116.455	88.6208	116.455	87.4631	116.455	88.6088	116.455	87.41	116.455	88.5717	116.455	87.3695	116.455	88.5068	116.455	87.3479	116.455	88.4129	116.455	87.3515	116.455	88.2919	116.455	87.3858	116.455	88.149	116.455	87.4537	116.455	87.9927	116.455	87.5546	116.455	87.8338	116.455	87.6841
120.85	88.0654	120.85	87.9824	120.85	88.1462	120.85	87.8992	120.85	88.2226	120.85	87.8176	120.85	88.2921	120.85	87.7383	120.85	88.3527	120.85	87.6618	120.85	88.4026	120.85	87.588	120.85	88.4403	120.85	87.5166	120.85	88.464	120.85	87.4478	120.85	88.4723	120.85	87.3824	120.85	88.4629	120.85	87.3223	120.85	88.4335	120.85	87.2708	120.85	88.3817	120.85	87.2322	120.85	88.3059	120.85	87.2115	120.85	88.206	120.85	87.2142	120.85	88.0842	120.85	87.2446	120.85	87.9455	120.85	87.3053	120.85	87.7976	120.85	87.396	120.85	87.6502	120.85	87.5132
125.244	88.0676	125.244	87.9755	125.244	88.1549	125.244	87.8803	125.244	88.2352	125.244	87.7834	125.244	88.3064	125.244	87.6858	125.244	88.3665	125.244	87.5877	125.244	88.4135	125.244	87.4895	125.244	88.4457	125.244	87.3913	125.244	88.4611	125.244	87.2942	125.244	88.4576	125.244	87.1999	125.244	88.4327	125.244	87.1116	125.244	88.3837	125.244	87.0337	125.244	88.3083	125.244	86.972	125.244	88.205	125.244	86.9328	125.244	88.0745	125.244	86.9224	125.244	87.9205	125.244	86.9462	125.244	87.7494	125.244	87.0073	125.244	87.5709	125.244	87.1059	125.244	87.3966	125.244	87.2381
129.639	87.775	129.639	87.6948	129.639	87.8508	129.639	87.6112	129.639	87.9206	129.639	87.5248	129.639	87.9829	129.639	87.4355	129.639	88.036	129.639	87.3427	129.639	88.0784	129.639	87.2454	129.639	88.1082	129.639	87.1434	129.639	88.1233	129.639	87.037	129.639	88.1211	129.639	86.928	129.639	88.098	129.639	86.8201	129.639	88.0501	129.639	86.7189	129.639	87.9736	129.639	86.6317	129.639	87.866	129.639	86.5672	129.639	87.7273	129.639	86.534	129.639	87.5611	129.639	86.54	129.639	87.3749	129.639	86.5901	129.639	87.1803	129.639	86.6854	129.639	86.9912	129.639	86.822
134.033	87.3975	134.033	87.3077	134.033	87.4853	134.033	87.2179	134.033	87.5688	134.033	87.1299	134.033	87.6458	134.033	87.0443	134.033	87.7147	134.033	86.9614	134.033	87.7743	134.033	86.8806	134.033	87.8237	134.033	86.8016	134.033	87.8618	134.033	86.7244	134.033	87.8868	134.033	86.6504	134.033	87.8958	134.033	86.5823	134.033	87.8844	134.033	86.5243	134.033	87.848	134.033	86.4824	134.033	87.7818	134.033	86.4632	134.033	87.6834	134.033	86.4734	134.033	87.5534	134.033	86.5185	134.033	87.3966	134.033	86.6012	134.033	87.2221	134.033	86.7205	134.033	87.0423	134.033	86.8708
138.428	87.3624	138.428	87.2563	138.428	87.4627	138.428	87.1477	138.428	87.5542	138.428	87.0395	138.428	87.6341	138.428	86.9339	138.428	87.7009	138.428	86.8324	138.428	87.7539	138.428	86.7357	138.428	87.7933	138.428	86.6447	138.428	87.8195	138.428	86.5603	138.428	87.8326	138.428	86.4847	138.428	87.8317	138.428	86.4209	138.428	87.8141	138.428	86.3733	138.428	87.7758	138.428	86.3471	138.428	87.7126	138.428	86.3476	138.428	87.6211	138.428	86.3797	138.428	87.5005	138.428	86.4463	138.428	87.3535	138.428	86.5478	138.428	87.1872	138.428	86.6809	138.428	87.0116	138.428	86.8389
143.555	87.2931	143.555	87.1824	143.555	87.394	143.555	87.0654	143.555	87.4817	143.555	86.9456	143.555	87.5533	143.555	86.8255	143.555	87.6072	143.555	86.7068	143.555	87.6428	143.555	86.5908	143.555	87.6606	143.555	86.4784	143.555	87.6614	143.555	86.3709	143.555	87.646	143.555	86.2707	143.555	87.6145	143.555	86.1814	143.555	87.5654	143.555	86.1079	143.555	87.4963	143.555	86.0564	143.555	87.4041	143.555	86.033	143.555	87.2868	143.555	86.0433	143.555	87.1445	143.555	86.0911	143.555	86.981	143.555	86.1772	143.555	86.8037	143.555	86.2993	143.555	86.6231	143.555	86.4511
148.682	87.1034	148.682	86.9921	148.682	87.2017	148.682	86.8715	148.682	87.2836	148.682	86.7455	148.682	87.3468	148.682	86.6174	148.682	87.3904	148.682	86.4899	148.682	87.4148	148.682	86.3648	148.682	87.4219	148.682	86.244	148.682	87.4139	148.682	86.1296	148.682	87.3929	148.682	86.0246	148.682	87.3595	148.682	85.9329	148.682	87.3124	148.682	85.8596	148.682	87.2486	148.682	85.8108	148.682	87.1637	148.682	85.792	148.682	87.0544	148.682	85.8081	148.682	86.9194	148.682	85.862	148.682	86.7617	148.682	85.954	148.682	86.588	148.682	86.0807	148.682	86.4085	148.682	86.2355
153.809	87.0654	153.809	86.9449	153.809	87.1667	153.809	86.8094	153.809	87.2455	153.809	86.663	153.809	87.2995	153.809	86.5094	153.809	87.3281	153.809	86.3522	153.809	87.3323	153.809	86.1944	153.809	87.3144	153.809	86.0393	153.809	87.278	153.809	85.8905	153.809	87.2265	153.809	85.7529	153.809	87.1626	153.809	85.6323	153.809	87.0868	153.809	85.5353	153.809	86.9976	153.809	85.469	153.809	86.8917	153.809	85.4396	153.809	86.7656	153.809	85.4516	153.809	86.6178	153.809	85.5065	153.809	86.4498	153.809	85.6032	153.809	86.2674	153.809	85.7367	153.809	86.08	153.809	85.8992
159.668	86.974	159.668	86.8489	159.668	87.0808	159.668	86.7094	159.668	87.1656	159.668	86.5593	159.668	87.2259	159.668	86.402	159.668	87.2602	159.668	86.24	159.668	87.269	159.668	86.0759	159.668	87.2542	159.668	85.9121	159.668	87.2186	159.668	85.7521	159.668	87.1655	159.668	85.6006	159.668	87.0972	159.668	85.4641	159.668	87.0142	159.668	85.3502	159.668	86.9147	159.668	85.2674	159.668	86.7955	159.668	85.2237	159.668	86.6533	159.668	85.2252	159.668	86.4867	159.668	85.275	159.668	86.2982	159.668	85.3726	159.668	86.0947	159.668	85.5134	159.668	85.8871	159.668	85.6889
164.795	86.7633	164.795	86.6374	164.795	86.8706	164.795	86.4977	164.795	86.9553	164.795	86.349	164.795	87.0145	164.795	86.1957	164.795	87.0474	164.795	86.0413	164.795	87.0549	164.795	85.8892	164.795	87.0399	164.795	85.7425	164.795	87.0067	164.795	85.6048	164.795	86.9595	164.795	85.4805	164.795	86.9019	164.795	85.3754	164.795	86.8351	164.795	85.2956	164.795	86.7577	164.795	85.2474	164.795	86.6661	164.795	85.2361	164.795	86.5559	164.795	85.2649	164.795	86.4242	164.795	85.3344	164.795	86.2712	164.795	85.4419	164.795	86.1013	164.795	85.5818	164.795	85.9225	164.795	85.7455
170.654	86.4917	170.654	86.3767	170.654	86.5863	170.654	86.2456	170.654	86.657	170.654	86.1027	170.654	86.702	170.654	85.9522	170.654	86.721	170.654	85.798	170.654	86.7162	170.654	85.6436	170.654	86.6916	170.654	85.4933	170.654	86.6527	170.654	85.3519	170.654	86.6048	170.654	85.2255	170.654	86.5522	170.654	85.1214	170.654	86.4962	170.654	85.047	170.654	86.435	170.654	85.0086	170.654	86.3636	170.654	85.0106	170.654	86.276	170.654	85.0541	170.654	86.1677	170.654	85.1369	170.654	86.0371	170.654	85.2537	170.654	85.887	170.654	85.3968	170.654	85.7239	170.654	85.557
176.514	86.3575	176.514	86.2387	176.514	86.4514	176.514	86.0996	176.514	86.5165	176.514	85.9453	176.514	86.5507	176.514	85.7803	176.514	86.5541	176.514	85.6092	176.514	86.5294	176.514	85.436	176.514	86.4818	176.514	85.2657	176.514	86.4183	176.514	85.1043	176.514	86.3466	176.514	84.9592	176.514	86.2731	176.514	84.8391	176.514	86.2009	176.514	84.7529	176.514	86.129	176.514	84.7077	176.514	86.0526	176.514	84.7077	176.514	85.9648	176.514	84.7531	176.514	85.8594	176.514	84.8397	176.514	85.7336	176.514	84.9602	176.514	85.5885	176.514	85.1055	176.514	85.4297	176.514	85.2655
183.105	86.1661	183.105	86.0319	183.105	86.2715	183.105	85.8743	183.105	86.344	183.105	85.6987	183.105	86.3808	183.105	85.5102	183.105	86.3816	183.105	85.3137	183.105	86.3488	183.105	85.1138	183.105	86.2878	183.105	84.9161	183.105	86.2061	183.105	84.7276	183.105	86.1124	183.105	84.557	183.105	86.0147	183.105	84.4145	183.105	85.9179	183.105	84.3105	183.105	85.8228	183.105	84.2535	183.105	85.7251	183.105	84.248	183.105	85.6183	183.105	84.2937	183.105	85.4959	183.105	84.3856	183.105	85.3544	183.105	84.5149	183.105	85.1946	183.105	84.6714	183.105	85.0217	183.105	84.8439
189.697	86.0139	189.697	85.8747	189.697	86.1222	189.697	85.7103	189.697	86.1944	189.697	85.5264	189.697	86.2273	189.697	85.3279	189.697	86.2199	189.697	85.119	189.697	86.1745	189.697	84.9035	189.697	86.0967	189.697	84.6866	189.697	85.995	189.697	84.475	189.697	85.8797	189.697	84.2784	189.697	85.7606	189.697	84.109	189.697	85.6449	189.697	83.9798	189.697	85.5346	189.697	83.9021	189.697	85.4263	189.697	83.8831	189.697	85.3127	189.697	83.9233	189.697	85.1856	189.697	84.0172	189.697	85.0397	189.697	84.1543	189.697	84.8743	189.697	84.3215	189.697	84.6934	189.697	84.5055
196.289	85.9529	196.289	85.8177	196.289	86.0526	196.289	85.6535	196.289	86.1119	196.289	85.4673	196.289	86.1279	196.289	85.2658	196.289	86.1008	196.289	85.0553	196.289	86.0343	196.289	84.8414	196.289	85.9355	196.289	84.6306	196.289	85.8147	196.289	84.4302	196.289	85.6838	196.289	84.2494	196.289	85.5543	196.289	84.0987	196.289	85.4343	196.289	83.989	196.289	85.3265	196.289	83.9285	196.289	85.2276	196.289	83.9213	196.289	85.13	196.289	83.9655	196.289	85.0251	196.289	84.0539	196.289	84.9069	196.289	84.1757	196.289	84.7734	196.289	84.3191	196.289	84.6268	196.289	84.4728
202.881	85.889	202.881	85.7497	202.881	85.9877	202.881	85.5762	202.881	86.0408	202.881	85.3748	202.881	86.0453	202.881	85.1521	202.881	86.0009	202.881	84.9148	202.881	85.911	202.881	84.6702	202.881	85.7828	202.881	84.427	202.881	85.6275	202.881	84.1963	202.881	85.4596	202.881	83.9913	202.881	85.2943	202.881	83.8262	202.881	85.1441	202.881	83.7138	202.881	85.0159	202.881	83.6618	202.881	84.9086	202.881	83.6708	202.881	84.8147	202.881	83.7338	202.881	84.7234	202.881	83.8379	202.881	84.6256	202.881	83.9683	202.881	84.5152	202.881	84.1108	202.881	84.3907	202.881	84.2542
210.205	85.6289	210.205	85.482	210.205	85.7355	210.205	85.3	210.205	85.7971	210.205	85.088	210.205	85.811	210.205	84.8505	210.205	85.7771	210.205	84.5917	210.205	85.6989	210.205	84.3162	210.205	85.5835	210.205	84.0312	210.205	85.4411	210.205	83.748	210.205	85.2844	210.205	83.4824	210.205	85.1255	210.205	83.2546	210.205	84.9735	210.205	83.0849	210.205	84.8316	210.205	82.9896	210.205	84.6964	210.205	82.9751	210.205	84.5605	210.205	83.0361	210.205	84.4159	210.205	83.1579	210.205	84.2572	210.205	83.321	210.205	84.0834	210.205	83.5073	210.205	83.8969	210.205	83.7026
217.529	85.5288	217.529	85.3865	217.529	85.6283	217.529	85.2086	217.529	85.6788	217.529	85.0019	217.529	85.6764	217.529	84.7723	217.529	85.6206	217.529	84.5244	217.529	85.5156	217.529	84.263	217.529	85.3705	217.529	83.9942	217.529	85.1991	217.529	83.7275	217.529	85.0189	217.529	83.4768	217.529	84.8473	217.529	83.2595	217.529	84.6972	217.529	83.0944	217.529	84.5728	217.529	82.9967	217.529	84.4678	217.529	82.9736	217.529	84.3691	217.529	83.022	217.529	84.2619	217.529	83.1296	217.529	84.136	217.529	83.2795	217.529	83.9875	217.529	83.4541	217.529	83.8192	217.529	83.6381
225.586	85.4541	225.586	85.3125	225.586	85.5447	225.586	85.1279	225.586	85.5778	225.586	84.908	225.586	85.5498	225.586	84.6597	225.586	85.4608	225.586	84.3892	225.586	85.3165	225.586	84.1027	225.586	85.1288	225.586	83.8089	225.586	84.9159	225.586	83.5202	225.586	84.7013	225.586	83.2544	225.586	84.5092	225.586	83.0329	225.586	84.3582	225.586	82.8773	225.586	84.2542	225.586	82.8033	225.586	84.188	225.586	82.8148	225.586	84.1395	225.586	82.9025	225.586	84.0862	225.586	83.047	225.586	84.0105	225.586	83.2248	225.586	83.9034	225.586	83.4144	225.586	83.7644	225.586	83.5985
232.91	85.506	232.91	85.3744	232.91	85.5858	232.91	85.2003	232.91	85.6049	232.91	84.9918	232.91	85.5562	232.91	84.7547	232.91	85.4362	232.91	84.4933	232.91	85.2469	232.91	84.2112	232.91	84.9973	232.91	83.9144	232.91	84.7053	232.91	83.6132	232.91	84.3989	232.91	83.3245	232.91	84.1135	232.91	83.0709	232.91	83.8835	232.91	82.8773	232.91	83.7308	232.91	82.7639	232.91	83.6548	232.91	82.7393	232.91	83.6329	232.91	82.7966	232.91	83.6318	232.91	82.9153	232.91	83.6203	232.91	83.0685	232.91	83.578	232.91	83.2298	232.91	83.4967	232.91	83.3776
241.699	85.2267	241.699	85.0305	241.699	85.3747	241.699	84.7986	241.699	85.4626	241.699	84.5426	241.699	85.4809	241.699	84.2716	241.699	85.4241	241.699	83.9911	241.699	85.2908	241.699	83.7047	241.699	85.085	241.699	83.4163	241.699	84.8171	241.699	83.1333	241.699	84.505	241.699	82.8684	241.699	84.1741	241.699	82.6395	241.699	83.8542	241.699	82.4666	241.699	83.5735	241.699	82.3649	241.699	83.3504	241.699	82.339	241.699	83.1883	241.699	82.3794	241.699	83.0764	241.699	82.4658	241.699	82.9965	241.699	82.5741	241.699	82.9298	241.699	82.6832	241.699	82.8611	241.699	82.7802
249.756	85.3632	249.756	85.1466	249.756	85.5144	249.756	84.8746	249.756	85.5921	249.756	84.5575	249.756	85.5912	249.756	84.2046	249.756	85.5106	249.756	83.8238	249.756	85.3537	249.756	83.4228	249.756	85.1292	249.756	83.0114	249.756	84.8516	249.756	82.6045	249.756	84.5414	249.756	82.2247	249.756	84.2236	249.756	81.9012	249.756	83.9225	249.756	81.6648	249.756	83.6558	249.756	81.5375	249.756	83.4286	249.756	81.5236	249.756	83.2337	249.756	81.6066	249.756	83.0568	249.756	81.7569	249.756	82.8846	249.756	81.9428	249.756	82.7088	249.756	82.1405	249.756	82.5264	249.756	82.3367
258.545	85.2767	258.545	85.1117	258.545	85.3869	258.545	84.9027	258.545	85.4322	258.545	84.6597	258.545	85.4052	258.545	84.3895	258.545	85.3021	258.545	84.0962	258.545	85.124	258.545	83.7817	258.545	84.8781	258.545	83.449	258.545	84.5795	258.545	83.1056	258.545	84.2517	258.545	82.7664	258.545	83.9259	258.545	82.455	258.545	83.6349	258.545	82.1997	258.545	83.4025	258.545	82.0272	258.545	83.2345	258.545	81.9522	258.545	83.1167	258.545	81.9717	258.545	83.0235	258.545	82.0665	258.545	82.93	258.545	82.2089	258.545	82.8202	258.545	82.3724	258.545	82.6884	258.545	82.5366
268.066	84.8864	268.066	84.6132	268.066	85.1045	268.066	84.3014	268.066	85.253	268.066	83.9676	268.066	85.3205	268.066	83.6252	268.066	85.2995	268.066	83.2831	268.066	85.1858	268.066	82.945	268.066	84.9793	268.066	82.6125	268.066	84.6848	268.066	82.2887	268.066	84.3141	268.066	81.9825	268.066	83.8887	268.066	81.7103	268.066	83.4409	268.066	81.4942	268.066	83.0117	268.066	81.3545	268.066	82.6408	268.066	81.3017	268.066	82.3544	268.066	81.3297	268.066	82.1558	268.066	81.4174	268.066	82.0264	268.066	81.536	268.066	81.9365	268.066	81.6585	268.066	81.857	268.066	81.7671
277.588	84.6969	277.588	84.4982	277.588	84.8294	277.588	84.2387	277.588	84.8925	277.588	83.9251	277.588	84.8865	277.588	83.5648	277.588	84.816	277.588	83.1671	277.588	84.6904	277.588	82.7445	277.588	84.5233	277.588	82.3158	277.588	84.3314	277.588	81.908	277.588	84.1312	277.588	81.5559	277.588	83.9353	277.588	81.296	277.588	83.7479	277.588	81.1554	277.588	83.564	277.588	81.1405	277.588	83.3728	277.588	81.2322	277.588	83.1652	277.588	81.3935	277.588	82.9411	277.588	81.584	277.588	82.7112	277.588	81.7737	277.588	82.4921	277.588	81.9502	277.588	82.2952	277.588	82.119
287.109	84.7796	287.109	84.628	287.109	84.861	287.109	84.4151	287.109	84.8625	287.109	84.1469	287.109	84.7775	287.109	83.8245	287.109	84.6048	287.109	83.4459	287.109	84.3511	287.109	83.0097	287.109	84.034	287.109	82.5208	287.109	83.6839	287.109	81.998	287.109	83.3437	287.109	81.4798	287.109	83.0614	287.109	81.0254	287.109	82.8732	287.109	80.7034	287.109	82.7853	287.109	80.5658	287.109	82.7676	287.109	80.6208	287.109	82.7693	287.109	80.8288	287.109	82.7423	287.109	81.1252	287.109	82.6581	287.109	81.4508	287.109	82.51	287.109	81.767	287.109	82.3053	287.109	82.0548
297.363	84.7622	297.363	84.558	297.363	84.9066	297.363	84.3119	297.363	84.9738	297.363	84.0372	297.363	84.9502	297.363	83.7377	297.363	84.8281	297.363	83.4075	297.363	84.6065	297.363	83.0335	297.363	84.2922	297.363	82.6031	297.363	83.9016	297.363	82.1121	297.363	83.464	297.363	81.573	297.363	83.0214	297.363	81.0219	297.363	82.6229	297.363	80.5202	297.363	82.3074	297.363	80.1435	297.363	82.0854	297.363	79.9543	297.363	81.9335	297.363	79.969	297.363	81.8097	297.363	80.1488	297.363	81.6743	297.363	80.4249	297.363	81.5032	297.363	80.7323	297.363	81.2872	297.363	81.0272
307.617	84.3501	307.617	84.1275	307.617	84.5133	307.617	83.8677	307.617	84.5989	307.617	83.5919	307.617	84.5954	307.617	83.3141	307.617	84.4986	307.617	83.0373	307.617	84.3107	307.617	82.7541	307.617	84.0405	307.617	82.4522	307.617	83.7035	307.617	82.1232	307.617	83.3222	307.617	81.7701	307.617	82.9255	307.617	81.4115	307.617	82.5447	307.617	81.0809	307.617	82.2053	307.617	80.8193	307.617	81.9207	307.617	80.6599	307.617	81.6899	307.617	80.6125	307.617	81.5042	307.617	80.6585	307.617	81.3531	307.617	80.761	307.617	81.2269	307.617	80.8833	307.617	81.1143	307.617	81.0026
318.604	83.9312	318.604	83.7278	318.604	84.0676	318.604	83.4828	318.604	84.1163	318.604	83.2198	318.604	84.0654	318.604	82.9529	318.604	83.9126	318.604	82.6819	318.604	83.666	318.604	82.3947	318.604	83.3441	318.604	82.0737	318.604	82.9759	318.604	81.7065	318.604	82.5988	318.604	81.293	318.604	82.2499	318.604	80.8508	318.604	81.9518	318.604	80.4148	318.604	81.6993	318.604	80.0306	318.604	81.4617	318.604	79.7395	318.604	81.2002	318.604	79.5613	318.604	80.893	318.604	79.4881	318.604	80.55	318.604	79.4962	318.604	80.21	318.604	79.5682	318.604	79.919	318.604	79.7051
329.59	84.0176	329.59	83.6377	329.59	84.2895	329.59	83.1912	329.59	84.4292	329.59	82.7338	329.59	84.4278	329.59	82.3233	329.59	84.2889	329.59	82.0006	329.59	84.0278	329.59	81.7732	329.59	83.6727	329.59	81.6167	329.59	83.2675	329.59	81.4923	329.59	82.872	329.59	81.3664	329.59	82.5504	329.59	81.2216	329.59	82.3454	329.59	81.0584	329.59	82.2515	329.59	80.8906	329.59	82.2135	329.59	80.7391	329.59	82.1574	329.59	80.6259	329.59	82.0266	329.59	80.5712	329.59	81.8025	329.59	80.5924	329.59	81.5071	329.59	80.7035	329.59	81.1902	329.59	80.9084
341.309	85.2215	341.309	84.8499	341.309	85.4353	341.309	84.3327	341.309	85.487	341.309	83.6923	341.309	85.3779	341.309	82.9655	341.309	85.1153	341.309	82.2069	341.309	84.7141	341.309	81.4891	341.309	84.2031	341.309	80.8958	341.309	83.635	341.309	80.5016	341.309	83.0956	341.309	80.3463	341.309	82.6973	341.309	80.4195	341.309	82.5345	341.309	80.6693	341.309	82.6175	341.309	81.0271	341.309	82.8582	341.309	81.4288	341.309	83.1288	341.309	81.8269	341.309	83.3287	341.309	82.193	341.309	83.4103	341.309	82.5163	341.309	83.372	341.309	82.7977	341.309	83.2386	341.309	83.0403
353.76	85.9104	353.76	85.6606	353.76	86.0321	353.76	85.2932	353.76	86.0168	353.76	84.8194	353.76	85.8582	353.76	84.2502	353.76	85.5522	353.76	83.597	353.76	85.0974	353.76	82.8742	353.76	84.4988	353.76	82.108	353.76	83.7769	353.76	81.3473	353.76	82.9856	353.76	80.6754	353.76	82.2365	353.76	80.2033	353.76	81.6984	353.76	80.0282	353.76	81.5179	353.76	80.1703	353.76	81.6931	353.76	80.553	353.76	82.0655	353.76	81.0533	353.76	82.448	353.76	81.5635	353.76	82.7213	353.76	82.0176	353.76	82.8416	353.76	82.3852	353.76	82.8123	353.76	82.6539
366.211	85.4779	366.211	85.2528	366.211	85.5819	366.211	84.9181	366.211	85.5562	366.211	84.4853	366.211	85.3958	366.211	83.9636	366.211	85.0992	366.211	83.359	366.211	84.6684	366.211	82.6757	366.211	84.1106	366.211	81.9238	366.211	83.444	366.211	81.1304	366.211	82.7101	366.211	80.3551	366.211	81.9902	366.211	79.698	366.211	81.4075	366.211	79.281	366.211	81.0811	366.211	79.1864	366.211	81.0411	366.211	79.3965	366.211	81.1978	366.211	79.8038	366.211	81.411	366.211	80.2811	366.211	81.5718	366.211	80.734	366.211	81.6274	366.211	81.1112	366.211	81.5658	366.211	81.3914
378.662	85.447	378.662	85.2003	378.662	85.5908	378.662	84.8708	378.662	85.6144	378.662	84.4771	378.662	85.5063	378.662	84.0303	378.662	85.2597	378.662	83.5309	378.662	84.8717	378.662	82.9702	378.662	84.3439	378.662	82.3401	378.662	83.6864	378.662	81.6465	378.662	82.9328	378.662	80.9262	378.662	82.1618	378.662	80.2617	378.662	81.5128	378.662	79.7782	378.662	81.1455	378.662	79.5953	378.662	81.1267	378.662	79.7471	378.662	81.3626	378.662	80.1504	378.662	81.6791	378.662	80.665	378.662	81.9367	378.662	81.1693	378.662	82.0665	378.662	81.5885	378.662	82.0491	378.662	81.8869
392.578	84.5403	392.578	84.2628	392.578	84.7165	392.578	83.9088	392.578	84.773	392.578	83.505	392.578	84.6985	392.578	83.0727	392.578	84.4878	392.578	82.6211	392.578	84.1392	392.578	82.1455	392.578	83.6538	392.578	81.6334	392.578	83.0386	392.578	81.0772	392.578	82.3172	392.578	80.4879	392.578	81.5483	392.578	79.9075	392.578	80.8404	392.578	79.4122	392.578	80.3318	392.578	79.0945	392.578	80.111	392.578	79.0177	392.578	80.1427	392.578	79.1715	392.578	80.2991	392.578	79.4759	392.578	80.4544	392.578	79.8278	392.578	80.5349	392.578	80.1451	392.578	80.512	392.578	80.3801
405.762	84.1618	405.762	83.8771	405.762	84.3196	405.762	83.4865	405.762	84.3371	405.762	83.0159	405.762	84.2089	405.762	82.4897	405.762	83.9361	405.762	81.926	405.762	83.5238	405.762	81.3346	405.762	82.9809	405.762	80.7234	405.762	82.3258	405.762	80.1117	405.762	81.5996	405.762	79.545	405.762	80.8845	405.762	79.1016	405.762	80.3064	405.762	78.8738	405.762	79.9892	405.762	78.9189	405.762	79.9677	405.762	79.2138	405.762	80.1599	405.762	79.6617	405.762	80.438	405.762	80.1429	405.762	80.7044	405.762	80.5598	405.762	80.9065	405.762	80.854	405.762	81.0144	405.762	81.0037
420.41	84.8217	420.41	84.5131	420.41	85.0155	420.41	84.1159	420.41	85.0774	420.41	83.6607	420.41	84.9991	420.41	83.1733	420.41	84.7781	420.41	82.6649	420.41	84.4134	420.41	82.1297	420.41	83.903	420.41	81.5527	420.41	83.2449	420.41	80.9251	420.41	82.4463	420.41	80.2638	420.41	81.5436	420.41	79.6277	420.41	80.631	420.41	79.1211	420.41	79.8712	420.41	78.8612	420.41	79.4329	420.41	78.9035	420.41	79.3625	420.41	79.1893	420.41	79.5477	420.41	79.5818	420.41	79.8261	420.41	79.9459	420.41	80.0812	420.41	80.1952	420.41	80.2499	420.41	80.2955
435.059	85.392	435.059	85.1385	435.059	85.5109	435.059	84.7699	435.059	85.4854	435.059	84.3122	435.059	85.3147	435.059	83.7927	435.059	85.0043	435.059	83.2323	435.059	84.5641	435.059	82.6411	435.059	84.0082	435.059	82.0237	435.059	83.3604	435.059	81.3925	435.059	82.666	435.059	80.7859	435.059	82.0047	435.059	80.2794	435.059	81.482	435.059	79.9711	435.059	81.1783	435.059	79.9308	435.059	81.086	435.059	80.1416	435.059	81.1171	435.059	80.5006	435.059	81.1802	435.059	80.8774	435.059	81.2361	435.059	81.1722	435.059	81.2906	435.059	81.3384	435.059	81.3487	435.059	81.3824
450.439	86.1131	450.439	85.8272	450.439	86.2598	450.439	85.4312	450.439	86.2487	450.439	84.96	450.439	86.0717	450.439	84.4444	450.439	85.7278	450.439	83.8986	450.439	85.2205	450.439	83.3168	450.439	84.5569	450.439	82.683	450.439	83.7549	450.439	81.9925	450.439	82.8597	450.439	81.2775	450.439	81.9717	450.439	80.6282	450.439	81.253	450.439	80.1869	450.439	80.8575	450.439	80.0804	450.439	80.8032	450.439	80.3162	450.439	80.9587	450.439	80.7618	450.439	81.1758	450.439	81.238	450.439	81.3839	450.439	81.6087	450.439	81.5744	450.439	81.8091	450.439	81.7395	450.439	81.838
466.553	86.005	466.553	85.7215	466.553	86.1507	466.553	85.327	466.553	86.1398	466.553	84.8498	466.553	85.9641	466.553	84.3098	466.553	85.6242	466.553	83.7095	466.553	85.1243	466.553	83.0344	466.553	84.4677	466.553	82.2648	466.553	83.6571	466.553	81.3978	466.553	82.7105	466.553	80.4784	466.553	81.7019	466.553	79.6325	466.553	80.8111	466.553	79.0682	466.553	80.2957	466.553	78.9684	466.553	80.282	466.553	79.3204	466.553	80.6103	466.553	79.9172	466.553	81.0111	466.553	80.531	466.553	81.3189	466.553	81.0232	466.553	81.4948	466.553	81.3469	466.553	81.5562	466.553	81.5135
482.666	85.6434	482.666	85.3235	482.666	85.8283	482.666	84.9076	482.666	85.8581	482.666	84.4445	482.666	85.7305	482.666	83.9723	482.666	85.4543	482.666	83.4979	482.666	85.0388	482.666	82.9894	482.666	84.4844	482.666	82.3923	482.666	83.7814	482.666	81.6564	482.666	82.9203	482.666	80.7636	482.666	81.9214	482.666	79.7647	482.666	80.8815	482.666	78.8292	482.666	80.0073	482.666	78.2556	482.666	79.5408	482.666	78.291	482.666	79.5542	482.666	78.8565	482.666	79.8871	482.666	79.6274	482.666	80.3217	482.666	80.3206	482.666	80.7083	482.666	80.7923	482.666	80.9559	482.666	80.9993
500.244	85.2287	500.244	84.8293	500.244	85.4704	500.244	84.3215	500.244	85.5338	500.244	83.7769	500.244	85.4208	500.244	83.2624	500.244	85.145	500.244	82.8022	500.244	84.7191	500.244	82.3603	500.244	84.146	500.244	81.8648	500.244	83.4181	500.244	81.25	500.244	82.5327	500.244	80.4934	500.244	81.5285	500.244	79.6456	500.244	80.5402	500.244	78.86	500.244	79.812	500.244	78.3789	500.244	79.5473	500.244	78.388	500.244	79.6941	500.244	78.8309	500.244	80.015	500.244	79.4596	500.244	80.3226	500.244	80.0395	500.244	80.545	500.244	80.444	500.244	80.6614	500.244	80.6424
517.822	85.0727	517.822	84.7807	517.822	85.1716	517.822	84.3102	517.822	85.0875	517.822	83.7137	517.822	84.8443	517.822	83.0854	517.822	84.4748	517.822	82.5339	517.822	84.0196	517.822	82.1202	517.822	83.5243	517.822	81.812	517.822	83.0313	517.822	81.5072	517.822	82.5618	517.822	81.0992	517.822	82.0968	517.822	80.5294	517.822	81.5703	517.822	79.8222	517.822	80.8984	517.822	79.1231	517.822	80.0597	517.822	78.6987	517.822	79.2231	517.822	78.7711	517.822	78.7982	517.822	79.2759	517.822	79.0616	517.822	79.9137	517.822	79.7275	517.822	80.3979	517.822	80.313	517.822	80.5542
536.133	85.2402	536.133	84.8892	536.133	85.3022	536.133	84.255	536.133	85.0853	536.133	83.375	536.133	84.6082	536.133	82.3453	536.133	83.8964	536.133	81.3456	536.133	82.9898	536.133	80.6005	536.133	81.9687	536.133	80.2244	536.133	80.9982	536.133	80.1075	536.133	80.333	536.133	80.0221	536.133	80.1506	536.133	79.7953	536.133	80.314	536.133	79.3834	536.133	80.4575	536.133	78.894	536.133	80.2775	536.133	78.5794	536.133	79.7002	536.133	78.689	536.133	78.9895	536.133	79.2015	536.133	78.7151	536.133	79.8191	536.133	79.1371	536.133	80.2273	536.133	79.8111	536.133	80.237
554.443	85.1583	554.443	84.8891	554.443	85.2116	554.443	84.3932	554.443	85.0641	554.443	83.6747	554.443	84.7274	554.443	82.7676	554.443	84.2022	554.443	81.7565	554.443	83.4773	554.443	80.7856	554.443	82.5384	554.443	80.013	554.443	81.3973	554.443	79.5012	554.443	80.1569	554.443	79.16	554.443	79.1072	554.443	78.8324	554.443	78.6445	554.443	78.4225	554.443	78.7978	554.443	77.9716	554.443	79.095	554.443	77.6629	554.443	79.0902	554.443	77.694	554.443	78.6748	554.443	78.0472	554.443	78.1116	554.443	78.4644	554.443	77.8809	554.443	78.6675	554.443	78.1404	554.443	78.5261
574.219	84.9814	574.219	84.6861	574.219	85.0643	574.219	84.1751	574.219	84.9365	574.219	83.4461	574.219	84.5989	574.219	82.5106	574.219	84.0534	574.219	81.4196	574.219	83.3058	574.219	80.3004	574.219	82.3688	574.219	79.3588	574.219	81.2739	574.219	78.7634	574.219	80.1062	574.219	78.4744	574.219	79.0575	574.219	78.2695	574.219	78.4093	574.219	77.9452	574.219	78.2918	574.219	77.4571	574.219	78.481	574.219	76.9706	574.219	78.6307	574.219	76.7979	574.219	78.5797	574.219	77.1031	574.219	78.4129	574.219	77.674	574.219	78.3258	574.219	78.1636	574.219	78.3727	574.219	78.3843
594.727	84.7266	594.727	84.5388	594.727	84.6872	594.727	84.1337	594.727	84.4247	594.727	83.5299	594.727	83.9589	594.727	82.7517	594.727	83.3258	594.727	81.8296	594.727	82.5744	594.727	80.8112	594.727	81.7622	594.727	79.7735	594.727	80.9455	594.727	78.8185	594.727	80.1635	594.727	78.0294	594.727	79.4181	594.727	77.4174	594.727	78.6758	594.727	76.9384	594.727	77.9237	594.727	76.589	594.727	77.2818	594.727	76.4855	594.727	77.0475	594.727	76.7935	594.727	77.4228	594.727	77.5047	594.727	78.1877	594.727	78.3648	594.727	78.9323	594.727	79.0723	594.727	79.3856	594.727	79.4369
615.234	84.6169	615.234	84.4019	615.234	84.5733	615.234	83.9372	615.234	84.2873	615.234	83.2622	615.234	83.7856	615.234	82.4426	615.234	83.0916	615.234	81.5587	615.234	82.2225	615.234	80.6941	615.234	81.2058	615.234	79.9274	615.234	80.1124	615.234	79.314	615.234	79.1012	615.234	78.854	615.234	78.4135	615.234	78.4785	615.234	78.2063	615.234	78.0876	615.234	78.3275	615.234	77.6304	615.234	78.4006	615.234	77.1862	615.234	78.1209	615.234	76.9725	615.234	77.4633	615.234	77.1438	615.234	76.8167	615.234	77.5434	615.234	76.7593	615.234	77.8228	615.234	77.2555	615.234	77.7286
637.207	84.874	637.207	84.4866	637.207	84.9736	637.207	83.8283	637.207	84.783	637.207	82.9282	637.207	84.3173	637.207	81.8281	637.207	83.6089	637.207	80.5913	637.207	82.6983	637.207	79.3324	637.207	81.6179	637.207	78.2634	637.207	80.3871	637.207	77.6572	637.207	79.0495	637.207	77.604	637.207	77.7831	637.207	77.8534	637.207	76.9944	637.207	78.0533	637.207	76.9992	637.207	78.0169	637.207	77.4958	637.207	77.8055	637.207	77.9317	637.207	77.7076	637.207	78.0976	637.207	78.0002	637.207	78.1887	637.207	78.585	637.207	78.4912	637.207	79.0851	637.207	78.9456	637.207	79.2174
659.912	84.827	659.912	84.625	659.912	84.735	659.912	84.1343	659.912	84.3713	659.912	83.395	659.912	83.7731	659.912	82.4731	659.912	82.9856	659.912	81.4328	659.912	82.0616	659.912	80.3081	659.912	81.0616	659.912	79.1206	659.912	80.0406	659.912	77.9657	659.912	79.0283	659.912	77.0728	659.912	78.023	659.912	76.6289	659.912	77.0171	659.912	76.4929	659.912	76.0678	659.912	76.3492	659.912	75.3954	659.912	76.0948	659.912	75.3336	659.912	75.9621	659.912	75.9306	659.912	76.2634	659.912	76.7962	659.912	76.9394	659.912	77.5321	659.912	77.6105	659.912	77.9498	659.912	77.9803
683.35	85.0285	683.35	84.8203	683.35	84.948	683.35	84.3477	683.35	84.578	683.35	83.6431	683.35	83.9467	683.35	82.732	683.35	83.0954	683.35	81.6283	683.35	82.05	683.35	80.3447	683.35	80.8244	683.35	78.9351	683.35	79.4971	683.35	77.5797	683.35	78.3137	683.35	76.6303	683.35	77.5898	683.35	76.3418	683.35	77.3363	683.35	76.5005	683.35	77.2393	683.35	76.6781	683.35	77.0783	683.35	76.6815	683.35	76.8888	683.35	76.6809	683.35	76.8371	683.35	77.0342	683.35	77.0915	683.35	77.7698	683.35	77.686	683.35	78.4525	683.35	78.3501	683.35	78.678
706.787	85.4192	706.787	85.0838	706.787	85.471	706.787	84.4777	706.787	85.228	706.787	83.6365	706.787	84.6742	706.787	82.6382	706.787	83.8005	706.787	81.5831	706.787	82.6196	706.787	80.5211	706.787	81.1877	706.787	79.4099	706.787	79.6596	706.787	78.222	706.787	78.3509	706.787	77.1367	706.787	77.5548	706.787	76.5123	706.787	77.0852	706.787	76.4311	706.787	76.4127	706.787	76.5626	706.787	75.3625	706.787	76.6828	706.787	74.6693	706.787	76.9359	706.787	75.3291	706.787	77.5571	706.787	76.7962	706.787	78.4237	706.787	78.1449	706.787	79.1336	706.787	79.0409	706.787	79.3775
731.689	85.5058	731.689	85.3083	731.689	85.3913	731.689	84.8292	731.689	84.9743	731.689	84.1218	731.689	84.2993	731.689	83.2406	731.689	83.4112	731.689	82.2275	731.689	82.308	731.689	81.1061	731.689	80.9289	731.689	79.8718	731.689	79.2405	731.689	78.5243	731.689	77.5008	731.689	77.2288	731.689	76.4905	731.689	76.476	731.689	76.5192	731.689	76.5871	731.689	76.6206	731.689	77.0537	731.689	75.9783	731.689	77.2244	731.689	74.6999	731.689	77.009	731.689	74.1813	731.689	76.9605	731.689	75.5532	731.689	77.6383	731.689	77.4797	731.689	78.6231	731.689	78.7795	731.689	79.1379
758.057	85.8919	758.057	85.6514	758.057	85.8172	758.057	85.1348	758.057	85.4417	758.057	84.4123	758.057	84.8272	758.057	83.5648	758.057	84.0335	758.057	82.6551	758.057	83.055	758.057	81.6655	758.057	81.8055	758.057	80.4509	758.057	80.1725	758.057	78.8119	758.057	78.192	758.057	76.7703	758.057	76.4831	758.057	75.2103	758.057	76.1167	758.057	75.4435	758.057	76.7096	758.057	76.5755	758.057	77.0404	758.057	77.313	758.057	76.6855	758.057	77.598	758.057	76.0296	758.057	78.0052	758.057	76.1774	758.057	78.7845	758.057	77.4927	758.057	79.4681	758.057	78.8705	758.057	79.5647
784.424	85.8418	784.424	85.7738	784.424	85.5755	784.424	85.3433	784.424	85.0623	784.424	84.602	784.424	84.4039	784.424	83.6932	784.424	83.6572	784.424	82.8211	784.424	82.7977	784.424	82.0986	784.424	81.7183	784.424	81.3741	784.424	80.2773	784.424	80.3101	784.424	78.4939	784.424	78.6277	784.424	76.9119	784.424	76.4563	784.424	76.2009	784.424	75.0427	784.424	75.8589	784.424	75.5269	784.424	75.1364	784.424	76.4856	784.424	74.0681	784.424	76.9179	784.424	73.0382	784.424	77.141	784.424	73.101	784.424	77.7443	784.424	75.2229	784.424	78.4941	784.424	77.4978	784.424	78.5935
812.256	86.0164	812.256	86.0689	812.256	85.6016	812.256	85.6667	812.256	84.9443	812.256	84.7825	812.256	84.1758	812.256	83.5306	812.256	83.4186	812.256	82.2524	812.256	82.7165	812.256	81.3748	812.256	81.9251	812.256	80.9037	812.256	80.6887	812.256	80.3707	812.256	78.5956	812.256	79.3449	812.256	75.7619	812.256	77.7214	812.256	74.583	812.256	76.0257	812.256	75.9952	812.256	75.5569	812.256	76.7075	812.256	76.3923	812.256	75.3962	812.256	77.279	812.256	71.9212	812.256	77.8806	812.256	71.3438	812.256	78.4598	812.256	75.2688	812.256	78.9245	812.256	77.7681	812.256	78.8296
840.82	86.1616	840.82	86.2761	840.82	85.6125	840.82	85.916	840.82	84.7496	840.82	85.0462	840.82	83.8313	840.82	83.6546	840.82	83.132	840.82	81.9267	840.82	82.6808	840.82	80.5059	840.82	82.2224	840.82	80.032	840.82	81.4394	840.82	80.0283	840.82	80.097	840.82	79.6153	840.82	78.0748	840.82	78.4688	840.82	75.5334	840.82	77.0818	840.82	73.6167	840.82	76.7184	840.82	73.9607	840.82	77.3323	840.82	74.9986	840.82	77.7506	840.82	74.6271	840.82	77.8435	840.82	72.7005	840.82	78.1155	840.82	73.2771	840.82	78.4731	840.82	76.3941	840.82	78.1471
870.85	86.3724	870.85	86.6257	870.85	85.6236	870.85	86.3174	870.85	84.556	870.85	85.4588	870.85	83.4265	870.85	84.1	870.85	82.463	870.85	82.3231	870.85	81.7608	870.85	80.3181	870.85	81.2189	870.85	78.5413	870.85	80.5664	870.85	77.5641	870.85	79.5815	870.85	77.2884	870.85	78.3731	870.85	77.0004	870.85	77.3212	870.85	76.2741	870.85	76.5538	870.85	75.346	870.85	76.0204	870.85	75.0723	870.85	75.7184	870.85	75.9639	870.85	74.9668	870.85	77.419	870.85	73.1838	870.85	78.6524	870.85	73.2978	870.85	79.1509	870.85	76.3768	870.85	78.5117
901.611	86.157	901.611	86.5435	901.611	85.3594	901.611	86.3226	901.611	84.3875	901.611	85.4026	901.611	83.4236	901.611	83.8259	901.611	82.6093	901.611	81.8433	901.611	82.0671	901.611	79.9928	901.611	81.723	901.611	78.8048	901.611	81.2111	901.611	78.1877	901.611	80.0984	901.611	77.6915	901.611	78.1792	901.611	77.1563	901.611	75.709	901.611	76.7325	901.611	74.0863	901.611	76.5099	901.611	75.2249	901.611	76.2744	901.611	77.0036	901.611	75.8728	901.611	76.9867	901.611	75.91	901.611	74.4697	901.611	77.03	901.611	72.8257	901.611	78.1896	901.611	76.0862	901.611	78.115
933.105	86.1956	933.105	86.4063	933.105	85.6684	933.105	86.2343	933.105	84.8126	933.105	85.5416	933.105	83.6698	933.105	84.2065	933.105	82.4353	933.105	82.1927	933.105	81.3798	933.105	79.6254	933.105	80.7072	933.105	76.9516	933.105	80.3421	933.105	74.986	933.105	79.8721	933.105	74.2679	933.105	78.9669	933.105	74.639	933.105	77.6959	933.105	75.6844	933.105	76.2131	933.105	76.8155	933.105	74.5847	933.105	77.4992	933.105	74.5125	933.105	77.6436	933.105	76.0111	933.105	77.7197	933.105	75.861	933.105	78.121	933.105	73.669	933.105	78.2702	933.105	74.3848	933.105	77.1554
966.064	86.8578	966.064	86.925	966.064	86.2431	966.064	86.4621	966.064	85.2742	966.064	85.539	966.064	84.239	966.064	84.1441	966.064	83.2477	966.064	82.2316	966.064	82.3238	966.064	79.9319	966.064	81.5003	966.064	77.8227	966.064	80.6397	966.064	76.4906	966.064	79.5462	966.064	75.5146	966.064	78.315	966.064	74.3698	966.064	77.0785	966.064	73.7605	966.064	75.4781	966.064	74.3875	966.064	74.0398	966.064	75.111	966.064	74.9282	966.064	75.1698	966.064	75.9995	966.064	75.1015	966.064	75.0355	966.064	75.7462	966.064	73.1195	966.064	76.4585	966.064	74.2206	966.064	76.0751
999.756	86.4559	999.756	86.5805	999.756	86.0279	999.756	86.2962	999.756	85.2979	999.756	85.4929	999.756	84.2359	999.756	84.1357	999.756	82.9939	999.756	82.2823	999.756	81.8729	999.756	80.1126	999.756	81.0275	999.756	77.992	999.756	80.3283	999.756	76.2419	999.756	79.3948	999.756	74.6322	999.756	78.0598	999.756	73.1537	999.756	77.0167	999.756	73.2987	999.756	76.5562	999.756	74.8811	999.756	75.0945	999.756	75.8477	999.756	71.9822	999.756	75.6328	999.756	72.1187	999.756	75.2971	999.756	73.3298	999.756	76.2652	999.756	72.8568	999.756	77.4235	999.756	74.9537	999.756	77.192
1,034.91	86.4737	1,034.91	86.5153	1,034.91	85.9451	1,034.91	86.227	1,034.91	84.9942	1,034.91	85.6791	1,034.91	83.9498	1,034.91	84.6935	1,034.91	83.029	1,034.91	83.0321	1,034.91	82.2025	1,034.91	80.6924	1,034.91	81.4538	1,034.91	78.0598	1,034.91	80.6289	1,034.91	75.5192	1,034.91	79.387	1,034.91	72.4591	1,034.91	77.7954	1,034.91	67.0542	1,034.91	76.7561	1,034.91	63.2949	1,034.91	76.6924	1,034.91	70.0353	1,034.91	76.7943	1,034.91	73.7314	1,034.91	76.4079	1,034.91	75.3317	1,034.91	75.184	1,034.91	75.8412	1,034.91	73.979	1,034.91	76.5351	1,034.91	74.5353	1,034.91	77.4036	1,034.91	75.9972	1,034.91	77.2524
1,071.53	85.8563	1,071.53	86.1032	1,071.53	85.394	1,071.53	85.9096	1,071.53	84.9518	1,071.53	85.2145	1,071.53	84.3854	1,071.53	84.0158	1,071.53	83.4624	1,071.53	82.4156	1,071.53	82.2909	1,071.53	80.6909	1,071.53	81.0548	1,071.53	79.0428	1,071.53	79.763	1,071.53	77.3539	1,071.53	78.3341	1,071.53	75.4423	1,071.53	76.6344	1,071.53	73.202	1,071.53	74.9332	1,071.53	70.4079	1,071.53	74.3484	1,071.53	68.8961	1,071.53	74.9674	1,071.53	72.0736	1,071.53	75.2466	1,071.53	74.8789	1,071.53	74.3503	1,071.53	75.8145	1,071.53	72.5243	1,071.53	76.0972	1,071.53	72.0593	1,071.53	76.8691	1,071.53	74.9135	1,071.53	76.9105
1,109.62	85.7123	1,109.62	85.6247	1,109.62	85.5147	1,109.62	85.3514	1,109.62	85.0183	1,109.62	84.9117	1,109.62	84.3234	1,109.62	84.0048	1,109.62	83.5579	1,109.62	82.2604	1,109.62	82.6781	1,109.62	79.7936	1,109.62	81.5652	1,109.62	77.7359	1,109.62	80.1475	1,109.62	77.2393	1,109.62	78.4528	1,109.62	77.1149	1,109.62	76.9729	1,109.62	76.0131	1,109.62	75.9051	1,109.62	73.337	1,109.62	74.0029	1,109.62	69.5357	1,109.62	73.2798	1,109.62	70.9708	1,109.62	77.0917	1,109.62	74.2079	1,109.62	78.5177	1,109.62	75.4718	1,109.62	75.791	1,109.62	75.8334	1,109.62	69.8323	1,109.62	76.2454	1,109.62	72.8429	1,109.62	75.7498
1,148.44	85.9648	1,148.44	85.8959	1,148.44	85.5539	1,148.44	85.2599	1,148.44	84.8848	1,148.44	84.2254	1,148.44	84.2016	1,148.44	82.9214	1,148.44	83.5978	1,148.44	81.16	1,148.44	82.8541	1,148.44	78.8524	1,148.44	81.7523	1,148.44	76.6144	1,148.44	80.1958	1,148.44	75.7682	1,148.44	77.7916	1,148.44	75.8514	1,148.44	74.1757	1,148.44	75.6747	1,148.44	72.814	1,148.44	75.0068	1,148.44	74.9272	1,148.44	73.4417	1,148.44	75.3012	1,148.44	70.5721	1,148.44	75.5938	1,148.44	70.5621	1,148.44	77.7826	1,148.44	73.9186	1,148.44	77.3877	1,148.44	75.5524	1,148.44	73.3749	1,148.44	75.4696	1,148.44	70.907	1,148.44	73.8007
1,189.45	86.3821	1,189.45	86.3943	1,189.45	85.8341	1,189.45	85.466	1,189.45	85.1253	1,189.45	83.7987	1,189.45	84.2371	1,189.45	82.2417	1,189.45	83.0886	1,189.45	80.9678	1,189.45	81.8252	1,189.45	79.1744	1,189.45	80.7275	1,189.45	76.6514	1,189.45	79.9485	1,189.45	75.125	1,189.45	78.8409	1,189.45	74.7355	1,189.45	76.3372	1,189.45	73.7216	1,189.45	72.966	1,189.45	73.302	1,189.45	72.3401	1,189.45	74.0882	1,189.45	71.9407	1,189.45	73.983	1,189.45	73.1064	1,189.45	72.3993	1,189.45	76.857	1,189.45	72.2765	1,189.45	76.5956	1,189.45	73.7276	1,189.45	73.9364	1,189.45	74.1289	1,189.45	73.5431	1,189.45	73.9006
1,231.2	86.5571	1,231.2	86.5528	1,231.2	85.9525	1,231.2	85.6657	1,231.2	85.0832	1,231.2	83.9772	1,231.2	84.3219	1,231.2	82.1879	1,231.2	83.65	1,231.2	80.7307	1,231.2	82.604	1,231.2	78.6029	1,231.2	81.1481	1,231.2	74.693	1,231.2	79.9246	1,231.2	72.2084	1,231.2	78.9374	1,231.2	72.6676	1,231.2	77.0393	1,231.2	70.7473	1,231.2	73.4706	1,231.2	67.3691	1,231.2	71.7782	1,231.2	71.7103	1,231.2	73.5118	1,231.2	74.8214	1,231.2	73.0663	1,231.2	74.6869	1,231.2	75.743	1,231.2	73.3388	1,231.2	76.2603	1,231.2	73.9045	1,231.2	73.4283	1,231.2	74.6434	1,231.2	73.0797	1,231.2	74.3571
1,274.41	86.5626	1,274.41	86.4919	1,274.41	86.1038	1,274.41	85.7011	1,274.41	85.2581	1,274.41	84.0538	1,274.41	84.2801	1,274.41	82.0211	1,274.41	83.3283	1,274.41	80.6534	1,274.41	82.3239	1,274.41	79.4153	1,274.41	81.1847	1,274.41	76.3792	1,274.41	80.0305	1,274.41	71.0687	1,274.41	78.907	1,274.41	70.4358	1,274.41	77.2399	1,274.41	72.0873	1,274.41	74.7953	1,274.41	70.0223	1,274.41	73.7802	1,274.41	65.8833	1,274.41	74.3044	1,274.41	71.7043	1,274.41	70.4926	1,274.41	73.6784	1,274.41	72.614	1,274.41	71.6417	1,274.41	75.3639	1,274.41	71.71	1,274.41	73.423	1,274.41	74.5066	1,274.41	73.9933	1,274.41	75.5101
1,319.82	86.1474	1,319.82	86.3068	1,319.82	85.4322	1,319.82	85.6205	1,319.82	84.6742	1,319.82	84.1862	1,319.82	84.0563	1,319.82	82.4139	1,319.82	83.4335	1,319.82	80.9288	1,319.82	82.4944	1,319.82	79.5517	1,319.82	80.8934	1,319.82	76.6833	1,319.82	78.8749	1,319.82	70.469	1,319.82	77.1471	1,319.82	68.4017	1,319.82	75.626	1,319.82	72.0471	1,319.82	73.5729	1,319.82	71.6802	1,319.82	73.3178	1,319.82	67.8645	1,319.82	74.6756	1,319.82	70.7946	1,319.82	73.1408	1,319.82	73.9159	1,319.82	73.6608	1,319.82	72.6363	1,319.82	74.8974	1,319.82	70.0256	1,319.82	72.6846	1,319.82	72.153	1,319.82	72.4144	1,319.82	73.8117
1,365.97	85.6	1,365.97	85.8586	1,365.97	84.9595	1,365.97	85.4311	1,365.97	84.5672	1,365.97	84.3926	1,365.97	84.2909	1,365.97	82.7946	1,365.97	83.4109	1,365.97	80.7498	1,365.97	81.839	1,365.97	78.8451	1,365.97	80.1063	1,365.97	76.7176	1,365.97	78.9763	1,365.97	72.5544	1,365.97	78.4683	1,365.97	64.1495	1,365.97	77.4642	1,365.97	66.3009	1,365.97	74.9691	1,365.97	69.8295	1,365.97	73.2597	1,365.97	68.1285	1,365.97	74.9121	1,365.97	71.45	1,365.97	73.148	1,365.97	75.0949	1,365.97	71.5326	1,365.97	74.8146	1,365.97	73.4194	1,365.97	72.3153	1,365.97	73.0092	1,365.97	72.7499	1,365.97	73.0238	1,365.97	73.9071
1,414.31	85.1545	1,414.31	85.3577	1,414.31	84.9897	1,414.31	85.2778	1,414.31	84.6553	1,414.31	84.5679	1,414.31	83.889	1,414.31	82.9525	1,414.31	82.924	1,414.31	80.4754	1,414.31	81.7333	1,414.31	78.7633	1,414.31	79.7446	1,414.31	78.241	1,414.31	77.2974	1,414.31	76.527	1,414.31	76.755	1,414.31	72.4511	1,414.31	77.3973	1,414.31	68.9946	1,414.31	76.1935	1,414.31	70.5949	1,414.31	71.8608	1,414.31	67.9278	1,414.31	73.5303	1,414.31	66.9654	1,414.31	72.1334	1,414.31	72.7152	1,414.31	68.9859	1,414.31	73.177	1,414.31	72.3165	1,414.31	71.3465	1,414.31	70.7844	1,414.31	71.8534	1,414.31	70.7655	1,414.31	72.6647
1,464.11	85.4419	1,464.11	85.2907	1,464.11	85.2298	1,464.11	84.5039	1,464.11	84.6354	1,464.11	83.4512	1,464.11	83.6905	1,464.11	82.4787	1,464.11	82.8043	1,464.11	80.4962	1,464.11	81.7019	1,464.11	76.5342	1,464.11	80.1333	1,464.11	74.0336	1,464.11	78.2637	1,464.11	75.0075	1,464.11	77.0565	1,464.11	74.1925	1,464.11	77.1179	1,464.11	71.6518	1,464.11	76.7382	1,464.11	71.7773	1,464.11	75.0411	1,464.11	70.6876	1,464.11	72.3566	1,464.11	66.2808	1,464.11	70.0411	1,464.11	72.0387	1,464.11	71.7211	1,464.11	74.2994	1,464.11	70.1854	1,464.11	73.396	1,464.11	71.0373	1,464.11	71.5062	1,464.11	70.8229	1,464.11	70.2208
1,515.38	85.7256	1,515.38	85.5141	1,515.38	85.4491	1,515.38	84.4678	1,515.38	84.7311	1,515.38	82.8853	1,515.38	83.6257	1,515.38	81.5778	1,515.38	82.7055	1,515.38	79.9368	1,515.38	81.8178	1,515.38	76.1395	1,515.38	80.1453	1,515.38	71.4375	1,515.38	77.8745	1,515.38	72.6228	1,515.38	76.943	1,515.38	73.1539	1,515.38	77.0155	1,515.38	71.5228	1,515.38	76.0311	1,515.38	71.2903	1,515.38	75.5362	1,515.38	70.7271	1,515.38	72.1696	1,515.38	68.6134	1,515.38	69.2273	1,515.38	68.7612	1,515.38	73.428	1,515.38	69.2726	1,515.38	69.7986	1,515.38	69.861	1,515.38	69.9264	1,515.38	71.8827	1,515.38	71.9631	1,515.38	71.7868
1,568.85	85.4642	1,568.85	85.3489	1,568.85	85.4917	1,568.85	84.5847	1,568.85	84.8048	1,568.85	82.7229	1,568.85	83.1188	1,568.85	80.7504	1,568.85	81.3406	1,568.85	79.0897	1,568.85	79.8938	1,568.85	75.8343	1,568.85	78.3981	1,568.85	71.2983	1,568.85	77.1247	1,568.85	71.8233	1,568.85	77.3252	1,568.85	71.1906	1,568.85	77.827	1,568.85	66.9275	1,568.85	76.0331	1,568.85	71.47	1,568.85	74.8556	1,568.85	71.4715	1,568.85	74.592	1,568.85	67.8939	1,568.85	64.7234	1,568.85	68.9022	1,568.85	71.9695	1,568.85	70.5303	1,568.85	71.304	1,568.85	68.1877	1,568.85	71.0242	1,568.85	68.8996	1,568.85	70.8637	1,568.85	69.1919
1,624.51	85.9705	1,624.51	85.3027	1,624.51	86.1098	1,624.51	84.9792	1,624.51	84.7884	1,624.51	83.7228	1,624.51	82.9481	1,624.51	80.644	1,624.51	81.1512	1,624.51	77.969	1,624.51	79.0155	1,624.51	77.3025	1,624.51	77.3282	1,624.51	74.6497	1,624.51	76.0749	1,624.51	69.338	1,624.51	74.8375	1,624.51	70.0152	1,624.51	76.3655	1,624.51	66.1372	1,624.51	77.9818	1,624.51	66.7767	1,624.51	76.3181	1,624.51	69.6322	1,624.51	73.6687	1,624.51	67.524	1,624.51	69.9088	1,624.51	65.9357	1,624.51	66.9645	1,624.51	69.1665	1,624.51	72.3793	1,624.51	68.7236	1,624.51	70.8006	1,624.51	59.5808	1,624.51	71.0346	1,624.51	61.2481
1,681.64	85.6113	1,681.64	85.1119	1,681.64	85.3839	1,681.64	83.7567	1,681.64	84.4745	1,681.64	81.9425	1,681.64	82.791	1,681.64	80.2515	1,681.64	80.7718	1,681.64	79.0373	1,681.64	79.292	1,681.64	78.6474	1,681.64	78.8145	1,681.64	77.0764	1,681.64	77.7578	1,681.64	71.5235	1,681.64	75.5033	1,681.64	66.1805	1,681.64	74.0618	1,681.64	63.7102	1,681.64	76.0396	1,681.64	53.8439	1,681.64	76.3374	1,681.64	63.5267	1,681.64	73.9029	1,681.64	68.7024	1,681.64	72.9508	1,681.64	71.806	1,681.64	67.713	1,681.64	70.278	1,681.64	69.5849	1,681.64	66.2146	1,681.64	70.0632	1,681.64	66.119	1,681.64	71.4329	1,681.64	70.287
1,740.97	85.8315	1,740.97	85.0811	1,740.97	85.5375	1,740.97	83.5943	1,740.97	83.7596	1,740.97	81.9122	1,740.97	80.7208	1,740.97	79.9853	1,740.97	79.0163	1,740.97	76.6266	1,740.97	79.1425	1,740.97	74.1912	1,740.97	78.8544	1,740.97	74.8559	1,740.97	77.2193	1,740.97	71.8554	1,740.97	74.8988	1,740.97	62.1454	1,740.97	74.2195	1,740.97	57.0048	1,740.97	74.17	1,740.97	46.8425	1,740.97	74.8233	1,740.97	59.5568	1,740.97	75.3018	1,740.97	67.8689	1,740.97	70.469	1,740.97	72.9118	1,740.97	71.2633	1,740.97	72.0795	1,740.97	71.1986	1,740.97	68.1327	1,740.97	61.276	1,740.97	66.8008	1,740.97	69.7245	1,740.97	70.1294
1,802.49	86.7951	1,802.49	85.4378	1,802.49	85.9282	1,802.49	82.3963	1,802.49	83.2254	1,802.49	79.7678	1,802.49	80.0935	1,802.49	78.9019	1,802.49	78.0545	1,802.49	76.8954	1,802.49	78.7355	1,802.49	71.5754	1,802.49	79.5742	1,802.49	69.6266	1,802.49	78.8887	1,802.49	70.1042	1,802.49	76.6897	1,802.49	67.1313	1,802.49	74.495	1,802.49	62.572	1,802.49	74.2554	1,802.49	65.5892	1,802.49	71.8538	1,802.49	65.9671	1,802.49	69.8058	1,802.49	65.1861	1,802.49	68.6924	1,802.49	72.9191	1,802.49	69.1788	1,802.49	73.5736	1,802.49	73.7923	1,802.49	71.6274	1,802.49	63.538	1,802.49	65.6944	1,802.49	70.2246	1,802.49	67.144
1,866.21	86.4208	1,866.21	85.9248	1,866.21	85.8558	1,866.21	84.0983	1,866.21	83.9473	1,866.21	80.3938	1,866.21	80.8174	1,866.21	76.2033	1,866.21	79.8692	1,866.21	76.2554	1,866.21	80.053	1,866.21	74.035	1,866.21	79.2727	1,866.21	71.0074	1,866.21	77.863	1,866.21	73.5077	1,866.21	75.1085	1,866.21	73.3187	1,866.21	71.6487	1,866.21	69.4167	1,866.21	75.2336	1,866.21	71.7169	1,866.21	77.3843	1,866.21	71.652	1,866.21	73.511	1,866.21	58.0314	1,866.21	74.9404	1,866.21	72.3864	1,866.21	68.3791	1,866.21	74.2376	1,866.21	72.4454	1,866.21	70.8941	1,866.21	69.8914	1,866.21	67.004	1,866.21	69.3384	1,866.21	68.6031
1,932.13	85.4653	1,932.13	84.5944	1,932.13	85.1631	1,932.13	83.4781	1,932.13	82.788	1,932.13	81.1168	1,932.13	80.1695	1,932.13	75.9764	1,932.13	79.9326	1,932.13	73.6858	1,932.13	80.4905	1,932.13	74.1935	1,932.13	80.5058	1,932.13	72.587	1,932.13	78.6001	1,932.13	74.5788	1,932.13	75.211	1,932.13	75.025	1,932.13	73.1659	1,932.13	70.4663	1,932.13	74.7098	1,932.13	70.4088	1,932.13	75.6772	1,932.13	72.8827	1,932.13	75.9421	1,932.13	64.9361	1,932.13	74.4689	1,932.13	68.5926	1,932.13	72.0265	1,932.13	71.664	1,932.13	68.5285	1,932.13	69.375	1,932.13	67.712	1,932.13	65.2149	1,932.13	70.0362	1,932.13	67.8027
2,000.24	85.6197	2,000.24	84.8104	2,000.24	84.8811	2,000.24	82.2442	2,000.24	82.5855	2,000.24	78.1871	2,000.24	78.6377	2,000.24	73.62	2,000.24	77.4194	2,000.24	73.0811	2,000.24	79.6525	2,000.24	75.3458	2,000.24	79.7906	2,000.24	73.6483	2,000.24	78.9478	2,000.24	70.9638	2,000.24	77.0932	2,000.24	74.338	2,000.24	73.9705	2,000.24	73.8168	2,000.24	75.4314	2,000.24	73.2195	2,000.24	74.8411	2,000.24	75.5232	2,000.24	73.2392	2,000.24	73.3854	2,000.24	73.9767	2,000.24	59.8109	2,000.24	68.563	2,000.24	66.3428	2,000.24	65.9687	2,000.24	67.427	2,000.24	68.9047	2,000.24	63.9346	2,000.24	70.5695	2,000.24	59.04
2,070.56	86.4446	2,070.56	85.1469	2,070.56	85.3371	2,070.56	81.5537	2,070.56	81.3521	2,070.56	74.6975	2,070.56	75.3754	2,070.56	69.6804	2,070.56	77.4236	2,070.56	71.8127	2,070.56	79.9313	2,070.56	74.9888	2,070.56	80.3464	2,070.56	75.416	2,070.56	80.1712	2,070.56	69.3611	2,070.56	78.053	2,070.56	62.3892	2,070.56	74.3807	2,070.56	65.175	2,070.56	73.4899	2,070.56	67.6209	2,070.56	74.3108	2,070.56	71.7715	2,070.56	68.9029	2,070.56	72.6886	2,070.56	68.9454	2,070.56	69.1971	2,070.56	64.2487	2,070.56	64.6163	2,070.56	66.9617	2,070.56	58.465	2,070.56	64.2962	2,070.56	66.7263	2,070.56	69.8049	2,070.56	67.6672
2,143.8	85.9817	2,143.8	85.2072	2,143.8	84.5414	2,143.8	81.3083	2,143.8	80.3535	2,143.8	72.8894	2,143.8	71.9216	2,143.8	67.7247	2,143.8	75.0349	2,143.8	75.637	2,143.8	78.372	2,143.8	77.9373	2,143.8	79.3645	2,143.8	77.4768	2,143.8	78.455	2,143.8	74.8979	2,143.8	77.2163	2,143.8	72.2314	2,143.8	75.1587	2,143.8	71.6759	2,143.8	71.894	2,143.8	69.498	2,143.8	72.326	2,143.8	64.022	2,143.8	71.2424	2,143.8	73.2075	2,143.8	69.5461	2,143.8	72.1121	2,143.8	65.6324	2,143.8	66.9016	2,143.8	57.0944	2,143.8	64.8551	2,143.8	57.9618	2,143.8	56.7402	2,143.8	70.5909	2,143.8	70.556
2,219.24	84.1166	2,219.24	83.8781	2,219.24	82.8701	2,219.24	81.2734	2,219.24	77.6232	2,219.24	70.0709	2,219.24	71.8747	2,219.24	73.4435	2,219.24	78.4023	2,219.24	77.0842	2,219.24	80.771	2,219.24	77.5845	2,219.24	79.9591	2,219.24	76.3567	2,219.24	77.8144	2,219.24	74.8453	2,219.24	76.5353	2,219.24	73.9377	2,219.24	75.0986	2,219.24	71.3996	2,219.24	72.4562	2,219.24	68.8435	2,219.24	70.6575	2,219.24	66.4351	2,219.24	73.153	2,219.24	60.2769	2,219.24	69.5311	2,219.24	62.4642	2,219.24	69.5641	2,219.24	60.2469	2,219.24	67.2917	2,219.24	65.2788	2,219.24	48.0652	2,219.24	69.1073	2,219.24	68.8377	2,219.24	66.5972
2,297.61	84.3829	2,297.61	83.169	2,297.61	83.0429	2,297.61	79.5553	2,297.61	77.5672	2,297.61	65.4036	2,297.61	70.0312	2,297.61	76.2953	2,297.61	77.9589	2,297.61	79.1424	2,297.61	80.2052	2,297.61	76.9384	2,297.61	80.306	2,297.61	74.1786	2,297.61	78.8027	2,297.61	73.1265	2,297.61	75.887	2,297.61	74.1301	2,297.61	73.0638	2,297.61	73.5412	2,297.61	72.425	2,297.61	69.8055	2,297.61	72.9796	2,297.61	69.8503	2,297.61	72.9166	2,297.61	71.3928	2,297.61	71.7146	2,297.61	65.674	2,297.61	55.4047	2,297.61	60.1288	2,297.61	63.5076	2,297.61	61.7182	2,297.61	61.3028	2,297.61	69.0793	2,297.61	70.1905	2,297.61	67.8517
2,378.17	84.9756	2,378.17	84.4947	2,378.17	82.4617	2,378.17	78.4516	2,378.17	76.7065	2,378.17	66.3388	2,378.17	62.1511	2,378.17	76.5319	2,378.17	73.6649	2,378.17	78.0319	2,378.17	78.9894	2,378.17	76.2413	2,378.17	80.399	2,378.17	75.6856	2,378.17	78.9834	2,378.17	74.4217	2,378.17	76.062	2,378.17	69.268	2,378.17	73.6263	2,378.17	65.268	2,378.17	72.8546	2,378.17	66.2607	2,378.17	72.8472	2,378.17	63.0604	2,378.17	71.6463	2,378.17	69.1236	2,378.17	70.4622	2,378.17	70.286	2,378.17	66.4496	2,378.17	61.412	2,378.17	59.5421	2,378.17	61.2599	2,378.17	53.3424	2,378.17	69.5968	2,378.17	63.7193	2,378.17	69.5661
2,462.4	84.4052	2,462.4	84.118	2,462.4	81.5922	2,462.4	79.2089	2,462.4	74.9788	2,462.4	72.9654	2,462.4	59.1953	2,462.4	75.7858	2,462.4	74.6289	2,462.4	78.1019	2,462.4	79.0774	2,462.4	77.8908	2,462.4	79.7951	2,462.4	74.4356	2,462.4	77.7093	2,462.4	72.3393	2,462.4	74.1917	2,462.4	71.6133	2,462.4	70.3809	2,462.4	69.1921	2,462.4	66.4299	2,462.4	66.9567	2,462.4	65.9303	2,462.4	65.4654	2,462.4	68.8003	2,462.4	65.8258	2,462.4	69.3979	2,462.4	64.9365	2,462.4	66.1162	2,462.4	62.2743	2,462.4	52.2804	2,462.4	63.2985	2,462.4	59.8705	2,462.4	66.0635	2,462.4	67.8854	2,462.4	68.5513
2,548.83	84.0113	2,548.83	83.1385	2,548.83	81.4339	2,548.83	78.7113	2,548.83	74.2865	2,548.83	73.7271	2,548.83	66.7802	2,548.83	77.2754	2,548.83	75.6862	2,548.83	77.7314	2,548.83	78.9654	2,548.83	75.62	2,548.83	79.492	2,548.83	73.0072	2,548.83	78.1784	2,548.83	70.6988	2,548.83	75.4589	2,548.83	68.6718	2,548.83	71.7806	2,548.83	67.585	2,548.83	66.2655	2,548.83	66.7962	2,548.83	59.7772	2,548.83	65.2534	2,548.83	63.1811	2,548.83	62.5574	2,548.83	68.3552	2,548.83	64.632	2,548.83	66.7678	2,548.83	60.6292	2,548.83	42.0342	2,548.83	62.7188	2,548.83	52.4922	2,548.83	66.3193	2,548.83	65.9124	2,548.83	66.5821
2,638.92	84.4106	2,638.92	83.2259	2,638.92	81.6913	2,638.92	78.1322	2,638.92	73.6188	2,638.92	75.1905	2,638.92	71.0765	2,638.92	78.0452	2,638.92	77.0304	2,638.92	77.7914	2,638.92	78.7459	2,638.92	75.6858	2,638.92	79.0995	2,638.92	74.3648	2,638.92	77.8655	2,638.92	72.758	2,638.92	74.7453	2,638.92	71.136	2,638.92	69.3786	2,638.92	69.7274	2,638.92	56.8656	2,638.92	67.2143	2,638.92	60.2217	2,638.92	65.5229	2,638.92	65.328	2,638.92	64.0448	2,638.92	62.9153	2,638.92	61.161	2,638.92	67.1343	2,638.92	59.5884	2,638.92	58.8896	2,638.92	57.933	2,638.92	58.0824	2,638.92	66.3823	2,638.92	66.4003	2,638.92	64.9513
2,731.93	84.3334	2,731.93	83.2642	2,731.93	82.224	2,731.93	78.9524	2,731.93	75.174	2,731.93	76.0821	2,731.93	72.2566	2,731.93	76.5488	2,731.93	78.6173	2,731.93	76.7865	2,731.93	79.7625	2,731.93	76.064	2,731.93	79.043	2,731.93	73.3382	2,731.93	77.9785	2,731.93	71.395	2,731.93	75.8747	2,731.93	69.8203	2,731.93	71.4459	2,731.93	67.995	2,731.93	66.331	2,731.93	67.1275	2,731.93	57.1157	2,731.93	65.6079	2,731.93	69.4649	2,731.93	65.2664	2,731.93	65.3229	2,731.93	63.7618	2,731.93	64.7253	2,731.93	61.6419	2,731.93	59.1051	2,731.93	54.0296	2,731.93	54.511	2,731.93	64.3977	2,731.93	61.9386	2,731.93	65.8312
2,828.61	84.6749	2,828.61	83.6102	2,828.61	82.1973	2,828.61	79.6154	2,828.61	75.7156	2,828.61	76.8071	2,828.61	74.8579	2,828.61	77.3014	2,828.61	79.1481	2,828.61	77.3117	2,828.61	80.3707	2,828.61	76.5744	2,828.61	79.428	2,828.61	75.3107	2,828.61	77.0827	2,828.61	72.3129	2,828.61	74.33	2,828.61	70.3215	2,828.61	69.1455	2,828.61	69.8159	2,828.61	67.9177	2,828.61	69.3127	2,828.61	60.8193	2,828.61	66.6527	2,828.61	66.9379	2,828.61	66.9109	2,828.61	67.4436	2,828.61	66.6798	2,828.61	65.4591	2,828.61	58.8592	2,828.61	62.8776	2,828.61	62.7305	2,828.61	57.5742	2,828.61	65.1612	2,828.61	63.9803	2,828.61	68.584
2,928.22	84.5418	2,928.22	83.4572	2,928.22	82.2387	2,928.22	79.2761	2,928.22	76.459	2,928.22	76.4658	2,928.22	76.7928	2,928.22	78.8596	2,928.22	79.6209	2,928.22	79.6601	2,928.22	80.0796	2,928.22	78.0803	2,928.22	79.3652	2,928.22	75.5514	2,928.22	76.1629	2,928.22	74.5293	2,928.22	70.9814	2,928.22	73.6291	2,928.22	71.0264	2,928.22	69.7839	2,928.22	71.931	2,928.22	67.7428	2,928.22	64.9388	2,928.22	66.9132	2,928.22	67.4922	2,928.22	61.9484	2,928.22	65.3088	2,928.22	67.8374	2,928.22	68.6525	2,928.22	65.1342	2,928.22	63.0595	2,928.22	59.7181	2,928.22	58.5266	2,928.22	65.8047	2,928.22	66.8717	2,928.22	68.9962
3,031.49	84.2791	3,031.49	82.9412	3,031.49	81.9007	3,031.49	78.2281	3,031.49	76.4802	3,031.49	76.6493	3,031.49	79.267	3,031.49	80.264	3,031.49	80.8873	3,031.49	80.1757	3,031.49	79.894	3,031.49	77.1289	3,031.49	79.0456	3,031.49	75.8281	3,031.49	76.6508	3,031.49	73.2493	3,031.49	72.1554	3,031.49	69.1442	3,031.49	72.6053	3,031.49	68.1132	3,031.49	70.8565	3,031.49	66.4485	3,031.49	60.859	3,031.49	65.5993	3,031.49	65.7005	3,031.49	63.4814	3,031.49	61.6504	3,031.49	66.0504	3,031.49	67.2202	3,031.49	67.2198	3,031.49	62.4451	3,031.49	50.6324	3,031.49	51.8961	3,031.49	65.3037	3,031.49	66.6093	3,031.49	65.9229
3,138.43	84.7007	3,138.43	83.1944	3,138.43	82.287	3,138.43	77.7104	3,138.43	76.6812	3,138.43	77.9781	3,138.43	80.3029	3,138.43	80.9072	3,138.43	81.5045	3,138.43	80.0159	3,138.43	79.6332	3,138.43	78.0712	3,138.43	79.0027	3,138.43	75.201	3,138.43	77.3018	3,138.43	72.8746	3,138.43	73.0247	3,138.43	72.7487	3,138.43	74.3174	3,138.43	70.4005	3,138.43	72.0158	3,138.43	68.4727	3,138.43	60.5781	3,138.43	65.7265	3,138.43	65.0614	3,138.43	62.7805	3,138.43	50.9291	3,138.43	64.1839	3,138.43	66.1481	3,138.43	66.7564	3,138.43	63.5045	3,138.43	54.8109	3,138.43	53.9971	3,138.43	65.531	3,138.43	64.6455	3,138.43	66.4473
3,249.02	84.7632	3,249.02	82.553	3,249.02	82.9449	3,249.02	77.5199	3,249.02	78.1327	3,249.02	79.9101	3,249.02	81.3183	3,249.02	81.11	3,249.02	82.3403	3,249.02	79.5231	3,249.02	79.5639	3,249.02	77.0947	3,249.02	78.0462	3,249.02	74.7968	3,249.02	77.6742	3,249.02	74.0595	3,249.02	74.6709	3,249.02	71.3092	3,249.02	73.014	3,249.02	68.4436	3,249.02	69.2695	3,249.02	68.0444	3,249.02	60.9245	3,249.02	65.1316	3,249.02	66.3874	3,249.02	61.8244	3,249.02	50.1669	3,249.02	61.1251	3,249.02	65.7689	3,249.02	65.316	3,249.02	63.0827	3,249.02	59.4725	3,249.02	54.5403	3,249.02	63.8059	3,249.02	63.4081	3,249.02	65.4575
3,363.28	84.4369	3,363.28	82.0126	3,363.28	82.4731	3,363.28	77.4589	3,363.28	79.1077	3,363.28	80.5761	3,363.28	82.0879	3,363.28	81.1606	3,363.28	82.4993	3,363.28	79.5824	3,363.28	79.8283	3,363.28	77.2516	3,363.28	77.7867	3,363.28	75.3601	3,363.28	77.0106	3,363.28	72.1241	3,363.28	74.8113	3,363.28	69.3766	3,363.28	73.2458	3,363.28	69.0687	3,363.28	67.4066	3,363.28	68.0569	3,363.28	60.3003	3,363.28	66.1958	3,363.28	64.1613	3,363.28	64.0959	3,363.28	52.8588	3,363.28	60.8376	3,363.28	64.7962	3,363.28	64.3902	3,363.28	63.8008	3,363.28	59.2725	3,363.28	58.7102	3,363.28	63.5949	3,363.28	64.6033	3,363.28	64.6206
3,481.93	84.2049	3,481.93	81.2984	3,481.93	82.1202	3,481.93	78.2875	3,481.93	78.2778	3,481.93	81.2109	3,481.93	82.6542	3,481.93	81.502	3,481.93	82.8185	3,481.93	79.6374	3,481.93	79.3613	3,481.93	77.121	3,481.93	77.7085	3,481.93	73.8954	3,481.93	76.5152	3,481.93	73.0124	3,481.93	73.7542	3,481.93	72.6842	3,481.93	73.0174	3,481.93	68.7821	3,481.93	66.2707	3,481.93	66.3873	3,481.93	63.4114	3,481.93	64.3628	3,481.93	62.6249	3,481.93	62.9619	3,481.93	54.8908	3,481.93	61.8603	3,481.93	62.278	3,481.93	63.1892	3,481.93	63.4075	3,481.93	57.2904	3,481.93	57.6457	3,481.93	63.5624	3,481.93	64.0879	3,481.93	65.5753
3,604.98	84.3552	3,604.98	81.5414	3,604.98	82.631	3,604.98	79.0418	3,604.98	78.739	3,604.98	81.7558	3,604.98	82.1017	3,604.98	81.3707	3,604.98	82.2192	3,604.98	79.6628	3,604.98	78.6769	3,604.98	77.1582	3,604.98	76.7866	3,604.98	75.4458	3,604.98	76.4586	3,604.98	73.5569	3,604.98	72.4673	3,604.98	69.7552	3,604.98	68.1527	3,604.98	69.3677	3,604.98	61.7247	3,604.98	68.9765	3,604.98	63.8634	3,604.98	65.138	3,604.98	61.4292	3,604.98	63.1989	3,604.98	57.4913	3,604.98	61.5327	3,604.98	64.2425	3,604.98	63.5079	3,604.98	62.2298	3,604.98	59.0779	3,604.98	54.344	3,604.98	62.2034	3,604.98	64.6698	3,604.98	66.3904
3,732.42	84.355	3,732.42	81.0215	3,732.42	82.8962	3,732.42	79.8913	3,732.42	79.4781	3,732.42	82.1001	3,732.42	82.1856	3,732.42	81.5231	3,732.42	81.3754	3,732.42	79.4763	3,732.42	77.8836	3,732.42	77.2653	3,732.42	77.0455	3,732.42	75.7665	3,732.42	75.6345	3,732.42	71.3093	3,732.42	70.5978	3,732.42	70.4209	3,732.42	66.0913	3,732.42	68.4706	3,732.42	67.6082	3,732.42	66.7623	3,732.42	61.2956	3,732.42	65.2131	3,732.42	57.4463	3,732.42	62.3235	3,732.42	60.268	3,732.42	60.5725	3,732.42	63.2091	3,732.42	63.2464	3,732.42	63.6318	3,732.42	59.5332	3,732.42	57.1529	3,732.42	60.2391	3,732.42	64.4786	3,732.42	64.3463
3,863.53	84.6384	3,863.53	81.3885	3,863.53	82.997	3,863.53	79.8818	3,863.53	80.0067	3,863.53	81.9368	3,863.53	82.3947	3,863.53	81.2691	3,863.53	80.8912	3,863.53	79.3426	3,863.53	76.2169	3,863.53	77.5156	3,863.53	76.5777	3,863.53	74.6688	3,863.53	74.7242	3,863.53	72.5842	3,863.53	68.9311	3,863.53	70.9952	3,863.53	68.8922	3,863.53	67.3464	3,863.53	71.1615	3,863.53	67.2521	3,863.53	59.2558	3,863.53	65.3866	3,863.53	63.4731	3,863.53	61.4386	3,863.53	61.5538	3,863.53	61.1524	3,863.53	60.1789	3,863.53	60.7422	3,863.53	62.5118	3,863.53	59.0947	3,863.53	59.8916	3,863.53	60.5032	3,863.53	63.5857	3,863.53	65.0755
3,999.76	84.7927	3,999.76	81.6697	3,999.76	83.3427	3,999.76	80.9587	3,999.76	80.6575	3,999.76	81.9736	3,999.76	82.6976	3,999.76	80.6437	3,999.76	80.559	3,999.76	79.1643	3,999.76	76.3506	3,999.76	76.4322	3,999.76	77.1334	3,999.76	74.7209	3,999.76	75.3167	3,999.76	70.5071	3,999.76	67.7999	3,999.76	67.5427	3,999.76	63.6047	3,999.76	65.8703	3,999.76	69.0694	3,999.76	66.4183	3,999.76	41.0025	3,999.76	63.4647	3,999.76	64.8059	3,999.76	58.0519	3,999.76	63.0677	3,999.76	58.7366	3,999.76	60.6916	3,999.76	61.6448	3,999.76	61.6772	3,999.76	60.6902	3,999.76	58.9863	3,999.76	59.6206	3,999.76	62.0023	3,999.76	64.0455
4,141.11	85.1022	4,141.11	81.5981	4,141.11	83.7106	4,141.11	81.2959	4,141.11	80.3291	4,141.11	82.249	4,141.11	82.5844	4,141.11	81.04	4,141.11	80.3907	4,141.11	78.8198	4,141.11	74.197	4,141.11	77.1631	4,141.11	76.0546	4,141.11	73.0474	4,141.11	75.7151	4,141.11	71.754	4,141.11	69.5521	4,141.11	71.734	4,141.11	62.7851	4,141.11	65.5272	4,141.11	69.2039	4,141.11	63.8738	4,141.11	55.2274	4,141.11	62.025	4,141.11	62.8781	4,141.11	58.2263	4,141.11	65.4325	4,141.11	59.9611	4,141.11	59.031	4,141.11	59.3237	4,141.11	60.1214	4,141.11	54.7858	4,141.11	58.7625	4,141.11	59.3811	4,141.11	61.73	4,141.11	63.5636
4,286.87	85.7564	4,286.87	82.7619	4,286.87	84.2317	4,286.87	81.8114	4,286.87	80.8531	4,286.87	82.4024	4,286.87	82.0546	4,286.87	81.159	4,286.87	79.8648	4,286.87	78.6761	4,286.87	73.1615	4,286.87	75.4505	4,286.87	74.2198	4,286.87	74.6511	4,286.87	75.7598	4,286.87	71.8487	4,286.87	70.922	4,286.87	67.8297	4,286.87	68.7706	4,286.87	67.5813	4,286.87	69.5312	4,286.87	66.3034	4,286.87	59.6643	4,286.87	64.5824	4,286.87	62.504	4,286.87	63.0273	4,286.87	60.7122	4,286.87	49.5115	4,286.87	60.014	4,286.87	59.3488	4,286.87	62.8784	4,286.87	56.356	4,286.87	62.0876	4,286.87	61.4379	4,286.87	61.83	4,286.87	64.0879
4,438.48	85.6513	4,438.48	83.2979	4,438.48	84.6422	4,438.48	82.6461	4,438.48	82.3589	4,438.48	82.8714	4,438.48	82.6982	4,438.48	81.0914	4,438.48	80.2854	4,438.48	78.4371	4,438.48	74.5851	4,438.48	77.0346	4,438.48	74.9767	4,438.48	74.068	4,438.48	75.2982	4,438.48	73.8834	4,438.48	74.8136	4,438.48	71.8306	4,438.48	70.373	4,438.48	67.027	4,438.48	68.5332	4,438.48	67.2772	4,438.48	63.0207	4,438.48	64.333	4,438.48	61.853	4,438.48	63.4129	4,438.48	47.6847	4,438.48	60.1874	4,438.48	58.938	4,438.48	60.7484	4,438.48	62.4273	4,438.48	57.3686	4,438.48	56.7959	4,438.48	61.4385	4,438.48	64.5102	4,438.48	65.9749
4,594.48	86.5796	4,594.48	83.6669	4,594.48	84.5664	4,594.48	82.3366	4,594.48	81.9558	4,594.48	83.2104	4,594.48	83.1124	4,594.48	80.78	4,594.48	81.2374	4,594.48	78.6625	4,594.48	76.2311	4,594.48	77.2953	4,594.48	74.6977	4,594.48	76.0076	4,594.48	75.775	4,594.48	72.3983	4,594.48	77.3648	4,594.48	68.0351	4,594.48	71.8094	4,594.48	67.205	4,594.48	66.2308	4,594.48	65.5403	4,594.48	65.7917	4,594.48	63.3569	4,594.48	49.7531	4,594.48	62.7092	4,594.48	57.3876	4,594.48	60.3692	4,594.48	58.5478	4,594.48	59.5303	4,594.48	60.3328	4,594.48	59.0669	4,594.48	55.8493	4,594.48	59.3956	4,594.48	61.8952	4,594.48	62.7681
4,757.08	86.6641	4,757.08	83.96	4,757.08	85.1311	4,757.08	83.0149	4,757.08	82.6592	4,757.08	83.2835	4,757.08	83.153	4,757.08	80.2286	4,757.08	82.0291	4,757.08	78.8145	4,757.08	76.3682	4,757.08	77.0712	4,757.08	73.4	4,757.08	73.7484	4,757.08	76.8004	4,757.08	71.6998	4,757.08	77.9818	4,757.08	69.1606	4,757.08	73.8477	4,757.08	65.6301	4,757.08	67.8842	4,757.08	65.8273	4,757.08	61.1226	4,757.08	63.7951	4,757.08	51.7509	4,757.08	61.5701	4,757.08	59.1708	4,757.08	59.6716	4,757.08	58.306	4,757.08	57.3171	4,757.08	61.231	4,757.08	59.03	4,757.08	60.0017	4,757.08	58.5999	4,757.08	64.2372	4,757.08	63.5533
4,924.8	87.1261	4,924.8	83.2543	4,924.8	85.4843	4,924.8	83.2438	4,924.8	82.3449	4,924.8	83.313	4,924.8	83.7506	4,924.8	79.3442	4,924.8	82.9431	4,924.8	79.3425	4,924.8	78.3121	4,924.8	75.9949	4,924.8	75.0211	4,924.8	73.7809	4,924.8	77.3057	4,924.8	68.5995	4,924.8	78.8584	4,924.8	68.5559	4,924.8	74.2486	4,924.8	66.6232	4,924.8	66.2928	4,924.8	64.9575	4,924.8	62.7243	4,924.8	64.5106	4,924.8	50.827	4,924.8	60.3688	4,924.8	56.7984	4,924.8	61.499	4,924.8	57.3325	4,924.8	61.6672	4,924.8	58.4339	4,924.8	61.4038	4,924.8	48.9142	4,924.8	60.393	4,924.8	64.8791	4,924.8	64.1258
5,098.39	86.5518	5,098.39	82.96	5,098.39	85.6557	5,098.39	84.0577	5,098.39	83.0988	5,098.39	82.9401	5,098.39	83.873	5,098.39	80.1977	5,098.39	82.9951	5,098.39	79.4051	5,098.39	78.824	5,098.39	75.4848	5,098.39	76.3544	5,098.39	74.9428	5,098.39	78.0776	5,098.39	73.2932	5,098.39	77.5639	5,098.39	69.7333	5,098.39	70.5792	5,098.39	65.5607	5,098.39	61.5413	5,098.39	65.8782	5,098.39	49.4394	5,098.39	64.7164	5,098.39	55.7742	5,098.39	64.8724	5,098.39	55.5134	5,098.39	61.0668	5,098.39	55.6802	5,098.39	60.1413	5,098.39	63.497	5,098.39	61.6529	5,098.39	48.3351	5,098.39	57.1755	5,098.39	62.0087	5,098.39	64.7215
5,277.83	86.4044	5,277.83	82.5382	5,277.83	85.3381	5,277.83	84.2519	5,277.83	82.4698	5,277.83	82.1589	5,277.83	84.2529	5,277.83	80.9962	5,277.83	83.9305	5,277.83	79.1657	5,277.83	78.3979	5,277.83	76.2636	5,277.83	74.579	5,277.83	74.1072	5,277.83	77.6458	5,277.83	71.3364	5,277.83	76.34	5,277.83	70.2875	5,277.83	69.7822	5,277.83	66.3051	5,277.83	71.3644	5,277.83	66.5602	5,277.83	63.7761	5,277.83	63.9156	5,277.83	54.2299	5,277.83	62.0905	5,277.83	62.1655	5,277.83	61.8945	5,277.83	54.0348	5,277.83	58.2228	5,277.83	59.6586	5,277.83	63.3417	5,277.83	47.9579	5,277.83	43.7821	5,277.83	63.8712	5,277.83	64.9544
5,463.87	86.1323	5,463.87	81.7097	5,463.87	85.9181	5,463.87	84.2262	5,463.87	80.599	5,463.87	81	5,463.87	83.9702	5,463.87	82.3844	5,463.87	85.1051	5,463.87	77.899	5,463.87	79.8899	5,463.87	76.9149	5,463.87	70.279	5,463.87	73.5027	5,463.87	76.2831	5,463.87	74.7387	5,463.87	74.6984	5,463.87	67.55	5,463.87	66.1743	5,463.87	68.1727	5,463.87	72.0418	5,463.87	66.0986	5,463.87	66.3654	5,463.87	60.0696	5,463.87	64.6139	5,463.87	65.1172	5,463.87	58.5107	5,463.87	62.4259	5,463.87	59.5208	5,463.87	59.1899	5,463.87	58.3412	5,463.87	62.0538	5,463.87	60.4984	5,463.87	55.3662	5,463.87	65.2222	5,463.87	65.3992
5,656.49	83.6006	5,656.49	83.3288	5,656.49	85.6839	5,656.49	83.8884	5,656.49	82.4827	5,656.49	81.1089	5,656.49	81.3694	5,656.49	82.0628	5,656.49	83.25	5,656.49	77.658	5,656.49	80.5931	5,656.49	77.6867	5,656.49	74.732	5,656.49	74.6312	5,656.49	74.3227	5,656.49	75.3439	5,656.49	73.4189	5,656.49	69.2271	5,656.49	68.3188	5,656.49	69.4204	5,656.49	67.3156	5,656.49	64.2245	5,656.49	67.9518	5,656.49	63.3176	5,656.49	66.794	5,656.49	60.5777	5,656.49	56.108	5,656.49	61.4178	5,656.49	59.8914	5,656.49	60.3793	5,656.49	61.4588	5,656.49	65.1666	5,656.49	62.5206	5,656.49	56.646	5,656.49	58.9672	5,656.49	62.9924
5,856.45	83.6543	5,856.45	84.1124	5,856.45	84.2082	5,856.45	82.701	5,856.45	83.0642	5,856.45	82.0502	5,856.45	81.8722	5,856.45	81.7267	5,856.45	82.21	5,856.45	79.3677	5,856.45	80.4855	5,856.45	77.782	5,856.45	78.1085	5,856.45	74.7738	5,856.45	74.3182	5,856.45	70.9864	5,856.45	72.6446	5,856.45	67.2581	5,856.45	72.5258	5,856.45	67.6764	5,856.45	66.0721	5,856.45	62.4615	5,856.45	65.0373	5,856.45	63.8334	5,856.45	64.6278	5,856.45	62.0428	5,856.45	56.7559	5,856.45	59.428	5,856.45	47.7253	5,856.45	63.2501	5,856.45	51.2219	5,856.45	62.4791	5,856.45	58.4161	5,856.45	50.7501	5,856.45	54.1517	5,856.45	61.2647
6,062.99	84.1592	6,062.99	84.0111	6,062.99	83.7973	6,062.99	82.9328	6,062.99	82.7372	6,062.99	82.2836	6,062.99	82.355	6,062.99	81.1716	6,062.99	81.8926	6,062.99	79.8032	6,062.99	80.279	6,062.99	77.8483	6,062.99	78.1087	6,062.99	74.8565	6,062.99	75.323	6,062.99	71.1702	6,062.99	73.1837	6,062.99	67.3142	6,062.99	72.5555	6,062.99	67.4689	6,062.99	63.1542	6,062.99	63.8154	6,062.99	55.9452	6,062.99	64.3319	6,062.99	62.2017	6,062.99	60.7	6,062.99	56.3781	6,062.99	60.716	6,062.99	54.8143	6,062.99	60.8376	6,062.99	56.063	6,062.99	62.1119	6,062.99	51.7914	6,062.99	49.533	6,062.99	52.2165	6,062.99	55.9513
6,276.86	84.6661	6,276.86	84.1827	6,276.86	83.4388	6,276.86	82.7852	6,276.86	82.1264	6,276.86	82.0257	6,276.86	82.1676	6,276.86	81.0801	6,276.86	82.0729	6,276.86	80.3616	6,276.86	79.8432	6,276.86	77.3906	6,276.86	77.6439	6,276.86	74.8286	6,276.86	74.122	6,276.86	71.1145	6,276.86	72.398	6,276.86	68.7204	6,276.86	69.8402	6,276.86	66.6901	6,276.86	63.8225	6,276.86	62.9534	6,276.86	58.6551	6,276.86	64.364	6,276.86	63.6314	6,276.86	61.4588	6,276.86	56.0479	6,276.86	57.4513	6,276.86	55.1833	6,276.86	59.8849	6,276.86	41.2636	6,276.86	61.0037	6,276.86	54.0486	6,276.86	46.8339	6,276.86	52.3919	6,276.86	57.8812
6,498.05	84.7211	6,498.05	84.0718	6,498.05	83.6346	6,498.05	83.0206	6,498.05	82.5147	6,498.05	82.0342	6,498.05	82.2347	6,498.05	81.3127	6,498.05	81.796	6,498.05	79.6256	6,498.05	79.8883	6,498.05	76.909	6,498.05	77.8699	6,498.05	75.1539	6,498.05	72.1133	6,498.05	70.6972	6,498.05	68.6046	6,498.05	67.4837	6,498.05	65.8673	6,498.05	66.384	6,498.05	48.3885	6,498.05	64.2252	6,498.05	49.4375	6,498.05	62.7264	6,498.05	57.6735	6,498.05	60.7051	6,498.05	54.0665	6,498.05	58.904	6,498.05	52.685	6,498.05	60.8438	6,498.05	52.8674	6,498.05	60.8212	6,498.05	56.699	6,498.05	50.8527	6,498.05	54.8844	6,498.05	53.2325
6,727.29	84.6698	6,727.29	84.1352	6,727.29	83.8161	6,727.29	83.1093	6,727.29	82.6096	6,727.29	82.0319	6,727.29	82.0542	6,727.29	81.3973	6,727.29	81.5269	6,727.29	79.1912	6,727.29	79.7492	6,727.29	76.7766	6,727.29	76.6573	6,727.29	74.6657	6,727.29	62.6394	6,727.29	71.0397	6,727.29	71.1108	6,727.29	68.3223	6,727.29	64.3731	6,727.29	63.7171	6,727.29	61.2482	6,727.29	62.5327	6,727.29	43.7426	6,727.29	63.2639	6,727.29	59.7118	6,727.29	61.0177	6,727.29	53.5501	6,727.29	56.0194	6,727.29	43.4439	6,727.29	59.8697	6,727.29	52.0157	6,727.29	60.6362	6,727.29	57.6053	6,727.29	47.5629	6,727.29	53.8238	6,727.29	56.0417
6,964.6	84.32	6,964.6	83.6712	6,964.6	83.8197	6,964.6	83.0362	6,964.6	83.3827	6,964.6	82.0223	6,964.6	82.4324	6,964.6	81.0791	6,964.6	81.3239	6,964.6	79.1034	6,964.6	79.5988	6,964.6	77.0073	6,964.6	74.0601	6,964.6	74.2323	6,964.6	66.7992	6,964.6	70.7639	6,964.6	72.8248	6,964.6	67.0471	6,964.6	71.069	6,964.6	65.1113	6,964.6	66.5968	6,964.6	61.8749	6,964.6	54.659	6,964.6	59.0735	6,964.6	54.3221	6,964.6	62.7665	6,964.6	45.2929	6,964.6	59.1579	6,964.6	49.7277	6,964.6	61.7012	6,964.6	53.0483	6,964.6	59.5066	6,964.6	57.6479	6,964.6	44.6535	6,964.6	52.7719	6,964.6	54.3546
7,209.96	83.4447	7,209.96	83.3091	7,209.96	83.5806	7,209.96	83.1195	7,209.96	83.4379	7,209.96	81.6859	7,209.96	82.5785	7,209.96	80.8964	7,209.96	81.3963	7,209.96	78.9844	7,209.96	78.8503	7,209.96	76.4947	7,209.96	72.3986	7,209.96	73.2263	7,209.96	72.5295	7,209.96	68.9925	7,209.96	75.2095	7,209.96	66.2524	7,209.96	70.0282	7,209.96	62.7372	7,209.96	62.4358	7,209.96	61.7742	7,209.96	50.4039	7,209.96	60.5606	7,209.96	54.4651	7,209.96	59.3556	7,209.96	51.1119	7,209.96	57.3241	7,209.96	53.5066	7,209.96	56.9256	7,209.96	51.9899	7,209.96	59.548	7,209.96	57.2275	7,209.96	47.2724	7,209.96	54.5822	7,209.96	57.0302
7,464.11	82.6628	7,464.11	83.3133	7,464.11	83.0441	7,464.11	82.8744	7,464.11	83.8127	7,464.11	81.7248	7,464.11	82.6686	7,464.11	81.3204	7,464.11	81.4423	7,464.11	78.8585	7,464.11	79.0554	7,464.11	75.8826	7,464.11	74.2808	7,464.11	71.9383	7,464.11	73.8951	7,464.11	67.8424	7,464.11	75.3546	7,464.11	65.6264	7,464.11	68.9821	7,464.11	62.9588	7,464.11	67.5225	7,464.11	61.0015	7,464.11	51.9352	7,464.11	57.6438	7,464.11	49.5787	7,464.11	60.5921	7,464.11	54.5106	7,464.11	58.5668	7,464.11	55.8463	7,464.11	57.9596	7,464.11	48.799	7,464.11	58.664	7,464.11	55.3704	7,464.11	54.223	7,464.11	56.0706	7,464.11	54.7149
7,727.78	82.4276	7,727.78	83.2855	7,727.78	82.6813	7,727.78	82.7506	7,727.78	83.4536	7,727.78	82.0945	7,727.78	82.6489	7,727.78	81.3312	7,727.78	81.617	7,727.78	78.5738	7,727.78	78.8024	7,727.78	75.9119	7,727.78	72.3702	7,727.78	72.3395	7,727.78	73.2493	7,727.78	68.3962	7,727.78	71.5272	7,727.78	64.8241	7,727.78	67.9625	7,727.78	58.005	7,727.78	67.1033	7,727.78	60.9603	7,727.78	57.3161	7,727.78	59.7309	7,727.78	52.8674	7,727.78	59.0908	7,727.78	50.7743	7,727.78	57.147	7,727.78	55.8132	7,727.78	59.0884	7,727.78	45.7357	7,727.78	57.6016	7,727.78	53.5365	7,727.78	56.4018	7,727.78	53.9619	7,727.78	54.6411
8,000.24	82.7355	8,000.24	83.7333	8,000.24	82.8682	8,000.24	83.086	8,000.24	83.5044	8,000.24	82.6242	8,000.24	82.344	8,000.24	81.0623	8,000.24	81.4917	8,000.24	78.8291	8,000.24	77.5592	8,000.24	75.5311	8,000.24	73.931	8,000.24	72.2133	8,000.24	73.2538	8,000.24	68.453	8,000.24	69.0326	8,000.24	64.815	8,000.24	66.1185	8,000.24	60.6636	8,000.24	65.1421	8,000.24	60.7549	8,000.24	54.105	8,000.24	57.8321	8,000.24	50.1327	8,000.24	59.3204	8,000.24	49.4155	8,000.24	58.0476	8,000.24	51.2144	8,000.24	59.5104	8,000.24	50.795	8,000.24	56.7359	8,000.24	50.5534	8,000.24	57.0679	8,000.24	52.7823	8,000.24	53.8142
8,282.23	84.1496	8,282.23	84.5601	8,282.23	83.7646	8,282.23	83.9392	8,282.23	83.5584	8,282.23	82.6615	8,282.23	82.5089	8,282.23	81.1796	8,282.23	81.6158	8,282.23	78.946	8,282.23	77.9173	8,282.23	75.5756	8,282.23	75.593	8,282.23	71.9317	8,282.23	72.802	8,282.23	68.1407	8,282.23	62.4967	8,282.23	64.1821	8,282.23	67.2692	8,282.23	64.686	8,282.23	64.6321	8,282.23	62.4479	8,282.23	59.7728	8,282.23	57.2831	8,282.23	48.361	8,282.23	54.4506	8,282.23	55.677	8,282.23	59.1669	8,282.23	57.879	8,282.23	55.6824	8,282.23	50.1455	8,282.23	56.8108	8,282.23	47.0685	8,282.23	58.8055	8,282.23	50.7825	8,282.23	55.3099
8,574.46	84.4265	8,574.46	84.7894	8,574.46	84.6187	8,574.46	84.0793	8,574.46	83.9755	8,574.46	82.5748	8,574.46	82.4712	8,574.46	81.152	8,574.46	81.3661	8,574.46	78.1217	8,574.46	77.2824	8,574.46	75.5401	8,574.46	75.6517	8,574.46	72.3133	8,574.46	71.843	8,574.46	68.7335	8,574.46	65.5999	8,574.46	62.9133	8,574.46	67.4767	8,574.46	64.1173	8,574.46	61.8988	8,574.46	60.6747	8,574.46	61.2651	8,574.46	57.2008	8,574.46	44.9746	8,574.46	57.7615	8,574.46	53.9732	8,574.46	59.8051	8,574.46	57.4466	8,574.46	54.6864	8,574.46	47.3578	8,574.46	56.8473	8,574.46	49.8346	8,574.46	59.1135	8,574.46	52.5719	8,574.46	56.5072
8,876.22	84.0699	8,876.22	84.293	8,876.22	84.8048	8,876.22	83.8314	8,876.22	84.1506	8,876.22	82.6012	8,876.22	82.4758	8,876.22	80.3641	8,876.22	80.7556	8,876.22	77.4447	8,876.22	77.9661	8,876.22	74.6962	8,876.22	77.5219	8,876.22	73.4131	8,876.22	71.6304	8,876.22	68.7145	8,876.22	69.6069	8,876.22	63.1223	8,876.22	68.5302	8,876.22	63.5904	8,876.22	62.3344	8,876.22	59.23	8,876.22	64.5362	8,876.22	53.6076	8,876.22	44.0019	8,876.22	60.0524	8,876.22	55.9982	8,876.22	58.8965	8,876.22	56.912	8,876.22	55.2834	8,876.22	42.8348	8,876.22	56.6974	8,876.22	45.7044	8,876.22	57.6668	8,876.22	48.522	8,876.22	51.5369
9,189.7	83.4313	9,189.7	83.3489	9,189.7	84.4675	9,189.7	83.4397	9,189.7	84.0459	9,189.7	82.4457	9,189.7	82.8594	9,189.7	80.2611	9,189.7	80.7501	9,189.7	76.7131	9,189.7	78.9415	9,189.7	74.8484	9,189.7	76.8143	9,189.7	72.8238	9,189.7	69.7825	9,189.7	69.4639	9,189.7	69.4386	9,189.7	64.0248	9,189.7	64.4379	9,189.7	62.5824	9,189.7	62.5545	9,189.7	60.087	9,189.7	65.3385	9,189.7	52.6571	9,189.7	53.1029	9,189.7	61.2713	9,189.7	52.8641	9,189.7	57.0277	9,189.7	53.8109	9,189.7	56.512	9,189.7	42.9873	9,189.7	54.558	9,189.7	49.5646	9,189.7	54.6796	9,189.7	49.9034	9,189.7	50.8508
9,513.43	83.0823	9,513.43	82.9677	9,513.43	84.0098	9,513.43	83.0729	9,513.43	83.6798	9,513.43	82.626	9,513.43	82.8446	9,513.43	80.2955	9,513.43	80.7946	9,513.43	76.9499	9,513.43	78.9196	9,513.43	74.7055	9,513.43	75.6897	9,513.43	72.4412	9,513.43	70.12	9,513.43	68.2354	9,513.43	68.0786	9,513.43	62.8105	9,513.43	56.6267	9,513.43	59.1503	9,513.43	65.2512	9,513.43	59.8893	9,513.43	66.7289	9,513.43	56.1571	9,513.43	52.3809	9,513.43	57.9684	9,513.43	49.4426	9,513.43	55.9362	9,513.43	56.8881	9,513.43	55.9165	9,513.43	46.6535	9,513.43	48.9787	9,513.43	49.0562	9,513.43	54.0228	9,513.43	50.3307	9,513.43	45.1217
9,848.88	83.5644	9,848.88	83.391	9,848.88	83.8745	9,848.88	83.1885	9,848.88	83.6115	9,848.88	82.8639	9,848.88	82.6073	9,848.88	79.8061	9,848.88	80.803	9,848.88	77.8429	9,848.88	79.725	9,848.88	74.0308	9,848.88	75.4309	9,848.88	72.1443	9,848.88	71.8073	9,848.88	67.1768	9,848.88	68.1123	9,848.88	62.1092	9,848.88	64.6587	9,848.88	58.8419	9,848.88	61.4245	9,848.88	58.2421	9,848.88	65.7361	9,848.88	55.1512	9,848.88	44.2437	9,848.88	51.9082	9,848.88	48.7707	9,848.88	56.3181	9,848.88	55.2296	9,848.88	55.1299	9,848.88	49.6606	9,848.88	45.3303	9,848.88	47.4597	9,848.88	54.7888	9,848.88	45.181	9,848.88	44.6594
10,196.8	84.1405	10,196.8	83.925	10,196.8	83.9344	10,196.8	83.4429	10,196.8	83.5317	10,196.8	82.5156	10,196.8	82.4115	10,196.8	79.8693	10,196.8	80.786	10,196.8	77.7883	10,196.8	79.3872	10,196.8	74.3755	10,196.8	74.3691	10,196.8	72.0679	10,196.8	73.7778	10,196.8	66.7442	10,196.8	66.8411	10,196.8	60.6515	10,196.8	67.5412	10,196.8	60.974	10,196.8	56.8517	10,196.8	55.5414	10,196.8	66.3442	10,196.8	55.3366	10,196.8	49.4357	10,196.8	52.0972	10,196.8	55.2201	10,196.8	56.8151	10,196.8	45.0472	10,196.8	51.8057	10,196.8	49.1778	10,196.8	45.6901	10,196.8	28.7111	10,196.8	53.9997	10,196.8	44.7952	10,196.8	36.8396
10,556.4	84.3389	10,556.4	84.0878	10,556.4	83.9238	10,556.4	83.2164	10,556.4	83.5772	10,556.4	81.8792	10,556.4	82.4483	10,556.4	79.4183	10,556.4	80.8682	10,556.4	77.351	10,556.4	79.336	10,556.4	74.1914	10,556.4	74.4052	10,556.4	71.9727	10,556.4	73.1953	10,556.4	65.2528	10,556.4	65.4117	10,556.4	60.6562	10,556.4	64.6609	10,556.4	60.5928	10,556.4	62.0963	10,556.4	55.4409	10,556.4	67.6017	10,556.4	53.8537	10,556.4	53.9671	10,556.4	54.3093	10,556.4	56.5443	10,556.4	54.9942	10,556.4	47.6711	10,556.4	51.2212	10,556.4	48.9181	10,556.4	44.3036	10,556.4	36.2733	10,556.4	51.0685	10,556.4	47.0266	10,556.4	45.4295
10,928.5	84.1269	10,928.5	83.4849	10,928.5	83.7965	10,928.5	82.7449	10,928.5	83.4079	10,928.5	81.2033	10,928.5	82.0753	10,928.5	79.435	10,928.5	80.5649	10,928.5	76.7199	10,928.5	78.561	10,928.5	74.1352	10,928.5	74.2474	10,928.5	71.3291	10,928.5	71.1472	10,928.5	65.1907	10,928.5	63.4492	10,928.5	62.5631	10,928.5	63.8782	10,928.5	58.8085	10,928.5	65.3784	10,928.5	54.5884	10,928.5	68.746	10,928.5	53.9347	10,928.5	57.6518	10,928.5	52.3092	10,928.5	56.8149	10,928.5	54.5132	10,928.5	53.7004	10,928.5	49.8132	10,928.5	49.3854	10,928.5	46.6075	10,928.5	37.9955	10,928.5	49.0515	10,928.5	45.1369	10,928.5	46.8541
11,313.7	83.5294	11,313.7	83.0147	11,313.7	83.3872	11,313.7	82.7919	11,313.7	82.9919	11,313.7	81.1497	11,313.7	81.2359	11,313.7	79.7607	11,313.7	79.901	11,313.7	76.5263	11,313.7	76.5359	11,313.7	73.542	11,313.7	71.6807	11,313.7	70.9125	11,313.7	67.8592	11,313.7	65.0166	11,313.7	60.28	11,313.7	62.646	11,313.7	65.7387	11,313.7	57.5555	11,313.7	67.9173	11,313.7	53.0684	11,313.7	69.5157	11,313.7	53.2677	11,313.7	58.0659	11,313.7	49.5506	11,313.7	51.1277	11,313.7	54.7567	11,313.7	56.7636	11,313.7	47.9013	11,313.7	47.9617	11,313.7	45.9118	11,313.7	45.3113	11,313.7	46.464	11,313.7	41.2843	11,313.7	47.3726
11,712.9	82.5285	11,712.9	82.6698	11,712.9	82.6221	11,712.9	82.6498	11,712.9	82.4852	11,712.9	81.2272	11,712.9	80.6099	11,712.9	79.8506	11,712.9	79.6554	11,712.9	76.5191	11,712.9	75.663	11,712.9	73.0205	11,712.9	70.0113	11,712.9	71.3091	11,712.9	69.1633	11,712.9	65.1302	11,712.9	65.2601	11,712.9	62.0439	11,712.9	67.6893	11,712.9	57.7786	11,712.9	67.9236	11,712.9	50.6655	11,712.9	70.9538	11,712.9	52.3464	11,712.9	48.8082	11,712.9	47.3082	11,712.9	56.2067	11,712.9	55.6304	11,712.9	55.6965	11,712.9	51.5376	11,712.9	47.1587	11,712.9	45.9209	11,712.9	49.1021	11,712.9	50.6306	11,712.9	44.0656	11,712.9	50.7704
12,126	82.2701	12,126	82.594	12,126	82.1492	12,126	82.0909	12,126	81.9707	12,126	80.7561	12,126	80.4327	12,126	79.5751	12,126	78.9993	12,126	75.905	12,126	74.9887	12,126	73.1458	12,126	72.1972	12,126	71.025	12,126	72.1439	12,126	64.6665	12,126	65.8082	12,126	60.4202	12,126	67.8252	12,126	56.4542	12,126	68.4889	12,126	50.1346	12,126	71.5539	12,126	49.5341	12,126	49.4029	12,126	49.954	12,126	56.1776	12,126	57.0232	12,126	51.6452	12,126	51.6665	12,126	49.2385	12,126	47.036	12,126	51.0217	12,126	52.4403	12,126	40.2205	12,126	53.3998
12,553.7	82.434	12,553.7	82.1941	12,553.7	81.9417	12,553.7	80.9856	12,553.7	81.3707	12,553.7	80.5425	12,553.7	80.311	12,553.7	78.6963	12,553.7	79.1028	12,553.7	75.9405	12,553.7	76.2427	12,553.7	72.4248	12,553.7	73.4003	12,553.7	70.6031	12,553.7	70.8365	12,553.7	63.875	12,553.7	65.6505	12,553.7	60.4284	12,553.7	64.9501	12,553.7	56.1876	12,553.7	69.8865	12,553.7	50.8294	12,553.7	72.008	12,553.7	47.1019	12,553.7	51.649	12,553.7	52.0914	12,553.7	57.523	12,553.7	56.7672	12,553.7	53.5505	12,553.7	51.5733	12,553.7	48.9584	12,553.7	45.8455	12,553.7	53.8766	12,553.7	53.339	12,553.7	40.0415	12,553.7	53.0116
12,996.1	82.1784	12,996.1	81.4658	12,996.1	81.8346	12,996.1	80.5402	12,996.1	81.0675	12,996.1	80.4426	12,996.1	80.5585	12,996.1	78.253	12,996.1	78.9102	12,996.1	75.9086	12,996.1	76.6025	12,996.1	71.2588	12,996.1	73.6559	12,996.1	70.2144	12,996.1	70.3638	12,996.1	64.4018	12,996.1	66.3175	12,996.1	60.6835	12,996.1	63.4072	12,996.1	55.5368	12,996.1	69.8183	12,996.1	50.3297	12,996.1	71.8357	12,996.1	44.006	12,996.1	50.9324	12,996.1	54.4332	12,996.1	56.8107	12,996.1	56.4142	12,996.1	54.9668	12,996.1	51.5217	12,996.1	46.6357	12,996.1	43.982	12,996.1	52.3645	12,996.1	53.343	12,996.1	39.8755	12,996.1	55.6632
13,454.6	81.6886	13,454.6	80.8246	13,454.6	81.388	13,454.6	80.4718	13,454.6	80.7018	13,454.6	80.4922	13,454.6	80.4547	13,454.6	78.2181	13,454.6	78.6829	13,454.6	75.1666	13,454.6	76.471	13,454.6	71.4201	13,454.6	73.4549	13,454.6	69.6737	13,454.6	67.4419	13,454.6	63.5868	13,454.6	66.2642	13,454.6	61.0584	13,454.6	60.2257	13,454.6	52.3144	13,454.6	69.4362	13,454.6	46.6549	13,454.6	71.0589	13,454.6	42.8608	13,454.6	50.4563	13,454.6	52.2539	13,454.6	57.6345	13,454.6	54.8013	13,454.6	54.3837	13,454.6	48.6449	13,454.6	49.2634	13,454.6	45.8536	13,454.6	53.7682	13,454.6	53.9948	13,454.6	34.5661	13,454.6	55.6704
13,928.5	81.5502	13,928.5	80.6784	13,928.5	80.8671	13,928.5	80.6722	13,928.5	80.3308	13,928.5	80.2716	13,928.5	80.1475	13,928.5	77.9756	13,928.5	78.1893	13,928.5	74.1814	13,928.5	75.7419	13,928.5	70.7657	13,928.5	72.103	13,928.5	68.6622	13,928.5	64.1796	13,928.5	61.5987	13,928.5	64.4686	13,928.5	59.6087	13,928.5	60.206	13,928.5	46.6685	13,928.5	69.6297	13,928.5	44.8876	13,928.5	70.933	13,928.5	34.3294	13,928.5	50.778	13,928.5	50.4853	13,928.5	56.7374	13,928.5	51.99	13,928.5	50.2727	13,928.5	42.3922	13,928.5	49.0787	13,928.5	50.9757	13,928.5	50.4666	13,928.5	53.8854	13,928.5	43.127	13,928.5	56.9767
14,419.9	81.853	14,419.9	80.8175	14,419.9	80.6425	14,419.9	80.7854	14,419.9	79.901	14,419.9	79.9508	14,419.9	79.608	14,419.9	77.6353	14,419.9	77.8272	14,419.9	73.5533	14,419.9	74.9425	14,419.9	69.6174	14,419.9	69.6016	14,419.9	66.9929	14,419.9	64.2388	14,419.9	60.3539	14,419.9	62.2718	14,419.9	59.0335	14,419.9	58.9019	14,419.9	44.5617	14,419.9	68.8889	14,419.9	34.5514	14,419.9	70.8865	14,419.9	39.7675	14,419.9	47.7946	14,419.9	52.4709	14,419.9	56.0374	14,419.9	51.7358	14,419.9	49.6035	14,419.9	48.3062	14,419.9	44.8938	14,419.9	54.325	14,419.9	52.0271	14,419.9	54.3456	14,419.9	49.9323	14,419.9	58.0903
14,928.2	82.2834	14,928.2	81.0821	14,928.2	81.1872	14,928.2	80.9489	14,928.2	80.0878	14,928.2	79.442	14,928.2	79.2406	14,928.2	77.0205	14,928.2	77.2072	14,928.2	73.0768	14,928.2	73.0343	14,928.2	67.6636	14,928.2	67.483	14,928.2	66.1533	14,928.2	62.7332	14,928.2	59.9262	14,928.2	62.2561	14,928.2	58.9042	14,928.2	54.5728	14,928.2	44.3865	14,928.2	67.4095	14,928.2	28.3753	14,928.2	69.428	14,928.2	45.2212	14,928.2	32.9783	14,928.2	54.9693	14,928.2	56.4151	14,928.2	51.7843	14,928.2	54.6232	14,928.2	49.0503	14,928.2	36.1794	14,928.2	54.5413	14,928.2	54.642	14,928.2	54.2895	14,928.2	50.2864	14,928.2	58.6641
15,454.8	82.4193	15,454.8	81.5391	15,454.8	81.6916	15,454.8	80.9587	15,454.8	80.5604	15,454.8	78.918	15,454.8	78.978	15,454.8	76.0286	15,454.8	76.3426	15,454.8	71.7166	15,454.8	71.2157	15,454.8	65.0258	15,454.8	67.0299	15,454.8	63.9342	15,454.8	61.4226	15,454.8	58.069	15,454.8	60.2636	15,454.8	57.7146	15,454.8	49.8416	15,454.8	44.3013	15,454.8	65.8507	15,454.8	25.4718	15,454.8	68.3982	15,454.8	46.2919	15,454.8	40.3591	15,454.8	53.1858	15,454.8	56.8245	15,454.8	49.3957	15,454.8	54.8937	15,454.8	45.9941	15,454.8	36.4086	15,454.8	53.1334	15,454.8	53.7153	15,454.8	54.1731	15,454.8	50.0707	15,454.8	58.9338
15,999.8	81.6225	15,999.8	81.2642	15,999.8	81.4389	15,999.8	80.3513	15,999.8	80.2545	15,999.8	77.7334	15,999.8	78.4159	15,999.8	73.8119	15,999.8	75.052	15,999.8	69.0752	15,999.8	69.464	15,999.8	60.3904	15,999.8	65.8959	15,999.8	59.5534	15,999.8	58.7199	15,999.8	55.3415	15,999.8	54.8825	15,999.8	54.8242	15,999.8	48.0735	15,999.8	44.4953	15,999.8	64.5398	15,999.8	38.5188	15,999.8	67.5937	15,999.8	43.8182	15,999.8	37.7321	15,999.8	50.4431	15,999.8	55.394	15,999.8	46.0685	15,999.8	51.9452	15,999.8	40.386	15,999.8	36.7488	15,999.8	50.037	15,999.8	49.4961	15,999.8	53.2559	15,999.8	48.7823	15,999.8	57.6999
16,564.5	81.3719	16,564.5	81.0817	16,564.5	81.173	16,564.5	79.8651	16,564.5	79.8626	16,564.5	76.9114	16,564.5	78.2229	16,564.5	72.6253	16,564.5	74.5429	16,564.5	67.1056	16,564.5	69.1722	16,564.5	58.1426	16,564.5	64.4091	16,564.5	57.4229	16,564.5	57.3168	16,564.5	53.8543	16,564.5	55.3218	16,564.5	53.2279	16,564.5	46.2738	16,564.5	47.1465	16,564.5	63.0524	16,564.5	37.7062	16,564.5	67.1748	16,564.5	44.6277	16,564.5	38.7728	16,564.5	50.6565	16,564.5	53.5603	16,564.5	45.4182	16,564.5	52.8554	16,564.5	45.9646	16,564.5	25.4483	16,564.5	51.3269	16,564.5	50.1399	16,564.5	54.5865	16,564.5	50.9363	16,564.5	58.31
17,148.2	81.6741	17,148.2	81.1415	17,148.2	81.3029	17,148.2	79.5263	17,148.2	79.544	17,148.2	75.9303	17,148.2	77.4267	17,148.2	71.5893	17,148.2	73.4865	17,148.2	65.8422	17,148.2	67.6545	17,148.2	55.7308	17,148.2	62.5359	17,148.2	55.8499	17,148.2	54.8895	17,148.2	52.862	17,148.2	54.6762	17,148.2	53.8845	17,148.2	42.4131	17,148.2	49.038	17,148.2	62.2649	17,148.2	42.8515	17,148.2	66.4477	17,148.2	46.8605	17,148.2	38.8957	17,148.2	51.0661	17,148.2	52.3965	17,148.2	45.3095	17,148.2	53.5058	17,148.2	43.6412	17,148.2	33.7358	17,148.2	51.1404	17,148.2	50.712	17,148.2	55.1585	17,148.2	49.7699	17,148.2	58.8304
17,753.2	81.6608	17,753.2	81.3008	17,753.2	81.5873	17,753.2	79.2184	17,753.2	79.565	17,753.2	75.3696	17,753.2	76.9179	17,753.2	70.3245	17,753.2	72.2977	17,753.2	64.2984	17,753.2	65.6011	17,753.2	54.1397	17,753.2	59.6094	17,753.2	52.9251	17,753.2	49.437	17,753.2	50.1919	17,753.2	49.9904	17,753.2	52.8533	17,753.2	42.0417	17,753.2	47.3141	17,753.2	62.6141	17,753.2	41.593	17,753.2	66.1398	17,753.2	44.7303	17,753.2	39.0512	17,753.2	49.7485	17,753.2	51.5645	17,753.2	44.2743	17,753.2	51.8637	17,753.2	41.897	17,753.2	35.8273	17,753.2	48.9212	17,753.2	45.9855	17,753.2	54.3207	17,753.2	49.5138	17,753.2	57.9189
18,379.4	80.8686	18,379.4	80.8579	18,379.4	81.1176	18,379.4	78.7135	18,379.4	79.1795	18,379.4	74.9538	18,379.4	76.5394	18,379.4	69.6643	18,379.4	71.5701	18,379.4	62.6285	18,379.4	63.5417	18,379.4	54.2572	18,379.4	59.6695	18,379.4	49.2355	18,379.4	47.41	18,379.4	48.6391	18,379.4	47.1343	18,379.4	51.7374	18,379.4	44.6679	18,379.4	48.542	18,379.4	63.2121	18,379.4	43.3505	18,379.4	66.252	18,379.4	43.6106	18,379.4	46.8761	18,379.4	47.5753	18,379.4	49.067	18,379.4	43.2086	18,379.4	51.0352	18,379.4	48.2365	18,379.4	20.436	18,379.4	49.6639	18,379.4	41.693	18,379.4	53.3282	18,379.4	51.5847	18,379.4	56.7798
19,027.6	80.6912	19,027.6	80.552	19,027.6	80.8306	19,027.6	78.1756	19,027.6	78.7556	19,027.6	74.3659	19,027.6	75.9005	19,027.6	68.694	19,027.6	70.9393	19,027.6	61.4817	19,027.6	61.9579	19,027.6	54.2936	19,027.6	59.1555	19,027.6	46.52	19,027.6	46.2189	19,027.6	47.9142	19,027.6	49.7721	19,027.6	49.9081	19,027.6	46.9638	19,027.6	48.9231	19,027.6	63.4306	19,027.6	40.1133	19,027.6	65.9587	19,027.6	41.0047	19,027.6	47.9333	19,027.6	47.3903	19,027.6	47.3813	19,027.6	43.9849	19,027.6	51.328	19,027.6	47.4246	19,027.6	33.8722	19,027.6	49.0358	19,027.6	44.6831	19,027.6	52.012	19,027.6	50.0076	19,027.6	56.2164
19,698.5	80.6311	19,698.5	80.136	19,698.5	80.892	19,698.5	77.5727	19,698.5	78.7056	19,698.5	73.8482	19,698.5	75.6403	19,698.5	68.0344	19,698.5	70.4485	19,698.5	60.6337	19,698.5	62.8826	19,698.5	55.0857	19,698.5	56.2042	19,698.5	41.015	19,698.5	45.0624	19,698.5	46.2334	19,698.5	47.3279	19,698.5	45.8864	19,698.5	44.7508	19,698.5	47.5073	19,698.5	63.7663	19,698.5	36.7283	19,698.5	65.6398	19,698.5	35.6475	19,698.5	46.8211	19,698.5	44.4669	19,698.5	45.685	19,698.5	43.7241	19,698.5	48.8371	19,698.5	46.7145	19,698.5	36.1002	19,698.5	47.3704	19,698.5	41.0383	19,698.5	50.1251	19,698.5	48.2817	19,698.5	56.1243
19,999.5	80.3769	19,999.5	79.8391	19,999.5	80.8497	19,999.5	77.316	19,999.5	78.6475	19,999.5	73.9721	19,999.5	75.7494	19,999.5	67.6458	19,999.5	70.3931	19,999.5	61.0121	19,999.5	60.7346	19,999.5	55.3565	19,999.5	60.2512	19,999.5	41.8735	19,999.5	48.255	19,999.5	44.3576	19,999.5	49.3158	19,999.5	39.0347	19,999.5	48.9778	19,999.5	45.0277	19,999.5	64.8454	19,999.5	37.8592	19,999.5	65.8226	19,999.5	25.4928	19,999.5	50.9142	19,999.5	37.8562	19,999.5	42.0339	19,999.5	47.1931	19,999.5	49.0388	19,999.5	48.7391	19,999.5	40.2608	19,999.5	46.475	19,999.5	40.3993	19,999.5	50.3047	19,999.5	49.465	19,999.5	56.3307
