"SPL Horizontal"																																																																							
"On-Axis"		"10°"		"-10°"		"20°"		"-20°"		"30°"		"-30°"		"40°"		"-40°"		"50°"		"-50°"		"60°"		"-60°"		"70°"		"-70°"		"80°"		"-80°"		"90°"		"-90°"		"100°"		"-100°"		"110°"		"-110°"		"120°"		"-120°"		"130°"		"-130°"		"140°"		"-140°"		"150°"		"-150°"		"160°"		"-160°"		"170°"		"-170°"		"180°"	
"Frequency [Hz]"	"Sound Pessure Level [dB]  / [2.83V 1m] "	"Frequency [Hz]"	"Sound Pessure Level [dB]  / [2.83V 1m] "	"Frequency [Hz]"	"Sound Pessure Level [dB]  / [2.83V 1m] "	"Frequency [Hz]"	"Sound Pessure Level [dB]  / [2.83V 1m] "	"Frequency [Hz]"	"Sound Pessure Level [dB]  / [2.83V 1m] "	"Frequency [Hz]"	"Sound Pessure Level [dB]  / [2.83V 1m] "	"Frequency [Hz]"	"Sound Pessure Level [dB]  / [2.83V 1m] "	"Frequency [Hz]"	"Sound Pessure Level [dB]  / [2.83V 1m] "	"Frequency [Hz]"	"Sound Pessure Level [dB]  / [2.83V 1m] "	"Frequency [Hz]"	"Sound Pessure Level [dB]  / [2.83V 1m] "	"Frequency [Hz]"	"Sound Pessure Level [dB]  / [2.83V 1m] "	"Frequency [Hz]"	"Sound Pessure Level [dB]  / [2.83V 1m] "	"Frequency [Hz]"	"Sound Pessure Level [dB]  / [2.83V 1m] "	"Frequency [Hz]"	"Sound Pessure Level [dB]  / [2.83V 1m] "	"Frequency [Hz]"	"Sound Pessure Level [dB]  / [2.83V 1m] "	"Frequency [Hz]"	"Sound Pessure Level [dB]  / [2.83V 1m] "	"Frequency [Hz]"	"Sound Pessure Level [dB]  / [2.83V 1m] "	"Frequency [Hz]"	"Sound Pessure Level [dB]  / [2.83V 1m] "	"Frequency [Hz]"	"Sound Pessure Level [dB]  / [2.83V 1m] "	"Frequency [Hz]"	"Sound Pessure Level [dB]  / [2.83V 1m] "	"Frequency [Hz]"	"Sound Pessure Level [dB]  / [2.83V 1m] "	"Frequency [Hz]"	"Sound Pessure Level [dB]  / [2.83V 1m] "	"Frequency [Hz]"	"Sound Pessure Level [dB]  / [2.83V 1m] "	"Frequency [Hz]"	"Sound Pessure Level [dB]  / [2.83V 1m] "	"Frequency [Hz]"	"Sound Pessure Level [dB]  / [2.83V 1m] "	"Frequency [Hz]"	"Sound Pessure Level [dB]  / [2.83V 1m] "	"Frequency [Hz]"	"Sound Pessure Level [dB]  / [2.83V 1m] "	"Frequency [Hz]"	"Sound Pessure Level [dB]  / [2.83V 1m] "	"Frequency [Hz]"	"Sound Pessure Level [dB]  / [2.83V 1m] "	"Frequency [Hz]"	"Sound Pessure Level [dB]  / [2.83V 1m] "	"Frequency [Hz]"	"Sound Pessure Level [dB]  / [2.83V 1m] "	"Frequency [Hz]"	"Sound Pessure Level [dB]  / [2.83V 1m] "	"Frequency [Hz]"	"Sound Pessure Level [dB]  / [2.83V 1m] "	"Frequency [Hz]"	"Sound Pessure Level [dB]  / [2.83V 1m] "	"Frequency [Hz]"	"Sound Pessure Level [dB]  / [2.83V 1m] "	"Frequency [Hz]"	"Sound Pessure Level [dB]  / [2.83V 1m] "
20.5078	57.5374	20.5078	57.4539	20.5078	57.505	20.5078	57.2756	20.5078	57.3595	20.5078	57.0546	20.5078	57.1287	20.5078	56.888	20.5078	56.878	20.5078	56.9204	20.5078	56.7248	20.5078	57.3016	20.5078	56.833	20.5078	58.0952	20.5078	57.3459	20.5078	59.2261	20.5078	58.2838	20.5078	60.5379	20.5078	59.5243	20.5078	61.8824	20.5078	60.8939	20.5078	63.1589	20.5078	62.2528	20.5078	64.3087	20.5078	63.514	20.5078	65.2995	20.5078	64.6297	20.5078	66.1133	20.5078	65.5744	20.5078	66.7395	20.5078	66.3342	20.5078	67.1716	20.5078	66.9009	20.5078	67.4053	20.5078	67.2699	20.5078	67.4383
21.2402	58.4755	21.2402	58.3857	21.2402	58.4489	21.2402	58.199	21.2402	58.3086	21.2402	57.965	21.2402	58.081	21.2402	57.7766	21.2402	57.8273	21.2402	57.7753	21.2402	57.6584	21.2402	58.1133	21.2402	57.7319	21.2402	58.8637	21.2402	58.1935	21.2402	59.961	21.2402	59.0769	21.2402	61.251	21.2402	60.2733	21.2402	62.5828	21.2402	61.6134	21.2402	63.8518	21.2402	62.9543	21.2402	64.9966	21.2402	64.205	21.2402	65.9837	21.2402	65.3143	21.2402	66.7945	21.2402	66.255	21.2402	67.4184	21.2402	67.0122	21.2402	67.8486	21.2402	67.5773	21.2402	68.0811	21.2402	67.9453	21.2402	68.1136
21.9727	59.7955	21.9727	59.7179	21.9727	59.7711	21.9727	59.5568	21.9727	59.647	21.9727	59.3565	21.9727	59.4469	21.9727	59.1975	21.9727	59.2248	21.9727	59.1994	21.9727	59.0764	21.9727	59.4917	21.9727	59.1361	21.9727	60.1465	21.9727	59.5332	21.9727	61.125	21.9727	60.3117	21.9727	62.3038	21.9727	61.3941	21.9727	63.5471	21.9727	62.6362	21.9727	64.7514	21.9727	63.9027	21.9727	65.8509	21.9727	65.0997	21.9727	66.8069	21.9727	66.1708	21.9727	67.5971	21.9727	67.0842	21.9727	68.2078	21.9727	67.8218	21.9727	68.6308	21.9727	68.373	21.9727	68.8607	21.9727	68.7317	21.9727	68.8947
22.7051	60.1865	22.7051	60.1091	22.7051	60.1676	22.7051	59.9558	22.7051	60.0537	22.7051	59.7749	22.7051	59.8694	22.7051	59.6515	22.7051	59.6702	22.7051	59.7063	22.7051	59.5529	22.7051	60.0611	22.7051	59.6495	22.7051	60.7714	22.7051	60.0817	22.7051	61.7846	22.7051	60.8844	22.7051	62.9758	22.7051	61.977	22.7051	64.2158	22.7051	63.2189	22.7051	65.4083	22.7051	64.4804	22.7051	66.4929	22.7051	65.6713	22.7051	67.4337	22.7051	66.7376	22.7051	68.2096	22.7051	67.648	22.7051	68.8076	22.7051	68.3847	22.7051	69.2197	22.7051	68.9371	22.7051	69.4405	22.7051	69.2991	22.7051	69.4673
23.4375	61.7043	23.4375	61.6594	23.4375	61.6776	23.4375	61.5604	23.4375	61.5804	23.4375	61.4469	23.4375	61.4339	23.4375	61.3847	23.4375	61.2841	23.4375	61.4628	23.4375	61.2073	23.4375	61.7708	23.4375	61.3041	23.4375	62.3582	23.4375	61.6691	23.4375	63.2024	23.4375	62.3398	23.4375	64.2208	23.4375	63.2701	23.4375	65.3115	23.4375	64.3569	23.4375	66.3867	23.4375	65.4901	23.4375	67.3834	23.4375	66.5832	23.4375	68.26	23.4375	67.5777	23.4375	68.9899	23.4375	68.4369	23.4375	69.556	23.4375	69.1381	23.4375	69.9472	23.4375	69.6674	23.4375	70.1563	23.4375	70.0161	23.4375	70.1797
24.1699	62.5185	24.1699	62.474	24.1699	62.4942	24.1699	62.3761	24.1699	62.4035	24.1699	62.2605	24.1699	62.267	24.1699	62.187	24.1699	62.1285	24.1699	62.2384	24.1699	62.0589	24.1699	62.5017	24.1699	62.1508	24.1699	63.0315	24.1699	62.4922	24.1699	63.8168	24.1699	63.1211	24.1699	64.7853	24.1699	64.0001	24.1699	65.8393	24.1699	65.0365	24.1699	66.8906	24.1699	66.1262	24.1699	67.8731	24.1699	67.1842	24.1699	68.7425	24.1699	68.151	24.1699	69.4702	24.1699	68.9884	24.1699	70.0375	24.1699	69.6723	24.1699	70.4324	24.1699	70.1874	24.1699	70.6475	24.1699	70.5246	24.1699	70.6785
25.6348	64.1379	25.6348	64.1067	25.6348	64.1235	25.6348	64.0434	25.6348	64.0652	25.6348	63.9789	25.6348	63.981	25.6348	63.9622	25.6348	63.9072	25.6348	64.0575	25.6348	63.8994	25.6348	64.3292	25.6348	64.0268	25.6348	64.8174	25.6348	64.3533	25.6348	65.5159	25.6348	64.9091	25.6348	66.3732	25.6348	65.6728	25.6348	67.3139	25.6348	66.5794	25.6348	68.2636	25.6348	67.5479	25.6348	69.1621	25.6348	68.5043	25.6348	69.9651	25.6348	69.3917	25.6348	70.6422	25.6348	70.1698	25.6348	71.1724	25.6348	70.8114	25.6348	71.5421	25.6348	71.2985	25.6348	71.7424	25.6348	71.6198	25.6348	71.7686
26.3672	65.0194	26.3672	64.9958	26.3672	65.0056	26.3672	64.9471	26.3672	64.9563	26.3672	64.9001	26.3672	64.8874	26.3672	64.8976	26.3672	64.8311	26.3672	64.9943	26.3672	64.8357	26.3672	65.2461	26.3672	64.9604	26.3672	65.6894	26.3672	65.261	26.3672	66.3237	26.3672	65.7664	26.3672	67.1089	26.3672	66.4628	26.3672	67.9807	26.3672	67.2977	26.3672	68.8713	26.3672	68.1999	26.3672	69.7223	26.3672	69.1007	26.3672	70.4892	26.3672	69.944	26.3672	71.1399	26.3672	70.6887	26.3672	71.6519	26.3672	71.3059	26.3672	72.01	26.3672	71.7761	26.3672	72.2047	26.3672	72.0868	26.3672	72.2306
27.0996	65.843	27.0996	65.8254	27.0996	65.8304	27.0996	65.7885	27.0996	65.7891	27.0996	65.7563	27.0996	65.7338	27.0996	65.7662	27.0996	65.6927	27.0996	65.8659	27.0996	65.7082	27.0996	66.1038	27.0996	65.8318	27.0996	66.5132	27.0996	66.1121	27.0996	67.0966	27.0996	66.5764	27.0996	67.8222	27.0996	67.2163	27.0996	68.6347	27.0996	67.989	27.0996	69.4726	27.0996	68.8322	27.0996	70.28	27.0996	69.6823	27.0996	71.0128	27.0996	70.485	27.0996	71.6378	27.0996	71.1987	27.0996	72.1314	27.0996	71.7934	27.0996	72.4774	27.0996	72.2484	27.0996	72.6655	27.0996	72.5499	27.0996	72.69
27.832	66.5881	27.832	66.5742	27.832	66.578	27.832	66.5463	27.832	66.5457	27.832	66.5256	27.832	66.5043	27.832	66.5453	27.832	66.4792	27.832	66.6471	27.832	66.5075	27.832	66.8737	27.832	66.634	27.832	67.2551	27.832	66.9012	27.832	67.7957	27.832	67.3335	27.832	68.4701	27.832	67.9262	27.832	69.2305	27.832	68.644	27.832	70.0208	27.832	69.4325	27.832	70.7883	27.832	70.2336	27.832	71.4893	27.832	70.9954	27.832	72.0903	27.832	71.6769	27.832	72.5669	27.832	72.2472	27.832	72.9022	27.832	72.6848	27.832	73.0851	27.832	72.9753	27.832	73.1099
29.2969	68.0344	29.2969	68.0249	29.2969	68.0311	29.2969	68.0107	29.2969	68.0161	29.2969	68.0093	29.2969	67.9996	29.2969	68.0465	29.2969	68.0013	29.2969	68.1547	29.2969	68.0495	29.2969	68.3665	29.2969	68.1776	29.2969	68.7056	29.2969	68.418	29.2969	69.1775	29.2969	68.7913	29.2969	69.7652	29.2969	69.2977	29.2969	70.4327	29.2969	69.9142	29.2969	71.1342	29.2969	70.6007	29.2969	71.8235	29.2969	71.3092	29.2969	72.4596	29.2969	71.9934	29.2969	73.0096	29.2969	72.6137	29.2969	73.4481	29.2969	73.1387	29.2969	73.7572	29.2969	73.5454	29.2969	73.9252	29.2969	73.8176	29.2969	73.9456
30.0293	68.5286	30.0293	68.5259	30.0293	68.5218	30.0293	68.5211	30.0293	68.5065	30.0293	68.5301	30.0293	68.4922	30.0293	68.5766	30.0293	68.4971	30.0293	68.6896	30.0293	68.5471	30.0293	68.8985	30.0293	68.673	30.0293	69.2248	30.0293	68.9045	30.0293	69.6742	30.0293	69.261	30.0293	70.2321	30.0293	69.7435	30.0293	70.8665	30.0293	70.3318	30.0293	71.5355	30.0293	70.9892	30.0293	72.1954	30.0293	71.6707	30.0293	72.8067	30.0293	72.3319	30.0293	73.3366	30.0293	72.9338	30.0293	73.7599	30.0293	73.4452	30.0293	74.0582	30.0293	73.8427	30.0293	74.2194	30.0293	74.11	30.0293	74.237
31.4941	69.7692	31.4941	69.771	31.4941	69.7655	31.4941	69.7765	31.4941	69.7605	31.4941	69.7981	31.4941	69.7618	31.4941	69.854	31.4941	69.7837	31.4941	69.9663	31.4941	69.8458	31.4941	70.1577	31.4941	69.9715	31.4941	70.4453	31.4941	70.1834	31.4941	70.8353	31.4941	70.4969	31.4941	71.3185	31.4941	70.9148	31.4941	71.8716	31.4941	71.4236	31.4941	72.4608	31.4941	71.9959	31.4941	73.0489	31.4941	72.5955	31.4941	73.5997	31.4941	73.1838	31.4941	74.0819	31.4941	73.7251	31.4941	74.4702	31.4941	74.189	31.4941	74.7456	31.4941	74.5518	31.4941	74.8953	31.4941	74.7967	31.4941	74.9127
32.2266	70.2487	32.2266	70.2524	32.2266	70.2461	32.2266	70.2628	32.2266	70.2454	32.2266	70.2908	32.2266	70.2535	32.2266	70.3531	32.2266	70.2829	32.2266	70.4694	32.2266	70.3516	32.2266	70.6598	32.2266	70.4802	32.2266	70.9396	32.2266	70.689	32.2266	71.3143	32.2266	70.9918	32.2266	71.7759	32.2266	71.3913	32.2266	72.3033	32.2266	71.8758	32.2266	72.8658	32.2266	72.4209	32.2266	73.4286	32.2266	72.9931	32.2266	73.9572	32.2266	73.5563	32.2266	74.4212	32.2266	74.0762	32.2266	74.7957	32.2266	74.5232	32.2266	75.0617	32.2266	74.8737	32.2266	75.2065	32.2266	75.1106	32.2266	75.2231
33.6914	71.2713	33.6914	71.2815	33.6914	71.2679	33.6914	71.3027	33.6914	71.2719	33.6914	71.3437	33.6914	71.2889	33.6914	71.4174	33.6914	71.3292	33.6914	71.5394	33.6914	71.4068	33.6914	71.7251	33.6914	71.5381	33.6914	71.9865	33.6914	71.7387	33.6914	72.3282	33.6914	72.0195	33.6914	72.7443	33.6914	72.3827	33.6914	73.2183	33.6914	72.8196	33.6914	73.7249	33.6914	73.3105	33.6914	74.2342	33.6914	73.8277	33.6914	74.7155	33.6914	74.3398	33.6914	75.1402	33.6914	74.8155	33.6914	75.4846	33.6914	75.2271	33.6914	75.7298	33.6914	75.5516	33.6914	75.8631	33.6914	75.7721	33.6914	75.8775
34.4238	71.9108	34.4238	71.9231	34.4238	71.9078	34.4238	71.9482	34.4238	71.9146	34.4238	71.9938	34.4238	71.9362	34.4238	72.0709	34.4238	71.9813	34.4238	72.1927	34.4238	72.0621	34.4238	72.3726	34.4238	72.1926	34.4238	72.6208	34.4238	72.3861	34.4238	72.9414	34.4238	72.6522	34.4238	73.3295	34.4238	72.9929	34.4238	73.7711	34.4238	73.4008	34.4238	74.244	34.4238	73.8588	34.4238	74.7208	34.4238	74.3423	34.4238	75.1732	34.4238	74.8224	34.4238	75.5741	34.4238	75.2701	34.4238	75.9002	34.4238	75.6585	34.4238	76.1331	34.4238	75.9656	34.4238	76.2602	34.4238	76.1745	34.4238	76.2743
35.8887	72.9501	35.8887	72.9609	35.8887	72.9498	35.8887	72.9851	35.8887	72.9606	35.8887	73.0286	35.8887	72.9863	35.8887	73.1001	35.8887	73.0338	35.8887	73.21	35.8887	73.1124	35.8887	73.369	35.8887	73.2333	35.8887	73.5859	35.8887	73.4068	35.8887	73.8648	35.8887	73.6409	35.8887	74.203	35.8887	73.938	35.8887	74.5899	35.8887	74.2933	35.8887	75.0075	35.8887	74.6937	35.8887	75.4328	35.8887	75.1191	35.8887	75.84	35.8887	75.545	35.8887	76.2041	35.8887	75.9452	35.8887	76.5026	35.8887	76.2948	35.8887	76.7175	35.8887	76.5724	35.8887	76.836	35.8887	76.7615	35.8887	76.851
37.3535	73.7264	37.3535	73.7366	37.3535	73.7284	37.3535	73.7615	37.3535	73.7431	37.3535	73.8058	37.3535	73.7734	37.3535	73.8766	37.3535	73.8248	37.3535	73.9823	37.3535	73.9046	37.3535	74.1316	37.3535	74.0216	37.3535	74.3316	37.3535	74.1842	37.3535	74.586	37.3535	74.3988	37.3535	74.8927	37.3535	74.6678	37.3535	75.2431	37.3535	74.9877	37.3535	75.6223	37.3535	75.3481	37.3535	76.0098	37.3535	75.7321	37.3535	76.3828	37.3535	76.1185	37.3535	76.7178	37.3535	76.4836	37.3535	76.9937	37.3535	76.8042	37.3535	77.193	37.3535	77.0599	37.3535	77.3032	37.3535	77.2346	37.3535	77.3174
38.8184	74.4003	38.8184	74.4109	38.8184	74.4043	38.8184	74.438	38.8184	74.423	38.8184	74.4856	38.8184	74.4588	38.8184	74.5592	38.8184	74.5158	38.8184	74.6657	38.8184	74.5999	38.8184	74.812	38.8184	74.7178	38.8184	75.0037	38.8184	74.8761	38.8184	75.2434	38.8184	75.0799	38.8184	75.5294	38.8184	75.3311	38.8184	75.8541	38.8184	75.6266	38.8184	76.2045	38.8184	75.958	38.8184	76.5626	38.8184	76.3108	38.8184	76.9078	38.8184	76.6661	38.8184	77.2185	38.8184	77.0029	38.8184	77.475	38.8184	77.2996	38.8184	77.6607	38.8184	77.537	38.8184	77.7634	38.8184	77.6996	38.8184	77.7767
39.5508	74.8254	39.5508	74.838	39.5508	74.8286	39.5508	74.868	39.5508	74.8476	39.5508	74.9189	39.5508	74.8844	39.5508	74.9955	39.5508	74.9426	39.5508	75.1037	39.5508	75.0272	39.5508	75.2491	39.5508	75.1439	39.5508	75.4365	39.5508	75.2984	39.5508	75.668	39.5508	75.4952	39.5508	75.9418	39.5508	75.7357	39.5508	76.2508	39.5508	76.0175	39.5508	76.5832	39.5508	76.3325	39.5508	76.9225	39.5508	76.6679	39.5508	77.2493	39.5508	77.006	39.5508	77.5437	39.5508	77.3271	39.5508	77.7866	39.5508	77.6107	39.5508	77.9622	39.5508	77.8383	39.5508	78.0588	39.5508	77.9948	39.5508	78.0699
41.0156	75.598	41.0156	75.6135	41.0156	75.5984	41.0156	75.646	41.0156	75.6146	41.0156	75.6982	41.0156	75.6483	41.0156	75.7735	41.0156	75.7022	41.0156	75.8764	41.0156	75.78	41.0156	76.011	41.0156	75.8864	41.0156	76.1811	41.0156	76.0259	41.0156	76.3883	41.0156	76.202	41.0156	76.6312	41.0156	76.4162	41.0156	76.9045	41.0156	76.6667	41.0156	77.1984	41.0156	76.947	41.0156	77.4991	41.0156	77.2464	41.0156	77.7897	41.0156	77.5499	41.0156	78.0524	41.0156	77.8397	41.0156	78.2697	41.0156	78.0972	41.0156	78.4266	41.0156	78.3053	41.0156	78.5122	41.0156	78.4495	41.0156	78.5201
42.4805	76.1535	42.4805	76.1674	42.4805	76.1556	42.4805	76.1982	42.4805	76.1739	42.4805	76.2478	42.4805	76.2095	42.4805	76.319	42.4805	76.2646	42.4805	76.4153	42.4805	76.3424	42.4805	76.5402	42.4805	76.4462	42.4805	76.6966	42.4805	76.5797	42.4805	76.8861	42.4805	76.7455	42.4805	77.1079	42.4805	76.9449	42.4805	77.3575	42.4805	77.1759	42.4805	77.6267	42.4805	77.4331	42.4805	77.9034	42.4805	77.7071	42.4805	78.1725	42.4805	77.9844	42.4805	78.4173	42.4805	78.249	42.4805	78.6214	42.4805	78.484	42.4805	78.7705	42.4805	78.6733	42.4805	78.8538	42.4805	78.8035	42.4805	78.8651
43.9453	76.7966	43.9453	76.8135	43.9453	76.797	43.9453	76.8483	43.9453	76.8147	43.9453	76.9024	43.9453	76.8506	43.9453	76.9776	43.9453	76.9064	43.9453	77.0763	43.9453	76.9841	43.9453	77.2011	43.9453	77.0864	43.9453	77.3538	43.9453	77.2156	43.9453	77.5353	43.9453	77.3737	43.9453	77.7444	43.9453	77.5613	43.9453	77.9771	43.9453	77.7768	43.9453	78.2259	43.9453	78.0153	43.9453	78.4804	43.9453	78.2686	43.9453	78.7268	43.9453	78.5252	43.9453	78.9504	43.9453	78.7707	43.9453	79.1362	43.9453	78.9898	43.9453	79.2708	43.9453	79.1674	43.9453	79.3445	43.9453	79.2909	43.9453	79.3514
45.4102	77.4234	45.4102	77.4416	45.4102	77.4227	45.4102	77.4779	45.4102	77.4399	45.4102	77.5331	45.4102	77.4754	45.4102	77.6084	45.4102	77.5304	45.4102	77.7055	45.4102	77.6064	45.4102	77.8258	45.4102	77.7051	45.4102	77.9707	45.4102	77.8282	45.4102	78.1404	45.4102	77.977	45.4102	78.3338	45.4102	78.1517	45.4102	78.5472	45.4102	78.3507	45.4102	78.7744	45.4102	78.5699	45.4102	79.006	45.4102	78.8021	45.4102	79.2303	45.4102	79.0371	45.4102	79.4338	45.4102	79.2622	45.4102	79.603	45.4102	79.4634	45.4102	79.7255	45.4102	79.627	45.4102	79.7922	45.4102	79.7413	45.4102	79.7977
47.6074	78.3107	47.6074	78.3291	47.6074	78.3105	47.6074	78.3659	47.6074	78.3287	47.6074	78.4212	47.6074	78.3655	47.6074	78.4954	47.6074	78.4214	47.6074	78.5891	47.6074	78.497	47.6074	78.7028	47.6074	78.593	47.6074	78.8368	47.6074	78.71	47.6074	78.9909	47.6074	78.8483	47.6074	79.1639	47.6074	79.0076	47.6074	79.3527	47.6074	79.1861	47.6074	79.5524	47.6074	79.3805	47.6074	79.7554	47.6074	79.5848	47.6074	79.952	47.6074	79.7907	47.6074	80.1307	47.6074	79.9874	47.6074	80.2798	47.6074	80.1632	47.6074	80.3885	47.6074	80.306	47.6074	80.4482	47.6074	80.4054	47.6074	80.4541
49.0723	78.832	49.0723	78.8489	49.0723	78.8331	49.0723	78.8838	49.0723	78.8523	49.0723	78.9366	49.0723	78.8898	49.0723	79.0074	49.0723	78.9455	49.0723	79.0961	49.0723	79.0196	49.0723	79.2029	49.0723	79.1123	49.0723	79.3277	49.0723	79.2236	49.0723	79.4701	49.0723	79.3534	49.0723	79.6288	49.0723	79.5011	49.0723	79.8012	49.0723	79.665	49.0723	79.9831	49.0723	79.8421	49.0723	80.1679	49.0723	80.0273	49.0723	80.347	49.0723	80.2133	49.0723	80.5103	49.0723	80.3908	49.0723	80.647	49.0723	80.5493	49.0723	80.7472	49.0723	80.6778	49.0723	80.803	49.0723	80.767	49.0723	80.8099
50.5371	79.328	50.5371	79.3442	50.5371	79.3301	50.5371	79.3784	50.5371	79.3504	50.5371	79.4304	50.5371	79.3889	50.5371	79.4999	50.5371	79.4454	50.5371	79.5865	50.5371	79.5194	50.5371	79.6898	50.5371	79.6107	50.5371	79.8092	50.5371	79.7188	50.5371	79.9442	50.5371	79.8432	50.5371	80.0933	50.5371	79.9829	50.5371	80.2541	50.5371	80.1364	50.5371	80.4228	50.5371	80.3008	50.5371	80.5936	50.5371	80.4716	50.5371	80.759	50.5371	80.6425	50.5371	80.9097	50.5371	80.8052	50.5371	81.036	50.5371	80.9502	50.5371	81.1288	50.5371	81.0677	50.5371	81.1809	50.5371	81.1491	50.5371	81.1878
52.7344	80.0707	52.7344	80.0872	52.7344	80.0725	52.7344	80.1216	52.7344	80.0925	52.7344	80.1734	52.7344	80.1305	52.7344	80.2416	52.7344	80.1859	52.7344	80.3253	52.7344	80.2578	52.7344	80.4235	52.7344	80.3452	52.7344	80.5351	52.7344	80.4471	52.7344	80.6589	52.7344	80.5624	52.7344	80.7934	52.7344	80.6898	52.7344	80.9364	52.7344	80.8276	52.7344	81.0847	52.7344	80.9733	52.7344	81.2336	52.7344	81.1232	52.7344	81.3769	52.7344	81.2723	52.7344	81.5072	52.7344	81.4137	52.7344	81.6162	52.7344	81.5396	52.7344	81.6961	52.7344	81.6417	52.7344	81.7408	52.7344	81.7125	52.7344	81.7464
54.1992	80.558	54.1992	80.5752	54.1992	80.5588	54.1992	80.6099	54.1992	80.5776	54.1992	80.6614	54.1992	80.6141	54.1992	80.7284	54.1992	80.6673	54.1992	80.8097	54.1992	80.7364	54.1992	80.9039	54.1992	80.8199	54.1992	81.0096	54.1992	80.9166	54.1992	81.1254	54.1992	81.025	54.1992	81.2496	54.1992	81.1437	54.1992	81.3803	54.1992	81.2709	54.1992	81.5147	54.1992	81.4044	54.1992	81.6488	54.1992	81.541	54.1992	81.7774	54.1992	81.6763	54.1992	81.8939	54.1992	81.8043	54.1992	81.9912	54.1992	81.9182	54.1992	82.0625	54.1992	82.0107	54.1992	82.102	54.1992	82.0751	54.1992	82.1063
56.3965	81.2613	56.3965	81.2771	56.3965	81.2636	56.3965	81.3103	56.3965	81.2839	56.3965	81.36	56.3965	81.3217	56.3965	81.4246	56.3965	81.3759	56.3965	81.5024	56.3965	81.4449	56.3965	81.5916	56.3965	81.5271	56.3965	81.6902	56.3965	81.6204	56.3965	81.7967	56.3965	81.7231	56.3965	81.9092	56.3965	81.8333	56.3965	82.026	56.3965	81.949	56.3965	82.1447	56.3965	82.0682	56.3965	82.2623	56.3965	82.1881	56.3965	82.3745	56.3965	82.3052	56.3965	82.4763	56.3965	82.4148	56.3965	82.5616	56.3965	82.5115	56.3965	82.6248	56.3965	82.5891	56.3965	82.6609	56.3965	82.6423	56.3965	82.6669
58.5938	81.9781	58.5938	81.9934	58.5938	81.9804	58.5938	82.0256	58.5938	82.0002	58.5938	82.0736	58.5938	82.0369	58.5938	82.1355	58.5938	82.0891	58.5938	82.2093	58.5938	82.1551	58.5938	82.2929	58.5938	82.2328	58.5938	82.384	58.5938	82.3198	58.5938	82.4807	58.5938	82.414	58.5938	82.5812	58.5938	82.5133	58.5938	82.6836	58.5938	82.6157	58.5938	82.7861	58.5938	82.7194	58.5938	82.8863	58.5938	82.8223	58.5938	82.9811	58.5938	82.9215	58.5938	83.0664	58.5938	83.0137	58.5938	83.1376	58.5938	83.0946	58.5938	83.1901	58.5938	83.1595	58.5938	83.2199	58.5938	83.204	58.5938	83.2247
60.0586	82.3871	60.0586	82.4012	60.0586	82.3899	60.0586	82.4316	60.0586	82.4097	60.0586	82.4769	60.0586	82.4456	60.0586	82.5353	60.0586	82.4962	60.0586	82.6047	60.0586	82.5595	60.0586	82.6826	60.0586	82.6334	60.0586	82.7667	60.0586	82.7153	60.0586	82.855	60.0586	82.8028	60.0586	82.9457	60.0586	82.8939	60.0586	83.0371	60.0586	82.9864	60.0586	83.1276	60.0586	83.0787	60.0586	83.2154	60.0586	83.169	60.0586	83.298	60.0586	83.2551	60.0586	83.3722	60.0586	83.3344	60.0586	83.4343	60.0586	83.4034	60.0586	83.4804	60.0586	83.4584	60.0586	83.5071	60.0586	83.4956	60.0586	83.5123
62.2559	82.9629	62.2559	82.975	62.2559	82.9673	62.2559	83.0028	62.2559	82.9881	62.2559	83.045	62.2559	83.0242	62.2559	83.0996	62.2559	83.0741	62.2559	83.1643	62.2559	83.1357	62.2559	83.2363	62.2559	83.2062	62.2559	83.3134	62.2559	83.2831	62.2559	83.393	62.2559	83.3636	62.2559	83.4734	62.2559	83.4455	62.2559	83.5529	62.2559	83.5267	62.2559	83.6303	62.2559	83.6057	62.2559	83.7042	62.2559	83.6812	62.2559	83.7729	62.2559	83.7516	62.2559	83.8344	62.2559	83.8152	62.2559	83.8858	62.2559	83.8698	62.2559	83.9242	62.2559	83.9126	62.2559	83.9471	62.2559	83.941	62.2559	83.9529
64.4531	83.5627	64.4531	83.5743	64.4531	83.5672	64.4531	83.6013	64.4531	83.5877	64.4531	83.6422	64.4531	83.6231	64.4531	83.6949	64.4531	83.6718	64.4531	83.7567	64.4531	83.7314	64.4531	83.8249	64.4531	83.799	64.4531	83.8967	64.4531	83.8717	64.4531	83.9696	64.4531	83.9466	64.4531	84.0415	64.4531	84.0213	64.4531	84.1109	64.4531	84.0936	64.4531	84.1767	64.4531	84.1621	64.4531	84.2381	64.4531	84.2256	64.4531	84.2941	64.4531	84.2833	64.4531	84.3434	64.4531	84.3342	64.4531	84.3845	64.4531	84.3769	64.4531	84.4153	64.4531	84.4098	64.4531	84.434	64.4531	84.4311	64.4531	84.4394
66.6504	84.0497	66.6504	84.0588	66.6504	84.0556	66.6504	84.0821	66.6504	84.0763	66.6504	84.1183	66.6504	84.1107	66.6504	84.1649	66.6504	84.1569	66.6504	84.2195	66.6504	84.2125	66.6504	84.2791	66.6504	84.2746	66.6504	84.3408	66.6504	84.34	66.6504	84.402	66.6504	84.4057	66.6504	84.4607	66.6504	84.4691	66.6504	84.5156	66.6504	84.5282	66.6504	84.5659	66.6504	84.5817	66.6504	84.6114	66.6504	84.6288	66.6504	84.6519	66.6504	84.6693	66.6504	84.6874	66.6504	84.703	66.6504	84.7171	66.6504	84.7297	66.6504	84.7401	66.6504	84.7489	66.6504	84.7554	66.6504	84.7599	66.6504	84.7621
69.5801	84.7865	69.5801	84.7901	69.5801	84.7969	69.5801	84.8073	69.5801	84.8212	69.5801	84.8365	69.5801	84.8581	69.5801	84.8756	69.5801	84.9057	69.5801	84.9219	69.5801	84.9612	69.5801	84.9725	69.5801	85.0216	69.5801	85.0245	69.5801	85.0834	69.5801	85.0754	69.5801	85.1436	69.5801	85.1232	69.5801	85.1993	69.5801	85.1668	69.5801	85.2484	69.5801	85.2058	69.5801	85.2897	69.5801	85.2404	69.5801	85.3227	69.5801	85.2711	69.5801	85.3477	69.5801	85.2984	69.5801	85.3652	69.5801	85.3226	69.5801	85.376	69.5801	85.3433	69.5801	85.3805	69.5801	85.3601	69.5801	85.3792	69.5801	85.3723
71.7773	85.1823	71.7773	85.1861	71.7773	85.1926	71.7773	85.2033	71.7773	85.2169	71.7773	85.2324	71.7773	85.2539	71.7773	85.2711	71.7773	85.3016	71.7773	85.3166	71.7773	85.3572	71.7773	85.3657	71.7773	85.4176	71.7773	85.4155	71.7773	85.4791	71.7773	85.4632	71.7773	85.5384	71.7773	85.5068	71.7773	85.5923	71.7773	85.545	71.7773	85.6385	71.7773	85.5775	71.7773	85.6755	71.7773	85.6048	71.7773	85.7028	71.7773	85.6279	71.7773	85.7208	71.7773	85.6479	71.7773	85.7303	71.7773	85.666	71.7773	85.7328	71.7773	85.6826	71.7773	85.7297	71.7773	85.6979	71.7773	85.7222	71.7773	85.7112
73.9746	85.6906	73.9746	85.6926	73.9746	85.702	73.9746	85.7072	73.9746	85.7264	73.9746	85.7327	73.9746	85.7626	73.9746	85.7668	73.9746	85.8087	73.9746	85.8066	73.9746	85.8617	73.9746	85.8489	73.9746	85.9182	73.9746	85.8906	73.9746	85.9745	73.9746	85.929	73.9746	86.027	73.9746	85.9619	73.9746	86.0725	73.9746	85.9884	73.9746	86.1085	73.9746	86.0083	73.9746	86.1335	73.9746	86.0226	73.9746	86.1474	73.9746	86.033	73.9746	86.1509	73.9746	86.0415	73.9746	86.1458	73.9746	86.05	73.9746	86.1346	73.9746	86.0601	73.9746	86.1195	73.9746	86.0723	73.9746	86.103	73.9746	86.0869
76.9043	86.1151	76.9043	86.1195	76.9043	86.1238	76.9043	86.1363	76.9043	86.1454	76.9043	86.1638	76.9043	86.1788	76.9043	86.1994	76.9043	86.2219	76.9043	86.2402	76.9043	86.2718	76.9043	86.2827	76.9043	86.3249	76.9043	86.3238	76.9043	86.3775	76.9043	86.3605	76.9043	86.4259	76.9043	86.3904	76.9043	86.4668	76.9043	86.4124	76.9043	86.4976	76.9043	86.4264	76.9043	86.517	76.9043	86.4333	76.9043	86.525	76.9043	86.4351	76.9043	86.5227	76.9043	86.4344	76.9043	86.5124	76.9043	86.4336	76.9043	86.4971	76.9043	86.4351	76.9043	86.4798	76.9043	86.4402	76.9043	86.4633	76.9043	86.4497
79.834	86.5349	79.834	86.5458	79.834	86.5366	79.834	86.5685	79.834	86.5508	79.834	86.601	79.834	86.5767	79.834	86.641	79.834	86.6123	79.834	86.6854	79.834	86.655	79.834	86.7307	79.834	86.7015	79.834	86.7734	79.834	86.7482	79.834	86.8104	79.834	86.7914	79.834	86.8393	79.834	86.8279	79.834	86.8583	79.834	86.855	79.834	86.8673	79.834	86.8716	79.834	86.867	79.834	86.8774	79.834	86.8596	79.834	86.8738	79.834	86.8479	79.834	86.8633	79.834	86.8351	79.834	86.8493	79.834	86.8244	79.834	86.8351	79.834	86.8182	79.834	86.824	79.834	86.8179
82.7637	87.0715	82.7637	87.0862	82.7637	87.0655	82.7637	87.1086	82.7637	87.0686	82.7637	87.137	82.7637	87.0798	82.7637	87.1688	82.7637	87.0977	82.7637	87.2009	82.7637	87.12	82.7637	87.2301	82.7637	87.1438	82.7637	87.2529	82.7637	87.1658	82.7637	87.2664	82.7637	87.1827	82.7637	87.2683	82.7637	87.1919	82.7637	87.2576	82.7637	87.191	82.7637	87.2345	82.7637	87.1795	82.7637	87.2009	82.7637	87.1578	82.7637	87.1601	82.7637	87.1282	82.7637	87.1166	82.7637	87.0945	82.7637	87.0755	82.7637	87.0612	82.7637	87.0415	82.7637	87.0332	82.7637	87.0188	82.7637	87.015	82.7637	87.0097
85.6934	87.4265	85.6934	87.4454	85.6934	87.4153	85.6934	87.4707	85.6934	87.4119	85.6934	87.5006	85.6934	87.4155	85.6934	87.5321	85.6934	87.4246	85.6934	87.5619	85.6934	87.4366	85.6934	87.5863	85.6934	87.4486	85.6934	87.6018	85.6934	87.4574	85.6934	87.6049	85.6934	87.4598	85.6934	87.5936	85.6934	87.453	85.6934	87.5666	85.6934	87.4354	85.6934	87.5247	85.6934	87.4066	85.6934	87.4704	85.6934	87.368	85.6934	87.4078	85.6934	87.3227	85.6934	87.3427	85.6934	87.2753	85.6934	87.2813	85.6934	87.2314	85.6934	87.2298	85.6934	87.197	85.6934	87.1935	85.6934	87.1772	85.6934	87.1756
88.623	87.4012	88.623	87.4107	88.623	87.4046	88.623	87.4323	88.623	87.4209	88.623	87.4639	88.623	87.4488	88.623	87.5025	88.623	87.4862	88.623	87.5447	88.623	87.5299	88.623	87.5864	88.623	87.5761	88.623	87.6235	88.623	87.6207	88.623	87.6525	88.623	87.6593	88.623	87.6705	88.623	87.6884	88.623	87.6759	88.623	87.7051	88.623	87.6686	88.623	87.7079	88.623	87.6504	88.623	87.6971	88.623	87.6245	88.623	87.6747	88.623	87.5953	88.623	87.6443	88.623	87.568	88.623	87.6105	88.623	87.5472	88.623	87.5786	88.623	87.5368	88.623	87.5535	88.623	87.5389
91.5527	87.4354	91.5527	87.4316	91.5527	87.4542	91.5527	87.4425	91.5527	87.4873	91.5527	87.4669	91.5527	87.5332	91.5527	87.5027	91.5527	87.5896	91.5527	87.5469	91.5527	87.6531	91.5527	87.5961	91.5527	87.72	91.5527	87.6462	91.5527	87.7861	91.5527	87.6935	91.5527	87.8468	91.5527	87.7346	91.5527	87.898	91.5527	87.7669	91.5527	87.9366	91.5527	87.7893	91.5527	87.9601	91.5527	87.8022	91.5527	87.9681	91.5527	87.8075	91.5527	87.9615	91.5527	87.8082	91.5527	87.9432	91.5527	87.8082	91.5527	87.917	91.5527	87.8111	91.5527	87.8875	91.5527	87.8199	91.5527	87.8593	91.5527	87.8361
94.4824	87.8677	94.4824	87.8724	94.4824	87.8688	94.4824	87.882	94.4824	87.876	94.4824	87.8952	94.4824	87.8889	94.4824	87.9101	94.4824	87.9064	94.4824	87.9244	94.4824	87.9268	94.4824	87.9355	94.4824	87.9477	94.4824	87.941	94.4824	87.9663	94.4824	87.9383	94.4824	87.9795	94.4824	87.9257	94.4824	87.9842	94.4824	87.9026	94.4824	87.9779	94.4824	87.8696	94.4824	87.9592	94.4824	87.8287	94.4824	87.928	94.4824	87.7839	94.4824	87.886	94.4824	87.74	94.4824	87.8367	94.4824	87.7024	94.4824	87.7851	94.4824	87.6766	94.4824	87.737	94.4824	87.6664	94.4824	87.6983	94.4824	87.6738
98.1445	88.0552	98.1445	88.0624	98.1445	88.0529	98.1445	88.0738	98.1445	88.0554	98.1445	88.0882	98.1445	88.0617	98.1445	88.1036	98.1445	88.0705	98.1445	88.1175	98.1445	88.0796	98.1445	88.1267	98.1445	88.0863	98.1445	88.128	98.1445	88.0876	98.1445	88.1182	98.1445	88.0805	98.1445	88.0951	98.1445	88.0623	98.1445	88.0571	98.1445	88.0313	98.1445	88.0047	98.1445	87.9868	98.1445	87.9403	98.1445	87.9304	98.1445	87.8682	98.1445	87.8652	98.1445	87.7946	98.1445	87.7968	98.1445	87.7269	98.1445	87.7318	98.1445	87.6726	98.1445	87.6777	98.1445	87.638	98.1445	87.6411	98.1445	87.6271
101.807	88.0534	101.807	88.0603	101.807	88.0509	101.807	88.0709	101.807	88.0529	101.807	88.084	101.807	88.0589	101.807	88.0978	101.807	88.0678	101.807	88.11	101.807	88.0779	101.807	88.1177	101.807	88.0868	101.807	88.1181	101.807	88.0918	101.807	88.1084	101.807	88.09	101.807	88.0864	101.807	88.0785	101.807	88.051	101.807	88.0551	101.807	88.0028	101.807	88.0189	101.807	87.944	101.807	87.9706	101.807	87.8789	101.807	87.9128	101.807	87.8134	101.807	87.85	101.807	87.7545	101.807	87.7884	101.807	87.7089	101.807	87.735	101.807	87.6823	101.807	87.6965	101.807	87.678
105.469	88.0745	105.469	88.0781	105.469	88.0734	105.469	88.0838	105.469	88.075	105.469	88.0904	105.469	88.0789	105.469	88.0965	105.469	88.084	105.469	88.0999	105.469	88.089	105.469	88.0985	105.469	88.0917	105.469	88.0897	105.469	88.0898	105.469	88.0712	105.469	88.0806	105.469	88.0412	105.469	88.0617	105.469	87.9991	105.469	88.0313	105.469	87.9455	105.469	87.9886	105.469	87.8831	105.469	87.9346	105.469	87.816	105.469	87.872	105.469	87.75	105.469	87.8051	105.469	87.6917	105.469	87.7401	105.469	87.6477	105.469	87.6838	105.469	87.6233	105.469	87.6425	105.469	87.6215
109.131	88.1821	109.131	88.1923	109.131	88.1736	109.131	88.2038	109.131	88.1671	109.131	88.2153	109.131	88.1622	109.131	88.2255	109.131	88.1582	109.131	88.2324	109.131	88.154	109.131	88.2336	109.131	88.1478	109.131	88.2264	109.131	88.1376	109.131	88.2085	109.131	88.121	109.131	88.1779	109.131	88.096	109.131	88.1338	109.131	88.061	109.131	88.0766	109.131	88.0155	109.131	88.0087	109.131	87.9607	109.131	87.9345	109.131	87.8994	109.131	87.8597	109.131	87.8361	109.131	87.7912	109.131	87.7769	109.131	87.736	109.131	87.7284	109.131	87.6999	109.131	87.6967	109.131	87.6865
112.793	88.2007	112.793	88.2101	112.793	88.192	112.793	88.2199	112.793	88.1838	112.793	88.2293	112.793	88.1759	112.793	88.2373	112.793	88.1678	112.793	88.2423	112.793	88.1583	112.793	88.2421	112.793	88.1463	112.793	88.2342	112.793	88.13	112.793	88.2162	112.793	88.1077	112.793	88.186	112.793	88.0778	112.793	88.1426	112.793	88.039	112.793	88.0861	112.793	87.9911	112.793	88.0187	112.793	87.9354	112.793	87.9443	112.793	87.8748	112.793	87.8685	112.793	87.8137	112.793	87.798	112.793	87.7579	112.793	87.7398	112.793	87.7138	112.793	87.6997	112.793	87.6869	112.793	87.6817
116.455	88.1401	116.455	88.1319	116.455	88.1479	116.455	88.1236	116.455	88.1549	116.455	88.1153	116.455	88.1606	116.455	88.1068	116.455	88.1643	116.455	88.0975	116.455	88.1651	116.455	88.0862	116.455	88.1619	116.455	88.0714	116.455	88.1532	116.455	88.0511	116.455	88.1372	116.455	88.0238	116.455	88.1123	116.455	87.9883	116.455	88.0776	116.455	87.9447	116.455	88.0326	116.455	87.8942	116.455	87.9785	116.455	87.84	116.455	87.9178	116.455	87.7865	116.455	87.8546	116.455	87.7391	116.455	87.7941	116.455	87.7034	116.455	87.7421	116.455	87.6841	116.455	87.7041	116.455	87.6841
120.85	88.0654	120.85	88.0499	120.85	88.0765	120.85	88.0299	120.85	88.0835	120.85	88.0056	120.85	88.0865	120.85	87.9772	120.85	88.0859	120.85	87.9449	120.85	88.0817	120.85	87.9086	120.85	88.0737	120.85	87.8682	120.85	88.061	120.85	87.8237	120.85	88.0424	120.85	87.7752	120.85	88.0163	120.85	87.7234	120.85	87.9813	120.85	87.6695	120.85	87.9364	120.85	87.6162	120.85	87.8815	120.85	87.5668	120.85	87.8182	120.85	87.5253	120.85	87.7492	120.85	87.4961	120.85	87.6789	120.85	87.483	120.85	87.6126	120.85	87.4885	120.85	87.5557	120.85	87.5132
125.244	88.0676	125.244	88.0541	125.244	88.0748	125.244	88.0339	125.244	88.0762	125.244	88.0066	125.244	88.0721	125.244	87.9716	125.244	88.0628	125.244	87.9286	125.244	88.0482	125.244	87.8771	125.244	88.0279	125.244	87.8167	125.244	88.0009	125.244	87.7475	125.244	87.9659	125.244	87.6705	125.244	87.9216	125.244	87.5873	125.244	87.8664	125.244	87.5011	125.244	87.7999	125.244	87.4162	125.244	87.7223	125.244	87.3382	125.244	87.6357	125.244	87.2732	125.244	87.5436	125.244	87.227	125.244	87.4513	125.244	87.2044	125.244	87.3652	125.244	87.208	125.244	87.2921	125.244	87.2381
129.639	87.775	129.639	87.7845	129.639	87.7603	129.639	87.7884	129.639	87.7408	129.639	87.786	129.639	87.7164	129.639	87.7763	129.639	87.6873	129.639	87.7579	129.639	87.6531	129.639	87.7288	129.639	87.6135	129.639	87.6871	129.639	87.5675	129.639	87.6309	129.639	87.5143	129.639	87.5592	129.639	87.4528	129.639	87.4723	129.639	87.3824	129.639	87.372	129.639	87.3033	129.639	87.2626	129.639	87.2171	129.639	87.1503	129.639	87.1268	129.639	87.043	129.639	87.0373	129.639	86.9496	129.639	86.955	129.639	86.8779	129.639	86.8871	129.639	86.8343	129.639	86.8408	129.639	86.822
134.033	87.3975	134.033	87.4147	134.033	87.3764	134.033	87.428	134.033	87.3516	134.033	87.4374	134.033	87.3239	134.033	87.443	134.033	87.2941	134.033	87.4442	134.033	87.2631	134.033	87.4402	134.033	87.2315	134.033	87.4296	134.033	87.1993	134.033	87.4104	134.033	87.1662	134.033	87.3809	134.033	87.1314	134.033	87.3397	134.033	87.0941	134.033	87.2869	134.033	87.0538	134.033	87.2236	134.033	87.0111	134.033	87.1529	134.033	86.9678	134.033	87.0795	134.033	86.9267	134.033	87.0091	134.033	86.8922	134.033	86.9476	134.033	86.8687	134.033	86.9003	134.033	86.8606	134.033	86.8708
138.428	87.3624	138.428	87.3589	138.428	87.3571	138.428	87.3478	138.428	87.3429	138.428	87.3304	138.428	87.3201	138.428	87.3085	138.428	87.2899	138.428	87.2834	138.428	87.2539	138.428	87.2562	138.428	87.2137	138.428	87.2272	138.428	87.1711	138.428	87.1963	138.428	87.1275	138.428	87.1627	138.428	87.084	138.428	87.126	138.428	87.0411	138.428	87.0857	138.428	86.9995	138.428	87.0424	138.428	86.9597	138.428	86.9975	138.428	86.9228	138.428	86.9532	138.428	86.8901	138.428	86.9125	138.428	86.8634	138.428	86.8782	138.428	86.8448	138.428	86.8531	138.428	86.8362	138.428	86.8389
143.555	87.2931	143.555	87.2751	143.555	87.298	143.555	87.2451	143.555	87.2894	143.555	87.2049	143.555	87.2675	143.555	87.1565	143.555	87.2334	143.555	87.1021	143.555	87.1884	143.555	87.0435	143.555	87.1341	143.555	86.9823	143.555	87.0724	143.555	86.9194	143.555	87.0048	143.555	86.8558	143.555	86.933	143.555	86.7918	143.555	86.8586	143.555	86.7284	143.555	86.7835	143.555	86.6667	143.555	86.71	143.555	86.6085	143.555	86.6407	143.555	86.5559	143.555	86.5783	143.555	86.5114	143.555	86.5259	143.555	86.4777	143.555	86.4861	143.555	86.457	143.555	86.4608	143.555	86.4511
148.682	87.1034	148.682	87.0781	148.682	87.1136	148.682	87.0388	148.682	87.1084	148.682	86.9876	148.682	87.0886	148.682	86.927	148.682	87.0555	148.682	86.8598	148.682	87.0112	148.682	86.7887	148.682	86.9579	148.682	86.7159	148.682	86.8976	148.682	86.6432	148.682	86.832	148.682	86.5719	148.682	86.7627	148.682	86.5032	148.682	86.6908	148.682	86.4383	148.682	86.6175	148.682	86.3786	148.682	86.5445	148.682	86.326	148.682	86.4735	148.682	86.2825	148.682	86.407	148.682	86.2502	148.682	86.3476	148.682	86.2309	148.682	86.2977	148.682	86.2258	148.682	86.2598	148.682	86.2355
153.809	87.0654	153.809	87.0366	153.809	87.0732	153.809	86.9875	153.809	87.0605	153.809	86.9199	153.809	87.0285	153.809	86.8364	153.809	86.9796	153.809	86.7404	153.809	86.9164	153.809	86.6355	153.809	86.842	153.809	86.5258	153.809	86.7592	153.809	86.4151	153.809	86.6706	153.809	86.3073	153.809	86.5785	153.809	86.2058	153.809	86.4847	153.809	86.1137	153.809	86.3907	153.809	86.0338	153.809	86.2984	153.809	85.9685	153.809	86.2097	153.809	85.9194	153.809	86.1268	153.809	85.8878	153.809	86.052	153.809	85.8741	153.809	85.9877	153.809	85.8781	153.809	85.9362	153.809	85.8992
159.668	86.974	159.668	86.9741	159.668	86.9534	159.668	86.9536	159.668	86.9129	159.668	86.9136	159.668	86.8542	159.668	86.8555	159.668	86.7797	159.668	86.781	159.668	86.6926	159.668	86.6924	159.668	86.5965	159.668	86.5918	159.668	86.4949	159.668	86.4819	159.668	86.3912	159.668	86.3657	159.668	86.2881	159.668	86.2467	159.668	86.188	159.668	86.1291	159.668	86.0925	159.668	86.0175	159.668	86.0031	159.668	85.9167	159.668	85.9213	159.668	85.8309	159.668	85.8486	159.668	85.7638	159.668	85.7869	159.668	85.7174	159.668	85.7382	159.668	85.6926	159.668	85.7047	159.668	85.6889
164.795	86.7633	164.795	86.7584	164.795	86.7479	164.795	86.7347	164.795	86.7118	164.795	86.6945	164.795	86.6559	164.795	86.641	164.795	86.5824	164.795	86.5772	164.795	86.4946	164.795	86.5062	164.795	86.3967	164.795	86.4306	164.795	86.2933	164.795	86.3525	164.795	86.1894	164.795	86.2735	164.795	86.0895	164.795	86.1949	164.795	85.9976	164.795	86.1181	164.795	85.9168	164.795	86.0443	164.795	85.8495	164.795	85.9751	164.795	85.7967	164.795	85.912	164.795	85.7588	164.795	85.8564	164.795	85.7356	164.795	85.8095	164.795	85.7263	164.795	85.7723	164.795	85.7299	164.795	85.7455
170.654	86.4917	170.654	86.4593	170.654	86.5017	170.654	86.4065	170.654	86.4886	170.654	86.3363	170.654	86.4532	170.654	86.253	170.654	86.3973	170.654	86.1614	170.654	86.3238	170.654	86.0667	170.654	86.2367	170.654	85.9736	170.654	86.1404	170.654	85.8866	170.654	86.0398	170.654	85.809	170.654	85.94	170.654	85.7429	170.654	85.8459	170.654	85.6893	170.654	85.7618	170.654	85.6479	170.654	85.6912	170.654	85.6176	170.654	85.6359	170.654	85.5961	170.654	85.5965	170.654	85.5811	170.654	85.5717	170.654	85.5704	170.654	85.5589	170.654	85.5625	170.654	85.5551	170.654	85.557
176.514	86.3575	176.514	86.3296	176.514	86.3565	176.514	86.2735	176.514	86.3276	176.514	86.1915	176.514	86.2731	176.514	86.0872	176.514	86.1969	176.514	85.966	176.514	86.1039	176.514	85.8341	176.514	85.9997	176.514	85.6986	176.514	85.8903	176.514	85.5672	176.514	85.7816	176.514	85.4474	176.514	85.679	176.514	85.3458	176.514	85.5868	176.514	85.2675	176.514	85.5082	176.514	85.2149	176.514	85.4446	176.514	85.1877	176.514	85.3957	176.514	85.1824	176.514	85.3593	176.514	85.1936	176.514	85.332	176.514	85.2149	176.514	85.3097	176.514	85.2403	176.514	85.2884	176.514	85.2655
183.105	86.1661	183.105	86.1553	183.105	86.1441	183.105	86.1125	183.105	86.0904	183.105	86.0398	183.105	86.0072	183.105	85.9406	183.105	85.8986	183.105	85.8195	183.105	85.7701	183.105	85.6823	183.105	85.6282	183.105	85.536	183.105	85.4807	183.105	85.3884	183.105	85.3356	183.105	85.2474	183.105	85.2007	183.105	85.1211	183.105	85.0831	183.105	85.0159	183.105	84.9879	183.105	84.9361	183.105	84.9177	183.105	84.8826	183.105	84.872	183.105	84.8527	183.105	84.8476	183.105	84.8407	183.105	84.839	183.105	84.8395	183.105	84.8394	183.105	84.8423	183.105	84.8425	183.105	84.8439
189.697	86.0139	189.697	86.0058	189.697	85.9878	189.697	85.965	189.697	85.9273	189.697	85.8943	189.697	85.8334	189.697	85.7973	189.697	85.7087	189.697	85.6783	189.697	85.5577	189.697	85.5427	189.697	85.3866	189.697	85.3967	189.697	85.2034	189.697	85.247	189.697	85.0178	189.697	85.101	189.697	84.8408	189.697	84.9662	189.697	84.6834	189.697	84.849	189.697	84.5554	189.697	84.7537	189.697	84.4638	189.697	84.6816	189.697	84.4106	189.697	84.6303	189.697	84.3932	189.697	84.594	189.697	84.4039	189.697	84.5653	189.697	84.4327	189.697	84.5373	189.697	84.4693	189.697	84.5055
196.289	85.9529	196.289	85.9138	196.289	85.9535	196.289	85.8389	196.289	85.9151	196.289	85.7326	196.289	85.8389	196.289	85.6008	196.289	85.7278	196.289	85.4508	196.289	85.5869	196.289	85.2909	196.289	85.4226	196.289	85.13	196.289	85.243	196.289	84.9769	196.289	85.0575	196.289	84.8399	196.289	84.8768	196.289	84.7256	196.289	84.7119	196.289	84.6384	196.289	84.5732	196.289	84.5789	196.289	84.4691	196.289	84.544	196.289	84.4038	196.289	84.5272	196.289	84.3763	196.289	84.5195	196.289	84.3804	196.289	84.512	196.289	84.4055	196.289	84.4974	196.289	84.4398	196.289	84.4728
202.881	85.889	202.881	85.8334	202.881	85.9002	202.881	85.7356	202.881	85.8671	202.881	85.5994	202.881	85.7912	202.881	85.4307	202.881	85.6761	202.881	85.2372	202.881	85.5276	202.881	85.0289	202.881	85.3531	202.881	84.8173	202.881	85.162	202.881	84.6156	202.881	84.9653	202.881	84.4372	202.881	84.7748	202.881	84.294	202.881	84.6022	202.881	84.194	202.881	84.458	202.881	84.1397	202.881	84.3494	202.881	84.1266	202.881	84.279	202.881	84.1441	202.881	84.2437	202.881	84.1781	202.881	84.2354	202.881	84.2144	202.881	84.2425	202.881	84.2417	202.881	84.2524	202.881	84.2542
210.205	85.6289	210.205	85.572	210.205	85.6408	210.205	85.4704	210.205	85.6084	210.205	85.3262	210.205	85.5339	210.205	85.143	210.205	85.4206	210.205	84.9266	210.205	85.2732	210.205	84.6852	210.205	85.0978	210.205	84.43	210.205	84.9022	210.205	84.1756	210.205	84.6957	210.205	83.9388	210.205	84.4892	210.205	83.7376	210.205	84.2947	210.205	83.5872	210.205	84.1236	210.205	83.4965	210.205	83.985	210.205	83.4653	210.205	83.8836	210.205	83.4832	210.205	83.8175	210.205	83.5333	210.205	83.779	210.205	83.5963	210.205	83.7557	210.205	83.6561	210.205	83.7339	210.205	83.7026
217.529	85.5288	217.529	85.4885	217.529	85.5214	217.529	85.401	217.529	85.468	217.529	85.268	217.529	85.3717	217.529	85.0931	217.529	85.2378	217.529	84.882	217.529	85.0734	217.529	84.6422	217.529	84.8874	217.529	84.3844	217.529	84.6903	217.529	84.1224	217.529	84.4933	217.529	83.8728	217.529	84.3081	217.529	83.6545	217.529	84.1446	217.529	83.4849	217.529	84.0105	217.529	83.3766	217.529	83.909	217.529	83.3333	217.529	83.8387	217.529	83.348	217.529	83.7928	217.529	83.405	217.529	83.761	217.529	83.4841	217.529	83.7313	217.529	83.5664	217.529	83.6927	217.529	83.6381
225.586	85.4541	225.586	85.4387	225.586	85.4156	225.586	85.3701	225.586	85.3245	225.586	85.2505	225.586	85.184	225.586	85.0841	225.586	84.9998	225.586	84.8771	225.586	84.7799	225.586	84.6382	225.586	84.5358	225.586	84.3791	225.586	84.2819	225.586	84.115	225.586	84.0357	225.586	83.864	225.586	83.8159	225.586	83.6458	225.586	83.6402	225.586	83.4788	225.586	83.5211	225.586	83.3753	225.586	83.4625	225.586	83.3379	225.586	83.4576	225.586	83.3576	225.586	83.4908	225.586	83.4159	225.586	83.5406	225.586	83.4895	225.586	83.5854	225.586	83.5561	225.586	83.608	225.586	83.5985
232.91	85.506	232.91	85.4946	232.91	85.4579	232.91	85.4255	232.91	85.3499	232.91	85.3019	232.91	85.1835	232.91	85.1283	232.91	84.962	232.91	84.9113	232.91	84.692	232.91	84.6599	232.91	84.3837	232.91	84.3861	232.91	84.0529	232.91	84.1055	232.91	83.721	232.91	83.8371	232.91	83.4148	232.91	83.6019	232.91	83.1635	232.91	83.4195	232.91	82.9922	232.91	83.3028	232.91	82.9142	232.91	83.2537	232.91	82.9251	232.91	83.261	232.91	83.0037	232.91	83.3029	232.91	83.118	232.91	83.3522	232.91	83.2348	232.91	83.3833	232.91	83.3268	232.91	83.3776
241.699	85.2267	241.699	85.1845	241.699	85.2132	241.699	85.0877	241.699	85.1432	241.699	84.9387	241.699	85.017	241.699	84.7411	241.699	84.8363	241.699	84.4999	241.699	84.604	241.699	84.2232	241.699	84.3258	241.699	83.9222	241.699	84.0106	241.699	83.6132	241.699	83.6726	241.699	83.3169	241.699	83.332	241.699	83.0571	241.699	83.0152	241.699	82.856	241.699	82.752	241.699	82.7285	241.699	82.5687	241.699	82.6757	241.699	82.479	241.699	82.6835	241.699	82.4778	241.699	82.7257	241.699	82.541	241.699	82.772	241.699	82.634	241.699	82.7958	241.699	82.7223	241.699	82.7802
249.756	85.3632	249.756	85.3299	249.756	85.3356	249.756	85.2381	249.756	85.2458	249.756	85.091	249.756	85.0932	249.756	84.892	249.756	84.879	249.756	84.6459	249.756	84.6062	249.756	84.3589	249.756	84.2807	249.756	84.0397	249.756	83.9122	249.756	83.7016	249.756	83.516	249.756	83.3626	249.756	83.114	249.756	83.0457	249.756	82.7353	249.756	82.7758	249.756	82.4129	249.756	82.5736	249.756	82.1774	249.756	82.4479	249.756	82.0469	249.756	82.3912	249.756	82.0187	249.756	82.3805	249.756	82.0693	249.756	82.3853	249.756	82.1624	249.756	82.377	249.756	82.2608	249.756	82.3367
258.545	85.2767	258.545	85.2177	258.545	85.2761	258.545	85.1023	258.545	85.2143	258.545	84.935	258.545	85.0913	258.545	84.7214	258.545	84.9088	258.545	84.4688	258.545	84.6704	258.545	84.1864	258.545	84.3824	258.545	83.8856	258.545	84.0539	258.545	83.5817	258.545	83.6979	258.545	83.2929	258.545	83.3328	258.545	83.0394	258.545	82.9827	258.545	82.8394	258.545	82.6755	258.545	82.7039	258.545	82.4393	258.545	82.6321	258.545	82.2938	258.545	82.6095	258.545	82.2431	258.545	82.6122	258.545	82.2726	258.545	82.6135	258.545	82.3533	258.545	82.5919	258.545	82.4511	258.545	82.5366
268.066	84.8864	268.066	84.8097	268.066	84.9007	268.066	84.6733	268.066	84.8506	268.066	84.4806	268.066	84.7345	268.066	84.236	268.066	84.5517	268.066	83.9452	268.066	84.3025	268.066	83.6161	268.066	83.9893	268.066	83.2602	268.066	83.618	268.066	82.8943	268.066	83.2	268.066	82.5414	268.066	82.7554	268.066	82.2293	268.066	82.3145	268.066	81.9858	268.066	81.9175	268.066	81.8299	268.066	81.6077	268.066	81.7628	268.066	81.419	268.066	81.7646	268.066	81.3607	268.066	81.8003	268.066	81.4115	268.066	81.8309	268.066	81.5279	268.066	81.8252	268.066	81.6601	268.066	81.7671
277.588	84.6969	277.588	84.6571	277.588	84.6704	277.588	84.5488	277.588	84.5826	277.588	84.3732	277.588	84.4414	277.588	84.1344	277.588	84.2568	277.588	83.8394	277.588	84.0403	277.588	83.4987	277.588	83.8032	277.588	83.1266	277.588	83.5562	277.588	82.7429	277.588	83.3084	277.588	82.3728	277.588	83.0682	277.588	82.0469	277.588	82.8438	277.588	81.7968	277.588	82.6441	277.588	81.6467	277.588	82.4787	277.588	81.6045	277.588	82.355	277.588	81.6561	277.588	82.2747	277.588	81.7692	277.588	82.2301	277.588	81.9045	277.588	82.2041	277.588	82.0279	277.588	82.174	277.588	82.119
287.109	84.7796	287.109	84.7346	287.109	84.7529	287.109	84.6199	287.109	84.6527	287.109	84.4368	287.109	84.4787	287.109	84.1866	287.109	84.2336	287.109	83.8716	287.109	83.925	287.109	83.4969	287.109	83.567	287.109	83.0745	287.109	83.1814	287.109	82.6265	287.109	82.7972	287.109	82.1878	287.109	82.4478	287.109	81.8051	287.109	82.1649	287.109	81.5272	287.109	81.9707	287.109	81.3878	287.109	81.8719	287.109	81.3893	287.109	81.8571	287.109	81.4997	287.109	81.9013	287.109	81.6669	287.109	81.9727	287.109	81.8385	287.109	82.0392	287.109	81.975	287.109	82.0731	287.109	82.0548
297.363	84.7622	297.363	84.7295	297.363	84.7391	297.363	84.645	297.363	84.6544	297.363	84.5108	297.363	84.5011	297.363	84.327	297.363	84.2709	297.363	84.0917	297.363	83.9559	297.363	83.8023	297.363	83.5507	297.363	83.4572	297.363	83.0558	297.363	83.0594	297.363	82.4833	297.363	82.6206	297.363	81.8637	297.363	82.1658	297.363	81.252	297.363	81.7346	297.363	80.7272	297.363	81.376	297.363	80.372	297.363	81.1317	297.363	80.2346	297.363	81.0154	297.363	80.298	297.363	81.0022	297.363	80.489	297.363	81.038	297.363	80.7171	297.363	81.0622	297.363	80.9099	297.363	81.0272
307.617	84.3501	307.617	84.2463	307.617	84.3914	307.617	84.0858	307.617	84.3681	307.617	83.8784	307.617	84.2814	307.617	83.6352	307.617	84.1342	307.617	83.3672	307.617	83.9288	307.617	83.0823	307.617	83.6666	307.617	82.7851	307.617	83.3473	307.617	82.4782	307.617	82.9714	307.617	82.1656	307.617	82.5448	307.617	81.8573	307.617	82.0836	307.617	81.5717	307.617	81.6206	307.617	81.3337	307.617	81.2054	307.617	81.1663	307.617	80.8949	307.617	81.078	307.617	80.7295	307.617	81.0541	307.617	80.709	307.617	81.0593	307.617	80.7895	307.617	81.0522	307.617	80.9059	307.617	81.0026
318.604	83.9312	318.604	83.8544	318.604	83.9327	318.604	83.7051	318.604	83.8619	318.604	83.4908	318.604	83.7268	318.604	83.2229	318.604	83.5394	318.604	82.9147	318.604	83.313	318.604	82.5795	318.604	83.0593	318.604	82.228	318.604	82.7849	318.604	81.8685	318.604	82.49	318.604	81.5064	318.604	82.17	318.604	81.1478	318.604	81.8193	318.604	80.8018	318.604	81.4376	318.604	80.4829	318.604	81.0361	318.604	80.209	318.604	80.6408	318.604	79.9957	318.604	80.2881	318.604	79.8484	318.604	80.0127	318.604	79.7596	318.604	79.8315	318.604	79.7148	318.604	79.7368	318.604	79.7051
329.59	84.0176	329.59	83.8864	329.59	84.0287	329.59	83.6429	329.59	83.9213	329.59	83.305	329.59	83.7062	329.59	82.902	329.59	83.4039	329.59	82.4738	329.59	83.0448	329.59	82.067	329.59	82.6677	329.59	81.7259	329.59	82.3141	329.59	81.4788	329.59	82.0184	329.59	81.3284	329.59	81.7974	329.59	81.2532	329.59	81.6458	329.59	81.2188	329.59	81.5404	329.59	81.1924	329.59	81.4525	329.59	81.1528	329.59	81.3599	329.59	81.0938	329.59	81.2535	329.59	81.0229	329.59	81.1385	329.59	80.9563	329.59	81.0308	329.59	80.9129	329.59	80.9492	329.59	80.9084
341.309	85.2215	341.309	85.1288	341.309	85.168	341.309	84.8928	341.309	84.9667	341.309	84.5186	341.309	84.6171	341.309	84.0171	341.309	84.1228	341.309	83.4106	341.309	83.496	341.309	82.7412	341.309	82.767	341.309	82.0787	341.309	81.9977	341.309	81.5206	341.309	81.2938	341.309	81.168	341.309	80.7954	341.309	81.0791	341.309	80.6197	341.309	81.2333	341.309	80.7812	341.309	81.5478	341.309	81.1803	341.309	81.9261	341.309	81.6754	341.309	82.2939	341.309	82.1524	341.309	82.6066	341.309	82.5451	341.309	82.8417	341.309	82.8257	341.309	82.9887	341.309	82.9889	341.309	83.0403
353.76	85.9104	353.76	85.8334	353.76	85.8787	353.76	85.6485	353.76	85.7344	353.76	85.3535	353.76	85.4708	353.76	84.9443	353.76	85.0801	353.76	84.4174	353.76	84.5545	353.76	83.7749	353.76	83.8901	353.76	83.0338	353.76	83.093	353.76	82.2405	353.76	82.1923	353.76	81.4885	353.76	81.2613	353.76	80.9207	353.76	80.44	353.76	80.6789	353.76	79.922	353.76	80.8066	353.76	79.8531	353.76	81.2064	353.76	80.2065	353.76	81.7123	353.76	80.8039	353.76	82.1802	353.76	81.4507	353.76	82.5196	353.76	82.0153	353.76	82.6839	353.76	82.4272	353.76	82.6539
366.211	85.4779	366.211	85.3144	366.211	85.5483	366.211	85.0559	366.211	85.5246	366.211	84.6979	366.211	85.4023	366.211	84.2354	366.211	85.1742	366.211	83.6658	366.211	84.8309	366.211	82.9946	366.211	84.3624	366.211	82.244	366.211	83.761	366.211	81.4663	366.211	83.0257	366.211	80.756	366.211	82.1732	366.211	80.2416	366.211	81.254	366.211	80.0344	366.211	80.3759	366.211	80.1501	366.211	79.7096	366.211	80.4904	366.211	79.4261	366.211	80.9068	366.211	79.5702	366.211	81.271	366.211	80.0136	366.211	81.4986	366.211	80.5592	366.211	81.5442	366.211	81.0491	366.211	81.3914
378.662	85.447	378.662	85.3557	378.662	85.4548	378.662	85.1785	378.662	85.3781	378.662	84.9098	378.662	85.2138	378.662	84.5402	378.662	84.9576	378.662	84.0578	378.662	84.6058	378.662	83.4512	378.662	84.1574	378.662	82.7148	378.662	83.6178	378.662	81.8614	378.662	83.0041	378.662	80.9445	378.662	82.3518	378.662	80.0899	378.662	81.7218	378.662	79.5026	378.662	81.1999	378.662	79.3736	378.662	80.876	378.662	79.7092	378.662	80.8018	378.662	80.3126	378.662	80.9546	378.662	80.9494	378.662	81.245	378.662	81.4631	378.662	81.5595	378.662	81.7813	378.662	81.7979	378.662	81.8869
392.578	84.5403	392.578	84.4772	392.578	84.5181	392.578	84.3274	392.578	84.4117	392.578	84.0894	392.578	84.2209	392.578	83.7628	392.578	83.9433	392.578	83.3475	392.578	83.5747	392.578	82.8443	392.578	83.1111	392.578	82.2561	392.578	82.5514	392.578	81.5925	392.578	81.9048	392.578	80.8779	392.578	81.1992	392.578	80.165	392.578	80.495	392.578	79.5444	392.578	79.891	392.578	79.1322	392.578	79.5042	392.578	79.0155	392.578	79.4078	392.578	79.1855	392.578	79.5707	392.578	79.5344	392.578	79.871	392.578	79.9199	392.578	80.1681	392.578	80.2253	392.578	80.3567	392.578	80.3801
405.762	84.1618	405.762	84.0789	405.762	84.1387	405.762	83.8918	405.762	84.0092	405.762	83.6025	405.762	83.774	405.762	83.2128	405.762	83.4348	405.762	82.7248	405.762	82.9936	405.762	82.143	405.762	82.4534	405.762	81.4795	405.762	81.8205	405.762	80.7642	405.762	81.1127	405.762	80.0565	405.762	80.3726	405.762	79.4545	405.762	79.6848	405.762	79.0797	405.762	79.1795	405.762	79.0204	405.762	78.9887	405.762	79.2665	405.762	79.1542	405.762	79.7091	405.762	79.5814	405.762	80.2046	405.762	80.103	405.762	80.633	405.762	80.5693	405.762	80.9142	405.762	80.8851	405.762	81.0037
420.41	84.8217	420.41	84.702	420.41	84.8559	420.41	84.5014	420.41	84.7962	420.41	84.22	420.41	84.6325	420.41	83.8525	420.41	84.3533	420.41	83.3889	420.41	83.9469	420.41	82.8166	420.41	83.4027	420.41	82.1261	420.41	82.7135	420.41	81.3208	420.41	81.8806	420.41	80.4367	420.41	80.9252	420.41	79.5703	420.41	79.9101	420.41	78.8943	420.41	78.9695	420.41	78.5999	420.41	78.3114	420.41	78.7469	420.41	78.1212	420.41	79.192	420.41	78.3993	420.41	79.7086	420.41	78.9513	420.41	80.1197	420.41	79.546	420.41	80.3281	420.41	80.0228	420.41	80.2955
435.059	85.392	435.059	85.3142	435.059	85.382	435.059	85.1406	435.059	85.2896	435.059	84.8613	435.059	85.1157	435.059	84.4664	435.059	84.8559	435.059	83.9483	435.059	84.5	435.059	83.305	435.059	84.033	435.059	82.5466	435.059	83.4377	435.059	81.7062	435.059	82.7003	435.059	80.8568	435.059	81.823	435.059	80.1234	435.059	80.8482	435.059	79.6639	435.059	79.8979	435.059	79.5868	435.059	79.1982	435.059	79.8618	435.059	78.9884	435.059	80.3365	435.059	79.3045	435.059	80.8349	435.059	79.9269	435.059	81.2237	435.059	80.5834	435.059	81.4206	435.059	81.0958	435.059	81.3824
450.439	86.1131	450.439	86.0263	450.439	86.1121	450.439	85.8538	450.439	86.0193	450.439	85.5945	450.439	85.8305	450.439	85.2428	450.439	85.5403	450.439	84.7862	450.439	85.1425	450.439	84.2061	450.439	84.6301	450.439	83.4804	450.439	83.9971	450.439	82.5916	450.439	83.2418	450.439	81.5468	450.439	82.3752	450.439	80.4232	450.439	81.4384	450.439	79.4411	450.439	80.5285	450.439	78.965	450.439	79.8207	450.439	79.2166	450.439	79.5233	450.439	79.9762	450.439	79.7249	450.439	80.8281	450.439	80.2893	450.439	81.4882	450.439	80.9617	450.439	81.8343	450.439	81.5233	450.439	81.838
466.553	86.005	466.553	85.9044	466.553	86.0176	466.553	85.7151	466.553	85.9411	466.553	85.4347	466.553	85.7718	466.553	85.0582	466.553	85.5029	466.553	84.578	466.553	85.1235	466.553	83.9843	466.553	84.6193	466.553	83.2692	466.553	83.9746	466.553	82.4349	466.553	83.1776	466.553	81.5121	466.553	82.2318	466.553	80.5891	466.553	81.1815	466.553	79.8381	466.553	80.1557	466.553	79.4732	466.553	79.3989	466.553	79.5929	466.553	79.1731	466.553	80.0698	466.553	79.5078	466.553	80.6611	466.553	80.15	466.553	81.166	466.553	80.8038	466.553	81.4685	466.553	81.2851	466.553	81.5135
482.666	85.6434	482.666	85.5819	482.666	85.6327	482.666	85.4419	482.666	85.5535	482.666	85.2151	482.666	85.4048	482.666	84.8897	482.666	85.1781	482.666	84.4496	482.666	84.8559	482.666	83.8719	482.666	84.4116	482.666	83.1289	482.666	83.8128	482.666	82.1923	482.666	83.0259	482.666	81.0496	482.666	82.0262	482.666	79.7466	482.666	80.8221	482.666	78.4805	482.666	79.5142	482.666	77.6803	482.666	78.3985	482.666	77.7491	482.666	77.9449	482.666	78.5375	482.666	78.3487	482.666	79.5317	482.666	79.2349	482.666	80.362	482.666	80.1208	482.666	80.8692	482.666	80.7417	482.666	80.9993
500.244	85.2287	500.244	85.1566	500.244	85.2233	500.244	85.01	500.244	85.1374	500.244	84.7865	500.244	84.9709	500.244	84.4743	500.244	84.7258	500.244	84.0516	500.244	84.4019	500.244	83.489	500.244	83.99	500.244	82.7561	500.244	83.4677	500.244	81.8321	500.244	82.7999	500.244	80.7284	500.244	81.9453	500.244	79.5378	500.244	80.8753	500.244	78.5064	500.244	79.6185	500.244	78.0142	500.244	78.3563	500.244	78.2602	500.244	77.5222	500.244	78.9982	500.244	77.5611	500.244	79.8165	500.244	78.3487	500.244	80.4375	500.244	79.3477	500.244	80.7302	500.244	80.1665	500.244	80.6424
517.822	85.0727	517.822	84.9804	517.822	85.0541	517.822	84.7781	517.822	84.9303	517.822	84.4735	517.822	84.7125	517.822	84.0768	517.822	84.4131	517.822	83.5938	517.822	84.0416	517.822	83.0169	517.822	83.598	517.822	82.3196	517.822	83.069	517.822	81.4578	517.822	82.4262	517.822	80.3856	517.822	81.6307	517.822	79.0997	517.822	80.6478	517.822	77.7534	517.822	79.4839	517.822	76.8349	517.822	78.2711	517.822	76.9545	517.822	77.3878	517.822	77.9787	517.822	77.3281	517.822	79.1914	517.822	78.0982	517.822	80.1154	517.822	79.1628	517.822	80.5814	517.822	80.0545	517.822	80.5542
536.133	85.2402	536.133	85.1146	536.133	85.2448	536.133	84.8843	536.133	85.1162	536.133	84.5663	536.133	84.8471	536.133	84.1711	536.133	84.4342	536.133	83.6942	536.133	83.8771	536.133	83.1097	536.133	83.1759	536.133	82.3691	536.133	82.3285	536.133	81.4053	536.133	81.3254	536.133	80.1433	536.133	80.1478	536.133	78.5304	536.133	78.7792	536.133	76.6583	536.133	77.2659	536.133	75.1218	536.133	75.8897	536.133	75.0732	536.133	75.3364	536.133	76.4785	536.133	76.0668	536.133	78.1334	536.133	77.5011	536.133	79.3915	536.133	78.8692	536.133	80.0984	536.133	79.8173	536.133	80.237
554.443	85.1583	554.443	85.0647	554.443	85.1624	554.443	84.8779	554.443	85.0872	554.443	84.5981	554.443	84.9482	554.443	84.2246	554.443	84.7593	554.443	83.7511	554.443	84.5205	554.443	83.1601	554.443	84.2069	554.443	82.4186	554.443	83.7654	554.443	81.4764	554.443	83.119	554.443	80.2715	554.443	82.1732	554.443	78.7545	554.443	80.8174	554.443	76.9791	554.443	78.9275	554.443	75.3561	554.443	76.4224	554.443	74.8119	554.443	73.6906	554.443	75.6606	554.443	72.7149	554.443	76.9851	554.443	74.3926	554.443	78.0414	554.443	76.4312	554.443	78.579	554.443	77.8311	554.443	78.5261
574.219	84.9814	574.219	84.8704	574.219	84.9786	574.219	84.6658	574.219	84.8564	574.219	84.3981	574.219	84.6231	574.219	84.0987	574.219	84.2994	574.219	83.7826	574.219	83.9135	574.219	83.4305	574.219	83.4904	574.219	82.9817	574.219	83.0352	574.219	82.3382	574.219	82.5178	574.219	81.3739	574.219	81.8695	574.219	79.9394	574.219	80.9942	574.219	77.8791	574.219	79.7927	574.219	75.1956	574.219	78.2178	574.219	72.9824	574.219	76.4429	574.219	73.6279	574.219	75.2077	574.219	75.7924	574.219	75.4264	574.219	77.4654	574.219	76.6302	574.219	78.31	574.219	77.7746	574.219	78.3843
594.727	84.7266	594.727	84.5926	594.727	84.7079	594.727	84.3135	594.727	84.5414	594.727	83.9099	594.727	84.2455	594.727	83.4147	594.727	83.8549	594.727	82.8666	594.727	83.4188	594.727	82.2956	594.727	82.9848	594.727	81.7013	594.727	82.5661	594.727	81.0385	594.727	82.111	594.727	80.2238	594.727	81.5034	594.727	79.1718	594.727	80.5925	594.727	77.8748	594.727	79.2323	594.727	76.5809	594.727	77.3634	594.727	75.9635	594.727	75.3419	594.727	76.5196	594.727	74.5477	594.727	77.7194	594.727	75.7644	594.727	78.805	594.727	77.5193	594.727	79.4181	594.727	78.8085	594.727	79.4369
615.234	84.6169	615.234	84.4913	615.234	84.6248	615.234	84.2632	615.234	84.5184	615.234	83.9639	615.234	84.3175	615.234	83.6291	615.234	84.0503	615.234	83.2771	615.234	83.7379	615.234	82.8835	615.234	83.3751	615.234	82.3737	615.234	82.9214	615.234	81.636	615.234	82.3057	615.234	80.5403	615.234	81.44	615.234	78.9481	615.234	80.2277	615.234	76.7334	615.234	78.5716	615.234	73.9852	615.234	76.4313	615.234	71.9858	615.234	74.1392	615.234	72.8479	615.234	73.1003	615.234	74.9805	615.234	74.2276	615.234	76.6419	615.234	75.9566	615.234	77.5497	615.234	77.1945	615.234	77.7286
637.207	84.874	637.207	84.6826	637.207	84.867	637.207	84.3096	637.207	84.6679	637.207	83.7973	637.207	84.3071	637.207	83.2182	637.207	83.8428	637.207	82.6668	637.207	83.3599	637.207	82.2199	637.207	82.9452	637.207	81.8724	637.207	82.6327	637.207	81.5072	637.207	82.3558	637.207	80.9321	637.207	81.9592	637.207	79.9384	637.207	81.2522	637.207	78.3437	637.207	80.0481	637.207	76.1273	637.207	78.1981	637.207	74.1168	637.207	75.7921	637.207	74.4118	637.207	74.046	637.207	76.4241	637.207	74.9043	637.207	78.1675	637.207	76.9484	637.207	79.1091	637.207	78.4952	637.207	79.2174
659.912	84.827	659.912	84.6297	659.912	84.8426	659.912	84.2787	659.912	84.6668	659.912	83.8188	659.912	84.3155	659.912	83.3095	659.912	83.839	659.912	82.8096	659.912	83.3221	659.912	82.3431	659.912	82.8561	659.912	81.8658	659.912	82.4789	659.912	81.2649	659.912	82.126	659.912	80.3899	659.912	81.6456	659.912	79.0853	659.912	80.8504	659.912	77.2295	659.912	79.5533	659.912	74.9147	659.912	77.5904	659.912	73.1517	659.912	74.9894	659.912	73.6732	659.912	72.8814	659.912	75.5319	659.912	73.5407	659.912	77.0954	659.912	75.6264	659.912	77.9288	659.912	77.2208	659.912	77.9803
683.35	85.0285	683.35	84.8795	683.35	84.9756	683.35	84.544	683.35	84.7175	683.35	84.056	683.35	84.2673	683.35	83.4773	683.35	83.6691	683.35	82.891	683.35	83.0106	683.35	82.3592	683.35	82.4067	683.35	81.862	683.35	81.9324	683.35	81.2813	683.35	81.5465	683.35	80.4453	683.35	81.0958	683.35	79.1816	683.35	80.385	683.35	77.3699	683.35	79.2265	683.35	75.15	683.35	77.4678	683.35	73.6322	683.35	75.1708	683.35	74.3611	683.35	73.4685	683.35	76.2222	683.35	74.3173	683.35	77.7569	683.35	76.3911	683.35	78.5951	683.35	77.9549	683.35	78.678
706.787	85.4192	706.787	85.1274	706.787	85.4492	706.787	84.6091	706.787	85.2085	706.787	83.9245	706.787	84.7187	706.787	83.1647	706.787	84.0402	706.787	82.4613	706.787	83.2833	706.787	81.9579	706.787	82.6021	706.787	81.6982	706.787	82.1235	706.787	81.5227	706.787	81.822	706.787	81.1274	706.787	81.4849	706.787	80.1874	706.787	80.8169	706.787	78.3893	706.787	79.534	706.787	75.4594	706.787	77.3905	706.787	72.1641	706.787	74.3973	706.787	72.9526	706.787	72.3837	706.787	76.1211	706.787	74.1285	706.787	78.3004	706.787	76.7442	706.787	79.3283	706.787	78.524	706.787	79.3775
731.689	85.5058	731.689	85.2951	731.689	85.502	731.689	84.8944	731.689	85.2635	731.689	84.3401	731.689	84.7779	731.689	83.6911	731.689	84.0585	731.689	83.0258	731.689	83.1759	731.689	82.4121	731.689	82.2883	731.689	81.8636	731.689	81.6053	731.689	81.3065	731.689	81.2265	731.689	80.5711	731.689	81.0015	731.689	79.4075	731.689	80.6122	731.689	77.509	731.689	79.7133	731.689	74.6154	731.689	77.9504	731.689	71.6725	731.689	74.9849	731.689	72.778	731.689	71.7295	731.689	75.87	731.689	73.0035	731.689	78.0155	731.689	76.2012	731.689	79.062	731.689	78.2414	731.689	79.1379
758.057	85.8919	758.057	85.6251	758.057	85.8963	758.057	85.1025	758.057	85.6258	758.057	84.3395	758.057	85.0625	758.057	83.3821	758.057	84.2116	758.057	82.3493	758.057	83.1574	758.057	81.4894	758.057	82.1271	758.057	81.0918	758.057	81.4493	758.057	81.1252	758.057	81.2604	758.057	81.1319	758.057	81.2685	758.057	80.5802	758.057	80.9778	758.057	79.0126	758.057	79.939	758.057	75.8585	758.057	77.728	758.057	70.5514	758.057	73.8656	758.057	70.6431	758.057	69.84	758.057	75.6072	758.057	72.7	758.057	78.3863	758.057	76.3724	758.057	79.5592	758.057	78.5427	758.057	79.5647
784.424	85.8418	784.424	85.5959	784.424	85.8001	784.424	85.0736	784.424	85.464	784.424	84.2936	784.424	84.8361	784.424	83.3081	784.424	83.9352	784.424	82.2635	784.424	82.8216	784.424	81.4386	784.424	81.6678	784.424	81.0802	784.424	80.823	784.424	81.0854	784.424	80.5966	784.424	81.0308	784.424	80.8098	784.424	80.4618	784.424	80.9112	784.424	78.9645	784.424	80.3851	784.424	76.0284	784.424	78.7707	784.424	71.0034	784.424	75.3994	784.424	68.9044	784.424	69.182	784.424	73.761	784.424	69.3083	784.424	76.8951	784.424	74.7988	784.424	78.376	784.424	77.5447	784.424	78.5935
812.256	86.0164	812.256	85.771	812.256	86.0394	812.256	85.2874	812.256	85.8249	812.256	84.5261	812.256	85.3319	812.256	83.4508	812.256	84.5119	812.256	82.0962	812.256	83.3498	812.256	80.697	812.256	81.9451	812.256	79.7667	812.256	80.6398	812.256	79.6585	812.256	79.9543	812.256	79.9553	812.256	79.968	812.256	79.8999	812.256	80.0797	812.256	78.8879	812.256	79.6359	812.256	76.3413	812.256	78.1555	812.256	71.5161	812.256	75.0504	812.256	69.0933	812.256	69.251	812.256	74.2014	812.256	68.1529	812.256	77.4248	812.256	74.1765	812.256	78.828	812.256	77.4276	812.256	78.8296
840.82	86.1616	840.82	85.9593	840.82	86.1723	840.82	85.5508	840.82	85.9774	840.82	84.8953	840.82	85.5358	840.82	83.9387	840.82	84.7871	840.82	82.6556	840.82	83.678	840.82	81.1611	840.82	82.2297	840.82	79.8983	840.82	80.6715	840.82	79.4847	840.82	79.5575	840.82	79.7706	840.82	79.3525	840.82	79.8474	840.82	79.6813	840.82	78.9373	840.82	79.7221	840.82	76.3785	840.82	78.7961	840.82	71.08	840.82	76.1977	840.82	67.0165	840.82	70.4808	840.82	73.0659	840.82	66.3263	840.82	76.4809	840.82	73.534	840.82	77.9743	840.82	76.9185	840.82	78.1471
870.85	86.3724	870.85	86.2102	870.85	86.342	870.85	85.822	870.85	86.1321	870.85	85.1464	870.85	85.7297	870.85	84.0896	870.85	85.082	870.85	82.559	870.85	84.0954	870.85	80.6201	870.85	82.6751	870.85	78.9092	870.85	80.8781	870.85	78.4989	870.85	79.2906	870.85	79.0188	870.85	78.9193	870.85	79.2142	870.85	79.4559	870.85	78.4433	870.85	79.6393	870.85	76.3011	870.85	78.7173	870.85	71.9992	870.85	76.1665	870.85	66.9262	870.85	71.1988	870.85	72.4551	870.85	67.9629	870.85	76.6448	870.85	73.4581	870.85	78.4454	870.85	76.9704	870.85	78.5117
901.611	86.157	901.611	85.9641	901.611	86.1595	901.611	85.5964	901.611	85.971	901.611	85.0724	901.611	85.5926	901.611	84.373	901.611	85.0034	901.611	83.3983	901.611	84.1457	901.611	81.9866	901.611	82.9368	901.611	80.1075	901.611	81.3353	901.611	78.4176	901.611	79.5582	901.611	78.162	901.611	78.4268	901.611	78.7071	901.611	78.5614	901.611	78.4377	901.611	78.9579	901.611	76.3845	901.611	78.3352	901.611	70.9536	901.611	75.7683	901.611	57.797	901.611	69.4407	901.611	71.9035	901.611	63.3787	901.611	76.4177	901.611	72.7611	901.611	78.1094	901.611	76.5622	901.611	78.115
933.105	86.1956	933.105	86.0059	933.105	86.1818	933.105	85.6223	933.105	85.9718	933.105	85.0407	933.105	85.576	933.105	84.2116	933.105	84.969	933.105	83.0512	933.105	84.0731	933.105	81.5118	933.105	82.8006	933.105	79.7868	933.105	81.1733	933.105	78.6732	933.105	79.5803	933.105	78.9273	933.105	78.8984	933.105	79.7096	933.105	79.3547	933.105	79.7963	933.105	79.9001	933.105	78.4808	933.105	79.5355	933.105	74.9083	933.105	77.5436	933.105	65.3935	933.105	72.6784	933.105	66.5459	933.105	60.5398	933.105	74.3617	933.105	70.4626	933.105	76.9222	933.105	75.3906	933.105	77.1554
966.064	86.8578	966.064	86.6879	966.064	86.7909	966.064	86.2556	966.064	86.5048	966.064	85.5713	966.064	85.995	966.064	84.6941	966.064	85.2571	966.064	83.6412	966.064	84.2993	966.064	82.2633	966.064	83.0964	966.064	80.3437	966.064	81.5246	966.064	78.2209	966.064	79.498	966.064	77.647	966.064	77.7465	966.064	78.7071	966.064	77.9763	966.064	79.1304	966.064	79.2078	966.064	77.8453	966.064	79.4078	966.064	74.1769	966.064	77.6705	966.064	66.5571	966.064	72.845	966.064	68.0381	966.064	57.1906	966.064	73.6812	966.064	68.995	966.064	75.9174	966.064	74.2715	966.064	76.0751
999.756	86.4559	999.756	86.2547	999.756	86.391	999.756	85.8008	999.756	86.1179	999.756	85.15	999.756	85.7101	999.756	84.3332	999.756	85.166	999.756	83.305	999.756	84.3905	999.756	81.9098	999.756	83.2585	999.756	79.9256	999.756	81.6665	999.756	77.5257	999.756	79.5829	999.756	76.5099	999.756	77.4215	999.756	77.7392	999.756	76.7188	999.756	78.7325	999.756	77.7278	999.756	78.187	999.756	78.3906	999.756	75.4761	999.756	77.5188	999.756	68.8568	999.756	74.2354	999.756	64.9054	999.756	66.1856	999.756	73.352	999.756	69.3891	999.756	76.6157	999.756	75.2634	999.756	77.192
1,034.91	86.4737	1,034.91	86.364	1,034.91	86.3428	1,034.91	85.9943	1,034.91	86.0147	1,034.91	85.3716	1,034.91	85.5327	1,034.91	84.5106	1,034.91	84.8945	1,034.91	83.4115	1,034.91	84.0145	1,034.91	82.0538	1,034.91	82.7394	1,034.91	80.3661	1,034.91	80.9291	1,034.91	78.2491	1,034.91	78.6318	1,034.91	76.2806	1,034.91	76.5233	1,034.91	76.3877	1,034.91	76.0252	1,034.91	77.5947	1,034.91	76.9529	1,034.91	77.5178	1,034.91	77.5848	1,034.91	75.2012	1,034.91	76.7657	1,034.91	69.8543	1,034.91	73.2818	1,034.91	69.5941	1,034.91	64.0091	1,034.91	74.7162	1,034.91	70.0027	1,034.91	77.0285	1,034.91	75.3949	1,034.91	77.2524
1,071.53	85.8563	1,071.53	85.623	1,071.53	85.763	1,071.53	85.1014	1,071.53	85.3917	1,071.53	84.4209	1,071.53	84.8256	1,071.53	83.6813	1,071.53	84.1397	1,071.53	82.7829	1,071.53	83.3475	1,071.53	81.423	1,071.53	82.3503	1,071.53	79.2733	1,071.53	80.9482	1,071.53	76.3916	1,071.53	78.8983	1,071.53	74.3998	1,071.53	76.1621	1,071.53	74.9615	1,071.53	74.281	1,071.53	75.9328	1,071.53	75.4478	1,071.53	75.6687	1,071.53	76.7489	1,071.53	73.1284	1,071.53	75.9821	1,071.53	65.7709	1,071.53	71.8756	1,071.53	68.3622	1,071.53	57.7863	1,071.53	74.7993	1,071.53	69.0516	1,071.53	77.0453	1,071.53	74.6926	1,071.53	76.9105
1,109.62	85.7123	1,109.62	85.2939	1,109.62	85.6982	1,109.62	84.6125	1,109.62	85.2506	1,109.62	83.8689	1,109.62	84.5223	1,109.62	83.1127	1,109.62	83.7084	1,109.62	82.2431	1,109.62	82.9207	1,109.62	81.1183	1,109.62	82.0879	1,109.62	79.5064	1,109.62	80.939	1,109.62	77.0305	1,109.62	79.1161	1,109.62	73.917	1,109.62	76.3746	1,109.62	73.6804	1,109.62	73.6468	1,109.62	76.0234	1,109.62	74.1821	1,109.62	76.733	1,109.62	76.0079	1,109.62	74.6645	1,109.62	76.2131	1,109.62	67.627	1,109.62	73.9263	1,109.62	62.9746	1,109.62	67.1972	1,109.62	72.9278	1,109.62	64.5106	1,109.62	75.8156	1,109.62	72.8446	1,109.62	75.7498
1,148.44	85.9648	1,148.44	85.5241	1,148.44	85.8874	1,148.44	84.649	1,148.44	85.3689	1,148.44	83.5605	1,148.44	84.618	1,148.44	82.555	1,148.44	83.8268	1,148.44	81.7947	1,148.44	83.0315	1,148.44	81.0991	1,148.44	82.1495	1,148.44	80.0512	1,148.44	81.0582	1,148.44	78.2557	1,148.44	79.5806	1,148.44	75.7538	1,148.44	77.4893	1,148.44	74.5113	1,148.44	74.8651	1,148.44	75.7303	1,148.44	73.5478	1,148.44	76.0681	1,148.44	74.8615	1,148.44	73.5877	1,148.44	75.9425	1,148.44	65.4792	1,148.44	75.02	1,148.44	61.3821	1,148.44	70.4901	1,148.44	71.0863	1,148.44	57.5534	1,148.44	73.8985	1,148.44	70.1037	1,148.44	73.8007
1,189.45	86.3821	1,189.45	85.8495	1,189.45	86.501	1,189.45	84.9976	1,189.45	86.1638	1,189.45	83.9083	1,189.45	85.4542	1,189.45	82.7223	1,189.45	84.5215	1,189.45	81.6736	1,189.45	83.4737	1,189.45	80.8923	1,189.45	82.3678	1,189.45	80.098	1,189.45	81.1917	1,189.45	78.564	1,189.45	79.7891	1,189.45	75.4811	1,189.45	77.9474	1,189.45	72.1368	1,189.45	75.75	1,189.45	73.6321	1,189.45	74.574	1,189.45	75.1099	1,189.45	75.766	1,189.45	74.1183	1,189.45	77.0393	1,189.45	69.7728	1,189.45	76.5946	1,189.45	57.5365	1,189.45	73.2756	1,189.45	69.692	1,189.45	62.4536	1,189.45	73.9653	1,189.45	68.829	1,189.45	73.9006
1,231.2	86.5571	1,231.2	86.0523	1,231.2	86.624	1,231.2	85.1192	1,231.2	86.2451	1,231.2	83.879	1,231.2	85.438	1,231.2	82.656	1,231.2	84.2749	1,231.2	81.6754	1,231.2	82.8934	1,231.2	80.6962	1,231.2	81.5181	1,231.2	79.2839	1,231.2	80.2987	1,231.2	77.2379	1,231.2	78.9652	1,231.2	74.6493	1,231.2	76.9286	1,231.2	72.7086	1,231.2	74.2752	1,231.2	73.5292	1,231.2	73.3161	1,231.2	74.5545	1,231.2	74.5552	1,231.2	73.4897	1,231.2	75.4684	1,231.2	68.6516	1,231.2	74.718	1,231.2	58.4457	1,231.2	70.9618	1,231.2	70.7589	1,231.2	64.2995	1,231.2	74.371	1,231.2	70.8912	1,231.2	74.3571
1,274.41	86.5626	1,274.41	86.1961	1,274.41	86.5806	1,274.41	85.4228	1,274.41	86.2201	1,274.41	84.2317	1,274.41	85.3833	1,274.41	82.697	1,274.41	84.0707	1,274.41	80.9811	1,274.41	82.4532	1,274.41	79.4348	1,274.41	80.8249	1,274.41	78.3405	1,274.41	79.4968	1,274.41	77.3142	1,274.41	78.3687	1,274.41	75.3913	1,274.41	76.6504	1,274.41	72.1766	1,274.41	73.6478	1,274.41	70.9068	1,274.41	71.2355	1,274.41	72.0445	1,274.41	72.8031	1,274.41	71.5701	1,274.41	74.23	1,274.41	67.8489	1,274.41	73.4956	1,274.41	58.9881	1,274.41	70.0188	1,274.41	69.4853	1,274.41	68.0858	1,274.41	74.4568	1,274.41	73.2239	1,274.41	75.5101
1,319.82	86.1474	1,319.82	86.0173	1,319.82	85.9995	1,319.82	85.3944	1,319.82	85.5666	1,319.82	84.1635	1,319.82	84.6746	1,319.82	82.5551	1,319.82	83.2848	1,319.82	80.9334	1,319.82	81.6423	1,319.82	79.3746	1,319.82	80.1798	1,319.82	77.912	1,319.82	79.144	1,319.82	76.6743	1,319.82	78.1392	1,319.82	75.0987	1,319.82	76.3732	1,319.82	72.6154	1,319.82	73.2967	1,319.82	71.7796	1,319.82	69.6691	1,319.82	72.9753	1,319.82	70.2753	1,319.82	71.9153	1,319.82	72.529	1,319.82	65.4784	1,319.82	71.9635	1,319.82	58.8457	1,319.82	65.6737	1,319.82	69.5651	1,319.82	61.0921	1,319.82	73.0217	1,319.82	71.5011	1,319.82	73.8117
1,365.97	85.6	1,365.97	85.3169	1,365.97	85.6474	1,365.97	84.7903	1,365.97	85.3135	1,365.97	83.8949	1,365.97	84.4776	1,365.97	82.5206	1,365.97	83.2256	1,365.97	80.7559	1,365.97	81.7593	1,365.97	78.9664	1,365.97	80.2332	1,365.97	77.5867	1,365.97	78.847	1,365.97	76.4181	1,365.97	77.7349	1,365.97	74.4536	1,365.97	76.3657	1,365.97	71.3785	1,365.97	73.9536	1,365.97	71.1508	1,365.97	71.107	1,365.97	73.1622	1,365.97	72.2522	1,365.97	73.1779	1,365.97	74.53	1,365.97	69.4611	1,365.97	73.9757	1,365.97	54.8869	1,365.97	68.5974	1,365.97	68.4827	1,365.97	56.3941	1,365.97	73.2148	1,365.97	70.89	1,365.97	73.9071
1,414.31	85.1545	1,414.31	84.9767	1,414.31	85.1421	1,414.31	84.4947	1,414.31	84.8863	1,414.31	83.51	1,414.31	84.205	1,414.31	81.8928	1,414.31	83.0644	1,414.31	80.0044	1,414.31	81.6178	1,414.31	78.6456	1,414.31	79.9542	1,414.31	77.757	1,414.31	78.3745	1,414.31	76.466	1,414.31	77.5093	1,414.31	74.1237	1,414.31	76.9396	1,414.31	70.3045	1,414.31	75.4133	1,414.31	68.653	1,414.31	71.887	1,414.31	72.4505	1,414.31	70.1536	1,414.31	73.9317	1,414.31	72.9716	1,414.31	70.7104	1,414.31	73.2014	1,414.31	39.679	1,414.31	69.6275	1,414.31	69.6443	1,414.31	56.2291	1,414.31	73.2258	1,414.31	67.7526	1,414.31	72.6647
1,464.11	85.4419	1,464.11	85.1676	1,464.11	85.5171	1,464.11	84.6906	1,464.11	85.2808	1,464.11	83.8193	1,464.11	84.6357	1,464.11	82.3788	1,464.11	83.6208	1,464.11	80.5863	1,464.11	82.298	1,464.11	78.99	1,464.11	80.5184	1,464.11	77.9624	1,464.11	78.3072	1,464.11	77.4523	1,464.11	76.8727	1,464.11	76.1598	1,464.11	76.7227	1,464.11	72.5157	1,464.11	76.0349	1,464.11	66.9121	1,464.11	73.4625	1,464.11	70.1305	1,464.11	69.8864	1,464.11	72.532	1,464.11	72.4626	1,464.11	69.9667	1,464.11	74.4586	1,464.11	56.9403	1,464.11	71.8132	1,464.11	66.7052	1,464.11	58.0224	1,464.11	70.4337	1,464.11	65.8831	1,464.11	70.2208
1,515.38	85.7256	1,515.38	85.3731	1,515.38	85.7476	1,515.38	84.9211	1,515.38	85.3673	1,515.38	84.0756	1,515.38	84.7487	1,515.38	82.367	1,515.38	83.9157	1,515.38	80.3913	1,515.38	82.7435	1,515.38	79.347	1,515.38	81.0995	1,515.38	78.7719	1,515.38	78.8281	1,515.38	77.3791	1,515.38	76.4502	1,515.38	75.2234	1,515.38	75.4528	1,515.38	73.3168	1,515.38	75.2581	1,515.38	71.3814	1,515.38	73.8438	1,515.38	70.6855	1,515.38	71.8454	1,515.38	72.1054	1,515.38	72.0791	1,515.38	70.3626	1,515.38	72.4296	1,515.38	61.2505	1,515.38	69.3971	1,515.38	62.8375	1,515.38	51.8022	1,515.38	70.5618	1,515.38	67.5223	1,515.38	71.7868
1,568.85	85.4642	1,568.85	85.34	1,568.85	85.319	1,568.85	84.7336	1,568.85	85.1465	1,568.85	83.7372	1,568.85	84.8311	1,568.85	82.6721	1,568.85	83.8864	1,568.85	81.5109	1,568.85	82.2236	1,568.85	79.88	1,568.85	80.504	1,568.85	78.0171	1,568.85	78.9276	1,568.85	76.0768	1,568.85	76.9646	1,568.85	74.5673	1,568.85	75.206	1,568.85	73.925	1,568.85	74.412	1,568.85	72.7801	1,568.85	72.4106	1,568.85	71.9045	1,568.85	70.186	1,568.85	72.1208	1,568.85	70.9344	1,568.85	69.5493	1,568.85	69.8167	1,568.85	61.1326	1,568.85	64.0629	1,568.85	51.1668	1,568.85	50.3345	1,568.85	65.269	1,568.85	66.6915	1,568.85	69.1919
1,624.51	85.9705	1,624.51	85.94	1,624.51	85.6469	1,624.51	85.2779	1,624.51	85.2141	1,624.51	83.7798	1,624.51	84.5114	1,624.51	81.9809	1,624.51	82.9745	1,624.51	80.6745	1,624.51	80.9046	1,624.51	78.992	1,624.51	79.689	1,624.51	76.3921	1,624.51	79.1348	1,624.51	75.3856	1,624.51	77.4836	1,624.51	75.9914	1,624.51	74.4859	1,624.51	74.709	1,624.51	71.9429	1,624.51	70.8151	1,624.51	70.0664	1,624.51	69.5325	1,624.51	67.2965	1,624.51	72.3457	1,624.51	68.0225	1,624.51	73.0834	1,624.51	70.4085	1,624.51	68.8001	1,624.51	71.1632	1,624.51	59.4015	1,624.51	67.0082	1,624.51	64.7252	1,624.51	49.0663	1,624.51	61.2481
1,681.64	85.6113	1,681.64	85.1426	1,681.64	85.5901	1,681.64	84.3264	1,681.64	84.9147	1,681.64	83.173	1,681.64	83.6676	1,681.64	81.7586	1,681.64	82.2685	1,681.64	80.0839	1,681.64	81.0322	1,681.64	78.0121	1,681.64	79.5903	1,681.64	76.1071	1,681.64	77.9593	1,681.64	75.491	1,681.64	76.7433	1,681.64	74.9909	1,681.64	76.2739	1,681.64	72.5786	1,681.64	75.5925	1,681.64	68.8842	1,681.64	72.958	1,681.64	66.9658	1,681.64	67.2643	1,681.64	68.8121	1,681.64	65.8237	1,681.64	70.7993	1,681.64	70.7007	1,681.64	67.4986	1,681.64	71.4553	1,681.64	62.9108	1,681.64	65.5046	1,681.64	71.0759	1,681.64	61.0476	1,681.64	70.287
1,740.97	85.8315	1,740.97	85.5525	1,740.97	85.7474	1,740.97	84.7666	1,740.97	85.244	1,740.97	83.3512	1,740.97	84.4238	1,740.97	81.7774	1,740.97	83.4725	1,740.97	80.552	1,740.97	82.3734	1,740.97	78.9551	1,740.97	81.0197	1,740.97	76.4612	1,740.97	79.1033	1,740.97	74.6697	1,740.97	76.5263	1,740.97	74.3395	1,740.97	75.3368	1,740.97	72.9737	1,740.97	75.9756	1,740.97	70.0805	1,740.97	73.728	1,740.97	66.4149	1,740.97	67.8659	1,740.97	68.2525	1,740.97	67.1451	1,740.97	70.5489	1,740.97	69.9099	1,740.97	66.2012	1,740.97	68.1041	1,740.97	60.5064	1,740.97	64.5293	1,740.97	70.8866	1,740.97	58.9271	1,740.97	70.1294
1,802.49	86.7951	1,802.49	85.9126	1,802.49	86.5869	1,802.49	84.5924	1,802.49	85.6697	1,802.49	83.9299	1,802.49	84.5887	1,802.49	83.2283	1,802.49	83.5491	1,802.49	81.2349	1,802.49	82.2361	1,802.49	78.6265	1,802.49	80.3496	1,802.49	76.4053	1,802.49	78.3947	1,802.49	74.5852	1,802.49	76.8479	1,802.49	74.8876	1,802.49	75.6406	1,802.49	75.2265	1,802.49	75.6557	1,802.49	70.7976	1,802.49	74.8112	1,802.49	65.6817	1,802.49	70.9207	1,802.49	69.7819	1,802.49	70.5632	1,802.49	70.5969	1,802.49	74.311	1,802.49	68.6071	1,802.49	72.0098	1,802.49	62.0733	1,802.49	62.7981	1,802.49	63.4395	1,802.49	59.5216	1,802.49	67.144
1,866.21	86.4208	1,866.21	86.0333	1,866.21	86.462	1,866.21	85.259	1,866.21	86.0667	1,866.21	84.0141	1,866.21	85.0414	1,866.21	82.509	1,866.21	83.4992	1,866.21	80.9451	1,866.21	81.416	1,866.21	79.2571	1,866.21	79.0943	1,866.21	78.1149	1,866.21	78.0125	1,866.21	77.1052	1,866.21	77.437	1,866.21	74.4534	1,866.21	74.6943	1,866.21	72.5212	1,866.21	71.946	1,866.21	72.6446	1,866.21	72.9447	1,866.21	69.4082	1,866.21	72.6495	1,866.21	68.2009	1,866.21	66.0744	1,866.21	72.5998	1,866.21	73.3215	1,866.21	69.8735	1,866.21	74.8964	1,866.21	67.2037	1,866.21	72.6737	1,866.21	70.0044	1,866.21	57.411	1,866.21	68.6031
1,932.13	85.4653	1,932.13	84.8666	1,932.13	85.5645	1,932.13	84.1762	1,932.13	85.0606	1,932.13	83.4075	1,932.13	84.1839	1,932.13	82.1094	1,932.13	83.2756	1,932.13	80.4453	1,932.13	82.1801	1,932.13	78.6915	1,932.13	80.884	1,932.13	76.6056	1,932.13	79.314	1,932.13	75.9799	1,932.13	76.909	1,932.13	75.8343	1,932.13	73.5729	1,932.13	73.8704	1,932.13	71.4363	1,932.13	73.6208	1,932.13	71.5775	1,932.13	73.8068	1,932.13	69.9035	1,932.13	70.812	1,932.13	62.1071	1,932.13	70.1107	1,932.13	63.4666	1,932.13	67.9343	1,932.13	69.2749	1,932.13	64.3075	1,932.13	71.9796	1,932.13	69.7398	1,932.13	64.1746	1,932.13	67.8027
2,000.24	85.6197	2,000.24	84.9368	2,000.24	85.5165	2,000.24	84.2205	2,000.24	84.6452	2,000.24	83.4083	2,000.24	83.9658	2,000.24	82.0692	2,000.24	83.4419	2,000.24	80.6947	2,000.24	82.3159	2,000.24	79.6687	2,000.24	81.195	2,000.24	78.6347	2,000.24	80.194	2,000.24	76.7708	2,000.24	78.2526	2,000.24	73.6791	2,000.24	75.6606	2,000.24	71.2866	2,000.24	74.2808	2,000.24	69.5045	2,000.24	74.254	2,000.24	66.7662	2,000.24	73.1405	2,000.24	69.485	2,000.24	68.3899	2,000.24	72.9223	2,000.24	64.1137	2,000.24	70.4153	2,000.24	70.0047	2,000.24	61.6184	2,000.24	69.9823	2,000.24	60.3247	2,000.24	62.1294	2,000.24	59.04
2,070.56	86.4446	2,070.56	86.217	2,070.56	86.0192	2,070.56	85.3411	2,070.56	85.366	2,070.56	84.2984	2,070.56	84.6315	2,070.56	83.1363	2,070.56	83.4307	2,070.56	81.5368	2,070.56	81.9079	2,070.56	79.866	2,070.56	80.908	2,070.56	78.4729	2,070.56	79.6998	2,070.56	76.3113	2,070.56	77.8546	2,070.56	72.0673	2,070.56	76.3553	2,070.56	68.2448	2,070.56	74.4245	2,070.56	70.4843	2,070.56	72.781	2,070.56	70.3258	2,070.56	73.2809	2,070.56	56.6733	2,070.56	71.4675	2,070.56	69.6842	2,070.56	69.0998	2,070.56	72.3413	2,070.56	72.8013	2,070.56	67.2531	2,070.56	72.7424	2,070.56	67.6476	2,070.56	69.9066	2,070.56	67.6672
2,143.8	85.9817	2,143.8	86.0969	2,143.8	85.0693	2,143.8	85.8555	2,143.8	84.0668	2,143.8	84.8011	2,143.8	83.8443	2,143.8	82.5442	2,143.8	83.1273	2,143.8	80.6199	2,143.8	81.1588	2,143.8	79.6367	2,143.8	78.7519	2,143.8	77.9023	2,143.8	77.2372	2,143.8	75.5227	2,143.8	76.4489	2,143.8	73.966	2,143.8	75.8188	2,143.8	72.8805	2,143.8	74.0236	2,143.8	72.2035	2,143.8	69.4076	2,143.8	73.0447	2,143.8	68.2422	2,143.8	70.5046	2,143.8	69.428	2,143.8	69.2455	2,143.8	62.1499	2,143.8	71.0551	2,143.8	67.7585	2,143.8	66.7208	2,143.8	68.7108	2,143.8	69.7473	2,143.8	68.5439	2,143.8	70.556
2,219.24	84.1166	2,219.24	84.032	2,219.24	83.9862	2,219.24	83.2111	2,219.24	83.8588	2,219.24	82.1526	2,219.24	83.3072	2,219.24	81.5988	2,219.24	82.3327	2,219.24	80.7096	2,219.24	80.6411	2,219.24	78.5182	2,219.24	78.914	2,219.24	76.3562	2,219.24	78.0764	2,219.24	75.136	2,219.24	75.8324	2,219.24	73.7064	2,219.24	72.3105	2,219.24	73.1479	2,219.24	72.2725	2,219.24	72.4072	2,219.24	71.8635	2,219.24	70.0636	2,219.24	67.6205	2,219.24	70.5595	2,219.24	64.6876	2,219.24	71.4647	2,219.24	64.5325	2,219.24	69.5634	2,219.24	67.6969	2,219.24	64.31	2,219.24	63.4454	2,219.24	64.7952	2,219.24	53.1859	2,219.24	66.5972
2,297.61	84.3829	2,297.61	84.2674	2,297.61	84.1624	2,297.61	83.5054	2,297.61	84.1508	2,297.61	82.653	2,297.61	83.7641	2,297.61	81.5031	2,297.61	82.8439	2,297.61	79.6516	2,297.61	81.9377	2,297.61	77.5471	2,297.61	80.7066	2,297.61	75.9244	2,297.61	78.1323	2,297.61	74.9195	2,297.61	75.2408	2,297.61	73.6914	2,297.61	73.9351	2,297.61	71.4259	2,297.61	72.3557	2,297.61	70.6294	2,297.61	70.5442	2,297.61	68.5874	2,297.61	67.7165	2,297.61	58.8201	2,297.61	66.2798	2,297.61	65.501	2,297.61	66.4658	2,297.61	67.6122	2,297.61	64.637	2,297.61	66.4148	2,297.61	67.3198	2,297.61	68.7406	2,297.61	63.3439	2,297.61	67.8517
2,378.17	84.9756	2,378.17	84.6026	2,378.17	84.9363	2,378.17	83.9829	2,378.17	84.5296	2,378.17	83.252	2,378.17	83.9269	2,378.17	81.8811	2,378.17	83.1691	2,378.17	79.7705	2,378.17	82.0326	2,378.17	78.1352	2,378.17	80.1064	2,378.17	76.6665	2,378.17	77.9244	2,378.17	73.2504	2,378.17	76.7969	2,378.17	68.7721	2,378.17	74.8999	2,378.17	69.248	2,378.17	69.5401	2,378.17	69.296	2,378.17	67.7405	2,378.17	65.7834	2,378.17	69.2648	2,378.17	61.7402	2,378.17	65.6694	2,378.17	66.0363	2,378.17	61.5413	2,378.17	67.6296	2,378.17	65.776	2,378.17	65.7433	2,378.17	67.518	2,378.17	69.7446	2,378.17	66.7693	2,378.17	69.5661
2,462.4	84.4052	2,462.4	84.1897	2,462.4	84.5399	2,462.4	83.7221	2,462.4	84.3473	2,462.4	82.7265	2,462.4	83.4676	2,462.4	81.2685	2,462.4	82.212	2,462.4	79.6708	2,462.4	80.8265	2,462.4	77.698	2,462.4	79.1034	2,462.4	75.6508	2,462.4	77.0036	2,462.4	73.657	2,462.4	74.6314	2,462.4	71.1597	2,462.4	72.5903	2,462.4	68.7905	2,462.4	71.1721	2,462.4	67.8065	2,462.4	69.9298	2,462.4	67.5996	2,462.4	68.2203	2,462.4	65.6871	2,462.4	67.9474	2,462.4	64.9497	2,462.4	65.8189	2,462.4	65.916	2,462.4	64.6656	2,462.4	63.6277	2,462.4	66.0641	2,462.4	68.4322	2,462.4	61.0764	2,462.4	68.5513
2,548.83	84.0113	2,548.83	83.6635	2,548.83	84.0847	2,548.83	82.9385	2,548.83	83.996	2,548.83	81.9093	2,548.83	83.5199	2,548.83	80.7153	2,548.83	82.303	2,548.83	79.0992	2,548.83	80.6937	2,548.83	77.0344	2,548.83	79.0443	2,548.83	74.7134	2,548.83	76.7192	2,548.83	72.1625	2,548.83	74.2202	2,548.83	70.1126	2,548.83	72.3936	2,548.83	68.6103	2,548.83	70.4628	2,548.83	67.1132	2,548.83	68.6639	2,548.83	65.957	2,548.83	66.398	2,548.83	65.4125	2,548.83	64.2643	2,548.83	66.3116	2,548.83	64.462	2,548.83	64.858	2,548.83	63.5179	2,548.83	53.6339	2,548.83	64.1125	2,548.83	65.8232	2,548.83	59.9924	2,548.83	66.5821
2,638.92	84.4106	2,638.92	84.1343	2,638.92	84.4173	2,638.92	83.5098	2,638.92	84.3963	2,638.92	82.4607	2,638.92	84.1755	2,638.92	81.0091	2,638.92	83.2314	2,638.92	79.3675	2,638.92	81.7711	2,638.92	77.6066	2,638.92	80.08	2,638.92	75.3903	2,638.92	77.9858	2,638.92	72.6833	2,638.92	75.573	2,638.92	70.3896	2,638.92	73.3246	2,638.92	68.4839	2,638.92	71.4658	2,638.92	66.8251	2,638.92	69.3153	2,638.92	66.4747	2,638.92	67.6671	2,638.92	62.7104	2,638.92	67.1389	2,638.92	64.6762	2,638.92	65.9167	2,638.92	67.488	2,638.92	66.1052	2,638.92	62.4399	2,638.92	65.7603	2,638.92	65.2953	2,638.92	57.7428	2,638.92	64.9513
2,731.93	84.3334	2,731.93	84.2577	2,731.93	84.4621	2,731.93	83.9872	2,731.93	84.5723	2,731.93	83.256	2,731.93	84.2208	2,731.93	81.8298	2,731.93	83.4149	2,731.93	79.8832	2,731.93	82.0769	2,731.93	77.7484	2,731.93	80.0192	2,731.93	75.5489	2,731.93	77.8196	2,731.93	72.9471	2,731.93	75.772	2,731.93	70.3908	2,731.93	73.24	2,731.93	68.5605	2,731.93	70.8778	2,731.93	65.8032	2,731.93	69.8776	2,731.93	65.2302	2,731.93	67.5496	2,731.93	65.614	2,731.93	65.955	2,731.93	63.7161	2,731.93	63.6901	2,731.93	67.8268	2,731.93	64.4518	2,731.93	63.4333	2,731.93	67.7983	2,731.93	64.5877	2,731.93	62.9602	2,731.93	65.8312
2,828.61	84.6749	2,828.61	84.5031	2,828.61	84.9131	2,828.61	84.3798	2,828.61	84.9755	2,828.61	83.6766	2,828.61	84.7991	2,828.61	82.2496	2,828.61	84.0469	2,828.61	80.0961	2,828.61	82.5725	2,828.61	77.5105	2,828.61	80.4252	2,828.61	74.8679	2,828.61	77.9003	2,828.61	72.0442	2,828.61	76.0449	2,828.61	69.3492	2,828.61	74.0716	2,828.61	67.7405	2,828.61	71.0654	2,828.61	66.1868	2,828.61	69.3913	2,828.61	64.0735	2,828.61	67.3328	2,828.61	64.3261	2,828.61	66.0978	2,828.61	61.5676	2,828.61	67.8872	2,828.61	67.04	2,828.61	62.8065	2,828.61	66.4825	2,828.61	67.5403	2,828.61	68.8445	2,828.61	66.2777	2,828.61	68.584
2,928.22	84.5418	2,928.22	84.4009	2,928.22	84.645	2,928.22	84.0441	2,928.22	84.7297	2,928.22	83.5521	2,928.22	84.5097	2,928.22	82.5797	2,928.22	83.8736	2,928.22	80.615	2,928.22	82.6446	2,928.22	77.949	2,928.22	80.5074	2,928.22	75.0326	2,928.22	77.956	2,928.22	72.786	2,928.22	75.8609	2,928.22	70.6654	2,928.22	73.8409	2,928.22	68.054	2,928.22	71.6474	2,928.22	66.7741	2,928.22	69.9998	2,928.22	64.4724	2,928.22	68.0497	2,928.22	62.9462	2,928.22	65.304	2,928.22	62.2767	2,928.22	66.3393	2,928.22	61.086	2,928.22	65.4621	2,928.22	59.5228	2,928.22	62.3749	2,928.22	67.0119	2,928.22	63.8306	2,928.22	68.9962
3,031.49	84.2791	3,031.49	84.4452	3,031.49	84.4475	3,031.49	84.3177	3,031.49	84.7572	3,031.49	83.3125	3,031.49	84.5422	3,031.49	81.569	3,031.49	83.5731	3,031.49	79.5415	3,031.49	82.1045	3,031.49	77.2429	3,031.49	80.2703	3,031.49	74.435	3,031.49	77.8254	3,031.49	71.8989	3,031.49	75.039	3,031.49	69.6078	3,031.49	72.6131	3,031.49	67.4854	3,031.49	70.0004	3,031.49	66.332	3,031.49	68.5498	3,031.49	64.2877	3,031.49	68.4393	3,031.49	61.3352	3,031.49	65.8767	3,031.49	59.9769	3,031.49	66.2533	3,031.49	62.1385	3,031.49	65.1829	3,031.49	58.311	3,031.49	63.4745	3,031.49	66.1286	3,031.49	54.1717	3,031.49	65.9229
3,138.43	84.7007	3,138.43	84.8842	3,138.43	84.7137	3,138.43	84.7648	3,138.43	84.9132	3,138.43	83.8826	3,138.43	84.8756	3,138.43	82.0904	3,138.43	83.8214	3,138.43	79.7203	3,138.43	81.8352	3,138.43	77.4416	3,138.43	79.6868	3,138.43	75.1661	3,138.43	77.5193	3,138.43	72.9361	3,138.43	74.9981	3,138.43	70.1006	3,138.43	72.4934	3,138.43	67.5018	3,138.43	70.7233	3,138.43	65.8107	3,138.43	68.2442	3,138.43	65.8472	3,138.43	67.3131	3,138.43	65.2249	3,138.43	66.6277	3,138.43	64.2796	3,138.43	64.3902	3,138.43	63.9785	3,138.43	65.7515	3,138.43	55.6387	3,138.43	65.6097	3,138.43	65.6022	3,138.43	59.061	3,138.43	66.4473
3,249.02	84.7632	3,249.02	84.8057	3,249.02	84.6869	3,249.02	84.518	3,249.02	84.7774	3,249.02	83.7744	3,249.02	84.4669	3,249.02	82.217	3,249.02	83.4238	3,249.02	80.015	3,249.02	81.7952	3,249.02	77.5935	3,249.02	79.4485	3,249.02	75.3541	3,249.02	77.0316	3,249.02	73.3617	3,249.02	74.8459	3,249.02	70.973	3,249.02	72.2475	3,249.02	68.9304	3,249.02	69.9865	3,249.02	67.3779	3,249.02	68.1255	3,249.02	66.1522	3,249.02	66.086	3,249.02	65.7587	3,249.02	65.3253	3,249.02	64.0664	3,249.02	64.5848	3,249.02	65.9143	3,249.02	65.0604	3,249.02	58.4463	3,249.02	65.7517	3,249.02	64.6798	3,249.02	56.174	3,249.02	65.4575
3,363.28	84.4369	3,363.28	84.5402	3,363.28	84.394	3,363.28	84.3881	3,363.28	84.4831	3,363.28	83.651	3,363.28	84.0556	3,363.28	81.8931	3,363.28	83.031	3,363.28	79.8061	3,363.28	81.1845	3,363.28	77.7291	3,363.28	78.7913	3,363.28	75.7547	3,363.28	76.4524	3,363.28	73.4935	3,363.28	74.0265	3,363.28	71.002	3,363.28	72.2669	3,363.28	69.0857	3,363.28	70.263	3,363.28	67.4828	3,363.28	68.0034	3,363.28	65.5761	3,363.28	65.9064	3,363.28	64.5662	3,363.28	63.903	3,363.28	63.5334	3,363.28	63.551	3,363.28	65.9774	3,363.28	63.5441	3,363.28	62.9899	3,363.28	64.821	3,363.28	63.5798	3,363.28	59.1007	3,363.28	64.6206
3,481.93	84.2049	3,481.93	84.557	3,481.93	84.3897	3,481.93	84.5559	3,481.93	84.5057	3,481.93	83.3782	3,481.93	84.1821	3,481.93	81.6875	3,481.93	83.1526	3,481.93	79.9597	3,481.93	81.3402	3,481.93	78.1425	3,481.93	79.372	3,481.93	76.1321	3,481.93	77.2821	3,481.93	73.7876	3,481.93	75.5014	3,481.93	71.4289	3,481.93	73.3794	3,481.93	69.0225	3,481.93	71.3922	3,481.93	67.3322	3,481.93	69.0016	3,481.93	65.7133	3,481.93	67.1302	3,481.93	63.4458	3,481.93	66.0628	3,481.93	63.0667	3,481.93	63.7283	3,481.93	65.6758	3,481.93	63.3898	3,481.93	63.6768	3,481.93	65.66	3,481.93	65.1698	3,481.93	59.7635	3,481.93	65.5753
3,604.98	84.3552	3,604.98	84.5559	3,604.98	84.3527	3,604.98	84.4214	3,604.98	84.6052	3,604.98	83.697	3,604.98	84.2199	3,604.98	82.2326	3,604.98	82.7204	3,604.98	80.3047	3,604.98	80.9043	3,604.98	78.2946	3,604.98	79.2039	3,604.98	76.2686	3,604.98	77.2241	3,604.98	74.7134	3,604.98	75.0639	3,604.98	72.6031	3,604.98	73.1673	3,604.98	69.7295	3,604.98	70.9978	3,604.98	67.5676	3,604.98	68.4899	3,604.98	66.3481	3,604.98	67.3696	3,604.98	65.7677	3,604.98	66.3676	3,604.98	63.8437	3,604.98	64.0949	3,604.98	66.7491	3,604.98	63.3758	3,604.98	63.3893	3,604.98	66.6054	3,604.98	66.2096	3,604.98	60.601	3,604.98	66.3904
3,732.42	84.355	3,732.42	84.0378	3,732.42	84.3731	3,732.42	83.5386	3,732.42	84.186	3,732.42	82.8789	3,732.42	83.5607	3,732.42	81.5176	3,732.42	82.5186	3,732.42	79.7179	3,732.42	80.8808	3,732.42	77.449	3,732.42	79.016	3,732.42	75.389	3,732.42	77.2151	3,732.42	73.6058	3,732.42	75.1769	3,732.42	71.5181	3,732.42	72.6609	3,732.42	69.1618	3,732.42	70.7794	3,732.42	67.03	3,732.42	68.2544	3,732.42	65.5429	3,732.42	65.4324	3,732.42	65.4813	3,732.42	64.5418	3,732.42	64.3596	3,732.42	62.5742	3,732.42	65.8878	3,732.42	62.1332	3,732.42	64.8664	3,732.42	65.0992	3,732.42	64.829	3,732.42	62.5303	3,732.42	64.3463
3,863.53	84.6384	3,863.53	84.345	3,863.53	84.817	3,863.53	84.0059	3,863.53	84.3709	3,863.53	82.7824	3,863.53	83.7808	3,863.53	81.2585	3,863.53	82.6063	3,863.53	79.9909	3,863.53	80.9189	3,863.53	78.3895	3,863.53	79.5928	3,863.53	76.3507	3,863.53	77.9125	3,863.53	73.5264	3,863.53	75.7317	3,863.53	70.5965	3,863.53	73.0093	3,863.53	68.2946	3,863.53	71.0609	3,863.53	66.5528	3,863.53	68.8974	3,863.53	63.9309	3,863.53	66.907	3,863.53	61.7391	3,863.53	65.6757	3,863.53	63.6347	3,863.53	63.3249	3,863.53	64.3834	3,863.53	59.3391	3,863.53	63.4252	3,863.53	65.2129	3,863.53	64.509	3,863.53	62.4132	3,863.53	65.0755
3,999.76	84.7927	3,999.76	84.5164	3,999.76	84.7246	3,999.76	83.8687	3,999.76	84.442	3,999.76	82.802	3,999.76	83.6028	3,999.76	81.3961	3,999.76	82.1296	3,999.76	79.5952	3,999.76	80.9565	3,999.76	77.7734	3,999.76	79.3587	3,999.76	75.792	3,999.76	77.2651	3,999.76	73.8231	3,999.76	74.86	3,999.76	71.6173	3,999.76	72.5564	3,999.76	69.0545	3,999.76	70.2833	3,999.76	67.2799	3,999.76	67.6544	3,999.76	65.6903	3,999.76	66.516	3,999.76	62.7249	3,999.76	65.599	3,999.76	61.3773	3,999.76	63.9414	3,999.76	64.3021	3,999.76	61.9935	3,999.76	63.501	3,999.76	64.2224	3,999.76	64.2225	3,999.76	62.1317	3,999.76	64.0455
4,141.11	85.1022	4,141.11	84.3448	4,141.11	85.0288	4,141.11	82.919	4,141.11	84.3586	4,141.11	82.0084	4,141.11	82.9794	4,141.11	81.2074	4,141.11	81.9812	4,141.11	79.95	4,141.11	80.8484	4,141.11	77.8574	4,141.11	79.2118	4,141.11	75.7973	4,141.11	76.8746	4,141.11	73.38	4,141.11	74.5312	4,141.11	71.464	4,141.11	71.9228	4,141.11	69.5219	4,141.11	69.526	4,141.11	66.5275	4,141.11	66.9313	4,141.11	64.6731	4,141.11	65.6597	4,141.11	61.2948	4,141.11	65.0879	4,141.11	63.8266	4,141.11	62.4842	4,141.11	64.3454	4,141.11	61.2784	4,141.11	65.9804	4,141.11	63.7057	4,141.11	64.1911	4,141.11	64.1341	4,141.11	63.5636
4,286.87	85.7564	4,286.87	84.6579	4,286.87	85.9423	4,286.87	83.4685	4,286.87	84.6654	4,286.87	81.9265	4,286.87	83.7374	4,286.87	80.8669	4,286.87	82.7687	4,286.87	79.9384	4,286.87	81.5885	4,286.87	78.2554	4,286.87	80.26	4,286.87	75.4853	4,286.87	78.175	4,286.87	72.3035	4,286.87	75.5542	4,286.87	69.9336	4,286.87	72.9466	4,286.87	69.2988	4,286.87	71.4576	4,286.87	68.0663	4,286.87	68.496	4,286.87	65.7055	4,286.87	66.6045	4,286.87	63.3628	4,286.87	66.4155	4,286.87	62.3503	4,286.87	62.755	4,286.87	63.9825	4,286.87	61.5553	4,286.87	64.3214	4,286.87	63.2339	4,286.87	64.6234	4,286.87	64.8816	4,286.87	64.0879
4,438.48	85.6513	4,438.48	84.7631	4,438.48	85.185	4,438.48	83.4722	4,438.48	84.4327	4,438.48	83.0351	4,438.48	83.1449	4,438.48	82.1558	4,438.48	82.0168	4,438.48	80.7927	4,438.48	81.4363	4,438.48	78.6951	4,438.48	79.8903	4,438.48	76.6503	4,438.48	78.0321	4,438.48	74.3232	4,438.48	75.5829	4,438.48	71.851	4,438.48	72.529	4,438.48	69.2707	4,438.48	69.4282	4,438.48	65.5324	4,438.48	67.7522	4,438.48	64.1814	4,438.48	65.143	4,438.48	59.3569	4,438.48	64.1205	4,438.48	61.7716	4,438.48	62.1025	4,438.48	61.3322	4,438.48	62.0273	4,438.48	63.9708	4,438.48	64.0946	4,438.48	65.3526	4,438.48	63.7398	4,438.48	65.9749
4,594.48	86.5796	4,594.48	85.2126	4,594.48	86.7331	4,594.48	83.7459	4,594.48	85.0875	4,594.48	82.5996	4,594.48	83.7886	4,594.48	82.1759	4,594.48	83.6715	4,594.48	80.9028	4,594.48	82.7804	4,594.48	78.3281	4,594.48	81.2283	4,594.48	75.9131	4,594.48	78.7069	4,594.48	73.2891	4,594.48	75.6439	4,594.48	70.4013	4,594.48	72.8296	4,594.48	68.1184	4,594.48	70.8964	4,594.48	66.5555	4,594.48	68.0951	4,594.48	66.4428	4,594.48	65.72	4,594.48	63.557	4,594.48	65.9715	4,594.48	63.8474	4,594.48	64.1634	4,594.48	64.6149	4,594.48	62.6648	4,594.48	64.7801	4,594.48	64.0888	4,594.48	63.5427	4,594.48	65.7567	4,594.48	62.7681
4,757.08	86.6641	4,757.08	85.5969	4,757.08	86.154	4,757.08	84.1032	4,757.08	85.0583	4,757.08	83.75	4,757.08	84.0818	4,757.08	82.8924	4,757.08	83.1835	4,757.08	81.4414	4,757.08	82.4846	4,757.08	79.9828	4,757.08	80.7847	4,757.08	77.9509	4,757.08	78.4018	4,757.08	74.8326	4,757.08	76.0365	4,757.08	71.9745	4,757.08	73.142	4,757.08	70.3465	4,757.08	69.9084	4,757.08	66.8023	4,757.08	69.1316	4,757.08	62.085	4,757.08	66.5833	4,757.08	60.3659	4,757.08	63.3099	4,757.08	61.0743	4,757.08	63.6771	4,757.08	63.0089	4,757.08	63.6692	4,757.08	63.6365	4,757.08	63.6708	4,757.08	63.6757	4,757.08	66.1033	4,757.08	63.5533
4,924.8	87.1261	4,924.8	85.4137	4,924.8	87.0566	4,924.8	84.0206	4,924.8	85.2444	4,924.8	83.0338	4,924.8	84.0975	4,924.8	82.228	4,924.8	83.7297	4,924.8	80.8438	4,924.8	82.3953	4,924.8	77.7506	4,924.8	80.2921	4,924.8	74.6526	4,924.8	78.0465	4,924.8	72.1791	4,924.8	75.5995	4,924.8	69.6192	4,924.8	72.327	4,924.8	67.3083	4,924.8	70.6688	4,924.8	66.3322	4,924.8	67.9045	4,924.8	64.1001	4,924.8	65.9718	4,924.8	60.1008	4,924.8	64.0007	4,924.8	61.2516	4,924.8	63.2089	4,924.8	63.7867	4,924.8	63.4228	4,924.8	63.841	4,924.8	63.4876	4,924.8	61.9265	4,924.8	65.6743	4,924.8	64.1258
5,098.39	86.5518	5,098.39	85.3628	5,098.39	86.3652	5,098.39	83.6294	5,098.39	85.0361	5,098.39	82.5434	5,098.39	83.9755	5,098.39	81.9299	5,098.39	83.2267	5,098.39	80.436	5,098.39	82.1743	5,098.39	78.2432	5,098.39	80.494	5,098.39	75.5485	5,098.39	78.5921	5,098.39	72.8	5,098.39	76.0501	5,098.39	70.4938	5,098.39	74.0797	5,098.39	68.4367	5,098.39	71.3646	5,098.39	65.3121	5,098.39	70.2797	5,098.39	62.1538	5,098.39	67.7311	5,098.39	59.6815	5,098.39	64.8879	5,098.39	56.3127	5,098.39	61.3234	5,098.39	61.0066	5,098.39	63.9076	5,098.39	63.9903	5,098.39	62.4683	5,098.39	64.5048	5,098.39	66.5645	5,098.39	64.7215
5,277.83	86.4044	5,277.83	84.6923	5,277.83	86.2314	5,277.83	83.5902	5,277.83	84.4495	5,277.83	82.9667	5,277.83	83.1951	5,277.83	81.628	5,277.83	82.5042	5,277.83	80.0049	5,277.83	81.2676	5,277.83	77.4794	5,277.83	79.4572	5,277.83	74.9659	5,277.83	77.3478	5,277.83	72.1507	5,277.83	75.2473	5,277.83	69.031	5,277.83	71.9661	5,277.83	67.4027	5,277.83	69.7132	5,277.83	65.9271	5,277.83	68.3818	5,277.83	60.4498	5,277.83	65.6409	5,277.83	55.9715	5,277.83	61.4944	5,277.83	59.4865	5,277.83	60.5249	5,277.83	62.4651	5,277.83	59.077	5,277.83	62.3355	5,277.83	61.1307	5,277.83	62.2142	5,277.83	64.8446	5,277.83	64.9544
5,463.87	86.1323	5,463.87	84.6702	5,463.87	86.1483	5,463.87	83.1589	5,463.87	84.2917	5,463.87	81.4872	5,463.87	82.9501	5,463.87	80.5361	5,463.87	82.0687	5,463.87	78.9808	5,463.87	80.8305	5,463.87	76.5124	5,463.87	79.2135	5,463.87	73.6713	5,463.87	77.4365	5,463.87	71.4225	5,463.87	75.0256	5,463.87	69.5302	5,463.87	72.5023	5,463.87	67.7554	5,463.87	69.5053	5,463.87	65.5463	5,463.87	67.5949	5,463.87	64.8472	5,463.87	66.6169	5,463.87	63.391	5,463.87	63.0636	5,463.87	50.913	5,463.87	61.711	5,463.87	56.4502	5,463.87	59.5963	5,463.87	64.3578	5,463.87	59.7885	5,463.87	62.5521	5,463.87	63.9086	5,463.87	65.3992
5,656.49	83.6006	5,656.49	82.3581	5,656.49	83.3986	5,656.49	81.7472	5,656.49	82.1828	5,656.49	81.3392	5,656.49	82.0414	5,656.49	80.8395	5,656.49	81.502	5,656.49	79.881	5,656.49	80.8717	5,656.49	78.3908	5,656.49	79.5884	5,656.49	76.5401	5,656.49	77.5105	5,656.49	74.0064	5,656.49	74.8471	5,656.49	71.1919	5,656.49	72.1099	5,656.49	69.5339	5,656.49	69.4752	5,656.49	66.9482	5,656.49	68.1271	5,656.49	63.0764	5,656.49	65.662	5,656.49	62.0925	5,656.49	62.6004	5,656.49	58.6803	5,656.49	60.5956	5,656.49	53.5005	5,656.49	62.1948	5,656.49	62.623	5,656.49	58.5708	5,656.49	62.363	5,656.49	62.7454	5,656.49	62.9924
5,856.45	83.6543	5,856.45	83.3008	5,856.45	83.5231	5,856.45	82.797	5,856.45	83.0331	5,856.45	82.0656	5,856.45	82.7272	5,856.45	81.6523	5,856.45	81.939	5,856.45	80.593	5,856.45	81.4614	5,856.45	78.5684	5,856.45	79.8389	5,856.45	75.8364	5,856.45	77.7355	5,856.45	72.6662	5,856.45	74.7554	5,856.45	70.0206	5,856.45	72.5762	5,856.45	66.9443	5,856.45	68.909	5,856.45	64.4203	5,856.45	66.7858	5,856.45	63.4114	5,856.45	64.983	5,856.45	61.5693	5,856.45	60.7902	5,856.45	58.2723	5,856.45	60.7618	5,856.45	54.9291	5,856.45	58.047	5,856.45	60.2428	5,856.45	56.5377	5,856.45	59.3296	5,856.45	60.9646	5,856.45	61.2647
6,062.99	84.1592	6,062.99	84.0111	6,062.99	83.8018	6,062.99	83.5011	6,062.99	83.8351	6,062.99	82.5247	6,062.99	83.0318	6,062.99	81.5734	6,062.99	81.9893	6,062.99	80.0614	6,062.99	81.4098	6,062.99	77.7491	6,062.99	79.8118	6,062.99	75.0645	6,062.99	77.0688	6,062.99	71.9886	6,062.99	73.616	6,062.99	69.6069	6,062.99	70.6453	6,062.99	68.1793	6,062.99	67.2282	6,062.99	65.8379	6,062.99	65.2694	6,062.99	63.237	6,062.99	64.0874	6,062.99	62.9643	6,062.99	62.1761	6,062.99	60.4408	6,062.99	61.1066	6,062.99	58.2311	6,062.99	60.2725	6,062.99	60.152	6,062.99	56.5918	6,062.99	58.6309	6,062.99	61.2299	6,062.99	55.9513
6,276.86	84.6661	6,276.86	84.7014	6,276.86	84.6054	6,276.86	83.8249	6,276.86	84.7167	6,276.86	82.6492	6,276.86	83.8696	6,276.86	82.0003	6,276.86	83.0727	6,276.86	80.5786	6,276.86	82.3096	6,276.86	78.3163	6,276.86	80.4339	6,276.86	75.161	6,276.86	77.5991	6,276.86	72.4204	6,276.86	74.2105	6,276.86	69.5033	6,276.86	71.2807	6,276.86	65.6931	6,276.86	68.7928	6,276.86	64.5746	6,276.86	64.9464	6,276.86	62.5622	6,276.86	64.0509	6,276.86	61.9447	6,276.86	60.7893	6,276.86	54.5075	6,276.86	61.9556	6,276.86	55.6356	6,276.86	57.0546	6,276.86	60.4321	6,276.86	57.2179	6,276.86	56.3238	6,276.86	62.7545	6,276.86	57.8812
6,498.05	84.7211	6,498.05	84.9208	6,498.05	84.7867	6,498.05	84.5147	6,498.05	85.0394	6,498.05	83.3339	6,498.05	84.2245	6,498.05	82.681	6,498.05	83.3999	6,498.05	81.1758	6,498.05	82.6457	6,498.05	78.575	6,498.05	80.6779	6,498.05	75.2491	6,498.05	77.8831	6,498.05	71.9578	6,498.05	74.5375	6,498.05	68.3403	6,498.05	71.4519	6,498.05	66.26	6,498.05	69.1905	6,498.05	64.6082	6,498.05	67.257	6,498.05	59.1799	6,498.05	64.7651	6,498.05	61.9265	6,498.05	63.0248	6,498.05	54.9073	6,498.05	61.6971	6,498.05	58.4134	6,498.05	60.1806	6,498.05	58.1249	6,498.05	56.5329	6,498.05	51.3601	6,498.05	61.4231	6,498.05	53.2325
6,727.29	84.6698	6,727.29	85.4665	6,727.29	84.8661	6,727.29	84.8664	6,727.29	85.3422	6,727.29	83.6746	6,727.29	84.4022	6,727.29	82.9945	6,727.29	83.7308	6,727.29	81.3067	6,727.29	82.702	6,727.29	78.6878	6,727.29	80.6515	6,727.29	74.7942	6,727.29	77.9814	6,727.29	71.841	6,727.29	74.7492	6,727.29	68.4508	6,727.29	72.1969	6,727.29	65.9529	6,727.29	69.3469	6,727.29	64.6955	6,727.29	65.6325	6,727.29	59.7174	6,727.29	64.4867	6,727.29	61.2417	6,727.29	60.5207	6,727.29	53.1314	6,727.29	62.1159	6,727.29	58.8707	6,727.29	55.8582	6,727.29	61.8495	6,727.29	57.1398	6,727.29	48.4749	6,727.29	63.0442	6,727.29	56.0417
6,964.6	84.32	6,964.6	85.1196	6,964.6	84.7087	6,964.6	84.7103	6,964.6	85.3258	6,964.6	83.4894	6,964.6	84.4023	6,964.6	82.6873	6,964.6	83.6061	6,964.6	80.7688	6,964.6	82.5567	6,964.6	78.1534	6,964.6	80.5109	6,964.6	75.1549	6,964.6	78.1801	6,964.6	72.1753	6,964.6	75.019	6,964.6	69.1647	6,964.6	71.922	6,964.6	66.3818	6,964.6	69.6767	6,964.6	65.5103	6,964.6	67.1158	6,964.6	60.3256	6,964.6	65.5424	6,964.6	61.9585	6,964.6	62.4871	6,964.6	52.5564	6,964.6	63.8535	6,964.6	58.8973	6,964.6	53.2783	6,964.6	60.8184	6,964.6	54.8748	6,964.6	54.5666	6,964.6	61.3419	6,964.6	54.3546
7,209.96	83.4447	7,209.96	84.7057	7,209.96	83.9361	7,209.96	84.0575	7,209.96	84.7017	7,209.96	83.0426	7,209.96	83.7747	7,209.96	82.2198	7,209.96	83.1107	7,209.96	80.7719	7,209.96	81.7648	7,209.96	78.5342	7,209.96	80.0707	7,209.96	75.4988	7,209.96	78.2135	7,209.96	72.4886	7,209.96	74.8272	7,209.96	69.5282	7,209.96	71.8257	7,209.96	67.237	7,209.96	68.7257	7,209.96	65.0716	7,209.96	66.1261	7,209.96	60.3831	7,209.96	65.1557	7,209.96	61.3879	7,209.96	61.2167	7,209.96	52.5703	7,209.96	61.754	7,209.96	58.2502	7,209.96	53.1639	7,209.96	61.8376	7,209.96	52.2989	7,209.96	53.9336	7,209.96	61.4071	7,209.96	57.0302
7,464.11	82.6628	7,464.11	84.0157	7,464.11	83.1706	7,464.11	83.4428	7,464.11	84.1045	7,464.11	82.549	7,464.11	83.332	7,464.11	81.5348	7,464.11	82.4532	7,464.11	79.996	7,464.11	81.085	7,464.11	78.3595	7,464.11	79.5498	7,464.11	75.5742	7,464.11	77.875	7,464.11	71.9547	7,464.11	74.4769	7,464.11	68.8696	7,464.11	71.13	7,464.11	66.3978	7,464.11	68.5099	7,464.11	64.5215	7,464.11	65.1589	7,464.11	61.0741	7,464.11	63.7158	7,464.11	60.8128	7,464.11	60.7639	7,464.11	54.633	7,464.11	62.2624	7,464.11	58.0693	7,464.11	55.2124	7,464.11	59.1716	7,464.11	54.9157	7,464.11	52.7096	7,464.11	61.7687	7,464.11	54.7149
7,727.78	82.4276	7,727.78	83.5406	7,727.78	82.8241	7,727.78	83.1546	7,727.78	83.5786	7,727.78	82.3728	7,727.78	82.9738	7,727.78	80.8652	7,727.78	81.9122	7,727.78	80.0841	7,727.78	80.3118	7,727.78	78.1102	7,727.78	79.3436	7,727.78	75.2935	7,727.78	77.0638	7,727.78	70.8983	7,727.78	73.1839	7,727.78	68.2251	7,727.78	69.8772	7,727.78	65.3675	7,727.78	67.0749	7,727.78	63.2646	7,727.78	63.486	7,727.78	60.2133	7,727.78	62.3512	7,727.78	59.0225	7,727.78	60.0507	7,727.78	57.1755	7,727.78	61.4521	7,727.78	57.2581	7,727.78	50.2712	7,727.78	59.4742	7,727.78	52.5034	7,727.78	53.7953	7,727.78	60.0718	7,727.78	54.6411
8,000.24	82.7355	8,000.24	83.7681	8,000.24	83.2104	8,000.24	83.4571	8,000.24	83.8608	8,000.24	82.6217	8,000.24	83.2362	8,000.24	80.825	8,000.24	81.9885	8,000.24	80.042	8,000.24	80.3615	8,000.24	77.7885	8,000.24	78.9208	8,000.24	74.3632	8,000.24	76.4981	8,000.24	69.524	8,000.24	72.9033	8,000.24	66.8084	8,000.24	69.4008	8,000.24	65.0381	8,000.24	66.1186	8,000.24	61.5699	8,000.24	62.968	8,000.24	61.0071	8,000.24	61.4252	8,000.24	55.5545	8,000.24	60.4591	8,000.24	54.8059	8,000.24	60.2459	8,000.24	56.547	8,000.24	43.6465	8,000.24	56.9999	8,000.24	51.1054	8,000.24	51.4922	8,000.24	60.3332	8,000.24	53.8142
8,282.23	84.1496	8,282.23	84.6504	8,282.23	84.4483	8,282.23	84.325	8,282.23	84.7058	8,282.23	83.0969	8,282.23	84.1914	8,282.23	81.5915	8,282.23	82.6512	8,282.23	80.3547	8,282.23	81.3804	8,282.23	78.0437	8,282.23	79.6637	8,282.23	74.1638	8,282.23	77.3707	8,282.23	69.7699	8,282.23	74.1502	8,282.23	66.6994	8,282.23	69.6858	8,282.23	65.4156	8,282.23	65.9342	8,282.23	60.1946	8,282.23	63.8726	8,282.23	61.6956	8,282.23	59.7972	8,282.23	55.6287	8,282.23	61.0039	8,282.23	56.8904	8,282.23	56.8388	8,282.23	59.3092	8,282.23	41.9091	8,282.23	57.3852	8,282.23	53.5196	8,282.23	49.7025	8,282.23	59.2448	8,282.23	55.3099
8,574.46	84.4265	8,574.46	84.9027	8,574.46	84.7482	8,574.46	84.6928	8,574.46	85.1191	8,574.46	83.4929	8,574.46	84.6159	8,574.46	81.8064	8,574.46	83.0106	8,574.46	80.7096	8,574.46	81.6861	8,574.46	77.8658	8,574.46	79.923	8,574.46	74.3644	8,574.46	77.635	8,574.46	70.1367	8,574.46	74.1958	8,574.46	67.1349	8,574.46	69.8942	8,574.46	65.8752	8,574.46	66.967	8,574.46	60.2844	8,574.46	64.4266	8,574.46	62.1169	8,574.46	58.8901	8,574.46	57.5769	8,574.46	61.5823	8,574.46	59.6726	8,574.46	57.8034	8,574.46	55.905	8,574.46	34.0797	8,574.46	59.3035	8,574.46	54.2138	8,574.46	47.1955	8,574.46	58.4242	8,574.46	56.5072
8,876.22	84.0699	8,876.22	84.4031	8,876.22	84.2056	8,876.22	84.2351	8,876.22	84.4536	8,876.22	82.9467	8,876.22	83.9811	8,876.22	81.5977	8,876.22	82.5138	8,876.22	80.0075	8,876.22	81.2662	8,876.22	77.089	8,876.22	78.9718	8,876.22	73.8397	8,876.22	76.3729	8,876.22	69.8444	8,876.22	73.4569	8,876.22	66.5917	8,876.22	68.88	8,876.22	65.4699	8,876.22	66.4386	8,876.22	60.2859	8,876.22	63.9129	8,876.22	62.826	8,876.22	59.9461	8,876.22	55.2612	8,876.22	62.2161	8,876.22	58.7121	8,876.22	57.2642	8,876.22	55.5873	8,876.22	47.2412	8,876.22	56.141	8,876.22	53.2988	8,876.22	50.8673	8,876.22	55.6023	8,876.22	51.5369
9,189.7	83.4313	9,189.7	83.6416	9,189.7	83.4947	9,189.7	83.4145	9,189.7	83.5514	9,189.7	82.0284	9,189.7	82.9413	9,189.7	81.0655	9,189.7	81.5804	9,189.7	78.7476	9,189.7	80.367	9,189.7	76.167	9,189.7	77.6025	9,189.7	72.7872	9,189.7	75.2059	9,189.7	69.272	9,189.7	72.5035	9,189.7	66.2028	9,189.7	68.4611	9,189.7	64.6976	9,189.7	65.4253	9,189.7	59.7548	9,189.7	63.9238	9,189.7	61.5131	9,189.7	60.828	9,189.7	54.907	9,189.7	61.643	9,189.7	55.9569	9,189.7	53.6467	9,189.7	55.7525	9,189.7	44.562	9,189.7	56.2729	9,189.7	54.2081	9,189.7	47.1836	9,189.7	52.6931	9,189.7	50.8508
9,513.43	83.0823	9,513.43	83.2146	9,513.43	83.2008	9,513.43	82.8153	9,513.43	83.1499	9,513.43	81.5691	9,513.43	82.3005	9,513.43	80.508	9,513.43	81.161	9,513.43	77.8319	9,513.43	79.6947	9,513.43	75.379	9,513.43	76.6466	9,513.43	72.0871	9,513.43	74.674	9,513.43	68.4157	9,513.43	71.9036	9,513.43	65.8031	9,513.43	67.4859	9,513.43	63.8854	9,513.43	64.2419	9,513.43	58.6251	9,513.43	63.1123	9,513.43	60.7593	9,513.43	59.6694	9,513.43	54.5312	9,513.43	59.3634	9,513.43	52.5397	9,513.43	54.1912	9,513.43	52.9686	9,513.43	47.9924	9,513.43	54.7941	9,513.43	52.958	9,513.43	47.9955	9,513.43	52.5161	9,513.43	45.1217
9,848.88	83.5644	9,848.88	83.5228	9,848.88	83.6249	9,848.88	82.984	9,848.88	83.2749	9,848.88	81.7993	9,848.88	82.3915	9,848.88	80.4777	9,848.88	81.4091	9,848.88	77.7808	9,848.88	79.2997	9,848.88	75.3682	9,848.88	76.9878	9,848.88	72.4326	9,848.88	74.5484	9,848.88	68.531	9,848.88	71.4951	9,848.88	65.5274	9,848.88	65.8158	9,848.88	62.8526	9,848.88	64.1202	9,848.88	58.3975	9,848.88	61.3975	9,848.88	60.9018	9,848.88	57.942	9,848.88	56.9259	9,848.88	58.9916	9,848.88	50.888	9,848.88	54.8433	9,848.88	51.1761	9,848.88	51.5064	9,848.88	54.0667	9,848.88	53.5308	9,848.88	51.0758	9,848.88	47.3235	9,848.88	44.6594
10,196.8	84.1405	10,196.8	83.9797	10,196.8	84.0619	10,196.8	83.232	10,196.8	83.414	10,196.8	82.0652	10,196.8	82.6232	10,196.8	80.4107	10,196.8	81.57	10,196.8	77.8871	10,196.8	79.4862	10,196.8	75.5112	10,196.8	77.0391	10,196.8	72.9311	10,196.8	74.3438	10,196.8	69.0967	10,196.8	70.7486	10,196.8	65.8884	10,196.8	67.2848	10,196.8	60.1414	10,196.8	64.9145	10,196.8	58.293	10,196.8	61.2022	10,196.8	60.7245	10,196.8	56.2852	10,196.8	56.7007	10,196.8	59.3799	10,196.8	51.7143	10,196.8	48.7216	10,196.8	52.187	10,196.8	48.1165	10,196.8	49.1852	10,196.8	52.8112	10,196.8	51.6146	10,196.8	45.5889	10,196.8	36.8396
10,556.4	84.3389	10,556.4	83.8195	10,556.4	84.2657	10,556.4	83.3043	10,556.4	83.4211	10,556.4	82.3334	10,556.4	82.786	10,556.4	80.3603	10,556.4	81.7527	10,556.4	78.1151	10,556.4	79.7697	10,556.4	75.6075	10,556.4	77.2266	10,556.4	72.2809	10,556.4	74.7074	10,556.4	69.6127	10,556.4	71.8666	10,556.4	66.0139	10,556.4	68.4967	10,556.4	62.1089	10,556.4	64.2438	10,556.4	59.9972	10,556.4	62.7361	10,556.4	60.3631	10,556.4	58	10,556.4	57.0222	10,556.4	59.66	10,556.4	50.7296	10,556.4	49.5053	10,556.4	51.7465	10,556.4	51.4852	10,556.4	42.8531	10,556.4	51.081	10,556.4	50.067	10,556.4	49.8533	10,556.4	45.4295
10,928.5	84.1269	10,928.5	83.3743	10,928.5	84.0475	10,928.5	83.0313	10,928.5	83.1125	10,928.5	81.94	10,928.5	82.7207	10,928.5	80.3532	10,928.5	81.6831	10,928.5	77.9016	10,928.5	79.8314	10,928.5	75.8146	10,928.5	77.4192	10,928.5	72.0127	10,928.5	75.4577	10,928.5	69.9098	10,928.5	72.8243	10,928.5	65.4149	10,928.5	68.4829	10,928.5	63.0327	10,928.5	63.7401	10,928.5	59.8972	10,928.5	64.3754	10,928.5	60.0642	10,928.5	59.4811	10,928.5	57.3705	10,928.5	60.6912	10,928.5	54.9153	10,928.5	49.8096	10,928.5	52.5667	10,928.5	55.8588	10,928.5	47.5525	10,928.5	51.8029	10,928.5	51.5656	10,928.5	49.3685	10,928.5	46.8541
11,313.7	83.5294	11,313.7	82.5977	11,313.7	83.3386	11,313.7	82.4702	11,313.7	82.2545	11,313.7	81.2095	11,313.7	82.1621	11,313.7	79.8282	11,313.7	80.8779	11,313.7	77.4668	11,313.7	79.4619	11,313.7	75.7863	11,313.7	76.9716	11,313.7	72.5514	11,313.7	75.6222	11,313.7	69.4631	11,313.7	72.8209	11,313.7	65.3007	11,313.7	68.3844	11,313.7	61.7534	11,313.7	64.2375	11,313.7	59.6508	11,313.7	64.3392	11,313.7	60.3481	11,313.7	59.3564	11,313.7	58.701	11,313.7	60.9208	11,313.7	56.8438	11,313.7	49.8141	11,313.7	52.3811	11,313.7	55.6883	11,313.7	46.6203	11,313.7	50.9832	11,313.7	53.389	11,313.7	51.7611	11,313.7	47.3726
11,712.9	82.5285	11,712.9	81.5181	11,712.9	82.3229	11,712.9	81.5781	11,712.9	81.1606	11,712.9	80.3375	11,712.9	81.1188	11,712.9	79.1555	11,712.9	79.7347	11,712.9	77.442	11,712.9	78.5682	11,712.9	75.404	11,712.9	76.6841	11,712.9	71.8246	11,712.9	74.8044	11,712.9	69.0385	11,712.9	72.8499	11,712.9	65.1871	11,712.9	67.6086	11,712.9	61.8952	11,712.9	64.0404	11,712.9	59.5323	11,712.9	63.4289	11,712.9	58.9047	11,712.9	57.3227	11,712.9	58.2297	11,712.9	60.5221	11,712.9	58.2657	11,712.9	48.9564	11,712.9	52.5368	11,712.9	54.351	11,712.9	46.2169	11,712.9	48.8658	11,712.9	54.5205	11,712.9	52.8364	11,712.9	50.7704
12,126	82.2701	12,126	81.1503	12,126	81.9251	12,126	81.0513	12,126	80.9238	12,126	79.8776	12,126	80.6989	12,126	79.2158	12,126	79.7427	12,126	77.6917	12,126	78.4228	12,126	75.468	12,126	77.1219	12,126	71.9909	12,126	74.7193	12,126	70.0066	12,126	73.5803	12,126	64.9741	12,126	66.9354	12,126	61.4663	12,126	63.8983	12,126	59.4976	12,126	63.3598	12,126	56.874	12,126	56.7166	12,126	57.2994	12,126	60.2517	12,126	59.0261	12,126	48.9752	12,126	54.0616	12,126	53.2221	12,126	48.8517	12,126	45.4523	12,126	54.9383	12,126	57.1841	12,126	53.3998
12,553.7	82.434	12,553.7	81.4676	12,553.7	81.9799	12,553.7	81.2849	12,553.7	81.2382	12,553.7	80.3017	12,553.7	80.8513	12,553.7	79.4947	12,553.7	80.1318	12,553.7	78.2101	12,553.7	78.727	12,553.7	75.4817	12,553.7	77.4276	12,553.7	72.5863	12,553.7	75.5688	12,553.7	70.3656	12,553.7	73.8169	12,553.7	65.0733	12,553.7	68.3612	12,553.7	60.8887	12,553.7	65.2654	12,553.7	58.9962	12,553.7	63.3795	12,553.7	56.6254	12,553.7	58.8842	12,553.7	56.064	12,553.7	59.9141	12,553.7	59.9213	12,553.7	46.9008	12,553.7	54.8741	12,553.7	54.0024	12,553.7	54.6839	12,553.7	49.2107	12,553.7	49.4724	12,553.7	57.9195	12,553.7	53.0116
12,996.1	82.1784	12,996.1	81.125	12,996.1	81.8142	12,996.1	80.9973	12,996.1	81.2699	12,996.1	80.169	12,996.1	80.8944	12,996.1	79.5058	12,996.1	80.4018	12,996.1	78.2499	12,996.1	79.1457	12,996.1	75.6065	12,996.1	77.5926	12,996.1	72.2303	12,996.1	76.0961	12,996.1	70.6465	12,996.1	74.3906	12,996.1	64.6466	12,996.1	68.472	12,996.1	60.505	12,996.1	65.5898	12,996.1	58.1024	12,996.1	62.2082	12,996.1	56.4785	12,996.1	60.0671	12,996.1	53.5996	12,996.1	59.9688	12,996.1	62.0142	12,996.1	50.78	12,996.1	55.2826	12,996.1	51.1197	12,996.1	54.8475	12,996.1	52.1	12,996.1	49.89	12,996.1	60.2267	12,996.1	55.6632
13,454.6	81.6886	13,454.6	80.6741	13,454.6	81.4146	13,454.6	80.5407	13,454.6	80.8038	13,454.6	79.8596	13,454.6	80.2967	13,454.6	79.267	13,454.6	80.2268	13,454.6	77.9146	13,454.6	78.6999	13,454.6	75.5734	13,454.6	77.1045	13,454.6	72.0682	13,454.6	75.8031	13,454.6	70.5974	13,454.6	73.525	13,454.6	64.765	13,454.6	68.2699	13,454.6	58.126	13,454.6	65.6448	13,454.6	59.6394	13,454.6	61.2355	13,454.6	56.5088	13,454.6	60.2106	13,454.6	55.4577	13,454.6	60.2066	13,454.6	63.6703	13,454.6	53.3636	13,454.6	56.1191	13,454.6	53.7163	13,454.6	55.8212	13,454.6	52.2745	13,454.6	53.5816	13,454.6	61.9802	13,454.6	55.6704
13,928.5	81.5502	13,928.5	80.344	13,928.5	81.0475	13,928.5	80.1512	13,928.5	80.149	13,928.5	79.6149	13,928.5	79.9257	13,928.5	78.7024	13,928.5	79.8794	13,928.5	77.5405	13,928.5	77.6474	13,928.5	74.6533	13,928.5	76.7911	13,928.5	70.9419	13,928.5	74.2867	13,928.5	70.3666	13,928.5	72.6699	13,928.5	64.928	13,928.5	67.7918	13,928.5	54.9178	13,928.5	64.8976	13,928.5	59.6053	13,928.5	59.6928	13,928.5	54.9987	13,928.5	59.7884	13,928.5	53.3502	13,928.5	59.0443	13,928.5	63.022	13,928.5	54.5315	13,928.5	55.4004	13,928.5	55.3292	13,928.5	58.0043	13,928.5	50.1297	13,928.5	54.0596	13,928.5	62.5639	13,928.5	56.9767
14,419.9	81.853	14,419.9	80.619	14,419.9	81.3722	14,419.9	80.5002	14,419.9	80.4783	14,419.9	79.6309	14,419.9	80.284	14,419.9	78.5385	14,419.9	79.8352	14,419.9	76.7839	14,419.9	77.468	14,419.9	73.8014	14,419.9	76.123	14,419.9	69.8754	14,419.9	73.5326	14,419.9	69.8406	14,419.9	71.929	14,419.9	63.7679	14,419.9	67.3854	14,419.9	52.8543	14,419.9	63.9294	14,419.9	58.4121	14,419.9	58.6643	14,419.9	54.0477	14,419.9	59.7371	14,419.9	50.097	14,419.9	58.4179	14,419.9	62.2334	14,419.9	55.7205	14,419.9	53.4267	14,419.9	55.8138	14,419.9	58.0873	14,419.9	44.0471	14,419.9	53.6612	14,419.9	62.6391	14,419.9	58.0903
14,928.2	82.2834	14,928.2	81.1179	14,928.2	81.8555	14,928.2	80.9949	14,928.2	81.1675	14,928.2	79.7417	14,928.2	81.0183	14,928.2	78.3317	14,928.2	80.0847	14,928.2	76.1652	14,928.2	77.5114	14,928.2	73.0638	14,928.2	75.4253	14,928.2	68.8689	14,928.2	73.2566	14,928.2	68.2652	14,928.2	70.9123	14,928.2	61.8543	14,928.2	66.9361	14,928.2	47.5522	14,928.2	63.8238	14,928.2	57.5149	14,928.2	56.4962	14,928.2	52.6112	14,928.2	58.5597	14,928.2	44.6708	14,928.2	57.2877	14,928.2	62.204	14,928.2	57.1084	14,928.2	53.394	14,928.2	53.187	14,928.2	56.373	14,928.2	45.6922	14,928.2	52.9788	14,928.2	62.285	14,928.2	58.6641
15,454.8	82.4193	15,454.8	81.3599	15,454.8	82.0697	15,454.8	81.3152	15,454.8	81.4637	15,454.8	79.8201	15,454.8	81.2814	15,454.8	78.0293	15,454.8	79.9226	15,454.8	75.4576	15,454.8	77.3005	15,454.8	72.0784	15,454.8	74.7279	15,454.8	66.5767	15,454.8	72.2883	15,454.8	67.4786	15,454.8	70.6934	15,454.8	60.8997	15,454.8	66.4151	15,454.8	29.1878	15,454.8	63.6321	15,454.8	57.1662	15,454.8	53.5651	15,454.8	52.5209	15,454.8	57.9005	15,454.8	45.15	15,454.8	55.8281	15,454.8	62.3733	15,454.8	58.5098	15,454.8	53.8993	15,454.8	52.4333	15,454.8	54.8518	15,454.8	46.6577	15,454.8	51.7316	15,454.8	62.4174	15,454.8	58.9338
15,999.8	81.6225	15,999.8	80.7692	15,999.8	81.2833	15,999.8	80.9289	15,999.8	80.7707	15,999.8	79.1856	15,999.8	80.5179	15,999.8	77.0637	15,999.8	78.9697	15,999.8	74.1954	15,999.8	76.0178	15,999.8	70.5285	15,999.8	73.3004	15,999.8	64.391	15,999.8	70.9827	15,999.8	66.5624	15,999.8	69.59	15,999.8	59.6706	15,999.8	64.4778	15,999.8	37.4756	15,999.8	62.7719	15,999.8	56.6217	15,999.8	50.4341	15,999.8	51.9761	15,999.8	56.6136	15,999.8	45.2865	15,999.8	54.5874	15,999.8	62.2522	15,999.8	58.1122	15,999.8	54.7576	15,999.8	51.8355	15,999.8	53.3069	15,999.8	47.8358	15,999.8	51.5789	15,999.8	62.4194	15,999.8	57.6999
16,564.5	81.3719	16,564.5	80.592	16,564.5	81.0019	16,564.5	80.8166	16,564.5	80.4946	16,564.5	78.8638	16,564.5	80.1359	16,564.5	76.4952	16,564.5	78.5527	16,564.5	73.5589	16,564.5	75.192	16,564.5	69.3659	16,564.5	72.3317	16,564.5	63.3193	16,564.5	69.6759	16,564.5	65.7493	16,564.5	67.8136	16,564.5	58.5411	16,564.5	62.9073	16,564.5	44.8988	16,564.5	61.8305	16,564.5	55.6559	16,564.5	50.6775	16,564.5	50.7588	16,564.5	54.8379	16,564.5	46.892	16,564.5	53.9127	16,564.5	62.2539	16,564.5	58.0093	16,564.5	54.7379	16,564.5	52.0357	16,564.5	53.6563	16,564.5	47.5546	16,564.5	54.1406	16,564.5	61.8185	16,564.5	58.31
17,148.2	81.6741	17,148.2	81.0379	17,148.2	81.453	17,148.2	80.8939	17,148.2	80.9209	17,148.2	78.5884	17,148.2	80.02	17,148.2	75.9364	17,148.2	78.0266	17,148.2	72.7247	17,148.2	74.1428	17,148.2	68.2716	17,148.2	70.5218	17,148.2	61.4357	17,148.2	67.5192	17,148.2	64.7687	17,148.2	66.2404	17,148.2	57.332	17,148.2	61.4989	17,148.2	49.5077	17,148.2	60.781	17,148.2	54.289	17,148.2	50.847	17,148.2	49.764	17,148.2	52.4886	17,148.2	48.6629	17,148.2	52.834	17,148.2	62.5818	17,148.2	58.3502	17,148.2	54.1542	17,148.2	51.4457	17,148.2	52.8649	17,148.2	47.4183	17,148.2	55.3881	17,148.2	61.1137	17,148.2	58.8304
17,753.2	81.6608	17,753.2	81.1311	17,753.2	81.7338	17,753.2	80.5419	17,753.2	81.2091	17,753.2	77.9921	17,753.2	79.7574	17,753.2	74.9681	17,753.2	77.3003	17,753.2	71.4459	17,753.2	72.8738	17,753.2	66.1898	17,753.2	68.5596	17,753.2	59.5766	17,753.2	65.6024	17,753.2	63.2309	17,753.2	64.8415	17,753.2	54.9862	17,753.2	59.8794	17,753.2	51.2185	17,753.2	59.1348	17,753.2	53.2154	17,753.2	51.6539	17,753.2	49.3313	17,753.2	49.1115	17,753.2	49.3989	17,753.2	52.3047	17,753.2	62.3679	17,753.2	58.6408	17,753.2	54.5264	17,753.2	53.4866	17,753.2	49.7681	17,753.2	47.5409	17,753.2	55.704	17,753.2	60.8783	17,753.2	57.9189
18,379.4	80.8686	18,379.4	80.5007	18,379.4	81.0796	18,379.4	79.4371	18,379.4	80.4952	18,379.4	76.5515	18,379.4	78.6233	18,379.4	73.2014	18,379.4	75.7544	18,379.4	68.9371	18,379.4	70.9828	18,379.4	63.0836	18,379.4	66.1018	18,379.4	57.8697	18,379.4	63.0977	18,379.4	59.4765	18,379.4	62.5418	18,379.4	50.841	18,379.4	57.3441	18,379.4	48.6956	18,379.4	57.1232	18,379.4	50.2521	18,379.4	52.9038	18,379.4	48.6983	18,379.4	43.0338	18,379.4	48.6047	18,379.4	51.5209	18,379.4	60.7149	18,379.4	57.7688	18,379.4	53.6562	18,379.4	54.1738	18,379.4	49.1797	18,379.4	45.6269	18,379.4	55.6969	18,379.4	59.9507	18,379.4	56.7798
19,027.6	80.6912	19,027.6	80.4091	19,027.6	81.0279	19,027.6	78.8014	19,027.6	80.277	19,027.6	75.55	19,027.6	78.0044	19,027.6	71.7037	19,027.6	74.757	19,027.6	66.6322	19,027.6	69.5412	19,027.6	59.3276	19,027.6	64.4925	19,027.6	57.4128	19,027.6	60.7734	19,027.6	53.8419	19,027.6	60.575	19,027.6	49.6062	19,027.6	55.536	19,027.6	48.6562	19,027.6	55.6923	19,027.6	48.4501	19,027.6	53.8301	19,027.6	48.4224	19,027.6	37.3637	19,027.6	49.1371	19,027.6	50.484	19,027.6	59.5786	19,027.6	56.868	19,027.6	52.352	19,027.6	53.7258	19,027.6	47.3047	19,027.6	45.4023	19,027.6	53.8176	19,027.6	58.7755	19,027.6	56.2164
19,698.5	80.6311	19,698.5	80.5893	19,698.5	81.0717	19,698.5	78.6351	19,698.5	80.3599	19,698.5	75.1836	19,698.5	77.8318	19,698.5	71.2958	19,698.5	74.3138	19,698.5	64.9014	19,698.5	68.8622	19,698.5	56.5455	19,698.5	63.4589	19,698.5	57.9936	19,698.5	59.298	19,698.5	49.1929	19,698.5	59.389	19,698.5	48.2604	19,698.5	53.1457	19,698.5	49.6781	19,698.5	54.1764	19,698.5	47.5391	19,698.5	54.3054	19,698.5	48.3201	19,698.5	23.1894	19,698.5	48.9703	19,698.5	50.0575	19,698.5	59.311	19,698.5	56.371	19,698.5	52.1081	19,698.5	53.7599	19,698.5	46.3544	19,698.5	44.1149	19,698.5	52.8332	19,698.5	58.5272	19,698.5	56.1243
19,999.5	80.3769	19,999.5	80.05	19,999.5	80.868	19,999.5	78.3141	19,999.5	80.2472	19,999.5	74.8847	19,999.5	77.447	19,999.5	71.1212	19,999.5	74.0893	19,999.5	64.2011	19,999.5	68.4573	19,999.5	55.9408	19,999.5	63.2234	19,999.5	59.1601	19,999.5	58.729	19,999.5	46.2747	19,999.5	59.2311	19,999.5	48.2689	19,999.5	50.2976	19,999.5	49.6168	19,999.5	54.1919	19,999.5	47.9685	19,999.5	54.793	19,999.5	49.0611	19,999.5	34.9347	19,999.5	50.1339	19,999.5	50.4391	19,999.5	59.3959	19,999.5	57.2378	19,999.5	52.0707	19,999.5	54.5679	19,999.5	48.0957	19,999.5	44.6115	19,999.5	53.6238	19,999.5	58.9361	19,999.5	56.3307
