"SPL Horizontal"																																																																							
"On-Axis"		"10°"		"-10°"		"20°"		"-20°"		"30°"		"-30°"		"40°"		"-40°"		"50°"		"-50°"		"60°"		"-60°"		"70°"		"-70°"		"80°"		"-80°"		"90°"		"-90°"		"100°"		"-100°"		"110°"		"-110°"		"120°"		"-120°"		"130°"		"-130°"		"140°"		"-140°"		"150°"		"-150°"		"160°"		"-160°"		"170°"		"-170°"		"180°"	
"Frequency [Hz]"	"Sound Pessure Level [dB]  / [2.83V 1m] "	"Frequency [Hz]"	"Sound Pessure Level [dB]  / [2.83V 1m] "	"Frequency [Hz]"	"Sound Pessure Level [dB]  / [2.83V 1m] "	"Frequency [Hz]"	"Sound Pessure Level [dB]  / [2.83V 1m] "	"Frequency [Hz]"	"Sound Pessure Level [dB]  / [2.83V 1m] "	"Frequency [Hz]"	"Sound Pessure Level [dB]  / [2.83V 1m] "	"Frequency [Hz]"	"Sound Pessure Level [dB]  / [2.83V 1m] "	"Frequency [Hz]"	"Sound Pessure Level [dB]  / [2.83V 1m] "	"Frequency [Hz]"	"Sound Pessure Level [dB]  / [2.83V 1m] "	"Frequency [Hz]"	"Sound Pessure Level [dB]  / [2.83V 1m] "	"Frequency [Hz]"	"Sound Pessure Level [dB]  / [2.83V 1m] "	"Frequency [Hz]"	"Sound Pessure Level [dB]  / [2.83V 1m] "	"Frequency [Hz]"	"Sound Pessure Level [dB]  / [2.83V 1m] "	"Frequency [Hz]"	"Sound Pessure Level [dB]  / [2.83V 1m] "	"Frequency [Hz]"	"Sound Pessure Level [dB]  / [2.83V 1m] "	"Frequency [Hz]"	"Sound Pessure Level [dB]  / [2.83V 1m] "	"Frequency [Hz]"	"Sound Pessure Level [dB]  / [2.83V 1m] "	"Frequency [Hz]"	"Sound Pessure Level [dB]  / [2.83V 1m] "	"Frequency [Hz]"	"Sound Pessure Level [dB]  / [2.83V 1m] "	"Frequency [Hz]"	"Sound Pessure Level [dB]  / [2.83V 1m] "	"Frequency [Hz]"	"Sound Pessure Level [dB]  / [2.83V 1m] "	"Frequency [Hz]"	"Sound Pessure Level [dB]  / [2.83V 1m] "	"Frequency [Hz]"	"Sound Pessure Level [dB]  / [2.83V 1m] "	"Frequency [Hz]"	"Sound Pessure Level [dB]  / [2.83V 1m] "	"Frequency [Hz]"	"Sound Pessure Level [dB]  / [2.83V 1m] "	"Frequency [Hz]"	"Sound Pessure Level [dB]  / [2.83V 1m] "	"Frequency [Hz]"	"Sound Pessure Level [dB]  / [2.83V 1m] "	"Frequency [Hz]"	"Sound Pessure Level [dB]  / [2.83V 1m] "	"Frequency [Hz]"	"Sound Pessure Level [dB]  / [2.83V 1m] "	"Frequency [Hz]"	"Sound Pessure Level [dB]  / [2.83V 1m] "	"Frequency [Hz]"	"Sound Pessure Level [dB]  / [2.83V 1m] "	"Frequency [Hz]"	"Sound Pessure Level [dB]  / [2.83V 1m] "	"Frequency [Hz]"	"Sound Pessure Level [dB]  / [2.83V 1m] "	"Frequency [Hz]"	"Sound Pessure Level [dB]  / [2.83V 1m] "	"Frequency [Hz]"	"Sound Pessure Level [dB]  / [2.83V 1m] "	"Frequency [Hz]"	"Sound Pessure Level [dB]  / [2.83V 1m] "
20.5078	59.3516	20.5078	59.3091	20.5078	59.3884	20.5078	59.262	20.5078	59.418	20.5078	59.2112	20.5078	59.4383	20.5078	59.1568	20.5078	59.4472	20.5078	59.0991	20.5078	59.4425	20.5078	59.0377	20.5078	59.4223	20.5078	58.9727	20.5078	59.3848	20.5078	58.9041	20.5078	59.3295	20.5078	58.8323	20.5078	59.2564	20.5078	58.7585	20.5078	59.1671	20.5078	58.6843	20.5078	59.0644	20.5078	58.6121	20.5078	58.9527	20.5078	58.5452	20.5078	58.8375	20.5078	58.4873	20.5078	58.7252	20.5078	58.4426	20.5078	58.6225	20.5078	58.4153	20.5078	58.5356	20.5078	58.4092	20.5078	58.4693	20.5078	58.4269
21.2402	60.5946	21.2402	60.5369	21.2402	60.6471	21.2402	60.4754	21.2402	60.6929	21.2402	60.411	21.2402	60.7301	21.2402	60.3444	21.2402	60.7566	21.2402	60.276	21.2402	60.7704	21.2402	60.2063	21.2402	60.7695	21.2402	60.1358	21.2402	60.7522	21.2402	60.0654	21.2402	60.7174	21.2402	59.9962	21.2402	60.6648	21.2402	59.93	21.2402	60.595	21.2402	59.8691	21.2402	60.5096	21.2402	59.8161	21.2402	60.4116	21.2402	59.7742	21.2402	60.305	21.2402	59.7465	21.2402	60.1948	21.2402	59.7361	21.2402	60.0866	21.2402	59.7452	21.2402	59.9858	21.2402	59.7753	21.2402	59.8978	21.2402	59.8267
21.9727	61.1668	21.9727	61.1099	21.9727	61.2187	21.9727	61.0492	21.9727	61.2638	21.9727	60.9855	21.9727	61.3005	21.9727	60.9196	21.9727	61.3267	21.9727	60.852	21.9727	61.3405	21.9727	60.7831	21.9727	61.3399	21.9727	60.7136	21.9727	61.3234	21.9727	60.6442	21.9727	61.2899	21.9727	60.5763	21.9727	61.2392	21.9727	60.5117	21.9727	61.1718	21.9727	60.4526	21.9727	61.0894	21.9727	60.4019	21.9727	60.9948	21.9727	60.3624	21.9727	60.8917	21.9727	60.3373	21.9727	60.7849	21.9727	60.3293	21.9727	60.6796	21.9727	60.3405	21.9727	60.5812	21.9727	60.3721	21.9727	60.4946	21.9727	60.4239
22.7051	61.9528	22.7051	61.8958	22.7051	62.0047	22.7051	61.8349	22.7051	62.0499	22.7051	61.7708	22.7051	62.0867	22.7051	61.7044	22.7051	62.113	22.7051	61.6358	22.7051	62.127	22.7051	61.5657	22.7051	62.1266	22.7051	61.4945	22.7051	62.1103	22.7051	61.423	22.7051	62.077	22.7051	61.3526	22.7051	62.0263	22.7051	61.2852	22.7051	61.9586	22.7051	61.2232	22.7051	61.8755	22.7051	61.1696	22.7051	61.7797	22.7051	61.1278	22.7051	61.6748	22.7051	61.101	22.7051	61.5656	22.7051	61.0923	22.7051	61.4573	22.7051	61.104	22.7051	61.3555	22.7051	61.1371	22.7051	61.2654	22.7051	61.1915
23.4375	62.4967	23.4375	62.4486	23.4375	62.539	23.4375	62.3956	23.4375	62.5742	23.4375	62.3381	23.4375	62.6009	23.4375	62.2767	23.4375	62.6175	23.4375	62.2114	23.4375	62.6221	23.4375	62.1425	23.4375	62.6131	23.4375	62.0704	23.4375	62.5891	23.4375	61.9961	23.4375	62.5492	23.4375	61.9207	23.4375	62.4931	23.4375	61.8465	23.4375	62.4214	23.4375	61.7761	23.4375	62.3356	23.4375	61.7128	23.4375	62.2384	23.4375	61.6602	23.4375	62.1337	23.4375	61.6223	23.4375	62.0259	23.4375	61.6025	23.4375	61.9206	23.4375	61.6034	23.4375	61.8232	23.4375	61.6268	23.4375	61.739	23.4375	61.6725
24.1699	63.0437	24.1699	62.9927	24.1699	63.0882	24.1699	62.936	24.1699	63.1252	24.1699	62.8743	24.1699	63.1531	24.1699	62.808	24.1699	63.1704	24.1699	62.7373	24.1699	63.1754	24.1699	62.6626	24.1699	63.1666	24.1699	62.5847	24.1699	63.1426	24.1699	62.5045	24.1699	63.1024	24.1699	62.4237	24.1699	63.0456	24.1699	62.3447	24.1699	62.9728	24.1699	62.2706	24.1699	62.8855	24.1699	62.2051	24.1699	62.786	24.1699	62.1521	24.1699	62.678	24.1699	62.1155	24.1699	62.5661	24.1699	62.0989	24.1699	62.4555	24.1699	62.1048	24.1699	62.3519	24.1699	62.1344	24.1699	62.2608	24.1699	62.1871
25.6348	64.3182	25.6348	64.2723	25.6348	64.3576	25.6348	64.2208	25.6348	64.3897	25.6348	64.1641	25.6348	64.4131	25.6348	64.1026	25.6348	64.4264	25.6348	64.0367	25.6348	64.4282	25.6348	63.9666	25.6348	64.4172	25.6348	63.8931	25.6348	64.3922	25.6348	63.8173	25.6348	64.3523	25.6348	63.7406	25.6348	64.2974	25.6348	63.6655	25.6348	64.2281	25.6348	63.5948	25.6348	64.1458	25.6348	63.532	25.6348	64.0527	25.6348	63.4807	25.6348	63.9523	25.6348	63.4447	25.6348	63.8489	25.6348	63.4272	25.6348	63.7471	25.6348	63.4306	25.6348	63.6523	25.6348	63.456	25.6348	63.5695	25.6348	63.5029
26.3672	65.0481	26.3672	65.0049	26.3672	65.0845	26.3672	64.9556	26.3672	65.1131	26.3672	64.9007	26.3672	65.1328	26.3672	64.8405	26.3672	65.1422	26.3672	64.7755	26.3672	65.1401	26.3672	64.706	26.3672	65.1251	26.3672	64.6326	26.3672	65.0964	26.3672	64.5564	26.3672	65.0531	26.3672	64.479	26.3672	64.9954	26.3672	64.4026	26.3672	64.9239	26.3672	64.3301	26.3672	64.84	26.3672	64.2649	26.3672	64.7463	26.3672	64.2106	26.3672	64.6463	26.3672	64.1709	26.3672	64.544	26.3672	64.1493	26.3672	64.4445	26.3672	64.1482	26.3672	64.3527	26.3672	64.1689	26.3672	64.2735	26.3672	64.2112
27.0996	65.6322	27.0996	65.5888	27.0996	65.6687	27.0996	65.5391	27.0996	65.6973	27.0996	65.4838	27.0996	65.7171	27.0996	65.4232	27.0996	65.7267	27.0996	65.3576	27.0996	65.7249	27.0996	65.2874	27.0996	65.7105	27.0996	65.2135	27.0996	65.6825	27.0996	65.137	27.0996	65.6404	27.0996	65.0596	27.0996	65.5841	27.0996	64.9835	27.0996	65.5142	27.0996	64.9118	27.0996	65.4322	27.0996	64.8479	27.0996	65.3404	27.0996	64.7955	27.0996	65.242	27.0996	64.7581	27.0996	65.1412	27.0996	64.7391	27.0996	65.0426	27.0996	64.7405	27.0996	64.951	27.0996	64.7636	27.0996	64.8714	27.0996	64.8078
27.832	66.1398	27.832	66.0962	27.832	66.1764	27.832	66.0465	27.832	66.2053	27.832	65.9911	27.832	66.2253	27.832	65.9304	27.832	66.2353	27.832	65.8649	27.832	66.234	27.832	65.7949	27.832	66.2204	27.832	65.7214	27.832	66.1933	27.832	65.6455	27.832	66.1523	27.832	65.569	27.832	66.0973	27.832	65.494	27.832	66.0288	27.832	65.4237	27.832	65.9483	27.832	65.3614	27.832	65.8581	27.832	65.3107	27.832	65.7613	27.832	65.2751	27.832	65.6618	27.832	65.2577	27.832	65.5641	27.832	65.2607	27.832	65.4732	27.832	65.2849	27.832	65.3938	27.832	65.3299
29.2969	67.2762	29.2969	67.2341	29.2969	67.312	29.2969	67.1863	29.2969	67.3406	29.2969	67.1334	29.2969	67.3611	29.2969	67.0758	29.2969	67.3724	29.2969	67.0139	29.2969	67.3733	29.2969	66.9484	29.2969	67.3628	29.2969	66.8801	29.2969	67.34	29.2969	66.8101	29.2969	67.3044	29.2969	66.7403	29.2969	67.2558	29.2969	66.6728	29.2969	67.1948	29.2969	66.6103	29.2969	67.1225	29.2969	66.556	29.2969	67.041	29.2969	66.5131	29.2969	66.9529	29.2969	66.4846	29.2969	66.862	29.2969	66.4731	29.2969	66.772	29.2969	66.4802	29.2969	66.6875	29.2969	66.5065	29.2969	66.6126	29.2969	66.5513
30.0293	67.6651	30.0293	67.6246	30.0293	67.6989	30.0293	67.578	30.0293	67.7251	30.0293	67.5256	30.0293	67.743	30.0293	67.468	30.0293	67.7515	30.0293	67.4056	30.0293	67.7496	30.0293	67.3389	30.0293	67.7363	30.0293	67.2689	30.0293	67.7109	30.0293	67.1968	30.0293	67.6729	30.0293	67.1244	30.0293	67.6222	30.0293	67.054	30.0293	67.5595	30.0293	66.9885	30.0293	67.4858	30.0293	66.9312	30.0293	67.4032	30.0293	66.8853	30.0293	67.3145	30.0293	66.8541	30.0293	67.2231	30.0293	66.8401	30.0293	67.133	30.0293	66.8452	30.0293	67.0487	30.0293	66.87	30.0293	66.9742	30.0293	66.9136
31.4941	68.742	31.4941	68.7063	31.4941	68.7715	31.4941	68.6649	31.4941	68.794	31.4941	68.6182	31.4941	68.8088	31.4941	68.5666	31.4941	68.8151	31.4941	68.5107	31.4941	68.8122	31.4941	68.4511	31.4941	68.7992	31.4941	68.3887	31.4941	68.7757	31.4941	68.3248	31.4941	68.7413	31.4941	68.2611	31.4941	68.6962	31.4941	68.1997	31.4941	68.6409	31.4941	68.1432	31.4941	68.5766	31.4941	68.0943	31.4941	68.5051	31.4941	68.0558	31.4941	68.4287	31.4941	68.0302	31.4941	68.3503	31.4941	68.0196	31.4941	68.2733	31.4941	68.0252	31.4941	68.2012	31.4941	68.0474	31.4941	68.1376	31.4941	68.0854
32.2266	69.1627	32.2266	69.1244	32.2266	69.1943	32.2266	69.0799	32.2266	69.2186	32.2266	69.0297	32.2266	69.235	32.2266	68.9742	32.2266	69.2427	32.2266	68.914	32.2266	69.241	32.2266	68.85	32.2266	69.2293	32.2266	68.7832	32.2266	69.2071	32.2266	68.7152	32.2266	69.174	32.2266	68.648	32.2266	69.1302	32.2266	68.5841	32.2266	69.076	32.2266	68.5264	32.2266	69.0124	32.2266	68.4778	32.2266	68.941	32.2266	68.4413	32.2266	68.864	32.2266	68.4194	32.2266	68.7838	32.2266	68.414	32.2266	68.7039	32.2266	68.4258	32.2266	68.6275	32.2266	68.4549	32.2266	68.5583	32.2266	68.4998
33.6914	69.9603	33.6914	69.9282	33.6914	69.9842	33.6914	69.8883	33.6914	69.9997	33.6914	69.841	33.6914	70.0061	33.6914	69.7866	33.6914	70.0032	33.6914	69.7258	33.6914	69.9904	33.6914	69.6592	33.6914	69.9673	33.6914	69.5881	33.6914	69.9338	33.6914	69.514	33.6914	69.89	33.6914	69.439	33.6914	69.8361	33.6914	69.3659	33.6914	69.773	33.6914	69.2976	33.6914	69.702	33.6914	69.2375	33.6914	69.6248	33.6914	69.1888	33.6914	69.5438	33.6914	69.1546	33.6914	69.4619	33.6914	69.137	33.6914	69.3823	33.6914	69.1376	33.6914	69.3086	33.6914	69.1564	33.6914	69.2442	33.6914	69.1926
34.4238	70.4507	34.4238	70.4191	34.4238	70.4745	34.4238	70.3799	34.4238	70.4899	34.4238	70.3335	34.4238	70.4966	34.4238	70.2803	34.4238	70.4941	34.4238	70.221	34.4238	70.4822	34.4238	70.1564	34.4238	70.4604	34.4238	70.0875	34.4238	70.4286	34.4238	70.0162	34.4238	70.387	34.4238	69.9444	34.4238	70.3359	34.4238	69.8747	34.4238	70.276	34.4238	69.8102	34.4238	70.2087	34.4238	69.754	34.4238	70.1355	34.4238	69.7091	34.4238	70.0587	34.4238	69.6783	34.4238	69.9808	34.4238	69.6636	34.4238	69.905	34.4238	69.6661	34.4238	69.8344	34.4238	69.6859	34.4238	69.7723	34.4238	69.7219
35.8887	71.3551	35.8887	71.3253	35.8887	71.3765	35.8887	71.2874	35.8887	71.3891	35.8887	71.2419	35.8887	71.3925	35.8887	71.1892	35.8887	71.3865	35.8887	71.1299	35.8887	71.3706	35.8887	71.0649	35.8887	71.3446	35.8887	70.9954	35.8887	71.3087	35.8887	70.923	35.8887	71.2629	35.8887	70.8498	35.8887	71.2078	35.8887	70.7783	35.8887	71.1445	35.8887	70.7113	35.8887	71.0742	35.8887	70.6521	35.8887	70.9988	35.8887	70.6037	35.8887	70.9208	35.8887	70.5687	35.8887	70.8427	35.8887	70.5495	35.8887	70.7678	35.8887	70.5472	35.8887	70.6992	35.8887	70.5622	35.8887	70.6402	35.8887	70.5937
37.3535	72.1038	37.3535	72.0728	37.3535	72.1266	37.3535	72.0337	37.3535	72.1406	37.3535	71.9871	37.3535	72.1456	37.3535	71.9335	37.3535	72.1414	37.3535	71.8736	37.3535	72.1275	37.3535	71.8085	37.3535	72.1041	37.3535	71.7395	37.3535	72.071	37.3535	71.6683	37.3535	72.0285	37.3535	71.5972	37.3535	71.9772	37.3535	71.5289	37.3535	71.9179	37.3535	71.4661	37.3535	71.8519	37.3535	71.412	37.3535	71.7808	37.3535	71.3693	37.3535	71.7068	37.3535	71.3405	37.3535	71.6321	37.3535	71.3273	37.3535	71.5597	37.3535	71.3305	37.3535	71.4924	37.3535	71.3501	37.3535	71.4332	37.3535	71.3849
38.8184	72.9179	38.8184	72.8899	38.8184	72.9372	38.8184	72.8534	38.8184	72.9476	38.8184	72.809	38.8184	72.9489	38.8184	72.757	38.8184	72.9409	38.8184	72.6982	38.8184	72.9236	38.8184	72.6338	38.8184	72.8972	38.8184	72.5651	38.8184	72.8617	38.8184	72.494	38.8184	72.8177	38.8184	72.4228	38.8184	72.7658	38.8184	72.3541	38.8184	72.7069	38.8184	72.2909	38.8184	72.6424	38.8184	72.2363	38.8184	72.5737	38.8184	72.193	38.8184	72.5028	38.8184	72.1634	38.8184	72.4319	38.8184	72.149	38.8184	72.3636	38.8184	72.1507	38.8184	72.3003	38.8184	72.1681	38.8184	72.245	38.8184	72.2001
39.5508	73.3645	39.5508	73.3428	39.5508	73.3765	39.5508	73.3115	39.5508	73.3787	39.5508	73.271	39.5508	73.371	39.5508	73.2215	39.5508	73.3536	39.5508	73.164	39.5508	73.3267	39.5508	73.0992	39.5508	73.2905	39.5508	73.0287	39.5508	73.2457	39.5508	72.9542	39.5508	73.1928	39.5508	72.8782	39.5508	73.133	39.5508	72.8032	39.5508	73.0675	39.5508	72.7325	39.5508	72.9978	39.5508	72.6691	39.5508	72.9257	39.5508	72.6162	39.5508	72.8535	39.5508	72.5764	39.5508	72.7832	39.5508	72.5515	39.5508	72.7176	39.5508	72.5427	39.5508	72.659	39.5508	72.5502	39.5508	72.61	39.5508	72.5731
41.0156	74.819	41.0156	74.785	41.0156	74.845	41.0156	74.7435	41.0156	74.8626	41.0156	74.6952	41.0156	74.8714	41.0156	74.6406	41.0156	74.8711	41.0156	74.5806	41.0156	74.8614	41.0156	74.5165	41.0156	74.8422	41.0156	74.4495	41.0156	74.8134	41.0156	74.3815	41.0156	74.7752	41.0156	74.3147	41.0156	74.728	41.0156	74.2514	41.0156	74.6727	41.0156	74.1944	41.0156	74.6102	41.0156	74.1464	41.0156	74.5423	41.0156	74.11	41.0156	74.4707	41.0156	74.0872	41.0156	74.3979	41.0156	74.0795	41.0156	74.3264	41.0156	74.0876	41.0156	74.2592	41.0156	74.1111	41.0156	74.1991	41.0156	74.1489
42.4805	74.9623	42.4805	74.9337	42.4805	74.9827	42.4805	74.8971	42.4805	74.9947	42.4805	74.853	42.4805	74.9983	42.4805	74.8018	42.4805	74.9933	42.4805	74.7445	42.4805	74.9798	42.4805	74.6822	42.4805	74.9579	42.4805	74.6164	42.4805	74.9278	42.4805	74.549	42.4805	74.8899	42.4805	74.4823	42.4805	74.8447	42.4805	74.419	42.4805	74.7928	42.4805	74.362	42.4805	74.7353	42.4805	74.3141	42.4805	74.6732	42.4805	74.2779	42.4805	74.6082	42.4805	74.2553	42.4805	74.5421	42.4805	74.2477	42.4805	74.477	42.4805	74.2553	42.4805	74.4154	42.4805	74.2776	42.4805	74.3599	42.4805	74.3131
43.9453	75.6723	43.9453	75.6465	43.9453	75.689	43.9453	75.6119	43.9453	75.6965	43.9453	75.5688	43.9453	75.6948	43.9453	75.518	43.9453	75.684	43.9453	75.4601	43.9453	75.6642	43.9453	75.3965	43.9453	75.6357	43.9453	75.3287	43.9453	75.5991	43.9453	75.2586	43.9453	75.5548	43.9453	75.1888	43.9453	75.5036	43.9453	75.1218	43.9453	75.4466	43.9453	75.0605	43.9453	75.3849	43.9453	75.0079	43.9453	75.32	43.9453	74.9664	43.9453	75.2536	43.9453	74.9382	43.9453	75.1875	43.9453	74.9246	43.9453	75.124	43.9453	74.9261	43.9453	75.0653	43.9453	74.9424	43.9453	75.014	43.9453	74.9723
45.4102	76.3578	45.4102	76.3344	45.4102	76.3715	45.4102	76.3017	45.4102	76.3756	45.4102	76.26	45.4102	76.37	45.4102	76.2099	45.4102	76.355	45.4102	76.1524	45.4102	76.331	45.4102	76.0887	45.4102	76.2983	45.4102	76.0204	45.4102	76.2575	45.4102	75.9495	45.4102	76.2096	45.4102	75.8785	45.4102	76.1554	45.4102	75.81	45.4102	76.0961	45.4102	75.747	45.4102	76.0331	45.4102	75.6922	45.4102	75.9678	45.4102	75.6482	45.4102	75.902	45.4102	75.6171	45.4102	75.8376	45.4102	75.6001	45.4102	75.7766	45.4102	75.598	45.4102	75.7212	45.4102	75.6102	45.4102	75.6736	45.4102	75.636
47.6074	77.5444	47.6074	77.5237	47.6074	77.5552	47.6074	77.4933	47.6074	77.5561	47.6074	77.4538	47.6074	77.5473	47.6074	77.4057	47.6074	77.529	47.6074	77.3501	47.6074	77.5019	47.6074	77.2884	47.6074	77.4666	47.6074	77.2223	47.6074	77.4239	47.6074	77.154	47.6074	77.3749	47.6074	77.0858	47.6074	77.3208	47.6074	77.0204	47.6074	77.2629	47.6074	76.9605	47.6074	77.2027	47.6074	76.9087	47.6074	77.1416	47.6074	76.8671	47.6074	77.0813	47.6074	76.8376	47.6074	77.0233	47.6074	76.821	47.6074	76.9694	47.6074	76.8176	47.6074	76.9211	47.6074	76.827	47.6074	76.8802	47.6074	76.8483
49.0723	78.3339	49.0723	78.3144	49.0723	78.3435	49.0723	78.2851	49.0723	78.3432	49.0723	78.2466	49.0723	78.3332	49.0723	78.1995	49.0723	78.3141	49.0723	78.1449	49.0723	78.2864	49.0723	78.0842	49.0723	78.2508	49.0723	78.0193	49.0723	78.2084	49.0723	77.9522	49.0723	78.1603	49.0723	77.8855	49.0723	78.1077	49.0723	77.8219	49.0723	78.0518	49.0723	77.764	49.0723	77.9942	49.0723	77.7144	49.0723	77.9362	49.0723	77.675	49.0723	77.8793	49.0723	77.6474	49.0723	77.8248	49.0723	77.6324	49.0723	77.7742	49.0723	77.6299	49.0723	77.729	49.0723	77.6395	49.0723	77.6904	49.0723	77.6601
50.5371	78.9767	50.5371	78.9582	50.5371	78.9849	50.5371	78.9293	50.5371	78.9827	50.5371	78.8906	50.5371	78.9706	50.5371	78.8428	50.5371	78.949	50.5371	78.787	50.5371	78.9187	50.5371	78.7247	50.5371	78.8806	50.5371	78.6577	50.5371	78.8359	50.5371	78.5885	50.5371	78.7857	50.5371	78.5196	50.5371	78.7314	50.5371	78.4539	50.5371	78.6745	50.5371	78.3941	50.5371	78.6162	50.5371	78.3428	50.5371	78.5581	50.5371	78.3023	50.5371	78.5014	50.5371	78.2739	50.5371	78.4475	50.5371	78.2583	50.5371	78.3976	50.5371	78.2555	50.5371	78.3529	50.5371	78.2649	50.5371	78.315	50.5371	78.2852
52.7344	79.8263	52.7344	79.8081	52.7344	79.8335	52.7344	79.779	52.7344	79.8299	52.7344	79.7397	52.7344	79.8158	52.7344	79.6908	52.7344	79.7917	52.7344	79.6337	52.7344	79.7587	52.7344	79.5698	52.7344	79.7177	52.7344	79.5013	52.7344	79.67	52.7344	79.4306	52.7344	79.6169	52.7344	79.3602	52.7344	79.5601	52.7344	79.2931	52.7344	79.501	52.7344	79.2321	52.7344	79.4411	52.7344	79.1797	52.7344	79.382	52.7344	79.1381	52.7344	79.325	52.7344	79.1085	52.7344	79.2714	52.7344	79.0917	52.7344	79.2222	52.7344	79.0876	52.7344	79.1788	52.7344	79.0954	52.7344	79.1424	52.7344	79.1141
54.1992	80.5145	54.1992	80.4993	54.1992	80.5183	54.1992	80.4732	54.1992	80.5112	54.1992	80.4364	54.1992	80.4934	54.1992	80.3899	54.1992	80.4657	54.1992	80.3349	54.1992	80.4292	54.1992	80.273	54.1992	80.3849	54.1992	80.2063	54.1992	80.3344	54.1992	80.1371	54.1992	80.2792	54.1992	80.0681	54.1992	80.2211	54.1992	80.002	54.1992	80.1617	54.1992	79.9416	54.1992	80.1027	54.1992	79.8892	54.1992	80.0456	54.1992	79.8468	54.1992	79.9917	54.1992	79.8157	54.1992	79.9421	54.1992	79.7964	54.1992	79.8979	54.1992	79.7888	54.1992	79.8598	54.1992	79.7923	54.1992	79.8289	54.1992	79.8061
56.3965	81.3465	56.3965	81.3319	56.3965	81.3501	56.3965	81.3063	56.3965	81.3427	56.3965	81.2704	56.3965	81.3247	56.3965	81.2253	56.3965	81.2969	56.3965	81.1722	56.3965	81.2604	56.3965	81.1131	56.3965	81.2166	56.3965	81.05	56.3965	81.1671	56.3965	80.9853	56.3965	81.1136	56.3965	80.9218	56.3965	81.058	56.3965	80.8619	56.3965	81.0021	56.3965	80.808	56.3965	80.9475	56.3965	80.7623	56.3965	80.8959	56.3965	80.726	56.3965	80.8483	56.3965	80.6999	56.3965	80.8055	56.3965	80.6841	56.3965	80.7682	56.3965	80.6782	56.3965	80.7367	56.3965	80.6814	56.3965	80.7113	56.3965	80.6927
58.5938	82.1331	58.5938	82.115	58.5938	82.1398	58.5938	82.0857	58.5938	82.135	58.5938	82.046	58.5938	82.1193	58.5938	81.9972	58.5938	82.0935	58.5938	81.9408	58.5938	82.0586	58.5938	81.8789	58.5938	82.0162	58.5938	81.8138	58.5938	81.9679	58.5938	81.7484	58.5938	81.9155	58.5938	81.6853	58.5938	81.8611	58.5938	81.6274	58.5938	81.8065	58.5938	81.5769	58.5938	81.7533	58.5938	81.5358	58.5938	81.7031	58.5938	81.5051	58.5938	81.6568	58.5938	81.4852	58.5938	81.615	58.5938	81.4756	58.5938	81.5782	58.5938	81.4754	58.5938	81.5463	58.5938	81.4834	58.5938	81.5197	58.5938	81.4985
60.0586	82.5305	60.0586	82.5097	60.0586	82.5393	60.0586	82.4774	60.0586	82.5363	60.0586	82.4343	60.0586	82.5218	60.0586	82.3819	60.0586	82.4969	60.0586	82.3217	60.0586	82.4627	60.0586	82.2562	60.0586	82.4206	60.0586	82.1879	60.0586	82.3726	60.0586	82.1198	60.0586	82.3205	60.0586	82.0549	60.0586	82.2662	60.0586	81.9961	60.0586	82.2118	60.0586	81.946	60.0586	82.1587	60.0586	81.9065	60.0586	82.1085	60.0586	81.8785	60.0586	82.0618	60.0586	81.8622	60.0586	82.0193	60.0586	81.8569	60.0586	81.9811	60.0586	81.8613	60.0586	81.9472	60.0586	81.8738	60.0586	81.9178	60.0586	81.893
62.2559	83.113	62.2559	83.0929	62.2559	83.1203	62.2559	83.0601	62.2559	83.1146	62.2559	83.0157	62.2559	83.0967	62.2559	82.961	62.2559	83.0674	62.2559	82.8979	62.2559	83.0282	62.2559	82.8288	62.2559	82.9808	62.2559	82.7567	62.2559	82.9272	62.2559	82.6846	62.2559	82.8697	62.2559	82.6157	62.2559	82.8106	62.2559	82.5532	62.2559	82.7519	62.2559	82.4998	62.2559	82.6956	62.2559	82.4573	62.2559	82.6432	62.2559	82.4268	62.2559	82.5954	62.2559	82.4084	62.2559	82.5528	62.2559	82.4012	62.2559	82.5154	62.2559	82.4038	62.2559	82.4828	62.2559	82.4146	62.2559	82.455	62.2559	82.432
64.4531	83.6929	64.4531	83.6712	64.4531	83.7007	64.4531	83.6362	64.4531	83.6949	64.4531	83.5888	64.4531	83.6758	64.4531	83.5307	64.4531	83.6446	64.4531	83.4638	64.4531	83.6026	64.4531	83.3909	64.4531	83.5519	64.4531	83.315	64.4531	83.4945	64.4531	83.2394	64.4531	83.4329	64.4531	83.1675	64.4531	83.3696	64.4531	83.1026	64.4531	83.307	64.4531	83.0475	64.4531	83.2473	64.4531	83.0039	64.4531	83.192	64.4531	82.9729	64.4531	83.1422	64.4531	82.9543	64.4531	83.0984	64.4531	82.9471	64.4531	83.0603	64.4531	82.9497	64.4531	83.0277	64.4531	82.9604	64.4531	83.0001	64.4531	82.9775
66.6504	84.1858	66.6504	84.1597	66.6504	84.1976	66.6504	84.1196	66.6504	84.1949	66.6504	84.0667	66.6504	84.1784	66.6504	84.0028	66.6504	84.1489	66.6504	83.9299	66.6504	84.108	66.6504	83.8509	66.6504	84.0574	66.6504	83.7692	66.6504	83.9995	66.6504	83.6882	66.6504	83.9365	66.6504	83.6118	66.6504	83.8711	66.6504	83.5434	66.6504	83.8056	66.6504	83.4859	66.6504	83.7423	66.6504	83.4414	66.6504	83.6827	66.6504	83.4109	66.6504	83.628	66.6504	83.3941	66.6504	83.5787	66.6504	83.3899	66.6504	83.535	66.6504	83.3966	66.6504	83.4964	66.6504	83.412	66.6504	83.4629	66.6504	83.4346
69.5801	84.7197	69.5801	84.6928	69.5801	84.7323	69.5801	84.6522	69.5801	84.7306	69.5801	84.599	69.5801	84.7154	69.5801	84.535	69.5801	84.6878	69.5801	84.4627	69.5801	84.6494	69.5801	84.3852	69.5801	84.6023	69.5801	84.3059	69.5801	84.5488	69.5801	84.2287	69.5801	84.4915	69.5801	84.1574	69.5801	84.4329	69.5801	84.0957	69.5801	84.3753	69.5801	84.0462	69.5801	84.3206	69.5801	84.0108	69.5801	84.2699	69.5801	83.9899	69.5801	84.2238	69.5801	83.9828	69.5801	84.1823	69.5801	83.9877	69.5801	84.1448	69.5801	84.0021	69.5801	84.1105	69.5801	84.0234	69.5801	84.0787	69.5801	84.0494
71.7773	85.1356	71.7773	85.1083	71.7773	85.1477	71.7773	85.0663	71.7773	85.1446	71.7773	85.0108	71.7773	85.1271	71.7773	84.9437	71.7773	85.0965	71.7773	84.8678	71.7773	85.0547	71.7773	84.7862	71.7773	85.0039	71.7773	84.7029	71.7773	84.9468	71.7773	84.6219	71.7773	84.8862	71.7773	84.5475	71.7773	84.8249	71.7773	84.4835	71.7773	84.7654	71.7773	84.433	71.7773	84.7097	71.7773	84.3976	71.7773	84.6591	71.7773	84.3778	71.7773	84.614	71.7773	84.3724	71.7773	84.5739	71.7773	84.3794	71.7773	84.5381	71.7773	84.3958	71.7773	84.5052	71.7773	84.4185	71.7773	84.4744	71.7773	84.4453
73.9746	85.5506	73.9746	85.5229	73.9746	85.5627	73.9746	85.4798	73.9746	85.5591	73.9746	85.4227	73.9746	85.5407	73.9746	85.3536	73.9746	85.5091	73.9746	85.2751	73.9746	85.466	73.9746	85.1907	73.9746	85.4141	73.9746	85.1045	73.9746	85.3561	73.9746	85.0208	73.9746	85.2949	73.9746	84.944	73.9746	85.2334	73.9746	84.8784	73.9746	85.1741	73.9746	84.827	73.9746	85.119	73.9746	84.7918	73.9746	85.0692	73.9746	84.7732	73.9746	85.0249	73.9746	84.77	73.9746	84.9855	73.9746	84.7796	73.9746	84.9499	73.9746	84.7989	73.9746	84.9166	73.9746	84.8246	73.9746	84.8847	73.9746	84.8538
76.9043	86.0192	76.9043	85.9974	76.9043	86.0245	76.9043	85.9596	76.9043	86.0138	76.9043	85.9071	76.9043	85.988	76.9043	85.8417	76.9043	85.9488	76.9043	85.7664	76.9043	85.8986	76.9043	85.6845	76.9043	85.8402	76.9043	85.6002	76.9043	85.7769	76.9043	85.5178	76.9043	85.712	76.9043	85.4421	76.9043	85.6488	76.9043	85.3769	76.9043	85.5902	76.9043	85.3255	76.9043	85.538	76.9043	85.2897	76.9043	85.4934	76.9043	85.2699	76.9043	85.4562	76.9043	85.2646	76.9043	85.4253	76.9043	85.2712	76.9043	85.3989	76.9043	85.2862	76.9043	85.375	76.9043	85.3064	76.9043	85.3519	76.9043	85.3289
79.834	86.4781	79.834	86.458	79.834	86.4805	79.834	86.421	79.834	86.4657	79.834	86.3683	79.834	86.4347	79.834	86.3021	79.834	86.3893	79.834	86.2254	79.834	86.3321	79.834	86.1419	79.834	86.2663	79.834	86.056	79.834	86.1955	79.834	85.9721	79.834	86.1237	79.834	85.8951	79.834	86.0547	79.834	85.829	79.834	85.9918	79.834	85.777	79.834	85.9375	79.834	85.7406	79.834	85.893	79.834	85.7199	79.834	85.8582	79.834	85.7132	79.834	85.8316	79.834	85.7175	79.834	85.8111	79.834	85.7292	79.834	85.7939	79.834	85.7448	79.834	85.7779	79.834	85.7615
82.7637	86.8233	82.7637	86.8024	82.7637	86.8259	82.7637	86.7638	82.7637	86.8101	82.7637	86.709	82.7637	86.7771	82.7637	86.6405	82.7637	86.7286	82.7637	86.5615	82.7637	86.6672	82.7637	86.4759	82.7637	86.5963	82.7637	86.3881	82.7637	86.5198	82.7637	86.3031	82.7637	86.442	82.7637	86.2255	82.7637	86.3672	82.7637	86.1592	82.7637	86.2991	82.7637	86.1073	82.7637	86.2408	82.7637	86.0712	82.7637	86.1939	82.7637	86.0504	82.7637	86.1583	82.7637	86.0429	82.7637	86.1329	82.7637	86.0456	82.7637	86.1151	82.7637	86.0546	82.7637	86.1018	82.7637	86.0664	82.7637	86.0903	82.7637	86.0787
85.6934	87.0759	85.6934	87.0487	85.6934	87.0845	85.6934	87.0038	85.6934	87.0746	85.6934	86.9429	85.6934	87.0472	85.6934	86.8689	85.6934	87.0042	85.6934	86.7853	85.6934	86.9482	85.6934	86.6967	85.6934	86.8828	85.6934	86.6081	85.6934	86.8121	85.6934	86.5246	85.6934	86.7404	85.6934	86.4515	85.6934	86.6721	85.6934	86.3928	85.6934	86.6108	85.6934	86.3513	85.6934	86.5593	85.6934	86.3278	85.6934	86.5189	85.6934	86.3213	85.6934	86.4892	85.6934	86.3286	85.6934	86.4683	85.6934	86.3455	85.6934	86.4533	85.6934	86.3674	85.6934	86.4405	85.6934	86.3899	85.6934	86.4268	85.6934	86.4102
88.623	87.3792	88.623	87.3524	88.623	87.3862	88.623	87.3066	88.623	87.3736	88.623	87.2438	88.623	87.3425	88.623	87.1667	88.623	87.295	88.623	87.0794	88.623	87.2342	88.623	86.9867	88.623	87.1639	88.623	86.8939	88.623	87.0888	88.623	86.8068	88.623	87.0135	88.623	86.731	88.623	86.9428	88.623	86.6709	88.623	86.8809	88.623	86.6296	88.623	86.8304	88.623	86.6079	88.623	86.7927	88.623	86.6043	88.623	86.767	88.623	86.6152	88.623	86.7509	88.623	86.6359	88.623	86.7406	88.623	86.6609	88.623	86.732	88.623	86.6853	88.623	86.7213	88.623	86.7059
91.5527	87.606	91.5527	87.579	91.5527	87.6118	91.5527	87.5317	91.5527	87.5965	91.5527	87.4661	91.5527	87.5614	91.5527	87.3853	91.5527	87.5088	91.5527	87.2934	91.5527	87.442	91.5527	87.1957	91.5527	87.3652	91.5527	87.0979	91.5527	87.2834	91.5527	87.0063	91.5527	87.2021	91.5527	86.9267	91.5527	87.1263	91.5527	86.864	91.5527	87.0608	91.5527	86.8215	91.5527	87.0086	91.5527	86.7998	91.5527	86.971	91.5527	86.7973	91.5527	86.9472	91.5527	86.81	91.5527	86.9343	91.5527	86.8324	91.5527	86.9279	91.5527	86.8585	91.5527	86.9232	91.5527	86.8832	91.5527	86.9158	91.5527	86.9028
94.4824	87.8001	94.4824	87.7738	94.4824	87.8033	94.4824	87.7254	94.4824	87.7837	94.4824	87.6571	94.4824	87.7424	94.4824	87.5722	94.4824	87.6821	94.4824	87.475	94.4824	87.6062	94.4824	87.371	94.4824	87.5194	94.4824	87.2665	94.4824	87.4272	94.4824	87.1681	94.4824	87.3356	94.4824	87.0822	94.4824	87.2507	94.4824	87.0141	94.4824	87.1776	94.4824	86.9673	94.4824	87.1202	94.4824	86.9426	94.4824	87.08	94.4824	86.938	94.4824	87.0563	94.4824	86.9492	94.4824	87.0457	94.4824	86.9703	94.4824	87.0433	94.4824	86.9946	94.4824	87.0435	94.4824	87.0167	94.4824	87.0411	94.4824	87.0326
98.1445	88.0084	98.1445	87.9781	98.1445	88.0148	98.1445	87.9249	98.1445	87.9972	98.1445	87.8511	98.1445	87.9569	98.1445	87.7603	98.1445	87.8964	98.1445	87.6571	98.1445	87.8193	98.1445	87.5474	98.1445	87.7303	98.1445	87.4377	98.1445	87.6351	98.1445	87.3349	98.1445	87.5397	98.1445	87.2457	98.1445	87.4505	98.1445	87.1753	98.1445	87.3729	98.1445	87.1274	98.1445	87.3108	98.1445	87.1024	98.1445	87.2661	98.1445	87.0984	98.1445	87.238	98.1445	87.1106	98.1445	87.2236	98.1445	87.1329	98.1445	87.2179	98.1445	87.1587	98.1445	87.2152	98.1445	87.1823	98.1445	87.2105	98.1445	87.2
101.807	88.1199	101.807	88.0875	101.807	88.126	101.807	88.0301	101.807	88.106	101.807	87.9504	101.807	88.0613	101.807	87.8523	101.807	87.9945	101.807	87.7409	101.807	87.9097	101.807	87.6229	101.807	87.8122	101.807	87.5056	101.807	87.7085	101.807	87.397	101.807	87.6056	101.807	87.3044	101.807	87.5107	101.807	87.2339	101.807	87.4302	101.807	87.189	101.807	87.3684	101.807	87.1702	101.807	87.3274	101.807	87.1743	101.807	87.306	101.807	87.1955	101.807	87.3001	101.807	87.2262	101.807	87.3035	101.807	87.2585	101.807	87.3092	101.807	87.2857	101.807	87.3108	101.807	87.3036
105.469	88.2991	105.469	88.263	105.469	88.3077	105.469	88.2006	105.469	88.2888	105.469	88.1146	105.469	88.244	105.469	88.0091	105.469	88.1758	105.469	87.8895	105.469	88.0885	105.469	87.7625	105.469	87.9875	105.469	87.6361	105.469	87.8793	105.469	87.5186	105.469	87.7711	105.469	87.4181	105.469	87.6705	105.469	87.341	105.469	87.5839	105.469	87.2915	105.469	87.5162	105.469	87.2702	105.469	87.4695	105.469	87.2739	105.469	87.4429	105.469	87.2965	105.469	87.4322	105.469	87.33	105.469	87.4313	105.469	87.3659	105.469	87.4329	105.469	87.3972	105.469	87.4304	105.469	87.4191
109.131	88.4939	109.131	88.4614	109.131	88.4974	109.131	88.4012	109.131	88.4721	109.131	88.316	109.131	88.4194	109.131	88.2101	109.131	88.3427	109.131	88.0892	109.131	88.2464	109.131	87.9605	109.131	88.1366	109.131	87.8322	109.131	88.0208	109.131	87.7131	109.131	87.907	109.131	87.6116	109.131	87.8034	109.131	87.5348	109.131	87.7173	109.131	87.4865	109.131	87.6535	109.131	87.4674	109.131	87.6141	109.131	87.474	109.131	87.5972	109.131	87.4994	109.131	87.5975	109.131	87.535	109.131	87.6078	109.131	87.5717	109.131	87.6196	109.131	87.6018	109.131	87.6255	109.131	87.6203
112.793	88.6697	112.793	88.6344	112.793	88.6742	112.793	88.5699	112.793	88.6478	112.793	88.4794	112.793	88.592	112.793	88.3676	112.793	88.5098	112.793	88.2408	112.793	88.4061	112.793	88.1069	112.793	88.2872	112.793	87.9748	112.793	88.1611	112.793	87.854	112.793	88.0369	112.793	87.7533	112.793	87.9239	112.793	87.6797	112.793	87.8305	112.793	87.6369	112.793	87.7629	112.793	87.6245	112.793	87.7236	112.793	87.6379	112.793	87.711	112.793	87.6691	112.793	87.7193	112.793	87.7082	112.793	87.74	112.793	87.7453	112.793	87.7633	112.793	87.7722	112.793	87.7802	112.793	87.7842
116.455	88.8049	116.455	88.7648	116.455	88.8119	116.455	88.6931	116.455	88.7857	116.455	88.5932	116.455	88.7278	116.455	88.4699	116.455	88.6414	116.455	88.3301	116.455	88.5315	116.455	88.182	116.455	88.4048	116.455	88.0357	116.455	88.2696	116.455	87.9017	116.455	88.1358	116.455	87.7901	116.455	88.0133	116.455	87.7091	116.455	87.9116	116.455	87.6632	116.455	87.8374	116.455	87.6521	116.455	87.7939	116.455	87.6705	116.455	87.7793	116.455	87.7092	116.455	87.7876	116.455	87.7568	116.455	87.8092	116.455	87.802	116.455	87.8334	116.455	87.8356	116.455	87.8501	116.455	87.852
120.85	88.9666	120.85	88.9171	120.85	88.9815	120.85	88.835	120.85	88.9615	120.85	88.7237	120.85	88.9079	120.85	88.5884	120.85	88.8232	120.85	88.4358	120.85	88.7119	120.85	88.2746	120.85	88.5804	120.85	88.1149	120.85	88.4367	120.85	87.9678	120.85	88.2903	120.85	87.8436	120.85	88.1516	120.85	87.7509	120.85	88.0307	120.85	87.6947	120.85	87.9357	120.85	87.6749	120.85	87.8711	120.85	87.6865	120.85	87.8369	120.85	87.72	120.85	87.8282	120.85	87.7642	120.85	87.8363	120.85	87.8075	120.85	87.8505	120.85	87.8407	120.85	87.8606	120.85	87.8587
125.244	89.0243	125.244	88.9706	125.244	89.0426	125.244	88.8831	125.244	89.0257	125.244	88.765	125.244	88.9753	125.244	88.6213	125.244	88.8945	125.244	88.4593	125.244	88.7885	125.244	88.288	125.244	88.6638	125.244	88.1186	125.244	88.5288	125.244	87.9633	125.244	88.3929	125.244	87.834	125.244	88.2661	125.244	87.7406	125.244	88.1575	125.244	87.6889	125.244	88.074	125.244	87.6791	125.244	88.0189	125.244	87.7055	125.244	87.9908	125.244	87.7576	125.244	87.9839	125.244	87.8223	125.244	87.9892	125.244	87.8868	125.244	87.9959	125.244	87.9404	125.244	87.9942	125.244	87.9767
129.639	89.025	129.639	88.9828	129.639	89.0305	129.639	88.9053	129.639	88.9998	129.639	88.7954	129.639	88.9351	129.639	88.658	129.639	88.8404	129.639	88.5003	129.639	88.7213	129.639	88.3313	129.639	88.5857	129.639	88.1623	129.639	88.4429	129.639	88.0056	129.639	88.3036	129.639	87.8737	129.639	88.1785	129.639	87.7773	129.639	88.0771	129.639	87.7227	129.639	88.006	129.639	87.7109	129.639	87.9672	129.639	87.7366	129.639	87.9576	129.639	87.7891	129.639	87.9692	129.639	87.855	129.639	87.991	129.639	87.9203	129.639	88.0111	129.639	87.9737	129.639	88.019	129.639	88.0074
134.033	89.0112	134.033	88.9758	134.033	89.008	134.033	88.9035	134.033	88.9665	134.033	88.7976	134.033	88.8886	134.033	88.6638	134.033	88.7784	134.033	88.5094	134.033	88.6422	134.033	88.3442	134.033	88.4885	134.033	88.1797	134.033	88.328	134.033	88.0285	134.033	88.1733	134.033	87.903	134.033	88.0371	134.033	87.8133	134.033	87.931	134.033	87.7654	134.033	87.8628	134.033	87.759	134.033	87.8348	134.033	87.7878	134.033	87.8432	134.033	87.8403	134.033	87.8781	134.033	87.9022	134.033	87.9261	134.033	87.9592	134.033	87.9728	134.033	87.9995	134.033	88.0055	134.033	88.0156
138.428	88.989	138.428	88.9478	138.428	88.9893	138.428	88.868	138.428	88.9483	138.428	88.7537	138.428	88.8678	138.428	88.6111	138.428	88.7514	138.428	88.4487	138.428	88.6053	138.428	88.2771	138.428	88.4384	138.428	88.1088	138.428	88.2622	138.428	87.9572	138.428	88.0903	138.428	87.835	138.428	87.9375	138.428	87.7521	138.428	87.8175	138.428	87.7134	138.428	87.7405	138.428	87.7172	138.428	87.7101	138.428	87.7553	138.428	87.723	138.428	87.8142	138.428	87.7685	138.428	87.8785	138.428	87.8315	138.428	87.933	138.428	87.8953	138.428	87.966	138.428	87.9452	138.428	87.9704
143.555	88.9689	143.555	88.9063	143.555	88.9878	143.555	88.8022	143.555	88.9622	143.555	88.6614	143.555	88.8936	143.555	88.4909	143.555	88.7855	143.555	88.3003	143.555	88.6439	143.555	88.1021	143.555	88.4771	143.555	87.9107	143.555	88.2965	143.555	87.7422	143.555	88.1158	143.555	87.6114	143.555	87.9502	143.555	87.5295	143.555	87.8144	143.555	87.5011	143.555	87.7202	143.555	87.5226	143.555	87.6732	143.555	87.5827	143.555	87.6717	143.555	87.6647	143.555	87.7059	143.555	87.7502	143.555	87.7608	143.555	87.8223	143.555	87.8187	143.555	87.8685	143.555	87.8633	143.555	87.8821
148.682	89.0281	148.682	88.9626	148.682	89.0461	148.682	88.8513	148.682	89.0165	148.682	88.6985	148.682	88.9416	148.682	88.5107	148.682	88.8255	148.682	88.2976	148.682	88.6751	148.682	88.0721	148.682	88.4996	148.682	87.8503	148.682	88.3113	148.682	87.6505	148.682	88.1248	148.682	87.4909	148.682	87.956	148.682	87.3865	148.682	87.8199	148.682	87.3451	148.682	87.7278	148.682	87.3649	148.682	87.6841	148.682	87.4341	148.682	87.6853	148.682	87.5341	148.682	87.7199	148.682	87.6433	148.682	87.7711	148.682	87.7416	148.682	87.8203	148.682	87.8137	148.682	87.8509	148.682	87.8506
153.809	88.9293	153.809	88.8667	153.809	88.9408	153.809	88.7549	153.809	88.9014	153.809	88.5976	153.809	88.8133	153.809	88.4014	153.809	88.6807	153.809	88.1755	153.809	88.5106	153.809	87.9329	153.809	88.3127	153.809	87.6897	153.809	88.1	153.809	87.465	153.809	87.8883	153.809	87.2784	153.809	87.6949	153.809	87.1468	153.809	87.5366	153.809	87.0803	153.809	87.4263	153.809	87.0791	153.809	87.3697	153.809	87.1325	153.809	87.3631	153.809	87.222	153.809	87.3942	153.809	87.3251	153.809	87.4448	153.809	87.4204	153.809	87.4948	153.809	87.491	153.809	87.5265	153.809	87.5271
159.668	89.0418	159.668	88.9884	159.668	89.0429	159.668	88.8848	159.668	88.992	159.668	88.7349	159.668	88.891	159.668	88.5452	159.668	88.7443	159.668	88.3251	159.668	88.5589	159.668	88.0874	159.668	88.3452	159.668	87.8483	159.668	88.1169	159.668	87.627	159.668	87.8912	159.668	87.4431	159.668	87.6873	159.668	87.3135	159.668	87.5239	159.668	87.2482	159.668	87.4154	159.668	87.2471	159.668	87.3679	159.668	87.2993	159.668	87.377	159.668	87.3855	159.668	87.4287	159.668	87.4828	159.668	87.5023	159.668	87.5693	159.668	87.5755	159.668	87.6279	159.668	87.6288	159.668	87.6484
164.795	89.1244	164.795	89.0709	164.795	89.1251	164.795	88.9667	164.795	89.0726	164.795	88.8163	164.795	88.9688	164.795	88.6262	164.795	88.8176	164.795	88.4063	164.795	88.6258	164.795	88.1697	164.795	88.4039	164.795	87.933	164.795	88.1659	164.795	87.7156	164.795	87.9299	164.795	87.5372	164.795	87.7165	164.795	87.4148	164.795	87.5462	164.795	87.3577	164.795	87.4354	164.795	87.3648	164.795	87.3915	164.795	87.4243	164.795	87.4101	164.795	87.5155	164.795	87.4762	164.795	87.6147	164.795	87.5671	164.795	87.6993	164.795	87.6584	164.795	87.7517	164.795	87.7284	164.795	87.7619
170.654	89.0933	170.654	89.02	170.654	89.1114	170.654	88.8943	170.654	89.0737	170.654	88.7211	170.654	88.9817	170.654	88.508	170.654	88.8388	170.654	88.2663	170.654	88.6514	170.654	88.0111	170.654	88.4294	170.654	87.7616	170.654	88.1866	170.654	87.5401	170.654	87.9414	170.654	87.3688	170.654	87.7153	170.654	87.2652	170.654	87.5311	170.654	87.2371	170.654	87.4079	170.654	87.2793	170.654	87.3562	170.654	87.3745	170.654	87.3737	170.654	87.4973	170.654	87.4457	170.654	87.6201	170.654	87.5481	170.654	87.7187	170.654	87.6537	170.654	87.7754	170.654	87.7377	170.654	87.7816
176.514	88.9359	176.514	88.8649	176.514	88.9496	176.514	88.7378	176.514	88.9066	176.514	88.5582	176.514	88.8094	176.514	88.3324	176.514	88.663	176.514	88.0703	176.514	88.4747	176.514	87.7864	176.514	88.2555	176.514	87.5008	176.514	88.0202	176.514	87.238	176.514	87.7871	176.514	87.0249	176.514	87.5773	176.514	86.8857	176.514	87.4117	176.514	86.8347	176.514	87.3062	176.514	86.8711	176.514	87.2677	176.514	86.9784	176.514	87.2907	176.514	87.1285	176.514	87.3582	176.514	87.2892	176.514	87.4457	176.514	87.4314	176.514	87.5268	176.514	87.5333	176.514	87.5781	176.514	87.5829
183.105	88.7978	183.105	88.7416	183.105	88.7932	183.105	88.6265	183.105	88.7279	183.105	88.4564	183.105	88.6043	183.105	88.238	183.105	88.4271	183.105	87.9813	183.105	88.2041	183.105	87.7008	183.105	87.9473	183.105	87.4158	183.105	87.6735	183.105	87.1501	183.105	87.404	183.105	86.9298	183.105	87.164	183.105	86.7784	183.105	86.9783	183.105	86.7106	183.105	86.8662	183.105	86.727	183.105	86.8352	183.105	86.8125	183.105	86.8776	183.105	86.9407	183.105	86.9723	183.105	87.0803	183.105	87.0904	183.105	87.2018	183.105	87.2016	183.105	87.2829	183.105	87.2806	183.105	87.3101
189.697	88.824	189.697	88.7618	189.697	88.8208	189.697	88.6368	189.697	88.7514	189.697	88.4542	189.697	88.6175	189.697	88.2222	189.697	88.4232	189.697	87.9526	189.697	88.1763	189.697	87.6617	189.697	87.889	189.697	87.3708	189.697	87.5788	189.697	87.1051	189.697	87.2695	189.697	86.8906	189.697	86.9894	189.697	86.749	189.697	86.768	189.697	86.6916	189.697	86.6294	189.697	86.7146	189.697	86.5847	189.697	86.7999	189.697	86.6273	189.697	86.9192	189.697	86.7348	189.697	87.0415	189.697	86.875	189.697	87.1391	189.697	87.0144	189.697	87.1913	189.697	87.1249	189.697	87.187
196.289	88.8949	196.289	88.8141	196.289	88.9064	196.289	88.6664	196.289	88.848	196.289	88.4571	196.289	88.7219	196.289	88.1952	196.289	88.5328	196.289	87.894	196.289	88.2889	196.289	87.5728	196.289	88.0033	196.289	87.2576	196.289	87.6952	196.289	86.9796	196.289	87.3899	196.289	86.771	196.289	87.1181	196.289	86.6575	196.289	86.9113	196.289	86.6496	196.289	86.7946	196.289	86.7376	196.289	86.7782	196.289	86.894	196.289	86.853	196.289	87.0816	196.289	86.9923	196.289	87.2626	196.289	87.1602	196.289	87.4055	196.289	87.3197	196.289	87.4882	196.289	87.4401	196.289	87.4998
202.881	88.6193	202.881	88.5349	202.881	88.6315	202.881	88.3809	202.881	88.5713	202.881	88.1625	202.881	88.4405	202.881	87.8884	202.881	88.244	202.881	87.5721	202.881	87.9902	202.881	87.2331	202.881	87.6928	202.881	86.8985	202.881	87.3719	202.881	86.6015	202.881	87.055	202.881	86.3777	202.881	86.7753	202.881	86.2564	202.881	86.5678	202.881	86.2511	202.881	86.4595	202.881	86.3529	202.881	86.4605	202.881	86.5323	202.881	86.5586	202.881	86.7484	202.881	86.7223	202.881	86.9592	202.881	86.9107	202.881	87.1297	202.881	87.0833	202.881	87.2348	202.881	87.2074	202.881	87.2613
210.205	88.4452	210.205	88.3374	210.205	88.4711	210.205	88.1497	210.205	88.4155	210.205	87.8865	210.205	88.2808	210.205	87.5564	210.205	88.0722	210.205	87.1738	210.205	87.7988	210.205	86.7612	210.205	87.475	210.205	86.3522	210.205	87.1229	210.205	85.9907	210.205	86.7729	210.205	85.7253	210.205	86.4631	210.205	85.5969	210.205	86.2339	210.205	85.6224	210.205	86.1171	210.205	85.785	210.205	86.1243	210.205	86.0408	210.205	86.2406	210.205	86.3336	210.205	86.4286	210.205	86.6109	210.205	86.641	210.205	86.8321	210.205	86.8319	210.205	86.9711	210.205	86.9649	210.205	87.0154
217.529	88.5282	217.529	88.4387	217.529	88.5316	217.529	88.2638	217.529	88.4498	217.529	88.0065	217.529	88.2854	217.529	87.6731	217.529	88.0437	217.529	87.2751	217.529	87.734	217.529	86.8322	217.529	87.3715	217.529	86.3755	217.529	86.9798	217.529	85.9493	217.529	86.5924	217.529	85.6079	217.529	86.2518	217.529	85.4034	217.529	86.0031	217.529	85.3666	217.529	85.8811	217.529	85.4914	217.529	85.8961	217.529	85.7353	217.529	86.0281	217.529	86.0371	217.529	86.2328	217.529	86.336	217.529	86.4569	217.529	86.5839	217.529	86.6514	217.529	86.7489	217.529	86.7786	217.529	86.8147
225.586	88.7994	225.586	88.7255	225.586	88.7752	225.586	88.5552	225.586	88.652	225.586	88.2915	225.586	88.4306	225.586	87.9404	225.586	88.1137	225.586	87.5126	225.586	87.709	225.586	87.0276	225.586	87.2319	225.586	86.5183	225.586	86.7108	225.586	86.0346	225.586	86.1925	225.586	85.6426	225.586	85.7434	225.586	85.4104	225.586	85.4402	225.586	85.3816	225.586	85.3426	225.586	85.5506	225.586	85.4619	225.586	85.8628	225.586	85.7512	225.586	86.2388	225.586	86.1288	225.586	86.6024	225.586	86.5105	225.586	86.8948	225.586	86.8302	225.586	87.0775	225.586	87.0445	225.586	87.1295
232.91	89.1729	232.91	89.0893	232.91	89.1624	232.91	88.9138	232.91	89.0555	232.91	88.6484	232.91	88.8497	232.91	88.2965	232.91	88.5427	232.91	87.8646	232.91	88.1344	232.91	87.365	232.91	87.6287	232.91	86.8207	232.91	87.0384	232.91	86.2697	232.91	86.3923	232.91	85.7687	232.91	85.7431	232.91	85.3868	232.91	85.1732	232.91	85.1852	232.91	84.7819	232.91	85.1877	232.91	84.6467	232.91	85.3633	232.91	84.7739	232.91	85.6394	232.91	85.0905	232.91	85.9314	232.91	85.4859	232.91	86.167	232.91	85.8587	232.91	86.2958	232.91	86.1393	232.91	86.2893
241.699	88.8996	241.699	88.7867	241.699	88.9243	241.699	88.5862	241.699	88.8598	241.699	88.2989	241.699	88.7051	241.699	87.9271	241.699	88.4593	241.699	87.4763	241.699	88.1226	241.699	86.9586	241.699	87.6985	241.699	86.3975	241.699	87.1966	241.699	85.8328	241.699	86.6373	241.699	85.3241	241.699	86.0576	241.699	84.9437	241.699	85.5157	241.699	84.7538	241.699	85.0867	241.699	84.7745	241.699	84.8416	241.699	84.9681	241.699	84.8132	241.699	85.2559	241.699	84.973	241.699	85.5516	241.699	85.2439	241.699	85.7848	241.699	85.5357	241.699	85.91	241.699	85.7728	241.699	85.9056
249.756	89.1071	249.756	89.0274	249.756	89.0955	249.756	88.8572	249.756	88.9915	249.756	88.5975	249.756	88.7935	249.756	88.2498	249.756	88.5006	249.756	87.8185	249.756	88.113	249.756	87.3131	249.756	87.6345	249.756	86.7525	249.756	87.0758	249.756	86.1701	249.756	86.46	249.756	85.6188	249.756	85.8289	249.756	85.1678	249.756	85.2485	249.756	84.886	249.756	84.8028	249.756	84.8109	249.756	84.5677	249.756	84.9243	249.756	84.5705	249.756	85.1579	249.756	84.7694	249.756	85.4247	249.756	85.0741	249.756	85.6471	249.756	85.3876	249.756	85.7715	249.756	85.6347	249.756	85.769
258.545	88.9728	258.545	88.8695	258.545	88.9897	258.545	88.6811	258.545	88.9194	258.545	88.4094	258.545	88.761	258.545	88.0578	258.545	88.5144	258.545	87.6333	258.545	88.1809	258.545	87.1489	258.545	87.7651	258.545	86.628	258.545	87.2775	258.545	86.1083	258.545	86.7388	258.545	85.6431	258.545	86.1844	258.545	85.2949	258.545	85.6682	258.545	85.1156	258.545	85.2584	258.545	85.1207	258.545	85.0195	258.545	85.2778	258.545	84.9821	258.545	85.5191	258.545	85.1232	258.545	85.7682	258.545	85.3749	258.545	85.9612	258.545	85.6541	258.545	86.0555	258.545	85.8889	258.545	86.0308
268.066	88.6306	268.066	88.509	268.066	88.6517	268.066	88.2871	268.066	88.5721	268.066	87.9652	268.066	88.3911	268.066	87.5453	268.066	88.1082	268.066	87.034	268.066	87.7243	268.066	86.4467	268.066	87.2437	268.066	85.8147	268.066	86.6779	268.066	85.1928	268.066	86.0523	268.066	84.6629	268.066	85.4135	268.066	84.3199	268.066	84.8366	268.066	84.2317	268.066	84.4175	268.066	84.396	268.066	84.241	268.066	84.7369	268.066	84.3309	268.066	85.1457	268.066	84.6301	268.066	85.5238	268.066	85.0314	268.066	85.8017	268.066	85.4276	268.066	85.9386	268.066	85.739	268.066	85.917
277.588	88.8449	277.588	88.7631	277.588	88.8304	277.588	88.5829	277.588	88.7207	277.588	88.302	277.588	88.517	277.588	87.9183	277.588	88.2209	277.588	87.4317	277.588	87.8361	277.588	86.8474	277.588	87.3707	277.588	86.182	277.588	86.8403	277.588	85.4733	277.588	86.2732	277.588	84.7911	277.588	85.7153	277.588	84.2408	277.588	85.2308	277.588	83.9375	277.588	84.8921	277.588	83.9439	277.588	84.7535	277.588	84.2216	277.588	84.8203	277.588	84.6535	277.588	85.0412	277.588	85.1098	277.588	85.3313	277.588	85.4931	277.588	85.6036	277.588	85.7462	277.588	85.7898	277.588	85.8448
287.109	88.6893	287.109	88.6092	287.109	88.6649	287.109	88.4251	287.109	88.5343	287.109	88.1365	287.109	88.2947	287.109	87.7427	287.109	87.9431	287.109	87.2455	287.109	87.4779	287.109	86.6525	287.109	86.9025	287.109	85.9848	287.109	86.231	287.109	85.2864	287.109	85.4983	287.109	84.6358	287.109	84.7733	287.109	84.1448	287.109	84.1676	287.109	83.924	287.109	83.8145	287.109	84.0182	287.109	83.8011	287.109	84.3683	287.109	84.1007	287.109	84.8475	287.109	84.5873	287.109	85.3273	287.109	85.1132	287.109	85.7136	287.109	85.5649	287.109	85.9493	287.109	85.8738	287.109	86.0055
297.363	89.2168	297.363	89.1384	297.363	89.1916	297.363	88.9562	297.363	89.0598	297.363	88.667	297.363	88.815	297.363	88.2661	297.363	88.4477	297.363	87.7486	297.363	87.9461	297.363	87.1134	297.363	87.2976	297.363	86.3691	297.363	86.4924	297.363	85.5464	297.363	85.5319	297.363	84.7145	297.363	84.4475	297.363	83.9971	297.363	83.3389	297.363	83.5532	297.363	82.4195	297.363	83.4927	297.363	81.9832	297.363	83.7827	297.363	82.183	297.363	84.2654	297.363	82.8529	297.363	84.7624	297.363	83.6786	297.363	85.1422	297.363	84.4246	297.363	85.3268	297.363	84.9721	297.363	85.2754
307.617	89.3201	307.617	89.2063	307.617	89.3491	307.617	89.0071	307.617	89.2915	307.617	88.7195	307.617	89.1427	307.617	88.3391	307.617	88.8957	307.617	87.862	307.617	88.5416	307.617	87.2879	307.617	88.071	307.617	86.6261	307.617	87.4758	307.617	85.9051	307.617	86.7543	307.617	85.1862	307.617	85.9203	307.617	84.5726	307.617	85.0218	307.617	84.1912	307.617	84.1665	307.617	84.1282	307.617	83.5321	307.617	84.3589	307.617	83.3023	307.617	84.7559	307.617	83.5219	307.617	85.1654	307.617	84.0427	307.617	85.4659	307.617	84.6436	307.617	85.5824	307.617	85.1538	307.617	85.479
318.604	89.4821	318.604	89.3829	318.604	89.4798	318.604	89.1792	318.604	89.3768	318.604	88.8662	318.604	89.1719	318.604	88.4377	318.604	88.862	318.604	87.8874	318.604	88.4428	318.604	87.2111	318.604	87.9093	318.604	86.4122	318.604	87.2586	318.604	85.5127	318.604	86.4944	318.604	84.5721	318.604	85.6368	318.604	83.7111	318.604	84.7391	318.604	83.1102	318.604	83.9083	318.604	82.9272	318.604	83.3064	318.604	83.1641	318.604	83.0838	318.604	83.6532	318.604	83.2614	318.604	84.1849	318.604	83.6992	318.604	84.6061	318.604	84.2	318.604	84.8331	318.604	84.6081	318.604	84.8326
329.59	89.5616	329.59	89.4813	329.59	89.5552	329.59	89.3117	329.59	89.4615	329.59	89.0477	329.59	89.277	329.59	88.6825	329.59	88.9953	329.59	88.2083	329.59	88.6078	329.59	87.6193	329.59	88.1042	329.59	86.9156	329.59	87.4748	329.59	86.1114	329.59	86.7138	329.59	85.249	329.59	85.8273	329.59	84.416	329.59	84.85	329.59	83.7508	329.59	83.8715	329.59	83.397	329.59	83.0595	329.59	83.4051	329.59	82.622	329.59	83.6796	329.59	82.6622	329.59	84.0452	329.59	83.0688	329.59	84.3447	329.59	83.6104	329.59	84.4767	329.59	84.0894	329.59	84.393
341.309	88.7243	341.309	88.6852	341.309	88.6655	341.309	88.5435	341.309	88.5115	341.309	88.2927	341.309	88.2634	341.309	87.9252	341.309	87.9211	341.309	87.4337	341.309	87.4848	341.309	86.8144	341.309	86.9571	341.309	86.0741	341.309	86.3466	341.309	85.243	341.309	85.6747	341.309	84.3955	341.309	84.9857	341.309	83.6713	341.309	84.3576	341.309	83.2548	341.309	83.8999	341.309	83.2702	341.309	83.7182	341.309	83.6678	341.309	83.8483	341.309	84.26	341.309	84.2218	341.309	84.8537	341.309	84.7042	341.309	85.3202	341.309	85.1622	341.309	85.594	341.309	85.4979	341.309	85.6517
353.76	89.1012	353.76	89.0155	353.76	89.0953	353.76	88.8367	353.76	88.9942	353.76	88.5582	353.76	88.7893	353.76	88.1695	353.76	88.467	353.76	87.6574	353.76	88.0096	353.76	87.0084	353.76	87.3954	353.76	86.2136	353.76	86.5997	353.76	85.2796	353.76	85.5982	353.76	84.2503	353.76	84.3782	353.76	83.2434	353.76	82.973	353.76	82.4777	353.76	81.5468	353.76	82.1976	353.76	80.5136	353.76	82.4616	353.76	80.3826	353.76	83.0633	353.76	81.1399	353.76	83.7182	353.76	82.2481	353.76	84.2236	353.76	83.2654	353.76	84.4701	353.76	84.0023	353.76	84.4043
366.211	88.7802	366.211	88.6421	366.211	88.8412	366.211	88.4226	366.211	88.8243	366.211	88.1125	366.211	88.7231	366.211	87.6983	366.211	88.5268	366.211	87.1643	366.211	88.2206	366.211	86.4954	366.211	87.7862	366.211	85.6829	366.211	87.2034	366.211	84.7372	366.211	86.4518	366.211	83.7135	366.211	85.5167	366.211	82.7509	366.211	84.4046	366.211	82.0887	366.211	83.1803	366.211	81.9517	366.211	82.0353	366.211	82.3314	366.211	81.3219	366.211	82.976	366.211	81.3384	366.211	83.6071	366.211	81.9712	366.211	84.0454	366.211	82.8192	366.211	84.2013	366.211	83.5603	366.211	84.0389
378.662	88.9796	378.662	88.8795	378.662	89.0044	378.662	88.6973	378.662	88.9553	378.662	88.4204	378.662	88.8286	378.662	88.032	378.662	88.6155	378.662	87.511	378.662	88.303	378.662	86.8341	378.662	87.8746	378.662	85.9787	378.662	87.3117	378.662	84.9318	378.662	86.5954	378.662	83.7132	378.662	85.7122	378.662	82.4305	378.662	84.6679	378.662	81.3631	378.662	83.5201	378.662	80.9258	378.662	82.4357	378.662	81.2858	378.662	81.7208	378.662	82.1197	378.662	81.6512	378.662	82.9901	378.662	82.1615	378.662	83.6376	378.662	82.8986	378.662	83.9567	378.662	83.5425	378.662	83.9193
392.578	87.9293	392.578	87.8708	392.578	87.929	392.578	87.7495	392.578	87.8689	392.578	87.5557	392.578	87.7433	392.578	87.2742	392.578	87.5426	392.578	86.8849	392.578	87.2536	392.578	86.3641	392.578	86.8602	392.578	85.6865	392.578	86.344	392.578	84.8302	392.578	85.6856	392.578	83.7896	392.578	84.8703	392.578	82.607	392.578	83.8996	392.578	81.4356	392.578	82.8198	392.578	80.5953	392.578	81.773	392.578	80.4258	392.578	81.0289	392.578	80.9069	392.578	80.8577	392.578	81.6583	392.578	81.2441	392.578	82.3194	392.578	81.8778	392.578	82.7018	392.578	82.4386	392.578	82.7392
405.762	87.5443	405.762	87.4593	405.762	87.5521	405.762	87.2982	405.762	87.4796	405.762	87.0584	405.762	87.3223	405.762	86.7324	405.762	87.0747	405.762	86.3072	405.762	86.7294	405.762	85.7647	405.762	86.277	405.762	85.0855	405.762	85.7063	405.762	84.2562	405.762	85.0071	405.762	83.2868	405.762	84.1789	405.762	82.2474	405.762	83.2489	405.762	81.3239	405.762	82.3081	405.762	80.8208	405.762	81.5485	405.762	80.9551	405.762	81.2241	405.762	81.5965	405.762	81.4502	405.762	82.3956	405.762	82.0578	405.762	83.068	405.762	82.7456	405.762	83.4669	405.762	83.2805	405.762	83.5377
420.41	87.8429	420.41	87.7135	420.41	87.8872	420.41	87.4987	420.41	87.8429	420.41	87.1941	420.41	87.7031	420.41	86.7902	420.41	87.4573	420.41	86.2724	420.41	87.0906	420.41	85.6201	420.41	86.5834	420.41	84.808	420.41	85.9102	420.41	83.8095	420.41	85.0389	420.41	82.6088	420.41	83.9325	420.41	81.2368	420.41	82.5588	420.41	79.8564	420.41	80.93	420.41	78.8699	420.41	79.2257	420.41	78.7433	420.41	78.0113	420.41	79.4227	420.41	77.996	420.41	80.3736	420.41	78.9901	420.41	81.1606	420.41	80.1838	420.41	81.5839	420.41	81.0941	420.41	81.5691
435.059	87.2173	435.059	87.1495	435.059	87.2154	435.059	87.0046	435.059	87.1483	435.059	86.7723	435.059	87.017	435.059	86.4397	435.059	86.8181	435.059	85.9907	435.059	86.5422	435.059	85.4075	435.059	86.1739	435.059	84.6721	435.059	85.6914	435.059	83.7739	435.059	85.0683	435.059	82.7253	435.059	84.2773	435.059	81.5986	435.059	83.3013	435.059	80.583	435.059	82.1599	435.059	79.9901	435.059	80.9687	435.059	80.0431	435.059	80.0165	435.059	80.6053	435.059	79.6917	435.059	81.3141	435.059	80.0885	435.059	81.8753	435.059	80.8544	435.059	82.1351	435.059	81.5797	435.059	82.0349
450.439	86.9381	450.439	86.8881	450.439	86.9254	450.439	86.7735	450.439	86.8496	450.439	86.5878	450.439	86.7096	450.439	86.3167	450.439	86.502	450.439	85.9364	450.439	86.2188	450.439	85.4136	450.439	85.8438	450.439	84.706	450.439	85.3514	450.439	83.7634	450.439	84.7053	450.439	82.5337	450.439	83.8604	450.439	80.9896	450.439	82.7686	450.439	79.2324	450.439	81.4005	450.439	77.7613	450.439	79.8213	450.439	77.4993	450.439	78.3857	450.439	78.5316	450.439	77.8482	450.439	79.8951	450.439	78.544	450.439	80.9379	450.439	79.7743	450.439	81.458	450.439	80.8286	450.439	81.4169
466.553	87.0477	466.553	86.9051	466.553	87.0841	466.553	86.6662	466.553	87.0081	466.553	86.3414	466.553	86.818	466.553	85.9373	466.553	86.5152	466.553	85.4523	466.553	86.1019	466.553	84.874	466.553	85.5773	466.553	84.1785	466.553	84.9347	466.553	83.3344	466.553	84.159	466.553	82.3135	466.553	83.2281	466.553	81.1167	466.553	82.12	466.553	79.8352	466.553	80.8381	466.553	78.748	466.553	79.4751	466.553	78.2906	466.553	78.3239	466.553	78.6242	466.553	77.8599	466.553	79.3744	466.553	78.2632	466.553	80.0681	466.553	79.1191	466.553	80.4396	466.553	79.9192	466.553	80.3909
482.666	86.7456	482.666	86.6261	482.666	86.7655	482.666	86.4106	482.666	86.6846	482.666	86.1022	482.666	86.5048	482.666	85.6996	482.666	86.2291	482.666	85.1926	482.666	85.8589	482.666	84.559	482.666	85.3894	482.666	83.7622	482.666	84.8064	482.666	82.7514	482.666	84.083	482.666	81.4649	482.666	83.179	482.666	79.8519	482.666	82.0441	482.666	77.963	482.666	80.6359	482.666	76.2436	482.666	78.9836	482.666	75.7527	482.666	77.3769	482.666	76.7987	482.666	76.576	482.666	78.2888	482.666	77.1092	482.666	79.4388	482.666	78.3265	482.666	80.0229	482.666	79.4081	482.666	80.006
500.244	86.6945	500.244	86.5432	500.244	86.7369	500.244	86.2913	500.244	86.6668	500.244	85.9491	500.244	86.4858	500.244	85.525	500.244	86.1988	500.244	85.0203	500.244	85.8111	500.244	84.4265	500.244	85.3236	500.244	83.723	500.244	84.7292	500.244	82.8788	500.244	84.01	500.244	81.8578	500.244	83.1367	500.244	80.6329	500.244	82.0735	500.244	79.2244	500.244	80.7933	500.244	77.7883	500.244	79.3198	500.244	76.7223	500.244	77.8275	500.244	76.4742	500.244	76.7521	500.244	76.9607	500.244	76.5477	500.244	77.6384	500.244	77.065	500.244	78.0815	500.244	77.7236	500.244	78.1134
517.822	85.9094	517.822	85.8176	517.822	85.9185	517.822	85.6482	517.822	85.8471	517.822	85.409	517.822	85.7043	517.822	85.1029	517.822	85.5013	517.822	84.7212	517.822	85.2429	517.822	84.2408	517.822	84.9208	517.822	83.6236	517.822	84.5101	517.822	82.8195	517.822	83.9693	517.822	81.7714	517.822	83.2427	517.822	80.4292	517.822	82.2638	517.822	78.806	517.822	80.9634	517.822	77.1493	517.822	79.3067	517.822	76.1838	517.822	77.436	517.822	76.5459	517.822	76.0187	517.822	77.6805	517.822	76.0482	517.822	78.7122	517.822	77.2215	517.822	79.2406	517.822	78.4346	517.822	79.1505
536.133	86.2755	536.133	86.0471	536.133	86.2949	536.133	85.6384	536.133	86.1025	536.133	85.1029	536.133	85.721	536.133	84.5106	536.133	85.1972	536.133	83.9274	536.133	84.5973	536.133	83.3826	536.133	83.9911	536.133	82.8443	536.133	83.4237	536.133	82.2202	536.133	82.8852	536.133	81.378	536.133	82.3014	536.133	80.1632	536.133	81.5497	536.133	78.4207	536.133	80.4821	536.133	76.1251	536.133	78.9547	536.133	74.0869	536.133	76.9408	536.133	74.4458	536.133	75.0408	536.133	76.5638	536.133	74.9704	536.133	78.3612	536.133	76.6926	536.133	79.2786	536.133	78.374	536.133	79.2762
554.443	86.1101	554.443	85.8594	554.443	86.1745	554.443	85.4436	554.443	86.0491	554.443	84.9007	554.443	85.7479	554.443	84.2804	554.443	85.2997	554.443	83.6316	554.443	84.7443	554.443	82.9827	554.443	84.1234	554.443	82.3221	554.443	83.4658	554.443	81.5907	554.443	82.77	554.443	80.6886	554.443	81.9924	554.443	79.4898	554.443	81.0453	554.443	77.8709	554.443	79.8059	554.443	75.8227	554.443	78.1387	554.443	73.9057	554.443	75.9961	554.443	73.6555	554.443	73.8781	554.443	75.136	554.443	73.4505	554.443	76.6807	554.443	74.9718	554.443	77.5177	554.443	76.6009	554.443	77.4951
574.219	86.8146	574.219	86.5551	574.219	86.8472	574.219	86.1002	574.219	86.6498	574.219	85.5106	574.219	86.2467	574.219	84.8688	574.219	85.6891	574.219	84.2563	574.219	85.0521	574.219	83.7132	574.219	84.4196	574.219	83.206	574.219	83.8528	574.219	82.629	574.219	83.3516	574.219	81.8281	574.219	82.839	574.219	80.6127	574.219	82.1774	574.219	78.7297	574.219	81.1901	574.219	75.7971	574.219	79.6605	574.219	71.4606	574.219	77.3089	574.219	69.3352	574.219	73.9039	574.219	73.1015	574.219	71.0078	574.219	76.0097	574.219	72.8586	574.219	77.2842	574.219	75.6781	574.219	77.166
594.727	86.6109	594.727	86.2873	594.727	86.6616	594.727	85.716	594.727	86.4412	594.727	84.956	594.727	85.9766	594.727	84.1089	594.727	85.323	594.727	83.3116	594.727	84.5679	594.727	82.6896	594.727	83.8236	594.727	82.2757	594.727	83.1922	594.727	81.9726	594.727	82.7063	594.727	81.6017	594.727	82.2947	594.727	80.9725	594.727	81.8082	594.727	79.9144	594.727	81.0717	594.727	78.3031	594.727	79.9224	594.727	76.2298	594.727	78.2672	594.727	74.6321	594.727	76.3261	594.727	75.0375	594.727	75.1895	594.727	76.5698	594.727	75.8507	594.727	77.6678	594.727	77.1406	594.727	77.8613
615.234	86.7507	615.234	86.4566	615.234	86.816	615.234	85.9405	615.234	86.6533	615.234	85.2229	615.234	86.2688	615.234	84.3492	615.234	85.6771	615.234	83.4016	615.234	84.9067	615.234	82.4976	615.234	84.0086	615.234	81.7459	615.234	83.0621	615.234	81.1635	615.234	82.1644	615.234	80.6286	615.234	81.3863	615.234	79.9205	615.234	80.7084	615.234	78.7835	615.234	79.9954	615.234	76.9507	615.234	79.0359	615.234	74.2234	615.234	77.613	615.234	71.3344	615.234	75.6318	615.234	71.5027	615.234	73.5945	615.234	73.7417	615.234	73.1202	615.234	75.1376	615.234	74.2906	615.234	75.253
637.207	87.9048	637.207	87.5789	637.207	87.9215	637.207	86.9528	637.207	87.6314	637.207	86.0561	637.207	87.0495	637.207	84.9628	637.207	86.2148	637.207	83.8226	637.207	85.2133	637.207	82.862	637.207	84.202	637.207	82.2649	637.207	83.3863	637.207	81.9873	637.207	82.8927	637.207	81.7586	637.207	82.628	637.207	81.2507	637.207	82.3206	637.207	80.1596	637.207	81.6602	637.207	78.1751	637.207	80.349	637.207	75.1052	637.207	78.088	637.207	72.8176	637.207	74.9295	637.207	75.1895	637.207	73.7652	637.207	78.1647	637.207	76.5086	637.207	79.7776	637.207	78.9532	637.207	80.032
659.912	87.2458	659.912	87.0105	659.912	87.2552	659.912	86.5491	659.912	87.0424	659.912	85.8697	659.912	86.6131	659.912	84.9978	659.912	85.9778	659.912	83.9868	659.912	85.1588	659.912	82.9247	659.912	84.2007	659.912	81.919	659.912	83.1801	659.912	81.0415	659.912	82.199	659.912	80.2559	659.912	81.3404	659.912	79.3985	659.912	80.5917	659.912	78.2334	659.912	79.8047	659.912	76.5367	659.912	78.7364	659.912	74.3023	659.912	77.1259	659.912	72.5176	659.912	74.8382	659.912	73.0058	659.912	72.5384	659.912	74.628	659.912	72.4614	659.912	75.601	659.912	74.1953	659.912	75.4568
683.35	87.8409	683.35	87.5837	683.35	87.8351	683.35	87.0599	683.35	87.5663	683.35	86.2696	683.35	87.0319	683.35	85.2361	683.35	86.235	683.35	84.0434	683.35	85.2045	683.35	82.8844	683.35	84.0288	683.35	82.041	683.35	82.8943	683.35	81.673	683.35	82.0548	683.35	81.6028	683.35	81.6398	683.35	81.4455	683.35	81.4745	683.35	80.836	683.35	81.1946	683.35	79.4566	683.35	80.4413	683.35	76.9648	683.35	78.8944	683.35	73.25	683.35	76.2681	683.35	71.4471	683.35	73.0029	683.35	74.1533	683.35	72.7532	683.35	76.2158	683.35	75.1713	683.35	76.5345
706.787	88.3325	706.787	88.0375	706.787	88.3448	706.787	87.4596	706.787	88.0713	706.787	86.6033	706.787	87.5057	706.787	85.4972	706.787	86.6469	706.787	84.2303	706.787	85.5186	706.787	82.995	706.787	84.2061	706.787	82.0606	706.787	82.9055	706.787	81.5676	706.787	81.9041	706.787	81.3246	706.787	81.3587	706.787	80.9328	706.787	81.0655	706.787	79.9959	706.787	80.5967	706.787	78.1451	706.787	79.5268	706.787	75.0735	706.787	77.4455	706.787	72.1006	706.787	74.0236	706.787	73.951	706.787	71.4038	706.787	76.9821	706.787	74.2506	706.787	78.5632	706.787	77.2634	706.787	78.6596
731.689	87.8728	731.689	87.6644	731.689	87.865	731.689	87.2282	731.689	87.6378	731.689	86.5441	731.689	87.1749	731.689	85.5971	731.689	86.4536	731.689	84.4054	731.689	85.4563	731.689	83.0698	731.689	84.193	731.689	81.8298	731.689	82.7436	731.689	80.9989	731.689	81.3252	731.689	80.6447	731.689	80.2794	731.689	80.4121	731.689	79.7731	731.689	79.7876	731.689	79.4959	731.689	78.2784	731.689	78.8826	731.689	75.2789	731.689	77.3739	731.689	70.1865	731.689	74.3301	731.689	69.7884	731.689	69.5833	731.689	74.4143	731.689	70.6428	731.689	76.6667	731.689	74.8566	731.689	76.7915
758.057	87.7282	758.057	87.4692	758.057	87.7361	758.057	86.954	758.057	87.4887	758.057	86.1712	758.057	86.9737	758.057	85.1129	758.057	86.1758	758.057	83.7978	758.057	85.0863	758.057	82.3197	758.057	83.7285	758.057	80.9241	758.057	82.2153	758.057	79.9855	758.057	80.8353	758.057	79.6619	758.057	79.9995	758.057	79.6088	758.057	79.8091	758.057	79.2798	758.057	79.8168	758.057	78.2087	758.057	79.4278	758.057	75.9622	758.057	78.132	758.057	72.2864	758.057	75.3461	758.057	70.3535	758.057	70.4098	758.057	73.3831	758.057	69.0472	758.057	75.5483	758.057	73.5078	758.057	75.6557
784.424	87.6245	784.424	87.4628	784.424	87.5781	784.424	87.0738	784.424	87.3307	784.424	86.4304	784.424	86.874	784.424	85.5064	784.424	86.1827	784.424	84.2949	784.424	85.2211	784.424	82.8486	784.424	83.9563	784.424	81.3565	784.424	82.3932	784.424	80.1864	784.424	80.6576	784.424	79.6278	784.424	79.1351	784.424	79.456	784.424	78.3571	784.424	79.0806	784.424	78.2713	784.424	77.9226	784.424	78.1155	784.424	75.3901	784.424	77.0965	784.424	70.9683	784.424	74.4297	784.424	69.7726	784.424	69.0809	784.424	74.0349	784.424	68.5908	784.424	76.3064	784.424	73.9531	784.424	76.3168
812.256	87.9854	812.256	87.7222	812.256	87.9671	812.256	87.1835	812.256	87.669	812.256	86.3754	812.256	87.104	812.256	85.299	812.256	86.2913	812.256	83.9635	812.256	85.2474	812.256	82.4357	812.256	83.9841	812.256	80.9415	812.256	82.532	812.256	79.9158	812.256	81.0133	812.256	79.645	812.256	79.7449	812.256	79.7849	812.256	79.1181	812.256	79.6809	812.256	79.0554	812.256	78.7897	812.256	78.9194	812.256	76.6146	812.256	78.007	812.256	72.6382	812.256	75.6081	812.256	69.6521	812.256	70.6036	812.256	73.0295	812.256	66.9037	812.256	75.3809	812.256	72.5751	812.256	75.3193
840.82	87.6957	840.82	87.374	840.82	87.7327	840.82	86.7856	840.82	87.4855	840.82	85.9564	840.82	86.9719	840.82	84.902	840.82	86.2125	840.82	83.6199	840.82	85.2131	840.82	82.1097	840.82	83.9544	840.82	80.4546	840.82	82.409	840.82	78.9787	840.82	80.6185	840.82	78.229	840.82	78.8959	840.82	78.2931	840.82	77.9473	840.82	78.4765	840.82	78.0242	840.82	78.0125	840.82	78.2751	840.82	76.3139	840.82	77.7697	840.82	72.8721	840.82	75.8428	840.82	69.7629	840.82	71.8318	840.82	72.655	840.82	68.7468	840.82	75.1112	840.82	72.7061	840.82	75.1752
870.85	87.6281	870.85	87.2858	870.85	87.6743	870.85	86.6766	870.85	87.4229	870.85	85.8336	870.85	86.9028	870.85	84.7616	870.85	86.1546	870.85	83.4221	870.85	85.2007	870.85	81.7619	870.85	84.0224	870.85	79.8332	870.85	82.5672	870.85	78.1034	870.85	80.8182	870.85	77.5362	870.85	78.9938	870.85	78.1562	870.85	77.7974	870.85	78.7611	870.85	77.7474	870.85	78.4408	870.85	78.0873	870.85	76.573	870.85	77.7468	870.85	72.1544	870.85	75.9349	870.85	65.9382	870.85	71.4612	870.85	71.2779	870.85	63.7332	870.85	74.4109	870.85	70.5235	870.85	74.2241
901.611	87.8576	901.611	87.4657	901.611	87.9536	901.611	86.8228	901.611	87.7368	901.611	85.9774	901.611	87.2217	901.611	84.9448	901.611	86.4407	901.611	83.6781	901.611	85.4176	901.611	82.0722	901.611	84.1433	901.611	80.0212	901.611	82.5704	901.611	77.64	901.611	80.6591	901.611	75.8824	901.611	78.5532	901.611	76.0126	901.611	76.9373	901.611	76.9476	901.611	76.64	901.611	77.1154	901.611	77.0495	901.611	75.7645	901.611	76.908	901.611	72.0879	901.611	75.3639	901.611	65.9291	901.611	71.4469	901.611	69.4357	901.611	65.269	901.611	72.9438	901.611	69.6709	901.611	73.0241
933.105	88.071	933.105	87.7085	933.105	88.0739	933.105	87.0135	933.105	87.7231	933.105	86.0479	933.105	87.0578	933.105	84.8975	933.105	86.1477	933.105	83.6341	933.105	85.07	933.105	82.2572	933.105	83.8615	933.105	80.6827	933.105	82.4756	933.105	78.8481	933.105	80.7986	933.105	77.0092	933.105	78.7677	933.105	76.0154	933.105	76.7246	933.105	76.1774	933.105	75.7933	933.105	76.2954	933.105	76.2466	933.105	75.0982	933.105	76.5226	933.105	71.2286	933.105	75.2657	933.105	62.3038	933.105	70.965	933.105	69.5622	933.105	60.9571	933.105	73.8688	933.105	70.3263	933.105	74.1097
966.064	87.9356	966.064	87.507	966.064	88.0055	966.064	86.771	966.064	87.7033	966.064	85.8196	966.064	87.0439	966.064	84.7551	966.064	86.0662	966.064	83.6143	966.064	84.8313	966.064	82.3119	966.064	83.4092	966.064	80.6772	966.064	81.8515	966.064	78.5974	966.064	80.1708	966.064	76.4128	966.064	78.4115	966.064	75.4936	966.064	76.9356	966.064	76.2649	966.064	76.5585	966.064	76.9074	966.064	77.259	966.064	76.118	966.064	77.778	966.064	72.9226	966.064	77.0398	966.064	65.6701	966.064	74.0798	966.064	67.9523	966.064	66.8848	966.064	72.2287	966.064	66.7617	966.064	71.9693
999.756	87.8236	999.756	87.4303	999.756	87.8317	999.756	86.6742	999.756	87.4508	999.756	85.6085	999.756	86.7012	999.756	84.3286	999.756	85.6456	999.756	82.9526	999.756	84.3993	999.756	81.5552	999.756	83.0983	999.756	80.122	999.756	81.8141	999.756	78.6401	999.756	80.4774	999.756	77.3671	999.756	78.9193	999.756	76.9373	999.756	77.1356	999.756	77.3901	999.756	75.8368	999.756	77.6763	999.756	75.9563	999.756	76.7369	999.756	76.5026	999.756	73.5492	999.756	75.8753	999.756	66.3989	999.756	72.8473	999.756	68.0511	999.756	65.4984	999.756	72.5023	999.756	67.9259	999.756	72.4865
1,034.91	87.4993	1,034.91	87.0944	1,034.91	87.5259	1,034.91	86.3337	1,034.91	87.1728	1,034.91	85.2837	1,034.91	86.4506	1,034.91	84.0628	1,034.91	85.3939	1,034.91	82.7928	1,034.91	84.0815	1,034.91	81.4958	1,034.91	82.6415	1,034.91	80.0339	1,034.91	81.2056	1,034.91	78.1909	1,034.91	79.7994	1,034.91	76.0231	1,034.91	78.2753	1,034.91	74.7468	1,034.91	76.4985	1,034.91	75.5618	1,034.91	74.9892	1,034.91	76.6704	1,034.91	74.9878	1,034.91	76.4777	1,034.91	75.8327	1,034.91	74.2615	1,034.91	75.7168	1,034.91	69.3429	1,034.91	73.4673	1,034.91	66.6413	1,034.91	67.0672	1,034.91	69.5695	1,034.91	60.5673	1,034.91	68.7046
1,071.53	87.223	1,071.53	86.8387	1,071.53	87.2276	1,071.53	86.0844	1,071.53	86.8556	1,071.53	85.0024	1,071.53	86.1262	1,071.53	83.6894	1,071.53	85.0939	1,071.53	82.2836	1,071.53	83.8583	1,071.53	80.8782	1,071.53	82.5323	1,071.53	79.4117	1,071.53	81.166	1,071.53	77.6894	1,071.53	79.6746	1,071.53	75.7101	1,071.53	77.8545	1,071.53	74.478	1,071.53	75.5751	1,071.53	75.146	1,071.53	73.4303	1,071.53	76.1491	1,071.53	73.097	1,071.53	75.7968	1,071.53	74.0367	1,071.53	73.1348	1,071.53	74.1211	1,071.53	67.0916	1,071.53	72.1878	1,071.53	67.2964	1,071.53	67.6118	1,071.53	71.2585	1,071.53	67.4559	1,071.53	71.1277
1,109.62	86.8552	1,109.62	86.4623	1,109.62	86.8091	1,109.62	85.6282	1,109.62	86.3562	1,109.62	84.4086	1,109.62	85.5458	1,109.62	82.9511	1,109.62	84.4428	1,109.62	81.4875	1,109.62	83.1235	1,109.62	80.195	1,109.62	81.6638	1,109.62	78.9701	1,109.62	80.1292	1,109.62	77.432	1,109.62	78.5653	1,109.62	75.2567	1,109.62	76.9737	1,109.62	73.0553	1,109.62	75.3345	1,109.62	73.0625	1,109.62	73.8367	1,109.62	74.3813	1,109.62	73.1221	1,109.62	74.4646	1,109.62	73.3332	1,109.62	72.2115	1,109.62	73.2651	1,109.62	66.2869	1,109.62	71.5152	1,109.62	63.3581	1,109.62	66.4278	1,109.62	67.8276	1,109.62	61.4241	1,109.62	67.184
1,148.44	87.0914	1,148.44	86.6512	1,148.44	87.0816	1,148.44	85.7837	1,148.44	86.6225	1,148.44	84.5332	1,148.44	85.7503	1,148.44	82.9826	1,148.44	84.5501	1,148.44	81.2818	1,148.44	83.1495	1,148.44	79.6371	1,148.44	81.686	1,148.44	78.1652	1,148.44	80.2459	1,148.44	76.7119	1,148.44	78.7903	1,148.44	74.9606	1,148.44	77.1253	1,148.44	72.9484	1,148.44	75.0134	1,148.44	71.9555	1,148.44	72.7415	1,148.44	72.7744	1,148.44	72.1777	1,148.44	73.3361	1,148.44	73.4663	1,148.44	71.9875	1,148.44	73.9055	1,148.44	67.8857	1,148.44	71.9068	1,148.44	66.4182	1,148.44	65.711	1,148.44	70.0589	1,148.44	65.2349	1,148.44	70.1328
1,189.45	87.2845	1,189.45	86.8368	1,189.45	87.294	1,189.45	85.98	1,189.45	86.8493	1,189.45	84.7484	1,189.45	85.9594	1,189.45	83.1845	1,189.45	84.672	1,189.45	81.3624	1,189.45	83.0875	1,189.45	79.4257	1,189.45	81.369	1,189.45	77.5702	1,189.45	79.7332	1,189.45	75.8945	1,189.45	78.3592	1,189.45	74.2925	1,189.45	77.194	1,189.45	72.7592	1,189.45	75.9208	1,189.45	71.9896	1,189.45	74.4094	1,189.45	72.419	1,189.45	73.4641	1,189.45	72.6587	1,189.45	73.7928	1,189.45	71.1631	1,189.45	73.8778	1,189.45	66.5898	1,189.45	71.9111	1,189.45	62.8554	1,189.45	65.5387	1,189.45	67.2701	1,189.45	59.4988	1,189.45	67.2071
1,231.2	87.7376	1,231.2	87.2775	1,231.2	87.7424	1,231.2	86.4083	1,231.2	87.2868	1,231.2	85.1904	1,231.2	86.4172	1,231.2	83.6763	1,231.2	85.2205	1,231.2	81.9251	1,231.2	83.7912	1,231.2	80.0522	1,231.2	82.204	1,231.2	78.2489	1,231.2	80.5261	1,231.2	76.6452	1,231.2	78.8491	1,231.2	75.0719	1,231.2	77.213	1,231.2	73.1602	1,231.2	75.427	1,231.2	71.2735	1,231.2	73.2139	1,231.2	71.3677	1,231.2	71.2259	1,231.2	72.5599	1,231.2	71.4008	1,231.2	72.0949	1,231.2	72.3445	1,231.2	68.4786	1,231.2	71.4039	1,231.2	63.9598	1,231.2	66.7472	1,231.2	67.7416	1,231.2	62.662	1,231.2	67.8748
1,274.41	87.4239	1,274.41	87.0665	1,274.41	87.3299	1,274.41	86.3005	1,274.41	86.8037	1,274.41	85.2118	1,274.41	85.9193	1,274.41	83.8893	1,274.41	84.7748	1,274.41	82.3972	1,274.41	83.4449	1,274.41	80.7794	1,274.41	81.9402	1,274.41	79.0745	1,274.41	80.221	1,274.41	77.3212	1,274.41	78.2866	1,274.41	75.5735	1,274.41	76.2365	1,274.41	73.9639	1,274.41	74.171	1,274.41	72.8206	1,274.41	72.1802	1,274.41	72.4334	1,274.41	70.9416	1,274.41	72.2606	1,274.41	71.405	1,274.41	71.1159	1,274.41	72.3028	1,274.41	67.9979	1,274.41	71.7375	1,274.41	64.6059	1,274.41	68.6776	1,274.41	66.1888	1,274.41	64.9135	1,274.41	66.3128
1,319.82	87.6486	1,319.82	87.1997	1,319.82	87.595	1,319.82	86.324	1,319.82	87.042	1,319.82	85.1435	1,319.82	86.0723	1,319.82	83.7759	1,319.82	84.8128	1,319.82	82.294	1,319.82	83.3646	1,319.82	80.7189	1,319.82	81.742	1,319.82	79.0438	1,319.82	79.8893	1,319.82	77.2657	1,319.82	77.7894	1,319.82	75.4027	1,319.82	75.5967	1,319.82	73.5407	1,319.82	73.6665	1,319.82	72.043	1,319.82	72.3355	1,319.82	71.6114	1,319.82	71.7227	1,319.82	71.9734	1,319.82	71.8496	1,319.82	71.5808	1,319.82	72.1572	1,319.82	69.1772	1,319.82	71.2768	1,319.82	65.5788	1,319.82	67.7633	1,319.82	66.2011	1,319.82	63.3767	1,319.82	66.003
1,365.97	87.6005	1,365.97	87.1255	1,365.97	87.5733	1,365.97	86.2093	1,365.97	87.0332	1,365.97	84.9385	1,365.97	86.0116	1,365.97	83.3958	1,365.97	84.5627	1,365.97	81.6565	1,365.97	82.768	1,365.97	79.791	1,365.97	80.7683	1,365.97	77.867	1,365.97	78.7846	1,365.97	75.9831	1,365.97	77.0772	1,365.97	74.3247	1,365.97	75.8473	1,365.97	73.1858	1,365.97	74.9716	1,365.97	72.7571	1,365.97	73.8002	1,365.97	72.9402	1,365.97	71.7896	1,365.97	73.4269	1,365.97	70.4743	1,365.97	73.5011	1,365.97	71.7858	1,365.97	72.454	1,365.97	72.248	1,365.97	70.8277	1,365.97	69.8582	1,365.97	70.286	1,365.97	66.8867	1,365.97	69.1269
1,414.31	87.5001	1,414.31	87.069	1,414.31	87.4477	1,414.31	86.1628	1,414.31	86.895	1,414.31	84.775	1,414.31	85.8595	1,414.31	82.9489	1,414.31	84.4381	1,414.31	80.8866	1,414.31	82.8168	1,414.31	78.949	1,414.31	81.1821	1,414.31	77.3781	1,414.31	79.5569	1,414.31	76.0312	1,414.31	77.7976	1,414.31	74.6686	1,414.31	75.8445	1,414.31	73.5723	1,414.31	73.892	1,414.31	73.3486	1,414.31	72.1097	1,414.31	73.4921	1,414.31	70.4274	1,414.31	72.8409	1,414.31	69.4741	1,414.31	70.8459	1,414.31	70.1806	1,414.31	68.7748	1,414.31	70.6497	1,414.31	69.6237	1,414.31	68.8053	1,414.31	70.4779	1,414.31	65.9554	1,414.31	68.6652
1,464.11	87.6377	1,464.11	86.9526	1,464.11	87.8175	1,464.11	85.9004	1,464.11	87.3766	1,464.11	84.5718	1,464.11	86.3164	1,464.11	83.0065	1,464.11	84.8037	1,464.11	81.2224	1,464.11	83.115	1,464.11	79.2414	1,464.11	81.4597	1,464.11	77.2064	1,464.11	79.8214	1,464.11	75.5352	1,464.11	77.9644	1,464.11	74.4811	1,464.11	75.6446	1,464.11	73.5163	1,464.11	73.0316	1,464.11	72.1162	1,464.11	71.3516	1,464.11	71.1481	1,464.11	71.5113	1,464.11	71.482	1,464.11	71.7035	1,464.11	70.7544	1,464.11	70.7028	1,464.11	66.5117	1,464.11	69.1941	1,464.11	64.5846	1,464.11	67.737	1,464.11	68.4272	1,464.11	66.2296	1,464.11	67.8885
1,515.38	87.0277	1,515.38	86.7372	1,515.38	86.948	1,515.38	85.9945	1,515.38	86.5548	1,515.38	84.775	1,515.38	85.829	1,515.38	83.1353	1,515.38	84.7116	1,515.38	81.1835	1,515.38	83.171	1,515.38	79.091	1,515.38	81.2305	1,515.38	77.0921	1,515.38	78.9908	1,515.38	75.2885	1,515.38	76.7244	1,515.38	73.5256	1,515.38	74.8508	1,515.38	71.7327	1,515.38	73.4927	1,515.38	70.5366	1,515.38	72.2864	1,515.38	70.7508	1,515.38	71.1503	1,515.38	71.5007	1,515.38	70.8698	1,515.38	71.3546	1,515.38	71.3036	1,515.38	69.5643	1,515.38	71.0069	1,515.38	67.2069	1,515.38	69.4668	1,515.38	67.5486	1,515.38	68.0361	1,515.38	68.0771
1,568.85	86.6652	1,568.85	86.37	1,568.85	86.4655	1,568.85	85.6208	1,568.85	85.8055	1,568.85	84.5077	1,568.85	84.7913	1,568.85	83.0992	1,568.85	83.5377	1,568.85	81.4	1,568.85	82.0708	1,568.85	79.4448	1,568.85	80.3167	1,568.85	77.3782	1,568.85	78.2218	1,568.85	75.3466	1,568.85	75.9144	1,568.85	73.4055	1,568.85	73.7933	1,568.85	71.7595	1,568.85	72.1904	1,568.85	70.7711	1,568.85	70.654	1,568.85	70.3585	1,568.85	68.7851	1,568.85	70.2542	1,568.85	68.2875	1,568.85	69.9998	1,568.85	69.2935	1,568.85	68.5655	1,568.85	68.4075	1,568.85	66.4282	1,568.85	64.6831	1,568.85	67.4312	1,568.85	65.8103	1,568.85	68.2709
1,624.51	86.8907	1,624.51	86.2787	1,624.51	86.8542	1,624.51	85.2065	1,624.51	86.0826	1,624.51	83.8478	1,624.51	84.6708	1,624.51	82.2858	1,624.51	82.8996	1,624.51	80.5577	1,624.51	81.1054	1,624.51	78.7388	1,624.51	79.4516	1,624.51	76.8872	1,624.51	77.8093	1,624.51	74.905	1,624.51	75.8936	1,624.51	72.6771	1,624.51	73.5723	1,624.51	70.6559	1,624.51	71.1356	1,624.51	69.8153	1,624.51	69.1112	1,624.51	69.7581	1,624.51	67.5452	1,624.51	69.3164	1,624.51	66.4473	1,624.51	68.3608	1,624.51	66.7286	1,624.51	67.7585	1,624.51	66.9824	1,624.51	68.2879	1,624.51	64.7999	1,624.51	68.8101	1,624.51	63.4613	1,624.51	67.2731
1,681.64	86.4573	1,681.64	85.8795	1,681.64	86.3554	1,681.64	84.762	1,681.64	85.5817	1,681.64	83.3056	1,681.64	84.3144	1,681.64	81.6671	1,681.64	82.8129	1,681.64	79.9212	1,681.64	81.2343	1,681.64	78.0925	1,681.64	79.5417	1,681.64	76.1474	1,681.64	77.6103	1,681.64	74.0057	1,681.64	75.4073	1,681.64	71.8291	1,681.64	73.1467	1,681.64	70.3094	1,681.64	71.2918	1,681.64	69.7075	1,681.64	70.0596	1,681.64	69.2438	1,681.64	68.9876	1,681.64	68.771	1,681.64	68.2215	1,681.64	68.5798	1,681.64	68.9808	1,681.64	67.3856	1,681.64	69.687	1,681.64	65.4679	1,681.64	68.1884	1,681.64	66.2529	1,681.64	65.3323	1,681.64	66.0787
1,740.97	86.4889	1,740.97	86.0259	1,740.97	86.3825	1,740.97	84.9955	1,740.97	85.7472	1,740.97	83.4512	1,740.97	84.651	1,740.97	81.5381	1,740.97	83.1346	1,740.97	79.4837	1,740.97	81.2454	1,740.97	77.4756	1,740.97	79.202	1,740.97	75.531	1,740.97	77.3855	1,740.97	73.5096	1,740.97	75.9185	1,740.97	71.2888	1,740.97	74.3937	1,740.97	69.1611	1,740.97	72.2814	1,740.97	68.2935	1,740.97	69.5016	1,740.97	68.9232	1,740.97	66.9846	1,740.97	69.3701	1,740.97	66.0258	1,740.97	68.7662	1,740.97	66.0003	1,740.97	67.4641	1,740.97	66.1338	1,740.97	67.0188	1,740.97	65.7665	1,740.97	67.4048	1,740.97	65.3202	1,740.97	66.5895
1,802.49	86.6828	1,802.49	86.3668	1,802.49	86.5225	1,802.49	85.4924	1,802.49	85.9522	1,802.49	84.0559	1,802.49	84.9666	1,802.49	82.1916	1,802.49	83.5367	1,802.49	80.1281	1,802.49	81.7139	1,802.49	78.0495	1,802.49	79.6378	1,802.49	75.9766	1,802.49	77.397	1,802.49	73.7491	1,802.49	74.9785	1,802.49	71.1925	1,802.49	72.5284	1,802.49	68.6931	1,802.49	70.5652	1,802.49	67.4882	1,802.49	69.4251	1,802.49	67.4001	1,802.49	68.5126	1,802.49	66.7981	1,802.49	67.2089	1,802.49	65.1002	1,802.49	66.1375	1,802.49	63.9301	1,802.49	65.4877	1,802.49	64.8046	1,802.49	64.1055	1,802.49	65.436	1,802.49	63.2347	1,802.49	64.5782
1,866.21	86.378	1,866.21	85.998	1,866.21	86.2517	1,866.21	85.0891	1,866.21	85.5771	1,866.21	83.6314	1,866.21	84.3164	1,866.21	81.7331	1,866.21	82.5461	1,866.21	79.6628	1,866.21	80.4651	1,866.21	77.6943	1,866.21	78.2928	1,866.21	75.8352	1,866.21	76.1739	1,866.21	73.7555	1,866.21	74.1166	1,866.21	71.0942	1,866.21	71.9575	1,866.21	67.9107	1,866.21	69.5253	1,866.21	65.5062	1,866.21	67.489	1,866.21	65.4496	1,866.21	67.3045	1,866.21	66.1271	1,866.21	67.6117	1,866.21	66.4383	1,866.21	66.8516	1,866.21	65.9689	1,866.21	65.3693	1,866.21	64.7228	1,866.21	62.5395	1,866.21	64.0939	1,866.21	59.2614	1,866.21	62.5242
1,932.13	85.3186	1,932.13	85.0048	1,932.13	85.0567	1,932.13	84.0174	1,932.13	84.3215	1,932.13	82.3871	1,932.13	83.155	1,932.13	80.3218	1,932.13	81.5577	1,932.13	78.112	1,932.13	79.526	1,932.13	75.9796	1,932.13	77.1458	1,932.13	73.9733	1,932.13	74.7243	1,932.13	72.0027	1,932.13	72.5982	1,932.13	70.0356	1,932.13	70.6492	1,932.13	68.1423	1,932.13	68.388	1,932.13	66.3457	1,932.13	65.7493	1,932.13	64.939	1,932.13	63.9212	1,932.13	64.9213	1,932.13	64.0101	1,932.13	65.1209	1,932.13	63.8245	1,932.13	63.1652	1,932.13	61.8467	1,932.13	58.29	1,932.13	58.5868	1,932.13	53.7743	1,932.13	53.9418	1,932.13	51.2211
2,000.24	85.3274	2,000.24	84.8101	2,000.24	85.2856	2,000.24	83.7302	2,000.24	84.7264	2,000.24	82.1254	2,000.24	83.6935	2,000.24	80.0493	2,000.24	82.1805	2,000.24	77.5794	2,000.24	80.1198	2,000.24	74.8584	2,000.24	77.5111	2,000.24	72.1036	2,000.24	74.5885	2,000.24	69.6175	2,000.24	71.7201	2,000.24	67.6264	2,000.24	69.1596	2,000.24	65.8183	2,000.24	66.988	2,000.24	63.6503	2,000.24	64.8972	2,000.24	62.3331	2,000.24	62.3612	2,000.24	62.65	2,000.24	60.9903	2,000.24	61.1354	2,000.24	61.8374	2,000.24	56.9575	2,000.24	61.3397	2,000.24	58.2744	2,000.24	58.166	2,000.24	59.7246	2,000.24	54.2443	2,000.24	57.4128
2,070.56	86.1443	2,070.56	85.67	2,070.56	86.0557	2,070.56	84.5896	2,070.56	85.3915	2,070.56	82.833	2,070.56	84.1365	2,070.56	80.4373	2,070.56	82.318	2,070.56	77.6447	2,070.56	79.9915	2,070.56	74.6981	2,070.56	77.2326	2,070.56	71.5827	2,070.56	74.1924	2,070.56	68.3997	2,070.56	71.19	2,070.56	65.7608	2,070.56	68.6296	2,070.56	63.9851	2,070.56	66.5015	2,070.56	62.2292	2,070.56	64.3433	2,070.56	60.535	2,070.56	62.0824	2,070.56	60.4367	2,070.56	60.7508	2,070.56	59.3011	2,070.56	60.4284	2,070.56	54.3244	2,070.56	59.5593	2,070.56	40.6143	2,070.56	57.7668	2,070.56	44.0041	2,070.56	54.9237	2,070.56	50.6776
2,143.8	85.9777	2,143.8	85.5328	2,143.8	85.7615	2,143.8	84.3859	2,143.8	84.9011	2,143.8	82.5356	2,143.8	83.4439	2,143.8	80.1436	2,143.8	81.4859	2,143.8	77.5079	2,143.8	79.0063	2,143.8	74.6937	2,143.8	75.8807	2,143.8	71.4293	2,143.8	72.3071	2,143.8	67.9308	2,143.8	68.9796	2,143.8	65.4133	2,143.8	66.3384	2,143.8	64.2199	2,143.8	64.1455	2,143.8	62.4247	2,143.8	62.2926	2,143.8	58.7908	2,143.8	60.6966	2,143.8	58.4534	2,143.8	59.0773	2,143.8	59.0788	2,143.8	58.4251	2,143.8	56.3906	2,143.8	57.5476	2,143.8	51.533	2,143.8	54.0198	2,143.8	51.2316	2,143.8	49.9454	2,143.8	52.0603
2,219.24	85.2959	2,219.24	84.7246	2,219.24	85.2023	2,219.24	83.4637	2,219.24	84.4605	2,219.24	81.5096	2,219.24	83.0714	2,219.24	78.9454	2,219.24	80.9769	2,219.24	75.978	2,219.24	78.0825	2,219.24	72.7338	2,219.24	74.5572	2,219.24	69.112	2,219.24	70.9073	2,219.24	65.4921	2,219.24	67.299	2,219.24	63.2183	2,219.24	63.6464	2,219.24	62.6898	2,219.24	60.2947	2,219.24	61.892	2,219.24	58.2226	2,219.24	59.2214	2,219.24	58.1774	2,219.24	56.8126	2,219.24	58.4336	2,219.24	54.9124	2,219.24	57.4341	2,219.24	48.0268	2,219.24	56.5607	2,219.24	34.2293	2,219.24	55.6554	2,219.24	44.2095	2,219.24	51.8262	2,219.24	44.5071
2,297.61	86.6602	2,297.61	85.7883	2,297.61	86.7106	2,297.61	84.099	2,297.61	85.8804	2,297.61	81.5159	2,297.61	84.1679	2,297.61	78.0567	2,297.61	81.69	2,297.61	74.1546	2,297.61	78.6009	2,297.61	70.3001	2,297.61	74.9483	2,297.61	65.844	2,297.61	70.6319	2,297.61	60.1213	2,297.61	65.8138	2,297.61	56.0426	2,297.61	61.8902	2,297.61	57.0736	2,297.61	59.6206	2,297.61	57.731	2,297.61	57.9103	2,297.61	54.8729	2,297.61	56.9983	2,297.61	54.7589	2,297.61	57.8859	2,297.61	53.1512	2,297.61	58.9737	2,297.61	54.8004	2,297.61	59.3568	2,297.61	55.8762	2,297.61	59.3579	2,297.61	52.3475	2,297.61	58.0212	2,297.61	54.905
2,378.17	87.8851	2,378.17	87.0849	2,378.17	87.7455	2,378.17	85.3862	2,378.17	86.6744	2,378.17	82.7991	2,378.17	84.8005	2,378.17	79.3949	2,378.17	82.2441	2,378.17	75.6136	2,378.17	78.8045	2,378.17	71.776	2,378.17	74.3045	2,378.17	67.1956	2,378.17	69.5627	2,378.17	62.5863	2,378.17	65.9324	2,378.17	60.5201	2,378.17	63.7693	2,378.17	61.7524	2,378.17	62.1849	2,378.17	62.6848	2,378.17	60.5926	2,378.17	58.7747	2,378.17	60.4439	2,378.17	53.9472	2,378.17	62.0555	2,378.17	55.173	2,378.17	62.5636	2,378.17	54.3204	2,378.17	62.5762	2,378.17	55.6687	2,378.17	62.6612	2,378.17	55.801	2,378.17	60.9583	2,378.17	57.7875
2,462.4	87.3295	2,462.4	86.7206	2,462.4	87.2087	2,462.4	85.3629	2,462.4	86.2894	2,462.4	83.0965	2,462.4	84.5046	2,462.4	79.8375	2,462.4	81.7886	2,462.4	76.0496	2,462.4	78.1543	2,462.4	72.415	2,462.4	74.3136	2,462.4	68.7182	2,462.4	70.9958	2,462.4	65.18	2,462.4	67.6909	2,462.4	62.7622	2,462.4	65.2227	2,462.4	62.8728	2,462.4	63.673	2,462.4	63.024	2,462.4	62.6767	2,462.4	60.2334	2,462.4	62.3888	2,462.4	58.7	2,462.4	61.821	2,462.4	52.7266	2,462.4	61.191	2,462.4	55.1328	2,462.4	61.4469	2,462.4	58.3025	2,462.4	61.4313	2,462.4	54.3072	2,462.4	61.0858	2,462.4	58.4101
2,548.83	86.957	2,548.83	86.2313	2,548.83	86.8817	2,548.83	84.6831	2,548.83	85.9488	2,548.83	82.2194	2,548.83	84.1897	2,548.83	78.9713	2,548.83	81.7721	2,548.83	75.7393	2,548.83	78.7864	2,548.83	72.9878	2,548.83	75.6689	2,548.83	69.6282	2,548.83	73.1582	2,548.83	65.5925	2,548.83	70.8294	2,548.83	63.3815	2,548.83	68.4026	2,548.83	64.5166	2,548.83	65.8073	2,548.83	64.5246	2,548.83	63.9502	2,548.83	58.6755	2,548.83	64.2645	2,548.83	59.4794	2,548.83	63.3963	2,548.83	57.7332	2,548.83	58.0561	2,548.83	53.0514	2,548.83	53.7603	2,548.83	59.1946	2,548.83	57.6342	2,548.83	58.5062	2,548.83	60.8905	2,548.83	60.6745
2,638.92	86.5129	2,638.92	85.9072	2,638.92	86.3377	2,638.92	84.5125	2,638.92	85.4478	2,638.92	82.3594	2,638.92	83.9343	2,638.92	79.6339	2,638.92	81.8174	2,638.92	76.915	2,638.92	79.182	2,638.92	74.3457	2,638.92	76.8183	2,638.92	71.0307	2,638.92	75.0253	2,638.92	66.7971	2,638.92	72.8832	2,638.92	63.708	2,638.92	70.5286	2,638.92	63.9058	2,638.92	68.0101	2,638.92	63.8279	2,638.92	64.8727	2,638.92	59.6995	2,638.92	63.0701	2,638.92	56.6212	2,638.92	62.1598	2,638.92	56.4997	2,638.92	57.0139	2,638.92	61.5859	2,638.92	44.4035	2,638.92	61.4029	2,638.92	55.8409	2,638.92	59.3919	2,638.92	60.6852	2,638.92	61.6735
2,731.93	85.6021	2,731.93	85.1138	2,731.93	85.3682	2,731.93	83.9502	2,731.93	84.4468	2,731.93	82.2512	2,731.93	82.9635	2,731.93	80.2479	2,731.93	81.1497	2,731.93	78.2613	2,731.93	79.1824	2,731.93	76.0696	2,731.93	77.4069	2,731.93	72.8491	2,731.93	75.9191	2,731.93	68.7199	2,731.93	73.9755	2,731.93	65.716	2,731.93	71.4573	2,731.93	64.678	2,731.93	68.7906	2,731.93	63.1444	2,731.93	66.2889	2,731.93	59.4679	2,731.93	64.087	2,731.93	61.1339	2,731.93	60.2507	2,731.93	57.9893	2,731.93	47.1607	2,731.93	61.8544	2,731.93	55.8965	2,731.93	60.7407	2,731.93	61.4024	2,731.93	59.594	2,731.93	61.4188	2,731.93	61.7267
2,828.61	84.9204	2,828.61	84.4648	2,828.61	84.6702	2,828.61	83.4773	2,828.61	83.74	2,828.61	82.2095	2,828.61	82.3813	2,828.61	80.762	2,828.61	80.9936	2,828.61	79.1156	2,828.61	79.6956	2,828.61	77.0163	2,828.61	78.4792	2,828.61	74.0305	2,828.61	77.2418	2,828.61	70.5724	2,828.61	75.3079	2,828.61	68.1975	2,828.61	72.5024	2,828.61	66.6159	2,828.61	69.4762	2,828.61	63.8919	2,828.61	66.9452	2,828.61	61.217	2,828.61	65.268	2,828.61	62.0965	2,828.61	63.3443	2,828.61	59.9683	2,828.61	58.3483	2,828.61	65.0383	2,828.61	54.5702	2,828.61	63.1534	2,828.61	62.7013	2,828.61	58.3822	2,828.61	62.7076	2,828.61	61.204
2,928.22	84.1701	2,928.22	83.6427	2,928.22	83.8643	2,928.22	82.7525	2,928.22	82.7453	2,928.22	81.9444	2,928.22	81.4993	2,928.22	81.077	2,928.22	80.8109	2,928.22	79.8261	2,928.22	80.1674	2,928.22	77.966	2,928.22	79.1833	2,928.22	75.2184	2,928.22	78.0687	2,928.22	72.0422	2,928.22	76.1601	2,928.22	69.8789	2,928.22	73.158	2,928.22	68.0486	2,928.22	70.2614	2,928.22	64.5743	2,928.22	68.6587	2,928.22	62.6998	2,928.22	67.2201	2,928.22	63.9862	2,928.22	63.727	2,928.22	59.4557	2,928.22	58.8418	2,928.22	63.6018	2,928.22	61.32	2,928.22	59.9523	2,928.22	64.8077	2,928.22	56.317	2,928.22	62.4452	2,928.22	58.7015
3,031.49	82.5968	3,031.49	82.2153	3,031.49	82.4307	3,031.49	81.7982	3,031.49	81.6593	3,031.49	81.3886	3,031.49	80.9648	3,031.49	80.6726	3,031.49	80.687	3,031.49	79.615	3,031.49	80.2847	3,031.49	78.1214	3,031.49	79.5404	3,031.49	75.8306	3,031.49	78.4501	3,031.49	73.0953	3,031.49	76.4357	3,031.49	70.9033	3,031.49	73.4927	3,031.49	68.7791	3,031.49	70.6087	3,031.49	65.7103	3,031.49	68.2902	3,031.49	63.9284	3,031.49	65.7985	3,031.49	63.2585	3,031.49	65.0087	3,031.49	59.9207	3,031.49	65.2683	3,031.49	64.632	3,031.49	62.1119	3,031.49	61.8653	3,031.49	64.6499	3,031.49	49.6851	3,031.49	63.3069	3,031.49	56.8239
3,138.43	83.1143	3,138.43	82.681	3,138.43	82.8766	3,138.43	82.1396	3,138.43	82.1284	3,138.43	81.7895	3,138.43	81.6296	3,138.43	81.2439	3,138.43	81.4835	3,138.43	80.0592	3,138.43	81.1192	3,138.43	78.055	3,138.43	80.3512	3,138.43	75.3757	3,138.43	79.2289	3,138.43	72.7993	3,138.43	77.323	3,138.43	70.6139	3,138.43	74.5077	3,138.43	67.6423	3,138.43	71.8974	3,138.43	64.6213	3,138.43	70.6371	3,138.43	65.7502	3,138.43	68.8268	3,138.43	65.1062	3,138.43	63.6131	3,138.43	58.7907	3,138.43	62.9699	3,138.43	63.0408	3,138.43	64.3257	3,138.43	56.8259	3,138.43	64.1326	3,138.43	54.8841	3,138.43	61.4065	3,138.43	52.0032
3,249.02	83.381	3,249.02	83.1234	3,249.02	83.0873	3,249.02	82.6468	3,249.02	82.4884	3,249.02	82.1703	3,249.02	82.0647	3,249.02	81.4397	3,249.02	81.8272	3,249.02	80.1567	3,249.02	81.3908	3,249.02	78.2335	3,249.02	80.5809	3,249.02	75.6271	3,249.02	79.4545	3,249.02	73.0203	3,249.02	77.6923	3,249.02	71.1763	3,249.02	75.1441	3,249.02	68.7203	3,249.02	72.6103	3,249.02	64.4709	3,249.02	71.0235	3,249.02	64.3776	3,249.02	69.4356	3,249.02	65.2771	3,249.02	66.1555	3,249.02	58.4486	3,249.02	64.3781	3,249.02	61.1468	3,249.02	65.0098	3,249.02	55.1977	3,249.02	64.4294	3,249.02	56.4997	3,249.02	60.1339	3,249.02	55.2593
3,363.28	83.6668	3,363.28	83.3503	3,363.28	83.5485	3,363.28	82.9907	3,363.28	82.8679	3,363.28	82.4937	3,363.28	82.1025	3,363.28	81.5666	3,363.28	81.6546	3,363.28	80.2945	3,363.28	81.1985	3,363.28	78.6762	3,363.28	80.4249	3,363.28	76.4027	3,363.28	79.2552	3,363.28	73.9259	3,363.28	77.3179	3,363.28	72.0928	3,363.28	74.6862	3,363.28	70.2043	3,363.28	72.2612	3,363.28	66.6802	3,363.28	70.7265	3,363.28	64.8723	3,363.28	69.1647	3,363.28	65.8467	3,363.28	66.7351	3,363.28	61.3192	3,363.28	65.3119	3,363.28	60.8089	3,363.28	65.3786	3,363.28	50.1573	3,363.28	65.0546	3,363.28	60.3838	3,363.28	59.3364	3,363.28	57.1543
3,481.93	84.0276	3,481.93	83.5305	3,481.93	83.9461	3,481.93	83.0622	3,481.93	83.3305	3,481.93	82.6473	3,481.93	82.7433	3,481.93	81.7802	3,481.93	82.2403	3,481.93	80.5706	3,481.93	81.6075	3,481.93	79.1779	3,481.93	80.9044	3,481.93	77.1787	3,481.93	79.8887	3,481.93	74.8886	3,481.93	78.1144	3,481.93	72.7403	3,481.93	75.4489	3,481.93	70.1476	3,481.93	72.5429	3,481.93	66.9039	3,481.93	71.1914	3,481.93	65.4471	3,481.93	70.7447	3,481.93	64.8274	3,481.93	68.388	3,481.93	61.2882	3,481.93	65.3782	3,481.93	60.0853	3,481.93	66.2251	3,481.93	47.0464	3,481.93	65.2871	3,481.93	62.9167	3,481.93	57.3853	3,481.93	59.7893
3,604.98	84.055	3,604.98	83.7922	3,604.98	83.9615	3,604.98	83.621	3,604.98	83.4079	3,604.98	83.3384	3,604.98	82.8271	3,604.98	82.5589	3,604.98	82.4324	3,604.98	81.5697	3,604.98	82.0946	3,604.98	80.1213	3,604.98	81.7131	3,604.98	77.554	3,604.98	80.8151	3,604.98	74.5906	3,604.98	78.9556	3,604.98	72.3807	3,604.98	76.3037	3,604.98	70.5111	3,604.98	73.6276	3,604.98	67.6697	3,604.98	71.7768	3,604.98	65.3992	3,604.98	70.4131	3,604.98	65.1473	3,604.98	68.6259	3,604.98	61.1044	3,604.98	66.0899	3,604.98	61.0545	3,604.98	66.5194	3,604.98	36.6308	3,604.98	66.8303	3,604.98	61.9348	3,604.98	60.5926	3,604.98	56.9482
3,732.42	83.3549	3,732.42	83.0801	3,732.42	83.3073	3,732.42	83.0167	3,732.42	82.8192	3,732.42	82.9571	3,732.42	82.3956	3,732.42	82.5547	3,732.42	82.2019	3,732.42	82.0548	3,732.42	82.1863	3,732.42	80.9261	3,732.42	82.1662	3,732.42	78.6364	3,732.42	81.3186	3,732.42	75.9076	3,732.42	79.2899	3,732.42	73.3218	3,732.42	76.4085	3,732.42	71.0252	3,732.42	73.4573	3,732.42	68.4639	3,732.42	71.7796	3,732.42	66.2667	3,732.42	70.4255	3,732.42	65.6695	3,732.42	68.1377	3,732.42	61.3146	3,732.42	66.0259	3,732.42	61.0236	3,732.42	65.2262	3,732.42	44.5416	3,732.42	66.1026	3,732.42	62.4959	3,732.42	59.8443	3,732.42	58.7414
3,863.53	83.4977	3,863.53	83.1838	3,863.53	83.3974	3,863.53	82.9489	3,863.53	82.9445	3,863.53	82.8689	3,863.53	82.6046	3,863.53	82.6287	3,863.53	82.5146	3,863.53	82.1337	3,863.53	82.6451	3,863.53	80.8798	3,863.53	82.5524	3,863.53	78.6385	3,863.53	81.4296	3,863.53	76.1101	3,863.53	79.224	3,863.53	73.5829	3,863.53	76.2883	3,863.53	71.0761	3,863.53	73.3589	3,863.53	68.6113	3,863.53	71.8131	3,863.53	66.8957	3,863.53	70.8423	3,863.53	65.1608	3,863.53	68.5787	3,863.53	63.1074	3,863.53	65.4993	3,863.53	63.6204	3,863.53	64.2268	3,863.53	48.2511	3,863.53	65.1228	3,863.53	63.4061	3,863.53	60.9112	3,863.53	57.2992
3,999.76	83.9338	3,999.76	83.3873	3,999.76	83.6916	3,999.76	82.9367	3,999.76	82.887	3,999.76	82.9716	3,999.76	82.5626	3,999.76	82.902	3,999.76	82.8835	3,999.76	82.397	3,999.76	83.221	3,999.76	80.9572	3,999.76	82.9688	3,999.76	78.314	3,999.76	81.5805	3,999.76	75.4842	3,999.76	79.2473	3,999.76	73.3003	3,999.76	76.5521	3,999.76	71.2878	3,999.76	73.8317	3,999.76	68.3856	3,999.76	71.8098	3,999.76	66.423	3,999.76	70.2455	3,999.76	64.8226	3,999.76	68.079	3,999.76	58.8979	3,999.76	64.4741	3,999.76	63.144	3,999.76	62.0835	3,999.76	41.0673	3,999.76	62.0625	3,999.76	62.2644	3,999.76	59.2205	3,999.76	55.2086
4,141.11	83.8004	4,141.11	83.4546	4,141.11	83.5727	4,141.11	83.2541	4,141.11	82.9422	4,141.11	83.3558	4,141.11	82.6376	4,141.11	83.2781	4,141.11	82.7652	4,141.11	82.7716	4,141.11	82.9007	4,141.11	81.3173	4,141.11	82.424	4,141.11	78.8119	4,141.11	80.8603	4,141.11	75.9522	4,141.11	78.5059	4,141.11	72.7305	4,141.11	75.4367	4,141.11	69.8016	4,141.11	72.2057	4,141.11	66.7993	4,141.11	70.7425	4,141.11	64.2287	4,141.11	69.5843	4,141.11	64.5641	4,141.11	67.9281	4,141.11	58.8084	4,141.11	66.2942	4,141.11	60.2318	4,141.11	63.5627	4,141.11	39.6795	4,141.11	63.4472	4,141.11	61.8224	4,141.11	58.4949	4,141.11	55.7998
4,286.87	83.9129	4,286.87	83.42	4,286.87	83.7009	4,286.87	83.1036	4,286.87	83.2924	4,286.87	83.1306	4,286.87	83.3788	4,286.87	82.7377	4,286.87	83.4084	4,286.87	81.7951	4,286.87	83.0596	4,286.87	80.114	4,286.87	82.3412	4,286.87	77.4548	4,286.87	80.8535	4,286.87	75.0146	4,286.87	78.6057	4,286.87	73.3616	4,286.87	75.7404	4,286.87	71.7632	4,286.87	72.8842	4,286.87	69.2957	4,286.87	70.8865	4,286.87	67.1994	4,286.87	68.5676	4,286.87	64.6655	4,286.87	66.6188	4,286.87	58.335	4,286.87	61.8194	4,286.87	62.5962	4,286.87	61.5515	4,286.87	32.5435	4,286.87	62.3316	4,286.87	59.491	4,286.87	57.1702	4,286.87	51.5654
4,438.48	83.8804	4,438.48	83.9696	4,438.48	83.592	4,438.48	84.1362	4,438.48	83.3363	4,438.48	84.1667	4,438.48	83.1679	4,438.48	83.719	4,438.48	82.843	4,438.48	82.9528	4,438.48	82.451	4,438.48	81.3116	4,438.48	82.0072	4,438.48	78.4324	4,438.48	81.0048	4,438.48	74.7417	4,438.48	79.1596	4,438.48	70.5411	4,438.48	75.9873	4,438.48	68.5923	4,438.48	72.6434	4,438.48	66.5875	4,438.48	71.7483	4,438.48	63.1792	4,438.48	70.0016	4,438.48	63.3762	4,438.48	66.2444	4,438.48	55.5663	4,438.48	64.9096	4,438.48	58.7485	4,438.48	59.5507	4,438.48	50.3806	4,438.48	65.0314	4,438.48	59.9748	4,438.48	60.0593	4,438.48	56.7142
4,594.48	83.6595	4,594.48	83.3773	4,594.48	83.7085	4,594.48	83.3622	4,594.48	83.559	4,594.48	83.4891	4,594.48	83.2173	4,594.48	83.0904	4,594.48	82.713	4,594.48	82.4132	4,594.48	82.5054	4,594.48	81.0422	4,594.48	82.4377	4,594.48	78.4774	4,594.48	81.5421	4,594.48	75.7557	4,594.48	79.3553	4,594.48	73.5319	4,594.48	76.2172	4,594.48	72.1326	4,594.48	73.5118	4,594.48	69.549	4,594.48	72.1497	4,594.48	66.308	4,594.48	70.1386	4,594.48	64.4263	4,594.48	66.5033	4,594.48	55.7098	4,594.48	62.6579	4,594.48	63.624	4,594.48	53.7362	4,594.48	54.0906	4,594.48	60.6911	4,594.48	56.8448	4,594.48	59.5676	4,594.48	54.8741
4,757.08	84.3763	4,757.08	84.0712	4,757.08	84.3112	4,757.08	83.6385	4,757.08	84.2278	4,757.08	83.3724	4,757.08	83.9422	4,757.08	83.1779	4,757.08	83.2757	4,757.08	83.1348	4,757.08	82.9627	4,757.08	82.0481	4,757.08	82.9764	4,757.08	79.4379	4,757.08	82.148	4,757.08	76.0191	4,757.08	80.2476	4,757.08	72.0761	4,757.08	77.1442	4,757.08	70.4509	4,757.08	73.4305	4,757.08	68.3701	4,757.08	71.9226	4,757.08	64.6218	4,757.08	70.4479	4,757.08	63.2048	4,757.08	66.4923	4,757.08	55.4529	4,757.08	65.4075	4,757.08	62.2348	4,757.08	55.8517	4,757.08	49.4639	4,757.08	63.4901	4,757.08	58.6269	4,757.08	58.9229	4,757.08	59.5729
4,924.8	84.5624	4,924.8	84.4926	4,924.8	84.3892	4,924.8	83.9626	4,924.8	84.457	4,924.8	83.3474	4,924.8	84.0211	4,924.8	83.0738	4,924.8	82.9249	4,924.8	83.035	4,924.8	82.521	4,924.8	81.8163	4,924.8	82.5132	4,924.8	79.3564	4,924.8	81.4321	4,924.8	76.3248	4,924.8	79.21	4,924.8	72.7533	4,924.8	76.0127	4,924.8	71.1135	4,924.8	72.5276	4,924.8	68.9561	4,924.8	70.7464	4,924.8	65.4675	4,924.8	69.2028	4,924.8	64.5744	4,924.8	64.5796	4,924.8	48.1173	4,924.8	64.274	4,924.8	63.0499	4,924.8	55.5221	4,924.8	52.8517	4,924.8	60.777	4,924.8	59.457	4,924.8	58.0263	4,924.8	59.9477
5,098.39	84.5961	5,098.39	84.4293	5,098.39	84.6387	5,098.39	83.5131	5,098.39	84.8495	5,098.39	82.4843	5,098.39	84.1773	5,098.39	82.4461	5,098.39	82.9005	5,098.39	82.9072	5,098.39	82.558	5,098.39	82.019	5,098.39	82.4004	5,098.39	79.658	5,098.39	81.491	5,098.39	76.3315	5,098.39	79.6888	5,098.39	72.6982	5,098.39	76.6399	5,098.39	71.7731	5,098.39	72.9569	5,098.39	69.3801	5,098.39	70.4712	5,098.39	64.1812	5,098.39	69.3982	5,098.39	63.9111	5,098.39	64.4419	5,098.39	55.9453	5,098.39	63.8513	5,098.39	63.3798	5,098.39	53.6812	5,098.39	55.1129	5,098.39	63.03	5,098.39	60.7606	5,098.39	60.0975	5,098.39	59.5307
5,277.83	84.3341	5,277.83	84.3827	5,277.83	84.4189	5,277.83	83.7928	5,277.83	84.4742	5,277.83	82.8381	5,277.83	83.421	5,277.83	82.5244	5,277.83	82.144	5,277.83	82.5576	5,277.83	82.0345	5,277.83	81.3163	5,277.83	81.7118	5,277.83	78.768	5,277.83	80.6565	5,277.83	75.2497	5,277.83	78.5813	5,277.83	70.8902	5,277.83	75.7025	5,277.83	70.2384	5,277.83	72.2948	5,277.83	68.2733	5,277.83	68.9559	5,277.83	64.2265	5,277.83	67.6943	5,277.83	66.748	5,277.83	63.3069	5,277.83	55.1108	5,277.83	63.0697	5,277.83	63.0996	5,277.83	54.5978	5,277.83	56.8898	5,277.83	61.2092	5,277.83	59.561	5,277.83	60.5984	5,277.83	59.8844
5,463.87	84.2227	5,463.87	83.8792	5,463.87	84.493	5,463.87	82.8849	5,463.87	84.3217	5,463.87	81.5722	5,463.87	82.9587	5,463.87	81.1884	5,463.87	81.6829	5,463.87	81.3576	5,463.87	81.5278	5,463.87	80.4028	5,463.87	81.0967	5,463.87	78.3228	5,463.87	80.2244	5,463.87	75.4158	5,463.87	78.2532	5,463.87	71.9432	5,463.87	75.6649	5,463.87	71.3628	5,463.87	72.5828	5,463.87	69.5911	5,463.87	69.3079	5,463.87	60.2284	5,463.87	68.4434	5,463.87	62.6879	5,463.87	63.9098	5,463.87	55.7828	5,463.87	63.1598	5,463.87	62.5054	5,463.87	55.2386	5,463.87	56.1299	5,463.87	60.5971	5,463.87	58.0549	5,463.87	60.4287	5,463.87	59.3285
5,656.49	83.89	5,656.49	83.3662	5,656.49	84.2217	5,656.49	82.5693	5,656.49	83.757	5,656.49	81.6718	5,656.49	82.3553	5,656.49	81.2262	5,656.49	81.6024	5,656.49	81.0763	5,656.49	81.449	5,656.49	80.0467	5,656.49	80.7371	5,656.49	78.0007	5,656.49	79.5202	5,656.49	75.2774	5,656.49	77.1118	5,656.49	70.7617	5,656.49	74.7049	5,656.49	67.9918	5,656.49	71.7855	5,656.49	66.3139	5,656.49	68.6862	5,656.49	58.8816	5,656.49	67.5161	5,656.49	63.9101	5,656.49	63.3658	5,656.49	53.9268	5,656.49	63.1932	5,656.49	62.751	5,656.49	55.7628	5,656.49	52.7549	5,656.49	58.9065	5,656.49	59.0788	5,656.49	60.6361	5,656.49	59.741
5,856.45	84.2101	5,856.45	83.7739	5,856.45	84.4105	5,856.45	82.8591	5,856.45	83.8905	5,856.45	81.5775	5,856.45	82.5472	5,856.45	80.6416	5,856.45	81.7547	5,856.45	80.1528	5,856.45	81.2351	5,856.45	79.0151	5,856.45	80.2929	5,856.45	76.9506	5,856.45	78.9953	5,856.45	74.0521	5,856.45	76.5777	5,856.45	69.7584	5,856.45	74.6595	5,856.45	68.8206	5,856.45	71.4996	5,856.45	67.7792	5,856.45	67.0123	5,856.45	57.9884	5,856.45	65.5369	5,856.45	63.8656	5,856.45	59.9522	5,856.45	59.9073	5,856.45	60.6045	5,856.45	61.3575	5,856.45	53.773	5,856.45	53.8011	5,856.45	58.8298	5,856.45	58.835	5,856.45	58.2635	5,856.45	58.2915
6,062.99	85.3144	6,062.99	84.6529	6,062.99	85.4072	6,062.99	83.5914	6,062.99	84.5574	6,062.99	82.1655	6,062.99	83.1051	6,062.99	80.7616	6,062.99	82.1676	6,062.99	80.0008	6,062.99	81.2127	6,062.99	78.9334	6,062.99	80.1395	6,062.99	77.021	6,062.99	78.7595	6,062.99	74.6007	6,062.99	76.4398	6,062.99	70.1631	6,062.99	74.7613	6,062.99	67.2897	6,062.99	71.2217	6,062.99	66.5915	6,062.99	66.8563	6,062.99	56.022	6,062.99	65.8006	6,062.99	61.8998	6,062.99	59.6445	6,062.99	58.3489	6,062.99	58.6758	6,062.99	60.7093	6,062.99	49.2377	6,062.99	53.0194	6,062.99	58.7064	6,062.99	57.3272	6,062.99	59.4092	6,062.99	56.9979
6,276.86	85.6056	6,276.86	84.7235	6,276.86	85.8755	6,276.86	83.4129	6,276.86	85.3405	6,276.86	81.8148	6,276.86	84.1819	6,276.86	80.4815	6,276.86	83.0291	6,276.86	80.0258	6,276.86	81.8638	6,276.86	78.9785	6,276.86	80.8958	6,276.86	76.9984	6,276.86	79.6503	6,276.86	74.8248	6,276.86	77.7232	6,276.86	70.2575	6,276.86	75.9039	6,276.86	66.2793	6,276.86	72.2684	6,276.86	65.9396	6,276.86	67.5673	6,276.86	56.661	6,276.86	67.3757	6,276.86	62.7843	6,276.86	61.9343	6,276.86	57.9891	6,276.86	57.75	6,276.86	56.1146	6,276.86	49.1306	6,276.86	54.2112	6,276.86	57.647	6,276.86	54.3597	6,276.86	58.7223	6,276.86	52.8628
6,498.05	85.9737	6,498.05	85.2227	6,498.05	86.1984	6,498.05	83.9009	6,498.05	85.6213	6,498.05	82.2135	6,498.05	84.2373	6,498.05	80.9181	6,498.05	83.0161	6,498.05	80.302	6,498.05	81.9617	6,498.05	78.8528	6,498.05	81.0881	6,498.05	76.8952	6,498.05	79.9254	6,498.05	74.5761	6,498.05	77.7599	6,498.05	69.3187	6,498.05	76.1746	6,498.05	65.3759	6,498.05	72.6858	6,498.05	65.8802	6,498.05	67.0025	6,498.05	56.9226	6,498.05	65.7681	6,498.05	60.977	6,498.05	61.6883	6,498.05	56.1624	6,498.05	59.8199	6,498.05	58.7064	6,498.05	55.6032	6,498.05	52.3913	6,498.05	56.443	6,498.05	50.8826	6,498.05	60.3631	6,498.05	58.0892
6,727.29	86.8855	6,727.29	85.8076	6,727.29	87.0714	6,727.29	84.2451	6,727.29	86.1009	6,727.29	82.5542	6,727.29	84.5082	6,727.29	80.9916	6,727.29	83.4116	6,727.29	79.9658	6,727.29	82.2829	6,727.29	78.5096	6,727.29	81.4021	6,727.29	76.6901	6,727.29	79.9616	6,727.29	74.6411	6,727.29	77.6802	6,727.29	69.7417	6,727.29	76.3028	6,727.29	65.1879	6,727.29	72.7735	6,727.29	65.5848	6,727.29	67.6365	6,727.29	57.647	6,727.29	66.6303	6,727.29	60.4566	6,727.29	62.6042	6,727.29	55.8274	6,727.29	57.6469	6,727.29	58.1308	6,727.29	52.4011	6,727.29	53.5113	6,727.29	48.6511	6,727.29	52.7963	6,727.29	60.1901	6,727.29	56.6586
6,964.6	86.7903	6,964.6	85.9397	6,964.6	86.7813	6,964.6	84.3952	6,964.6	86.045	6,964.6	82.631	6,964.6	84.7882	6,964.6	81.245	6,964.6	83.3621	6,964.6	80.2522	6,964.6	82.0382	6,964.6	78.4663	6,964.6	81.1229	6,964.6	76.5144	6,964.6	79.4119	6,964.6	74.1629	6,964.6	77.4283	6,964.6	69.5562	6,964.6	76.1154	6,964.6	65.4604	6,964.6	72.4666	6,964.6	65.2694	6,964.6	66.9041	6,964.6	56.9739	6,964.6	65.5175	6,964.6	59.1728	6,964.6	61.9062	6,964.6	53.981	6,964.6	58.2608	6,964.6	56.9561	6,964.6	57.0689	6,964.6	49.5091	6,964.6	45.1351	6,964.6	42.707	6,964.6	57.025	6,964.6	56.7938
7,209.96	86.8486	7,209.96	85.8086	7,209.96	86.9498	7,209.96	84.1407	7,209.96	86.0288	7,209.96	82.5837	7,209.96	84.2957	7,209.96	81.2976	7,209.96	83.0088	7,209.96	80.1157	7,209.96	81.992	7,209.96	78.4321	7,209.96	80.7912	7,209.96	76.6247	7,209.96	79.0069	7,209.96	74.7792	7,209.96	76.7786	7,209.96	70.2556	7,209.96	75.1989	7,209.96	64.9752	7,209.96	71.6737	7,209.96	65.3333	7,209.96	67.0591	7,209.96	58.6568	7,209.96	65.0812	7,209.96	59.4393	7,209.96	62.1353	7,209.96	56.1838	7,209.96	59.1008	7,209.96	59.2889	7,209.96	55.943	7,209.96	46.1146	7,209.96	49.3656	7,209.96	49.4274	7,209.96	59.1397	7,209.96	57.3677
7,464.11	86.1697	7,464.11	85.1244	7,464.11	86.1146	7,464.11	83.4157	7,464.11	85.1959	7,464.11	81.8083	7,464.11	83.8616	7,464.11	80.3767	7,464.11	82.6978	7,464.11	79.303	7,464.11	81.4021	7,464.11	77.8793	7,464.11	80.0889	7,464.11	76.286	7,464.11	78.1598	7,464.11	74.6224	7,464.11	75.8319	7,464.11	69.9053	7,464.11	74.5281	7,464.11	64.4366	7,464.11	71.6143	7,464.11	64.586	7,464.11	67.3442	7,464.11	58.533	7,464.11	65.1213	7,464.11	59.6201	7,464.11	60.2873	7,464.11	57.5986	7,464.11	57.6654	7,464.11	56.5408	7,464.11	51.2555	7,464.11	34.7294	7,464.11	49.5683	7,464.11	46.2817	7,464.11	57.1761	7,464.11	57.063
7,727.78	84.9611	7,727.78	84.1126	7,727.78	84.9252	7,727.78	82.6154	7,727.78	84.0483	7,727.78	81.1053	7,727.78	82.4771	7,727.78	79.6762	7,727.78	81.1238	7,727.78	78.4884	7,727.78	79.7986	7,727.78	76.8202	7,727.78	78.3793	7,727.78	74.847	7,727.78	76.2406	7,727.78	72.8062	7,727.78	74.3551	7,727.78	68.128	7,727.78	73.3339	7,727.78	63.6402	7,727.78	69.5852	7,727.78	63.6077	7,727.78	64.9587	7,727.78	58.388	7,727.78	63.1844	7,727.78	59.106	7,727.78	58.8584	7,727.78	54.2965	7,727.78	56.0408	7,727.78	53.4997	7,727.78	46.8149	7,727.78	39.9312	7,727.78	52.5212	7,727.78	47.7058	7,727.78	58.3492	7,727.78	56.6562
8,000.24	84.8255	8,000.24	83.8608	8,000.24	84.7252	8,000.24	82.3476	8,000.24	83.6728	8,000.24	80.834	8,000.24	82.0249	8,000.24	79.1321	8,000.24	80.5105	8,000.24	77.181	8,000.24	78.875	8,000.24	74.504	8,000.24	76.7264	8,000.24	72.2109	8,000.24	74.7628	8,000.24	70.1474	8,000.24	72.5776	8,000.24	65.7329	8,000.24	70.4457	8,000.24	62.7141	8,000.24	66.6646	8,000.24	61.7746	8,000.24	61.4191	8,000.24	53.001	8,000.24	60.3845	8,000.24	57.0844	8,000.24	55.0662	8,000.24	49.9894	8,000.24	55.9715	8,000.24	51.7201	8,000.24	28.9337	8,000.24	48.648	8,000.24	52.7451	8,000.24	47.3329	8,000.24	52.8027	8,000.24	55.2835
8,282.23	86.0452	8,282.23	85.0126	8,282.23	86.0319	8,282.23	83.186	8,282.23	85.0531	8,282.23	81.1656	8,282.23	83.166	8,282.23	79.0035	8,282.23	81.5171	8,282.23	76.9099	8,282.23	79.5125	8,282.23	74.7697	8,282.23	77.2281	8,282.23	72.9209	8,282.23	75.106	8,282.23	70.9409	8,282.23	71.9333	8,282.23	66.0263	8,282.23	70.9339	8,282.23	60.4394	8,282.23	66.6573	8,282.23	61.7024	8,282.23	60.0528	8,282.23	51.4244	8,282.23	59.9435	8,282.23	57.2859	8,282.23	52.0374	8,282.23	52.6429	8,282.23	56.4791	8,282.23	51.2002	8,282.23	39.6505	8,282.23	49.8108	8,282.23	51.9698	8,282.23	50.9594	8,282.23	55.881	8,282.23	56.3934
8,574.46	87.2826	8,574.46	86.2545	8,574.46	87.1699	8,574.46	84.4673	8,574.46	86.059	8,574.46	82.4551	8,574.46	84.4638	8,574.46	80.1954	8,574.46	82.9263	8,574.46	77.8629	8,574.46	80.3794	8,574.46	75.5848	8,574.46	78.1113	8,574.46	73.4482	8,574.46	75.6554	8,574.46	71.7358	8,574.46	73.0675	8,574.46	67.1283	8,574.46	72.0311	8,574.46	59.8212	8,574.46	67.2467	8,574.46	60.6139	8,574.46	61.5122	8,574.46	56.7825	8,574.46	60.3822	8,574.46	55.4632	8,574.46	51.8864	8,574.46	55.1065	8,574.46	57.7165	8,574.46	42.3576	8,574.46	38.672	8,574.46	30.5257	8,574.46	52.0192	8,574.46	27.5727	8,574.46	56.444	8,574.46	56.9991
8,876.22	87.0533	8,876.22	86.3302	8,876.22	86.9459	8,876.22	84.8988	8,876.22	86.1394	8,876.22	82.8172	8,876.22	84.6889	8,876.22	80.3365	8,876.22	82.6504	8,876.22	77.829	8,876.22	80.1404	8,876.22	75.1203	8,876.22	78.1449	8,876.22	73.0856	8,876.22	75.6743	8,876.22	71.6889	8,876.22	73.6648	8,876.22	67.1598	8,876.22	72.1068	8,876.22	60.4624	8,876.22	67.9588	8,876.22	59.6668	8,876.22	62.3907	8,876.22	56.6711	8,876.22	61.6796	8,876.22	53.2798	8,876.22	51.0552	8,876.22	50.1645	8,876.22	58.1612	8,876.22	48.7773	8,876.22	35.8767	8,876.22	49.2777	8,876.22	54.5532	8,876.22	53.3515	8,876.22	57.102	8,876.22	54.2554
9,189.7	86.1419	9,189.7	85.3125	9,189.7	86.0287	9,189.7	83.8459	9,189.7	85.0847	9,189.7	81.8406	9,189.7	83.5964	9,189.7	79.3238	9,189.7	81.7182	9,189.7	76.6639	9,189.7	79.3509	9,189.7	74.3527	9,189.7	77.2083	9,189.7	72.9247	9,189.7	74.9845	9,189.7	72.1133	9,189.7	72.9314	9,189.7	67.8885	9,189.7	71.8151	9,189.7	62.5681	9,189.7	67.8883	9,189.7	60.6538	9,189.7	60.8586	9,189.7	58.1058	9,189.7	60.5003	9,189.7	55.208	9,189.7	45.4121	9,189.7	52.0008	9,189.7	57.7739	9,189.7	49.9884	9,189.7	48.997	9,189.7	53.2508	9,189.7	56.4069	9,189.7	54.2039	9,189.7	54.0622	9,189.7	50.9426
9,513.43	84.3712	9,513.43	83.7851	9,513.43	84.2826	9,513.43	82.3224	9,513.43	83.7234	9,513.43	79.6781	9,513.43	82.2409	9,513.43	77.0755	9,513.43	80.1553	9,513.43	75.0071	9,513.43	77.6388	9,513.43	73.1448	9,513.43	75.4744	9,513.43	72.398	9,513.43	73.6349	9,513.43	71.0622	9,513.43	71.9702	9,513.43	67.3318	9,513.43	71.2682	9,513.43	62.0388	9,513.43	66.5708	9,513.43	60.3188	9,513.43	60.6968	9,513.43	57.2794	9,513.43	60.7154	9,513.43	56.2398	9,513.43	41.3279	9,513.43	51.8991	9,513.43	57.3827	9,513.43	48.0647	9,513.43	54.0413	9,513.43	53.7125	9,513.43	55.8687	9,513.43	57.5903	9,513.43	54.7115	9,513.43	51.6027
9,848.88	83.8297	9,848.88	83.2644	9,848.88	83.7321	9,848.88	81.8306	9,848.88	83.1161	9,848.88	78.988	9,848.88	81.7406	9,848.88	76.2427	9,848.88	79.3263	9,848.88	73.883	9,848.88	76.6383	9,848.88	71.9788	9,848.88	75.0849	9,848.88	70.5668	9,848.88	73.1164	9,848.88	69.5753	9,848.88	71.2648	9,848.88	65.8326	9,848.88	69.1115	9,848.88	58.2154	9,848.88	64.8946	9,848.88	56.7849	9,848.88	57.4128	9,848.88	54.6133	9,848.88	60.6995	9,848.88	56.9485	9,848.88	43.8101	9,848.88	55.5008	9,848.88	58.9779	9,848.88	48.5718	9,848.88	56.7597	9,848.88	51.1982	9,848.88	51.0924	9,848.88	56.68	9,848.88	59.2403	9,848.88	54.7649
10,196.8	84.382	10,196.8	83.9251	10,196.8	84.4276	10,196.8	82.3242	10,196.8	83.9677	10,196.8	78.7869	10,196.8	82.1078	10,196.8	76.2445	10,196.8	79.6243	10,196.8	74.2579	10,196.8	77.2312	10,196.8	72.5087	10,196.8	75.7201	10,196.8	71.0011	10,196.8	72.9341	10,196.8	70.2441	10,196.8	71.8355	10,196.8	65.766	10,196.8	70.7412	10,196.8	57.4594	10,196.8	66.6135	10,196.8	57.0811	10,196.8	51.927	10,196.8	56.598	10,196.8	61.9145	10,196.8	56.5217	10,196.8	51.874	10,196.8	58.298	10,196.8	60.5184	10,196.8	51.8493	10,196.8	57.275	10,196.8	52.7981	10,196.8	55.2674	10,196.8	58.2875	10,196.8	61.4338	10,196.8	57.1616
10,556.4	84.7807	10,556.4	84.3744	10,556.4	84.9458	10,556.4	82.8684	10,556.4	84.5386	10,556.4	79.2204	10,556.4	82.6427	10,556.4	77.7233	10,556.4	79.6595	10,556.4	75.3303	10,556.4	77.6918	10,556.4	73.0761	10,556.4	76.284	10,556.4	71.1223	10,556.4	74.0275	10,556.4	70.2979	10,556.4	73.822	10,556.4	65.3456	10,556.4	71.8248	10,556.4	57.6494	10,556.4	68.2295	10,556.4	57.4123	10,556.4	49.1674	10,556.4	59.4871	10,556.4	62.119	10,556.4	56.6238	10,556.4	57.2448	10,556.4	60.4088	10,556.4	61.6624	10,556.4	56.0408	10,556.4	59.8136	10,556.4	57.7117	10,556.4	59.1849	10,556.4	60.3183	10,556.4	63.4545	10,556.4	60.2421
10,928.5	84.6668	10,928.5	83.98	10,928.5	85.1016	10,928.5	82.3576	10,928.5	84.4263	10,928.5	79.2143	10,928.5	81.8724	10,928.5	78.3087	10,928.5	79.2824	10,928.5	75.5781	10,928.5	78.25	10,928.5	73.6346	10,928.5	76.3587	10,928.5	71.0746	10,928.5	74.6323	10,928.5	71.1451	10,928.5	73.8711	10,928.5	65.3151	10,928.5	72.5274	10,928.5	62.0295	10,928.5	69.9542	10,928.5	60.4253	10,928.5	58.392	10,928.5	60.3328	10,928.5	61.9787	10,928.5	58.7682	10,928.5	59.7916	10,928.5	61.5342	10,928.5	62.5029	10,928.5	58.5617	10,928.5	62.3211	10,928.5	60.4237	10,928.5	61.9027	10,928.5	61.8877	10,928.5	64.2419	10,928.5	62.8829
11,313.7	83.963	11,313.7	83.0289	11,313.7	84.6058	11,313.7	81.4499	11,313.7	83.7947	11,313.7	79.2124	11,313.7	80.8769	11,313.7	78.6229	11,313.7	79.2297	11,313.7	75.2529	11,313.7	78.2866	11,313.7	73.1422	11,313.7	75.8302	11,313.7	71.012	11,313.7	74.288	11,313.7	71.372	11,313.7	74.0642	11,313.7	65.1616	11,313.7	73.305	11,313.7	63.5303	11,313.7	71.0171	11,313.7	62.2342	11,313.7	61.3579	11,313.7	60.4424	11,313.7	61.5858	11,313.7	60.3738	11,313.7	61.0468	11,313.7	62.6007	11,313.7	63.1439	11,313.7	60.572	11,313.7	63.7939	11,313.7	62.328	11,313.7	62.4849	11,313.7	62.7888	11,313.7	64.5683	11,313.7	64.2274
11,712.9	83.2304	11,712.9	81.6268	11,712.9	84.2344	11,712.9	80.512	11,712.9	82.8692	11,712.9	79.3131	11,712.9	80.0587	11,712.9	77.9425	11,712.9	79.2577	11,712.9	74.3256	11,712.9	77.6712	11,712.9	72.5309	11,712.9	74.5975	11,712.9	71.1695	11,712.9	73.5898	11,712.9	70.7904	11,712.9	73.6083	11,712.9	64.9373	11,712.9	71.9456	11,712.9	62.5851	11,712.9	69.8561	11,712.9	61.8863	11,712.9	60.1783	11,712.9	59.1594	11,712.9	61.3878	11,712.9	58.605	11,712.9	60.1041	11,712.9	61.2783	11,712.9	62.6843	11,712.9	60.4639	11,712.9	63.9381	11,712.9	63.3083	11,712.9	61.2703	11,712.9	62.8654	11,712.9	64.5038	11,712.9	65.0376
12,126	83.0811	12,126	80.8717	12,126	84.2428	12,126	80.3616	12,126	82.4865	12,126	79.2941	12,126	80.3914	12,126	76.7236	12,126	79.3197	12,126	73.7303	12,126	76.6658	12,126	72.6386	12,126	73.6105	12,126	71.0119	12,126	73.0089	12,126	69.2965	12,126	72.3735	12,126	63.7713	12,126	70.2359	12,126	59.0398	12,126	68.6597	12,126	59.6329	12,126	56.5677	12,126	58.2797	12,126	62.1484	12,126	56.2113	12,126	59.3848	12,126	58.7411	12,126	63.1497	12,126	59.3847	12,126	64.4384	12,126	62.6252	12,126	58.0581	12,126	62.8455	12,126	66.1211	12,126	64.8555
12,553.7	83.6569	12,553.7	81.4478	12,553.7	84.4985	12,553.7	80.9742	12,553.7	82.717	12,553.7	79.0818	12,553.7	81.1611	12,553.7	75.9928	12,553.7	79.3893	12,553.7	74.011	12,553.7	76.4144	12,553.7	72.0353	12,553.7	73.3517	12,553.7	69.4123	12,553.7	72.6752	12,553.7	67.855	12,553.7	71.8258	12,553.7	62.6522	12,553.7	69.0534	12,553.7	56.1535	12,553.7	68.158	12,553.7	57.1424	12,553.7	58.3859	12,553.7	58.4667	12,553.7	62.5799	12,553.7	58.1487	12,553.7	60.5286	12,553.7	57.9049	12,553.7	63.7072	12,553.7	60.0272	12,553.7	64.1625	12,553.7	61.7255	12,553.7	56.7728	12,553.7	64.4508	12,553.7	67.5594	12,553.7	63.8538
12,996.1	83.9686	12,996.1	81.7723	12,996.1	84.5423	12,996.1	80.9817	12,996.1	82.8598	12,996.1	78.4169	12,996.1	81.3212	12,996.1	74.948	12,996.1	78.5614	12,996.1	73.1401	12,996.1	75.7014	12,996.1	70.1272	12,996.1	72.6493	12,996.1	67.2642	12,996.1	71.4597	12,996.1	65.9157	12,996.1	70.2602	12,996.1	59.76	12,996.1	67.5144	12,996.1	57.4355	12,996.1	67.0315	12,996.1	57.5974	12,996.1	60.4571	12,996.1	58.2222	12,996.1	62.3732	12,996.1	60.1512	12,996.1	61.2167	12,996.1	58.6873	12,996.1	63.1205	12,996.1	61.8835	12,996.1	64.4669	12,996.1	63.1394	12,996.1	57.3096	12,996.1	66.3611	12,996.1	68.33	12,996.1	63.9419
13,454.6	83.9654	13,454.6	81.9642	13,454.6	84.2807	13,454.6	80.7349	13,454.6	82.7004	13,454.6	77.7303	13,454.6	80.4519	13,454.6	74.128	13,454.6	77.084	13,454.6	71.9672	13,454.6	74.3674	13,454.6	67.8399	13,454.6	70.9362	13,454.6	63.7777	13,454.6	68.8969	13,454.6	64.8837	13,454.6	68.4331	13,454.6	57.8949	13,454.6	64.3231	13,454.6	57.4532	13,454.6	64.6142	13,454.6	55.382	13,454.6	62.125	13,454.6	56.0146	13,454.6	61.6035	13,454.6	59.9797	13,454.6	61.8226	13,454.6	58.6843	13,454.6	63.1675	13,454.6	61.493	13,454.6	64.8976	13,454.6	64.2427	13,454.6	59.4666	13,454.6	67.4315	13,454.6	69.1257	13,454.6	65.6475
13,928.5	83.6885	13,928.5	81.5361	13,928.5	83.7368	13,928.5	79.9116	13,928.5	81.9544	13,928.5	77.0512	13,928.5	79.134	13,928.5	73.7021	13,928.5	75.0683	13,928.5	71.1481	13,928.5	73.2917	13,928.5	67.2661	13,928.5	68.7326	13,928.5	64.1481	13,928.5	66.4229	13,928.5	66.5696	13,928.5	66.2092	13,928.5	58.9085	13,928.5	62.1046	13,928.5	60.999	13,928.5	65.2134	13,928.5	54.5776	13,928.5	64.35	13,928.5	57.4679	13,928.5	62.6977	13,928.5	59.6504	13,928.5	63.5289	13,928.5	55.4773	13,928.5	63.6676	13,928.5	61.8333	13,928.5	66.5895	13,928.5	62.7959	13,928.5	60.5348	13,928.5	67.9072	13,928.5	70.4686	13,928.5	66.9787
14,419.9	83.1306	14,419.9	81.0538	14,419.9	83.1021	14,419.9	79.4615	14,419.9	81.2425	14,419.9	77.1075	14,419.9	77.9821	14,419.9	73.8225	14,419.9	74.2559	14,419.9	70.804	14,419.9	72.7207	14,419.9	67.867	14,419.9	67.1393	14,419.9	64.8707	14,419.9	65.3202	14,419.9	68.0171	14,419.9	66.1063	14,419.9	60.5973	14,419.9	62.4251	14,419.9	62.5817	14,419.9	66.0892	14,419.9	54.9992	14,419.9	65.2235	14,419.9	59.4645	14,419.9	63.6001	14,419.9	60.0702	14,419.9	64.2823	14,419.9	56.396	14,419.9	64.0955	14,419.9	61.8266	14,419.9	67.4326	14,419.9	61.0816	14,419.9	60.0111	14,419.9	67.3786	14,419.9	71.0098	14,419.9	66.8833
14,928.2	83.6894	14,928.2	81.6299	14,928.2	83.5125	14,928.2	79.5983	14,928.2	81.4751	14,928.2	77.3851	14,928.2	77.8593	14,928.2	72.7346	14,928.2	74.0979	14,928.2	70.0074	14,928.2	72.0326	14,928.2	67.7312	14,928.2	66.4154	14,928.2	64.7105	14,928.2	64.3436	14,928.2	66.7924	14,928.2	65.8953	14,928.2	59.8002	14,928.2	61.4618	14,928.2	61.9348	14,928.2	65.3354	14,928.2	54.4264	14,928.2	65.0845	14,928.2	58.7693	14,928.2	64.2382	14,928.2	60.3544	14,928.2	63.6376	14,928.2	57.441	14,928.2	63.7304	14,928.2	61.3016	14,928.2	67.1208	14,928.2	60.7357	14,928.2	59.546	14,928.2	66.6209	14,928.2	70.9638	14,928.2	66.678
15,454.8	84.2776	15,454.8	82.021	15,454.8	83.7873	15,454.8	79.0263	15,454.8	81.3399	15,454.8	76.8156	15,454.8	76.9864	15,454.8	70.8741	15,454.8	72.859	15,454.8	68.6782	15,454.8	70.484	15,454.8	65.5778	15,454.8	65.5554	15,454.8	62.3648	15,454.8	62.5843	15,454.8	65.4326	15,454.8	65.6666	15,454.8	56.8888	15,454.8	58.8257	15,454.8	60.195	15,454.8	63.4247	15,454.8	55.9889	15,454.8	64.8397	15,454.8	57.0484	15,454.8	64.3344	15,454.8	60.6719	15,454.8	63.4251	15,454.8	55.3596	15,454.8	63.8541	15,454.8	60.8134	15,454.8	66.653	15,454.8	60.9156	15,454.8	60.218	15,454.8	66.1085	15,454.8	70.9952	15,454.8	66.5321
15,999.8	83.6423	15,999.8	81.656	15,999.8	82.8272	15,999.8	78.9111	15,999.8	80.1427	15,999.8	76.9735	15,999.8	75.6055	15,999.8	70.9948	15,999.8	71.7185	15,999.8	69.481	15,999.8	70.4783	15,999.8	67.3551	15,999.8	65.5128	15,999.8	62.9267	15,999.8	63.3329	15,999.8	66.4986	15,999.8	66.6118	15,999.8	56.8641	15,999.8	56.4574	15,999.8	62.1259	15,999.8	63.11	15,999.8	55.5348	15,999.8	65.6673	15,999.8	58.6096	15,999.8	65.3071	15,999.8	61.9738	15,999.8	64.0806	15,999.8	55.8751	15,999.8	63.8742	15,999.8	62.2039	15,999.8	67.6888	15,999.8	60.2744	15,999.8	60.4708	15,999.8	66.9498	15,999.8	71.5012	15,999.8	66.3006
16,564.5	85.1895	16,564.5	83.3452	16,564.5	84.4339	16,564.5	80.3888	16,564.5	81.7829	16,564.5	78.1367	16,564.5	77.7602	16,564.5	71.189	16,564.5	73.7954	16,564.5	69.6815	16,564.5	72.2679	16,564.5	66.2142	16,564.5	68.2607	16,564.5	61.895	16,564.5	62.5682	16,564.5	66.2657	16,564.5	67.9695	16,564.5	56.1137	16,564.5	55.1843	16,564.5	62.0148	16,564.5	63.2776	16,564.5	57.1795	16,564.5	64.7853	16,564.5	58.4473	16,564.5	65.6607	16,564.5	63.0528	16,564.5	63.949	16,564.5	57.2756	16,564.5	64.0145	16,564.5	62.8927	16,564.5	67.9165	16,564.5	61.4754	16,564.5	61.365	16,564.5	67.6906	16,564.5	71.9386	16,564.5	66.7714
17,148.2	86.351	17,148.2	84.5011	17,148.2	85.2993	17,148.2	80.6239	17,148.2	82.5799	17,148.2	77.7206	17,148.2	78.4456	17,148.2	69.2426	17,148.2	73.8674	17,148.2	68.2174	17,148.2	72.2368	17,148.2	65.2009	17,148.2	69.4145	17,148.2	60.05	17,148.2	59.1339	17,148.2	64.958	17,148.2	68.2614	17,148.2	52.7855	17,148.2	57.7256	17,148.2	60.0085	17,148.2	62.1131	17,148.2	58.461	17,148.2	61.8741	17,148.2	56.003	17,148.2	65.2721	17,148.2	63.3959	17,148.2	62.1577	17,148.2	54.7108	17,148.2	63.3841	17,148.2	63.5537	17,148.2	67.3326	17,148.2	62.5884	17,148.2	62.0067	17,148.2	67.6717	17,148.2	71.1926	17,148.2	66.7386
17,753.2	87.3832	17,753.2	85.5798	17,753.2	86.0511	17,753.2	81.0383	17,753.2	83.1566	17,753.2	77.4296	17,753.2	79.0705	17,753.2	67.6836	17,753.2	73.8084	17,753.2	66.9299	17,753.2	72.0675	17,753.2	63.241	17,753.2	70.3866	17,753.2	56.952	17,753.2	58.1158	17,753.2	63.6007	17,753.2	68.1284	17,753.2	49.3087	17,753.2	61.7992	17,753.2	56.6124	17,753.2	61.6322	17,753.2	60.0492	17,753.2	57.4381	17,753.2	51.0643	17,753.2	64.2654	17,753.2	63.89	17,753.2	60.5998	17,753.2	53.6115	17,753.2	62.9562	17,753.2	64.0461	17,753.2	66.5549	17,753.2	64.8687	17,753.2	62.1628	17,753.2	68.2912	17,753.2	70.724	17,753.2	67.4048
18,379.4	87.3249	18,379.4	85.6222	18,379.4	85.6553	18,379.4	80.1921	18,379.4	82.739	18,379.4	75.7494	18,379.4	78.4851	18,379.4	63.3487	18,379.4	72.65	18,379.4	62.7557	18,379.4	70.7779	18,379.4	60.7358	18,379.4	69.928	18,379.4	53.2108	18,379.4	58.9895	18,379.4	61.2232	18,379.4	66.0625	18,379.4	47.1813	18,379.4	63.3947	18,379.4	52.457	18,379.4	60.2454	18,379.4	60.2323	18,379.4	54.8336	18,379.4	31.9286	18,379.4	61.977	18,379.4	63.0719	18,379.4	57.3749	18,379.4	55.9619	18,379.4	61.5107	18,379.4	62.9579	18,379.4	64.6038	18,379.4	65.6223	18,379.4	61.3503	18,379.4	67.0572	18,379.4	69.8038	18,379.4	68.0465
19,027.6	86.2335	19,027.6	84.3494	19,027.6	84.4841	19,027.6	77.7549	19,027.6	81.4282	19,027.6	72.3446	19,027.6	77.1563	19,027.6	51.5923	19,027.6	70.8513	19,027.6	52.2273	19,027.6	68.2628	19,027.6	61.2858	19,027.6	68.1538	19,027.6	48.9606	19,027.6	59.8962	19,027.6	60.7309	19,027.6	62.6617	19,027.6	48.3215	19,027.6	63.1445	19,027.6	55.6743	19,027.6	57.918	19,027.6	59.5806	19,027.6	56.6018	19,027.6	47.1766	19,027.6	59.1825	19,027.6	61.8103	19,027.6	54.0593	19,027.6	57.0441	19,027.6	60.1028	19,027.6	61.3786	19,027.6	61.3406	19,027.6	64.7801	19,027.6	59.7337	19,027.6	64.9124	19,027.6	67.9536	19,027.6	66.919
19,698.5	86.5841	19,698.5	84.3475	19,698.5	84.7732	19,698.5	76.3705	19,698.5	81.5256	19,698.5	69.6373	19,698.5	76.9299	19,698.5	56.2884	19,698.5	70.885	19,698.5	53.758	19,698.5	66.2919	19,698.5	63.4357	19,698.5	67.1543	19,698.5	41.0613	19,698.5	62.4143	19,698.5	60.7696	19,698.5	58.7259	19,698.5	50.428	19,698.5	63.9585	19,698.5	55.5619	19,698.5	55.2353	19,698.5	60.5541	19,698.5	59.2347	19,698.5	51.1783	19,698.5	57.9119	19,698.5	62.2989	19,698.5	52.977	19,698.5	58.6452	19,698.5	60.521	19,698.5	61.0596	19,698.5	59.1926	19,698.5	65.8435	19,698.5	60.7173	19,698.5	65.0815	19,698.5	67.0134	19,698.5	66.9909
19,999.5	86.7558	19,999.5	84.2659	19,999.5	85.0022	19,999.5	75.8259	19,999.5	81.3863	19,999.5	68.603	19,999.5	76.9962	19,999.5	60.3521	19,999.5	71.1706	19,999.5	55.589	19,999.5	65.1745	19,999.5	64.0286	19,999.5	66.7468	19,999.5	39.0565	19,999.5	63.3992	19,999.5	60.4143	19,999.5	56.8027	19,999.5	51.698	19,999.5	64.3084	19,999.5	55.4703	19,999.5	53.8449	19,999.5	61.4709	19,999.5	59.6341	19,999.5	53.0894	19,999.5	57.832	19,999.5	62.8657	19,999.5	53.4615	19,999.5	59.3506	19,999.5	61.4719	19,999.5	61.3494	19,999.5	57.8254	19,999.5	66.2418	19,999.5	60.652	19,999.5	65.2974	19,999.5	67.0764	19,999.5	67.5527
