"SPL Horizontal"																																																																							
"On-Axis"		"10°"		"-10°"		"20°"		"-20°"		"30°"		"-30°"		"40°"		"-40°"		"50°"		"-50°"		"60°"		"-60°"		"70°"		"-70°"		"80°"		"-80°"		"90°"		"-90°"		"100°"		"-100°"		"110°"		"-110°"		"120°"		"-120°"		"130°"		"-130°"		"140°"		"-140°"		"150°"		"-150°"		"160°"		"-160°"		"170°"		"-170°"		"180°"	
"Frequency [Hz]"	"Sound Pessure Level [dB]  / [2.83V 1m] "	"Frequency [Hz]"	"Sound Pessure Level [dB]  / [2.83V 1m] "	"Frequency [Hz]"	"Sound Pessure Level [dB]  / [2.83V 1m] "	"Frequency [Hz]"	"Sound Pessure Level [dB]  / [2.83V 1m] "	"Frequency [Hz]"	"Sound Pessure Level [dB]  / [2.83V 1m] "	"Frequency [Hz]"	"Sound Pessure Level [dB]  / [2.83V 1m] "	"Frequency [Hz]"	"Sound Pessure Level [dB]  / [2.83V 1m] "	"Frequency [Hz]"	"Sound Pessure Level [dB]  / [2.83V 1m] "	"Frequency [Hz]"	"Sound Pessure Level [dB]  / [2.83V 1m] "	"Frequency [Hz]"	"Sound Pessure Level [dB]  / [2.83V 1m] "	"Frequency [Hz]"	"Sound Pessure Level [dB]  / [2.83V 1m] "	"Frequency [Hz]"	"Sound Pessure Level [dB]  / [2.83V 1m] "	"Frequency [Hz]"	"Sound Pessure Level [dB]  / [2.83V 1m] "	"Frequency [Hz]"	"Sound Pessure Level [dB]  / [2.83V 1m] "	"Frequency [Hz]"	"Sound Pessure Level [dB]  / [2.83V 1m] "	"Frequency [Hz]"	"Sound Pessure Level [dB]  / [2.83V 1m] "	"Frequency [Hz]"	"Sound Pessure Level [dB]  / [2.83V 1m] "	"Frequency [Hz]"	"Sound Pessure Level [dB]  / [2.83V 1m] "	"Frequency [Hz]"	"Sound Pessure Level [dB]  / [2.83V 1m] "	"Frequency [Hz]"	"Sound Pessure Level [dB]  / [2.83V 1m] "	"Frequency [Hz]"	"Sound Pessure Level [dB]  / [2.83V 1m] "	"Frequency [Hz]"	"Sound Pessure Level [dB]  / [2.83V 1m] "	"Frequency [Hz]"	"Sound Pessure Level [dB]  / [2.83V 1m] "	"Frequency [Hz]"	"Sound Pessure Level [dB]  / [2.83V 1m] "	"Frequency [Hz]"	"Sound Pessure Level [dB]  / [2.83V 1m] "	"Frequency [Hz]"	"Sound Pessure Level [dB]  / [2.83V 1m] "	"Frequency [Hz]"	"Sound Pessure Level [dB]  / [2.83V 1m] "	"Frequency [Hz]"	"Sound Pessure Level [dB]  / [2.83V 1m] "	"Frequency [Hz]"	"Sound Pessure Level [dB]  / [2.83V 1m] "	"Frequency [Hz]"	"Sound Pessure Level [dB]  / [2.83V 1m] "	"Frequency [Hz]"	"Sound Pessure Level [dB]  / [2.83V 1m] "	"Frequency [Hz]"	"Sound Pessure Level [dB]  / [2.83V 1m] "	"Frequency [Hz]"	"Sound Pessure Level [dB]  / [2.83V 1m] "	"Frequency [Hz]"	"Sound Pessure Level [dB]  / [2.83V 1m] "	"Frequency [Hz]"	"Sound Pessure Level [dB]  / [2.83V 1m] "	"Frequency [Hz]"	"Sound Pessure Level [dB]  / [2.83V 1m] "
20.5078	41.6541	20.5078	41.543	20.5078	41.6063	20.5078	41.2787	20.5078	41.4058	20.5078	40.8841	20.5078	41.0742	20.5078	40.4148	20.5078	40.6597	20.5078	39.9845	20.5078	40.2585	20.5078	39.7788	20.5078	40.0296	20.5078	39.9997	20.5078	40.1603	20.5078	40.7229	20.5078	40.7546	20.5078	41.8251	20.5078	41.742	20.5078	43.0934	20.5078	42.9386	20.5078	44.3549	20.5078	44.1696	20.5078	45.5092	20.5078	45.3221	20.5078	46.5075	20.5078	46.3363	20.5078	47.329	20.5078	47.1842	20.5078	47.9657	20.5078	47.8533	20.5078	48.4151	20.5078	48.3386	20.5078	48.6768	20.5078	48.6381	20.5078	48.751
21.2402	43.2591	21.2402	43.1503	21.2402	43.1769	21.2402	42.8503	21.2402	42.9024	21.2402	42.3599	21.2402	42.4341	21.2402	41.6909	21.2402	41.7769	21.2402	40.8887	21.2402	40.9616	21.2402	40.0805	21.2402	40.0872	21.2402	39.5333	21.2402	39.3905	21.2402	39.5962	21.2402	39.2448	21.2402	40.4001	21.2402	39.8898	21.2402	41.6967	21.2402	41.1436	21.2402	43.1345	21.2402	42.6206	21.2402	44.4895	21.2402	44.0478	21.2402	45.6632	21.2402	45.301	21.2402	46.6216	21.2402	46.3374	21.2402	47.3567	21.2402	47.1473	21.2402	47.8694	21.2402	47.7315	21.2402	48.1621	21.2402	48.0936	21.2402	48.2367
21.9727	41.3801	21.9727	41.2651	21.9727	41.2552	21.9727	40.9164	21.9727	40.8887	21.9727	40.3534	21.9727	40.2874	21.9727	39.6383	21.9727	39.4931	21.9727	38.9409	21.9727	38.6472	21.9727	38.6058	21.9727	38.0947	21.9727	39.0249	21.9727	38.3267	21.9727	40.2315	21.9727	39.4937	21.9727	41.8572	21.9727	41.1963	21.9727	43.5362	21.9727	42.9847	21.9727	45.0801	21.9727	44.631	21.9727	46.4206	21.9727	46.0591	21.9727	47.5408	21.9727	47.2543	21.9727	48.4421	21.9727	48.2214	21.9727	49.13	21.9727	48.9688	21.9727	49.61	21.9727	49.5045	21.9727	49.8862	21.9727	49.834	21.9727	49.9607
22.7051	42.3374	22.7051	42.2563	22.7051	42.2103	22.7051	41.9743	22.7051	41.877	22.7051	41.5148	22.7051	41.3548	22.7051	40.94	22.7051	40.7008	22.7051	40.3942	22.7051	40.0612	22.7051	40.1385	22.7051	39.7229	22.7051	40.4636	22.7051	40.0248	22.7051	41.4367	22.7051	41.0483	22.7051	42.8248	22.7051	42.5187	22.7051	44.3313	22.7051	44.101	22.7051	45.7661	22.7051	45.5939	22.7051	47.0413	22.7051	46.912	22.7051	48.1244	22.7051	48.0274	22.7051	49.0066	22.7051	48.9349	22.7051	49.6876	22.7051	49.6368	22.7051	50.1697	22.7051	50.1371	22.7051	50.4548	22.7051	50.4389	22.7051	50.5445
23.4375	43.3898	23.4375	43.3229	23.4375	43.3186	23.4375	43.1274	23.4375	43.1222	23.4375	42.8406	23.4375	42.8419	23.4375	42.5426	23.4375	42.5619	23.4375	42.3704	23.4375	42.4211	23.4375	42.4997	23.4375	42.5888	23.4375	43.0554	23.4375	43.1757	23.4375	44.0139	23.4375	44.1464	23.4375	45.2219	23.4375	45.3487	23.4375	46.5067	23.4375	46.6178	23.4375	47.7448	23.4375	47.8372	23.4375	48.8662	23.4375	48.9405	23.4375	49.8363	23.4375	49.8943	23.4375	50.639	23.4375	50.6827	23.4375	51.2673	23.4375	51.2985	23.4375	51.7183	23.4375	51.7384	23.4375	51.9911	23.4375	52.0009	23.4375	52.0853
24.1699	44.8675	24.1699	44.7958	24.1699	44.8158	24.1699	44.6087	24.1699	44.6511	24.1699	44.3371	24.1699	44.4063	24.1699	44.0457	24.1699	44.1467	24.1699	43.845	24.1699	43.98	24.1699	43.882	24.1699	44.0447	24.1699	44.2808	24.1699	44.454	24.1699	45.0575	24.1699	45.2205	24.1699	46.1058	24.1699	46.2448	24.1699	47.273	24.1699	47.384	24.1699	48.4322	24.1699	48.5176	24.1699	49.5027	24.1699	49.5669	24.1699	50.4401	24.1699	50.4875	24.1699	51.2216	24.1699	51.2559	24.1699	51.8363	24.1699	51.8599	24.1699	52.2786	24.1699	52.2934	24.1699	52.546	24.1699	52.5532	24.1699	52.6376
25.6348	46.4308	25.6348	46.3736	25.6348	46.3961	25.6348	46.2353	25.6348	46.2796	25.6348	46.051	25.6348	46.115	25.6348	45.8866	25.6348	45.9646	25.6348	45.8406	25.6348	45.9217	25.6348	46.0247	25.6348	46.0934	25.6348	46.5133	25.6348	46.5551	25.6348	47.2959	25.6348	47.3043	25.6348	48.2822	25.6348	48.2607	25.6348	49.3554	25.6348	49.3129	25.6348	50.4169	25.6348	50.363	25.6348	51.3999	25.6348	51.3426	25.6348	52.2642	25.6348	52.2096	25.6348	52.9871	25.6348	52.9394	25.6348	53.556	25.6348	53.518	25.6348	53.9639	25.6348	53.9376	25.6348	54.2071	25.6348	54.1937	25.6348	54.2838
26.3672	47.5945	26.3672	47.5473	26.3672	47.578	26.3672	47.4477	26.3672	47.507	26.3672	47.3282	26.3672	47.4112	26.3672	47.2465	26.3672	47.3434	26.3672	47.2816	26.3672	47.3775	26.3672	47.5155	26.3672	47.5922	26.3672	47.998	26.3672	48.0407	26.3672	48.7179	26.3672	48.7208	26.3672	49.6071	26.3672	49.5751	26.3672	50.5753	26.3672	50.5188	26.3672	51.5411	26.3672	51.4714	26.3672	52.4443	26.3672	52.3712	26.3672	53.2456	26.3672	53.1763	26.3672	53.9205	26.3672	53.8602	26.3672	54.4542	26.3672	54.4064	26.3672	54.8379	26.3672	54.8049	26.3672	55.0664	26.3672	55.0495	26.3672	55.1371
27.0996	48.5776	27.0996	48.537	27.0996	48.5663	27.0996	48.4544	27.0996	48.5105	27.0996	48.3588	27.0996	48.4354	27.0996	48.299	27.0996	48.3857	27.0996	48.3411	27.0996	48.423	27.0996	48.5537	27.0996	48.6141	27.0996	48.9813	27.0996	49.0071	27.0996	49.6208	27.0996	49.6076	27.0996	50.4211	27.0996	50.3741	27.0996	51.3065	27.0996	51.2363	27.0996	52.2029	27.0996	52.1212	27.0996	53.0519	27.0996	52.9686	27.0996	53.8125	27.0996	53.7348	27.0996	54.4577	27.0996	54.3909	27.0996	54.9705	27.0996	54.918	27.0996	55.3402	27.0996	55.3042	27.0996	55.5605	27.0996	55.5422	27.0996	55.6282
27.832	49.5678	27.832	49.5407	27.832	49.5597	27.832	49.4878	27.832	49.5229	27.832	49.4349	27.832	49.4804	27.832	49.4244	27.832	49.471	27.832	49.5105	27.832	49.5466	27.832	49.747	27.832	49.7613	27.832	50.1673	27.832	50.1524	27.832	50.7676	27.832	50.723	27.832	51.5072	27.832	51.4387	27.832	52.324	27.832	52.241	27.832	53.155	27.832	53.0669	27.832	53.9474	27.832	53.862	27.832	54.6621	27.832	54.5851	27.832	55.2721	27.832	55.2072	27.832	55.7592	27.832	55.7089	27.832	56.1117	27.832	56.0775	27.832	56.3223	27.832	56.305	27.832	56.3871
29.2969	51.9858	29.2969	51.9817	29.2969	51.9682	29.2969	51.9633	29.2969	51.9338	29.2969	51.9503	29.2969	51.9002	29.2969	51.9737	29.2969	51.8972	29.2969	52.0725	29.2969	51.964	29.2969	52.285	29.2969	52.1419	29.2969	52.6371	29.2969	52.4619	29.2969	53.1308	29.2969	52.9315	29.2969	53.7416	29.2969	53.5303	29.2969	54.4267	29.2969	54.216	29.2969	55.1365	29.2969	54.9374	29.2969	55.8253	29.2969	55.6459	29.2969	56.4556	29.2969	56.3014	29.2969	56.9992	29.2969	56.8734	29.2969	57.436	29.2969	57.3406	29.2969	57.7521	29.2969	57.6881	29.2969	57.9386	29.2969	57.9065	29.2969	57.9906
30.0293	53.2044	30.0293	53.2079	30.0293	53.1875	30.0293	53.2035	30.0293	53.1621	30.0293	53.2071	30.0293	53.1441	30.0293	53.2442	30.0293	53.159	30.0293	53.3463	30.0293	53.2395	30.0293	53.5452	30.0293	53.4191	30.0293	53.863	30.0293	53.7225	30.0293	54.3039	30.0293	54.1555	30.0293	54.8507	30.0293	54.7018	30.0293	55.4692	30.0293	55.3264	30.0293	56.1172	30.0293	55.9857	30.0293	56.7531	30.0293	56.6366	30.0293	57.3411	30.0293	57.2419	30.0293	57.853	30.0293	57.7726	30.0293	58.2678	30.0293	58.2069	30.0293	58.5706	30.0293	58.5298	30.0293	58.7519	30.0293	58.7314	30.0293	58.8061
31.4941	55.637	31.4941	55.6314	31.4941	55.6366	31.4941	55.624	31.4941	55.6341	31.4941	55.627	31.4941	55.6413	31.4941	55.66	31.4941	55.6774	31.4941	55.7472	31.4941	55.7662	31.4941	55.9134	31.4941	55.9318	31.4941	56.1771	31.4941	56.193	31.4941	56.5442	31.4941	56.5558	31.4941	57.0045	31.4941	57.0107	31.4941	57.5332	31.4941	57.534	31.4941	58.0964	31.4941	58.0925	31.4941	58.6582	31.4941	58.6511	31.4941	59.1856	31.4941	59.1767	31.4941	59.6509	31.4941	59.6417	31.4941	60.0326	31.4941	60.0245	31.4941	60.3151	31.4941	60.3091	31.4941	60.4879	31.4941	60.4847	31.4941	60.5451
32.2266	56.5929	32.2266	56.5901	32.2266	56.5899	32.2266	56.5855	32.2266	56.5848	32.2266	56.5902	32.2266	56.5884	32.2266	56.6219	32.2266	56.6182	32.2266	56.7029	32.2266	56.6961	32.2266	56.8561	32.2266	56.8452	32.2266	57.0991	32.2266	57.0833	32.2266	57.4389	32.2266	57.4177	32.2266	57.8673	32.2266	57.8414	32.2266	58.3627	32.2266	58.3333	32.2266	58.8943	32.2266	58.863	32.2266	59.428	32.2266	59.3967	32.2266	59.9316	32.2266	59.9024	32.2266	60.3778	32.2266	60.3523	32.2266	60.7448	32.2266	60.7244	32.2266	61.0166	32.2266	61.0024	32.2266	61.1823	32.2266	61.175	32.2266	61.2357
33.6914	58.4625	33.6914	58.4598	33.6914	58.4636	33.6914	58.459	33.6914	58.4658	33.6914	58.4698	33.6914	58.4777	33.6914	58.5067	33.6914	58.5131	33.6914	58.588	33.6914	58.5897	33.6914	58.7324	33.6914	58.7261	33.6914	58.9546	33.6914	58.9373	33.6914	59.2603	33.6914	59.2307	33.6914	59.6439	33.6914	59.6024	33.6914	60.0877	33.6914	60.0366	33.6914	60.566	33.6914	60.5089	33.6914	61.0489	33.6914	60.9902	33.6914	61.5073	33.6914	61.4513	33.6914	61.9153	33.6914	61.8658	33.6914	62.2517	33.6914	62.2119	33.6914	62.5008	33.6914	62.473	33.6914	62.6515	33.6914	62.6372	33.6914	62.6976
34.4238	59.4904	34.4238	59.4951	34.4238	59.4883	34.4238	59.5053	34.4238	59.4913	34.4238	59.5293	34.4238	59.5072	34.4238	59.5795	34.4238	59.5484	34.4238	59.6716	34.4238	59.6303	34.4238	59.821	34.4238	59.7691	34.4238	60.04	34.4238	59.9779	34.4238	60.3333	34.4238	60.2624	34.4238	60.6958	34.4238	60.6188	34.4238	61.1124	34.4238	61.0328	34.4238	61.5605	34.4238	61.4819	34.4238	62.0134	34.4238	61.9396	34.4238	62.4444	34.4238	62.3784	34.4238	62.8291	34.4238	62.7735	34.4238	63.1473	34.4238	63.1041	34.4238	63.3833	34.4238	63.3537	34.4238	63.5261	34.4238	63.5111	34.4238	63.5694
35.8887	61.4796	35.8887	61.4816	35.8887	61.4815	35.8887	61.4896	35.8887	61.4893	35.8887	61.51	35.8887	61.5093	35.8887	61.5529	35.8887	61.5514	35.8887	61.6306	35.8887	61.6279	35.8887	61.7561	35.8887	61.7515	35.8887	61.94	35.8887	61.933	35.8887	62.1874	35.8887	62.1777	35.8887	62.4959	35.8887	62.4835	35.8887	62.8545	35.8887	62.8399	35.8887	63.2452	35.8887	63.229	35.8887	63.6453	35.8887	63.6285	35.8887	64.0308	35.8887	64.0146	35.8887	64.3789	35.8887	64.3645	35.8887	64.67	35.8887	64.6582	35.8887	64.8884	35.8887	64.8801	35.8887	65.023	35.8887	65.0187	35.8887	65.0671
37.3535	63.2408	37.3535	63.2402	37.3535	63.2463	37.3535	63.2465	37.3535	63.2582	37.3535	63.265	37.3535	63.2816	37.3535	63.3041	37.3535	63.3242	37.3535	63.3739	37.3535	63.3962	37.3535	63.4854	37.3535	63.5078	37.3535	63.6475	37.3535	63.668	37.3535	63.8649	37.3535	63.8819	37.3535	64.1362	37.3535	64.1485	37.3535	64.453	37.3535	64.46	37.3535	64.8001	37.3535	64.8022	37.3535	65.1582	37.3535	65.1561	37.3535	65.5056	37.3535	65.5008	37.3535	65.8214	37.3535	65.8153	37.3535	66.087	37.3535	66.081	37.3535	66.2873	37.3535	66.2826	37.3535	66.4112	37.3535	66.4087	37.3535	66.4524
38.8184	64.8699	38.8184	64.8719	38.8184	64.874	38.8184	64.8818	38.8184	64.8856	38.8184	64.9039	38.8184	64.9088	38.8184	64.9453	38.8184	64.9504	38.8184	65.0144	38.8184	65.0186	38.8184	65.1203	38.8184	65.1223	38.8184	65.2704	38.8184	65.2692	38.8184	65.469	38.8184	65.4637	38.8184	65.715	38.8184	65.7053	38.8184	66.0015	38.8184	65.9878	38.8184	66.3158	38.8184	66.2988	38.8184	66.6407	38.8184	66.622	38.8184	66.9572	38.8184	66.9383	38.8184	67.2459	38.8184	67.2285	38.8184	67.4894	38.8184	67.4749	38.8184	67.6731	38.8184	67.6628	38.8184	67.7866	38.8184	67.7812	38.8184	67.8232
39.5508	65.5895	39.5508	65.5942	39.5508	65.5912	39.5508	65.6068	39.5508	65.6005	39.5508	65.6315	39.5508	65.6212	39.5508	65.6748	39.5508	65.6597	39.5508	65.7447	39.5508	65.7236	39.5508	65.8493	39.5508	65.8217	39.5508	65.9958	39.5508	65.9611	39.5508	66.188	39.5508	66.1463	39.5508	66.4249	39.5508	66.3774	39.5508	66.7001	39.5508	66.6485	39.5508	67.0016	39.5508	66.9483	39.5508	67.3133	39.5508	67.261	39.5508	67.6168	39.5508	67.5684	39.5508	67.8936	39.5508	67.8515	39.5508	68.1267	39.5508	68.0931	39.5508	68.3019	39.5508	68.2786	39.5508	68.4088	39.5508	68.3968	39.5508	68.4411
41.0156	66.9109	41.0156	66.9123	41.0156	66.9189	41.0156	66.9243	41.0156	66.9371	41.0156	66.9507	41.0156	66.9687	41.0156	66.9969	41.0156	67.0187	41.0156	67.0695	41.0156	67.0934	41.0156	67.1754	41.0156	67.1993	41.0156	67.3202	41.0156	67.3419	41.0156	67.5068	41.0156	67.5244	41.0156	67.7339	41.0156	67.746	41.0156	67.9955	41.0156	68.0014	41.0156	68.2808	41.0156	68.2806	41.0156	68.5751	41.0156	68.5699	41.0156	68.8616	41.0156	68.8531	41.0156	69.1235	41.0156	69.1134	41.0156	69.3447	41.0156	69.3351	41.0156	69.5119	41.0156	69.5045	41.0156	69.6154	41.0156	69.6114	41.0156	69.6492
42.4805	68.8611	42.4805	68.8757	42.4805	68.8579	42.4805	68.9026	42.4805	68.8672	42.4805	68.9442	42.4805	68.8915	42.4805	69.0043	42.4805	68.9349	42.4805	69.0876	42.4805	69.0027	42.4805	69.1987	42.4805	69.0999	42.4805	69.3414	42.4805	69.2311	42.4805	69.5174	42.4805	69.3986	42.4805	69.7251	42.4805	69.6018	42.4805	69.9596	42.4805	69.8359	42.4805	70.212	42.4805	70.0924	42.4805	70.4702	42.4805	70.3591	42.4805	70.7202	42.4805	70.6215	42.4805	70.9474	42.4805	70.8645	42.4805	71.1379	42.4805	71.0735	42.4805	71.2798	42.4805	71.2358	42.4805	71.3642	42.4805	71.3418	42.4805	71.3854
43.9453	70.3211	43.9453	70.3291	43.9453	70.324	43.9453	70.3489	43.9453	70.3387	43.9453	70.3823	43.9453	70.3673	43.9453	70.4325	43.9453	70.413	43.9453	70.5035	43.9453	70.4798	43.9453	70.5991	43.9453	70.5719	43.9453	70.7228	43.9453	70.6926	43.9453	70.8761	43.9453	70.8439	43.9453	71.0584	43.9453	71.025	43.9453	71.2655	43.9453	71.232	43.9453	71.4902	43.9453	71.4577	43.9453	71.7222	43.9453	71.6918	43.9453	71.949	43.9453	71.9218	43.9453	72.1573	43.9453	72.1343	43.9453	72.3342	43.9453	72.3162	43.9453	72.4685	43.9453	72.4561	43.9453	72.5513	43.9453	72.545	43.9453	72.5775
45.4102	71.6842	45.4102	71.6914	45.4102	71.6885	45.4102	71.7107	45.4102	71.705	45.4102	71.7439	45.4102	71.7354	45.4102	71.7932	45.4102	71.7821	45.4102	71.8619	45.4102	71.8482	45.4102	71.9532	45.4102	71.9371	45.4102	72.0695	45.4102	72.0513	45.4102	72.2122	45.4102	72.1922	45.4102	72.3803	45.4102	72.359	45.4102	72.5704	45.4102	72.5484	45.4102	72.7761	45.4102	72.754	45.4102	72.9882	45.4102	72.9669	45.4102	73.1957	45.4102	73.1761	45.4102	73.3865	45.4102	73.3695	45.4102	73.5488	45.4102	73.5353	45.4102	73.6723	45.4102	73.6628	45.4102	73.7488	45.4102	73.7439	45.4102	73.7732
47.6074	73.3289	47.6074	73.3379	47.6074	73.3319	47.6074	73.3592	47.6074	73.3473	47.6074	73.394	47.6074	73.3763	47.6074	73.4439	47.6074	73.4208	47.6074	73.511	47.6074	73.483	47.6074	73.5975	47.6074	73.5651	47.6074	73.7051	47.6074	73.669	47.6074	73.8344	47.6074	73.7956	47.6074	73.9846	47.6074	73.944	47.6074	74.1526	47.6074	74.1115	47.6074	74.3331	47.6074	74.2928	47.6074	74.5185	47.6074	74.4805	47.6074	74.6996	47.6074	74.6653	47.6074	74.866	47.6074	74.8367	47.6074	75.0073	47.6074	74.9842	47.6074	75.1145	47.6074	75.0985	47.6074	75.1802	47.6074	75.1721	47.6074	75.1999
49.0723	74.1874	49.0723	74.1956	49.0723	74.1914	49.0723	74.2163	49.0723	74.208	49.0723	74.2504	49.0723	74.2381	49.0723	74.299	49.0723	74.283	49.0723	74.3637	49.0723	74.3444	49.0723	74.4461	49.0723	74.424	49.0723	74.5474	49.0723	74.5229	49.0723	74.6678	49.0723	74.6416	49.0723	74.8065	49.0723	74.7792	49.0723	74.9608	49.0723	74.9333	49.0723	75.126	49.0723	75.0991	49.0723	75.2954	49.0723	75.2701	49.0723	75.4608	49.0723	75.4379	49.0723	75.613	49.0723	75.5934	49.0723	75.7426	49.0723	75.7272	49.0723	75.8412	49.0723	75.8306	49.0723	75.9022	49.0723	75.8967	49.0723	75.9211
50.5371	74.8087	50.5371	74.817	50.5371	74.8127	50.5371	74.8379	50.5371	74.8295	50.5371	74.8719	50.5371	74.8596	50.5371	74.9199	50.5371	74.904	50.5371	74.9831	50.5371	74.9639	50.5371	75.0623	50.5371	75.0405	50.5371	75.1585	50.5371	75.1345	50.5371	75.2717	50.5371	75.2462	50.5371	75.4008	50.5371	75.3745	50.5371	75.5435	50.5371	75.5172	50.5371	75.6956	50.5371	75.67	50.5371	75.8511	50.5371	75.8271	50.5371	76.0028	50.5371	75.9812	50.5371	76.1422	50.5371	76.1238	50.5371	76.261	50.5371	76.2465	50.5371	76.3515	50.5371	76.3415	50.5371	76.4073	50.5371	76.4022	50.5371	76.4247
52.7344	75.3859	52.7344	75.3935	52.7344	75.3906	52.7344	75.4137	52.7344	75.4079	52.7344	75.4465	52.7344	75.4381	52.7344	75.4925	52.7344	75.4816	52.7344	75.5522	52.7344	75.5391	52.7344	75.626	52.7344	75.6111	52.7344	75.7143	52.7344	75.6979	52.7344	75.8166	52.7344	75.7991	52.7344	75.932	52.7344	75.9139	52.7344	76.0583	52.7344	76.0401	52.7344	76.192	52.7344	76.1741	52.7344	76.3281	52.7344	76.3112	52.7344	76.4605	52.7344	76.4452	52.7344	76.5821	52.7344	76.5691	52.7344	76.6859	52.7344	76.6755	52.7344	76.765	52.7344	76.7578	52.7344	76.8141	52.7344	76.8104	52.7344	76.8296
54.1992	75.6242	54.1992	75.6319	54.1992	75.6288	54.1992	75.652	54.1992	75.646	54.1992	75.6847	54.1992	75.6758	54.1992	75.73	54.1992	75.7184	54.1992	75.7883	54.1992	75.7742	54.1992	75.8596	54.1992	75.8434	54.1992	75.9438	54.1992	75.9258	54.1992	76.0404	54.1992	76.0211	54.1992	76.1483	54.1992	76.1282	54.1992	76.2655	54.1992	76.2451	54.1992	76.3887	54.1992	76.3687	54.1992	76.5136	54.1992	76.4946	54.1992	76.6346	54.1992	76.6174	54.1992	76.7457	54.1992	76.7309	54.1992	76.8402	54.1992	76.8285	54.1992	76.9121	54.1992	76.904	54.1992	76.9566	54.1992	76.9524	54.1992	76.9704
56.3965	75.8065	56.3965	75.8142	56.3965	75.8111	56.3965	75.834	56.3965	75.8279	56.3965	75.8659	56.3965	75.8571	56.3965	75.9097	56.3965	75.8984	56.3965	75.9651	56.3965	75.9518	56.3965	76.032	56.3965	76.0171	56.3965	76.1097	56.3965	76.0937	56.3965	76.1976	56.3965	76.181	56.3965	76.2945	56.3965	76.2777	56.3965	76.3985	56.3965	76.3821	56.3965	76.5069	56.3965	76.4914	56.3965	76.6162	56.3965	76.6019	56.3965	76.7218	56.3965	76.7092	56.3965	76.8185	56.3965	76.8079	56.3965	76.9008	56.3965	76.8926	56.3965	76.9636	56.3965	76.9579	56.3965	77.0025	56.3965	76.9997	56.3965	77.0149
58.5938	75.7711	58.5938	75.7788	58.5938	75.7753	58.5938	75.7985	58.5938	75.7914	58.5938	75.8297	58.5938	75.8193	58.5938	75.8721	58.5938	75.8588	58.5938	75.9252	58.5938	75.9094	58.5938	75.9884	58.5938	75.9705	58.5938	76.0609	58.5938	76.0415	58.5938	76.1419	58.5938	76.1215	58.5938	76.2301	58.5938	76.2093	58.5938	76.3238	58.5938	76.3032	58.5938	76.4207	58.5938	76.4008	58.5938	76.5175	58.5938	76.499	58.5938	76.6106	58.5938	76.5941	58.5938	76.6955	58.5938	76.6815	58.5938	76.7676	58.5938	76.7565	58.5938	76.8222	58.5938	76.8146	58.5938	76.8559	58.5938	76.852	58.5938	76.866
60.0586	75.731	60.0586	75.7392	60.0586	75.7354	60.0586	75.7598	60.0586	75.7523	60.0586	75.7924	60.0586	75.7815	60.0586	75.8364	60.0586	75.8226	60.0586	75.8911	60.0586	75.8748	60.0586	75.9555	60.0586	75.9373	60.0586	76.0286	60.0586	76.0092	60.0586	76.1093	60.0586	76.0892	60.0586	76.1962	60.0586	76.1761	60.0586	76.2875	60.0586	76.2679	60.0586	76.381	60.0586	76.3625	60.0586	76.4737	60.0586	76.4568	60.0586	76.5623	60.0586	76.5475	60.0586	76.6427	60.0586	76.6303	60.0586	76.7107	60.0586	76.7011	60.0586	76.7622	60.0586	76.7556	60.0586	76.7939	60.0586	76.7906	60.0586	76.8036
62.2559	75.924	62.2559	75.9299	62.2559	75.9301	62.2559	75.9476	62.2559	75.9481	62.2559	75.9766	62.2559	75.9775	62.2559	76.0163	62.2559	76.0175	62.2559	76.0655	62.2559	76.0672	62.2559	76.1232	62.2559	76.1254	62.2559	76.1883	62.2559	76.1909	62.2559	76.2592	62.2559	76.2624	62.2559	76.3348	62.2559	76.3384	62.2559	76.4133	62.2559	76.4172	62.2559	76.493	62.2559	76.497	62.2559	76.5715	62.2559	76.5754	62.2559	76.6461	62.2559	76.6498	62.2559	76.7137	62.2559	76.717	62.2559	76.7711	62.2559	76.7738	62.2559	76.815	62.2559	76.8169	62.2559	76.8428	62.2559	76.8438	62.2559	76.8526
64.4531	75.953	64.4531	75.9586	64.4531	75.959	64.4531	75.9756	64.4531	75.9766	64.4531	76.0036	64.4531	76.005	64.4531	76.0415	64.4531	76.0435	64.4531	76.0882	64.4531	76.0908	64.4531	76.1424	64.4531	76.1456	64.4531	76.2027	64.4531	76.2065	64.4531	76.2677	64.4531	76.272	64.4531	76.3358	64.4531	76.3406	64.4531	76.4057	64.4531	76.4108	64.4531	76.4757	64.4531	76.4809	64.4531	76.5439	64.4531	76.549	64.4531	76.6082	64.4531	76.6129	64.4531	76.6661	64.4531	76.6702	64.4531	76.715	64.4531	76.7183	64.4531	76.7524	64.4531	76.7547	64.4531	76.776	64.4531	76.7772	64.4531	76.7845
66.6504	76.0162	66.6504	76.021	66.6504	76.0228	66.6504	76.0368	66.6504	76.0405	66.6504	76.0631	66.6504	76.0686	66.6504	76.0988	66.6504	76.106	66.6504	76.1426	66.6504	76.1516	66.6504	76.1931	66.6504	76.2036	66.6504	76.2487	66.6504	76.2606	66.6504	76.3078	66.6504	76.3208	66.6504	76.369	66.6504	76.3829	66.6504	76.4309	66.6504	76.4452	66.6504	76.492	66.6504	76.5063	66.6504	76.5509	66.6504	76.5646	66.6504	76.606	66.6504	76.6185	66.6504	76.6553	66.6504	76.6662	66.6504	76.697	66.6504	76.7057	66.6504	76.729	66.6504	76.735	66.6504	76.7496	66.6504	76.7527	66.6504	76.7577
69.5801	76.1293	69.5801	76.1337	69.5801	76.1353	69.5801	76.1483	69.5801	76.1515	69.5801	76.1723	69.5801	76.1771	69.5801	76.2047	69.5801	76.2109	69.5801	76.244	69.5801	76.2514	69.5801	76.2885	69.5801	76.2971	69.5801	76.3365	69.5801	76.3461	69.5801	76.3866	69.5801	76.3968	69.5801	76.437	69.5801	76.4477	69.5801	76.4867	69.5801	76.4975	69.5801	76.5345	69.5801	76.5451	69.5801	76.5794	69.5801	76.5895	69.5801	76.6205	69.5801	76.6296	69.5801	76.6566	69.5801	76.6645	69.5801	76.6867	69.5801	76.6929	69.5801	76.7096	69.5801	76.7139	69.5801	76.7243	69.5801	76.7265	69.5801	76.73
71.7773	76.2242	71.7773	76.2267	71.7773	76.2316	71.7773	76.2389	71.7773	76.2487	71.7773	76.2602	71.7773	76.2746	71.7773	76.2892	71.7773	76.3082	71.7773	76.3246	71.7773	76.3478	71.7773	76.3646	71.7773	76.3917	71.7773	76.4076	71.7773	76.4381	71.7773	76.4519	71.7773	76.4851	71.7773	76.4961	71.7773	76.5313	71.7773	76.5391	71.7773	76.5752	71.7773	76.5801	71.7773	76.616	71.7773	76.6184	71.7773	76.6528	71.7773	76.6532	71.7773	76.6848	71.7773	76.6841	71.7773	76.7115	71.7773	76.7103	71.7773	76.7321	71.7773	76.731	71.7773	76.7462	71.7773	76.7455	71.7773	76.7533	71.7773	76.753
73.9746	76.3059	73.9746	76.3084	73.9746	76.3135	73.9746	76.3206	73.9746	76.3307	73.9746	76.3418	73.9746	76.3568	73.9746	76.3707	73.9746	76.3904	73.9746	76.4057	73.9746	76.4298	73.9746	76.4449	73.9746	76.4731	73.9746	76.4866	73.9746	76.5182	73.9746	76.5289	73.9746	76.5633	73.9746	76.5704	73.9746	76.6068	73.9746	76.61	73.9746	76.6472	73.9746	76.6468	73.9746	76.6837	73.9746	76.6803	73.9746	76.7155	73.9746	76.7102	73.9746	76.7423	73.9746	76.7361	73.9746	76.7638	73.9746	76.7578	73.9746	76.7798	73.9746	76.7749	73.9746	76.7902	73.9746	76.787	73.9746	76.7949	73.9746	76.7938
76.9043	76.4683	76.9043	76.4681	76.9043	76.478	76.9043	76.4771	76.9043	76.4967	76.9043	76.4946	76.9043	76.5235	76.9043	76.5192	76.9043	76.5568	76.9043	76.5495	76.9043	76.5948	76.9043	76.5834	76.9043	76.6355	76.9043	76.6191	76.9043	76.6768	76.9043	76.655	76.9043	76.7165	76.9043	76.6894	76.9043	76.7532	76.9043	76.7214	76.9043	76.7856	76.9043	76.7504	76.9043	76.8128	76.9043	76.7759	76.9043	76.8346	76.9043	76.7982	76.9043	76.851	76.9043	76.8174	76.9043	76.8624	76.9043	76.8337	76.9043	76.8691	76.9043	76.8472	76.9043	76.8716	76.9043	76.8578	76.9043	76.8703	76.9043	76.8656
79.834	76.6107	79.834	76.6134	79.834	76.6174	79.834	76.6255	79.834	76.6332	79.834	76.6458	79.834	76.6573	79.834	76.6732	79.834	76.688	79.834	76.7057	79.834	76.7235	79.834	76.7413	79.834	76.7617	79.834	76.778	79.834	76.8004	79.834	76.8138	79.834	76.8376	79.834	76.8471	79.834	76.8716	79.834	76.8767	79.834	76.9012	79.834	76.9019	79.834	76.9256	79.834	76.9225	79.834	76.9446	79.834	76.9388	79.834	76.9586	79.834	76.9513	79.834	76.9681	79.834	76.9606	79.834	76.9738	79.834	76.9675	79.834	76.9766	79.834	76.9724	79.834	76.977	79.834	76.9755
82.7637	76.8785	82.7637	76.8833	82.7637	76.8817	82.7637	76.8957	82.7637	76.8924	82.7637	76.9146	82.7637	76.91	82.7637	76.9388	82.7637	76.933	82.7637	76.9663	82.7637	76.9597	82.7637	76.9952	82.7637	76.9881	82.7637	77.0234	82.7637	77.0161	82.7637	77.0491	82.7637	77.0419	82.7637	77.0707	82.7637	77.064	82.7637	77.0874	82.7637	77.0812	82.7637	77.0987	82.7637	77.0933	82.7637	77.1049	82.7637	77.1003	82.7637	77.1069	82.7637	77.1031	82.7637	77.1057	82.7637	77.1028	82.7637	77.1028	82.7637	77.1006	82.7637	77.0994	82.7637	77.098	82.7637	77.0968	82.7637	77.0961	82.7637	77.0956
85.6934	77.1197	85.6934	77.1229	85.6934	77.1222	85.6934	77.1314	85.6934	77.13	85.6934	77.1444	85.6934	77.1424	85.6934	77.1605	85.6934	77.158	85.6934	77.1778	85.6934	77.175	85.6934	77.1945	85.6934	77.1916	85.6934	77.2086	85.6934	77.2057	85.6934	77.2184	85.6934	77.2158	85.6934	77.2228	85.6934	77.2205	85.6934	77.2211	85.6934	77.2192	85.6934	77.2134	85.6934	77.2119	85.6934	77.2006	85.6934	77.1996	85.6934	77.1843	85.6934	77.1837	85.6934	77.1665	85.6934	77.1662	85.6934	77.1496	85.6934	77.1494	85.6934	77.1356	85.6934	77.1356	85.6934	77.1264	85.6934	77.1264	85.6934	77.1232
88.623	77.3613	88.623	77.3616	88.623	77.368	88.623	77.3689	88.623	77.3814	88.623	77.3821	88.623	77.4003	88.623	77.3999	88.623	77.4231	88.623	77.4202	88.623	77.4477	88.623	77.4409	88.623	77.4718	88.623	77.4597	88.623	77.4931	88.623	77.4749	88.623	77.5097	88.623	77.4848	88.623	77.5201	88.623	77.4886	88.623	77.5234	88.623	77.4864	88.623	77.5197	88.623	77.479	88.623	77.5098	88.623	77.4677	88.623	77.4951	88.623	77.4548	88.623	77.4779	88.623	77.4424	88.623	77.4605	88.623	77.4326	88.623	77.4451	88.623	77.4273	88.623	77.4337	88.623	77.4276
91.5527	77.3532	91.5527	77.3565	91.5527	77.3593	91.5527	77.3689	91.5527	77.3744	91.5527	77.3893	91.5527	77.3976	91.5527	77.4161	91.5527	77.4271	91.5527	77.4472	91.5527	77.4609	91.5527	77.4803	91.5527	77.4965	91.5527	77.5129	91.5527	77.5315	91.5527	77.543	91.5527	77.5636	91.5527	77.5687	91.5527	77.5907	91.5527	77.5887	91.5527	77.6116	91.5527	77.6027	91.5527	77.6256	91.5527	77.6108	91.5527	77.6329	91.5527	77.614	91.5527	77.6344	91.5527	77.6137	91.5527	77.6315	91.5527	77.6117	91.5527	77.626	91.5527	77.6096	91.5527	77.6196	91.5527	77.6088	91.5527	77.614	91.5527	77.6102
94.4824	77.4847	94.4824	77.4832	94.4824	77.4949	94.4824	77.4901	94.4824	77.5132	94.4824	77.5047	94.4824	77.5385	94.4824	77.5259	94.4824	77.5695	94.4824	77.552	94.4824	77.604	94.4824	77.581	94.4824	77.6399	94.4824	77.6109	94.4824	77.675	94.4824	77.6397	94.4824	77.7071	94.4824	77.6656	94.4824	77.7344	94.4824	77.6875	94.4824	77.7554	94.4824	77.7045	94.4824	77.7697	94.4824	77.7168	94.4824	77.7772	94.4824	77.7249	94.4824	77.7786	94.4824	77.7299	94.4824	77.7751	94.4824	77.7331	94.4824	77.7684	94.4824	77.736	94.4824	77.7603	94.4824	77.7398	94.4824	77.7521	94.4824	77.7451
98.1445	77.9822	98.1445	77.9824	98.1445	77.9861	98.1445	77.9866	98.1445	77.994	98.1445	77.994	98.1445	78.0047	98.1445	78.0032	98.1445	78.017	98.1445	78.0126	98.1445	78.0291	98.1445	78.0204	98.1445	78.039	98.1445	78.0246	98.1445	78.0448	98.1445	78.0235	98.1445	78.0447	98.1445	78.0161	98.1445	78.0377	98.1445	78.0018	98.1445	78.023	98.1445	77.981	98.1445	78.0012	98.1445	77.9548	98.1445	77.9734	98.1445	77.9253	98.1445	77.9418	98.1445	77.8954	98.1445	77.9092	98.1445	77.868	98.1445	77.8788	98.1445	77.8464	98.1445	77.8538	98.1445	77.833	98.1445	77.8368	98.1445	77.8296
101.807	78.2326	101.807	78.2317	101.807	78.2386	101.807	78.2358	101.807	78.2496	101.807	78.2439	101.807	78.2646	101.807	78.2547	101.807	78.2823	101.807	78.2663	101.807	78.3006	101.807	78.2768	101.807	78.3176	101.807	78.2842	101.807	78.3309	101.807	78.2869	101.807	78.3386	101.807	78.2836	101.807	78.3391	101.807	78.2737	101.807	78.3315	101.807	78.2576	101.807	78.3157	101.807	78.2365	101.807	78.2926	101.807	78.2123	101.807	78.2642	101.807	78.1879	101.807	78.2331	101.807	78.1663	101.807	78.2026	101.807	78.1503	101.807	78.1757	101.807	78.1424	101.807	78.1555	101.807	78.1441
105.469	78.4629	105.469	78.4648	105.469	78.4661	105.469	78.4714	105.469	78.4741	105.469	78.4817	105.469	78.486	105.469	78.4943	105.469	78.5007	105.469	78.5075	105.469	78.5163	105.469	78.5191	105.469	78.5309	105.469	78.5274	105.469	78.5423	105.469	78.5304	105.469	78.5487	105.469	78.5269	105.469	78.5484	105.469	78.5164	105.469	78.5407	105.469	78.4992	105.469	78.5254	105.469	78.4764	105.469	78.5034	105.469	78.4503	105.469	78.4765	105.469	78.4235	105.469	78.4473	105.469	78.3992	105.469	78.4189	105.469	78.3804	105.469	78.3945	105.469	78.3696	105.469	78.377	105.469	78.3684
109.131	78.6992	109.131	78.7016	109.131	78.7011	109.131	78.7081	109.131	78.7071	109.131	78.7178	109.131	78.7164	109.131	78.7293	109.131	78.7278	109.131	78.741	109.131	78.7396	109.131	78.751	109.131	78.7498	109.131	78.7573	109.131	78.7566	109.131	78.7582	109.131	78.7582	109.131	78.7525	109.131	78.7532	109.131	78.7395	109.131	78.7409	109.131	78.7196	109.131	78.7215	109.131	78.6938	109.131	78.6961	109.131	78.6642	109.131	78.6667	109.131	78.6336	109.131	78.636	109.131	78.6052	109.131	78.6073	109.131	78.5822	109.131	78.5838	109.131	78.5674	109.131	78.5682	109.131	78.5625
112.793	78.9732	112.793	78.9794	112.793	78.9711	112.793	78.9895	112.793	78.9729	112.793	79.0025	112.793	78.978	112.793	79.017	112.793	78.9851	112.793	79.0312	112.793	78.9925	112.793	79.043	112.793	78.9984	112.793	79.0503	112.793	79.0009	112.793	79.0512	112.793	78.9984	112.793	79.0444	112.793	78.9895	112.793	79.029	112.793	78.9738	112.793	79.0054	112.793	78.9515	112.793	78.9746	112.793	78.924	112.793	78.9389	112.793	78.8933	112.793	78.9014	112.793	78.8625	112.793	78.8657	112.793	78.835	112.793	78.8352	112.793	78.814	112.793	78.8132	112.793	78.8024	112.793	78.802
116.455	79.1741	116.455	79.1727	116.455	79.179	116.455	79.1748	116.455	79.1872	116.455	79.1797	116.455	79.1978	116.455	79.1866	116.455	79.2094	116.455	79.1938	116.455	79.2205	116.455	79.1998	116.455	79.2293	116.455	79.2028	116.455	79.2339	116.455	79.2011	116.455	79.2328	116.455	79.1936	116.455	79.2246	116.455	79.1793	116.455	79.2088	116.455	79.1586	116.455	79.1857	116.455	79.1325	116.455	79.1564	116.455	79.1028	116.455	79.1232	116.455	79.0724	116.455	79.0889	116.455	79.0444	116.455	79.0568	116.455	79.0221	116.455	79.0304	116.455	79.0082	116.455	79.0124	116.455	79.0048
120.85	79.5184	120.85	79.5172	120.85	79.5212	120.85	79.5178	120.85	79.5254	120.85	79.5198	120.85	79.5302	120.85	79.5224	120.85	79.5346	120.85	79.5248	120.85	79.5372	120.85	79.5255	120.85	79.5369	120.85	79.5232	120.85	79.5323	120.85	79.5165	120.85	79.5223	120.85	79.5045	120.85	79.5062	120.85	79.4866	120.85	79.4839	120.85	79.4628	120.85	79.456	120.85	79.434	120.85	79.424	120.85	79.402	120.85	79.39	120.85	79.3692	120.85	79.3568	120.85	79.3386	120.85	79.3273	120.85	79.3131	120.85	79.3046	120.85	79.2955	120.85	79.291	120.85	79.2878
125.244	79.8249	125.244	79.8127	125.244	79.8378	125.244	79.8013	125.244	79.8513	125.244	79.7905	125.244	79.8644	125.244	79.7796	125.244	79.8762	125.244	79.7679	125.244	79.8854	125.244	79.7546	125.244	79.8905	125.244	79.7387	125.244	79.8899	125.244	79.7197	125.244	79.8822	125.244	79.697	125.244	79.8665	125.244	79.6709	125.244	79.8422	125.244	79.6421	125.244	79.8096	125.244	79.612	125.244	79.77	125.244	79.5827	125.244	79.7254	125.244	79.5567	125.244	79.6787	125.244	79.5369	125.244	79.6331	125.244	79.5257	125.244	79.5923	125.244	79.5252	125.244	79.5592	125.244	79.5364
129.639	80.0376	129.639	80.0338	129.639	80.0417	129.639	80.0298	129.639	80.0462	129.639	80.025	129.639	80.0508	129.639	80.0183	129.639	80.0545	129.639	80.0085	129.639	80.0564	129.639	79.9944	129.639	80.0551	129.639	79.9749	129.639	80.049	129.639	79.9493	129.639	80.0368	129.639	79.9176	129.639	80.0172	129.639	79.8802	129.639	79.9897	129.639	79.8387	129.639	79.9544	129.639	79.7954	129.639	79.9122	129.639	79.7531	129.639	79.8651	129.639	79.7154	129.639	79.816	129.639	79.6856	129.639	79.7682	129.639	79.6669	129.639	79.7257	129.639	79.6613	129.639	79.6919	129.639	79.6698
134.033	80.1187	134.033	80.1331	134.033	80.1052	134.033	80.1481	134.033	80.0924	134.033	80.1629	134.033	80.0799	134.033	80.1762	134.033	80.0668	134.033	80.1865	134.033	80.052	134.033	80.1917	134.033	80.0342	134.033	80.1899	134.033	80.0123	134.033	80.1792	134.033	79.9855	134.033	80.1582	134.033	79.9533	134.033	80.1263	134.033	79.9161	134.033	80.0836	134.033	79.8752	134.033	80.0317	134.033	79.8325	134.033	79.9732	134.033	79.7911	134.033	79.9117	134.033	79.7544	134.033	79.8515	134.033	79.7264	134.033	79.7975	134.033	79.7104	134.033	79.7537	134.033	79.709	134.033	79.7235
138.428	80.3995	138.428	80.3885	138.428	80.4121	138.428	80.3797	138.428	80.4258	138.428	80.3733	138.428	80.4395	138.428	80.3693	138.428	80.4523	138.428	80.3674	138.428	80.4631	138.428	80.3667	138.428	80.4704	138.428	80.3663	138.428	80.4732	138.428	80.365	138.428	80.4701	138.428	80.3614	138.428	80.4605	138.428	80.3546	138.428	80.4441	138.428	80.3439	138.428	80.4214	138.428	80.3295	138.428	80.3935	138.428	80.3122	138.428	80.3626	138.428	80.2936	138.428	80.3312	138.428	80.276	138.428	80.3021	138.428	80.2618	138.428	80.278	138.428	80.2536	138.428	80.2613	138.428	80.2531
143.555	80.7588	143.555	80.7495	143.555	80.7644	143.555	80.7365	143.555	80.7663	143.555	80.7196	143.555	80.7644	143.555	80.699	143.555	80.7588	143.555	80.6746	143.555	80.7492	143.555	80.6467	143.555	80.7352	143.555	80.6156	143.555	80.7165	143.555	80.5817	143.555	80.6927	143.555	80.5456	143.555	80.6637	143.555	80.5084	143.555	80.6296	143.555	80.4712	143.555	80.5912	143.555	80.4354	143.555	80.5495	143.555	80.4027	143.555	80.5063	143.555	80.3751	143.555	80.4638	143.555	80.3542	143.555	80.4243	143.555	80.3418	143.555	80.3902	143.555	80.3389	143.555	80.3637	143.555	80.3463
148.682	80.9492	148.682	80.9407	148.682	80.9538	148.682	80.9285	148.682	80.9545	148.682	80.9124	148.682	80.9511	148.682	80.8923	148.682	80.9431	148.682	80.868	148.682	80.9302	148.682	80.8393	148.682	80.9117	148.682	80.8061	148.682	80.8874	148.682	80.7684	148.682	80.8567	148.682	80.7267	148.682	80.8197	148.682	80.6818	148.682	80.7767	148.682	80.6352	148.682	80.7289	148.682	80.5886	148.682	80.6778	148.682	80.5444	148.682	80.6256	148.682	80.5053	148.682	80.5751	148.682	80.4738	148.682	80.5292	148.682	80.4525	148.682	80.4909	148.682	80.443	148.682	80.4626	148.682	80.4464
153.809	81.1109	153.809	81.1066	153.809	81.1117	153.809	81.0988	153.809	81.109	153.809	81.0871	153.809	81.1028	153.809	81.0714	153.809	81.0929	153.809	81.0514	153.809	81.0789	153.809	81.0266	153.809	81.0605	153.809	80.9969	153.809	81.0371	153.809	80.9623	153.809	81.0084	153.809	80.923	153.809	80.9743	153.809	80.8799	153.809	80.935	153.809	80.8343	153.809	80.8913	153.809	80.7881	153.809	80.8447	153.809	80.7437	153.809	80.7971	153.809	80.7037	153.809	80.7511	153.809	80.671	153.809	80.7095	153.809	80.6478	153.809	80.675	153.809	80.6362	153.809	80.6502	153.809	80.6369
159.668	81.337	159.668	81.3304	159.668	81.3388	159.668	81.3192	159.668	81.3357	159.668	81.3034	159.668	81.3278	159.668	81.2833	159.668	81.3151	159.668	81.259	159.668	81.2977	159.668	81.2309	159.668	81.2757	159.668	81.199	159.668	81.2489	159.668	81.1639	159.668	81.2178	159.668	81.1259	159.668	81.1825	159.668	81.086	159.668	81.1436	159.668	81.0454	159.668	81.1022	159.668	81.0054	159.668	81.0595	159.668	80.9679	159.668	81.0172	159.668	80.9349	159.668	80.9774	159.668	80.9083	159.668	80.9421	159.668	80.8898	159.668	80.9133	159.668	80.8807	159.668	80.8928	159.668	80.8817
164.795	81.5659	164.795	81.5622	164.795	81.5623	164.795	81.5513	164.795	81.5515	164.795	81.5333	164.795	81.5335	164.795	81.5083	164.795	81.5083	164.795	81.4765	164.795	81.4762	164.795	81.438	164.795	81.4374	164.795	81.3932	164.795	81.3924	164.795	81.3425	164.795	81.3416	164.795	81.2869	164.795	81.2861	164.795	81.2276	164.795	81.2272	164.795	81.1664	164.795	81.1666	164.795	81.1055	164.795	81.1064	164.795	81.0476	164.795	81.0491	164.795	80.9954	164.795	80.9973	164.795	80.9517	164.795	80.9537	164.795	80.9188	164.795	80.9204	164.795	80.8985	164.795	80.8994	164.795	80.8919
170.654	81.6446	170.654	81.6375	170.654	81.6444	170.654	81.6231	170.654	81.6367	170.654	81.6017	170.654	81.6218	170.654	81.5734	170.654	81.5997	170.654	81.5387	170.654	81.5706	170.654	81.4979	170.654	81.5347	170.654	81.4516	170.654	81.4922	170.654	81.4003	170.654	81.4436	170.654	81.3449	170.654	81.3896	170.654	81.2868	170.654	81.3314	170.654	81.2276	170.654	81.2706	170.654	81.1693	170.654	81.2094	170.654	81.1144	170.654	81.1501	170.654	81.0656	170.654	81.0956	170.654	81.0254	170.654	81.0488	170.654	80.996	170.654	81.012	170.654	80.9793	170.654	80.9874	170.654	80.9763
176.514	81.7073	176.514	81.7049	176.514	81.7017	176.514	81.6946	176.514	81.6883	176.514	81.6768	176.514	81.6672	176.514	81.6519	176.514	81.639	176.514	81.6204	176.514	81.6043	176.514	81.5829	176.514	81.5637	176.514	81.5399	176.514	81.5182	176.514	81.4921	176.514	81.4686	176.514	81.4404	176.514	81.416	176.514	81.3858	176.514	81.3616	176.514	81.3299	176.514	81.3069	176.514	81.2745	176.514	81.2537	176.514	81.2218	176.514	81.2039	176.514	81.1741	176.514	81.1597	176.514	81.1338	176.514	81.123	176.514	81.1029	176.514	81.0958	176.514	81.083	176.514	81.0795	176.514	81.0751
183.105	81.7362	183.105	81.7305	183.105	81.7326	183.105	81.7159	183.105	81.7194	183.105	81.6935	183.105	81.697	183.105	81.6643	183.105	81.666	183.105	81.6298	183.105	81.6273	183.105	81.591	183.105	81.5822	183.105	81.5492	183.105	81.5322	183.105	81.5054	183.105	81.479	183.105	81.4603	183.105	81.4242	183.105	81.4147	183.105	81.3697	183.105	81.3693	183.105	81.3175	183.105	81.325	183.105	81.2694	183.105	81.2827	183.105	81.2273	183.105	81.2436	183.105	81.1926	183.105	81.2092	183.105	81.1667	183.105	81.1808	183.105	81.1503	183.105	81.1598	183.105	81.1438	183.105	81.1471
189.697	81.8744	189.697	81.8668	189.697	81.8703	189.697	81.848	189.697	81.8545	189.697	81.819	189.697	81.8277	189.697	81.7813	189.697	81.791	189.697	81.7368	189.697	81.7456	189.697	81.6877	189.697	81.6935	189.697	81.6361	189.697	81.6367	189.697	81.5843	189.697	81.5773	189.697	81.5342	189.697	81.518	189.697	81.4872	189.697	81.461	189.697	81.4445	189.697	81.4088	189.697	81.4066	189.697	81.3634	189.697	81.3735	189.697	81.3264	189.697	81.3451	189.697	81.2986	189.697	81.3211	189.697	81.2802	189.697	81.3012	189.697	81.2708	189.697	81.2856	189.697	81.2694	189.697	81.2747
196.289	81.9664	196.289	81.951	196.289	81.9677	196.289	81.9221	196.289	81.9548	196.289	81.8811	196.289	81.9284	196.289	81.8298	196.289	81.8897	196.289	81.771	196.289	81.8403	196.289	81.7073	196.289	81.7825	196.289	81.642	196.289	81.7187	196.289	81.5781	196.289	81.6516	196.289	81.5184	196.289	81.5844	196.289	81.4651	196.289	81.5199	196.289	81.4196	196.289	81.461	196.289	81.3827	196.289	81.41	196.289	81.3539	196.289	81.3684	196.289	81.3325	196.289	81.3369	196.289	81.317	196.289	81.3152	196.289	81.3062	196.289	81.3022	196.289	81.2991	196.289	81.2962	196.289	81.2956
202.881	82.0223	202.881	82.0005	202.881	82.0277	202.881	81.9629	202.881	82.0169	202.881	81.9107	202.881	81.9909	202.881	81.846	202.881	81.951	202.881	81.7716	202.881	81.8991	202.881	81.6911	202.881	81.8376	202.881	81.6083	202.881	81.7691	202.881	81.5275	202.881	81.6966	202.881	81.4525	202.881	81.623	202.881	81.3868	202.881	81.5514	202.881	81.3327	202.881	81.4847	202.881	81.2912	202.881	81.4251	202.881	81.2623	202.881	81.3743	202.881	81.2446	202.881	81.3329	202.881	81.2361	202.881	81.3007	202.881	81.2347	202.881	81.2765	202.881	81.2385	202.881	81.259	202.881	81.2466
210.205	82.0083	210.205	81.9961	210.205	82.0023	210.205	81.9652	210.205	81.979	210.205	81.916	210.205	81.9401	210.205	81.8499	210.205	81.8879	210.205	81.7692	210.205	81.8251	210.205	81.6772	210.205	81.7547	210.205	81.5783	210.205	81.6802	210.205	81.4779	210.205	81.6051	210.205	81.3819	210.205	81.5327	210.205	81.2961	210.205	81.4659	210.205	81.2257	210.205	81.407	210.205	81.174	210.205	81.3571	210.205	81.1423	210.205	81.3163	210.205	81.1292	210.205	81.2833	210.205	81.1316	210.205	81.2561	210.205	81.1449	210.205	81.2323	210.205	81.1646	210.205	81.2095	210.205	81.1868
217.529	82.0667	217.529	82.0617	217.529	82.0517	217.529	82.0366	217.529	82.0175	217.529	81.9921	217.529	81.9657	217.529	81.9293	217.529	81.8985	217.529	81.8506	217.529	81.8189	217.529	81.7587	217.529	81.7304	217.529	81.6577	217.529	81.637	217.529	81.5519	217.529	81.5431	217.529	81.4468	217.529	81.4529	217.529	81.3478	217.529	81.3703	217.529	81.2601	217.529	81.2984	217.529	81.188	217.529	81.2389	217.529	81.1338	217.529	81.1921	217.529	81.0979	217.529	81.157	217.529	81.0786	217.529	81.131	217.529	81.0724	217.529	81.1116	217.529	81.0754	217.529	81.0964	217.529	81.0841
225.586	82.0281	225.586	82.0225	225.586	82.0132	225.586	81.9967	225.586	81.9782	225.586	81.9519	225.586	81.9241	225.586	81.8896	225.586	81.8529	225.586	81.8124	225.586	81.7676	225.586	81.7231	225.586	81.672	225.586	81.6257	225.586	81.5707	225.586	81.5245	225.586	81.4689	225.586	81.4247	225.586	81.3718	225.586	81.3313	225.586	81.2843	225.586	81.249	225.586	81.2104	225.586	81.1814	225.586	81.1524	225.586	81.1302	225.586	81.1106	225.586	81.095	225.586	81.0835	225.586	81.0737	225.586	81.0681	225.586	81.0627	225.586	81.0606	225.586	81.0582	225.586	81.0576	225.586	81.057
232.91	82.0788	232.91	82.0699	232.91	82.0633	232.91	82.0376	232.91	82.023	232.91	81.9837	232.91	81.9587	232.91	81.9105	232.91	81.8721	232.91	81.8209	232.91	81.7664	232.91	81.7181	232.91	81.6461	232.91	81.6064	232.91	81.5174	232.91	81.4904	232.91	81.3872	232.91	81.3753	232.91	81.2635	232.91	81.2667	232.91	81.1535	232.91	81.1701	232.91	81.0633	232.91	81.0896	232.91	80.9963	232.91	81.0279	232.91	80.9527	232.91	80.9851	232.91	80.9295	232.91	80.9586	232.91	80.9214	232.91	80.9442	232.91	80.9222	232.91	80.9367	232.91	80.9267	232.91	80.9317
241.699	81.9215	241.699	81.8958	241.699	81.9234	241.699	81.8474	241.699	81.9011	241.699	81.7782	241.699	81.8548	241.699	81.6908	241.699	81.7855	241.699	81.5886	241.699	81.6951	241.699	81.4759	241.699	81.5864	241.699	81.3576	241.699	81.4637	241.699	81.2392	241.699	81.3324	241.699	81.1263	241.699	81.1992	241.699	81.0239	241.699	81.0716	241.699	80.9362	241.699	80.9571	241.699	80.8655	241.699	80.8619	241.699	80.8122	241.699	80.7897	241.699	80.7746	241.699	80.7413	241.699	80.7493	241.699	80.7142	241.699	80.7323	241.699	80.7036	241.699	80.72	241.699	80.704	241.699	80.7104
249.756	81.932	249.756	81.9145	249.756	81.9225	249.756	81.8707	249.756	81.886	249.756	81.8017	249.756	81.8231	249.756	81.7097	249.756	81.7352	249.756	81.5978	249.756	81.6243	249.756	81.4701	249.756	81.4939	249.756	81.332	249.756	81.3486	249.756	81.1899	249.756	81.1947	249.756	81.0508	249.756	81.04	249.756	80.9217	249.756	80.8931	249.756	80.8087	249.756	80.7627	249.756	80.716	249.756	80.6559	249.756	80.6451	249.756	80.5767	249.756	80.5945	249.756	80.5256	249.756	80.5602	249.756	80.4993	249.756	80.537	249.756	80.4916	249.756	80.5201	249.756	80.4959	249.756	80.5064
258.545	81.8539	258.545	81.8392	258.545	81.8442	258.545	81.8007	258.545	81.8103	258.545	81.7394	258.545	81.7529	258.545	81.657	258.545	81.6732	258.545	81.5562	258.545	81.5732	258.545	81.4406	258.545	81.4558	258.545	81.3147	258.545	81.3252	258.545	81.1842	258.545	81.1868	258.545	81.0555	258.545	81.0473	258.545	80.9353	258.545	80.9145	258.545	80.8296	258.545	80.796	258.545	80.7427	258.545	80.6982	258.545	80.6766	258.545	80.6253	258.545	80.6302	258.545	80.5778	258.545	80.5997	258.545	80.5528	258.545	80.5802	258.545	80.5448	258.545	80.5666	258.545	80.5476	258.545	80.5559
268.066	81.6515	268.066	81.6099	268.066	81.6682	268.066	81.5447	268.066	81.6594	268.066	81.4577	268.066	81.6244	268.066	81.3517	268.066	81.5629	268.066	81.2307	268.066	81.4748	268.066	81.0992	268.066	81.3607	268.066	80.9631	268.066	81.2224	268.066	80.8283	268.066	81.0634	268.066	80.7005	268.066	80.8899	268.066	80.5844	268.066	80.7103	268.066	80.4831	268.066	80.5355	268.066	80.3975	268.066	80.3772	268.066	80.3264	268.066	80.246	268.066	80.2667	268.066	80.1495	268.066	80.2152	268.066	80.0903	268.066	80.1689	268.066	80.0656	268.066	80.1271	268.066	80.069	268.066	80.0921
277.588	81.4864	277.588	81.4801	277.588	81.4626	277.588	81.4417	277.588	81.4127	277.588	81.371	277.588	81.3421	277.588	81.2701	277.588	81.2578	277.588	81.1431	277.588	81.167	277.588	80.9965	277.588	81.077	277.588	80.8394	277.588	80.9944	277.588	80.6829	277.588	80.9238	277.588	80.5398	277.588	80.8677	277.588	80.4227	277.588	80.8268	277.588	80.3421	277.588	80.7992	277.588	80.3038	277.588	80.7819	277.588	80.3076	277.588	80.7705	277.588	80.347	277.588	80.7599	277.588	80.4109	277.588	80.7448	277.588	80.4867	277.588	80.7202	277.588	80.5625	277.588	80.6823	277.588	80.6293
287.109	81.5076	287.109	81.5096	287.109	81.471	287.109	81.4777	287.109	81.4004	287.109	81.4133	287.109	81.2983	287.109	81.319	287.109	81.1689	287.109	81.1981	287.109	81.0191	287.109	81.0554	287.109	80.8581	287.109	80.8974	287.109	80.6972	287.109	80.7322	287.109	80.5485	287.109	80.5699	287.109	80.4234	287.109	80.4216	287.109	80.3302	287.109	80.2983	287.109	80.2725	287.109	80.2086	287.109	80.248	287.109	80.1567	287.109	80.249	287.109	80.1416	287.109	80.2644	287.109	80.1564	287.109	80.2822	287.109	80.19	287.109	80.2918	287.109	80.23	287.109	80.2867	287.109	80.265
297.363	81.4705	297.363	81.4469	297.363	81.4582	297.363	81.3903	297.363	81.4076	297.363	81.3039	297.363	81.3171	297.363	81.1916	297.363	81.1862	297.363	81.058	297.363	81.0166	297.363	80.9087	297.363	80.8129	297.363	80.7505	297.363	80.5838	297.363	80.5916	297.363	80.3427	297.363	80.4404	297.363	80.1073	297.363	80.3055	297.363	79.8978	297.363	80.1937	297.363	79.7335	297.363	80.1085	297.363	79.6281	297.363	80.0491	297.363	79.5855	297.363	80.0103	297.363	79.5987	297.363	79.9829	297.363	79.6521	297.363	79.9564	297.363	79.7262	297.363	79.9209	297.363	79.8032	297.363	79.8701
307.617	81.3164	307.617	81.2726	307.617	81.3278	307.617	81.1978	307.617	81.3062	307.617	81.0942	307.617	81.2512	307.617	80.9652	307.617	81.1629	307.617	80.8156	307.617	81.0424	307.617	80.6522	307.617	80.8925	307.617	80.4835	307.617	80.7181	307.617	80.3198	307.617	80.5274	307.617	80.172	307.617	80.3322	307.617	80.0503	307.617	80.1473	307.617	79.9622	307.617	79.9888	307.617	79.9104	307.617	79.8705	307.617	79.8915	307.617	79.8005	307.617	79.8966	307.617	79.7783	307.617	79.9131	307.617	79.7942	307.617	79.9276	307.617	79.8328	307.617	79.929	307.617	79.8768	307.617	79.9117
318.604	81.0963	318.604	81.0628	318.604	81.0931	318.604	80.9921	318.604	81.0545	318.604	80.8857	318.604	80.9829	318.604	80.7466	318.604	80.8812	318.604	80.5801	318.604	80.7531	318.604	80.3942	318.604	80.6031	318.604	80.1993	318.604	80.4372	318.604	80.0081	318.604	80.2629	318.604	79.8345	318.604	80.09	318.604	79.6917	318.604	79.9296	318.604	79.5897	318.604	79.7933	318.604	79.5327	318.604	79.6905	318.604	79.5179	318.604	79.6263	318.604	79.5352	318.604	79.5992	318.604	79.5702	318.604	79.6008	318.604	79.6077	318.604	79.6181	318.604	79.6349	318.604	79.6368	318.604	79.6446
329.59	80.8929	329.59	80.8698	329.59	80.8766	329.59	80.8059	329.59	80.8231	329.59	80.701	329.59	80.7352	329.59	80.5565	329.59	80.6165	329.59	80.3761	329.59	80.4714	329.59	80.1665	329.59	80.3059	329.59	79.9384	329.59	80.1275	329.59	79.7065	329.59	79.9455	329.59	79.4887	329.59	79.7713	329.59	79.3043	329.59	79.6165	329.59	79.1699	329.59	79.4918	329.59	79.095	329.59	79.4042	329.59	79.0789	329.59	79.355	329.59	79.1104	329.59	79.3385	329.59	79.1711	329.59	79.3433	329.59	79.2405	329.59	79.3544	329.59	79.3008	329.59	79.3572	329.59	79.3409
341.309	80.6428	341.309	80.6506	341.309	80.5916	341.309	80.6142	341.309	80.4985	341.309	80.534	341.309	80.3664	341.309	80.412	341.309	80.1997	341.309	80.2515	341.309	80.005	341.309	80.0588	341.309	79.7914	341.309	79.8433	341.309	79.5709	341.309	79.6184	341.309	79.3586	341.309	79.4011	341.309	79.1712	341.309	79.2107	341.309	79.0251	341.309	79.0651	341.309	78.9324	341.309	78.9766	341.309	78.8974	341.309	78.9478	341.309	78.9148	341.309	78.9697	341.309	78.9697	341.309	79.0239	341.309	79.0414	341.309	79.0879	341.309	79.1085	341.309	79.1399	341.309	79.153	341.309	79.1641
353.76	80.7172	353.76	80.6954	353.76	80.6928	353.76	80.6293	353.76	80.6211	353.76	80.5216	353.76	80.502	353.76	80.3753	353.76	80.3369	353.76	80.1946	353.76	80.1299	353.76	79.9854	353.76	79.8879	353.76	79.7561	353.76	79.6217	353.76	79.5184	353.76	79.3467	353.76	79.2871	353.76	79.0825	353.76	79.0796	353.76	78.8509	353.76	78.9125	353.76	78.6726	353.76	78.7979	353.76	78.5617	353.76	78.7386	353.76	78.5209	353.76	78.727	353.76	78.5403	353.76	78.7457	353.76	78.5993	353.76	78.7731	353.76	78.6729	353.76	78.7889	353.76	78.7381	353.76	78.7787
366.211	80.631	366.211	80.5917	366.211	80.6251	366.211	80.5074	366.211	80.574	366.211	80.3784	366.211	80.4779	366.211	80.2063	366.211	80.3377	366.211	79.9942	366.211	80.1557	366.211	79.7484	366.211	79.9367	366.211	79.479	366.211	79.6889	366.211	79.2014	366.211	79.4254	366.211	78.9359	366.211	79.1639	366.211	78.706	366.211	78.9261	366.211	78.5336	366.211	78.7338	366.211	78.433	366.211	78.6034	366.211	78.4057	366.211	78.5406	366.211	78.4382	366.211	78.5371	366.211	78.5065	366.211	78.5732	366.211	78.5828	366.211	78.6228	366.211	78.6426	366.211	78.6611	366.211	78.6702
378.662	80.6281	378.662	80.5955	378.662	80.6146	378.662	80.5163	378.662	80.5555	378.662	80.3899	378.662	80.4509	378.662	80.2168	378.662	80.3015	378.662	79.9993	378.662	80.1088	378.662	79.7428	378.662	79.8771	378.662	79.4576	378.662	79.6148	378.662	79.1602	378.662	79.3359	378.662	78.8737	378.662	79.061	378.662	78.626	378.662	78.8156	378.662	78.4444	378.662	78.6261	378.662	78.3478	378.662	78.5117	378.662	78.3388	378.662	78.4777	378.662	78.4012	378.662	78.5113	378.662	78.5046	378.662	78.5853	378.662	78.6139	378.662	78.6663	378.662	78.6982	378.662	78.7239	378.662	78.7371
392.578	80.2795	392.578	80.2702	392.578	80.247	392.578	80.2185	392.578	80.1727	392.578	80.1243	392.578	80.0568	392.578	79.9873	392.578	79.8997	392.578	79.8087	392.578	79.7028	392.578	79.5912	392.578	79.4696	392.578	79.3413	392.578	79.2072	392.578	79.0698	392.578	78.9279	392.578	78.7937	392.578	78.6502	392.578	78.5354	392.578	78.3979	392.578	78.3201	392.578	78.1969	392.578	78.1696	392.578	78.0676	392.578	78.0949	392.578	78.018	392.578	78.0907	392.578	78.0385	392.578	78.1357	392.578	78.1041	392.578	78.1994	392.578	78.1828	392.578	78.2514	392.578	78.2446	392.578	78.2695
405.762	80.1504	405.762	80.1452	405.762	80.1067	405.762	80.0891	405.762	80.0167	405.762	79.9803	405.762	79.8834	405.762	79.8184	405.762	79.7099	405.762	79.6045	405.762	79.5004	405.762	79.3433	405.762	79.2606	405.762	79.044	405.762	78.9989	405.762	78.7228	405.762	78.7279	405.762	78.404	405.762	78.4653	405.762	78.1188	405.762	78.2331	405.762	77.9003	405.762	78.0547	405.762	77.7742	405.762	77.9482	405.762	77.7482	405.762	77.9193	405.762	77.8073	405.762	77.9566	405.762	77.9179	405.762	78.0338	405.762	78.0395	405.762	78.1171	405.762	78.136	405.762	78.1745	405.762	78.1836
420.41	79.9332	420.41	79.9752	420.41	79.8465	420.41	79.9719	420.41	79.7158	420.41	79.9215	420.41	79.5418	420.41	79.8217	420.41	79.3269	420.41	79.6694	420.41	79.0759	420.41	79.4626	420.41	78.7967	420.41	79.2021	420.41	78.5017	420.41	78.8939	420.41	78.2081	420.41	78.5521	420.41	77.9375	420.41	78.2013	420.41	77.7129	420.41	77.8753	420.41	77.5541	420.41	77.6125	420.41	77.4711	420.41	77.4434	420.41	77.4596	420.41	77.3786	420.41	77.5007	420.41	77.4021	420.41	77.5655	420.41	77.4782	420.41	77.6231	420.41	77.5651	420.41	77.6485	420.41	77.6283
435.059	79.7837	435.059	79.8153	435.059	79.7023	435.059	79.8075	435.059	79.5612	435.059	79.7697	435.059	79.3521	435.059	79.7091	435.059	79.0698	435.059	79.6302	435.059	78.7142	435.059	79.5345	435.059	78.2933	435.059	79.4219	435.059	77.8269	435.059	79.2923	435.059	77.3513	435.059	79.1474	435.059	76.921	435.059	78.9925	435.059	76.6026	435.059	78.8369	435.059	76.4544	435.059	78.6923	435.059	76.4992	435.059	78.5696	435.059	76.7099	435.059	78.4741	435.059	77.0229	435.059	78.4011	435.059	77.3663	435.059	78.3351	435.059	77.6834	435.059	78.2525	435.059	77.9407	435.059	78.1278
450.439	79.7758	450.439	79.605	450.439	79.8773	450.439	79.3701	450.439	79.9043	450.439	79.0778	450.439	79.8513	450.439	78.7375	450.439	79.713	450.439	78.3637	450.439	79.4847	450.439	77.9783	450.439	79.1651	450.439	77.6115	450.439	78.7584	450.439	77.3003	450.439	78.279	450.439	77.0821	450.439	77.7574	450.439	76.9834	450.439	77.2449	450.439	77.0085	450.439	76.8131	450.439	77.1355	450.439	76.5375	450.439	77.3226	450.439	76.4654	450.439	77.5201	450.439	76.5886	450.439	77.6817	450.439	76.8457	450.439	77.7709	450.439	77.1538	450.439	77.7641	450.439	77.4391	450.439	77.6513
466.553	79.7015	466.553	79.6347	466.553	79.7115	466.553	79.5088	466.553	79.6647	466.553	79.3203	466.553	79.5582	466.553	79.0663	466.553	79.3866	466.553	78.7466	466.553	79.144	466.553	78.3671	466.553	78.8259	466.553	77.9434	466.553	78.4341	466.553	77.5046	466.553	77.9812	466.553	77.0961	466.553	77.4976	466.553	76.7752	466.553	77.0357	466.553	76.5959	466.553	76.6673	466.553	76.5852	466.553	76.4632	466.553	76.726	466.553	76.4592	466.553	76.9619	466.553	76.631	466.553	77.2199	466.553	76.9056	466.553	77.433	466.553	77.1949	466.553	77.5525	466.553	77.4257	466.553	77.5516
482.666	79.6308	482.666	79.5905	482.666	79.6276	482.666	79.5049	482.666	79.5784	482.666	79.3683	482.666	79.4766	482.666	79.1732	482.666	79.3116	482.666	78.9115	482.666	79.0713	482.666	78.5776	482.666	78.7439	482.666	78.1722	482.666	78.3224	482.666	77.7074	482.666	77.8103	482.666	77.2124	482.666	77.2296	482.666	76.7392	482.666	76.6311	482.666	76.3582	482.666	76.0997	482.666	76.1382	482.666	75.7398	482.666	76.1111	482.666	75.6289	482.666	76.2477	482.666	75.7639	482.666	76.4691	482.666	76.0577	482.666	76.6823	482.666	76.3903	482.666	76.8109	482.666	76.6609	482.666	76.8083
500.244	79.5598	500.244	79.4878	500.244	79.5819	500.244	79.3655	500.244	79.5522	500.244	79.19	500.244	79.4657	500.244	78.9569	500.244	79.3148	500.244	78.6613	500.244	79.09	500.244	78.3005	500.244	78.7818	500.244	77.8774	500.244	78.3832	500.244	77.406	500.244	77.895	500.244	76.9174	500.244	77.3327	500.244	76.4646	500.244	76.7368	500.244	76.1168	500.244	76.1809	500.244	75.9377	500.244	75.7655	500.244	75.9504	500.244	75.5807	500.244	76.117	500.244	75.6492	500.244	76.3541	500.244	75.9035	500.244	76.569	500.244	76.2255	500.244	76.6881	500.244	76.5049	500.244	76.6692
517.822	78.8281	517.822	78.7863	517.822	78.8453	517.822	78.7138	517.822	78.839	517.822	78.6011	517.822	78.8045	517.822	78.4366	517.822	78.7309	517.822	78.208	517.822	78.6022	517.822	77.9052	517.822	78.4002	517.822	77.523	517.822	78.1075	517.822	77.0667	517.822	77.7131	517.822	76.5592	517.822	77.2189	517.822	76.0479	517.822	76.6487	517.822	75.606	517.822	76.0589	517.822	75.3158	517.822	75.5418	517.822	75.2288	517.822	75.2039	517.822	75.3284	517.822	75.1109	517.822	75.5339	517.822	75.2372	517.822	75.7417	517.822	75.4792	517.822	75.8661	517.822	75.7163	517.822	75.8592
536.133	78.8914	536.133	78.8476	536.133	78.8982	536.133	78.7721	536.133	78.862	536.133	78.6676	536.133	78.7761	536.133	78.5302	536.133	78.6314	536.133	78.3473	536.133	78.4145	536.133	78.0971	536.133	78.1081	536.133	77.754	536.133	77.6933	536.133	77.2954	536.133	77.1559	536.133	76.7146	536.133	76.4964	536.133	76.0371	536.133	75.7477	536.133	75.3425	536.133	74.998	536.133	74.7752	536.133	74.4032	536.133	74.4977	536.133	74.1367	536.133	74.5748	536.133	74.2619	536.133	74.9034	536.133	74.6615	536.133	75.291	536.133	75.1284	536.133	75.571	536.133	75.4896	536.133	75.6472
554.443	78.5272	554.443	78.4718	554.443	78.5668	554.443	78.3962	554.443	78.5958	554.443	78.2974	554.443	78.6155	554.443	78.1711	554.443	78.6176	554.443	78.0076	554.443	78.5802	554.443	77.79	554.443	78.4694	554.443	77.4966	554.443	78.2451	554.443	77.1069	554.443	77.8685	554.443	76.6106	554.443	77.3103	554.443	76.0217	554.443	76.5641	554.443	75.395	554.443	75.6683	554.443	74.8361	554.443	74.7435	554.443	74.4785	554.443	74.0138	554.443	74.4037	554.443	73.7158	554.443	74.5655	554.443	73.8861	554.443	74.8128	554.443	74.3103	554.443	74.9829	554.443	74.7246	554.443	74.9658
574.219	78.0182	574.219	77.9319	574.219	78.0652	574.219	77.8207	574.219	78.072	574.219	77.7083	574.219	78.0471	574.219	77.6145	574.219	77.999	574.219	77.5409	574.219	77.9254	574.219	77.4628	574.219	77.8073	574.219	77.3343	574.219	77.6101	574.219	77.1022	574.219	77.2921	574.219	76.722	574.219	76.8139	574.219	76.1723	574.219	76.1522	574.219	75.4742	574.219	75.3187	574.219	74.7161	574.219	74.3943	574.219	74.0663	574.219	73.5658	574.219	73.7114	574.219	73.09	574.219	73.7061	574.219	73.0986	574.219	73.9041	574.219	73.4429	574.219	74.0811	574.219	73.8383	574.219	74.0757
594.727	78.7899	594.727	78.6397	594.727	78.7938	594.727	78.3331	594.727	78.6823	594.727	77.8832	594.727	78.5038	594.727	77.3295	594.727	78.3162	594.727	76.7391	594.727	78.1686	594.727	76.1979	594.727	78.0791	594.727	75.7801	594.727	78.0229	594.727	75.509	594.727	77.9404	594.727	75.3418	594.727	77.7587	594.727	75.1976	594.727	77.4117	594.727	75.0009	594.727	76.852	594.727	74.7112	594.727	76.062	594.727	74.3322	594.727	75.0728	594.727	73.9044	594.727	73.9962	594.727	73.482	594.727	73.0446	594.727	73.0993	594.727	72.4557	594.727	72.7586	594.727	72.3081	594.727	72.4673
615.234	79.9459	615.234	79.9475	615.234	79.8406	615.234	79.8398	615.234	79.6358	615.234	79.6161	615.234	79.3355	615.234	79.2684	615.234	78.9454	615.234	78.7891	615.234	78.4755	615.234	78.174	615.234	77.9442	615.234	77.4289	615.234	77.3818	615.234	76.5798	615.234	76.832	615.234	75.6908	615.234	76.3469	615.234	74.8782	615.234	75.9744	615.234	74.2986	615.234	75.7412	615.234	74.0754	615.234	75.6429	615.234	74.2063	615.234	75.6494	615.234	74.5651	615.234	75.7189	615.234	74.9956	615.234	75.8096	615.234	75.3839	615.234	75.883	615.234	75.6715	615.234	75.9043	615.234	75.8419
637.207	78.6898	637.207	78.6595	637.207	78.6669	637.207	78.5807	637.207	78.5925	637.207	78.4607	637.207	78.4738	637.207	78.3016	637.207	78.3181	637.207	78.0928	637.207	78.1243	637.207	77.8083	637.207	77.8779	637.207	77.4104	637.207	77.5517	637.207	76.8592	637.207	77.1134	637.207	76.1292	637.207	76.5399	637.207	75.2371	637.207	75.8374	637.207	74.2894	637.207	75.0717	637.207	73.5317	637.207	74.3955	637.207	73.2743	637.207	74.0225	637.207	73.605	637.207	74.0832	637.207	74.2678	637.207	74.4859	637.207	74.9279	637.207	74.9916	637.207	75.3766	637.207	75.3833	637.207	75.5302
659.912	78.7403	659.912	78.6956	659.912	78.6649	659.912	78.5284	659.912	78.4929	659.912	78.257	659.912	78.2657	659.912	77.9147	659.912	78.0315	659.912	77.5378	659.912	77.8269	659.912	77.148	659.912	77.6561	659.912	76.7372	659.912	77.4847	659.912	76.2648	659.912	77.251	659.912	75.6745	659.912	76.8888	659.912	74.9226	659.912	76.349	659.912	74.02	659.912	75.6208	659.912	73.09	659.912	74.762	659.912	72.4059	659.912	73.932	659.912	72.2535	659.912	73.3726	659.912	72.6196	659.912	73.2449	659.912	73.1852	659.912	73.4506	659.912	73.637	659.912	73.7198	659.912	73.8193
683.35	80.1258	683.35	80.1218	683.35	80.037	683.35	80.0276	683.35	79.8557	683.35	79.8452	683.35	79.5871	683.35	79.5725	683.35	79.2407	683.35	79.2001	683.35	78.8273	683.35	78.7109	683.35	78.3555	683.35	78.0829	683.35	77.8287	683.35	77.2962	683.35	77.2481	683.35	76.3487	683.35	76.6219	683.35	75.2885	683.35	75.9832	683.35	74.2675	683.35	75.4084	683.35	73.5715	683.35	75.0161	683.35	73.4765	683.35	74.9135	683.35	73.9569	683.35	75.1083	683.35	74.7017	683.35	75.4831	683.35	75.4085	683.35	75.8682	683.35	75.9113	683.35	76.1202	683.35	76.1488
706.787	79.3904	706.787	79.3353	706.787	79.3724	706.787	79.2213	706.787	79.2911	706.787	79.0809	706.787	79.1734	706.787	78.9468	706.787	79.047	706.787	78.8264	706.787	78.9184	706.787	78.6844	706.787	78.7571	706.787	78.4474	706.787	78.4983	706.787	78.0249	706.787	78.0596	706.787	77.3349	706.787	77.3633	706.787	76.3311	706.787	76.3626	706.787	75.0618	706.787	75.0991	706.787	73.8081	706.787	73.8408	706.787	73.185	706.787	73.1929	706.787	73.6137	706.787	73.5958	706.787	74.6671	706.787	74.6427	706.787	75.6977	706.787	75.679	706.787	76.3797	706.787	76.3701	706.787	76.6106
731.689	79.2981	731.689	79.2847	731.689	79.1957	731.689	79.1698	731.689	78.9987	731.689	78.9969	731.689	78.7628	731.689	78.821	731.689	78.561	731.689	78.6789	731.689	78.4441	731.689	78.5576	731.689	78.3976	731.689	78.3847	731.689	78.3333	731.689	78.0479	731.689	78.1225	731.689	77.4217	731.689	77.6357	731.689	76.3867	731.689	76.7673	731.689	74.8601	731.689	75.4679	731.689	72.9373	731.689	73.8674	731.689	71.3749	731.689	72.5869	731.689	71.5775	731.689	72.6203	731.689	73.1951	731.689	73.8178	731.689	74.805	731.689	75.1293	731.689	75.8493	731.689	75.9885	731.689	76.2408
758.057	79.6929	758.057	79.6511	758.057	79.5598	758.057	79.4643	758.057	79.2683	758.057	79.2037	758.057	78.8872	758.057	78.9667	758.057	78.535	758.057	78.8332	758.057	78.3373	758.057	78.805	758.057	78.337	758.057	78.7852	758.057	78.4386	758.057	78.6192	758.057	78.458	758.057	78.1459	758.057	78.2068	758.057	77.218	758.057	77.5291	758.057	75.7079	758.057	76.3015	758.057	73.5802	758.057	74.4719	758.057	71.3483	758.057	72.3419	758.057	70.8496	758.057	71.273	758.057	72.5003	758.057	72.3461	758.057	74.3199	758.057	74.0824	758.057	75.4481	758.057	75.3105	758.057	75.7756
784.424	80.0918	784.424	79.9873	784.424	79.9607	784.424	79.6673	784.424	79.6074	784.424	79.1966	784.424	79.0882	784.424	78.704	784.424	78.5256	784.424	78.3648	784.424	78.1065	784.424	78.296	784.424	77.9846	784.424	78.433	784.424	78.1292	784.424	78.5579	784.424	78.3224	784.424	78.4291	784.424	78.3047	784.424	77.8463	784.424	77.8656	784.424	76.6347	784.424	76.8359	784.424	74.6233	784.424	75.0606	784.424	71.8049	784.424	72.4945	784.424	69.5533	784.424	70.0344	784.424	70.6602	784.424	70.3725	784.424	72.9824	784.424	72.5767	784.424	74.4667	784.424	74.2403	784.424	74.8785
812.256	80.5648	812.256	80.4194	812.256	80.4615	812.256	80.0384	812.256	80.1008	812.256	79.4549	812.256	79.4879	812.256	78.7652	812.256	78.6814	812.256	78.1735	812.256	77.8587	812.256	77.9367	812.256	77.3302	812.256	78.129	812.256	77.3212	812.256	78.5117	812.256	77.6764	812.256	78.7318	812.256	77.9939	812.256	78.509	812.256	77.9308	812.256	77.6397	812.256	77.263	812.256	75.9336	812.256	75.8187	812.256	73.2002	812.256	73.4632	812.256	69.7516	812.256	70.4916	812.256	68.6893	812.256	69.211	812.256	70.9172	812.256	70.9115	812.256	72.7348	812.256	72.6577	812.256	73.3078
840.82	81.0771	840.82	80.9912	840.82	80.9583	840.82	80.6812	840.82	80.6227	840.82	80.1104	840.82	80.0367	840.82	79.2615	840.82	79.1804	840.82	78.209	840.82	78.1226	840.82	77.2268	840.82	77.1393	840.82	76.7596	840.82	76.6996	840.82	76.9668	840.82	76.9867	840.82	77.4416	840.82	77.5803	840.82	77.6652	840.82	77.9477	840.82	77.3091	840.82	77.7677	840.82	76.167	840.82	76.8572	840.82	74.0633	840.82	75.0672	840.82	71.0026	840.82	72.3365	840.82	68.5115	840.82	69.4727	840.82	69.3737	840.82	69.2146	840.82	71.0735	840.82	70.794	840.82	71.6097
870.85	81.3658	870.85	81.2699	870.85	81.3176	870.85	81.0067	870.85	81.1137	870.85	80.5279	870.85	80.7112	870.85	79.7848	870.85	80.0545	870.85	78.7738	870.85	79.1126	870.85	77.6269	870.85	77.9506	870.85	76.7139	870.85	76.8413	870.85	76.4673	870.85	76.2463	870.85	76.8151	870.85	76.3418	870.85	77.2085	870.85	76.7055	870.85	77.1741	870.85	76.7985	870.85	76.4483	870.85	76.2941	870.85	74.8832	870.85	75.0363	870.85	72.5093	870.85	73.0644	870.85	70.2198	870.85	71.064	870.85	70.0554	870.85	70.5842	870.85	71.244	870.85	71.3936	870.85	71.8263
901.611	81.1565	901.611	81.093	901.611	81.1144	901.611	80.9108	901.611	80.9504	901.611	80.5709	901.611	80.6258	901.611	80.0246	901.611	80.0969	901.611	79.2433	901.611	79.345	901.611	78.27	901.611	78.4253	901.611	77.2884	901.611	77.5263	901.611	76.6181	901.611	76.9467	901.611	76.4504	901.611	76.8404	901.611	76.5665	901.611	76.9905	901.611	76.5387	901.611	77.0077	901.611	76.0358	901.611	76.5941	901.611	74.8876	901.611	75.5966	901.611	73.1447	901.611	74.0435	901.611	71.4191	901.611	72.3713	901.611	70.8994	901.611	71.5214	901.611	71.4551	901.611	71.6784	901.611	71.8509
933.105	81.5446	933.105	81.51	933.105	81.4763	933.105	81.3625	933.105	81.3043	933.105	81.0804	933.105	81.0116	933.105	80.6303	933.105	80.5606	933.105	79.9776	933.105	79.9035	933.105	79.1179	933.105	79.0175	933.105	78.1283	933.105	77.9709	933.105	77.21	933.105	76.9951	933.105	76.5983	933.105	76.4105	933.105	76.2987	933.105	76.2728	933.105	76.0072	933.105	76.2271	933.105	75.3623	933.105	75.8541	933.105	74.163	933.105	74.9411	933.105	72.5635	933.105	73.6139	933.105	71.4509	933.105	72.55	933.105	71.7682	933.105	72.5152	933.105	72.734	933.105	73.0618	933.105	73.2574
966.064	81.3752	966.064	81.2917	966.064	81.329	966.064	81.0873	966.064	81.1437	966.064	80.7625	966.064	80.8119	966.064	80.3029	966.064	80.3259	966.064	79.6879	966.064	79.6845	966.064	78.9253	966.064	78.9147	966.064	78.1018	966.064	78.1073	966.064	77.4038	966.064	77.4248	966.064	77.0042	966.064	77.0035	966.064	76.8482	966.064	76.7851	966.064	76.6447	966.064	76.5103	966.064	76.0802	966.064	75.8902	966.064	74.9706	966.064	74.7506	966.064	73.3831	966.064	73.1827	966.064	71.9273	966.064	71.8502	966.064	71.5871	966.064	71.6637	966.064	72.1375	966.064	72.2256	966.064	72.4993
999.756	81.5302	999.756	81.4865	999.756	81.4316	999.756	81.2913	999.756	81.1957	999.756	80.9315	999.756	80.8175	999.756	80.3899	999.756	80.2778	999.756	79.6567	999.756	79.5525	999.756	78.7641	999.756	78.6442	999.756	77.8405	999.756	77.6382	999.756	77.1165	999.756	76.74	999.756	76.7539	999.756	76.1737	999.756	76.6168	999.756	75.9235	999.756	76.3565	999.756	75.6849	999.756	75.6737	999.756	75.1229	999.756	74.4657	999.756	74.0856	999.756	72.9993	999.756	72.7839	999.756	72.1153	999.756	71.9832	999.756	72.388	999.756	72.272	999.756	73.0808	999.756	73.007	999.756	73.3652
1,034.91	81.2233	1,034.91	81.1554	1,034.91	81.1564	1,034.91	80.968	1,034.91	80.9454	1,034.91	80.6735	1,034.91	80.585	1,034.91	80.2683	1,034.91	80.0706	1,034.91	79.7295	1,034.91	79.4014	1,034.91	79.0356	1,034.91	78.5978	1,034.91	78.2102	1,034.91	77.7239	1,034.91	77.3604	1,034.91	76.8877	1,034.91	76.6431	1,034.91	76.1763	1,034.91	76.109	1,034.91	75.5534	1,034.91	75.5854	1,034.91	74.844	1,034.91	74.7923	1,034.91	73.8465	1,034.91	73.5719	1,034.91	72.5003	1,034.91	72.1582	1,034.91	71.1512	1,034.91	71.3986	1,034.91	70.6837	1,034.91	71.7992	1,034.91	71.3878	1,034.91	72.5365	1,034.91	72.3414	1,034.91	72.7925
1,071.53	80.9568	1,071.53	80.9208	1,071.53	80.8534	1,071.53	80.7458	1,071.53	80.6122	1,071.53	80.4337	1,071.53	80.2312	1,071.53	79.9807	1,071.53	79.7027	1,071.53	79.3749	1,071.53	79.0272	1,071.53	78.6134	1,071.53	78.2457	1,071.53	77.7435	1,071.53	77.4666	1,071.53	76.8992	1,071.53	76.8293	1,071.53	76.2424	1,071.53	76.3687	1,071.53	75.7717	1,071.53	75.9142	1,071.53	75.2298	1,071.53	75.1663	1,071.53	74.2752	1,071.53	73.8398	1,071.53	72.7368	1,071.53	71.8196	1,071.53	71.0444	1,071.53	69.7352	1,071.53	70.6456	1,071.53	69.6116	1,071.53	71.8255	1,071.53	71.3317	1,071.53	73.0207	1,071.53	72.8289	1,071.53	73.4114
1,109.62	80.7672	1,109.62	80.6867	1,109.62	80.6985	1,109.62	80.4591	1,109.62	80.4729	1,109.62	80.0777	1,109.62	80.0797	1,109.62	79.5299	1,109.62	79.5052	1,109.62	78.8178	1,109.62	78.7439	1,109.62	77.9939	1,109.62	77.8374	1,109.62	77.1929	1,109.62	76.9393	1,109.62	76.5868	1,109.62	76.3135	1,109.62	76.2226	1,109.62	76.0992	1,109.62	75.912	1,109.62	76.0559	1,109.62	75.3443	1,109.62	75.7281	1,109.62	74.2518	1,109.62	74.7168	1,109.62	72.5331	1,109.62	72.7583	1,109.62	70.6153	1,109.62	70.0514	1,109.62	69.9935	1,109.62	68.7832	1,109.62	71.1457	1,109.62	70.4601	1,109.62	72.4249	1,109.62	72.2118	1,109.62	72.8694
1,148.44	80.8743	1,148.44	80.7399	1,148.44	80.8542	1,148.44	80.4572	1,148.44	80.6722	1,148.44	80.0269	1,148.44	80.3145	1,148.44	79.443	1,148.44	79.7547	1,148.44	78.7124	1,148.44	78.9686	1,148.44	77.8951	1,148.44	77.9872	1,148.44	77.1295	1,148.44	76.9832	1,148.44	76.5619	1,148.44	76.2861	1,148.44	76.1767	1,148.44	76.0941	1,148.44	75.7388	1,148.44	76.1416	1,148.44	74.9304	1,148.44	75.9215	1,148.44	73.4852	1,148.44	75.0119	1,148.44	71.3185	1,148.44	73.1117	1,148.44	69.1734	1,148.44	70.2231	1,148.44	69.2591	1,148.44	68.3121	1,148.44	71.1271	1,148.44	69.9805	1,148.44	72.5772	1,148.44	72.0551	1,148.44	72.9359
1,189.45	81.2452	1,189.45	81.0899	1,189.45	81.2281	1,189.45	80.7737	1,189.45	81.0382	1,189.45	80.3137	1,189.45	80.6711	1,189.45	79.708	1,189.45	80.1026	1,189.45	78.9215	1,189.45	79.295	1,189.45	77.9239	1,189.45	78.2412	1,189.45	76.7954	1,189.45	77.0596	1,189.45	75.8362	1,189.45	76.0888	1,189.45	75.3903	1,189.45	75.6929	1,189.45	75.3195	1,189.45	75.7382	1,189.45	75.0309	1,189.45	75.6515	1,189.45	73.9693	1,189.45	74.9135	1,189.45	71.7829	1,189.45	73.1843	1,189.45	68.8337	1,189.45	70.4539	1,189.45	68.3596	1,189.45	68.5233	1,189.45	70.7753	1,189.45	70.0134	1,189.45	72.5466	1,189.45	72.0696	1,189.45	72.9717
1,231.2	81.458	1,231.2	81.3045	1,231.2	81.4419	1,231.2	80.9948	1,231.2	81.2618	1,231.2	80.5451	1,231.2	80.9212	1,231.2	79.9324	1,231.2	80.3862	1,231.2	79.0809	1,231.2	79.5789	1,231.2	77.9217	1,231.2	78.4274	1,231.2	76.5525	1,231.2	76.9943	1,231.2	75.4493	1,231.2	75.6914	1,231.2	75.1827	1,231.2	75.1813	1,231.2	75.4603	1,231.2	75.4191	1,231.2	75.4119	1,231.2	75.564	1,231.2	74.3904	1,231.2	74.9166	1,231.2	71.9138	1,231.2	73.0486	1,231.2	67.8049	1,231.2	69.8175	1,231.2	66.6271	1,231.2	67.6264	1,231.2	70.259	1,231.2	69.9763	1,231.2	72.5959	1,231.2	72.3596	1,231.2	73.238
1,274.41	81.3422	1,274.41	81.2515	1,274.41	81.2544	1,274.41	80.981	1,274.41	81.0242	1,274.41	80.5522	1,274.41	80.6885	1,274.41	79.9719	1,274.41	80.2229	1,274.41	79.2035	1,274.41	79.5194	1,274.41	78.1946	1,274.41	78.4478	1,274.41	76.9849	1,274.41	76.9957	1,274.41	75.8733	1,274.41	75.5175	1,274.41	75.3442	1,274.41	74.8137	1,274.41	75.3936	1,274.41	75.0718	1,274.41	75.3435	1,274.41	75.36	1,274.41	74.4889	1,274.41	74.8351	1,274.41	72.239	1,274.41	73.0197	1,274.41	67.9907	1,274.41	69.7245	1,274.41	65.3861	1,274.41	67.4887	1,274.41	69.703	1,274.41	70.1499	1,274.41	72.6062	1,274.41	72.6631	1,274.41	73.4934
1,319.82	81.1389	1,319.82	81.0422	1,319.82	81.0309	1,319.82	80.7613	1,319.82	80.7439	1,319.82	80.3407	1,319.82	80.3356	1,319.82	79.8019	1,319.82	79.836	1,319.82	79.0998	1,319.82	79.1814	1,319.82	78.1404	1,319.82	78.2253	1,319.82	76.8984	1,319.82	76.8613	1,319.82	75.6399	1,319.82	75.2838	1,319.82	74.9922	1,319.82	74.3068	1,319.82	75.143	1,319.82	74.5267	1,319.82	75.3217	1,319.82	75.0301	1,319.82	74.6868	1,319.82	74.6986	1,319.82	72.6146	1,319.82	72.8516	1,319.82	68.395	1,319.82	68.7916	1,319.82	64.543	1,319.82	64.681	1,319.82	68.8836	1,319.82	68.8583	1,319.82	72.0678	1,319.82	72.0745	1,319.82	73.0371
1,365.97	80.6869	1,365.97	80.5672	1,365.97	80.5427	1,365.97	80.2336	1,365.97	80.1768	1,365.97	79.7939	1,365.97	79.7042	1,365.97	79.3172	1,365.97	79.2219	1,365.97	78.7263	1,365.97	78.6795	1,365.97	77.8157	1,365.97	77.8702	1,365.97	76.4214	1,365.97	76.5793	1,365.97	74.7422	1,365.97	74.8499	1,365.97	73.7621	1,365.97	73.4735	1,365.97	74.1649	1,365.97	73.5356	1,365.97	74.8002	1,365.97	74.2351	1,365.97	74.4848	1,365.97	74.1359	1,365.97	72.5713	1,365.97	72.4212	1,365.97	68.2513	1,365.97	68.137	1,365.97	62.7227	1,365.97	62.0237	1,365.97	67.3682	1,365.97	67.3121	1,365.97	70.9354	1,365.97	70.995	1,365.97	72.006
1,414.31	80.5387	1,414.31	80.3748	1,414.31	80.3851	1,414.31	79.9537	1,414.31	79.9544	1,414.31	79.41	1,414.31	79.389	1,414.31	78.8634	1,414.31	78.8564	1,414.31	78.2728	1,414.31	78.3652	1,414.31	77.4079	1,414.31	77.6857	1,414.31	76.0257	1,414.31	76.5166	1,414.31	74.2152	1,414.31	74.7685	1,414.31	72.9916	1,414.31	73.0874	1,414.31	73.3979	1,414.31	72.8551	1,414.31	74.2151	1,414.31	73.6171	1,414.31	74.0393	1,414.31	73.7304	1,414.31	72.162	1,414.31	72.2983	1,414.31	67.6115	1,414.31	68.4106	1,414.31	60.9798	1,414.31	60.8117	1,414.31	66.8005	1,414.31	65.3096	1,414.31	70.4854	1,414.31	69.9275	1,414.31	71.3612
1,464.11	80.7684	1,464.11	80.4983	1,464.11	80.6824	1,464.11	79.9501	1,464.11	80.2211	1,464.11	79.2541	1,464.11	79.4818	1,464.11	78.5772	1,464.11	78.7082	1,464.11	77.9713	1,464.11	78.0969	1,464.11	77.2163	1,464.11	77.4901	1,464.11	75.9392	1,464.11	76.4635	1,464.11	73.9493	1,464.11	74.7135	1,464.11	72.0302	1,464.11	72.6652	1,464.11	72.1977	1,464.11	72.1641	1,464.11	73.5216	1,464.11	73.2628	1,464.11	73.8531	1,464.11	73.7567	1,464.11	72.3213	1,464.11	72.5592	1,464.11	67.8309	1,464.11	68.7832	1,464.11	57.5403	1,464.11	60.3402	1,464.11	65.6736	1,464.11	64.4351	1,464.11	70.0902	1,464.11	69.5417	1,464.11	71.0775
1,515.38	81.072	1,515.38	80.8265	1,515.38	80.9727	1,515.38	80.2583	1,515.38	80.5069	1,515.38	79.4469	1,515.38	79.7071	1,515.38	78.6151	1,515.38	78.7624	1,515.38	77.966	1,515.38	77.9616	1,515.38	77.318	1,515.38	77.3152	1,515.38	76.1697	1,515.38	76.3976	1,515.38	74.1135	1,515.38	74.7512	1,515.38	71.6205	1,515.38	72.5428	1,515.38	71.4333	1,515.38	71.7305	1,515.38	73.2134	1,515.38	73.0588	1,515.38	73.9648	1,515.38	73.9248	1,515.38	72.7155	1,515.38	72.9939	1,515.38	68.4597	1,515.38	69.2869	1,515.38	55.0643	1,515.38	59.3599	1,515.38	64.5947	1,515.38	64.5865	1,515.38	69.9997	1,515.38	70.0056	1,515.38	71.3666
1,568.85	80.683	1,568.85	80.6536	1,568.85	80.4721	1,568.85	80.2816	1,568.85	80.009	1,568.85	79.4923	1,568.85	79.2441	1,568.85	78.4769	1,568.85	78.3037	1,568.85	77.6926	1,568.85	77.5195	1,568.85	77.2359	1,568.85	76.9628	1,568.85	76.504	1,568.85	76.1393	1,568.85	74.7874	1,568.85	74.4169	1,568.85	71.8602	1,568.85	71.6661	1,568.85	70.2543	1,568.85	70.3274	1,568.85	72.4267	1,568.85	72.3375	1,568.85	73.9767	1,568.85	73.841	1,568.85	73.3461	1,568.85	73.3	1,568.85	69.7776	1,568.85	69.8003	1,568.85	58.2312	1,568.85	57.7084	1,568.85	63.8582	1,568.85	64.1693	1,568.85	70.4514	1,568.85	70.5674	1,568.85	72.0706
1,624.51	80.4914	1,624.51	80.419	1,624.51	80.457	1,624.51	80.1083	1,624.51	80.1501	1,624.51	79.3112	1,624.51	79.2855	1,624.51	78.0155	1,624.51	77.8148	1,624.51	76.7274	1,624.51	76.29	1,624.51	76.114	1,624.51	75.6057	1,624.51	75.8241	1,624.51	75.4174	1,624.51	74.8046	1,624.51	74.4365	1,624.51	72.2834	1,624.51	71.6893	1,624.51	69.238	1,624.51	67.6075	1,624.51	71.0437	1,624.51	69.4943	1,624.51	73.773	1,624.51	72.8954	1,624.51	74.2871	1,624.51	73.7044	1,624.51	72.2116	1,624.51	71.6394	1,624.51	65.7807	1,624.51	64.8712	1,624.51	58.8574	1,624.51	61.4294	1,624.51	69.134	1,624.51	69.5202	1,624.51	71.389
1,681.64	80.0795	1,681.64	80.083	1,681.64	80.1088	1,681.64	79.9066	1,681.64	80.061	1,681.64	79.2284	1,681.64	79.5824	1,681.64	77.8913	1,681.64	78.3953	1,681.64	76.1707	1,681.64	76.592	1,681.64	74.9971	1,681.64	74.9589	1,681.64	74.8267	1,681.64	74.3893	1,681.64	74.4723	1,681.64	74.0594	1,681.64	72.6226	1,681.64	72.4957	1,681.64	68.6298	1,681.64	68.5526	1,681.64	68.0844	1,681.64	65.5422	1,681.64	72.147	1,681.64	70.4074	1,681.64	73.8235	1,681.64	72.8389	1,681.64	72.8206	1,681.64	72.2415	1,681.64	68.1391	1,681.64	68.3146	1,681.64	52.3465	1,681.64	59.3543	1,681.64	66.6428	1,681.64	65.9928	1,681.64	69.1824
1,740.97	80.0142	1,740.97	79.7807	1,740.97	79.9782	1,740.97	79.395	1,740.97	79.6603	1,740.97	78.8354	1,740.97	79.0704	1,740.97	77.862	1,740.97	78.1188	1,740.97	76.2955	1,740.97	76.7699	1,740.97	74.501	1,740.97	75.3588	1,740.97	73.6194	1,740.97	74.5784	1,740.97	73.5707	1,740.97	74.302	1,740.97	72.7081	1,740.97	73.4075	1,740.97	69.7918	1,740.97	70.8516	1,740.97	66.1738	1,740.97	66.9284	1,740.97	69.4661	1,740.97	68.459	1,740.97	72.2114	1,740.97	71.3898	1,740.97	72.0091	1,740.97	71.8326	1,740.97	68.2986	1,740.97	69.6706	1,740.97	56.6056	1,740.97	62.7884	1,740.97	63.389	1,740.97	58.4896	1,740.97	65.5594
1,802.49	80.471	1,802.49	80.2348	1,802.49	80.2788	1,802.49	79.6609	1,802.49	79.8223	1,802.49	78.964	1,802.49	79.2436	1,802.49	78.1182	1,802.49	78.4097	1,802.49	76.8406	1,802.49	77.0679	1,802.49	75.0369	1,802.49	75.3199	1,802.49	73.3726	1,802.49	74.0787	1,802.49	72.7282	1,802.49	73.8584	1,802.49	72.2747	1,802.49	73.4436	1,802.49	70.5141	1,802.49	71.6263	1,802.49	67.0196	1,802.49	68.4071	1,802.49	67.0288	1,802.49	68.4221	1,802.49	70.1096	1,802.49	71.0507	1,802.49	70.9227	1,802.49	71.7123	1,802.49	68.9709	1,802.49	69.6691	1,802.49	62.3964	1,802.49	63.0467	1,802.49	49.3203	1,802.49	53.5902	1,802.49	60.4033
1,866.21	80.0679	1,866.21	79.8383	1,866.21	79.7524	1,866.21	79.2726	1,866.21	79.0338	1,866.21	78.6724	1,866.21	78.2584	1,866.21	78.0211	1,866.21	77.52	1,866.21	76.9917	1,866.21	76.5102	1,866.21	75.3897	1,866.21	74.9631	1,866.21	73.5789	1,866.21	73.1966	1,866.21	72.4181	1,866.21	72.1288	1,866.21	71.8268	1,866.21	71.6639	1,866.21	70.5084	1,866.21	70.4071	1,866.21	67.7617	1,866.21	67.6909	1,866.21	66.6713	1,866.21	66.8656	1,866.21	69.1055	1,866.21	69.3511	1,866.21	70.2733	1,866.21	70.3298	1,866.21	68.8227	1,866.21	68.5734	1,866.21	63.0224	1,866.21	61.9102	1,866.21	57.532	1,866.21	56.1015	1,866.21	62.204
1,932.13	79.5571	1,932.13	79.2573	1,932.13	79.306	1,932.13	78.5607	1,932.13	78.6105	1,932.13	77.7565	1,932.13	77.7339	1,932.13	76.9773	1,932.13	76.8298	1,932.13	76.0518	1,932.13	75.7578	1,932.13	74.7676	1,932.13	74.2615	1,932.13	73.2635	1,932.13	72.3799	1,932.13	72.0972	1,932.13	70.808	1,932.13	71.4106	1,932.13	70.1103	1,932.13	70.3283	1,932.13	69.261	1,932.13	68.0646	1,932.13	66.9611	1,932.13	65.8808	1,932.13	63.9427	1,932.13	66.8913	1,932.13	65.4371	1,932.13	68.0916	1,932.13	67.8216	1,932.13	66.7403	1,932.13	67.5391	1,932.13	60.8646	1,932.13	62.885	1,932.13	56.8414	1,932.13	48.4842	1,932.13	59.3438
2,000.24	79.7543	2,000.24	79.4932	2,000.24	79.6206	2,000.24	78.8477	2,000.24	79.1321	2,000.24	77.9068	2,000.24	78.3761	2,000.24	76.8307	2,000.24	77.4699	2,000.24	75.6741	2,000.24	76.4454	2,000.24	74.282	2,000.24	75.1862	2,000.24	72.5733	2,000.24	73.6249	2,000.24	70.9852	2,000.24	72.0377	2,000.24	70.1509	2,000.24	70.9195	2,000.24	69.5576	2,000.24	70.1105	2,000.24	68.2301	2,000.24	68.8806	2,000.24	66.7286	2,000.24	67.4597	2,000.24	67.0535	2,000.24	67.5368	2,000.24	67.7977	2,000.24	68.4535	2,000.24	66.585	2,000.24	67.8783	2,000.24	61.7007	2,000.24	64.1611	2,000.24	53.1083	2,000.24	55.382	2,000.24	54.6239
2,070.56	80.3297	2,070.56	80.1547	2,070.56	80.1655	2,070.56	79.5977	2,070.56	79.6743	2,070.56	78.6541	2,070.56	78.8799	2,070.56	77.4519	2,070.56	77.8847	2,070.56	76.1742	2,070.56	76.7928	2,070.56	74.8519	2,070.56	75.5787	2,070.56	73.3771	2,070.56	74.1718	2,070.56	71.7785	2,070.56	72.6958	2,070.56	70.2988	2,070.56	71.4647	2,070.56	68.9243	2,070.56	70.4566	2,070.56	67.3282	2,070.56	69.2826	2,070.56	66.1964	2,070.56	68.3342	2,070.56	66.9671	2,070.56	68.7081	2,070.56	68.067	2,070.56	69.366	2,070.56	67.4713	2,070.56	68.4667	2,070.56	64.1415	2,070.56	64.8239	2,070.56	58.9851	2,070.56	59.0238	2,070.56	58.2619
2,143.8	80.2307	2,143.8	80.1882	2,143.8	80.0157	2,143.8	79.8271	2,143.8	79.4701	2,143.8	79.0678	2,143.8	78.5158	2,143.8	77.9898	2,143.8	77.2669	2,143.8	76.7899	2,143.8	75.9786	2,143.8	75.5588	2,143.8	74.7519	2,143.8	74.2438	2,143.8	73.4619	2,143.8	72.8795	2,143.8	72.0652	2,143.8	71.629	2,143.8	70.7612	2,143.8	70.4215	2,143.8	69.6109	2,143.8	68.9089	2,143.8	68.3408	2,143.8	67.4322	2,143.8	67.3773	2,143.8	67.5191	2,143.8	67.9193	2,143.8	68.3643	2,143.8	68.9062	2,143.8	67.8379	2,143.8	68.3948	2,143.8	65.0429	2,143.8	65.2928	2,143.8	61.1818	2,143.8	60.4393	2,143.8	59.8885
2,219.24	79.6403	2,219.24	79.5763	2,219.24	79.5054	2,219.24	79.2286	2,219.24	79.0712	2,219.24	78.4761	2,219.24	78.191	2,219.24	77.3532	2,219.24	76.9011	2,219.24	76.0327	2,219.24	75.436	2,219.24	74.6871	2,219.24	74.0298	2,219.24	73.4282	2,219.24	72.7303	2,219.24	72.3345	2,219.24	71.4403	2,219.24	71.4206	2,219.24	70.1258	2,219.24	70.5303	2,219.24	68.8251	2,219.24	69.4534	2,219.24	67.5141	2,219.24	68.4177	2,219.24	66.5515	2,219.24	68.0815	2,219.24	66.9606	2,219.24	68.1339	2,219.24	68.0067	2,219.24	67.4561	2,219.24	67.7507	2,219.24	65.5551	2,219.24	65.2874	2,219.24	63.4271	2,219.24	61.9661	2,219.24	62.0719
2,297.61	80.6376	2,297.61	80.3649	2,297.61	80.5804	2,297.61	79.7717	2,297.61	80.2044	2,297.61	78.8902	2,297.61	79.5278	2,297.61	77.7437	2,297.61	78.5688	2,297.61	76.3191	2,297.61	77.3228	2,297.61	74.635	2,297.61	75.8008	2,297.61	72.8881	2,297.61	74.1497	2,297.61	71.4271	2,297.61	72.6246	2,297.61	70.3012	2,297.61	71.3415	2,297.61	69.0938	2,297.61	70.1608	2,297.61	67.7249	2,297.61	68.9637	2,297.61	67.1661	2,297.61	68.1337	2,297.61	67.6915	2,297.61	68.2246	2,297.61	67.7916	2,297.61	68.5753	2,297.61	66.5086	2,297.61	68.0203	2,297.61	64.7134	2,297.61	66.1173	2,297.61	64.6457	2,297.61	64.2908	2,297.61	64.5927
2,378.17	81.7008	2,378.17	81.4891	2,378.17	81.5217	2,378.17	80.9329	2,378.17	80.995	2,378.17	80.1303	2,378.17	80.2153	2,378.17	79.1397	2,378.17	79.233	2,378.17	77.9046	2,378.17	77.9991	2,378.17	76.2954	2,378.17	76.4699	2,378.17	74.3203	2,378.17	74.8024	2,378.17	72.401	2,378.17	73.3404	2,378.17	71.0653	2,378.17	72.1843	2,378.17	69.9313	2,378.17	70.9166	2,378.17	68.2349	2,378.17	69.2773	2,378.17	66.881	2,378.17	68.2811	2,378.17	67.6441	2,378.17	68.8807	2,378.17	68.2444	2,378.17	69.418	2,378.17	66.7593	2,378.17	68.4633	2,378.17	64.0565	2,378.17	66.2535	2,378.17	65.0783	2,378.17	65.7473	2,378.17	66.4095
2,462.4	81.5774	2,462.4	81.4204	2,462.4	81.2932	2,462.4	80.8715	2,462.4	80.607	2,462.4	80.0507	2,462.4	79.6591	2,462.4	79.0933	2,462.4	78.6057	2,462.4	78.0165	2,462.4	77.4542	2,462.4	76.6929	2,462.4	76.0715	2,462.4	75.0667	2,462.4	74.423	2,462.4	73.4045	2,462.4	72.7908	2,462.4	72.1573	2,462.4	71.5842	2,462.4	71.1523	2,462.4	70.5651	2,462.4	69.6081	2,462.4	69.0412	2,462.4	67.8767	2,462.4	67.5703	2,462.4	68.0792	2,462.4	68.2321	2,462.4	68.896	2,462.4	69.3191	2,462.4	67.8325	2,462.4	68.421	2,462.4	64.8049	2,462.4	65.2964	2,462.4	64.802	2,462.4	64.4554	2,462.4	65.9548
2,548.83	81.7439	2,548.83	81.4729	2,548.83	81.5785	2,548.83	80.791	2,548.83	80.9939	2,548.83	79.7996	2,548.83	80.0668	2,548.83	78.6744	2,548.83	78.9412	2,548.83	77.5261	2,548.83	77.7337	2,548.83	76.269	2,548.83	76.4208	2,548.83	74.7704	2,548.83	74.9176	2,548.83	73.1981	2,548.83	73.3051	2,548.83	72.0336	2,548.83	71.9285	2,548.83	71.168	2,548.83	70.8634	2,548.83	69.8078	2,548.83	69.4987	2,548.83	68.2185	2,548.83	67.9149	2,548.83	68.3781	2,548.83	68.1728	2,548.83	69.1397	2,548.83	69.4134	2,548.83	68.1094	2,548.83	68.9089	2,548.83	65.7202	2,548.83	66.0547	2,548.83	66.531	2,548.83	65.2787	2,548.83	67.2969
2,638.92	82.3821	2,638.92	82.1479	2,638.92	82.2115	2,638.92	81.4706	2,638.92	81.6242	2,638.92	80.3649	2,638.92	80.6359	2,638.92	79.0334	2,638.92	79.386	2,638.92	77.7304	2,638.92	78.0723	2,638.92	76.4382	2,638.92	76.7812	2,638.92	74.9205	2,638.92	75.4303	2,638.92	73.1848	2,638.92	73.9564	2,638.92	71.7447	2,638.92	72.5682	2,638.92	70.8489	2,638.92	71.4533	2,638.92	69.68	2,638.92	70.2145	2,638.92	68.1244	2,638.92	68.7419	2,638.92	68.238	2,638.92	68.662	2,638.92	69.1663	2,638.92	69.8046	2,638.92	68.0734	2,638.92	69.4647	2,638.92	64.71	2,638.92	66.8371	2,638.92	66.0482	2,638.92	66.1333	2,638.92	67.7601
2,731.93	82.5495	2,731.93	82.3903	2,731.93	82.3548	2,731.93	81.7972	2,731.93	81.7976	2,731.93	80.7575	2,731.93	80.843	2,731.93	79.4592	2,731.93	79.5728	2,731.93	78.1607	2,731.93	78.1635	2,731.93	76.8958	2,731.93	76.7404	2,731.93	75.4458	2,731.93	75.2898	2,731.93	73.7408	2,731.93	73.7821	2,731.93	72.2294	2,731.93	72.4089	2,731.93	71.2505	2,731.93	71.3713	2,731.93	70.03	2,731.93	70.3303	2,731.93	68.2166	2,731.93	69.1135	2,731.93	68.2722	2,731.93	69.0184	2,731.93	69.7106	2,731.93	69.9073	2,731.93	68.9934	2,731.93	69.3431	2,731.93	65.6624	2,731.93	66.2162	2,731.93	66.8232	2,731.93	65.7344	2,731.93	68.276
2,828.61	82.9762	2,828.61	82.767	2,828.61	82.8182	2,828.61	82.1617	2,828.61	82.2728	2,828.61	81.1685	2,828.61	81.3615	2,828.61	79.9277	2,828.61	80.2121	2,828.61	78.5932	2,828.61	78.9689	2,828.61	77.1903	2,828.61	77.6515	2,828.61	75.6264	2,828.61	76.1188	2,828.61	73.8668	2,828.61	74.3395	2,828.61	72.2648	2,828.61	72.7471	2,828.61	71.3298	2,828.61	71.7082	2,828.61	70.4936	2,828.61	70.5868	2,828.61	69.0791	2,828.61	69.1115	2,828.61	68.8391	2,828.61	69.5442	2,828.61	69.9597	2,828.61	71.2322	2,828.61	69.1051	2,828.61	70.9682	2,828.61	64.5056	2,828.61	67.6909	2,828.61	64.7973	2,828.61	65.9958	2,828.61	67.7258
2,928.22	82.9211	2,928.22	82.7703	2,928.22	82.779	2,928.22	82.2545	2,928.22	82.3377	2,928.22	81.3902	2,928.22	81.5218	2,928.22	80.2946	2,928.22	80.3725	2,928.22	79.0799	2,928.22	79.0736	2,928.22	77.7907	2,928.22	77.7386	2,928.22	76.3271	2,928.22	76.2611	2,928.22	74.599	2,928.22	74.5325	2,928.22	72.9512	2,928.22	72.8721	2,928.22	72.0124	2,928.22	71.9772	2,928.22	71.231	2,928.22	71.3574	2,928.22	69.5761	2,928.22	69.7233	2,928.22	68.7884	2,928.22	68.546	2,928.22	70.3624	2,928.22	70.1539	2,928.22	70.6871	2,928.22	70.5295	2,928.22	68.1295	2,928.22	67.6189	2,928.22	67.1462	2,928.22	66.38	2,928.22	68.7591
3,031.49	82.7891	3,031.49	82.5959	3,031.49	82.6912	3,031.49	82.1179	3,031.49	82.2243	3,031.49	81.3034	3,031.49	81.3796	3,031.49	80.1592	3,031.49	80.2767	3,031.49	78.8182	3,031.49	79.0016	3,031.49	77.4387	3,031.49	77.5829	3,031.49	76.0353	3,031.49	76.0806	3,031.49	74.5345	3,031.49	74.4562	3,031.49	73.0378	3,031.49	72.6655	3,031.49	71.9273	3,031.49	71.2333	3,031.49	71.0505	3,031.49	70.4322	3,031.49	69.8196	3,031.49	69.3449	3,031.49	69.4012	3,031.49	68.8075	3,031.49	70.4621	3,031.49	70.3747	3,031.49	70.2577	3,031.49	70.9414	3,031.49	67.4155	3,031.49	68.2506	3,031.49	67.4242	3,031.49	65.9167	3,031.49	68.7036
3,138.43	83.2216	3,138.43	83.004	3,138.43	83.0552	3,138.43	82.4779	3,138.43	82.4999	3,138.43	81.685	3,138.43	81.6957	3,138.43	80.6626	3,138.43	80.714	3,138.43	79.4488	3,138.43	79.4271	3,138.43	78.0594	3,138.43	77.8913	3,138.43	76.4815	3,138.43	76.4082	3,138.43	74.6423	3,138.43	74.9644	3,138.43	72.6867	3,138.43	73.2834	3,138.43	71.4396	3,138.43	71.626	3,138.43	70.7265	3,138.43	70.6365	3,138.43	69.1253	3,138.43	69.771	3,138.43	67.9814	3,138.43	68.6251	3,138.43	69.6777	3,138.43	68.9833	3,138.43	70.0972	3,138.43	69.9786	3,138.43	67.1434	3,138.43	68.5998	3,138.43	67.4244	3,138.43	66.969	3,138.43	69.0271
3,249.02	83.5667	3,249.02	83.3089	3,249.02	83.3378	3,249.02	82.6542	3,249.02	82.6924	3,249.02	81.7774	3,249.02	81.7896	3,249.02	80.7677	3,249.02	80.6812	3,249.02	79.5439	3,249.02	79.4422	3,249.02	78.127	3,249.02	78.2664	3,249.02	76.6992	3,249.02	77.0338	3,249.02	75.1626	3,249.02	75.3646	3,249.02	73.2192	3,249.02	73.2581	3,249.02	71.2273	3,249.02	71.3137	3,249.02	70.011	3,249.02	69.9034	3,249.02	69.2274	3,249.02	68.7981	3,249.02	69.0731	3,249.02	69.1115	3,249.02	70.1539	3,249.02	70.7457	3,249.02	69.9145	3,249.02	70.8939	3,249.02	66.1327	3,249.02	68.4636	3,249.02	65.4293	3,249.02	67.4024	3,249.02	68.4254
3,363.28	82.9648	3,363.28	82.804	3,363.28	82.6612	3,363.28	82.243	3,363.28	82.0652	3,363.28	81.5155	3,363.28	81.2864	3,363.28	80.6621	3,363.28	80.2708	3,363.28	79.5865	3,363.28	79.0388	3,363.28	78.3339	3,363.28	77.6987	3,363.28	76.9592	3,363.28	76.3142	3,363.28	75.4077	3,363.28	74.8413	3,363.28	73.7115	3,363.28	73.1224	3,363.28	72.1629	3,363.28	71.2677	3,363.28	70.8623	3,363.28	69.7708	3,363.28	69.3913	3,363.28	68.5769	3,363.28	69.0778	3,363.28	68.4492	3,363.28	70.814	3,363.28	70.0467	3,363.28	71.1171	3,363.28	70.3215	3,363.28	68.3493	3,363.28	67.4977	3,363.28	67.5243	3,363.28	67.2448	3,363.28	69.56
3,481.93	82.5292	3,481.93	82.3935	3,481.93	82.3555	3,481.93	81.9556	3,481.93	81.9661	3,481.93	81.3075	3,481.93	81.3779	3,481.93	80.4264	3,481.93	80.5694	3,481.93	79.3082	3,481.93	79.5217	3,481.93	78.0404	3,481.93	78.2385	3,481.93	76.5952	3,481.93	76.8576	3,481.93	74.8707	3,481.93	75.3895	3,481.93	73.0322	3,481.93	73.6604	3,481.93	71.6522	3,481.93	72.0664	3,481.93	70.5837	3,481.93	71.0325	3,481.93	68.6619	3,481.93	69.2934	3,481.93	67.5751	3,481.93	66.6998	3,481.93	69.7974	3,481.93	68.2925	3,481.93	70.5622	3,481.93	69.9938	3,481.93	67.9316	3,481.93	67.9224	3,481.93	67.6936	3,481.93	67.3777	3,481.93	70.0488
3,604.98	82.1834	3,604.98	82.1454	3,604.98	82.0364	3,604.98	81.9611	3,604.98	81.6581	3,604.98	81.5482	3,604.98	81.147	3,604.98	80.8526	3,604.98	80.4799	3,604.98	79.9136	3,604.98	79.4455	3,604.98	78.7777	3,604.98	78.1046	3,604.98	77.4294	3,604.98	76.715	3,604.98	75.7124	3,604.98	75.2194	3,604.98	73.5452	3,604.98	73.4319	3,604.98	71.6025	3,604.98	71.6498	3,604.98	70.5136	3,604.98	70.4492	3,604.98	68.6799	3,604.98	69.3907	3,604.98	65.8464	3,604.98	68.2398	3,604.98	67.6549	3,604.98	68.7746	3,604.98	69.4618	3,604.98	69.5426	3,604.98	67.1623	3,604.98	67.0139	3,604.98	67.0741	3,604.98	66.6147	3,604.98	69.5412
3,732.42	81.4964	3,732.42	81.4918	3,732.42	81.3651	3,732.42	81.3804	3,732.42	81.1896	3,732.42	81.1933	3,732.42	80.9644	3,732.42	80.7455	3,732.42	80.4172	3,732.42	79.8305	3,732.42	79.4231	3,732.42	78.6026	3,732.42	78.1604	3,732.42	77.3465	3,732.42	76.6966	3,732.42	75.9481	3,732.42	74.9549	3,732.42	74.1073	3,732.42	72.9191	3,732.42	72.1177	3,732.42	70.8007	3,732.42	70.8809	3,732.42	69.1029	3,732.42	69.8078	3,732.42	68.0275	3,732.42	67.8321	3,732.42	68.2525	3,732.42	67.4954	3,732.42	70.0776	3,732.42	68.5402	3,732.42	70.3786	3,732.42	66.6643	3,732.42	66.4387	3,732.42	66.4665	3,732.42	64.2399	3,732.42	68.1232
3,863.53	82.0331	3,863.53	81.9388	3,863.53	81.8342	3,863.53	81.7104	3,863.53	81.6126	3,863.53	81.5573	3,863.53	81.3955	3,863.53	81.1533	3,863.53	80.8393	3,863.53	80.1742	3,863.53	79.9063	3,863.53	78.7194	3,863.53	78.7208	3,863.53	77.0726	3,863.53	77.3121	3,863.53	75.4557	3,863.53	75.7279	3,863.53	73.7581	3,863.53	73.8121	3,863.53	71.8908	3,863.53	71.7405	3,863.53	70.6029	3,863.53	70.4064	3,863.53	69.8769	3,863.53	68.9941	3,863.53	68.7947	3,863.53	66.7795	3,863.53	68.9871	3,863.53	68.693	3,863.53	69.5248	3,863.53	70.3576	3,863.53	66.4945	3,863.53	67.7935	3,863.53	65.7656	3,863.53	64.7928	3,863.53	68.5384
3,999.76	81.9715	3,999.76	82.023	3,999.76	81.8785	3,999.76	82.0162	3,999.76	81.8478	3,999.76	81.8716	3,999.76	81.7204	3,999.76	81.3501	3,999.76	81.3262	3,999.76	80.4022	3,999.76	80.5203	3,999.76	78.9971	3,999.76	79.1482	3,999.76	77.1203	3,999.76	77.552	3,999.76	75.1245	3,999.76	76.0689	3,999.76	73.3409	3,999.76	74.29	3,999.76	71.6467	3,999.76	72.2365	3,999.76	70.1013	3,999.76	70.9809	3,999.76	69.0639	3,999.76	70.1809	3,999.76	68.601	3,999.76	68.4064	3,999.76	69.4571	3,999.76	68.4606	3,999.76	70.3199	3,999.76	70.4468	3,999.76	67.793	3,999.76	68.5962	3,999.76	65.7899	3,999.76	65.5348	3,999.76	68.8255
4,141.11	81.2785	4,141.11	81.3915	4,141.11	81.3869	4,141.11	81.7765	4,141.11	81.499	4,141.11	81.9908	4,141.11	81.5703	4,141.11	81.748	4,141.11	81.4154	4,141.11	81.0649	4,141.11	80.7091	4,141.11	79.907	4,141.11	79.3333	4,141.11	78.3372	4,141.11	77.3846	4,141.11	76.4728	4,141.11	75.0026	4,141.11	74.2644	4,141.11	72.5525	4,141.11	72.1429	4,141.11	70.5686	4,141.11	70.7156	4,141.11	69.0581	4,141.11	69.1687	4,141.11	67.4912	4,141.11	67.7808	4,141.11	66.6617	4,141.11	69.3309	4,141.11	69.3162	4,141.11	70.4848	4,141.11	71.1301	4,141.11	68.1939	4,141.11	68.4479	4,141.11	66.9654	4,141.11	61.9622	4,141.11	67.2792
4,286.87	81.612	4,286.87	81.8609	4,286.87	81.867	4,286.87	82.202	4,286.87	82.5616	4,286.87	82.3323	4,286.87	82.9009	4,286.87	81.942	4,286.87	82.3573	4,286.87	80.8009	4,286.87	81.0766	4,286.87	79.0967	4,286.87	79.4685	4,286.87	77.3436	4,286.87	77.9654	4,286.87	75.8063	4,286.87	76.4977	4,286.87	74.1273	4,286.87	74.3498	4,286.87	72.0062	4,286.87	71.9467	4,286.87	70.4245	4,286.87	71.3445	4,286.87	69.8839	4,286.87	71.0723	4,286.87	69.0017	4,286.87	67.9811	4,286.87	69.2186	4,286.87	66.7899	4,286.87	69.7228	4,286.87	70.242	4,286.87	66.3354	4,286.87	69.878	4,286.87	65.6465	4,286.87	67.073	4,286.87	68.5592
4,438.48	81.1118	4,438.48	81.5025	4,438.48	81.3044	4,438.48	82.3053	4,438.48	81.7376	4,438.48	82.7965	4,438.48	82.01	4,438.48	82.5022	4,438.48	81.8391	4,438.48	81.515	4,438.48	80.9287	4,438.48	79.9814	4,438.48	79.2296	4,438.48	78.0994	4,438.48	77.2162	4,438.48	76.1921	4,438.48	75.3453	4,438.48	74.1698	4,438.48	73.4834	4,438.48	71.8042	4,438.48	71.1599	4,438.48	69.2455	4,438.48	68.6407	4,438.48	66.8389	4,438.48	68.3765	4,438.48	65.5574	4,438.48	68.1796	4,438.48	67.7174	4,438.48	67.9426	4,438.48	70.4964	4,438.48	70.0374	4,438.48	69.4497	4,438.48	68.9894	4,438.48	67.1909	4,438.48	66.0876	4,438.48	69.3056
4,594.48	81.0257	4,594.48	81.5325	4,594.48	81.3396	4,594.48	82.2582	4,594.48	82.1245	4,594.48	82.6006	4,594.48	82.6131	4,594.48	82.4443	4,594.48	82.42	4,594.48	81.5903	4,594.48	81.5428	4,594.48	79.93	4,594.48	80.0749	4,594.48	77.8086	4,594.48	78.1942	4,594.48	75.3353	4,594.48	76.1388	4,594.48	72.5811	4,594.48	74.0777	4,594.48	70.4982	4,594.48	72.2776	4,594.48	69.7414	4,594.48	70.699	4,594.48	69.4515	4,594.48	68.991	4,594.48	69.2325	4,594.48	67.7992	4,594.48	70.4833	4,594.48	68.6498	4,594.48	71.328	4,594.48	70.1876	4,594.48	68.607	4,594.48	69.2541	4,594.48	67.9133	4,594.48	66.547	4,594.48	68.9389
4,757.08	81.06	4,757.08	81.4786	4,757.08	81.5209	4,757.08	82.353	4,757.08	82.4987	4,757.08	83.0013	4,757.08	83.0987	4,757.08	82.7658	4,757.08	82.7926	4,757.08	81.5753	4,757.08	81.5732	4,757.08	80.0167	4,757.08	79.814	4,757.08	78.4932	4,757.08	78.0957	4,757.08	76.8376	4,757.08	76.4088	4,757.08	74.7431	4,757.08	74.1065	4,757.08	72.0362	4,757.08	71.4238	4,757.08	69.7517	4,757.08	70.1419	4,757.08	69.0478	4,757.08	69.8518	4,757.08	67.4234	4,757.08	67.8034	4,757.08	68.2985	4,757.08	67.7048	4,757.08	70.4018	4,757.08	70.4291	4,757.08	66.9722	4,757.08	69.0317	4,757.08	65.6864	4,757.08	67.6793	4,757.08	70.2209
4,924.8	80.3043	4,924.8	80.9188	4,924.8	80.8914	4,924.8	82.2976	4,924.8	81.9015	4,924.8	83.1428	4,924.8	82.5867	4,924.8	82.9267	4,924.8	82.6013	4,924.8	81.8802	4,924.8	81.8038	4,924.8	80.0418	4,924.8	80.1511	4,924.8	77.6089	4,924.8	77.8643	4,924.8	75.5001	4,924.8	75.425	4,924.8	74.0692	4,924.8	73.2647	4,924.8	72.5747	4,924.8	71.1693	4,924.8	70.5142	4,924.8	68.7383	4,924.8	69.0318	4,924.8	67.7445	4,924.8	68.603	4,924.8	67.6521	4,924.8	68.7349	4,924.8	67.8279	4,924.8	70.9383	4,924.8	70.3168	4,924.8	70.5277	4,924.8	68.7373	4,924.8	66.6036	4,924.8	65.5091	4,924.8	69.312
5,098.39	80.4138	5,098.39	81.2989	5,098.39	80.9685	5,098.39	82.3871	5,098.39	82.3063	5,098.39	82.7591	5,098.39	83.0061	5,098.39	82.4202	5,098.39	82.6117	5,098.39	81.4187	5,098.39	81.3663	5,098.39	79.8324	5,098.39	79.7811	5,098.39	77.9999	5,098.39	78.1717	5,098.39	75.8095	5,098.39	76.2733	5,098.39	73.2637	5,098.39	74.0314	5,098.39	71.2662	5,098.39	72.0405	5,098.39	70.3696	5,098.39	70.673	5,098.39	69.9257	5,098.39	69.4993	5,098.39	69.5224	5,098.39	67.7732	5,098.39	70.7694	5,098.39	67.7052	5,098.39	72.0663	5,098.39	70.4136	5,098.39	69.8883	5,098.39	69.5927	5,098.39	68.3781	5,098.39	65.5488	5,098.39	69.1218
5,277.83	79.5873	5,277.83	80.2572	5,277.83	80.2816	5,277.83	81.7663	5,277.83	81.3986	5,277.83	82.6823	5,277.83	81.9604	5,277.83	82.4061	5,277.83	81.6395	5,277.83	81.2435	5,277.83	80.5948	5,277.83	79.6536	5,277.83	78.8394	5,277.83	77.8774	5,277.83	76.6244	5,277.83	76.1684	5,277.83	74.6463	5,277.83	74.3248	5,277.83	72.9289	5,277.83	71.9499	5,277.83	70.6032	5,277.83	69.42	5,277.83	68.0079	5,277.83	68.4836	5,277.83	68.0739	5,277.83	67.6656	5,277.83	67.9379	5,277.83	68.4044	5,277.83	67.448	5,277.83	70.8426	5,277.83	70.2936	5,277.83	69.208	5,277.83	68.4618	5,277.83	64.814	5,277.83	63.3923	5,277.83	68.2128
5,463.87	80.251	5,463.87	80.707	5,463.87	80.6254	5,463.87	81.4777	5,463.87	81.3876	5,463.87	81.8384	5,463.87	81.715	5,463.87	81.5649	5,463.87	81.353	5,463.87	80.6447	5,463.87	80.3609	5,463.87	78.94	5,463.87	78.7386	5,463.87	76.8841	5,463.87	76.9413	5,463.87	74.8283	5,463.87	75.2913	5,463.87	72.9271	5,463.87	73.4396	5,463.87	71.187	5,463.87	71.5347	5,463.87	69.2343	5,463.87	69.5895	5,463.87	67.9448	5,463.87	67.8633	5,463.87	67.0017	5,463.87	67.2917	5,463.87	67.0452	5,463.87	67.4756	5,463.87	70.1926	5,463.87	70.1508	5,463.87	69.5421	5,463.87	70.3217	5,463.87	65.7038	5,463.87	65.4645	5,463.87	66.3627
5,656.49	79.8708	5,656.49	80.4079	5,656.49	80.1068	5,656.49	81.1729	5,656.49	80.9112	5,656.49	81.4604	5,656.49	81.311	5,656.49	81.0313	5,656.49	80.7854	5,656.49	79.948	5,656.49	79.5358	5,656.49	78.5666	5,656.49	78.003	5,656.49	77.0856	5,656.49	76.3643	5,656.49	75.2826	5,656.49	74.4115	5,656.49	73.2358	5,656.49	72.2897	5,656.49	70.9059	5,656.49	70.2642	5,656.49	68.4986	5,656.49	68.4389	5,656.49	67.1971	5,656.49	67.5733	5,656.49	65.7876	5,656.49	66.3871	5,656.49	66.2388	5,656.49	65.7801	5,656.49	70.0215	5,656.49	69.2102	5,656.49	69.3393	5,656.49	69.0137	5,656.49	65.7778	5,656.49	65.6885	5,656.49	67.0442
5,856.45	80.0199	5,856.45	80.0261	5,856.45	80.4126	5,856.45	80.5709	5,856.45	80.8451	5,856.45	80.8824	5,856.45	80.9349	5,856.45	80.4906	5,856.45	80.5405	5,856.45	79.6581	5,856.45	79.7509	5,856.45	78.3176	5,856.45	78.3409	5,856.45	76.5608	5,856.45	76.444	5,856.45	74.686	5,856.45	74.3772	5,856.45	72.9031	5,856.45	72.188	5,856.45	71.1546	5,856.45	69.988	5,856.45	68.643	5,856.45	67.2582	5,856.45	66.0108	5,856.45	65.1569	5,856.45	64.1395	5,856.45	65.0784	5,856.45	64.3115	5,856.45	64.3845	5,856.45	69.304	5,856.45	67.1472	5,856.45	69.8327	5,856.45	67.364	5,856.45	66.2898	5,856.45	63.4334	5,856.45	66.1015
6,062.99	80.6383	6,062.99	80.942	6,062.99	80.5734	6,062.99	81.2547	6,062.99	80.6807	6,062.99	81.1778	6,062.99	80.3606	6,062.99	80.7116	6,062.99	79.5565	6,062.99	79.8549	6,062.99	78.6213	6,062.99	78.5132	6,062.99	77.2926	6,062.99	76.6667	6,062.99	75.8989	6,062.99	74.1582	6,062.99	74.2401	6,062.99	71.5375	6,062.99	71.824	6,062.99	69.3835	6,062.99	69.4386	6,062.99	67.4386	6,062.99	67.4823	6,062.99	66.4804	6,062.99	65.5716	6,062.99	65.6377	6,062.99	62.5298	6,062.99	63.7616	6,062.99	62.1655	6,062.99	67.8748	6,062.99	67.4911	6,062.99	68.8523	6,062.99	67.5836	6,062.99	67.0816	6,062.99	63.6373	6,062.99	66.851
6,276.86	81.3466	6,276.86	81.0896	6,276.86	81.2856	6,276.86	80.8662	6,276.86	81.0503	6,276.86	80.6165	6,276.86	80.6811	6,276.86	80.2513	6,276.86	80.2808	6,276.86	79.6558	6,276.86	79.6923	6,276.86	78.4702	6,276.86	78.5073	6,276.86	76.8167	6,276.86	76.9172	6,276.86	74.9058	6,276.86	74.7204	6,276.86	73.1115	6,276.86	72.0396	6,276.86	71.3903	6,276.86	69.8428	6,276.86	68.8454	6,276.86	67.7142	6,276.86	66.2435	6,276.86	65.1804	6,276.86	64.6218	6,276.86	63.9616	6,276.86	63.605	6,276.86	62.202	6,276.86	67.8266	6,276.86	66.1083	6,276.86	67.624	6,276.86	67.4185	6,276.86	65.6851	6,276.86	63.9815	6,276.86	66.3944
6,498.05	80.0157	6,498.05	79.6963	6,498.05	79.7922	6,498.05	79.4549	6,498.05	79.5191	6,498.05	79.6707	6,498.05	79.4243	6,498.05	80.0422	6,498.05	79.4259	6,498.05	79.9108	6,498.05	79.0023	6,498.05	78.9783	6,498.05	77.9848	6,498.05	77.2486	6,498.05	76.6496	6,498.05	74.718	6,498.05	74.4186	6,498.05	72.2016	6,498.05	71.4928	6,498.05	70.0128	6,498.05	68.9296	6,498.05	67.5007	6,498.05	66.2613	6,498.05	65.3364	6,498.05	63.4635	6,498.05	62.6737	6,498.05	60.6219	6,498.05	58.596	6,498.05	56.3761	6,498.05	66.3474	6,498.05	63.7283	6,498.05	66.1996	6,498.05	65.4795	6,498.05	62.3382	6,498.05	59.6781	6,498.05	63.9245
6,727.29	81.2043	6,727.29	80.5728	6,727.29	80.654	6,727.29	79.8665	6,727.29	79.6742	6,727.29	79.851	6,727.29	79.3294	6,727.29	80.1358	6,727.29	79.6811	6,727.29	80.036	6,727.29	79.6165	6,727.29	78.9943	6,727.29	78.5652	6,727.29	76.9844	6,727.29	76.7542	6,727.29	74.3459	6,727.29	73.8896	6,727.29	71.7346	6,727.29	71.0564	6,727.29	69.4798	6,727.29	69.5154	6,727.29	67.0381	6,727.29	67.278	6,727.29	65.6498	6,727.29	64.9496	6,727.29	65.296	6,727.29	64.2546	6,727.29	60.2961	6,727.29	60.5639	6,727.29	65.1794	6,727.29	65.5072	6,727.29	67.0296	6,727.29	67.2525	6,727.29	63.7248	6,727.29	61.7977	6,727.29	64.8291
6,964.6	81.3683	6,964.6	80.4942	6,964.6	80.436	6,964.6	79.0161	6,964.6	78.8973	6,964.6	78.9715	6,964.6	78.6928	6,964.6	80.0058	6,964.6	79.5365	6,964.6	80.2102	6,964.6	79.5771	6,964.6	79.2251	6,964.6	78.6336	6,964.6	77.3217	6,964.6	76.9373	6,964.6	74.5655	6,964.6	74.1306	6,964.6	72.1471	6,964.6	71.243	6,964.6	70.3779	6,964.6	69.2958	6,964.6	67.9596	6,964.6	67.131	6,964.6	65.7473	6,964.6	64.5908	6,964.6	64.7163	6,964.6	62.803	6,964.6	61.5618	6,964.6	59.4915	6,964.6	65.8655	6,964.6	65.1333	6,964.6	66.7705	6,964.6	67.3857	6,964.6	63.9799	6,964.6	61.7102	6,964.6	63.6204
7,209.96	81.4315	7,209.96	80.3741	7,209.96	80.3221	7,209.96	78.5959	7,209.96	78.3916	7,209.96	78.635	7,209.96	78.374	7,209.96	79.7086	7,209.96	79.5237	7,209.96	79.9845	7,209.96	79.5717	7,209.96	79.1012	7,209.96	78.4459	7,209.96	77.1219	7,209.96	76.4216	7,209.96	74.5623	7,209.96	73.4479	7,209.96	71.9279	7,209.96	70.7856	7,209.96	69.4115	7,209.96	68.8959	7,209.96	67.0767	7,209.96	66.0229	7,209.96	65.9083	7,209.96	63.6355	7,209.96	65.0991	7,209.96	64.2642	7,209.96	58.3868	7,209.96	59.8901	7,209.96	64.3724	7,209.96	63.7675	7,209.96	65.3256	7,209.96	67.4707	7,209.96	63.8933	7,209.96	64.0443	7,209.96	66.3143
7,464.11	81.1635	7,464.11	80.1432	7,464.11	79.9309	7,464.11	78.0025	7,464.11	78.0012	7,464.11	77.7256	7,464.11	78.0606	7,464.11	78.9435	7,464.11	79.1179	7,464.11	79.2049	7,464.11	79.0719	7,464.11	78.2579	7,464.11	77.9649	7,464.11	76.339	7,464.11	76.0678	7,464.11	73.5984	7,464.11	73.3717	7,464.11	71.1853	7,464.11	70.9893	7,464.11	69.2334	7,464.11	69.1988	7,464.11	66.2619	7,464.11	66.5887	7,464.11	63.7908	7,464.11	63.617	7,464.11	64.2873	7,464.11	63.3105	7,464.11	59.8066	7,464.11	60.4803	7,464.11	64.5981	7,464.11	65.1499	7,464.11	65.9968	7,464.11	67.4311	7,464.11	61.2716	7,464.11	61.3596	7,464.11	64.7508
7,727.78	80.7894	7,727.78	79.5134	7,727.78	79.558	7,727.78	77.2257	7,727.78	77.5833	7,727.78	77.0659	7,727.78	77.846	7,727.78	78.0651	7,727.78	78.8057	7,727.78	77.9244	7,727.78	78.405	7,727.78	76.5199	7,727.78	77.155	7,727.78	74.1843	7,727.78	75.0642	7,727.78	71.4252	7,727.78	71.9983	7,727.78	68.7599	7,727.78	69.3722	7,727.78	66.3915	7,727.78	67.575	7,727.78	63.6468	7,727.78	65.4151	7,727.78	60.8645	7,727.78	63.1124	7,727.78	61.0944	7,727.78	63.4861	7,727.78	54.9915	7,727.78	59.6347	7,727.78	63.2322	7,727.78	62.0326	7,727.78	64.5921	7,727.78	66.2288	7,727.78	59.5828	7,727.78	60.9486	7,727.78	61.6383
8,000.24	80.8679	8,000.24	79.7414	8,000.24	79.8757	8,000.24	77.7652	8,000.24	78.4066	8,000.24	77.3574	8,000.24	78.2959	8,000.24	77.4804	8,000.24	78.5175	8,000.24	76.5311	8,000.24	77.8764	8,000.24	74.7848	8,000.24	76.4867	8,000.24	71.9011	8,000.24	74.3926	8,000.24	68.3439	8,000.24	71.5474	8,000.24	65.9998	8,000.24	68.1436	8,000.24	65.0544	8,000.24	65.9905	8,000.24	62.5888	8,000.24	64.5525	8,000.24	57.3509	8,000.24	61.8827	8,000.24	60.7974	8,000.24	61.7158	8,000.24	55.6032	8,000.24	57.4237	8,000.24	59.4256	8,000.24	61.5589	8,000.24	63.2972	8,000.24	65.6086	8,000.24	59.1313	8,000.24	61.6447	8,000.24	63.2085
8,282.23	82.3782	8,282.23	81.024	8,282.23	81.645	8,282.23	79.0947	8,282.23	80.0802	8,282.23	78.446	8,282.23	79.4818	8,282.23	77.8519	8,282.23	79.3714	8,282.23	76.4887	8,282.23	78.6663	8,282.23	74.8352	8,282.23	77.4526	8,282.23	72.5576	8,282.23	75.5117	8,282.23	69.7124	8,282.23	72.5411	8,282.23	66.3614	8,282.23	69.0275	8,282.23	65.0912	8,282.23	66.9769	8,282.23	64.2479	8,282.23	65.5141	8,282.23	59.536	8,282.23	62.0642	8,282.23	57.8165	8,282.23	63.7634	8,282.23	53.3099	8,282.23	61.5471	8,282.23	58.9416	8,282.23	59.6944	8,282.23	64.4102	8,282.23	66.1558	8,282.23	61.1371	8,282.23	61.3086	8,282.23	63.9869
8,574.46	82.8451	8,574.46	81.4033	8,574.46	82.5673	8,574.46	80.2388	8,574.46	81.4486	8,574.46	79.9932	8,574.46	80.8187	8,574.46	79.1013	8,574.46	80.556	8,574.46	78.0377	8,574.46	79.9602	8,574.46	76.9832	8,574.46	79.0939	8,574.46	75.0556	8,574.46	77.6437	8,574.46	72.6374	8,574.46	74.5667	8,574.46	68.8096	8,574.46	71.2319	8,574.46	66.3718	8,574.46	69.9891	8,574.46	65.4085	8,574.46	68.6517	8,574.46	59.9314	8,574.46	63.7728	8,574.46	60.1146	8,574.46	63.3612	8,574.46	61.0439	8,574.46	64.5498	8,574.46	55.8753	8,574.46	60.0952	8,574.46	65.326	8,574.46	66.2132	8,574.46	61.5087	8,574.46	60.6628	8,574.46	66.365
8,876.22	82.5538	8,876.22	81.3792	8,876.22	82.3741	8,876.22	80.6597	8,876.22	81.426	8,876.22	80.3524	8,876.22	81.0493	8,876.22	79.4864	8,876.22	80.7678	8,876.22	78.6117	8,876.22	80.0574	8,876.22	77.6976	8,876.22	79.5053	8,876.22	76.3601	8,876.22	78.2824	8,876.22	74.06	8,876.22	75.6522	8,876.22	70.4985	8,876.22	72.5549	8,876.22	67.7513	8,876.22	70.0999	8,876.22	65.9913	8,876.22	68.7858	8,876.22	61.9087	8,876.22	65.5197	8,876.22	60.8924	8,876.22	64.2601	8,876.22	62.6355	8,876.22	65.0736	8,876.22	59.3915	8,876.22	61.7777	8,876.22	65.3123	8,876.22	68.407	8,876.22	60.4723	8,876.22	59.2611	8,876.22	65.8338
9,189.7	81.2545	9,189.7	80.5063	9,189.7	81.1429	9,189.7	80.4186	9,189.7	80.649	9,189.7	80.0297	9,189.7	80.2831	9,189.7	78.9569	9,189.7	79.4892	9,189.7	78.5452	9,189.7	78.9129	9,189.7	78.133	9,189.7	78.9421	9,189.7	77.0144	9,189.7	77.7526	9,189.7	74.6891	9,189.7	75.402	9,189.7	71.1824	9,189.7	72.3868	9,189.7	69.0179	9,189.7	69.7896	9,189.7	67.6275	9,189.7	68.6836	9,189.7	62.9879	9,189.7	65.2501	9,189.7	61.2831	9,189.7	62.6838	9,189.7	63.6175	9,189.7	64.6683	9,189.7	60.8804	9,189.7	60.9789	9,189.7	67.3672	9,189.7	67.9986	9,189.7	59.663	9,189.7	58.1174	9,189.7	64.5732
9,513.43	79.8021	9,513.43	79.9362	9,513.43	79.5869	9,513.43	79.8282	9,513.43	79.4144	9,513.43	78.7202	9,513.43	78.7095	9,513.43	77.5361	9,513.43	77.5513	9,513.43	77.6898	9,513.43	77.577	9,513.43	77.6231	9,513.43	77.8606	9,513.43	76.5178	9,513.43	76.7351	9,513.43	74.0607	9,513.43	74.4964	9,513.43	70.8883	9,513.43	70.9165	9,513.43	68.736	9,513.43	67.7023	9,513.43	67.112	9,513.43	67.0255	9,513.43	62.7373	9,513.43	64.3096	9,513.43	60.5531	9,513.43	60.2527	9,513.43	61.8913	9,513.43	63.3644	9,513.43	61.1374	9,513.43	58.5287	9,513.43	66.7532	9,513.43	67.2503	9,513.43	57.5856	9,513.43	59.0376	9,513.43	62.5848
9,848.88	80.1782	9,848.88	80.2239	9,848.88	80.0262	9,848.88	79.664	9,848.88	79.7016	9,848.88	77.9891	9,848.88	78.4943	9,848.88	76.5795	9,848.88	77.1517	9,848.88	76.578	9,848.88	77.1703	9,848.88	76.0091	9,848.88	76.6267	9,848.88	74.3238	9,848.88	74.9727	9,848.88	71.4111	9,848.88	72.4781	9,848.88	68.1241	9,848.88	67.9235	9,848.88	66.3573	9,848.88	64.5027	9,848.88	64.8725	9,848.88	64.9513	9,848.88	59.7788	9,848.88	62.6315	9,848.88	54.1709	9,848.88	56.4302	9,848.88	58.4037	9,848.88	61.2383	9,848.88	57.4367	9,848.88	54.7236	9,848.88	64.7696	9,848.88	64.591	9,848.88	57.1144	9,848.88	57.8106	9,848.88	59.8329
10,196.8	81.1813	10,196.8	81.0237	10,196.8	81.2208	10,196.8	80.2454	10,196.8	80.8533	10,196.8	78.3475	10,196.8	79.5091	10,196.8	76.6461	10,196.8	78.0782	10,196.8	75.9517	10,196.8	77.4657	10,196.8	74.4581	10,196.8	76.0666	10,196.8	72.2284	10,196.8	74.1969	10,196.8	68.6077	10,196.8	71.2155	10,196.8	64.2554	10,196.8	66.4198	10,196.8	61.645	10,196.8	62.8494	10,196.8	61.5736	10,196.8	62.4905	10,196.8	58.3771	10,196.8	60.4156	10,196.8	51.986	10,196.8	53.484	10,196.8	59.4323	10,196.8	59.8171	10,196.8	50.185	10,196.8	51.2567	10,196.8	62.4332	10,196.8	64.1303	10,196.8	52.7766	10,196.8	57.1062	10,196.8	59.0919
10,556.4	81.3402	10,556.4	81.1543	10,556.4	81.2312	10,556.4	80.2956	10,556.4	80.6604	10,556.4	78.5238	10,556.4	79.2873	10,556.4	77.2491	10,556.4	77.99	10,556.4	76.5555	10,556.4	77.2899	10,556.4	74.882	10,556.4	75.7167	10,556.4	72.8485	10,556.4	73.9833	10,556.4	69.8239	10,556.4	70.9889	10,556.4	66.267	10,556.4	66.8785	10,556.4	60.6134	10,556.4	63.4508	10,556.4	59.4807	10,556.4	61.9589	10,556.4	59.6059	10,556.4	60.7056	10,556.4	49.008	10,556.4	50.0019	10,556.4	60.3899	10,556.4	59.1074	10,556.4	53.3862	10,556.4	49.4759	10,556.4	63.1457	10,556.4	63.251	10,556.4	52.3637	10,556.4	55.9237	10,556.4	58.4547
10,928.5	80.9675	10,928.5	80.8809	10,928.5	80.7736	10,928.5	80.0338	10,928.5	80.0598	10,928.5	78.4755	10,928.5	78.6952	10,928.5	77.4469	10,928.5	77.7342	10,928.5	76.3548	10,928.5	76.6768	10,928.5	74.5077	10,928.5	74.5694	10,928.5	72.6749	10,928.5	72.8805	10,928.5	70.0238	10,928.5	69.9655	10,928.5	67.1931	10,928.5	67.1479	10,928.5	61.2602	10,928.5	63.4913	10,928.5	58.9356	10,928.5	60.2265	10,928.5	60.8771	10,928.5	60.0849	10,928.5	50.5506	10,928.5	50.9595	10,928.5	58.5034	10,928.5	58.0454	10,928.5	53.3416	10,928.5	47.6452	10,928.5	62.071	10,928.5	61.8284	10,928.5	52.2793	10,928.5	53.4431	10,928.5	56.5977
11,313.7	81.0773	11,313.7	80.7998	11,313.7	80.645	11,313.7	79.873	11,313.7	79.6881	11,313.7	78.6467	11,313.7	78.5435	11,313.7	77.4512	11,313.7	77.4707	11,313.7	75.761	11,313.7	75.7879	11,313.7	73.6185	11,313.7	73.316	11,313.7	71.5567	11,313.7	71.6719	11,313.7	69.0469	11,313.7	69.1353	11,313.7	66.3578	11,313.7	66.273	11,313.7	60.5269	11,313.7	62.4694	11,313.7	56.9817	11,313.7	59.38	11,313.7	58.363	11,313.7	59.0781	11,313.7	51.0661	11,313.7	50.4919	11,313.7	55.7857	11,313.7	55.643	11,313.7	50.9378	11,313.7	33.7367	11,313.7	60.1122	11,313.7	58.7668	11,313.7	50.8784	11,313.7	50.7554	11,313.7	52.6477
11,712.9	80.5859	11,712.9	80.3821	11,712.9	80.2317	11,712.9	79.5969	11,712.9	79.3845	11,712.9	78.4032	11,712.9	78.2895	11,712.9	77.0211	11,712.9	76.9726	11,712.9	75.0196	11,712.9	74.6905	11,712.9	72.8221	11,712.9	72.2441	11,712.9	70.8284	11,712.9	71.0152	11,712.9	68.4523	11,712.9	68.4048	11,712.9	65.8605	11,712.9	65.5866	11,712.9	60.0067	11,712.9	61.4883	11,712.9	56.388	11,712.9	58.4716	11,712.9	57.9123	11,712.9	58.8341	11,712.9	50.4944	11,712.9	50.458	11,712.9	54.7255	11,712.9	55.8463	11,712.9	49.5496	11,712.9	47.0043	11,712.9	57.5682	11,712.9	56.4372	11,712.9	46.3356	11,712.9	49.8552	11,712.9	51.2886
12,126	80.7989	12,126	80.5905	12,126	80.1117	12,126	79.5266	12,126	79.1517	12,126	78.1521	12,126	78.1407	12,126	76.42	12,126	76.4985	12,126	74.0555	12,126	74.1097	12,126	72.1146	12,126	72.1798	12,126	69.9929	12,126	70.8443	12,126	67.3458	12,126	67.7704	12,126	64.0066	12,126	64.0924	12,126	56.9631	12,126	59.8682	12,126	54.2395	12,126	56.521	12,126	55.9696	12,126	57.0177	12,126	48.2105	12,126	50.14	12,126	54.0338	12,126	53.4637	12,126	49.2128	12,126	48.8429	12,126	56.0865	12,126	57.1424	12,126	43.1664	12,126	53.3158	12,126	44.6206
12,553.7	81.4901	12,553.7	81.1242	12,553.7	80.9818	12,553.7	80.0188	12,553.7	80.1043	12,553.7	78.5483	12,553.7	78.9602	12,553.7	76.3641	12,553.7	77.175	12,553.7	73.8855	12,553.7	74.8918	12,553.7	71.9975	12,553.7	73.0114	12,553.7	69.2272	12,553.7	71.1774	12,553.7	66.1087	12,553.7	67.4344	12,553.7	62.2753	12,553.7	63.9505	12,553.7	55.1401	12,553.7	59.5859	12,553.7	51.9761	12,553.7	55.2463	12,553.7	53.9842	12,553.7	55.6225	12,553.7	41.693	12,553.7	48.4701	12,553.7	49.6777	12,553.7	52.0229	12,553.7	50.4314	12,553.7	43.6694	12,553.7	56.4939	12,553.7	57.7738	12,553.7	46.2564	12,553.7	52.9927	12,553.7	45.1468
12,996.1	81.6639	12,996.1	81.3469	12,996.1	81.4036	12,996.1	80.51	12,996.1	80.6731	12,996.1	78.9011	12,996.1	79.3027	12,996.1	76.3676	12,996.1	77.2502	12,996.1	74.0203	12,996.1	74.9049	12,996.1	71.6942	12,996.1	72.7472	12,996.1	68.3709	12,996.1	70.5351	12,996.1	65.056	12,996.1	66.8854	12,996.1	61.8075	12,996.1	63.8229	12,996.1	55.3789	12,996.1	58.2906	12,996.1	51.4613	12,996.1	53.2846	12,996.1	54.873	12,996.1	55.5525	12,996.1	48.243	12,996.1	45.5067	12,996.1	48.2935	12,996.1	54.5521	12,996.1	45.9856	12,996.1	33.8418	12,996.1	56.3675	12,996.1	56.5725	12,996.1	45.4176	12,996.1	47.8231	12,996.1	52.0967
13,454.6	81.8003	13,454.6	81.3407	13,454.6	81.3601	13,454.6	80.198	13,454.6	80.2321	13,454.6	78.5578	13,454.6	78.629	13,454.6	76.1284	13,454.6	76.4535	13,454.6	73.5432	13,454.6	74.0398	13,454.6	70.7064	13,454.6	71.7916	13,454.6	66.455	13,454.6	69.0009	13,454.6	63.3278	13,454.6	65.7447	13,454.6	59.643	13,454.6	61.9802	13,454.6	53.7007	13,454.6	57.8115	13,454.6	52.8419	13,454.6	54.8787	13,454.6	54.4323	13,454.6	55.4887	13,454.6	48.4064	13,454.6	43.3535	13,454.6	47.676	13,454.6	51.07	13,454.6	40.6909	13,454.6	36.695	13,454.6	51.963	13,454.6	52.766	13,454.6	28.3559	13,454.6	45.9382	13,454.6	48.7994
13,928.5	80.7677	13,928.5	80.48	13,928.5	80.5347	13,928.5	79.6	13,928.5	79.5962	13,928.5	77.7255	13,928.5	77.7588	13,928.5	75.0334	13,928.5	75.3707	13,928.5	72.2996	13,928.5	72.714	13,928.5	68.5439	13,928.5	69.6647	13,928.5	64.1835	13,928.5	67.4239	13,928.5	60.9574	13,928.5	64.3314	13,928.5	57.1639	13,928.5	60.983	13,928.5	49.1007	13,928.5	56.9572	13,928.5	45.8159	13,928.5	52.4285	13,928.5	51.6419	13,928.5	54.4807	13,928.5	47.2572	13,928.5	47.9728	13,928.5	49.9916	13,928.5	50.3192	13,928.5	43.9785	13,928.5	44.5372	13,928.5	51.3193	13,928.5	51.6268	13,928.5	43.5098	13,928.5	50.9522	13,928.5	46.6811
14,419.9	80.7174	14,419.9	80.2934	14,419.9	80.3766	14,419.9	79.0833	14,419.9	79.2062	14,419.9	77.0288	14,419.9	77.2942	14,419.9	74.2202	14,419.9	74.8676	14,419.9	70.7979	14,419.9	71.7602	14,419.9	66.5718	14,419.9	68.6095	14,419.9	62.3795	14,419.9	66.5091	14,419.9	59.4163	14,419.9	63.0977	14,419.9	56.3341	14,419.9	59.2252	14,419.9	49.4557	14,419.9	55.3725	14,419.9	46.6181	14,419.9	50.8409	14,419.9	49.7712	14,419.9	52.3306	14,419.9	41.8134	14,419.9	43.5562	14,419.9	48.1312	14,419.9	50.8317	14,419.9	47.0471	14,419.9	41.3291	14,419.9	54.9396	14,419.9	53.7543	14,419.9	47.8331	14,419.9	52.3286	14,419.9	39.5982
14,928.2	81.7244	14,928.2	81.0308	14,928.2	81.3704	14,928.2	79.4689	14,928.2	80.0683	14,928.2	77.1925	14,928.2	78.0863	14,928.2	73.9706	14,928.2	75.4388	14,928.2	70.2453	14,928.2	72.1672	14,928.2	66.5236	14,928.2	69.1154	14,928.2	62.5335	14,928.2	66.9919	14,928.2	60.3075	14,928.2	63.3189	14,928.2	57.2143	14,928.2	59.2283	14,928.2	48.0287	14,928.2	55.2894	14,928.2	42.6841	14,928.2	49.7239	14,928.2	50.6127	14,928.2	52.2246	14,928.2	34.8267	14,928.2	41.0312	14,928.2	47.9655	14,928.2	51.9449	14,928.2	45.6345	14,928.2	42.712	14,928.2	55.1676	14,928.2	54.0776	14,928.2	46.7263	14,928.2	51.8179	14,928.2	47.9612
15,454.8	82.2939	15,454.8	81.7219	15,454.8	82.1685	15,454.8	80.2552	15,454.8	81.0739	15,454.8	77.8864	15,454.8	79.1006	15,454.8	75.0062	15,454.8	76.6323	15,454.8	71.5266	15,454.8	73.1732	15,454.8	68.2629	15,454.8	70.3766	15,454.8	64.3109	15,454.8	68.3163	15,454.8	62.6013	15,454.8	64.3046	15,454.8	58.8326	15,454.8	59.6542	15,454.8	50.1672	15,454.8	56.8531	15,454.8	46.6007	15,454.8	51.6773	15,454.8	52.5887	15,454.8	53.434	15,454.8	41.4862	15,454.8	45.6116	15,454.8	46.55	15,454.8	49.8704	15,454.8	45.2161	15,454.8	42.2071	15,454.8	54.2061	15,454.8	52.8244	15,454.8	45.3148	15,454.8	51.8959	15,454.8	48.7413
15,999.8	81.9021	15,999.8	81.4351	15,999.8	81.7408	15,999.8	80.23	15,999.8	80.7489	15,999.8	78.3253	15,999.8	79.0346	15,999.8	75.6969	15,999.8	76.7721	15,999.8	72.618	15,999.8	73.6679	15,999.8	69.4142	15,999.8	71.0963	15,999.8	65.0645	15,999.8	68.4861	15,999.8	62.6465	15,999.8	64.1571	15,999.8	58.2515	15,999.8	59.888	15,999.8	49.7774	15,999.8	56.9509	15,999.8	45.5798	15,999.8	49.6704	15,999.8	52.3744	15,999.8	52.967	15,999.8	43.4226	15,999.8	47.0954	15,999.8	46.599	15,999.8	49.4441	15,999.8	46.147	15,999.8	45.2611	15,999.8	55.6149	15,999.8	51.8263	15,999.8	48.3629	15,999.8	51.7417	15,999.8	48.1973
16,564.5	81.0662	16,564.5	80.4713	16,564.5	80.8691	16,564.5	79.1101	16,564.5	79.7471	16,564.5	76.9243	16,564.5	77.7669	16,564.5	73.8058	16,564.5	75.0753	16,564.5	70.095	16,564.5	71.5568	16,564.5	65.8906	16,564.5	68.2418	16,564.5	59.776	16,564.5	65.0368	16,564.5	54.4785	16,564.5	60.368	16,564.5	48.8212	16,564.5	54.9761	16,564.5	33.3747	16,564.5	51.1325	16,564.5	36.2368	16,564.5	43.1164	16,564.5	44.4246	16,564.5	45.882	16,564.5	26.8824	16,564.5	41.033	16,564.5	40.755	16,564.5	43.9623	16,564.5	46.6735	16,564.5	39.7215	16,564.5	53.6712	16,564.5	48.3568	16,564.5	50.575	16,564.5	51.4049	16,564.5	51.1744
17,148.2	81.4886	17,148.2	80.7727	17,148.2	81.1368	17,148.2	78.9471	17,148.2	79.6397	17,148.2	75.9939	17,148.2	77.0209	17,148.2	71.9496	17,148.2	73.4714	17,148.2	66.5162	17,148.2	68.8387	17,148.2	60.2312	17,148.2	64.4188	17,148.2	46.6162	17,148.2	59.1808	17,148.2	44.6037	17,148.2	51.7838	17,148.2	45.2682	17,148.2	39.1409	17,148.2	49.0507	17,148.2	31.3045	17,148.2	42.7624	17,148.2	36.4757	17,148.2	45.138	17,148.2	41.8999	17,148.2	44.7246	17,148.2	36.3264	17,148.2	39.565	17,148.2	39.3779	17,148.2	46.0429	17,148.2	29.7345	17,148.2	48.5374	17,148.2	39.8134	17,148.2	49.4367	17,148.2	48.4011	17,148.2	53.5655
17,753.2	82.3638	17,753.2	81.6208	17,753.2	82.0366	17,753.2	79.6228	17,753.2	80.4022	17,753.2	76.0382	17,753.2	77.2518	17,753.2	71.3223	17,753.2	73.1307	17,753.2	64.3855	17,753.2	67.7117	17,753.2	54.9128	17,753.2	61.5281	17,753.2	50.6703	17,753.2	51.5581	17,753.2	56.5883	17,753.2	45.0169	17,753.2	53.879	17,753.2	50.1752	17,753.2	53.5612	17,753.2	50.2418	17,753.2	47.6893	17,753.2	37.2408	17,753.2	49.9027	17,753.2	42.7564	17,753.2	47.3622	17,753.2	44.1796	17,753.2	49.1973	17,753.2	44.0722	17,753.2	42.6543	17,753.2	41.8008	17,753.2	48.0246	17,753.2	46.0849	17,753.2	46.708	17,753.2	40.9118	17,753.2	54.4108
18,379.4	81.9139	18,379.4	81.3858	18,379.4	81.567	18,379.4	79.4576	18,379.4	79.9337	18,379.4	75.7043	18,379.4	76.6263	18,379.4	71.2708	18,379.4	72.7206	18,379.4	63.8422	18,379.4	67.0002	18,379.4	56.3356	18,379.4	60.2828	18,379.4	52.739	18,379.4	50.1788	18,379.4	57.9513	18,379.4	46.7388	18,379.4	55.1908	18,379.4	53.4299	18,379.4	55.8309	18,379.4	52.2108	18,379.4	50.88	18,379.4	44.368	18,379.4	50.9757	18,379.4	41.6334	18,379.4	46.6434	18,379.4	44.788	18,379.4	51.8273	18,379.4	50.2756	18,379.4	35.3657	18,379.4	45.0102	18,379.4	53.4418	18,379.4	52.4753	18,379.4	49.9101	18,379.4	47.3692	18,379.4	57.9405
19,027.6	80.9127	19,027.6	80.2483	19,027.6	80.4863	19,027.6	78.2062	19,027.6	78.642	19,027.6	74.1739	19,027.6	74.8785	19,027.6	68.7705	19,027.6	70.383	19,027.6	59.3847	19,027.6	63.3189	19,027.6	52.0733	19,027.6	54.7814	19,027.6	55.0756	19,027.6	43.039	19,027.6	58.697	19,027.6	48.3219	19,027.6	56.0228	19,027.6	54.127	19,027.6	56.2404	19,027.6	52.8957	19,027.6	50.538	19,027.6	42.548	19,027.6	51.4531	19,027.6	43.9239	19,027.6	46.8671	19,027.6	45.5366	19,027.6	50.9729	19,027.6	49.4534	19,027.6	32.8845	19,027.6	42.9188	19,027.6	53.1632	19,027.6	51.622	19,027.6	47.9324	19,027.6	47.1988	19,027.6	57.8928
19,698.5	81.5857	19,698.5	80.7932	19,698.5	81.1107	19,698.5	78.3876	19,698.5	78.9817	19,698.5	73.6677	19,698.5	74.903	19,698.5	68.5075	19,698.5	70.2686	19,698.5	59.6078	19,698.5	62.4296	19,698.5	56.7575	19,698.5	55.639	19,698.5	56.2738	19,698.5	50.5051	19,698.5	59.5688	19,698.5	52.9252	19,698.5	56.7616	19,698.5	56.3961	19,698.5	55.9689	19,698.5	54.0355	19,698.5	51.1388	19,698.5	47.1374	19,698.5	52.2591	19,698.5	45.9346	19,698.5	48.7834	19,698.5	48.6266	19,698.5	53.6331	19,698.5	51.7295	19,698.5	37.8253	19,698.5	44.8794	19,698.5	56.4586	19,698.5	53.867	19,698.5	46.0941	19,698.5	44.0123	19,698.5	58.5013
19,999.5	82.0352	19,999.5	81.1132	19,999.5	81.2673	19,999.5	78.2696	19,999.5	78.8793	19,999.5	73.7019	19,999.5	75.0355	19,999.5	69.0042	19,999.5	70.2452	19,999.5	59.5285	19,999.5	62.6054	19,999.5	56.9109	19,999.5	55.6178	19,999.5	55.5658	19,999.5	51.2454	19,999.5	58.8974	19,999.5	53.3214	19,999.5	56.0812	19,999.5	56.0225	19,999.5	55.7123	19,999.5	54.332	19,999.5	52.7535	19,999.5	47.3309	19,999.5	51.1875	19,999.5	46.0227	19,999.5	48.2113	19,999.5	47.8068	19,999.5	54.1123	19,999.5	51.8249	19,999.5	42.5584	19,999.5	43.0205	19,999.5	56.9366	19,999.5	54.3286	19,999.5	50.741	19,999.5	36.922	19,999.5	57.9441
