"SPL Vertical"																																																																							
"On-Axis"		"10°"		"-10°"		"20°"		"-20°"		"30°"		"-30°"		"40°"		"-40°"		"50°"		"-50°"		"60°"		"-60°"		"70°"		"-70°"		"80°"		"-80°"		"90°"		"-90°"		"100°"		"-100°"		"110°"		"-110°"		"120°"		"-120°"		"130°"		"-130°"		"140°"		"-140°"		"150°"		"-150°"		"160°"		"-160°"		"170°"		"-170°"		"180°"	
"Frequency [Hz]"	"Sound Pessure Level [dB]  / [2.83V 1m] "	"Frequency [Hz]"	"Sound Pessure Level [dB]  / [2.83V 1m] "	"Frequency [Hz]"	"Sound Pessure Level [dB]  / [2.83V 1m] "	"Frequency [Hz]"	"Sound Pessure Level [dB]  / [2.83V 1m] "	"Frequency [Hz]"	"Sound Pessure Level [dB]  / [2.83V 1m] "	"Frequency [Hz]"	"Sound Pessure Level [dB]  / [2.83V 1m] "	"Frequency [Hz]"	"Sound Pessure Level [dB]  / [2.83V 1m] "	"Frequency [Hz]"	"Sound Pessure Level [dB]  / [2.83V 1m] "	"Frequency [Hz]"	"Sound Pessure Level [dB]  / [2.83V 1m] "	"Frequency [Hz]"	"Sound Pessure Level [dB]  / [2.83V 1m] "	"Frequency [Hz]"	"Sound Pessure Level [dB]  / [2.83V 1m] "	"Frequency [Hz]"	"Sound Pessure Level [dB]  / [2.83V 1m] "	"Frequency [Hz]"	"Sound Pessure Level [dB]  / [2.83V 1m] "	"Frequency [Hz]"	"Sound Pessure Level [dB]  / [2.83V 1m] "	"Frequency [Hz]"	"Sound Pessure Level [dB]  / [2.83V 1m] "	"Frequency [Hz]"	"Sound Pessure Level [dB]  / [2.83V 1m] "	"Frequency [Hz]"	"Sound Pessure Level [dB]  / [2.83V 1m] "	"Frequency [Hz]"	"Sound Pessure Level [dB]  / [2.83V 1m] "	"Frequency [Hz]"	"Sound Pessure Level [dB]  / [2.83V 1m] "	"Frequency [Hz]"	"Sound Pessure Level [dB]  / [2.83V 1m] "	"Frequency [Hz]"	"Sound Pessure Level [dB]  / [2.83V 1m] "	"Frequency [Hz]"	"Sound Pessure Level [dB]  / [2.83V 1m] "	"Frequency [Hz]"	"Sound Pessure Level [dB]  / [2.83V 1m] "	"Frequency [Hz]"	"Sound Pessure Level [dB]  / [2.83V 1m] "	"Frequency [Hz]"	"Sound Pessure Level [dB]  / [2.83V 1m] "	"Frequency [Hz]"	"Sound Pessure Level [dB]  / [2.83V 1m] "	"Frequency [Hz]"	"Sound Pessure Level [dB]  / [2.83V 1m] "	"Frequency [Hz]"	"Sound Pessure Level [dB]  / [2.83V 1m] "	"Frequency [Hz]"	"Sound Pessure Level [dB]  / [2.83V 1m] "	"Frequency [Hz]"	"Sound Pessure Level [dB]  / [2.83V 1m] "	"Frequency [Hz]"	"Sound Pessure Level [dB]  / [2.83V 1m] "	"Frequency [Hz]"	"Sound Pessure Level [dB]  / [2.83V 1m] "	"Frequency [Hz]"	"Sound Pessure Level [dB]  / [2.83V 1m] "	"Frequency [Hz]"	"Sound Pessure Level [dB]  / [2.83V 1m] "	"Frequency [Hz]"	"Sound Pessure Level [dB]  / [2.83V 1m] "	"Frequency [Hz]"	"Sound Pessure Level [dB]  / [2.83V 1m] "
20.5078	41.6541	20.5078	41.2647	20.5078	41.9021	20.5078	40.7717	20.5078	41.9896	20.5078	40.2475	20.5078	41.9085	20.5078	39.8186	20.5078	41.6622	20.5078	39.6621	20.5078	41.2762	20.5078	39.9353	20.5078	40.8212	20.5078	40.662	20.5078	40.4486	20.5078	41.7124	20.5078	40.3938	20.5078	42.9058	20.5078	40.862	20.5078	44.1012	20.5078	41.8411	20.5078	45.2152	20.5078	43.1096	20.5078	46.2045	20.5078	44.4267	20.5078	47.0475	20.5078	45.6396	20.5078	47.7327	20.5078	46.6755	20.5078	48.2524	20.5078	47.5067	20.5078	48.5999	20.5078	48.1272	20.5078	48.7685	20.5078	48.5398	20.5078	48.751
21.2402	43.2591	21.2402	42.7593	21.2402	43.5683	21.2402	42.0731	21.2402	43.6844	21.2402	41.2174	21.2402	43.6021	21.2402	40.2494	21.2402	43.3142	21.2402	39.323	21.2402	42.816	21.2402	38.7464	21.2402	42.1195	21.2402	38.8796	21.2402	41.2893	21.2402	39.7863	21.2402	40.5132	21.2402	41.1529	21.2402	40.1562	21.2402	42.6284	21.2402	40.573	21.2402	44.0139	21.2402	41.7042	21.2402	45.2284	21.2402	43.1474	21.2402	46.2457	21.2402	44.5628	21.2402	47.0592	21.2402	45.7889	21.2402	47.6678	21.2402	46.7717	21.2402	48.0697	21.2402	47.5023	21.2402	48.2614	21.2402	47.9871	21.2402	48.2367
21.9727	41.3801	21.9727	40.743	21.9727	41.7816	21.9727	39.8981	21.9727	41.9387	21.9727	38.9357	21.9727	41.8454	21.9727	38.0984	21.9727	41.4971	21.9727	37.8326	21.9727	40.9039	21.9727	38.4997	21.9727	40.1307	21.9727	39.9263	21.9727	39.3912	21.9727	41.6428	21.9727	39.1419	21.9727	43.3276	21.9727	39.834	21.9727	44.85	21.9727	41.3423	21.9727	46.1734	21.9727	43.1417	21.9727	47.2946	21.9727	44.8589	21.9727	48.2188	21.9727	46.3462	21.9727	48.9511	21.9727	47.5675	21.9727	49.4937	21.9727	48.5255	21.9727	49.8459	21.9727	49.234	21.9727	50.0037	21.9727	49.7079	21.9727	49.9607
22.7051	42.3374	22.7051	41.7927	22.7051	42.6882	22.7051	41.0973	22.7051	42.8261	22.7051	40.3545	22.7051	42.7407	22.7051	39.7774	22.7051	42.4286	22.7051	39.681	22.7051	41.904	22.7051	40.2813	22.7051	41.2338	22.7051	41.4664	22.7051	40.6092	22.7051	42.9267	22.7051	40.4049	22.7051	44.4109	22.7051	40.9896	22.7051	45.7897	22.7051	42.3061	22.7051	47.0113	22.7051	43.943	22.7051	48.059	22.7051	45.5552	22.7051	48.929	22.7051	46.981	22.7051	49.6203	22.7051	48.1679	22.7051	50.1316	22.7051	49.1083	22.7051	50.4599	22.7051	49.81	22.7051	50.5999	22.7051	50.2847	22.7051	50.5445
23.4375	43.3898	23.4375	43.0411	23.4375	43.6253	23.4375	42.6451	23.4375	43.7139	23.4375	42.3151	23.4375	43.6436	23.4375	42.2099	23.4375	43.4249	23.4375	42.4809	23.4375	43.1046	23.4375	43.1745	23.4375	42.7927	23.4375	44.1964	23.4375	42.685	23.4375	45.3867	23.4375	43.009	23.4375	46.6072	23.4375	43.8579	23.4375	47.7701	23.4375	45.0943	23.4375	48.8278	23.4375	46.479	23.4375	49.756	23.4375	47.824	23.4375	50.5417	23.4375	49.0263	23.4375	51.177	23.4375	50.0408	23.4375	51.6556	23.4375	50.8527	23.4375	51.971	23.4375	51.4606	23.4375	52.1167	23.4375	51.8691	23.4375	52.0853
24.1699	44.8675	24.1699	44.5551	24.1699	45.0766	24.1699	44.1911	24.1699	45.1554	24.1699	43.8627	24.1699	45.0948	24.1699	43.6947	24.1699	44.9049	24.1699	43.8201	24.1699	44.6257	24.1699	44.3125	24.1699	44.3468	24.1699	45.1345	24.1699	44.2235	24.1699	46.1667	24.1699	44.4427	24.1699	47.279	24.1699	45.1084	24.1699	48.374	24.1699	46.1473	24.1699	49.3914	24.1699	47.3709	24.1699	50.2972	24.1699	48.6017	24.1699	51.072	24.1699	49.7268	24.1699	51.7037	24.1699	50.6893	24.1699	52.1836	24.1699	51.4649	24.1699	52.5041	24.1699	52.0468	24.1699	52.6579	24.1699	52.4361	24.1699	52.6376
25.6348	46.4308	25.6348	46.1728	25.6348	46.6176	25.6348	45.8967	25.6348	46.7052	25.6348	45.6848	25.6348	46.6865	25.6348	45.6433	25.6348	46.5763	25.6348	45.8704	25.6348	46.4194	25.6348	46.4064	25.6348	46.302	25.6348	47.2088	25.6348	46.351	25.6348	48.1797	25.6348	46.6948	25.6348	49.2157	25.6348	47.3848	25.6348	50.2367	25.6348	48.3535	25.6348	51.1901	25.6348	49.461	25.6348	52.0437	25.6348	50.5731	25.6348	52.7778	25.6348	51.597	25.6348	53.3793	25.6348	52.4802	25.6348	53.8386	25.6348	53.197	25.6348	54.1473	25.6348	53.7371	25.6348	54.298	25.6348	54.0985	25.6348	54.2838
26.3672	47.5945	26.3672	47.3944	26.3672	47.7505	26.3672	47.1982	26.3672	47.8359	26.3672	47.0758	26.3672	47.8438	26.3672	47.1091	26.3672	47.789	26.3672	47.368	26.3672	47.7127	26.3672	47.8774	26.3672	47.688	26.3672	48.6043	26.3672	47.8138	26.3672	49.4755	26.3672	48.1826	26.3672	50.4102	26.3672	48.8284	26.3672	51.341	26.3672	49.7007	26.3672	52.2198	26.3672	50.694	26.3672	53.0143	26.3672	51.6998	26.3672	53.7032	26.3672	52.6364	26.3672	54.2714	26.3672	53.4524	26.3672	54.7076	26.3672	54.1199	26.3672	55.0025	26.3672	54.6253	26.3672	55.148	26.3672	54.9641	26.3672	55.1371
27.0996	48.5776	27.0996	48.3979	27.0996	48.7235	27.0996	48.2271	27.0996	48.811	27.0996	48.1252	27.0996	48.8334	27.0996	48.1614	27.0996	48.8024	27.0996	48.3945	27.0996	48.7528	27.0996	48.8485	27.0996	48.7452	27.0996	49.5002	27.0996	48.862	27.0996	50.2911	27.0996	49.1828	27.0996	51.1514	27.0996	49.7446	27.0996	52.0191	27.0996	50.5164	27.0996	52.8468	27.0996	51.4144	27.0996	53.6011	27.0996	52.3424	27.0996	54.2588	27.0996	53.2212	27.0996	54.8033	27.0996	53.9969	27.0996	55.2219	27.0996	54.6377	27.0996	55.5043	27.0996	55.1269	27.0996	55.6421	27.0996	55.4574	27.0996	55.6282
27.832	49.5678	27.832	49.4372	27.832	49.6802	27.832	49.3261	27.832	49.7522	27.832	49.2847	27.832	49.7778	27.832	49.3678	27.832	49.7684	27.832	49.6198	27.832	49.756	27.832	50.0574	27.832	49.7944	27.832	50.6621	27.832	49.9525	27.832	51.3879	27.832	50.2934	27.832	52.1783	27.832	50.8433	27.832	52.9805	27.832	51.5738	27.832	53.7517	27.832	52.4143	27.832	54.4596	27.832	53.2823	27.832	55.0809	27.832	54.1071	27.832	55.5979	27.832	54.8387	27.832	55.997	27.832	55.4455	27.832	56.2672	27.832	55.9102	27.832	56.3996	27.832	56.2247	27.832	56.3871
29.2969	51.9858	29.2969	51.8863	29.2969	52.0774	29.2969	51.8073	29.2969	52.1438	29.2969	51.7859	29.2969	52.1801	29.2969	51.8622	29.2969	52.1954	29.2969	52.0695	29.2969	52.2138	29.2969	52.4235	29.2969	52.2754	29.2969	52.9163	29.2969	52.43	29.2969	53.5187	29.2969	52.7242	29.2969	54.1893	29.2969	53.1808	29.2969	54.8849	29.2969	53.7855	29.2969	55.5666	29.2969	54.4907	29.2969	56.2029	29.2969	55.2329	29.2969	56.7688	29.2969	55.9515	29.2969	57.245	29.2969	56.599	29.2969	57.6162	29.2969	57.1424	29.2969	57.8702	29.2969	57.5615	29.2969	57.9973	29.2969	57.8456	29.2969	57.9906
30.0293	53.2044	30.0293	53.1288	30.0293	53.2788	30.0293	53.0758	30.0293	53.3372	30.0293	53.076	30.0293	53.3753	30.0293	53.1616	30.0293	53.401	30.0293	53.3592	30.0293	53.4349	30.0293	53.6821	30.0293	53.5105	30.0293	54.1253	30.0293	53.6689	30.0293	54.6665	30.0293	53.9483	30.0293	55.2723	30.0293	54.3681	30.0293	55.906	30.0293	54.9178	30.0293	56.5328	30.0293	55.559	30.0293	57.1228	30.0293	56.2378	30.0293	57.6514	30.0293	56.9001	30.0293	58.0989	30.0293	57.5013	30.0293	58.4495	30.0293	58.0091	30.0293	58.6903	30.0293	58.4025	30.0293	58.8116	30.0293	58.6698	30.0293	58.8061
31.4941	55.637	31.4941	55.5795	31.4941	55.6967	31.4941	55.5418	31.4941	55.748	31.4941	55.5463	31.4941	55.7883	31.4941	55.6171	31.4941	55.8245	31.4941	55.7754	31.4941	55.8728	31.4941	56.0338	31.4941	55.9587	31.4941	56.3924	31.4941	56.1128	31.4941	56.8383	31.4941	56.363	31.4941	57.3482	31.4941	56.7243	31.4941	57.8931	31.4941	57.1906	31.4941	58.4431	31.4941	57.7343	31.4941	58.9701	31.4941	58.3141	31.4941	59.4498	31.4941	58.8855	31.4941	59.8619	31.4941	59.4089	31.4941	60.1893	31.4941	59.8537	31.4941	60.4187	31.4941	60.1987	31.4941	60.5397	31.4941	60.4312	31.4941	60.5451
32.2266	56.5929	32.2266	56.5317	32.2266	56.6556	32.2266	56.4884	32.2266	56.7101	32.2266	56.4838	32.2266	56.754	32.2266	56.5406	32.2266	56.7931	32.2266	56.679	32.2266	56.8425	32.2266	56.912	32.2266	56.925	32.2266	57.2414	32.2266	57.0687	32.2266	57.6567	32.2266	57.2997	32.2266	58.1368	32.2266	57.6331	32.2266	58.6549	32.2266	58.0651	32.2266	59.1819	32.2266	58.5721	32.2266	59.6904	32.2266	59.1166	32.2266	60.156	32.2266	59.6567	32.2266	60.5579	32.2266	60.1541	32.2266	60.879	32.2266	60.5783	32.2266	61.1054	32.2266	60.9077	32.2266	61.2267	32.2266	61.1291	32.2266	61.2357
33.6914	58.4625	33.6914	58.4043	33.6914	58.525	33.6914	58.3642	33.6914	58.5839	33.6914	58.3592	33.6914	58.6369	33.6914	58.4083	33.6914	58.6889	33.6914	58.5285	33.6914	58.7519	33.6914	58.7312	33.6914	58.8442	33.6914	59.0194	33.6914	58.9879	33.6914	59.3855	33.6914	59.2036	33.6914	59.8133	33.6914	59.5037	33.6914	60.2799	33.6914	59.8859	33.6914	60.76	33.6914	60.3324	33.6914	61.2281	33.6914	60.813	33.6914	61.661	33.6914	61.2922	33.6914	62.0382	33.6914	61.7358	33.6914	62.3427	33.6914	62.1156	33.6914	62.5605	33.6914	62.4104	33.6914	62.6811	33.6914	62.6068	33.6914	62.6976
34.4238	59.4904	34.4238	59.4433	34.4238	59.5454	34.4238	59.4158	34.4238	59.601	34.4238	59.423	34.4238	59.6556	34.4238	59.4809	34.4238	59.7135	34.4238	59.6041	34.4238	59.7853	34.4238	59.8022	34.4238	59.8871	34.4238	60.0776	34.4238	60.0378	34.4238	60.4238	34.4238	60.2547	34.4238	60.8267	34.4238	60.5477	34.4238	61.266	34.4238	60.9144	34.4238	61.719	34.4238	61.3384	34.4238	62.1621	34.4238	61.7925	34.4238	62.5734	34.4238	62.2447	34.4238	62.9331	34.4238	62.6634	34.4238	63.2246	34.4238	63.0219	34.4238	63.4342	34.4238	63.3003	34.4238	63.5514	34.4238	63.4851	34.4238	63.5694
35.8887	61.4796	35.8887	61.4332	35.8887	61.5341	35.8887	61.4043	35.8887	61.5908	35.8887	61.4052	35.8887	61.6479	35.8887	61.449	35.8887	61.7089	35.8887	61.5479	35.8887	61.7818	35.8887	61.7105	35.8887	61.8791	35.8887	61.9401	35.8887	62.0157	35.8887	62.2331	35.8887	62.2055	35.8887	62.5789	35.8887	62.4573	35.8887	62.9618	35.8887	62.7702	35.8887	63.362	35.8887	63.1326	35.8887	63.7588	35.8887	63.523	35.8887	64.1316	35.8887	63.9146	35.8887	64.4615	35.8887	64.2797	35.8887	64.732	35.8887	64.5938	35.8887	64.9295	35.8887	64.8376	35.8887	65.0435	35.8887	64.9979	35.8887	65.0671
37.3535	63.2408	37.3535	63.1932	37.3535	63.2967	37.3535	63.1619	37.3535	63.3558	37.3535	63.1571	37.3535	63.4168	37.3535	63.1898	37.3535	63.4821	37.3535	63.2705	37.3535	63.5581	37.3535	63.407	37.3535	63.6547	37.3535	63.603	37.3535	63.7837	37.3535	63.8565	37.3535	63.9563	37.3535	64.1595	37.3535	64.1797	37.3535	64.499	37.3535	64.4538	37.3535	64.8582	37.3535	64.7696	37.3535	65.2184	37.3535	65.1099	37.3535	65.5606	37.3535	65.4521	37.3535	65.8668	37.3535	65.772	37.3535	66.1209	37.3535	66.0475	37.3535	66.3094	37.3535	66.2603	37.3535	66.4221	37.3535	66.3977	37.3535	66.4524
38.8184	64.8699	38.8184	64.824	38.8184	64.9248	38.8184	64.7941	38.8184	64.9845	38.8184	64.789	38.8184	65.0474	38.8184	64.818	38.8184	65.1155	38.8184	64.8901	38.8184	65.194	38.8184	65.0123	38.8184	65.2909	38.8184	65.1879	38.8184	65.4158	38.8184	65.4157	38.8184	65.5779	38.8184	65.6893	38.8184	65.7833	38.8184	65.9977	38.8184	66.032	38.8184	66.3261	38.8184	66.3166	38.8184	66.6578	38.8184	66.6225	38.8184	66.9751	38.8184	66.9302	38.8184	67.2611	38.8184	67.218	38.8184	67.5004	38.8184	67.4658	38.8184	67.68	38.8184	67.6566	38.8184	67.7897	38.8184	67.7781	38.8184	67.8232
39.5508	65.5895	39.5508	65.5427	39.5508	65.6454	39.5508	65.5116	39.5508	65.7062	39.5508	65.5043	39.5508	65.7705	39.5508	65.5299	39.5508	65.8401	39.5508	65.5969	39.5508	65.9197	39.5508	65.712	39.5508	66.0168	39.5508	65.8787	39.5508	66.1401	39.5508	66.096	39.5508	66.2982	39.5508	66.3582	39.5508	66.4967	39.5508	66.655	39.5508	66.7355	39.5508	66.9723	39.5508	67.008	39.5508	67.294	39.5508	67.3004	39.5508	67.603	39.5508	67.5943	39.5508	67.8826	39.5508	67.8692	39.5508	68.1176	39.5508	68.1054	39.5508	68.295	39.5508	68.2867	39.5508	68.405	39.5508	68.4009	39.5508	68.4411
41.0156	66.9109	41.0156	66.8689	41.0156	66.965	41.0156	66.8446	41.0156	67.0273	41.0156	66.8451	41.0156	67.0963	41.0156	66.878	41.0156	67.1731	41.0156	66.9501	41.0156	67.2613	41.0156	67.0667	41.0156	67.3664	41.0156	67.2303	41.0156	67.4954	41.0156	67.4394	41.0156	67.6547	41.0156	67.6886	41.0156	67.8483	41.0156	67.9685	41.0156	68.0759	41.0156	68.2666	41.0156	68.3313	41.0156	68.5683	41.0156	68.6027	41.0156	68.858	41.0156	68.8738	41.0156	69.1204	41.0156	69.1268	41.0156	69.3414	41.0156	69.3438	41.0156	69.5089	41.0156	69.5099	41.0156	69.6135	41.0156	69.614	41.0156	69.6492
42.4805	68.8611	42.4805	68.8264	42.4805	68.9094	42.4805	68.8097	42.4805	68.9683	42.4805	68.8165	42.4805	69.0365	42.4805	68.8524	42.4805	69.1146	42.4805	68.9226	42.4805	69.2054	42.4805	69.0312	42.4805	69.3129	42.4805	69.18	42.4805	69.442	42.4805	69.3678	42.4805	69.5973	42.4805	69.5906	42.4805	69.7812	42.4805	69.8406	42.4805	69.9928	42.4805	70.1078	42.4805	70.2261	42.4805	70.3796	42.4805	70.4711	42.4805	70.6425	42.4805	70.7136	42.4805	70.8827	42.4805	70.938	42.4805	71.0872	42.4805	71.1289	42.4805	71.2446	42.4805	71.273	42.4805	71.346	42.4805	71.3605	42.4805	71.3854
43.9453	70.3211	43.9453	70.2848	43.9453	70.3699	43.9453	70.2651	43.9453	70.4288	43.9453	70.2663	43.9453	70.4965	43.9453	70.2935	43.9453	70.5733	43.9453	70.3512	43.9453	70.6611	43.9453	70.443	43.9453	70.7629	43.9453	70.5708	43.9453	70.8827	43.9453	70.734	43.9453	71.0239	43.9453	70.9296	43.9453	71.1885	43.9453	71.1513	43.9453	71.3756	43.9453	71.3904	43.9453	71.5806	43.9453	71.6359	43.9453	71.7947	43.9453	71.8757	43.9453	72.0062	43.9453	72.0969	43.9453	72.2014	43.9453	72.2873	43.9453	72.3666	43.9453	72.4361	43.9453	72.4898	43.9453	72.5348	43.9453	72.562	43.9453	72.5775
45.4102	71.6842	45.4102	71.6495	45.4102	71.7318	45.4102	71.6309	45.4102	71.7901	45.4102	71.6323	45.4102	71.8578	45.4102	71.6577	45.4102	71.9351	45.4102	71.7109	45.4102	72.0233	45.4102	71.7949	45.4102	72.1244	45.4102	71.9114	45.4102	72.2414	45.4102	72.0599	45.4102	72.3768	45.4102	72.2379	45.4102	72.5316	45.4102	72.4401	45.4102	72.7049	45.4102	72.6589	45.4102	72.8923	45.4102	72.8846	45.4102	73.0862	45.4102	73.1062	45.4102	73.2763	45.4102	73.3121	45.4102	73.4506	45.4102	73.4909	45.4102	73.5969	45.4102	73.6324	45.4102	73.7043	45.4102	73.7283	45.4102	73.7648	45.4102	73.7732
47.6074	73.3289	47.6074	73.294	47.6074	73.3768	47.6074	73.2747	47.6074	73.4358	47.6074	73.274	47.6074	73.5048	47.6074	73.2951	47.6074	73.5834	47.6074	73.3408	47.6074	73.6722	47.6074	73.4137	47.6074	73.7723	47.6074	73.5149	47.6074	73.8854	47.6074	73.6444	47.6074	74.0127	47.6074	73.8	47.6074	74.1546	47.6074	73.9776	47.6074	74.3098	47.6074	74.1711	47.6074	74.4744	47.6074	74.3722	47.6074	74.6421	47.6074	74.5716	47.6074	74.8043	47.6074	74.7589	47.6074	74.951	47.6074	74.9238	47.6074	75.0719	47.6074	75.057	47.6074	75.1579	47.6074	75.1508	47.6074	75.202	47.6074	75.1999
49.0723	74.1874	49.0723	74.1521	49.0723	74.2357	49.0723	74.1322	49.0723	74.2955	49.0723	74.1302	49.0723	74.3655	49.0723	74.1486	49.0723	74.4452	49.0723	74.1898	49.0723	74.5346	49.0723	74.2559	49.0723	74.6343	49.0723	74.3479	49.0723	74.7451	49.0723	74.4656	49.0723	74.8676	49.0723	74.6074	49.0723	75.0017	49.0723	74.7697	49.0723	75.1456	49.0723	74.9472	49.0723	75.296	49.0723	75.1327	49.0723	75.4472	49.0723	75.3178	49.0723	75.5917	49.0723	75.493	49.0723	75.7206	49.0723	75.6489	49.0723	75.8251	49.0723	75.7767	49.0723	75.897	49.0723	75.8691	49.0723	75.9302	49.0723	75.9211
50.5371	74.8087	50.5371	74.7732	50.5371	74.8573	50.5371	74.7528	50.5371	74.9174	50.5371	74.7496	50.5371	74.988	50.5371	74.7657	50.5371	75.0682	50.5371	74.8032	50.5371	75.1577	50.5371	74.8636	50.5371	75.2567	50.5371	74.9478	50.5371	75.3652	50.5371	75.0557	50.5371	75.4834	50.5371	75.1859	50.5371	75.6106	50.5371	75.3353	50.5371	75.7451	50.5371	75.4992	50.5371	75.8835	50.5371	75.6714	50.5371	76.0209	50.5371	75.844	50.5371	76.1505	50.5371	76.0087	50.5371	76.2645	50.5371	76.1566	50.5371	76.3552	50.5371	76.2795	50.5371	76.4153	50.5371	76.3706	50.5371	76.4395	50.5371	76.4247
52.7344	75.3859	52.7344	75.3496	52.7344	75.4352	52.7344	75.3278	52.7344	75.4961	52.7344	75.3222	52.7344	75.5673	52.7344	75.3344	52.7344	75.6479	52.7344	75.3658	52.7344	75.7371	52.7344	75.4176	52.7344	75.8342	52.7344	75.4905	52.7344	75.9388	52.7344	75.5843	52.7344	76.05	52.7344	75.6979	52.7344	76.1668	52.7344	75.8289	52.7344	76.2874	52.7344	75.9736	52.7344	76.4085	52.7344	76.1266	52.7344	76.526	52.7344	76.2816	52.7344	76.6343	52.7344	76.4312	52.7344	76.7272	52.7344	76.5676	52.7344	76.7981	52.7344	76.6834	52.7344	76.8414	52.7344	76.7723	52.7344	76.8527	52.7344	76.8296
54.1992	75.6242	54.1992	75.5877	54.1992	75.6735	54.1992	75.5656	54.1992	75.7345	54.1992	75.559	54.1992	75.8058	54.1992	75.5693	54.1992	75.8863	54.1992	75.5977	54.1992	75.975	54.1992	75.645	54.1992	76.0709	54.1992	75.7117	54.1992	76.173	54.1992	75.7978	54.1992	76.2803	54.1992	75.9022	54.1992	76.3914	54.1992	76.0228	54.1992	76.5042	54.1992	76.1564	54.1992	76.6158	54.1992	76.2984	54.1992	76.7223	54.1992	76.443	54.1992	76.8189	54.1992	76.5836	54.1992	76.8999	54.1992	76.713	54.1992	76.9599	54.1992	76.8244	54.1992	76.9937	54.1992	76.9117	54.1992	76.9978	54.1992	76.9704
56.3965	75.8065	56.3965	75.7688	56.3965	75.8569	56.3965	75.7449	56.3965	75.9189	56.3965	75.7357	56.3965	75.9911	56.3965	75.7423	56.3965	76.0721	56.3965	75.7654	56.3965	76.1607	56.3965	75.8056	56.3965	76.2553	56.3965	75.8631	56.3965	76.3544	56.3965	75.9379	56.3965	76.4564	56.3965	76.0292	56.3965	76.5596	56.3965	76.1353	56.3965	76.6616	56.3965	76.2536	56.3965	76.7597	56.3965	76.3805	56.3965	76.8506	56.3965	76.5112	56.3965	76.9301	56.3965	76.6399	56.3965	76.9939	56.3965	76.7604	56.3965	77.0375	56.3965	76.8666	56.3965	77.057	56.3965	76.9529	56.3965	77.0499	56.3965	77.0149
58.5938	75.7711	58.5938	75.7289	58.5938	75.8259	58.5938	75.7005	58.5938	75.892	58.5938	75.6865	58.5938	75.9682	58.5938	75.6878	58.5938	76.0525	58.5938	75.7048	58.5938	76.1433	58.5938	75.7378	58.5938	76.2386	58.5938	75.7872	58.5938	76.3362	58.5938	75.8526	58.5938	76.4342	58.5938	75.9335	58.5938	76.5304	58.5938	76.0285	58.5938	76.6225	58.5938	76.1356	58.5938	76.708	58.5938	76.2516	58.5938	76.7841	58.5938	76.3724	58.5938	76.8475	58.5938	76.4931	58.5938	76.8947	58.5938	76.6081	58.5938	76.9225	58.5938	76.7119	58.5938	76.928	58.5938	76.7993	58.5938	76.9093	58.5938	76.866
60.0586	75.731	60.0586	75.694	60.0586	75.7811	60.0586	75.6709	60.0586	75.8432	60.0586	75.6623	60.0586	75.9161	60.0586	75.6684	60.0586	75.9979	60.0586	75.6894	60.0586	76.0869	60.0586	75.7255	60.0586	76.1809	60.0586	75.7764	60.0586	76.2777	60.0586	75.8418	60.0586	76.375	60.0586	75.921	60.0586	76.4705	60.0586	76.0127	60.0586	76.5618	60.0586	76.1149	60.0586	76.6462	60.0586	76.2249	60.0586	76.721	60.0586	76.3389	60.0586	76.783	60.0586	76.4525	60.0586	76.8291	60.0586	76.5608	60.0586	76.8562	60.0586	76.6585	60.0586	76.8618	60.0586	76.7407	60.0586	76.8444	60.0586	76.8036
62.2559	75.924	62.2559	75.8861	62.2559	75.9742	62.2559	75.861	62.2559	76.0356	62.2559	75.8491	62.2559	76.107	62.2559	75.8505	62.2559	76.1866	62.2559	75.8652	62.2559	76.2724	62.2559	75.8931	62.2559	76.3622	62.2559	75.934	62.2559	76.4534	62.2559	75.9876	62.2559	76.5435	62.2559	76.0534	62.2559	76.6301	62.2559	76.1306	62.2559	76.7105	62.2559	76.2178	62.2559	76.7822	62.2559	76.3129	62.2559	76.8429	62.2559	76.4132	62.2559	76.8899	62.2559	76.5151	62.2559	76.9209	62.2559	76.6144	62.2559	76.9338	62.2559	76.7066	62.2559	76.9269	62.2559	76.7873	62.2559	76.8997	62.2559	76.8526
64.4531	75.953	64.4531	75.9138	64.4531	76.004	64.4531	75.887	64.4531	76.066	64.4531	75.8729	64.4531	76.1376	64.4531	75.8712	64.4531	76.217	64.4531	75.882	64.4531	76.3019	64.4531	75.9048	64.4531	76.3897	64.4531	75.9394	64.4531	76.4779	64.4531	75.9854	64.4531	76.5636	64.4531	76.0425	64.4531	76.6442	64.4531	76.1101	64.4531	76.7169	64.4531	76.1871	64.4531	76.7795	64.4531	76.2721	64.4531	76.8297	64.4531	76.3629	64.4531	76.8655	64.4531	76.4565	64.4531	76.8852	64.4531	76.5494	64.4531	76.8873	64.4531	76.6376	64.4531	76.871	64.4531	76.7172	64.4531	76.8364	64.4531	76.7845
66.6504	76.0162	66.6504	75.9749	66.6504	76.0691	66.6504	75.9455	66.6504	76.1326	66.6504	75.9282	66.6504	76.2052	66.6504	75.9228	66.6504	76.2851	66.6504	75.9288	66.6504	76.3699	66.6504	75.9461	66.6504	76.4567	66.6504	75.9741	66.6504	76.5427	66.6504	76.0127	66.6504	76.6248	66.6504	76.0614	66.6504	76.7002	66.6504	76.1199	66.6504	76.7661	66.6504	76.1877	66.6504	76.8203	66.6504	76.2636	66.6504	76.8606	66.6504	76.3461	66.6504	76.8856	66.6504	76.4329	66.6504	76.8939	66.6504	76.521	66.6504	76.8849	66.6504	76.607	66.6504	76.8586	66.6504	76.6871	66.6504	76.8157	66.6504	76.7577
69.5801	76.1293	69.5801	76.0844	69.5801	76.1849	69.5801	76.0506	69.5801	76.2501	69.5801	76.0278	69.5801	76.3235	69.5801	76.0159	69.5801	76.4031	69.5801	76.0143	69.5801	76.4861	69.5801	76.0225	69.5801	76.5697	69.5801	76.0403	69.5801	76.6507	69.5801	76.0674	69.5801	76.7257	69.5801	76.1036	69.5801	76.7918	69.5801	76.1489	69.5801	76.8463	69.5801	76.2032	69.5801	76.8871	69.5801	76.266	69.5801	76.9124	69.5801	76.3365	69.5801	76.9214	69.5801	76.4132	69.5801	76.9136	69.5801	76.4939	69.5801	76.8892	69.5801	76.5758	69.5801	76.8493	69.5801	76.6557	69.5801	76.7955	69.5801	76.73
71.7773	76.2242	71.7773	76.1795	71.7773	76.279	71.7773	76.1453	71.7773	76.3431	71.7773	76.1216	71.7773	76.415	71.7773	76.108	71.7773	76.4926	71.7773	76.1039	71.7773	76.5732	71.7773	76.1088	71.7773	76.6537	71.7773	76.1223	71.7773	76.731	71.7773	76.1441	71.7773	76.8017	71.7773	76.1742	71.7773	76.8628	71.7773	76.2127	71.7773	76.9115	71.7773	76.2597	71.7773	76.9459	71.7773	76.315	71.7773	76.9646	71.7773	76.3783	71.7773	76.9667	71.7773	76.4484	71.7773	76.9523	71.7773	76.5236	71.7773	76.922	71.7773	76.6015	71.7773	76.8773	71.7773	76.679	71.7773	76.8201	71.7773	76.753
73.9746	76.3059	73.9746	76.2611	73.9746	76.361	73.9746	76.2269	73.9746	76.4254	73.9746	76.203	73.9746	76.4976	73.9746	76.1889	73.9746	76.5754	73.9746	76.1841	73.9746	76.656	73.9746	76.1878	73.9746	76.7363	73.9746	76.1994	73.9746	76.8129	73.9746	76.2187	73.9746	76.8822	73.9746	76.2454	73.9746	76.9411	73.9746	76.2799	73.9746	76.9868	73.9746	76.3222	73.9746	77.0173	73.9746	76.3726	73.9746	77.0313	73.9746	76.4309	73.9746	77.0282	73.9746	76.4963	73.9746	77.0083	73.9746	76.5677	73.9746	76.9729	73.9746	76.6429	73.9746	76.9236	73.9746	76.7193	73.9746	76.8629	73.9746	76.7938
76.9043	76.4683	76.9043	76.4208	76.9043	76.5256	76.9043	76.3832	76.9043	76.5915	76.9043	76.3556	76.9043	76.6645	76.9043	76.3374	76.9043	76.7423	76.9043	76.3278	76.9043	76.8218	76.9043	76.326	76.9043	76.8998	76.9043	76.3316	76.9043	76.9727	76.9043	76.3441	76.9043	77.0369	76.9043	76.3635	76.9043	77.0894	76.9043	76.39	76.9043	77.1273	76.9043	76.4241	76.9043	77.1488	76.9043	76.4662	76.9043	77.1529	76.9043	76.5167	76.9043	77.1395	76.9043	76.5755	76.9043	77.1093	76.9043	76.6416	76.9043	77.0642	76.9043	76.7137	76.9043	77.0065	76.9043	76.7894	76.9043	76.9392	76.9043	76.8656
79.834	76.6107	79.834	76.5617	79.834	76.6693	79.834	76.5229	79.834	76.7366	79.834	76.494	79.834	76.8107	79.834	76.4745	79.834	76.8894	79.834	76.4636	79.834	76.9695	79.834	76.4605	79.834	77.0477	79.834	76.4644	79.834	77.1201	79.834	76.475	79.834	77.1834	79.834	76.492	79.834	77.2341	79.834	76.5158	79.834	77.2694	79.834	76.5467	79.834	77.2876	79.834	76.5855	79.834	77.2877	79.834	76.6326	79.834	77.2696	79.834	76.6883	79.834	77.2345	79.834	76.7521	79.834	77.1845	79.834	76.8227	79.834	77.1224	79.834	76.8981	79.834	77.0515	79.834	76.9755
82.7637	76.8785	82.7637	76.8265	82.7637	76.9386	82.7637	76.783	82.7637	77.0057	82.7637	76.7478	82.7637	77.0781	82.7637	76.7206	82.7637	77.1533	82.7637	76.7006	82.7637	77.2284	82.7637	76.6872	82.7637	77.3	82.7637	76.6797	82.7637	77.3646	82.7637	76.678	82.7637	77.4185	82.7637	76.682	82.7637	77.4586	82.7637	76.6925	82.7637	77.4821	82.7637	76.7102	82.7637	77.4875	82.7637	76.7364	82.7637	77.474	82.7637	76.772	82.7637	77.4421	82.7637	76.818	82.7637	77.3934	82.7637	76.8746	82.7637	77.3307	82.7637	76.941	82.7637	77.2574	82.7637	77.0156	82.7637	77.1776	82.7637	77.0956
85.6934	77.1197	85.6934	77.0684	85.6934	77.1769	85.6934	77.0233	85.6934	77.2392	85.6934	76.9842	85.6934	77.3048	85.6934	76.9506	85.6934	77.3715	85.6934	76.9217	85.6934	77.4363	85.6934	76.8968	85.6934	77.496	85.6934	76.8754	85.6934	77.547	85.6934	76.8574	85.6934	77.5859	85.6934	76.8432	85.6934	77.6096	85.6934	76.8339	85.6934	77.6157	85.6934	76.8311	85.6934	77.603	85.6934	76.8365	85.6934	77.5712	85.6934	76.8525	85.6934	77.5216	85.6934	76.8806	85.6934	77.4565	85.6934	76.9222	85.6934	77.3795	85.6934	76.9774	85.6934	77.295	85.6934	77.0452	85.6934	77.208	85.6934	77.1232
88.623	77.3613	88.623	77.3051	88.623	77.4246	88.623	77.2564	88.623	77.494	88.623	77.2151	88.623	77.5677	88.623	77.1805	88.623	77.6429	88.623	77.1518	88.623	77.7166	88.623	77.1282	88.623	77.7851	88.623	77.1091	88.623	77.8444	88.623	77.0943	88.623	77.8909	88.623	77.0843	88.623	77.9212	88.623	77.08	88.623	77.9327	88.623	77.0829	88.623	77.9238	88.623	77.0949	88.623	77.8944	88.623	77.118	88.623	77.8454	88.623	77.1538	88.623	77.7793	88.623	77.2033	88.623	77.6998	88.623	77.2666	88.623	77.6113	88.623	77.3422	88.623	77.5188	88.623	77.4276
91.5527	77.3532	91.5527	77.2982	91.5527	77.418	91.5527	77.2535	91.5527	77.4914	91.5527	77.2188	91.5527	77.5714	91.5527	77.1933	91.5527	77.6554	91.5527	77.1762	91.5527	77.7398	91.5527	77.1661	91.5527	77.8209	91.5527	77.1623	91.5527	77.8944	91.5527	77.1639	91.5527	77.9562	91.5527	77.171	91.5527	78.0027	91.5527	77.1838	91.5527	78.0307	91.5527	77.2033	91.5527	78.0383	91.5527	77.2308	91.5527	78.0246	91.5527	77.2677	91.5527	77.99	91.5527	77.3154	91.5527	77.9366	91.5527	77.3744	91.5527	77.8674	91.5527	77.4444	91.5527	77.7868	91.5527	77.5239	91.5527	77.6994	91.5527	77.6102
94.4824	77.4847	94.4824	77.432	94.4824	77.5465	94.4824	77.3887	94.4824	77.616	94.4824	77.3547	94.4824	77.6916	94.4824	77.3297	94.4824	77.7707	94.4824	77.3127	94.4824	77.8502	94.4824	77.3029	94.4824	77.9268	94.4824	77.2995	94.4824	77.9967	94.4824	77.3019	94.4824	78.0561	94.4824	77.3099	94.4824	78.1016	94.4824	77.324	94.4824	78.1302	94.4824	77.3448	94.4824	78.1398	94.4824	77.3735	94.4824	78.1293	94.4824	77.4112	94.4824	78.0992	94.4824	77.4591	94.4824	78.0509	94.4824	77.5174	94.4824	77.9872	94.4824	77.5857	94.4824	77.912	94.4824	77.6625	94.4824	77.8298	94.4824	77.7451
98.1445	77.9822	98.1445	77.93	98.1445	78.039	98.1445	77.8825	98.1445	78.0995	98.1445	77.8396	98.1445	78.1623	98.1445	77.8004	98.1445	78.2251	98.1445	77.7641	98.1445	78.285	98.1445	77.73	98.1445	78.3387	98.1445	77.6975	98.1445	78.3827	98.1445	77.6668	98.1445	78.4135	98.1445	77.6384	98.1445	78.4278	98.1445	77.6137	98.1445	78.4232	98.1445	77.5949	98.1445	78.3984	98.1445	77.5846	98.1445	78.3531	98.1445	77.5857	98.1445	78.289	98.1445	77.6011	98.1445	78.2089	98.1445	77.6329	98.1445	78.1172	98.1445	77.6822	98.1445	78.0195	98.1445	77.7485	98.1445	77.9217	98.1445	77.8296
101.807	78.2326	101.807	78.1803	101.807	78.2901	101.807	78.1338	101.807	78.3519	101.807	78.0927	101.807	78.4163	101.807	78.0564	101.807	78.4811	101.807	78.0242	101.807	78.5432	101.807	77.9951	101.807	78.5995	101.807	77.9686	101.807	78.6464	101.807	77.9444	101.807	78.6805	101.807	77.9229	101.807	78.6987	101.807	77.9051	101.807	78.6985	101.807	77.893	101.807	78.6785	101.807	77.8887	101.807	78.6386	101.807	77.895	101.807	78.58	101.807	77.9143	101.807	78.5056	101.807	77.9486	101.807	78.4194	101.807	77.999	101.807	78.3266	101.807	78.0649	101.807	78.233	101.807	78.1441
105.469	78.4629	105.469	78.4098	105.469	78.5213	105.469	78.3623	105.469	78.5837	105.469	78.3205	105.469	78.6483	105.469	78.2838	105.469	78.7127	105.469	78.2515	105.469	78.774	105.469	78.2228	105.469	78.829	105.469	78.1969	105.469	78.8742	105.469	78.1736	105.469	78.9064	105.469	78.153	105.469	78.9226	105.469	78.1363	105.469	78.9205	105.469	78.1248	105.469	78.8989	105.469	78.1209	105.469	78.8579	105.469	78.127	105.469	78.7987	105.469	78.1456	105.469	78.7243	105.469	78.1787	105.469	78.6387	105.469	78.2274	105.469	78.5472	105.469	78.2912	105.469	78.4552	105.469	78.3684
109.131	78.6992	109.131	78.6419	109.131	78.761	109.131	78.5899	109.131	78.8263	109.131	78.5431	109.131	78.893	109.131	78.5013	109.131	78.9589	109.131	78.4636	109.131	79.021	109.131	78.4295	109.131	79.076	109.131	78.3984	109.131	79.1204	109.131	78.3702	109.131	79.1511	109.131	78.3452	109.131	79.165	109.131	78.3245	109.131	79.1599	109.131	78.3098	109.131	79.1344	109.131	78.3036	109.131	79.0887	109.131	78.3085	109.131	79.024	109.131	78.3272	109.131	78.9436	109.131	78.3616	109.131	78.8516	109.131	78.4128	109.131	78.7535	109.131	78.4805	109.131	78.6552	109.131	78.5625
112.793	78.9732	112.793	78.9153	112.793	79.0354	112.793	78.8624	112.793	79.1007	112.793	78.8144	112.793	79.1673	112.793	78.771	112.793	79.2326	112.793	78.7315	112.793	79.2938	112.793	78.6951	112.793	79.3476	112.793	78.6612	112.793	79.3905	112.793	78.6299	112.793	79.4193	112.793	78.6015	112.793	79.431	112.793	78.5772	112.793	79.4234	112.793	78.5589	112.793	79.3951	112.793	78.5493	112.793	79.3463	112.793	78.5512	112.793	79.2784	112.793	78.5674	112.793	79.1945	112.793	78.6002	112.793	79.0991	112.793	78.6507	112.793	78.9978	112.793	78.7187	112.793	78.8968	112.793	78.802
116.455	79.1741	116.455	79.1143	116.455	79.2378	116.455	79.0593	116.455	79.3041	116.455	79.0093	116.455	79.3711	116.455	78.9639	116.455	79.4364	116.455	78.9227	116.455	79.4971	116.455	78.885	116.455	79.5503	116.455	78.8505	116.455	79.5926	116.455	78.8189	116.455	79.6208	116.455	78.7907	116.455	79.6323	116.455	78.7671	116.455	79.6247	116.455	78.75	116.455	79.5968	116.455	78.7419	116.455	79.5486	116.455	78.7455	116.455	79.4814	116.455	78.7636	116.455	79.3981	116.455	78.7983	116.455	79.3031	116.455	78.8506	116.455	79.2019	116.455	78.9202	116.455	79.1004	116.455	79.0048
120.85	79.5184	120.85	79.4604	120.85	79.5785	120.85	79.4056	120.85	79.6393	120.85	79.3546	120.85	79.6989	120.85	79.3075	120.85	79.755	120.85	79.264	120.85	79.8052	120.85	79.2238	120.85	79.8469	120.85	79.1866	120.85	79.8774	120.85	79.1524	120.85	79.8945	120.85	79.1217	120.85	79.896	120.85	79.0955	120.85	79.8805	120.85	79.0757	120.85	79.8471	120.85	79.0643	120.85	79.7963	120.85	79.064	120.85	79.7296	120.85	79.0772	120.85	79.6496	120.85	79.1059	120.85	79.5604	120.85	79.1511	120.85	79.4668	120.85	79.2123	120.85	79.3742	120.85	79.2878
125.244	79.8249	125.244	79.7593	125.244	79.8915	125.244	79.696	125.244	79.9573	125.244	79.6361	125.244	80.0203	125.244	79.5801	125.244	80.078	125.244	79.5281	125.244	80.1279	125.244	79.4803	125.244	80.1674	125.244	79.4368	125.244	80.1941	125.244	79.3976	125.244	80.2057	125.244	79.3635	125.244	80.2005	125.244	79.3354	125.244	80.1772	125.244	79.3149	125.244	80.1356	125.244	79.3039	125.244	80.0766	125.244	79.3046	125.244	80.0019	125.244	79.3191	125.244	79.9149	125.244	79.3493	125.244	79.8198	125.244	79.396	125.244	79.7215	125.244	79.4589	125.244	79.6253	125.244	79.5364
129.639	80.0376	129.639	79.971	129.639	80.1045	129.639	79.9059	129.639	80.1701	129.639	79.843	129.639	80.2325	129.639	79.7828	129.639	80.2891	129.639	79.7255	129.639	80.3375	129.639	79.6713	129.639	80.3749	129.639	79.6204	129.639	80.3987	129.639	79.5734	129.639	80.4064	129.639	79.5312	129.639	80.3961	129.639	79.4952	129.639	80.3666	129.639	79.4673	129.639	80.3178	129.639	79.4497	129.639	80.2506	129.639	79.4449	129.639	80.1675	129.639	79.4551	129.639	80.072	129.639	79.4823	129.639	79.969	129.639	79.5274	129.639	79.8639	129.639	79.5905	129.639	79.7624	129.639	79.6698
134.033	80.1187	134.033	80.0547	134.033	80.1842	134.033	79.9931	134.033	80.25	134.033	79.9341	134.033	80.3141	134.033	79.8776	134.033	80.3739	134.033	79.8231	134.033	80.4267	134.033	79.7702	134.033	80.4693	134.033	79.7186	134.033	80.4985	134.033	79.6687	134.033	80.5113	134.033	79.6213	134.033	80.5051	134.033	79.5781	134.033	80.4779	134.033	79.5418	134.033	80.429	134.033	79.5152	134.033	80.359	134.033	79.5019	134.033	80.2701	134.033	79.5053	134.033	80.1663	134.033	79.5283	134.033	80.0531	134.033	79.5725	134.033	79.937	134.033	79.6381	134.033	79.825	134.033	79.7235
138.428	80.3995	138.428	80.3355	138.428	80.4662	138.428	80.2756	138.428	80.5341	138.428	80.2205	138.428	80.6011	138.428	80.1706	138.428	80.6649	138.428	80.1258	138.428	80.7232	138.428	80.0859	138.428	80.7735	138.428	80.0507	138.428	80.8133	138.428	80.0201	138.428	80.8402	138.428	79.9946	138.428	80.8517	138.428	79.9752	138.428	80.8458	138.428	79.9635	138.428	80.8213	138.428	79.9616	138.428	80.7775	138.428	79.9718	138.428	80.7153	138.428	79.9963	138.428	80.6371	138.428	80.0368	138.428	80.5464	138.428	80.0939	138.428	80.4484	138.428	80.1668	138.428	80.3487	138.428	80.2531
143.555	80.7588	143.555	80.6827	143.555	80.8325	143.555	80.606	143.555	80.9014	143.555	80.5305	143.555	80.9634	143.555	80.4574	143.555	81.0162	143.555	80.3878	143.555	81.0577	143.555	80.3226	143.555	81.0862	143.555	80.2624	143.555	81.1	143.555	80.2084	143.555	81.098	143.555	80.1616	143.555	81.0795	143.555	80.1238	143.555	81.0441	143.555	80.0968	143.555	80.9921	143.555	80.0828	143.555	80.9243	143.555	80.0837	143.555	80.8425	143.555	80.1015	143.555	80.7494	143.555	80.1372	143.555	80.6486	143.555	80.1908	143.555	80.5446	143.555	80.2613	143.555	80.4422	143.555	80.3463
148.682	80.9492	148.682	80.8683	148.682	81.0268	148.682	80.7864	148.682	81.0988	148.682	80.7052	148.682	81.1627	148.682	80.6261	148.682	81.2162	148.682	80.5504	148.682	81.257	148.682	80.4791	148.682	81.283	148.682	80.4131	148.682	81.2924	148.682	80.3533	148.682	81.2842	148.682	80.301	148.682	81.2574	148.682	80.2578	148.682	81.212	148.682	80.2255	148.682	81.1485	148.682	80.2062	148.682	81.0686	148.682	80.2019	148.682	80.9749	148.682	80.2145	148.682	80.8708	148.682	80.2453	148.682	80.7608	148.682	80.2948	148.682	80.6501	148.682	80.3624	148.682	80.5436	148.682	80.4464
153.809	81.1109	153.809	81.0336	153.809	81.1847	153.809	80.9547	153.809	81.2532	153.809	80.8758	153.809	81.3142	153.809	80.7981	153.809	81.3657	153.809	80.723	153.809	81.4057	153.809	80.6514	153.809	81.4324	153.809	80.5845	153.809	81.4441	153.809	80.5237	153.809	81.4396	153.809	80.4706	153.809	81.4178	153.809	80.427	153.809	81.3782	153.809	80.3952	153.809	81.321	153.809	80.3773	153.809	81.2472	153.809	80.3754	153.809	81.1589	153.809	80.3912	153.809	81.0591	153.809	80.4257	153.809	80.9521	153.809	80.4791	153.809	80.8426	153.809	80.5502	153.809	80.7359	153.809	80.6369
159.668	81.337	159.668	81.255	159.668	81.4146	159.668	81.1708	159.668	81.4856	159.668	81.0865	159.668	81.5477	159.668	81.0039	159.668	81.599	159.668	80.9245	159.668	81.6376	159.668	80.8498	159.668	81.6623	159.668	80.7813	159.668	81.6718	159.668	80.7204	159.668	81.6654	159.668	80.6689	159.668	81.6426	159.668	80.6287	159.668	81.6032	159.668	80.6017	159.668	81.5476	159.668	80.5899	159.668	81.4766	159.668	80.5948	159.668	81.392	159.668	80.6176	159.668	81.2962	159.668	80.6587	159.668	81.1929	159.668	80.7175	159.668	81.0863	159.668	80.7927	159.668	80.981	159.668	80.8817
164.795	81.5659	164.795	81.4829	164.795	81.6411	164.795	81.3943	164.795	81.7064	164.795	81.3021	164.795	81.7598	164.795	81.2083	164.795	81.7993	164.795	81.115	164.795	81.8236	164.795	81.0239	164.795	81.8314	164.795	80.9372	164.795	81.8221	164.795	80.8571	164.795	81.7953	164.795	80.7862	164.795	81.7515	164.795	80.7271	164.795	81.6911	164.795	80.6824	164.795	81.6156	164.795	80.6545	164.795	81.5266	164.795	80.6454	164.795	81.4267	164.795	80.6561	164.795	81.3191	164.795	80.6871	164.795	81.2076	164.795	80.7379	164.795	81.0963	164.795	80.807	164.795	80.9897	164.795	80.8919
170.654	81.6446	170.654	81.5607	170.654	81.7215	170.654	81.4721	170.654	81.789	170.654	81.3807	170.654	81.8451	170.654	81.2884	170.654	81.8877	170.654	81.1969	170.654	81.9151	170.654	81.1079	170.654	81.9259	170.654	81.0232	170.654	81.9193	170.654	80.9448	170.654	81.8948	170.654	80.8751	170.654	81.8525	170.654	80.8165	170.654	81.7928	170.654	80.7717	170.654	81.7169	170.654	80.7431	170.654	81.6265	170.654	80.7328	170.654	81.5243	170.654	80.7423	170.654	81.4138	170.654	80.7721	170.654	81.299	170.654	80.8219	170.654	81.1847	170.654	80.8907	170.654	81.0756	170.654	80.9763
176.514	81.7073	176.514	81.6173	176.514	81.7902	176.514	81.5229	176.514	81.8633	176.514	81.4263	176.514	81.9244	176.514	81.3299	176.514	81.9712	176.514	81.2357	176.514	82.002	176.514	81.1455	176.514	82.0155	176.514	81.0614	176.514	82.011	176.514	80.9853	176.514	81.9882	176.514	80.9196	176.514	81.9474	176.514	80.8664	176.514	81.8891	176.514	80.8282	176.514	81.8145	176.514	80.8069	176.514	81.7256	176.514	80.8041	176.514	81.6247	176.514	80.8209	176.514	81.5152	176.514	80.8573	176.514	81.401	176.514	80.9129	176.514	81.2866	176.514	80.9862	176.514	81.1765	176.514	81.0751
183.105	81.7362	183.105	81.6395	183.105	81.8247	183.105	81.5374	183.105	81.9025	183.105	81.4325	183.105	81.9673	183.105	81.3274	183.105	82.0173	183.105	81.2249	183.105	82.0513	183.105	81.1273	183.105	82.0684	183.105	81.0373	183.105	82.0682	183.105	80.9576	183.105	82.0507	183.105	80.8909	183.105	82.0161	183.105	80.84	183.105	81.9647	183.105	80.8073	183.105	81.8972	183.105	80.7947	183.105	81.8145	183.105	80.8035	183.105	81.7184	183.105	80.834	183.105	81.6111	183.105	80.8855	183.105	81.4961	183.105	80.9566	183.105	81.3773	183.105	81.0449	183.105	81.2594	183.105	81.1471
189.697	81.8744	189.697	81.7864	189.697	81.9513	189.697	81.69	189.697	82.015	189.697	81.5882	189.697	82.0636	189.697	81.4838	189.697	82.0962	189.697	81.3801	189.697	82.1123	189.697	81.2801	189.697	82.1123	189.697	81.1872	189.697	82.0972	189.697	81.1048	189.697	82.0682	189.697	81.0361	189.697	82.0268	189.697	80.9842	189.697	81.9742	189.697	80.9517	189.697	81.9112	189.697	80.9403	189.697	81.8387	189.697	80.9506	189.697	81.7574	189.697	80.9821	189.697	81.6683	189.697	81.0331	189.697	81.5729	189.697	81.1011	189.697	81.4734	189.697	81.1828	189.697	81.3728	189.697	81.2747
196.289	81.9664	196.289	81.8803	196.289	82.0391	196.289	81.7835	196.289	82.0959	196.289	81.6791	196.289	82.1353	196.289	81.5706	196.289	82.1562	196.289	81.4614	196.289	82.1589	196.289	81.3553	196.289	82.144	196.289	81.2561	196.289	82.1132	196.289	81.168	196.289	82.0689	196.289	81.0945	196.289	82.0135	196.289	81.0391	196.289	81.9496	196.289	81.0043	196.289	81.8791	196.289	80.9915	196.289	81.8037	196.289	81.0007	196.289	81.7242	196.289	81.0303	196.289	81.6415	196.289	81.0781	196.289	81.556	196.289	81.1406	196.289	81.4688	196.289	81.2143	196.289	81.3813	196.289	81.2956
202.881	82.0223	202.881	81.9385	202.881	82.0903	202.881	81.8419	202.881	82.1403	202.881	81.7355	202.881	82.1706	202.881	81.6232	202.881	82.1805	202.881	81.5087	202.881	82.1703	202.881	81.3962	202.881	82.1411	202.881	81.2904	202.881	82.0952	202.881	81.1955	202.881	82.0354	202.881	81.1158	202.881	81.965	202.881	81.055	202.881	81.8874	202.881	81.0154	202.881	81.8056	202.881	80.9979	202.881	81.722	202.881	81.0019	202.881	81.6384	202.881	81.0251	202.881	81.5558	202.881	81.0646	202.881	81.4748	202.881	81.1167	202.881	81.3959	202.881	81.1783	202.881	81.3195	202.881	81.2466
210.205	82.0083	210.205	81.923	210.205	82.0762	210.205	81.8224	210.205	82.1248	210.205	81.7096	210.205	82.1528	210.205	81.5876	210.205	82.1598	210.205	81.4604	210.205	82.1464	210.205	81.3325	210.205	82.1141	210.205	81.2092	210.205	82.0656	210.205	81.0964	210.205	82.0043	210.205	81.0001	210.205	81.9339	210.205	80.9258	210.205	81.8578	210.205	80.8775	210.205	81.7788	210.205	80.8573	210.205	81.6983	210.205	80.8648	210.205	81.6169	210.205	80.8976	210.205	81.5343	210.205	80.9513	210.205	81.4499	210.205	81.0208	210.205	81.3633	210.205	81.1008	210.205	81.2752	210.205	81.1868
217.529	82.0667	217.529	81.9741	217.529	82.14	217.529	81.8658	217.529	82.1909	217.529	81.7456	217.529	82.217	217.529	81.6176	217.529	82.2169	217.529	81.4858	217.529	82.1906	217.529	81.3548	217.529	82.1396	217.529	81.2292	217.529	82.0672	217.529	81.1143	217.529	81.9778	217.529	81.0152	217.529	81.8772	217.529	80.9365	217.529	81.7714	217.529	80.8817	217.529	81.6658	217.529	80.8525	217.529	81.5647	217.529	80.8486	217.529	81.4703	217.529	80.8675	217.529	81.3833	217.529	80.9051	217.529	81.3026	217.529	80.9566	217.529	81.2267	217.529	81.0176	217.529	81.1541	217.529	81.0841
225.586	82.0281	225.586	81.935	225.586	82.1002	225.586	81.8243	225.586	82.1483	225.586	81.7	225.586	82.1704	225.586	81.5666	225.586	82.1654	225.586	81.4291	225.586	82.1339	225.586	81.2929	225.586	82.0777	225.586	81.164	225.586	82.0003	225.586	81.0485	225.586	81.9069	225.586	80.9521	225.586	81.8034	225.586	80.8795	225.586	81.6961	225.586	80.8335	225.586	81.5908	225.586	80.8144	225.586	81.4919	225.586	80.8202	225.586	81.4017	225.586	80.8465	225.586	81.3209	225.586	80.8883	225.586	81.2481	225.586	80.94	225.586	81.1813	225.586	80.9972	225.586	81.1182	225.586	81.057
232.91	82.0788	232.91	81.9815	232.91	82.1517	232.91	81.8632	232.91	82.1974	232.91	81.7276	232.91	82.2137	232.91	81.5791	232.91	82.1994	232.91	81.423	232.91	82.1547	232.91	81.2654	232.91	82.0817	232.91	81.1133	232.91	81.9841	232.91	80.9747	232.91	81.8676	232.91	80.8573	232.91	81.7396	232.91	80.7677	232.91	81.6084	232.91	80.7099	232.91	81.4817	232.91	80.6846	232.91	81.3661	232.91	80.6892	232.91	81.2652	232.91	80.7176	232.91	81.1799	232.91	80.7627	232.91	81.108	232.91	80.8169	232.91	81.0456	232.91	80.8744	232.91	80.9881	232.91	80.9317
241.699	81.9215	241.699	81.8161	241.699	82.0056	241.699	81.6936	241.699	82.0647	241.699	81.5579	241.699	82.0952	241.699	81.413	241.699	82.0948	241.699	81.263	241.699	82.0627	241.699	81.1125	241.699	81.9994	241.699	80.9668	241.699	81.9079	241.699	80.8321	241.699	81.7929	241.699	80.715	241.699	81.661	241.699	80.6215	241.699	81.5201	241.699	80.5559	241.699	81.3781	241.699	80.5197	241.699	81.2426	241.699	80.5113	241.699	81.1192	241.699	80.5264	241.699	81.0109	241.699	80.5591	241.699	80.9183	241.699	80.6033	241.699	80.8394	241.699	80.6545	241.699	80.7713	241.699	80.7104
249.756	81.932	249.756	81.8074	249.756	82.0295	249.756	81.66	249.756	82.0963	249.756	81.4945	249.756	82.1296	249.756	81.3158	249.756	82.1275	249.756	81.1298	249.756	82.0896	249.756	80.943	249.756	82.0174	249.756	80.7629	249.756	81.9142	249.756	80.5979	249.756	81.7851	249.756	80.4564	249.756	81.6373	249.756	80.3456	249.756	81.4788	249.756	80.2705	249.756	81.3182	249.756	80.2324	249.756	81.1631	249.756	80.2288	249.756	81.0193	249.756	80.254	249.756	80.8903	249.756	80.3006	249.756	80.7766	249.756	80.3614	249.756	80.6767	249.756	80.4309	249.756	80.5877	249.756	80.5064
258.545	81.8539	258.545	81.7409	258.545	81.9426	258.545	81.6077	258.545	82.0031	258.545	81.4588	258.545	82.0321	258.545	81.2986	258.545	82.0275	258.545	81.1321	258.545	81.9885	258.545	80.9652	258.545	81.916	258.545	80.8046	258.545	81.8131	258.545	80.658	258.545	81.6852	258.545	80.533	258.545	81.5396	258.545	80.4363	258.545	81.3851	258.545	80.3721	258.545	81.2309	258.545	80.341	258.545	81.0857	258.545	80.3398	258.545	80.9559	258.545	80.3625	258.545	80.8449	258.545	80.4015	258.545	80.753	258.545	80.4496	258.545	80.6773	258.545	80.5017	258.545	80.6132	258.545	80.5559
268.066	81.6515	268.066	81.5021	268.066	81.776	268.066	81.3325	268.066	81.8712	268.066	81.1476	268.066	81.9335	268.066	80.9521	268.066	81.96	268.066	80.7513	268.066	81.9495	268.066	80.5506	268.066	81.9019	268.066	80.3569	268.066	81.8189	268.066	80.1781	268.066	81.7036	268.066	80.0227	268.066	81.5606	268.066	79.8987	268.066	81.3959	268.066	79.812	268.066	81.2164	268.066	79.765	268.066	81.0295	268.066	79.7561	268.066	80.8429	268.066	79.7802	268.066	80.6632	268.066	79.831	268.066	80.4958	268.066	79.9021	268.066	80.3443	268.066	79.9897	268.066	80.2099	268.066	80.0921
277.588	81.4864	277.588	81.3684	277.588	81.5728	277.588	81.2219	277.588	81.626	277.588	81.0516	277.588	81.6462	277.588	80.8643	277.588	81.635	277.588	80.6685	277.588	81.5957	277.588	80.4752	277.588	81.5334	277.588	80.2967	277.588	81.4545	277.588	80.1462	277.588	81.3662	277.588	80.0352	277.588	81.276	277.588	79.9723	277.588	81.1899	277.588	79.9604	277.588	81.1119	277.588	79.9963	277.588	81.0429	277.588	80.0716	277.588	80.9811	277.588	80.1743	277.588	80.9226	277.588	80.2915	277.588	80.8625	277.588	80.4117	277.588	80.796	277.588	80.5261	277.588	80.7191	277.588	80.6293
287.109	81.5076	287.109	81.4146	287.109	81.567	287.109	81.2898	287.109	81.5917	287.109	81.1355	287.109	81.5808	287.109	80.9548	287.109	81.5351	287.109	80.7529	287.109	81.4573	287.109	80.538	287.109	81.3524	287.109	80.3216	287.109	81.2281	287.109	80.1186	287.109	81.0942	287.109	79.9459	287.109	80.9614	287.109	79.8189	287.109	80.8393	287.109	79.748	287.109	80.7344	287.109	79.7356	287.109	80.6489	287.109	79.7754	287.109	80.5804	287.109	79.8544	287.109	80.5228	287.109	79.9563	287.109	80.4689	287.109	80.0658	287.109	80.4115	287.109	80.1711	287.109	80.3448	287.109	80.265
297.363	81.4705	297.363	81.3589	297.363	81.5491	297.363	81.2193	297.363	81.5896	297.363	81.056	297.363	81.5871	297.363	80.8723	297.363	81.5384	297.363	80.6718	297.363	81.443	297.363	80.4591	297.363	81.3042	297.363	80.2414	297.363	81.1298	297.363	80.029	297.363	80.9324	297.363	79.8352	297.363	80.7288	297.363	79.6743	297.363	80.5373	297.363	79.5592	297.363	80.3736	297.363	79.4975	297.363	80.247	297.363	79.4895	297.363	80.1572	297.363	79.5279	297.363	80.0953	297.363	79.5997	297.363	80.0476	297.363	79.6898	297.363	80.0002	297.363	79.7836	297.363	79.9427	297.363	79.8701
307.617	81.3164	307.617	81.1716	307.617	81.429	307.617	81.0015	307.617	81.5029	307.617	80.8132	307.617	81.5326	307.617	80.6134	307.617	81.5143	307.617	80.4092	307.617	81.4462	307.617	80.208	307.617	81.3298	307.617	80.0186	307.617	81.1701	307.617	79.8508	307.617	80.9765	307.617	79.7148	307.617	80.7631	307.617	79.6196	307.617	80.548	307.617	79.5702	307.617	80.351	307.617	79.5662	307.617	80.189	307.617	79.6011	307.617	80.0721	307.617	79.663	307.617	80.0005	307.617	79.7375	307.617	79.9644	307.617	79.8102	307.617	79.9482	307.617	79.8702	307.617	79.9351	307.617	79.9117
318.604	81.0963	318.604	80.975	318.604	81.1821	318.604	80.8223	318.604	81.2286	318.604	80.6428	318.604	81.2327	318.604	80.442	318.604	81.1926	318.604	80.2266	318.604	81.1086	318.604	80.0056	318.604	80.9832	318.604	79.7912	318.604	80.8224	318.604	79.5977	318.604	80.6355	318.604	79.4402	318.604	80.4352	318.604	79.3316	318.604	80.2366	318.604	79.2788	318.604	80.0554	318.604	79.2802	318.604	79.9051	318.604	79.3254	318.604	79.7939	318.604	79.398	318.604	79.723	318.604	79.4796	318.604	79.6858	318.604	79.5539	318.604	79.6703	318.604	79.6101	318.604	79.6613	318.604	79.6446
329.59	80.8929	329.59	80.7627	329.59	80.9871	329.59	80.6013	329.59	81.0409	329.59	80.4131	329.59	81.0502	329.59	80.2026	329.59	81.0125	329.59	79.9756	329.59	80.9274	329.59	79.7403	329.59	80.7977	329.59	79.5084	329.59	80.6297	329.59	79.2952	329.59	80.4338	329.59	79.1179	329.59	80.2243	329.59	78.9921	329.59	80.0175	329.59	78.927	329.59	79.8299	329.59	78.9223	329.59	79.6745	329.59	78.9675	329.59	79.558	329.59	79.045	329.59	79.4794	329.59	79.1351	329.59	79.4309	329.59	79.2207	329.59	79.4006	329.59	79.2906	329.59	79.3746	329.59	79.3409
341.309	80.6428	341.309	80.4849	341.309	80.7601	341.309	80.293	341.309	80.8307	341.309	80.074	341.309	80.8497	341.309	79.8351	341.309	80.8143	341.309	79.5848	341.309	80.7244	341.309	79.3334	341.309	80.5834	341.309	79.0945	341.309	80.3989	341.309	78.8848	341.309	80.1833	341.309	78.7217	341.309	79.9535	341.309	78.6199	341.309	79.7299	341.309	78.5865	341.309	79.5328	341.309	78.6178	341.309	79.3783	341.309	78.6997	341.309	79.2742	341.309	78.811	341.309	79.2175	341.309	78.929	341.309	79.196	341.309	79.0345	341.309	79.1918	341.309	79.1145	341.309	79.1865	341.309	79.1641
353.76	80.7172	353.76	80.5563	353.76	80.8315	353.76	80.354	353.76	80.8944	353.76	80.1156	353.76	80.9023	353.76	79.847	353.76	80.8529	353.76	79.5559	353.76	80.7466	353.76	79.2531	353.76	80.5869	353.76	78.9543	353.76	80.3813	353.76	78.6799	353.76	80.1418	353.76	78.4531	353.76	79.885	353.76	78.2949	353.76	79.6303	353.76	78.2177	353.76	79.3978	353.76	78.2201	353.76	79.2038	353.76	78.2868	353.76	79.057	353.76	78.3934	353.76	78.957	353.76	78.5135	353.76	78.8945	353.76	78.6251	353.76	78.855	353.76	78.7148	353.76	78.8216	353.76	78.7787
366.211	80.631	366.211	80.5	366.211	80.7145	366.211	80.3255	366.211	80.7459	366.211	80.1112	366.211	80.7213	366.211	79.8605	366.211	80.6382	366.211	79.5779	366.211	80.4969	366.211	79.2714	366.211	80.3018	366.211	78.9546	366.211	80.0627	366.211	78.648	366.211	79.796	366.211	78.378	366.211	79.5241	366.211	78.1719	366.211	79.2728	366.211	78.0504	366.211	79.0659	366.211	78.0204	366.211	78.9179	366.211	78.0717	366.211	78.8296	366.211	78.1809	366.211	78.7877	366.211	78.3188	366.211	78.7712	366.211	78.4583	366.211	78.7575	366.211	78.5793	366.211	78.7279	366.211	78.6702
378.662	80.6281	378.662	80.4587	378.662	80.7514	378.662	80.25	378.662	80.8214	378.662	80.0079	378.662	80.8313	378.662	79.7377	378.662	80.7753	378.662	79.4457	378.662	80.6504	378.662	79.1412	378.662	80.4569	378.662	78.8387	378.662	80.2005	378.662	78.5593	378.662	79.8945	378.662	78.3281	378.662	79.5613	378.662	78.1698	378.662	79.2327	378.662	78.1	378.662	78.9463	378.662	78.1189	378.662	78.7356	378.662	78.2097	378.662	78.6184	378.662	78.3436	378.662	78.5891	378.662	78.488	378.662	78.6211	378.662	78.6139	378.662	78.6781	378.662	78.7004	378.662	78.7252	378.662	78.7371
392.578	80.2795	392.578	80.1235	392.578	80.393	392.578	79.9284	392.578	80.4592	392.578	79.6968	392.578	80.4732	392.578	79.4309	392.578	80.4304	392.578	79.1342	392.578	80.3279	392.578	78.8148	392.578	80.1651	392.578	78.4874	392.578	79.9456	392.578	78.1756	392.578	79.6782	392.578	77.9092	392.578	79.3783	392.578	77.7188	392.578	79.0692	392.578	77.6255	392.578	78.7794	392.578	77.6317	392.578	78.5385	392.578	77.7194	392.578	78.3682	392.578	77.8562	392.578	78.2747	392.578	78.0052	392.578	78.2461	392.578	78.1352	392.578	78.2561	392.578	78.2256	392.578	78.2733	392.578	78.2695
405.762	80.1504	405.762	79.9978	405.762	80.2569	405.762	79.8037	405.762	80.3118	405.762	79.5712	405.762	80.3095	405.762	79.3019	405.762	80.2456	405.762	78.9984	405.762	80.1182	405.762	78.6669	405.762	79.9289	405.762	78.3213	405.762	79.684	405.762	77.9855	405.762	79.3958	405.762	77.6928	405.762	79.0843	405.762	77.4794	405.762	78.7765	405.762	77.3733	405.762	78.5037	405.762	77.3818	405.762	78.2948	405.762	77.4873	405.762	78.1666	405.762	77.6536	405.762	78.1176	405.762	77.8379	405.762	78.1274	405.762	78.0025	405.762	78.1637	405.762	78.1216	405.762	78.1919	405.762	78.1836
420.41	79.9332	420.41	79.7762	420.41	80.0501	420.41	79.5848	420.41	80.12	420.41	79.3626	420.41	80.1362	420.41	79.1111	420.41	80.0928	420.41	78.8317	420.41	79.9864	420.41	78.5282	420.41	79.816	420.41	78.2105	420.41	79.5844	420.41	77.8971	420.41	79.299	420.41	77.6149	420.41	78.9733	420.41	77.3943	420.41	78.6277	420.41	77.2603	420.41	78.2899	420.41	77.2221	420.41	77.9915	420.41	77.2671	420.41	77.7616	420.41	77.3648	420.41	77.6182	420.41	77.4774	420.41	77.5598	420.41	77.5706	420.41	77.5652	420.41	77.6227	420.41	77.6001	420.41	77.6283
435.059	79.7837	435.059	79.6165	435.059	79.8978	435.059	79.404	435.059	79.9515	435.059	79.1535	435.059	79.9389	435.059	78.8724	435.059	79.8571	435.059	78.5694	435.059	79.7068	435.059	78.2573	435.059	79.4937	435.059	77.9559	435.059	79.229	435.059	77.6919	435.059	78.9312	435.059	77.4951	435.059	78.6253	435.059	77.3904	435.059	78.3413	435.059	77.3872	435.059	78.1086	435.059	77.4745	435.059	77.9493	435.059	77.623	435.059	77.872	435.059	77.7944	435.059	77.8694	435.059	77.9522	435.059	77.9217	435.059	78.0684	435.059	78.0013	435.059	78.1276	435.059	78.079	435.059	78.1278
450.439	79.7758	450.439	79.5892	450.439	79.8999	450.439	79.3439	450.439	79.9558	450.439	79.0423	450.439	79.9373	450.439	78.686	450.439	79.8388	450.439	78.2797	450.439	79.6568	450.439	77.8363	450.439	79.3917	450.439	77.3827	450.439	79.0499	450.439	76.9633	450.439	78.6472	450.439	76.6358	450.439	78.2125	450.439	76.4546	450.439	77.7893	450.439	76.4464	450.439	77.4313	450.439	76.5938	450.439	77.1888	450.439	76.8423	450.439	77.0891	450.439	77.1239	450.439	77.1232	450.439	77.3781	450.439	77.2502	450.439	77.5628	450.439	77.4143	450.439	77.6554	450.439	77.562	450.439	77.6513
466.553	79.7015	466.553	79.5256	466.553	79.8244	466.553	79.2989	466.553	79.8882	466.553	79.019	466.553	79.8849	466.553	78.6805	466.553	79.8062	466.553	78.28	466.553	79.646	466.553	77.8227	466.553	79.4015	466.553	77.3312	466.553	79.0756	466.553	76.8519	466.553	78.6794	466.553	76.4543	466.553	78.2365	466.553	76.2134	466.553	77.7864	466.553	76.1757	466.553	77.3837	466.553	76.3308	466.553	77.0879	466.553	76.6151	466.553	76.9425	466.553	76.9437	466.553	76.9531	466.553	77.2414	466.553	77.0826	466.553	77.4563	466.553	77.2678	466.553	77.5614	466.553	77.442	466.553	77.5516
482.666	79.6308	482.666	79.4838	482.666	79.7389	482.666	79.2963	482.666	79.8023	482.666	79.0584	482.666	79.8114	482.666	78.7535	482.666	79.7553	482.666	78.3639	482.666	79.6246	482.666	77.8786	482.666	79.4127	482.666	77.3034	482.666	79.1167	482.666	76.6727	482.666	78.7395	482.666	76.0595	482.666	78.2928	482.666	75.5724	482.666	77.8013	482.666	75.3207	482.666	77.3077	482.666	75.3507	482.666	76.8725	482.666	75.6102	482.666	76.5613	482.666	75.9834	482.666	76.4185	482.666	76.3528	482.666	76.4391	482.666	76.6359	482.666	76.566	482.666	76.7901	482.666	76.7154	482.666	76.8083
500.244	79.5598	500.244	79.4012	500.244	79.686	500.244	79.2169	500.244	79.7659	500.244	79.0019	500.244	79.7833	500.244	78.7396	500.244	79.7241	500.244	78.4065	500.244	79.5781	500.244	77.9821	500.244	79.3399	500.244	77.459	500.244	79.01	500.244	76.8558	500.244	78.5964	500.244	76.2279	500.244	78.1183	500.244	75.673	500.244	77.6099	500.244	75.3094	500.244	77.1231	500.244	75.2191	500.244	76.7207	500.244	75.3897	500.244	76.4586	500.244	75.722	500.244	76.3597	500.244	76.0921	500.244	76.3989	500.244	76.4031	500.244	76.5129	500.244	76.6007	500.244	76.6252	500.244	76.6692
517.822	78.8281	517.822	78.6787	517.822	78.9692	517.822	78.534	517.822	79.0817	517.822	78.3923	517.822	79.1454	517.822	78.2345	517.822	79.1444	517.822	78.0301	517.822	79.0681	517.822	77.7477	517.822	78.91	517.822	77.3676	517.822	78.6664	517.822	76.8925	517.822	78.3358	517.822	76.3562	517.822	77.9201	517.822	75.8289	517.822	77.4295	517.822	75.4082	517.822	76.8897	517.822	75.1837	517.822	76.3509	517.822	75.1843	517.822	75.8899	517.822	75.3556	517.822	75.5899	517.822	75.5926	517.822	75.495	517.822	75.793	517.822	75.573	517.822	75.8892	517.822	75.7294	517.822	75.8592
536.133	78.8914	536.133	78.6877	536.133	79.0396	536.133	78.4557	536.133	79.1109	536.133	78.2179	536.133	79.0946	536.133	77.9803	536.133	78.9905	536.133	77.727	536.133	78.8067	536.133	77.4249	536.133	78.5565	536.133	77.0391	536.133	78.2545	536.133	76.5503	536.133	77.9118	536.133	75.9724	536.133	77.5327	536.133	75.3689	536.133	77.1146	536.133	74.8577	536.133	76.6553	536.133	74.5766	536.133	76.1703	536.133	74.5971	536.133	75.7125	536.133	74.8603	536.133	75.3731	536.133	75.2163	536.133	75.2376	536.133	75.5168	536.133	75.3102	536.133	75.6691	536.133	75.4926	536.133	75.6472
554.443	78.5272	554.443	78.3205	554.443	78.7089	554.443	78.1219	554.443	78.8359	554.443	77.9537	554.443	78.8889	554.443	77.8127	554.443	78.8593	554.443	77.6664	554.443	78.7463	554.443	77.4637	554.443	78.5528	554.443	77.154	554.443	78.2821	554.443	76.7041	554.443	77.9353	554.443	76.1124	554.443	77.5107	554.443	75.4239	554.443	77.0068	554.443	74.745	554.443	76.4317	554.443	74.2339	554.443	75.8198	554.443	74.029	554.443	75.2477	554.443	74.1413	554.443	74.828	554.443	74.439	554.443	74.6494	554.443	74.7474	554.443	74.6977	554.443	74.9398	554.443	74.852	554.443	74.9658
574.219	78.0182	574.219	77.6681	574.219	78.3121	574.219	77.3241	574.219	78.5153	574.219	77.058	574.219	78.6196	574.219	76.9139	574.219	78.6357	574.219	76.8738	574.219	78.5832	574.219	76.8644	574.219	78.4807	574.219	76.7955	574.219	78.3361	574.219	76.5983	574.219	78.1386	574.219	76.2433	574.219	77.8555	574.219	75.7485	574.219	77.4378	574.219	75.1842	574.219	76.8346	574.219	74.6699	574.219	76.0205	574.219	74.3339	574.219	75.0421	574.219	74.2321	574.219	74.0821	574.219	74.2951	574.219	73.4542	574.219	74.3724	574.219	73.37	574.219	74.3221	574.219	73.6855	574.219	74.0757
594.727	78.7899	594.727	78.4126	594.727	78.9731	594.727	77.8668	594.727	78.9623	594.727	77.2109	594.727	78.779	594.727	76.5374	594.727	78.4665	594.727	75.9525	594.727	78.093	594.727	75.5288	594.727	77.7502	594.727	75.2642	594.727	77.5306	594.727	75.0921	594.727	77.4798	594.727	74.9325	594.727	77.5553	594.727	74.734	594.727	77.6376	594.727	74.4859	594.727	77.5829	594.727	74.208	594.727	77.2703	594.727	73.9293	594.727	76.6268	594.727	73.6617	594.727	75.649	594.727	73.3868	594.727	74.4476	594.727	73.071	594.727	73.3021	594.727	72.7211	594.727	72.5901	594.727	72.4673
615.234	79.9459	615.234	79.6859	615.234	80.0576	615.234	79.2909	615.234	80.0081	615.234	78.7737	615.234	79.7862	615.234	78.1464	615.234	79.3841	615.234	77.4192	615.234	78.8042	615.234	76.6029	615.234	78.074	615.234	75.7169	615.234	77.2732	615.234	74.8072	615.234	76.5624	615.234	73.9713	615.234	76.1551	615.234	73.3667	615.234	76.1693	615.234	73.1504	615.234	76.4935	615.234	73.3535	615.234	76.879	615.234	73.8384	615.234	77.1196	615.234	74.4059	615.234	77.1228	615.234	74.9102	615.234	76.8997	615.234	75.2937	615.234	76.5386	615.234	75.5789	615.234	76.1589	615.234	75.8419
637.207	78.6898	637.207	78.4694	637.207	78.8383	637.207	78.2136	637.207	78.8822	637.207	77.9482	637.207	78.7998	637.207	77.6729	637.207	78.5813	637.207	77.354	637.207	78.2294	637.207	76.9337	637.207	77.7602	637.207	76.3501	637.207	77.2067	637.207	75.5584	637.207	76.622	637.207	74.5607	637.207	76.0752	637.207	73.4577	637.207	75.6332	637.207	72.5212	637.207	75.3347	637.207	72.1481	637.207	75.1775	637.207	72.505	637.207	75.1349	637.207	73.3117	637.207	75.1811	637.207	74.1775	637.207	75.294	637.207	74.8742	637.207	75.4363	637.207	75.3238	637.207	75.5426	637.207	75.5302
659.912	78.7403	659.912	78.2577	659.912	79.1025	659.912	77.7492	659.912	79.2859	659.912	77.3275	659.912	79.2625	659.912	77.0658	659.912	79.0256	659.912	76.9381	659.912	78.5869	659.912	76.827	659.912	77.9825	659.912	76.5882	659.912	77.2849	659.912	76.1034	659.912	76.6094	659.912	75.2982	659.912	76.0877	659.912	74.1557	659.912	75.7892	659.912	72.7683	659.912	75.657	659.912	71.4614	659.912	75.5482	659.912	70.8192	659.912	75.3393	659.912	71.1391	659.912	75.0006	659.912	71.9957	659.912	74.6055	659.912	72.849	659.912	74.2703	659.912	73.4604	659.912	74.038	659.912	73.8193
683.35	80.1258	683.35	79.6407	683.35	80.4451	683.35	79.0245	683.35	80.5833	683.35	78.3403	683.35	80.5359	683.35	77.6768	683.35	80.303	683.35	77.1176	683.35	79.8872	683.35	76.6902	683.35	79.2943	683.35	76.3411	683.35	78.5395	683.35	75.9703	683.35	77.6638	683.35	75.4945	683.35	76.7612	683.35	74.8954	683.35	75.9993	683.35	74.255	683.35	75.5686	683.35	73.7661	683.35	75.5371	683.35	73.6526	683.35	75.7752	683.35	73.981	683.35	76.0786	683.35	74.5873	683.35	76.3057	683.35	75.2377	683.35	76.4009	683.35	75.7774	683.35	76.3515	683.35	76.1488
706.787	79.3904	706.787	79.0176	706.787	79.6165	706.787	78.5434	706.787	79.6804	706.787	78.0436	706.787	79.587	706.787	77.6035	706.787	79.3537	706.787	77.2699	706.787	79.0047	706.787	77.0097	706.787	78.5672	706.787	76.7216	706.787	78.0674	706.787	76.2884	706.787	77.5239	706.787	75.629	706.787	76.9399	706.787	74.7417	706.787	76.3047	706.787	73.7745	706.787	75.6202	706.787	73.1018	706.787	74.964	706.787	73.1556	706.787	74.5467	706.787	73.922	706.787	74.6136	706.787	74.9501	706.787	75.1543	706.787	75.8468	706.787	75.8579	706.787	76.4232	706.787	76.4022	706.787	76.6106
731.689	79.2981	731.689	78.9212	731.689	79.5114	731.689	78.4228	731.689	79.5526	731.689	77.8901	731.689	79.4329	731.689	77.4397	731.689	79.1746	731.689	77.1522	731.689	78.8094	731.689	76.9967	731.689	78.3795	731.689	76.8346	731.689	77.9341	731.689	76.4954	731.689	77.5117	731.689	75.8421	731.689	77.1101	731.689	74.8046	731.689	76.6677	731.689	73.4514	731.689	76.0878	731.689	72.1972	731.689	75.3161	731.689	71.8926	731.689	74.4753	731.689	72.8355	731.689	73.9832	731.689	74.238	731.689	74.2528	731.689	75.4098	731.689	75.0695	731.689	76.0979	731.689	75.8549	731.689	76.2408
758.057	79.6929	758.057	79.1861	758.057	79.9902	758.057	78.5256	758.057	80.0624	758.057	77.832	758.057	79.9134	758.057	77.2796	758.057	79.5585	758.057	76.9961	758.057	79.0278	758.057	76.9359	758.057	78.3792	758.057	76.8982	758.057	77.7106	758.057	76.6613	758.057	77.1471	758.057	76.0624	758.057	76.7672	758.057	75.0103	758.057	76.5114	758.057	73.5294	758.057	76.1885	758.057	71.9796	758.057	75.5971	758.057	71.3505	758.057	74.6857	758.057	72.2521	758.057	73.7655	758.057	73.7803	758.057	73.5467	758.057	75.0422	758.057	74.2598	758.057	75.7302	758.057	75.2105	758.057	75.7756
784.424	80.0918	784.424	79.5841	784.424	80.3399	784.424	78.8392	784.424	80.3302	784.424	77.9457	784.424	80.0708	784.424	77.1072	784.424	79.5727	784.424	76.6009	784.424	78.8597	784.424	76.5391	784.424	77.9925	784.424	76.7069	784.424	77.1088	784.424	76.7561	784.424	76.4357	784.424	76.4174	784.424	76.1614	784.424	75.5213	784.424	76.2042	784.424	73.9708	784.424	76.2211	784.424	71.8775	784.424	75.8467	784.424	70.2395	784.424	74.849	784.424	70.8233	784.424	73.2913	784.424	72.7417	784.424	72.0423	784.424	74.3097	784.424	72.4624	784.424	75.0447	784.424	73.867	784.424	74.8785
812.256	80.5648	812.256	80.0214	812.256	80.8648	812.256	79.2263	812.256	80.9392	812.256	78.23	812.256	80.7951	812.256	77.2258	812.256	80.4233	812.256	76.577	812.256	79.8029	812.256	76.5376	812.256	78.9193	812.256	76.8942	812.256	77.8145	812.256	77.1887	812.256	76.6916	812.256	77.078	812.256	75.978	812.256	76.3613	812.256	75.9726	812.256	74.8898	812.256	76.3401	812.256	72.5569	812.256	76.4506	812.256	69.757	812.256	75.8663	812.256	68.9013	812.256	74.4054	812.256	70.8498	812.256	72.3653	812.256	72.7374	812.256	71.2747	812.256	73.575	812.256	72.1625	812.256	73.3078
840.82	81.0771	840.82	80.6087	840.82	81.2992	840.82	79.841	840.82	81.3208	840.82	78.7578	840.82	81.163	840.82	77.4837	840.82	80.8166	840.82	76.4426	840.82	80.2452	840.82	76.2024	840.82	79.3987	840.82	76.719	840.82	78.2504	840.82	77.3488	840.82	76.9012	840.82	77.5905	840.82	75.7824	840.82	77.2114	840.82	75.5504	840.82	76.081	840.82	76.1349	840.82	74.0776	840.82	76.6947	840.82	71.206	840.82	76.5793	840.82	68.6465	840.82	75.4844	840.82	69.1492	840.82	73.3814	840.82	70.9914	840.82	71.0797	840.82	71.9151	840.82	70.6581	840.82	71.6097
870.85	81.3658	870.85	81.1352	870.85	81.3835	870.85	80.5927	870.85	81.261	870.85	79.6345	870.85	81.0312	870.85	78.2051	870.85	80.6809	870.85	76.4666	870.85	80.153	870.85	75.1558	870.85	79.3561	870.85	75.2144	870.85	78.1888	870.85	76.181	870.85	76.6215	870.85	76.9881	870.85	74.9973	870.85	77.1527	870.85	74.433	870.85	76.5283	870.85	75.4241	870.85	75.0401	870.85	76.6839	870.85	72.6929	870.85	77.2224	870.85	70.1237	870.85	76.7392	870.85	69.4663	870.85	75.2416	870.85	70.74	870.85	73.1926	870.85	71.7123	870.85	71.8825	870.85	71.8263
901.611	81.1565	901.611	81.1414	901.611	81.0087	901.611	80.8653	901.611	80.7861	901.611	80.2363	901.611	80.55	901.611	79.201	901.611	80.3137	901.611	77.8281	901.611	80.0294	901.611	76.4852	901.611	79.5938	901.611	75.8503	901.611	78.8668	901.611	76.1336	901.611	77.7025	901.611	76.6981	901.611	76.0555	901.611	76.9267	901.611	74.3766	901.611	76.5393	901.611	74.0002	901.611	75.4237	901.611	75.1177	901.611	73.5648	901.611	76.1869	901.611	71.2888	901.611	76.3771	901.611	69.8826	901.611	75.5814	901.611	70.2996	901.611	74.0935	901.611	71.2241	901.611	72.6553	901.611	71.8509
933.105	81.5446	933.105	81.5207	933.105	81.3477	933.105	81.2183	933.105	80.9908	933.105	80.5772	933.105	80.5406	933.105	79.5455	933.105	80.0567	933.105	78.1354	933.105	79.5589	933.105	76.5849	933.105	78.9924	933.105	75.5583	933.105	78.2236	933.105	75.6339	933.105	77.0852	933.105	76.3466	933.105	75.516	933.105	76.8985	933.105	73.9897	933.105	76.8959	933.105	73.7998	933.105	76.2264	933.105	74.949	933.105	74.9381	933.105	75.9241	933.105	73.3674	933.105	75.9991	933.105	72.3501	933.105	75.2003	933.105	72.4515	933.105	74.0686	933.105	72.9871	933.105	73.4061	933.105	73.2574
966.064	81.3752	966.064	81.3519	966.064	81.1476	966.064	81.0425	966.064	80.7245	966.064	80.4225	966.064	80.1881	966.064	79.4769	966.064	79.638	966.064	78.2287	966.064	79.1505	966.064	76.8324	966.064	78.7129	966.064	75.701	966.064	78.1856	966.064	75.3127	966.064	77.3305	966.064	75.5667	966.064	75.8906	966.064	75.8712	966.064	73.8061	966.064	75.7813	966.064	72.0578	966.064	75.1328	966.064	72.5767	966.064	73.9893	966.064	74.1145	966.064	72.7359	966.064	74.8547	966.064	72.0698	966.064	74.5107	966.064	72.1934	966.064	73.492	966.064	72.4698	966.064	72.664	966.064	72.4993
999.756	81.5302	999.756	81.501	999.756	81.3236	999.756	81.1723	999.756	80.9487	999.756	80.4916	999.756	80.4733	999.756	79.4373	999.756	79.961	999.756	78.0721	999.756	79.4555	999.756	76.6565	999.756	78.9504	999.756	75.7078	999.756	78.3631	999.756	75.5679	999.756	77.5421	999.756	75.8755	999.756	76.3263	999.756	76.0231	999.756	74.7008	999.756	75.642	999.756	73.1642	999.756	74.5953	999.756	72.7439	999.756	72.9885	999.756	73.3259	999.756	71.4823	999.756	73.7855	999.756	71.244	999.756	73.7131	999.756	72.1472	999.756	73.4265	999.756	73.0195	999.756	73.351	999.756	73.3652
1,034.91	81.2233	1,034.91	81.2494	1,034.91	80.9446	1,034.91	80.9738	1,034.91	80.4564	1,034.91	80.3374	1,034.91	79.8089	1,034.91	79.2775	1,034.91	79.0801	1,034.91	77.7595	1,034.91	78.3811	1,034.91	75.8923	1,034.91	77.806	1,034.91	74.235	1,034.91	77.3323	1,034.91	73.7852	1,034.91	76.7858	1,034.91	74.5156	1,034.91	75.9403	1,034.91	75.3554	1,034.91	74.7171	1,034.91	75.6679	1,034.91	73.5156	1,034.91	75.2897	1,034.91	73.2036	1,034.91	74.2754	1,034.91	73.6992	1,034.91	72.946	1,034.91	73.9518	1,034.91	72.0615	1,034.91	73.5099	1,034.91	72.1742	1,034.91	72.805	1,034.91	72.6666	1,034.91	72.6091	1,034.91	72.7925
1,071.53	80.9568	1,071.53	81.094	1,071.53	80.6836	1,071.53	81.0304	1,071.53	80.301	1,071.53	80.6654	1,071.53	79.8111	1,071.53	79.8773	1,071.53	79.2185	1,071.53	78.5517	1,071.53	78.5512	1,071.53	76.6646	1,071.53	77.8463	1,071.53	74.5729	1,071.53	77.1006	1,071.53	73.4296	1,071.53	76.24	1,071.53	73.8661	1,071.53	75.1877	1,071.53	74.7022	1,071.53	74.0867	1,071.53	75.0009	1,071.53	73.5085	1,071.53	74.5458	1,071.53	73.7899	1,071.53	73.4508	1,071.53	74.2213	1,071.53	72.215	1,071.53	74.0268	1,071.53	71.8052	1,071.53	73.1822	1,071.53	72.4843	1,071.53	72.5662	1,071.53	73.2693	1,071.53	72.9063	1,071.53	73.4114
1,109.62	80.7672	1,109.62	80.8504	1,109.62	80.6015	1,109.62	80.8216	1,109.62	80.3142	1,109.62	80.5783	1,109.62	79.8402	1,109.62	79.9791	1,109.62	79.1416	1,109.62	78.8933	1,109.62	78.2468	1,109.62	77.2632	1,109.62	77.2583	1,109.62	75.2478	1,109.62	76.3076	1,109.62	73.5206	1,109.62	75.4433	1,109.62	73.0095	1,109.62	74.5404	1,109.62	73.4573	1,109.62	73.439	1,109.62	73.8974	1,109.62	72.4141	1,109.62	73.8838	1,109.62	72.3721	1,109.62	73.4337	1,109.62	73.2297	1,109.62	72.8707	1,109.62	73.7297	1,109.62	72.6809	1,109.62	73.3019	1,109.62	72.9549	1,109.62	72.4386	1,109.62	73.1695	1,109.62	72.2996	1,109.62	72.8694
1,148.44	80.8743	1,148.44	80.903	1,148.44	80.7194	1,148.44	80.8494	1,148.44	80.3934	1,148.44	80.68	1,148.44	79.8979	1,148.44	80.2564	1,148.44	79.2833	1,148.44	79.3953	1,148.44	78.6128	1,148.44	77.96	1,148.44	77.9069	1,148.44	75.975	1,148.44	77.0979	1,148.44	73.8871	1,148.44	76.0339	1,148.44	72.7057	1,148.44	74.5602	1,148.44	72.7157	1,148.44	72.7934	1,148.44	72.9266	1,148.44	71.7176	1,148.44	72.6657	1,148.44	72.3165	1,148.44	71.9733	1,148.44	73.381	1,148.44	71.5033	1,148.44	73.6379	1,148.44	71.9546	1,148.44	72.8798	1,148.44	72.8791	1,148.44	71.8717	1,148.44	73.3426	1,148.44	72.0113	1,148.44	72.9359
1,189.45	81.2452	1,189.45	81.0962	1,189.45	81.1094	1,189.45	80.7456	1,189.45	80.6724	1,189.45	80.2818	1,189.45	79.988	1,189.45	79.696	1,189.45	79.1559	1,189.45	78.8586	1,189.45	78.2794	1,189.45	77.6276	1,189.45	77.4169	1,189.45	76.0183	1,189.45	76.5505	1,189.45	74.4061	1,189.45	75.5932	1,189.45	73.4622	1,189.45	74.447	1,189.45	73.2415	1,189.45	73.1615	1,189.45	72.967	1,189.45	72.2034	1,189.45	72.0145	1,189.45	72.2069	1,189.45	70.3285	1,189.45	72.8164	1,189.45	68.9949	1,189.45	73.1034	1,189.45	69.825	1,189.45	72.7492	1,189.45	71.6627	1,189.45	72.2856	1,189.45	72.8226	1,189.45	72.4876	1,189.45	72.9717
1,231.2	81.458	1,231.2	81.2791	1,231.2	81.2915	1,231.2	80.8007	1,231.2	80.7956	1,231.2	80.1282	1,231.2	80.034	1,231.2	79.363	1,231.2	79.108	1,231.2	78.4997	1,231.2	78.1394	1,231.2	77.4192	1,231.2	77.2299	1,231.2	76.0461	1,231.2	76.3951	1,231.2	74.6061	1,231.2	75.5017	1,231.2	73.728	1,231.2	74.2874	1,231.2	73.6831	1,231.2	72.5618	1,231.2	73.8014	1,231.2	70.8989	1,231.2	73.3736	1,231.2	71.1101	1,231.2	72.1489	1,231.2	72.6516	1,231.2	70.5956	1,231.2	73.472	1,231.2	70.4509	1,231.2	73.0874	1,231.2	71.9774	1,231.2	72.2855	1,231.2	73.1822	1,231.2	72.4882	1,231.2	73.238
1,274.41	81.3422	1,274.41	81.2654	1,274.41	81.0449	1,274.41	80.8127	1,274.41	80.4449	1,274.41	80.0808	1,274.41	79.658	1,274.41	79.2426	1,274.41	78.8083	1,274.41	78.3883	1,274.41	77.9788	1,274.41	77.381	1,274.41	77.191	1,274.41	75.9956	1,274.41	76.4093	1,274.41	74.2811	1,274.41	75.5275	1,274.41	72.9868	1,274.41	74.3868	1,274.41	72.9658	1,274.41	72.9815	1,274.41	73.5094	1,274.41	72.0212	1,274.41	73.5003	1,274.41	72.5775	1,274.41	72.5048	1,274.41	73.74	1,274.41	70.7991	1,274.41	74.0454	1,274.41	70.1593	1,274.41	73.1945	1,274.41	71.6843	1,274.41	72.258	1,274.41	73.1919	1,274.41	72.7263	1,274.41	73.4934
1,319.82	81.1389	1,319.82	81.1648	1,319.82	80.8106	1,319.82	80.772	1,319.82	80.3021	1,319.82	79.9252	1,319.82	79.6833	1,319.82	78.7476	1,319.82	78.9689	1,319.82	77.5328	1,319.82	78.17	1,319.82	76.5111	1,319.82	77.3175	1,319.82	75.5583	1,319.82	76.4174	1,319.82	74.4307	1,319.82	75.3915	1,319.82	73.3062	1,319.82	74.0833	1,319.82	72.8385	1,319.82	72.4402	1,319.82	73.0508	1,319.82	71.1798	1,319.82	73.0843	1,319.82	71.7778	1,319.82	72.324	1,319.82	73.3135	1,319.82	70.7675	1,319.82	73.985	1,319.82	69.7167	1,319.82	73.3633	1,319.82	70.9315	1,319.82	72.3013	1,319.82	72.586	1,319.82	72.4274	1,319.82	73.0371
1,365.97	80.6869	1,365.97	80.7659	1,365.97	80.4579	1,365.97	80.5905	1,365.97	80.0825	1,365.97	80.0104	1,365.97	79.526	1,365.97	78.963	1,365.97	78.7993	1,365.97	77.597	1,365.97	77.97	1,365.97	76.2488	1,365.97	77.1148	1,365.97	75.0896	1,365.97	76.2609	1,365.97	73.9026	1,365.97	75.3132	1,365.97	72.5915	1,365.97	73.9951	1,365.97	71.7158	1,365.97	71.964	1,365.97	71.7913	1,365.97	69.8127	1,365.97	72.1849	1,365.97	70.5879	1,365.97	72.0743	1,365.97	72.8924	1,365.97	71.207	1,365.97	73.7443	1,365.97	70.2262	1,365.97	72.7792	1,365.97	70.5994	1,365.97	71.1056	1,365.97	71.7506	1,365.97	71.1615	1,365.97	72.006
1,414.31	80.5387	1,414.31	80.4378	1,414.31	80.4667	1,414.31	80.2291	1,414.31	80.1181	1,414.31	79.7812	1,414.31	79.4878	1,414.31	78.8465	1,414.31	78.6759	1,414.31	77.3231	1,414.31	77.8368	1,414.31	75.5329	1,414.31	77.1056	1,414.31	74.2286	1,414.31	76.4928	1,414.31	73.6045	1,414.31	75.7872	1,414.31	73.0024	1,414.31	74.5674	1,414.31	72.2012	1,414.31	72.3204	1,414.31	71.7615	1,414.31	69.2563	1,414.31	71.9831	1,414.31	69.4187	1,414.31	72.2595	1,414.31	72.0115	1,414.31	72.0535	1,414.31	72.8788	1,414.31	71.4878	1,414.31	71.6757	1,414.31	71.2906	1,414.31	69.7556	1,414.31	71.5909	1,414.31	70.1146	1,414.31	71.3612
1,464.11	80.7684	1,464.11	80.499	1,464.11	80.7243	1,464.11	80.1372	1,464.11	80.2866	1,464.11	79.7487	1,464.11	79.5291	1,464.11	79.0431	1,464.11	78.5711	1,464.11	77.6915	1,464.11	77.5438	1,464.11	75.8068	1,464.11	76.6388	1,464.11	74.2591	1,464.11	76.0211	1,464.11	73.6459	1,464.11	75.5361	1,464.11	73.0626	1,464.11	74.6221	1,464.11	71.67	1,464.11	72.4669	1,464.11	69.7119	1,464.11	68.2892	1,464.11	68.821	1,464.11	66.7505	1,464.11	69.7186	1,464.11	70.4016	1,464.11	70.8575	1,464.11	71.5577	1,464.11	71.5013	1,464.11	70.1837	1,464.11	71.7518	1,464.11	68.49	1,464.11	71.7075	1,464.11	69.5509	1,464.11	71.0775
1,515.38	81.072	1,515.38	80.6469	1,515.38	80.9913	1,515.38	79.883	1,515.38	80.5101	1,515.38	79.1939	1,515.38	79.7696	1,515.38	78.649	1,515.38	78.7966	1,515.38	77.7211	1,515.38	77.606	1,515.38	75.9252	1,515.38	76.4135	1,515.38	73.3913	1,515.38	75.6391	1,515.38	71.4287	1,515.38	75.3739	1,515.38	70.9809	1,515.38	74.9643	1,515.38	70.5479	1,515.38	73.4392	1,515.38	69.0279	1,515.38	69.8208	1,515.38	66.6139	1,515.38	66.543	1,515.38	65.6992	1,515.38	70.0796	1,515.38	67.9648	1,515.38	71.7896	1,515.38	70.4832	1,515.38	70.3974	1,515.38	72.0048	1,515.38	67.5012	1,515.38	72.3694	1,515.38	68.7917	1,515.38	71.3666
1,568.85	80.683	1,568.85	80.2924	1,568.85	80.7011	1,568.85	79.4203	1,568.85	80.5371	1,568.85	78.3409	1,568.85	80.2161	1,568.85	77.5967	1,568.85	79.6057	1,568.85	77.0476	1,568.85	78.5863	1,568.85	75.9084	1,568.85	77.1671	1,568.85	73.8766	1,568.85	75.6741	1,568.85	71.912	1,568.85	74.7858	1,568.85	71.5746	1,568.85	74.4085	1,568.85	71.8777	1,568.85	73.1807	1,568.85	71.3128	1,568.85	69.1513	1,568.85	69.3375	1,568.85	62.5131	1,568.85	66.1003	1,568.85	70.2187	1,568.85	65.9215	1,568.85	73.1618	1,568.85	69.673	1,568.85	71.9241	1,568.85	72.2862	1,568.85	67.1407	1,568.85	73.1684	1,568.85	68.2329	1,568.85	72.0706
1,624.51	80.4914	1,624.51	80.6807	1,624.51	80.0992	1,624.51	80.2993	1,624.51	79.7956	1,624.51	79.2454	1,624.51	79.6043	1,624.51	77.9321	1,624.51	79.3486	1,624.51	76.8454	1,624.51	78.7862	1,624.51	75.6199	1,624.51	77.7244	1,624.51	73.6753	1,624.51	76.2458	1,624.51	71.5429	1,624.51	74.9926	1,624.51	71.1492	1,624.51	74.5451	1,624.51	72.0659	1,624.51	73.971	1,624.51	72.2965	1,624.51	71.1811	1,624.51	70.9927	1,624.51	60.3871	1,624.51	67.4171	1,624.51	68.6082	1,624.51	62.8011	1,624.51	73.8207	1,624.51	67.7256	1,624.51	73.6244	1,624.51	71.6919	1,624.51	68.669	1,624.51	72.9221	1,624.51	65.864	1,624.51	71.389
1,681.64	80.0795	1,681.64	80.494	1,681.64	79.5853	1,681.64	80.235	1,681.64	79.329	1,681.64	78.9845	1,681.64	79.1778	1,681.64	77.1773	1,681.64	78.9259	1,681.64	75.9377	1,681.64	78.4524	1,681.64	75.1381	1,681.64	77.639	1,681.64	73.4327	1,681.64	76.4157	1,681.64	70.0375	1,681.64	75.094	1,681.64	67.7374	1,681.64	74.5109	1,681.64	70.6413	1,681.64	74.5284	1,681.64	72.637	1,681.64	73.3816	1,681.64	72.4958	1,681.64	68.3465	1,681.64	70.0235	1,681.64	64.6042	1,681.64	63.0329	1,681.64	72.9187	1,681.64	63.201	1,681.64	74.6307	1,681.64	70.3678	1,681.64	71.5072	1,681.64	72.0308	1,681.64	62.137	1,681.64	69.1824
1,740.97	80.0142	1,740.97	79.9312	1,740.97	80.1797	1,740.97	79.8375	1,740.97	80.0497	1,740.97	79.0669	1,740.97	79.5182	1,740.97	77.2255	1,740.97	78.8039	1,740.97	74.8991	1,740.97	78.0745	1,740.97	73.7375	1,740.97	77.2012	1,740.97	73.3971	1,740.97	75.912	1,740.97	71.7994	1,740.97	74.2102	1,740.97	67.9825	1,740.97	72.9158	1,740.97	66.9464	1,740.97	72.8833	1,740.97	70.6968	1,740.97	72.6378	1,740.97	72.5054	1,740.97	69.2967	1,740.97	71.8521	1,740.97	63.3282	1,740.97	67.6487	1,740.97	72.504	1,740.97	57.7951	1,740.97	75.2593	1,740.97	66.8455	1,740.97	73.2822	1,740.97	69.2265	1,740.97	65.4083	1,740.97	65.5594
1,802.49	80.471	1,802.49	79.779	1,802.49	80.9274	1,802.49	79.2444	1,802.49	80.828	1,802.49	78.6257	1,802.49	80.1775	1,802.49	77.3737	1,802.49	79.1127	1,802.49	75.4983	1,802.49	77.829	1,802.49	73.9279	1,802.49	76.5319	1,802.49	73.2121	1,802.49	75.207	1,802.49	72.0507	1,802.49	73.6061	1,802.49	69.1648	1,802.49	71.8145	1,802.49	65.8403	1,802.49	71.2065	1,802.49	67.7262	1,802.49	71.9557	1,802.49	70.0725	1,802.49	70.6796	1,802.49	70.2509	1,802.49	63.3128	1,802.49	67.7436	1,802.49	70.3646	1,802.49	61.0966	1,802.49	74.8484	1,802.49	60.4399	1,802.49	74.069	1,802.49	63.7641	1,802.49	68.2518	1,802.49	60.4033
1,866.21	80.0679	1,866.21	78.8952	1,866.21	80.8382	1,866.21	77.7242	1,866.21	81.0863	1,866.21	76.8825	1,866.21	80.7563	1,866.21	75.8991	1,866.21	79.7882	1,866.21	74.2697	1,866.21	78.2092	1,866.21	72.683	1,866.21	76.2164	1,866.21	72.2709	1,866.21	74.1908	1,866.21	71.9042	1,866.21	72.4788	1,866.21	70.0239	1,866.21	71.13	1,866.21	65.8705	1,866.21	70.4013	1,866.21	61.9751	1,866.21	70.6936	1,866.21	65.2399	1,866.21	70.4093	1,866.21	67.1731	1,866.21	67.1071	1,866.21	66.0242	1,866.21	67.5892	1,866.21	62.0646	1,866.21	72.4027	1,866.21	60.9484	1,866.21	72.7588	1,866.21	62.4366	1,866.21	68.7684	1,866.21	62.204
1,932.13	79.5571	1,932.13	78.2907	1,932.13	80.4127	1,932.13	76.9577	1,932.13	80.686	1,932.13	75.8762	1,932.13	80.3462	1,932.13	74.7555	1,932.13	79.4326	1,932.13	72.8692	1,932.13	78.0164	1,932.13	70.263	1,932.13	76.2127	1,932.13	69.1887	1,932.13	74.153	1,932.13	70.3079	1,932.13	71.9405	1,932.13	70.904	1,932.13	69.9399	1,932.13	70.1169	1,932.13	69.2082	1,932.13	68.2761	1,932.13	69.6288	1,932.13	66.3944	1,932.13	68.8024	1,932.13	64.9703	1,932.13	64.9734	1,932.13	62.6301	1,932.13	67.4571	1,932.13	57.6616	1,932.13	71.501	1,932.13	57.9333	1,932.13	71.1832	1,932.13	60.5291	1,932.13	66.4709	1,932.13	59.3438
2,000.24	79.7543	2,000.24	77.7205	2,000.24	80.7881	2,000.24	75.1877	2,000.24	80.8373	2,000.24	73.3537	2,000.24	80.1285	2,000.24	72.7471	2,000.24	78.9553	2,000.24	72.509	2,000.24	77.5159	2,000.24	71.7934	2,000.24	75.8289	2,000.24	70.5422	2,000.24	73.7865	2,000.24	69.6529	2,000.24	71.2912	2,000.24	69.2456	2,000.24	69.1098	2,000.24	68.6162	2,000.24	68.9709	2,000.24	68.005	2,000.24	69.4203	2,000.24	67.7708	2,000.24	67.7489	2,000.24	67.2705	2,000.24	62.7738	2,000.24	65.2587	2,000.24	66.9001	2,000.24	60.1075	2,000.24	70.9033	2,000.24	52.2294	2,000.24	70.6937	2,000.24	52.4631	2,000.24	66.2544	2,000.24	54.6239
2,070.56	80.3297	2,070.56	78.4672	2,070.56	81.0551	2,070.56	75.5468	2,070.56	80.8711	2,070.56	72.6034	2,070.56	80.0065	2,070.56	71.0719	2,070.56	78.6015	2,070.56	70.3497	2,070.56	76.7684	2,070.56	69.5418	2,070.56	74.6165	2,070.56	68.4231	2,070.56	72.0836	2,070.56	66.7968	2,070.56	68.8768	2,070.56	64.7773	2,070.56	65.2041	2,070.56	63.8564	2,070.56	63.7539	2,070.56	65.6491	2,070.56	65.4983	2,070.56	67.4841	2,070.56	65.8531	2,070.56	67.5764	2,070.56	61.9296	2,070.56	65.3764	2,070.56	64.1677	2,070.56	59.8543	2,070.56	69.7675	2,070.56	49.6291	2,070.56	70.5852	2,070.56	37.9195	2,070.56	67.25	2,070.56	58.2619
2,143.8	80.2307	2,143.8	78.4644	2,143.8	80.9512	2,143.8	75.4043	2,143.8	80.7737	2,143.8	71.5464	2,143.8	79.6399	2,143.8	69.1845	2,143.8	77.5617	2,143.8	68.5319	2,143.8	74.8394	2,143.8	67.9981	2,143.8	71.9619	2,143.8	67.9343	2,143.8	69.1186	2,143.8	68.0147	2,143.8	66.0553	2,143.8	67.2433	2,143.8	62.9089	2,143.8	65.7109	2,143.8	60.8631	2,143.8	65.2395	2,143.8	62.7502	2,143.8	66.2744	2,143.8	64.308	2,143.8	66.443	2,143.8	60.5465	2,143.8	64.33	2,143.8	60.844	2,143.8	58.5479	2,143.8	68.1977	2,143.8	44.4819	2,143.8	69.7854	2,143.8	45.2956	2,143.8	67.2332	2,143.8	59.8885
2,219.24	79.6403	2,219.24	77.5773	2,219.24	80.746	2,219.24	74.5111	2,219.24	80.7131	2,219.24	70.2248	2,219.24	79.5009	2,219.24	67.4808	2,219.24	77.1906	2,219.24	67.9754	2,219.24	73.8829	2,219.24	67.4773	2,219.24	69.7258	2,219.24	66.4616	2,219.24	65.2359	2,219.24	66.8483	2,219.24	61.9287	2,219.24	67.3902	2,219.24	61.162	2,219.24	66.7495	2,219.24	61.1093	2,219.24	65.8091	2,219.24	60.5556	2,219.24	66.0747	2,219.24	62.2963	2,219.24	66.055	2,219.24	61.9457	2,219.24	63.9636	2,219.24	58.7941	2,219.24	57.9794	2,219.24	66.5084	2,219.24	38.2141	2,219.24	69.281	2,219.24	54.5058	2,219.24	67.578	2,219.24	62.0719
2,297.61	80.6376	2,297.61	78.345	2,297.61	81.3535	2,297.61	74.5172	2,297.61	80.723	2,297.61	69.28	2,297.61	79.0446	2,297.61	64.4144	2,297.61	76.4867	2,297.61	66.1106	2,297.61	73.0292	2,297.61	67.8177	2,297.61	68.4372	2,297.61	67.6103	2,297.61	62.3904	2,297.61	66.9512	2,297.61	56.0874	2,297.61	67.0896	2,297.61	55.2453	2,297.61	66.8454	2,297.61	58.5373	2,297.61	65.7043	2,297.61	58.3413	2,297.61	64.965	2,297.61	52.5907	2,297.61	64.9761	2,297.61	57.202	2,297.61	63.8529	2,297.61	58.2167	2,297.61	59.3384	2,297.61	64.4384	2,297.61	45.245	2,297.61	68.3795	2,297.61	58.4641	2,297.61	68.0442	2,297.61	64.5927
2,378.17	81.7008	2,378.17	79.5947	2,378.17	82.049	2,378.17	75.2409	2,378.17	81.009	2,378.17	68.0909	2,378.17	78.7066	2,378.17	62.1781	2,378.17	75.1459	2,378.17	65.9917	2,378.17	70.4452	2,378.17	68.4329	2,378.17	64.4377	2,378.17	68.8178	2,378.17	54.5695	2,378.17	67.8265	2,378.17	42.8797	2,378.17	66.7182	2,378.17	45.1276	2,378.17	66.2185	2,378.17	51.0324	2,378.17	65.865	2,378.17	58.96	2,378.17	65.3878	2,378.17	56.6501	2,378.17	64.8049	2,378.17	48.4048	2,378.17	63.424	2,378.17	57.1927	2,378.17	59.4277	2,378.17	62.1886	2,378.17	42.0672	2,378.17	67.6036	2,378.17	59.8884	2,378.17	68.8199	2,378.17	66.4095
2,462.4	81.5774	2,462.4	79.4752	2,462.4	82.1451	2,462.4	75.4492	2,462.4	81.1976	2,462.4	68.0976	2,462.4	78.5536	2,462.4	55.0725	2,462.4	73.9179	2,462.4	65.807	2,462.4	66.8023	2,462.4	68.8074	2,462.4	58.3677	2,462.4	69.2333	2,462.4	57.8635	2,462.4	68.5017	2,462.4	59.0799	2,462.4	67.3011	2,462.4	57.5445	2,462.4	66.0954	2,462.4	48.9562	2,462.4	65.4395	2,462.4	59.0066	2,462.4	65.3772	2,462.4	60.5952	2,462.4	64.9902	2,462.4	53.504	2,462.4	63.2678	2,462.4	53.6033	2,462.4	58.929	2,462.4	60.1249	2,462.4	45.7281	2,462.4	66.4191	2,462.4	59.097	2,462.4	68.2357	2,462.4	65.9548
2,548.83	81.7439	2,548.83	79.5814	2,548.83	82.2035	2,548.83	75.5574	2,548.83	81.0018	2,548.83	68.6172	2,548.83	78.0418	2,548.83	47.0907	2,548.83	72.8232	2,548.83	66.1666	2,548.83	63.5747	2,548.83	70.0304	2,548.83	59.84	2,548.83	70.6812	2,548.83	64.3784	2,548.83	69.9658	2,548.83	64.7349	2,548.83	68.8748	2,548.83	61.6719	2,548.83	67.6563	2,548.83	47.7082	2,548.83	66.2898	2,548.83	59.8282	2,548.83	65.3103	2,548.83	62.6523	2,548.83	65.0109	2,548.83	57.9911	2,548.83	63.9823	2,548.83	52.9231	2,548.83	60.0776	2,548.83	57.7686	2,548.83	41.8093	2,548.83	65.3975	2,548.83	61.5932	2,548.83	68.4534	2,548.83	67.2969
2,638.92	82.3821	2,638.92	80.3044	2,638.92	82.5718	2,638.92	75.8419	2,638.92	81.0945	2,638.92	67.382	2,638.92	77.7455	2,638.92	53.502	2,638.92	71.6687	2,638.92	67.2413	2,638.92	60.9117	2,638.92	70.0529	2,638.92	63.0938	2,638.92	69.9137	2,638.92	66.5321	2,638.92	68.5876	2,638.92	67.2953	2,638.92	67.7732	2,638.92	65.4938	2,638.92	67.7347	2,638.92	56.3683	2,638.92	67.257	2,638.92	61.3329	2,638.92	65.8921	2,638.92	65.6483	2,638.92	64.6745	2,638.92	62.2616	2,638.92	64.0155	2,638.92	53.7639	2,638.92	61.6466	2,638.92	57.315	2,638.92	49.6697	2,638.92	65.5779	2,638.92	61.4043	2,638.92	68.899	2,638.92	67.7601
2,731.93	82.5495	2,731.93	80.5725	2,731.93	82.666	2,731.93	76.1107	2,731.93	80.9556	2,731.93	66.9336	2,731.93	77.0557	2,731.93	60.549	2,731.93	70.3219	2,731.93	68.3042	2,731.93	64.2067	2,731.93	70.6593	2,731.93	66.3629	2,731.93	71.1407	2,731.93	67.3417	2,731.93	70.4638	2,731.93	67.549	2,731.93	69.4288	2,731.93	66.0898	2,731.93	68.8964	2,731.93	57.4874	2,731.93	68.5198	2,731.93	60.5232	2,731.93	67.2801	2,731.93	66.1189	2,731.93	65.4618	2,731.93	63.5507	2,731.93	64.6314	2,731.93	54.9428	2,731.93	63.2505	2,731.93	55.6042	2,731.93	54.8208	2,731.93	65.2645	2,731.93	61.2935	2,731.93	69.243	2,731.93	68.276
2,828.61	82.9762	2,828.61	81.0049	2,828.61	82.9368	2,828.61	76.4431	2,828.61	80.9341	2,828.61	67.2105	2,828.61	76.4897	2,828.61	65.1488	2,828.61	68.4387	2,828.61	70.2461	2,828.61	66.5218	2,828.61	71.747	2,828.61	69.7126	2,828.61	72.1792	2,828.61	69.637	2,828.61	72.0631	2,828.61	68.0565	2,828.61	71.263	2,828.61	65.295	2,828.61	69.9927	2,828.61	55.6352	2,828.61	68.8316	2,828.61	60.5632	2,828.61	67.6753	2,828.61	66.8222	2,828.61	66.0496	2,828.61	65.8975	2,828.61	64.4162	2,828.61	59.9779	2,828.61	63.0023	2,828.61	57.6348	2,828.61	57.8671	2,828.61	64.9721	2,828.61	60.4654	2,828.61	68.8543	2,828.61	67.7258
2,928.22	82.9211	2,928.22	80.9987	2,928.22	82.8449	2,928.22	76.473	2,928.22	80.7455	2,928.22	68.4052	2,928.22	76.1406	2,928.22	68.2192	2,928.22	68.5083	2,928.22	71.6332	2,928.22	67.6151	2,928.22	72.8842	2,928.22	70.2193	2,928.22	72.8742	2,928.22	69.9597	2,928.22	71.8192	2,928.22	68.1963	2,928.22	70.1651	2,928.22	65.6	2,928.22	68.8222	2,928.22	59.9976	2,928.22	68.1614	2,928.22	54.0566	2,928.22	67.3914	2,928.22	64.5548	2,928.22	66.131	2,928.22	65.1981	2,928.22	65.2556	2,928.22	60.2062	2,928.22	64.0173	2,928.22	57.6733	2,928.22	58.2696	2,928.22	64.5506	2,928.22	62.5056	2,928.22	69.1236	2,928.22	68.7591
3,031.49	82.7891	3,031.49	80.728	3,031.49	82.722	3,031.49	76.2777	3,031.49	80.4949	3,031.49	69.5774	3,031.49	75.9966	3,031.49	69.7458	3,031.49	70.495	3,031.49	72.8274	3,031.49	70.3587	3,031.49	73.6877	3,031.49	71.3992	3,031.49	72.7282	3,031.49	70.656	3,031.49	70.636	3,031.49	69.0153	3,031.49	68.8956	3,031.49	67.0664	3,031.49	68.597	3,031.49	62.0707	3,031.49	69.0171	3,031.49	52.9326	3,031.49	68.8667	3,031.49	65.7543	3,031.49	67.4599	3,031.49	65.9887	3,031.49	65.7865	3,031.49	60.1469	3,031.49	64.6462	3,031.49	56.0293	3,031.49	60.3061	3,031.49	63.9281	3,031.49	62.3396	3,031.49	68.9403	3,031.49	68.7036
3,138.43	83.2216	3,138.43	81.2268	3,138.43	82.8358	3,138.43	76.5098	3,138.43	80.1152	3,138.43	70.1711	3,138.43	75.2174	3,138.43	72.0008	3,138.43	72.1416	3,138.43	74.002	3,138.43	73.6521	3,138.43	73.7101	3,138.43	73.8391	3,138.43	72.5801	3,138.43	72.3113	3,138.43	72.1556	3,138.43	70.6923	3,138.43	71.8507	3,138.43	69.4079	3,138.43	70.8522	3,138.43	64.58	3,138.43	69.7817	3,138.43	59.0888	3,138.43	68.7404	3,138.43	67.7791	3,138.43	67.2463	3,138.43	66.531	3,138.43	66.1498	3,138.43	60.3488	3,138.43	65.7026	3,138.43	60.3845	3,138.43	61.7976	3,138.43	66.0084	3,138.43	62.6288	3,138.43	69.6915	3,138.43	69.0271
3,249.02	83.5667	3,249.02	81.389	3,249.02	83.1188	3,249.02	76.3194	3,249.02	80.2327	3,249.02	72.1612	3,249.02	75.1615	3,249.02	73.7532	3,249.02	73.3204	3,249.02	74.697	3,249.02	75.4254	3,249.02	75.3005	3,249.02	75.6307	3,249.02	75.5582	3,249.02	74.3411	3,249.02	74.8167	3,249.02	73.0528	3,249.02	73.0519	3,249.02	72.0607	3,249.02	70.7928	3,249.02	68.6976	3,249.02	69.2328	3,249.02	59.1663	3,249.02	68.6656	3,249.02	67.5788	3,249.02	67.9758	3,249.02	67.478	3,249.02	66.861	3,249.02	60.2233	3,249.02	65.5048	3,249.02	60.8399	3,249.02	62.1521	3,249.02	65.2635	3,249.02	63.2118	3,249.02	68.9149	3,249.02	68.4254
3,363.28	82.9648	3,363.28	80.8453	3,363.28	82.7225	3,363.28	76.8974	3,363.28	80.0111	3,363.28	74.3795	3,363.28	75.2528	3,363.28	74.1767	3,363.28	74.31	3,363.28	75.9645	3,363.28	76.3805	3,363.28	77.5913	3,363.28	76.6602	3,363.28	77.1313	3,363.28	75.5105	3,363.28	74.5101	3,363.28	74.3308	3,363.28	71.1739	3,363.28	73.6603	3,363.28	69.591	3,363.28	71.0032	3,363.28	69.6338	3,363.28	56.5258	3,363.28	69.374	3,363.28	66.4362	3,363.28	68.3908	3,363.28	67.7866	3,363.28	67.8664	3,363.28	60.5359	3,363.28	67.306	3,363.28	58.8936	3,363.28	63.712	3,363.28	63.6592	3,363.28	64.806	3,363.28	68.9916	3,363.28	69.56
3,481.93	82.5292	3,481.93	80.5923	3,481.93	82.1458	3,481.93	77.3947	3,481.93	79.0701	3,481.93	74.8582	3,481.93	74.6392	3,481.93	75.3325	3,481.93	75.568	3,481.93	77.5487	3,481.93	77.6353	3,481.93	77.9534	3,481.93	77.5914	3,481.93	76.3834	3,481.93	76.0453	3,481.93	74.2285	3,481.93	74.1104	3,481.93	72.8004	3,481.93	73.044	3,481.93	70.9751	3,481.93	69.8507	3,481.93	69.3661	3,481.93	59.1086	3,481.93	68.5265	3,481.93	68.9768	3,481.93	67.4109	3,481.93	68.3341	3,481.93	67.4055	3,481.93	60.268	3,481.93	67.9676	3,481.93	58.2039	3,481.93	64.691	3,481.93	63.3619	3,481.93	65.4616	3,481.93	68.984	3,481.93	70.0488
3,604.98	82.1834	3,604.98	80.8971	3,604.98	81.6022	3,604.98	78.2098	3,604.98	78.8409	3,604.98	75.3787	3,604.98	74.7746	3,604.98	76.8664	3,604.98	75.5256	3,604.98	78.8461	3,604.98	78.0549	3,604.98	78.1685	3,604.98	78.6666	3,604.98	75.8909	3,604.98	77.2155	3,604.98	74.5016	3,604.98	73.7632	3,604.98	73.523	3,604.98	69.4062	3,604.98	71.2476	3,604.98	63.618	3,604.98	69.0736	3,604.98	64.4539	3,604.98	68.2501	3,604.98	70.7906	3,604.98	67.1912	3,604.98	69.2155	3,604.98	66.398	3,604.98	60.3083	3,604.98	66.965	3,604.98	57.5111	3,604.98	64.3892	3,604.98	64.1678	3,604.98	64.1252	3,604.98	69.1614	3,604.98	69.5412
3,732.42	81.4964	3,732.42	80.8776	3,732.42	80.4213	3,732.42	78.1957	3,732.42	77.6104	3,732.42	75.8522	3,732.42	74.8926	3,732.42	78.6082	3,732.42	76.4597	3,732.42	79.6012	3,732.42	78.8246	3,732.42	78.0103	3,732.42	79.3247	3,732.42	75.7754	3,732.42	78.0085	3,732.42	74.2492	3,732.42	74.6451	3,732.42	71.9813	3,732.42	67.5411	3,732.42	69.5335	3,732.42	57.5702	3,732.42	69.0239	3,732.42	66.7766	3,732.42	68.4172	3,732.42	70.1204	3,732.42	66.2688	3,732.42	68.7497	3,732.42	65.4969	3,732.42	62.2189	3,732.42	67.2493	3,732.42	56.3545	3,732.42	65.6406	3,732.42	63.4353	3,732.42	63.4231	3,732.42	67.9151	3,732.42	68.1232
3,863.53	82.0331	3,863.53	80.9005	3,863.53	80.4928	3,863.53	77.5149	3,863.53	76.8084	3,863.53	77.2768	3,863.53	74.8132	3,863.53	79.3822	3,863.53	77.2512	3,863.53	79.1434	3,863.53	79.0364	3,863.53	77.2101	3,863.53	79.1896	3,863.53	74.6366	3,863.53	78.4123	3,863.53	71.5759	3,863.53	76.2079	3,863.53	69.3298	3,863.53	71.3745	3,863.53	69.0154	3,863.53	64.2631	3,863.53	68.1975	3,863.53	62.8823	3,863.53	67.5385	3,863.53	66.0234	3,863.53	66.9949	3,863.53	67.6107	3,863.53	66.1374	3,863.53	65.3316	3,863.53	66.5273	3,863.53	62.2686	3,863.53	65.4933	3,863.53	64.9292	3,863.53	64.6036	3,863.53	68.4827	3,863.53	68.5384
3,999.76	81.9715	3,999.76	80.9405	3,999.76	80.6384	3,999.76	78.4058	3,999.76	77.0248	3,999.76	78.0101	3,999.76	74.5889	3,999.76	79.4869	3,999.76	77.3837	3,999.76	79.3671	3,999.76	79.4957	3,999.76	76.5279	3,999.76	79.8458	3,999.76	72.7595	3,999.76	78.3779	3,999.76	73.1671	3,999.76	74.4113	3,999.76	73.3332	3,999.76	68.6184	3,999.76	71.7174	3,999.76	66.0625	3,999.76	69.454	3,999.76	66.1288	3,999.76	67.8415	3,999.76	68.2047	3,999.76	66.631	3,999.76	68.153	3,999.76	65.3052	3,999.76	64.2317	3,999.76	64.8691	3,999.76	63.0673	3,999.76	63.6206	3,999.76	65.1369	3,999.76	64.1479	3,999.76	68.6298	3,999.76	68.8255
4,141.11	81.2785	4,141.11	80.5757	4,141.11	79.8053	4,141.11	78.3035	4,141.11	76.4747	4,141.11	79.0256	4,141.11	74.6093	4,141.11	80.0966	4,141.11	77.081	4,141.11	77.9778	4,141.11	79.4366	4,141.11	75.5153	4,141.11	79.9427	4,141.11	76.3498	4,141.11	78.5103	4,141.11	74.9935	4,141.11	75.2545	4,141.11	70.9062	4,141.11	70.8017	4,141.11	69.2088	4,141.11	66.5176	4,141.11	70.2228	4,141.11	62.6969	4,141.11	69.1599	4,141.11	65.9982	4,141.11	67.2621	4,141.11	68.2038	4,141.11	67.2334	4,141.11	64.418	4,141.11	66.8777	4,141.11	61.219	4,141.11	63.4623	4,141.11	66.515	4,141.11	62.5543	4,141.11	68.7703	4,141.11	67.2792
4,286.87	81.612	4,286.87	80.4178	4,286.87	79.7317	4,286.87	78.6544	4,286.87	75.319	4,286.87	79.6711	4,286.87	74.3255	4,286.87	79.5737	4,286.87	77.9842	4,286.87	78.6296	4,286.87	79.8391	4,286.87	78.3847	4,286.87	80.0191	4,286.87	76.3037	4,286.87	79.3775	4,286.87	73.8019	4,286.87	77.5677	4,286.87	74.437	4,286.87	73.5569	4,286.87	73.4445	4,286.87	66.4357	4,286.87	70.6375	4,286.87	57.3211	4,286.87	69.2792	4,286.87	56.8058	4,286.87	68.9918	4,286.87	63.1917	4,286.87	67.7399	4,286.87	66.177	4,286.87	67.9149	4,286.87	64.0351	4,286.87	65.6654	4,286.87	65.3046	4,286.87	63.5556	4,286.87	67.9606	4,286.87	68.5592
4,438.48	81.1118	4,438.48	80.7043	4,438.48	79.8753	4,438.48	80.1099	4,438.48	76.8117	4,438.48	80.2489	4,438.48	74.3534	4,438.48	80.1402	4,438.48	77.5994	4,438.48	79.711	4,438.48	80.5551	4,438.48	78.4556	4,438.48	81.646	4,438.48	77.2326	4,438.48	80.9465	4,438.48	76.6647	4,438.48	78.3102	4,438.48	75.1331	4,438.48	74.4219	4,438.48	72.3249	4,438.48	70.9324	4,438.48	70.3663	4,438.48	65.9136	4,438.48	69.9685	4,438.48	66.6025	4,438.48	69.7926	4,438.48	67.9073	4,438.48	68.6736	4,438.48	64.3301	4,438.48	67.6708	4,438.48	61.5168	4,438.48	66.2906	4,438.48	62.5145	4,438.48	65.0733	4,438.48	67.9163	4,438.48	69.3056
4,594.48	81.0257	4,594.48	81.0736	4,594.48	79.7751	4,594.48	80.5935	4,594.48	77.2683	4,594.48	80.4931	4,594.48	75.6418	4,594.48	80.5384	4,594.48	77.9244	4,594.48	80.6509	4,594.48	80.8137	4,594.48	80.6419	4,594.48	82.2383	4,594.48	79.355	4,594.48	82.1197	4,594.48	76.4628	4,594.48	80.1622	4,594.48	73.6782	4,594.48	76.6269	4,594.48	72.666	4,594.48	71.3707	4,594.48	71.6858	4,594.48	62.4801	4,594.48	69.628	4,594.48	62.4565	4,594.48	68.4569	4,594.48	69.5195	4,594.48	69.1342	4,594.48	68.1006	4,594.48	69.048	4,594.48	62.0603	4,594.48	66.6446	4,594.48	64.6102	4,594.48	64.1933	4,594.48	69.3797	4,594.48	68.9389
4,757.08	81.06	4,757.08	81.3827	4,757.08	79.4753	4,757.08	80.7614	4,757.08	77.3967	4,757.08	80.2687	4,757.08	76.7394	4,757.08	81.0856	4,757.08	78.8368	4,757.08	81.9798	4,757.08	80.9076	4,757.08	80.9456	4,757.08	81.783	4,757.08	78.1757	4,757.08	81.7252	4,757.08	76.3477	4,757.08	80.3803	4,757.08	74.867	4,757.08	76.9493	4,757.08	72.2942	4,757.08	70.0071	4,757.08	70.2443	4,757.08	53.3765	4,757.08	69.4957	4,757.08	57.5887	4,757.08	68.6609	4,757.08	64.721	4,757.08	68.5464	4,757.08	67.4416	4,757.08	69.2443	4,757.08	64.9707	4,757.08	67.8228	4,757.08	65.5417	4,757.08	66.6476	4,757.08	69.5369	4,757.08	70.2209
4,924.8	80.3043	4,924.8	81.1357	4,924.8	79.1384	4,924.8	80.4628	4,924.8	78.3691	4,924.8	80.3354	4,924.8	78.1402	4,924.8	81.8964	4,924.8	79.0472	4,924.8	81.8181	4,924.8	80.5567	4,924.8	80.2853	4,924.8	81.6614	4,924.8	79.1828	4,924.8	81.7578	4,924.8	77.1183	4,924.8	79.5646	4,924.8	72.9133	4,924.8	74.2289	4,924.8	69.9634	4,924.8	67.1645	4,924.8	69.6006	4,924.8	61.1825	4,924.8	68.3996	4,924.8	59.7386	4,924.8	67.2303	4,924.8	63.8995	4,924.8	67.6519	4,924.8	62.3526	4,924.8	68.4164	4,924.8	60.8299	4,924.8	67.3177	4,924.8	64.1361	4,924.8	65.7959	4,924.8	68.8487	4,924.8	69.312
5,098.39	80.4138	5,098.39	80.8003	5,098.39	79.2507	5,098.39	79.9019	5,098.39	78.3395	5,098.39	80.1421	5,098.39	78.7819	5,098.39	81.8105	5,098.39	79.9001	5,098.39	81.808	5,098.39	80.6854	5,098.39	80.1003	5,098.39	81.3241	5,098.39	77.1878	5,098.39	81.3423	5,098.39	73.6774	5,098.39	78.9873	5,098.39	71.711	5,098.39	74.1676	5,098.39	70.4774	5,098.39	68.6592	5,098.39	69.0286	5,098.39	60.521	5,098.39	67.2465	5,098.39	57.5679	5,098.39	65.5475	5,098.39	60.2217	5,098.39	65.5575	5,098.39	60.9444	5,098.39	66.2945	5,098.39	49.5889	5,098.39	64.8588	5,098.39	62.9184	5,098.39	64.2584	5,098.39	69.3277	5,098.39	69.1218
5,277.83	79.5873	5,277.83	80.2222	5,277.83	78.8479	5,277.83	79.4539	5,277.83	79.0256	5,277.83	80.2972	5,277.83	79.8936	5,277.83	82.1097	5,277.83	80.1899	5,277.83	80.9011	5,277.83	79.8776	5,277.83	77.6867	5,277.83	80.0618	5,277.83	76.4381	5,277.83	80.0831	5,277.83	75.2525	5,277.83	78.0834	5,277.83	71.9136	5,277.83	74.6872	5,277.83	68.8562	5,277.83	69.6553	5,277.83	66.876	5,277.83	65.2265	5,277.83	64.5525	5,277.83	62.11	5,277.83	62.9705	5,277.83	59.9708	5,277.83	64.4769	5,277.83	59.055	5,277.83	64.9007	5,277.83	55.0683	5,277.83	64.3558	5,277.83	63.374	5,277.83	64.6185	5,277.83	69.7754	5,277.83	68.2128
5,463.87	80.251	5,463.87	79.8647	5,463.87	78.9306	5,463.87	78.2178	5,463.87	78.5236	5,463.87	80.4695	5,463.87	80.0861	5,463.87	82.269	5,463.87	80.4106	5,463.87	79.9531	5,463.87	79.0731	5,463.87	76.5947	5,463.87	78.7392	5,463.87	75.249	5,463.87	79.3984	5,463.87	72.246	5,463.87	78.2911	5,463.87	71.7046	5,463.87	74.7692	5,463.87	70.9912	5,463.87	65.1896	5,463.87	67.4569	5,463.87	65.6985	5,463.87	66.0251	5,463.87	67.7085	5,463.87	65.9516	5,463.87	52.4764	5,463.87	63.6145	5,463.87	64.5687	5,463.87	63.779	5,463.87	59.7739	5,463.87	60.2936	5,463.87	66.2147	5,463.87	61.9213	5,463.87	68.6417	5,463.87	66.3627
5,656.49	79.8708	5,656.49	79.2192	5,656.49	79.0472	5,656.49	78.0951	5,656.49	78.9685	5,656.49	81.0168	5,656.49	80.7776	5,656.49	82.1603	5,656.49	81.1738	5,656.49	79.133	5,656.49	79.3848	5,656.49	76.503	5,656.49	77.9281	5,656.49	76.1446	5,656.49	78.47	5,656.49	74.1175	5,656.49	78.0245	5,656.49	72.448	5,656.49	75.0084	5,656.49	70.1806	5,656.49	67.1608	5,656.49	65.4666	5,656.49	62.2149	5,656.49	64.3462	5,656.49	66.4301	5,656.49	65.313	5,656.49	49.2921	5,656.49	63.1648	5,656.49	65.83	5,656.49	63.0477	5,656.49	56.5061	5,656.49	62.4422	5,656.49	64.7118	5,656.49	62.0848	5,656.49	68.2581	5,656.49	67.0442
5,856.45	80.0199	5,856.45	78.5067	5,856.45	78.8361	5,856.45	77.5898	5,856.45	78.0059	5,856.45	81.4025	5,856.45	80.7476	5,856.45	82.2248	5,856.45	81.5236	5,856.45	78.9339	5,856.45	79.2579	5,856.45	77.6902	5,856.45	76.5837	5,856.45	75.5711	5,856.45	76.7801	5,856.45	70.5989	5,856.45	76.8152	5,856.45	71.8885	5,856.45	74.7654	5,856.45	70.7911	5,856.45	69.3473	5,856.45	64.712	5,856.45	58.9577	5,856.45	64.2779	5,856.45	64.8159	5,856.45	66.6765	5,856.45	60.3299	5,856.45	63.519	5,856.45	68.6577	5,856.45	60.5308	5,856.45	60.5854	5,856.45	61.1141	5,856.45	62.9473	5,856.45	60.8115	5,856.45	67.0826	5,856.45	66.1015
6,062.99	80.6383	6,062.99	78.593	6,062.99	80.1661	6,062.99	78.3429	6,062.99	78.1163	6,062.99	81.5101	6,062.99	79.5924	6,062.99	81.4491	6,062.99	80.9106	6,062.99	78.7438	6,062.99	79.1983	6,062.99	78.2631	6,062.99	76.3173	6,062.99	74.7779	6,062.99	74.6758	6,062.99	69.0562	6,062.99	75.0631	6,062.99	70.0524	6,062.99	73.7608	6,062.99	68.4899	6,062.99	69.1726	6,062.99	63.9149	6,062.99	59.1163	6,062.99	62.601	6,062.99	66.585	6,062.99	64.082	6,062.99	59.467	6,062.99	61.2092	6,062.99	68.0027	6,062.99	55.7156	6,062.99	61.2019	6,062.99	62.8924	6,062.99	57.1031	6,062.99	63.6889	6,062.99	65.815	6,062.99	66.851
6,276.86	81.3466	6,276.86	78.5723	6,276.86	81.7039	6,276.86	79.1562	6,276.86	79.3297	6,276.86	81.5248	6,276.86	78.4262	6,276.86	80.5041	6,276.86	79.7345	6,276.86	78.2927	6,276.86	78.864	6,276.86	77.5884	6,276.86	77.9055	6,276.86	71.6667	6,276.86	76.3646	6,276.86	69.6269	6,276.86	74.4424	6,276.86	70.2358	6,276.86	73.0977	6,276.86	66.2496	6,276.86	72.4971	6,276.86	65.3553	6,276.86	64.5997	6,276.86	65.658	6,276.86	62.2703	6,276.86	60.8101	6,276.86	63.0829	6,276.86	58.3267	6,276.86	65.526	6,276.86	57.3409	6,276.86	60.1937	6,276.86	60.68	6,276.86	52.477	6,276.86	63.428	6,276.86	65.6866	6,276.86	66.3944
6,498.05	80.0157	6,498.05	79.1803	6,498.05	81.1675	6,498.05	80.5887	6,498.05	80.3038	6,498.05	80.9935	6,498.05	78.278	6,498.05	78.957	6,498.05	77.6115	6,498.05	77.3154	6,498.05	77.4883	6,498.05	75.7441	6,498.05	77.7801	6,498.05	72.2727	6,498.05	76.9787	6,498.05	71.8674	6,498.05	74.2447	6,498.05	69.1317	6,498.05	72.5514	6,498.05	64.7746	6,498.05	71.3241	6,498.05	65.1567	6,498.05	62.9623	6,498.05	64.7069	6,498.05	59.8078	6,498.05	61.07	6,498.05	59.105	6,498.05	59.9974	6,498.05	52.9959	6,498.05	59.1189	6,498.05	58.1104	6,498.05	59.5006	6,498.05	52.4322	6,498.05	62.9977	6,498.05	63.0386	6,498.05	63.9245
6,727.29	81.2043	6,727.29	80.2363	6,727.29	81.6672	6,727.29	80.5608	6,727.29	80.3502	6,727.29	80.7116	6,727.29	78.0457	6,727.29	79.0451	6,727.29	76.271	6,727.29	77.1323	6,727.29	75.1472	6,727.29	74.7483	6,727.29	76.1891	6,727.29	71.4542	6,727.29	76.8345	6,727.29	72.285	6,727.29	75.0148	6,727.29	70.225	6,727.29	71.9358	6,727.29	65.4812	6,727.29	69.905	6,727.29	65.0841	6,727.29	61.1052	6,727.29	65.7173	6,727.29	57.9834	6,727.29	63.5523	6,727.29	54.0921	6,727.29	60.9689	6,727.29	57.6177	6,727.29	60.15	6,727.29	59.5581	6,727.29	56.4427	6,727.29	58.0608	6,727.29	61.2062	6,727.29	64.8396	6,727.29	64.8291
6,964.6	81.3683	6,964.6	80.5973	6,964.6	82.1349	6,964.6	80.9902	6,964.6	81.3063	6,964.6	80.8008	6,964.6	78.9125	6,964.6	78.9762	6,964.6	75.8032	6,964.6	76.9381	6,964.6	73.7694	6,964.6	74.6081	6,964.6	74.1933	6,964.6	73.2745	6,964.6	74.0234	6,964.6	73.2645	6,964.6	71.2035	6,964.6	71.0317	6,964.6	69.3929	6,964.6	67.2942	6,964.6	69.3823	6,964.6	64.2671	6,964.6	63.1612	6,964.6	64.2906	6,964.6	57.1274	6,964.6	64.9173	6,964.6	52.1624	6,964.6	63.6153	6,964.6	55.8269	6,964.6	61.9187	6,964.6	58.009	6,964.6	57.8602	6,964.6	59.6556	6,964.6	61.0023	6,964.6	64.0121	6,964.6	63.6204
7,209.96	81.4315	7,209.96	80.3884	7,209.96	81.6448	7,209.96	79.9969	7,209.96	80.5975	7,209.96	80.0388	7,209.96	78.8717	7,209.96	79.012	7,209.96	76.534	7,209.96	77.0629	7,209.96	74.1003	7,209.96	75.3518	7,209.96	72.6137	7,209.96	74.3623	7,209.96	69.5892	7,209.96	73.2864	7,209.96	65.6036	7,209.96	70.6739	7,209.96	66.5311	7,209.96	67.5588	7,209.96	68.0453	7,209.96	65.872	7,209.96	64.967	7,209.96	64.9343	7,209.96	62.9146	7,209.96	64.6642	7,209.96	53.3965	7,209.96	62.8395	7,209.96	60.9368	7,209.96	61.8539	7,209.96	59.551	7,209.96	57.2753	7,209.96	59.874	7,209.96	61.6937	7,209.96	65.0289	7,209.96	66.3143
7,464.11	81.1635	7,464.11	79.9874	7,464.11	81.5523	7,464.11	79.6674	7,464.11	80.5369	7,464.11	79.6944	7,464.11	78.706	7,464.11	78.3347	7,464.11	76.6295	7,464.11	76.8847	7,464.11	75.4248	7,464.11	76.1244	7,464.11	74.9384	7,464.11	74.2232	7,464.11	72.5461	7,464.11	72.0314	7,464.11	69.2353	7,464.11	69.622	7,464.11	68.324	7,464.11	66.8531	7,464.11	66.2822	7,464.11	64.3737	7,464.11	64.5644	7,464.11	63.2603	7,464.11	66.4855	7,464.11	64.2565	7,464.11	58.9845	7,464.11	62.45	7,464.11	58.1164	7,464.11	60.0165	7,464.11	56.9866	7,464.11	58.2981	7,464.11	59.097	7,464.11	56.6142	7,464.11	64.4558	7,464.11	64.7508
7,727.78	80.7894	7,727.78	79.7432	7,727.78	80.9135	7,727.78	78.9988	7,727.78	80.1106	7,727.78	78.7419	7,727.78	79.1234	7,727.78	77.7832	7,727.78	78.1909	7,727.78	77.039	7,727.78	77.4387	7,727.78	75.9965	7,727.78	76.9199	7,727.78	72.6036	7,727.78	75.1475	7,727.78	69.3752	7,727.78	72.4941	7,727.78	67.3226	7,727.78	70.7484	7,727.78	64.3647	7,727.78	65.6007	7,727.78	62.2719	7,727.78	58.8966	7,727.78	61.3732	7,727.78	65.9599	7,727.78	62.3448	7,727.78	54.8344	7,727.78	60.1986	7,727.78	61.7827	7,727.78	57.3453	7,727.78	58.1737	7,727.78	54.7763	7,727.78	58.1895	7,727.78	54.8484	7,727.78	61.8477	7,727.78	61.6383
8,000.24	80.8679	8,000.24	79.84	8,000.24	80.5541	8,000.24	79.0205	8,000.24	79.2899	8,000.24	78.7046	8,000.24	78.6024	8,000.24	77.8671	8,000.24	78.3676	8,000.24	77.6272	8,000.24	77.7085	8,000.24	75.5066	8,000.24	77.05	8,000.24	71.3441	8,000.24	75.3509	8,000.24	71.0608	8,000.24	72.2991	8,000.24	68.3507	8,000.24	69.8909	8,000.24	64.6021	8,000.24	66.3512	8,000.24	64.4522	8,000.24	57.4178	8,000.24	61.8141	8,000.24	67.9635	8,000.24	60.8624	8,000.24	60.6657	8,000.24	59.5794	8,000.24	62.8225	8,000.24	58.2639	8,000.24	61.0068	8,000.24	59.6525	8,000.24	55.8985	8,000.24	50.7746	8,000.24	61.2649	8,000.24	63.2085
8,282.23	82.3782	8,282.23	81.3156	8,282.23	81.3446	8,282.23	79.7514	8,282.23	79.0317	8,282.23	79.0594	8,282.23	78.1808	8,282.23	78.6135	8,282.23	78.3077	8,282.23	77.8344	8,282.23	77.7041	8,282.23	75.25	8,282.23	77.378	8,282.23	73.9608	8,282.23	75.2833	8,282.23	73.3061	8,282.23	70.5739	8,282.23	68.9801	8,282.23	68.664	8,282.23	65.6702	8,282.23	67.0287	8,282.23	65.9194	8,282.23	54.8074	8,282.23	62.7988	8,282.23	68.7234	8,282.23	60.5823	8,282.23	62.243	8,282.23	60.1245	8,282.23	61.6975	8,282.23	59.8781	8,282.23	60.1883	8,282.23	60.5052	8,282.23	56.1937	8,282.23	54.6463	8,282.23	60.7823	8,282.23	63.9869
8,574.46	82.8451	8,574.46	81.4734	8,574.46	81.9699	8,574.46	79.7539	8,574.46	79.5371	8,574.46	79.0354	8,574.46	78.4819	8,574.46	78.4722	8,574.46	78.4316	8,574.46	77.8	8,574.46	78.1703	8,574.46	76.0903	8,574.46	78.3922	8,574.46	75.0645	8,574.46	75.6623	8,574.46	72.5344	8,574.46	69.348	8,574.46	66.3001	8,574.46	68.41	8,574.46	65.4823	8,574.46	67.1996	8,574.46	65.5435	8,574.46	45.4707	8,574.46	60.735	8,574.46	67.0729	8,574.46	58.0798	8,574.46	60.8943	8,574.46	59.9571	8,574.46	60.5987	8,574.46	60.6388	8,574.46	58.7256	8,574.46	61.3542	8,574.46	49.5036	8,574.46	57.1156	8,574.46	61.5161	8,574.46	66.365
8,876.22	82.5538	8,876.22	81.2601	8,876.22	82.0468	8,876.22	79.7074	8,876.22	80.1269	8,876.22	78.8119	8,876.22	78.7703	8,876.22	78.3028	8,876.22	77.8939	8,876.22	77.7467	8,876.22	77.6623	8,876.22	76.2619	8,876.22	78.1011	8,876.22	74.4466	8,876.22	75.566	8,876.22	70.0222	8,876.22	70.5764	8,876.22	64.495	8,876.22	69.3766	8,876.22	64.4773	8,876.22	64.6406	8,876.22	61.8864	8,876.22	54.7489	8,876.22	56.6262	8,876.22	62.7027	8,876.22	58.4812	8,876.22	53.1967	8,876.22	58.9524	8,876.22	57.6401	8,876.22	58.7682	8,876.22	57.8435	8,876.22	59.0131	8,876.22	44.6745	8,876.22	56.908	8,876.22	62.4352	8,876.22	65.8338
9,189.7	81.2545	9,189.7	79.8262	9,189.7	80.8534	9,189.7	78.1485	9,189.7	79.3701	9,189.7	77.7769	9,189.7	78.6364	9,189.7	77.8992	9,189.7	77.9165	9,189.7	77.4069	9,189.7	77.4623	9,189.7	75.6245	9,189.7	77.362	9,189.7	73.0277	9,189.7	74.5792	9,189.7	69.914	9,189.7	69.9932	9,189.7	66.7747	9,189.7	69.1183	9,189.7	63.6211	9,189.7	65.4602	9,189.7	59.3287	9,189.7	56.6616	9,189.7	58.2056	9,189.7	57.4889	9,189.7	60.5705	9,189.7	56.5278	9,189.7	57.4053	9,189.7	56.2142	9,189.7	56.5373	9,189.7	57.3537	9,189.7	58.7249	9,189.7	54.6152	9,189.7	53.3389	9,189.7	63.4746	9,189.7	64.5732
9,513.43	79.8021	9,513.43	78.2158	9,513.43	79.636	9,513.43	77.2578	9,513.43	78.3801	9,513.43	77.8858	9,513.43	77.9921	9,513.43	78.2027	9,513.43	77.4592	9,513.43	77.3902	9,513.43	76.5749	9,513.43	75.1428	9,513.43	75.928	9,513.43	72.8908	9,513.43	72.8446	9,513.43	70.9382	9,513.43	68.8059	9,513.43	67.5869	9,513.43	68.5898	9,513.43	63.8709	9,513.43	66.2531	9,513.43	59.6385	9,513.43	56.4835	9,513.43	58.1984	9,513.43	59.0534	9,513.43	61.5784	9,513.43	62.083	9,513.43	58.4058	9,513.43	45.9274	9,513.43	53.5606	9,513.43	57.3886	9,513.43	57.4175	9,513.43	53.8666	9,513.43	53.9516	9,513.43	62.0148	9,513.43	62.5848
9,848.88	80.1782	9,848.88	79.2968	9,848.88	79.7847	9,848.88	78.7683	9,848.88	78.6723	9,848.88	78.6715	9,848.88	78.0056	9,848.88	78.1028	9,848.88	76.4463	9,848.88	76.9041	9,848.88	74.9316	9,848.88	74.3659	9,848.88	74.7691	9,848.88	71.7011	9,848.88	71.9848	9,848.88	69.0691	9,848.88	67.9617	9,848.88	64.2443	9,848.88	66.8348	9,848.88	61.0547	9,848.88	63.0695	9,848.88	58.2643	9,848.88	53.0432	9,848.88	53.2275	9,848.88	60.0248	9,848.88	59.6222	9,848.88	60.5014	9,848.88	59.5288	9,848.88	46.8672	9,848.88	47.0098	9,848.88	56.3946	9,848.88	57.5196	9,848.88	51.7433	9,848.88	50.4314	9,848.88	58.4265	9,848.88	59.8329
10,196.8	81.1813	10,196.8	80.85	10,196.8	80.3128	10,196.8	79.9418	10,196.8	79.0508	10,196.8	78.8595	10,196.8	77.971	10,196.8	77.4663	10,196.8	75.7795	10,196.8	75.6005	10,196.8	74.0791	10,196.8	72.5266	10,196.8	73.3374	10,196.8	69.4481	10,196.8	68.9195	10,196.8	65.1713	10,196.8	62.8327	10,196.8	58.4323	10,196.8	61.33	10,196.8	58.3195	10,196.8	58.839	10,196.8	57.5921	10,196.8	54.9355	10,196.8	49.8288	10,196.8	50.5154	10,196.8	56.045	10,196.8	56.0854	10,196.8	58.6816	10,196.8	49.2464	10,196.8	39.2976	10,196.8	56.5313	10,196.8	55.1544	10,196.8	49.3199	10,196.8	51.4927	10,196.8	56.5278	10,196.8	59.0919
10,556.4	81.3402	10,556.4	80.8738	10,556.4	80.3333	10,556.4	79.3188	10,556.4	78.8692	10,556.4	77.5509	10,556.4	77.1483	10,556.4	76.0157	10,556.4	73.9908	10,556.4	74.0032	10,556.4	71.8461	10,556.4	70.5939	10,556.4	70.5961	10,556.4	67.8584	10,556.4	64.8391	10,556.4	63.2941	10,556.4	58.5412	10,556.4	57.3326	10,556.4	58.4904	10,556.4	56.8275	10,556.4	58.0013	10,556.4	56.2812	10,556.4	53.4	10,556.4	51.0061	10,556.4	48.924	10,556.4	50.2426	10,556.4	54.6952	10,556.4	56.0292	10,556.4	50.0006	10,556.4	42.1944	10,556.4	56.1074	10,556.4	50.7464	10,556.4	50.39	10,556.4	53.7106	10,556.4	54.5685	10,556.4	58.4547
10,928.5	80.9675	10,928.5	80.053	10,928.5	80.3727	10,928.5	78.2925	10,928.5	78.8983	10,928.5	76.5714	10,928.5	76.5462	10,928.5	74.634	10,928.5	73.0534	10,928.5	72.1333	10,928.5	71.019	10,928.5	69.3	10,928.5	68.8085	10,928.5	66.6864	10,928.5	62.4395	10,928.5	61.991	10,928.5	59.7543	10,928.5	56.7112	10,928.5	58.0272	10,928.5	54.4558	10,928.5	55.4165	10,928.5	53.4303	10,928.5	51.6104	10,928.5	49.6388	10,928.5	46.8581	10,928.5	44.0156	10,928.5	49.5492	10,928.5	53.8953	10,928.5	47.4366	10,928.5	46.7138	10,928.5	53.0417	10,928.5	48.6347	10,928.5	49.095	10,928.5	52.3624	10,928.5	53.6727	10,928.5	56.5977
11,313.7	81.0773	11,313.7	80.0186	11,313.7	80.6692	11,313.7	78.5164	11,313.7	79.1609	11,313.7	76.844	11,313.7	76.6681	11,313.7	74.1764	11,313.7	72.8189	11,313.7	71.1066	11,313.7	69.6477	11,313.7	67.4361	11,313.7	66.1283	11,313.7	63.2701	11,313.7	60.4695	11,313.7	59.43	11,313.7	55.6472	11,313.7	52.8836	11,313.7	46.2017	11,313.7	48.788	11,313.7	43.8353	11,313.7	48.7779	11,313.7	51.4289	11,313.7	45.9399	11,313.7	53.3885	11,313.7	32.8724	11,313.7	46.1975	11,313.7	49.8298	11,313.7	45.9754	11,313.7	44.3364	11,313.7	50.3924	11,313.7	46.1646	11,313.7	48.9661	11,313.7	51.0459	11,313.7	51.4811	11,313.7	52.6477
11,712.9	80.5859	11,712.9	80.097	11,712.9	80.5463	11,712.9	79.4949	11,712.9	79.5019	11,712.9	77.6224	11,712.9	77.0843	11,712.9	74.3626	11,712.9	73.1031	11,712.9	70.8976	11,712.9	69.9029	11,712.9	65.7542	11,712.9	66.3156	11,712.9	62.6537	11,712.9	58.6069	11,712.9	57.5612	11,712.9	56.3528	11,712.9	51.3458	11,712.9	58.0431	11,712.9	48.4712	11,712.9	52.925	11,712.9	44.108	11,712.9	55.9499	11,712.9	43.5118	11,712.9	58.4334	11,712.9	40.8979	11,712.9	51.2365	11,712.9	49.0222	11,712.9	38.665	11,712.9	36.7096	11,712.9	48.1956	11,712.9	48.3909	11,712.9	48.3729	11,712.9	50.4371	11,712.9	50.3405	11,712.9	51.2886
12,126	80.7989	12,126	80.7063	12,126	80.5678	12,126	79.8503	12,126	79.7261	12,126	77.6019	12,126	77.8458	12,126	74.549	12,126	74.8343	12,126	70.6996	12,126	72.0566	12,126	66.3896	12,126	68.1992	12,126	63.3751	12,126	61.8995	12,126	57.66	12,126	59.5656	12,126	53.2377	12,126	60.132	12,126	48.3018	12,126	58.7079	12,126	47.9816	12,126	56.9305	12,126	46.4465	12,126	60.9497	12,126	39.2977	12,126	55.6206	12,126	49.6665	12,126	44.7013	12,126	46.3888	12,126	46.3031	12,126	48.978	12,126	47.009	12,126	50.1333	12,126	46.0301	12,126	44.6206
12,553.7	81.4901	12,553.7	81.0275	12,553.7	81.0593	12,553.7	79.5248	12,553.7	79.9455	12,553.7	77.2203	12,553.7	78.1637	12,553.7	74.3008	12,553.7	75.6468	12,553.7	70.8984	12,553.7	73.3192	12,553.7	67.7641	12,553.7	69.5166	12,553.7	63.4654	12,553.7	63.5579	12,553.7	58.9307	12,553.7	61.1196	12,553.7	51.9169	12,553.7	60.1642	12,553.7	49.4928	12,553.7	58.9919	12,553.7	50.9116	12,553.7	54.665	12,553.7	47.7386	12,553.7	60.3414	12,553.7	45.4601	12,553.7	57.6005	12,553.7	50.1402	12,553.7	43.7869	12,553.7	49.0793	12,553.7	49.5761	12,553.7	51.0782	12,553.7	47.5264	12,553.7	49.0899	12,553.7	47.5347	12,553.7	45.1468
12,996.1	81.6639	12,996.1	80.8117	12,996.1	81.3622	12,996.1	79.2503	12,996.1	80.0415	12,996.1	77.0178	12,996.1	78.0693	12,996.1	73.887	12,996.1	75.3796	12,996.1	71.0751	12,996.1	72.4154	12,996.1	66.665	12,996.1	69.16	12,996.1	62.0041	12,996.1	64.268	12,996.1	57.3165	12,996.1	60.5831	12,996.1	49.2292	12,996.1	61.2214	12,996.1	46.4628	12,996.1	56.4589	12,996.1	46.8395	12,996.1	48.1551	12,996.1	46.92	12,996.1	57.0203	12,996.1	45.7104	12,996.1	55.3097	12,996.1	47.7865	12,996.1	42.6276	12,996.1	49.5502	12,996.1	49.485	12,996.1	51.7523	12,996.1	34.6926	12,996.1	48.3371	12,996.1	46.5269	12,996.1	52.0967
13,454.6	81.8003	13,454.6	80.8879	13,454.6	81.4628	13,454.6	79.2222	13,454.6	79.8408	13,454.6	76.4461	13,454.6	77.2033	13,454.6	72.705	13,454.6	73.3621	13,454.6	69.1787	13,454.6	69.736	13,454.6	62.7645	13,454.6	66.5439	13,454.6	58.1262	13,454.6	58.8312	13,454.6	49.4585	13,454.6	56.5968	13,454.6	42.4517	13,454.6	56.0876	13,454.6	25.6557	13,454.6	52.0641	13,454.6	37.1699	13,454.6	53.1183	13,454.6	44.3808	13,454.6	54.4672	13,454.6	43.5699	13,454.6	49.2832	13,454.6	38.6985	13,454.6	45.9342	13,454.6	48.4558	13,454.6	41.3555	13,454.6	46.7719	13,454.6	48.5482	13,454.6	42.4891	13,454.6	47.875	13,454.6	48.7994
13,928.5	80.7677	13,928.5	80.2909	13,928.5	80.9581	13,928.5	79.0727	13,928.5	79.88	13,928.5	75.4547	13,928.5	76.8203	13,928.5	71.8355	13,928.5	72.2525	13,928.5	67.4922	13,928.5	67.4019	13,928.5	58.5459	13,928.5	60.7	13,928.5	53.3941	13,928.5	51.8948	13,928.5	45.8586	13,928.5	53.2905	13,928.5	47.2203	13,928.5	55.0698	13,928.5	47.6992	13,928.5	58.4596	13,928.5	35.8191	13,928.5	59.2743	13,928.5	37.9099	13,928.5	59.9679	13,928.5	42.5634	13,928.5	51.5141	13,928.5	41.7993	13,928.5	51.0202	13,928.5	47.8354	13,928.5	39.8993	13,928.5	40.8365	13,928.5	52.3342	13,928.5	47.7868	13,928.5	47.5825	13,928.5	46.6811
14,419.9	80.7174	14,419.9	80.679	14,419.9	80.7432	14,419.9	79.1849	14,419.9	79.8049	14,419.9	75.4908	14,419.9	76.9622	14,419.9	72.7204	14,419.9	73.2309	14,419.9	66.8784	14,419.9	68.8498	14,419.9	59.7737	14,419.9	64.2703	14,419.9	53.1809	14,419.9	58.0447	14,419.9	54.4707	14,419.9	56.0653	14,419.9	53.9737	14,419.9	56.5967	14,419.9	52.0475	14,419.9	59.1564	14,419.9	37.6747	14,419.9	58.7498	14,419.9	44.4929	14,419.9	61.1085	14,419.9	48.4818	14,419.9	57.2533	14,419.9	48.8186	14,419.9	51.3787	14,419.9	50.4047	14,419.9	49.9124	14,419.9	48.282	14,419.9	53.293	14,419.9	46.1077	14,419.9	51.0368	14,419.9	39.5982
14,928.2	81.7244	14,928.2	81.2521	14,928.2	81.3831	14,928.2	79.1772	14,928.2	79.745	14,928.2	75.8618	14,928.2	76.8433	14,928.2	73.1903	14,928.2	73.586	14,928.2	66.8979	14,928.2	69.6693	14,928.2	60.3115	14,928.2	66.9312	14,928.2	58.4115	14,928.2	59.586	14,928.2	57.003	14,928.2	58.5822	14,928.2	57.7482	14,928.2	59.1499	14,928.2	53.153	14,928.2	58.955	14,928.2	30.9755	14,928.2	54.7574	14,928.2	48.9402	14,928.2	59.6967	14,928.2	50.3478	14,928.2	58.4156	14,928.2	50.753	14,928.2	47.6098	14,928.2	53.5193	14,928.2	51.5751	14,928.2	50.9923	14,928.2	50.8075	14,928.2	48.5867	14,928.2	49.7683	14,928.2	47.9612
15,454.8	82.2939	15,454.8	81.6754	15,454.8	81.9357	15,454.8	79.4945	15,454.8	80.2509	15,454.8	76.4106	15,454.8	77.347	15,454.8	73.6578	15,454.8	73.7888	15,454.8	66.1166	15,454.8	70.0992	15,454.8	62.338	15,454.8	66.9708	15,454.8	58.5726	15,454.8	58.0211	15,454.8	57.9621	15,454.8	59.1612	15,454.8	56.5855	15,454.8	57.7356	15,454.8	52.776	15,454.8	57.6794	15,454.8	38.0746	15,454.8	54.1868	15,454.8	47.2722	15,454.8	61.262	15,454.8	51.3407	15,454.8	58.7162	15,454.8	49.455	15,454.8	47.9164	15,454.8	53.8659	15,454.8	49.4432	15,454.8	49.114	15,454.8	52.5103	15,454.8	48.119	15,454.8	48.232	15,454.8	48.7413
15,999.8	81.9021	15,999.8	81.2061	15,999.8	81.7616	15,999.8	79.2569	15,999.8	80.3124	15,999.8	76.1225	15,999.8	77.1318	15,999.8	72.5677	15,999.8	73.2116	15,999.8	63.8099	15,999.8	69.4623	15,999.8	61.4772	15,999.8	64.9078	15,999.8	55.9233	15,999.8	53.1909	15,999.8	56.2406	15,999.8	54.0141	15,999.8	54.7487	15,999.8	53.6156	15,999.8	52.3197	15,999.8	57.1984	15,999.8	41.0097	15,999.8	56.9939	15,999.8	44.0162	15,999.8	62.4238	15,999.8	50.2345	15,999.8	58.9426	15,999.8	48.0651	15,999.8	51.1366	15,999.8	51.0517	15,999.8	48.431	15,999.8	49.5513	15,999.8	56.2846	15,999.8	47.0245	15,999.8	53.3902	15,999.8	48.1973
16,564.5	81.0662	16,564.5	80.652	16,564.5	80.9658	16,564.5	78.8455	16,564.5	79.6646	16,564.5	75.479	16,564.5	76.3599	16,564.5	71.3864	16,564.5	72.7123	16,564.5	61.3886	16,564.5	68.4514	16,564.5	61.567	16,564.5	62.7471	16,564.5	55.0327	16,564.5	51.0522	16,564.5	56.0268	16,564.5	53.02	16,564.5	55.5106	16,564.5	51.3721	16,564.5	50.8442	16,564.5	54.522	16,564.5	47.993	16,564.5	55.3045	16,564.5	42.9843	16,564.5	62.2914	16,564.5	50.3743	16,564.5	60.344	16,564.5	48.6839	16,564.5	50.9759	16,564.5	50.7475	16,564.5	51.1491	16,564.5	53.4121	16,564.5	56.6852	16,564.5	44.1341	16,564.5	53.7155	16,564.5	51.1744
17,148.2	81.4886	17,148.2	81.0202	17,148.2	80.9477	17,148.2	78.8087	17,148.2	79.1057	17,148.2	75.2143	17,148.2	75.5705	17,148.2	70.4622	17,148.2	72.0603	17,148.2	61.541	17,148.2	67.2138	17,148.2	61.645	17,148.2	61.5889	17,148.2	54.9004	17,148.2	51.3126	17,148.2	54.8	17,148.2	52.6917	17,148.2	54.5119	17,148.2	52.9003	17,148.2	48.8231	17,148.2	50.451	17,148.2	49.8874	17,148.2	51.6107	17,148.2	42.1633	17,148.2	61.6488	17,148.2	50.1847	17,148.2	60.426	17,148.2	47.0224	17,148.2	48.1339	17,148.2	51.35	17,148.2	51.8408	17,148.2	53.032	17,148.2	54.3558	17,148.2	45.8626	17,148.2	50.6551	17,148.2	53.5655
17,753.2	82.3638	17,753.2	81.3768	17,753.2	81.5815	17,753.2	78.6093	17,753.2	79.3096	17,753.2	74.6574	17,753.2	75.2704	17,753.2	68.9567	17,753.2	70.6071	17,753.2	61.0088	17,753.2	65.3346	17,753.2	59.3009	17,753.2	58.0865	17,753.2	49.9939	17,753.2	46.2256	17,753.2	48.213	17,753.2	52.15	17,753.2	52.6379	17,753.2	52.9577	17,753.2	48.3973	17,753.2	52.5061	17,753.2	48.8304	17,753.2	56.1715	17,753.2	31.5577	17,753.2	62.0666	17,753.2	45.8481	17,753.2	59.6611	17,753.2	43.7032	17,753.2	44.453	17,753.2	48.7541	17,753.2	49.8124	17,753.2	50.4599	17,753.2	52.204	17,753.2	49.004	17,753.2	45.4511	17,753.2	54.4108
18,379.4	81.9139	18,379.4	80.7591	18,379.4	81.4098	18,379.4	78.3941	18,379.4	79.4094	18,379.4	74.2446	18,379.4	74.8799	18,379.4	68.1255	18,379.4	69.955	18,379.4	59.9397	18,379.4	64.3346	18,379.4	57.2081	18,379.4	55.327	18,379.4	45.2	18,379.4	47.3547	18,379.4	47.0508	18,379.4	51.493	18,379.4	54.1792	18,379.4	49.3685	18,379.4	48.0341	18,379.4	52.7259	18,379.4	50.0049	18,379.4	58.6931	18,379.4	34.6977	18,379.4	62.7258	18,379.4	48.0994	18,379.4	59.8475	18,379.4	45.5421	18,379.4	48.7756	18,379.4	52.2566	18,379.4	48.9293	18,379.4	54.6013	18,379.4	55.894	18,379.4	52.0275	18,379.4	48.1782	18,379.4	57.9405
19,027.6	80.9127	19,027.6	80.2468	19,027.6	80.2187	19,027.6	77.9819	19,027.6	78.2152	19,027.6	73.0286	19,027.6	73.5207	19,027.6	66.6024	19,027.6	69.1154	19,027.6	57.508	19,027.6	62.6344	19,027.6	53.3831	19,027.6	55.2177	19,027.6	46.6861	19,027.6	47.3753	19,027.6	43.475	19,027.6	53.0017	19,027.6	54.7341	19,027.6	47.6649	19,027.6	47.66	19,027.6	45.4892	19,027.6	51.3512	19,027.6	55.4764	19,027.6	37.0563	19,027.6	60.2099	19,027.6	48.3564	19,027.6	58.7059	19,027.6	46.1663	19,027.6	47.6938	19,027.6	54.345	19,027.6	50.5538	19,027.6	55.2253	19,027.6	55.4433	19,027.6	53.6375	19,027.6	50.2084	19,027.6	57.8928
19,698.5	81.5857	19,698.5	80.3919	19,698.5	80.396	19,698.5	76.9586	19,698.5	77.5385	19,698.5	71.4688	19,698.5	72.2955	19,698.5	64.4147	19,698.5	67.0135	19,698.5	55.7467	19,698.5	58.7885	19,698.5	47.167	19,698.5	55.218	19,698.5	48.0303	19,698.5	47.4924	19,698.5	47.585	19,698.5	49.8686	19,698.5	54.5996	19,698.5	44.5834	19,698.5	49.8596	19,698.5	44.7579	19,698.5	50.1718	19,698.5	53.7633	19,698.5	35.1563	19,698.5	58.9624	19,698.5	49.6848	19,698.5	57.7284	19,698.5	43.8074	19,698.5	43.7187	19,698.5	55.136	19,698.5	48.6675	19,698.5	53.9724	19,698.5	52.7904	19,698.5	55.1655	19,698.5	42.4201	19,698.5	58.5013
19,999.5	82.0352	19,999.5	80.2695	19,999.5	80.8593	19,999.5	76.6315	19,999.5	77.7107	19,999.5	71.2875	19,999.5	71.8861	19,999.5	63.7115	19,999.5	66.0939	19,999.5	56.6593	19,999.5	57.7444	19,999.5	44.5546	19,999.5	54.226	19,999.5	48.1014	19,999.5	45.6738	19,999.5	49.7819	19,999.5	47.4144	19,999.5	54.1391	19,999.5	39.4457	19,999.5	50.1844	19,999.5	36.2023	19,999.5	49.2081	19,999.5	56.1455	19,999.5	32.7921	19,999.5	59.9965	19,999.5	50.0779	19,999.5	57.5834	19,999.5	43.2994	19,999.5	44.9113	19,999.5	54.7463	19,999.5	44.5793	19,999.5	53.5544	19,999.5	54.007	19,999.5	53.9576	19,999.5	48.5396	19,999.5	57.9441
