"Vertical Reflections"					
"Floor Reflection"		"Ceiling Reflection"		"Total Vertical Reflection"	
"Frequency [Hz]"	"Sound Pessure Level [dB]  / [2.83V 1m] "	"Frequency [Hz]"	"Sound Pessure Level [dB]  / [2.83V 1m] "	"Frequency [Hz]"	"Sound Pessure Level [dB]  / [2.83V 1m] "
20.5078	41.8557	20.5078	39.8068	20.5078	40.9509
21.2402	43.5364	21.2402	39.4842	21.2402	41.9667
21.9727	41.7645	21.9727	38.1523	21.9727	40.3236
22.7051	42.6685	22.7051	39.9213	22.7051	41.5086
23.4375	43.5959	23.4375	42.641	23.4375	43.1446
24.1699	45.053	24.1699	43.9507	24.1699	44.5367
25.6348	46.6564	25.6348	45.9853	25.6348	46.3338
26.3672	47.823	26.3672	47.4633	26.3672	47.6469
27.0996	48.8156	27.0996	48.4776	27.0996	48.6499
27.832	49.7662	27.832	49.6911	27.832	49.7288
29.2969	52.1731	29.2969	52.1246	29.2969	52.1489
30.0293	53.3712	30.0293	53.4063	30.0293	53.3888
31.4941	55.787	31.4941	55.8122	31.4941	55.7996
32.2266	56.7525	32.2266	56.7133	32.2266	56.733
33.6914	58.6368	33.6914	58.5581	33.6914	58.5976
34.4238	59.6569	34.4238	59.6311	34.4238	59.644
35.8887	61.6495	35.8887	61.5705	35.8887	61.6101
37.3535	63.4186	37.3535	63.29	37.3535	63.3548
38.8184	65.0495	38.8184	64.9075	38.8184	64.9791
39.5508	65.7726	39.5508	65.6136	39.5508	65.6938
41.0156	67.0993	41.0156	66.9656	41.0156	67.033
42.4805	69.0402	42.4805	68.936	42.4805	68.9884
43.9453	70.5	43.9453	70.363	43.9453	70.432
45.4102	71.8614	45.4102	71.7215	45.4102	71.7921
47.6074	73.5084	47.6074	73.3501	47.6074	73.43
49.0723	74.3692	49.0723	74.1983	49.0723	74.2846
50.5371	74.9916	50.5371	74.811	50.5371	74.9023
52.7344	75.5709	52.7344	75.3728	52.7344	75.473
54.1992	75.8093	54.1992	75.6041	54.1992	75.7079
56.3965	75.9945	56.3965	75.7712	56.3965	75.8843
58.5938	75.9714	58.5938	75.7102	58.5938	75.8428
60.0586	75.9195	60.0586	75.6945	60.0586	75.8085
62.2559	76.1101	62.2559	75.8697	62.2559	75.9916
64.4531	76.1406	64.4531	75.886	64.4531	76.0152
66.6504	76.2081	66.6504	75.9326	66.6504	76.0725
69.5801	76.326	69.5801	76.0176	69.5801	76.1745
71.7773	76.4173	71.7773	76.1069	71.7773	76.2649
73.9746	76.4999	73.9746	76.1869	73.9746	76.3462
76.9043	76.6665	76.9043	76.3304	76.9043	76.5017
79.834	76.8127	79.834	76.4662	79.834	76.6429
82.7637	77.0794	82.7637	76.7028	82.7637	76.8952
85.6934	77.3055	85.6934	76.9231	85.6934	77.1185
88.623	77.5686	88.623	77.1535	88.623	77.366
91.5527	77.5732	91.5527	77.1786	91.5527	77.3804
94.4824	77.6932	94.4824	77.3151	94.4824	77.5083
98.1445	78.1626	98.1445	77.7649	98.1445	77.9683
101.807	78.4167	101.807	78.0253	101.807	78.2254
105.469	78.6485	105.469	78.2528	105.469	78.4552
109.131	78.8931	109.131	78.4649	109.131	78.6843
112.793	79.1672	112.793	78.7326	112.793	78.9553
116.455	79.3708	116.455	78.924	116.455	79.1532
120.85	79.698	120.85	79.2652	120.85	79.487
125.244	80.0188	125.244	79.5297	125.244	79.7812
129.639	80.2308	129.639	79.7268	129.639	79.9861
134.033	80.313	134.033	79.8239	134.033	80.0753
138.428	80.6003	138.428	80.1276	138.428	80.3704
143.555	80.9606	143.555	80.3896	143.555	80.6845
148.682	81.1595	148.682	80.5523	148.682	80.8665
153.809	81.3113	153.809	80.7246	153.809	81.0278
159.668	81.5443	159.668	80.9265	159.668	81.2464
164.795	81.7553	164.795	81.1164	164.795	81.4476
170.654	81.8408	170.654	81.1984	170.654	81.5315
176.514	81.9199	176.514	81.2377	176.514	81.5922
183.105	81.9626	183.105	81.2273	183.105	81.6105
189.697	82.0584	189.697	81.3821	189.697	81.7334
196.289	82.1292	196.289	81.4633	196.289	81.809
202.881	82.1638	202.881	81.5103	202.881	81.8494
210.205	82.1458	210.205	81.4614	210.205	81.8171
217.529	82.2083	217.529	81.4874	217.529	81.8628
225.586	82.1614	225.586	81.431	225.586	81.8115
232.91	82.2035	232.91	81.4244	232.91	81.8314
241.699	82.0849	241.699	81.2646	241.699	81.6941
249.756	82.1178	249.756	81.1322	249.756	81.6529
258.545	82.0209	258.545	81.1341	258.545	81.6001
268.066	81.9217	268.066	80.7544	268.066	81.3772
277.588	81.6358	277.588	80.6722	277.588	81.1807
287.109	81.5693	287.109	80.7519	287.109	81.1798
297.363	81.5718	297.363	80.671	297.363	81.1447
307.617	81.5166	307.617	80.4134	307.617	80.9999
318.604	81.218	318.604	80.2284	318.604	80.7513
329.59	81.0346	329.59	79.977	329.59	80.5379
341.309	80.8316	341.309	79.5893	341.309	80.2547
353.76	80.8832	353.76	79.5588	353.76	80.2713
366.211	80.7021	366.211	79.5766	366.211	80.1757
378.662	80.8094	378.662	79.4483	378.662	80.182
392.578	80.4543	392.578	79.1339	392.578	79.8441
405.762	80.2891	405.762	78.9968	405.762	79.6908
420.41	80.1164	420.41	78.8302	420.41	79.5207
435.059	79.916	435.059	78.5736	435.059	79.2965
450.439	79.9109	450.439	78.2812	450.439	79.1721
466.553	79.8599	466.553	78.2752	466.553	79.1395
482.666	79.7897	482.666	78.3467	482.666	79.1279
500.244	79.7578	500.244	78.3871	500.244	79.1263
517.822	79.1239	517.822	78.0087	517.822	78.602
536.133	79.0657	536.133	77.7167	536.133	78.4433
554.443	78.8614	554.443	77.65	554.443	78.2978
574.219	78.5905	574.219	76.8841	574.219	77.8206
594.727	78.7407	594.727	76.026	594.727	77.5921
615.234	79.7338	615.234	77.435	615.234	78.7347
637.207	78.7563	637.207	77.3307	637.207	78.1017
659.912	79.1929	659.912	76.9447	659.912	78.2127
683.35	80.4758	683.35	77.1804	683.35	79.1334
706.787	79.5425	706.787	77.3012	706.787	78.5649
731.689	79.3895	731.689	77.2001	731.689	78.4314
758.057	79.8498	758.057	77.0731	758.057	78.6797
784.424	80.0025	784.424	76.7566	784.424	78.676
812.256	80.7246	812.256	76.7918	812.256	79.1889
840.82	81.1052	840.82	76.746	840.82	79.451
870.85	80.9975	870.85	76.7897	870.85	79.3845
901.611	80.5542	901.611	77.9787	901.611	79.4546
933.105	80.5461	933.105	78.2544	933.105	79.5497
966.064	80.2062	966.064	78.3119	966.064	79.3615
999.756	80.4797	999.756	78.2022	999.756	79.4886
1,034.91	79.818	1,034.91	77.8582	1,034.91	78.9477
1,071.53	79.7993	1,071.53	78.5582	1,071.53	79.223
1,109.62	79.7918	1,109.62	78.8513	1,109.62	79.3469
1,148.44	79.8818	1,148.44	79.3044	1,148.44	79.6027
1,189.45	79.9827	1,189.45	78.8089	1,189.45	79.4353
1,231.2	80.0335	1,231.2	78.4992	1,231.2	79.3338
1,274.41	79.6882	1,274.41	78.4033	1,274.41	79.0931
1,319.82	79.6854	1,319.82	77.6936	1,319.82	78.8027
1,365.97	79.5008	1,365.97	77.7432	1,365.97	78.7103
1,414.31	79.467	1,414.31	77.4407	1,414.31	78.571
1,464.11	79.5184	1,464.11	77.7103	1,464.11	78.7078
1,515.38	79.7481	1,515.38	77.5732	1,515.38	78.7954
1,568.85	80.1366	1,568.85	76.9064	1,568.85	78.8152
1,624.51	79.5867	1,624.51	76.9007	1,624.51	78.4481
1,681.64	79.1474	1,681.64	76.1663	1,681.64	77.9078
1,740.97	79.487	1,740.97	75.5361	1,740.97	77.9461
1,802.49	80.0959	1,802.49	75.828	1,802.49	78.4664
1,866.21	80.5777	1,866.21	74.4805	1,866.21	78.5213
1,932.13	80.1865	1,932.13	73.0014	1,932.13	77.936
2,000.24	80.0416	2,000.24	72.3684	2,000.24	77.7164
2,070.56	79.9245	2,070.56	70.3659	2,070.56	77.3701
2,143.8	79.5196	2,143.8	68.5987	2,143.8	76.8471
2,219.24	79.3677	2,219.24	67.6509	2,219.24	76.6405
2,297.61	79.083	2,297.61	66.3338	2,297.61	76.2974
2,378.17	78.9042	2,378.17	66.231	2,378.17	76.1225
2,462.4	78.8095	2,462.4	65.9211	2,462.4	76.017
2,548.83	78.4262	2,548.83	66.7694	2,548.83	75.7028
2,638.92	78.3006	2,638.92	67.1725	2,638.92	75.6129
2,731.93	77.9273	2,731.93	68.1384	2,731.93	75.3506
2,828.61	77.6725	2,828.61	69.8239	2,828.61	75.3222
2,928.22	77.4544	2,928.22	71.3172	2,928.22	75.3901
3,031.49	77.3522	3,031.49	72.3873	3,031.49	75.5437
3,138.43	77.0561	3,138.43	73.323	3,138.43	75.5789
3,249.02	77.2647	3,249.02	74.6295	3,249.02	76.144
3,363.28	77.2903	3,363.28	76.1306	3,363.28	76.7491
3,481.93	76.8684	3,481.93	77.0879	3,481.93	76.9795
3,604.98	76.7605	3,604.98	78.0359	3,604.98	77.4449
3,732.42	76.4604	3,732.42	78.79	3,732.42	77.7796
3,863.53	76.4131	3,863.53	78.6814	3,863.53	77.6937
3,999.76	76.4973	3,999.76	78.658	3,999.76	77.7106
4,141.11	76.1761	4,141.11	78.2527	4,141.11	77.3373
4,286.87	76.1621	4,286.87	78.8936	4,286.87	77.7391
4,438.48	76.46	4,438.48	79.4926	4,438.48	78.2358
4,594.48	77.0466	4,594.48	80.6107	4,594.48	79.1844
4,757.08	77.748	4,757.08	81.3617	4,757.08	79.9203
4,924.8	78.5362	4,924.8	81.3939	4,924.8	80.196
5,098.39	79.0579	5,098.39	81.3108	5,098.39	80.3288
5,277.83	79.7305	5,277.83	80.5982	5,277.83	80.186
5,463.87	79.7482	5,463.87	80.1869	5,463.87	79.9731
5,656.49	80.4073	5,656.49	79.8685	5,656.49	80.1463
5,856.45	80.3341	5,856.45	80.056	5,856.45	80.1973
6,062.99	79.6876	6,062.99	79.724	6,062.99	79.7058
6,276.86	79.1972	6,276.86	78.9798	6,276.86	79.0899
6,498.05	78.8876	6,498.05	77.5352	6,498.05	78.2638
6,727.29	78.5438	6,727.29	77.3179	6,727.29	77.9739
6,964.6	79.2253	6,964.6	77.1961	6,964.6	78.3282
7,209.96	78.9742	7,209.96	77.3982	7,209.96	78.2573
7,464.11	78.91	7,464.11	77.2132	7,464.11	78.144
7,727.78	79.2122	7,727.78	77.0005	7,727.78	78.2457
8,000.24	78.7712	8,000.24	77.1218	8,000.24	78.0244
8,282.23	78.5232	8,282.23	77.4534	8,282.23	78.0211
8,574.46	78.8475	8,574.46	77.565	8,574.46	78.2535
8,876.22	79.0287	8,876.22	77.5194	8,876.22	78.3393
9,189.7	78.6815	9,189.7	77.0815	9,189.7	77.9547
9,513.43	77.9601	9,513.43	77.0933	9,513.43	77.5483
9,848.88	77.8045	9,848.88	76.7197	9,848.88	77.2959
10,196.8	77.8028	10,196.8	75.6429	10,196.8	76.8557
10,556.4	77.104	10,556.4	74.0687	10,556.4	75.8463
10,928.5	76.7803	10,928.5	72.5464	10,928.5	75.1601
11,313.7	76.9314	11,313.7	71.7225	11,313.7	75.0651
11,712.9	77.2889	11,712.9	71.6001	11,712.9	75.3161
12,126	77.9057	12,126	71.7228	12,126	75.8325
12,553.7	78.2602	12,553.7	71.7797	12,553.7	76.1308
12,996.1	78.23	12,996.1	71.4532	12,996.1	76.0477
13,454.6	77.5488	13,454.6	69.8241	13,454.6	75.2162
13,928.5	77.3282	13,928.5	68.571	13,928.5	74.8607
14,419.9	77.4386	14,419.9	69.126	14,419.9	75.0257
14,928.2	77.4161	14,928.2	69.5127	14,928.2	75.0581
15,454.8	77.8808	15,454.8	69.8555	15,454.8	75.5059
15,999.8	77.7832	15,999.8	68.6276	15,999.8	75.2708
16,564.5	77.1178	16,564.5	67.4225	16,564.5	74.55
17,148.2	76.4843	17,148.2	66.6929	17,148.2	73.9073
17,753.2	76.3835	17,753.2	65.2189	17,753.2	73.6932
18,379.4	76.2989	18,379.4	64.2632	18,379.4	73.5522
19,027.6	75.0943	19,027.6	62.5162	19,027.6	72.3175
19,698.5	74.19	19,698.5	60.2683	19,698.5	71.3523
19,999.5	74.1795	19,999.5	59.7656	19,999.5	71.3236
