"SPL Vertical"																																																																							
"On-Axis"		"10°"		"-10°"		"20°"		"-20°"		"30°"		"-30°"		"40°"		"-40°"		"50°"		"-50°"		"60°"		"-60°"		"70°"		"-70°"		"80°"		"-80°"		"90°"		"-90°"		"100°"		"-100°"		"110°"		"-110°"		"120°"		"-120°"		"130°"		"-130°"		"140°"		"-140°"		"150°"		"-150°"		"160°"		"-160°"		"170°"		"-170°"		"180°"	
"Frequency [Hz]"	"Sound Pessure Level [dB]  / [2.83V 1m] "	"Frequency [Hz]"	"Sound Pessure Level [dB]  / [2.83V 1m] "	"Frequency [Hz]"	"Sound Pessure Level [dB]  / [2.83V 1m] "	"Frequency [Hz]"	"Sound Pessure Level [dB]  / [2.83V 1m] "	"Frequency [Hz]"	"Sound Pessure Level [dB]  / [2.83V 1m] "	"Frequency [Hz]"	"Sound Pessure Level [dB]  / [2.83V 1m] "	"Frequency [Hz]"	"Sound Pessure Level [dB]  / [2.83V 1m] "	"Frequency [Hz]"	"Sound Pessure Level [dB]  / [2.83V 1m] "	"Frequency [Hz]"	"Sound Pessure Level [dB]  / [2.83V 1m] "	"Frequency [Hz]"	"Sound Pessure Level [dB]  / [2.83V 1m] "	"Frequency [Hz]"	"Sound Pessure Level [dB]  / [2.83V 1m] "	"Frequency [Hz]"	"Sound Pessure Level [dB]  / [2.83V 1m] "	"Frequency [Hz]"	"Sound Pessure Level [dB]  / [2.83V 1m] "	"Frequency [Hz]"	"Sound Pessure Level [dB]  / [2.83V 1m] "	"Frequency [Hz]"	"Sound Pessure Level [dB]  / [2.83V 1m] "	"Frequency [Hz]"	"Sound Pessure Level [dB]  / [2.83V 1m] "	"Frequency [Hz]"	"Sound Pessure Level [dB]  / [2.83V 1m] "	"Frequency [Hz]"	"Sound Pessure Level [dB]  / [2.83V 1m] "	"Frequency [Hz]"	"Sound Pessure Level [dB]  / [2.83V 1m] "	"Frequency [Hz]"	"Sound Pessure Level [dB]  / [2.83V 1m] "	"Frequency [Hz]"	"Sound Pessure Level [dB]  / [2.83V 1m] "	"Frequency [Hz]"	"Sound Pessure Level [dB]  / [2.83V 1m] "	"Frequency [Hz]"	"Sound Pessure Level [dB]  / [2.83V 1m] "	"Frequency [Hz]"	"Sound Pessure Level [dB]  / [2.83V 1m] "	"Frequency [Hz]"	"Sound Pessure Level [dB]  / [2.83V 1m] "	"Frequency [Hz]"	"Sound Pessure Level [dB]  / [2.83V 1m] "	"Frequency [Hz]"	"Sound Pessure Level [dB]  / [2.83V 1m] "	"Frequency [Hz]"	"Sound Pessure Level [dB]  / [2.83V 1m] "	"Frequency [Hz]"	"Sound Pessure Level [dB]  / [2.83V 1m] "	"Frequency [Hz]"	"Sound Pessure Level [dB]  / [2.83V 1m] "	"Frequency [Hz]"	"Sound Pessure Level [dB]  / [2.83V 1m] "	"Frequency [Hz]"	"Sound Pessure Level [dB]  / [2.83V 1m] "	"Frequency [Hz]"	"Sound Pessure Level [dB]  / [2.83V 1m] "	"Frequency [Hz]"	"Sound Pessure Level [dB]  / [2.83V 1m] "	"Frequency [Hz]"	"Sound Pessure Level [dB]  / [2.83V 1m] "	"Frequency [Hz]"	"Sound Pessure Level [dB]  / [2.83V 1m] "
20.5078	50.6641	20.5078	50.3316	20.5078	50.8912	20.5078	49.9716	20.5078	50.978	20.5078	49.7161	20.5078	50.9276	20.5078	49.7391	20.5078	50.7947	20.5078	50.1832	20.5078	50.717	20.5078	51.0604	20.5078	50.9264	20.5078	52.246	20.5078	51.6475	20.5078	53.5758	20.5078	52.8961	20.5078	54.9234	20.5078	54.4551	20.5078	56.214	20.5078	56.0685	20.5078	57.4087	20.5078	57.5685	20.5078	58.4881	20.5078	58.8741	20.5078	59.441	20.5078	59.9542	20.5078	60.2593	20.5078	60.8022	20.5078	60.9348	20.5078	61.422	20.5078	61.4587	20.5078	61.8225	20.5078	61.8208	20.5078	62.0146	20.5078	62.01
21.2402	53.6356	21.2402	53.4088	21.2402	53.8059	21.2402	53.1736	21.2402	53.897	21.2402	53.0039	21.2402	53.9124	21.2402	52.9931	21.2402	53.8893	21.2402	53.2283	21.2402	53.9107	21.2402	53.7514	21.2402	54.1054	21.2402	54.5362	21.2402	54.6064	21.2402	55.505	21.2402	55.4641	21.2402	56.5674	21.2402	56.5997	21.2402	57.6479	21.2402	57.8596	21.2402	58.6932	21.2402	59.0999	21.2402	59.668	21.2402	60.2244	21.2402	60.5486	21.2402	61.1802	21.2402	61.3179	21.2402	61.9428	21.2402	61.9617	21.2402	62.5041	21.2402	62.4673	21.2402	62.8653	21.2402	62.8223	21.2402	63.0324	21.2402	63.0145
21.9727	54.7228	21.9727	54.4796	21.9727	54.8942	21.9727	54.21	21.9727	54.9701	21.9727	53.9838	21.9727	54.9487	21.9727	53.8929	21.9727	54.8569	21.9727	54.0312	21.9727	54.7652	21.9727	54.4567	21.9727	54.799	21.9727	55.1599	21.9727	55.1155	21.9727	56.0709	21.9727	55.8162	21.9727	57.0973	21.9727	56.8601	21.9727	58.157	21.9727	58.0916	21.9727	59.1901	21.9727	59.3428	21.9727	60.1568	21.9727	60.4956	21.9727	61.0306	21.9727	61.4843	21.9727	61.7928	21.9727	62.2787	21.9727	62.4281	21.9727	62.8686	21.9727	62.9234	21.9727	63.2545	21.9727	63.2658	21.9727	63.4428	21.9727	63.4429
22.7051	56.1034	22.7051	55.8937	22.7051	56.2525	22.7051	55.6592	22.7051	56.3237	22.7051	55.4548	22.7051	56.3185	22.7051	55.3536	22.7051	56.2639	22.7051	55.4338	22.7051	56.2224	22.7051	55.7536	22.7051	56.2971	22.7051	56.3238	22.7051	56.6109	22.7051	57.1024	22.7051	57.2424	22.7051	58.0168	22.7051	58.1656	22.7051	58.9914	22.7051	59.2619	22.7051	59.9644	22.7051	60.392	22.7051	60.8911	22.7051	61.4475	22.7051	61.7399	22.7051	62.3617	22.7051	62.4879	22.7051	63.1001	22.7051	63.1175	22.7051	63.6479	22.7051	63.6133	22.7051	64.0024	22.7051	63.9619	22.7051	64.1673	22.7051	64.1504
23.4375	56.3076	23.4375	56.0443	23.4375	56.4827	23.4375	55.7281	23.4375	56.5516	23.4375	55.417	23.4375	56.5132	23.4375	55.1944	23.4375	56.3898	23.4375	55.1613	23.4375	56.2409	23.4375	55.4045	23.4375	56.1778	23.4375	55.9531	23.4375	56.3545	23.4375	56.761	23.4375	56.8964	23.4375	57.7355	23.4375	57.8033	23.4375	58.7803	23.4375	58.9421	23.4375	59.82	23.4375	60.141	23.4375	60.8035	23.4375	61.2677	23.4375	61.6974	23.4375	62.2444	23.4375	62.4791	23.4375	63.0333	23.4375	63.1319	23.4375	63.6202	23.4375	63.6417	23.4375	64.0032	23.4375	63.9955	23.4375	64.1873	23.4375	64.1813
24.1699	56.7702	24.1699	56.5355	24.1699	56.9219	24.1699	56.2557	24.1699	56.9712	24.1699	55.9911	24.1699	56.9177	24.1699	55.8257	24.1699	56.7863	24.1699	55.8562	24.1699	56.6426	24.1699	56.159	24.1699	56.607	24.1699	56.7515	24.1699	56.8381	24.1699	57.5826	24.1699	57.4521	24.1699	58.5624	24.1699	58.4271	24.1699	59.6013	24.1699	59.6146	24.1699	60.6297	24.1699	60.8422	24.1699	61.6001	24.1699	61.9838	24.1699	62.4812	24.1699	62.9677	24.1699	63.2512	24.1699	63.7605	24.1699	63.8938	24.1699	64.3499	24.1699	64.3949	24.1699	64.7356	24.1699	64.7416	24.1699	64.9231	24.1699	64.9216
25.6348	58.0559	25.6348	57.8703	25.6348	58.1851	25.6348	57.6645	25.6348	58.2405	25.6348	57.4939	25.6348	58.2247	25.6348	57.4303	25.6348	58.167	25.6348	57.5487	25.6348	58.133	25.6348	57.9013	25.6348	58.229	25.6348	58.494	25.6348	58.5757	25.6348	59.283	25.6348	59.2434	25.6348	60.1974	25.6348	60.1956	25.6348	61.1651	25.6348	61.3095	25.6348	62.1271	25.6348	62.4478	25.6348	63.0409	25.6348	63.5062	25.6348	63.8763	25.6348	64.4214	25.6348	64.6111	25.6348	65.1608	25.6348	65.228	25.6348	65.7109	25.6348	65.7123	25.6348	66.0692	25.6348	66.0505	25.6348	66.2397	25.6348	66.2301
26.3672	58.9882	26.3672	58.8276	26.3672	59.1089	26.3672	58.6599	26.3672	59.1742	26.3672	58.5346	26.3672	59.1881	26.3672	58.5133	26.3672	59.1795	26.3672	58.6579	26.3672	59.2087	26.3672	59.0102	26.3672	59.3666	26.3672	59.574	26.3672	59.7498	26.3672	60.3138	26.3672	60.4091	26.3672	61.1706	26.3672	61.3105	26.3672	62.0818	26.3672	62.3517	26.3672	62.9942	26.3672	63.4156	26.3672	63.867	26.3672	64.409	26.3672	64.6702	26.3672	65.272	26.3672	65.3809	26.3672	65.9713	26.3672	65.9809	26.3672	66.4918	26.3672	66.4548	26.3672	66.8291	26.3672	66.7884	26.3672	66.986	26.3672	66.9693
27.0996	59.8632	27.0996	59.7378	27.0996	59.9669	27.0996	59.6202	27.0996	60.0359	27.0996	59.5531	27.0996	60.0758	27.0996	59.588	27.0996	60.1154	27.0996	59.7736	27.0996	60.2103	27.0996	60.1406	27.0996	60.4376	27.0996	60.6895	27.0996	60.8717	27.0996	61.3907	27.0996	61.5441	27.0996	62.1957	27.0996	62.4183	27.0996	63.0522	27.0996	63.4061	27.0996	63.9136	27.0996	64.4081	27.0996	64.7425	27.0996	65.3429	27.0996	65.5098	27.0996	66.156	27.0996	66.1928	27.0996	66.8156	27.0996	66.7728	27.0996	67.306	27.0996	67.2335	27.0996	67.6219	27.0996	67.5608	27.0996	67.7652	27.0996	67.7418
27.832	60.9802	27.832	60.8573	27.832	61.083	27.832	60.7401	27.832	61.1536	27.832	60.6662	27.832	61.1961	27.832	60.6806	27.832	61.2345	27.832	60.8274	27.832	61.3157	27.832	61.1374	27.832	61.5067	27.832	61.6167	27.832	61.8761	27.832	62.2447	27.832	62.4613	27.832	62.9811	27.832	63.2417	27.832	63.7783	27.832	64.1451	27.832	64.5914	27.832	65.0804	27.832	65.3823	27.832	65.9668	27.832	66.1204	27.832	66.7468	27.832	66.7813	27.832	67.3848	27.832	67.3448	27.832	67.8618	27.832	67.7936	27.832	68.1706	27.832	68.1128	27.832	68.3113	27.832	68.2891
29.2969	62.7532	29.2969	62.6705	29.2969	62.8321	29.2969	62.6031	29.2969	62.8991	29.2969	62.5786	29.2969	62.9596	29.2969	62.6297	29.2969	63.0352	29.2969	62.7878	29.2969	63.164	29.2969	63.075	29.2969	63.3963	29.2969	63.4975	29.2969	63.7797	29.2969	64.0431	29.2969	64.3361	29.2969	64.6843	29.2969	65.0464	29.2969	65.386	29.2969	65.8544	29.2969	66.1114	29.2969	66.6884	29.2969	66.8269	29.2969	67.4814	29.2969	67.5033	29.2969	68.1824	29.2969	68.1161	29.2969	68.7574	29.2969	68.6441	29.2969	69.187	29.2969	69.0694	29.2969	69.4624	29.2969	69.3761	29.2969	69.5823	29.2969	69.5508
30.0293	63.6219	30.0293	63.5354	30.0293	63.7041	30.0293	63.462	30.0293	63.7748	30.0293	63.4267	30.0293	63.8388	30.0293	63.4596	30.0293	63.9151	30.0293	63.5904	30.0293	64.0378	30.0293	63.8414	30.0293	64.2521	30.0293	64.2213	30.0293	64.6019	30.0293	64.7218	30.0293	65.1103	30.0293	65.3197	30.0293	65.7645	30.0293	65.9826	30.0293	66.5166	30.0293	66.6754	30.0293	67.3011	30.0293	67.3647	30.0293	68.0539	30.0293	68.021	30.0293	68.7239	30.0293	68.6188	30.0293	69.2762	30.0293	69.1363	30.0293	69.6896	30.0293	69.5548	30.0293	69.9539	30.0293	69.8581	30.0293	70.0671	30.0293	70.0325
31.4941	65.1086	31.4941	65.0412	31.4941	65.1818	31.4941	64.9933	31.4941	65.2559	31.4941	64.9849	31.4941	65.3358	31.4941	65.0394	31.4941	65.4383	31.4941	65.18	31.4941	65.5917	31.4941	65.4239	31.4941	65.8314	31.4941	65.7781	31.4941	66.19	31.4941	66.2369	31.4941	66.6826	31.4941	66.7826	31.4941	67.2961	31.4941	67.3892	31.4941	67.9904	31.4941	68.0271	31.4941	68.7107	31.4941	68.6667	31.4941	69.4017	31.4941	69.2806	31.4941	70.0178	31.4941	69.8442	31.4941	70.526	31.4941	70.3359	31.4941	70.9056	31.4941	70.7368	31.4941	71.146	31.4941	71.0305	31.4941	71.2443	31.4941	71.2033
32.2266	66.0942	32.2266	66.0288	32.2266	66.1683	32.2266	65.9837	32.2266	66.2469	32.2266	65.9761	32.2266	66.3346	32.2266	66.0261	32.2266	66.446	32.2266	66.154	32.2266	66.6053	32.2266	66.3753	32.2266	66.8422	32.2266	66.6975	32.2266	67.1842	32.2266	67.1168	32.2266	67.644	32.2266	67.6191	32.2266	68.2112	32.2266	68.1823	32.2266	68.8521	32.2266	68.7796	32.2266	69.5186	32.2266	69.3835	32.2266	70.1607	32.2266	69.9674	32.2266	70.7354	32.2266	70.5071	32.2266	71.2105	32.2266	70.981	32.2266	71.5651	32.2266	71.3698	32.2266	71.7878	32.2266	71.6572	32.2266	71.875	32.2266	71.8292
33.6914	67.581	33.6914	67.5163	33.6914	67.6582	33.6914	67.4734	33.6914	67.7445	33.6914	67.4664	33.6914	67.844	33.6914	67.512	33.6914	67.9688	33.6914	67.6269	33.6914	68.1383	33.6914	67.8246	33.6914	68.3763	33.6914	68.1122	33.6914	68.704	33.6914	68.4879	33.6914	69.1314	33.6914	68.9413	33.6914	69.6498	33.6914	69.4541	33.6914	70.2315	33.6914	70.0037	33.6914	70.836	33.6914	70.565	33.6914	71.4194	33.6914	71.1132	33.6914	71.9425	33.6914	71.6247	33.6914	72.3749	33.6914	72.078	33.6914	72.6959	33.6914	72.4539	33.6914	72.8937	33.6914	72.7356	33.6914	72.9642	33.6914	72.9093
34.4238	68.3936	34.4238	68.3302	34.4238	68.4712	34.4238	68.2893	34.4238	68.5599	34.4238	68.2836	34.4238	68.6634	34.4238	68.3278	34.4238	68.7922	34.4238	68.437	34.4238	68.9634	34.4238	68.6233	34.4238	69.1977	34.4238	68.8934	34.4238	69.5136	34.4238	69.2464	34.4238	69.9199	34.4238	69.6732	34.4238	70.4094	34.4238	70.1579	34.4238	70.9576	34.4238	70.6798	34.4238	71.5278	34.4238	71.2154	34.4238	72.0796	34.4238	71.741	34.4238	72.5755	34.4238	72.2338	34.4238	72.986	34.4238	72.6724	34.4238	73.2906	34.4238	73.0377	34.4238	73.4772	34.4238	73.313	34.4238	73.5413	34.4238	73.4844
35.8887	69.8757	35.8887	69.8131	35.8887	69.9548	35.8887	69.7738	35.8887	70.0481	35.8887	69.7679	35.8887	70.1584	35.8887	69.8074	35.8887	70.294	35.8887	69.9045	35.8887	70.4682	35.8887	70.0696	35.8887	70.6971	35.8887	70.3086	35.8887	70.9948	35.8887	70.6217	35.8887	71.3679	35.8887	71.0026	35.8887	71.8105	35.8887	71.4387	35.8887	72.3028	35.8887	71.9125	35.8887	72.8143	35.8887	72.4035	35.8887	73.3098	35.8887	72.8902	35.8887	73.756	35.8887	73.3507	35.8887	74.1252	35.8887	73.7644	35.8887	74.3976	35.8887	74.1124	35.8887	74.5611	35.8887	74.3782	35.8887	74.6108	35.8887	74.5477
37.3535	71.2299	37.3535	71.1704	37.3535	71.3079	37.3535	71.135	37.3535	71.4027	37.3535	71.1316	37.3535	71.5167	37.3535	71.17	37.3535	71.6565	37.3535	71.2601	37.3535	71.8327	37.3535	71.4104	37.3535	72.0578	37.3535	71.6262	37.3535	72.3425	37.3535	71.9083	37.3535	72.6915	37.3535	72.2522	37.3535	73.0994	37.3535	72.6478	37.3535	73.5491	37.3535	73.0806	37.3535	74.0145	37.3535	73.5327	37.3535	74.4648	37.3535	73.9845	37.3535	74.87	37.3535	74.4157	37.3535	75.2045	37.3535	74.8064	37.3535	75.4494	37.3535	75.1383	37.3535	75.593	37.3535	75.3948	37.3535	75.6303	37.3535	75.5622
38.8184	72.5103	38.8184	72.4515	38.8184	72.5893	38.8184	72.4171	38.8184	72.687	38.8184	72.4138	38.8184	72.8052	38.8184	72.4493	38.8184	72.9491	38.8184	72.5319	38.8184	73.127	38.8184	72.6685	38.8184	73.3482	38.8184	72.8637	38.8184	73.6208	38.8184	73.1186	38.8184	73.9477	38.8184	73.4299	38.8184	74.3237	38.8184	73.7895	38.8184	74.7341	38.8184	74.1854	38.8184	75.1564	38.8184	74.6019	38.8184	75.5639	38.8184	75.0213	38.8184	75.9296	38.8184	75.4249	38.8184	76.2302	38.8184	75.7937	38.8184	76.448	38.8184	76.11	38.8184	76.5718	38.8184	76.3577	38.8184	76.5966	38.8184	76.5232
39.5508	73.1829	39.5508	73.1221	39.5508	73.2636	39.5508	73.085	39.5508	73.3628	39.5508	73.0774	39.5508	73.4821	39.5508	73.1063	39.5508	73.6263	39.5508	73.1791	39.5508	73.8023	39.5508	73.3024	39.5508	74.0183	39.5508	73.4808	39.5508	74.281	39.5508	73.7157	39.5508	74.5927	39.5508	74.0048	39.5508	74.9484	39.5508	74.3413	39.5508	75.3348	39.5508	74.7145	39.5508	75.7312	39.5508	75.11	39.5508	76.1127	39.5508	75.5112	39.5508	76.4542	39.5508	75.9	39.5508	76.7335	39.5508	76.258	39.5508	76.9335	39.5508	76.5675	39.5508	77.0434	39.5508	76.8125	39.5508	77.0585	39.5508	76.9795
41.0156	74.0452	41.0156	73.9805	41.0156	74.1305	41.0156	73.94	41.0156	74.2349	41.0156	73.9291	41.0156	74.3592	41.0156	73.954	41.0156	74.5067	41.0156	74.0213	41.0156	74.6829	41.0156	74.1366	41.0156	74.894	41.0156	74.3041	41.0156	75.1454	41.0156	74.5251	41.0156	75.4388	41.0156	74.7973	41.0156	75.77	41.0156	75.1147	41.0156	76.1277	41.0156	75.4674	41.0156	76.4938	41.0156	75.8424	41.0156	76.8461	41.0156	76.2238	41.0156	77.1616	41.0156	76.5947	41.0156	77.4197	41.0156	76.9373	41.0156	77.6038	41.0156	77.2346	41.0156	77.7033	41.0156	77.4712	41.0156	77.7131	41.0156	77.6339
42.4805	75.2869	42.4805	75.2293	42.4805	75.3666	42.4805	75.1962	42.4805	75.4673	42.4805	75.1917	42.4805	75.5897	42.4805	75.2203	42.4805	75.7365	42.4805	75.287	42.4805	75.9116	42.4805	75.3961	42.4805	76.1194	42.4805	75.5508	42.4805	76.3634	42.4805	75.7523	42.4805	76.6437	42.4805	75.999	42.4805	76.9555	42.4805	76.2864	42.4805	77.288	42.4805	76.6065	42.4805	77.6251	42.4805	76.9483	42.4805	77.947	42.4805	77.2984	42.4805	78.2329	42.4805	77.6415	42.4805	78.4644	42.4805	77.9613	42.4805	78.6266	42.4805	78.2417	42.4805	78.7098	42.4805	78.4679	42.4805	78.7096	42.4805	78.6271
43.9453	76.2153	43.9453	76.1563	43.9453	76.2961	43.9453	76.1213	43.9453	76.3977	43.9453	76.1135	43.9453	76.5205	43.9453	76.1367	43.9453	76.6662	43.9453	76.195	43.9453	76.8378	43.9453	76.2921	43.9453	77.0382	43.9453	76.4307	43.9453	77.2695	43.9453	76.6122	43.9453	77.5314	43.9453	76.8356	43.9453	77.8193	43.9453	77.0972	43.9453	78.1235	43.9453	77.3904	43.9453	78.4298	43.9453	77.7058	43.9453	78.7207	43.9453	78.0312	43.9453	78.9777	43.9453	78.3525	43.9453	79.1839	43.9453	78.6547	43.9453	79.3255	43.9453	78.9222	43.9453	79.3935	43.9453	79.1407	43.9453	79.3839	43.9453	79.2978
45.4102	77.0135	45.4102	76.953	45.4102	77.096	45.4102	76.9165	45.4102	77.1997	45.4102	76.9065	45.4102	77.3246	45.4102	76.9263	45.4102	77.4719	45.4102	76.979	45.4102	77.6432	45.4102	77.0678	45.4102	77.8405	45.4102	77.1952	45.4102	78.0648	45.4102	77.3621	45.4102	78.3147	45.4102	77.568	45.4102	78.5856	45.4102	77.8098	45.4102	78.8687	45.4102	78.0821	45.4102	79.151	45.4102	78.3764	45.4102	79.4168	45.4102	78.6819	45.4102	79.6495	45.4102	78.9858	45.4102	79.8336	45.4102	79.2738	45.4102	79.9567	45.4102	79.5313	45.4102	80.0105	45.4102	79.7443	45.4102	79.9914	45.4102	79.9008
47.6074	78.0372	47.6074	77.975	47.6074	78.1219	47.6074	77.9365	47.6074	78.2281	47.6074	77.9239	47.6074	78.3556	47.6074	77.9391	47.6074	78.5045	47.6074	77.9848	47.6074	78.6752	47.6074	78.063	47.6074	78.8683	47.6074	78.1756	47.6074	79.0832	47.6074	78.3236	47.6074	79.3175	47.6074	78.5064	47.6074	79.5665	47.6074	78.7221	47.6074	79.8219	47.6074	78.9661	47.6074	80.0726	47.6074	79.2319	47.6074	80.305	47.6074	79.5103	47.6074	80.505	47.6074	79.7899	47.6074	80.6592	47.6074	80.0581	47.6074	80.7569	47.6074	80.3014	47.6074	80.791	47.6074	80.5066	47.6074	80.7589	47.6074	80.6622
49.0723	78.6293	49.0723	78.5654	49.0723	78.7158	49.0723	78.5253	49.0723	78.8238	49.0723	78.5104	49.0723	78.9528	49.0723	78.5226	49.0723	79.1023	49.0723	78.5637	49.0723	79.2722	49.0723	78.6354	49.0723	79.4619	49.0723	78.7392	49.0723	79.6701	49.0723	78.8758	49.0723	79.894	49.0723	79.0449	49.0723	80.1286	49.0723	79.2446	49.0723	80.3662	49.0723	79.4714	49.0723	80.5968	49.0723	79.7194	49.0723	80.808	49.0723	79.9805	49.0723	80.9873	49.0723	80.2444	49.0723	81.1226	49.0723	80.4995	49.0723	81.2045	49.0723	80.733	49.0723	81.2265	49.0723	80.9324	49.0723	81.1866	49.0723	81.0867
50.5371	79.1395	50.5371	79.0745	50.5371	79.2268	50.5371	79.0332	50.5371	79.3357	50.5371	79.0166	50.5371	79.4653	50.5371	79.0261	50.5371	79.6148	50.5371	79.063	50.5371	79.7832	50.5371	79.1288	50.5371	79.9694	50.5371	79.2244	50.5371	80.1714	50.5371	79.3506	50.5371	80.3858	50.5371	79.507	50.5371	80.6077	50.5371	79.6922	50.5371	80.8298	50.5371	79.9032	50.5371	81.0427	50.5371	80.1348	50.5371	81.2354	50.5371	80.3799	50.5371	81.3963	50.5371	80.6294	50.5371	81.5149	50.5371	80.8723	50.5371	81.5825	50.5371	81.0968	50.5371	81.5936	50.5371	81.2909	50.5371	81.5467	50.5371	81.4438
52.7344	79.8089	52.7344	79.7429	52.7344	79.8971	52.7344	79.6998	52.7344	80.0065	52.7344	79.6807	52.7344	80.1358	52.7344	79.6863	52.7344	80.2837	52.7344	79.7174	52.7344	80.4485	52.7344	79.7749	52.7344	80.6281	52.7344	79.8593	52.7344	80.8197	52.7344	79.9711	52.7344	81.0196	52.7344	80.11	52.7344	81.2227	52.7344	80.275	52.7344	81.4222	52.7344	80.4637	52.7344	81.61	52.7344	80.6722	52.7344	81.7766	52.7344	80.8944	52.7344	81.9122	52.7344	81.1226	52.7344	82.0078	52.7344	81.3472	52.7344	82.0562	52.7344	81.5575	52.7344	82.0532	52.7344	81.7426	52.7344	81.9976	52.7344	81.8921
54.1992	80.1736	54.1992	80.1072	54.1992	80.262	54.1992	80.0635	54.1992	80.3712	54.1992	80.0431	54.1992	80.4999	54.1992	80.0467	54.1992	80.6463	54.1992	80.0746	54.1992	80.8085	54.1992	80.1273	54.1992	80.9837	54.1992	80.2053	54.1992	81.1688	54.1992	80.3086	54.1992	81.3598	54.1992	80.4372	54.1992	81.5516	54.1992	80.5901	54.1992	81.7378	54.1992	80.7653	54.1992	81.9107	54.1992	80.9594	54.1992	82.0617	54.1992	81.1674	54.1992	82.1822	54.1992	81.3822	54.1992	82.2641	54.1992	81.5951	54.1992	82.3012	54.1992	81.7963	54.1992	82.2896	54.1992	81.9753	54.1992	82.2291	54.1992	82.1224
56.3965	80.6335	56.3965	80.5649	56.3965	80.7238	56.3965	80.5187	56.3965	80.8347	56.3965	80.4952	56.3965	80.9645	56.3965	80.4947	56.3965	81.1111	56.3965	80.5172	56.3965	81.2718	56.3965	80.5628	56.3965	81.4435	56.3965	80.6316	56.3965	81.6222	56.3965	80.7236	56.3965	81.8037	56.3965	80.8386	56.3965	81.9826	56.3965	80.9759	56.3965	82.1528	56.3965	81.1341	56.3965	82.3071	56.3965	81.3107	56.3965	82.4382	56.3965	81.5016	56.3965	82.5384	56.3965	81.7008	56.3965	82.601	56.3965	81.9009	56.3965	82.621	56.3965	82.0928	56.3965	82.5958	56.3965	82.267	56.3965	82.5257	56.3965	82.414
58.5938	80.927	58.5938	80.8588	58.5938	81.0173	58.5938	80.8134	58.5938	81.1287	58.5938	80.7908	58.5938	81.2594	58.5938	80.7909	58.5938	81.4068	58.5938	80.8133	58.5938	81.568	58.5938	80.8578	58.5938	81.7391	58.5938	80.924	58.5938	81.916	58.5938	81.0116	58.5938	82.0935	58.5938	81.1203	58.5938	82.2663	58.5938	81.2496	58.5938	82.4283	58.5938	81.3982	58.5938	82.5726	58.5938	81.5641	58.5938	82.6923	58.5938	81.7437	58.5938	82.7808	58.5938	81.9321	58.5938	82.8321	58.5938	82.1225	58.5938	82.8423	58.5938	82.3069	58.5938	82.8095	58.5938	82.4762	58.5938	82.7346	58.5938	82.6214
60.0586	81.1785	60.0586	81.1088	60.0586	81.2705	60.0586	81.062	60.0586	81.3835	60.0586	81.038	60.0586	81.5157	60.0586	81.0363	60.0586	81.6643	60.0586	81.0565	60.0586	81.8258	60.0586	81.0979	60.0586	81.996	60.0586	81.16	60.0586	82.1701	60.0586	81.2422	60.0586	82.343	60.0586	81.3441	60.0586	82.5088	60.0586	81.4652	60.0586	82.6616	60.0586	81.6045	60.0586	82.7948	60.0586	81.7603	60.0586	82.9022	60.0586	81.9296	60.0586	82.9779	60.0586	82.1083	60.0586	83.017	60.0586	82.2902	60.0586	83.0163	60.0586	82.4681	60.0586	82.9748	60.0586	82.6337	60.0586	82.8941	60.0586	82.7783
62.2559	81.5771	62.2559	81.5015	62.2559	81.6736	62.2559	81.4474	62.2559	81.7896	62.2559	81.4149	62.2559	81.9226	62.2559	81.4035	62.2559	82.0696	62.2559	81.4127	62.2559	82.2266	62.2559	81.4415	62.2559	82.389	62.2559	81.4895	62.2559	82.5517	62.2559	81.5561	62.2559	82.7094	62.2559	81.6409	62.2559	82.8566	62.2559	81.7437	62.2559	82.9876	62.2559	81.8639	62.2559	83.097	62.2559	82.0005	62.2559	83.1796	62.2559	82.1515	62.2559	83.2308	62.2559	82.3136	62.2559	83.247	62.2559	82.482	62.2559	83.2264	62.2559	82.6502	62.2559	83.169	62.2559	82.8108	62.2559	83.0772	62.2559	82.9556
64.4531	81.8353	64.4531	81.7579	64.4531	81.933	64.4531	81.7015	64.4531	82.0493	64.4531	81.6661	64.4531	82.1819	64.4531	81.651	64.4531	82.3271	64.4531	81.6555	64.4531	82.4809	64.4531	81.6786	64.4531	82.6383	64.4531	81.7194	64.4531	82.794	64.4531	81.7775	64.4531	82.9424	64.4531	81.8522	64.4531	83.0783	64.4531	81.9435	64.4531	83.1961	64.4531	82.051	64.4531	83.2909	64.4531	82.1741	64.4531	83.3581	64.4531	82.3116	64.4531	83.394	64.4531	82.4609	64.4531	83.3961	64.4531	82.618	64.4531	83.3634	64.4531	82.7775	64.4531	83.2967	64.4531	82.9324	64.4531	83.199	64.4531	83.0754
66.6504	82.0912	66.6504	82.0113	66.6504	82.1907	66.6504	81.9515	66.6504	82.3078	66.6504	81.9119	66.6504	82.4402	66.6504	81.8917	66.6504	82.5839	66.6504	81.8901	66.6504	82.7347	66.6504	81.906	66.6504	82.8874	66.6504	81.9384	66.6504	83.0363	66.6504	81.9866	66.6504	83.176	66.6504	82.0503	66.6504	83.3009	66.6504	82.1293	66.6504	83.4057	66.6504	82.2238	66.6504	83.486	66.6504	82.3336	66.6504	83.5377	66.6504	82.458	66.6504	83.558	66.6504	82.5953	66.6504	83.5451	66.6504	82.7424	66.6504	83.4989	66.6504	82.8946	66.6504	83.4214	66.6504	83.0457	66.6504	83.3162	66.6504	83.1887
69.5801	82.3794	69.5801	82.2947	69.5801	82.4833	69.5801	82.2301	69.5801	82.6045	69.5801	82.1854	69.5801	82.7401	69.5801	82.1601	69.5801	82.886	69.5801	82.153	69.5801	83.0374	69.5801	82.1629	69.5801	83.1885	69.5801	82.1886	69.5801	83.3337	69.5801	82.2294	69.5801	83.4669	69.5801	82.2849	69.5801	83.5826	69.5801	82.3549	69.5801	83.6759	69.5801	82.4396	69.5801	83.7424	69.5801	82.5394	69.5801	83.7791	69.5801	82.654	69.5801	83.7838	69.5801	82.7823	69.5801	83.7559	69.5801	82.922	69.5801	83.6962	69.5801	83.069	69.5801	83.6075	69.5801	83.2178	69.5801	83.4941	69.5801	83.3619
71.7773	82.5237	71.7773	82.4386	71.7773	82.6278	71.7773	82.3734	71.7773	82.7489	71.7773	82.3281	71.7773	82.8838	71.7773	82.3019	71.7773	83.0283	71.7773	82.2936	71.7773	83.1774	71.7773	82.3019	71.7773	83.3252	71.7773	82.3254	71.7773	83.4658	71.7773	82.3631	71.7773	83.5932	71.7773	82.4144	71.7773	83.702	71.7773	82.479	71.7773	83.7873	71.7773	82.5573	71.7773	83.8452	71.7773	82.6495	71.7773	83.873	71.7773	82.7557	71.7773	83.869	71.7773	82.8752	71.7773	83.8334	71.7773	83.0064	71.7773	83.7676	71.7773	83.1458	71.7773	83.6749	71.7773	83.2887	71.7773	83.56	71.7773	83.429
73.9746	82.7382	73.9746	82.6528	73.9746	82.842	73.9746	82.5867	73.9746	82.962	73.9746	82.5399	73.9746	83.0951	73.9746	82.5116	73.9746	83.2368	73.9746	82.5006	73.9746	83.382	73.9746	82.5052	73.9746	83.5248	73.9746	82.5242	73.9746	83.6592	73.9746	82.5563	73.9746	83.7791	73.9746	82.6007	73.9746	83.8792	73.9746	82.6574	73.9746	83.9547	73.9746	82.7266	73.9746	84.0021	73.9746	82.8088	73.9746	84.0191	73.9746	82.9045	73.9746	84.0047	73.9746	83.0135	73.9746	83.9596	73.9746	83.1349	73.9746	83.886	73.9746	83.266	73.9746	83.7878	73.9746	83.4028	73.9746	83.6703	73.9746	83.5397
76.9043	82.9079	76.9043	82.8196	76.9043	83.0143	76.9043	82.7504	76.9043	83.1364	76.9043	82.7002	76.9043	83.2709	76.9043	82.6683	76.9043	83.413	76.9043	82.6533	76.9043	83.5572	76.9043	82.6534	76.9043	83.6975	76.9043	82.667	76.9043	83.8274	76.9043	82.6928	76.9043	83.9409	76.9043	82.73	76.9043	84.0325	76.9043	82.7783	76.9043	84.0976	76.9043	82.838	76.9043	84.1331	76.9043	82.9101	76.9043	84.137	76.9043	82.9955	76.9043	84.1092	76.9043	83.0947	76.9043	84.0512	76.9043	83.2073	76.9043	83.966	76.9043	83.3318	76.9043	83.8585	76.9043	83.4647	76.9043	83.7346	76.9043	83.6011
79.834	83.067	79.834	82.9748	79.834	83.1772	79.834	82.9019	79.834	83.3029	79.834	82.8485	79.834	83.4404	79.834	82.814	79.834	83.5848	79.834	82.7968	79.834	83.7304	79.834	82.7952	79.834	83.8709	79.834	82.8076	79.834	84.0001	79.834	82.8323	79.834	84.1116	79.834	82.8683	79.834	84.2001	79.834	82.9153	79.834	84.2611	79.834	82.9734	79.834	84.2914	79.834	83.0434	79.834	84.2894	79.834	83.1263	79.834	84.2553	79.834	83.2229	79.834	84.191	79.834	83.3331	79.834	84.1	79.834	83.4557	79.834	83.9876	79.834	83.5877	79.834	83.8601	79.834	83.7246
82.7637	83.4346	82.7637	83.3444	82.7637	83.5398	82.7637	83.2705	82.7637	83.6576	82.7637	83.213	82.7637	83.7842	82.7637	83.1713	82.7637	83.9149	82.7637	83.1441	82.7637	84.0443	82.7637	83.1298	82.7637	84.1662	82.7637	83.1266	82.7637	84.2745	82.7637	83.1332	82.7637	84.3633	82.7637	83.1487	82.7637	84.4274	82.7637	83.1728	82.7637	84.4631	82.7637	83.2062	82.7637	84.4678	82.7637	83.2501	82.7637	84.441	82.7637	83.3065	82.7637	84.3839	82.7637	83.3771	82.7637	84.2998	82.7637	83.4633	82.7637	84.1934	82.7637	83.5652	82.7637	84.0713	82.7637	83.6814	82.7637	83.9404	82.7637	83.8082
85.6934	83.6128	85.6934	83.518	85.6934	83.7202	85.6934	83.4372	85.6934	83.8376	85.6934	83.3708	85.6934	83.9611	85.6934	83.318	85.6934	84.0859	85.6934	83.2776	85.6934	84.2061	85.6934	83.248	85.6934	84.3157	85.6934	83.2276	85.6934	84.4085	85.6934	83.215	85.6934	84.4789	85.6934	83.2098	85.6934	84.522	85.6934	83.2122	85.6934	84.5346	85.6934	83.2233	85.6934	84.515	85.6934	83.2453	85.6934	84.4634	85.6934	83.281	85.6934	84.3822	85.6934	83.3331	85.6934	84.2756	85.6934	83.4042	85.6934	84.1497	85.6934	83.4953	85.6934	84.0118	85.6934	83.6057	85.6934	83.87	85.6934	83.7323
88.623	83.5118	88.623	83.4089	88.623	83.6314	88.623	83.3241	88.623	83.7645	88.623	83.2578	88.623	83.907	88.623	83.2093	88.623	84.0534	88.623	83.1772	88.623	84.1975	88.623	83.1596	88.623	84.3324	88.623	83.1546	88.623	84.4512	88.623	83.1607	88.623	84.5475	88.623	83.1768	88.623	84.6159	88.623	83.2027	88.623	84.6523	88.623	83.239	88.623	84.6541	88.623	83.2871	88.623	84.6208	88.623	83.3491	88.623	84.5542	88.623	83.4269	88.623	84.4578	88.623	83.5222	88.623	84.3373	88.623	83.6351	88.623	84.1996	88.623	83.764	88.623	84.0529	88.623	83.9053
91.5527	83.4268	91.5527	83.3309	91.5527	83.543	91.5527	83.257	91.5527	83.6763	91.5527	83.2053	91.5527	83.8224	91.5527	83.1749	91.5527	83.9758	91.5527	83.164	91.5527	84.1299	91.5527	83.1702	91.5527	84.2779	91.5527	83.1907	91.5527	84.4126	91.5527	83.2232	91.5527	84.5274	91.5527	83.2656	91.5527	84.6164	91.5527	83.3166	91.5527	84.6748	91.5527	83.376	91.5527	84.6997	91.5527	83.4441	91.5527	84.69	91.5527	83.5222	91.5527	84.6464	91.5527	83.6116	91.5527	84.5722	91.5527	83.7134	91.5527	84.4722	91.5527	83.8278	91.5527	84.3529	91.5527	83.9533	91.5527	84.2218	91.5527	84.0863
94.4824	83.8898	94.4824	83.7889	94.4824	84.0039	94.4824	83.7033	94.4824	84.1282	94.4824	83.634	94.4824	84.2582	94.4824	83.5809	94.4824	84.3888	94.4824	83.5429	94.4824	84.5143	94.4824	83.5185	94.4824	84.6285	94.4824	83.506	94.4824	84.7254	94.4824	83.5036	94.4824	84.7993	94.4824	83.5101	94.4824	84.8455	94.4824	83.5248	94.4824	84.8607	94.4824	83.548	94.4824	84.8433	94.4824	83.5807	94.4824	84.7936	94.4824	83.6249	94.4824	84.7141	94.4824	83.6827	94.4824	84.6093	94.4824	83.7565	94.4824	84.4857	94.4824	83.8475	94.4824	84.3508	94.4824	83.9557	94.4824	84.2126	94.4824	84.0788
98.1445	84.0128	98.1445	83.9098	98.1445	84.1278	98.1445	83.8207	98.1445	84.2515	98.1445	83.7465	98.1445	84.3795	98.1445	83.6869	98.1445	84.5064	98.1445	83.6409	98.1445	84.6265	98.1445	83.6068	98.1445	84.7332	98.1445	83.5829	98.1445	84.8204	98.1445	83.5674	98.1445	84.8824	98.1445	83.5593	98.1445	84.9146	98.1445	83.5582	98.1445	84.9139	98.1445	83.5647	98.1445	84.8791	98.1445	83.5807	98.1445	84.8112	98.1445	83.6086	98.1445	84.7134	98.1445	83.6516	98.1445	84.5913	98.1445	83.7129	98.1445	84.4522	98.1445	83.7947	98.1445	84.3049	98.1445	83.8977	98.1445	84.1582	98.1445	84.0203
101.807	84.1011	101.807	83.9977	101.807	84.217	101.807	83.909	101.807	84.3418	101.807	83.8359	101.807	84.4711	101.807	83.7784	101.807	84.5994	101.807	83.7353	101.807	84.7206	101.807	83.705	101.807	84.8285	101.807	83.6854	101.807	84.9169	101.807	83.6748	101.807	84.98	101.807	83.6716	101.807	85.0135	101.807	83.6752	101.807	85.0142	101.807	83.6859	101.807	84.981	101.807	83.7052	101.807	84.9149	101.807	83.7355	101.807	84.8193	101.807	83.7796	101.807	84.6997	101.807	83.8407	101.807	84.5636	101.807	83.9212	101.807	84.4194	101.807	84.0219	101.807	84.2761	101.807	84.1415
105.469	84.2203	105.469	84.1189	105.469	84.3331	105.469	84.0315	105.469	84.4538	105.469	83.9592	105.469	84.5775	105.469	83.9021	105.469	84.699	105.469	83.8592	105.469	84.8123	105.469	83.8289	105.469	84.9113	105.469	83.809	105.469	84.9902	105.469	83.7977	105.469	85.0439	105.469	83.7931	105.469	85.0683	105.469	83.7946	105.469	85.061	105.469	83.8022	105.469	85.0212	105.469	83.817	105.469	84.9506	105.469	83.8414	105.469	84.8529	105.469	83.8782	105.469	84.7338	105.469	83.9307	105.469	84.6007	105.469	84.0014	105.469	84.4622	105.469	84.0919	105.469	84.3266	105.469	84.2013
109.131	84.4293	109.131	84.314	109.131	84.5545	109.131	84.2117	109.131	84.6854	109.131	84.1241	109.131	84.8167	109.131	84.0519	109.131	84.9427	109.131	83.9945	109.131	85.0572	109.131	83.9506	109.131	85.1539	109.131	83.9184	109.131	85.2271	109.131	83.896	109.131	85.2716	109.131	83.8819	109.131	85.2838	109.131	83.8752	109.131	85.2615	109.131	83.876	109.131	85.2046	109.131	83.8855	109.131	85.1155	109.131	83.906	109.131	84.9988	109.131	83.9405	109.131	84.8611	109.131	83.9923	109.131	84.7108	109.131	84.0645	109.131	84.5572	109.131	84.1587	109.131	84.4093	109.131	84.2746
112.793	84.5812	112.793	84.4626	112.793	84.7094	112.793	84.3566	112.793	84.8426	112.793	84.2654	112.793	84.9759	112.793	84.1895	112.793	85.1032	112.793	84.1288	112.793	85.2183	112.793	84.0819	112.793	85.315	112.793	84.0471	112.793	85.3875	112.793	84.0226	112.793	85.4306	112.793	84.0068	112.793	85.4405	112.793	83.9987	112.793	85.4151	112.793	83.9983	112.793	85.3544	112.793	84.0068	112.793	85.2608	112.793	84.0263	112.793	85.139	112.793	84.0599	112.793	84.9961	112.793	84.1111	112.793	84.841	112.793	84.183	112.793	84.6831	112.793	84.2775	112.793	84.5317	112.793	84.3947
116.455	84.6245	116.455	84.5067	116.455	84.7521	116.455	84.4018	116.455	84.885	116.455	84.312	116.455	85.0179	116.455	84.2381	116.455	85.1452	116.455	84.1799	116.455	85.2606	116.455	84.1361	116.455	85.358	116.455	84.1049	116.455	85.4319	116.455	84.0844	116.455	85.4772	116.455	84.0729	116.455	85.4902	116.455	84.0693	116.455	85.4687	116.455	84.0735	116.455	85.4129	116.455	84.0865	116.455	85.3247	116.455	84.1102	116.455	85.2088	116.455	84.1474	116.455	85.0718	116.455	84.2014	116.455	84.9222	116.455	84.2752	116.455	84.7691	116.455	84.3703	116.455	84.6213	116.455	84.4866
120.85	84.7522	120.85	84.6369	120.85	84.8752	120.85	84.5332	120.85	85.001	120.85	84.4438	120.85	85.1242	120.85	84.3703	120.85	85.2392	120.85	84.3129	120.85	85.3401	120.85	84.2708	120.85	85.4218	120.85	84.2425	120.85	85.4793	120.85	84.2257	120.85	85.5088	120.85	84.2184	120.85	85.508	120.85	84.219	120.85	85.4759	120.85	84.2267	120.85	85.4136	120.85	84.2413	120.85	85.3242	120.85	84.2641	120.85	85.2128	120.85	84.2969	120.85	85.0861	120.85	84.3425	120.85	84.9518	120.85	84.4034	120.85	84.8178	120.85	84.4818	120.85	84.6914	120.85	84.5782
125.244	84.9358	125.244	84.8125	125.244	85.0641	125.244	84.6984	125.244	85.1924	125.244	84.5966	125.244	85.3151	125.244	84.5091	125.244	85.4264	125.244	84.4365	125.244	85.5203	125.244	84.3785	125.244	85.5913	125.244	84.334	125.244	85.6345	125.244	84.3013	125.244	85.6462	125.244	84.2786	125.244	85.6242	125.244	84.2645	125.244	85.5682	125.244	84.2581	125.244	85.4804	125.244	84.2594	125.244	85.3651	125.244	84.2693	125.244	85.229	125.244	84.2899	125.244	85.0806	125.244	84.3241	125.244	84.929	125.244	84.3749	125.244	84.7833	125.244	84.4455	125.244	84.651	125.244	84.5375
129.639	84.9451	129.639	84.823	129.639	85.0716	129.639	84.7091	129.639	85.1975	129.639	84.6063	129.639	85.3174	129.639	84.5162	129.639	85.4255	129.639	84.4392	129.639	85.5156	129.639	84.3748	129.639	85.5822	129.639	84.3216	129.639	85.6201	129.639	84.278	129.639	85.6253	129.639	84.2423	129.639	85.5951	129.639	84.2134	129.639	85.5291	129.639	84.191	129.639	85.4293	129.639	84.1759	129.639	85.3	129.639	84.1697	129.639	85.1485	129.639	84.1756	129.639	84.9841	129.639	84.1974	129.639	84.8173	129.639	84.2394	129.639	84.6584	129.639	84.3053	129.639	84.5164	129.639	84.3976
134.033	84.8601	134.033	84.7332	134.033	84.9934	134.033	84.6172	134.033	85.1279	134.033	84.5151	134.033	85.2576	134.033	84.4289	134.033	85.3765	134.033	84.3588	134.033	85.4783	134.033	84.3042	134.033	85.5574	134.033	84.2632	134.033	85.6086	134.033	84.2337	134.033	85.6276	134.033	84.2135	134.033	85.6121	134.033	84.2008	134.033	85.561	134.033	84.1949	134.033	85.476	134.033	84.196	134.033	85.361	134.033	84.2056	134.033	85.2224	134.033	84.2263	134.033	85.0686	134.033	84.2616	134.033	84.9092	134.033	84.3154	134.033	84.7543	134.033	84.3909	134.033	84.6125	134.033	84.4902
138.428	84.9047	138.428	84.7619	138.428	85.0534	138.428	84.6305	138.428	85.2019	138.428	84.5147	138.428	85.3436	138.428	84.4177	138.428	85.4721	138.428	84.3408	138.428	85.5813	138.428	84.284	138.428	85.6656	138.428	84.246	138.428	85.7204	138.428	84.2248	138.428	85.7423	138.428	84.2179	138.428	85.7294	138.428	84.2228	138.428	85.6817	138.428	84.238	138.428	85.6012	138.428	84.2623	138.428	85.4923	138.428	84.2957	138.428	85.3614	138.428	84.3394	138.428	85.2162	138.428	84.3951	138.428	85.0655	138.428	84.4653	138.428	84.9176	138.428	84.5522	138.428	84.7798	138.428	84.6571
143.555	85.0363	143.555	84.8833	143.555	85.1909	143.555	84.738	143.555	85.3406	143.555	84.6057	143.555	85.4788	143.555	84.4905	143.555	85.599	143.555	84.3948	143.555	85.6953	143.555	84.3195	143.555	85.7628	143.555	84.2641	143.555	85.7973	143.555	84.227	143.555	85.7961	143.555	84.206	143.555	85.7582	143.555	84.1987	143.555	85.6847	143.555	84.2031	143.555	85.5791	143.555	84.2178	143.555	85.447	143.555	84.2424	143.555	85.2961	143.555	84.2776	143.555	85.1355	143.555	84.3249	143.555	84.9745	143.555	84.3868	143.555	84.8217	143.555	84.466	143.555	84.6837	143.555	84.5647
148.682	85.1347	148.682	84.9803	148.682	85.2877	148.682	84.8305	148.682	85.4329	148.682	84.6908	148.682	85.5641	148.682	84.5657	148.682	85.675	148.682	84.458	148.682	85.7604	148.682	84.3694	148.682	85.8154	148.682	84.3	148.682	85.8364	148.682	84.249	148.682	85.8209	148.682	84.2146	148.682	85.7685	148.682	84.1949	148.682	85.6806	148.682	84.1882	148.682	85.5612	148.682	84.1931	148.682	85.4166	148.682	84.2093	148.682	85.2549	148.682	84.2372	148.682	85.0858	148.682	84.2783	148.682	84.9188	148.682	84.335	148.682	84.7626	148.682	84.41	148.682	84.6238	148.682	84.5059
153.809	85.1776	153.809	85.024	153.809	85.3268	153.809	84.8722	153.809	85.4654	153.809	84.7281	153.809	85.587	153.809	84.5962	153.809	85.6859	153.809	84.4803	153.809	85.757	153.809	84.3822	153.809	85.796	153.809	84.3029	153.809	85.7998	153.809	84.2418	153.809	85.7665	153.809	84.1976	153.809	85.6965	153.809	84.1686	153.809	85.5922	153.809	84.153	153.809	85.4584	153.809	84.1496	153.809	85.3024	153.809	84.1575	153.809	85.1332	153.809	84.1768	153.809	84.9609	153.809	84.2089	153.809	84.7951	153.809	84.2557	153.809	84.6441	153.809	84.3203	153.809	84.5134	153.809	84.4055
159.668	85.4162	159.668	85.2522	159.668	85.5748	159.668	85.0892	159.668	85.7215	159.668	84.933	159.668	85.8499	159.668	84.7886	159.668	85.9538	159.668	84.6595	159.668	86.0279	159.668	84.5483	159.668	86.0674	159.668	84.4558	159.668	86.0686	159.668	84.3818	159.668	86.0295	159.668	84.3255	159.668	85.9501	159.668	84.2854	159.668	85.8329	159.668	84.2601	159.668	85.6829	159.668	84.2484	159.668	85.5082	159.668	84.2499	159.668	85.3186	159.668	84.265	159.668	85.1253	159.668	84.2951	159.668	84.9394	159.668	84.343	159.668	84.7702	159.668	84.4118	159.668	84.6243	159.668	84.5048
164.795	85.353	164.795	85.1852	164.795	85.516	164.795	85.0193	164.795	85.6672	164.795	84.8618	164.795	85.8	164.795	84.7177	164.795	85.9081	164.795	84.5911	164.795	85.9861	164.795	84.4844	164.795	86.0294	164.795	84.3985	164.795	86.0348	164.795	84.3332	164.795	86.0005	164.795	84.2873	164.795	85.9271	164.795	84.259	164.795	85.8172	164.795	84.2465	164.795	85.6763	164.795	84.2482	164.795	85.512	164.795	84.2631	164.795	85.3339	164.795	84.291	164.795	85.1524	164.795	84.3324	164.795	84.9773	164.795	84.3893	164.795	84.817	164.795	84.464	164.795	84.6768	164.795	84.5592
170.654	85.2896	170.654	85.1284	170.654	85.4451	170.654	84.9684	170.654	85.5877	170.654	84.8162	170.654	85.711	170.654	84.6777	170.654	85.8092	170.654	84.5573	170.654	85.8772	170.654	84.4581	170.654	85.9113	170.654	84.3812	170.654	85.9088	170.654	84.3264	170.654	85.869	170.654	84.2924	170.654	85.7932	170.654	84.2768	170.654	85.6851	170.654	84.2772	170.654	85.5508	170.654	84.2909	170.654	85.3987	170.654	84.3155	170.654	85.2383	170.654	84.3495	170.654	85.0793	170.654	84.3924	170.654	84.9301	170.654	84.4448	170.654	84.7967	170.654	84.5087	170.654	84.6823	170.654	84.5869
176.514	85.254	176.514	85.0815	176.514	85.4182	176.514	84.9086	176.514	85.5663	176.514	84.7431	176.514	85.6914	176.514	84.5921	176.514	85.7875	176.514	84.4612	176.514	85.8495	176.514	84.3543	176.514	85.874	176.514	84.2733	176.514	85.8587	176.514	84.2183	176.514	85.8037	176.514	84.1876	176.514	85.7115	176.514	84.1783	176.514	85.5872	176.514	84.1868	176.514	85.4388	176.514	84.2093	176.514	85.2764	176.514	84.2419	176.514	85.1109	176.514	84.2818	176.514	84.9529	176.514	84.3271	176.514	84.8103	176.514	84.3777	176.514	84.6878	176.514	84.4354	176.514	84.5863	176.514	84.5035
183.105	85.286	183.105	85.0977	183.105	85.4608	183.105	84.9039	183.105	85.6148	183.105	84.7126	183.105	85.7415	183.105	84.5317	183.105	85.8353	183.105	84.3683	183.105	85.8915	183.105	84.228	183.105	85.9067	183.105	84.1148	183.105	85.879	183.105	84.0306	183.105	85.8084	183.105	83.9754	183.105	85.6976	183.105	83.9474	183.105	85.5518	183.105	83.9435	183.105	85.3798	183.105	83.9595	183.105	85.1922	183.105	83.991	183.105	85.0012	183.105	84.0339	183.105	84.8185	183.105	84.0855	183.105	84.6531	183.105	84.1448	183.105	84.5104	183.105	84.2131	183.105	84.3914	183.105	84.2938
189.697	85.3273	189.697	85.1446	189.697	85.4944	189.697	84.9539	189.697	85.6386	189.697	84.7631	189.697	85.7534	189.697	84.5797	189.697	85.8332	189.697	84.4104	189.697	85.8735	189.697	84.2607	189.697	85.8711	189.697	84.1347	189.697	85.8246	189.697	84.0349	189.697	85.7349	189.697	83.9624	189.697	85.6056	189.697	83.9167	189.697	85.4435	189.697	83.896	189.697	85.2586	189.697	83.8973	189.697	85.0628	189.697	83.9169	189.697	84.8689	189.697	83.9509	189.697	84.6879	189.697	83.996	189.697	84.528	189.697	84.0504	189.697	84.3925	189.697	84.1142	189.697	84.2809	189.697	84.1897
196.289	85.3981	196.289	85.2163	196.289	85.5624	196.289	85.0254	196.289	85.7018	196.289	84.8338	196.289	85.8095	196.289	84.6499	196.289	85.88	196.289	84.4811	196.289	85.9089	196.289	84.3334	196.289	85.8936	196.289	84.211	196.289	85.833	196.289	84.1165	196.289	85.7289	196.289	84.0504	196.289	85.586	196.289	84.0114	196.289	85.4124	196.289	83.9968	196.289	85.2198	196.289	84.0027	196.289	85.0217	196.289	84.0243	196.289	84.8319	196.289	84.0569	196.289	84.6618	196.289	84.0964	196.289	84.5187	196.289	84.1405	196.289	84.4041	196.289	84.1893	196.289	84.3151	196.289	84.2457
202.881	85.4392	202.881	85.2549	202.881	85.6014	202.881	85.0573	202.881	85.7337	202.881	84.8557	202.881	85.8292	202.881	84.6593	202.881	85.8823	202.881	84.4767	202.881	85.8889	202.881	84.3155	202.881	85.8464	202.881	84.1811	202.881	85.7546	202.881	84.077	202.881	85.6163	202.881	84.0043	202.881	85.4382	202.881	83.9614	202.881	85.231	202.881	83.9448	202.881	85.0097	202.881	83.9492	202.881	84.7913	202.881	83.9679	202.881	84.5927	202.881	83.9945	202.881	84.4264	202.881	84.0235	202.881	84.2987	202.881	84.0516	202.881	84.2084	202.881	84.0786	202.881	84.1483	202.881	84.1084
210.205	85.3954	210.205	85.2083	210.205	85.5593	210.205	85.0062	210.205	85.6927	210.205	84.7976	210.205	85.7891	210.205	84.5911	210.205	85.8432	210.205	84.3952	210.205	85.8504	210.205	84.2175	210.205	85.8079	210.205	84.0642	210.205	85.7148	210.205	83.9403	210.205	85.5731	210.205	83.8484	210.205	85.3888	210.205	83.7889	210.205	85.1721	210.205	83.7596	210.205	84.938	210.205	83.7559	210.205	84.7043	210.205	83.7711	210.205	84.4887	210.205	83.7983	210.205	84.3055	210.205	83.8309	210.205	84.1622	210.205	83.8647	210.205	84.0583	210.205	83.8988	210.205	83.9866	210.205	83.937
217.529	85.3328	217.529	85.135	217.529	85.508	217.529	84.9238	217.529	85.652	217.529	84.7091	217.529	85.7572	217.529	84.5006	217.529	85.8177	217.529	84.3071	217.529	85.8286	217.529	84.1362	217.529	85.7869	217.529	83.9937	217.529	85.6922	217.529	83.8835	217.529	85.5472	217.529	83.807	217.529	85.3587	217.529	83.7633	217.529	85.1387	217.529	83.7491	217.529	84.9035	217.529	83.7587	217.529	84.672	217.529	83.7852	217.529	84.4627	217.529	83.821	217.529	84.2892	217.529	83.8592	217.529	84.1576	217.529	83.8955	217.529	84.0657	217.529	83.9288	217.529	84.0045	217.529	83.9625
225.586	85.4244	225.586	85.2212	225.586	85.5955	225.586	84.9957	225.586	85.7258	225.586	84.7587	225.586	85.8079	225.586	84.5216	225.586	85.836	225.586	84.2954	225.586	85.8059	225.586	84.0906	225.586	85.7157	225.586	83.9162	225.586	85.5666	225.586	83.7791	225.586	85.3643	225.586	83.6833	225.586	85.1205	225.586	83.6295	225.586	84.8537	225.586	83.6145	225.586	84.5873	225.586	83.6316	225.586	84.3468	225.586	83.6712	225.586	84.1529	225.586	83.7221	225.586	84.0161	225.586	83.7738	225.586	83.9339	225.586	83.8174	225.586	83.8933	225.586	83.8478	225.586	83.8762	225.586	83.8653
232.91	85.5877	232.91	85.3676	232.91	85.7741	232.91	85.1245	232.91	85.917	232.91	84.8698	232.91	86.0075	232.91	84.6151	232.91	86.0382	232.91	84.3719	232.91	86.0025	232.91	84.1506	232.91	85.8956	232.91	83.9601	232.91	85.7157	232.91	83.8071	232.91	85.4657	232.91	83.6955	232.91	85.1556	232.91	83.6256	232.91	84.8051	232.91	83.5939	232.91	84.4442	232.91	83.5927	232.91	84.11	232.91	83.6112	232.91	83.839	232.91	83.6367	232.91	83.6554	232.91	83.6567	232.91	83.5625	232.91	83.6612	232.91	83.5433	232.91	83.6448	232.91	83.5689	232.91	83.6101
241.699	85.3555	241.699	85.1146	241.699	85.5647	241.699	84.8529	241.699	85.7323	241.699	84.5819	241.699	85.8495	241.699	84.3137	241.699	85.9084	241.699	84.0596	241.699	85.902	241.699	83.8302	241.699	85.8244	241.699	83.6343	241.699	85.6717	241.699	83.4787	241.699	85.4434	241.699	83.367	241.699	85.1449	241.699	83.2989	241.699	84.7906	241.699	83.2699	241.699	84.4056	241.699	83.271	241.699	84.0256	241.699	83.2898	241.699	83.6911	241.699	83.3122	241.699	83.4371	241.699	83.3252	241.699	83.2809	241.699	83.3196	241.699	83.2162	241.699	83.293	241.699	83.2177	241.699	83.2528
249.756	85.5961	249.756	85.3288	249.756	85.8181	249.756	85.0251	249.756	85.9875	249.756	84.6955	249.756	86.0979	249.756	84.352	249.756	86.1439	249.756	84.0082	249.756	86.1201	249.756	83.6787	249.756	86.022	249.756	83.3786	249.756	85.846	249.756	83.1218	249.756	85.5912	249.756	82.9195	249.756	85.2616	249.756	82.7776	249.756	84.8688	249.756	82.695	249.756	84.4346	249.756	82.6631	249.756	83.9914	249.756	82.6672	249.756	83.579	249.756	82.6899	249.756	83.2358	249.756	82.7148	249.756	82.9867	249.756	82.7309	249.756	82.835	249.756	82.736	249.756	82.7625	249.756	82.7394
258.545	85.4048	258.545	85.1649	258.545	85.6106	258.545	84.9004	258.545	85.7737	258.545	84.6213	258.545	85.8863	258.545	84.3379	258.545	85.941	258.545	84.0605	258.545	85.9309	258.545	83.7986	258.545	85.8498	258.545	83.5611	258.545	85.6926	258.545	83.356	258.545	85.4576	258.545	83.1894	258.545	85.1483	258.545	83.0649	258.545	84.7772	258.545	82.9823	258.545	84.3673	258.545	82.9368	258.545	83.9528	258.545	82.9192	258.545	83.5743	258.545	82.9178	258.545	83.2689	258.545	82.9201	258.545	83.0579	258.545	82.917	258.545	82.9401	258.545	82.9054	258.545	82.8947	258.545	82.8921
268.066	85.0697	268.066	84.7739	268.066	85.3235	268.066	84.4449	268.066	85.5279	268.066	84.0927	268.066	85.676	268.066	83.729	268.066	85.761	268.066	83.3669	268.066	85.7758	268.066	83.021	268.066	85.713	268.066	82.7066	268.066	85.5653	268.066	82.4387	268.066	85.3273	268.066	82.2295	268.066	84.9983	268.066	82.0863	268.066	84.5857	268.066	82.0085	268.066	84.1092	268.066	81.987	268.066	83.6039	268.066	82.0054	268.066	83.118	268.066	82.0432	268.066	82.7038	268.066	82.081	268.066	82.4004	268.066	82.105	268.066	82.2178	268.066	82.1118	268.066	82.135	268.066	82.1127
277.588	84.9349	277.588	84.7335	277.588	85.0988	277.588	84.4979	277.588	85.2223	277.588	84.2331	277.588	85.3031	277.588	83.9453	277.588	85.339	277.588	83.643	277.588	85.3274	277.588	83.3375	277.588	85.265	277.588	83.0427	277.588	85.1482	277.588	82.7747	277.588	84.9737	277.588	82.5494	277.588	84.74	277.588	82.379	277.588	84.4497	277.588	82.2688	277.588	84.1113	277.588	82.2146	277.588	83.7422	277.588	82.2038	277.588	83.3685	277.588	82.2191	277.588	83.0224	277.588	82.2437	277.588	82.735	277.588	82.2671	277.588	82.5254	277.588	82.2897	277.588	82.3943	277.588	82.3243
287.109	84.9507	287.109	84.7538	287.109	85.1104	287.109	84.5246	287.109	85.2277	287.109	84.2678	287.109	85.2976	287.109	83.9882	287.109	85.3158	287.109	83.6917	287.109	85.2785	287.109	83.3865	287.109	85.1831	287.109	83.085	287.109	85.0288	287.109	82.8041	287.109	84.8172	287.109	82.5631	287.109	84.5543	287.109	82.3798	287.109	84.2511	287.109	82.2654	287.109	83.9243	287.109	82.2197	287.109	83.5954	287.109	82.231	287.109	83.2882	287.109	82.2793	287.109	83.0243	287.109	82.3431	287.109	82.8178	287.109	82.4059	287.109	82.6717	287.109	82.4608	287.109	82.576	287.109	82.5125
297.363	85.5519	297.363	85.3284	297.363	85.7383	297.363	85.0777	297.363	85.8773	297.363	84.8075	297.363	85.9589	297.363	84.5219	297.363	85.9751	297.363	84.222	297.363	85.9188	297.363	83.9071	297.363	85.7854	297.363	83.5784	297.363	85.5725	297.363	83.2417	297.363	85.2824	297.363	82.91	297.363	84.924	297.363	82.6022	297.363	84.5146	297.363	82.3404	297.363	84.0801	297.363	82.1435	297.363	83.652	297.363	82.021	297.363	83.2606	297.363	81.9701	297.363	82.9281	297.363	81.9774	297.363	82.6631	297.363	82.0252	297.363	82.4613	297.363	82.0991	297.363	82.3095	297.363	82.1927
307.617	85.5662	307.617	85.356	307.617	85.7442	307.617	85.1267	307.617	85.8782	307.617	84.8903	307.617	85.958	307.617	84.6561	307.617	85.9753	307.617	84.4288	307.617	85.9235	307.617	84.2093	307.617	85.7969	307.617	83.9967	307.617	85.5919	307.617	83.7908	307.617	85.3087	307.617	83.5946	307.617	84.9539	307.617	83.4141	307.617	84.5441	307.617	83.2572	307.617	84.108	307.617	83.1303	307.617	83.685	307.617	83.0353	307.617	83.3182	307.617	82.9683	307.617	83.0417	307.617	82.9204	307.617	82.8692	307.617	82.8807	307.617	82.7906	307.617	82.8417	307.617	82.7789	307.617	82.8038
318.604	85.5038	318.604	85.2863	318.604	85.6879	318.604	85.0492	318.604	85.8258	318.604	84.8047	318.604	85.9063	318.604	84.5614	318.604	85.9204	318.604	84.3226	318.604	85.8604	318.604	84.0876	318.604	85.7196	318.604	83.8536	318.604	85.4928	318.604	83.6198	318.604	85.1774	318.604	83.3888	318.604	84.7769	318.604	83.1674	318.604	84.3042	318.604	82.9645	318.604	83.7854	318.604	82.7875	318.604	83.2615	318.604	82.6387	318.604	82.7844	318.604	82.5144	318.604	82.4055	318.604	82.4053	318.604	82.1581	318.604	82.3014	318.604	82.0451	318.604	82.1984	318.604	82.0404	318.604	82.1037
329.59	85.2607	329.59	85.037	329.59	85.4632	329.59	84.8072	329.59	85.6308	329.59	84.5844	329.59	85.7528	329.59	84.3756	329.59	85.8212	329.59	84.1801	329.59	85.8294	329.59	83.9905	329.59	85.7712	329.59	83.7968	329.59	85.6397	329.59	83.5914	329.59	85.4279	329.59	83.3724	329.59	85.1299	329.59	83.1444	329.59	84.7438	329.59	82.9166	329.59	84.276	329.59	82.6992	329.59	83.7458	329.59	82.4994	329.59	83.1902	329.59	82.3188	329.59	82.664	329.59	82.1547	329.59	82.2301	329.59	82.0054	329.59	81.9381	329.59	81.8783	329.59	81.802	329.59	81.7969
341.309	84.0182	341.309	83.7484	341.309	84.2725	341.309	83.4969	341.309	84.4863	341.309	83.2983	341.309	84.646	341.309	83.175	341.309	84.7469	341.309	83.1271	341.309	84.7912	341.309	83.132	341.309	84.7838	341.309	83.1551	341.309	84.7298	341.309	83.163	341.309	84.6322	341.309	83.1323	341.309	84.4897	341.309	83.0523	341.309	84.2963	341.309	82.9235	341.309	84.0438	341.309	82.7544	341.309	83.7268	341.309	82.558	341.309	83.3501	341.309	82.3497	341.309	82.9362	341.309	82.1473	341.309	82.5277	341.309	81.9736	341.309	82.1797	341.309	81.8586	341.309	81.9418	341.309	81.8377
353.76	83.4378	353.76	83.0861	353.76	83.7089	353.76	82.7059	353.76	83.8748	353.76	82.3745	353.76	83.9338	353.76	82.1734	353.76	83.9019	353.76	82.1499	353.76	83.8089	353.76	82.2902	353.76	83.696	353.76	82.5301	353.76	83.6097	353.76	82.792	353.76	83.5883	353.76	83.0149	353.76	83.6456	353.76	83.1637	353.76	83.7597	353.76	83.2258	353.76	83.8803	353.76	83.2044	353.76	83.9492	353.76	83.1144	353.76	83.9219	353.76	82.9803	353.76	83.7813	353.76	82.8365	353.76	83.5431	353.76	82.7266	353.76	83.2536	353.76	82.6967	353.76	82.9781	353.76	82.78
366.211	86.3748	366.211	85.9708	366.211	86.5857	366.211	85.3801	366.211	86.6065	366.211	84.6306	366.211	86.4432	366.211	83.7898	366.211	86.1027	366.211	82.9851	366.211	85.5956	366.211	82.3967	366.211	84.9461	366.211	82.1809	366.211	84.2137	366.211	82.3582	366.211	83.5252	366.211	82.8037	366.211	83.0834	366.211	83.3543	366.211	83.0759	366.211	83.893	366.211	83.5068	366.211	84.3623	366.211	84.18	366.211	84.7465	366.211	84.8653	366.211	85.0537	366.211	85.4159	366.211	85.3033	366.211	85.7742	366.211	85.5164	366.211	85.9422	366.211	85.7044	366.211	85.9547	366.211	85.8602
378.662	87.8935	378.662	87.5692	378.662	88.0759	378.662	87.1039	378.662	88.1167	378.662	86.5042	378.662	88.0142	378.662	85.7894	378.662	87.7623	378.662	85.0012	378.662	87.3501	378.662	84.2149	378.662	86.7638	378.662	83.5435	378.662	85.9967	378.662	83.115	378.662	85.0743	378.662	83.013	378.662	84.1071	378.662	83.2251	378.662	83.3527	378.662	83.6566	378.662	83.1485	378.662	84.193	378.662	83.5936	378.662	84.7461	378.662	84.4095	378.662	85.2625	378.662	85.2472	378.662	85.7144	378.662	85.9083	378.662	86.0862	378.662	86.3305	378.662	86.3622	378.662	86.5221	378.662	86.519
392.578	87.1884	392.578	86.8877	392.578	87.3878	392.578	86.4929	392.578	87.4793	392.578	86.0145	392.578	87.4545	392.578	85.4699	392.578	87.3005	392.578	84.8869	392.578	86.9991	392.578	84.3066	392.578	86.5269	392.578	83.7836	392.578	85.8591	392.578	83.3793	392.578	84.9827	392.578	83.1451	392.578	83.9285	392.578	83.1033	392.578	82.838	392.578	83.2373	392.578	82.0295	392.578	83.5002	392.578	81.8684	392.578	83.8342	392.578	82.3722	392.578	84.1858	392.578	83.1802	392.578	84.5117	392.578	83.9492	392.578	84.7766	392.578	84.52	392.578	84.9475	392.578	84.8591	392.578	84.9885
405.762	87.1028	405.762	86.7282	405.762	87.358	405.762	86.2412	405.762	87.489	405.762	85.6542	405.762	87.4905	405.762	84.9893	405.762	87.3534	405.762	84.2852	405.762	87.063	405.762	83.6028	405.762	86.597	405.762	83.0255	405.762	85.9264	405.762	82.6438	405.762	85.0233	405.762	82.5198	405.762	83.8852	405.762	82.6533	405.762	82.6007	405.762	82.9828	405.762	81.4682	405.762	83.4199	405.762	81.0009	405.762	83.883	405.762	81.4396	405.762	84.3115	405.762	82.3991	405.762	84.6635	405.762	83.3882	405.762	84.9078	405.762	84.1684	405.762	85.0154	405.762	84.6842	405.762	84.9537
420.41	87.1656	420.41	86.8263	420.41	87.4136	420.41	86.3983	420.41	87.5681	420.41	85.886	420.41	87.6257	420.41	85.2977	420.41	87.579	420.41	84.6497	420.41	87.4139	420.41	83.9724	420.41	87.1069	420.41	83.3183	420.41	86.6244	420.41	82.7643	420.41	85.9241	420.41	82.3985	420.41	84.9636	420.41	82.2843	420.41	83.7266	420.41	82.424	420.41	82.2929	420.41	82.7537	420.41	80.9838	420.41	83.1772	420.41	80.3998	420.41	83.6015	420.41	80.8341	420.41	83.952	420.41	81.8242	420.41	84.1708	420.41	82.8158	420.41	84.2091	420.41	83.5642	420.41	84.0209
435.059	86.6649	435.059	86.3891	435.059	86.847	435.059	86.0163	435.059	86.9388	435.059	85.5448	435.059	86.9425	435.059	84.977	435.059	86.8572	435.059	84.3248	435.059	86.677	435.059	83.6186	435.059	86.3894	435.059	82.9185	435.059	85.9755	435.059	82.3196	435.059	85.4132	435.059	81.9346	435.059	84.6865	435.059	81.842	435.059	83.8049	435.059	82.0335	435.059	82.8381	435.059	82.4173	435.059	81.9572	435.059	82.8713	435.059	81.4211	435.059	83.2908	435.059	81.4103	435.059	83.6015	435.059	81.8432	435.059	83.7552	435.059	82.4639	435.059	83.7213	435.059	83.0506	435.059	83.4846
450.439	86.5789	450.439	86.3213	450.439	86.7466	450.439	85.9781	450.439	86.8206	450.439	85.5531	450.439	86.7978	450.439	85.0476	450.439	86.6737	450.439	84.4627	450.439	86.4394	450.439	83.8054	450.439	86.079	450.439	83.1004	450.439	85.5693	450.439	82.4046	450.439	84.8848	450.439	81.8125	450.439	84.0107	450.439	81.4374	450.439	82.973	450.439	81.3553	450.439	81.8903	450.439	81.5516	450.439	81.0206	450.439	81.9277	450.439	80.671	450.439	82.3585	450.439	80.9147	450.439	82.7388	450.439	81.506	450.439	82.9962	450.439	82.146	450.439	83.0844	450.439	82.6588	450.439	82.9759
466.553	86.2376	466.553	85.9881	466.553	86.4045	466.553	85.6592	466.553	86.485	466.553	85.252	466.553	86.4754	466.553	84.7634	466.553	86.3703	466.553	84.1898	466.553	86.159	466.553	83.5349	466.553	85.823	466.553	82.8224	466.553	85.3353	466.553	82.1106	466.553	84.665	466.553	81.4991	466.553	83.7918	466.553	81.1079	466.553	82.7374	466.553	81.018	466.553	81.6235	466.553	81.2139	466.553	80.7248	466.553	81.5917	466.553	80.3689	466.553	82.0215	466.553	80.6223	466.553	82.3975	466.553	81.2149	466.553	82.6499	466.553	81.8413	466.553	82.7373	466.553	82.3344	466.553	82.6358
482.666	85.8633	482.666	85.6175	482.666	86.0557	482.666	85.3302	482.666	86.1829	482.666	85.0066	482.666	86.2362	482.666	84.6379	482.666	86.207	482.666	84.2015	482.666	86.0819	482.666	83.67	482.666	85.8387	482.666	83.0265	482.666	85.4447	482.666	82.2826	482.666	84.8596	482.666	81.4979	482.666	84.0439	482.666	80.7928	482.666	82.98	482.666	80.3285	482.666	81.7179	482.666	80.2237	482.666	80.4595	482.666	80.4594	482.666	79.6083	482.666	80.8904	482.666	79.5135	482.666	81.3442	482.666	80.0437	482.666	81.6877	482.666	80.7673	482.666	81.8356	482.666	81.3737	482.666	81.7379
500.244	85.5201	500.244	85.1254	500.244	85.8327	500.244	84.6851	500.244	86.0402	500.244	84.2404	500.244	86.1322	500.244	83.8179	500.244	86.1039	500.244	83.4145	500.244	85.9486	500.244	83.0005	500.244	85.652	500.244	82.5415	500.244	85.1912	500.244	82.0238	500.244	84.538	500.244	81.4738	500.244	83.673	500.244	80.9644	500.244	82.616	500.244	80.6004	500.244	81.479	500.244	80.4705	500.244	80.514	500.244	80.5888	500.244	80.0314	500.244	80.8808	500.244	80.1224	500.244	81.2278	500.244	80.5625	500.244	81.5201	500.244	81.0642	500.244	81.6805	500.244	81.4544	500.244	81.6643
517.822	85.4007	517.822	85.0367	517.822	85.6138	517.822	84.5508	517.822	85.6767	517.822	84.0061	517.822	85.6101	517.822	83.4879	517.822	85.4448	517.822	83.0649	517.822	85.2113	517.822	82.7463	517.822	84.9292	517.822	82.4777	517.822	84.5988	517.822	82.183	517.822	84.1946	517.822	81.8132	517.822	83.6666	517.822	81.3747	517.822	82.95	517.822	80.9395	517.822	81.9949	517.822	80.6322	517.822	80.8372	517.822	80.5724	517.822	79.7378	517.822	80.7845	517.822	79.2278	517.822	81.1634	517.822	79.5976	517.822	81.536	517.822	80.4366	517.822	81.7383	517.822	81.2034	517.822	81.6489
536.133	86.0343	536.133	85.6239	536.133	86.1903	536.133	84.9723	536.133	86.1011	536.133	84.1329	536.133	85.7882	536.133	83.2182	536.133	85.2805	536.133	82.3931	536.133	84.6164	536.133	81.8059	536.133	83.8524	536.133	81.4822	536.133	83.078	536.133	81.3132	536.133	82.4148	536.133	81.1577	536.133	81.9646	536.133	80.9348	536.133	81.7105	536.133	80.6543	536.133	81.4873	536.133	80.4047	536.133	81.0889	536.133	80.305	536.133	80.4168	536.133	80.4128	536.133	79.6147	536.133	80.6551	536.133	79.1196	536.133	80.862	536.133	79.2984	536.133	80.8592	536.133	79.9325	536.133	80.5402
554.443	85.9983	554.443	85.6508	554.443	86.1367	554.443	85.0966	554.443	86.0772	554.443	84.3617	554.443	85.8355	554.443	83.5052	554.443	85.4259	554.443	82.6204	554.443	84.8581	554.443	81.8126	554.443	84.1402	554.443	81.1534	554.443	83.2914	554.443	80.6466	554.443	82.366	554.443	80.2469	554.443	81.4808	554.443	79.9162	554.443	80.798	554.443	79.6646	554.443	80.4096	554.443	79.546	554.443	80.2284	554.443	79.607	554.443	80.076	554.443	79.8259	554.443	79.8681	554.443	80.1011	554.443	79.6873	554.443	80.3016	554.443	79.6855	554.443	80.3296	554.443	79.8925	554.443	80.1649
574.219	86.284	574.219	85.9796	574.219	86.3802	574.219	85.4532	574.219	86.288	574.219	84.7059	574.219	86.0269	574.219	83.7693	574.219	85.6129	574.219	82.7251	574.219	85.0549	574.219	81.7148	574.219	84.3552	574.219	80.8994	574.219	83.5143	574.219	80.3601	574.219	82.5465	574.219	80.038	574.219	81.5107	574.219	79.8052	574.219	80.5465	574.219	79.5793	574.219	79.8545	574.219	79.3778	574.219	79.5564	574.219	79.2968	574.219	79.5787	574.219	79.4237	574.219	79.756	574.219	79.7383	574.219	79.9831	574.219	80.1097	574.219	80.2186	574.219	80.3894	574.219	80.4136	574.219	80.4912
594.727	85.8229	594.727	85.7163	594.727	85.7167	594.727	85.3828	594.727	85.4252	594.727	84.8182	594.727	84.9924	594.727	84.0299	594.727	84.4788	594.727	83.0484	594.727	83.9512	594.727	81.9496	594.727	83.4582	594.727	80.8747	594.727	82.993	594.727	80.0098	594.727	82.4685	594.727	79.4898	594.727	81.7301	594.727	79.3027	594.727	80.6232	594.727	79.3329	594.727	79.1746	594.727	79.4835	594.727	78.0248	594.727	79.7308	594.727	78.3062	594.727	80.0905	594.727	79.696	594.727	80.5559	594.727	81.0026	594.727	81.0717	594.727	81.7732	594.727	81.5536	594.727	82.0284	594.727	81.9089
615.234	85.5966	615.234	85.6107	615.234	85.4021	615.234	85.4159	615.234	85.0553	615.234	84.9766	615.234	84.5917	615.234	84.2526	615.234	84.0616	615.234	83.216	615.234	83.5305	615.234	81.8954	615.234	83.0593	615.234	80.4748	615.234	82.6562	615.234	79.4006	615.234	82.2305	615.234	79.1479	615.234	81.5991	615.234	79.6111	615.234	80.5615	615.234	80.2576	615.234	79.0854	615.234	80.7277	615.234	77.7983	615.234	80.9347	615.234	78.0314	615.234	80.957	615.234	79.5024	615.234	80.9498	615.234	80.8414	615.234	81.0523	615.234	81.5697	615.234	81.297	615.234	81.7514	615.234	81.5892
637.207	85.8583	637.207	85.2092	637.207	86.2382	637.207	84.6007	637.207	86.1421	637.207	84.2922	637.207	85.4521	637.207	84.2347	637.207	84.1131	637.207	84.107	637.207	82.2415	637.207	83.5618	637.207	80.6332	637.207	82.2975	637.207	80.8336	637.207	79.9552	637.207	82.4229	637.207	76.0395	637.207	83.7254	637.207	72.6328	637.207	83.935	637.207	76.7091	637.207	82.49	637.207	80.9069	637.207	77.9703	637.207	83.6644	637.207	56.3555	637.207	85.5075	637.207	78.3708	637.207	86.7664	637.207	84.0357	637.207	87.618	637.207	86.6648	637.207	88.1314	637.207	87.8818	637.207	88.2704
659.912	87.5892	659.912	86.6409	659.912	88.0975	659.912	85.2324	659.912	88.1958	659.912	83.4768	659.912	87.889	659.912	81.9289	659.912	87.1394	659.912	81.5408	659.912	85.8435	659.912	82.2294	659.912	83.7901	659.912	82.9256	659.912	80.6555	659.912	82.9547	659.912	76.9954	659.912	81.9865	659.912	77.8972	659.912	79.5774	659.912	81.2561	659.912	74.3325	659.912	83.0694	659.912	60.2678	659.912	82.9933	659.912	75.1811	659.912	80.5786	659.912	80.825	659.912	73.6044	659.912	83.8169	659.912	72.5852	659.912	85.479	659.912	80.8796	659.912	86.1627	659.912	84.379	659.912	85.8821
683.35	87.91	683.35	87.4782	683.35	87.9992	683.35	86.6244	683.35	87.8253	683.35	85.3057	683.35	87.4443	683.35	83.6112	683.35	86.8633	683.35	81.9768	683.35	86.0139	683.35	81.1878	683.35	84.7275	683.35	81.3796	683.35	82.7228	683.35	81.7342	683.35	79.7233	683.35	81.5529	683.35	77.0176	683.35	80.4437	683.35	78.7672	683.35	77.9527	683.35	81.5494	683.35	73.0372	683.35	82.6568	683.35	68.3803	683.35	81.6392	683.35	75.5068	683.35	77.3478	683.35	80.0693	683.35	57.4995	683.35	82.5787	683.35	76.2158	683.35	83.7046	683.35	81.5639	683.35	83.5065
706.787	88.917	706.787	88.6988	706.787	88.8089	706.787	88.0396	706.787	88.4837	706.787	86.8293	706.787	88.0262	706.787	85.0025	706.787	87.466	706.787	82.7442	706.787	86.7466	706.787	81.0697	706.787	85.7049	706.787	81.2262	706.787	84.0444	706.787	82.2448	706.787	81.2729	706.787	82.7691	706.787	76.9473	706.787	82.3044	706.787	75.907	706.787	80.5383	706.787	80.114	706.787	76.7043	706.787	82.4751	706.787	67.6459	706.787	82.4897	706.787	71.1583	706.787	79.728	706.787	78.2968	706.787	71.1675	706.787	81.5345	706.787	72.9197	706.787	82.8556	706.787	80.0774	706.787	82.5423
731.689	89.2371	731.689	89.483	731.689	88.7192	731.689	89.3385	731.689	88.0692	731.689	88.6995	731.689	87.4407	731.689	87.4742	731.689	86.9521	731.689	85.6262	731.689	86.607	731.689	83.4048	731.689	86.2453	731.689	81.8893	731.689	85.5623	731.689	82.1445	731.689	84.1252	731.689	83.1055	731.689	81.2867	731.689	83.5383	731.689	76.5305	731.689	82.9853	731.689	77.075	731.689	81.1122	731.689	81.6612	731.689	77.0738	731.689	83.6686	731.689	66.8436	731.689	83.1993	731.689	70.6153	731.689	79.801	731.689	77.3527	731.689	69.5984	731.689	79.3301	731.689	71.7661	731.689	78.2083
758.057	88.9645	758.057	89.2411	758.057	88.4724	758.057	89.215	758.057	87.8638	758.057	88.8029	758.057	87.2476	758.057	87.9253	758.057	86.7169	758.057	86.5281	758.057	86.3058	758.057	84.6705	758.057	85.9496	758.057	82.7819	758.057	85.4621	758.057	81.8202	758.057	84.5331	758.057	82.0794	758.057	82.7346	758.057	82.5735	758.057	79.7386	758.057	82.4863	758.057	77.9613	758.057	81.4315	758.057	80.9773	758.057	79.0478	758.057	83.521	758.057	74.7913	758.057	83.9564	758.057	70.7272	758.057	82.067	758.057	73.6413	758.057	77.0429	758.057	75.4421	758.057	68.9273	758.057	73.5286
784.424	88.8411	784.424	89.0162	784.424	88.3958	784.424	88.8753	784.424	87.7677	784.424	88.3939	784.424	87.0805	784.424	87.5526	784.424	86.4532	784.424	86.3541	784.424	85.9396	784.424	84.8983	784.424	85.4808	784.424	83.4913	784.424	84.9049	784.424	82.5748	784.424	83.9606	784.424	82.251	784.424	82.3446	784.424	82.1135	784.424	79.8227	784.424	81.7077	784.424	77.4245	784.424	80.7394	784.424	78.4845	784.424	78.9781	784.424	80.6596	784.424	76.2983	784.424	81.1721	784.424	73.837	784.424	79.5071	784.424	74.5924	784.424	75.8844	784.424	76.227	784.424	74.3799	784.424	76.0899
812.256	88.2933	812.256	88.5092	812.256	87.7907	812.256	88.365	812.256	87.119	812.256	87.8027	812.256	86.4345	812.256	86.7751	812.256	85.87	812.256	85.3103	812.256	85.4493	812.256	83.6819	812.256	85.0507	812.256	82.5152	812.256	84.4408	812.256	82.1885	812.256	83.3287	812.256	82.2261	812.256	81.427	812.256	82.0372	812.256	78.8305	812.256	81.4073	812.256	77.6069	812.256	80.3264	812.256	79.173	812.256	78.7816	812.256	80.3901	812.256	76.8824	812.256	79.7354	812.256	75.7873	812.256	76.6811	812.256	76.8269	812.256	72.7094	812.256	78.1127	812.256	75.2761	812.256	77.8475
840.82	88.071	840.82	88.4465	840.82	87.3565	840.82	88.3736	840.82	86.4501	840.82	87.7642	840.82	85.5109	840.82	86.5232	840.82	84.7052	840.82	84.5894	840.82	84.2387	840.82	82.2675	840.82	84.237	840.82	80.9869	840.82	84.4936	840.82	81.6793	840.82	84.4942	840.82	82.6968	840.82	83.5781	840.82	82.9226	840.82	80.745	840.82	82.1414	840.82	73.6118	840.82	80.3485	840.82	74.9147	840.82	77.6298	840.82	80.9334	840.82	74.78	840.82	82.2224	840.82	74.5816	840.82	79.9424	840.82	76.6073	840.82	71.8803	840.82	77.6539	840.82	67.4511	840.82	76.1017
870.85	87.6625	870.85	87.5434	870.85	87.5871	870.85	87.4533	870.85	87.09	870.85	87.3354	870.85	86.1163	870.85	86.8472	870.85	84.8018	870.85	85.5805	870.85	83.4357	870.85	83.1445	870.85	82.4047	870.85	79.3287	870.85	82.059	870.85	76.6987	870.85	82.3593	870.85	79.0157	870.85	82.666	870.85	81.1602	870.85	82.0707	870.85	81.6713	870.85	79.6088	870.85	80.6049	870.85	75.311	870.85	77.8564	870.85	77.763	870.85	73.4664	870.85	81.3711	870.85	71.5133	870.85	81.8761	870.85	73.5004	870.85	79.2911	870.85	73.2122	870.85	72.5428	870.85	68.3943
901.611	87.8321	901.611	87.4676	901.611	87.8013	901.611	86.9751	901.611	87.2652	901.611	86.577	901.611	86.2873	901.611	86.1607	901.611	85.0574	901.611	85.3322	901.611	83.7916	901.611	83.6764	901.611	82.6516	901.611	80.9054	901.611	81.8732	901.611	77.7295	901.611	81.7526	901.611	77.9123	901.611	81.9098	901.611	80.3099	901.611	81.1684	901.611	81.7059	901.611	77.9442	901.611	81.6682	901.611	71.8161	901.611	80.0429	901.611	78.5686	901.611	76.1718	901.611	82.6081	901.611	67.5271	901.611	82.9782	901.611	66.2143	901.611	80.1446	901.611	70.8825	901.611	73.3182	901.611	68.7969
933.105	88.5063	933.105	88.0686	933.105	88.359	933.105	87.1508	933.105	87.7049	933.105	86.0721	933.105	86.7425	933.105	85.1748	933.105	85.684	933.105	84.3945	933.105	84.5877	933.105	83.2373	933.105	83.2935	933.105	81.1048	933.105	81.6802	933.105	77.4424	933.105	80.4825	933.105	73.9226	933.105	81.0532	933.105	76.6192	933.105	82.0534	933.105	79.6505	933.105	81.3433	933.105	80.8348	933.105	77.049	933.105	80.3513	933.105	71.8539	933.105	78.2463	933.105	79.835	933.105	74.8277	933.105	82.5347	933.105	72.6315	933.105	81.8063	933.105	73.1259	933.105	78.5939	933.105	74.7472
966.064	88.0996	966.064	87.8571	966.064	87.7723	966.064	87.0986	966.064	86.9593	966.064	85.967	966.064	85.9213	966.064	84.6524	966.064	85.0118	966.064	83.3318	966.064	84.384	966.064	82.0437	966.064	83.7893	966.064	80.5614	966.064	82.7826	966.064	78.4996	966.064	81.1743	966.064	75.9565	966.064	79.7137	966.064	75.2748	966.064	79.5392	966.064	77.4461	966.064	79.4344	966.064	79.3333	966.064	77.69	966.064	79.8116	966.064	75.6304	966.064	78.7007	966.064	78.2376	966.064	76.0823	966.064	80.4647	966.064	73.8372	966.064	80.3148	966.064	74.7624	966.064	78.5292	966.064	76.512
999.756	87.4288	999.756	87.285	999.756	87.1497	999.756	86.7208	999.756	86.4652	999.756	85.7529	999.756	85.5099	999.756	84.4511	999.756	84.56	999.756	82.9302	999.756	83.8103	999.756	81.3062	999.756	83.146	999.756	79.6607	999.756	82.2472	999.756	77.9981	999.756	80.9752	999.756	76.3979	999.756	79.9299	999.756	75.848	999.756	79.8857	999.756	77.3638	999.756	79.7405	999.756	79.2086	999.756	77.5547	999.756	79.8001	999.756	71.9593	999.756	78.6721	999.756	74.0049	999.756	76.1802	999.756	77.8975	999.756	74.7734	999.756	78.4554	999.756	75.5838	999.756	77.4628	999.756	76.4619
1,034.91	87.1593	1,034.91	86.8837	1,034.91	86.7599	1,034.91	86.1279	1,034.91	85.7745	1,034.91	85.1844	1,034.91	84.6735	1,034.91	84.2671	1,034.91	83.9127	1,034.91	83.389	1,034.91	83.4435	1,034.91	82.3817	1,034.91	83.0216	1,034.91	80.9788	1,034.91	82.3794	1,034.91	78.8404	1,034.91	81.3008	1,034.91	75.5486	1,034.91	80.1577	1,034.91	71.362	1,034.91	79.8605	1,034.91	71.2935	1,034.91	79.9922	1,034.91	74.3789	1,034.91	79.1716	1,034.91	76.0191	1,034.91	77.2188	1,034.91	75.8619	1,034.91	76.7519	1,034.91	74.149	1,034.91	77.8446	1,034.91	72.6879	1,034.91	77.8489	1,034.91	73.8936	1,034.91	76.9131	1,034.91	75.6451
1,071.53	86.7839	1,071.53	86.4808	1,071.53	86.4204	1,071.53	85.7049	1,071.53	85.5494	1,071.53	84.777	1,071.53	84.7154	1,071.53	83.9051	1,071.53	84.2532	1,071.53	83.0705	1,071.53	83.8416	1,071.53	82.1036	1,071.53	83.0625	1,071.53	80.7991	1,071.53	81.6858	1,071.53	79.0245	1,071.53	79.7031	1,071.53	76.9363	1,071.53	78.0181	1,071.53	75.1895	1,071.53	78.1612	1,071.53	74.2531	1,071.53	78.7473	1,071.53	73.7606	1,071.53	77.7917	1,071.53	73.61	1,071.53	75.9222	1,071.53	73.7501	1,071.53	77.0534	1,071.53	73.7788	1,071.53	77.9973	1,071.53	74.0539	1,071.53	76.7097	1,071.53	75.1002	1,071.53	75.7512	1,071.53	75.8747
1,109.62	86.3991	1,109.62	86.378	1,109.62	85.9444	1,109.62	85.8584	1,109.62	85.297	1,109.62	84.9176	1,109.62	84.7964	1,109.62	83.6208	1,109.62	84.3682	1,109.62	82.1048	1,109.62	83.7667	1,109.62	80.7017	1,109.62	82.9569	1,109.62	79.7423	1,109.62	81.8951	1,109.62	79.0795	1,109.62	80.3986	1,109.62	78.2617	1,109.62	78.6817	1,109.62	77.2722	1,109.62	77.823	1,109.62	76.6832	1,109.62	77.7336	1,109.62	76.5549	1,109.62	77.114	1,109.62	75.9842	1,109.62	76.9304	1,109.62	74.3478	1,109.62	78.1721	1,109.62	72.3512	1,109.62	78.3871	1,109.62	72.5258	1,109.62	76.6279	1,109.62	74.1473	1,109.62	74.7628	1,109.62	74.7251
1,148.44	86.5133	1,148.44	86.4609	1,148.44	86.0121	1,148.44	85.6824	1,148.44	85.4192	1,148.44	84.3512	1,148.44	84.9735	1,148.44	82.7851	1,148.44	84.5089	1,148.44	81.2138	1,148.44	83.9408	1,148.44	79.7485	1,148.44	83.2696	1,148.44	78.5456	1,148.44	82.2072	1,148.44	77.6643	1,148.44	80.2239	1,148.44	76.9348	1,148.44	77.4255	1,148.44	76.5059	1,148.44	76.794	1,148.44	76.5905	1,148.44	78.3056	1,148.44	76.5887	1,148.44	78.1319	1,148.44	75.7032	1,148.44	76.5297	1,148.44	73.7255	1,148.44	77.7152	1,148.44	71.8222	1,148.44	78.8339	1,148.44	72.5738	1,148.44	77.2137	1,148.44	74.4377	1,148.44	74.8411	1,148.44	74.8988
1,189.45	86.5186	1,189.45	86.0868	1,189.45	86.386	1,189.45	85.2114	1,189.45	85.8452	1,189.45	84.243	1,189.45	85.1541	1,189.45	83.4071	1,189.45	84.4074	1,189.45	82.3964	1,189.45	83.5573	1,189.45	80.4867	1,189.45	82.6742	1,189.45	77.3365	1,189.45	81.8642	1,189.45	75.5916	1,189.45	80.7634	1,189.45	76.937	1,189.45	78.9028	1,189.45	77.7217	1,189.45	77.009	1,189.45	77.6158	1,189.45	76.1503	1,189.45	77.5234	1,189.45	74.6796	1,189.45	77.2956	1,189.45	75.125	1,189.45	76.0166	1,189.45	78.1136	1,189.45	74.086	1,189.45	77.8842	1,189.45	74.1513	1,189.45	74.9834	1,189.45	75.8297	1,189.45	75.0825	1,189.45	76.4188
1,231.2	87.109	1,231.2	87.391	1,231.2	86.0804	1,231.2	86.4614	1,231.2	85.4685	1,231.2	84.6066	1,231.2	85.3295	1,231.2	82.7891	1,231.2	84.6715	1,231.2	82.2591	1,231.2	83.4359	1,231.2	82.2626	1,231.2	82.5095	1,231.2	80.8068	1,231.2	82.1733	1,231.2	76.4707	1,231.2	81.0554	1,231.2	70.6786	1,231.2	77.5049	1,231.2	75.8168	1,231.2	74.2753	1,231.2	79.3591	1,231.2	79.1905	1,231.2	80.2188	1,231.2	79.6077	1,231.2	78.574	1,231.2	69.6766	1,231.2	73.1659	1,231.2	80.5613	1,231.2	59.6786	1,231.2	83.8724	1,231.2	73.1385	1,231.2	80.8447	1,231.2	76.3159	1,231.2	66.9073	1,231.2	73.5206
1,274.41	86.4641	1,274.41	86.2536	1,274.41	87.0078	1,274.41	86.188	1,274.41	87.4653	1,274.41	85.792	1,274.41	87.409	1,274.41	84.6238	1,274.41	86.6639	1,274.41	82.4246	1,274.41	84.9918	1,274.41	80.1265	1,274.41	82.3943	1,274.41	79.5495	1,274.41	80.9873	1,274.41	79.1717	1,274.41	81.9943	1,274.41	76.6031	1,274.41	81.8224	1,274.41	66.7928	1,274.41	76.9367	1,274.41	73.2313	1,274.41	74.378	1,274.41	80.0533	1,274.41	82.4774	1,274.41	82.0906	1,274.41	80.9563	1,274.41	81.6635	1,274.41	72.4604	1,274.41	79.389	1,274.41	83.9496	1,274.41	75.8497	1,274.41	85.7168	1,274.41	73.8033	1,274.41	83.1453	1,274.41	77.713
1,319.82	87.6651	1,319.82	87.3872	1,319.82	87.459	1,319.82	86.5902	1,319.82	87.5651	1,319.82	85.8071	1,319.82	88.201	1,319.82	85.3946	1,319.82	88.357	1,319.82	84.8653	1,319.82	87.3397	1,319.82	83.4254	1,319.82	84.9837	1,319.82	80.8459	1,319.82	81.3256	1,319.82	78.4758	1,319.82	78.7835	1,319.82	77.777	1,319.82	80.3363	1,319.82	75.7128	1,319.82	79.8925	1,319.82	68.6204	1,319.82	69.3879	1,319.82	76.8829	1,319.82	78.7743	1,319.82	81.8111	1,319.82	83.5342	1,319.82	82.8663	1,319.82	79.9401	1,319.82	81.6457	1,319.82	70.2613	1,319.82	79.3911	1,319.82	82.5758	1,319.82	79.1499	1,319.82	84.0691	1,319.82	82.0455
1,365.97	86.9464	1,365.97	87.3741	1,365.97	86.5563	1,365.97	86.9639	1,365.97	86.9893	1,365.97	85.7737	1,365.97	87.2397	1,365.97	84.3443	1,365.97	86.5844	1,365.97	83.3737	1,365.97	85.3317	1,365.97	82.6506	1,365.97	83.9074	1,365.97	81.1874	1,365.97	82.1197	1,365.97	78.8729	1,365.97	80.5755	1,365.97	77.3427	1,365.97	81.3256	1,365.97	76.5437	1,365.97	82.2314	1,365.97	71.5348	1,365.97	79.7321	1,365.97	68.4061	1,365.97	64.581	1,365.97	78.1532	1,365.97	79.5179	1,365.97	80.9436	1,365.97	81.7351	1,365.97	81.5072	1,365.97	75.2874	1,365.97	80.7374	1,365.97	74.1599	1,365.97	80.743	1,365.97	81.2796	1,365.97	82.0641
1,414.31	86.285	1,414.31	86.9649	1,414.31	86.6474	1,414.31	87.3311	1,414.31	87.5207	1,414.31	86.7345	1,414.31	87.4556	1,414.31	85.1782	1,414.31	86.4497	1,414.31	83.275	1,414.31	85.3752	1,414.31	82.2402	1,414.31	84.3618	1,414.31	81.6808	1,414.31	82.4914	1,414.31	80.2333	1,414.31	79.8595	1,414.31	78.3197	1,414.31	79.4242	1,414.31	77.9477	1,414.31	80.9575	1,414.31	76.4584	1,414.31	80.7682	1,414.31	68.6015	1,414.31	76.3239	1,414.31	69.0611	1,414.31	72.4318	1,414.31	76.635	1,414.31	79.5695	1,414.31	78.528	1,414.31	80.0051	1,414.31	77.4847	1,414.31	74.4222	1,414.31	77.929	1,414.31	74.4812	1,414.31	78.4969
1,464.11	85.9758	1,464.11	85.8832	1,464.11	86.9979	1,464.11	86.0972	1,464.11	87.5663	1,464.11	85.6894	1,464.11	86.8546	1,464.11	84.4887	1,464.11	85.6468	1,464.11	82.6124	1,464.11	84.9853	1,464.11	80.7961	1,464.11	84.2755	1,464.11	80.0781	1,464.11	82.4145	1,464.11	79.3388	1,464.11	79.1105	1,464.11	77.2623	1,464.11	77.4699	1,464.11	76.2369	1,464.11	79.4029	1,464.11	76.5241	1,464.11	79.3052	1,464.11	73.3578	1,464.11	75.9811	1,464.11	63.2692	1,464.11	74.7736	1,464.11	73.7681	1,464.11	75.1779	1,464.11	78.7234	1,464.11	76.4166	1,464.11	77.8876	1,464.11	75.794	1,464.11	73.737	1,464.11	70.8708	1,464.11	72.3604
1,515.38	85.3256	1,515.38	84.6116	1,515.38	86.7567	1,515.38	84.8897	1,515.38	87.1069	1,515.38	84.7986	1,515.38	86.2951	1,515.38	83.7647	1,515.38	85.5955	1,515.38	81.9719	1,515.38	84.9562	1,515.38	80.2497	1,515.38	83.3965	1,515.38	79.4005	1,515.38	80.9769	1,515.38	78.6181	1,515.38	78.2972	1,515.38	76.3302	1,515.38	75.4169	1,515.38	74.8747	1,515.38	73.3169	1,515.38	76.449	1,515.38	73.7677	1,515.38	75.9572	1,515.38	73.6879	1,515.38	71.198	1,515.38	74.6878	1,515.38	71.8246	1,515.38	75.0804	1,515.38	77.4857	1,515.38	73.388	1,515.38	76.9103	1,515.38	73.9581	1,515.38	73.4479	1,515.38	69.7553	1,515.38	70.6834
1,568.85	85.3094	1,568.85	84.2918	1,568.85	86.4376	1,568.85	84.3399	1,568.85	86.6647	1,568.85	84.6205	1,568.85	86.2748	1,568.85	84.1152	1,568.85	85.6874	1,568.85	82.6395	1,568.85	84.4379	1,568.85	80.4424	1,568.85	82.5002	1,568.85	78.6068	1,568.85	80.5504	1,568.85	78.2596	1,568.85	78.7652	1,568.85	76.2595	1,568.85	77.3165	1,568.85	69.5259	1,568.85	76.4253	1,568.85	72.2265	1,568.85	74.6579	1,568.85	76.9275	1,568.85	72.1795	1,568.85	76.2823	1,568.85	73.1714	1,568.85	71.891	1,568.85	72.539	1,568.85	75.8805	1,568.85	73.6179	1,568.85	75.8186	1,568.85	74.7306	1,568.85	71.072	1,568.85	67.7729	1,568.85	65.6272
1,624.51	84.807	1,624.51	84.0573	1,624.51	86.0795	1,624.51	84.3884	1,624.51	86.4076	1,624.51	84.3362	1,624.51	85.9653	1,624.51	83.2977	1,624.51	85.0606	1,624.51	82.1068	1,624.51	83.2254	1,624.51	81.2329	1,624.51	81.2721	1,624.51	79.5855	1,624.51	80.2383	1,624.51	77.8975	1,624.51	79.3324	1,624.51	77.5907	1,624.51	78.703	1,624.51	75.9259	1,624.51	79.4349	1,624.51	73.0391	1,624.51	79.798	1,624.51	76.5092	1,624.51	77.7878	1,624.51	77.4516	1,624.51	72.4691	1,624.51	73.676	1,624.51	73.2921	1,624.51	74.3466	1,624.51	75.0458	1,624.51	73.3656	1,624.51	73.4211	1,624.51	66.1728	1,624.51	66.6745	1,624.51	56.0934
1,681.64	84.5998	1,681.64	82.8163	1,681.64	85.559	1,681.64	82.7068	1,681.64	85.7471	1,681.64	83.7241	1,681.64	86.0879	1,681.64	83.9126	1,681.64	85.0231	1,681.64	82.8159	1,681.64	81.9086	1,681.64	81.0831	1,681.64	79.6587	1,681.64	80.2621	1,681.64	79.4575	1,681.64	78.904	1,681.64	79.2372	1,681.64	76.1376	1,681.64	77.4832	1,681.64	72.9962	1,681.64	76.3425	1,681.64	71.4242	1,681.64	78.4753	1,681.64	74.3225	1,681.64	78.0648	1,681.64	75.6687	1,681.64	75.7359	1,681.64	73.0842	1,681.64	71.7028	1,681.64	70.5017	1,681.64	71.0012	1,681.64	71.3791	1,681.64	74.1635	1,681.64	68.0444	1,681.64	70.3484	1,681.64	51.936
1,740.97	84.0901	1,740.97	83.2116	1,740.97	85.2008	1,740.97	82.6451	1,740.97	86.1614	1,740.97	83.2005	1,740.97	85.8456	1,740.97	84.3984	1,740.97	84.3055	1,740.97	84.4811	1,740.97	83.3374	1,740.97	82.1573	1,740.97	82.4987	1,740.97	78.0636	1,740.97	80.652	1,740.97	76.4678	1,740.97	78.7856	1,740.97	76.147	1,740.97	76.9449	1,740.97	74.8735	1,740.97	76.4465	1,740.97	72.5659	1,740.97	77.91	1,740.97	73.0637	1,740.97	76.514	1,740.97	74.4698	1,740.97	76.9711	1,740.97	74.7589	1,740.97	75.066	1,740.97	73.0594	1,740.97	66.9558	1,740.97	69.3994	1,740.97	75.7354	1,740.97	63.0586	1,740.97	73.4216	1,740.97	58.866
1,802.49	85.2905	1,802.49	82.9723	1,802.49	86.3634	1,802.49	82.8017	1,802.49	85.8143	1,802.49	84.0071	1,802.49	85.2346	1,802.49	83.7568	1,802.49	84.7639	1,802.49	83.019	1,802.49	82.9652	1,802.49	82.9186	1,802.49	79.9735	1,802.49	81.556	1,802.49	77.4375	1,802.49	78.9538	1,802.49	77.0284	1,802.49	78.3208	1,802.49	76.9858	1,802.49	79.1206	1,802.49	74.54	1,802.49	78.2777	1,802.49	72.3397	1,802.49	76.2038	1,802.49	73.6998	1,802.49	73.2636	1,802.49	77.3031	1,802.49	71.4059	1,802.49	76.8509	1,802.49	71.2514	1,802.49	62.9968	1,802.49	70.8772	1,802.49	75.3188	1,802.49	63.6445	1,802.49	72.8133	1,802.49	60.7061
1,866.21	84.7504	1,866.21	83.5755	1,866.21	85.4406	1,866.21	82.1021	1,866.21	85.9713	1,866.21	83.4831	1,866.21	85.3435	1,866.21	84.8956	1,866.21	83.5583	1,866.21	83.5652	1,866.21	82.7394	1,866.21	81.2458	1,866.21	82.1553	1,866.21	80.3296	1,866.21	79.8221	1,866.21	78.9946	1,866.21	78.2459	1,866.21	76.8357	1,866.21	78.9825	1,866.21	76.6326	1,866.21	77.9634	1,866.21	76.8305	1,866.21	78.1133	1,866.21	74.3919	1,866.21	77.1856	1,866.21	71.8604	1,866.21	68.4503	1,866.21	74.3229	1,866.21	76.6637	1,866.21	75.9797	1,866.21	68.445	1,866.21	73.0208	1,866.21	73.2155	1,866.21	65.8045	1,866.21	75.2074	1,866.21	69.4199
1,932.13	84.3614	1,932.13	82.7777	1,932.13	86.0259	1,932.13	82.7384	1,932.13	85.8462	1,932.13	82.9613	1,932.13	84.089	1,932.13	83.9688	1,932.13	82.0993	1,932.13	84.0312	1,932.13	82.1344	1,932.13	82.2512	1,932.13	82.5118	1,932.13	79.5603	1,932.13	80.8272	1,932.13	77.9155	1,932.13	76.8122	1,932.13	76.3412	1,932.13	74.0634	1,932.13	73.2577	1,932.13	74.2815	1,932.13	74.8493	1,932.13	72.7352	1,932.13	76.0372	1,932.13	77.7159	1,932.13	72.0171	1,932.13	74.5969	1,932.13	68.3924	1,932.13	72.503	1,932.13	74.6095	1,932.13	74.6683	1,932.13	76.0675	1,932.13	69.8495	1,932.13	72.2714	1,932.13	70.8339	1,932.13	52.8305
2,000.24	85.1614	2,000.24	83.536	2,000.24	85.3003	2,000.24	81.3645	2,000.24	84.4919	2,000.24	82.3703	2,000.24	82.8144	2,000.24	83.8777	2,000.24	81.8125	2,000.24	83.607	2,000.24	82.2375	2,000.24	82.7129	2,000.24	81.6659	2,000.24	81.9782	2,000.24	80.2013	2,000.24	80.1845	2,000.24	78.6027	2,000.24	77.4345	2,000.24	78.607	2,000.24	74.0915	2,000.24	78.0095	2,000.24	67.9192	2,000.24	69.573	2,000.24	73.9616	2,000.24	75.4697	2,000.24	77.9054	2,000.24	75.3391	2,000.24	77.8043	2,000.24	73.2207	2,000.24	75.2064	2,000.24	73.3727	2,000.24	65.8026	2,000.24	73.7738	2,000.24	62.9481	2,000.24	76.7734	2,000.24	71.6119
2,070.56	85.9746	2,070.56	84.1139	2,070.56	85.9539	2,070.56	81.5052	2,070.56	84.4096	2,070.56	81.4605	2,070.56	82.4478	2,070.56	82.6891	2,070.56	82.0142	2,070.56	83.6574	2,070.56	82.005	2,070.56	83.5037	2,070.56	81.8162	2,070.56	81.9632	2,070.56	80.4071	2,070.56	79.7152	2,070.56	77.1762	2,070.56	78.5801	2,070.56	77.9761	2,070.56	78.1633	2,070.56	79.9324	2,070.56	75.5281	2,070.56	75.417	2,070.56	72.0431	2,070.56	73.3508	2,070.56	73.0003	2,070.56	75.3055	2,070.56	74.2669	2,070.56	71.1552	2,070.56	74.0037	2,070.56	73.6471	2,070.56	69.6609	2,070.56	70.6927	2,070.56	64.7762	2,070.56	74.7273	2,070.56	69.8659
2,143.8	86.0741	2,143.8	84.2056	2,143.8	86.1366	2,143.8	81.1495	2,143.8	83.987	2,143.8	80.9158	2,143.8	81.8055	2,143.8	82.7386	2,143.8	80.6927	2,143.8	83.2835	2,143.8	81.6819	2,143.8	83.6195	2,143.8	82.2351	2,143.8	84.1653	2,143.8	78.6361	2,143.8	83.3472	2,143.8	68.8219	2,143.8	81.4228	2,143.8	70.5526	2,143.8	80.3829	2,143.8	77.3392	2,143.8	79.6062	2,143.8	77.8292	2,143.8	77.9259	2,143.8	76.2006	2,143.8	76.9152	2,143.8	68.0168	2,143.8	73.9467	2,143.8	72.156	2,143.8	71.292	2,143.8	71.2489	2,143.8	69.875	2,143.8	70.7733	2,143.8	58.5689	2,143.8	74.5709	2,143.8	67.5172
2,219.24	85.2395	2,219.24	83.4657	2,219.24	84.3637	2,219.24	79.2361	2,219.24	82.7033	2,219.24	80.9931	2,219.24	81.906	2,219.24	83.419	2,219.24	81.5456	2,219.24	83.383	2,219.24	84.1938	2,219.24	82.4137	2,219.24	82.4539	2,219.24	82.2595	2,219.24	78.2644	2,219.24	82.3098	2,219.24	78.5015	2,219.24	81.8444	2,219.24	75.0539	2,219.24	80.1855	2,219.24	60.9939	2,219.24	78.1711	2,219.24	62.7904	2,219.24	74.5185	2,219.24	74.951	2,219.24	68.2926	2,219.24	75.7456	2,219.24	72.3466	2,219.24	67.8042	2,219.24	76.2829	2,219.24	75.7679	2,219.24	73.091	2,219.24	59.2296	2,219.24	59.3908	2,219.24	72.9414	2,219.24	69.7263
2,297.61	85.5417	2,297.61	83.5041	2,297.61	84.4187	2,297.61	78.8666	2,297.61	81.8256	2,297.61	78.6209	2,297.61	80.2432	2,297.61	81.765	2,297.61	82.5519	2,297.61	81.9903	2,297.61	84.5461	2,297.61	80.4761	2,297.61	82.7838	2,297.61	79.5242	2,297.61	81.4476	2,297.61	78.5558	2,297.61	81.3616	2,297.61	79.529	2,297.61	79.7516	2,297.61	79.6953	2,297.61	73.9868	2,297.61	74.6819	2,297.61	68.8662	2,297.61	73.9722	2,297.61	69.4628	2,297.61	75.5492	2,297.61	71.6659	2,297.61	67.0767	2,297.61	67.1686	2,297.61	67.6461	2,297.61	69.0274	2,297.61	72.3284	2,297.61	70.2153	2,297.61	68.1287	2,297.61	70.4063	2,297.61	72.1985
2,378.17	87.094	2,378.17	85.0541	2,378.17	85.3165	2,378.17	77.3519	2,378.17	81.9125	2,378.17	79.2668	2,378.17	78.5783	2,378.17	81.5437	2,378.17	81.9609	2,378.17	81.6528	2,378.17	83.5595	2,378.17	80.3255	2,378.17	83.8589	2,378.17	77.4018	2,378.17	82.5862	2,378.17	73.7944	2,378.17	78.3799	2,378.17	69.6653	2,378.17	75.1199	2,378.17	72.4134	2,378.17	76.9863	2,378.17	69.1238	2,378.17	77.2791	2,378.17	48.3313	2,378.17	73.8103	2,378.17	67.4913	2,378.17	68.5494	2,378.17	76.1072	2,378.17	69.6475	2,378.17	74.837	2,378.17	57.8915	2,378.17	65.1169	2,378.17	62.8511	2,378.17	68.9124	2,378.17	70.7626	2,378.17	73.5925
2,462.4	86.0745	2,462.4	84.5305	2,462.4	84.4329	2,462.4	77.0763	2,462.4	80.3247	2,462.4	77.2769	2,462.4	77.2884	2,462.4	82.0928	2,462.4	80.3371	2,462.4	83.4136	2,462.4	82.4623	2,462.4	81.7995	2,462.4	82.658	2,462.4	78.1243	2,462.4	81.1605	2,462.4	76.4052	2,462.4	77.2738	2,462.4	74.6823	2,462.4	71.7085	2,462.4	72.2572	2,462.4	74.3172	2,462.4	69.1561	2,462.4	73.1073	2,462.4	66.3219	2,462.4	74.7588	2,462.4	71.4937	2,462.4	71.3938	2,462.4	71.4789	2,462.4	70.7737	2,462.4	67.5321	2,462.4	59.0859	2,462.4	64.3346	2,462.4	69.0469	2,462.4	63.7213	2,462.4	73.3398	2,462.4	71.1434
2,548.83	85.5894	2,548.83	83.7103	2,548.83	84.0903	2,548.83	76.9237	2,548.83	79.5062	2,548.83	78.2126	2,548.83	75.967	2,548.83	82.9489	2,548.83	79.8509	2,548.83	82.6984	2,548.83	82.2807	2,548.83	80.341	2,548.83	82.8161	2,548.83	77.4405	2,548.83	81.8545	2,548.83	73.9651	2,548.83	78.2586	2,548.83	70.704	2,548.83	72.7815	2,548.83	69.0387	2,548.83	72.7944	2,548.83	70.0935	2,548.83	70.1854	2,548.83	68.2709	2,548.83	70.6189	2,548.83	67.2531	2,548.83	73.4226	2,548.83	72.9273	2,548.83	65.67	2,548.83	72.4244	2,548.83	62.8204	2,548.83	64.3327	2,548.83	61.6964	2,548.83	65.8694	2,548.83	71.9007	2,548.83	72.0276
2,638.92	85.8559	2,638.92	83.7582	2,638.92	83.9656	2,638.92	73.1243	2,638.92	78.4862	2,638.92	78.9685	2,638.92	74.9641	2,638.92	82.4918	2,638.92	80.1134	2,638.92	82.1813	2,638.92	82.485	2,638.92	80.9583	2,638.92	82.6305	2,638.92	78.9181	2,638.92	80.8802	2,638.92	75.8684	2,638.92	76.2583	2,638.92	73.1236	2,638.92	67.6604	2,638.92	70.9885	2,638.92	68.2429	2,638.92	68.7381	2,638.92	67.6518	2,638.92	67.3835	2,638.92	67.8602	2,638.92	70.1431	2,638.92	71.655	2,638.92	70.0499	2,638.92	70.9935	2,638.92	68.38	2,638.92	61.7897	2,638.92	66.5326	2,638.92	59.1568	2,638.92	61.97	2,638.92	69.2525	2,638.92	69.8982
2,731.93	85.6257	2,731.93	83.4877	2,731.93	83.6979	2,731.93	70.6413	2,731.93	77.603	2,731.93	78.3628	2,731.93	75.1808	2,731.93	82.1251	2,731.93	81.3987	2,731.93	82.2418	2,731.93	83.3654	2,731.93	80.856	2,731.93	82.7254	2,731.93	77.8062	2,731.93	80.7042	2,731.93	74.713	2,731.93	76.828	2,731.93	71.9428	2,731.93	70.0311	2,731.93	68.4481	2,731.93	66.8645	2,731.93	67.8664	2,731.93	64.8613	2,731.93	65.2758	2,731.93	65.05	2,731.93	63.342	2,731.93	69.6681	2,731.93	70.8856	2,731.93	70.4893	2,731.93	69.5598	2,731.93	65.5734	2,731.93	51.2317	2,731.93	60.5844	2,731.93	66.3671	2,731.93	72.9871	2,731.93	72.8382
2,828.61	85.7541	2,828.61	83.2333	2,828.61	83.4156	2,828.61	67.4673	2,828.61	75.9317	2,828.61	77.9805	2,828.61	74.3842	2,828.61	81.7389	2,828.61	82.0226	2,828.61	81.5552	2,828.61	84.275	2,828.61	79.2397	2,828.61	83.1054	2,828.61	76.639	2,828.61	79.2361	2,828.61	72.3742	2,828.61	73.5557	2,828.61	66.1339	2,828.61	69.7948	2,828.61	64.8713	2,828.61	73.3129	2,828.61	62.3653	2,828.61	70.8313	2,828.61	64.7109	2,828.61	67.2413	2,828.61	63.7381	2,828.61	68.2711	2,828.61	63.9268	2,828.61	70.8263	2,828.61	69.5821	2,828.61	57.0905	2,828.61	65.2966	2,828.61	58.1012	2,828.61	61.2219	2,828.61	70.5387	2,828.61	70.7059
2,928.22	85.7411	2,928.22	82.7223	2,928.22	83.6316	2,928.22	67.7364	2,928.22	74.2184	2,928.22	77.7	2,928.22	75.6317	2,928.22	81.6309	2,928.22	82.1974	2,928.22	81.7294	2,928.22	84.2808	2,928.22	79.5247	2,928.22	83.5269	2,928.22	75.619	2,928.22	79.1803	2,928.22	72.6332	2,928.22	70.9983	2,928.22	72.0282	2,928.22	70.0032	2,928.22	69.65	2,928.22	73.9628	2,928.22	64.9591	2,928.22	70.9634	2,928.22	63.1562	2,928.22	67.3827	2,928.22	64.4221	2,928.22	68.1836	2,928.22	64.4101	2,928.22	70.8434	2,928.22	65.153	2,928.22	61.8862	2,928.22	62.8504	2,928.22	50.628	2,928.22	59.6244	2,928.22	68.0212	2,928.22	66.9281
3,031.49	85.1937	3,031.49	82.1852	3,031.49	82.8606	3,031.49	67.9956	3,031.49	72.0192	3,031.49	77.8705	3,031.49	77.2618	3,031.49	82.2227	3,031.49	82.5979	3,031.49	81.7004	3,031.49	83.9777	3,031.49	78.0347	3,031.49	83.1098	3,031.49	74.9664	3,031.49	79.2391	3,031.49	72.7337	3,031.49	72.2473	3,031.49	68.106	3,031.49	71.3951	3,031.49	64.3208	3,031.49	72.4004	3,031.49	64.2553	3,031.49	56.4527	3,031.49	61.819	3,031.49	67.1635	3,031.49	60.6516	3,031.49	66.4494	3,031.49	61.8305	3,031.49	68.4899	3,031.49	63.0812	3,031.49	62.2338	3,031.49	59.3248	3,031.49	59.8676	3,031.49	61.4714	3,031.49	67.2891	3,031.49	65.5321
3,138.43	85.6535	3,138.43	82.7119	3,138.43	83.4832	3,138.43	68.4721	3,138.43	71.736	3,138.43	78.8289	3,138.43	78.4991	3,138.43	82.3434	3,138.43	82.9538	3,138.43	80.7338	3,138.43	83.4739	3,138.43	78.0364	3,138.43	82.5996	3,138.43	74.4923	3,138.43	79.4782	3,138.43	69.1295	3,138.43	74.5543	3,138.43	68.5861	3,138.43	74.2958	3,138.43	67.0108	3,138.43	71.3863	3,138.43	65.0394	3,138.43	59.5845	3,138.43	62.9269	3,138.43	63.8703	3,138.43	61.6961	3,138.43	65.5805	3,138.43	60.2985	3,138.43	66.8297	3,138.43	62.5796	3,138.43	62.5861	3,138.43	52.3352	3,138.43	64.1298	3,138.43	65.0767	3,138.43	68.2143	3,138.43	68.1154
3,249.02	85.5892	3,249.02	82.2902	3,249.02	83.5548	3,249.02	61.7872	3,249.02	70.7531	3,249.02	80.0318	3,249.02	79.98	3,249.02	82.2891	3,249.02	83.5243	3,249.02	80.4866	3,249.02	82.469	3,249.02	76.4787	3,249.02	81.328	3,249.02	71.8095	3,249.02	79.3511	3,249.02	71.7008	3,249.02	75.8652	3,249.02	69.3553	3,249.02	75.6285	3,249.02	64.5734	3,249.02	70.4078	3,249.02	62.648	3,249.02	66.1097	3,249.02	60.1508	3,249.02	62.7023	3,249.02	59.7701	3,249.02	63.6622	3,249.02	59.6106	3,249.02	64.5418	3,249.02	59.1838	3,249.02	61.933	3,249.02	55.8755	3,249.02	64.7054	3,249.02	62.5022	3,249.02	67.3813	3,249.02	67.0302
3,363.28	85.9444	3,363.28	81.9238	3,363.28	84.191	3,363.28	66.8977	3,363.28	70.8986	3,363.28	81.5936	3,363.28	80.3267	3,363.28	82.6342	3,363.28	83.7422	3,363.28	80.4193	3,363.28	81.8777	3,363.28	76.3979	3,363.28	80.408	3,363.28	73.9835	3,363.28	78.83	3,363.28	69.582	3,363.28	76.264	3,363.28	67.3093	3,363.28	76.4886	3,363.28	67.3297	3,363.28	68.9711	3,363.28	65.5076	3,363.28	68.5805	3,363.28	63.8012	3,363.28	64.7782	3,363.28	59.3526	3,363.28	65.8189	3,363.28	59.6501	3,363.28	62.1081	3,363.28	57.9582	3,363.28	62.2765	3,363.28	49.942	3,363.28	64.6204	3,363.28	62.3473	3,363.28	65.0721	3,363.28	66.0573
3,481.93	86.1585	3,481.93	81.6649	3,481.93	84.3813	3,481.93	71.7369	3,481.93	69.216	3,481.93	82.5707	3,481.93	81.0532	3,481.93	83.4441	3,481.93	84.039	3,481.93	80.3246	3,481.93	81.0863	3,481.93	76.9789	3,481.93	79.3039	3,481.93	72.3469	3,481.93	79.3571	3,481.93	72.5584	3,481.93	77.6827	3,481.93	71.4777	3,481.93	76.5619	3,481.93	65.9166	3,481.93	65.0894	3,481.93	63.8525	3,481.93	74.6494	3,481.93	61.0975	3,481.93	69.0801	3,481.93	59.2698	3,481.93	67.4952	3,481.93	60.1524	3,481.93	63.6116	3,481.93	59.1219	3,481.93	62.7285	3,481.93	50.587	3,481.93	66.682	3,481.93	65.3684	3,481.93	66.3036	3,481.93	67.9697
3,604.98	86.8426	3,604.98	82.156	3,604.98	85.049	3,604.98	75.0316	3,604.98	70.6894	3,604.98	83.6835	3,604.98	82.8658	3,604.98	83.2574	3,604.98	84.9689	3,604.98	80.717	3,604.98	80.2991	3,604.98	76.38	3,604.98	79.1045	3,604.98	75.3541	3,604.98	79.8289	3,604.98	72.2244	3,604.98	77.2384	3,604.98	65.9921	3,604.98	75.3223	3,604.98	66.4398	3,604.98	67.7962	3,604.98	62.7983	3,604.98	77.3191	3,604.98	61.7784	3,604.98	71.1965	3,604.98	55.9448	3,604.98	70.2846	3,604.98	61.1047	3,604.98	60.0321	3,604.98	56.5212	3,604.98	67.5917	3,604.98	55.1513	3,604.98	66.8328	3,604.98	64.8928	3,604.98	65.9702	3,604.98	69.6082
3,732.42	86.5397	3,732.42	80.7065	3,732.42	84.3885	3,732.42	77.9843	3,732.42	71.4097	3,732.42	84.0785	3,732.42	83.4112	3,732.42	83.3325	3,732.42	84.4205	3,732.42	79.6794	3,732.42	79.364	3,732.42	75.8136	3,732.42	78.4495	3,732.42	71.7434	3,732.42	79.6572	3,732.42	66.8344	3,732.42	77.8097	3,732.42	68.7002	3,732.42	74.3186	3,732.42	63.2347	3,732.42	74.9241	3,732.42	62.9434	3,732.42	79.2071	3,732.42	53.1848	3,732.42	71.7817	3,732.42	53.8119	3,732.42	70.8421	3,732.42	51.6799	3,732.42	61.0158	3,732.42	60.417	3,732.42	66.4063	3,732.42	60.5397	3,732.42	69.2493	3,732.42	66.9333	3,732.42	66.7118	3,732.42	69.4996
3,863.53	87.1093	3,863.53	80.9589	3,863.53	85.3238	3,863.53	79.4275	3,863.53	72.0904	3,863.53	84.1462	3,863.53	83.4869	3,863.53	82.7701	3,863.53	83.3656	3,863.53	78.2041	3,863.53	77.1521	3,863.53	73.6224	3,863.53	78.2424	3,863.53	72.6736	3,863.53	79.215	3,863.53	72.0676	3,863.53	78.4159	3,863.53	65.9871	3,863.53	76.1701	3,863.53	65.3249	3,863.53	76.1997	3,863.53	61.5758	3,863.53	77.9106	3,863.53	56.5688	3,863.53	71.8234	3,863.53	49.788	3,863.53	65.6569	3,863.53	24.2238	3,863.53	60.6395	3,863.53	47.1087	3,863.53	68.7784	3,863.53	47.7299	3,863.53	64.8468	3,863.53	62.4972	3,863.53	64.8561	3,863.53	67.83
3,999.76	87.4123	3,999.76	81.3912	3,999.76	85.2861	3,999.76	81.2289	3,999.76	75.9398	3,999.76	84.3591	3,999.76	84.2408	3,999.76	81.5061	3,999.76	83.2342	3,999.76	76.189	3,999.76	75.3071	3,999.76	72.6116	3,999.76	79.3561	3,999.76	71.0562	3,999.76	80.3827	3,999.76	53.7623	3,999.76	75.7726	3,999.76	66.1112	3,999.76	73.0991	3,999.76	61.4067	3,999.76	76.5366	3,999.76	62.3933	3,999.76	75.6619	3,999.76	60.9588	3,999.76	73.3667	3,999.76	59.7781	3,999.76	69.1875	3,999.76	58.3037	3,999.76	61.9314	3,999.76	55.1959	3,999.76	68.9567	3,999.76	61.1079	3,999.76	68.0285	3,999.76	61.539	3,999.76	63.9639	3,999.76	66.6035
4,141.11	87.3849	4,141.11	81.2502	4,141.11	84.9604	4,141.11	82.2475	4,141.11	76.7473	4,141.11	84.442	4,141.11	84.6024	4,141.11	80.841	4,141.11	82.8745	4,141.11	75.8653	4,141.11	73.2258	4,141.11	73.3094	4,141.11	79.4497	4,141.11	65.5018	4,141.11	80.893	4,141.11	71.5601	4,141.11	73.5168	4,141.11	64.7852	4,141.11	75.3749	4,141.11	62.0912	4,141.11	73.9878	4,141.11	62.9359	4,141.11	77.5091	4,141.11	62.6791	4,141.11	75.2958	4,141.11	61.5487	4,141.11	70.6665	4,141.11	59.9493	4,141.11	60.8673	4,141.11	56.6802	4,141.11	65.8649	4,141.11	64.4068	4,141.11	64.8534	4,141.11	66.4402	4,141.11	65.7305	4,141.11	67.6381
4,286.87	87.9794	4,286.87	81.8479	4,286.87	85.648	4,286.87	83.2079	4,286.87	76.7513	4,286.87	84.4627	4,286.87	84.0459	4,286.87	80.1116	4,286.87	81.9184	4,286.87	75.6881	4,286.87	74.1656	4,286.87	71.1605	4,286.87	79.2904	4,286.87	70.895	4,286.87	78.0401	4,286.87	62.8939	4,286.87	73.5122	4,286.87	70.3704	4,286.87	77.3652	4,286.87	67.4458	4,286.87	70.2476	4,286.87	64.6975	4,286.87	77.0468	4,286.87	65.4519	4,286.87	74.5574	4,286.87	62.3729	4,286.87	69.2084	4,286.87	62.3181	4,286.87	60.2733	4,286.87	60.3893	4,286.87	58.6022	4,286.87	61.0208	4,286.87	67.021	4,286.87	63.7623	4,286.87	65.5593	4,286.87	64.2765
4,438.48	88.1137	4,438.48	81.84	4,438.48	86.0515	4,438.48	84.5684	4,438.48	80.0627	4,438.48	83.9303	4,438.48	84.5499	4,438.48	79.8022	4,438.48	80.7454	4,438.48	75.7024	4,438.48	72.0342	4,438.48	72.6767	4,438.48	77.3381	4,438.48	70.0851	4,438.48	75.9921	4,438.48	72.6412	4,438.48	74.5984	4,438.48	64.1861	4,438.48	76.3711	4,438.48	62.7036	4,438.48	66.1127	4,438.48	64.7838	4,438.48	75.9646	4,438.48	63.0515	4,438.48	72.1076	4,438.48	62.6999	4,438.48	68.7815	4,438.48	60.8416	4,438.48	61.2788	4,438.48	60.8857	4,438.48	59.0952	4,438.48	65.0333	4,438.48	64.8717	4,438.48	64.3809	4,438.48	67.6109	4,438.48	67.0599
4,594.48	88.3872	4,594.48	82.7479	4,594.48	86.0644	4,594.48	84.4964	4,594.48	80.5309	4,594.48	83.9116	4,594.48	85.4298	4,594.48	79.7996	4,594.48	81.3211	4,594.48	75.6012	4,594.48	70.6484	4,594.48	73.6374	4,594.48	75.8722	4,594.48	71.6012	4,594.48	75.4864	4,594.48	62.8424	4,594.48	76.6535	4,594.48	68.5051	4,594.48	75.6055	4,594.48	63.4362	4,594.48	69.396	4,594.48	63.2943	4,594.48	73.6417	4,594.48	65.117	4,594.48	69.2516	4,594.48	63.144	4,594.48	67.9573	4,594.48	63.8999	4,594.48	62.4141	4,594.48	59.4733	4,594.48	62.8396	4,594.48	64.2414	4,594.48	62.6877	4,594.48	63.9032	4,594.48	65.141	4,594.48	63.6138
4,757.08	88.3873	4,757.08	82.9076	4,757.08	86.2592	4,757.08	84.9844	4,757.08	81.3827	4,757.08	83.8892	4,757.08	85.072	4,757.08	79.7846	4,757.08	81.1801	4,757.08	75.3046	4,757.08	74.2164	4,757.08	73.1683	4,757.08	77.1455	4,757.08	70.2331	4,757.08	75.9885	4,757.08	69.1174	4,757.08	75.8003	4,757.08	59.4273	4,757.08	73.2964	4,757.08	63.3151	4,757.08	68.6099	4,757.08	61.4103	4,757.08	71.5045	4,757.08	58.4614	4,757.08	68.8646	4,757.08	58.8557	4,757.08	65.6297	4,757.08	61.4453	4,757.08	62.1966	4,757.08	60.3886	4,757.08	60.585	4,757.08	64.8086	4,757.08	63.4494	4,757.08	64.2419	4,757.08	64.2346	4,757.08	62.4805
4,924.8	88.5639	4,924.8	82.5276	4,924.8	86.1093	4,924.8	85.66	4,924.8	82.3661	4,924.8	84.1786	4,924.8	85.7024	4,924.8	79.4129	4,924.8	80.7204	4,924.8	75.8211	4,924.8	75.3379	4,924.8	72.8169	4,924.8	77.5831	4,924.8	71.0315	4,924.8	75.4799	4,924.8	67.5253	4,924.8	72.8792	4,924.8	66.5902	4,924.8	68.8898	4,924.8	61.2945	4,924.8	61.1115	4,924.8	64.6017	4,924.8	69.5522	4,924.8	63.5812	4,924.8	66.5555	4,924.8	63.4531	4,924.8	64.2751	4,924.8	63.4158	4,924.8	54.586	4,924.8	62.2068	4,924.8	62.3175	4,924.8	65.2326	4,924.8	59.9512	4,924.8	64.2467	4,924.8	65.8307	4,924.8	60.7347
5,098.39	88.3239	5,098.39	81.7888	5,098.39	86.36	5,098.39	86.0919	5,098.39	81.9736	5,098.39	83.5019	5,098.39	85.8544	5,098.39	80.0233	5,098.39	80.906	5,098.39	75.6575	5,098.39	76.2635	5,098.39	73.8123	5,098.39	77.5378	5,098.39	72.876	5,098.39	71.9742	5,098.39	67.7616	5,098.39	70.8835	5,098.39	65.0998	5,098.39	66.6812	5,098.39	61.247	5,098.39	62.4994	5,098.39	59.5119	5,098.39	69.6451	5,098.39	59.2326	5,098.39	63.4481	5,098.39	61.2366	5,098.39	61.1563	5,098.39	63.7544	5,098.39	51.2662	5,098.39	61.681	5,098.39	61.5374	5,098.39	64.5302	5,098.39	60.5128	5,098.39	63.6992	5,098.39	65.8637	5,098.39	60.0563
5,277.83	87.1834	5,277.83	81.6549	5,277.83	86.5793	5,277.83	86.3773	5,277.83	82.141	5,277.83	83.1465	5,277.83	85.4565	5,277.83	79.4191	5,277.83	81.1476	5,277.83	76.0718	5,277.83	74.9441	5,277.83	74.6595	5,277.83	75.0867	5,277.83	72.3555	5,277.83	69.1827	5,277.83	67.3312	5,277.83	67.8105	5,277.83	62.9486	5,277.83	64.7005	5,277.83	57.4576	5,277.83	63.5234	5,277.83	59.8311	5,277.83	69.2947	5,277.83	56.3312	5,277.83	60.066	5,277.83	59.4049	5,277.83	56.2056	5,277.83	59.0094	5,277.83	58.0183	5,277.83	62.083	5,277.83	64.2299	5,277.83	62.5527	5,277.83	49.2545	5,277.83	63.9937	5,277.83	65.3582	5,277.83	61.0754
5,463.87	86.7084	5,463.87	82.87	5,463.87	86.4066	5,463.87	85.9626	5,463.87	82.8499	5,463.87	82.2162	5,463.87	85.1115	5,463.87	79.361	5,463.87	81.3635	5,463.87	76.2907	5,463.87	75.072	5,463.87	72.9595	5,463.87	72.8413	5,463.87	68.9289	5,463.87	67.3472	5,463.87	62.0178	5,463.87	67.0919	5,463.87	56.8784	5,463.87	60.94	5,463.87	43.8513	5,463.87	68.5447	5,463.87	51.0101	5,463.87	69.3252	5,463.87	50.0121	5,463.87	52.379	5,463.87	53.7588	5,463.87	58.0829	5,463.87	56.065	5,463.87	55.9961	5,463.87	61.9374	5,463.87	63.489	5,463.87	61.5886	5,463.87	53.2973	5,463.87	64.3591	5,463.87	63.0874	5,463.87	59.67
5,656.49	85.4149	5,656.49	83.3746	5,656.49	85.8497	5,656.49	85.7733	5,656.49	83.8285	5,656.49	81.9655	5,656.49	84.8156	5,656.49	79.8512	5,656.49	81.5382	5,656.49	75.5534	5,656.49	76.1317	5,656.49	69.9521	5,656.49	69.4382	5,656.49	65.0835	5,656.49	63.1066	5,656.49	41.3604	5,656.49	64.7302	5,656.49	58.2322	5,656.49	61.8835	5,656.49	57.4984	5,656.49	68.4128	5,656.49	58.5427	5,656.49	68.9451	5,656.49	55.8326	5,656.49	55.2817	5,656.49	56.7942	5,656.49	53.8829	5,656.49	54.2389	5,656.49	54.2003	5,656.49	60.9575	5,656.49	62.6597	5,656.49	62.7385	5,656.49	53.5798	5,656.49	65.3148	5,656.49	62.3595	5,656.49	61.7016
5,856.45	85.5495	5,856.45	83.9184	5,856.45	85.4843	5,856.45	84.8757	5,856.45	84.4015	5,856.45	82.0345	5,856.45	84.4827	5,856.45	79.8846	5,856.45	80.6758	5,856.45	74.8977	5,856.45	76.4445	5,856.45	68.1798	5,856.45	67.8328	5,856.45	65.8097	5,856.45	54.5554	5,856.45	59.0926	5,856.45	65.8592	5,856.45	63.1892	5,856.45	58.4756	5,856.45	58.5003	5,856.45	64.6643	5,856.45	58.7717	5,856.45	65.7033	5,856.45	61.0547	5,856.45	58.2456	5,856.45	60.9057	5,856.45	53.5836	5,856.45	59.502	5,856.45	48.9035	5,856.45	63.2031	5,856.45	61.6061	5,856.45	64.7597	5,856.45	55.1811	5,856.45	65.6312	5,856.45	58.539	5,856.45	55.753
6,062.99	86.1832	6,062.99	83.7254	6,062.99	85.7477	6,062.99	84.9419	6,062.99	84.305	6,062.99	81.9926	6,062.99	83.8781	6,062.99	79.1977	6,062.99	79.6154	6,062.99	75.0499	6,062.99	75.5898	6,062.99	68.2249	6,062.99	64.3094	6,062.99	67.1511	6,062.99	56.3217	6,062.99	60.2826	6,062.99	63.5923	6,062.99	62.7211	6,062.99	59.9015	6,062.99	61.4557	6,062.99	64.5307	6,062.99	56.4692	6,062.99	68.2619	6,062.99	55.036	6,062.99	58.6375	6,062.99	57.6833	6,062.99	56.1875	6,062.99	54.4347	6,062.99	53.4118	6,062.99	61.4863	6,062.99	62.5082	6,062.99	64.5002	6,062.99	58.2954	6,062.99	65.0474	6,062.99	56.6721	6,062.99	58.8169
6,276.86	86.6769	6,276.86	84.2326	6,276.86	86.2099	6,276.86	84.7543	6,276.86	84.1192	6,276.86	81.0458	6,276.86	83.2707	6,276.86	78.7467	6,276.86	77.9107	6,276.86	74.3664	6,276.86	72.9619	6,276.86	67.7019	6,276.86	64.4876	6,276.86	67.373	6,276.86	62.4366	6,276.86	59.1186	6,276.86	65.235	6,276.86	61.1928	6,276.86	54.7641	6,276.86	55.3115	6,276.86	65.022	6,276.86	61.0413	6,276.86	68.0319	6,276.86	61.1399	6,276.86	56.1986	6,276.86	59.5612	6,276.86	59.009	6,276.86	58.4091	6,276.86	56.7097	6,276.86	62.4648	6,276.86	61.6764	6,276.86	63.8123	6,276.86	54.7191	6,276.86	66.9625	6,276.86	58.1771	6,276.86	61.3405
6,498.05	87.2246	6,498.05	84.7885	6,498.05	86.8642	6,498.05	84.748	6,498.05	84.1204	6,498.05	79.9753	6,498.05	81.8731	6,498.05	77.8783	6,498.05	76.4959	6,498.05	72.5871	6,498.05	72.3573	6,498.05	65.1098	6,498.05	67.6782	6,498.05	65.684	6,498.05	64.1192	6,498.05	59.5975	6,498.05	65.3917	6,498.05	63.0534	6,498.05	57.3753	6,498.05	61.0207	6,498.05	66.1484	6,498.05	57.0913	6,498.05	65.1539	6,498.05	53.7926	6,498.05	60.2547	6,498.05	58.1198	6,498.05	59.634	6,498.05	53.1579	6,498.05	56.7707	6,498.05	59.9012	6,498.05	61.8715	6,498.05	64.3982	6,498.05	58.4257	6,498.05	65.5832	6,498.05	57.7351	6,498.05	60.6295
6,727.29	87.6136	6,727.29	85.5526	6,727.29	87.2631	6,727.29	84.4814	6,727.29	83.4988	6,727.29	78.0154	6,727.29	80.868	6,727.29	76.7044	6,727.29	76.2085	6,727.29	69.1116	6,727.29	73.49	6,727.29	57.7596	6,727.29	69.3365	6,727.29	65.7185	6,727.29	64.0819	6,727.29	60.5575	6,727.29	63.9769	6,727.29	61.2957	6,727.29	61.0232	6,727.29	54.6275	6,727.29	66.5412	6,727.29	55.5365	6,727.29	63.9532	6,727.29	55.1546	6,727.29	62.124	6,727.29	54.132	6,727.29	58.8292	6,727.29	56.4184	6,727.29	54.5005	6,727.29	60.6868	6,727.29	62.5876	6,727.29	63.1551	6,727.29	57.0105	6,727.29	65.6002	6,727.29	57.1572	6,727.29	60.4416
6,964.6	87.3208	6,964.6	86.1297	6,964.6	86.8085	6,964.6	84.1673	6,964.6	83.0117	6,964.6	77.6455	6,964.6	80.3704	6,964.6	75.3705	6,964.6	76.5356	6,964.6	64.9289	6,964.6	74.1371	6,964.6	55.6177	6,964.6	68.2229	6,964.6	65.766	6,964.6	60.2254	6,964.6	54.0865	6,964.6	56.1584	6,964.6	58.8759	6,964.6	61.5175	6,964.6	57.6895	6,964.6	67.6994	6,964.6	52.099	6,964.6	62.4076	6,964.6	52.3835	6,964.6	62.41	6,964.6	52.499	6,964.6	58.7642	6,964.6	48.9169	6,964.6	52.8181	6,964.6	57.1963	6,964.6	62.3583	6,964.6	60.9621	6,964.6	55.3868	6,964.6	63.3132	6,964.6	55.0506	6,964.6	61.7231
7,209.96	86.4862	7,209.96	85.9709	7,209.96	86.5685	7,209.96	83.3056	7,209.96	83.1887	7,209.96	78.9121	7,209.96	80.301	7,209.96	72.8917	7,209.96	76.5359	7,209.96	66.9896	7,209.96	72.2066	7,209.96	61.9809	7,209.96	64.1687	7,209.96	61.4349	7,209.96	65.4066	7,209.96	59.7352	7,209.96	64.6583	7,209.96	26.0109	7,209.96	64.8508	7,209.96	44.6036	7,209.96	67.6092	7,209.96	48.5471	7,209.96	60.5733	7,209.96	47.8746	7,209.96	62.821	7,209.96	47.4517	7,209.96	56.2798	7,209.96	49.7701	7,209.96	46.1126	7,209.96	55.2405	7,209.96	59.7485	7,209.96	55.944	7,209.96	55.7871	7,209.96	61.4281	7,209.96	58.0081	7,209.96	61.4308
7,464.11	85.4253	7,464.11	85.2831	7,464.11	85.5171	7,464.11	82.1929	7,464.11	83.3504	7,464.11	79.0776	7,464.11	80.4929	7,464.11	71.2	7,464.11	76.0563	7,464.11	68.1063	7,464.11	69.8447	7,464.11	59.8228	7,464.11	58.7583	7,464.11	26.3481	7,464.11	67.495	7,464.11	61.2827	7,464.11	66.4349	7,464.11	53.901	7,464.11	61.6367	7,464.11	50.4357	7,464.11	65.1785	7,464.11	53.5635	7,464.11	55.9511	7,464.11	49.8824	7,464.11	58.4208	7,464.11	52.4369	7,464.11	54.6035	7,464.11	46.7906	7,464.11	27.704	7,464.11	53.3102	7,464.11	56.2664	7,464.11	52.193	7,464.11	51.8152	7,464.11	58.7634	7,464.11	53.1826	7,464.11	59.5587
7,727.78	85.0357	7,727.78	84.5309	7,727.78	84.8884	7,727.78	81.8385	7,727.78	83.1458	7,727.78	78.9957	7,727.78	79.986	7,727.78	72.6296	7,727.78	74.6918	7,727.78	67.2487	7,727.78	66.0936	7,727.78	61.9341	7,727.78	58.7442	7,727.78	60.2914	7,727.78	68.5582	7,727.78	63.6019	7,727.78	68.3809	7,727.78	60.3868	7,727.78	61.0721	7,727.78	57.0338	7,727.78	63.9481	7,727.78	52.109	7,727.78	54.4879	7,727.78	54.7041	7,727.78	51.7182	7,727.78	54.8309	7,727.78	54.1118	7,727.78	54.4529	7,727.78	46.26	7,727.78	48.1525	7,727.78	57.9254	7,727.78	49.9009	7,727.78	53.2293	7,727.78	55.7945	7,727.78	54.7913	7,727.78	59.0061
8,000.24	85.4331	8,000.24	84.6533	8,000.24	84.8597	8,000.24	81.7312	8,000.24	82.1961	8,000.24	78.617	8,000.24	78.5932	8,000.24	73.1309	8,000.24	73.5708	8,000.24	65.1609	8,000.24	56.5797	8,000.24	64.1339	8,000.24	62.3447	8,000.24	62.4234	8,000.24	67.9038	8,000.24	62.0968	8,000.24	66.254	8,000.24	57.3527	8,000.24	59.8865	8,000.24	54.7427	8,000.24	61.6771	8,000.24	52.5178	8,000.24	46.0915	8,000.24	53.5841	8,000.24	50.0524	8,000.24	56.1988	8,000.24	49.8964	8,000.24	52.1318	8,000.24	45.6863	8,000.24	51.87	8,000.24	55.6272	8,000.24	44.7432	8,000.24	46.2501	8,000.24	55.8798	8,000.24	51.7684	8,000.24	57.9612
8,282.23	85.7794	8,282.23	84.9888	8,282.23	84.8249	8,282.23	81.3703	8,282.23	81.4085	8,282.23	78.4228	8,282.23	76.962	8,282.23	72.6584	8,282.23	71.7972	8,282.23	63.0577	8,282.23	59.2296	8,282.23	66.4461	8,282.23	62.6453	8,282.23	64.2923	8,282.23	66.4945	8,282.23	62.9878	8,282.23	59.9891	8,282.23	60.2533	8,282.23	57.158	8,282.23	58.3146	8,282.23	58.1936	8,282.23	57.2391	8,282.23	53.6359	8,282.23	54.2347	8,282.23	55.4068	8,282.23	56.3871	8,282.23	45.2846	8,282.23	53.2837	8,282.23	46.4398	8,282.23	55.0717	8,282.23	57.4487	8,282.23	48.6819	8,282.23	43.0486	8,282.23	55.897	8,282.23	50.9571	8,282.23	59.0205
8,574.46	86.235	8,574.46	85.2668	8,574.46	84.8628	8,574.46	81.4299	8,574.46	81.232	8,574.46	78.4093	8,574.46	76.707	8,574.46	71.5752	8,574.46	72.3527	8,574.46	61.3528	8,574.46	65.1919	8,574.46	66.5227	8,574.46	61.7691	8,574.46	66.1601	8,574.46	60.4349	8,574.46	62.9244	8,574.46	58.6923	8,574.46	61.8417	8,574.46	56.3859	8,574.46	57.5236	8,574.46	55.2711	8,574.46	56.2556	8,574.46	49.7677	8,574.46	51.7318	8,574.46	53.645	8,574.46	55.9561	8,574.46	41.1178	8,574.46	53.3799	8,574.46	48.4907	8,574.46	55.5951	8,574.46	55.5569	8,574.46	50.1836	8,574.46	45.6006	8,574.46	54.8389	8,574.46	49.4637	8,574.46	59.6732
8,876.22	86.2746	8,876.22	85.3485	8,876.22	85.2586	8,876.22	82.3695	8,876.22	82.7769	8,876.22	78.248	8,876.22	78.4145	8,876.22	70.3405	8,876.22	73.2159	8,876.22	62.0645	8,876.22	67.096	8,876.22	63.2999	8,876.22	65.2618	8,876.22	66.2466	8,876.22	61.8547	8,876.22	60.9371	8,876.22	62.5369	8,876.22	58.1492	8,876.22	59.9775	8,876.22	55.8745	8,876.22	53.4509	8,876.22	53.1308	8,876.22	54.7355	8,876.22	52.8875	8,876.22	49.4483	8,876.22	52.087	8,876.22	48.7877	8,876.22	52.549	8,876.22	51.9281	8,876.22	53.7844	8,876.22	51.551	8,876.22	39.5024	8,876.22	53.6684	8,876.22	51.1342	8,876.22	50.2807	8,876.22	57.5615
9,189.7	86.1768	9,189.7	85.2927	9,189.7	85.5108	9,189.7	82.5505	9,189.7	83.7452	9,189.7	78.4639	9,189.7	79.914	9,189.7	67.5496	9,189.7	73.2036	9,189.7	63.44	9,189.7	66.7729	9,189.7	64.5818	9,189.7	65.7879	9,189.7	65.5586	9,189.7	66.4602	9,189.7	63.278	9,189.7	64.836	9,189.7	57.8916	9,189.7	60.2422	9,189.7	57.2277	9,189.7	56.0866	9,189.7	50.0809	9,189.7	59.9007	9,189.7	52.1945	9,189.7	41.8843	9,189.7	48.2326	9,189.7	48.7714	9,189.7	51.7588	9,189.7	50.9225	9,189.7	53.8502	9,189.7	48.1515	9,189.7	41.1306	9,189.7	49.4539	9,189.7	47.2787	9,189.7	41.9517	9,189.7	55.5349
9,513.43	86.1942	9,513.43	85.3106	9,513.43	85.4553	9,513.43	82.3882	9,513.43	83.9342	9,513.43	77.7942	9,513.43	79.844	9,513.43	63.0443	9,513.43	71.5628	9,513.43	66.5502	9,513.43	67.595	9,513.43	66.7469	9,513.43	68.0066	9,513.43	67.2519	9,513.43	68.8507	9,513.43	63.5695	9,513.43	65.9613	9,513.43	59.5332	9,513.43	61.8092	9,513.43	57.0385	9,513.43	52.3021	9,513.43	50.1969	9,513.43	58.299	9,513.43	48.7268	9,513.43	47.4698	9,513.43	49.1982	9,513.43	46.2686	9,513.43	48.3515	9,513.43	48.0125	9,513.43	52.708	9,513.43	47.9021	9,513.43	44.5406	9,513.43	51.6639	9,513.43	50.1621	9,513.43	45.9408	9,513.43	50.1197
9,848.88	86.2534	9,848.88	85.4183	9,848.88	85.1645	9,848.88	82.5738	9,848.88	83.5183	9,848.88	76.8127	9,848.88	78.9607	9,848.88	65.9542	9,848.88	68.8758	9,848.88	68.2884	9,848.88	66.1144	9,848.88	66.0829	9,848.88	67.518	9,848.88	66.0976	9,848.88	67.178	9,848.88	61.5082	9,848.88	64.3952	9,848.88	56.095	9,848.88	58.427	9,848.88	56.0093	9,848.88	47.4482	9,848.88	51.399	9,848.88	57.9536	9,848.88	48.1848	9,848.88	47.4551	9,848.88	50.0278	9,848.88	49.031	9,848.88	46.0095	9,848.88	52.9244	9,848.88	51.5598	9,848.88	41.6072	9,848.88	46.1455	9,848.88	49.2565	9,848.88	52.5371	9,848.88	42.2307	9,848.88	48.5401
10,196.8	86.4706	10,196.8	85.6157	10,196.8	85.2777	10,196.8	82.1937	10,196.8	83.1718	10,196.8	75.4787	10,196.8	77.7522	10,196.8	64.0454	10,196.8	65.0957	10,196.8	67.2911	10,196.8	63.6297	10,196.8	65.871	10,196.8	67.0051	10,196.8	64.0164	10,196.8	66.3551	10,196.8	59.7351	10,196.8	61.87	10,196.8	53.9182	10,196.8	56.1685	10,196.8	51.9675	10,196.8	45.4845	10,196.8	49.7052	10,196.8	60.5094	10,196.8	49.1987	10,196.8	48.7032	10,196.8	46.8914	10,196.8	54.2392	10,196.8	45.7434	10,196.8	55.5278	10,196.8	51.0423	10,196.8	40.7937	10,196.8	43.5613	10,196.8	49.8362	10,196.8	50.3239	10,196.8	47.1613	10,196.8	45.5512
10,556.4	86.6163	10,556.4	85.2877	10,556.4	85.2555	10,556.4	81.3954	10,556.4	82.76	10,556.4	73.5751	10,556.4	76.3732	10,556.4	63.7497	10,556.4	62.8632	10,556.4	67.3423	10,556.4	63.4792	10,556.4	64.7574	10,556.4	66.8928	10,556.4	61.9112	10,556.4	65.0649	10,556.4	55.7374	10,556.4	60.4025	10,556.4	53.1875	10,556.4	54.9773	10,556.4	48.6386	10,556.4	50.5751	10,556.4	42.7358	10,556.4	62.1707	10,556.4	48.9211	10,556.4	55.3359	10,556.4	46.0492	10,556.4	54.8329	10,556.4	48.1711	10,556.4	54.399	10,556.4	48.2673	10,556.4	44.4558	10,556.4	46.6234	10,556.4	50.2729	10,556.4	51.0869	10,556.4	51.6628	10,556.4	48.1679
10,928.5	86.2157	10,928.5	84.2647	10,928.5	84.8989	10,928.5	80.662	10,928.5	82.1081	10,928.5	72.3876	10,928.5	75.3091	10,928.5	64.7821	10,928.5	64.1973	10,928.5	66.5898	10,928.5	60.0488	10,928.5	65.2216	10,928.5	64.8761	10,928.5	61.4389	10,928.5	63.7097	10,928.5	59.8777	10,928.5	57.3689	10,928.5	57.6981	10,928.5	53.7148	10,928.5	52.8695	10,928.5	53.5438	10,928.5	48.2937	10,928.5	63.5792	10,928.5	47.9059	10,928.5	58.4125	10,928.5	52.3315	10,928.5	54.845	10,928.5	48.8621	10,928.5	55.7823	10,928.5	45.3615	10,928.5	47.426	10,928.5	50.3324	10,928.5	48.3614	10,928.5	51.3705	10,928.5	51.6698	10,928.5	46.9613
11,313.7	85.6314	11,313.7	83.7052	11,313.7	84.6948	11,313.7	80.3567	11,313.7	81.206	11,313.7	72.4963	11,313.7	74.4274	11,313.7	63.3257	11,313.7	62.4921	11,313.7	63.4218	11,313.7	62.3334	11,313.7	66.6474	11,313.7	62.9623	11,313.7	65.024	11,313.7	59.7159	11,313.7	60.909	11,313.7	55.9124	11,313.7	58.0177	11,313.7	60.643	11,313.7	55.9626	11,313.7	53.4517	11,313.7	47.9607	11,313.7	65.9492	11,313.7	49.9188	11,313.7	57.9151	11,313.7	51.9562	11,313.7	52.3964	11,313.7	48.4493	11,313.7	53.5683	11,313.7	46.6753	11,313.7	35.5965	11,313.7	51.3552	11,313.7	40.7178	11,313.7	47.518	11,313.7	51.0366	11,313.7	49.7789
11,712.9	84.4674	11,712.9	83.2576	11,712.9	84.1514	11,712.9	79.6676	11,712.9	80.5603	11,712.9	71.5332	11,712.9	73.2281	11,712.9	62.0135	11,712.9	57.4539	11,712.9	63.0493	11,712.9	68.142	11,712.9	66.9365	11,712.9	66.0029	11,712.9	66.0923	11,712.9	65.0143	11,712.9	61.7042	11,712.9	56.3197	11,712.9	56.6266	11,712.9	62.6005	11,712.9	55.5182	11,712.9	53.8209	11,712.9	45.1689	11,712.9	68.4297	11,712.9	48.985	11,712.9	57.1695	11,712.9	47.8543	11,712.9	53.0747	11,712.9	49.2225	11,712.9	53.4237	11,712.9	46.9745	11,712.9	50.8318	11,712.9	48.2515	11,712.9	47.243	11,712.9	48.2915	11,712.9	47.2757	11,712.9	50.2196
12,126	84.3824	12,126	83.2917	12,126	83.5986	12,126	78.5134	12,126	79.5634	12,126	71.2157	12,126	71.4451	12,126	56.0554	12,126	60.3941	12,126	64.1141	12,126	68.6575	12,126	68.1438	12,126	68.0679	12,126	66.171	12,126	66.9153	12,126	60.4647	12,126	56.1635	12,126	54.7939	12,126	59.7936	12,126	53.9895	12,126	52.9062	12,126	47.2368	12,126	68.667	12,126	45.8276	12,126	55.2324	12,126	48.3013	12,126	53.5323	12,126	48.8028	12,126	51.5947	12,126	44.8776	12,126	50.268	12,126	45.2824	12,126	48.7774	12,126	48.2129	12,126	49.7835	12,126	47.3171
12,553.7	84.8036	12,553.7	83.0172	12,553.7	83.4314	12,553.7	77.3709	12,553.7	78.7604	12,553.7	69.6848	12,553.7	70.5101	12,553.7	55.686	12,553.7	62.6429	12,553.7	66.3685	12,553.7	69.0386	12,553.7	68.1951	12,553.7	68.5508	12,553.7	64.8681	12,553.7	66.4022	12,553.7	60.0948	12,553.7	45.546	12,553.7	53.1836	12,553.7	57.4678	12,553.7	51.3452	12,553.7	52.3676	12,553.7	45.4742	12,553.7	67.6835	12,553.7	46.0217	12,553.7	56.631	12,553.7	43.126	12,553.7	49.1258	12,553.7	47.3179	12,553.7	47.3835	12,553.7	42.4374	12,553.7	51.1789	12,553.7	40.2729	12,553.7	48.706	12,553.7	41.6156	12,553.7	48.5579	12,553.7	48.8012
12,996.1	84.8357	12,996.1	82.5877	12,996.1	83.3796	12,996.1	77.1656	12,996.1	78.2312	12,996.1	67.821	12,996.1	68.9226	12,996.1	61.6847	12,996.1	61.7226	12,996.1	67.3242	12,996.1	68.9315	12,996.1	67.6766	12,996.1	68.5453	12,996.1	63.7815	12,996.1	62.7778	12,996.1	57.8548	12,996.1	53.7876	12,996.1	52.6414	12,996.1	50.1289	12,996.1	50.1649	12,996.1	51.2183	12,996.1	39.107	12,996.1	66.3634	12,996.1	45.0695	12,996.1	56.7201	12,996.1	38.326	12,996.1	42.2107	12,996.1	46.7404	12,996.1	45.2959	12,996.1	45.299	12,996.1	51.8064	12,996.1	39.0171	12,996.1	49.5356	12,996.1	26.2572	12,996.1	49.9214	12,996.1	50.3633
13,454.6	84.5415	13,454.6	82.3578	13,454.6	83.3281	13,454.6	76.7487	13,454.6	77.98	13,454.6	64.7514	13,454.6	65.7855	13,454.6	64.0311	13,454.6	62.3943	13,454.6	67.7972	13,454.6	68.5684	13,454.6	65.9491	13,454.6	67.2477	13,454.6	61.857	13,454.6	59.0883	13,454.6	56.4499	13,454.6	55.1203	13,454.6	50.4669	13,454.6	42.8188	13,454.6	47.4717	13,454.6	52.8281	13,454.6	40.4518	13,454.6	67.6336	13,454.6	39.9935	13,454.6	54.1482	13,454.6	42.3635	13,454.6	51.9033	13,454.6	43.2336	13,454.6	53.9311	13,454.6	40.9289	13,454.6	52.709	13,454.6	33.1257	13,454.6	51.2562	13,454.6	44.0731	13,454.6	49.7899	13,454.6	44.5336
13,928.5	84.0396	13,928.5	82.1078	13,928.5	82.6305	13,928.5	75.8952	13,928.5	77.4526	13,928.5	59.3009	13,928.5	60.8621	13,928.5	66.0423	13,928.5	66.0945	13,928.5	67.4713	13,928.5	68.3948	13,928.5	64.0793	13,928.5	65.5818	13,928.5	59.1659	13,928.5	58.9558	13,928.5	53.2962	13,928.5	49.5262	13,928.5	46.2893	13,928.5	47.6423	13,928.5	41.2543	13,928.5	54.9144	13,928.5	33.0842	13,928.5	67.5195	13,928.5	27.4638	13,928.5	54.7487	13,928.5	42.6392	13,928.5	54.817	13,928.5	19.8967	13,928.5	56.2854	13,928.5	41.5044	13,928.5	50.8688	13,928.5	32.2196	13,928.5	50.1895	13,928.5	45.1206	13,928.5	47.0008	13,928.5	43.7042
14,419.9	84.043	14,419.9	81.885	14,419.9	82.022	14,419.9	75.4028	14,419.9	76.4074	14,419.9	52.0691	14,419.9	56.6578	14,419.9	67.5517	14,419.9	67.4172	14,419.9	66.5167	14,419.9	67.9778	14,419.9	63.3939	14,419.9	64.5655	14,419.9	55.6	14,419.9	56.239	14,419.9	48.1608	14,419.9	44.6182	14,419.9	41.5088	14,419.9	44.4172	14,419.9	13.0444	14,419.9	52.297	14,419.9	26.1783	14,419.9	65.658	14,419.9	25.4246	14,419.9	56.0587	14,419.9	38.2426	14,419.9	51.3406	14,419.9	38.9346	14,419.9	52.7567	14,419.9	43.1547	14,419.9	46.5146	14,419.9	40.4323	14,419.9	43.4349	14,419.9	46.0105	14,419.9	49.0221	14,419.9	17.1045
14,928.2	84.3272	14,928.2	81.7467	14,928.2	82.3122	14,928.2	74.6513	14,928.2	75.6148	14,928.2	54.7298	14,928.2	49.0848	14,928.2	68.2685	14,928.2	67.9717	14,928.2	65.3378	14,928.2	67.6291	14,928.2	61.1599	14,928.2	61.7962	14,928.2	52.1597	14,928.2	47.3	14,928.2	46.6458	14,928.2	44.7239	14,928.2	43.0302	14,928.2	37.7745	14,928.2	31.4555	14,928.2	53.9874	14,928.2	33.4265	14,928.2	65.6492	14,928.2	26.0546	14,928.2	54.4715	14,928.2	34.4575	14,928.2	43.5978	14,928.2	42.6456	14,928.2	42.0127	14,928.2	42.5228	14,928.2	42.5352	14,928.2	44.1368	14,928.2	34.4498	14,928.2	47.7029	14,928.2	46.6421	14,928.2	38.7606
15,454.8	84.2897	15,454.8	81.7787	15,454.8	82.3231	15,454.8	73.8987	15,454.8	75.0761	15,454.8	59.8088	15,454.8	57.5159	15,454.8	68.6145	15,454.8	68.4359	15,454.8	64.734	15,454.8	66.4967	15,454.8	57.4887	15,454.8	58.1546	15,454.8	51.9938	15,454.8	44.1806	15,454.8	49.7471	15,454.8	47.9029	15,454.8	47.9018	15,454.8	40.0872	15,454.8	38.9233	15,454.8	54.6927	15,454.8	39.1025	15,454.8	66.4406	15,454.8	17.3875	15,454.8	54.227	15,454.8	37.2941	15,454.8	46.1254	15,454.8	44.8482	15,454.8	40.8265	15,454.8	43.6799	15,454.8	41.9582	15,454.8	45.3682	15,454.8	26.7304	15,454.8	49.4707	15,454.8	45.3731	15,454.8	46.8034
15,999.8	83.9311	15,999.8	81.469	15,999.8	81.8931	15,999.8	72.8046	15,999.8	74.105	15,999.8	63.3572	15,999.8	62.9272	15,999.8	68.5007	15,999.8	68.9749	15,999.8	63.1898	15,999.8	64.5693	15,999.8	53.0903	15,999.8	52.0061	15,999.8	55.3256	15,999.8	52.8372	15,999.8	52.7437	15,999.8	51.5163	15,999.8	49.4848	15,999.8	47.4108	15,999.8	39.2062	15,999.8	53.8082	15,999.8	41.7714	15,999.8	66.1917	15,999.8	22.5467	15,999.8	52.8851	15,999.8	40.448	15,999.8	46.3268	15,999.8	45.842	15,999.8	42.2322	15,999.8	45.9605	15,999.8	40.9526	15,999.8	46.0399	15,999.8	36.9974	15,999.8	50.1186	15,999.8	48.6237	15,999.8	49.2099
16,564.5	84.0361	16,564.5	81.1787	16,564.5	81.4862	16,564.5	71.1661	16,564.5	72.268	16,564.5	66.4432	16,564.5	65.7869	16,564.5	67.8655	16,564.5	69.006	16,564.5	60.9051	16,564.5	61.654	16,564.5	52.0993	16,564.5	37.2919	16,564.5	57.4966	16,564.5	50.6544	16,564.5	54.5671	16,564.5	55.0965	16,564.5	51.4758	16,564.5	48.9132	16,564.5	39.1221	16,564.5	53.0294	16,564.5	45.0386	16,564.5	65.4634	16,564.5	36.3822	16,564.5	51.8616	16,564.5	45.3528	16,564.5	40.9586	16,564.5	47.2551	16,564.5	42.7725	16,564.5	47.7238	16,564.5	33.7819	16,564.5	45.4581	16,564.5	44.9014	16,564.5	50.8098	16,564.5	49.0971	16,564.5	51.419
17,148.2	84.4545	17,148.2	80.9775	17,148.2	81.741	17,148.2	68.7428	17,148.2	70.7843	17,148.2	67.5027	17,148.2	67.3596	17,148.2	66.4379	17,148.2	68.1214	17,148.2	54.2763	17,148.2	57.6995	17,148.2	54.7168	17,148.2	47.2801	17,148.2	57.9475	17,148.2	55.5045	17,148.2	55.6231	17,148.2	54.0119	17,148.2	52.868	17,148.2	46.9075	17,148.2	36.9936	17,148.2	53.8721	17,148.2	44.0078	17,148.2	65.7135	17,148.2	38.3228	17,148.2	52.2715	17,148.2	44.1319	17,148.2	34.9055	17,148.2	47.539	17,148.2	45.2408	17,148.2	48.3792	17,148.2	32.0251	17,148.2	43.0184	17,148.2	45.5717	17,148.2	51.4816	17,148.2	47.1592	17,148.2	52.5617
17,753.2	84.5198	17,753.2	80.835	17,753.2	81.7314	17,753.2	66.0693	17,753.2	69.4878	17,753.2	67.1569	17,753.2	68.0347	17,753.2	64.284	17,753.2	65.8026	17,753.2	45.8493	17,753.2	47.9172	17,753.2	55.4988	17,753.2	54.9187	17,753.2	57.7086	17,753.2	57.4807	17,753.2	53.923	17,753.2	53.9267	17,753.2	50.0898	17,753.2	44.8018	17,753.2	32.916	17,753.2	52.902	17,753.2	43.4421	17,753.2	65.6266	17,753.2	40.4226	17,753.2	53.6253	17,753.2	43.3499	17,753.2	39.7746	17,753.2	46.2472	17,753.2	40.2948	17,753.2	47.7	17,753.2	19.4698	17,753.2	33.5381	17,753.2	46.4089	17,753.2	50.2157	17,753.2	47.1877	17,753.2	51.4417
18,379.4	83.7816	18,379.4	80.1212	18,379.4	80.8444	18,379.4	62.0639	18,379.4	66.303	18,379.4	67.3092	18,379.4	68.2873	18,379.4	61.4862	18,379.4	63.966	18,379.4	46.8174	18,379.4	42.3925	18,379.4	57.1129	18,379.4	56.9517	18,379.4	56.1288	18,379.4	56.4434	18,379.4	51.4491	18,379.4	53.6184	18,379.4	45.6942	18,379.4	38.7246	18,379.4	25.7564	18,379.4	53.5159	18,379.4	42.0161	18,379.4	65.126	18,379.4	40.8065	18,379.4	53.8788	18,379.4	44.5737	18,379.4	44.388	18,379.4	44.361	18,379.4	40.7939	18,379.4	48.3227	18,379.4	38.1258	18,379.4	35.299	18,379.4	46.4348	18,379.4	48.3567	18,379.4	48.699	18,379.4	49.1358
19,027.6	83.6158	19,027.6	79.62	19,027.6	80.3234	19,027.6	57.1311	19,027.6	62.8931	19,027.6	66.9301	19,027.6	67.5505	19,027.6	59.1613	19,027.6	61.2255	19,027.6	49.7231	19,027.6	46.3791	19,027.6	56.2624	19,027.6	55.9874	19,027.6	51.7553	19,027.6	53.7998	19,027.6	48.1123	19,027.6	49.9847	19,027.6	42.5697	19,027.6	40.7267	19,027.6	36.0635	19,027.6	53.9894	19,027.6	40.8474	19,027.6	65.2579	19,027.6	43.0772	19,027.6	54.6062	19,027.6	45.7751	19,027.6	48.541	19,027.6	44.1355	19,027.6	46.2948	19,027.6	48.7224	19,027.6	38.9183	19,027.6	44.0801	19,027.6	46.9797	19,027.6	43.8396	19,027.6	47.18	19,027.6	44.0314
19,698.5	83.5601	19,698.5	78.9208	19,698.5	79.9853	19,698.5	47.6487	19,698.5	60.0966	19,698.5	65.6684	19,698.5	66.752	19,698.5	57.1422	19,698.5	59.7417	19,698.5	49.8788	19,698.5	48.546	19,698.5	53.2898	19,698.5	54.4537	19,698.5	46.926	19,698.5	51.9845	19,698.5	44.023	19,698.5	44.0176	19,698.5	37.1488	19,698.5	44.1942	19,698.5	38.4593	19,698.5	54.8451	19,698.5	40.1946	19,698.5	65.3052	19,698.5	43.6398	19,698.5	55.2237	19,698.5	45.1198	19,698.5	49.2178	19,698.5	40.5761	19,698.5	44.1752	19,698.5	48.5373	19,698.5	44.2301	19,698.5	45.3436	19,698.5	48.8428	19,698.5	39.3525	19,698.5	46.3733	19,698.5	41.3513
19,999.5	83.2948	19,999.5	78.5071	19,999.5	79.4257	19,999.5	34.2652	19,999.5	50.0274	19,999.5	65.1948	19,999.5	67.4931	19,999.5	54.7269	19,999.5	60.3885	19,999.5	49.8329	19,999.5	53.3008	19,999.5	53.4102	19,999.5	52.143	19,999.5	47.175	19,999.5	55.2716	19,999.5	40.7427	19,999.5	40.5173	19,999.5	42.7624	19,999.5	50.4535	19,999.5	39.3094	19,999.5	55.2	19,999.5	35.7189	19,999.5	65.1603	19,999.5	44.8679	19,999.5	55.0246	19,999.5	45.3557	19,999.5	50.1075	19,999.5	39.6147	19,999.5	44.8092	19,999.5	49.5553	19,999.5	47.4538	19,999.5	46.1569	19,999.5	46.8754	19,999.5	39.2393	19,999.5	45.7717	19,999.5	40.6059
