"SPL Horizontal"																																																																							
"On-Axis"		"10°"		"-10°"		"20°"		"-20°"		"30°"		"-30°"		"40°"		"-40°"		"50°"		"-50°"		"60°"		"-60°"		"70°"		"-70°"		"80°"		"-80°"		"90°"		"-90°"		"100°"		"-100°"		"110°"		"-110°"		"120°"		"-120°"		"130°"		"-130°"		"140°"		"-140°"		"150°"		"-150°"		"160°"		"-160°"		"170°"		"-170°"		"180°"	
"Frequency [Hz]"	"Sound Pessure Level [dB]  / [2.83V 1m] "	"Frequency [Hz]"	"Sound Pessure Level [dB]  / [2.83V 1m] "	"Frequency [Hz]"	"Sound Pessure Level [dB]  / [2.83V 1m] "	"Frequency [Hz]"	"Sound Pessure Level [dB]  / [2.83V 1m] "	"Frequency [Hz]"	"Sound Pessure Level [dB]  / [2.83V 1m] "	"Frequency [Hz]"	"Sound Pessure Level [dB]  / [2.83V 1m] "	"Frequency [Hz]"	"Sound Pessure Level [dB]  / [2.83V 1m] "	"Frequency [Hz]"	"Sound Pessure Level [dB]  / [2.83V 1m] "	"Frequency [Hz]"	"Sound Pessure Level [dB]  / [2.83V 1m] "	"Frequency [Hz]"	"Sound Pessure Level [dB]  / [2.83V 1m] "	"Frequency [Hz]"	"Sound Pessure Level [dB]  / [2.83V 1m] "	"Frequency [Hz]"	"Sound Pessure Level [dB]  / [2.83V 1m] "	"Frequency [Hz]"	"Sound Pessure Level [dB]  / [2.83V 1m] "	"Frequency [Hz]"	"Sound Pessure Level [dB]  / [2.83V 1m] "	"Frequency [Hz]"	"Sound Pessure Level [dB]  / [2.83V 1m] "	"Frequency [Hz]"	"Sound Pessure Level [dB]  / [2.83V 1m] "	"Frequency [Hz]"	"Sound Pessure Level [dB]  / [2.83V 1m] "	"Frequency [Hz]"	"Sound Pessure Level [dB]  / [2.83V 1m] "	"Frequency [Hz]"	"Sound Pessure Level [dB]  / [2.83V 1m] "	"Frequency [Hz]"	"Sound Pessure Level [dB]  / [2.83V 1m] "	"Frequency [Hz]"	"Sound Pessure Level [dB]  / [2.83V 1m] "	"Frequency [Hz]"	"Sound Pessure Level [dB]  / [2.83V 1m] "	"Frequency [Hz]"	"Sound Pessure Level [dB]  / [2.83V 1m] "	"Frequency [Hz]"	"Sound Pessure Level [dB]  / [2.83V 1m] "	"Frequency [Hz]"	"Sound Pessure Level [dB]  / [2.83V 1m] "	"Frequency [Hz]"	"Sound Pessure Level [dB]  / [2.83V 1m] "	"Frequency [Hz]"	"Sound Pessure Level [dB]  / [2.83V 1m] "	"Frequency [Hz]"	"Sound Pessure Level [dB]  / [2.83V 1m] "	"Frequency [Hz]"	"Sound Pessure Level [dB]  / [2.83V 1m] "	"Frequency [Hz]"	"Sound Pessure Level [dB]  / [2.83V 1m] "	"Frequency [Hz]"	"Sound Pessure Level [dB]  / [2.83V 1m] "	"Frequency [Hz]"	"Sound Pessure Level [dB]  / [2.83V 1m] "	"Frequency [Hz]"	"Sound Pessure Level [dB]  / [2.83V 1m] "	"Frequency [Hz]"	"Sound Pessure Level [dB]  / [2.83V 1m] "	"Frequency [Hz]"	"Sound Pessure Level [dB]  / [2.83V 1m] "	"Frequency [Hz]"	"Sound Pessure Level [dB]  / [2.83V 1m] "
20.5078	50.6641	20.5078	50.5444	20.5078	50.6578	20.5078	50.3274	20.5078	50.5359	20.5078	50.0936	20.5078	50.3502	20.5078	49.9925	20.5078	50.2083	20.5078	50.2238	20.5078	50.2776	20.5078	50.9326	20.5078	50.7331	20.5078	52.0869	20.5078	51.6415	20.5078	53.5072	20.5078	52.9032	20.5078	55.0014	20.5078	54.336	20.5078	56.4399	20.5078	55.7823	20.5078	57.7528	20.5078	57.1436	20.5078	58.9068	20.5078	58.3678	20.5078	59.8866	20.5078	59.4292	20.5078	60.685	20.5078	60.3152	20.5078	61.2984	20.5078	61.0192	20.5078	61.7245	20.5078	61.5377	20.5078	61.962	20.5078	61.8684	20.5078	62.01
21.2402	53.6356	21.2402	53.5576	21.2402	53.6446	21.2402	53.4335	21.2402	53.5879	21.2402	53.3163	21.2402	53.4946	21.2402	53.2927	21.2402	53.4237	21.2402	53.4721	21.2402	53.4655	21.2402	53.9448	21.2402	53.7237	21.2402	54.7289	21.2402	54.2729	21.2402	55.7556	21.2402	55.1122	21.2402	56.9113	21.2402	56.1636	21.2402	58.0888	21.2402	57.3166	21.2402	59.21	21.2402	58.4719	21.2402	60.225	21.2402	59.5586	21.2402	61.1038	21.2402	60.531	21.2402	61.8284	21.2402	61.3617	21.2402	62.3876	21.2402	62.0338	21.2402	62.7744	21.2402	62.5369	21.2402	62.9841	21.2402	62.865	21.2402	63.0145
21.9727	54.7228	21.9727	54.6469	21.9727	54.7143	21.9727	54.5052	21.9727	54.6247	21.9727	54.3428	21.9727	54.4797	21.9727	54.2378	21.9727	54.3334	21.9727	54.2983	21.9727	54.2733	21.9727	54.6314	21.9727	54.411	21.9727	55.2865	21.9727	54.8419	21.9727	56.2202	21.9727	55.5892	21.9727	57.3237	21.9727	56.5857	21.9727	58.4797	21.9727	57.7153	21.9727	59.5973	21.9727	58.8667	21.9727	60.6176	21.9727	59.9584	21.9727	61.5048	21.9727	60.9389	21.9727	62.238	21.9727	61.7774	21.9727	62.8047	21.9727	62.4557	21.9727	63.1971	21.9727	62.9631	21.9727	63.4106	21.9727	63.2933	21.9727	63.4429
22.7051	56.1034	22.7051	56.0434	22.7051	56.0935	22.7051	55.9294	22.7051	56.0167	22.7051	55.7989	22.7051	55.8953	22.7051	55.7154	22.7051	55.7752	22.7051	55.7658	22.7051	55.7286	22.7051	56.0391	22.7051	55.8471	22.7051	56.5859	22.7051	56.2126	22.7051	57.3869	22.7051	56.8549	22.7051	58.3625	22.7051	57.7309	22.7051	59.4125	22.7051	58.7481	22.7051	60.4503	22.7051	59.807	22.7051	61.4134	22.7051	60.8279	22.7051	62.2613	22.7051	61.7557	22.7051	62.9686	22.7051	62.5554	22.7051	63.5193	22.7051	63.2056	22.7051	63.9034	22.7051	63.6928	22.7051	64.1149	22.7051	64.0092	22.7051	64.1504
23.4375	56.3076	23.4375	56.2223	23.4375	56.2957	23.4375	56.0548	23.4375	56.1884	23.4375	55.8423	23.4375	56.0056	23.4375	55.6518	23.4375	55.7917	23.4375	55.5845	23.4375	55.6239	23.4375	55.7571	23.4375	55.6131	23.4375	56.2501	23.4375	55.875	23.4375	57.0547	23.4375	56.4705	23.4375	58.0766	23.4375	57.3617	23.4375	59.1917	23.4375	58.4357	23.4375	60.2953	23.4375	59.5673	23.4375	61.3159	23.4375	60.659	23.4375	62.2101	23.4375	61.6478	23.4375	62.9524	23.4375	62.4965	23.4375	63.528	23.4375	63.1838	23.4375	63.9277	23.4375	63.6977	23.4375	64.1464	23.4375	64.0313	23.4375	64.1813
24.1699	56.7702	24.1699	56.687	24.1699	56.7606	24.1699	56.5274	24.1699	56.6602	24.1699	56.3315	24.1699	56.4909	24.1699	56.1705	24.1699	56.3002	24.1699	56.1483	24.1699	56.1691	24.1699	56.3782	24.1699	56.2091	24.1699	56.9294	24.1699	56.5295	24.1699	57.7798	24.1699	57.178	24.1699	58.8292	24.1699	58.1056	24.1699	59.9562	24.1699	59.1976	24.1699	61.0615	24.1699	60.3338	24.1699	62.0789	24.1699	61.4229	24.1699	62.9678	24.1699	62.4061	24.1699	63.7046	24.1699	63.2488	24.1699	64.2753	24.1699	63.9309	24.1699	64.6713	24.1699	64.4409	24.1699	64.8876	24.1699	64.7723	24.1699	64.9216
25.6348	58.0559	25.6348	58.0027	25.6348	58.0439	25.6348	57.9009	25.6348	57.9698	25.6348	57.7893	25.6348	57.8571	25.6348	57.732	25.6348	57.7535	25.6348	57.8142	25.6348	57.733	25.6348	58.1195	25.6348	57.8863	25.6348	58.6913	25.6348	58.2898	25.6348	59.5055	25.6348	58.9647	25.6348	60.4827	25.6348	59.8614	25.6348	61.5271	25.6348	60.8867	25.6348	62.5558	25.6348	61.9441	25.6348	63.5095	25.6348	62.9577	25.6348	64.3493	25.6348	63.8757	25.6348	65.0505	25.6348	64.665	25.6348	65.5972	25.6348	65.3054	25.6348	65.9797	25.6348	65.7841	25.6348	66.1918	25.6348	66.0938	25.6348	66.2301
26.3672	58.9882	26.3672	58.9489	26.3672	58.98	26.3672	58.8776	26.3672	58.9272	26.3672	58.8104	26.3672	58.8521	26.3672	58.8041	26.3672	58.7982	26.3672	58.9307	26.3672	58.8299	26.3672	59.2574	26.3672	59.0223	26.3672	59.8168	26.3672	59.4354	26.3672	60.5877	26.3672	60.084	26.3672	61.5041	26.3672	60.9268	26.3672	62.4842	26.3672	61.8862	26.3672	63.4547	26.3672	62.8791	26.3672	64.3597	26.3672	63.8367	26.3672	65.161	26.3672	64.7093	26.3672	65.833	26.3672	65.4636	26.3672	66.3588	26.3672	66.0781	26.3672	66.7275	26.3672	66.539	26.3672	66.9323	26.3672	66.8376	26.3672	66.9693
27.0996	59.8632	27.0996	59.8437	27.0996	59.8545	27.0996	59.8105	27.0996	59.8209	27.0996	59.7959	27.0996	59.7837	27.0996	59.8493	27.0996	59.7828	27.0996	60.0296	27.0996	59.874	27.0996	60.3883	27.0996	60.1178	27.0996	60.9475	27.0996	60.5584	27.0996	61.6869	27.0996	61.2016	27.0996	62.5517	27.0996	62.0101	27.0996	63.4732	27.0996	62.918	27.0996	64.3875	27.0996	63.8546	27.0996	65.2441	27.0996	64.7593	27.0996	66.0061	27.0996	65.5864	27.0996	66.6481	27.0996	66.304	27.0996	67.1523	27.0996	66.8903	27.0996	67.5071	27.0996	67.3308	27.0996	67.705	27.0996	67.6164	27.0996	67.7418
27.832	60.9802	27.832	60.957	27.832	60.9772	27.832	60.9204	27.832	60.9507	27.832	60.8986	27.832	60.9188	27.832	60.9348	27.832	60.9152	27.832	61.0816	27.832	60.9876	27.832	61.3876	27.832	61.1897	27.832	61.8779	27.832	61.5642	27.832	62.5417	27.832	62.1246	27.832	63.3341	27.832	62.8462	27.832	64.1932	27.832	63.6751	27.832	65.0575	27.832	64.5468	27.832	65.8756	27.832	65.4018	27.832	66.6089	27.832	66.1928	27.832	67.2298	27.832	66.8851	27.832	67.7189	27.832	67.4546	27.832	68.0634	27.832	67.8847	27.832	68.2549	27.832	68.1649	27.832	68.2891
29.2969	62.7532	29.2969	62.7501	29.2969	62.749	29.2969	62.7498	29.2969	62.7394	29.2969	62.7746	29.2969	62.739	29.2969	62.8572	29.2969	62.7743	29.2969	63.0351	29.2969	62.8814	29.2969	63.3418	29.2969	63.0991	29.2969	63.7945	29.2969	63.4579	29.2969	64.3853	29.2969	63.9672	29.2969	65.0827	29.2969	64.6095	29.2969	65.8405	29.2969	65.3448	29.2969	66.609	29.2969	66.1223	29.2969	67.3439	29.2969	66.892	29.2969	68.0088	29.2969	67.611	29.2969	68.5763	29.2969	68.2459	29.2969	69.0261	29.2969	68.772	29.2969	69.3439	29.2969	69.1718	29.2969	69.5205	29.2969	69.4337	29.2969	69.5508
30.0293	63.6219	30.0293	63.6164	30.0293	63.62	30.0293	63.6128	30.0293	63.6124	30.0293	63.6312	30.0293	63.6121	30.0293	63.7011	30.0293	63.6429	30.0293	63.8572	30.0293	63.7375	30.0293	64.1313	30.0293	63.9317	30.0293	64.5417	30.0293	64.2549	30.0293	65.0848	30.0293	64.719	30.0293	65.7341	30.0293	65.3114	30.0293	66.4481	30.0293	65.9978	30.0293	67.1796	30.0293	66.7316	30.0293	67.8849	30.0293	67.4648	30.0293	68.5274	30.0293	68.1548	30.0293	69.0786	30.0293	68.7674	30.0293	69.5171	30.0293	69.277	30.0293	69.8281	30.0293	69.6651	30.0293	70.0017	30.0293	69.9194	30.0293	70.0325
31.4941	65.1086	31.4941	65.1109	31.4941	65.1102	31.4941	65.125	31.4941	65.1174	31.4941	65.1673	31.4941	65.1409	31.4941	65.2616	31.4941	65.2002	31.4941	65.435	31.4941	65.3211	31.4941	65.7114	31.4941	65.5311	31.4941	66.1044	31.4941	65.8519	31.4941	66.6104	31.4941	66.2916	31.4941	67.2083	31.4941	66.8399	31.4941	67.864	31.4941	67.4691	31.4941	68.5375	31.4941	68.1412	31.4941	69.1901	31.4941	68.8148	31.4941	69.788	31.4941	69.4519	31.4941	70.3035	31.4941	70.0207	31.4941	70.7156	31.4941	70.4959	31.4941	71.009	31.4941	70.8592	31.4941	71.1734	31.4941	71.0975	31.4941	71.2033
32.2266	66.0942	32.2266	66.0991	32.2266	66.0965	32.2266	66.1179	32.2266	66.1073	32.2266	66.1647	32.2266	66.1361	32.2266	66.2599	32.2266	66.1994	32.2266	66.4265	32.2266	66.3193	32.2266	66.6854	32.2266	66.5194	32.2266	67.0486	32.2266	66.8186	32.2266	67.5145	32.2266	67.2247	32.2266	68.0659	32.2266	67.73	32.2266	68.6736	32.2266	68.3116	32.2266	69.3018	32.2266	68.936	32.2266	69.9145	32.2266	69.5658	32.2266	70.4793	32.2266	70.1653	32.2266	70.9688	32.2266	70.7032	32.2266	71.3617	32.2266	71.1547	32.2266	71.6423	32.2266	71.5008	32.2266	71.8001	32.2266	71.7283	32.2266	71.8292
33.6914	67.581	33.6914	67.5901	33.6914	67.5832	33.6914	67.616	33.6914	67.5978	33.6914	67.6702	33.6914	67.6325	33.6914	67.7691	33.6914	67.701	33.6914	67.9316	33.6914	67.8211	33.6914	68.1746	33.6914	68.012	33.6914	68.5082	33.6914	68.2892	33.6914	68.9319	33.6914	68.6598	33.6914	69.4322	33.6914	69.1181	33.6914	69.985	33.6914	69.6461	33.6914	70.5598	33.6914	70.2157	33.6914	71.1242	33.6914	70.7941	33.6914	71.6476	33.6914	71.3485	33.6914	72.1037	33.6914	71.8495	33.6914	72.4714	33.6914	72.2724	33.6914	72.7347	33.6914	72.5982	33.6914	72.8827	33.6914	72.8133	33.6914	72.9093
34.4238	68.3936	34.4238	68.4046	34.4238	68.3956	34.4238	68.4337	34.4238	68.4117	34.4238	68.4911	34.4238	68.4487	34.4238	68.5913	34.4238	68.5186	34.4238	68.7508	34.4238	68.6373	34.4238	68.9847	34.4238	68.8216	34.4238	69.3021	34.4238	69.0856	34.4238	69.7026	34.4238	69.4357	34.4238	70.1747	34.4238	69.8677	34.4238	70.697	34.4238	70.3655	34.4238	71.2415	34.4238	70.9042	34.4238	71.7778	34.4238	71.4535	34.4238	72.2769	34.4238	71.9823	34.4238	72.7132	34.4238	72.462	34.4238	73.0656	34.4238	72.8685	34.4238	73.3181	34.4238	73.1827	34.4238	73.4597	34.4238	73.3908	34.4238	73.4844
35.8887	69.8757	35.8887	69.8878	35.8887	69.8794	35.8887	69.9195	35.8887	69.8995	35.8887	69.9792	35.8887	69.9416	35.8887	70.0784	35.8887	70.015	35.8887	70.2301	35.8887	70.1323	35.8887	70.4464	35.8887	70.3068	35.8887	70.7347	35.8887	70.5497	35.8887	71.0953	35.8887	70.8665	35.8887	71.5193	35.8887	71.2544	35.8887	71.9894	35.8887	71.7009	35.8887	72.482	35.8887	72.1855	35.8887	72.9703	35.8887	72.6824	35.8887	73.4277	35.8887	73.1638	35.8887	73.83	35.8887	73.6034	35.8887	74.1566	35.8887	73.9778	35.8887	74.3917	35.8887	74.2683	35.8887	74.5241	35.8887	74.4612	35.8887	74.5477
37.3535	71.2299	37.3535	71.2449	37.3535	71.233	37.3535	71.2811	37.3535	71.2549	37.3535	71.345	37.3535	71.3001	37.3535	71.4456	37.3535	71.3761	37.3535	71.5933	37.3535	71.493	37.3535	71.7975	37.3535	71.6612	37.3535	72.0643	37.3535	71.8895	37.3535	72.3939	37.3535	72.1823	37.3535	72.7794	37.3535	72.5373	37.3535	73.2065	37.3535	72.9442	37.3535	73.6552	37.3535	73.3858	37.3535	74.1019	37.3535	73.8398	37.3535	74.5225	37.3535	74.2814	37.3535	74.8942	37.3535	74.6863	37.3535	75.1973	37.3535	75.0327	37.3535	75.4162	37.3535	75.3024	37.3535	75.5399	37.3535	75.4818	37.3535	75.5622
38.8184	72.5103	38.8184	72.5256	38.8184	72.515	38.8184	72.5632	38.8184	72.5401	38.8184	72.6283	38.8184	72.5891	38.8184	72.728	38.8184	72.6679	38.8184	72.8704	38.8184	72.7842	38.8184	73.063	38.8184	72.9463	38.8184	73.3104	38.8184	73.1609	38.8184	73.6128	38.8184	73.4312	38.8184	73.9646	38.8184	73.7555	38.8184	74.3537	38.8184	74.1255	38.8184	74.7631	38.8184	74.5267	38.8184	75.1721	38.8184	74.94	38.8184	75.5587	38.8184	75.3435	38.8184	75.9018	38.8184	75.7149	38.8184	76.1828	38.8184	76.0339	38.8184	76.3864	38.8184	76.283	38.8184	76.502	38.8184	76.449	38.8184	76.5232
39.5508	73.1829	39.5508	73.2004	39.5508	73.1852	39.5508	73.2398	39.5508	73.2078	39.5508	73.3057	39.5508	73.2535	39.5508	73.4043	39.5508	73.3276	39.5508	73.5426	39.5508	73.4368	39.5508	73.7272	39.5508	73.5885	39.5508	73.9621	39.5508	73.7888	39.5508	74.2476	39.5508	74.0409	39.5508	74.5785	39.5508	74.3436	39.5508	74.9443	39.5508	74.6899	39.5508	75.3292	39.5508	75.0669	39.5508	75.714	39.5508	75.4571	39.5508	76.0782	39.5508	75.8402	39.5508	76.4015	39.5508	76.1949	39.5508	76.6659	39.5508	76.5013	39.5508	76.8566	39.5508	76.7422	39.5508	76.9632	39.5508	76.9046	39.5508	76.9795
41.0156	74.0452	41.0156	74.0603	41.0156	74.05	41.0156	74.0971	41.0156	74.0752	41.0156	74.1594	41.0156	74.1233	41.0156	74.2522	41.0156	74.1987	41.0156	74.3817	41.0156	74.3072	41.0156	74.5534	41.0156	74.4548	41.0156	74.7711	41.0156	74.6469	41.0156	75.0353	41.0156	74.8862	41.0156	75.3422	41.0156	75.1715	41.0156	75.6826	41.0156	75.4966	41.0156	76.043	41.0156	75.8501	41.0156	76.4057	41.0156	76.216	41.0156	76.7517	41.0156	76.5753	41.0156	77.0615	41.0156	76.9079	41.0156	77.3174	41.0156	77.1948	41.0156	77.5045	41.0156	77.4193	41.0156	77.6121	41.0156	77.5684	41.0156	77.6339
42.4805	75.2869	42.4805	75.3045	42.4805	75.291	42.4805	75.3449	42.4805	75.3168	42.4805	75.4111	42.4805	75.3663	42.4805	75.5068	42.4805	75.4429	42.4805	75.6365	42.4805	75.5507	42.4805	75.8041	42.4805	75.6942	42.4805	76.0121	42.4805	75.8772	42.4805	76.2602	42.4805	76.1015	42.4805	76.5446	42.4805	76.3656	42.4805	76.8574	42.4805	76.6643	42.4805	77.1866	42.4805	76.9875	42.4805	77.517	42.4805	77.3215	42.4805	77.8315	42.4805	77.6498	42.4805	78.1128	42.4805	77.9545	42.4805	78.3447	42.4805	78.2182	42.4805	78.5137	42.4805	78.4255	42.4805	78.6098	42.4805	78.5645	42.4805	78.6271
43.9453	76.2153	43.9453	76.2337	43.9453	76.2183	43.9453	76.2745	43.9453	76.2428	43.9453	76.3398	43.9453	76.2905	43.9453	76.4326	43.9453	76.3637	43.9453	76.5562	43.9453	76.4659	43.9453	76.7136	43.9453	76.6004	43.9453	76.9067	43.9453	76.7701	43.9453	77.1351	43.9453	76.9764	43.9453	77.3956	43.9453	77.218	43.9453	77.6812	43.9453	77.4904	43.9453	77.9817	43.9453	77.7851	43.9453	78.2834	43.9453	78.0903	43.9453	78.5711	43.9453	78.3911	43.9453	78.8288	43.9453	78.6714	43.9453	79.0415	43.9453	78.9152	43.9453	79.1962	43.9453	79.108	43.9453	79.2834	43.9453	79.2381	43.9453	79.2978
45.4102	77.0135	45.4102	77.0347	45.4102	77.0139	45.4102	77.0782	45.4102	77.0363	45.4102	77.1457	45.4102	77.0817	45.4102	77.2392	45.4102	77.1521	45.4102	77.361	45.4102	77.25	45.4102	77.5133	45.4102	77.3781	45.4102	77.6972	45.4102	77.5384	45.4102	77.9119	45.4102	77.7318	45.4102	78.1545	45.4102	77.9572	45.4102	78.4189	45.4102	78.2102	45.4102	78.6959	45.4102	78.4838	45.4102	78.9736	45.4102	78.7671	45.4102	79.2382	45.4102	79.047	45.4102	79.475	45.4102	79.3087	45.4102	79.6701	45.4102	79.5372	45.4102	79.8115	45.4102	79.7188	45.4102	79.8902	45.4102	79.8426	45.4102	79.9008
47.6074	78.0372	47.6074	78.0575	47.6074	78.0389	47.6074	78.1001	47.6074	78.0628	47.6074	78.1658	47.6074	78.1096	47.6074	78.2558	47.6074	78.1804	47.6074	78.3712	47.6074	78.2769	47.6074	78.5131	47.6074	78.4002	47.6074	78.6818	47.6074	78.5515	47.6074	78.8765	47.6074	78.7308	47.6074	79.0944	47.6074	78.9365	47.6074	79.3304	47.6074	79.1648	47.6074	79.5771	47.6074	79.4096	47.6074	79.8244	47.6074	79.6618	47.6074	80.0606	47.6074	79.9102	47.6074	80.2729	47.6074	80.1419	47.6074	80.4488	47.6074	80.344	47.6074	80.5773	47.6074	80.5042	47.6074	80.6501	47.6074	80.6125	47.6074	80.6622
49.0723	78.6293	49.0723	78.6478	49.0723	78.6329	49.0723	78.6885	49.0723	78.6586	49.0723	78.7519	49.0723	78.7069	49.0723	78.8386	49.0723	78.7784	49.0723	78.9493	49.0723	78.8738	49.0723	79.0844	49.0723	78.994	49.0723	79.2439	49.0723	79.1393	49.0723	79.4264	49.0723	79.3091	49.0723	79.6295	49.0723	79.5018	49.0723	79.8486	49.0723	79.714	49.0723	80.077	49.0723	79.9401	49.0723	80.3058	49.0723	80.1721	49.0723	80.5245	49.0723	80.4	49.0723	80.7213	49.0723	80.6124	49.0723	80.885	49.0723	80.7974	49.0723	81.0051	49.0723	80.9438	49.0723	81.0739	49.0723	81.0423	49.0723	81.0867
50.5371	79.1395	50.5371	79.1577	50.5371	79.1432	50.5371	79.1979	50.5371	79.169	50.5371	79.2603	50.5371	79.2171	50.5371	79.345	50.5371	79.2877	50.5371	79.4521	50.5371	79.3811	50.5371	79.5817	50.5371	79.4974	50.5371	79.733	50.5371	79.6365	50.5371	79.9048	50.5371	79.7975	50.5371	80.0946	50.5371	79.9787	50.5371	80.2981	50.5371	80.1767	50.5371	80.5096	50.5371	80.3865	50.5371	80.721	50.5371	80.601	50.5371	80.923	50.5371	80.8113	50.5371	81.1049	50.5371	81.0072	50.5371	81.2563	50.5371	81.1776	50.5371	81.3676	50.5371	81.3125	50.5371	81.4316	50.5371	81.4032	50.5371	81.4438
52.7344	79.8089	52.7344	79.8273	52.7344	79.8121	52.7344	79.867	52.7344	79.837	52.7344	79.9278	52.7344	79.8833	52.7344	80.0094	52.7344	79.9511	52.7344	80.1111	52.7344	80.0399	52.7344	80.2324	52.7344	80.1492	52.7344	80.372	52.7344	80.2783	52.7344	80.5285	52.7344	80.4259	52.7344	80.6993	52.7344	80.5901	52.7344	80.8811	52.7344	80.7678	52.7344	81.0686	52.7344	80.9549	52.7344	81.2555	52.7344	81.1452	52.7344	81.4335	52.7344	81.3314	52.7344	81.5939	52.7344	81.5046	52.7344	81.7273	52.7344	81.6556	52.7344	81.8254	52.7344	81.7752	52.7344	81.8817	52.7344	81.8558	52.7344	81.8921
54.1992	80.1736	54.1992	80.1923	54.1992	80.1762	54.1992	80.2318	54.1992	80.2001	54.1992	80.2918	54.1992	80.245	54.1992	80.3714	54.1992	80.3107	54.1992	80.4699	54.1992	80.3964	54.1992	80.5861	54.1992	80.5014	54.1992	80.7186	54.1992	80.6244	54.1992	80.8659	54.1992	80.7641	54.1992	81.0255	54.1992	80.9184	54.1992	81.194	54.1992	81.0843	54.1992	81.3671	54.1992	81.258	54.1992	81.5389	54.1992	81.434	54.1992	81.7024	54.1992	81.6058	54.1992	81.8493	54.1992	81.7654	54.1992	81.9716	54.1992	81.9043	54.1992	82.0615	54.1992	82.0145	54.1992	82.113	54.1992	82.0888	54.1992	82.1224
56.3965	80.6335	56.3965	80.6498	56.3965	80.6382	56.3965	80.6867	56.3965	80.6638	56.3965	80.7434	56.3965	80.71	56.3965	80.8188	56.3965	80.776	56.3965	80.9115	56.3965	80.8606	56.3965	81.0202	56.3965	80.9624	56.3965	81.143	56.3965	81.0799	56.3965	81.2781	56.3965	81.2111	56.3965	81.4231	56.3965	81.3537	56.3965	81.5751	56.3965	81.505	56.3965	81.7304	56.3965	81.6613	56.3965	81.8841	56.3965	81.818	56.3965	82.0302	56.3965	81.9695	56.3965	82.1619	56.3965	82.1092	56.3965	82.2722	56.3965	82.2299	56.3965	82.3543	56.3965	82.3246	56.3965	82.4027	56.3965	82.3874	56.3965	82.414
58.5938	80.927	58.5938	80.9364	58.5938	80.939	58.5938	80.9667	58.5938	80.9722	58.5938	81.0172	58.5938	81.0258	58.5938	81.0866	58.5938	81.0987	58.5938	81.1735	58.5938	81.189	58.5938	81.2759	58.5938	81.2948	58.5938	81.3921	58.5938	81.4139	58.5938	81.5201	58.5938	81.5437	58.5938	81.6575	58.5938	81.6817	58.5938	81.8016	58.5938	81.8248	58.5938	81.949	58.5938	81.9697	58.5938	82.0952	58.5938	82.1124	58.5938	82.2348	58.5938	82.248	58.5938	82.3618	58.5938	82.3709	58.5938	82.4695	58.5938	82.4751	58.5938	82.5517	58.5938	82.5548	58.5938	82.6035	58.5938	82.6047	58.5938	82.6214
60.0586	81.1785	60.0586	81.188	60.0586	81.1903	60.0586	81.2185	60.0586	81.223	60.0586	81.2691	60.0586	81.2757	60.0586	81.3385	60.0586	81.3469	60.0586	81.4249	60.0586	81.4346	60.0586	81.5263	60.0586	81.5366	60.0586	81.6405	60.0586	81.6504	60.0586	81.7651	60.0586	81.7734	60.0586	81.8974	60.0586	81.903	60.0586	82.0346	60.0586	82.0364	60.0586	82.1731	60.0586	82.1707	60.0586	82.3089	60.0586	82.3023	60.0586	82.4371	60.0586	82.4272	60.0586	82.5522	60.0586	82.5406	60.0586	82.6485	60.0586	82.6373	60.0586	82.7209	60.0586	82.712	60.0586	82.765	60.0586	82.7601	60.0586	82.7783
62.2559	81.5771	62.2559	81.5903	62.2559	81.5837	62.2559	81.6227	62.2559	81.6098	62.2559	81.6731	62.2559	81.6545	62.2559	81.7401	62.2559	81.7164	62.2559	81.8213	62.2559	81.7933	62.2559	81.9144	62.2559	81.883	62.2559	82.017	62.2559	81.9829	62.2559	82.1266	62.2559	82.0905	62.2559	82.2406	62.2559	82.2032	62.2559	82.3566	62.2559	82.3185	62.2559	82.4717	62.2559	82.4338	62.2559	82.5831	62.2559	82.5463	62.2559	82.687	62.2559	82.6527	62.2559	82.7796	62.2559	82.7492	62.2559	82.8564	62.2559	82.8317	62.2559	82.9135	62.2559	82.8959	62.2559	82.9473	62.2559	82.9381	62.2559	82.9556
64.4531	81.8353	64.4531	81.8475	64.4531	81.8422	64.4531	81.8782	64.4531	81.8679	64.4531	81.9261	64.4531	81.9115	64.4531	81.9894	64.4531	81.9712	64.4531	82.0659	64.4531	82.0449	64.4531	82.1528	64.4531	82.13	64.4531	82.2476	64.4531	82.2238	64.4531	82.3476	64.4531	82.3234	64.4531	82.4503	64.4531	82.4263	64.4531	82.5536	64.4531	82.53	64.4531	82.6549	64.4531	82.6322	64.4531	82.7519	64.4531	82.7304	64.4531	82.8419	64.4531	82.822	64.4531	82.9217	64.4531	82.9042	64.4531	82.9879	64.4531	82.9737	64.4531	83.0373	64.4531	83.0272	64.4531	83.0671	64.4531	83.0618	64.4531	83.0754
66.6504	82.0912	66.6504	82.1021	66.6504	82.0986	66.6504	82.1305	66.6504	82.1239	66.6504	82.1752	66.6504	82.166	66.6504	82.2342	66.6504	82.2233	66.6504	82.3049	66.6504	82.2932	66.6504	82.3848	66.6504	82.3732	66.6504	82.471	66.6504	82.4603	66.6504	82.5609	66.6504	82.5515	66.6504	82.652	66.6504	82.6443	66.6504	82.7422	66.6504	82.7361	66.6504	82.8297	66.6504	82.8249	66.6504	82.9125	66.6504	82.9087	66.6504	82.9887	66.6504	82.9856	66.6504	83.056	66.6504	83.0533	66.6504	83.112	66.6504	83.1097	66.6504	83.1541	66.6504	83.1524	66.6504	83.1801	66.6504	83.1793	66.6504	83.1887
69.5801	82.3794	69.5801	82.3847	69.5801	82.3918	69.5801	82.4071	69.5801	82.4215	69.5801	82.4453	69.5801	82.4672	69.5801	82.4975	69.5801	82.5268	69.5801	82.561	69.5801	82.5978	69.5801	82.633	69.5801	82.677	69.5801	82.7108	69.5801	82.7614	69.5801	82.7915	69.5801	82.8478	69.5801	82.8728	69.5801	82.9333	69.5801	82.9529	69.5801	83.0154	69.5801	83.0299	69.5801	83.0923	69.5801	83.1027	69.5801	83.1624	69.5801	83.1697	69.5801	83.2241	69.5801	83.2295	69.5801	83.2762	69.5801	83.2805	69.5801	83.3173	69.5801	83.3206	69.5801	83.346	69.5801	83.3482	69.5801	83.3612	69.5801	83.3619
71.7773	82.5237	71.7773	82.5271	71.7773	82.5378	71.7773	82.5473	71.7773	82.5687	71.7773	82.583	71.7773	82.6152	71.7773	82.6321	71.7773	82.6753	71.7773	82.6922	71.7773	82.7461	71.7773	82.7601	71.7773	82.8244	71.7773	82.8331	71.7773	82.9069	71.7773	82.9083	71.7773	82.9903	71.7773	82.9833	71.7773	83.0714	71.7773	83.0563	71.7773	83.1479	71.7773	83.1257	71.7773	83.2177	71.7773	83.1906	71.7773	83.2792	71.7773	83.2501	71.7773	83.3315	71.7773	83.3033	71.7773	83.3737	71.7773	83.349	71.7773	83.4051	71.7773	83.386	71.7773	83.425	71.7773	83.4131	71.7773	83.4331	71.7773	83.429
73.9746	82.7382	73.9746	82.74	73.9746	82.7532	73.9746	82.7579	73.9746	82.7844	73.9746	82.7907	73.9746	82.8306	73.9746	82.8363	73.9746	82.8895	73.9746	82.8918	73.9746	82.9583	73.9746	82.9544	73.9746	83.0336	73.9746	83.0211	73.9746	83.1119	73.9746	83.089	73.9746	83.1897	73.9746	83.1558	73.9746	83.2639	73.9746	83.2196	73.9746	83.3319	73.9746	83.2794	73.9746	83.3919	73.9746	83.3343	73.9746	83.4426	73.9746	83.384	73.9746	83.4835	73.9746	83.4283	73.9746	83.5143	73.9746	83.4666	73.9746	83.5351	73.9746	83.4985	73.9746	83.5461	73.9746	83.5231	73.9746	83.5476	73.9746	83.5397
76.9043	82.9079	76.9043	82.9117	76.9043	82.9202	76.9043	82.9308	76.9043	82.9481	76.9043	82.9638	76.9043	82.9904	76.9043	83.0084	76.9043	83.0449	76.9043	83.0618	76.9043	83.1087	76.9043	83.1208	76.9043	83.1785	76.9043	83.1824	76.9043	83.2506	76.9043	83.2436	76.9043	83.3215	76.9043	83.3022	76.9043	83.3881	76.9043	83.3563	76.9043	83.4477	76.9043	83.405	76.9043	83.4986	76.9043	83.448	76.9043	83.5397	76.9043	83.4855	76.9043	83.571	76.9043	83.5179	76.9043	83.5928	76.9043	83.5456	76.9043	83.6058	76.9043	83.5689	76.9043	83.611	76.9043	83.5875	76.9043	83.6092	76.9043	83.6011
79.834	83.067	79.834	83.0739	79.834	83.0762	79.834	83.0961	79.834	83.1013	79.834	83.1321	79.834	83.1409	79.834	83.1794	79.834	83.193	79.834	83.235	79.834	83.2548	79.834	83.2957	79.834	83.3226	79.834	83.3582	79.834	83.3929	79.834	83.4193	79.834	83.4619	79.834	83.4764	79.834	83.5264	79.834	83.5278	79.834	83.5835	79.834	83.5724	79.834	83.6316	79.834	83.6099	79.834	83.6697	79.834	83.6409	79.834	83.6978	79.834	83.666	79.834	83.7166	79.834	83.6863	79.834	83.7274	79.834	83.7025	79.834	83.7315	79.834	83.7152	79.834	83.7302	79.834	83.7246
82.7637	83.4346	82.7637	83.4497	82.7637	83.4324	82.7637	83.4767	82.7637	83.443	82.7637	83.5138	82.7637	83.4655	82.7637	83.5586	82.7637	83.4981	82.7637	83.608	82.7637	83.5385	82.7637	83.6588	82.7637	83.5835	82.7637	83.7076	82.7637	83.63	82.7637	83.7513	82.7637	83.6747	82.7637	83.7877	82.7637	83.7147	82.7637	83.815	82.7637	83.7481	82.7637	83.8328	82.7637	83.7734	82.7637	83.8414	82.7637	83.7906	82.7637	83.8423	82.7637	83.8005	82.7637	83.8377	82.7637	83.8048	82.7637	83.8298	82.7637	83.8056	82.7637	83.8211	82.7637	83.8052	82.7637	83.8135	82.7637	83.8056	82.7637	83.8082
85.6934	83.6128	85.6934	83.6277	85.6934	83.6084	85.6934	83.6522	85.6934	83.6144	85.6934	83.6845	85.6934	83.63	85.6934	83.722	85.6934	83.6532	85.6934	83.7617	85.6934	83.6816	85.6934	83.8002	85.6934	83.7122	85.6934	83.8341	85.6934	83.7419	85.6934	83.8604	85.6934	83.7678	85.6934	83.8768	85.6934	83.7872	85.6934	83.882	85.6934	83.7986	85.6934	83.8761	85.6934	83.8012	85.6934	83.8604	85.6934	83.7956	85.6934	83.8374	85.6934	83.7837	85.6934	83.8104	85.6934	83.768	85.6934	83.7831	85.6934	83.752	85.6934	83.7593	85.6934	83.7389	85.6934	83.7417	85.6934	83.7316	85.6934	83.7323
88.623	83.5118	88.623	83.5133	88.623	83.5245	88.623	83.5285	88.623	83.551	88.623	83.5558	88.623	83.5897	88.623	83.5928	88.623	83.6381	88.623	83.6363	88.623	83.6933	88.623	83.683	88.623	83.7514	88.623	83.7293	88.623	83.8087	88.623	83.7719	88.623	83.8614	88.623	83.8083	88.623	83.9064	88.623	83.8369	88.623	83.9411	88.623	83.8573	88.623	83.9641	88.623	83.87	88.623	83.9755	88.623	83.8769	88.623	83.976	88.623	83.8803	88.623	83.9679	88.623	83.8828	88.623	83.9539	88.623	83.8869	88.623	83.937	88.623	83.8941	88.623	83.92	88.623	83.9053
91.5527	83.4268	91.5527	83.422	91.5527	83.4493	91.5527	83.4347	91.5527	83.4888	91.5527	83.4636	91.5527	83.5434	91.5527	83.5063	91.5527	83.6105	91.5527	83.5599	91.5527	83.6863	91.5527	83.6207	91.5527	83.7669	91.5527	83.6849	91.5527	83.8477	91.5527	83.7488	91.5527	83.9245	91.5527	83.8091	91.5527	83.9932	91.5527	83.8632	91.5527	84.0506	91.5527	83.9097	91.5527	84.0946	91.5527	83.9482	91.5527	84.1243	91.5527	83.9795	91.5527	84.14	91.5527	84.0051	91.5527	84.1434	91.5527	84.027	91.5527	84.1369	91.5527	84.047	91.5527	84.1234	91.5527	84.0666	91.5527	84.1058	91.5527	84.0863
94.4824	83.8898	94.4824	83.8924	94.4824	83.8977	94.4824	83.905	94.4824	83.9161	94.4824	83.9263	94.4824	83.9439	94.4824	83.9543	94.4824	83.9794	94.4824	83.9864	94.4824	84.0201	94.4824	84.0198	94.4824	84.063	94.4824	84.0516	94.4824	84.1049	94.4824	84.0788	94.4824	84.1424	94.4824	84.0994	94.4824	84.1724	94.4824	84.1119	94.4824	84.1925	94.4824	84.1158	94.4824	84.2012	94.4824	84.1121	94.4824	84.1986	94.4824	84.1028	94.4824	84.1858	94.4824	84.0908	94.4824	84.1653	94.4824	84.0794	94.4824	84.1407	94.4824	84.0721	94.4824	84.1157	94.4824	84.0715	94.4824	84.0941	94.4824	84.0788
98.1445	84.0128	98.1445	84.0219	98.1445	84.0131	98.1445	84.0397	98.1445	84.0225	98.1445	84.0648	98.1445	84.0402	98.1445	84.0948	98.1445	84.0643	98.1445	84.1271	98.1445	84.0923	98.1445	84.1584	98.1445	84.1213	98.1445	84.1854	98.1445	84.148	98.1445	84.205	98.1445	84.1692	98.1445	84.2147	98.1445	84.1822	98.1445	84.2129	98.1445	84.1851	98.1445	84.1994	98.1445	84.1772	98.1445	84.1756	98.1445	84.159	98.1445	84.1441	98.1445	84.1328	98.1445	84.1088	98.1445	84.102	98.1445	84.0745	98.1445	84.071	98.1445	84.0459	98.1445	84.0444	98.1445	84.027	98.1445	84.0265	98.1445	84.0203
101.807	84.1011	101.807	84.1061	101.807	84.1055	101.807	84.1198	101.807	84.1193	101.807	84.1409	101.807	84.1414	101.807	84.1671	101.807	84.1704	101.807	84.1958	101.807	84.2037	101.807	84.2241	101.807	84.2386	101.807	84.2486	101.807	84.2716	101.807	84.2666	101.807	84.2995	101.807	84.2757	101.807	84.3191	101.807	84.2747	101.807	84.3281	101.807	84.2633	101.807	84.3252	101.807	84.2432	101.807	84.3104	101.807	84.2171	101.807	84.2853	101.807	84.1891	101.807	84.2531	101.807	84.1636	101.807	84.218	101.807	84.1452	101.807	84.1848	101.807	84.1371	101.807	84.158	101.807	84.1415
105.469	84.2203	105.469	84.2239	105.469	84.2249	105.469	84.2352	105.469	84.2377	105.469	84.253	105.469	84.2576	105.469	84.2751	105.469	84.2832	105.469	84.2993	105.469	84.3123	105.469	84.3226	105.469	84.3421	105.469	84.3421	105.469	84.3696	105.469	84.3551	105.469	84.3917	105.469	84.3593	105.469	84.4056	105.469	84.3536	105.469	84.4091	105.469	84.3381	105.469	84.4012	105.469	84.3143	105.469	84.3819	105.469	84.285	105.469	84.3531	105.469	84.2543	105.469	84.3179	105.469	84.2267	105.469	84.2804	105.469	84.2066	105.469	84.2456	105.469	84.1975	105.469	84.218	105.469	84.2013
109.131	84.4293	109.131	84.435	109.131	84.43	109.131	84.4467	109.131	84.4368	109.131	84.4632	109.131	84.4489	109.131	84.4829	109.131	84.4647	109.131	84.5034	109.131	84.4823	109.131	84.5221	109.131	84.4992	109.131	84.536	109.131	84.5128	109.131	84.5425	109.131	84.5205	109.131	84.5392	109.131	84.5199	109.131	84.5249	109.131	84.5095	109.131	84.4995	109.131	84.4886	109.131	84.4645	109.131	84.4583	109.131	84.4228	109.131	84.4207	109.131	84.3787	109.131	84.3796	109.131	84.3372	109.131	84.3397	109.131	84.3033	109.131	84.306	109.131	84.2815	109.131	84.2832	109.131	84.2746
112.793	84.5812	112.793	84.5866	112.793	84.5819	112.793	84.5978	112.793	84.5882	112.793	84.6139	112.793	84.5993	112.793	84.6334	112.793	84.6138	112.793	84.6539	112.793	84.6295	112.793	84.6728	112.793	84.6443	112.793	84.6872	112.793	84.6554	112.793	84.6939	112.793	84.6602	112.793	84.6906	112.793	84.6565	112.793	84.6756	112.793	84.6428	112.793	84.6486	112.793	84.6185	112.793	84.6109	112.793	84.5847	112.793	84.5654	112.793	84.5439	112.793	84.5167	112.793	84.5	112.793	84.4701	112.793	84.4581	112.793	84.4312	112.793	84.4236	112.793	84.405	112.793	84.4013	112.793	84.3947
116.455	84.6245	116.455	84.6196	116.455	84.6356	116.455	84.6209	116.455	84.6521	116.455	84.6279	116.455	84.6729	116.455	84.6395	116.455	84.6964	116.455	84.6539	116.455	84.7206	116.455	84.6688	116.455	84.743	116.455	84.6814	116.455	84.761	116.455	84.6889	116.455	84.7717	116.455	84.6887	116.455	84.7729	116.455	84.6793	116.455	84.7629	116.455	84.6599	116.455	84.741	116.455	84.6317	116.455	84.7082	116.455	84.5972	116.455	84.6667	116.455	84.5604	116.455	84.6204	116.455	84.5263	116.455	84.5742	116.455	84.4999	116.455	84.5335	116.455	84.4858	116.455	84.503	116.455	84.4866
120.85	84.7522	120.85	84.7392	120.85	84.7684	120.85	84.7293	120.85	84.7873	120.85	84.7224	120.85	84.8083	120.85	84.7181	120.85	84.8306	120.85	84.7153	120.85	84.8527	120.85	84.713	120.85	84.8729	120.85	84.7095	120.85	84.8892	120.85	84.7033	120.85	84.8992	120.85	84.693	120.85	84.9006	120.85	84.6776	120.85	84.8916	120.85	84.6572	120.85	84.8712	120.85	84.633	120.85	84.8396	120.85	84.6073	120.85	84.7982	120.85	84.5835	120.85	84.7501	120.85	84.5654	120.85	84.6993	120.85	84.5568	120.85	84.6507	120.85	84.5606	120.85	84.609	120.85	84.5782
125.244	84.9358	125.244	84.9196	125.244	84.9522	125.244	84.9037	125.244	84.9688	125.244	84.8877	125.244	84.985	125.244	84.8711	125.244	85	125.244	84.853	125.244	85.0126	125.244	84.8325	125.244	85.0211	125.244	84.8084	125.244	85.0237	125.244	84.7798	125.244	85.0184	125.244	84.7463	125.244	85.0031	125.244	84.708	125.244	84.9764	125.244	84.666	125.244	84.9377	125.244	84.6226	125.244	84.8876	125.244	84.581	125.244	84.8279	125.244	84.5454	125.244	84.7622	125.244	84.5199	125.244	84.695	125.244	84.5086	125.244	84.6318	125.244	84.5141	125.244	84.5777	125.244	84.5375
129.639	84.9451	129.639	84.9464	129.639	84.9439	129.639	84.947	129.639	84.9429	129.639	84.9461	129.639	84.942	129.639	84.9423	129.639	84.9406	129.639	84.9339	129.639	84.9376	129.639	84.9191	129.639	84.9315	129.639	84.8961	129.639	84.9204	129.639	84.8634	129.639	84.9023	129.639	84.82	129.639	84.8752	129.639	84.7664	129.639	84.8377	129.639	84.704	129.639	84.7895	129.639	84.6359	129.639	84.7313	129.639	84.5667	129.639	84.6656	129.639	84.5021	129.639	84.5965	129.639	84.4481	129.639	84.5292	129.639	84.4102	129.639	84.4698	129.639	84.3928	129.639	84.4243	129.639	84.3976
134.033	84.8601	134.033	84.8741	134.033	84.8479	134.033	84.8895	134.033	84.8376	134.033	84.9054	134.033	84.8292	134.033	84.9205	134.033	84.8221	134.033	84.9332	134.033	84.8157	134.033	84.9412	134.033	84.8086	134.033	84.942	134.033	84.7994	134.033	84.9334	134.033	84.7863	134.033	84.9132	134.033	84.7676	134.033	84.8806	134.033	84.7421	134.033	84.8357	134.033	84.7091	134.033	84.7805	134.033	84.6697	134.033	84.7185	134.033	84.6258	134.033	84.6545	134.033	84.5812	134.033	84.5945	134.033	84.5405	134.033	84.544	134.033	84.5088	134.033	84.5082	134.033	84.4908	134.033	84.4902
138.428	84.9047	138.428	84.9041	138.428	84.9057	138.428	84.9045	138.428	84.9065	138.428	84.9064	138.428	84.9065	138.428	84.9098	138.428	84.9053	138.428	84.9142	138.428	84.9023	138.428	84.9187	138.428	84.897	138.428	84.9214	138.428	84.8887	138.428	84.9204	138.428	84.8766	138.428	84.9136	138.428	84.86	138.428	84.8993	138.428	84.8384	138.428	84.8767	138.428	84.8119	138.428	84.8463	138.428	84.7813	138.428	84.8097	138.428	84.7485	138.428	84.7699	138.428	84.7162	138.428	84.7309	138.428	84.6877	138.428	84.6967	138.428	84.6665	138.428	84.6712	138.428	84.6557	138.428	84.6571
143.555	85.0363	143.555	85.0209	143.555	85.0474	143.555	85.0021	143.555	85.0537	143.555	84.9809	143.555	85.0546	143.555	84.9582	143.555	85.0499	143.555	84.9348	143.555	85.0395	143.555	84.9107	143.555	85.0232	143.555	84.8857	143.555	85.0008	143.555	84.8591	143.555	84.9719	143.555	84.8299	143.555	84.9364	143.555	84.7975	143.555	84.8943	143.555	84.7615	143.555	84.8466	143.555	84.7225	143.555	84.7947	143.555	84.6823	143.555	84.741	143.555	84.6432	143.555	84.6887	143.555	84.6087	143.555	84.6417	143.555	84.5821	143.555	84.6034	143.555	84.5667	143.555	84.5771	143.555	84.5647
148.682	85.1347	148.682	85.1167	148.682	85.1459	148.682	85.0927	148.682	85.1499	148.682	85.0636	148.682	85.1464	148.682	85.0304	148.682	85.1356	148.682	84.9942	148.682	85.1174	148.682	84.9554	148.682	85.0919	148.682	84.9144	148.682	85.0591	148.682	84.8712	148.682	85.0188	148.682	84.8256	148.682	84.971	148.682	84.7776	148.682	84.9163	148.682	84.7278	148.682	84.8555	148.682	84.6774	148.682	84.7908	148.682	84.6282	148.682	84.7249	148.682	84.5831	148.682	84.6613	148.682	84.5453	148.682	84.6042	148.682	84.518	148.682	84.5573	148.682	84.5042	148.682	84.5238	148.682	84.5059
153.809	85.1776	153.809	85.1583	153.809	85.1877	153.809	85.1305	153.809	85.1884	153.809	85.0949	153.809	85.1799	153.809	85.0527	153.809	85.1626	153.809	85.0047	153.809	85.1369	153.809	84.952	153.809	85.1033	153.809	84.8953	153.809	85.0621	153.809	84.8353	153.809	85.0133	153.809	84.7726	153.809	84.957	153.809	84.7081	153.809	84.8937	153.809	84.6433	153.809	84.8242	153.809	84.5803	153.809	84.7503	153.809	84.5218	153.809	84.6747	153.809	84.471	153.809	84.601	153.809	84.4312	153.809	84.5333	153.809	84.4056	153.809	84.4759	153.809	84.3966	153.809	84.4324	153.809	84.4055
159.668	85.4162	159.668	85.4	159.668	85.4216	159.668	85.3737	159.668	85.4162	159.668	85.3379	159.668	85.4001	159.668	85.2935	159.668	85.3737	159.668	85.2415	159.668	85.3376	159.668	85.1827	159.668	85.2926	159.668	85.1177	159.668	85.2391	159.668	85.0471	159.668	85.1778	159.668	84.9718	159.668	85.1092	159.668	84.8932	159.668	85.0342	159.668	84.8133	159.668	84.9542	159.668	84.7349	159.668	84.8712	159.668	84.6617	159.668	84.7881	159.668	84.5977	159.668	84.7085	159.668	84.547	159.668	84.6364	159.668	84.5131	159.668	84.576	159.668	84.4987	159.668	84.5312	159.668	84.5048
164.795	85.353	164.795	85.3457	164.795	85.3509	164.795	85.3297	164.795	85.3392	164.795	85.3058	164.795	85.3181	164.795	85.2749	164.795	85.2881	164.795	85.2379	164.795	85.2499	164.795	85.1954	164.795	85.2041	164.795	85.1475	164.795	85.1515	164.795	85.0943	164.795	85.0928	164.795	85.0358	164.795	85.0286	164.795	84.9723	164.795	84.96	164.795	84.9049	164.795	84.8886	164.795	84.8354	164.795	84.8166	164.795	84.7666	164.795	84.7471	164.795	84.702	164.795	84.6837	164.795	84.6454	164.795	84.63	164.795	84.6008	164.795	84.5896	164.795	84.5713	164.795	84.5654	164.795	84.5592
170.654	85.2896	170.654	85.2682	170.654	85.2995	170.654	85.2364	170.654	85.2972	170.654	85.1961	170.654	85.2831	170.654	85.1494	170.654	85.2577	170.654	85.0986	170.654	85.2222	170.654	85.046	170.654	85.1778	170.654	84.993	170.654	85.1258	170.654	84.9408	170.654	85.0675	170.654	84.89	170.654	85.0044	170.654	84.8408	170.654	84.9381	170.654	84.7934	170.654	84.8709	170.654	84.7482	170.654	84.8051	170.654	84.7058	170.654	84.7438	170.654	84.6674	170.654	84.6897	170.654	84.6345	170.654	84.6454	170.654	84.609	170.654	84.6131	170.654	84.5925	170.654	84.5935	170.654	84.5869
176.514	85.254	176.514	85.2335	176.514	85.2594	176.514	85.1983	176.514	85.2503	176.514	85.1496	176.514	85.2281	176.514	85.0898	176.514	85.1949	176.514	85.0213	176.514	85.1528	176.514	84.9473	176.514	85.1043	176.514	84.8711	176.514	85.0513	176.514	84.7956	176.514	84.9953	176.514	84.7239	176.514	84.9375	176.514	84.6583	176.514	84.8787	176.514	84.6012	176.514	84.8198	176.514	84.554	176.514	84.7616	176.514	84.5179	176.514	84.7055	176.514	84.4934	176.514	84.6529	176.514	84.4803	176.514	84.6052	176.514	84.4781	176.514	84.5638	176.514	84.4861	176.514	84.5296	176.514	84.5035
183.105	85.286	183.105	85.2821	183.105	85.2702	183.105	85.2587	183.105	85.2352	183.105	85.2172	183.105	85.1828	183.105	85.1594	183.105	85.1155	183.105	85.088	183.105	85.0366	183.105	85.0058	183.105	84.9499	183.105	84.916	183.105	84.8593	183.105	84.8221	183.105	84.7686	183.105	84.7276	183.105	84.6811	183.105	84.6364	183.105	84.5996	183.105	84.5519	183.105	84.5265	183.105	84.4773	183.105	84.4631	183.105	84.415	183.105	84.4103	183.105	84.3661	183.105	84.3681	183.105	84.3308	183.105	84.3362	183.105	84.3081	183.105	84.3137	183.105	84.2962	183.105	84.2997	183.105	84.2938
189.697	85.3273	189.697	85.3187	189.697	85.3143	189.697	85.29	189.697	85.2792	189.697	85.2434	189.697	85.2223	189.697	85.1819	189.697	85.1452	189.697	85.1083	189.697	85.0505	189.697	85.0258	189.697	84.9418	189.697	84.9374	189.697	84.8234	189.697	84.846	189.697	84.7005	189.697	84.7543	189.697	84.5786	189.697	84.665	189.697	84.4636	189.697	84.5802	189.697	84.3612	189.697	84.5019	189.697	84.2762	189.697	84.4312	189.697	84.212	189.697	84.3686	189.697	84.1703	189.697	84.3137	189.697	84.1502	189.697	84.2658	189.697	84.1492	189.697	84.2243	189.697	84.1636	189.697	84.1897
196.289	85.3981	196.289	85.3654	196.289	85.4063	196.289	85.3105	196.289	85.389	196.289	85.2369	196.289	85.3465	196.289	85.1487	196.289	85.2804	196.289	85.0506	196.289	85.1935	196.289	84.9473	196.289	85.0896	196.289	84.8434	196.289	84.9733	196.289	84.7429	196.289	84.8499	196.289	84.6493	196.289	84.7251	196.289	84.5651	196.289	84.605	196.289	84.4923	196.289	84.4956	196.289	84.4313	196.289	84.402	196.289	84.382	196.289	84.3282	196.289	84.3426	196.289	84.276	196.289	84.3111	196.289	84.245	196.289	84.2852	196.289	84.2325	196.289	84.2634	196.289	84.2342	196.289	84.2457
202.881	85.4392	202.881	85.3943	202.881	85.4551	202.881	85.322	202.881	85.4417	202.881	85.2252	202.881	85.3999	202.881	85.1081	202.881	85.3317	202.881	84.9762	202.881	85.2402	202.881	84.8358	202.881	85.129	202.881	84.694	202.881	85.0028	202.881	84.5578	202.881	84.867	202.881	84.4339	202.881	84.7277	202.881	84.3279	202.881	84.5917	202.881	84.2433	202.881	84.4656	202.881	84.1813	202.881	84.3557	202.881	84.1407	202.881	84.2665	202.881	84.1178	202.881	84.1999	202.881	84.1075	202.881	84.1552	202.881	84.1047	202.881	84.1286	202.881	84.1055	202.881	84.1148	202.881	84.1084
210.205	85.3954	210.205	85.3557	210.205	85.4052	210.205	85.2871	210.205	85.3854	210.205	85.1918	210.205	85.3372	210.205	85.073	210.205	85.2631	210.205	84.9347	210.205	85.1665	210.205	84.7824	210.205	85.0514	210.205	84.6223	210.205	84.9227	210.205	84.4618	210.205	84.7857	210.205	84.3092	210.205	84.6461	210.205	84.1727	210.205	84.5097	210.205	84.0595	210.205	84.3824	210.205	83.9747	210.205	84.2691	210.205	83.9198	210.205	84.1735	210.205	83.8923	210.205	84.0972	210.205	83.8868	210.205	84.0392	210.205	83.8963	210.205	83.9961	210.205	83.9143	210.205	83.9634	210.205	83.937
217.529	85.3328	217.529	85.3017	217.529	85.3319	217.529	85.2387	217.529	85.3001	217.529	85.1454	217.529	85.2401	217.529	85.0248	217.529	85.1556	217.529	84.8811	217.529	85.0517	217.529	84.72	217.529	84.9341	217.529	84.5488	217.529	84.809	217.529	84.3762	217.529	84.6827	217.529	84.2121	217.529	84.5611	217.529	84.0667	217.529	84.4491	217.529	83.9494	217.529	84.3503	217.529	83.867	217.529	84.2665	217.529	83.8222	217.529	84.1978	217.529	83.8123	217.529	84.1418	217.529	83.8307	217.529	84.0946	217.529	83.8678	217.529	84.0516	217.529	83.9143	217.529	84.0085	217.529	83.9625
225.586	85.4244	225.586	85.4136	225.586	85.3951	225.586	85.3641	225.586	85.3258	225.586	85.2785	225.586	85.218	225.586	85.1604	225.586	85.0751	225.586	85.0147	225.586	84.9028	225.586	84.8473	225.586	84.7093	225.586	84.6657	225.586	84.5052	225.586	84.479	225.586	84.3036	225.586	84.2977	225.586	84.1186	225.586	84.1334	225.586	83.9641	225.586	83.9971	225.586	83.8508	225.586	83.8969	225.586	83.7834	225.586	83.8366	225.586	83.7596	225.586	83.8131	225.586	83.7696	225.586	83.8175	225.586	83.7991	225.586	83.8366	225.586	83.8326	225.586	83.8564	225.586	83.8572	225.586	83.8653
232.91	85.5877	232.91	85.5587	232.91	85.5759	232.91	85.4921	232.91	85.5206	232.91	85.3924	232.91	85.4205	232.91	85.264	232.91	85.2758	232.91	85.1123	232.91	85.0887	232.91	84.9426	232.91	84.8643	232.91	84.7611	232.91	84.611	232.91	84.5747	232.91	84.3414	232.91	84.3913	232.91	84.0725	232.91	84.2194	232.91	83.8249	232.91	84.0674	232.91	83.6197	232.91	83.9423	232.91	83.474	232.91	83.8472	232.91	83.3958	232.91	83.7803	232.91	83.3812	232.91	83.7343	232.91	83.4155	232.91	83.698	232.91	83.4776	232.91	83.6595	232.91	83.5474	232.91	83.6101
241.699	85.3555	241.699	85.2871	241.699	85.3825	241.699	85.1792	241.699	85.3667	241.699	85.0347	241.699	85.3076	241.699	84.858	241.699	85.205	241.699	84.655	241.699	85.0597	241.699	84.4336	241.699	84.8738	241.699	84.2041	241.699	84.6515	241.699	83.9787	241.699	84.4002	241.699	83.7711	241.699	84.1317	241.699	83.5943	241.699	83.8623	241.699	83.4585	241.699	83.6124	241.699	83.368	241.699	83.4035	241.699	83.3194	241.699	83.2528	241.699	83.3022	241.699	83.1681	241.699	83.3008	241.699	83.1443	241.699	83.2991	241.699	83.165	241.699	83.2847	241.699	83.2082	241.699	83.2528
249.756	85.5961	249.756	85.5546	249.756	85.5924	249.756	85.4678	249.756	85.5437	249.756	85.3363	249.756	85.4503	249.756	85.1608	249.756	85.3131	249.756	84.9434	249.756	85.1329	249.756	84.6878	249.756	84.9118	249.756	84.4005	249.756	84.6537	249.756	84.0918	249.756	84.3651	249.756	83.7766	249.756	84.0567	249.756	83.4743	249.756	83.744	249.756	83.2066	249.756	83.447	249.756	82.9931	249.756	83.1873	249.756	82.8455	249.756	82.9836	249.756	82.7626	249.756	82.8455	249.756	82.7308	249.756	82.7698	249.756	82.7289	249.756	82.7409	249.756	82.7362	249.756	82.7373	249.756	82.7394
258.545	85.4048	258.545	85.351	258.545	85.4192	258.545	85.2593	258.545	85.3931	258.545	85.1324	258.545	85.326	258.545	84.9736	258.545	85.218	258.545	84.787	258.545	85.0696	258.545	84.5777	258.545	84.8817	258.545	84.3518	258.545	84.6568	258.545	84.1168	258.545	84.3996	258.545	83.8822	258.545	84.1184	258.545	83.659	258.545	83.8264	258.545	83.4587	258.545	83.5422	258.545	83.2911	258.545	83.2873	258.545	83.162	258.545	83.0824	258.545	83.0705	258.545	82.9413	258.545	83.0088	258.545	82.8657	258.545	82.9652	258.545	82.8448	258.545	82.9283	258.545	82.86	258.545	82.8921
268.066	85.0697	268.066	84.9995	268.066	85.0956	268.066	84.8849	268.066	85.0777	268.066	84.7262	268.066	85.0161	268.066	84.525	268.066	84.9103	268.066	84.2845	268.066	84.7597	268.066	84.0105	268.066	84.5631	268.066	83.7121	268.066	84.3204	268.066	83.4027	268.066	84.0335	268.066	83.0997	268.066	83.7087	268.066	82.8227	268.066	83.3585	268.066	82.5906	268.066	83.0038	268.066	82.4163	268.066	82.6725	268.066	82.3019	268.066	82.3953	268.066	82.2377	268.066	82.1968	268.066	82.2048	268.066	82.0863	268.066	82.1817	268.066	82.0532	268.066	82.1526	268.066	82.0719	268.066	82.1127
277.588	84.9349	277.588	84.9156	277.588	84.9141	277.588	84.8544	277.588	84.8555	277.588	84.7502	277.588	84.763	277.588	84.6024	277.588	84.6408	277.588	84.4108	277.588	84.4937	277.588	84.1761	277.588	84.3264	277.588	83.9011	277.588	84.1425	277.588	83.5927	277.588	83.9451	277.588	83.2637	277.588	83.7372	277.588	82.9339	277.588	83.5225	277.588	82.6303	277.588	83.3069	277.588	82.3816	277.588	83.0989	277.588	82.2113	277.588	82.9082	277.588	82.1276	277.588	82.7434	277.588	82.1209	277.588	82.6085	277.588	82.1676	277.588	82.5001	277.588	82.2417	277.588	82.4088	277.588	82.3243
287.109	84.9507	287.109	84.9243	287.109	84.9361	287.109	84.8576	287.109	84.8802	287.109	84.7511	287.109	84.7834	287.109	84.605	287.109	84.6479	287.109	84.4193	287.109	84.4775	287.109	84.1951	287.109	84.2779	287.109	83.9358	287.109	84.0566	287.109	83.6489	287.109	83.8225	287.109	83.3479	287.109	83.5856	287.109	83.0525	287.109	83.3568	287.109	82.7873	287.109	83.147	287.109	82.5767	287.109	82.9664	287.109	82.4377	287.109	82.8222	287.109	82.3732	287.109	82.7166	287.109	82.371	287.109	82.6448	287.109	82.4083	287.109	82.5959	287.109	82.4613	287.109	82.5558	287.109	82.5125
297.363	85.5519	297.363	85.5266	297.363	85.5364	297.363	85.464	297.363	85.4757	297.363	85.3671	297.363	85.3654	297.363	85.237	297.363	85.2013	297.363	85.0732	297.363	84.9802	297.363	84.8734	297.363	84.7007	297.363	84.6354	297.363	84.3651	297.363	84.3583	297.363	83.9811	297.363	84.0456	297.363	83.565	297.363	83.7078	297.363	83.1427	297.363	83.3636	297.363	82.749	297.363	83.0388	297.363	82.4218	297.363	82.7604	297.363	82.1912	297.363	82.5476	297.363	82.0678	297.363	82.4031	297.363	82.0379	297.363	82.3122	297.363	82.0704	297.363	82.2498	297.363	82.1304	297.363	82.1927
307.617	85.5662	307.617	85.4761	307.617	85.6165	307.617	85.3514	307.617	85.6235	307.617	85.199	307.617	85.5855	307.617	85.0258	307.617	85.5015	307.617	84.8374	307.617	85.3709	307.617	84.6376	307.617	85.193	307.617	84.4276	307.617	84.9672	307.617	84.2077	307.617	84.6948	307.617	83.9795	307.617	84.3811	307.617	83.7482	307.617	84.0378	307.617	83.524	307.617	83.6858	307.617	83.321	307.617	83.3542	307.617	83.1535	307.617	83.0762	307.617	83.0295	307.617	82.8788	307.617	82.9465	307.617	82.7714	307.617	82.8915	307.617	82.7418	307.617	82.8476	307.617	82.7624	307.617	82.8038
318.604	85.5038	318.604	85.4343	318.604	85.5307	318.604	85.3204	318.604	85.5173	318.604	85.1619	318.604	85.4656	318.604	84.9601	318.604	85.3766	318.604	84.7183	318.604	85.2487	318.604	84.4412	318.604	85.0788	318.604	84.1355	318.604	84.8621	318.604	83.8095	318.604	84.5948	318.604	83.4745	318.604	84.2766	318.604	83.1448	318.604	83.9137	318.604	82.8383	318.604	83.5223	318.604	82.574	318.604	83.13	318.604	82.3682	318.604	82.7723	318.604	82.2282	318.604	82.4837	318.604	82.1487	318.604	82.2841	318.604	82.1133	318.604	82.1704	318.604	82.1025	318.604	82.1198	318.604	82.1037
329.59	85.2607	329.59	85.242	329.59	85.2521	329.59	85.192	329.59	85.2215	329.59	85.1075	329.59	85.1741	329.59	84.9851	329.59	85.114	329.59	84.8213	329.59	85.0416	329.59	84.6121	329.59	84.952	329.59	84.3545	329.59	84.835	329.59	84.0484	329.59	84.6768	329.59	83.6995	329.59	84.4635	329.59	83.3217	329.59	84.1851	329.59	82.9386	329.59	83.8406	329.59	82.5809	329.59	83.4424	329.59	82.2793	329.59	83.0186	329.59	82.0538	329.59	82.6113	329.59	81.9062	329.59	82.2659	329.59	81.8229	329.59	82.0147	329.59	81.7878	329.59	81.8643	329.59	81.7969
341.309	84.0182	341.309	84.054	341.309	83.953	341.309	84.07	341.309	83.8559	341.309	84.0786	341.309	83.733	341.309	84.0891	341.309	83.5981	341.309	84.1029	341.309	83.4686	341.309	84.111	341.309	83.3595	341.309	84.0961	341.309	83.278	341.309	84.0368	341.309	83.2202	341.309	83.9134	341.309	83.1726	341.309	83.7135	341.309	83.1166	341.309	83.4367	341.309	83.0343	341.309	83.0973	341.309	82.9142	341.309	82.7264	341.309	82.7532	341.309	82.3689	341.309	82.5586	341.309	82.0738	341.309	82.346	341.309	81.88	341.309	82.1373	341.309	81.8039	341.309	81.9584	341.309	81.8377
353.76	83.4378	353.76	83.3196	353.76	83.4784	353.76	83.1537	353.76	83.4341	353.76	82.9897	353.76	83.3192	353.76	82.8868	353.76	83.1656	353.76	82.8928	353.76	83.0159	353.76	83.0223	353.76	82.9117	353.76	83.2491	353.76	82.8788	353.76	83.519	353.76	82.9167	353.76	83.7716	353.76	83.0006	353.76	83.9574	353.76	83.0923	353.76	84.0446	353.76	83.1549	353.76	84.0203	353.76	83.1637	353.76	83.8896	353.76	83.1114	353.76	83.6742	353.76	83.0095	353.76	83.4102	353.76	82.8865	353.76	83.1436	353.76	82.7819	353.76	82.9212	353.76	82.7364	353.76	82.78
366.211	86.3748	366.211	86.1639	366.211	86.4051	366.211	85.7682	366.211	86.2645	366.211	85.192	366.211	85.9682	366.211	84.4594	366.211	85.5403	366.211	83.6328	366.211	85.0193	366.211	82.8415	366.211	84.4654	366.211	82.2871	366.211	83.9628	366.211	82.1631	366.211	83.6069	366.211	82.5021	366.211	83.4707	366.211	83.1445	366.211	83.5668	366.211	83.8795	366.211	83.8427	366.211	84.5583	366.211	84.2149	366.211	85.109	366.211	84.608	366.211	85.5097	366.211	84.9727	366.211	85.7658	366.211	85.2852	366.211	85.8953	366.211	85.538	366.211	85.9201	366.211	85.7303	366.211	85.8602
378.662	87.8935	378.662	87.7609	378.662	87.8814	378.662	87.4782	378.662	87.7293	378.662	87.0393	378.662	87.4417	378.662	86.4398	378.662	87.0257	378.662	85.6828	378.662	86.4953	378.662	84.7912	378.662	85.8777	378.662	83.8322	378.662	85.2235	378.662	82.952	378.662	84.6142	378.662	82.3827	378.662	84.1583	378.662	82.3342	378.662	83.9572	378.662	82.8059	378.662	84.0499	378.662	83.5838	378.662	84.3864	378.662	84.428	378.662	84.8613	378.662	85.1861	378.662	85.368	378.662	85.7875	378.662	85.8277	378.662	86.2091	378.662	86.1909	378.662	86.4501	378.662	86.4277	378.662	86.519
392.578	87.1884	392.578	87.1282	392.578	87.1372	392.578	86.952	392.578	86.9773	392.578	86.6537	392.578	86.7104	392.578	86.2269	392.578	86.3386	392.578	85.6676	392.578	85.8676	392.578	84.9788	392.578	85.3116	392.578	84.1809	392.578	84.7012	392.578	83.3286	392.578	84.0912	392.578	82.5338	392.578	83.5653	392.578	81.969	392.578	83.2224	392.578	81.8012	392.578	83.1363	392.578	82.0667	392.578	83.3096	392.578	82.6341	392.578	83.6675	392.578	83.3116	392.578	84.1	392.578	83.9499	392.578	84.5068	392.578	84.4641	392.578	84.8165	392.578	84.8149	392.578	84.9853	392.578	84.9885
405.762	87.1028	405.762	87.0732	405.762	87.0144	405.762	86.9278	405.762	86.8029	405.762	86.6656	405.762	86.4612	405.762	86.2822	405.762	85.982	405.762	85.7726	405.762	85.3615	405.762	85.1347	405.762	84.6059	405.762	84.3774	405.762	83.7452	405.762	83.5354	405.762	82.8575	405.762	82.6923	405.762	82.0959	405.762	81.9994	405.762	81.6725	405.762	81.6487	405.762	81.7374	405.762	81.7566	405.762	82.2378	405.762	82.2582	405.762	82.9627	405.762	82.9612	405.762	83.7011	405.762	83.6785	405.762	84.319	405.762	84.2878	405.762	84.7492	405.762	84.7236	405.762	84.9634	405.762	84.9537
420.41	87.1656	420.41	87.0561	420.41	87.1967	420.41	86.8694	420.41	87.1415	420.41	86.6006	420.41	86.9864	420.41	86.2396	420.41	86.7132	420.41	85.7745	420.41	86.3005	420.41	85.195	420.41	85.7253	420.41	84.5011	420.41	84.967	420.41	83.7156	420.41	84.0146	420.41	82.906	420.41	82.8875	420.41	82.2058	420.41	81.682	420.41	81.7983	420.41	80.6448	420.41	81.8143	420.41	80.1616	420.41	82.2124	420.41	80.4505	420.41	82.8055	420.41	81.283	420.41	83.3936	420.41	82.2551	420.41	83.8382	420.41	83.0994	420.41	84.0608	420.41	83.7	420.41	84.0209
435.059	86.6649	435.059	86.5919	435.059	86.6688	435.059	86.4385	435.059	86.6077	435.059	86.1881	435.059	86.4777	435.059	85.821	435.059	86.2674	435.059	85.3183	435.059	85.9596	435.059	84.6651	435.059	85.5338	435.059	83.8588	435.059	84.9703	435.059	82.9238	435.059	84.2563	435.059	81.9405	435.059	83.3991	435.059	81.0811	435.059	82.4517	435.059	80.5971	435.059	81.5527	435.059	80.6642	435.059	80.9435	435.059	81.2024	435.059	80.8541	435.059	81.9489	435.059	81.2827	435.059	82.6616	435.059	81.9827	435.059	83.1952	435.059	82.6822	435.059	83.4792	435.059	83.2096	435.059	83.4846
450.439	86.5789	450.439	86.5756	450.439	86.5335	450.439	86.512	450.439	86.4435	450.439	86.3698	450.439	86.305	450.439	86.1243	450.439	86.1071	450.439	85.7466	450.439	85.832	450.439	85.2048	450.439	85.4571	450.439	84.4674	450.439	84.9584	450.439	83.5105	450.439	84.3157	450.439	82.3381	450.439	83.5228	450.439	81.0351	450.439	82.6087	450.439	79.8693	450.439	81.6747	450.439	79.3161	450.439	80.9301	450.439	79.6613	450.439	80.6383	450.439	80.5952	450.439	80.9003	450.439	81.6108	450.439	81.5266	450.439	82.4076	450.439	82.2145	450.439	82.8712	450.439	82.7383	450.439	82.9759
466.553	86.2376	466.553	86.2165	466.553	86.2065	466.553	86.1439	466.553	86.1178	466.553	86.0147	466.553	85.9626	466.553	85.8166	466.553	85.7287	466.553	85.5303	466.553	85.4011	466.553	85.1319	466.553	84.9624	466.553	84.5957	466.553	84.3958	466.553	83.902	466.553	83.69	466.553	83.0497	466.553	82.8515	466.553	82.0843	466.553	81.9283	466.553	81.1433	466.553	81.0481	466.553	80.4833	466.553	80.4359	466.553	80.3607	466.553	80.3145	466.553	80.7745	466.553	80.6957	466.553	81.4489	466.553	81.3475	466.553	82.0864	466.553	81.9948	466.553	82.5078	466.553	82.4546	466.553	82.6358
482.666	85.8633	482.666	85.8423	482.666	85.8487	482.666	85.7795	482.666	85.7992	482.666	85.6635	482.666	85.7091	482.666	85.4775	482.666	85.5652	482.666	85.1996	482.666	85.3467	482.666	84.8029	482.666	85.0256	482.666	84.2581	482.666	84.5701	482.666	83.5379	482.666	83.9474	482.666	82.6285	482.666	83.1312	482.666	81.5555	482.666	82.1172	482.666	80.4403	482.666	80.9634	482.666	79.5662	482.666	79.866	482.666	79.2951	482.666	79.2026	482.666	79.7068	482.666	79.2875	482.666	80.4699	482.666	79.9692	482.666	81.1941	482.666	80.7992	482.666	81.649	482.666	81.4399	482.666	81.7379
500.244	85.5201	500.244	85.4806	500.244	85.5215	500.244	85.4042	500.244	85.4807	500.244	85.2846	500.244	85.3937	500.244	85.1041	500.244	85.2553	500.244	84.8347	500.244	85.0555	500.244	84.442	500.244	84.7755	500.244	83.8926	500.244	84.3879	500.244	83.1628	500.244	83.8589	500.244	82.2538	500.244	83.1564	500.244	81.2241	500.244	82.2664	500.244	80.2417	500.244	81.227	500.244	79.6041	500.244	80.191	500.244	79.5691	500.244	79.4716	500.244	80.0691	500.244	79.3851	500.244	80.7696	500.244	79.8984	500.244	81.3649	500.244	80.6488	500.244	81.6858	500.244	81.2971	500.244	81.6643
517.822	85.4007	517.822	85.4043	517.822	85.3169	517.822	85.3304	517.822	85.1621	517.822	85.1886	517.822	84.9577	517.822	84.9868	517.822	84.7311	517.822	84.7218	517.822	84.5026	517.822	84.3724	517.822	84.2713	517.822	83.8988	517.822	84.0069	517.822	83.2478	517.822	83.6544	517.822	82.3645	517.822	83.1476	517.822	81.2177	517.822	82.4291	517.822	79.8711	517.822	81.4792	517.822	78.6434	517.822	80.3793	517.822	78.1796	517.822	79.4195	517.822	78.7974	517.822	79.083	517.822	79.9415	517.822	79.5658	517.822	80.9612	517.822	80.4589	517.822	81.5581	517.822	81.2473	517.822	81.6489
536.133	86.0343	536.133	85.9093	536.133	86.024	536.133	85.679	536.133	85.8635	536.133	85.3856	536.133	85.5509	536.133	85.0691	536.133	85.0932	536.133	84.7472	536.133	84.5024	536.133	84.3978	536.133	83.7931	536.133	83.9592	536.133	82.9806	536.133	83.3456	536.133	82.0787	536.133	82.466	536.133	81.1	536.133	81.2446	536.133	80.0656	536.133	79.6693	536.133	79.0375	536.133	77.9514	536.133	78.1787	536.133	76.8221	536.133	77.772	536.133	77.0946	536.133	78.0241	536.133	78.3098	536.133	78.7813	536.133	79.5163	536.133	79.6487	536.133	80.2891	536.133	80.2967	536.133	80.5402
554.443	85.9983	554.443	85.8942	554.443	85.9928	554.443	85.6866	554.443	85.8874	554.443	85.3945	554.443	85.7056	554.443	85.0413	554.443	85.4747	554.443	84.6424	554.443	85.2096	554.443	84.1932	554.443	84.8967	554.443	83.664	554.443	84.4887	554.443	83.0047	554.443	83.9104	554.443	82.1614	554.443	83.0728	554.443	81.1061	554.443	81.8862	554.443	79.8939	554.443	80.2897	554.443	78.7626	554.443	78.3595	554.443	78.1549	554.443	76.6363	554.443	78.3452	554.443	76.2413	554.443	79.044	554.443	77.2909	554.443	79.7574	554.443	78.6524	554.443	80.1767	554.443	79.6604	554.443	80.1649
574.219	86.284	574.219	86.114	574.219	86.3253	574.219	85.8475	574.219	86.2287	574.219	85.5365	574.219	86.0052	574.219	85.2366	574.219	85.6814	574.219	84.9752	574.219	85.2917	574.219	84.7223	574.219	84.8638	574.219	84.3891	574.219	84.4006	574.219	83.8536	574.219	83.8668	574.219	82.987	574.219	83.19	574.219	81.6707	574.219	82.2769	574.219	79.8394	574.219	81.0431	574.219	77.6974	574.219	79.4814	574.219	76.3151	574.219	77.8565	574.219	76.9326	574.219	76.9723	574.219	78.529	574.219	77.488	574.219	79.83	574.219	78.7513	574.219	80.4905	574.219	79.8752	574.219	80.4912
594.727	85.8229	594.727	85.689	594.727	85.803	594.727	85.4174	594.727	85.6348	594.727	85.0425	594.727	85.3473	594.727	84.6103	594.727	84.992	594.727	84.1611	594.727	84.6295	594.727	83.7063	594.727	84.2974	594.727	83.2098	594.727	83.9742	594.727	82.5937	594.727	83.5712	594.727	81.7678	594.727	82.9602	594.727	80.6846	594.727	82.0133	594.727	79.446	594.727	80.6537	594.727	78.4795	594.727	78.9921	594.727	78.423	594.727	77.6714	594.727	79.2991	594.727	77.7442	594.727	80.4513	594.727	79.0269	594.727	81.3764	594.727	80.4325	594.727	81.882	594.727	81.4287	594.727	81.9089
615.234	85.5966	615.234	85.5145	615.234	85.6118	615.234	85.3994	615.234	85.5534	615.234	85.2905	615.234	85.4426	615.234	85.1977	615.234	85.3085	615.234	85.0743	615.234	85.1558	615.234	84.8195	615.234	84.937	615.234	84.3042	615.234	84.5522	615.234	83.3944	615.234	83.8697	615.234	81.9636	615.234	82.7494	615.234	79.934	615.234	81.073	615.234	77.5176	615.234	78.8725	615.234	75.9667	615.234	76.8561	615.234	76.7117	615.234	76.6974	615.234	78.4633	615.234	78.2177	615.234	79.9273	615.234	79.7898	615.234	80.8858	615.234	80.8549	615.234	81.4143	615.234	81.4223	615.234	81.5892
637.207	85.8583	637.207	85.4163	637.207	85.8536	637.207	84.6274	637.207	85.4214	637.207	83.8356	637.207	84.7026	637.207	83.6594	637.207	84.0624	637.207	84.3648	637.207	84.035	637.207	85.409	637.207	84.7428	637.207	86.1452	637.207	85.6599	637.207	86.2016	637.207	86.216	637.207	85.3083	637.207	86.0526	637.207	83.0276	637.207	84.8564	637.207	78.0568	637.207	82.0458	637.207	56.0464	637.207	75.5672	637.207	76.8913	637.207	64.3761	637.207	82.8832	637.207	79.3726	637.207	85.8139	637.207	84.0951	637.207	87.3948	637.207	86.5162	637.207	88.1489	637.207	87.7751	637.207	88.2704
659.912	87.5892	659.912	87.2128	659.912	87.5641	659.912	86.3865	659.912	87.136	659.912	85.0422	659.912	86.2613	659.912	83.2467	659.912	84.9115	659.912	81.7551	659.912	83.2939	659.912	82.109	659.912	82.3601	659.912	83.8754	659.912	83.1701	659.912	85.4353	659.912	84.8341	659.912	86.1603	659.912	86.1124	659.912	85.8681	659.912	86.541	659.912	84.3428	659.912	85.9155	659.912	81.0601	659.912	83.9285	659.912	75.1025	659.912	79.823	659.912	75.6169	659.912	73.1194	659.912	81.2374	659.912	77.6272	659.912	84.2628	659.912	82.5308	659.912	85.6655	659.912	84.9474	659.912	85.8821
683.35	87.91	683.35	87.6907	683.35	87.8552	683.35	87.1483	683.35	87.5167	683.35	86.18	683.35	86.8277	683.35	84.6609	683.35	85.6762	683.35	82.6041	683.35	83.9492	683.35	80.8408	683.35	81.778	683.35	81.2368	683.35	80.3964	683.35	83.0986	683.35	81.4037	683.35	84.5382	683.35	83.2888	683.35	84.9424	683.35	84.4797	683.35	84.0966	683.35	84.5529	683.35	81.5907	683.35	83.2551	683.35	76.0175	683.35	79.9381	683.35	64.9621	683.35	71.9574	683.35	76.6702	683.35	70.8642	683.35	81.2559	683.35	79.1392	683.35	83.1718	683.35	82.3654	683.35	83.5065
706.787	88.917	706.787	88.7057	706.787	88.9393	706.787	88.271	706.787	88.7587	706.787	87.5213	706.787	88.3136	706.787	86.3	706.787	87.4906	706.787	84.4027	706.787	86.1214	706.787	81.8007	706.787	84.0138	706.787	79.9384	706.787	81.2648	706.787	81.3123	706.787	79.7259	706.787	83.5634	706.787	81.3199	706.787	84.7633	706.787	83.302	706.787	84.6056	706.787	84.1497	706.787	82.8837	706.787	83.6023	706.787	78.9443	706.787	81.3416	706.787	71.8138	706.787	76.426	706.787	75.264	706.787	71.1854	706.787	80.1759	706.787	77.4543	706.787	82.2587	706.787	81.154	706.787	82.5423
731.689	89.2371	731.689	89.1783	731.689	89.1972	731.689	88.9887	731.689	89.0545	731.689	88.5967	731.689	88.7661	731.689	87.8854	731.689	88.2428	731.689	86.6966	731.689	87.3453	731.689	84.8774	731.689	85.8959	731.689	82.5688	731.689	83.7705	731.689	81.2095	731.689	81.4623	731.689	82.3374	731.689	81.1474	731.689	84.032	731.689	83.0006	731.689	84.7767	731.689	84.558	731.689	84.1795	731.689	84.9253	731.689	81.9047	731.689	83.8615	731.689	77.0799	731.689	80.9609	731.689	69.5293	731.689	75.0164	731.689	74.5135	731.689	68.9854	731.689	77.9225	731.689	75.5645	731.689	78.2083
758.057	88.9645	758.057	88.902	758.057	88.9381	758.057	88.7278	758.057	88.8274	758.057	88.393	758.057	88.6119	758.057	87.8136	758.057	88.2292	758.057	86.8754	758.057	87.5662	758.057	85.4794	758.057	86.4773	758.057	83.7164	758.057	84.8464	758.057	82.3134	758.057	82.8193	758.057	82.3692	758.057	81.4087	758.057	83.3281	758.057	81.8136	758.057	83.86	758.057	82.9388	758.057	83.3105	758.057	83.3784	758.057	81.2722	758.057	82.5874	758.057	76.9528	758.057	80.1604	758.057	67.0937	758.057	75.1068	758.057	66.9906	758.057	63.3003	758.057	73.0703	758.057	69.3809	758.057	73.5286
784.424	88.8411	784.424	88.6889	784.424	88.8516	784.424	88.4025	784.424	88.7135	784.424	87.9715	784.424	88.4215	784.424	87.3468	784.424	87.9575	784.424	86.4444	784.424	87.2723	784.424	85.2091	784.424	86.2865	784.424	83.7913	784.424	84.9405	784.424	82.7951	784.424	83.3614	784.424	82.8284	784.424	82.1762	784.424	83.3968	784.424	82.1569	784.424	83.5569	784.424	82.8092	784.424	82.728	784.424	83.0061	784.424	80.4452	784.424	82.0419	784.424	75.8009	784.424	79.3154	784.424	67.2647	784.424	73.5132	784.424	71.6247	784.424	66.1791	784.424	75.6233	784.424	73.351	784.424	76.0899
812.256	88.2933	812.256	88.2153	812.256	88.2796	812.256	88.0283	812.256	88.1735	812.256	87.6876	812.256	87.9495	812.256	87.1052	812.256	87.5466	812.256	86.1426	812.256	86.8647	812.256	84.6439	812.256	85.7729	812.256	82.624	812.256	84.1587	812.256	80.9244	812.256	82.1691	812.256	81.1013	812.256	80.8378	812.256	82.3122	812.256	81.289	812.256	82.8594	812.256	82.3167	812.256	82.0933	812.256	82.5235	812.256	79.5762	812.256	81.3262	812.256	74.2301	812.256	78.1034	812.256	67.2585	812.256	71.0561	812.256	74.0518	812.256	68.9148	812.256	77.4035	812.256	75.6074	812.256	77.8475
840.82	88.071	840.82	87.963	840.82	88.0424	840.82	87.7446	840.82	87.8865	840.82	87.4325	840.82	87.6487	840.82	86.9758	840.82	87.3566	840.82	86.2307	840.82	86.9393	840.82	84.995	840.82	86.2022	840.82	83.1243	840.82	84.8894	840.82	80.988	840.82	82.8254	840.82	80.3191	840.82	80.4645	840.82	81.6151	840.82	79.8874	840.82	82.743	840.82	81.3348	840.82	82.5869	840.82	82.3827	840.82	80.6683	840.82	82.0051	840.82	76.0104	840.82	79.6607	840.82	63.4866	840.82	73.8393	840.82	70.5546	840.82	58.912	840.82	75.5294	840.82	72.8893	840.82	76.1017
870.85	87.6625	870.85	87.5084	870.85	87.6826	870.85	87.2425	870.85	87.5593	870.85	86.8803	870.85	87.2966	870.85	86.4011	870.85	86.8999	870.85	85.7163	870.85	86.3572	870.85	84.6465	870.85	85.5992	870.85	82.9465	870.85	84.456	870.85	80.5528	870.85	82.6942	870.85	78.748	870.85	80.3823	870.85	79.7607	870.85	79.1077	870.85	81.5454	870.85	80.3262	870.85	82.1694	870.85	81.742	870.85	81.1953	870.85	81.9138	870.85	78.2556	870.85	80.5075	870.85	72.3141	870.85	77.1533	870.85	63.1328	870.85	70.8403	870.85	67.7984	870.85	64.5007	870.85	68.3943
901.611	87.8321	901.611	87.5819	901.611	87.8229	901.611	87.1083	901.611	87.5647	901.611	86.514	901.611	87.1132	901.611	85.9619	901.611	86.5778	901.611	85.5446	901.611	86.077	901.611	85.0892	901.611	85.6036	901.611	84.1783	901.611	84.9274	901.611	82.3763	901.611	83.6736	901.611	79.6982	901.611	81.4834	901.611	78.331	901.611	78.5497	901.611	79.9286	901.611	77.5776	901.611	81.2829	901.611	79.3818	901.611	81.025	901.611	80.4302	901.611	78.7768	901.611	79.6095	901.611	73.6425	901.611	76.4713	901.611	63.7339	901.611	69.7598	901.611	67.4635	901.611	64.1662	901.611	68.7969
933.105	88.5063	933.105	88.2841	933.105	88.462	933.105	87.8139	933.105	88.1431	933.105	87.1222	933.105	87.5561	933.105	86.2528	933.105	86.7315	933.105	85.2825	933.105	85.7512	933.105	84.2908	933.105	84.7588	933.105	83.2668	933.105	83.8585	933.105	82.0684	933.105	82.9562	933.105	80.588	933.105	81.838	933.105	79.1776	933.105	80.5647	933.105	78.7451	933.105	79.7992	933.105	79.1097	933.105	79.9319	933.105	78.9178	933.105	80.0801	933.105	77.3581	933.105	79.3315	933.105	74.5818	933.105	77.4925	933.105	72.9941	933.105	75.409	933.105	73.9915	933.105	74.7107	933.105	74.7472
966.064	88.0996	966.064	87.8947	966.064	88.0753	966.064	87.4844	966.064	87.8036	966.064	86.8825	966.064	87.2887	966.064	86.0882	966.064	86.5595	966.064	85.0995	966.064	85.6549	966.064	83.9355	966.064	84.6112	966.064	82.6365	966.064	83.4661	966.064	81.2405	966.064	82.2483	966.064	79.8458	966.064	80.9505	966.064	78.7726	966.064	79.6416	966.064	78.2774	966.064	78.7046	966.064	77.934	966.064	78.339	966.064	76.9914	966.064	77.7368	966.064	75.0139	966.064	75.8623	966.064	72.865	966.064	72.7527	966.064	73.6816	966.064	72.6068	966.064	75.8101	966.064	75.2848	966.064	76.512
999.756	87.4288	999.756	87.2949	999.756	87.3951	999.756	86.9673	999.756	87.201	999.756	86.4266	999.756	86.8217	999.756	85.6754	999.756	86.2183	999.756	84.7224	999.756	85.3764	999.756	83.5463	999.756	84.3192	999.756	82.128	999.756	83.0709	999.756	80.6687	999.756	81.6495	999.756	79.8188	999.756	80.244	999.756	79.9875	999.756	79.4116	999.756	80.4434	999.756	79.4368	999.756	80.1942	999.756	79.6192	999.756	78.5463	999.756	79.0735	999.756	74.9189	999.756	77.1293	999.756	70.8534	999.756	73.1369	999.756	73.3853	999.756	70.4454	999.756	76.0918	999.756	74.3125	999.756	76.4619
1,034.91	87.1593	1,034.91	86.8618	1,034.91	87.1836	1,034.91	86.3674	1,034.91	86.9132	1,034.91	85.776	1,034.91	86.3764	1,034.91	85.129	1,034.91	85.6463	1,034.91	84.3694	1,034.91	84.8068	1,034.91	83.3978	1,034.91	83.8743	1,034.91	82.1068	1,034.91	82.7525	1,034.91	80.367	1,034.91	81.303	1,034.91	78.3374	1,034.91	79.5686	1,034.91	77.3687	1,034.91	78.2261	1,034.91	78.1981	1,034.91	78.24	1,034.91	78.8338	1,034.91	78.863	1,034.91	77.9028	1,034.91	78.5848	1,034.91	74.7118	1,034.91	76.4235	1,034.91	69.5923	1,034.91	71.5769	1,034.91	71.4742	1,034.91	69.5998	1,034.91	74.8593	1,034.91	73.8993	1,034.91	75.6451
1,071.53	86.7839	1,071.53	86.5424	1,071.53	86.712	1,071.53	85.9967	1,071.53	86.3866	1,071.53	85.2594	1,071.53	85.8834	1,071.53	84.4959	1,071.53	85.2433	1,071.53	83.7434	1,071.53	84.4434	1,071.53	82.7885	1,071.53	83.4159	1,071.53	81.3064	1,071.53	82.0963	1,071.53	79.1519	1,071.53	80.435	1,071.53	76.9907	1,071.53	78.3993	1,071.53	76.6758	1,071.53	76.4824	1,071.53	77.7984	1,071.53	76.5497	1,071.53	78.3048	1,071.53	78.1344	1,071.53	77.2458	1,071.53	78.6644	1,071.53	73.9059	1,071.53	76.997	1,071.53	69.4016	1,071.53	72.4784	1,071.53	72.7727	1,071.53	69.3714	1,071.53	75.6895	1,071.53	73.5962	1,071.53	75.8747
1,109.62	86.3991	1,109.62	86.1521	1,109.62	86.3237	1,109.62	85.597	1,109.62	85.9719	1,109.62	84.7969	1,109.62	85.414	1,109.62	83.8487	1,109.62	84.6864	1,109.62	82.8512	1,109.62	83.7965	1,109.62	81.7816	1,109.62	82.7914	1,109.62	80.42	1,109.62	81.7468	1,109.62	78.5002	1,109.62	80.5892	1,109.62	76.0635	1,109.62	78.9732	1,109.62	74.4716	1,109.62	76.6106	1,109.62	75.5726	1,109.62	74.8809	1,109.62	77.1906	1,109.62	76.1172	1,109.62	77.1806	1,109.62	77.2288	1,109.62	74.4268	1,109.62	75.9099	1,109.62	67.9091	1,109.62	70.6371	1,109.62	70.7299	1,109.62	61.9148	1,109.62	74.5624	1,109.62	71.4671	1,109.62	74.7251
1,148.44	86.5133	1,148.44	86.1794	1,148.44	86.4833	1,148.44	85.4937	1,148.44	86.1264	1,148.44	84.5278	1,148.44	85.5133	1,148.44	83.4382	1,148.44	84.7093	1,148.44	82.4099	1,148.44	83.7767	1,148.44	81.4746	1,148.44	82.8141	1,148.44	80.4088	1,148.44	81.8836	1,148.44	78.8184	1,148.44	80.8276	1,148.44	76.4542	1,148.44	79.2815	1,148.44	74.5861	1,148.44	77.0279	1,148.44	75.5141	1,148.44	74.9493	1,148.44	76.5384	1,148.44	75.1264	1,148.44	75.2908	1,148.44	76.1032	1,148.44	70.454	1,148.44	75.3302	1,148.44	63.6147	1,148.44	70.8501	1,148.44	70.7025	1,148.44	63.3306	1,148.44	74.2573	1,148.44	72.1726	1,148.44	74.8988
1,189.45	86.5186	1,189.45	86.1117	1,189.45	86.5371	1,189.45	85.3673	1,189.45	86.1774	1,189.45	84.3794	1,189.45	85.5081	1,189.45	83.2749	1,189.45	84.6483	1,189.45	82.2443	1,189.45	83.7546	1,189.45	81.4475	1,189.45	82.97	1,189.45	80.6153	1,189.45	82.2629	1,189.45	78.9616	1,189.45	81.2741	1,189.45	75.6553	1,189.45	79.4746	1,189.45	72.3205	1,189.45	76.6851	1,189.45	75.1168	1,189.45	74.7449	1,189.45	77.4436	1,189.45	76.132	1,189.45	76.798	1,189.45	77.4508	1,189.45	72.0554	1,189.45	76.4812	1,189.45	55.7575	1,189.45	71.5147	1,189.45	72.4246	1,189.45	59.6169	1,189.45	76.3293	1,189.45	72.8528	1,189.45	76.4188
1,231.2	87.109	1,231.2	86.893	1,231.2	87.0839	1,231.2	86.44	1,231.2	86.8129	1,231.2	85.7178	1,231.2	86.2821	1,231.2	84.5858	1,231.2	85.4625	1,231.2	82.8457	1,231.2	84.2773	1,231.2	80.77	1,231.2	82.633	1,231.2	79.7814	1,231.2	80.968	1,231.2	79.8271	1,231.2	80.5503	1,231.2	78.7919	1,231.2	80.701	1,231.2	74.7964	1,231.2	79.4188	1,231.2	70.8206	1,231.2	75.5939	1,231.2	77.8433	1,231.2	75.1735	1,231.2	80.6362	1,231.2	79.5471	1,231.2	79.9487	1,231.2	80.7894	1,231.2	76.2328	1,231.2	78.875	1,231.2	72.191	1,231.2	73.6496	1,231.2	73.6086	1,231.2	70.3769	1,231.2	73.5206
1,274.41	86.4641	1,274.41	86.2025	1,274.41	86.5135	1,274.41	85.8031	1,274.41	86.2782	1,274.41	85.4303	1,274.41	85.8471	1,274.41	85.27	1,274.41	85.5251	1,274.41	84.9738	1,274.41	85.3673	1,274.41	83.696	1,274.41	84.8247	1,274.41	80.8787	1,274.41	83.1198	1,274.41	78.0249	1,274.41	79.9995	1,274.41	78.727	1,274.41	78.1602	1,274.41	79.2511	1,274.41	79.5687	1,274.41	76.274	1,274.41	79.5019	1,274.41	68.0192	1,274.41	75.5329	1,274.41	75.5544	1,274.41	71.5025	1,274.41	79.6008	1,274.41	77.2911	1,274.41	80.2372	1,274.41	79.716	1,274.41	78.9898	1,274.41	79.9736	1,274.41	77.5354	1,274.41	79.0339	1,274.41	77.713
1,319.82	87.6651	1,319.82	87.3391	1,319.82	87.6563	1,319.82	86.6153	1,319.82	87.2554	1,319.82	85.5276	1,319.82	86.3337	1,319.82	84.4979	1,319.82	84.9959	1,319.82	84.1351	1,319.82	83.9462	1,319.82	84.1071	1,319.82	83.8517	1,319.82	83.37	1,319.82	83.8106	1,319.82	81.2126	1,319.82	82.4593	1,319.82	77.8719	1,319.82	79.0154	1,319.82	77.3653	1,319.82	75.4458	1,319.82	78.7486	1,319.82	77.4354	1,319.82	77.6245	1,319.82	78.3063	1,319.82	71.6685	1,319.82	75.8111	1,319.82	67.0468	1,319.82	66.8709	1,319.82	76.6472	1,319.82	69.6941	1,319.82	80.0886	1,319.82	78.0027	1,319.82	81.578	1,319.82	81.1763	1,319.82	82.0455
1,365.97	86.9464	1,365.97	86.6725	1,365.97	87.0171	1,365.97	86.1336	1,365.97	86.7181	1,365.97	85.0986	1,365.97	85.8501	1,365.97	83.4398	1,365.97	84.3691	1,365.97	81.6526	1,365.97	82.4641	1,365.97	81.1271	1,365.97	80.9936	1,365.97	81.642	1,365.97	81.016	1,365.97	81.2308	1,365.97	81.2473	1,365.97	78.3794	1,365.97	79.7348	1,365.97	73.3569	1,365.97	74.7572	1,365.97	76.4478	1,365.97	72.1837	1,365.97	78.8873	1,365.97	77.4806	1,365.97	77.4242	1,365.97	78.9622	1,365.97	71.6601	1,365.97	77.2019	1,365.97	72.9219	1,365.97	71.6156	1,365.97	78.6548	1,365.97	75.144	1,365.97	81.3751	1,365.97	80.4211	1,365.97	82.0641
1,414.31	86.285	1,414.31	86.0746	1,414.31	86.1519	1,414.31	85.4883	1,414.31	85.8004	1,414.31	84.6477	1,414.31	85.2837	1,414.31	83.6045	1,414.31	84.536	1,414.31	82.232	1,414.31	83.386	1,414.31	80.6626	1,414.31	81.7063	1,414.31	79.6854	1,414.31	80.0058	1,414.31	79.5781	1,414.31	79.449	1,414.31	78.8262	1,414.31	79.4569	1,414.31	75.4929	1,414.31	77.9313	1,414.31	71.3902	1,414.31	72.6605	1,414.31	76.4087	1,414.31	72.1431	1,414.31	78.4069	1,414.31	78.0375	1,414.31	76.4494	1,414.31	79.4101	1,414.31	71.3358	1,414.31	76.7577	1,414.31	74.4115	1,414.31	70.9092	1,414.31	78.0694	1,414.31	75.5365	1,414.31	78.4969
1,464.11	85.9758	1,464.11	85.6635	1,464.11	85.9049	1,464.11	84.9596	1,464.11	85.554	1,464.11	83.9944	1,464.11	85.073	1,464.11	82.9243	1,464.11	84.5128	1,464.11	81.7461	1,464.11	83.6377	1,464.11	80.4461	1,464.11	82.1682	1,464.11	79.2698	1,464.11	80.4775	1,464.11	78.5278	1,464.11	79.5892	1,464.11	77.7617	1,464.11	79.2854	1,464.11	75.7093	1,464.11	77.9688	1,464.11	71.951	1,464.11	74.275	1,464.11	73.3444	1,464.11	70.8647	1,464.11	76.1853	1,464.11	75.5744	1,464.11	75.5521	1,464.11	77.8482	1,464.11	71.3056	1,464.11	76.2797	1,464.11	67.9089	1,464.11	69.6398	1,464.11	71.2216	1,464.11	68.356	1,464.11	72.3604
1,515.38	85.3256	1,515.38	84.818	1,515.38	85.4297	1,515.38	84.1517	1,515.38	85.1052	1,515.38	83.404	1,515.38	84.6103	1,515.38	82.4795	1,515.38	84.035	1,515.38	81.3419	1,515.38	83.104	1,515.38	80.0244	1,515.38	81.658	1,515.38	78.8773	1,515.38	80.0721	1,515.38	78.2936	1,515.38	79.129	1,515.38	77.4595	1,515.38	78.9098	1,515.38	75.0465	1,515.38	77.8999	1,515.38	70.6725	1,515.38	74.6118	1,515.38	72.77	1,515.38	71.0736	1,515.38	76.2151	1,515.38	75.1635	1,515.38	75.9651	1,515.38	77.4873	1,515.38	72.222	1,515.38	76.316	1,515.38	66.8547	1,515.38	70.4244	1,515.38	68.9228	1,515.38	66.7739	1,515.38	70.6834
1,568.85	85.3094	1,568.85	84.8342	1,568.85	85.3106	1,568.85	84.1935	1,568.85	84.7997	1,568.85	83.4765	1,568.85	84.0812	1,568.85	82.5713	1,568.85	83.3079	1,568.85	81.5866	1,568.85	82.2885	1,568.85	80.5232	1,568.85	81.0564	1,568.85	79.0648	1,568.85	79.8838	1,568.85	77.6905	1,568.85	78.6751	1,568.85	77.0179	1,568.85	77.7176	1,568.85	75.4919	1,568.85	77.1055	1,568.85	71.2066	1,568.85	74.9834	1,568.85	69.7504	1,568.85	71.0403	1,568.85	74.6682	1,568.85	73.7378	1,568.85	76.1353	1,568.85	75.9389	1,568.85	74.0529	1,568.85	74.885	1,568.85	67.1118	1,568.85	70.133	1,568.85	64.119	1,568.85	58.2556	1,568.85	65.6272
1,624.51	84.807	1,624.51	84.6472	1,624.51	84.7935	1,624.51	84.0291	1,624.51	84.5588	1,624.51	82.9061	1,624.51	83.8043	1,624.51	81.7506	1,624.51	82.6726	1,624.51	80.9596	1,624.51	81.7368	1,624.51	80.232	1,624.51	80.9302	1,624.51	78.9908	1,624.51	79.5889	1,624.51	77.2785	1,624.51	77.8984	1,624.51	76.0405	1,624.51	76.462	1,624.51	74.8892	1,624.51	75.1383	1,624.51	71.401	1,624.51	73.0655	1,624.51	68.1083	1,624.51	68.1282	1,624.51	74.1867	1,624.51	69.7566	1,624.51	76.217	1,624.51	74.5019	1,624.51	74.2215	1,624.51	74.5669	1,624.51	66.8632	1,624.51	70.345	1,624.51	53.8868	1,624.51	58.7484	1,624.51	56.0934
1,681.64	84.5998	1,681.64	84.4945	1,681.64	84.6378	1,681.64	84.0738	1,681.64	84.5561	1,681.64	83.1607	1,681.64	84.0436	1,681.64	81.8469	1,681.64	83.0524	1,681.64	80.4383	1,681.64	81.9302	1,681.64	79.2871	1,681.64	80.7943	1,681.64	78.4502	1,681.64	79.319	1,681.64	77.7741	1,681.64	77.6864	1,681.64	77.2028	1,681.64	76.5791	1,681.64	76.476	1,681.64	75.7147	1,681.64	74.1839	1,681.64	74.0582	1,681.64	70.0053	1,681.64	69.4046	1,681.64	73.6494	1,681.64	65.8538	1,681.64	76.0142	1,681.64	73.9736	1,681.64	74.2597	1,681.64	75.6514	1,681.64	68.0828	1,681.64	72.8669	1,681.64	52.815	1,681.64	64.8358	1,681.64	51.936
1,740.97	84.0901	1,740.97	83.6535	1,740.97	84.0186	1,740.97	83.0095	1,740.97	83.7295	1,740.97	82.6534	1,740.97	83.4423	1,740.97	82.0241	1,740.97	83.1245	1,740.97	80.3667	1,740.97	82.4909	1,740.97	78.0618	1,740.97	81.2141	1,740.97	76.3178	1,740.97	79.5063	1,740.97	75.5369	1,740.97	78.2491	1,740.97	75.2822	1,740.97	77.4807	1,740.97	75.1861	1,740.97	76.7817	1,740.97	74.0028	1,740.97	75.8531	1,740.97	69.3843	1,740.97	72.8996	1,740.97	69.3804	1,740.97	64.5751	1,740.97	73.352	1,740.97	70.235	1,740.97	72.0086	1,740.97	73.4776	1,740.97	65.7741	1,740.97	71.4629	1,740.97	52.7719	1,740.97	64.8043	1,740.97	58.866
1,802.49	85.2905	1,802.49	85.0009	1,802.49	85.0943	1,802.49	84.212	1,802.49	84.7142	1,802.49	83.2591	1,802.49	84.0875	1,802.49	82.3422	1,802.49	83.2745	1,802.49	81.3939	1,802.49	82.7531	1,802.49	80.0497	1,802.49	82.2062	1,802.49	78.0808	1,802.49	80.8528	1,802.49	76.7044	1,802.49	79.0062	1,802.49	76.0441	1,802.49	77.6397	1,802.49	74.915	1,802.49	76.4799	1,802.49	74.1269	1,802.49	75.8349	1,802.49	72.6782	1,802.49	75.3405	1,802.49	71.3679	1,802.49	72.2087	1,802.49	73.3394	1,802.49	69.2296	1,802.49	71.5804	1,802.49	72.3623	1,802.49	65.2709	1,802.49	70.4547	1,802.49	60.3881	1,802.49	62.045	1,802.49	60.7061
1,866.21	84.7504	1,866.21	84.3971	1,866.21	84.897	1,866.21	83.7682	1,866.21	84.5802	1,866.21	82.714	1,866.21	83.7663	1,866.21	81.8173	1,866.21	82.7549	1,866.21	81.5628	1,866.21	81.8949	1,866.21	81.0159	1,866.21	81.1096	1,866.21	79.2168	1,866.21	79.6217	1,866.21	77.3286	1,866.21	77.5487	1,866.21	76.7691	1,866.21	76.9099	1,866.21	75.4705	1,866.21	76.3804	1,866.21	73.5421	1,866.21	73.992	1,866.21	73.3924	1,866.21	74.1664	1,866.21	72.7304	1,866.21	74.842	1,866.21	71.9252	1,866.21	72.6386	1,866.21	70.8834	1,866.21	71.8007	1,866.21	67.5397	1,866.21	70.0865	1,866.21	69.2845	1,866.21	66.7162	1,866.21	69.4199
1,932.13	84.3614	1,932.13	83.8788	1,932.13	84.4891	1,932.13	83.5107	1,932.13	83.9407	1,932.13	83.0131	1,932.13	82.9528	1,932.13	82.1367	1,932.13	82.1396	1,932.13	81.4445	1,932.13	81.5054	1,932.13	80.7877	1,932.13	80.4696	1,932.13	79.2293	1,932.13	78.9379	1,932.13	77.3006	1,932.13	77.1259	1,932.13	76.272	1,932.13	75.4072	1,932.13	76.3756	1,932.13	75.2619	1,932.13	75.6458	1,932.13	75.2483	1,932.13	71.2489	1,932.13	72.9276	1,932.13	72.0474	1,932.13	68.2982	1,932.13	75.2674	1,932.13	72.761	1,932.13	73.6507	1,932.13	74.7366	1,932.13	64.1165	1,932.13	72.8299	1,932.13	61.2728	1,932.13	67.066	1,932.13	52.8305
2,000.24	85.1614	2,000.24	85.1526	2,000.24	85.2138	2,000.24	84.7084	2,000.24	85.0955	2,000.24	83.557	2,000.24	84.7368	2,000.24	82.2056	2,000.24	84.1755	2,000.24	81.0342	2,000.24	83.0907	2,000.24	79.5601	2,000.24	82.1023	2,000.24	77.0999	2,000.24	81.5205	2,000.24	75.2443	2,000.24	80.0751	2,000.24	74.9723	2,000.24	77.6164	2,000.24	72.8324	2,000.24	75.6883	2,000.24	72.7512	2,000.24	73.7629	2,000.24	73.2119	2,000.24	74.7531	2,000.24	68.4243	2,000.24	74.1457	2,000.24	70.9151	2,000.24	69.1206	2,000.24	71.7948	2,000.24	72.184	2,000.24	67.2233	2,000.24	70.3821	2,000.24	69.9844	2,000.24	68.8088	2,000.24	71.6119
2,070.56	85.9746	2,070.56	86.104	2,070.56	85.6918	2,070.56	86.0467	2,070.56	85.6842	2,070.56	85.2553	2,070.56	86.005	2,070.56	83.6088	2,070.56	85.4923	2,070.56	82.2554	2,070.56	83.905	2,070.56	81.1474	2,070.56	82.7291	2,070.56	78.9281	2,070.56	82.1547	2,070.56	76.5299	2,070.56	80.7149	2,070.56	75.2884	2,070.56	78.7714	2,070.56	73.1863	2,070.56	77.1786	2,070.56	72.0883	2,070.56	74.6723	2,070.56	73.3202	2,070.56	73.7482	2,070.56	72.9319	2,070.56	74.4036	2,070.56	73.9486	2,070.56	72.7421	2,070.56	74.8436	2,070.56	73.1056	2,070.56	69.2576	2,070.56	72.4093	2,070.56	66.6134	2,070.56	60.1395	2,070.56	69.8659
2,143.8	86.0741	2,143.8	86.0101	2,143.8	85.8862	2,143.8	85.6256	2,143.8	85.7352	2,143.8	85.2005	2,143.8	85.3882	2,143.8	84.4007	2,143.8	84.5826	2,143.8	83.1133	2,143.8	83.5067	2,143.8	82.3	2,143.8	82.0872	2,143.8	81.2845	2,143.8	80.5609	2,143.8	78.606	2,143.8	78.8792	2,143.8	76.902	2,143.8	77.3668	2,143.8	76.1857	2,143.8	77.3002	2,143.8	73.9318	2,143.8	75.5424	2,143.8	74.396	2,143.8	72.6797	2,143.8	73.6734	2,143.8	73.6728	2,143.8	74.323	2,143.8	74.1783	2,143.8	74.5569	2,143.8	76.7535	2,143.8	70.3101	2,143.8	75.4765	2,143.8	66.713	2,143.8	68.8337	2,143.8	67.5172
2,219.24	85.2395	2,219.24	85.035	2,219.24	84.7226	2,219.24	84.343	2,219.24	84.2957	2,219.24	83.5475	2,219.24	83.9465	2,219.24	82.9741	2,219.24	83.1531	2,219.24	82.372	2,219.24	82.4293	2,219.24	81.3905	2,219.24	81.8384	2,219.24	80.0654	2,219.24	80.9681	2,219.24	77.5713	2,219.24	79.5264	2,219.24	75.3639	2,219.24	76.2696	2,219.24	76.0665	2,219.24	73.8389	2,219.24	75.3493	2,219.24	75.09	2,219.24	71.005	2,219.24	72.4722	2,219.24	68.4929	2,219.24	70.8368	2,219.24	73.7425	2,219.24	71.1301	2,219.24	73.5544	2,219.24	75.2778	2,219.24	62.8475	2,219.24	74.5763	2,219.24	67.5531	2,219.24	63.3709	2,219.24	69.7263
2,297.61	85.5417	2,297.61	85.1481	2,297.61	85.8829	2,297.61	84.95	2,297.61	85.8936	2,297.61	84.2937	2,297.61	85.7687	2,297.61	83.0744	2,297.61	85.4689	2,297.61	81.8322	2,297.61	84.5133	2,297.61	80.6858	2,297.61	83.1059	2,297.61	78.894	2,297.61	81.9455	2,297.61	75.3696	2,297.61	80.4028	2,297.61	73.5856	2,297.61	78.2018	2,297.61	73.0845	2,297.61	76.7597	2,297.61	71.7872	2,297.61	73.6581	2,297.61	74.7898	2,297.61	72.7827	2,297.61	70.9194	2,297.61	75.3706	2,297.61	71.84	2,297.61	69.5498	2,297.61	76.3966	2,297.61	74.499	2,297.61	73.9577	2,297.61	78.1158	2,297.61	71.1637	2,297.61	75.3896	2,297.61	72.1985
2,378.17	87.094	2,378.17	86.7744	2,378.17	86.8359	2,378.17	85.9434	2,378.17	86.4524	2,378.17	85.1147	2,378.17	85.8669	2,378.17	84.2347	2,378.17	85.2395	2,378.17	83.0208	2,378.17	84.6883	2,378.17	81.485	2,378.17	83.5592	2,378.17	80.6054	2,378.17	82.2017	2,378.17	79.3366	2,378.17	80.8351	2,378.17	75.8959	2,378.17	77.7363	2,378.17	74.7033	2,378.17	75.6404	2,378.17	74.0923	2,378.17	75.8292	2,378.17	69.6233	2,378.17	72.4046	2,378.17	70.4221	2,378.17	73.4579	2,378.17	70.9954	2,378.17	72.5936	2,378.17	70.7037	2,378.17	69.9734	2,378.17	60.8289	2,378.17	65.7657	2,378.17	69.6061	2,378.17	68.6555	2,378.17	73.5925
2,462.4	86.0745	2,462.4	85.9077	2,462.4	85.9205	2,462.4	85.7006	2,462.4	85.7294	2,462.4	85.2662	2,462.4	85.5357	2,462.4	84.7275	2,462.4	84.8773	2,462.4	83.9607	2,462.4	84.1496	2,462.4	82.0927	2,462.4	82.7748	2,462.4	80.1871	2,462.4	80.6148	2,462.4	78.9202	2,462.4	79.8215	2,462.4	76.3992	2,462.4	78.4306	2,462.4	74.7264	2,462.4	75.9754	2,462.4	72.0193	2,462.4	74.9893	2,462.4	71.1423	2,462.4	72.2289	2,462.4	72.3626	2,462.4	73.5483	2,462.4	67.6053	2,462.4	71.615	2,462.4	73.3357	2,462.4	70.8032	2,462.4	72.8004	2,462.4	74.3371	2,462.4	73.0141	2,462.4	69.5123	2,462.4	71.1434
2,548.83	85.5894	2,548.83	85.6354	2,548.83	85.578	2,548.83	85.5987	2,548.83	85.6541	2,548.83	85.1453	2,548.83	85.6318	2,548.83	84.0367	2,548.83	85.0467	2,548.83	83.0531	2,548.83	84.0737	2,548.83	81.8689	2,548.83	83.1342	2,548.83	79.754	2,548.83	81.4028	2,548.83	78.4214	2,548.83	79.3302	2,548.83	76.8503	2,548.83	78.1513	2,548.83	74.5266	2,548.83	75.5178	2,548.83	74.2383	2,548.83	74.2441	2,548.83	71.8634	2,548.83	73.1517	2,548.83	73.2115	2,548.83	70.0887	2,548.83	73.0294	2,548.83	73.4436	2,548.83	69.2246	2,548.83	71.8118	2,548.83	65.6377	2,548.83	66.9882	2,548.83	72.1009	2,548.83	67.7907	2,548.83	72.0276
2,638.92	85.8559	2,638.92	86.0025	2,638.92	85.8792	2,638.92	86.1557	2,638.92	85.976	2,638.92	85.8377	2,638.92	86.0391	2,638.92	84.8074	2,638.92	85.6975	2,638.92	83.5965	2,638.92	84.7078	2,638.92	81.9641	2,638.92	83.447	2,638.92	79.6865	2,638.92	81.6602	2,638.92	78.2903	2,638.92	79.7064	2,638.92	76.3096	2,638.92	78.2796	2,638.92	74.4741	2,638.92	75.9099	2,638.92	73.6463	2,638.92	74.9635	2,638.92	71.4146	2,638.92	73.6093	2,638.92	72.4646	2,638.92	72.697	2,638.92	69.7212	2,638.92	71.9967	2,638.92	72.2397	2,638.92	70.3221	2,638.92	69.9765	2,638.92	72.8942	2,638.92	67.9722	2,638.92	67.4992	2,638.92	69.8982
2,731.93	85.6257	2,731.93	85.8869	2,731.93	85.6435	2,731.93	86.0101	2,731.93	85.6901	2,731.93	86.0056	2,731.93	85.6187	2,731.93	85.3183	2,731.93	85.3937	2,731.93	83.7921	2,731.93	84.3402	2,731.93	82.3279	2,731.93	82.8985	2,731.93	80.4171	2,731.93	81.6051	2,731.93	78.443	2,731.93	79.4154	2,731.93	77.3944	2,731.93	77.6855	2,731.93	74.8296	2,731.93	75.8742	2,731.93	74.3591	2,731.93	73.5621	2,731.93	72.2743	2,731.93	73.0078	2,731.93	72.9376	2,731.93	67.7749	2,731.93	73.9087	2,731.93	72.8194	2,731.93	67.9956	2,731.93	70.8381	2,731.93	65.2657	2,731.93	67.1868	2,731.93	70.8814	2,731.93	66.6767	2,731.93	72.8382
2,828.61	85.7541	2,828.61	85.9566	2,828.61	85.7874	2,828.61	86.2129	2,828.61	86.0706	2,828.61	86.0908	2,828.61	86.0686	2,828.61	85.3386	2,828.61	85.5857	2,828.61	83.8989	2,828.61	84.7224	2,828.61	82.1629	2,828.61	83.2019	2,828.61	80.3721	2,828.61	81.5841	2,828.61	78.2784	2,828.61	79.5793	2,828.61	76.2474	2,828.61	77.5666	2,828.61	74.3234	2,828.61	76.1168	2,828.61	74.0036	2,828.61	73.765	2,828.61	72.5806	2,828.61	74.1728	2,828.61	70.1852	2,828.61	71.8945	2,828.61	73.6958	2,828.61	69.4621	2,828.61	72.3809	2,828.61	72.9035	2,828.61	65.8812	2,828.61	71.144	2,828.61	67.4525	2,828.61	59.2115	2,828.61	70.7059
2,928.22	85.7411	2,928.22	86.0771	2,928.22	85.6751	2,928.22	86.2705	2,928.22	85.8477	2,928.22	86.2492	2,928.22	85.8455	2,928.22	85.5919	2,928.22	85.5099	2,928.22	84.2769	2,928.22	84.4296	2,928.22	82.6839	2,928.22	82.8855	2,928.22	80.671	2,928.22	81.2345	2,928.22	78.5372	2,928.22	79.0293	2,928.22	76.7609	2,928.22	77.2466	2,928.22	74.5199	2,928.22	75.605	2,928.22	73.7338	2,928.22	73.1976	2,928.22	72.6676	2,928.22	71.9083	2,928.22	70.579	2,928.22	71.435	2,928.22	70.3818	2,928.22	71.1211	2,928.22	72.7705	2,928.22	70.344	2,928.22	69.9213	2,928.22	71.6868	2,928.22	64.7749	2,928.22	64.4782	2,928.22	66.9281
3,031.49	85.1937	3,031.49	85.6503	3,031.49	85.0938	3,031.49	86.036	3,031.49	85.5319	3,031.49	85.9519	3,031.49	85.7276	3,031.49	85.3654	3,031.49	85.2954	3,031.49	83.9114	3,031.49	84.3918	3,031.49	82.0097	3,031.49	82.6696	3,031.49	80.2029	3,031.49	80.8747	3,031.49	77.9696	3,031.49	78.6001	3,031.49	76.4533	3,031.49	75.9953	3,031.49	74.2569	3,031.49	74.6653	3,031.49	73.0573	3,031.49	72.2483	3,031.49	72.9008	3,031.49	72.0528	3,031.49	71.5559	3,031.49	70.7583	3,031.49	71.0732	3,031.49	71.3911	3,031.49	71.4695	3,031.49	69.8199	3,031.49	69.9593	3,031.49	70.8701	3,031.49	66.0106	3,031.49	66.1691	3,031.49	65.5321
3,138.43	85.6535	3,138.43	86.0496	3,138.43	85.4943	3,138.43	86.4785	3,138.43	85.8914	3,138.43	86.2455	3,138.43	86.0312	3,138.43	85.4544	3,138.43	85.6165	3,138.43	84.1731	3,138.43	84.7234	3,138.43	82.2165	3,138.43	82.7824	3,138.43	80.0655	3,138.43	80.7737	3,138.43	77.6699	3,138.43	78.9814	3,138.43	75.5555	3,138.43	76.6127	3,138.43	73.1718	3,138.43	74.8848	3,138.43	71.5405	3,138.43	72.2385	3,138.43	71.3404	3,138.43	71.9953	3,138.43	70.8214	3,138.43	70.5645	3,138.43	71.7337	3,138.43	70.6825	3,138.43	69.9932	3,138.43	71.1834	3,138.43	67.4795	3,138.43	69.9601	3,138.43	63.892	3,138.43	66.4216	3,138.43	68.1154
3,249.02	85.5892	3,249.02	85.975	3,249.02	85.6721	3,249.02	86.4375	3,249.02	86.1015	3,249.02	86.3215	3,249.02	86.2119	3,249.02	85.3934	3,249.02	85.7158	3,249.02	83.9787	3,249.02	84.6189	3,249.02	82.0318	3,249.02	82.9479	3,249.02	79.8705	3,249.02	80.7575	3,249.02	77.6663	3,249.02	78.7592	3,249.02	75.628	3,249.02	76.4968	3,249.02	73.4062	3,249.02	74.7089	3,249.02	71.5032	3,249.02	72.5975	3,249.02	70.3958	3,249.02	71.0104	3,249.02	69.0013	3,249.02	70.6018	3,249.02	70.661	3,249.02	70.5576	3,249.02	70.2212	3,249.02	70.7028	3,249.02	68.4995	3,249.02	70.1052	3,249.02	63.7775	3,249.02	66.1083	3,249.02	67.0302
3,363.28	85.9444	3,363.28	86.127	3,363.28	85.9006	3,363.28	86.4682	3,363.28	86.071	3,363.28	86.1948	3,363.28	86.2529	3,363.28	85.107	3,363.28	85.6966	3,363.28	83.4948	3,363.28	84.499	3,363.28	81.4475	3,363.28	82.6867	3,363.28	79.2719	3,363.28	80.4812	3,363.28	77.1734	3,363.28	78.5782	3,363.28	75.4899	3,363.28	76.1968	3,363.28	73.129	3,363.28	74.2535	3,363.28	71.8788	3,363.28	72.3492	3,363.28	71.3972	3,363.28	70.6961	3,363.28	68.603	3,363.28	70.6506	3,363.28	70.8982	3,363.28	70.3432	3,363.28	69.3021	3,363.28	70.9857	3,363.28	69.637	3,363.28	70.1551	3,363.28	64.5334	3,363.28	68.3837	3,363.28	66.0573
3,481.93	86.1585	3,481.93	86.5509	3,481.93	86.1482	3,481.93	86.7802	3,481.93	86.8742	3,481.93	86.6413	3,481.93	87.1059	3,481.93	85.4658	3,481.93	86.5995	3,481.93	83.7406	3,481.93	85.5619	3,481.93	81.55	3,481.93	84.0565	3,481.93	79.2525	3,481.93	82.1068	3,481.93	77.2572	3,481.93	80.029	3,481.93	75.1933	3,481.93	77.9638	3,481.93	73.1574	3,481.93	75.6219	3,481.93	70.3211	3,481.93	74.1416	3,481.93	71.7314	3,481.93	72.3194	3,481.93	68.5164	3,481.93	71.6947	3,481.93	71.4798	3,481.93	71.1301	3,481.93	69.5951	3,481.93	72.8956	3,481.93	69.5194	3,481.93	69.5311	3,481.93	63.7352	3,481.93	69.5241	3,481.93	67.9697
3,604.98	86.8426	3,604.98	87.2537	3,604.98	86.926	3,604.98	87.5243	3,604.98	87.3076	3,604.98	87.2078	3,604.98	87.4102	3,604.98	85.9179	3,604.98	87.2152	3,604.98	84.6756	3,604.98	85.8589	3,604.98	82.9279	3,604.98	84.2347	3,604.98	80.6858	3,604.98	82.3115	3,604.98	78.2743	3,604.98	80.5063	3,604.98	75.8907	3,604.98	78.5581	3,604.98	74.2763	3,604.98	76.2859	3,604.98	72.0213	3,604.98	74.6716	3,604.98	71.5005	3,604.98	72.8854	3,604.98	69.9244	3,604.98	71.4087	3,604.98	71.1815	3,604.98	71.2252	3,604.98	71.0391	3,604.98	72.6392	3,604.98	70.1852	3,604.98	71.3663	3,604.98	64.2007	3,604.98	69.0594	3,604.98	69.6082
3,732.42	86.5397	3,732.42	86.888	3,732.42	86.7083	3,732.42	87.301	3,732.42	86.9431	3,732.42	86.9537	3,732.42	87.4008	3,732.42	85.9675	3,732.42	86.9991	3,732.42	84.4445	3,732.42	85.993	3,732.42	82.8902	3,732.42	84.6257	3,732.42	81.2996	3,732.42	82.9684	3,732.42	79.5873	3,732.42	81.1752	3,732.42	77.6036	3,732.42	79.0969	3,732.42	76.0806	3,732.42	76.7866	3,732.42	73.9524	3,732.42	75.2283	3,732.42	72.7109	3,732.42	72.3896	3,732.42	70.6678	3,732.42	72.037	3,732.42	72.768	3,732.42	70.7486	3,732.42	70.6807	3,732.42	73.4739	3,732.42	69.0959	3,732.42	70.509	3,732.42	67.5215	3,732.42	69.2425	3,732.42	69.4996
3,863.53	87.1093	3,863.53	87.2123	3,863.53	86.9523	3,863.53	87.4042	3,863.53	87.4691	3,863.53	87.2656	3,863.53	87.6544	3,863.53	86.5717	3,863.53	87.1453	3,863.53	85.399	3,863.53	86.3382	3,863.53	83.5395	3,863.53	85.0676	3,863.53	81.8961	3,863.53	83.5997	3,863.53	80.3045	3,863.53	82.0827	3,863.53	78.2348	3,863.53	80.1495	3,863.53	75.9409	3,863.53	77.7624	3,863.53	73.0123	3,863.53	76.0055	3,863.53	73.2831	3,863.53	74.4948	3,863.53	70.5817	3,863.53	73.6615	3,863.53	71.0826	3,863.53	71.0723	3,863.53	71.8264	3,863.53	72.1959	3,863.53	73.1357	3,863.53	73.0112	3,863.53	61.5649	3,863.53	70.5449	3,863.53	67.83
3,999.76	87.4123	3,999.76	87.327	3,999.76	87.3704	3,999.76	87.2354	3,999.76	87.3862	3,999.76	87.219	3,999.76	87.2337	3,999.76	86.413	3,999.76	87.1847	3,999.76	85.8274	3,999.76	86.4951	3,999.76	84.6079	3,999.76	85.5288	3,999.76	82.7502	3,999.76	83.978	3,999.76	80.4354	3,999.76	82.5394	3,999.76	77.7703	3,999.76	80.4068	3,999.76	76.2383	3,999.76	78.2526	3,999.76	74.7345	3,999.76	76.8315	3,999.76	73.2099	3,999.76	73.8064	3,999.76	71.2892	3,999.76	73.1398	3,999.76	73.0693	3,999.76	71.7289	3,999.76	72.7739	3,999.76	73.4908	3,999.76	72.8883	3,999.76	71.4419	3,999.76	63.0868	3,999.76	71.194	3,999.76	66.6035
4,141.11	87.3849	4,141.11	87.2072	4,141.11	87.4103	4,141.11	87.0706	4,141.11	86.5445	4,141.11	86.8482	4,141.11	86.6662	4,141.11	86.8652	4,141.11	86.7934	4,141.11	85.9893	4,141.11	86.3622	4,141.11	85.0886	4,141.11	85.3876	4,141.11	83.4904	4,141.11	84.1486	4,141.11	81.1558	4,141.11	82.0604	4,141.11	78.7192	4,141.11	79.9967	4,141.11	76.7137	4,141.11	77.7868	4,141.11	74.1512	4,141.11	75.7825	4,141.11	72.3577	4,141.11	73.513	4,141.11	71.3582	4,141.11	72.5443	4,141.11	72.6578	4,141.11	71.3173	4,141.11	72.1202	4,141.11	72.4582	4,141.11	72.452	4,141.11	70.9693	4,141.11	63.2978	4,141.11	71.4908	4,141.11	67.6381
4,286.87	87.9794	4,286.87	87.2911	4,286.87	87.6713	4,286.87	86.8306	4,286.87	87.3085	4,286.87	86.6707	4,286.87	87.0128	4,286.87	86.2441	4,286.87	86.8892	4,286.87	86.043	4,286.87	86.7453	4,286.87	84.5195	4,286.87	86.1198	4,286.87	82.2013	4,286.87	84.6268	4,286.87	80.7376	4,286.87	82.8512	4,286.87	79.1792	4,286.87	80.9521	4,286.87	77.372	4,286.87	78.6277	4,286.87	75.7249	4,286.87	76.8193	4,286.87	74.0456	4,286.87	74.9499	4,286.87	72.3762	4,286.87	73.4887	4,286.87	72.8983	4,286.87	71.1771	4,286.87	72.0548	4,286.87	73.3342	4,286.87	71.9065	4,286.87	72.0664	4,286.87	64.3773	4,286.87	71.5852	4,286.87	64.2765
4,438.48	88.1137	4,438.48	87.3944	4,438.48	87.8982	4,438.48	86.9582	4,438.48	86.6511	4,438.48	87.1561	4,438.48	86.0792	4,438.48	87.4696	4,438.48	86.2538	4,438.48	87.1891	4,438.48	86.3153	4,438.48	86.0554	4,438.48	85.7271	4,438.48	84.0719	4,438.48	84.6976	4,438.48	81.5719	4,438.48	82.9213	4,438.48	78.5389	4,438.48	80.6345	4,438.48	76.1932	4,438.48	78.1662	4,438.48	74.7976	4,438.48	75.9026	4,438.48	72.3161	4,438.48	74.1722	4,438.48	70.2989	4,438.48	73.358	4,438.48	71.9501	4,438.48	71.4017	4,438.48	72.5974	4,438.48	72.6925	4,438.48	73.197	4,438.48	71.8617	4,438.48	66.0875	4,438.48	70.7597	4,438.48	67.0599
4,594.48	88.3872	4,594.48	87.4008	4,594.48	88.1507	4,594.48	86.3992	4,594.48	86.4574	4,594.48	86.2821	4,594.48	85.9706	4,594.48	86.9314	4,594.48	86.5862	4,594.48	86.3267	4,594.48	87.1122	4,594.48	85.149	4,594.48	86.5246	4,594.48	83.4821	4,594.48	85.1671	4,594.48	81.1133	4,594.48	83.0722	4,594.48	78.9284	4,594.48	80.9074	4,594.48	77.1888	4,594.48	78.4189	4,594.48	75.8308	4,594.48	76.2156	4,594.48	74.9908	4,594.48	74.5918	4,594.48	73.2025	4,594.48	73.4006	4,594.48	73.137	4,594.48	72.0633	4,594.48	72.6461	4,594.48	71.9746	4,594.48	72.725	4,594.48	72.2102	4,594.48	61.3307	4,594.48	72.2777	4,594.48	63.6138
4,757.08	88.3873	4,757.08	87.1562	4,757.08	88.0185	4,757.08	86.2022	4,757.08	86.6044	4,757.08	86.8892	4,757.08	85.7427	4,757.08	87.3893	4,757.08	86.3745	4,757.08	87.4133	4,757.08	86.8698	4,757.08	86.2264	4,757.08	86.5866	4,757.08	83.931	4,757.08	85.264	4,757.08	81.5821	4,757.08	83.1129	4,757.08	79.1241	4,757.08	80.7123	4,757.08	75.9519	4,757.08	78.1316	4,757.08	74.5126	4,757.08	75.7315	4,757.08	73.1405	4,757.08	74.1368	4,757.08	71.7251	4,757.08	73.3484	4,757.08	71.1745	4,757.08	71.7176	4,757.08	72.3002	4,757.08	72.9447	4,757.08	72.5353	4,757.08	71.7541	4,757.08	64.4202	4,757.08	72.0412	4,757.08	62.4805
4,924.8	88.5639	4,924.8	87.422	4,924.8	88.3141	4,924.8	86.3671	4,924.8	86.3505	4,924.8	86.3257	4,924.8	85.754	4,924.8	87.041	4,924.8	86.5678	4,924.8	86.53	4,924.8	87.1437	4,924.8	85.0262	4,924.8	86.4242	4,924.8	82.8033	4,924.8	84.86	4,924.8	80.4277	4,924.8	82.7181	4,924.8	78.0911	4,924.8	80.3725	4,924.8	76.234	4,924.8	78.0181	4,924.8	74.8319	4,924.8	75.3957	4,924.8	73.4614	4,924.8	74.1613	4,924.8	72.3774	4,924.8	72.3766	4,924.8	71.9175	4,924.8	71.3522	4,924.8	72.5447	4,924.8	71.7514	4,924.8	71.7033	4,924.8	71.8483	4,924.8	61.0468	4,924.8	70.7393	4,924.8	60.7347
5,098.39	88.3239	5,098.39	86.9339	5,098.39	88.0422	5,098.39	85.6993	5,098.39	86.5718	5,098.39	86.0574	5,098.39	85.9041	5,098.39	86.7256	5,098.39	86.5948	5,098.39	86.3517	5,098.39	87.1094	5,098.39	85.0498	5,098.39	86.5963	5,098.39	83.3114	5,098.39	85.1273	5,098.39	80.8894	5,098.39	83.1173	5,098.39	78.4768	5,098.39	80.7955	5,098.39	75.9529	5,098.39	78.194	5,098.39	73.5241	5,098.39	75.6251	5,098.39	71.82	5,098.39	74.095	5,098.39	71.5731	5,098.39	72.6289	5,098.39	70.2785	5,098.39	71.6043	5,098.39	72.6594	5,098.39	72.0632	5,098.39	71.5441	5,098.39	72.3671	5,098.39	64.1487	5,098.39	71.0875	5,098.39	60.0563
5,277.83	87.1834	5,277.83	86.1639	5,277.83	86.8854	5,277.83	85.4416	5,277.83	85.2678	5,277.83	85.9496	5,277.83	84.9336	5,277.83	86.7315	5,277.83	85.8265	5,277.83	86.3329	5,277.83	86.4189	5,277.83	85.1202	5,277.83	85.7388	5,277.83	82.8928	5,277.83	84.4131	5,277.83	80.2442	5,277.83	82.4718	5,277.83	77.8022	5,277.83	80.1984	5,277.83	75.0982	5,277.83	77.6412	5,277.83	73.1305	5,277.83	74.8653	5,277.83	70.7378	5,277.83	73.4149	5,277.83	71.2118	5,277.83	71.2549	5,277.83	69.8657	5,277.83	70.7828	5,277.83	71.2953	5,277.83	70.7924	5,277.83	70.9228	5,277.83	71.509	5,277.83	61.5196	5,277.83	69.7455	5,277.83	61.0754
5,463.87	86.7084	5,463.87	86.0135	5,463.87	86.4509	5,463.87	85.2626	5,463.87	85.538	5,463.87	85.2907	5,463.87	85.2414	5,463.87	85.5754	5,463.87	85.9089	5,463.87	84.9756	5,463.87	86.3028	5,463.87	83.5689	5,463.87	85.8126	5,463.87	81.9202	5,463.87	84.6929	5,463.87	79.9778	5,463.87	82.87	5,463.87	78.0191	5,463.87	80.6241	5,463.87	76.0154	5,463.87	78.2495	5,463.87	73.8543	5,463.87	75.4631	5,463.87	71.5545	5,463.87	73.8579	5,463.87	71.9714	5,463.87	71.7342	5,463.87	70.1922	5,463.87	71.1126	5,463.87	71.8211	5,463.87	70.7821	5,463.87	70.771	5,463.87	71.9858	5,463.87	58.9888	5,463.87	70.1906	5,463.87	59.67
5,656.49	85.4149	5,656.49	85.037	5,656.49	85.3691	5,656.49	84.6408	5,656.49	84.803	5,656.49	84.7447	5,656.49	84.5442	5,656.49	85.3747	5,656.49	84.9311	5,656.49	85.2508	5,656.49	85.4031	5,656.49	84.6657	5,656.49	84.9495	5,656.49	83.2566	5,656.49	83.9717	5,656.49	80.9711	5,656.49	82.2517	5,656.49	78.2985	5,656.49	79.9688	5,656.49	75.5376	5,656.49	77.3111	5,656.49	72.2908	5,656.49	74.7337	5,656.49	69.41	5,656.49	73.2318	5,656.49	69.797	5,656.49	70.4236	5,656.49	68.5259	5,656.49	70.2123	5,656.49	70.1187	5,656.49	69.7759	5,656.49	69.6726	5,656.49	70.5618	5,656.49	62.2328	5,656.49	68.8832	5,656.49	61.7016
5,856.45	85.5495	5,856.45	85.9032	5,856.45	85.3734	5,856.45	85.3564	5,856.45	85.3856	5,856.45	84.9017	5,856.45	84.5649	5,856.45	85.0763	5,856.45	84.4005	5,856.45	85.0223	5,856.45	84.8621	5,856.45	84.2354	5,856.45	84.9537	5,856.45	82.5351	5,856.45	84.304	5,856.45	79.8017	5,856.45	82.5276	5,856.45	77.3414	5,856.45	80.0788	5,856.45	75.0139	5,856.45	77.5967	5,856.45	73.0185	5,856.45	74.7318	5,856.45	70.9055	5,856.45	73.2269	5,856.45	70.3877	5,856.45	70.5149	5,856.45	69.51	5,856.45	70.5418	5,856.45	70.7449	5,856.45	69.1077	5,856.45	69.1874	5,856.45	70.6166	5,856.45	58.2987	5,856.45	68.3815	5,856.45	55.753
6,062.99	86.1832	6,062.99	86.5414	6,062.99	86.1824	6,062.99	85.7154	6,062.99	85.8969	6,062.99	84.3066	6,062.99	84.7487	6,062.99	84.4864	6,062.99	84.1286	6,062.99	85.0279	6,062.99	84.7762	6,062.99	84.7463	6,062.99	85.1098	6,062.99	83.2397	6,062.99	84.3694	6,062.99	80.949	6,062.99	82.4037	6,062.99	78.6969	6,062.99	79.8582	6,062.99	76.578	6,062.99	77.1557	6,062.99	73.92	6,062.99	74.4664	6,062.99	71.2615	6,062.99	72.6458	6,062.99	70.6745	6,062.99	69.9669	6,062.99	68.9173	6,062.99	70.1342	6,062.99	71.6439	6,062.99	68.6504	6,062.99	69.7517	6,062.99	70.6681	6,062.99	59.5362	6,062.99	67.286	6,062.99	58.8169
6,276.86	86.6769	6,276.86	87.0655	6,276.86	86.7349	6,276.86	85.6927	6,276.86	86.8127	6,276.86	84.0393	6,276.86	85.2964	6,276.86	84.8595	6,276.86	84.4129	6,276.86	85.8342	6,276.86	85.5439	6,276.86	85.5712	6,276.86	86.2464	6,276.86	84.0548	6,276.86	85.5157	6,276.86	81.3404	6,276.86	83.5652	6,276.86	78.4746	6,276.86	80.8381	6,276.86	75.843	6,276.86	77.9492	6,276.86	73.3702	6,276.86	75.2778	6,276.86	71.5546	6,276.86	73.716	6,276.86	70.1705	6,276.86	71.0973	6,276.86	68.5938	6,276.86	70.6141	6,276.86	71.8386	6,276.86	69.5681	6,276.86	68.818	6,276.86	71.354	6,276.86	59.7642	6,276.86	68.4253	6,276.86	61.3405
6,498.05	87.2246	6,498.05	87.062	6,498.05	87.3936	6,498.05	85.5492	6,498.05	86.9157	6,498.05	84.3218	6,498.05	85.2059	6,498.05	85.6249	6,498.05	84.7511	6,498.05	86.7169	6,498.05	86.3349	6,498.05	86.1851	6,498.05	87.0676	6,498.05	84.2734	6,498.05	86.09	6,498.05	81.1861	6,498.05	83.85	6,498.05	78.1557	6,498.05	80.9683	6,498.05	75.6702	6,498.05	78.0148	6,498.05	73.0032	6,498.05	75.0308	6,498.05	71.0534	6,498.05	73.4422	6,498.05	70.3364	6,498.05	71.4232	6,498.05	68.4471	6,498.05	70.5898	6,498.05	71.9264	6,498.05	69.7003	6,498.05	68.1385	6,498.05	71.6293	6,498.05	60.6843	6,498.05	67.0477	6,498.05	60.6295
6,727.29	87.6136	6,727.29	87.1515	6,727.29	87.4728	6,727.29	85.5995	6,727.29	86.5363	6,727.29	84.7353	6,727.29	84.754	6,727.29	86.0441	6,727.29	84.6599	6,727.29	86.802	6,727.29	86.3692	6,727.29	85.9365	6,727.29	86.9288	6,727.29	83.8649	6,727.29	85.8031	6,727.29	80.6118	6,727.29	83.591	6,727.29	77.6612	6,727.29	80.7575	6,727.29	75.1825	6,727.29	77.5611	6,727.29	71.6737	6,727.29	74.5126	6,727.29	71.2703	6,727.29	72.5569	6,727.29	70.1183	6,727.29	70.8556	6,727.29	67.8114	6,727.29	69.9434	6,727.29	71.6043	6,727.29	68.9518	6,727.29	67.0933	6,727.29	71.5604	6,727.29	58.0205	6,727.29	66.9394	6,727.29	60.4416
6,964.6	87.3208	6,964.6	86.9158	6,964.6	87.3549	6,964.6	85.589	6,964.6	86.5349	6,964.6	84.5374	6,964.6	85.0237	6,964.6	85.6503	6,964.6	84.8602	6,964.6	86.4632	6,964.6	86.4873	6,964.6	85.79	6,964.6	86.8767	6,964.6	84.0418	6,964.6	85.8345	6,964.6	81.3395	6,964.6	83.7238	6,964.6	78.5663	6,964.6	81.0077	6,964.6	76.1648	6,964.6	77.9473	6,964.6	72.0286	6,964.6	74.7771	6,964.6	71.4577	6,964.6	72.489	6,964.6	69.9011	6,964.6	70.5905	6,964.6	67.9129	6,964.6	70.1647	6,964.6	71.4266	6,964.6	68.6591	6,964.6	67.6224	6,964.6	71.8884	6,964.6	60.7044	6,964.6	66.6832	6,964.6	61.7231
7,209.96	86.4862	7,209.96	86.2172	7,209.96	86.355	7,209.96	85.3703	7,209.96	85.9805	7,209.96	84.15	7,209.96	85.0666	7,209.96	85.0144	7,209.96	84.1242	7,209.96	86.0753	7,209.96	85.458	7,209.96	85.7444	7,209.96	86.1415	7,209.96	84.1759	7,209.96	85.3347	7,209.96	81.3097	7,209.96	83.3928	7,209.96	78.0712	7,209.96	80.7733	7,209.96	75.7887	7,209.96	77.6662	7,209.96	70.9286	7,209.96	74.8782	7,209.96	70.1595	7,209.96	71.9353	7,209.96	68.4502	7,209.96	69.7137	7,209.96	67.6589	7,209.96	69.0711	7,209.96	70.2543	7,209.96	67.9707	7,209.96	66.9166	7,209.96	71.219	7,209.96	60.0073	7,209.96	66.6765	7,209.96	61.4308
7,464.11	85.4253	7,464.11	85.5933	7,464.11	85.3842	7,464.11	85.3988	7,464.11	85.8048	7,464.11	84.1867	7,464.11	85.2711	7,464.11	84.3521	7,464.11	83.9557	7,464.11	85.4325	7,464.11	84.6487	7,464.11	85.182	7,464.11	85.4262	7,464.11	83.6017	7,464.11	84.7972	7,464.11	80.6648	7,464.11	82.8118	7,464.11	77.6494	7,464.11	80.1744	7,464.11	75.338	7,464.11	77.0303	7,464.11	71.2003	7,464.11	74.4111	7,464.11	70.072	7,464.11	71.5765	7,464.11	68.1994	7,464.11	69.2719	7,464.11	67.9868	7,464.11	68.3514	7,464.11	69.3338	7,464.11	67.6543	7,464.11	66.6419	7,464.11	70.5644	7,464.11	59.3485	7,464.11	66.0959	7,464.11	59.5587
7,727.78	85.0357	7,727.78	85.3859	7,727.78	85.2151	7,727.78	86.033	7,727.78	86.0201	7,727.78	84.7934	7,727.78	86.0037	7,727.78	84.308	7,727.78	84.2104	7,727.78	85.0897	7,727.78	84.151	7,727.78	84.6812	7,727.78	84.879	7,727.78	83.0167	7,727.78	84.1794	7,727.78	79.9759	7,727.78	82.0069	7,727.78	76.9025	7,727.78	79.3457	7,727.78	74.6034	7,727.78	76.1782	7,727.78	70.4734	7,727.78	73.7359	7,727.78	69.9415	7,727.78	70.9225	7,727.78	67.1891	7,727.78	68.7336	7,727.78	67.6239	7,727.78	67.8239	7,727.78	68.7452	7,727.78	67.0577	7,727.78	65.5313	7,727.78	69.1004	7,727.78	58.8883	7,727.78	64.4103	7,727.78	59.0061
8,000.24	85.4331	8,000.24	85.7224	8,000.24	85.6705	8,000.24	87.0749	8,000.24	86.806	8,000.24	85.9911	8,000.24	87.1091	8,000.24	84.6503	8,000.24	84.8021	8,000.24	84.8486	8,000.24	83.6477	8,000.24	84.237	8,000.24	84.3217	8,000.24	82.2747	8,000.24	83.6754	8,000.24	79.1899	8,000.24	81.5182	8,000.24	75.7928	8,000.24	78.6805	8,000.24	73.4781	8,000.24	75.3989	8,000.24	69.6255	8,000.24	72.7527	8,000.24	68.9161	8,000.24	69.842	8,000.24	65.4041	8,000.24	68.4108	8,000.24	66.8407	8,000.24	66.488	8,000.24	67.6655	8,000.24	67.3431	8,000.24	64.4359	8,000.24	68.1709	8,000.24	57.7796	8,000.24	64.2202	8,000.24	57.9612
8,282.23	85.7794	8,282.23	86.6328	8,282.23	86.2694	8,282.23	88.5284	8,282.23	88.0947	8,282.23	87.3555	8,282.23	88.4478	8,282.23	85.1155	8,282.23	85.8267	8,282.23	84.6513	8,282.23	83.7137	8,282.23	83.9464	8,282.23	84.3106	8,282.23	82.0775	8,282.23	84.1049	8,282.23	79.1199	8,282.23	82.2124	8,282.23	76.0156	8,282.23	79.3571	8,282.23	73.3656	8,282.23	76.0652	8,282.23	69.7174	8,282.23	73.4604	8,282.23	68.9158	8,282.23	70.4355	8,282.23	65.1986	8,282.23	69.1371	8,282.23	66.4458	8,282.23	66.7395	8,282.23	67.3334	8,282.23	68.3499	8,282.23	65.2389	8,282.23	68.6239	8,282.23	56.4566	8,282.23	64.3336	8,282.23	59.0205
8,574.46	86.235	8,574.46	87.2225	8,574.46	86.3078	8,574.46	89.0445	8,574.46	88.1546	8,574.46	87.305	8,574.46	88.8917	8,574.46	84.4852	8,574.46	86.4278	8,574.46	84.2074	8,574.46	83.8313	8,574.46	84.1643	8,574.46	84.2965	8,574.46	82.8612	8,574.46	84.5808	8,574.46	80.1577	8,574.46	82.8356	8,574.46	77.0283	8,574.46	79.9393	8,574.46	74.1593	8,574.46	76.6802	8,574.46	70.7409	8,574.46	73.7147	8,574.46	68.6912	8,574.46	70.901	8,574.46	65.5513	8,574.46	69.1669	8,574.46	66.9126	8,574.46	66.8283	8,574.46	67.208	8,574.46	68.9679	8,574.46	66.3501	8,574.46	68.358	8,574.46	54.4894	8,574.46	64.6015	8,574.46	59.6732
8,876.22	86.2746	8,876.22	86.7237	8,876.22	85.5327	8,876.22	87.8941	8,876.22	86.7927	8,876.22	86.0042	8,876.22	87.6837	8,876.22	83.6233	8,876.22	86.1437	8,876.22	84.3085	8,876.22	84.3489	8,876.22	84.8551	8,876.22	84.4752	8,876.22	83.8108	8,876.22	84.536	8,876.22	80.7852	8,876.22	82.6763	8,876.22	77.5765	8,876.22	79.5038	8,876.22	74.3733	8,876.22	76.2162	8,876.22	70.9324	8,876.22	72.8191	8,876.22	68.6145	8,876.22	70.7278	8,876.22	65.3533	8,876.22	68.1103	8,876.22	66.8476	8,876.22	65.7845	8,876.22	66.6855	8,876.22	68.2739	8,876.22	65.8114	8,876.22	67.3302	8,876.22	57.7275	8,876.22	63.2349	8,876.22	57.5615
9,189.7	86.1768	9,189.7	85.4939	9,189.7	85.2837	9,189.7	85.7912	9,189.7	85.1472	9,189.7	84.8767	9,189.7	85.9673	9,189.7	84.0517	9,189.7	85.6841	9,189.7	84.6308	9,189.7	84.6374	9,189.7	84.7282	9,189.7	84.491	9,189.7	83.3763	9,189.7	83.9823	9,189.7	80.0815	9,189.7	81.9289	9,189.7	76.7613	9,189.7	78.4027	9,189.7	73.5412	9,189.7	75.1789	9,189.7	70.3723	9,189.7	71.8177	9,189.7	67.6481	9,189.7	69.6734	9,189.7	64.7384	9,189.7	66.2572	9,189.7	66.3066	9,189.7	64.5203	9,189.7	64.7157	9,189.7	67.0346	9,189.7	64.6515	9,189.7	65.8879	9,189.7	57.7972	9,189.7	60.029	9,189.7	55.5349
9,513.43	86.1942	9,513.43	85.0352	9,513.43	85.5086	9,513.43	84.7615	9,513.43	84.6167	9,513.43	85.0508	9,513.43	85.2102	9,513.43	84.5492	9,513.43	85.4832	9,513.43	84.5782	9,513.43	84.6455	9,513.43	84.1158	9,513.43	84.132	9,513.43	82.1997	9,513.43	83.2194	9,513.43	78.6463	9,513.43	81.1608	9,513.43	75.3861	9,513.43	77.1766	9,513.43	71.8552	9,513.43	74.2757	9,513.43	69.7298	9,513.43	70.602	9,513.43	66.1107	9,513.43	68.4616	9,513.43	64.2624	9,513.43	64.4549	9,513.43	65.1377	9,513.43	64.7097	9,513.43	62.9595	9,513.43	66.1481	9,513.43	62.5025	9,513.43	64.5148	9,513.43	54.8475	9,513.43	57.5065	9,513.43	50.1197
9,848.88	86.2534	9,848.88	84.9337	9,848.88	85.7102	9,848.88	84.6141	9,848.88	84.4876	9,848.88	85.2743	9,848.88	84.7762	9,848.88	84.421	9,848.88	85.2838	9,848.88	84.0114	9,848.88	84.2655	9,848.88	83.1935	9,848.88	83.569	9,848.88	81.1053	9,848.88	82.5635	9,848.88	77.2876	9,848.88	80.4558	9,848.88	74.1867	9,848.88	76.1367	9,848.88	70.603	9,848.88	73.0741	9,848.88	68.1341	9,848.88	69.4059	9,848.88	64.6506	9,848.88	67.2502	9,848.88	63.1019	9,848.88	62.9005	9,848.88	63.4271	9,848.88	64.1407	9,848.88	61.2545	9,848.88	65.5982	9,848.88	62.1248	9,848.88	62.8122	9,848.88	55.0103	9,848.88	55.8402	9,848.88	48.5401
10,196.8	86.4706	10,196.8	85.3499	10,196.8	86.0401	10,196.8	84.7124	10,196.8	84.7231	10,196.8	85.5815	10,196.8	84.8391	10,196.8	84.3823	10,196.8	85.3406	10,196.8	83.8636	10,196.8	84.2181	10,196.8	83.0837	10,196.8	83.5339	10,196.8	81.2544	10,196.8	82.6146	10,196.8	77.538	10,196.8	80.7143	10,196.8	74.1894	10,196.8	76.2877	10,196.8	70.4262	10,196.8	72.8248	10,196.8	67.512	10,196.8	69.7491	10,196.8	63.6855	10,196.8	66.5825	10,196.8	63.305	10,196.8	61.8939	10,196.8	62.9583	10,196.8	65.1398	10,196.8	60.5333	10,196.8	65.4763	10,196.8	61.8509	10,196.8	61.3255	10,196.8	55.7422	10,196.8	54.0343	10,196.8	45.5512
10,556.4	86.6163	10,556.4	85.7075	10,556.4	86.3607	10,556.4	85.0282	10,556.4	85.1136	10,556.4	85.7758	10,556.4	85.2375	10,556.4	84.4565	10,556.4	85.4973	10,556.4	83.8521	10,556.4	84.4515	10,556.4	83.3366	10,556.4	83.8974	10,556.4	81.7203	10,556.4	83.0462	10,556.4	78.1671	10,556.4	81.3115	10,556.4	74.6659	10,556.4	77.2502	10,556.4	70.8411	10,556.4	73.2878	10,556.4	67.8575	10,556.4	70.6713	10,556.4	64.0852	10,556.4	66.2619	10,556.4	63.7223	10,556.4	63.1478	10,556.4	63.3376	10,556.4	66.288	10,556.4	60.7113	10,556.4	65.2858	10,556.4	62.3177	10,556.4	60.0334	10,556.4	54.9392	10,556.4	53.5696	10,556.4	48.1679
10,928.5	86.2157	10,928.5	85.4582	10,928.5	86.1898	10,928.5	84.8013	10,928.5	85.1062	10,928.5	85.3599	10,928.5	85.112	10,928.5	83.9432	10,928.5	85.0969	10,928.5	83.3647	10,928.5	84.3529	10,928.5	83.0498	10,928.5	83.8856	10,928.5	81.6095	10,928.5	83.204	10,928.5	78.0537	10,928.5	81.5258	10,928.5	74.6632	10,928.5	77.9174	10,928.5	70.934	10,928.5	73.6414	10,928.5	67.6271	10,928.5	71.1809	10,928.5	64.7501	10,928.5	66.1788	10,928.5	63.9975	10,928.5	64.4847	10,928.5	62.9056	10,928.5	66.2791	10,928.5	61.2282	10,928.5	64.5031	10,928.5	62.7146	10,928.5	58.5521	10,928.5	55.9314	10,928.5	52.117	10,928.5	46.9613
11,313.7	85.6314	11,313.7	85.035	11,313.7	85.6697	11,313.7	84.4041	11,313.7	84.6158	11,313.7	84.4684	11,313.7	84.4946	11,313.7	83.0351	11,313.7	84.2435	11,313.7	82.625	11,313.7	83.6167	11,313.7	82.6371	11,313.7	83.3285	11,313.7	81.4756	11,313.7	83.0277	11,313.7	77.8188	11,313.7	81.1979	11,313.7	74.0386	11,313.7	77.9497	11,313.7	70.7778	11,313.7	73.4744	11,313.7	66.6649	11,313.7	71.0091	11,313.7	65.5421	11,313.7	66.1493	11,313.7	63.384	11,313.7	65.0984	11,313.7	62.379	11,313.7	65.3643	11,313.7	60.5824	11,313.7	63.0386	11,313.7	62.8615	11,313.7	57.7449	11,313.7	55.1194	11,313.7	50.9584	11,313.7	49.7789
11,712.9	84.4674	11,712.9	84.5277	11,712.9	84.5558	11,712.9	83.8594	11,712.9	83.9276	11,712.9	83.4486	11,712.9	83.5633	11,712.9	82.2365	11,712.9	82.9708	11,712.9	81.5989	11,712.9	82.368	11,712.9	82.0181	11,712.9	82.4461	11,712.9	81.0691	11,712.9	82.2459	11,712.9	77.3648	11,712.9	80.1901	11,712.9	73.444	11,712.9	77.2096	11,712.9	69.9891	11,712.9	72.5138	11,712.9	65.4849	11,712.9	70.2327	11,712.9	64.5464	11,712.9	65.4101	11,712.9	62.5099	11,712.9	64.8339	11,712.9	61.2067	11,712.9	64.1486	11,712.9	59.8858	11,712.9	60.9149	11,712.9	63.1736	11,712.9	55.5631	11,712.9	52.6209	11,712.9	47.5723	11,712.9	50.2196
12,126	84.3824	12,126	84.3609	12,126	84.5694	12,126	83.7003	12,126	83.9357	12,126	82.9791	12,126	83.1882	12,126	81.8456	12,126	82.3928	12,126	81.3193	12,126	81.7248	12,126	81.6876	12,126	81.9463	12,126	80.5988	12,126	81.7763	12,126	76.7549	12,126	79.3227	12,126	72.62	12,126	76.1385	12,126	69.2322	12,126	71.5215	12,126	64.7723	12,126	68.7523	12,126	63.8802	12,126	64.3301	12,126	61.0356	12,126	63.2775	12,126	59.6164	12,126	63.1167	12,126	59.3116	12,126	59.196	12,126	63.0724	12,126	52.7037	12,126	52.4449	12,126	43.7645	12,126	47.3171
12,553.7	84.8036	12,553.7	84.9515	12,553.7	84.9216	12,553.7	83.971	12,553.7	84.5604	12,553.7	82.9622	12,553.7	83.6222	12,553.7	81.8728	12,553.7	82.9454	12,553.7	81.5223	12,553.7	82.3126	12,553.7	81.7135	12,553.7	82.3241	12,553.7	80.4165	12,553.7	82.1325	12,553.7	76.6661	12,553.7	79.5318	12,553.7	72.3864	12,553.7	76.553	12,553.7	68.3704	12,553.7	71.8595	12,553.7	64.7782	12,553.7	68.5764	12,553.7	64.0138	12,553.7	64.613	12,553.7	60.5304	12,553.7	63.2316	12,553.7	59.7165	12,553.7	61.6794	12,553.7	59.9684	12,553.7	57.7865	12,553.7	62.8387	12,553.7	48.7874	12,553.7	47.3333	12,553.7	46.234	12,553.7	48.8012
12,996.1	84.8357	12,996.1	84.9012	12,996.1	84.9829	12,996.1	83.7733	12,996.1	84.7169	12,996.1	82.8697	12,996.1	83.7502	12,996.1	81.7862	12,996.1	83.0453	12,996.1	81.5366	12,996.1	82.478	12,996.1	81.2682	12,996.1	82.3312	12,996.1	79.7931	12,996.1	82.1204	12,996.1	76.1829	12,996.1	79.6412	12,996.1	72.0379	12,996.1	76.7138	12,996.1	67.7252	12,996.1	71.8919	12,996.1	65.2309	12,996.1	68.6347	12,996.1	63.3107	12,996.1	64.9839	12,996.1	59.6079	12,996.1	63.8444	12,996.1	59.1767	12,996.1	61.8467	12,996.1	59.4756	12,996.1	54.198	12,996.1	62.2061	12,996.1	49.4531	12,996.1	49.4061	12,996.1	44.8474	12,996.1	50.3633
13,454.6	84.5415	13,454.6	84.4473	13,454.6	84.5923	13,454.6	83.3875	13,454.6	84.0893	13,454.6	82.5551	13,454.6	83.2873	13,454.6	81.3848	13,454.6	82.4574	13,454.6	80.9827	13,454.6	82.1121	13,454.6	80.5222	13,454.6	81.7456	13,454.6	79.1997	13,454.6	81.5942	13,454.6	75.8104	13,454.6	79.2646	13,454.6	71.6068	13,454.6	76.2385	13,454.6	66.9805	13,454.6	71.3646	13,454.6	64.6753	13,454.6	68.2329	13,454.6	62.0125	13,454.6	64.8294	13,454.6	58.0002	13,454.6	63.4915	13,454.6	57.5008	13,454.6	61.7843	13,454.6	57.6857	13,454.6	51.4846	13,454.6	61.9125	13,454.6	47.2243	13,454.6	48.3206	13,454.6	45.6252	13,454.6	44.5336
13,928.5	84.0396	13,928.5	83.9061	13,928.5	83.982	13,928.5	82.905	13,928.5	83.4581	13,928.5	82.1429	13,928.5	82.747	13,928.5	80.9148	13,928.5	81.8193	13,928.5	80.2114	13,928.5	81.2749	13,928.5	79.8639	13,928.5	80.8117	13,928.5	78.7344	13,928.5	80.7156	13,928.5	75.3756	13,928.5	78.5443	13,928.5	71.289	13,928.5	75.4228	13,928.5	66.4602	13,928.5	70.2929	13,928.5	63.7698	13,928.5	67.1818	13,928.5	61.3902	13,928.5	64.1651	13,928.5	57.6512	13,928.5	62.8886	13,928.5	56.5423	13,928.5	60.0434	13,928.5	56.9206	13,928.5	50.4798	13,928.5	60.7333	13,928.5	45.8806	13,928.5	49.5979	13,928.5	47.0868	13,928.5	43.7042
14,419.9	84.043	14,419.9	83.7159	14,419.9	83.9746	14,419.9	82.9072	14,419.9	83.4304	14,419.9	82.0814	14,419.9	82.8811	14,419.9	80.5323	14,419.9	81.8505	14,419.9	79.6594	14,419.9	80.8613	14,419.9	79.3572	14,419.9	80.519	14,419.9	78.2887	14,419.9	80.3049	14,419.9	74.9822	14,419.9	78.276	14,419.9	70.974	14,419.9	75.0783	14,419.9	65.8447	14,419.9	69.836	14,419.9	63.531	14,419.9	66.3706	14,419.9	60.8878	14,419.9	63.7689	14,419.9	56.8158	14,419.9	62.2668	14,419.9	55.9491	14,419.9	58.7568	14,419.9	57.5598	14,419.9	50.8732	14,419.9	59.5675	14,419.9	45.5683	14,419.9	48.6194	14,419.9	47.4591	14,419.9	17.1045
14,928.2	84.3272	14,928.2	83.7817	14,928.2	84.2504	14,928.2	83.1696	14,928.2	83.6659	14,928.2	82.2069	14,928.2	83.2885	14,928.2	80.4113	14,928.2	82.2458	14,928.2	79.6835	14,928.2	80.9388	14,928.2	79.1509	14,928.2	80.8469	14,928.2	78.0536	14,928.2	80.4005	14,928.2	74.5956	14,928.2	78.4892	14,928.2	70.5649	14,928.2	75.3765	14,928.2	64.9085	14,928.2	70.1806	14,928.2	63.8843	14,928.2	66.217	14,928.2	60.66	14,928.2	64.3195	14,928.2	55.5058	14,928.2	62.6719	14,928.2	54.6426	14,928.2	57.9374	14,928.2	56.6556	14,928.2	51.1926	14,928.2	58.84	14,928.2	48.1377	14,928.2	48.9555	14,928.2	47.4451	14,928.2	38.7606
15,454.8	84.2897	15,454.8	83.7151	15,454.8	84.1047	15,454.8	83.215	15,454.8	83.6051	15,454.8	82.1124	15,454.8	83.2369	15,454.8	80.2292	15,454.8	82.1821	15,454.8	79.7145	15,454.8	80.8573	15,454.8	78.8894	15,454.8	80.8778	15,454.8	77.7789	15,454.8	80.1876	15,454.8	74.2724	15,454.8	78.4526	15,454.8	70.4521	15,454.8	75.4042	15,454.8	63.9637	15,454.8	70.3024	15,454.8	63.7478	15,454.8	66.0686	15,454.8	58.6184	15,454.8	64.8379	15,454.8	53.8927	15,454.8	62.658	15,454.8	53.7148	15,454.8	57.2343	15,454.8	56.0916	15,454.8	52.7688	15,454.8	57.537	15,454.8	50.2831	15,454.8	47.1608	15,454.8	49.1713	15,454.8	46.8034
15,999.8	83.9311	15,999.8	83.3808	15,999.8	83.7578	15,999.8	83.0252	15,999.8	83.2987	15,999.8	81.8319	15,999.8	82.9136	15,999.8	80.0511	15,999.8	81.7601	15,999.8	79.6003	15,999.8	80.5473	15,999.8	78.6062	15,999.8	80.5558	15,999.8	77.445	15,999.8	79.6611	15,999.8	74.0791	15,999.8	78.0447	15,999.8	70.6378	15,999.8	75.206	15,999.8	63.8891	15,999.8	70.3435	15,999.8	63.8372	15,999.8	65.3421	15,999.8	57.6495	15,999.8	65.4297	15,999.8	53.9834	15,999.8	62.4091	15,999.8	52.2857	15,999.8	56.0523	15,999.8	55.8975	15,999.8	53.8821	15,999.8	55.7452	15,999.8	50.4377	15,999.8	47.7532	15,999.8	51.0363	15,999.8	49.2099
16,564.5	84.0361	16,564.5	83.4856	16,564.5	83.8965	16,564.5	83.012	16,564.5	83.4274	16,564.5	81.6771	16,564.5	82.9108	16,564.5	79.9892	16,564.5	81.7315	16,564.5	79.3293	16,564.5	80.359	16,564.5	78.1603	16,564.5	80.3056	16,564.5	77.0608	16,564.5	79.2862	16,564.5	73.8188	16,564.5	77.6966	16,564.5	70.5758	16,564.5	75.0291	16,564.5	63.487	16,564.5	70.7669	16,564.5	64.2154	16,564.5	64.3187	16,564.5	57.4073	16,564.5	65.8631	16,564.5	53.7479	16,564.5	61.7142	16,564.5	51.9123	16,564.5	54.2986	16,564.5	55.0527	16,564.5	55.2444	16,564.5	54.4957	16,564.5	48.026	16,564.5	47.7798	16,564.5	52.3977	16,564.5	51.419
17,148.2	84.4545	17,148.2	84.0063	17,148.2	84.3735	17,148.2	83.4561	17,148.2	83.8992	17,148.2	82.1322	17,148.2	83.2625	17,148.2	80.3388	17,148.2	82.0609	17,148.2	79.4383	17,148.2	80.5008	17,148.2	78.2125	17,148.2	80.3988	17,148.2	77.2024	17,148.2	79.2304	17,148.2	73.8962	17,148.2	77.6702	17,148.2	70.8583	17,148.2	75.0927	17,148.2	63.0731	17,148.2	71.2904	17,148.2	64.3986	17,148.2	63.7486	17,148.2	56.3571	17,148.2	65.9807	17,148.2	54.8345	17,148.2	61.2869	17,148.2	50.3465	17,148.2	49.9681	17,148.2	54.8582	17,148.2	56.2914	17,148.2	53.7109	17,148.2	49.4353	17,148.2	47.31	17,148.2	52.3219	17,148.2	52.5617
17,753.2	84.5198	17,753.2	84.1515	17,753.2	84.4576	17,753.2	83.4609	17,753.2	84.0001	17,753.2	82.2796	17,753.2	83.3157	17,753.2	80.4981	17,753.2	82.1739	17,753.2	79.3965	17,753.2	80.685	17,753.2	78.2852	17,753.2	80.4374	17,753.2	77.2238	17,753.2	79.34	17,753.2	73.7249	17,753.2	77.7257	17,753.2	70.9086	17,753.2	75.0641	17,753.2	62.8138	17,753.2	71.7114	17,753.2	64.5358	17,753.2	64.101	17,753.2	55.4517	17,753.2	66.0828	17,753.2	53.3383	17,753.2	60.3339	17,753.2	49.1795	17,753.2	42.0363	17,753.2	53.9539	17,753.2	56.8707	17,753.2	51.8965	17,753.2	50.995	17,753.2	48.799	17,753.2	51.3662	17,753.2	51.4417
18,379.4	83.7816	18,379.4	83.5699	18,379.4	83.7678	18,379.4	82.7678	18,379.4	83.322	18,379.4	81.7225	18,379.4	82.64	18,379.4	80.1224	18,379.4	81.5427	18,379.4	78.978	18,379.4	80.1984	18,379.4	78.1072	18,379.4	79.9262	18,379.4	76.8859	18,379.4	78.7881	18,379.4	73.4294	18,379.4	77.2296	18,379.4	70.956	18,379.4	74.3577	18,379.4	63.1112	18,379.4	71.4891	18,379.4	64.4006	18,379.4	63.3628	18,379.4	54.7061	18,379.4	65.4889	18,379.4	53.5104	18,379.4	59.3312	18,379.4	47.7867	18,379.4	40.4523	18,379.4	51.3722	18,379.4	56.7113	18,379.4	48.0213	18,379.4	49.4263	18,379.4	48.9838	18,379.4	48.9598	18,379.4	49.1358
19,027.6	83.6158	19,027.6	83.3622	19,027.6	83.6596	19,027.6	82.3496	19,027.6	83.1013	19,027.6	81.1731	19,027.6	82.3476	19,027.6	79.5814	19,027.6	81.1376	19,027.6	78.3183	19,027.6	79.6853	19,027.6	77.242	19,027.6	79.1869	19,027.6	75.9055	19,027.6	77.9784	19,027.6	72.5347	19,027.6	76.5434	19,027.6	70.2118	19,027.6	73.6736	19,027.6	62.061	19,027.6	71.0454	19,027.6	63.7439	19,027.6	62.2265	19,027.6	54.1655	19,027.6	64.3033	19,027.6	52.0939	19,027.6	58.2574	19,027.6	44.591	19,027.6	41.4525	19,027.6	49.6379	19,027.6	54.9144	19,027.6	48.0128	19,027.6	45.5915	19,027.6	47.7469	19,027.6	45.9265	19,027.6	44.0314
19,698.5	83.5601	19,698.5	83.3277	19,698.5	83.5984	19,698.5	82.2801	19,698.5	83.0042	19,698.5	81.0101	19,698.5	82.2223	19,698.5	79.4681	19,698.5	81.0143	19,698.5	77.7952	19,698.5	79.478	19,698.5	76.3822	19,698.5	78.6379	19,698.5	74.9119	19,698.5	77.3338	19,698.5	71.5486	19,698.5	76.0966	19,698.5	69.4221	19,698.5	73.4524	19,698.5	60.8355	19,698.5	70.9184	19,698.5	62.7416	19,698.5	61.6586	19,698.5	52.1395	19,698.5	64.246	19,698.5	49.8713	19,698.5	57.6375	19,698.5	40.9394	19,698.5	42.6062	19,698.5	45.4762	19,698.5	54.6522	19,698.5	47.2427	19,698.5	42.9565	19,698.5	46.2831	19,698.5	29.1444	19,698.5	41.3513
19,999.5	83.2948	19,999.5	83.2482	19,999.5	83.0945	19,999.5	81.7683	19,999.5	82.755	19,999.5	80.8896	19,999.5	81.9073	19,999.5	79.3358	19,999.5	80.7293	19,999.5	77.5997	19,999.5	79.28	19,999.5	76.3362	19,999.5	78.2941	19,999.5	74.8486	19,999.5	77.1557	19,999.5	71.4513	19,999.5	76.0259	19,999.5	69.3971	19,999.5	73.3302	19,999.5	60.4517	19,999.5	70.7891	19,999.5	62.2376	19,999.5	61.8252	19,999.5	53.0161	19,999.5	63.8717	19,999.5	48.1081	19,999.5	57.0819	19,999.5	38.5679	19,999.5	42.3996	19,999.5	48.2067	19,999.5	54.6199	19,999.5	48.2332	19,999.5	43.6549	19,999.5	49.3533	19,999.5	41.0786	19,999.5	40.6059
