"SPL Horizontal"																																																																							
"On-Axis"		"10°"		"-10°"		"20°"		"-20°"		"30°"		"-30°"		"40°"		"-40°"		"50°"		"-50°"		"60°"		"-60°"		"70°"		"-70°"		"80°"		"-80°"		"90°"		"-90°"		"100°"		"-100°"		"110°"		"-110°"		"120°"		"-120°"		"130°"		"-130°"		"140°"		"-140°"		"150°"		"-150°"		"160°"		"-160°"		"170°"		"-170°"		"180°"	
"Frequency / Hz"	"Sound Pressure Level / dB (re 20 µPa/V)  [2.83  V @ 1. m]"	"Frequency / Hz"	"Sound Pressure Level / dB (re 20 µPa/V)  [2.83  V @ 1. m]"	"Frequency / Hz"	"Sound Pressure Level / dB (re 20 µPa/V)  [2.83  V @ 1. m]"	"Frequency / Hz"	"Sound Pressure Level / dB (re 20 µPa/V)  [2.83  V @ 1. m]"	"Frequency / Hz"	"Sound Pressure Level / dB (re 20 µPa/V)  [2.83  V @ 1. m]"	"Frequency / Hz"	"Sound Pressure Level / dB (re 20 µPa/V)  [2.83  V @ 1. m]"	"Frequency / Hz"	"Sound Pressure Level / dB (re 20 µPa/V)  [2.83  V @ 1. m]"	"Frequency / Hz"	"Sound Pressure Level / dB (re 20 µPa/V)  [2.83  V @ 1. m]"	"Frequency / Hz"	"Sound Pressure Level / dB (re 20 µPa/V)  [2.83  V @ 1. m]"	"Frequency / Hz"	"Sound Pressure Level / dB (re 20 µPa/V)  [2.83  V @ 1. m]"	"Frequency / Hz"	"Sound Pressure Level / dB (re 20 µPa/V)  [2.83  V @ 1. m]"	"Frequency / Hz"	"Sound Pressure Level / dB (re 20 µPa/V)  [2.83  V @ 1. m]"	"Frequency / Hz"	"Sound Pressure Level / dB (re 20 µPa/V)  [2.83  V @ 1. m]"	"Frequency / Hz"	"Sound Pressure Level / dB (re 20 µPa/V)  [2.83  V @ 1. m]"	"Frequency / Hz"	"Sound Pressure Level / dB (re 20 µPa/V)  [2.83  V @ 1. m]"	"Frequency / Hz"	"Sound Pressure Level / dB (re 20 µPa/V)  [2.83  V @ 1. m]"	"Frequency / Hz"	"Sound Pressure Level / dB (re 20 µPa/V)  [2.83  V @ 1. m]"	"Frequency / Hz"	"Sound Pressure Level / dB (re 20 µPa/V)  [2.83  V @ 1. m]"	"Frequency / Hz"	"Sound Pressure Level / dB (re 20 µPa/V)  [2.83  V @ 1. m]"	"Frequency / Hz"	"Sound Pressure Level / dB (re 20 µPa/V)  [2.83  V @ 1. m]"	"Frequency / Hz"	"Sound Pressure Level / dB (re 20 µPa/V)  [2.83  V @ 1. m]"	"Frequency / Hz"	"Sound Pressure Level / dB (re 20 µPa/V)  [2.83  V @ 1. m]"	"Frequency / Hz"	"Sound Pressure Level / dB (re 20 µPa/V)  [2.83  V @ 1. m]"	"Frequency / Hz"	"Sound Pressure Level / dB (re 20 µPa/V)  [2.83  V @ 1. m]"	"Frequency / Hz"	"Sound Pressure Level / dB (re 20 µPa/V)  [2.83  V @ 1. m]"	"Frequency / Hz"	"Sound Pressure Level / dB (re 20 µPa/V)  [2.83  V @ 1. m]"	"Frequency / Hz"	"Sound Pressure Level / dB (re 20 µPa/V)  [2.83  V @ 1. m]"	"Frequency / Hz"	"Sound Pressure Level / dB (re 20 µPa/V)  [2.83  V @ 1. m]"	"Frequency / Hz"	"Sound Pressure Level / dB (re 20 µPa/V)  [2.83  V @ 1. m]"	"Frequency / Hz"	"Sound Pressure Level / dB (re 20 µPa/V)  [2.83  V @ 1. m]"	"Frequency / Hz"	"Sound Pressure Level / dB (re 20 µPa/V)  [2.83  V @ 1. m]"	"Frequency / Hz"	"Sound Pressure Level / dB (re 20 µPa/V)  [2.83  V @ 1. m]"	"Frequency / Hz"	"Sound Pressure Level / dB (re 20 µPa/V)  [2.83  V @ 1. m]"	"Frequency / Hz"	"Sound Pressure Level / dB (re 20 µPa/V)  [2.83  V @ 1. m]"	"Frequency / Hz"	"Sound Pressure Level / dB (re 20 µPa/V)  [2.83  V @ 1. m]"	"Frequency / Hz"	"Sound Pressure Level / dB (re 20 µPa/V)  [2.83  V @ 1. m]"
20.5078	40.6857	20.5078	40.6634	20.5078	40.6611	20.5078	40.5902	20.5078	40.5966	20.5078	40.4664	20.5078	40.502	20.5078	40.2959	20.5078	40.3873	20.5078	40.0859	20.5078	40.2616	20.5078	39.8455	20.5078	40.1309	20.5078	39.5849	20.5078	39.9982	20.5078	39.3137	20.5078	39.8628	20.5078	39.0405	20.5078	39.7216	20.5078	38.7734	20.5078	39.5702	20.5078	38.5201	20.5078	39.404	20.5078	38.2896	20.5078	39.2201	20.5078	38.0928	20.5078	39.0177	20.5078	37.9423	20.5078	38.7999	20.5078	37.8503	20.5078	38.5741	20.5078	37.826	20.5078	38.352	20.5078	37.8722	20.5078	38.1495	20.5078	37.984
21.9727	44.1462	21.9727	44.1055	21.9727	44.2212	21.9727	44.1018	21.9727	44.3254	21.9727	44.1345	21.9727	44.4519	21.9727	44.2003	21.9727	44.5929	21.9727	44.2936	21.9727	44.7405	21.9727	44.4075	21.9727	44.8876	21.9727	44.5346	21.9727	45.0285	21.9727	44.6681	21.9727	45.1587	21.9727	44.8024	21.9727	45.2751	21.9727	44.9328	21.9727	45.3757	21.9727	45.0563	21.9727	45.4595	21.9727	45.1705	21.9727	45.5263	21.9727	45.2739	21.9727	45.5764	21.9727	45.3653	21.9727	45.6103	21.9727	45.4438	21.9727	45.6288	21.9727	45.509	21.9727	45.6326	21.9727	45.5606	21.9727	45.6224	21.9727	45.5984
23.4375	47.7987	23.4375	47.8072	23.4375	47.7847	23.4375	47.8101	23.4375	47.7654	23.4375	47.8074	23.4375	47.7412	23.4375	47.7995	23.4375	47.7127	23.4375	47.7866	23.4375	47.6805	23.4375	47.7696	23.4375	47.6459	23.4375	47.7495	23.4375	47.6102	23.4375	47.7276	23.4375	47.5752	23.4375	47.705	23.4375	47.5425	23.4375	47.6828	23.4375	47.5137	23.4375	47.6615	23.4375	47.4903	23.4375	47.641	23.4375	47.4733	23.4375	47.6208	23.4375	47.4633	23.4375	47.6004	23.4375	47.4606	23.4375	47.579	23.4375	47.465	23.4375	47.5567	23.4375	47.4759	23.4375	47.534	23.4375	47.492	23.4375	47.5119
24.9023	48.4903	24.9023	48.5213	24.9023	48.4603	24.9023	48.5523	24.9023	48.4319	24.9023	48.5822	24.9023	48.4049	24.9023	48.6098	24.9023	48.379	24.9023	48.6341	24.9023	48.3536	24.9023	48.6546	24.9023	48.3281	24.9023	48.671	24.9023	48.3027	24.9023	48.6832	24.9023	48.2783	24.9023	48.6911	24.9023	48.2569	24.9023	48.6945	24.9023	48.241	24.9023	48.693	24.9023	48.2335	24.9023	48.6856	24.9023	48.2371	24.9023	48.6715	24.9023	48.2534	24.9023	48.6496	24.9023	48.2827	24.9023	48.6194	24.9023	48.3235	24.9023	48.5808	24.9023	48.373	24.9023	48.5345	24.9023	48.4273	24.9023	48.4824
26.3672	53.2704	26.3672	53.2402	26.3672	53.3014	26.3672	53.2112	26.3672	53.3321	26.3672	53.1831	26.3672	53.3609	26.3672	53.1556	26.3672	53.386	26.3672	53.128	26.3672	53.4052	26.3672	53.0995	26.3672	53.4165	26.3672	53.0699	26.3672	53.4182	26.3672	53.0392	26.3672	53.4093	26.3672	53.0079	26.3672	53.3894	26.3672	52.9772	26.3672	53.359	26.3672	52.9487	26.3672	53.3191	26.3672	52.9245	26.3672	53.2716	26.3672	52.9066	26.3672	53.2186	26.3672	52.897	26.3672	53.1627	26.3672	52.8973	26.3672	53.1066	26.3672	52.9084	26.3672	53.053	26.3672	52.9305	26.3672	53.0043	26.3672	52.9629
27.832	57.6122	27.832	57.6176	27.832	57.5924	27.832	57.6086	27.832	57.5588	27.832	57.5853	27.832	57.5124	27.832	57.5485	27.832	57.4546	27.832	57.499	27.832	57.3871	27.832	57.4378	27.832	57.3116	27.832	57.3662	27.832	57.2301	27.832	57.2856	27.832	57.1445	27.832	57.1978	27.832	57.0567	27.832	57.1051	27.832	56.9689	27.832	57.0101	27.832	56.8833	27.832	56.916	27.832	56.8025	27.832	56.8263	27.832	56.7291	27.832	56.7448	27.832	56.6659	27.832	56.675	27.832	56.6155	27.832	56.62	27.832	56.5802	27.832	56.5821	27.832	56.5622	27.832	56.5626
29.2969	58.5306	29.2969	58.5237	29.2969	58.5187	29.2969	58.4984	29.2969	58.4885	29.2969	58.4559	29.2969	58.4416	29.2969	58.3983	29.2969	58.3799	29.2969	58.3278	29.2969	58.306	29.2969	58.247	29.2969	58.2226	29.2969	58.1585	29.2969	58.1324	29.2969	58.0648	29.2969	58.038	29.2969	57.9685	29.2969	57.9417	29.2969	57.8722	29.2969	57.846	29.2969	57.7785	29.2969	57.7532	29.2969	57.69	29.2969	57.6661	29.2969	57.6092	29.2969	57.5872	29.2969	57.5386	29.2969	57.5191	29.2969	57.4803	29.2969	57.4643	29.2969	57.4361	29.2969	57.4247	29.2969	57.4077	29.2969	57.4017	29.2969	57.396
30.7617	59.4308	30.7617	59.4336	30.7617	59.4221	30.7617	59.4305	30.7617	59.4078	30.7617	59.4218	30.7617	59.3887	30.7617	59.4081	30.7617	59.3656	30.7617	59.3901	30.7617	59.3396	30.7617	59.3687	30.7617	59.3117	30.7617	59.3446	30.7617	59.2829	30.7617	59.3188	30.7617	59.2541	30.7617	59.292	30.7617	59.2263	30.7617	59.2648	30.7617	59.2	30.7617	59.2379	30.7617	59.1761	30.7617	59.212	30.7617	59.1552	30.7617	59.1877	30.7617	59.1376	30.7617	59.1657	30.7617	59.1238	30.7617	59.1466	30.7617	59.1142	30.7617	59.1309	30.7617	59.1088	30.7617	59.119	30.7617	59.1078	30.7617	59.1113
32.2266	60.8367	32.2266	60.8421	32.2266	60.8335	32.2266	60.8495	32.2266	60.8326	32.2266	60.8583	32.2266	60.8339	32.2266	60.8681	32.2266	60.8369	32.2266	60.878	32.2266	60.8414	32.2266	60.8877	32.2266	60.8471	32.2266	60.8967	32.2266	60.8535	32.2266	60.9046	32.2266	60.8606	32.2266	60.9115	32.2266	60.8682	32.2266	60.917	32.2266	60.8758	32.2266	60.9213	32.2266	60.8834	32.2266	60.9241	32.2266	60.8905	32.2266	60.9256	32.2266	60.8969	32.2266	60.9258	32.2266	60.9025	32.2266	60.9248	32.2266	60.9072	32.2266	60.923	32.2266	60.9112	32.2266	60.9205	32.2266	60.9146	32.2266	60.9177
33.6914	63.1762	33.6914	63.1665	33.6914	63.1836	33.6914	63.1546	33.6914	63.1884	33.6914	63.1407	33.6914	63.1903	33.6914	63.1248	33.6914	63.189	33.6914	63.107	33.6914	63.1843	33.6914	63.0875	33.6914	63.1761	33.6914	63.0668	33.6914	63.1644	33.6914	63.0455	33.6914	63.1496	33.6914	63.0244	33.6914	63.1321	33.6914	63.0043	33.6914	63.1126	33.6914	62.9862	33.6914	63.0917	33.6914	62.9709	33.6914	63.0702	33.6914	62.9593	33.6914	63.0487	33.6914	62.9518	33.6914	63.0279	33.6914	62.9485	33.6914	63.0085	33.6914	62.9496	33.6914	62.991	33.6914	62.9547	33.6914	62.9758	33.6914	62.9636
35.1562	65.1977	35.1562	65.1907	35.1562	65.1938	35.1562	65.173	35.1562	65.1793	35.1562	65.1451	35.1562	65.1548	35.1562	65.1079	35.1562	65.1211	35.1562	65.0626	35.1562	65.0794	35.1562	65.0104	35.1562	65.0309	35.1562	64.9529	35.1562	64.977	35.1562	64.8919	35.1562	64.9194	35.1562	64.8291	35.1562	64.8596	35.1562	64.7667	35.1562	64.7994	35.1562	64.7067	35.1562	64.7405	35.1562	64.651	35.1562	64.6846	35.1562	64.6017	35.1562	64.6334	35.1562	64.5602	35.1562	64.5884	35.1562	64.528	35.1562	64.551	35.1562	64.5058	35.1562	64.5221	35.1562	64.4942	35.1562	64.5026	35.1562	64.4932
36.6211	66.5344	36.6211	66.5226	36.6211	66.531	36.6211	66.4957	36.6211	66.5126	36.6211	66.4547	36.6211	66.4804	36.6211	66.4011	36.6211	66.4358	36.6211	66.3369	36.6211	66.3807	36.6211	66.2642	36.6211	66.3171	36.6211	66.1856	36.6211	66.2471	36.6211	66.1034	36.6211	66.1728	36.6211	66.0203	36.6211	66.0961	36.6211	65.9389	36.6211	66.0192	36.6211	65.8617	36.6211	65.9439	36.6211	65.7914	36.6211	65.8722	36.6211	65.7302	36.6211	65.8059	36.6211	65.6802	36.6211	65.7468	36.6211	65.6426	36.6211	65.6966	36.6211	65.6185	36.6211	65.6565	36.6211	65.6082	36.6211	65.6278	36.6211	65.6114
38.0859	66.5864	38.0859	66.578	38.0859	66.5794	38.0859	66.5547	38.0859	66.5573	38.0859	66.5175	38.0859	66.5211	38.0859	66.468	38.0859	66.472	38.0859	66.4079	38.0859	66.4118	38.0859	66.3393	38.0859	66.3425	38.0859	66.2643	38.0859	66.266	38.0859	66.1849	38.0859	66.1845	38.0859	66.1032	38.0859	66.1002	38.0859	66.0213	38.0859	66.0154	38.0859	65.9412	38.0859	65.9326	38.0859	65.8652	38.0859	65.8544	38.0859	65.7956	38.0859	65.7836	38.0859	65.7345	38.0859	65.7226	38.0859	65.6841	38.0859	65.6735	38.0859	65.6459	38.0859	65.638	38.0859	65.6215	38.0859	65.6172	38.0859	65.6118
39.5508	67.3259	39.5508	67.3186	39.5508	67.3284	39.5508	67.3066	39.5508	67.3262	39.5508	67.2902	39.5508	67.3196	39.5508	67.2698	39.5508	67.3091	39.5508	67.2461	39.5508	67.2951	39.5508	67.2199	39.5508	67.2783	39.5508	67.1919	39.5508	67.2592	39.5508	67.1634	39.5508	67.2383	39.5508	67.1353	39.5508	67.2161	39.5508	67.1088	39.5508	67.1931	39.5508	67.0851	39.5508	67.1698	39.5508	67.065	39.5508	67.1468	39.5508	67.0494	39.5508	67.1247	39.5508	67.0388	39.5508	67.1039	39.5508	67.0331	39.5508	67.085	39.5508	67.0323	39.5508	67.0684	39.5508	67.0359	39.5508	67.0544	39.5508	67.0434
41.0156	68.5989	41.0156	68.598	41.0156	68.5974	41.0156	68.5946	41.0156	68.5937	41.0156	68.5883	41.0156	68.5881	41.0156	68.5792	41.0156	68.5809	41.0156	68.5673	41.0156	68.5724	41.0156	68.5527	41.0156	68.5629	41.0156	68.5358	41.0156	68.5527	41.0156	68.5173	41.0156	68.5424	41.0156	68.498	41.0156	68.5321	41.0156	68.4787	41.0156	68.5219	41.0156	68.4607	41.0156	68.512	41.0156	68.4451	41.0156	68.502	41.0156	68.433	41.0156	68.4919	41.0156	68.4251	41.0156	68.4813	41.0156	68.4219	41.0156	68.4702	41.0156	68.4233	41.0156	68.4588	41.0156	68.4287	41.0156	68.4475	41.0156	68.4371
42.4805	70.2804	42.4805	70.2811	42.4805	70.2757	42.4805	70.2777	42.4805	70.2668	42.4805	70.2701	42.4805	70.2541	42.4805	70.2584	42.4805	70.2375	42.4805	70.2427	42.4805	70.2175	42.4805	70.2233	42.4805	70.1945	42.4805	70.2006	42.4805	70.1694	42.4805	70.1754	42.4805	70.1431	42.4805	70.1485	42.4805	70.1165	42.4805	70.121	42.4805	70.0907	42.4805	70.0939	42.4805	70.0667	42.4805	70.0683	42.4805	70.0451	42.4805	70.0451	42.4805	70.0264	42.4805	70.0251	42.4805	70.011	42.4805	70.0089	42.4805	69.9991	42.4805	69.9969	42.4805	69.9908	42.4805	69.9891	42.4805	69.9862	42.4805	69.9856
43.9453	71.247	43.9453	71.2447	43.9453	71.2437	43.9453	71.2369	43.9453	71.2346	43.9453	71.2238	43.9453	71.22	43.9453	71.2059	43.9453	71.2001	43.9453	71.1837	43.9453	71.1754	43.9453	71.1577	43.9453	71.1466	43.9453	71.1288	43.9453	71.1149	43.9453	71.0979	43.9453	71.0813	43.9453	71.0659	43.9453	71.0472	43.9453	71.034	43.9453	71.014	43.9453	71.003	43.9453	70.9829	43.9453	70.9741	43.9453	70.9548	43.9453	70.9481	43.9453	70.9307	43.9453	70.9256	43.9453	70.9109	43.9453	70.9073	43.9453	70.8959	43.9453	70.8934	43.9453	70.8857	43.9453	70.8842	43.9453	70.8803	43.9453	70.8799
45.4102	72.1924	45.4102	72.1871	45.4102	72.1902	45.4102	72.1745	45.4102	72.1803	45.4102	72.1549	45.4102	72.1631	45.4102	72.1289	45.4102	72.1389	45.4102	72.0973	45.4102	72.1083	45.4102	72.061	45.4102	72.0723	45.4102	72.0211	45.4102	72.0319	45.4102	71.9789	45.4102	71.9884	45.4102	71.9356	45.4102	71.9436	45.4102	71.8927	45.4102	71.8988	45.4102	71.8515	45.4102	71.8558	45.4102	71.8133	45.4102	71.816	45.4102	71.7794	45.4102	71.7808	45.4102	71.7505	45.4102	71.751	45.4102	71.7274	45.4102	71.7274	45.4102	71.7106	45.4102	71.7104	45.4102	71.7004	45.4102	71.7002	45.4102	71.6968
46.875	72.9894	46.875	72.9825	46.875	72.9877	46.875	72.967	46.875	72.9773	46.875	72.9434	46.875	72.9588	46.875	72.9126	46.875	72.9326	46.875	72.8757	46.875	72.8999	46.875	72.8338	46.875	72.8615	46.875	72.7886	46.875	72.8188	46.875	72.7415	46.875	72.7732	46.875	72.6942	46.875	72.7262	46.875	72.6482	46.875	72.6794	46.875	72.605	46.875	72.6342	46.875	72.5659	46.875	72.5921	46.875	72.5319	46.875	72.5545	46.875	72.5038	46.875	72.5222	46.875	72.4821	46.875	72.4961	46.875	72.4672	46.875	72.4766	46.875	72.4592	46.875	72.4639	46.875	72.4581
48.3398	73.7307	48.3398	73.7259	48.3398	73.7262	48.3398	73.7122	48.3398	73.7126	48.3398	73.6902	48.3398	73.6904	48.3398	73.6608	48.3398	73.6604	48.3398	73.6251	48.3398	73.6239	48.3398	73.5845	48.3398	73.582	48.3398	73.5405	48.3398	73.5364	48.3398	73.4944	48.3398	73.4884	48.3398	73.4477	48.3398	73.4398	48.3398	73.4016	48.3398	73.3921	48.3398	73.3574	48.3398	73.3467	48.3398	73.3162	48.3398	73.305	48.3398	73.2791	48.3398	73.2681	48.3398	73.247	48.3398	73.2371	48.3398	73.2208	48.3398	73.2126	48.3398	73.201	48.3398	73.1952	48.3398	73.1883	48.3398	73.1853	48.3398	73.183
51.2695	74.8494	51.2695	74.8432	51.2695	74.8458	51.2695	74.8274	51.2695	74.8327	51.2695	74.8029	51.2695	74.8107	51.2695	74.7704	51.2695	74.7808	51.2695	74.7314	51.2695	74.7443	51.2695	74.6875	51.2695	74.7025	51.2695	74.6402	51.2695	74.6572	51.2695	74.5915	51.2695	74.6099	51.2695	74.543	51.2695	74.5623	51.2695	74.4964	51.2695	74.516	51.2695	74.4532	51.2695	74.4723	51.2695	74.4146	51.2695	74.4325	51.2695	74.3817	51.2695	74.3976	51.2695	74.3549	51.2695	74.3683	51.2695	74.3346	51.2695	74.3449	51.2695	74.3208	51.2695	74.3278	51.2695	74.3133	51.2695	74.3168	51.2695	74.312
52.7344	75.2197	52.7344	75.2119	52.7344	75.2192	52.7344	75.1962	52.7344	75.2105	52.7344	75.173	52.7344	75.194	52.7344	75.1434	52.7344	75.1703	52.7344	75.1082	52.7344	75.1403	52.7344	75.0688	52.7344	75.1051	52.7344	75.0266	52.7344	75.066	52.7344	74.983	52.7344	75.0242	52.7344	74.9395	52.7344	74.9812	52.7344	74.8976	52.7344	74.9385	52.7344	74.8587	52.7344	74.8974	52.7344	74.8238	52.7344	74.8591	52.7344	74.7939	52.7344	74.8247	52.7344	74.7696	52.7344	74.7952	52.7344	74.7514	52.7344	74.7711	52.7344	74.7394	52.7344	74.7527	52.7344	74.7335	52.7344	74.7402	52.7344	74.7338
54.1992	75.6814	54.1992	75.6757	54.1992	75.6813	54.1992	75.6645	54.1992	75.6754	54.1992	75.648	54.1992	75.6638	54.1992	75.6267	54.1992	75.6468	54.1992	75.6013	54.1992	75.6249	54.1992	75.5725	54.1992	75.5987	54.1992	75.5412	54.1992	75.5691	54.1992	75.5083	54.1992	75.537	54.1992	75.4751	54.1992	75.5034	54.1992	75.4424	54.1992	75.4696	54.1992	75.4115	54.1992	75.4366	54.1992	75.3832	54.1992	75.4055	54.1992	75.3584	54.1992	75.3774	54.1992	75.3378	54.1992	75.353	54.1992	75.3217	54.1992	75.3332	54.1992	75.3106	54.1992	75.3182	54.1992	75.3046	54.1992	75.3083	54.1992	75.3038
55.6641	76.2103	55.6641	76.2041	55.6641	76.2125	55.6641	76.1938	55.6641	76.2104	55.6641	76.1799	55.6641	76.2038	55.6641	76.1625	55.6641	76.1929	55.6641	76.142	55.6641	76.1776	55.6641	76.1189	55.6641	76.1584	55.6641	76.0938	55.6641	76.1356	55.6641	76.0674	55.6641	76.1101	55.6641	76.0406	55.6641	76.0826	55.6641	76.0144	55.6641	76.0541	55.6641	75.9894	55.6641	76.0257	55.6641	75.9666	55.6641	75.9984	55.6641	75.9465	55.6641	75.9732	55.6641	75.9298	55.6641	75.9511	55.6641	75.9169	55.6641	75.9326	55.6641	75.9081	55.6641	75.9184	55.6641	75.9037	55.6641	75.9088	55.6641	75.9039
58.5938	77.3534	58.5938	77.3482	58.5938	77.3539	58.5938	77.3384	58.5938	77.3494	58.5938	77.3243	58.5938	77.34	58.5938	77.306	58.5938	77.3255	58.5938	77.2841	58.5938	77.3061	58.5938	77.259	58.5938	77.2822	58.5938	77.2312	58.5938	77.2545	58.5938	77.2017	58.5938	77.2238	58.5938	77.1712	58.5938	77.191	58.5938	77.1405	58.5938	77.1573	58.5938	77.1107	58.5938	77.124	58.5938	77.0824	58.5938	77.0923	58.5938	77.0566	58.5938	77.0633	58.5938	77.034	58.5938	77.0381	58.5938	77.0154	58.5938	77.0176	58.5938	77.0014	58.5938	77.0025	58.5938	76.9928	58.5938	76.9932	58.5938	76.99
60.0586	77.8166	60.0586	77.8094	60.0586	77.8169	60.0586	77.7955	60.0586	77.8102	60.0586	77.7754	60.0586	77.7967	60.0586	77.7498	60.0586	77.7766	60.0586	77.7195	60.0586	77.7506	60.0586	77.6854	60.0586	77.7195	60.0586	77.6488	60.0586	77.6843	60.0586	77.6109	60.0586	77.6462	60.0586	77.5729	60.0586	77.6067	60.0586	77.536	60.0586	77.5671	60.0586	77.5014	60.0586	77.5287	60.0586	77.4698	60.0586	77.4929	60.0586	77.4422	60.0586	77.4608	60.0586	77.419	60.0586	77.4331	60.0586	77.4006	60.0586	77.4107	60.0586	77.3876	60.0586	77.394	60.0586	77.3803	60.0586	77.3834	60.0586	77.3788
62.9883	78.6454	62.9883	78.6354	62.9883	78.6452	62.9883	78.6156	62.9883	78.6348	62.9883	78.5868	62.9883	78.6148	62.9883	78.55	62.9883	78.586	62.9883	78.5068	62.9883	78.5494	62.9883	78.4588	62.9883	78.5067	62.9883	78.4079	62.9883	78.4594	62.9883	78.356	62.9883	78.4093	62.9883	78.305	62.9883	78.3583	62.9883	78.2566	62.9883	78.3081	62.9883	78.2122	62.9883	78.2602	62.9883	78.173	62.9883	78.2161	62.9883	78.1398	62.9883	78.1769	62.9883	78.1132	62.9883	78.1433	62.9883	78.0932	62.9883	78.1161	62.9883	78.0801	62.9883	78.0954	62.9883	78.0738	62.9883	78.0814	62.9883	78.0742
64.4531	78.8699	64.4531	78.8587	64.4531	78.8709	64.4531	78.8375	64.4531	78.8617	64.4531	78.8073	64.4531	78.8429	64.4531	78.7694	64.4531	78.8155	64.4531	78.7253	64.4531	78.7807	64.4531	78.6771	64.4531	78.7403	64.4531	78.6266	64.4531	78.6959	64.4531	78.576	64.4531	78.6494	64.4531	78.5272	64.4531	78.6025	64.4531	78.482	64.4531	78.5568	64.4531	78.4416	64.4531	78.5136	64.4531	78.4072	64.4531	78.4741	64.4531	78.3795	64.4531	78.439	64.4531	78.3585	64.4531	78.4087	64.4531	78.3444	64.4531	78.3836	64.4531	78.3367	64.4531	78.3636	64.4531	78.3352	64.4531	78.3488	64.4531	78.3393
67.3828	79.3375	67.3828	79.327	67.3828	79.3382	67.3828	79.307	67.3828	79.3291	67.3828	79.2783	67.3828	79.311	67.3828	79.2422	67.3828	79.2848	67.3828	79.2001	67.3828	79.2516	67.3828	79.1539	67.3828	79.2132	67.3828	79.1056	67.3828	79.1711	67.3828	79.0571	67.3828	79.1271	67.3828	79.0104	67.3828	79.0827	67.3828	78.9672	67.3828	79.0396	67.3828	78.9288	67.3828	78.9991	67.3828	78.8965	67.3828	78.9622	67.3828	78.8707	67.3828	78.9295	67.3828	78.8517	67.3828	78.9015	67.3828	78.8392	67.3828	78.8783	67.3828	78.833	67.3828	78.8598	67.3828	78.8323	67.3828	78.846	67.3828	78.8367
68.8477	79.492	68.8477	79.481	68.8477	79.4938	68.8477	79.461	68.8477	79.4863	68.8477	79.433	68.8477	79.4702	68.8477	79.398	68.8477	79.4463	68.8477	79.3577	68.8477	79.4157	68.8477	79.3136	68.8477	79.38	68.8477	79.2678	68.8477	79.3406	68.8477	79.2221	68.8477	79.2993	68.8477	79.1784	68.8477	79.2577	68.8477	79.1383	68.8477	79.2172	68.8477	79.1031	68.8477	79.1791	68.8477	79.0739	68.8477	79.1444	68.8477	79.051	68.8477	79.1138	68.8477	79.0346	68.8477	79.0876	68.8477	79.0244	68.8477	79.0658	68.8477	79.0199	68.8477	79.0482	68.8477	79.0205	68.8477	79.0349	68.8477	79.0256
71.7773	80.096	71.7773	80.0853	71.7773	80.0973	71.7773	80.0655	71.7773	80.0893	71.7773	80.0374	71.7773	80.0724	71.7773	80.0021	71.7773	80.0475	71.7773	79.9613	71.7773	80.0159	71.7773	79.9165	71.7773	79.9791	71.7773	79.8699	71.7773	79.9387	71.7773	79.8234	71.7773	79.8965	71.7773	79.7789	71.7773	79.8543	71.7773	79.7382	71.7773	79.8135	71.7773	79.7027	71.7773	79.7757	71.7773	79.6735	71.7773	79.7416	71.7773	79.6509	71.7773	79.712	71.7773	79.6351	71.7773	79.6869	71.7773	79.6256	71.7773	79.6662	71.7773	79.6217	71.7773	79.6497	71.7773	79.6228	71.7773	79.6371	71.7773	79.628
74.707	80.8041	74.707	80.7946	74.707	80.8044	74.707	80.7762	74.707	80.7955	74.707	80.7494	74.707	80.7778	74.707	80.7153	74.707	80.7523	74.707	80.6753	74.707	80.7199	74.707	80.6309	74.707	80.682	74.707	80.5839	74.707	80.6403	74.707	80.5363	74.707	80.5963	74.707	80.4899	74.707	80.5518	74.707	80.4464	74.707	80.5083	74.707	80.4074	74.707	80.4673	74.707	80.374	74.707	80.4299	74.707	80.3469	74.707	80.3969	74.707	80.3266	74.707	80.3689	74.707	80.3127	74.707	80.3459	74.707	80.3051	74.707	80.3279	74.707	80.3032	74.707	80.3148	74.707	80.3065
77.6367	81.1383	77.6367	81.129	77.6367	81.1385	77.6367	81.1109	77.6367	81.1297	77.6367	81.0848	77.6367	81.1124	77.6367	81.0516	77.6367	81.0872	77.6367	81.0127	77.6367	81.0552	77.6367	80.9696	77.6367	81.0179	77.6367	80.9241	77.6367	80.9768	77.6367	80.878	77.6367	80.9335	77.6367	80.8331	77.6367	80.8899	77.6367	80.791	77.6367	80.8475	77.6367	80.7533	77.6367	80.8076	77.6367	80.721	77.6367	80.7715	77.6367	80.6948	77.6367	80.7398	77.6367	80.6749	77.6367	80.7131	77.6367	80.6614	77.6367	80.6913	77.6367	80.6538	77.6367	80.6744	77.6367	80.6517	77.6367	80.6622	77.6367	80.6546
79.1016	81.3144	79.1016	81.304	79.1016	81.3159	79.1016	81.2848	79.1016	81.3082	79.1016	81.2576	79.1016	81.2919	79.1016	81.2235	79.1016	81.2677	79.1016	81.1838	79.1016	81.2365	79.1016	81.1401	79.1016	81.1998	79.1016	81.0941	79.1016	81.159	79.1016	81.0477	79.1016	81.1158	79.1016	81.0026	79.1016	81.0721	79.1016	80.9605	79.1016	81.0292	79.1016	80.9229	79.1016	80.9888	79.1016	80.8908	79.1016	80.952	79.1016	80.865	79.1016	80.9194	79.1016	80.8457	79.1016	80.8917	79.1016	80.8328	79.1016	80.8688	79.1016	80.826	79.1016	80.8508	79.1016	80.8248	79.1016	80.8374	79.1016	80.8287
82.0312	82.0235	82.0312	82.0149	82.0312	82.0227	82.0312	81.9974	82.0312	82.0126	82.0312	81.9714	82.0312	81.9938	82.0312	81.9381	82.0312	81.967	82.0312	81.8988	82.0312	81.9334	82.0312	81.8551	82.0312	81.8946	82.0312	81.8088	82.0312	81.852	82.0312	81.7619	82.0312	81.8076	82.0312	81.7161	82.0312	81.7631	82.0312	81.6732	82.0312	81.7201	82.0312	81.6347	82.0312	81.6801	82.0312	81.6016	82.0312	81.644	82.0312	81.5747	82.0312	81.6127	82.0312	81.5542	82.0312	81.5864	82.0312	81.5399	82.0312	81.5653	82.0312	81.5316	82.0312	81.5491	82.0312	81.5287	82.0312	81.5376	82.0312	81.5308
84.9609	82.6228	84.9609	82.6149	84.9609	82.6203	84.9609	82.597	84.9609	82.6076	84.9609	82.5697	84.9609	82.5851	84.9609	82.5343	84.9609	82.5537	84.9609	82.4922	84.9609	82.5149	84.9609	82.4451	84.9609	82.4702	84.9609	82.3951	84.9609	82.4217	84.9609	82.3442	84.9609	82.3712	84.9609	82.2943	84.9609	82.3208	84.9609	82.2473	84.9609	82.2725	84.9609	82.2047	84.9609	82.2279	84.9609	82.1675	84.9609	82.1881	84.9609	82.1366	84.9609	82.1541	84.9609	82.1122	84.9609	82.1263	84.9609	82.0941	84.9609	82.1047	84.9609	82.0821	84.9609	82.0891	84.9609	82.0758	84.9609	82.0793	84.9609	82.0749
87.8906	82.7619	87.8906	82.7541	87.8906	82.7602	87.8906	82.737	87.8906	82.7489	87.8906	82.7115	87.8906	82.7289	87.8906	82.6787	87.8906	82.7011	87.8906	82.6406	87.8906	82.6673	87.8906	82.5989	87.8906	82.6291	87.8906	82.5559	87.8906	82.5886	87.8906	82.5137	87.8906	82.5479	87.8906	82.4744	87.8906	82.5089	87.8906	82.4394	87.8906	82.473	87.8906	82.4099	87.8906	82.4416	87.8906	82.3866	87.8906	82.4152	87.8906	82.3693	87.8906	82.394	87.8906	82.3576	87.8906	82.3777	87.8906	82.3505	87.8906	82.3657	87.8906	82.3471	87.8906	82.3573	87.8906	82.3465	87.8906	82.3516	87.8906	82.348
90.8203	83.3367	90.8203	83.3261	90.8203	83.3351	90.8203	83.3036	90.8203	83.3211	90.8203	83.2702	90.8203	83.2956	90.8203	83.2273	90.8203	83.2596	90.8203	83.177	90.8203	83.215	90.8203	83.1213	90.8203	83.1637	90.8203	83.0629	90.8203	83.1082	90.8203	83.0041	90.8203	83.0509	90.8203	82.9474	90.8203	82.9944	90.8203	82.895	90.8203	82.9408	90.8203	82.8487	90.8203	82.892	90.8203	82.8097	90.8203	82.8493	90.8203	82.7786	90.8203	82.8134	90.8203	82.7554	90.8203	82.7845	90.8203	82.7396	90.8203	82.7622	90.8203	82.7305	90.8203	82.7459	90.8203	82.727	90.8203	82.7348	90.8203	82.7286
95.2148	83.9397	95.2148	83.9287	95.2148	83.9391	95.2148	83.9067	95.2148	83.9273	95.2148	83.8746	95.2148	83.9049	95.2148	83.8342	95.2148	83.8733	95.2148	83.7875	95.2148	83.8341	95.2148	83.7369	95.2148	83.7896	95.2148	83.685	95.2148	83.7422	95.2148	83.6345	95.2148	83.6943	95.2148	83.5875	95.2148	83.6481	95.2148	83.5462	95.2148	83.6054	95.2148	83.5117	95.2148	83.5677	95.2148	83.4846	95.2148	83.5357	95.2148	83.465	95.2148	83.5095	95.2148	83.4521	95.2148	83.489	95.2148	83.445	95.2148	83.4732	95.2148	83.4424	95.2148	83.4615	95.2148	83.4433	95.2148	83.4529	95.2148	83.4469
98.1445	84.1824	98.1445	84.1718	98.1445	84.1816	98.1445	84.1503	98.1445	84.1694	98.1445	84.1188	98.1445	84.1467	98.1445	84.0791	98.1445	84.1149	98.1445	84.0333	98.1445	84.0757	98.1445	83.9841	98.1445	84.0317	98.1445	83.934	98.1445	83.9852	98.1445	83.8859	98.1445	83.9389	98.1445	83.8421	98.1445	83.8954	98.1445	83.8046	98.1445	83.8565	98.1445	83.7748	98.1445	83.8238	98.1445	83.753	98.1445	83.7977	98.1445	83.7389	98.1445	83.7782	98.1445	83.7316	98.1445	83.7642	98.1445	83.7295	98.1445	83.7547	98.1445	83.7309	98.1445	83.748	98.1445	83.7342	98.1445	83.7428	98.1445	83.7383
101.074	84.4793	101.074	84.4701	101.074	84.4761	101.074	84.4489	101.074	84.4607	101.074	84.4167	101.074	84.4343	101.074	84.3752	101.074	84.3984	101.074	84.3267	101.074	84.3552	101.074	84.2741	101.074	84.3071	101.074	84.2203	101.074	84.2571	101.074	84.1684	101.074	84.2077	101.074	84.121	101.074	84.1617	101.074	84.0806	101.074	84.1211	101.074	84.0486	101.074	84.0873	101.074	84.0254	101.074	84.0609	101.074	84.0108	101.074	84.0418	101.074	84.0033	101.074	84.0289	101.074	84.0013	101.074	84.0208	101.074	84.0026	101.074	84.0158	101.074	84.0056	101.074	84.0122	101.074	84.0089
105.469	85.1413	105.469	85.133	105.469	85.1366	105.469	85.1121	105.469	85.1191	105.469	85.0798	105.469	85.09	105.469	85.0381	105.469	85.0511	105.469	84.9896	105.469	85.0049	105.469	84.937	105.469	84.9543	105.469	84.8836	105.469	84.9023	105.469	84.832	105.469	84.8518	105.469	84.7851	105.469	84.8053	105.469	84.7446	105.469	84.7648	105.469	84.7118	105.469	84.7316	105.469	84.6871	105.469	84.7059	105.469	84.6701	105.469	84.6874	105.469	84.6597	105.469	84.6748	105.469	84.6547	105.469	84.6669	105.469	84.6533	105.469	84.6619	105.469	84.6541	105.469	84.6586	105.469	84.656
108.398	85.3737	108.398	85.3635	108.398	85.3689	108.398	85.339	108.398	85.3495	108.398	85.3014	108.398	85.3167	108.398	85.253	108.398	85.2728	108.398	85.1969	108.398	85.2204	108.398	85.1364	108.398	85.1629	108.398	85.075	108.398	85.1038	108.398	85.0164	108.398	85.0467	108.398	84.9636	108.398	84.9946	108.398	84.9191	108.398	84.9498	108.398	84.8842	108.398	84.9137	108.398	84.8592	108.398	84.8866	108.398	84.8435	108.398	84.868	108.398	84.8356	108.398	84.8564	108.398	84.8334	108.398	84.8497	108.398	84.8347	108.398	84.8459	108.398	84.8376	108.398	84.8433	108.398	84.8406
112.793	85.8805	112.793	85.8669	112.793	85.8779	112.793	85.8378	112.793	85.8595	112.793	85.795	112.793	85.8266	112.793	85.7409	112.793	85.7813	112.793	85.6788	112.793	85.7266	112.793	85.6123	112.793	85.666	112.793	85.5455	112.793	85.6034	112.793	85.4822	112.793	85.5424	112.793	85.4256	112.793	85.4865	112.793	85.3785	112.793	85.438	112.793	85.3421	112.793	85.3985	112.793	85.3168	112.793	85.3683	112.793	85.3017	112.793	85.3469	112.793	85.295	112.793	85.3325	112.793	85.2945	112.793	85.3234	112.793	85.2977	112.793	85.3173	112.793	85.3026	112.793	85.3125	112.793	85.3077
117.188	86.2549	117.188	86.2462	117.188	86.2454	117.188	86.2197	117.188	86.2178	117.188	86.1773	117.188	86.1737	117.188	86.1212	117.188	86.1152	117.188	86.0547	117.188	86.0459	117.188	85.9818	117.188	85.9699	117.188	85.9067	117.188	85.892	117.188	85.8337	117.188	85.8172	117.188	85.7671	117.188	85.75	117.188	85.71	117.188	85.6939	117.188	85.6649	117.188	85.6511	117.188	85.6324	117.188	85.6219	117.188	85.6121	117.188	85.6053	117.188	85.6019	117.188	85.5984	117.188	85.599	117.188	85.5979	117.188	85.6002	117.188	85.6004	117.188	85.6025	117.188	85.6029	117.188	85.6038
120.117	86.4544	120.117	86.4472	120.117	86.4425	120.117	86.4215	120.117	86.4118	120.117	86.3788	120.117	86.3631	120.117	86.3213	120.117	86.2986	120.117	86.2518	120.117	86.221	120.117	86.1738	120.117	86.1342	120.117	86.0913	120.117	86.0429	120.117	86.0084	120.117	85.9521	120.117	85.929	120.117	85.8668	120.117	85.8568	120.117	85.7918	120.117	85.7944	120.117	85.7303	120.117	85.7435	120.117	85.6841	120.117	85.7044	120.117	85.6529	120.117	85.6763	120.117	85.6349	120.117	85.6574	120.117	85.6268	120.117	85.6452	120.117	85.6254	120.117	85.6373	120.117	85.6277	120.117	85.6318
124.512	86.927	124.512	86.9091	124.512	86.9299	124.512	86.8771	124.512	86.9175	124.512	86.8324	124.512	86.8905	124.512	86.7774	124.512	86.8501	124.512	86.7149	124.512	86.7981	124.512	86.6482	124.512	86.7367	124.512	86.5806	124.512	86.6686	124.512	86.5153	124.512	86.5971	124.512	86.4553	124.512	86.5254	124.512	86.4025	124.512	86.457	124.512	86.3583	124.512	86.3949	124.512	86.3228	124.512	86.3417	124.512	86.2953	124.512	86.2993	124.512	86.2746	124.512	86.268	124.512	86.2591	124.512	86.2475	124.512	86.2476	124.512	86.2362	124.512	86.2392	124.512	86.2323	124.512	86.2338
128.906	87.1374	128.906	87.1259	128.906	87.1337	128.906	87.0996	128.906	87.1153	128.906	87.06	128.906	87.0835	128.906	87.0093	128.906	87.0406	128.906	86.9508	128.906	86.9896	128.906	86.8879	128.906	86.9337	128.906	86.8247	128.906	86.8765	128.906	86.7651	128.906	86.8212	128.906	86.7125	128.906	86.771	128.906	86.6697	128.906	86.728	128.906	86.6382	128.906	86.6937	128.906	86.6181	128.906	86.6686	128.906	86.6086	128.906	86.6519	128.906	86.6072	128.906	86.6422	128.906	86.6112	128.906	86.6373	128.906	86.6178	128.906	86.635	128.906	86.6245	128.906	86.633	128.906	86.6297
133.301	87.4149	133.301	87.4061	133.301	87.4067	133.301	87.3811	133.301	87.3821	133.301	87.3415	133.301	87.3425	133.301	87.2898	133.301	87.2903	133.301	87.2296	133.301	87.229	133.301	87.1645	133.301	87.1624	133.301	87.0987	133.301	87.0949	133.301	87.0361	133.301	87.0305	133.301	86.9804	133.301	86.9732	133.301	86.9341	133.301	86.9256	133.301	86.8988	133.301	86.8897	133.301	86.8748	133.301	86.8657	133.301	86.8611	133.301	86.8526	133.301	86.8556	133.301	86.8482	133.301	86.8555	133.301	86.8497	133.301	86.8578	133.301	86.8538	133.301	86.86	133.301	86.858	133.301	86.8603
139.16	87.7072	139.16	87.6981	139.16	87.6979	139.16	87.6715	139.16	87.6706	139.16	87.6293	139.16	87.6266	139.16	87.5743	139.16	87.5684	139.16	87.5102	139.16	87.4993	139.16	87.4414	139.16	87.4238	139.16	87.3723	139.16	87.3464	139.16	87.3073	139.16	87.2722	139.16	87.2502	139.16	87.2058	139.16	87.2035	139.16	87.151	139.16	87.1687	139.16	87.1103	139.16	87.1454	139.16	87.0843	139.16	87.132	139.16	87.0724	139.16	87.1258	139.16	87.0718	139.16	87.1236	139.16	87.0792	139.16	87.1222	139.16	87.0907	139.16	87.119	139.16	87.1027	139.16	87.1125
143.555	87.9001	143.555	87.886	143.555	87.8954	143.555	87.8541	143.555	87.8724	143.555	87.8065	143.555	87.8323	143.555	87.7462	143.555	87.7777	143.555	87.6771	143.555	87.712	143.555	87.6038	143.555	87.6395	143.555	87.5311	143.555	87.565	143.555	87.4637	143.555	87.4931	143.555	87.4057	143.555	87.4285	143.555	87.3599	143.555	87.3746	143.555	87.3276	143.555	87.3337	143.555	87.3084	143.555	87.3067	143.555	87.3003	143.555	87.2926	143.555	87.3004	143.555	87.2891	143.555	87.3047	143.555	87.2929	143.555	87.3099	143.555	87.3002	143.555	87.3129	143.555	87.3075	143.555	87.3122
147.949	87.9937	147.949	87.9809	147.949	87.9871	147.949	87.9496	147.949	87.9615	147.949	87.902	147.949	87.9184	147.949	87.8411	147.949	87.8604	147.949	87.7712	147.949	87.7913	147.949	87.6968	147.949	87.7158	147.949	87.623	147.949	87.6389	147.949	87.5545	147.949	87.5657	147.949	87.4953	147.949	87.5009	147.949	87.4483	147.949	87.4479	147.949	87.4147	147.949	87.4087	147.949	87.3943	147.949	87.3839	147.949	87.3852	147.949	87.3719	147.949	87.3843	147.949	87.3703	147.949	87.3882	147.949	87.3754	147.949	87.3931	147.949	87.3834	147.949	87.3962	147.949	87.3909	147.949	87.3956
153.809	88.0406	153.809	88.0284	153.809	88.0314	153.809	87.996	153.809	88.0011	153.809	87.9458	153.809	87.9516	153.809	87.8819	153.809	87.8861	153.809	87.8092	153.809	87.8091	153.809	87.7333	153.809	87.7264	153.809	87.6603	153.809	87.644	153.809	87.5955	153.809	87.5681	153.809	87.5435	153.809	87.5041	153.809	87.5068	153.809	87.456	153.809	87.4861	153.809	87.426	153.809	87.4796	153.809	87.4138	153.809	87.4839	153.809	87.4173	153.809	87.4946	153.809	87.4325	153.809	87.5067	153.809	87.4544	153.809	87.5157	153.809	87.4779	153.809	87.5183	153.809	87.4984	153.809	87.5125
159.668	88.2676	159.668	88.2494	159.668	88.2611	159.668	88.2081	159.668	88.2304	159.668	88.1466	159.668	88.1772	159.668	88.0692	159.668	88.105	159.668	87.9816	159.668	88.0187	159.668	87.8904	159.668	87.9246	159.668	87.8025	159.668	87.8297	159.668	87.7244	159.668	87.7414	159.668	87.6618	159.668	87.6667	159.668	87.6181	159.668	87.6109	159.668	87.5947	159.668	87.5769	159.668	87.5901	159.668	87.5648	159.668	87.6005	159.668	87.5715	159.668	87.6204	159.668	87.5918	159.668	87.6434	159.668	87.6188	159.668	87.6635	159.668	87.6456	159.668	87.6757	159.668	87.6663	159.668	87.6769
165.527	88.2923	165.527	88.274	165.527	88.2862	165.527	88.2327	165.527	88.2562	165.527	88.1712	165.527	88.2041	165.527	88.094	165.527	88.1335	165.527	88.0069	165.527	88.0491	165.527	87.9165	165.527	87.9567	165.527	87.8298	165.527	87.8629	165.527	87.7533	165.527	87.7744	165.527	87.6922	165.527	87.6974	165.527	87.6498	165.527	87.637	165.527	87.6264	165.527	87.5965	165.527	87.6202	165.527	87.5764	165.527	87.6269	165.527	87.5751	165.527	87.6412	165.527	87.5883	165.527	87.6572	165.527	87.6102	165.527	87.6697	165.527	87.6347	165.527	87.6748	165.527	87.6561	165.527	87.6702
171.387	88.3089	171.387	88.2871	171.387	88.3044	171.387	88.2401	171.387	88.2742	171.387	88.1707	171.387	88.2209	171.387	88.0833	171.387	88.1481	171.387	87.9838	171.387	88.0611	171.387	87.8795	171.387	87.9661	171.387	87.7781	171.387	87.8699	171.387	87.6873	171.387	87.779	171.387	87.6136	171.387	87.6998	171.387	87.5614	171.387	87.6368	171.387	87.5322	171.387	87.5932	171.387	87.5244	171.387	87.5693	171.387	87.5336	171.387	87.5632	171.387	87.5538	171.387	87.5707	171.387	87.5782	171.387	87.5862	171.387	87.6004	171.387	87.6033	171.387	87.6156	171.387	87.6163	171.387	87.6211
177.246	88.1897	177.246	88.1711	177.246	88.1814	177.246	88.1268	177.246	88.147	177.246	88.0597	177.246	88.089	177.246	87.9746	177.246	88.0116	177.246	87.8778	177.246	87.9207	177.246	87.7768	177.246	87.8232	177.246	87.6798	177.246	87.7269	177.246	87.5946	177.246	87.639	177.246	87.5279	177.246	87.5661	177.246	87.4837	177.246	87.5128	177.246	87.4633	177.246	87.4813	177.246	87.4644	177.246	87.4711	177.246	87.482	177.246	87.4789	177.246	87.5093	177.246	87.4996	177.246	87.5389	177.246	87.5266	177.246	87.5641	177.246	87.5532	177.246	87.5798	177.246	87.5735	177.246	87.5831
183.105	88.1433	183.105	88.1272	183.105	88.13	183.105	88.0828	183.105	88.0881	183.105	88.0133	183.105	88.0203	183.105	87.9237	183.105	87.9315	183.105	87.8211	183.105	87.8283	183.105	87.7136	183.105	87.719	183.105	87.6104	183.105	87.6126	183.105	87.5208	183.105	87.5184	183.105	87.4523	183.105	87.4443	183.105	87.4099	183.105	87.3959	183.105	87.395	183.105	87.3751	183.105	87.405	183.105	87.3803	183.105	87.4336	183.105	87.4064	183.105	87.4727	183.105	87.4458	183.105	87.5133	183.105	87.4897	183.105	87.5473	183.105	87.5298	183.105	87.5683	183.105	87.559	183.105	87.5725
188.965	88.0914	188.965	88.0721	188.965	88.0782	188.965	88.0218	188.965	88.0332	188.965	87.9438	188.965	87.9587	188.965	87.8434	188.965	87.8593	188.965	87.7278	188.965	87.7414	188.965	87.6058	188.965	87.6133	188.965	87.4874	188.965	87.4848	188.965	87.3823	188.965	87.3664	188.965	87.2992	188.965	87.2676	188.965	87.2438	188.965	87.1961	188.965	87.218	188.965	87.1557	188.965	87.2192	188.965	87.1463	188.965	87.241	188.965	87.1634	188.965	87.2744	188.965	87.1993	188.965	87.3094	188.965	87.2445	188.965	87.3372	188.965	87.2895	188.965	87.3512	188.965	87.3259	188.965	87.3475
196.289	88.0313	196.289	88.0086	196.289	88.0214	196.289	87.9551	196.289	87.9792	196.289	87.874	196.289	87.9069	196.289	87.7709	196.289	87.8085	196.289	87.6528	196.289	87.6898	196.289	87.5282	196.289	87.5586	196.289	87.4066	196.289	87.4239	196.289	87.2973	196.289	87.2959	196.289	87.2081	196.289	87.1844	196.289	87.1445	196.289	87.0977	196.289	87.1082	196.289	87.0411	196.289	87.0968	196.289	87.0158	196.289	87.1047	196.289	87.0185	196.289	87.1241	196.289	87.0421	196.289	87.1467	196.289	87.0775	196.289	87.1648	196.289	87.115	196.289	87.1726	196.289	87.1466	196.289	87.1667
203.613	87.8645	203.613	87.835	203.613	87.8589	203.613	87.7714	203.613	87.8193	203.613	87.6769	203.613	87.7484	203.613	87.5569	203.613	87.651	203.613	87.419	203.613	87.5336	203.613	87.2733	203.613	87.4044	203.613	87.1312	203.613	87.2726	203.613	87.005	203.613	87.148	203.613	86.9057	203.613	87.0402	203.613	86.8408	203.613	86.957	203.613	86.8131	203.613	86.9034	203.613	86.8192	203.613	86.8804	203.613	86.8509	203.613	86.8845	203.613	86.897	203.613	86.9088	203.613	86.9455	203.613	86.9437	203.613	86.9863	203.613	86.9794	203.613	87.0119	203.613	87.0066	203.613	87.0187
210.938	87.684	210.938	87.6593	210.938	87.6742	210.938	87.6019	210.938	87.6299	210.938	87.5153	210.938	87.5535	210.938	87.4051	210.938	87.4496	210.938	87.2783	210.938	87.3252	210.938	87.1438	210.938	87.189	210.938	87.0114	210.938	87.0513	210.938	86.8919	210.938	86.9232	210.938	86.7952	210.938	86.815	210.938	86.7291	210.938	86.7349	210.938	86.6968	210.938	86.6875	210.938	86.6967	210.938	86.6733	210.938	86.7221	210.938	86.6878	210.938	86.7626	210.938	86.7229	210.938	86.8066	210.938	86.7683	210.938	86.8434	210.938	86.8133	210.938	86.8649	210.938	86.8484	210.938	86.8667
218.262	87.4833	218.262	87.4614	218.262	87.4687	218.262	87.4043	218.262	87.4182	218.262	87.3159	218.262	87.3353	218.262	87.2023	218.262	87.2255	218.262	87.0714	218.262	87.0969	218.262	86.9334	218.262	86.9592	218.262	86.7997	218.262	86.8238	218.262	86.6821	218.262	86.7018	218.262	86.5913	218.262	86.6036	218.262	86.5349	218.262	86.5369	218.262	86.5157	218.262	86.5058	218.262	86.5311	218.262	86.5093	218.262	86.5729	218.262	86.5419	218.262	86.6296	218.262	86.5942	218.262	86.6885	218.262	86.6545	218.262	86.7374	218.262	86.7108	218.262	86.7672	218.262	86.7527	218.262	86.7727
225.586	87.308	225.586	87.2843	225.586	87.2906	225.586	87.2218	225.586	87.2324	225.586	87.1255	225.586	87.1365	225.586	87.0029	225.586	87.0091	225.586	86.8635	225.586	86.8594	225.586	86.7186	225.586	86.6992	225.586	86.5807	225.586	86.5424	225.586	86.4622	225.586	86.4032	225.586	86.3738	225.586	86.2944	225.586	86.3227	225.586	86.2253	225.586	86.3105	225.586	86.1998	225.586	86.3332	225.586	86.2157	225.586	86.3815	225.586	86.2652	225.586	86.4424	225.586	86.3362	225.586	86.5026	225.586	86.4147	225.586	86.5499	225.586	86.4872	225.586	86.5751	225.586	86.5425	225.586	86.573
232.91	87.1178	232.91	87.0792	232.91	87.1112	232.91	86.9983	232.91	87.0593	232.91	86.8804	232.91	86.9645	232.91	86.7338	232.91	86.8322	232.91	86.5689	232.91	86.671	232.91	86.399	232.91	86.4927	232.91	86.2386	232.91	86.312	232.91	86.1024	232.91	86.1453	232.91	86.0031	232.91	86.0087	232.91	85.9488	232.91	85.915	232.91	85.9413	232.91	85.8712	232.91	85.9747	232.91	85.8767	232.91	86.0373	232.91	85.9237	232.91	86.1134	232.91	85.9988	232.91	86.1868	232.91	86.0859	232.91	86.2434	232.91	86.1686	232.91	86.2728	232.91	86.2331	232.91	86.2695
241.699	86.9154	241.699	86.8677	241.699	86.9166	241.699	86.7755	241.699	86.8719	241.699	86.6436	241.699	86.7842	241.699	86.48	241.699	86.6591	241.699	86.2959	241.699	86.5045	241.699	86.1056	241.699	86.3311	241.699	85.9255	241.699	86.1518	241.699	85.7726	241.699	85.9815	241.699	85.6612	241.699	85.8351	241.699	85.6003	241.699	85.7257	241.699	85.591	241.699	85.6621	241.699	85.6265	241.699	85.6462	241.699	85.6932	241.699	85.6723	241.699	85.7741	241.699	85.7287	241.699	85.8523	241.699	85.7998	241.699	85.9138	241.699	85.8693	241.699	85.9484	241.699	85.9233	241.699	85.9515
250.488	86.9486	250.488	86.9061	250.488	86.9377	250.488	86.8113	250.488	86.8743	250.488	86.6679	250.488	86.7621	250.488	86.4827	250.488	86.6075	250.488	86.2658	250.488	86.4201	250.488	86.0314	250.488	86.2127	250.488	85.7975	250.488	86.0013	250.488	85.5849	250.488	85.8038	250.488	85.4141	250.488	85.6374	250.488	85.3013	250.488	85.516	250.488	85.2538	250.488	85.447	250.488	85.2678	250.488	85.4295	250.488	85.3297	250.488	85.4548	250.488	85.4192	250.488	85.5083	250.488	85.5151	250.488	85.573	250.488	85.5988	250.488	85.6321	250.488	85.6566	250.488	85.6715	250.488	85.6812
259.277	86.7658	259.277	86.725	259.277	86.7546	259.277	86.6336	259.277	86.6922	259.277	86.4953	259.277	86.5817	259.277	86.3164	259.277	86.4289	259.277	86.1064	259.277	86.2424	259.277	85.8784	259.277	86.0342	259.277	85.6498	259.277	85.8197	259.277	85.4408	259.277	85.6166	259.277	85.2722	259.277	85.4433	259.277	85.161	259.277	85.3156	259.277	85.1152	259.277	85.2434	259.277	85.1316	259.277	85.2279	259.277	85.196	259.277	85.2607	259.277	85.2877	259.277	85.326	259.277	85.3848	259.277	85.4044	259.277	85.4681	259.277	85.4765	259.277	85.5237	259.277	85.5264	259.277	85.5437
268.066	86.624	268.066	86.5762	268.066	86.6165	268.066	86.4751	268.066	86.5541	268.066	86.325	268.066	86.4391	268.066	86.1331	268.066	86.276	268.066	85.9098	268.066	86.073	268.066	85.6683	268.066	85.8427	268.066	85.4239	268.066	85.6026	268.066	85.1932	268.066	85.3742	268.066	84.9934	268.066	85.18	268.066	84.8407	268.066	85.0384	268.066	84.7477	268.066	84.9593	268.066	84.7202	268.066	84.9412	268.066	84.754	268.066	84.9724	268.066	84.8345	268.066	85.0341	268.066	84.9397	268.066	85.1043	268.066	85.0456	268.066	85.1623	268.066	85.1312	268.066	85.1916	268.066	85.1819
276.855	86.3702	276.855	86.3385	276.855	86.3589	276.855	86.2626	276.855	86.3056	276.855	86.1426	276.855	86.2116	276.855	85.9806	276.855	86.0779	276.855	85.7837	276.855	85.9066	276.855	85.5654	276.855	85.7021	276.855	85.3466	276.855	85.4736	276.855	85.1535	276.855	85.2371	276.855	85.0105	276.855	85.0151	276.855	84.9331	276.855	84.8337	276.855	84.9212	276.855	84.7146	276.855	84.96	276.855	84.6684	276.855	85.0267	276.855	84.6908	276.855	85.0983	276.855	84.7654	276.855	85.1565	276.855	84.8696	276.855	85.1888	276.855	84.9804	276.855	85.1877	276.855	85.0786	276.855	85.1503
287.109	86.2575	287.109	86.2148	287.109	86.234	287.109	86.1064	287.109	86.148	287.109	85.9377	287.109	86.0077	287.109	85.7189	287.109	85.8252	287.109	85.4647	287.109	85.6157	287.109	85.195	287.109	85.3964	287.109	84.9342	287.109	85.1844	287.109	84.7096	287.109	84.9954	287.109	84.5482	287.109	84.8433	287.109	84.4694	287.109	84.7396	287.109	84.4777	287.109	84.693	287.109	84.5599	287.109	84.7055	287.109	84.6892	287.109	84.7697	287.109	84.8345	287.109	84.8681	287.109	84.9693	287.109	84.977	287.109	85.0751	287.109	85.0732	287.109	85.1412	287.109	85.1385	287.109	85.1626
297.363	86.2818	297.363	86.2493	297.363	86.247	297.363	86.1569	297.363	86.1403	297.363	86.0132	297.363	85.9609	297.363	85.8266	297.363	85.7145	297.363	85.6044	297.363	85.4141	297.363	85.3538	297.363	85.082	297.363	85.0837	297.363	84.7496	297.363	84.8093	297.363	84.454	297.363	84.5568	297.363	84.2311	297.363	84.3624	297.363	84.1062	297.363	84.2622	297.363	84.0866	297.363	84.2747	297.363	84.1608	297.363	84.3872	297.363	84.3035	297.363	84.5592	297.363	84.4827	297.363	84.7403	297.363	84.6665	297.363	84.8882	297.363	84.8265	297.363	84.9763	297.363	84.9408	297.363	84.9936
307.617	86.0784	307.617	85.9882	307.617	86.1059	307.617	85.8365	307.617	86.0712	307.617	85.6276	307.617	85.9758	307.617	85.3707	307.617	85.8218	307.617	85.0808	307.617	85.6129	307.617	84.7789	307.617	85.3561	307.617	84.4896	307.617	85.0641	307.617	84.2378	307.617	84.7578	307.617	84.0439	307.617	84.4666	307.617	83.921	307.617	84.2243	307.617	83.8744	307.617	84.0606	307.617	83.9013	307.617	83.9906	307.617	83.9894	307.617	84.0092	307.617	84.1169	307.617	84.0935	307.617	84.2545	307.617	84.2113	307.617	84.3721	307.617	84.3293	307.617	84.4457	307.617	84.4196	307.617	84.4619
319.336	85.8988	319.336	85.8431	319.336	85.8882	319.336	85.721	319.336	85.8137	319.336	85.5345	319.336	85.6794	319.336	85.2889	319.336	85.4919	319.336	84.9942	319.336	85.26	319.336	84.6668	319.336	84.9955	319.336	84.3314	319.336	84.7138	319.336	84.0199	319.336	84.4348	319.336	83.7669	319.336	84.1826	319.336	83.6015	319.336	83.9834	319.336	83.5377	319.336	83.8592	319.336	83.5703	319.336	83.8203	319.336	83.6773	319.336	83.8599	319.336	83.8274	319.336	83.955	319.336	83.9878	319.336	84.0732	319.336	84.1288	319.336	84.1815	319.336	84.2279	319.336	84.2532	319.336	84.2708
329.59	85.7767	329.59	85.714	329.59	85.7658	329.59	85.5792	329.59	85.6817	329.59	85.3756	329.59	85.5276	329.59	85.109	329.59	85.3103	329.59	84.7886	329.59	85.0412	329.59	84.4306	329.59	84.7373	329.59	84.0611	329.59	84.4211	329.59	83.7183	329.59	84.1206	329.59	83.4479	329.59	83.8657	329.59	83.2899	329.59	83.6834	329.59	83.2619	329.59	83.591	329.59	83.349	329.59	83.5904	329.59	83.5118	329.59	83.667	329.59	83.7044	329.59	83.7931	329.59	83.8882	329.59	83.9349	329.59	84.0366	329.59	84.0601	329.59	84.1336	329.59	84.1437	329.59	84.17
341.309	85.7386	341.309	85.7142	341.309	85.6827	341.309	85.6109	341.309	85.548	341.309	85.433	341.309	85.3394	341.309	85.1878	341.309	85.0654	341.309	84.8847	341.309	84.7389	341.309	84.5359	341.309	84.3785	341.309	84.1576	341.309	84.0095	341.309	83.7733	341.309	83.6645	341.309	83.4174	341.309	83.3806	341.309	83.1344	341.309	83.1928	341.309	82.9691	341.309	83.1215	341.309	82.9462	341.309	83.1628	341.309	83.0546	341.309	83.2887	341.309	83.2494	341.309	83.4575	341.309	83.4716	341.309	83.6281	341.309	83.6688	341.309	83.7676	341.309	83.8064	341.309	83.8528	341.309	83.8683
353.027	85.6225	353.027	85.5525	353.027	85.6254	353.027	85.4185	353.027	85.558	353.027	85.2239	353.027	85.4166	353.027	84.9735	353.027	85.1983	353.027	84.675	353.027	84.9037	353.027	84.3403	353.027	84.5397	353.027	83.9873	353.027	84.1231	353.027	83.6413	353.027	83.6838	353.027	83.335	353.027	83.266	353.027	83.1041	353.027	82.9236	353.027	82.9776	353.027	82.7084	353.027	82.9653	353.027	82.6501	353.027	83.0518	353.027	82.7401	353.027	83.201	353.027	82.9333	353.027	83.3683	353.027	83.1669	353.027	83.5122	353.027	83.3822	353.027	83.6005	353.027	83.5379	353.027	83.6122
366.211	85.6227	366.211	85.5216	366.211	85.6425	366.211	85.3436	366.211	85.5785	366.211	85.0948	366.211	85.4304	366.211	84.7838	366.211	85.2011	366.211	84.423	366.211	84.8984	366.211	84.0309	366.211	84.5366	366.211	83.6338	366.211	84.1396	366.211	83.2673	366.211	83.7409	366.211	82.9732	366.211	83.3815	366.211	82.7902	366.211	83.1003	366.211	82.7388	366.211	82.9238	366.211	82.8091	366.211	82.8581	366.211	82.9628	366.211	82.8899	366.211	83.1486	366.211	82.9927	366.211	83.3193	366.211	83.1345	366.211	83.4418	366.211	83.2825	366.211	83.4984	366.211	83.4072	366.211	83.4846
379.395	85.6265	379.395	85.5632	379.395	85.608	379.395	85.4191	379.395	85.5083	379.395	85.1968	379.395	85.3298	379.395	84.9004	379.395	85.077	379.395	84.537	379.395	84.7584	379.395	84.1185	379.395	84.3879	379.395	83.665	379.395	83.9877	379.395	83.2087	379.395	83.5897	379.395	82.7964	379.395	83.2349	379.395	82.486	379.395	82.9676	379.395	82.3303	379.395	82.8243	379.395	82.3527	379.395	82.8198	379.395	82.5313	379.395	82.9387	379.395	82.807	379.395	83.1377	379.395	83.1096	379.395	83.359	379.395	83.379	379.395	83.5466	379.395	83.5737	379.395	83.6583	379.395	83.6696
392.578	85.3512	392.578	85.2759	392.578	85.3396	392.578	85.1145	392.578	85.2432	392.578	84.8708	392.578	85.0663	392.578	84.5526	392.578	84.8135	392.578	84.1723	392.578	84.4903	392.578	83.7482	392.578	84.1032	392.578	83.307	392.578	83.6648	392.578	82.8852	392.578	83.201	392.578	82.5273	392.578	82.7581	392.578	82.2778	392.578	82.4007	392.578	82.1674	392.578	82.1917	392.578	82.2	392.578	82.1591	392.578	82.3494	392.578	82.2788	392.578	82.5677	392.578	82.4907	392.578	82.8	392.578	82.7289	392.578	82.9967	392.578	82.9408	392.578	83.1213	392.578	83.09	392.578	83.1537
405.762	85.3866	405.762	85.3187	405.762	85.3622	405.762	85.1599	405.762	85.2461	405.762	84.9129	405.762	85.0404	405.762	84.5812	405.762	84.7493	405.762	84.1702	405.762	84.3796	405.762	83.69	405.762	83.9428	405.762	83.1616	405.762	83.4592	405.762	82.6263	405.762	82.962	405.762	82.1511	405.762	82.4986	405.762	81.8182	405.762	82.1264	405.762	81.6895	405.762	81.8977	405.762	81.7667	405.762	81.8392	405.762	81.9887	405.762	81.9371	405.762	82.2689	405.762	82.1416	405.762	82.5331	405.762	82.3872	405.762	82.7338	405.762	82.6144	405.762	82.8465	405.762	82.7808	405.762	82.8619
420.41	85.4596	420.41	85.3922	420.41	85.4486	420.41	85.2424	420.41	85.3617	420.41	85.0058	420.41	85.1997	420.41	84.6805	420.41	84.9625	420.41	84.2704	420.41	84.6487	420.41	83.7885	420.41	84.2568	420.41	83.2606	420.41	83.7875	420.41	82.7278	420.41	83.2533	420.41	82.2478	420.41	82.693	420.41	81.8874	420.41	82.1828	420.41	81.704	420.41	81.8238	420.41	81.7167	420.41	81.6934	420.41	81.8909	420.41	81.7904	420.41	82.1541	420.41	82.0362	420.41	82.428	420.41	82.3278	420.41	82.6528	420.41	82.5843	420.41	82.7927	420.41	82.7586	420.41	82.8298
435.059	85.2826	435.059	85.1923	435.059	85.2875	435.059	85.0198	435.059	85.2043	435.059	84.7666	435.059	85.0323	435.059	84.4324	435.059	84.7736	435.059	84.0153	435.059	84.4329	435.059	83.5157	435.059	84.0167	435.059	82.9426	435.059	83.5345	435.059	82.3258	435.059	83.0022	435.059	81.7323	435.059	82.4523	435.059	81.273	435.059	81.9457	435.059	81.0698	435.059	81.5753	435.059	81.1786	435.059	81.4366	435.059	81.5383	435.059	81.5657	435.059	82.014	435.059	81.9018	435.059	82.4759	435.059	82.3223	435.059	82.8376	435.059	82.7092	435.059	83.0531	435.059	82.9829	435.059	83.1024
451.172	85.5687	451.172	85.4397	451.172	85.5879	451.172	85.2038	451.172	85.4963	451.172	84.8664	451.172	85.2951	451.172	84.4373	451.172	84.9893	451.172	83.931	451.172	84.5886	451.172	83.3677	451.172	84.1095	451.172	82.773	451.172	83.5753	451.172	82.1787	451.172	83.0174	451.172	81.6266	451.172	82.4754	451.172	81.1739	451.172	81.9969	451.172	80.8923	451.172	81.6313	451.172	80.8446	451.172	81.4195	451.172	81.0394	451.172	81.3811	451.172	81.4058	451.172	81.5046	451.172	81.8222	451.172	81.7444	451.172	82.1715	451.172	82.028	451.172	82.3757	451.172	82.2728	451.172	82.405
465.82	85.349	465.82	85.313	465.82	85.2949	465.82	85.1781	465.82	85.157	465.82	84.9336	465.82	84.9404	465.82	84.5667	465.82	84.6486	465.82	84.0666	465.82	84.2844	465.82	83.4311	465.82	83.8505	465.82	82.6789	465.82	83.354	465.82	81.8643	465.82	82.8133	465.82	81.0908	465.82	82.2685	465.82	80.5023	465.82	81.7878	465.82	80.2252	465.82	81.4543	465.82	80.2822	465.82	81.3252	465.82	80.576	465.82	81.3893	465.82	80.9664	465.82	81.5711	465.82	81.3457	465.82	81.7778	465.82	81.6565	465.82	81.939	465.82	81.8761	465.82	82.017	465.82	81.9969
483.398	85.1344	483.398	85.0774	483.398	85.1158	483.398	84.9483	483.398	85.0178	483.398	84.7504	483.398	84.8342	483.398	84.485	483.398	84.5577	483.398	84.1467	483.398	84.1829	483.398	83.7196	483.398	83.7129	483.398	83.1809	483.398	83.1645	483.398	82.514	483.398	82.57	483.398	81.7323	483.398	81.9753	483.398	80.9099	483.398	81.4375	483.398	80.2042	483.398	81.0259	483.398	79.8165	483.398	80.8123	483.398	79.8579	483.398	80.8351	483.398	80.2447	483.398	81.0569	483.398	80.777	483.398	81.3718	483.398	81.2781	483.398	81.6594	483.398	81.6443	483.398	81.8294	483.398	81.8308
499.512	85.3301	499.512	85.2834	499.512	85.2807	499.512	85.1321	499.512	85.1417	499.512	84.8676	499.512	84.918	499.512	84.485	499.512	84.6115	499.512	83.9901	499.512	84.2193	499.512	83.4015	499.512	83.7336	499.512	82.7499	499.512	83.1503	499.512	82.075	499.512	82.4873	499.512	81.4294	499.512	81.8064	499.512	80.8902	499.512	81.2206	499.512	80.5556	499.512	80.8575	499.512	80.4975	499.512	80.7844	499.512	80.7022	499.512	80.9648	499.512	81.0724	499.512	81.2946	499.512	81.4884	499.512	81.6624	499.512	81.8564	499.512	81.9784	499.512	82.115	499.512	82.179	499.512	82.2276
517.09	85.2845	517.09	85.2295	517.09	85.2533	517.09	85.0966	517.09	85.1246	517.09	84.8864	517.09	84.8899	517.09	84.5891	517.09	84.5485	517.09	84.1843	517.09	84.1082	517.09	83.6469	517.09	83.5807	517.09	82.9568	517.09	82.9719	517.09	82.1154	517.09	82.2782	517.09	81.171	517.09	81.5028	517.09	80.2555	517.09	80.6997	517.09	79.5992	517.09	80.0224	517.09	79.426	517.09	79.6966	517.09	79.7464	517.09	79.8417	517.09	80.3406	517.09	80.3303	517.09	80.962	517.09	80.9174	517.09	81.4596	517.09	81.4185	517.09	81.7677	517.09	81.7448	517.09	81.864
536.133	84.9907	536.133	84.9488	536.133	84.9394	536.133	84.8044	536.133	84.8044	536.133	84.5504	536.133	84.5897	536.133	84.1828	536.133	84.2909	536.133	83.6998	536.133	83.8965	536.133	83.1028	536.133	83.3951	536.133	82.398	536.133	82.7846	536.133	81.601	536.133	82.0795	536.133	80.7436	536.133	81.3197	536.133	79.8904	536.133	80.5802	536.133	79.1687	536.133	79.9741	536.133	78.7718	536.133	79.62	536.133	78.8431	536.133	79.5694	536.133	79.3074	536.133	79.7666	536.133	79.9127	536.133	80.0935	536.133	80.4285	536.133	80.4342	536.133	80.738	536.133	80.6991	536.133	80.8184
555.176	85.1601	555.176	85.1388	555.176	85.1137	555.176	85.0501	555.176	84.9948	555.176	84.8887	555.176	84.7968	555.176	84.6429	555.176	84.5132	555.176	84.2938	555.176	84.1365	555.176	83.8148	555.176	83.6559	555.176	83.1738	555.176	83.0576	555.176	82.3465	555.176	82.3333	555.176	81.3442	555.176	81.5001	555.176	80.2614	555.176	80.6306	555.176	79.3191	555.176	79.8766	555.176	78.8043	555.176	79.4355	555.176	78.8395	555.176	79.4179	555.176	79.2619	555.176	79.7368	555.176	79.8122	555.176	80.1832	555.176	80.3097	555.176	80.5732	555.176	80.6644	555.176	80.8035	555.176	80.8349
574.219	85.4338	574.219	85.3649	574.219	85.411	574.219	85.2066	574.219	85.2947	574.219	84.9615	574.219	85.0824	574.219	84.631	574.219	84.7706	574.219	84.2142	574.219	84.353	574.219	83.7058	574.219	83.8216	574.219	83.0953	574.219	83.172	574.219	82.3702	574.219	82.4112	574.219	81.5248	574.219	81.5653	574.219	80.5843	574.219	80.6934	574.219	79.6492	574.219	79.9149	574.219	78.9436	574.219	79.4245	574.219	78.7495	574.219	79.3914	574.219	79.1366	574.219	79.7742	574.219	79.8439	574.219	80.3358	574.219	80.5389	574.219	80.8427	574.219	81.024	574.219	81.1616	574.219	81.2316
594.727	85.0757	594.727	85.035	594.727	85.0688	594.727	84.943	594.727	85.0077	594.727	84.7886	594.727	84.8765	594.727	84.555	594.727	84.655	594.727	84.2196	594.727	84.325	594.727	83.7554	594.727	83.8729	594.727	83.1391	594.727	83.2854	594.727	82.3652	594.727	82.5456	594.727	81.4585	594.727	81.6449	594.727	80.4906	594.727	80.6189	594.727	79.6046	594.727	79.5971	594.727	79.0116	594.727	78.8161	594.727	78.8746	594.727	78.5234	594.727	79.1596	594.727	78.7854	594.727	79.6737	594.727	79.4107	594.727	80.2114	594.727	80.0922	594.727	80.6126	594.727	80.5823	594.727	80.759
615.234	85.1654	615.234	85.1223	615.234	85.1101	615.234	84.981	615.234	84.9638	615.234	84.7461	615.234	84.7424	615.234	84.422	615.234	84.4635	615.234	84.0091	615.234	84.1358	615.234	83.4986	615.234	83.7488	615.234	82.8716	615.234	83.272	615.234	82.1073	615.234	82.6652	615.234	81.2011	615.234	81.9037	615.234	80.1926	615.234	81.0227	615.234	79.2115	615.234	80.1682	615.234	78.5217	615.234	79.58	615.234	78.402	615.234	79.416	615.234	78.8219	615.234	79.5915	615.234	79.4397	615.234	79.8935	615.234	79.959	615.234	80.1657	615.234	80.2717	615.234	80.3398	615.234	80.3857
637.207	85.1799	637.207	85.168	637.207	85.1283	637.207	85.092	637.207	85.0116	637.207	84.9486	637.207	84.8251	637.207	84.7295	637.207	84.5595	637.207	84.4202	637.207	84.2009	637.207	83.9984	637.207	83.7334	637.207	83.4315	637.207	83.1473	637.207	82.6823	637.207	82.4459	637.207	81.7294	637.207	81.6396	637.207	80.6041	637.207	80.7402	637.207	79.4288	637.207	79.7976	637.207	78.4321	637.207	78.9966	637.207	77.9029	637.207	78.6603	637.207	78.0209	637.207	78.9312	637.207	78.6545	637.207	79.5369	637.207	79.4455	637.207	80.1043	637.207	80.0854	637.207	80.425	637.207	80.4244
659.18	84.8843	659.18	84.807	659.18	84.9052	659.18	84.6861	659.18	84.8562	659.18	84.5288	659.18	84.7278	659.18	84.3313	659.18	84.5165	659.18	84.075	659.18	84.2212	659.18	83.7257	659.18	83.834	659.18	83.2373	659.18	83.3344	659.18	82.5621	659.18	82.6924	659.18	81.6664	659.18	81.8854	659.18	80.5567	659.18	80.9333	659.18	79.3448	659.18	79.9516	659.18	78.3547	659.18	79.1762	659.18	78.0272	659.18	78.8503	659.18	78.41	659.18	79.0055	659.18	79.0904	659.18	79.4387	659.18	79.7125	659.18	79.9007	659.18	80.1323	659.18	80.2186	659.18	80.3046
682.617	84.8168	682.617	84.8727	682.617	84.7038	682.617	84.8617	682.617	84.5531	682.617	84.7854	682.617	84.3805	682.617	84.6458	682.617	84.1814	682.617	84.4293	682.617	83.9245	682.617	84.1045	682.617	83.562	682.617	83.637	682.617	83.0455	682.617	83.0044	682.617	82.341	682.617	82.1963	682.617	81.4576	682.617	81.2061	682.617	80.4841	682.617	80.0472	682.617	79.5862	682.617	78.8441	682.617	78.9358	682.617	77.9767	682.617	78.648	682.617	77.9046	682.617	78.7604	682.617	78.5267	682.617	79.1767	682.617	79.2979	682.617	79.6722	682.617	79.8589	682.617	80.024	682.617	80.1022
707.52	84.6521	707.52	84.6655	707.52	84.5653	707.52	84.5992	707.52	84.4029	707.52	84.4456	707.52	84.1671	707.52	84.2216	707.52	83.8759	707.52	83.9753	707.52	83.5521	707.52	83.7463	707.52	83.2004	707.52	83.5069	707.52	82.8078	707.52	83.1595	707.52	82.3594	707.52	82.6042	707.52	81.8271	707.52	81.8203	707.52	81.1433	707.52	80.8946	707.52	80.2467	707.52	79.9554	707.52	79.2273	707.52	79.0969	707.52	78.4276	707.52	78.4531	707.52	78.1777	707.52	78.2409	707.52	78.3847	707.52	78.4826	707.52	78.7382	707.52	78.8693	707.52	79.0186	707.52	79.0836
732.422	84.7001	732.422	84.5087	732.422	84.7533	732.422	84.2461	732.422	84.6304	732.422	83.9752	732.422	84.3299	732.422	83.7121	732.422	83.8775	732.422	83.4236	732.422	83.315	732.422	83.0773	732.422	82.6859	732.422	82.6822	732.422	82.0059	732.422	82.2598	732.422	81.2389	732.422	81.7914	732.422	80.338	732.422	81.2473	732.422	79.3682	732.422	80.689	732.422	78.5905	732.422	80.2917	732.422	78.3045	732.422	80.1936	732.422	78.5735	732.422	80.3606	732.422	79.2336	732.422	80.6613	732.422	80.0226	732.422	80.972	732.422	80.6888	732.422	81.194	732.422	81.1018	732.422	81.2553
757.324	84.4819	757.324	84.4498	757.324	84.4626	757.324	84.3195	757.324	84.4272	757.324	84.071	757.324	84.367	757.324	83.7174	757.324	84.2356	757.324	83.2795	757.324	83.9862	757.324	82.7591	757.324	83.5941	757.324	82.144	757.324	83.0471	757.324	81.4414	757.324	82.3228	757.324	80.6825	757.324	81.3867	757.324	79.8762	757.324	80.2209	757.324	79.0471	757.324	78.895	757.324	78.4486	757.324	77.6947	757.324	78.513	757.324	77.1664	757.324	79.1984	757.324	77.6349	757.324	80.0054	757.324	78.7133	757.324	80.6179	757.324	79.8083	757.324	80.9515	757.324	80.5896	757.324	80.9621
785.156	84.416	785.156	84.298	785.156	84.4209	785.156	84.0847	785.156	84.2892	785.156	83.7891	785.156	84.0303	785.156	83.4467	785.156	83.7049	785.156	83.1097	785.156	83.3729	785.156	82.7885	785.156	83.0206	785.156	82.4046	785.156	82.562	785.156	81.826	785.156	81.9003	785.156	80.9746	785.156	80.9692	785.156	79.9125	785.156	79.7574	785.156	78.8117	785.156	78.3855	785.156	77.8893	785.156	77.261	785.156	77.548	785.156	76.9549	785.156	78.1413	785.156	77.4915	785.156	79.2408	785.156	78.3936	785.156	80.1569	785.156	79.3233	785.156	80.5977	785.156	80.0917	785.156	80.5516
811.523	84.3945	811.523	84.2485	811.523	84.4015	811.523	84.0229	811.523	84.2656	811.523	83.7869	811.523	84.0347	811.523	83.574	811.523	83.7637	811.523	83.3688	811.523	83.4748	811.523	83.1217	811.523	83.14	811.523	82.7747	811.523	82.6895	811.523	82.256	811.523	82.0477	811.523	81.4561	811.523	81.156	811.523	80.3081	811.523	79.9544	811.523	78.9797	811.523	78.3845	811.523	77.9172	811.523	76.6048	811.523	77.4976	811.523	75.5395	811.523	77.816	811.523	76.1902	811.523	78.7127	811.523	77.6755	811.523	79.6935	811.523	78.971	811.523	80.2879	811.523	79.862	811.523	80.3282
840.82	84.4525	840.82	84.2074	840.82	84.5398	840.82	83.8368	840.82	84.465	840.82	83.4015	840.82	84.2359	840.82	82.9521	840.82	83.8771	840.82	82.4973	840.82	83.451	840.82	82.025	840.82	83.0483	840.82	81.5199	840.82	82.702	840.82	80.9701	840.82	82.3054	840.82	80.3944	840.82	81.6843	840.82	79.7931	840.82	80.7393	840.82	79.0488	840.82	79.492	840.82	78.124	840.82	78.0689	840.82	77.5157	840.82	76.8298	840.82	77.8867	840.82	76.5698	840.82	78.9028	840.82	77.6164	840.82	79.8653	840.82	79.0603	840.82	80.4635	840.82	80.119	840.82	80.5777
870.117	84.9592	870.117	84.8713	870.117	84.8827	870.117	84.6098	870.117	84.659	870.117	84.1969	870.117	84.3134	870.117	83.6987	870.117	83.89	870.117	83.1809	870.117	83.4401	870.117	82.6553	870.117	82.9914	870.117	82.0929	870.117	82.5265	870.117	81.4286	870.117	81.9742	870.117	80.5117	870.117	81.1935	870.117	79.1754	870.117	79.9922	870.117	77.473	870.117	78.2648	870.117	75.9657	870.117	76.3885	870.117	75.7471	870.117	75.5327	870.117	77.0558	870.117	76.1155	870.117	78.7615	870.117	77.294	870.117	80.0435	870.117	78.6198	870.117	80.6527	870.117	79.8141	870.117	80.5559
900.879	85.355	900.879	85.0468	900.879	85.5068	900.879	84.6337	900.879	85.4684	900.879	84.1684	900.879	85.2381	900.879	83.7032	900.879	84.8572	900.879	83.2799	900.879	84.4119	900.879	82.885	900.879	83.9887	900.879	82.4413	900.879	83.5864	900.879	81.8745	900.879	83.0981	900.879	81.1218	900.879	82.4259	900.879	80.0648	900.879	81.5586	900.879	78.6089	900.879	80.4517	900.879	76.9982	900.879	78.9303	900.879	75.9509	900.879	77.0971	900.879	76.0212	900.879	76.1949	900.879	77.065	900.879	77.1121	900.879	78.3588	900.879	78.4135	900.879	79.2239	900.879	79.2131	900.879	79.4818
933.105	86.3714	933.105	86.2437	933.105	86.2288	933.105	85.8725	933.105	85.8577	933.105	85.3519	933.105	85.3593	933.105	84.8384	933.105	84.8318	933.105	84.4651	933.105	84.3204	933.105	84.2241	933.105	83.8754	933.105	83.9877	933.105	83.5966	933.105	83.595	933.105	83.4739	933.105	82.9016	933.105	83.2278	933.105	81.8196	933.105	82.4609	933.105	80.2764	933.105	80.95	933.105	78.2437	933.105	78.9551	933.105	76.5949	933.105	77.5294	933.105	77.3444	933.105	77.703	933.105	79.3876	933.105	79.0161	933.105	80.9669	933.105	80.4734	933.105	81.8127	933.105	81.5251	933.105	81.987
965.332	88.2866	965.332	88.063	965.332	88.3004	965.332	87.6395	965.332	88.102	965.332	87.0574	965.332	87.6953	965.332	86.4096	965.332	87.1338	965.332	85.8448	965.332	86.5476	965.332	85.472	965.332	86.0725	965.332	85.1826	965.332	85.7296	965.332	84.7144	965.332	85.3824	965.332	83.9442	965.332	84.8203	965.332	82.9732	965.332	83.8809	965.332	81.844	965.332	82.4708	965.332	80.377	965.332	80.5604	965.332	78.6844	965.332	78.4583	965.332	77.9502	965.332	77.4355	965.332	79.0227	965.332	78.5014	965.332	80.5807	965.332	80.2746	965.332	81.6279	965.332	81.5193	965.332	81.9595
1,000.49	87.0659	1,000.49	86.9421	1,000.49	87.0253	1,000.49	86.6346	1,000.49	86.7946	1,000.49	86.0618	1,000.49	86.3728	1,000.49	85.2346	1,000.49	85.7517	1,000.49	84.392	1,000.49	84.9068	1,000.49	83.7833	1,000.49	83.9356	1,000.49	83.2821	1,000.49	83.1446	1,000.49	82.6133	1,000.49	82.727	1,000.49	81.7543	1,000.49	82.39	1,000.49	80.7634	1,000.49	81.6145	1,000.49	79.4855	1,000.49	80.0547	1,000.49	77.7065	1,000.49	77.7028	1,000.49	75.7467	1,000.49	75.2393	1,000.49	75.7989	1,000.49	74.9248	1,000.49	78.3169	1,000.49	77.1509	1,000.49	80.4819	1,000.49	79.3556	1,000.49	81.4807	1,000.49	80.7807	1,000.49	81.4996
1,035.64	88.3624	1,035.64	88.1066	1,035.64	88.2994	1,035.64	87.6051	1,035.64	87.9446	1,035.64	86.9944	1,035.64	87.3813	1,035.64	86.3539	1,035.64	86.7136	1,035.64	85.702	1,035.64	86.0436	1,035.64	85.1787	1,035.64	85.4816	1,035.64	85.0065	1,035.64	85.1602	1,035.64	84.9876	1,035.64	85.0657	1,035.64	84.5675	1,035.64	84.9119	1,035.64	83.4781	1,035.64	84.3565	1,035.64	81.8882	1,035.64	83.1867	1,035.64	80.1544	1,035.64	81.3793	1,035.64	78.78	1,035.64	79.2413	1,035.64	78.5594	1,035.64	77.6983	1,035.64	79.6079	1,035.64	78.1523	1,035.64	81.0953	1,035.64	80.086	1,035.64	82.234	1,035.64	81.7825	1,035.64	82.5317
1,072.27	87.1513	1,072.27	86.8694	1,072.27	87.1173	1,072.27	86.2448	1,072.27	86.7766	1,072.27	85.1956	1,072.27	86.1495	1,072.27	83.6682	1,072.27	85.229	1,072.27	81.9805	1,072.27	84.0567	1,072.27	81.0233	1,072.27	82.908	1,072.27	81.0098	1,072.27	82.0796	1,072.27	81.1856	1,072.27	81.6996	1,072.27	81.1204	1,072.27	81.9772	1,072.27	80.5463	1,072.27	82.494	1,072.27	79.1236	1,072.27	82.3199	1,072.27	76.6114	1,072.27	80.9345	1,072.27	73.3506	1,072.27	78.4994	1,072.27	72.8614	1,072.27	76.518	1,072.27	75.6824	1,072.27	76.8816	1,072.27	77.8521	1,072.27	78.4665	1,072.27	79.0554	1,072.27	79.5405	1,072.27	79.656
1,108.89	89.4547	1,108.89	89.5417	1,108.89	89.1342	1,108.89	89.3578	1,108.89	88.5602	1,108.89	88.8787	1,108.89	87.6588	1,108.89	88.1495	1,108.89	86.4148	1,108.89	87.2653	1,108.89	85.0255	1,108.89	86.3958	1,108.89	83.8402	1,108.89	85.7517	1,108.89	83.0436	1,108.89	85.2315	1,108.89	82.5749	1,108.89	84.5444	1,108.89	82.337	1,108.89	83.6511	1,108.89	82.2011	1,108.89	82.5928	1,108.89	81.8381	1,108.89	81.4673	1,108.89	80.825	1,108.89	80.8278	1,108.89	79.3204	1,108.89	81.2645	1,108.89	79.051	1,108.89	82.3865	1,108.89	80.7809	1,108.89	83.3692	1,108.89	82.5765	1,108.89	83.8853	1,108.89	83.6008	1,108.89	83.9679
1,148.44	86.59	1,148.44	86.3508	1,148.44	86.4908	1,148.44	85.8765	1,148.44	85.9692	1,148.44	85.2237	1,148.44	84.9598	1,148.44	84.2915	1,148.44	83.4726	1,148.44	83.052	1,148.44	81.7013	1,148.44	81.872	1,148.44	79.916	1,148.44	80.9881	1,148.44	78.2857	1,148.44	80.3398	1,148.44	77.5139	1,148.44	80.2736	1,148.44	78.2392	1,148.44	80.5611	1,148.44	79.0405	1,148.44	80.1462	1,148.44	79.109	1,148.44	78.4118	1,148.44	79.0464	1,148.44	75.9859	1,148.44	79.1716	1,148.44	75.3557	1,148.44	79.3639	1,148.44	77.2091	1,148.44	79.7996	1,148.44	79.5571	1,148.44	80.5309	1,148.44	81.1269	1,148.44	81.2946	1,148.44	81.6354
1,189.45	86.1934	1,189.45	85.8845	1,189.45	86.322	1,189.45	85.6406	1,189.45	86.0686	1,189.45	85.3629	1,189.45	85.4105	1,189.45	84.8089	1,189.45	84.3831	1,189.45	83.9368	1,189.45	83.1141	1,189.45	83.0609	1,189.45	81.778	1,189.45	82.6411	1,189.45	80.3764	1,189.45	82.3772	1,189.45	78.6975	1,189.45	81.7775	1,189.45	77.4237	1,189.45	80.9618	1,189.45	77.3654	1,189.45	79.7841	1,189.45	76.597	1,189.45	77.0864	1,189.45	73.784	1,189.45	71.6327	1,189.45	68.7518	1,189.45	73.2559	1,189.45	64.3881	1,189.45	78.646	1,189.45	74.5966	1,189.45	81.3097	1,189.45	79.6534	1,189.45	82.2072	1,189.45	81.6405	1,189.45	82.2192
1,230.47	87.9253	1,230.47	87.4246	1,230.47	88.0822	1,230.47	86.6512	1,230.47	87.9976	1,230.47	85.8429	1,230.47	87.7491	1,230.47	84.9627	1,230.47	87.3032	1,230.47	83.7292	1,230.47	86.6385	1,230.47	82.5027	1,230.47	85.8909	1,230.47	82.0923	1,230.47	85.107	1,230.47	82.172	1,230.47	84.1935	1,230.47	82.3136	1,230.47	83.4398	1,230.47	82.9771	1,230.47	82.7722	1,230.47	83.4737	1,230.47	81.6327	1,230.47	82.5495	1,230.47	80.2036	1,230.47	79.9441	1,230.47	78.3387	1,230.47	76.5038	1,230.47	75.9808	1,230.47	74.391	1,230.47	77.0288	1,230.47	76.5313	1,230.47	79.643	1,230.47	79.7295	1,230.47	81.0452	1,230.47	81.2057
1,274.41	88.0435	1,274.41	87.5582	1,274.41	88.1984	1,274.41	86.8277	1,274.41	88.1223	1,274.41	85.8962	1,274.41	88.0228	1,274.41	84.8717	1,274.41	87.8002	1,274.41	83.875	1,274.41	87.2104	1,274.41	82.7468	1,274.41	86.391	1,274.41	81.8763	1,274.41	85.6249	1,274.41	82.1416	1,274.41	84.721	1,274.41	82.748	1,274.41	83.8673	1,274.41	82.9083	1,274.41	83.7164	1,274.41	82.6828	1,274.41	83.2457	1,274.41	81.5235	1,274.41	81.497	1,274.41	78.7018	1,274.41	79.0776	1,274.41	75.5724	1,274.41	76.3037	1,274.41	75.3637	1,274.41	74.6002	1,274.41	77.2484	1,274.41	78.1999	1,274.41	79.4543	1,274.41	80.6773	1,274.41	80.8735
1,319.82	87.1013	1,319.82	86.4678	1,319.82	87.389	1,319.82	85.4211	1,319.82	87.3975	1,319.82	84.2958	1,319.82	87.1748	1,319.82	83.5597	1,319.82	86.7144	1,319.82	82.6892	1,319.82	85.9019	1,319.82	81.3772	1,319.82	84.7762	1,319.82	80.8529	1,319.82	83.5315	1,319.82	80.9872	1,319.82	82.2291	1,319.82	80.6077	1,319.82	81.2784	1,319.82	80.9976	1,319.82	80.8809	1,319.82	81.4738	1,319.82	80.0527	1,319.82	80.1382	1,319.82	78.3969	1,319.82	77.5269	1,319.82	76.8391	1,319.82	75.3754	1,319.82	74.9228	1,319.82	73.5549	1,319.82	73.0215	1,319.82	74.4521	1,319.82	75.1843	1,319.82	77.0127	1,319.82	77.2838	1,319.82	77.9814
1,366.7	88.9312	1,366.7	88.6002	1,366.7	89.0397	1,366.7	88.0569	1,366.7	88.9377	1,366.7	87.1475	1,366.7	88.7393	1,366.7	85.8674	1,366.7	88.3946	1,366.7	84.4787	1,366.7	87.7029	1,366.7	82.7448	1,366.7	86.6683	1,366.7	80.3092	1,366.7	85.4595	1,366.7	78.9721	1,366.7	84.0071	1,366.7	79.0056	1,366.7	82.2067	1,366.7	78.1143	1,366.7	80.8572	1,366.7	77.7911	1,366.7	80.0482	1,366.7	77.4523	1,366.7	78.2379	1,366.7	73.9736	1,366.7	75.0369	1,366.7	62.6219	1,366.7	69.5875	1,366.7	62.751	1,366.7	54.8382	1,366.7	69.6554	1,366.7	70.799	1,366.7	73.7994	1,366.7	75.486	1,366.7	76.1483
1,413.57	89.72	1,413.57	89.5704	1,413.57	89.6382	1,413.57	88.9263	1,413.57	89.498	1,413.57	87.7842	1,413.57	89.1696	1,413.57	86.4065	1,413.57	88.4208	1,413.57	84.9465	1,413.57	87.1701	1,413.57	83.1894	1,413.57	85.6714	1,413.57	81.5821	1,413.57	84.5021	1,413.57	81.4151	1,413.57	83.7468	1,413.57	81.4501	1,413.57	82.9923	1,413.57	81.3513	1,413.57	82.495	1,413.57	81.8818	1,413.57	82.1698	1,413.57	81.5493	1,413.57	81.1162	1,413.57	79.772	1,413.57	79.3985	1,413.57	77.9245	1,413.57	77.5086	1,413.57	76.8254	1,413.57	74.3558	1,413.57	76.2133	1,413.57	72.475	1,413.57	76.6348	1,413.57	75.3551	1,413.57	76.9069
1,463.38	90.6255	1,463.38	90.6586	1,463.38	90.3167	1,463.38	90.2551	1,463.38	89.7455	1,463.38	89.3449	1,463.38	88.8388	1,463.38	88.1371	1,463.38	87.5303	1,463.38	86.8007	1,463.38	85.6559	1,463.38	85.0848	1,463.38	83.2059	1,463.38	82.7227	1,463.38	81.0125	1,463.38	80.5696	1,463.38	79.7003	1,463.38	79.548	1,463.38	78.8253	1,463.38	78.7905	1,463.38	79.0445	1,463.38	78.3992	1,463.38	79.6926	1,463.38	77.9633	1,463.38	79.4111	1,463.38	75.9353	1,463.38	78.2689	1,463.38	71.4249	1,463.38	76.2562	1,463.38	69.9061	1,463.38	73.7197	1,463.38	74.8499	1,463.38	74.5161	1,463.38	76.9752	1,463.38	76.661	1,463.38	77.3482
1,516.11	90.3903	1,516.11	90.4365	1,516.11	90.1068	1,516.11	90.0915	1,516.11	89.6559	1,516.11	89.1921	1,516.11	89.0718	1,516.11	87.9104	1,516.11	88.2595	1,516.11	86.6727	1,516.11	87.0641	1,516.11	85.2149	1,516.11	85.2187	1,516.11	82.9009	1,516.11	82.4173	1,516.11	80.6702	1,516.11	79.5359	1,516.11	80.3372	1,516.11	78.4419	1,516.11	80.4181	1,516.11	79.082	1,516.11	80.5157	1,516.11	80.0346	1,516.11	80.747	1,516.11	79.6335	1,516.11	79.9084	1,516.11	78.0454	1,516.11	77.9718	1,516.11	76.5117	1,516.11	76.9835	1,516.11	75.6971	1,516.11	77.8159	1,516.11	77.3755	1,516.11	79.2423	1,516.11	79.9337	1,516.11	80.4841
1,568.85	89.5074	1,568.85	89.6472	1,568.85	89.1993	1,568.85	89.443	1,568.85	88.9425	1,568.85	88.8646	1,568.85	88.6603	1,568.85	87.9881	1,568.85	88.0866	1,568.85	86.9044	1,568.85	87.1328	1,568.85	85.5119	1,568.85	85.9275	1,568.85	83.8388	1,568.85	84.4998	1,568.85	82.1675	1,568.85	82.5389	1,568.85	81.0611	1,568.85	80.3869	1,568.85	80.7218	1,568.85	79.5803	1,568.85	80.5576	1,568.85	79.9972	1,568.85	80.7698	1,568.85	79.5059	1,568.85	80.1348	1,568.85	77.6408	1,568.85	77.9744	1,568.85	75.3231	1,568.85	75.9693	1,568.85	72.868	1,568.85	77.2167	1,568.85	74.5497	1,568.85	79.0531	1,568.85	77.6259	1,568.85	79.1488
1,624.51	88.0866	1,624.51	87.7813	1,624.51	88.0329	1,624.51	87.2774	1,624.51	87.4943	1,624.51	86.4659	1,624.51	86.7778	1,624.51	85.3099	1,624.51	85.9883	1,624.51	84.0451	1,624.51	84.897	1,624.51	82.8169	1,624.51	83.5247	1,624.51	81.4567	1,624.51	81.826	1,624.51	80.6201	1,624.51	79.5629	1,624.51	80.5499	1,624.51	76.9363	1,624.51	80.6797	1,624.51	75.3602	1,624.51	81.2559	1,624.51	76.6724	1,624.51	81.7541	1,624.51	77.4539	1,624.51	82.0066	1,624.51	76.6981	1,624.51	81.5888	1,624.51	75.9435	1,624.51	80.6208	1,624.51	75.0066	1,624.51	80.6407	1,624.51	76.6024	1,624.51	81.3356	1,624.51	79.8451	1,624.51	81.4601
1,681.64	87.2174	1,681.64	87.2277	1,681.64	87.1935	1,681.64	87.0636	1,681.64	86.7505	1,681.64	86.4248	1,681.64	85.7946	1,681.64	85.5513	1,681.64	84.8844	1,681.64	84.6618	1,681.64	84.2631	1,681.64	83.5781	1,681.64	83.3822	1,681.64	81.7138	1,681.64	82.1762	1,681.64	78.987	1,681.64	80.929	1,681.64	77.6139	1,681.64	78.8571	1,681.64	77.4126	1,681.64	75.9135	1,681.64	75.7518	1,681.64	71.9299	1,681.64	71.6296	1,681.64	67.2455	1,681.64	66.8543	1,681.64	59.8869	1,681.64	66.8542	1,681.64	57.1004	1,681.64	74.2196	1,681.64	68.4421	1,681.64	78.2136	1,681.64	75.3123	1,681.64	79.7967	1,681.64	78.8001	1,681.64	79.9227
1,741.7	87.9799	1,741.7	87.5607	1,741.7	88.0162	1,741.7	87.1412	1,741.7	87.5301	1,741.7	86.5498	1,741.7	86.8425	1,741.7	85.4051	1,741.7	85.9589	1,741.7	84.0491	1,741.7	84.812	1,741.7	82.8899	1,741.7	83.8786	1,741.7	81.4541	1,741.7	82.7388	1,741.7	78.6734	1,741.7	81.4618	1,741.7	76.0198	1,741.7	81.0263	1,741.7	76.0041	1,741.7	80.3232	1,741.7	75.2689	1,741.7	79.0623	1,741.7	74.2838	1,741.7	78.1234	1,741.7	72.4966	1,741.7	77.1631	1,741.7	62.6332	1,741.7	75.0626	1,741.7	63.1874	1,741.7	71.467	1,741.7	69.1698	1,741.7	64.7065	1,741.7	73.6541	1,741.7	66.9456	1,741.7	74.1641
1,803.22	89.0528	1,803.22	88.4901	1,803.22	89.1364	1,803.22	87.7654	1,803.22	88.6569	1,803.22	87.0681	1,803.22	87.919	1,803.22	86.2188	1,803.22	87.1129	1,803.22	85.1415	1,803.22	86.0826	1,803.22	83.8865	1,803.22	84.9813	1,803.22	82.4213	1,803.22	83.6294	1,803.22	80.2682	1,803.22	81.8126	1,803.22	76.9454	1,803.22	80.9555	1,803.22	75.1055	1,803.22	80.5423	1,803.22	76.1125	1,803.22	79.8392	1,803.22	75.6956	1,803.22	79.613	1,803.22	74.3139	1,803.22	79.0874	1,803.22	72.6113	1,803.22	76.9309	1,803.22	65.107	1,803.22	72.6521	1,803.22	66.4765	1,803.22	70.9395	1,803.22	71.2976	1,803.22	72.8151	1,803.22	73.3376
1,866.21	88.489	1,866.21	88.1008	1,866.21	88.4135	1,866.21	87.2331	1,866.21	87.9372	1,866.21	86.3448	1,866.21	87.0579	1,866.21	85.6131	1,866.21	86.1325	1,866.21	84.6977	1,866.21	85.0717	1,866.21	83.5242	1,866.21	83.7344	1,866.21	82.2275	1,866.21	82.643	1,866.21	80.3531	1,866.21	81.3642	1,866.21	77.9441	1,866.21	80.4292	1,866.21	76.5669	1,866.21	80.0657	1,866.21	76.8357	1,866.21	79.1701	1,866.21	76.3021	1,866.21	78.9793	1,866.21	75.4495	1,866.21	78.2929	1,866.21	72.4862	1,866.21	75.993	1,866.21	64.8599	1,866.21	72.1438	1,866.21	67.0249	1,866.21	68.3937	1,866.21	70.7801	1,866.21	71.6595	1,866.21	72.836
1,932.13	87.6558	1,932.13	87.2814	1,932.13	87.3998	1,932.13	86.4801	1,932.13	86.7498	1,932.13	85.6223	1,932.13	85.8834	1,932.13	84.7024	1,932.13	84.9297	1,932.13	83.6835	1,932.13	83.5719	1,932.13	82.4417	1,932.13	81.866	1,932.13	80.8531	1,932.13	80.2652	1,932.13	79.0963	1,932.13	78.6665	1,932.13	77.3003	1,932.13	77.6446	1,932.13	75.254	1,932.13	76.6901	1,932.13	73.6502	1,932.13	75.9086	1,932.13	74.4116	1,932.13	76.8726	1,932.13	74.1936	1,932.13	76.5703	1,932.13	72.1571	1,932.13	74.3869	1,932.13	68.3026	1,932.13	70.7561	1,932.13	67.4931	1,932.13	67.986	1,932.13	70.6668	1,932.13	69.5657	1,932.13	70.656
1,999.51	87.4438	1,999.51	87.16	1,999.51	87.3584	1,999.51	86.4396	1,999.51	86.8189	1,999.51	85.3509	1,999.51	85.8758	1,999.51	84.0004	1,999.51	84.6704	1,999.51	82.4999	1,999.51	83.2384	1,999.51	80.8692	1,999.51	81.8081	1,999.51	79.2802	1,999.51	80.2347	1,999.51	77.7157	1,999.51	78.7127	1,999.51	76.2055	1,999.51	77.2241	1,999.51	75.2656	1,999.51	75.7375	1,999.51	75.4823	1,999.51	75.5399	1,999.51	75.7172	1,999.51	75.7735	1,999.51	75.7768	1,999.51	76.0313	1,999.51	73.9884	1,999.51	74.9683	1,999.51	69.8522	1,999.51	71.9813	1,999.51	66.8275	1,999.51	66.9992	1,999.51	69.3049	1,999.51	67.8782	1,999.51	69.7745
2,069.82	87.6659	2,069.82	87.3596	2,069.82	87.4487	2,069.82	86.7379	2,069.82	86.8497	2,069.82	85.8314	2,069.82	85.9278	2,069.82	84.5177	2,069.82	84.6952	2,069.82	83.0173	2,069.82	83.317	2,069.82	81.4129	2,069.82	81.7522	2,069.82	79.7654	2,069.82	80.0614	2,069.82	78.2775	2,069.82	78.4797	2,069.82	76.813	2,069.82	76.8012	2,069.82	75.6338	2,069.82	75.532	2,069.82	75.0423	2,069.82	74.8039	2,069.82	75.4988	2,069.82	75.2707	2,069.82	76.1027	2,069.82	75.9605	2,069.82	74.7557	2,069.82	75.3468	2,069.82	72.033	2,069.82	72.8656	2,069.82	69.3568	2,069.82	68.7398	2,069.82	70.0592	2,069.82	69.0533	2,069.82	70.4553
2,143.07	87.0418	2,143.07	86.8608	2,143.07	86.8622	2,143.07	86.3027	2,143.07	86.2647	2,143.07	85.3674	2,143.07	85.3034	2,143.07	84.1857	2,143.07	84.0725	2,143.07	82.8951	2,143.07	82.7165	2,143.07	81.4747	2,143.07	81.1341	2,143.07	79.8868	2,143.07	79.6209	2,143.07	78.2606	2,143.07	78.0436	2,143.07	77.0067	2,143.07	76.5084	2,143.07	76.0054	2,143.07	74.9746	2,143.07	75.438	2,143.07	73.7529	2,143.07	75.9312	2,143.07	74.2048	2,143.07	76.3322	2,143.07	75.0549	2,143.07	75.3773	2,143.07	74.8614	2,143.07	73.0981	2,143.07	72.4395	2,143.07	71.7196	2,143.07	68.9674	2,143.07	72.0676	2,143.07	69.5207	2,143.07	71.9088
2,219.24	86.9499	2,219.24	86.6263	2,219.24	86.8025	2,219.24	85.8308	2,219.24	86.2623	2,219.24	84.8276	2,219.24	85.3245	2,219.24	83.5324	2,219.24	84.1551	2,219.24	82.2685	2,219.24	82.9363	2,219.24	80.8978	2,219.24	81.6	2,219.24	79.3441	2,219.24	80.2329	2,219.24	77.7643	2,219.24	78.8648	2,219.24	75.9453	2,219.24	77.2903	2,219.24	74.5822	2,219.24	75.5415	2,219.24	74.3332	2,219.24	74.1339	2,219.24	75.4039	2,219.24	73.976	2,219.24	75.7698	2,219.24	75.1076	2,219.24	74.8967	2,219.24	75.276	2,219.24	72.7845	2,219.24	73.6799	2,219.24	71.6925	2,219.24	70.9627	2,219.24	72.2893	2,219.24	71.0618	2,219.24	72.3119
2,296.88	87.996	2,296.88	87.6524	2,296.88	87.8619	2,296.88	86.8966	2,296.88	87.4182	2,296.88	85.8357	2,296.88	86.5786	2,296.88	84.53	2,296.88	85.3904	2,296.88	83.0781	2,296.88	84.1978	2,296.88	81.7089	2,296.88	82.9646	2,296.88	80.3476	2,296.88	81.6458	2,296.88	78.9505	2,296.88	80.3726	2,296.88	77.184	2,296.88	78.9261	2,296.88	74.9658	2,296.88	77.2877	2,296.88	73.31	2,296.88	75.5864	2,296.88	73.726	2,296.88	74.5866	2,296.88	74.5032	2,296.88	75.3969	2,296.88	73.739	2,296.88	75.3019	2,296.88	71.1202	2,296.88	73.8513	2,296.88	71.7574	2,296.88	72.2313	2,296.88	74.2083	2,296.88	73.7807	2,296.88	74.9632
2,378.91	87.785	2,378.91	87.519	2,378.91	87.6664	2,378.91	86.9726	2,378.91	87.0825	2,378.91	85.9753	2,378.91	86.1031	2,378.91	84.7821	2,378.91	84.9245	2,378.91	83.4105	2,378.91	83.6553	2,378.91	82.2041	2,378.91	82.3004	2,378.91	80.9668	2,378.91	81.074	2,378.91	79.9212	2,378.91	79.7807	2,378.91	78.8932	2,378.91	78.6278	2,378.91	77.37	2,378.91	77.2975	2,378.91	75.5088	2,378.91	75.6234	2,378.91	74.5736	2,378.91	74.4959	2,378.91	74.8709	2,378.91	74.7287	2,378.91	74.2652	2,378.91	74.4975	2,378.91	71.442	2,378.91	71.5994	2,378.91	69.5519	2,378.91	68.5928	2,378.91	72.962	2,378.91	71.0257	2,378.91	73.8155
2,462.4	86.7328	2,462.4	86.4144	2,462.4	86.5564	2,462.4	85.733	2,462.4	86.2071	2,462.4	84.8081	2,462.4	85.4292	2,462.4	83.6637	2,462.4	84.2046	2,462.4	82.3873	2,462.4	82.7844	2,462.4	81.0782	2,462.4	81.2783	2,462.4	79.9358	2,462.4	80.1144	2,462.4	78.7775	2,462.4	78.504	2,462.4	78.2271	2,462.4	77.7424	2,462.4	77.7713	2,462.4	76.9989	2,462.4	75.9501	2,462.4	75.6206	2,462.4	74.723	2,462.4	74.1613	2,462.4	75.5624	2,462.4	73.8673	2,462.4	74.5545	2,462.4	73.713	2,462.4	68.5384	2,462.4	72.3828	2,462.4	67.0451	2,462.4	66.0438	2,462.4	70.8954	2,462.4	68.2516	2,462.4	71.8138
2,548.83	87.7424	2,548.83	87.3804	2,548.83	87.832	2,548.83	86.6492	2,548.83	87.3205	2,548.83	85.5788	2,548.83	86.5388	2,548.83	84.2775	2,548.83	85.4098	2,548.83	83.0041	2,548.83	84.2525	2,548.83	81.8394	2,548.83	82.8446	2,548.83	80.2333	2,548.83	80.8348	2,548.83	78.6359	2,548.83	79.6318	2,548.83	77.2441	2,548.83	78.7273	2,548.83	76.4688	2,548.83	78.0459	2,548.83	75.9606	2,548.83	77.17	2,548.83	75.332	2,548.83	75.7009	2,548.83	75.925	2,548.83	75.4498	2,548.83	75.0765	2,548.83	76.0767	2,548.83	73.2112	2,548.83	74.3003	2,548.83	65.0113	2,548.83	69.5449	2,548.83	67.5946	2,548.83	63.1956	2,548.83	69.2848
2,639.65	87.8814	2,639.65	87.7228	2,639.65	87.7772	2,639.65	87.0606	2,639.65	87.2631	2,639.65	86.2028	2,639.65	86.4668	2,639.65	85.1842	2,639.65	85.5821	2,639.65	84.0308	2,639.65	84.3266	2,639.65	82.4896	2,639.65	82.9731	2,639.65	81.2635	2,639.65	81.3885	2,639.65	79.5404	2,639.65	79.9206	2,639.65	78.0288	2,639.65	78.0597	2,639.65	77.1771	2,639.65	77.8499	2,639.65	76.8903	2,639.65	77.2324	2,639.65	76.6675	2,639.65	76.339	2,639.65	76.4382	2,639.65	75.6588	2,639.65	76.7224	2,639.65	75.5072	2,639.65	73.9363	2,639.65	74.9421	2,639.65	70.4384	2,639.65	70.8719	2,639.65	66.4226	2,639.65	69.0288	2,639.65	67.3465
2,731.93	87.1876	2,731.93	86.9862	2,731.93	87.0292	2,731.93	86.3932	2,731.93	86.5165	2,731.93	85.4097	2,731.93	85.6248	2,731.93	84.3062	2,731.93	84.5736	2,731.93	82.909	2,731.93	83.4668	2,731.93	82.1743	2,731.93	82.5101	2,731.93	80.9029	2,731.93	81.2139	2,731.93	79.3103	2,731.93	79.6367	2,731.93	77.091	2,731.93	77.7862	2,731.93	75.6994	2,731.93	76.015	2,731.93	76.1522	2,731.93	76.2473	2,731.93	75.8632	2,731.93	75.7608	2,731.93	74.9023	2,731.93	75.2462	2,731.93	74.8855	2,731.93	74.7019	2,731.93	75.002	2,731.93	73.5114	2,731.93	69.5697	2,731.93	71.4902	2,731.93	69.0388	2,731.93	67.0568	2,731.93	69.1008
2,828.61	87.7821	2,828.61	87.6083	2,828.61	87.6822	2,828.61	87.1995	2,828.61	87.261	2,828.61	86.2693	2,828.61	86.5407	2,828.61	85.1634	2,828.61	85.6081	2,828.61	83.8451	2,828.61	84.2825	2,828.61	82.2714	2,828.61	82.8823	2,828.61	81.0107	2,828.61	81.9318	2,828.61	80.0341	2,828.61	80.6399	2,828.61	78.2597	2,828.61	78.7438	2,828.61	76.4119	2,828.61	76.648	2,828.61	74.5874	2,828.61	76.2711	2,828.61	73.9675	2,828.61	76.1941	2,828.61	74.8697	2,828.61	75.524	2,828.61	75.2563	2,828.61	75.815	2,828.61	72.1969	2,828.61	74.4728	2,828.61	67.4538	2,828.61	71.3018	2,828.61	67.6143	2,828.61	69.8321	2,828.61	68.5795
2,928.22	88.4809	2,928.22	88.2906	2,928.22	88.4018	2,928.22	87.8444	2,928.22	88.007	2,928.22	87.3328	2,928.22	87.6151	2,928.22	86.4577	2,928.22	86.9472	2,928.22	85.3646	2,928.22	85.7928	2,928.22	83.6461	2,928.22	84.0926	2,928.22	81.9885	2,928.22	82.5368	2,928.22	81.2424	2,928.22	81.7258	2,928.22	80.0877	2,928.22	80.1025	2,928.22	78.1963	2,928.22	78.1971	2,928.22	77.123	2,928.22	77.5101	2,928.22	76.5582	2,928.22	77.2387	2,928.22	76.0026	2,928.22	76.2849	2,928.22	76.3793	2,928.22	76.336	2,928.22	74.8309	2,928.22	75.7733	2,928.22	69.8992	2,928.22	72.5945	2,928.22	69.7725	2,928.22	67.1502	2,928.22	70.4276
3,030.76	87.9509	3,030.76	87.8103	3,030.76	87.8408	3,030.76	87.4743	3,030.76	87.5417	3,030.76	86.9168	3,030.76	87.0499	3,030.76	86.1334	3,030.76	86.4177	3,030.76	85.4659	3,030.76	85.5344	3,030.76	83.6684	3,030.76	84.3308	3,030.76	82.173	3,030.76	82.5557	3,030.76	80.8679	3,030.76	81.5566	3,030.76	79.8884	3,030.76	80.1999	3,030.76	78.0221	3,030.76	77.9444	3,030.76	77.0815	3,030.76	76.509	3,030.76	77.2704	3,030.76	77.596	3,030.76	77.0341	3,030.76	76.9224	3,030.76	76.0705	3,030.76	76.0145	3,030.76	74.6556	3,030.76	75.3896	3,030.76	70.6896	3,030.76	72.3652	3,030.76	64.3447	3,030.76	67.4958	3,030.76	67.9793
3,137.7	86.9867	3,137.7	86.7476	3,137.7	86.8932	3,137.7	86.4868	3,137.7	86.5545	3,137.7	85.7754	3,137.7	86.1148	3,137.7	85.2584	3,137.7	85.3335	3,137.7	84.4549	3,137.7	84.5514	3,137.7	83.0795	3,137.7	83.5386	3,137.7	81.5618	3,137.7	82.308	3,137.7	80.0551	3,137.7	80.3668	3,137.7	78.6438	3,137.7	79.6606	3,137.7	77.3697	3,137.7	78.0507	3,137.7	75.3176	3,137.7	75.6133	3,137.7	75.2678	3,137.7	74.8104	3,137.7	75.1246	3,137.7	76.3685	3,137.7	75.3532	3,137.7	76.2991	3,137.7	75.2068	3,137.7	74.929	3,137.7	70.185	3,137.7	72.3716	3,137.7	65.2739	3,137.7	66.9126	3,137.7	58.2262
3,249.02	86.6753	3,249.02	86.8444	3,249.02	86.5738	3,249.02	86.6411	3,249.02	86.5776	3,249.02	86.3364	3,249.02	86.2515	3,249.02	85.2343	3,249.02	85.479	3,249.02	84.0854	3,249.02	84.3259	3,249.02	83.496	3,249.02	83.0296	3,249.02	81.5782	3,249.02	81.735	3,249.02	80.0458	3,249.02	80.2379	3,249.02	78.6556	3,249.02	79.1723	3,249.02	77.2544	3,249.02	78.4572	3,249.02	75.1138	3,249.02	76.2949	3,249.02	74.0088	3,249.02	74.4111	3,249.02	75.2944	3,249.02	74.6745	3,249.02	75.0191	3,249.02	75.2787	3,249.02	74.8531	3,249.02	74.9585	3,249.02	72.5837	3,249.02	72.7281	3,249.02	66.7118	3,249.02	68.5657	3,249.02	66.2403
3,363.28	86.8426	3,363.28	86.7918	3,363.28	86.8134	3,363.28	86.2917	3,363.28	86.5405	3,363.28	86.2856	3,363.28	86.1116	3,363.28	85.4939	3,363.28	85.6336	3,363.28	84.1871	3,363.28	84.3802	3,363.28	82.9192	3,363.28	83.0963	3,363.28	81.7832	3,363.28	81.3296	3,363.28	79.8372	3,363.28	79.812	3,363.28	78.6739	3,363.28	78.6022	3,363.28	77.7361	3,363.28	77.595	3,363.28	75.5845	3,363.28	76.1242	3,363.28	75.5483	3,363.28	74.6931	3,363.28	73.9186	3,363.28	74.4684	3,363.28	73.6975	3,363.28	74.0311	3,363.28	74.1464	3,363.28	74.7878	3,363.28	70.7286	3,363.28	72.9597	3,363.28	68.0884	3,363.28	67.9884	3,363.28	67.855
3,481.93	87.1127	3,481.93	86.573	3,481.93	86.9291	3,481.93	86.4841	3,481.93	86.5004	3,481.93	86.0133	3,481.93	86.217	3,481.93	86.0105	3,481.93	85.829	3,481.93	84.4543	3,481.93	84.7375	3,481.93	81.9883	3,481.93	83.5032	3,481.93	81.1906	3,481.93	81.8874	3,481.93	79.5595	3,481.93	80.4832	3,481.93	78.3999	3,481.93	78.7459	3,481.93	76.6058	3,481.93	77.5547	3,481.93	76.1875	3,481.93	77.4729	3,481.93	75.1731	3,481.93	76.5696	3,481.93	73.8566	3,481.93	75.0363	3,481.93	74.792	3,481.93	75.4694	3,481.93	74.6175	3,481.93	74.863	3,481.93	72.5867	3,481.93	73.2607	3,481.93	69.713	3,481.93	71.0537	3,481.93	67.9748
3,604.98	87.0862	3,604.98	87.1981	3,604.98	87.0063	3,604.98	87.0799	3,604.98	86.7897	3,604.98	85.8079	3,604.98	86.3575	3,604.98	84.7247	3,604.98	85.5109	3,604.98	84.2674	3,604.98	84.6811	3,604.98	83.4684	3,604.98	83.0904	3,604.98	80.9193	3,604.98	81.3787	3,604.98	80.506	3,604.98	79.9537	3,604.98	78.0488	3,604.98	79.2411	3,604.98	77.5893	3,604.98	77.2854	3,604.98	77.0026	3,604.98	75.8771	3,604.98	75.4207	3,604.98	75.3736	3,604.98	75.2297	3,604.98	74.6134	3,604.98	74.1624	3,604.98	74.1197	3,604.98	73.9266	3,604.98	73.9968	3,604.98	73.4039	3,604.98	74.3341	3,604.98	70.3188	3,604.98	71.13	3,604.98	69.7649
3,732.42	87.9264	3,732.42	88.1134	3,732.42	87.7828	3,732.42	87.6332	3,732.42	87.9885	3,732.42	87.0412	3,732.42	87.4657	3,732.42	84.9968	3,732.42	86.6201	3,732.42	84.1538	3,732.42	85.3654	3,732.42	83.2931	3,732.42	84.2942	3,732.42	80.9708	3,732.42	82.2927	3,732.42	78.5987	3,732.42	80.5404	3,732.42	78.143	3,732.42	78.3099	3,732.42	77.5382	3,732.42	77.4787	3,732.42	76.3973	3,732.42	76.0315	3,732.42	77.155	3,732.42	76.9517	3,732.42	75.7438	3,732.42	76.0394	3,732.42	74.9183	3,732.42	73.6907	3,732.42	74.3573	3,732.42	74.9594	3,732.42	73.3477	3,732.42	73.4397	3,732.42	70.1422	3,732.42	71.3988	3,732.42	69.9556
3,864.26	87.3999	3,864.26	87.3333	3,864.26	87.3084	3,864.26	87.2206	3,864.26	87.4752	3,864.26	86.9548	3,864.26	87.0106	3,864.26	86.0025	3,864.26	86.5811	3,864.26	84.3108	3,864.26	84.9951	3,864.26	82.612	3,864.26	83.9102	3,864.26	81.3271	3,864.26	82.5206	3,864.26	79.1068	3,864.26	79.9941	3,864.26	79.0103	3,864.26	78.4918	3,864.26	77.256	3,864.26	77.9866	3,864.26	76.2629	3,864.26	76.1106	3,864.26	76.2888	3,864.26	76.4287	3,864.26	76.2212	3,864.26	75.7881	3,864.26	74.3063	3,864.26	74.885	3,864.26	73.2231	3,864.26	73.0974	3,864.26	71.5735	3,864.26	71.3819	3,864.26	68.6142	3,864.26	69.5563	3,864.26	68.6252
4,000.49	87.5125	4,000.49	87.3033	4,000.49	87.8943	4,000.49	87.6247	4,000.49	87.3831	4,000.49	86.7345	4,000.49	87.6732	4,000.49	87.1539	4,000.49	86.9444	4,000.49	85.2903	4,000.49	86.2507	4,000.49	83.0704	4,000.49	84.5231	4,000.49	81.6476	4,000.49	83.3258	4,000.49	80.4807	4,000.49	81.3885	4,000.49	78.5946	4,000.49	79.087	4,000.49	77.0462	4,000.49	78.8388	4,000.49	74.8828	4,000.49	75.722	4,000.49	75.8821	4,000.49	75.7935	4,000.49	75.9215	4,000.49	76.9404	4,000.49	75.3789	4,000.49	76.1579	4,000.49	74.3133	4,000.49	74.2054	4,000.49	70.3304	4,000.49	73.1125	4,000.49	69.6027	4,000.49	69.1485	4,000.49	68.397
4,141.11	86.7155	4,141.11	87.1701	4,141.11	86.7036	4,141.11	86.7285	4,141.11	87.0702	4,141.11	87.3977	4,141.11	87.0364	4,141.11	86.5432	4,141.11	86.8866	4,141.11	85.9052	4,141.11	85.453	4,141.11	83.9143	4,141.11	83.8035	4,141.11	83.0431	4,141.11	82.1367	4,141.11	81.3128	4,141.11	81.7466	4,141.11	77.3328	4,141.11	80.6661	4,141.11	77.122	4,141.11	77.0521	4,141.11	76.2916	4,141.11	77.3308	4,141.11	76.3999	4,141.11	75.7895	4,141.11	76.5924	4,141.11	77.105	4,141.11	76.1644	4,141.11	76.1899	4,141.11	74.8124	4,141.11	74.9198	4,141.11	73.2038	4,141.11	73.5239	4,141.11	68.2684	4,141.11	66.7366	4,141.11	66.2446
4,287.6	87.056	4,287.6	86.9597	4,287.6	86.4374	4,287.6	87.2423	4,287.6	87.3517	4,287.6	88.1674	4,287.6	86.9839	4,287.6	86.4498	4,287.6	86.8018	4,287.6	84.86	4,287.6	86.1968	4,287.6	84.4311	4,287.6	85.258	4,287.6	81.8211	4,287.6	83.56	4,287.6	78.3457	4,287.6	81.0876	4,287.6	78.5704	4,287.6	78.0433	4,287.6	76.5858	4,287.6	78.4067	4,287.6	76.8329	4,287.6	76.9124	4,287.6	72.9527	4,287.6	74.2554	4,287.6	76.0776	4,287.6	75.9454	4,287.6	74.9289	4,287.6	76.4752	4,287.6	74.472	4,287.6	75.82	4,287.6	71.9601	4,287.6	73.3702	4,287.6	63.2071	4,287.6	69.9009	4,287.6	58.7722
4,438.48	86.1047	4,438.48	86.5115	4,438.48	87.4091	4,438.48	87.4546	4,438.48	87.0665	4,438.48	85.9947	4,438.48	88.1105	4,438.48	87.1042	4,438.48	87.645	4,438.48	86.4544	4,438.48	86.9896	4,438.48	84.284	4,438.48	85.0582	4,438.48	82.4799	4,438.48	84.2455	4,438.48	81.9757	4,438.48	82.8452	4,438.48	80.1376	4,438.48	80.8568	4,438.48	79.1908	4,438.48	79.4472	4,438.48	77.0865	4,438.48	78.5583	4,438.48	76.6665	4,438.48	76.7879	4,438.48	77.2188	4,438.48	77.0427	4,438.48	76.7313	4,438.48	76.902	4,438.48	75.2625	4,438.48	74.73	4,438.48	72.3798	4,438.48	75.5972	4,438.48	68.5074	4,438.48	67.1807	4,438.48	65.8377
4,595.21	87.2033	4,595.21	88.2819	4,595.21	86.8902	4,595.21	88.0605	4,595.21	88.3228	4,595.21	89.0496	4,595.21	88.3092	4,595.21	88.1701	4,595.21	88.4363	4,595.21	87.5769	4,595.21	87.373	4,595.21	85.6893	4,595.21	86.1529	4,595.21	85.0647	4,595.21	84.3888	4,595.21	81.8724	4,595.21	81.7324	4,595.21	80.3499	4,595.21	82.0408	4,595.21	78.6406	4,595.21	78.6814	4,595.21	77.2547	4,595.21	78.0043	4,595.21	76.6456	4,595.21	76.9134	4,595.21	76.7549	4,595.21	76.5793	4,595.21	75.7475	4,595.21	74.1525	4,595.21	75.0163	4,595.21	75.3594	4,595.21	74.4272	4,595.21	73.5313	4,595.21	66.5051	4,595.21	68.729	4,595.21	65.3588
4,756.35	88.0615	4,756.35	87.2404	4,756.35	88.0904	4,756.35	88.9239	4,756.35	88.2316	4,756.35	89.0348	4,756.35	88.5521	4,756.35	88.2585	4,756.35	87.8473	4,756.35	86.0565	4,756.35	87.6999	4,756.35	85.9035	4,756.35	86.8408	4,756.35	83.0398	4,756.35	84.1336	4,756.35	81.0513	4,756.35	82.3755	4,756.35	79.7879	4,756.35	79.3568	4,756.35	78.2376	4,756.35	79.398	4,756.35	78.3953	4,756.35	78.3467	4,756.35	76.3612	4,756.35	77.1565	4,756.35	77.1177	4,756.35	75.8626	4,756.35	74.3633	4,756.35	77.1597	4,756.35	73.4274	4,756.35	75.4627	4,756.35	73.4767	4,756.35	73.5254	4,756.35	64.9556	4,756.35	69.7496	4,756.35	58.2767
4,924.8	88.1402	4,924.8	89.0697	4,924.8	89.031	4,924.8	88.5836	4,924.8	89.0691	4,924.8	88.2686	4,924.8	89.2071	4,924.8	88.328	4,924.8	89.0022	4,924.8	88.0316	4,924.8	87.6368	4,924.8	85.6307	4,924.8	84.6865	4,924.8	83.9341	4,924.8	84.1488	4,924.8	82.6114	4,924.8	82.8302	4,924.8	79.6662	4,924.8	80.9774	4,924.8	79.4867	4,924.8	78.6943	4,924.8	77.0443	4,924.8	77.5604	4,924.8	75.8662	4,924.8	76.4844	4,924.8	75.5394	4,924.8	75.2053	4,924.8	74.8257	4,924.8	74.9731	4,924.8	73.0311	4,924.8	73.8295	4,924.8	72.9839	4,924.8	73.696	4,924.8	67.3556	4,924.8	68.0314	4,924.8	65.381
5,097.66	89.6939	5,097.66	89.86	5,097.66	89.0914	5,097.66	89.8793	5,097.66	89.9196	5,097.66	89.464	5,097.66	89.6787	5,097.66	88.6702	5,097.66	88.9222	5,097.66	86.7934	5,097.66	87.7489	5,097.66	84.9361	5,097.66	87.3117	5,097.66	83.526	5,097.66	84.5706	5,097.66	81.5057	5,097.66	82.6248	5,097.66	80.0812	5,097.66	80.9501	5,097.66	76.4807	5,097.66	78.4984	5,097.66	76.7194	5,097.66	77.9262	5,097.66	75.0647	5,097.66	76.508	5,097.66	74.1486	5,097.66	76.2246	5,097.66	74.4151	5,097.66	77.6275	5,097.66	73.6203	5,097.66	75.0726	5,097.66	70.7786	5,097.66	71.3098	5,097.66	61.3424	5,097.66	71.255	5,097.66	58.4372
5,277.83	89.5157	5,277.83	89.2251	5,277.83	90.0459	5,277.83	89.59	5,277.83	89.3997	5,277.83	89.3024	5,277.83	89.2975	5,277.83	87.6413	5,277.83	88.6885	5,277.83	86.1188	5,277.83	87.5695	5,277.83	85.7404	5,277.83	85.9892	5,277.83	83.661	5,277.83	84.3835	5,277.83	81.8812	5,277.83	81.892	5,277.83	79.0389	5,277.83	78.795	5,277.83	77.7606	5,277.83	77.6484	5,277.83	77.3024	5,277.83	75.6303	5,277.83	76.0563	5,277.83	76.198	5,277.83	74.9455	5,277.83	75.9004	5,277.83	75.3968	5,277.83	76.2926	5,277.83	73.44	5,277.83	74.9015	5,277.83	71.5131	5,277.83	72.5675	5,277.83	70.177	5,277.83	67.7715	5,277.83	65.8939
5,463.87	90.2101	5,463.87	90.4859	5,463.87	90.1036	5,463.87	89.8131	5,463.87	89.8206	5,463.87	89.336	5,463.87	89.8201	5,463.87	89.0667	5,463.87	89.0361	5,463.87	88.0194	5,463.87	87.9538	5,463.87	85.6914	5,463.87	85.9955	5,463.87	83.7414	5,463.87	83.8952	5,463.87	80.6554	5,463.87	82.5935	5,463.87	79.3928	5,463.87	80.982	5,463.87	77.2217	5,463.87	78.2196	5,463.87	74.6698	5,463.87	77.6227	5,463.87	75.6056	5,463.87	76.756	5,463.87	74.1618	5,463.87	74.8591	5,463.87	75.9599	5,463.87	75.358	5,463.87	73.1652	5,463.87	74.1519	5,463.87	71.1962	5,463.87	72.6067	5,463.87	70.6643	5,463.87	70.8543	5,463.87	65.8526
5,657.23	89.346	5,657.23	89.2255	5,657.23	89.4457	5,657.23	89.0685	5,657.23	89.5347	5,657.23	88.9961	5,657.23	88.8563	5,657.23	88.4028	5,657.23	88.2436	5,657.23	86.6851	5,657.23	87.254	5,657.23	85.2503	5,657.23	86.4706	5,657.23	82.6727	5,657.23	84.4042	5,657.23	81.0459	5,657.23	82.3845	5,657.23	79.3432	5,657.23	79.5223	5,657.23	77.6514	5,657.23	78.1686	5,657.23	77.4659	5,657.23	77.2138	5,657.23	74.0021	5,657.23	75.9317	5,657.23	75.6993	5,657.23	75.5859	5,657.23	75.0724	5,657.23	74.7656	5,657.23	72.0631	5,657.23	74.6084	5,657.23	69.8414	5,657.23	72.3229	5,657.23	68.5017	5,657.23	69.5986	5,657.23	70.2927
5,856.45	89.2214	5,856.45	88.7172	5,856.45	89.3514	5,856.45	88.8215	5,856.45	88.7165	5,856.45	88.6089	5,856.45	88.9062	5,856.45	87.6907	5,856.45	88.4665	5,856.45	86.8866	5,856.45	87.8923	5,856.45	85.6078	5,856.45	85.8273	5,856.45	84.1034	5,856.45	84.0201	5,856.45	82.3934	5,856.45	82.2793	5,856.45	80.0144	5,856.45	80.363	5,856.45	78.2803	5,856.45	78.2737	5,856.45	75.9131	5,856.45	76.8916	5,856.45	75.6296	5,856.45	75.3506	5,856.45	75.5449	5,856.45	75.0976	5,856.45	74.0553	5,856.45	72.9305	5,856.45	73.8514	5,856.45	74.4447	5,856.45	70.2708	5,856.45	70.7424	5,856.45	69.4469	5,856.45	67.8251	5,856.45	69.7126
6,062.99	89.5647	6,062.99	89.5871	6,062.99	88.9728	6,062.99	88.6736	6,062.99	89.0461	6,062.99	88.3835	6,062.99	88.5618	6,062.99	88.1512	6,062.99	87.8697	6,062.99	86.9191	6,062.99	86.424	6,062.99	85.2229	6,062.99	85.4387	6,062.99	83.2262	6,062.99	83.5144	6,062.99	80.8122	6,062.99	81.0368	6,062.99	78.6372	6,062.99	78.7297	6,062.99	76.7784	6,062.99	77.0653	6,062.99	76.5316	6,062.99	76.1485	6,062.99	74.0092	6,062.99	75.281	6,062.99	73.9739	6,062.99	74.9035	6,062.99	73.207	6,062.99	74.576	6,062.99	72.4719	6,062.99	72.955	6,062.99	70.733	6,062.99	70.8087	6,062.99	66.8896	6,062.99	69.2607	6,062.99	67.4578
6,276.86	89.5461	6,276.86	88.8357	6,276.86	89.7631	6,276.86	88.8124	6,276.86	88.7143	6,276.86	88.359	6,276.86	88.0806	6,276.86	87.4106	6,276.86	87.2259	6,276.86	86.4531	6,276.86	86.9091	6,276.86	85.0332	6,276.86	85.2454	6,276.86	83.1476	6,276.86	83.3063	6,276.86	81.2628	6,276.86	81.9867	6,276.86	79.0143	6,276.86	79.1452	6,276.86	76.7733	6,276.86	76.9973	6,276.86	74.3327	6,276.86	75.3968	6,276.86	74.63	6,276.86	73.8564	6,276.86	73.7231	6,276.86	74.3028	6,276.86	74.7201	6,276.86	74.37	6,276.86	73.3838	6,276.86	74.0278	6,276.86	70.0387	6,276.86	70.8797	6,276.86	64.8988	6,276.86	69.318	6,276.86	65.6218
6,498.05	89.4232	6,498.05	89.2311	6,498.05	88.6304	6,498.05	88.1221	6,498.05	88.1994	6,498.05	87.7181	6,498.05	87.859	6,498.05	87.4397	6,498.05	87.8618	6,498.05	86.5042	6,498.05	87.2699	6,498.05	85.0706	6,498.05	85.6084	6,498.05	83.0833	6,498.05	83.6754	6,498.05	81.0204	6,498.05	82.113	6,498.05	78.4942	6,498.05	79.127	6,498.05	77.2623	6,498.05	77.4097	6,498.05	75.7186	6,498.05	76.2702	6,498.05	74.2123	6,498.05	75.7927	6,498.05	74.5502	6,498.05	74.6628	6,498.05	73.9445	6,498.05	74.4669	6,498.05	72.7517	6,498.05	73.7954	6,498.05	69.7548	6,498.05	71.7339	6,498.05	68.0083	6,498.05	68.765	6,498.05	64.5623
6,726.56	88.2986	6,726.56	87.8585	6,726.56	88.404	6,726.56	88.3581	6,726.56	87.6948	6,726.56	88.5404	6,726.56	87.6571	6,726.56	88.4076	6,726.56	87.8075	6,726.56	87.6508	6,726.56	87.62	6,726.56	86.0729	6,726.56	86.3348	6,726.56	83.065	6,726.56	84.1609	6,726.56	80.9552	6,726.56	81.6003	6,726.56	78.8417	6,726.56	79.3481	6,726.56	76.4344	6,726.56	76.5543	6,726.56	75.1932	6,726.56	75.0705	6,726.56	75.2368	6,726.56	74.8495	6,726.56	74.5096	6,726.56	74.0102	6,726.56	74.1129	6,726.56	74.239	6,726.56	72.6078	6,726.56	74.4987	6,726.56	68.3135	6,726.56	70.5628	6,726.56	67.7807	6,726.56	67.2767	6,726.56	66.9775
6,963.87	88.7195	6,963.87	88.7467	6,963.87	88.4117	6,963.87	88.2061	6,963.87	88.4075	6,963.87	88.8118	6,963.87	88.514	6,963.87	88.7728	6,963.87	88.6494	6,963.87	87.7035	6,963.87	88.0861	6,963.87	85.8206	6,963.87	86.6384	6,963.87	83.9397	6,963.87	84.0874	6,963.87	81.7809	6,963.87	82.6634	6,963.87	78.5385	6,963.87	79.426	6,963.87	76.8205	6,963.87	77.682	6,963.87	75.6789	6,963.87	75.9107	6,963.87	74.2309	6,963.87	75.3355	6,963.87	74.4385	6,963.87	74.178	6,963.87	73.6998	6,963.87	73.382	6,963.87	71.7187	6,963.87	73.9081	6,963.87	67.2602	6,963.87	70.3246	6,963.87	66.1066	6,963.87	63.2045	6,963.87	68.4541
7,209.96	89.2427	7,209.96	89.0285	7,209.96	88.9443	7,209.96	89.1892	7,209.96	88.6166	7,209.96	89.1316	7,209.96	88.4292	7,209.96	88.53	7,209.96	88.4132	7,209.96	87.7051	7,209.96	87.9505	7,209.96	85.8604	7,209.96	86.2426	7,209.96	82.6077	7,209.96	83.9916	7,209.96	81.0808	7,209.96	81.4487	7,209.96	78.8183	7,209.96	79.1509	7,209.96	76.4861	7,209.96	75.9638	7,209.96	74.5137	7,209.96	74.992	7,209.96	74.2022	7,209.96	73.7223	7,209.96	73.2491	7,209.96	73.0871	7,209.96	73.2682	7,209.96	74.2776	7,209.96	71.9915	7,209.96	73.4597	7,209.96	67.4121	7,209.96	70.6778	7,209.96	65.4638	7,209.96	66.5239	7,209.96	68.6724
7,464.84	89.9906	7,464.84	89.7061	7,464.84	89.7225	7,464.84	89.361	7,464.84	89.2482	7,464.84	88.8355	7,464.84	89.0936	7,464.84	88.1982	7,464.84	88.2919	7,464.84	86.5835	7,464.84	87.1893	7,464.84	84.8836	7,464.84	85.4482	7,464.84	82.2992	7,464.84	83.5209	7,464.84	80.093	7,464.84	80.3035	7,464.84	77.5591	7,464.84	77.9238	7,464.84	75.0523	7,464.84	76.1582	7,464.84	72.9322	7,464.84	74.3867	7,464.84	73.8287	7,464.84	72.9655	7,464.84	72.3997	7,464.84	74.0772	7,464.84	72.0053	7,464.84	72.7694	7,464.84	72.4515	7,464.84	71.9281	7,464.84	69.2909	7,464.84	70.1073	7,464.84	60.2821	7,464.84	66.9519	7,464.84	65.029
7,727.05	90.6271	7,727.05	90.3908	7,727.05	90.4183	7,727.05	89.9495	7,727.05	89.6812	7,727.05	89.1504	7,727.05	88.9264	7,727.05	87.9957	7,727.05	88.2432	7,727.05	86.3012	7,727.05	87.2589	7,727.05	83.8148	7,727.05	84.6965	7,727.05	81.2572	7,727.05	81.715	7,727.05	78.6925	7,727.05	80.1823	7,727.05	76.8347	7,727.05	77.6135	7,727.05	73.9656	7,727.05	75.0321	7,727.05	72.3394	7,727.05	73.6799	7,727.05	72.5479	7,727.05	73.1749	7,727.05	72.359	7,727.05	72.5377	7,727.05	72.4617	7,727.05	72.1448	7,727.05	70.8075	7,727.05	71.9151	7,727.05	69.3474	7,727.05	70.5731	7,727.05	65.7675	7,727.05	66.7472	7,727.05	62.0864
7,999.51	90.7508	7,999.51	90.4562	7,999.51	90.5925	7,999.51	89.5704	7,999.51	89.8904	7,999.51	88.7364	7,999.51	89.1035	7,999.51	87.472	7,999.51	87.8202	7,999.51	85.9968	7,999.51	86.6519	7,999.51	83.6879	7,999.51	85.2419	7,999.51	80.8922	7,999.51	82.7513	7,999.51	79.0316	7,999.51	80.2187	7,999.51	76.501	7,999.51	77.4023	7,999.51	74.2552	7,999.51	75.4274	7,999.51	72.0769	7,999.51	73.0487	7,999.51	72.4536	7,999.51	73.0269	7,999.51	71.4755	7,999.51	72.3991	7,999.51	72.3247	7,999.51	72.7575	7,999.51	71.0379	7,999.51	73.4183	7,999.51	68.1912	7,999.51	71.2397	7,999.51	66.9011	7,999.51	65.0402	7,999.51	64.7009
8,282.23	90.3863	8,282.23	90.0612	8,282.23	90.2647	8,282.23	88.9349	8,282.23	89.2621	8,282.23	88.0426	8,282.23	87.7983	8,282.23	86.9993	8,282.23	87.2182	8,282.23	85.907	8,282.23	86.627	8,282.23	83.9025	8,282.23	84.9062	8,282.23	81.5761	8,282.23	82.87	8,282.23	79.2971	8,282.23	80.0703	8,282.23	77.1217	8,282.23	77.6878	8,282.23	74.0854	8,282.23	75.4847	8,282.23	72.3097	8,282.23	73.8643	8,282.23	71.8303	8,282.23	71.7243	8,282.23	71.8717	8,282.23	73.1788	8,282.23	72.6687	8,282.23	72.5567	8,282.23	71.3413	8,282.23	72.6073	8,282.23	67.8576	8,282.23	68.8386	8,282.23	65.0545	8,282.23	66.0118	8,282.23	63.5499
8,573.73	90.3934	8,573.73	89.7792	8,573.73	89.867	8,573.73	88.5307	8,573.73	88.6262	8,573.73	87.482	8,573.73	87.545	8,573.73	86.8019	8,573.73	86.5896	8,573.73	85.8059	8,573.73	85.8739	8,573.73	83.8363	8,573.73	84.2406	8,573.73	81.5383	8,573.73	81.7096	8,573.73	79.1421	8,573.73	79.5775	8,573.73	76.8825	8,573.73	76.6705	8,573.73	73.9101	8,573.73	74.5948	8,573.73	71.3064	8,573.73	72.2824	8,573.73	71.8113	8,573.73	71.9155	8,573.73	71.2436	8,573.73	70.9351	8,573.73	71.1534	8,573.73	70.6107	8,573.73	70.5291	8,573.73	70.4295	8,573.73	67.9412	8,573.73	67.4807	8,573.73	63.74	8,573.73	64.6203	8,573.73	62.1959
8,876.95	90.3638	8,876.95	89.9449	8,876.95	90.0886	8,876.95	88.7399	8,876.95	89.1789	8,876.95	87.6093	8,876.95	87.9165	8,876.95	86.7046	8,876.95	86.7978	8,876.95	85.3228	8,876.95	85.664	8,876.95	83.1886	8,876.95	83.8911	8,876.95	80.5957	8,876.95	81.5208	8,876.95	78.4649	8,876.95	78.8836	8,876.95	76.1018	8,876.95	75.9804	8,876.95	73.2061	8,876.95	73.3418	8,876.95	71.6371	8,876.95	71.7277	8,876.95	71.2064	8,876.95	70.4202	8,876.95	71.7564	8,876.95	70.8898	8,876.95	70.9591	8,876.95	70.1951	8,876.95	69.2761	8,876.95	69.4385	8,876.95	67.2625	8,876.95	66.3919	8,876.95	60.0712	8,876.95	63.9604	8,876.95	61.0093
9,188.96	90.4396	9,188.96	90.1314	9,188.96	90.2213	9,188.96	88.8559	9,188.96	89.4332	9,188.96	87.8346	9,188.96	87.9197	9,188.96	86.7917	9,188.96	86.8458	9,188.96	85.2885	9,188.96	85.5864	9,188.96	82.8685	9,188.96	83.6471	9,188.96	80.0373	9,188.96	80.9438	9,188.96	78.2287	9,188.96	77.7109	9,188.96	75.1643	9,188.96	75.4202	9,188.96	72.6241	9,188.96	72.7507	9,188.96	70.615	9,188.96	70.9378	9,188.96	70.9049	9,188.96	69.4237	9,188.96	71.0709	9,188.96	70.025	9,188.96	71.4118	9,188.96	69.7556	9,188.96	69.8419	9,188.96	70.5692	9,188.96	65.5424	9,188.96	66.2268	9,188.96	61.8504	9,188.96	62.9385	9,188.96	60.7613
9,514.16	90.6519	9,514.16	90.0888	9,514.16	90.2846	9,514.16	88.7598	9,514.16	89.4794	9,514.16	87.4659	9,514.16	88.0539	9,514.16	86.5868	9,514.16	86.6483	9,514.16	85.024	9,514.16	85.3015	9,514.16	82.9018	9,514.16	83.0418	9,514.16	80.4069	9,514.16	80.6086	9,514.16	77.3684	9,514.16	77.0184	9,514.16	75.4967	9,514.16	74.7119	9,514.16	72.4068	9,514.16	71.6252	9,514.16	70.161	9,514.16	69.8273	9,514.16	70.0739	9,514.16	69.2668	9,514.16	69.7627	9,514.16	69.4071	9,514.16	71.4047	9,514.16	69.7051	9,514.16	69.2258	9,514.16	69.9138	9,514.16	65.1492	9,514.16	66.4352	9,514.16	62.8666	9,514.16	62.1489	9,514.16	62.221
9,849.61	90.5388	9,849.61	89.9183	9,849.61	90.2826	9,849.61	88.5246	9,849.61	89.3654	9,849.61	86.9048	9,849.61	87.9192	9,849.61	86.027	9,849.61	86.4039	9,849.61	84.5177	9,849.61	84.8922	9,849.61	82.4268	9,849.61	82.74	9,849.61	80.1973	9,849.61	80.2178	9,849.61	77.1743	9,849.61	77.1701	9,849.61	75.1515	9,849.61	74.8819	9,849.61	71.7173	9,849.61	72.2447	9,849.61	70.6561	9,849.61	70.314	9,849.61	70.694	9,849.61	68.5205	9,849.61	69.9124	9,849.61	68.8679	9,849.61	70.0123	9,849.61	69.9834	9,849.61	68.3806	9,849.61	68.9651	9,849.61	64.3174	9,849.61	66.9387	9,849.61	61.7535	9,849.61	64.091	9,849.61	60.5224
10,196.8	90.4158	10,196.8	89.8238	10,196.8	90.317	10,196.8	88.3877	10,196.8	89.3659	10,196.8	86.4507	10,196.8	87.6699	10,196.8	85.4805	10,196.8	85.9191	10,196.8	84.4702	10,196.8	84.364	10,196.8	82.1961	10,196.8	82.3613	10,196.8	80.1448	10,196.8	80.1561	10,196.8	77.4049	10,196.8	77.1413	10,196.8	75.1841	10,196.8	74.6295	10,196.8	71.7533	10,196.8	72.0797	10,196.8	69.8231	10,196.8	70.1437	10,196.8	70.2104	10,196.8	67.8502	10,196.8	70.4838	10,196.8	68.1969	10,196.8	70.1702	10,196.8	68.9647	10,196.8	68.3657	10,196.8	69.1429	10,196.8	64.3182	10,196.8	65.7811	10,196.8	61.2578	10,196.8	63.2587	10,196.8	61.4792
10,555.7	90.6107	10,555.7	89.9574	10,555.7	90.5483	10,555.7	88.3252	10,555.7	89.453	10,555.7	86.1602	10,555.7	87.532	10,555.7	85.0414	10,555.7	85.4744	10,555.7	84.0604	10,555.7	84.0468	10,555.7	82.0507	10,555.7	82.1545	10,555.7	79.462	10,555.7	79.7922	10,555.7	76.8774	10,555.7	76.8021	10,555.7	74.235	10,555.7	74.184	10,555.7	71.8858	10,555.7	71.7887	10,555.7	69.4963	10,555.7	69.3445	10,555.7	69.3614	10,555.7	67.112	10,555.7	69.3588	10,555.7	68.5289	10,555.7	70.0994	10,555.7	67.7768	10,555.7	68.3748	10,555.7	69.3313	10,555.7	64.3001	10,555.7	66.0574	10,555.7	61.8015	10,555.7	63.1241	10,555.7	62.944
10,927.7	90.7615	10,927.7	89.9015	10,927.7	90.6663	10,927.7	87.9829	10,927.7	89.2823	10,927.7	85.82	10,927.7	86.9223	10,927.7	84.3525	10,927.7	85.1617	10,927.7	83.21	10,927.7	83.7521	10,927.7	80.8682	10,927.7	81.4101	10,927.7	77.7671	10,927.7	78.4915	10,927.7	75.2547	10,927.7	76.016	10,927.7	73.3761	10,927.7	72.4763	10,927.7	69.9597	10,927.7	70.9631	10,927.7	67.3368	10,927.7	67.7114	10,927.7	68.5051	10,927.7	66.2562	10,927.7	67.7822	10,927.7	68.3355	10,927.7	68.5797	10,927.7	66.4008	10,927.7	67.4176	10,927.7	68.5393	10,927.7	65.4347	10,927.7	66.95	10,927.7	63.9737	10,927.7	63.7473	10,927.7	63.3257
11,313	90.5895	11,313	89.5277	11,313	90.3567	11,313	87.0643	11,313	88.9775	11,313	84.5098	11,313	86.3897	11,313	83.3405	11,313	84.4912	11,313	82.174	11,313	82.7514	11,313	79.8599	11,313	80.7889	11,313	77.81	11,313	78.456	11,313	74.8626	11,313	75.58	11,313	72.1597	11,313	72.2716	11,313	68.9052	11,313	69.6299	11,313	68.1721	11,313	67.1841	11,313	67.7672	11,313	66.9457	11,313	65.8677	11,313	65.0158	11,313	67.0513	11,313	67.2689	11,313	67.5155	11,313	69.163	11,313	66.3507	11,313	67.0039	11,313	63.7987	11,313	63.9942	11,313	63.2289
11,712.9	91.086	11,712.9	89.9847	11,712.9	90.8834	11,712.9	87.1517	11,712.9	89.3469	11,712.9	83.7929	11,712.9	86.5426	11,712.9	81.7771	11,712.9	83.6936	11,712.9	80.5501	11,712.9	81.6045	11,712.9	78.8827	11,712.9	80.19	11,712.9	77.6468	11,712.9	78.1766	11,712.9	73.7509	11,712.9	74.6401	11,712.9	71.6371	11,712.9	71.9581	11,712.9	67.032	11,712.9	67.9867	11,712.9	66.7503	11,712.9	67.4258	11,712.9	66.1757	11,712.9	65.1708	11,712.9	66.1855	11,712.9	64.4179	11,712.9	67.8397	11,712.9	65.5948	11,712.9	68.9986	11,712.9	70.4463	11,712.9	66.2262	11,712.9	65.855	11,712.9	61.9912	11,712.9	64.3211	11,712.9	61.7979
12,126	91.1092	12,126	89.8521	12,126	90.8294	12,126	87.1882	12,126	88.87	12,126	83.4671	12,126	85.7129	12,126	80.879	12,126	82.8827	12,126	80.5964	12,126	81.8379	12,126	78.773	12,126	80.081	12,126	76.158	12,126	77.0603	12,126	72.9216	12,126	73.8291	12,126	70.5914	12,126	70.8071	12,126	68.0494	12,126	69.2903	12,126	64.9477	12,126	64.8013	12,126	63.6067	12,126	63.2942	12,126	66.1811	12,126	67.1515	12,126	67.3461	12,126	64.7074	12,126	68.0837	12,126	66.9487	12,126	63.9999	12,126	65.8152	12,126	62.9362	12,126	63.6411	12,126	59.7796
12,553.7	90.9036	12,553.7	89.5464	12,553.7	90.563	12,553.7	86.968	12,553.7	88.4755	12,553.7	83.1498	12,553.7	85.5852	12,553.7	80.754	12,553.7	82.581	12,553.7	80.4892	12,553.7	81.7559	12,553.7	78.849	12,553.7	80.6158	12,553.7	75.7251	12,553.7	78.265	12,553.7	73.4205	12,553.7	74.3399	12,553.7	70.3809	12,553.7	70.9201	12,553.7	66.4565	12,553.7	68.4034	12,553.7	63.805	12,553.7	64.1365	12,553.7	65.0658	12,553.7	64.6807	12,553.7	65.107	12,553.7	65.9671	12,553.7	65.6025	12,553.7	66.289	12,553.7	66.6262	12,553.7	67.2488	12,553.7	64.4962	12,553.7	66.6131	12,553.7	60.5934	12,553.7	62.6739	12,553.7	57.0586
12,996.1	90.5443	12,996.1	89.5341	12,996.1	90.0713	12,996.1	87.0412	12,996.1	88.4593	12,996.1	83.1702	12,996.1	85.3572	12,996.1	80.7699	12,996.1	82.7638	12,996.1	80.4535	12,996.1	81.9023	12,996.1	79.1095	12,996.1	80.6435	12,996.1	77.3547	12,996.1	78.2549	12,996.1	73.047	12,996.1	74.9626	12,996.1	70.9402	12,996.1	71.0133	12,996.1	65.5607	12,996.1	67.8073	12,996.1	65.086	12,996.1	65.3544	12,996.1	64.0916	12,996.1	64.196	12,996.1	65.2454	12,996.1	63.0826	12,996.1	65.9671	12,996.1	63.2864	12,996.1	67.691	12,996.1	70.0651	12,996.1	62.7776	12,996.1	64.9223	12,996.1	60.7425	12,996.1	59.1792	12,996.1	58.2035
13,454.6	90.1998	13,454.6	89.3986	13,454.6	89.6135	13,454.6	86.9024	13,454.6	88.0229	13,454.6	83.9252	13,454.6	85.235	13,454.6	81.78	13,454.6	83.3586	13,454.6	81.0093	13,454.6	82.0897	13,454.6	79.0465	13,454.6	80.2886	13,454.6	77.1891	13,454.6	77.0883	13,454.6	72.8403	13,454.6	74.9241	13,454.6	70.0745	13,454.6	70.3912	13,454.6	65.7202	13,454.6	69.0737	13,454.6	63.4014	13,454.6	65.5479	13,454.6	61.1149	13,454.6	64.6352	13,454.6	63.5724	13,454.6	64.1436	13,454.6	66.5799	13,454.6	64.2376	13,454.6	65.7554	13,454.6	65.8779	13,454.6	60.6442	13,454.6	62.2136	13,454.6	61.6162	13,454.6	58.9323	13,454.6	59.9344
13,929.2	89.8577	13,929.2	89.1377	13,929.2	89.1896	13,929.2	87.0739	13,929.2	87.5573	13,929.2	84.5419	13,929.2	85.3288	13,929.2	82.0042	13,929.2	83.2508	13,929.2	81.0003	13,929.2	81.8873	13,929.2	78.8648	13,929.2	80.7703	13,929.2	75.9759	13,929.2	78.1862	13,929.2	72.8888	13,929.2	75.1353	13,929.2	68.3221	13,929.2	71.3582	13,929.2	65.5902	13,929.2	69.0616	13,929.2	63.2311	13,929.2	64.5872	13,929.2	63.1819	13,929.2	64.2122	13,929.2	64.3054	13,929.2	65.2009	13,929.2	63.3561	13,929.2	64.6811	13,929.2	63.3338	13,929.2	66.5008	13,929.2	60.7604	13,929.2	61.9049	13,929.2	59.0685	13,929.2	58.3779	13,929.2	58.2811
14,419.9	89.3757	14,419.9	88.7748	14,419.9	88.8085	14,419.9	87.0596	14,419.9	87.2857	14,419.9	84.7648	14,419.9	85.3923	14,419.9	82.5583	14,419.9	83.2805	14,419.9	81.4087	14,419.9	82.1528	14,419.9	79.6121	14,419.9	81.2303	14,419.9	76.6315	14,419.9	79.0089	14,419.9	72.7276	14,419.9	75.6847	14,419.9	69.5054	14,419.9	72.0149	14,419.9	65.6969	14,419.9	68.8226	14,419.9	64.5117	14,419.9	65.8785	14,419.9	62.4469	14,419.9	64.2915	14,419.9	61.4925	14,419.9	63.936	14,419.9	63.7596	14,419.9	63.9962	14,419.9	63.7199	14,419.9	65.2931	14,419.9	59.4531	14,419.9	59.3936	14,419.9	59.7763	14,419.9	55.7258	14,419.9	57.7981
14,928.2	88.9902	14,928.2	88.4625	14,928.2	88.436	14,928.2	86.9729	14,928.2	87.1954	14,928.2	85.1781	14,928.2	85.544	14,928.2	82.9199	14,928.2	83.5223	14,928.2	81.4287	14,928.2	81.8177	14,928.2	79.7934	14,928.2	80.5821	14,928.2	77.3645	14,928.2	78.2196	14,928.2	73.1342	14,928.2	75.4244	14,928.2	69.748	14,928.2	70.9581	14,928.2	66.3452	14,928.2	68.5713	14,928.2	64.9921	14,928.2	65.6213	14,928.2	61.5019	14,928.2	63.4195	14,928.2	61.3618	14,928.2	63.1977	14,928.2	63.152	14,928.2	62.8922	14,928.2	61.7491	14,928.2	62.9043	14,928.2	58.7922	14,928.2	59.5381	14,928.2	57.6246	14,928.2	58.6155	14,928.2	57.0796
15,455.6	88.3609	15,455.6	88.1928	15,455.6	87.854	15,455.6	86.9197	15,455.6	87.016	15,455.6	85.2191	15,455.6	85.5803	15,455.6	82.8042	15,455.6	83.2179	15,455.6	81.3045	15,455.6	81.3505	15,455.6	79.3469	15,455.6	80.2313	15,455.6	76.5889	15,455.6	77.383	15,455.6	72.8766	15,455.6	74.0646	15,455.6	68.373	15,455.6	70.2033	15,455.6	66.6007	15,455.6	67.9375	15,455.6	64.2292	15,455.6	63.855	15,455.6	60.7054	15,455.6	61.7935	15,455.6	61.1353	15,455.6	64.0079	15,455.6	60.1668	15,455.6	62.6683	15,455.6	59.1507	15,455.6	63.2441	15,455.6	59.2584	15,455.6	59.3203	15,455.6	56.6224	15,455.6	57.5453	15,455.6	54.736
16,000.5	87.4897	16,000.5	87.3787	16,000.5	87.0831	16,000.5	86.5088	16,000.5	86.4235	16,000.5	84.8446	16,000.5	85.0529	16,000.5	82.4724	16,000.5	83.0128	16,000.5	80.8864	16,000.5	80.911	16,000.5	78.8069	16,000.5	79.5824	16,000.5	76.0704	16,000.5	77.447	16,000.5	72.3353	16,000.5	73.8939	16,000.5	68.8522	16,000.5	69.8524	16,000.5	65.5348	16,000.5	66.9016	16,000.5	63.8532	16,000.5	62.3835	16,000.5	60.4971	16,000.5	61.8756	16,000.5	59.5412	16,000.5	62.5793	16,000.5	59.4256	16,000.5	61.9099	16,000.5	60.0322	16,000.5	61.5466	16,000.5	57.9658	16,000.5	58.4997	16,000.5	55.17	16,000.5	56.0911	16,000.5	53.4478
16,564.5	86.6788	16,564.5	86.5904	16,564.5	86.4026	16,564.5	85.9333	16,564.5	85.7796	16,564.5	84.402	16,564.5	84.516	16,564.5	82.0527	16,564.5	82.5452	16,564.5	80.1794	16,564.5	80.2031	16,564.5	78.0995	16,564.5	78.7948	16,564.5	75.5652	16,564.5	76.341	16,564.5	70.6841	16,564.5	72.7566	16,564.5	67.2033	16,564.5	68.3605	16,564.5	64.2157	16,564.5	65.8508	16,564.5	62.7533	16,564.5	62.059	16,564.5	58.9655	16,564.5	60.8026	16,564.5	59.1495	16,564.5	61.5331	16,564.5	58.3591	16,564.5	59.851	16,564.5	58.4812	16,564.5	61.5317	16,564.5	57.0026	16,564.5	57.3685	16,564.5	53.0065	16,564.5	55.1112	16,564.5	49.0069
17,148.9	85.7605	17,148.9	86.0272	17,148.9	85.5201	17,148.9	85.3473	17,148.9	85.1398	17,148.9	84.1496	17,148.9	84.0559	17,148.9	81.4478	17,148.9	81.795	17,148.9	79.4096	17,148.9	79.2827	17,148.9	76.6802	17,148.9	77.7067	17,148.9	74.2367	17,148.9	74.6064	17,148.9	69.4948	17,148.9	70.9466	17,148.9	65.6494	17,148.9	66.6362	17,148.9	63.0528	17,148.9	64.7914	17,148.9	60.8567	17,148.9	60.5154	17,148.9	57.1828	17,148.9	60.193	17,148.9	58.7087	17,148.9	59.9976	17,148.9	56.884	17,148.9	58.5784	17,148.9	57.3056	17,148.9	59.2086	17,148.9	55.6107	17,148.9	56.1406	17,148.9	52.3314	17,148.9	52.6332	17,148.9	47.1603
17,752.4	85.2553	17,752.4	85.5724	17,752.4	84.9776	17,752.4	85.1645	17,752.4	84.6223	17,752.4	83.8018	17,752.4	83.5012	17,752.4	80.7384	17,752.4	81.2621	17,752.4	78.659	17,752.4	78.7403	17,752.4	75.1866	17,752.4	76.2737	17,752.4	71.8404	17,752.4	73.1273	17,752.4	68.1051	17,752.4	70.1043	17,752.4	63.4074	17,752.4	65.144	17,752.4	61.5668	17,752.4	62.5855	17,752.4	59.1863	17,752.4	57.802	17,752.4	57.3837	17,752.4	58.997	17,752.4	54.9654	17,752.4	57.8018	17,752.4	54.6242	17,752.4	57.183	17,752.4	54.5877	17,752.4	57.6718	17,752.4	53.7541	17,752.4	54.0418	17,752.4	49.8391	17,752.4	49.6042	17,752.4	48.1153
18,379.4	85.0089	18,379.4	85.3983	18,379.4	84.9942	18,379.4	84.9348	18,379.4	84.7592	18,379.4	83.1893	18,379.4	83.3727	18,379.4	80.1985	18,379.4	80.7808	18,379.4	77.4796	18,379.4	77.5631	18,379.4	73.7259	18,379.4	75.2008	18,379.4	70.303	18,379.4	71.6444	18,379.4	66.2019	18,379.4	68.312	18,379.4	61.5462	18,379.4	63.4623	18,379.4	59.7508	18,379.4	60.8207	18,379.4	58.3984	18,379.4	57.1727	18,379.4	53.9005	18,379.4	58.3594	18,379.4	55.0306	18,379.4	57.9941	18,379.4	53.7708	18,379.4	57.0106	18,379.4	54.1295	18,379.4	55.5051	18,379.4	51.9378	18,379.4	52.2882	18,379.4	50.0172	18,379.4	48.5739	18,379.4	47.4339
19,026.9	85.0473	19,026.9	85.3176	19,026.9	85.1188	19,026.9	84.6299	19,026.9	85.0364	19,026.9	82.7083	19,026.9	83.4884	19,026.9	79.1421	19,026.9	80.4264	19,026.9	75.8639	19,026.9	76.3021	19,026.9	71.8732	19,026.9	73.603	19,026.9	67.8726	19,026.9	69.3999	19,026.9	64.8961	19,026.9	66.7447	19,026.9	58.7409	19,026.9	63.0587	19,026.9	59.0837	19,026.9	60.0691	19,026.9	55.6293	19,026.9	55.9442	19,026.9	54.6351	19,026.9	56.8587	19,026.9	55.479	19,026.9	57.0989	19,026.9	54.0517	19,026.9	56.4092	19,026.9	53.6562	19,026.9	53.4392	19,026.9	49.8015	19,026.9	48.1042	19,026.9	47.0167	19,026.9	46.2837	19,026.9	45.5166
19,697.8	84.9982	19,697.8	85.169	19,697.8	85.2041	19,697.8	84.2461	19,697.8	84.9898	19,697.8	81.9366	19,697.8	83.2715	19,697.8	77.5453	19,697.8	79.773	19,697.8	73.7324	19,697.8	75.0878	19,697.8	68.8924	19,697.8	71.6671	19,697.8	65.5928	19,697.8	68.8456	19,697.8	63.9079	19,697.8	67.0466	19,697.8	59.5121	19,697.8	64.2464	19,697.8	56.9161	19,697.8	60.1175	19,697.8	54.0412	19,697.8	56.5841	19,697.8	53.3419	19,697.8	57.0181	19,697.8	55.9935	19,697.8	56.5117	19,697.8	54.5713	19,697.8	56.4113	19,697.8	52.8644	19,697.8	53.0898	19,697.8	48.6277	19,697.8	50.3714	19,697.8	47.9846	19,697.8	44.168	19,697.8	42.9327
19,999.5	85.1948	19,999.5	85.2458	19,999.5	85.1779	19,999.5	84.0729	19,999.5	84.9972	19,999.5	81.4032	19,999.5	83.1648	19,999.5	76.6204	19,999.5	79.433	19,999.5	72.5472	19,999.5	74.5645	19,999.5	67.4065	19,999.5	70.5851	19,999.5	63.9201	19,999.5	69.2933	19,999.5	65.4811	19,999.5	68.0276	19,999.5	56.6531	19,999.5	65.589	19,999.5	53.5028	19,999.5	59.6294	19,999.5	51.6277	19,999.5	57.7827	19,999.5	57.3999	19,999.5	58.5035	19,999.5	56.6024	19,999.5	56.462	19,999.5	54.5567	19,999.5	57.2979	19,999.5	56.0436	19,999.5	46.7184	19,999.5	55.2578	19,999.5	53.2742	19,999.5	54.6617	19,999.5	44.9266	19,999.5	49.7252
