"SPL Vertical"
"On-Axis"		"10°"		"-10°"		"20°"		"-20°"		"30°"		"-30°"		"40°"		"-40°"		"50°"		"-50°"		"60°"		"-60°"		"70°"		"-70°"		"80°"		"-80°"		"90°"		"-90°"		"100°"		"-100°"		"110°"		"-110°"		"120°"		"-120°"		"130°"		"-130°"		"140°"		"-140°"		"150°"		"-150°"		"160°"		"-160°"		"170°"		"-170°"		"180°"
"Frequency / Hz"	"Sound Pressure Level / dB (re 20 µPa/V)  [2.83  V @ 1. m]"	"Frequency / Hz"	"Sound Pressure Level / dB (re 20 µPa/V)  [2.83  V @ 1. m]"	"Frequency / Hz"	"Sound Pressure Level / dB (re 20 µPa/V)  [2.83  V @ 1. m]"	"Frequency / Hz"	"Sound Pressure Level / dB (re 20 µPa/V)  [2.83  V @ 1. m]"	"Frequency / Hz"	"Sound Pressure Level / dB (re 20 µPa/V)  [2.83  V @ 1. m]"	"Frequency / Hz"	"Sound Pressure Level / dB (re 20 µPa/V)  [2.83  V @ 1. m]"	"Frequency / Hz"	"Sound Pressure Level / dB (re 20 µPa/V)  [2.83  V @ 1. m]"	"Frequency / Hz"	"Sound Pressure Level / dB (re 20 µPa/V)  [2.83  V @ 1. m]"	"Frequency / Hz"	"Sound Pressure Level / dB (re 20 µPa/V)  [2.83  V @ 1. m]"	"Frequency / Hz"	"Sound Pressure Level / dB (re 20 µPa/V)  [2.83  V @ 1. m]"	"Frequency / Hz"	"Sound Pressure Level / dB (re 20 µPa/V)  [2.83  V @ 1. m]"	"Frequency / Hz"	"Sound Pressure Level / dB (re 20 µPa/V)  [2.83  V @ 1. m]"	"Frequency / Hz"	"Sound Pressure Level / dB (re 20 µPa/V)  [2.83  V @ 1. m]"	"Frequency / Hz"	"Sound Pressure Level / dB (re 20 µPa/V)  [2.83  V @ 1. m]"	"Frequency / Hz"	"Sound Pressure Level / dB (re 20 µPa/V)  [2.83  V @ 1. m]"	"Frequency / Hz"	"Sound Pressure Level / dB (re 20 µPa/V)  [2.83  V @ 1. m]"	"Frequency / Hz"	"Sound Pressure Level / dB (re 20 µPa/V)  [2.83  V @ 1. m]"	"Frequency / Hz"	"Sound Pressure Level / dB (re 20 µPa/V)  [2.83  V @ 1. m]"	"Frequency / Hz"	"Sound Pressure Level / dB (re 20 µPa/V)  [2.83  V @ 1. m]"	"Frequency / Hz"	"Sound Pressure Level / dB (re 20 µPa/V)  [2.83  V @ 1. m]"	"Frequency / Hz"	"Sound Pressure Level / dB (re 20 µPa/V)  [2.83  V @ 1. m]"	"Frequency / Hz"	"Sound Pressure Level / dB (re 20 µPa/V)  [2.83  V @ 1. m]"	"Frequency / Hz"	"Sound Pressure Level / dB (re 20 µPa/V)  [2.83  V @ 1. m]"	"Frequency / Hz"	"Sound Pressure Level / dB (re 20 µPa/V)  [2.83  V @ 1. m]"	"Frequency / Hz"	"Sound Pressure Level / dB (re 20 µPa/V)  [2.83  V @ 1. m]"	"Frequency / Hz"	"Sound Pressure Level / dB (re 20 µPa/V)  [2.83  V @ 1. m]"	"Frequency / Hz"	"Sound Pressure Level / dB (re 20 µPa/V)  [2.83  V @ 1. m]"	"Frequency / Hz"	"Sound Pressure Level / dB (re 20 µPa/V)  [2.83  V @ 1. m]"	"Frequency / Hz"	"Sound Pressure Level / dB (re 20 µPa/V)  [2.83  V @ 1. m]"	"Frequency / Hz"	"Sound Pressure Level / dB (re 20 µPa/V)  [2.83  V @ 1. m]"	"Frequency / Hz"	"Sound Pressure Level / dB (re 20 µPa/V)  [2.83  V @ 1. m]"	"Frequency / Hz"	"Sound Pressure Level / dB (re 20 µPa/V)  [2.83  V @ 1. m]"	"Frequency / Hz"	"Sound Pressure Level / dB (re 20 µPa/V)  [2.83  V @ 1. m]"	"Frequency / Hz"	"Sound Pressure Level / dB (re 20 µPa/V)  [2.83  V @ 1. m]"	"Frequency / Hz"	"Sound Pressure Level / dB (re 20 µPa/V)  [2.83  V @ 1. m]"	"Frequency / Hz"	"Sound Pressure Level / dB (re 20 µPa/V)  [2.83  V @ 1. m]"
20.5078	40.6857	20.5078	40.6796	20.5078	40.8775	20.5078	40.7957	20.5078	41.2796	20.5078	40.963	20.5078	41.8595	20.5078	41.123	20.5078	42.5396	20.5078	41.2353	20.5078	43.2277	20.5078	41.2747	20.5078	43.843	20.5078	41.2261	20.5078	44.3253	20.5078	41.0806	20.5078	44.6344	20.5078	40.8329	20.5078	44.7462	20.5078	40.4807	20.5078	44.6479	20.5078	40.0252	20.5078	44.3359	20.5078	39.4747	20.5078	43.8136	20.5078	38.8528	20.5078	43.0917	20.5078	38.2128	20.5078	42.1899	20.5078	37.6568	20.5078	41.1428	20.5078	37.3414	20.5078	40.0122	20.5078	37.4301	20.5078	38.9052	20.5078	37.984
21.9727	44.1462	21.9727	43.4371	21.9727	44.9824	21.9727	42.9027	21.9727	45.8818	21.9727	42.5569	21.9727	46.7812	21.9727	42.3767	21.9727	47.6271	21.9727	42.3155	21.9727	48.3784	21.9727	42.323	21.9727	49.0045	21.9727	42.3601	21.9727	49.4838	21.9727	42.4047	21.9727	49.8024	21.9727	42.4512	21.9727	49.9532	21.9727	42.5086	21.9727	49.9361	21.9727	42.5962	21.9727	49.7575	21.9727	42.7398	21.9727	49.4299	21.9727	42.9657	21.9727	48.9715	21.9727	43.2938	21.9727	48.4049	21.9727	43.7323	21.9727	47.7561	21.9727	44.2756	21.9727	47.0527	21.9727	44.9061	21.9727	46.3237	21.9727	45.5984
23.4375	47.7987	23.4375	47.347	23.4375	48.3313	23.4375	46.9929	23.4375	48.9157	23.4375	46.7381	23.4375	49.5158	23.4375	46.5704	23.4375	50.0935	23.4375	46.4691	23.4375	50.6128	23.4375	46.4109	23.4375	51.0424	23.4375	46.3751	23.4375	51.3572	23.4375	46.3469	23.4375	51.5389	23.4375	46.3184	23.4375	51.5772	23.4375	46.2889	23.4375	51.4693	23.4375	46.2643	23.4375	51.221	23.4375	46.2563	23.4375	50.8459	23.4375	46.2815	23.4375	50.3656	23.4375	46.3592	23.4375	49.8087	23.4375	46.5086	23.4375	49.209	23.4375	46.7461	23.4375	48.6032	23.4375	47.0808	23.4375	48.027	23.4375	47.5119
24.9023	48.4903	24.9023	48.0335	24.9023	49.0525	24.9023	47.6972	24.9023	49.6867	24.9023	47.4762	24.9023	50.3482	24.9023	47.3499	24.9023	50.9899	24.9023	47.2906	24.9023	51.5687	24.9023	47.2711	24.9023	52.0488	24.9023	47.2693	24.9023	52.4036	24.9023	47.2701	24.9023	52.6149	24.9023	47.266	24.9023	52.6728	24.9023	47.2559	24.9023	52.5756	24.9023	47.245	24.9023	52.3294	24.9023	47.2444	24.9023	51.9482	24.9023	47.2701	24.9023	51.4537	24.9023	47.3422	24.9023	50.8753	24.9023	47.4827	24.9023	50.2491	24.9023	47.7121	24.9023	49.6153	24.9023	48.0444	24.9023	49.0145	24.9023	48.4824
26.3672	53.2704	26.3672	52.7084	26.3672	53.8697	26.3672	52.2082	26.3672	54.477	26.3672	51.7868	26.3672	55.0624	26.3672	51.4514	26.3672	55.5977	26.3672	51.1998	26.3672	56.0582	26.3672	51.0233	26.3672	56.4239	26.3672	50.9104	26.3672	56.6794	26.3672	50.85	26.3672	56.8145	26.3672	50.8339	26.3672	56.8241	26.3672	50.8583	26.3672	56.7085	26.3672	50.9233	26.3672	56.4733	26.3672	51.0329	26.3672	56.1298	26.3672	51.1937	26.3672	55.6943	26.3672	51.4132	26.3672	55.1881	26.3672	51.6984	26.3672	54.6357	26.3672	52.0532	26.3672	54.0637	26.3672	52.4769	26.3672	53.4982	26.3672	52.9629
27.832	57.6122	27.832	57.26	27.832	57.9821	27.832	56.938	27.832	58.354	27.832	56.6539	27.832	58.71	27.832	56.411	27.832	59.0315	27.832	56.2087	27.832	59.3009	27.832	56.0439	27.832	59.5027	27.832	55.9121	27.832	59.6242	27.832	55.8093	27.832	59.6568	27.832	55.7323	27.832	59.5962	27.832	55.68	27.832	59.4434	27.832	55.653	27.832	59.2046	27.832	55.6542	27.832	58.8918	27.832	55.6884	27.832	58.5217	27.832	55.7615	27.832	58.115	27.832	55.8803	27.832	57.6947	27.832	56.0511	27.832	57.2833	27.832	56.2781	27.832	56.9009	27.832	56.5626
29.2969	58.5306	29.2969	58.2728	29.2969	58.8026	29.2969	58.0349	29.2969	59.0799	29.2969	57.8195	29.2969	59.3509	29.2969	57.6263	29.2969	59.602	29.2969	57.4535	29.2969	59.8187	29.2969	57.2984	29.2969	59.9866	29.2969	57.1586	29.2969	60.0931	29.2969	57.0328	29.2969	60.1278	29.2969	56.921	29.2969	60.0843	29.2969	56.8254	29.2969	59.9609	29.2969	56.7504	29.2969	59.761	29.2969	56.702	29.2969	59.493	29.2969	56.6881	29.2969	59.1704	29.2969	56.7174	29.2969	58.8105	29.2969	56.7982	29.2969	58.4331	29.2969	56.9369	29.2969	58.0589	29.2969	57.1368	29.2969	57.7076	29.2969	57.396
30.7617	59.4308	30.7617	59.1952	30.7617	59.6913	30.7617	58.9874	30.7617	59.9699	30.7617	58.8075	30.7617	60.2563	30.7617	58.6535	30.7617	60.5369	30.7617	58.5224	30.7617	60.796	30.7617	58.4112	30.7617	61.017	30.7617	58.3176	30.7617	61.1847	30.7617	58.2408	30.7617	61.2866	30.7617	58.1813	30.7617	61.3142	30.7617	58.1418	30.7617	61.2645	30.7617	58.1264	30.7617	61.1392	30.7617	58.1406	30.7617	60.9454	30.7617	58.1905	30.7617	60.6941	30.7617	58.2818	30.7617	60.3995	30.7617	58.4193	30.7617	60.0775	30.7617	58.6049	30.7617	59.7449	30.7617	58.8372	30.7617	59.4179	30.7617	59.1113
32.2266	60.8367	32.2266	60.5914	32.2266	61.1123	32.2266	60.3813	32.2266	61.4093	32.2266	60.2077	32.2266	61.7149	32.2266	60.0689	32.2266	62.0132	32.2266	59.9617	32.2266	62.2871	32.2266	59.8825	32.2266	62.5199	32.2266	59.8277	32.2266	62.697	32.2266	59.7952	32.2266	62.8075	32.2266	59.7839	32.2266	62.845	32.2266	59.7943	32.2266	62.8082	32.2266	59.828	32.2266	62.7011	32.2266	59.8877	32.2266	62.5316	32.2266	59.9767	32.2266	62.3112	32.2266	60.0977	32.2266	62.0532	32.2266	60.2529	32.2266	61.7717	32.2266	60.4428	32.2266	61.4806	32.2266	60.6658	32.2266	61.1923	32.2266	60.9177
33.6914	63.1762	33.6914	62.9266	33.6914	63.4457	33.6914	62.7038	33.6914	63.7255	33.6914	62.5115	33.6914	64.0031	33.6914	62.3507	33.6914	64.2644	33.6914	62.2207	33.6914	64.4951	33.6914	62.1197	33.6914	64.6815	33.6914	62.0457	33.6914	64.8123	33.6914	61.9968	33.6914	64.8795	33.6914	61.972	33.6914	64.8791	33.6914	61.9711	33.6914	64.8117	33.6914	61.9948	33.6914	64.6823	33.6914	62.0445	33.6914	64.4994	33.6914	62.1221	33.6914	64.2746	33.6914	62.2293	33.6914	64.021	33.6914	62.3676	33.6914	63.7516	33.6914	62.537	33.6914	63.4788	33.6914	62.7366	33.6914	63.2132	33.6914	62.9636
35.1562	65.1977	35.1562	64.9688	35.1562	65.4357	35.1562	64.7558	35.1562	65.6738	35.1562	64.5632	35.1562	65.9013	35.1562	64.3931	35.1562	66.1064	35.1562	64.2464	35.1562	66.2774	35.1562	64.1225	35.1562	66.4035	35.1562	64.0207	35.1562	66.4762	35.1562	63.9402	35.1562	66.4897	35.1562	63.8807	35.1562	66.4418	35.1562	63.8424	35.1562	66.3343	35.1562	63.8264	35.1562	66.1731	35.1562	63.8342	35.1562	65.9674	35.1562	63.868	35.1562	65.7292	35.1562	63.9302	35.1562	65.4719	35.1562	64.0228	35.1562	65.2086	35.1562	64.1474	35.1562	64.9515	35.1562	64.3045	35.1562	64.7105	35.1562	64.4932
36.6211	66.5344	36.6211	66.3319	36.6211	66.7393	36.6211	66.1376	36.6211	66.9391	36.6211	65.9556	36.6211	67.125	36.6211	65.7887	36.6211	67.2879	36.6211	65.6381	36.6211	67.4184	36.6211	65.5046	36.6211	67.508	36.6211	65.3884	36.6211	67.5499	36.6211	65.2897	36.6211	67.5397	36.6211	65.2092	36.6211	67.4757	36.6211	65.1481	36.6211	67.3596	36.6211	65.108	36.6211	67.1967	36.6211	65.0911	36.6211	66.9952	36.6211	65.1001	36.6211	66.766	36.6211	65.1377	36.6211	66.521	36.6211	65.2065	36.6211	66.2727	36.6211	65.3081	36.6211	66.0323	36.6211	65.4434	36.6211	65.8094	36.6211	65.6114
38.0859	66.5864	38.0859	66.3925	38.0859	66.783	38.0859	66.2061	38.0859	66.9761	38.0859	66.0306	38.0859	67.1579	38.0859	65.8678	38.0859	67.3196	38.0859	65.7186	38.0859	67.4522	38.0859	65.5837	38.0859	67.5467	38.0859	65.4632	38.0859	67.5953	38.0859	65.3577	38.0859	67.5921	38.0859	65.2682	38.0859	67.534	38.0859	65.1965	38.0859	67.4217	38.0859	65.1447	38.0859	67.2593	38.0859	65.1161	38.0859	67.0546	38.0859	65.1141	38.0859	66.8186	38.0859	65.1424	38.0859	66.564	38.0859	65.2045	38.0859	66.3041	38.0859	65.3029	38.0859	66.0517	38.0859	65.439	38.0859	65.818	38.0859	65.6118
39.5508	67.3259	39.5508	67.1415	39.5508	67.5216	39.5508	66.9722	39.5508	67.7229	39.5508	66.8205	39.5508	67.9223	39.5508	66.6873	39.5508	68.111	39.5508	66.5732	39.5508	68.2792	39.5508	66.478	39.5508	68.4168	39.5508	66.4017	39.5508	68.5148	39.5508	66.3443	39.5508	68.566	39.5508	66.3063	39.5508	68.5664	39.5508	66.2889	39.5508	68.5152	39.5508	66.2933	39.5508	68.4153	39.5508	66.3212	39.5508	68.2729	39.5508	66.3746	39.5508	68.0963	39.5508	66.4547	39.5508	67.8953	39.5508	66.5626	39.5508	67.6803	39.5508	66.6979	39.5508	67.4609	39.5508	66.8592	39.5508	67.246	39.5508	67.0434
41.0156	68.5989	41.0156	68.4093	41.0156	68.8005	41.0156	68.2365	41.0156	69.0079	41.0156	68.0832	41.0156	69.213	41.0156	67.9511	41.0156	69.4062	41.0156	67.8408	41.0156	69.5774	41.0156	67.7524	41.0156	69.7167	41.0156	67.6858	41.0156	69.8154	41.0156	67.6407	41.0156	69.8671	41.0156	67.6173	41.0156	69.8686	41.0156	67.616	41.0156	69.8202	41.0156	67.6372	41.0156	69.7255	41.0156	67.6816	41.0156	69.591	41.0156	67.75	41.0156	69.4252	41.0156	67.8425	41.0156	69.2374	41.0156	67.9589	41.0156	69.0368	41.0156	68.0982	41.0156	68.8318	41.0156	68.2586	41.0156	68.6299	41.0156	68.4371
42.4805	70.2804	42.4805	70.1071	42.4805	70.4615	42.4805	69.946	42.4805	70.6443	42.4805	69.8003	42.4805	70.8216	42.4805	69.6721	42.4805	70.9851	42.4805	69.5625	42.4805	71.126	42.4805	69.4722	42.4805	71.2359	42.4805	69.4014	42.4805	71.3078	42.4805	69.3504	42.4805	71.3368	42.4805	69.3194	42.4805	71.3209	42.4805	69.3087	42.4805	71.2612	42.4805	69.3189	42.4805	71.162	42.4805	69.3504	42.4805	71.0297	42.4805	69.4036	42.4805	70.8724	42.4805	69.4788	42.4805	70.6985	42.4805	69.5758	42.4805	70.5162	42.4805	69.6937	42.4805	70.3327	42.4805	69.8311	42.4805	70.1542	42.4805	69.9856
43.9453	71.247	43.9453	71.0767	43.9453	71.4233	43.9453	70.9169	43.9453	71.5993	43.9453	70.7712	43.9453	71.7679	43.9453	70.6419	43.9453	71.9212	43.9453	70.5305	43.9453	72.0507	43.9453	70.4379	43.9453	72.1488	43.9453	70.3645	43.9453	72.2092	43.9453	70.3105	43.9453	72.2275	43.9453	70.2762	43.9453	72.2023	43.9453	70.2617	43.9453	72.1352	43.9453	70.2673	43.9453	72.0308	43.9453	70.2935	43.9453	71.8957	43.9453	70.3405	43.9453	71.738	43.9453	70.4085	43.9453	71.5661	43.9453	70.4974	43.9453	71.388	43.9453	70.6064	43.9453	71.2106	43.9453	70.7346	43.9453	71.0397	43.9453	70.8799
45.4102	72.1924	45.4102	72.0236	45.4102	72.3644	45.4102	71.8628	45.4102	72.5336	45.4102	71.7137	45.4102	72.693	45.4102	71.5789	45.4102	72.835	45.4102	71.4602	45.4102	72.952	45.4102	71.3589	45.4102	73.037	45.4102	71.2759	45.4102	73.0842	45.4102	71.2117	45.4102	73.09	45.4102	71.1668	45.4102	73.0534	45.4102	71.1417	45.4102	72.9764	45.4102	71.1369	45.4102	72.8636	45.4102	71.153	45.4102	72.7216	45.4102	71.1906	45.4102	72.5585	45.4102	71.2498	45.4102	72.3827	45.4102	71.3308	45.4102	72.2023	45.4102	71.433	45.4102	72.0242	45.4102	71.5556	45.4102	71.8542	45.4102	71.6968
46.875	72.9894	46.875	72.8184	46.875	73.162	46.875	72.654	46.875	73.33	46.875	72.5001	46.875	73.4865	46.875	72.3599	46.875	73.6244	46.875	72.2356	46.875	73.7363	46.875	72.1287	46.875	73.8159	46.875	72.0405	46.875	73.8581	46.875	71.9717	46.875	73.8599	46.875	71.923	46.875	73.8205	46.875	71.8952	46.875	73.7419	46.875	71.8888	46.875	73.6285	46.875	71.9042	46.875	73.4867	46.875	71.942	46.875	73.324	46.875	72.0024	46.875	73.1485	46.875	72.0851	46.875	72.9679	46.875	72.1896	46.875	72.7889	46.875	72.3146	46.875	72.6174	46.875	72.4581
48.3398	73.7307	48.3398	73.5623	48.3398	73.8993	48.3398	73.3994	48.3398	74.0623	48.3398	73.2462	48.3398	74.2128	48.3398	73.1059	48.3398	74.3441	48.3398	72.981	48.3398	74.4494	48.3398	72.8733	48.3398	74.5228	48.3398	72.784	48.3398	74.5597	48.3398	72.7142	48.3398	74.5577	48.3398	72.6646	48.3398	74.5162	48.3398	72.6358	48.3398	74.4373	48.3398	72.6284	48.3398	74.3253	48.3398	72.6428	48.3398	74.1863	48.3398	72.6793	48.3398	74.0274	48.3398	72.7381	48.3398	73.8563	48.3398	72.8189	48.3398	73.6802	48.3398	72.9209	48.3398	73.5058	48.3398	73.0429	48.3398	73.3385	48.3398	73.183
51.2695	74.8494	51.2695	74.6959	51.2695	75.0011	51.2695	74.5456	51.2695	75.1458	51.2695	74.4025	51.2695	75.2777	51.2695	74.27	51.2695	75.3912	51.2695	74.1508	51.2695	75.4806	51.2695	74.0472	51.2695	75.5412	51.2695	73.9607	51.2695	75.5694	51.2695	73.8928	51.2695	75.563	51.2695	73.8442	51.2695	75.522	51.2695	73.8157	51.2695	75.4482	51.2695	73.8076	51.2695	75.3453	51.2695	73.8202	51.2695	75.2188	51.2695	73.8535	51.2695	75.0749	51.2695	73.9073	51.2695	74.9203	51.2695	73.9811	51.2695	74.7613	51.2695	74.074	51.2695	74.6038	51.2695	74.1849	51.2695	74.4526	51.2695	74.312
52.7344	75.2197	52.7344	75.0711	52.7344	75.3671	52.7344	74.9259	52.7344	75.5084	52.7344	74.7878	52.7344	75.6383	52.7344	74.6601	52.7344	75.7512	52.7344	74.5455	52.7344	75.8419	52.7344	74.4461	52.7344	75.9054	52.7344	74.3634	52.7344	75.9381	52.7344	74.299	52.7344	75.9376	52.7344	74.2535	52.7344	75.9033	52.7344	74.2278	52.7344	75.8366	52.7344	74.2222	52.7344	75.7409	52.7344	74.237	52.7344	75.6211	52.7344	74.2721	52.7344	75.4832	52.7344	74.3273	52.7344	75.3334	52.7344	74.4022	52.7344	75.1781	52.7344	74.4959	52.7344	75.0232	52.7344	74.607	52.7344	74.8737	52.7344	74.7338
54.1992	75.6814	54.1992	75.5374	54.1992	75.8258	54.1992	75.3981	54.1992	75.966	54.1992	75.2669	54.1992	76.0968	54.1992	75.1468	54.1992	76.2128	54.1992	75.0403	54.1992	76.3086	54.1992	74.9493	54.1992	76.3794	54.1992	74.8753	54.1992	76.4209	54.1992	74.8193	54.1992	76.4304	54.1992	74.7821	54.1992	76.4071	54.1992	74.7642	54.1992	76.3518	54.1992	74.7659	54.1992	76.2674	54.1992	74.7872	54.1992	76.1584	54.1992	74.8281	54.1992	76.0301	54.1992	74.8883	54.1992	75.8885	54.1992	74.9671	54.1992	75.7397	54.1992	75.0637	54.1992	75.5893	54.1992	75.1766	54.1992	75.4426	54.1992	75.3038
55.6641	76.2103	55.6641	76.0704	55.6641	76.3517	55.6641	75.936	55.6641	76.4899	55.6641	75.8102	55.6641	76.6202	55.6641	75.6959	55.6641	76.737	55.6641	75.5954	55.6641	76.835	55.6641	75.5104	55.6641	76.909	55.6641	75.4423	55.6641	76.955	55.6641	75.3919	55.6641	76.97	55.6641	75.3601	55.6641	76.9529	55.6641	75.3473	55.6641	76.9046	55.6641	75.3535	55.6641	76.8277	55.6641	75.3789	55.6641	76.7263	55.6641	75.4233	55.6641	76.6056	55.6641	75.4862	55.6641	76.4712	55.6641	75.5671	55.6641	76.3286	55.6641	75.6648	55.6641	76.1833	55.6641	75.7777	55.6641	76.0403	55.6641	75.9039
58.5938	77.3534	58.5938	77.2201	58.5938	77.4868	58.5938	77.0908	58.5938	77.616	58.5938	76.9688	58.5938	77.7362	58.5938	76.8567	58.5938	77.8423	58.5938	76.7569	58.5938	77.9292	58.5938	76.6712	58.5938	77.9924	58.5938	76.6009	58.5938	78.0283	58.5938	76.5472	58.5938	78.0347	58.5938	76.5109	58.5938	78.011	58.5938	76.4924	58.5938	77.9585	58.5938	76.4923	58.5938	77.8799	58.5938	76.5106	58.5938	77.7793	58.5938	76.5475	58.5938	77.6615	58.5938	76.6027	58.5938	77.5315	58.5938	76.6757	58.5938	77.3945	58.5938	76.7657	58.5938	77.2555	58.5938	76.8712	58.5938	77.1193	58.5938	76.99
60.0586	77.8166	60.0586	77.682	60.0586	77.9494	60.0586	77.5499	60.0586	78.0758	60.0586	77.4239	60.0586	78.1909	60.0586	77.307	60.0586	78.2898	60.0586	77.2019	60.0586	78.3676	60.0586	77.1106	60.0586	78.4203	60.0586	77.0349	60.0586	78.445	60.0586	76.976	60.0586	78.4402	60.0586	76.9348	60.0586	78.4064	60.0586	76.9119	60.0586	78.3453	60.0586	76.9076	60.0586	78.2603	60.0586	76.9221	60.0586	78.1557	60.0586	76.9554	60.0586	78.0361	60.0586	77.0071	60.0586	77.9065	60.0586	77.0765	60.0586	77.7717	60.0586	77.1627	60.0586	77.6361	60.0586	77.2642	60.0586	77.5038	60.0586	77.3788
62.9883	78.6454	62.9883	78.5073	62.9883	78.7782	62.9883	78.3686	62.9883	78.9008	62.9883	78.2336	62.9883	79.0083	62.9883	78.1062	62.9883	79.096	62.9883	77.9896	62.9883	79.16	62.9883	77.8865	62.9883	79.1971	62.9883	77.7992	62.9883	79.2055	62.9883	77.7295	62.9883	79.185	62.9883	77.6783	62.9883	79.1366	62.9883	77.6467	62.9883	79.0629	62.9883	77.6349	62.9883	78.9677	62.9883	77.643	62.9883	78.8552	62.9883	77.6708	62.9883	78.7303	62.9883	77.7177	62.9883	78.5976	62.9883	77.7829	62.9883	78.4618	62.9883	77.8652	62.9883	78.3268	62.9883	77.9629	62.9883	78.1965	62.9883	78.0742
64.4531	78.8699	64.4531	78.7329	64.4531	79.0015	64.4531	78.5951	64.4531	79.1226	64.4531	78.461	64.4531	79.2285	64.4531	78.3346	64.4531	79.3148	64.4531	78.2193	64.4531	79.3777	64.4531	78.118	64.4531	79.4144	64.4531	78.033	64.4531	79.4234	64.4531	77.966	64.4531	79.4046	64.4531	77.9183	64.4531	79.3592	64.4531	77.8906	64.4531	79.2896	64.4531	77.883	64.4531	79.1994	64.4531	77.8954	64.4531	79.0926	64.4531	77.9274	64.4531	78.9737	64.4531	77.978	64.4531	78.847	64.4531	78.0461	64.4531	78.7166	64.4531	78.1303	64.4531	78.5862	64.4531	78.2287	64.4531	78.4594	64.4531	78.3393
67.3828	79.3375	67.3828	79.206	67.3828	79.4633	67.3828	79.0733	67.3828	79.5789	67.3828	78.9438	67.3828	79.6797	67.3828	78.8213	67.3828	79.7617	67.3828	78.7094	67.3828	79.8216	67.3828	78.6111	67.3828	79.8567	67.3828	78.5286	67.3828	79.8658	67.3828	78.4639	67.3828	79.8486	67.3828	78.4182	67.3828	79.8063	67.3828	78.3922	67.3828	79.7412	67.3828	78.3861	67.3828	79.6564	67.3828	78.3998	67.3828	79.5557	67.3828	78.4325	67.3828	79.4432	67.3828	78.4832	67.3828	79.323	67.3828	78.5508	67.3828	79.1988	67.3828	78.6336	67.3828	79.0742	67.3828	78.7296	67.3828	78.9525	67.3828	78.8367
68.8477	79.492	68.8477	79.3642	68.8477	79.6143	68.8477	79.2355	68.8477	79.7266	68.8477	79.1098	68.8477	79.8248	68.8477	78.9912	68.8477	79.9048	68.8477	78.8831	68.8477	79.9634	68.8477	78.7884	68.8477	79.9982	68.8477	78.7094	68.8477	80.0079	68.8477	78.648	68.8477	79.9923	68.8477	78.6053	68.8477	79.9526	68.8477	78.582	68.8477	79.891	68.8477	78.5782	68.8477	79.8106	68.8477	78.5937	68.8477	79.7149	68.8477	78.6276	68.8477	79.6078	68.8477	78.6788	68.8477	79.493	68.8477	78.746	68.8477	79.3742	68.8477	78.8276	68.8477	79.2547	68.8477	78.9214	68.8477	79.1375	68.8477	79.0256
71.7773	80.096	71.7773	79.9711	71.7773	80.2148	71.7773	79.8443	71.7773	80.323	71.7773	79.7198	71.7773	80.4166	71.7773	79.6018	71.7773	80.492	71.7773	79.4936	71.7773	80.5461	71.7773	79.3985	71.7773	80.577	71.7773	79.319	71.7773	80.5835	71.7773	79.2571	71.7773	80.5659	71.7773	79.214	71.7773	80.5254	71.7773	79.1906	71.7773	80.4643	71.7773	79.1868	71.7773	80.3857	71.7773	79.2024	71.7773	80.2928	71.7773	79.2365	71.7773	80.1895	71.7773	79.2876	71.7773	80.079	71.7773	79.3543	71.7773	79.9648	71.7773	79.4346	71.7773	79.8497	71.7773	79.5266	71.7773	79.7365	71.7773	79.628
74.707	80.8041	74.707	80.6828	74.707	80.9188	74.707	80.5588	74.707	81.0227	74.707	80.4364	74.707	81.1121	74.707	80.3193	74.707	81.1835	74.707	80.211	74.707	81.2343	74.707	80.1147	74.707	81.2624	74.707	80.033	74.707	81.267	74.707	79.968	74.707	81.2482	74.707	79.9213	74.707	81.2071	74.707	79.8936	74.707	81.1457	74.707	79.8854	74.707	81.067	74.707	79.8966	74.707	80.9741	74.707	79.9264	74.707	80.8705	74.707	79.9737	74.707	80.7595	74.707	80.0373	74.707	80.6445	74.707	80.1153	74.707	80.5286	74.707	80.2058	74.707	80.415	74.707	80.3065
77.6367	81.1383	77.6367	81.02	77.6367	81.2497	77.6367	80.8987	77.6367	81.3502	77.6367	80.7787	77.6367	81.4362	77.6367	80.6636	77.6367	81.5046	77.6367	80.557	77.6367	81.5528	77.6367	80.4621	77.6367	81.5791	77.6367	80.3816	77.6367	81.5829	77.6367	80.3174	77.6367	81.5643	77.6367	80.2713	77.6367	81.5247	77.6367	80.2441	77.6367	81.4659	77.6367	80.2362	77.6367	81.3908	77.6367	80.2475	77.6367	81.302	77.6367	80.2773	77.6367	81.2028	77.6367	80.3245	77.6367	81.0961	77.6367	80.3879	77.6367	80.9849	77.6367	80.4654	77.6367	80.8723	77.6367	80.5551	77.6367	80.7613	77.6367	80.6546
79.1016	81.3144	79.1016	81.1979	79.1016	81.4239	79.1016	81.0782	79.1016	81.5224	79.1016	80.9594	79.1016	81.6064	79.1016	80.8454	79.1016	81.6729	79.1016	80.7395	79.1016	81.7194	79.1016	80.6452	79.1016	81.7444	79.1016	80.5648	79.1016	81.7471	79.1016	80.5007	79.1016	81.728	79.1016	80.4544	79.1016	81.6883	79.1016	80.4267	79.1016	81.63	79.1016	80.4182	79.1016	81.5555	79.1016	80.4287	79.1016	81.4678	79.1016	80.4576	79.1016	81.3699	79.1016	80.5039	79.1016	81.2645	79.1016	80.566	79.1016	81.1548	79.1016	80.6423	79.1016	81.0436	79.1016	80.7306	79.1016	80.934	79.1016	80.8287
82.0312	82.0235	82.0312	81.9099	82.0312	82.1294	82.0312	81.7925	82.0312	82.2241	82.0312	81.6754	82.0312	82.3041	82.0312	81.5624	82.0312	82.3667	82.0312	81.457	82.0312	82.4095	82.0312	81.3625	82.0312	82.4314	82.0312	81.2816	82.0312	82.4318	82.0312	81.2166	82.0312	82.4112	82.0312	81.1692	82.0312	82.3711	82.0312	81.1403	82.0312	82.3134	82.0312	81.1304	82.0312	82.2405	82.0312	81.1396	82.0312	82.155	82.0312	81.1671	82.0312	82.0597	82.0312	81.2119	82.0312	81.9572	82.0312	81.2727	82.0312	81.8503	82.0312	81.3475	82.0312	81.7416	82.0312	81.4344	82.0312	81.6342	82.0312	81.5308
84.9609	82.6228	84.9609	82.509	84.9609	82.7277	84.9609	82.3903	84.9609	82.82	84.9609	82.2709	84.9609	82.8963	84.9609	82.1548	84.9609	82.9539	84.9609	82.0458	84.9609	82.9909	84.9609	81.9473	84.9609	83.0061	84.9609	81.8625	84.9609	82.9994	84.9609	81.7937	84.9609	82.9718	84.9609	81.7427	84.9609	82.9248	84.9609	81.7105	84.9609	82.8609	84.9609	81.6976	84.9609	82.7829	84.9609	81.7039	84.9609	82.6935	84.9609	81.7285	84.9609	82.5957	84.9609	81.7704	84.9609	82.4923	84.9609	81.8279	84.9609	82.3859	84.9609	81.8992	84.9609	82.2792	84.9609	81.9823	84.9609	82.1746	84.9609	82.0749
87.8906	82.7619	87.8906	82.65	87.8906	82.8657	87.8906	82.5339	87.8906	82.9576	87.8906	82.4178	87.8906	83.0346	87.8906	82.3059	87.8906	83.0942	87.8906	82.2021	87.8906	83.1347	87.8906	82.1102	87.8906	83.1554	87.8906	82.0331	87.8906	83.1566	87.8906	81.9732	87.8906	83.139	87.8906	81.9322	87.8906	83.1044	87.8906	81.9111	87.8906	83.0546	87.8906	81.9099	87.8906	82.9918	87.8906	81.9281	87.8906	82.9179	87.8906	81.9645	87.8906	82.8347	87.8906	82.0173	87.8906	82.7441	87.8906	82.0846	87.8906	82.648	87.8906	82.1639	87.8906	82.5483	87.8906	82.2526	87.8906	82.4475	87.8906	82.348
90.8203	83.3367	90.8203	83.2235	90.8203	83.4388	90.8203	83.103	90.8203	83.5259	90.8203	82.9798	90.8203	83.5951	90.8203	82.8581	90.8203	83.6442	90.8203	82.7423	90.8203	83.6716	90.8203	82.6364	90.8203	83.6771	90.8203	82.5438	90.8203	83.6614	90.8203	82.4676	90.8203	83.6258	90.8203	82.4099	90.8203	83.5727	90.8203	82.3722	90.8203	83.5048	90.8203	82.3551	90.8203	83.4248	90.8203	82.3586	90.8203	83.3354	90.8203	82.3818	90.8203	83.239	90.8203	82.4233	90.8203	83.1379	90.8203	82.4811	90.8203	83.0342	90.8203	82.5529	90.8203	82.9299	90.8203	82.6363	90.8203	82.8273	90.8203	82.7286
95.2148	83.9397	95.2148	83.8321	95.2148	84.0369	95.2148	83.7183	95.2148	84.1201	95.2148	83.6027	95.2148	84.1865	95.2148	83.4896	95.2148	84.234	95.2148	83.3834	95.2148	84.2617	95.2148	83.2879	95.2148	84.2695	95.2148	83.2064	95.2148	84.2585	95.2148	83.1414	95.2148	84.2305	95.2148	83.0947	95.2148	84.1877	95.2148	83.0673	95.2148	84.1324	95.2148	83.0594	95.2148	84.0667	95.2148	83.0705	95.2148	83.9922	95.2148	83.0995	95.2148	83.9104	95.2148	83.1448	95.2148	83.8227	95.2148	83.2045	95.2148	83.7305	95.2148	83.2764	95.2148	83.6357	95.2148	83.3581	95.2148	83.5403	95.2148	83.4469
98.1445	84.1824	98.1445	84.0758	98.1445	84.2783	98.1445	83.9626	98.1445	84.3598	98.1445	83.8475	98.1445	84.4241	98.1445	83.7351	98.1445	84.4692	98.1445	83.6298	98.1445	84.4944	98.1445	83.5359	98.1445	84.5001	98.1445	83.4568	98.1445	84.4876	98.1445	83.3953	98.1445	84.4592	98.1445	83.3531	98.1445	84.4175	98.1445	83.3312	98.1445	84.3651	98.1445	83.3295	98.1445	84.3042	98.1445	83.3471	98.1445	84.2363	98.1445	83.3824	98.1445	84.1627	98.1445	83.4332	98.1445	84.084	98.1445	83.4969	98.1445	84.001	98.1445	83.5709	98.1445	83.9147	98.1445	83.6523	98.1445	83.8265	98.1445	83.7383
101.074	84.4793	101.074	84.3739	101.074	84.5725	101.074	84.2603	101.074	84.65	101.074	84.1432	101.074	84.7095	101.074	84.0271	101.074	84.7494	101.074	83.9169	101.074	84.7695	101.074	83.817	101.074	84.7706	101.074	83.7313	101.074	84.7546	101.074	83.6633	101.074	84.724	101.074	83.6153	101.074	84.6815	101.074	83.5887	101.074	84.6297	101.074	83.584	101.074	84.5704	101.074	83.6003	101.074	84.5048	101.074	83.6362	101.074	84.4336	101.074	83.6892	101.074	84.3569	101.074	83.7563	101.074	84.2751	101.074	83.8342	101.074	84.1889	101.074	83.9195	101.074	84.0995	101.074	84.0089
105.469	85.1413	105.469	85.0465	105.469	85.2228	105.469	84.9421	105.469	85.2875	105.469	84.8329	105.469	85.3334	105.469	84.7236	105.469	85.3596	105.469	84.6189	105.469	85.3663	105.469	84.5232	105.469	85.3553	105.469	84.4404	105.469	85.3293	105.469	84.3735	105.469	85.2917	105.469	84.3249	105.469	85.2458	105.469	84.2959	105.469	85.1945	105.469	84.287	105.469	85.1399	105.469	84.2976	105.469	85.0824	105.469	84.3266	105.469	85.0219	105.469	84.3718	105.469	84.9575	105.469	84.4306	105.469	84.8883	105.469	84.4999	105.469	84.8143	105.469	84.5761	105.469	84.7363	105.469	84.656
108.398	85.3737	108.398	85.2781	108.398	85.4551	108.398	85.1726	108.398	85.519	108.398	85.0618	108.398	85.5629	108.398	84.9508	108.398	85.5856	108.398	84.8443	108.398	85.5874	108.398	84.747	108.398	85.5699	108.398	84.6627	108.398	85.5359	108.398	84.5947	108.398	85.4892	108.398	84.5451	108.398	85.4338	108.398	84.5152	108.398	85.3734	108.398	84.5051	108.398	85.3108	108.398	84.514	108.398	85.2476	108.398	84.5404	108.398	85.184	108.398	84.5821	108.398	85.1195	108.398	84.636	108.398	85.0532	108.398	84.6992	108.398	84.9844	108.398	84.7684	108.398	84.9132	108.398	84.8406
112.793	85.8805	112.793	85.7846	112.793	85.9612	112.793	85.6779	112.793	86.0235	112.793	85.5651	112.793	86.065	112.793	85.4515	112.793	86.0847	112.793	85.342	112.793	86.083	112.793	85.2413	112.793	86.0617	112.793	85.1536	112.793	86.024	112.793	85.0822	112.793	85.9737	112.793	85.0294	112.793	85.9149	112.793	84.9966	112.793	85.8514	112.793	84.9839	112.793	85.7859	112.793	84.9907	112.793	85.72	112.793	85.0152	112.793	85.6541	112.793	85.055	112.793	85.5877	112.793	85.1073	112.793	85.52	112.793	85.1689	112.793	85.4507	112.793	85.2367	112.793	85.3796	112.793	85.3077
117.188	86.2549	117.188	86.1573	117.188	86.3345	117.188	86.0461	117.188	86.3926	117.188	85.9265	117.188	86.427	117.188	85.804	117.188	86.4368	117.188	85.6842	117.188	86.423	117.188	85.5726	117.188	86.3882	117.188	85.474	117.188	86.3364	117.188	85.3926	117.188	86.2727	117.188	85.3313	117.188	86.2023	117.188	85.2919	117.188	86.13	117.188	85.2751	117.188	86.0594	117.188	85.2801	117.188	85.992	117.188	85.3048	117.188	85.928	117.188	85.3463	117.188	85.8658	117.188	85.4009	117.188	85.8037	117.188	85.4646	117.188	85.7398	117.188	85.5334	117.188	85.673	117.188	85.6038
120.117	86.4544	120.117	86.3582	120.117	86.5316	120.117	86.2472	120.117	86.5865	120.117	86.1264	120.117	86.6166	120.117	86.001	120.117	86.621	120.117	85.8763	120.117	86.6004	120.117	85.7575	120.117	86.5568	120.117	85.6492	120.117	86.4938	120.117	85.5557	120.117	86.4162	120.117	85.4803	120.117	86.3293	120.117	85.4253	120.117	86.2385	120.117	85.3918	120.117	86.1483	120.117	85.38	120.117	86.0619	120.117	85.3885	120.117	85.9808	120.117	85.4149	120.117	85.9051	120.117	85.456	120.117	85.8337	120.117	85.5083	120.117	85.765	120.117	85.5679	120.117	85.6978	120.117	85.6318
124.512	86.927	124.512	86.8375	124.512	87.0019	124.512	86.7372	124.512	87.0592	124.512	86.6303	124.512	87.0971	124.512	86.5213	124.512	87.1146	124.512	86.4147	124.512	87.1123	124.512	86.3147	124.512	87.0915	124.512	86.2249	124.512	87.0544	124.512	86.1482	124.512	87.0036	124.512	86.0868	124.512	86.9419	124.512	86.042	124.512	86.8717	124.512	86.0143	124.512	86.7953	124.512	86.0038	124.512	86.7146	124.512	86.0096	124.512	86.6313	124.512	86.0306	124.512	86.5472	124.512	86.0653	124.512	86.4639	124.512	86.112	124.512	86.3829	124.512	86.1687	124.512	86.3057	124.512	86.2338
128.906	87.1374	128.906	87.0507	128.906	87.2086	128.906	86.9524	128.906	87.2612	128.906	86.8474	128.906	87.2935	128.906	86.7409	128.906	87.3053	128.906	86.6381	128.906	87.2978	128.906	86.5438	128.906	87.2739	128.906	86.4624	128.906	87.237	128.906	86.3971	128.906	87.1914	128.906	86.3502	128.906	87.1409	128.906	86.3227	128.906	87.0885	128.906	86.3145	128.906	87.0358	128.906	86.3247	128.906	86.9833	128.906	86.3511	128.906	86.9302	128.906	86.3912	128.906	86.8756	128.906	86.4422	128.906	86.8184	128.906	86.5008	128.906	86.7581	128.906	86.5643	128.906	86.6948	128.906	86.6297
133.301	87.4149	133.301	87.3254	133.301	87.4874	133.301	87.2231	133.301	87.5401	133.301	87.1129	133.301	87.5712	133.301	87.0001	133.301	87.5807	133.301	86.8902	133.301	87.5701	133.301	86.7886	133.301	87.542	133.301	86.6999	133.301	87.5004	133.301	86.6279	133.301	87.4496	133.301	86.5753	133.301	87.3937	133.301	86.5436	133.301	87.336	133.301	86.533	133.301	87.2786	133.301	86.5423	133.301	87.2222	133.301	86.5695	133.301	87.1663	133.301	86.6116	133.301	87.1099	133.301	86.6653	133.301	87.0517	133.301	86.7269	133.301	86.9907	133.301	86.7929	133.301	86.9267	133.301	86.8603
139.16	87.7072	139.16	87.6227	139.16	87.7737	139.16	87.5241	139.16	87.8195	139.16	87.4162	139.16	87.8432	139.16	87.3043	139.16	87.845	139.16	87.1939	139.16	87.8268	139.16	87.0903	139.16	87.7919	139.16	86.9981	139.16	87.7445	139.16	86.9214	139.16	87.6893	139.16	86.8631	139.16	87.6307	139.16	86.8251	139.16	87.5722	139.16	86.8079	139.16	87.5155	139.16	86.8112	139.16	87.461	139.16	86.8331	139.16	87.4079	139.16	86.871	139.16	87.3544	139.16	86.9217	139.16	87.299	139.16	86.9813	139.16	87.2402	139.16	87.0461	139.16	87.1778	139.16	87.1125
143.555	87.9001	143.555	87.8152	143.555	87.9665	143.555	87.7159	143.555	88.0117	143.555	87.6071	143.555	88.0344	143.555	87.4943	143.555	88.0349	143.555	87.3832	143.555	88.0152	143.555	87.2794	143.555	87.9788	143.555	87.1877	143.555	87.9301	143.555	87.1122	143.555	87.874	143.555	87.0558	143.555	87.815	143.555	87.0201	143.555	87.7566	143.555	87.0056	143.555	87.7005	143.555	87.0113	143.555	87.6471	143.555	87.0352	143.555	87.5955	143.555	87.0744	143.555	87.544	143.555	87.1255	143.555	87.4908	143.555	87.1845	143.555	87.4347	143.555	87.2479	143.555	87.375	143.555	87.3122
147.949	87.9937	147.949	87.906	147.949	88.0615	147.949	87.8028	147.949	88.1066	147.949	87.6892	147.949	88.128	147.949	87.5712	147.949	88.1263	147.949	87.455	147.949	88.104	147.949	87.3463	147.949	88.0654	147.949	87.2504	147.949	88.0154	147.949	87.1715	147.949	87.9595	147.949	87.1128	147.949	87.9021	147.949	87.0759	147.949	87.8463	147.949	87.0613	147.949	87.7934	147.949	87.068	147.949	87.7429	147.949	87.0942	147.949	87.6931	147.949	87.1368	147.949	87.6419	147.949	87.1922	147.949	87.5872	147.949	87.2565	147.949	87.5279	147.949	87.3255	147.949	87.4637	147.949	87.3956
153.809	88.0406	153.809	87.953	153.809	88.107	153.809	87.8489	153.809	88.149	153.809	87.7343	153.809	88.1653	153.809	87.6159	153.809	88.1568	153.809	87.5006	153.809	88.1266	153.809	87.3949	153.809	88.0797	153.809	87.3043	153.809	88.0223	153.809	87.2332	153.809	87.9612	153.809	87.1842	153.809	87.9021	153.809	87.1584	153.809	87.8491	153.809	87.1553	153.809	87.8038	153.809	87.1732	153.809	87.7655	153.809	87.209	153.809	87.7314	153.809	87.2589	153.809	87.698	153.809	87.3187	153.809	87.6616	153.809	87.3837	153.809	87.6193	153.809	87.4496	153.809	87.5696	153.809	87.5125
159.668	88.2676	159.668	88.1751	159.668	88.3365	159.668	88.0641	159.668	88.379	159.668	87.9405	159.668	88.3936	159.668	87.8112	159.668	88.3815	159.668	87.6834	159.668	88.346	159.668	87.5643	159.668	88.2925	159.668	87.4601	159.668	88.2278	159.668	87.3764	159.668	88.1591	159.668	87.3169	159.668	88.0931	159.668	87.2836	159.668	88.0344	159.668	87.2769	159.668	87.9849	159.668	87.2949	159.668	87.9438	159.668	87.3344	159.668	87.9083	159.668	87.3908	159.668	87.8741	159.668	87.4589	159.668	87.8366	159.668	87.5327	159.668	87.7924	159.668	87.607	159.668	87.7393	159.668	87.6769
165.527	88.2923	165.527	88.2025	165.527	88.3578	165.527	88.0934	165.527	88.3958	165.527	87.9713	165.527	88.4053	165.527	87.8434	165.527	88.3877	165.527	87.7171	165.527	88.3467	165.527	87.5995	165.527	88.2883	165.527	87.4968	165.527	88.2196	165.527	87.414	165.527	88.1479	165.527	87.3546	165.527	88.0798	165.527	87.3201	165.527	88.0196	165.527	87.3107	165.527	87.969	165.527	87.3246	165.527	87.9271	165.527	87.3587	165.527	87.8911	165.527	87.4089	165.527	87.8568	165.527	87.4703	165.527	87.8203	165.527	87.5375	165.527	87.7781	165.527	87.6056	165.527	87.7282	165.527	87.6702
171.387	88.3089	171.387	88.2193	171.387	88.3728	171.387	88.1091	171.387	88.4081	171.387	87.9845	171.387	88.4137	171.387	87.853	171.387	88.3915	171.387	87.7221	171.387	88.3453	171.387	87.5993	171.387	88.2812	171.387	87.491	171.387	88.2066	171.387	87.4027	171.387	88.129	171.387	87.338	171.387	88.0549	171.387	87.2987	171.387	87.9887	171.387	87.2849	171.387	87.9324	171.387	87.2948	171.387	87.8853	171.387	87.3253	171.387	87.8447	171.387	87.3721	171.387	87.8071	171.387	87.4301	171.387	87.7687	171.387	87.4941	171.387	87.7261	171.387	87.5592	171.387	87.6771	171.387	87.6211
177.246	88.1897	177.246	88.0965	177.246	88.2565	177.246	87.9821	177.246	88.2938	177.246	87.8532	177.246	88.3009	177.246	87.7177	177.246	88.28	177.246	87.5837	177.246	88.2356	177.246	87.4592	177.246	88.1746	177.246	87.3514	177.246	88.1049	177.246	87.2659	177.246	88.0345	177.246	87.2065	177.246	87.9699	177.246	87.1749	177.246	87.9151	177.246	87.1706	177.246	87.8709	177.246	87.1916	177.246	87.8353	177.246	87.234	177.246	87.8045	177.246	87.2929	177.246	87.774	177.246	87.3628	177.246	87.7393	177.246	87.438	177.246	87.697	177.246	87.513	177.246	87.6449	177.246	87.5831
183.105	88.1433	183.105	88.0501	183.105	88.2074	183.105	87.9328	183.105	88.2397	183.105	87.7985	183.105	88.2402	183.105	87.6555	183.105	88.2119	183.105	87.513	183.105	88.1605	183.105	87.38	183.105	88.0941	183.105	87.265	183.105	88.0217	183.105	87.1749	183.105	87.9521	183.105	87.1143	183.105	87.892	183.105	87.0857	183.105	87.8448	183.105	87.0886	183.105	87.8105	183.105	87.1199	183.105	87.7861	183.105	87.1749	183.105	87.7666	183.105	87.2472	183.105	87.7464	183.105	87.3298	183.105	87.7202	183.105	87.4156	183.105	87.6839	183.105	87.4982	183.105	87.6349	183.105	87.5725
188.965	88.0914	188.965	88.0075	188.965	88.1429	188.965	87.896	188.965	88.1596	188.965	87.7636	188.965	88.1417	188.965	87.6181	188.965	88.0928	188.965	87.4682	188.965	88.0194	188.965	87.3228	188.965	87.9307	188.965	87.1905	188.965	87.8374	188.965	87.0787	188.965	87.75	188.965	86.9937	188.965	87.6767	188.965	86.9394	188.965	87.6217	188.965	86.9175	188.965	87.5846	188.965	86.9273	188.965	87.561	188.965	86.9652	188.965	87.5441	188.965	87.0259	188.965	87.5265	188.965	87.1021	188.965	87.5016	188.965	87.1861	188.965	87.4646	188.965	87.2701	188.965	87.4132	188.965	87.3475
196.289	88.0313	196.289	87.9415	196.289	88.0894	196.289	87.8257	196.289	88.1125	196.289	87.6911	196.289	88.0999	196.289	87.546	196.289	88.0543	196.289	87.3989	196.289	87.9813	196.289	87.2581	196.289	87.8893	196.289	87.1308	196.289	87.7885	196.289	87.023	196.289	87.6891	196.289	86.9388	196.289	87.5995	196.289	86.8808	196.289	87.5248	196.289	86.8498	196.289	87.4664	196.289	86.8452	196.289	87.4221	196.289	86.8649	196.289	87.3869	196.289	86.9054	196.289	87.355	196.289	86.9619	196.289	87.3205	196.289	87.0284	196.289	87.2789	196.289	87.0987	196.289	87.2276	196.289	87.1667
203.613	87.8645	203.613	87.7665	203.613	87.9268	203.613	87.6389	203.613	87.9499	203.613	87.4895	203.613	87.9335	203.613	87.3279	203.613	87.8808	203.613	87.1639	203.613	87.7984	203.613	87.0077	203.613	87.6963	203.613	86.8684	203.613	87.5863	203.613	86.7539	203.613	87.4802	203.613	86.6696	203.613	87.3879	203.613	86.6185	203.613	87.3151	203.613	86.6008	203.613	87.2628	203.613	86.6141	203.613	87.2276	203.613	86.654	203.613	87.2035	203.613	86.7145	203.613	87.1828	203.613	86.7884	203.613	87.1586	203.613	86.8684	203.613	87.125	203.613	86.9472	203.613	87.0786	203.613	87.0187
210.938	87.684	210.938	87.5901	210.938	87.7426	210.938	87.4668	210.938	87.7625	210.938	87.3218	210.938	87.7435	210.938	87.1645	210.938	87.6891	210.938	87.0046	210.938	87.6063	210.938	86.852	210.938	87.5052	210.938	86.7155	210.938	87.3977	210.938	86.6027	210.938	87.2954	210.938	86.5192	210.938	87.2075	210.938	86.468	210.938	87.1395	210.938	86.4498	210.938	87.0917	210.938	86.4625	210.938	87.0607	210.938	86.5021	210.938	87.0401	210.938	86.5626	210.938	87.0226	210.938	86.6368	210.938	87.001	210.938	86.717	210.938	86.9698	210.938	86.7958	210.938	86.9253	210.938	86.8667
218.262	87.4833	218.262	87.3886	218.262	87.5409	218.262	87.2629	218.262	87.5579	218.262	87.115	218.262	87.5348	218.262	86.9547	218.262	87.4761	218.262	86.7927	218.262	87.3903	218.262	86.6396	218.262	87.2893	218.262	86.5046	218.262	87.1865	218.262	86.3957	218.262	87.0946	218.262	86.3183	218.262	87.0225	218.262	86.2755	218.262	86.974	218.262	86.2677	218.262	86.9471	218.262	86.2927	218.262	86.9356	218.262	86.346	218.262	86.9313	218.262	86.4209	218.262	86.9256	218.262	86.5095	218.262	86.9113	218.262	86.603	218.262	86.8826	218.262	86.6931	218.262	86.8366	218.262	86.7727
225.586	87.308	225.586	87.2112	225.586	87.3631	225.586	87.0799	225.586	87.3728	225.586	86.9238	225.586	87.3373	225.586	86.7544	225.586	87.2617	225.586	86.5837	225.586	87.1559	225.586	86.4233	225.586	87.0338	225.586	86.2836	225.586	86.9119	225.586	86.1726	225.586	86.8058	225.586	86.0953	225.586	86.7272	225.586	86.0541	225.586	86.6808	225.586	86.0485	225.586	86.6643	225.586	86.0759	225.586	86.6691	225.586	86.1316	225.586	86.6837	225.586	86.2091	225.586	86.6961	225.586	86.3008	225.586	86.6964	225.586	86.3979	225.586	86.6776	225.586	86.4914	225.586	86.6363	225.586	86.573
232.91	87.1178	232.91	87.0137	232.91	87.1748	232.91	86.8702	232.91	87.1806	232.91	86.6975	232.91	87.1354	232.91	86.5077	232.91	87.0438	232.91	86.3143	232.91	86.9163	232.91	86.1308	232.91	86.7678	232.91	85.9699	232.91	86.6168	232.91	85.8421	232.91	86.4821	232.91	85.7545	232.91	86.3785	232.91	85.7103	232.91	86.3141	232.91	85.7085	232.91	86.288	232.91	85.7446	232.91	86.2921	232.91	85.8115	232.91	86.3134	232.91	85.9	232.91	86.338	232.91	86	232.91	86.3532	232.91	86.1012	232.91	86.3499	232.91	86.1938	232.91	86.3224	232.91	86.2695
241.699	86.9154	241.699	86.7901	241.699	86.9923	241.699	86.625	241.699	87.0158	241.699	86.4314	241.699	86.9847	241.699	86.2228	241.699	86.9032	241.699	86.0136	241.699	86.7802	241.699	85.8179	241.699	86.6295	241.699	85.6488	241.699	86.4688	241.699	85.5163	241.699	86.3163	241.699	85.4268	241.699	86.1881	241.699	85.3827	241.699	86.0947	241.699	85.382	241.699	86.0392	241.699	85.4198	241.699	86.0169	241.699	85.4884	241.699	86.018	241.699	85.5787	241.699	86.0292	241.699	85.6803	241.699	86.0375	241.699	85.7828	241.699	86.0316	241.699	85.876	241.699	86.0039	241.699	85.9515
250.488	86.9486	250.488	86.8116	250.488	87.0298	250.488	86.6263	250.488	87.0508	250.488	86.403	250.488	87.0116	250.488	86.1542	250.488	86.9166	250.488	85.8945	250.488	86.7761	250.488	85.6395	250.488	86.6053	250.488	85.4054	250.488	86.4231	250.488	85.2076	250.488	86.2499	250.488	85.0587	250.488	86.103	250.488	84.9676	250.488	85.9935	250.488	84.9373	250.488	85.9236	250.488	84.965	250.488	85.8876	250.488	85.0423	250.488	85.8738	250.488	85.1565	250.488	85.8678	250.488	85.2924	250.488	85.8554	250.488	85.4343	250.488	85.8246	250.488	85.5677	250.488	85.7676	250.488	85.6812
259.277	86.7658	259.277	86.6315	259.277	86.8454	259.277	86.4501	259.277	86.8661	259.277	86.2322	259.277	86.8281	259.277	85.9909	259.277	86.7362	259.277	85.741	259.277	86.6001	259.277	85.4985	259.277	86.4342	259.277	85.2789	259.277	86.256	259.277	85.0967	259.277	86.0837	259.277	84.9626	259.277	85.9337	259.277	84.8835	259.277	85.8171	259.277	84.8605	259.277	85.7385	259.277	84.8901	259.277	85.6954	259.277	84.9639	259.277	85.6792	259.277	85.0703	259.277	85.677	259.277	85.1955	259.277	85.674	259.277	85.325	259.277	85.6567	259.277	85.4448	259.277	85.6148	259.277	85.5437
268.066	86.624	268.066	86.4806	268.066	86.711	268.066	86.2885	268.066	86.737	268.066	86.0575	268.066	86.7011	268.066	85.7992	268.066	86.6078	268.066	85.5269	268.066	86.4673	268.066	85.2549	268.066	86.2955	268.066	84.9989	268.066	86.1121	268.066	84.7745	268.066	85.9372	268.066	84.5963	268.066	85.7868	268.066	84.4757	268.066	85.6695	268.066	84.4191	268.066	85.5859	268.066	84.4268	268.066	85.5301	268.066	84.4925	268.066	85.4921	268.066	84.6041	268.066	85.4601	268.066	84.7457	268.066	85.4222	268.066	84.8997	268.066	85.3678	268.066	85.0495	268.066	85.2888	268.066	85.1819
276.855	86.3702	276.855	86.2503	276.855	86.4369	276.855	86.0841	276.855	86.4475	276.855	85.8815	276.855	86.4041	276.855	85.6547	276.855	86.3138	276.855	85.4169	276.855	86.1885	276.855	85.1818	276.855	86.044	276.855	84.9625	276.855	85.8977	276.855	84.7713	276.855	85.7655	276.855	84.6192	276.855	85.6586	276.855	84.5147	276.855	85.5809	276.855	84.4631	276.855	85.5294	276.855	84.4659	276.855	85.4958	276.855	84.5193	276.855	85.4697	276.855	84.6151	276.855	85.4407	276.855	84.7407	276.855	85.4	276.855	84.8814	276.855	85.3405	276.855	85.0221	276.855	85.2576	276.855	85.1503
287.109	86.2575	287.109	86.1386	287.109	86.3106	287.109	85.9617	287.109	86.2952	287.109	85.7387	287.109	86.2149	287.109	85.4853	287.109	86.0799	287.109	85.2194	287.109	85.9079	287.109	84.9605	287.109	85.7221	287.109	84.7275	287.109	85.5482	287.109	84.5366	287.109	85.4088	287.109	84.3994	287.109	85.3179	287.109	84.3218	287.109	85.278	287.109	84.3043	287.109	85.2807	287.109	84.3425	287.109	85.3104	287.109	84.4288	287.109	85.3484	287.109	84.553	287.109	85.3763	287.109	84.7028	287.109	85.3789	287.109	84.8641	287.109	85.3459	287.109	85.0222	287.109	85.2731	287.109	85.1626
297.363	86.2818	297.363	86.1814	297.363	86.306	297.363	86.0146	297.363	86.2483	297.363	85.7937	297.363	86.1088	297.363	85.533	297.363	85.8961	297.363	85.2485	297.363	85.6293	297.363	84.9576	297.363	85.3389	297.363	84.6795	297.363	85.0642	297.363	84.4335	297.363	84.8456	297.363	84.2386	297.363	84.7129	297.363	84.1106	297.363	84.6749	297.363	84.0591	297.363	84.7177	297.363	84.0854	297.363	84.812	297.363	84.1809	297.363	84.9244	297.363	84.3289	297.363	85.0253	297.363	84.5071	297.363	85.093	297.363	84.6915	297.363	85.1135	297.363	84.8598	297.363	85.0803	297.363	84.9936
307.617	86.0784	307.617	85.9397	307.617	86.1469	307.617	85.7415	307.617	86.1377	307.617	85.4972	307.617	86.0485	307.617	85.2216	307.617	85.883	307.617	84.9309	307.617	85.6529	307.617	84.6417	307.617	85.3786	307.617	84.3699	307.617	85.0882	307.617	84.1308	307.617	84.8147	307.617	83.9373	307.617	84.5896	307.617	83.7996	307.617	84.4361	307.617	83.7245	307.617	84.3627	307.617	83.7145	307.617	84.3618	307.617	83.7671	307.617	84.4115	307.617	83.8735	307.617	84.482	307.617	84.0182	307.617	84.5425	307.617	84.1802	307.617	84.5676	307.617	84.3356	307.617	84.5419	307.617	84.4619
319.336	85.8988	319.336	85.7558	319.336	85.967	319.336	85.5485	319.336	85.9542	319.336	85.2905	319.336	85.8598	319.336	84.9981	319.336	85.6902	319.336	84.6896	319.336	85.4599	319.336	84.3845	319.336	85.1917	319.336	84.1029	319.336	84.9152	319.336	83.8633	319.336	84.6617	319.336	83.6804	319.336	84.4579	319.336	83.5636	319.336	84.3199	319.336	83.5155	319.336	84.2499	319.336	83.5326	319.336	84.2381	319.336	83.6059	319.336	84.2663	319.336	83.7226	319.336	84.3121	319.336	83.8663	319.336	84.3524	319.336	84.0183	319.336	84.3669	319.336	84.159	319.336	84.3415	319.336	84.2708
329.59	85.7767	329.59	85.6381	329.59	85.8342	329.59	85.429	329.59	85.8038	329.59	85.1635	329.59	85.6844	329.59	84.8578	329.59	85.4824	329.59	84.53	329.59	85.2128	329.59	84.1996	329.59	84.9015	329.59	83.8874	329.59	84.5836	329.59	83.6146	329.59	84.2999	329.59	83.4014	329.59	84.0869	329.59	83.2641	329.59	83.9662	329.59	83.2118	329.59	83.9374	329.59	83.2436	329.59	83.9803	329.59	83.3482	329.59	84.0639	329.59	83.5057	329.59	84.1557	329.59	83.6911	329.59	84.2285	329.59	83.8785	329.59	84.262	329.59	84.0443	329.59	84.2439	329.59	84.17
341.309	85.7386	341.309	85.5643	341.309	85.8265	341.309	85.3157	341.309	85.8215	341.309	85.0094	341.309	85.7237	341.309	84.6656	341.309	85.5414	341.309	84.3071	341.309	85.2908	341.309	83.9576	341.309	84.996	341.309	83.6398	341.309	84.6855	341.309	83.3731	341.309	84.3892	341.309	83.1708	341.309	84.1336	341.309	83.0403	341.309	83.9396	341.309	82.9837	341.309	83.8195	341.309	82.9987	341.309	83.7749	341.309	83.0795	341.309	83.7941	341.309	83.2147	341.309	83.8522	341.309	83.3863	341.309	83.9164	341.309	83.5701	341.309	83.954	341.309	83.739	341.309	83.9414	341.309	83.8683
353.027	85.6225	353.027	85.4729	353.027	85.6833	353.027	85.2461	353.027	85.6487	353.027	84.9566	353.027	85.5186	353.027	84.6208	353.027	85.3023	353.027	84.2569	353.027	85.0198	353.027	83.8842	353.027	84.7022	353.027	83.5238	353.027	84.3879	353.027	83.1978	353.027	84.1142	353.027	82.9283	353.027	83.9072	353.027	82.7347	353.027	83.7751	353.027	82.631	353.027	83.7101	353.027	82.6219	353.027	83.6955	353.027	82.7018	353.027	83.7126	353.027	82.8533	353.027	83.7427	353.027	83.0502	353.027	83.7661	353.027	83.2614	353.027	83.7625	353.027	83.4567	353.027	83.7145	353.027	83.6122
366.211	85.6227	366.211	85.4601	366.211	85.6799	366.211	85.2052	366.211	85.6242	366.211	84.8758	366.211	85.4549	366.211	84.4942	366.211	85.1804	366.211	84.0859	366.211	84.8215	366.211	83.6779	366.211	84.4149	366.211	83.2968	366.211	84.0131	366.211	82.9659	366.211	83.6768	366.211	82.703	366.211	83.4564	366.211	82.5198	366.211	83.3707	366.211	82.4221	366.211	83.3995	366.211	82.411	366.211	83.4964	366.211	82.4824	366.211	83.6111	366.211	82.6264	366.211	83.7031	366.211	82.8252	366.211	83.746	366.211	83.0538	366.211	83.7253	366.211	83.2829	366.211	83.6367	366.211	83.4846
379.395	85.6265	379.395	85.4245	379.395	85.732	379.395	85.1427	379.395	85.7278	379.395	84.7994	379.395	85.6059	379.395	84.4147	379.395	85.3662	379.395	84.0101	379.395	85.0204	379.395	83.6087	379.395	84.5946	379.395	83.2353	379.395	84.1317	379.395	82.9141	379.395	83.6898	379.395	82.6661	379.395	83.3332	379.395	82.5062	379.395	83.1149	379.395	82.4416	379.395	83.0565	379.395	82.4714	379.395	83.1387	379.395	82.5879	379.395	83.3104	379.395	82.7755	379.395	83.508	379.395	83.0102	379.395	83.6738	379.395	83.261	379.395	83.7669	379.395	83.4922	379.395	83.7661	379.395	83.6696
392.578	85.3512	392.578	85.1649	392.578	85.4355	392.578	84.8907	392.578	85.4093	392.578	84.5468	392.578	85.2694	392.578	84.156	392.578	85.0202	392.578	83.7437	392.578	84.6756	392.578	83.337	392.578	84.2608	392.578	82.9613	392.578	83.8141	392.578	82.6385	392.578	83.3839	392.578	82.3846	392.578	83.0227	392.578	82.2103	392.578	82.7738	392.578	82.1218	392.578	82.6594	392.578	82.1219	392.578	82.6726	392.578	82.2078	392.578	82.7811	392.578	82.3678	392.578	82.9369	392.578	82.5783	392.578	83.0884	392.578	82.8048	392.578	83.1917	392.578	83.0083	392.578	83.2173	392.578	83.1537
405.762	85.3866	405.762	85.2179	405.762	85.4372	405.762	84.9429	405.762	85.3636	405.762	84.5776	405.762	85.1672	405.762	84.1423	405.762	84.8596	405.762	83.6629	405.762	84.4649	405.762	83.1713	405.762	84.0204	405.762	82.705	405.762	83.5734	405.762	82.3031	405.762	83.1731	405.762	81.9983	405.762	82.859	405.762	81.8088	405.762	82.6525	405.762	81.7349	405.762	82.5558	405.762	81.7634	405.762	82.557	405.762	81.8753	405.762	82.633	405.762	82.0504	405.762	82.7503	405.762	82.2661	405.762	82.8669	405.762	82.4948	405.762	82.9415	405.762	82.7042	405.762	82.9437	405.762	82.8619
420.41	85.4596	420.41	85.2607	420.41	85.555	420.41	84.9736	420.41	85.5348	420.41	84.6157	420.41	85.3923	420.41	84.2052	420.41	85.1281	420.41	83.7607	420.41	84.7531	420.41	83.3015	420.41	84.2911	420.41	82.8488	420.41	83.7811	420.41	82.4263	420.41	83.2764	420.41	82.0611	420.41	82.838	420.41	81.7817	420.41	82.5205	420.41	81.6133	420.41	82.3555	420.41	81.5718	420.41	82.3414	420.41	81.6569	420.41	82.4446	420.41	81.8492	420.41	82.6104	420.41	82.111	420.41	82.7772	420.41	82.3938	420.41	82.8906	420.41	82.6476	420.41	82.9132	420.41	82.8298
435.059	85.2826	435.059	85.0936	435.059	85.3559	435.059	84.7984	435.059	85.3093	435.059	84.4112	435.059	85.1447	435.059	83.9527	435.059	84.8713	435.059	83.4503	435.059	84.5081	435.059	82.9385	435.059	84.0849	435.059	82.4574	435.059	83.641	435.059	82.0482	435.059	83.2204	435.059	81.7467	435.059	82.8657	435.059	81.5762	435.059	82.6118	435.059	81.5425	435.059	82.4821	435.059	81.6351	435.059	82.4829	435.059	81.8304	435.059	82.5965	435.059	82.0966	435.059	82.7794	435.059	82.3967	435.059	82.9712	435.059	82.6902	435.059	83.1131	435.059	82.9371	435.059	83.1628	435.059	83.1024
451.172	85.5687	451.172	85.3296	451.172	85.6759	451.172	84.9774	451.172	85.6355	451.172	84.5328	451.172	85.4376	451.172	84.0172	451.172	85.0814	451.172	83.4528	451.172	84.5805	451.172	82.8623	451.172	83.9683	451.172	82.271	451.172	83.3047	451.172	81.7081	451.172	82.6748	451.172	81.2092	451.172	82.1722	451.172	80.8167	451.172	81.8642	451.172	80.5764	451.172	81.7618	451.172	80.5248	451.172	81.8237	451.172	80.6704	451.172	81.9864	451.172	80.9804	451.172	82.1884	451.172	81.3857	451.172	82.3751	451.172	81.8034	451.172	82.4979	451.172	82.1599	451.172	82.5163	451.172	82.405
465.82	85.349	465.82	85.1337	465.82	85.439	465.82	84.806	465.82	85.394	465.82	84.3814	465.82	85.2103	465.82	83.8775	465.82	84.8924	465.82	83.3148	465.82	84.4551	465.82	82.7183	465.82	83.9251	465.82	82.1193	465.82	83.3406	465.82	81.5548	465.82	82.7509	465.82	81.0647	465.82	82.2144	465.82	80.6863	465.82	81.7939	465.82	80.4492	465.82	81.5429	465.82	80.372	465.82	81.4833	465.82	80.458	465.82	81.5877	465.82	80.6898	465.82	81.7844	465.82	81.0244	465.82	81.9854	465.82	81.3984	465.82	82.1151	465.82	81.7422	465.82	82.1249	465.82	81.9969
483.398	85.1344	483.398	84.9413	483.398	85.2066	483.398	84.6457	483.398	85.142	483.398	84.2659	483.398	84.931	483.398	83.8185	483.398	84.5745	483.398	83.3182	483.398	84.0903	483.398	82.7794	483.398	83.5192	483.398	82.2197	483.398	82.9279	483.398	81.663	483.398	82.398	483.398	81.1427	483.398	81.9968	483.398	80.7001	483.398	81.7463	483.398	80.3804	483.398	81.6245	483.398	80.2235	483.398	81.5985	483.398	80.2519	483.398	81.6484	483.398	80.4575	483.398	81.7571	483.398	80.7945	483.398	81.8873	483.398	81.1883	483.398	81.9792	483.398	81.5566	483.398	81.9723	483.398	81.8308
499.512	85.3301	499.512	85.1067	499.512	85.4353	499.512	84.7835	499.512	85.4066	499.512	84.3805	499.512	85.2313	499.512	83.9179	499.512	84.9012	499.512	83.4144	499.512	84.4151	499.512	82.8859	499.512	83.7855	499.512	82.3473	499.512	83.0511	499.512	81.8154	499.512	82.2942	499.512	81.3144	499.512	81.6478	499.512	80.8794	499.512	81.2586	499.512	80.5573	499.512	81.1982	499.512	80.3983	499.512	81.4062	499.512	80.4376	499.512	81.7431	499.512	80.672	499.512	82.0783	499.512	81.0508	499.512	82.3275	499.512	81.4912	499.512	82.4459	499.512	81.9063	499.512	82.4133	499.512	82.2276
517.09	85.2845	517.09	85.0366	517.09	85.4081	517.09	84.6832	517.09	85.3966	517.09	84.2496	517.09	85.2482	517.09	83.7649	517.09	84.9688	517.09	83.2582	517.09	84.5697	517.09	82.7525	517.09	84.0626	517.09	82.2596	517.09	83.4547	517.09	81.7779	517.09	82.7498	517.09	81.2991	517.09	81.9647	517.09	80.8224	517.09	81.1669	517.09	80.3746	517.09	80.5191	517.09	80.0256	517.09	80.2469	517.09	79.8785	517.09	80.4512	517.09	80.0125	517.09	80.9691	517.09	80.4103	517.09	81.5203	517.09	80.9516	517.09	81.9	517.09	81.4798	517.09	82.0179	517.09	81.864
536.133	84.9907	536.133	84.7305	536.133	85.0872	536.133	84.3305	536.133	85.008	536.133	83.8226	536.133	84.757	536.133	83.2441	536.133	84.3576	536.133	82.6347	536.133	83.8585	536.133	82.0353	536.133	83.3323	536.133	81.4867	536.133	82.8578	536.133	81.0238	536.133	82.4776	536.133	80.6652	536.133	82.1618	536.133	80.4047	536.133	81.8264	536.133	80.216	536.133	81.4044	536.133	80.0741	536.133	80.9204	536.133	79.9809	536.133	80.517	536.133	79.9724	536.133	80.3664	536.133	80.0899	536.133	80.49	536.133	80.3284	536.133	80.7196	536.133	80.61	536.133	80.8607	536.133	80.8184
555.176	85.1601	555.176	84.8603	555.176	85.3082	555.176	84.432	555.176	85.2856	555.176	83.9016	555.176	85.0795	555.176	83.2984	555.176	84.6848	555.176	82.6555	555.176	84.1096	555.176	82.0128	555.176	83.3849	555.176	81.4163	555.176	82.5797	555.176	80.9082	555.176	81.8091	555.176	80.5099	555.176	81.2087	555.176	80.2109	555.176	80.8654	555.176	79.9802	555.176	80.7647	555.176	79.7972	555.176	80.82	555.176	79.6777	555.176	80.9422	555.176	79.6719	555.176	81.0704	555.176	79.8254	555.176	81.1614	555.176	80.1262	555.176	81.1733	555.176	80.4961	555.176	81.0694	555.176	80.8349
574.219	85.4338	574.219	85.091	574.219	85.6311	574.219	84.6267	574.219	85.6626	574.219	84.0677	574.219	85.513	574.219	83.442	574.219	85.1733	574.219	82.7781	574.219	84.6433	574.219	82.1058	574.219	83.9365	574.219	81.4586	574.219	83.0873	574.219	80.8736	574.219	82.1628	574.219	80.3872	574.219	81.2743	574.219	80.0264	574.219	80.5682	574.219	79.803	574.219	80.1731	574.219	79.7176	574.219	80.1231	574.219	79.7686	574.219	80.3392	574.219	79.9526	574.219	80.6852	574.219	80.251	574.219	81.0281	574.219	80.6152	574.219	81.2664	574.219	80.9693	574.219	81.3397	574.219	81.2316
594.727	85.0757	594.727	84.7857	594.727	85.2225	594.727	84.3711	594.727	85.2132	594.727	83.8534	594.727	85.044	594.727	83.2536	594.727	84.7246	594.727	82.5906	594.727	84.2833	594.727	81.8846	594.727	83.7669	594.727	81.1657	594.727	83.2223	594.727	80.4833	594.727	82.6589	594.727	79.9029	594.727	82.0239	594.727	79.4801	594.727	81.2423	594.727	79.2279	594.727	80.3309	594.727	79.1176	594.727	79.5319	594.727	79.1223	594.727	79.2526	594.727	79.2542	594.727	79.6008	594.727	79.5414	594.727	80.2085	594.727	79.9621	594.727	80.6884	594.727	80.4144	594.727	80.8747	594.727	80.759
615.234	85.1654	615.234	84.804	615.234	85.3445	615.234	84.2928	615.234	85.3208	615.234	83.6751	615.234	85.087	615.234	83.0024	615.234	84.652	615.234	82.3254	615.234	84.0453	615.234	81.6789	615.234	83.3248	615.234	81.0702	615.234	82.5869	615.234	80.4886	615.234	81.9543	615.234	79.936	615.234	81.5139	615.234	79.4538	615.234	81.2418	615.234	79.1139	615.234	81.0227	615.234	78.9655	615.234	80.7621	615.234	78.9977	615.234	80.4794	615.234	79.166	615.234	80.2953	615.234	79.4362	615.234	80.2974	615.234	79.7772	615.234	80.4144	615.234	80.1254	615.234	80.4812	615.234	80.3857
637.207	85.1799	637.207	84.7573	637.207	85.4456	637.207	84.2027	637.207	85.5363	637.207	83.5487	637.207	85.4369	637.207	82.8322	637.207	85.1332	637.207	82.0897	637.207	84.6164	637.207	81.3573	637.207	83.8979	637.207	80.6733	637.207	83.0311	637.207	80.076	637.207	82.1256	637.207	79.5899	637.207	81.3211	637.207	79.2133	637.207	80.7174	637.207	78.9261	637.207	80.3327	637.207	78.7184	637.207	80.1462	637.207	78.6192	637.207	80.1419	637.207	78.6955	637.207	80.2861	637.207	78.996	637.207	80.4946	637.207	79.4776	637.207	80.6494	637.207	80.0039	637.207	80.6447	637.207	80.4244
659.18	84.8843	659.18	84.5179	659.18	85.1173	659.18	84.0609	659.18	85.177	659.18	83.5478	659.18	85.0369	659.18	82.9984	659.18	84.6912	659.18	82.4198	659.18	84.1561	659.18	81.8149	659.18	83.4723	659.18	81.1945	659.18	82.7045	659.18	80.587	659.18	81.9287	659.18	80.0388	659.18	81.1948	659.18	79.5998	659.18	80.5031	659.18	79.2952	659.18	79.8589	659.18	79.1083	659.18	79.3763	659.18	79.0066	659.18	79.2585	659.18	78.9986	659.18	79.5497	659.18	79.1464	659.18	80.0167	659.18	79.4829	659.18	80.3772	659.18	79.9238	659.18	80.48	659.18	80.3046
682.617	84.8168	682.617	84.4917	682.617	84.9676	682.617	84.0112	682.617	84.9394	682.617	83.4064	682.617	84.738	682.617	82.7158	682.617	84.3756	682.617	81.9816	682.617	83.8771	682.617	81.2535	682.617	83.2992	682.617	80.5882	682.617	82.7316	682.617	80.0306	682.617	82.2392	682.617	79.5874	682.617	81.7932	682.617	79.2307	682.617	81.3025	682.617	78.9316	682.617	80.7262	682.617	78.6842	682.617	80.1405	682.617	78.5089	682.617	79.7177	682.617	78.4609	682.617	79.6236	682.617	78.629	682.617	79.8523	682.617	79.0545	682.617	80.1709	682.617	79.6226	682.617	80.3005	682.617	80.1022
707.52	84.6521	707.52	84.0892	707.52	84.9997	707.52	83.3805	707.52	85.0891	707.52	82.6078	707.52	84.9069	707.52	81.843	707.52	84.468	707.52	81.1347	707.52	83.8177	707.52	80.5194	707.52	83.0403	707.52	80.041	707.52	82.2638	707.52	79.7405	707.52	81.6288	707.52	79.6163	707.52	81.2105	707.52	79.6136	707.52	80.9689	707.52	79.6503	707.52	80.7918	707.52	79.6307	707.52	80.5755	707.52	79.4583	707.52	80.2909	707.52	79.0972	707.52	80.0145	707.52	78.6632	707.52	79.8448	707.52	78.434	707.52	79.735	707.52	78.6193	707.52	79.509	707.52	79.0836
732.422	84.7001	732.422	84.3912	732.422	84.8171	732.422	83.8964	732.422	84.7442	732.422	83.2329	732.422	84.4763	732.422	82.4242	732.422	83.9882	732.422	81.5059	732.422	83.2498	732.422	80.5519	732.422	82.2833	732.422	79.6871	732.422	81.2359	732.422	79.0307	732.422	80.3645	732.422	78.6248	732.422	79.8318	732.422	78.4879	732.422	79.5649	732.422	78.6851	732.422	79.4518	732.422	79.2082	732.422	79.5284	732.422	79.8646	732.422	79.8623	732.422	80.421	732.422	80.3692	732.422	80.7758	732.422	80.8589	732.422	80.9766	732.422	81.1862	732.422	81.1248	732.422	81.3052	732.422	81.2553
757.324	84.4819	757.324	83.9185	757.324	84.9169	757.324	83.31	757.324	85.1478	757.324	82.7129	757.324	85.1235	757.324	82.1243	757.324	84.815	757.324	81.4823	757.324	84.2075	757.324	80.7021	757.324	83.3033	757.324	79.7269	757.324	82.1518	757.324	78.5825	757.324	80.8954	757.324	77.4355	757.324	79.794	757.324	76.6124	757.324	79.1802	757.324	76.4176	757.324	79.2448	757.324	76.8081	757.324	79.7593	757.324	77.4651	757.324	80.2924	757.324	78.1592	757.324	80.6587	757.324	78.8637	757.324	80.9407	757.324	79.6189	757.324	81.1814	757.324	80.3724	757.324	81.2368	757.324	80.9621
785.156	84.416	785.156	84.0845	785.156	84.6355	785.156	83.6595	785.156	84.7286	785.156	83.1416	785.156	84.6833	785.156	82.4938	785.156	84.4716	785.156	81.6561	785.156	84.0464	785.156	80.6083	785.156	83.3799	785.156	79.4538	785.156	82.522	785.156	78.419	785.156	81.5965	785.156	77.6687	785.156	80.6754	785.156	77.1816	785.156	79.7132	785.156	76.9673	785.156	78.7959	785.156	77.1717	785.156	78.3902	785.156	77.7513	785.156	78.807	785.156	78.3989	785.156	79.6333	785.156	78.9265	785.156	80.3772	785.156	79.4144	785.156	80.823	785.156	79.9861	785.156	80.8803	785.156	80.5516
811.523	84.3945	811.523	84.0445	811.523	84.7743	811.523	83.7322	811.523	85.1254	811.523	83.4188	811.523	85.3493	811.523	83.0342	811.523	85.3256	811.523	82.499	811.523	84.9343	811.523	81.7569	811.523	84.0984	811.523	80.8242	811.523	82.8682	811.523	79.8216	811.523	81.5383	811.523	78.9141	811.523	80.5825	811.523	78.1872	811.523	80.1552	811.523	77.6868	811.523	79.9141	811.523	77.5821	811.523	79.5711	811.523	77.9662	811.523	79.2638	811.523	78.5499	811.523	79.3959	811.523	79.0229	811.523	79.9629	811.523	79.4083	811.523	80.4752	811.523	79.8577	811.523	80.598	811.523	80.3282
840.82	84.4525	840.82	84.0582	840.82	84.811	840.82	83.6107	840.82	85.0982	840.82	83.0461	840.82	85.2433	840.82	82.3057	840.82	85.1636	840.82	81.408	840.82	84.792	840.82	80.4773	840.82	84.1093	840.82	79.6582	840.82	83.1618	840.82	78.9599	840.82	82.0157	840.82	78.2535	840.82	80.6608	840.82	77.4955	840.82	79.1397	840.82	76.9403	840.82	78.1687	840.82	76.9642	840.82	78.6975	840.82	77.4774	840.82	79.8584	840.82	78.0406	840.82	80.653	840.82	78.4941	840.82	81.0779	840.82	79.0178	840.82	81.2776	840.82	79.7644	840.82	81.139	840.82	80.5777
870.117	84.9592	870.117	84.879	870.117	84.827	870.117	84.5308	870.117	84.5956	870.117	83.9132	870.117	84.3832	870.117	83.0453	870.117	84.2226	870.117	81.9309	870.117	84.0154	870.117	80.5542	870.117	83.6166	870.117	78.9528	870.117	83.0125	870.117	77.347	870.117	82.3986	870.117	76.1243	870.117	81.9128	870.117	75.5035	870.117	81.32	870.117	75.3797	870.117	80.3166	870.117	75.7323	870.117	79.1286	870.117	76.6499	870.117	78.6421	870.117	77.8033	870.117	79.1477	870.117	78.7554	870.117	79.9217	870.117	79.465	870.117	80.4929	870.117	80.0776	870.117	80.7211	870.117	80.5559
900.879	85.355	900.879	84.9172	900.879	85.6322	900.879	84.3506	900.879	85.7328	900.879	83.6803	900.879	85.6493	900.879	82.9255	900.879	85.3404	900.879	82.1175	900.879	84.7187	900.879	81.2717	900.879	83.7011	900.879	80.3427	900.879	82.2927	900.879	79.284	900.879	80.6747	900.879	78.223	900.879	79.2782	900.879	77.5376	900.879	78.6596	900.879	77.4288	900.879	78.921	900.879	77.5585	900.879	79.464	900.879	77.5646	900.879	79.754	900.879	77.3872	900.879	79.928	900.879	77.2049	900.879	80.3621	900.879	77.3894	900.879	80.7352	900.879	78.2337	900.879	80.4682	900.879	79.4818
933.105	86.3714	933.105	86.0019	933.105	86.7449	933.105	85.7248	933.105	86.9096	933.105	85.4366	933.105	86.7137	933.105	84.9727	933.105	86.1298	933.105	84.231	933.105	85.2076	933.105	83.1913	933.105	84.0762	933.105	81.8751	933.105	83.0036	933.105	80.3086	933.105	82.2285	933.105	78.5646	933.105	81.6013	933.105	76.9672	933.105	80.8052	933.105	76.259	933.105	79.9964	933.105	76.8833	933.105	79.6977	933.105	78.2557	933.105	79.8268	933.105	79.5881	933.105	80.1049	933.105	80.5259	933.105	80.7586	933.105	81.1263	933.105	81.6063	933.105	81.5987	933.105	82.0674	933.105	81.987
965.332	88.2866	965.332	87.4374	965.332	88.3669	965.332	85.9124	965.332	87.7364	965.332	84.0162	965.332	86.647	965.332	82.4555	965.332	85.5258	965.332	81.9604	965.332	84.6987	965.332	82.228	965.332	84.0187	965.332	82.473	965.332	83.1368	965.332	82.2928	965.332	82.1523	965.332	81.6298	965.332	81.367	965.332	80.6326	965.332	80.4973	965.332	79.5219	965.332	79.4709	965.332	78.5904	965.332	79.2283	965.332	78.2405	965.332	79.8332	965.332	78.4289	965.332	80.6457	965.332	78.8211	965.332	81.7222	965.332	79.5207	965.332	82.6167	965.332	80.6876	965.332	82.7245	965.332	81.9595
1,000.49	87.0659	1,000.49	86.3757	1,000.49	87.7397	1,000.49	86.02	1,000.49	88.0186	1,000.49	85.9151	1,000.49	87.7575	1,000.49	85.67	1,000.49	86.9992	1,000.49	85.0165	1,000.49	85.8045	1,000.49	83.9682	1,000.49	84.1474	1,000.49	82.7504	1,000.49	82.0851	1,000.49	81.5603	1,000.49	80.0252	1,000.49	80.319	1,000.49	78.5777	1,000.49	78.7156	1,000.49	78.1711	1,000.49	76.7841	1,000.49	79.0682	1,000.49	76.141	1,000.49	80.5465	1,000.49	77.7809	1,000.49	81.3067	1,000.49	79.7175	1,000.49	80.8537	1,000.49	80.9386	1,000.49	79.7911	1,000.49	81.4983	1,000.49	79.7147	1,000.49	81.6853	1,000.49	80.7249	1,000.49	81.4996
1,035.64	88.3624	1,035.64	88.3502	1,035.64	87.6271	1,035.64	87.503	1,035.64	86.4987	1,035.64	85.8328	1,035.64	85.6634	1,035.64	83.5148	1,035.64	85.5294	1,035.64	81.3149	1,035.64	85.7263	1,035.64	80.4978	1,035.64	85.6577	1,035.64	80.8435	1,035.64	85.0411	1,035.64	81.1183	1,035.64	84.1866	1,035.64	80.6146	1,035.64	83.6037	1,035.64	78.9846	1,035.64	82.9212	1,035.64	76.5518	1,035.64	81.4823	1,035.64	75.2733	1,035.64	79.725	1,035.64	75.7606	1,035.64	78.5822	1,035.64	76.3665	1,035.64	78.0254	1,035.64	77.3165	1,035.64	79.4843	1,035.64	79.0105	1,035.64	81.8679	1,035.64	80.962	1,035.64	82.9814	1,035.64	82.5317
1,072.27	87.1513	1,072.27	83.9775	1,072.27	89.5311	1,072.27	84.0064	1,072.27	90.3001	1,072.27	86.5664	1,072.27	89.5106	1,072.27	88.2439	1,072.27	87.25	1,072.27	88.7183	1,072.27	83.4765	1,072.27	88.3228	1,072.27	77.8547	1,072.27	87.4018	1,072.27	70.994	1,072.27	86.1809	1,072.27	67.9326	1,072.27	84.9071	1,072.27	67.3318	1,072.27	83.7593	1,072.27	70.2084	1,072.27	82.1863	1,072.27	74.1795	1,072.27	79.347	1,072.27	77.4108	1,072.27	76.7253	1,072.27	79.4913	1,072.27	77.4496	1,072.27	80.4978	1,072.27	78.2075	1,072.27	81.0197	1,072.27	78.0873	1,072.27	81.3127	1,072.27	78.3953	1,072.27	80.9033	1,072.27	79.656
1,108.89	89.4547	1,108.89	90.1483	1,108.89	87.0885	1,108.89	89.3398	1,108.89	83.9619	1,108.89	86.7119	1,108.89	85.426	1,108.89	80.8831	1,108.89	88.2775	1,108.89	69.0973	1,108.89	89.6717	1,108.89	80.077	1,108.89	90.0263	1,108.89	84.3758	1,108.89	89.6819	1,108.89	86.1635	1,108.89	88.9669	1,108.89	86.5063	1,108.89	88.4484	1,108.89	85.475	1,108.89	88.3136	1,108.89	82.9028	1,108.89	88.0659	1,108.89	79.491	1,108.89	87.007	1,108.89	77.1067	1,108.89	84.172	1,108.89	72.0135	1,108.89	76.5446	1,108.89	66.2733	1,108.89	71.9393	1,108.89	78.3747	1,108.89	81.7991	1,108.89	82.2946	1,108.89	84.1394	1,108.89	83.9679
1,148.44	86.59	1,148.44	87.5686	1,148.44	86.9148	1,148.44	88.436	1,148.44	88.2933	1,148.44	88.2713	1,148.44	89.2936	1,148.44	86.6457	1,148.44	89.2936	1,148.44	83.09	1,148.44	88.2229	1,148.44	76.09	1,148.44	86.3662	1,148.44	69.4519	1,148.44	84.5657	1,148.44	77.5485	1,148.44	83.8268	1,148.44	80.7399	1,148.44	84.259	1,148.44	81.8304	1,148.44	85.2305	1,148.44	81.0948	1,148.44	85.8458	1,148.44	78.1002	1,148.44	85.0488	1,148.44	74.7707	1,148.44	81.299	1,148.44	74.5066	1,148.44	69.2251	1,148.44	71.7729	1,148.44	78.298	1,148.44	71.3271	1,148.44	82.7887	1,148.44	77.7891	1,148.44	83.3349	1,148.44	81.6354
1,189.45	86.1934	1,189.45	88.61	1,189.45	86.0078	1,189.45	89.8943	1,189.45	88.6452	1,189.45	89.468	1,189.45	90.4182	1,189.45	87.334	1,189.45	90.651	1,189.45	83.4264	1,189.45	89.6011	1,189.45	78.5885	1,189.45	87.4863	1,189.45	80.1921	1,189.45	84.7503	1,189.45	83.3889	1,189.45	82.9241	1,189.45	84.4325	1,189.45	82.8665	1,189.45	83.6211	1,189.45	83.9183	1,189.45	80.6181	1,189.45	85.4729	1,189.45	75.4896	1,189.45	86.5101	1,189.45	74.6458	1,189.45	86.0847	1,189.45	75.3901	1,189.45	83.4424	1,189.45	78.3038	1,189.45	76.847	1,189.45	81.1724	1,189.45	71.3503	1,189.45	82.4553	1,189.45	79.5501	1,189.45	82.2192
1,230.47	87.9253	1,230.47	87.2924	1,230.47	89.132	1,230.47	87.6627	1,230.47	89.7453	1,230.47	88.0261	1,230.47	89.2252	1,230.47	87.6077	1,230.47	87.3747	1,230.47	86.0627	1,230.47	83.951	1,230.47	83.0348	1,230.47	79.2473	1,230.47	78.446	1,230.47	75.9346	1,230.47	74.0049	1,230.47	75.4126	1,230.47	72.5691	1,230.47	75.2542	1,230.47	73.1348	1,230.47	76.0022	1,230.47	74.8899	1,230.47	79.2344	1,230.47	75.5688	1,230.47	80.783	1,230.47	73.771	1,230.47	79.7898	1,230.47	73.1515	1,230.47	77.6323	1,230.47	74.2495	1,230.47	77.9185	1,230.47	75.7806	1,230.47	80.6173	1,230.47	78.6049	1,230.47	82.0201	1,230.47	81.2057
1,274.41	88.0435	1,274.41	86.7756	1,274.41	89.361	1,274.41	86.6951	1,274.41	89.7358	1,274.41	87.253	1,274.41	88.7346	1,274.41	87.2438	1,274.41	86.1404	1,274.41	86.0036	1,274.41	81.8746	1,274.41	82.9702	1,274.41	77.0836	1,274.41	77.4158	1,274.41	76.1533	1,274.41	69.4139	1,274.41	75.7707	1,274.41	66.5556	1,274.41	71.3493	1,274.41	65.4039	1,274.41	62.9082	1,274.41	61.3827	1,274.41	76.6951	1,274.41	59.0679	1,274.41	81.2771	1,274.41	61.6976	1,274.41	82.6807	1,274.41	66.7186	1,274.41	81.4432	1,274.41	74.3249	1,274.41	77.2129	1,274.41	78.0751	1,274.41	77.2198	1,274.41	79.6957	1,274.41	80.5649	1,274.41	80.8735
1,319.82	87.1013	1,319.82	86.2211	1,319.82	89.1452	1,319.82	87.8098	1,319.82	89.9859	1,319.82	89.0504	1,319.82	89.0676	1,319.82	88.7755	1,319.82	86.3328	1,319.82	86.7914	1,319.82	81.8706	1,319.82	82.6531	1,319.82	77.8452	1,319.82	74.902	1,319.82	77.1703	1,319.82	49.1661	1,319.82	75.1939	1,319.82	72.98	1,319.82	74.4037	1,319.82	77.9294	1,319.82	77.6301	1,319.82	80.126	1,319.82	80.7437	1,319.82	79.9473	1,319.82	81.8973	1,319.82	77.2468	1,319.82	80.2645	1,319.82	75.6558	1,319.82	77.1072	1,319.82	77.1321	1,319.82	78.6851	1,319.82	77.1724	1,319.82	80.4663	1,319.82	76.8004	1,319.82	79.8762	1,319.82	77.9814
1,366.7	88.9312	1,366.7	86.2734	1,366.7	90.2221	1,366.7	85.0392	1,366.7	89.6454	1,366.7	87.5902	1,366.7	86.3604	1,366.7	89.8213	1,366.7	77.927	1,366.7	90.4379	1,366.7	79.373	1,366.7	89.6297	1,366.7	85.9146	1,366.7	88.3412	1,366.7	88.7872	1,366.7	87.5939	1,366.7	89.4724	1,366.7	86.8615	1,366.7	88.7257	1,366.7	85.4299	1,366.7	86.6628	1,366.7	83.4569	1,366.7	82.3355	1,366.7	83.3855	1,366.7	75.8083	1,366.7	83.8555	1,366.7	80.3859	1,366.7	81.0706	1,366.7	83.9414	1,366.7	79.8274	1,366.7	83.5411	1,366.7	81.1047	1,366.7	78.9045	1,366.7	79.5341	1,366.7	71.5294	1,366.7	76.1483
1,413.57	89.72	1,413.57	89.2596	1,413.57	89.0087	1,413.57	87.9503	1,413.57	87.4921	1,413.57	87.2032	1,413.57	85.8542	1,413.57	87.3982	1,413.57	84.7005	1,413.57	86.9899	1,413.57	84.3547	1,413.57	85.2429	1,413.57	84.4452	1,413.57	82.4712	1,413.57	83.7957	1,413.57	79.7179	1,413.57	82.2091	1,413.57	79.486	1,413.57	80.9253	1,413.57	81.7201	1,413.57	80.4979	1,413.57	83.4366	1,413.57	81.2218	1,413.57	84.2752	1,413.57	81.074	1,413.57	83.2979	1,413.57	77.0149	1,413.57	80.52	1,413.57	55.1614	1,413.57	79.0554	1,413.57	78.2021	1,413.57	75.8589	1,413.57	81.4419	1,413.57	71.842	1,413.57	80.5979	1,413.57	76.9069
1,463.38	90.6255	1,463.38	89.8582	1,463.38	89.6022	1,463.38	87.6752	1,463.38	87.2549	1,463.38	85.9946	1,463.38	85.8498	1,463.38	86.6305	1,463.38	86.6281	1,463.38	87.342	1,463.38	87.0849	1,463.38	87.0687	1,463.38	86.5384	1,463.38	86.1316	1,463.38	84.8122	1,463.38	84.7055	1,463.38	82.3722	1,463.38	83.164	1,463.38	81.1886	1,463.38	82.451	1,463.38	80.815	1,463.38	82.6181	1,463.38	81.0306	1,463.38	82.6981	1,463.38	81.0341	1,463.38	80.7721	1,463.38	77.9877	1,463.38	76.8204	1,463.38	68.8511	1,463.38	76.0593	1,463.38	75.0632	1,463.38	76.017	1,463.38	78.6561	1,463.38	75.8396	1,463.38	78.9023	1,463.38	77.3482
1,516.11	90.3903	1,516.11	90.7315	1,516.11	88.661	1,516.11	89.0516	1,516.11	87.9395	1,516.11	85.2736	1,516.11	88.7964	1,516.11	82.5212	1,516.11	88.4405	1,516.11	83.783	1,516.11	85.9297	1,516.11	84.2924	1,516.11	82.3323	1,516.11	83.1836	1,516.11	78.5143	1,516.11	79.8391	1,516.11	74.7322	1,516.11	78.0274	1,516.11	72.3978	1,516.11	81.2082	1,516.11	68.3908	1,516.11	82.2206	1,516.11	66.1721	1,516.11	82.0944	1,516.11	78.5638	1,516.11	80.3371	1,516.11	81.7255	1,516.11	75.5336	1,516.11	79.8653	1,516.11	75.0082	1,516.11	64.9985	1,516.11	70.0175	1,516.11	77.8627	1,516.11	75.8645	1,516.11	81.6581	1,516.11	80.4841
1,568.85	89.5074	1,568.85	89.9176	1,568.85	88.5798	1,568.85	88.8766	1,568.85	88.6063	1,568.85	85.7515	1,568.85	88.9889	1,568.85	82.2689	1,568.85	88.0308	1,568.85	82.5787	1,568.85	85.3348	1,568.85	83.3706	1,568.85	81.8845	1,568.85	82.7443	1,568.85	78.9358	1,568.85	80.4694	1,568.85	76.151	1,568.85	76.8228	1,568.85	75.069	1,568.85	73.4064	1,568.85	74.7334	1,568.85	74.7244	1,568.85	74.7948	1,568.85	78.1455	1,568.85	78.3926	1,568.85	79.2377	1,568.85	79.8868	1,568.85	74.5785	1,568.85	77.0059	1,568.85	71.0495	1,568.85	67.3449	1,568.85	65.0517	1,568.85	76.7415	1,568.85	74.899	1,568.85	79.9389	1,568.85	79.1488
1,624.51	88.0866	1,624.51	89.8553	1,624.51	87.1866	1,624.51	89.6351	1,624.51	88.768	1,624.51	85.797	1,624.51	89.8156	1,624.51	78.6476	1,624.51	89.0729	1,624.51	83.1211	1,624.51	86.0209	1,624.51	86.4332	1,624.51	81.2493	1,624.51	87.5643	1,624.51	79.8399	1,624.51	88.1718	1,624.51	81.6979	1,624.51	88.3275	1,624.51	83.7581	1,624.51	87.4744	1,624.51	84.1252	1,624.51	86.2436	1,624.51	84.0576	1,624.51	84.3997	1,624.51	84.4267	1,624.51	83.54	1,624.51	84.3147	1,624.51	80.7451	1,624.51	81.8687	1,624.51	75.6094	1,624.51	71.1865	1,624.51	65.4666	1,624.51	77.2829	1,624.51	77.3637	1,624.51	81.4054	1,624.51	81.4601
1,681.64	87.2174	1,681.64	86.4273	1,681.64	89.34	1,681.64	88.1478	1,681.64	89.6224	1,681.64	87.8387	1,681.64	87.0826	1,681.64	84.2373	1,681.64	81.7455	1,681.64	74.8368	1,681.64	80.5188	1,681.64	73.6482	1,681.64	82.42	1,681.64	80.9873	1,681.64	82.7009	1,681.64	82.7589	1,681.64	83.2443	1,681.64	83.2761	1,681.64	82.8335	1,681.64	83.4892	1,681.64	81.7	1,681.64	84.6239	1,681.64	81.0332	1,681.64	83.8733	1,681.64	79.0333	1,681.64	80.9051	1,681.64	79.7928	1,681.64	77.2763	1,681.64	83.3754	1,681.64	78.0034	1,681.64	82.4935	1,681.64	76.2853	1,681.64	72.8876	1,681.64	80.7932	1,681.64	73.7695	1,681.64	79.9227
1,741.7	87.9799	1,741.7	87.9529	1,741.7	88.7106	1,741.7	87.5102	1,741.7	89.0996	1,741.7	85.1157	1,741.7	87.4575	1,741.7	79.4631	1,741.7	82.3071	1,741.7	64.3295	1,741.7	76.1049	1,741.7	80.6221	1,741.7	82.7234	1,741.7	83.0488	1,741.7	84.5349	1,741.7	83.7012	1,741.7	84.3221	1,741.7	83.8363	1,741.7	83.2895	1,741.7	82.5243	1,741.7	81.4341	1,741.7	81.4007	1,741.7	79.324	1,741.7	78.8672	1,741.7	75.8582	1,741.7	72.6229	1,741.7	67.3448	1,741.7	70.6481	1,741.7	77.0316	1,741.7	74.8372	1,741.7	80.1111	1,741.7	75.2069	1,741.7	76.8218	1,741.7	77.5189	1,741.7	65.2114	1,741.7	74.1641
1,803.22	89.0528	1,803.22	87.5251	1,803.22	89.4822	1,803.22	85.7871	1,803.22	88.2903	1,803.22	84.2204	1,803.22	85.2975	1,803.22	81.9507	1,803.22	82.6327	1,803.22	75.8913	1,803.22	82.996	1,803.22	63.085	1,803.22	82.4186	1,803.22	67.8453	1,803.22	80.0139	1,803.22	68.5043	1,803.22	75.7882	1,803.22	70.6161	1,803.22	69.1165	1,803.22	69.9194	1,803.22	69.8012	1,803.22	67.6702	1,803.22	69.8246	1,803.22	63.6407	1,803.22	69.4664	1,803.22	61.1262	1,803.22	71.5586	1,803.22	66.9006	1,803.22	68.1641	1,803.22	67.5275	1,803.22	72.2977	1,803.22	68.4568	1,803.22	74.6543	1,803.22	72.1955	1,803.22	74.0113	1,803.22	73.3376
1,866.21	88.489	1,866.21	86.5677	1,866.21	89.3837	1,866.21	85.2919	1,866.21	88.2147	1,866.21	84.8674	1,866.21	84.4658	1,866.21	82.7597	1,866.21	82.1429	1,866.21	76.0558	1,866.21	83.4669	1,866.21	74.3946	1,866.21	82.5141	1,866.21	74.1258	1,866.21	79.7103	1,866.21	74.4184	1,866.21	75.2035	1,866.21	76.1909	1,866.21	69.4187	1,866.21	76.8544	1,866.21	71.8812	1,866.21	76.4918	1,866.21	71.9476	1,866.21	73.1921	1,866.21	73.8019	1,866.21	65.6234	1,866.21	71.0741	1,866.21	58.5741	1,866.21	59.9355	1,866.21	65.6689	1,866.21	72.9463	1,866.21	65.6004	1,866.21	73.9858	1,866.21	70.4638	1,866.21	73.0292	1,866.21	72.836
1,932.13	87.6558	1,932.13	86.1619	1,932.13	87.953	1,932.13	84.2491	1,932.13	86.9998	1,932.13	83.025	1,932.13	84.9509	1,932.13	81.1712	1,932.13	83.6179	1,932.13	77.7081	1,932.13	82.135	1,932.13	74.9526	1,932.13	78.3353	1,932.13	74.3652	1,932.13	74.795	1,932.13	76.7809	1,932.13	73.8501	1,932.13	78.0513	1,932.13	73.8899	1,932.13	77.7754	1,932.13	74.6445	1,932.13	77.064	1,932.13	72.5632	1,932.13	72.4713	1,932.13	70.7264	1,932.13	58.3367	1,932.13	71.0743	1,932.13	62.9839	1,932.13	67.1973	1,932.13	62.6536	1,932.13	68.2044	1,932.13	61.3042	1,932.13	72.5059	1,932.13	65.2042	1,932.13	72.9255	1,932.13	70.656
1,999.51	87.4438	1,999.51	86.0031	1,999.51	87.6516	1,999.51	84.096	1,999.51	86.6728	1,999.51	81.6197	1,999.51	84.8948	1,999.51	77.4863	1,999.51	82.01	1,999.51	71.8507	1,999.51	77.1295	1,999.51	64.4306	1,999.51	69.126	1,999.51	56.2579	1,999.51	59.9248	1,999.51	57.1402	1,999.51	61.6041	1,999.51	57.2887	1,999.51	60.1229	1,999.51	61.268	1,999.51	57.0529	1,999.51	63.1808	1,999.51	56.6405	1,999.51	58.2936	1,999.51	49.4484	1,999.51	58.7587	1,999.51	51.2368	1,999.51	59.358	1,999.51	59.6082	1,999.51	44.2107	1,999.51	67.8952	1,999.51	60.8228	1,999.51	71.3556	1,999.51	66.0783	1,999.51	71.5999	1,999.51	69.7745
2,069.82	87.6659	2,069.82	86.4359	2,069.82	87.6784	2,069.82	84.0944	2,069.82	86.4585	2,069.82	80.5952	2,069.82	84.0918	2,069.82	75.9941	2,069.82	80.4155	2,069.82	70.7339	2,069.82	74.8099	2,069.82	67.4678	2,069.82	66.608	2,069.82	63.6386	2,069.82	64.8303	2,069.82	63.8338	2,069.82	65.8781	2,069.82	66.5022	2,069.82	67.9021	2,069.82	64.2081	2,069.82	66.9372	2,069.82	66.0201	2,069.82	63.9431	2,069.82	66.9495	2,069.82	59.9582	2,069.82	55.1475	2,069.82	58.3618	2,069.82	62.1162	2,069.82	59.2096	2,069.82	59.3933	2,069.82	67.7283	2,069.82	60.9227	2,069.82	71.4441	2,069.82	68.0541	2,069.82	71.8341	2,069.82	70.4553
2,143.07	87.0418	2,143.07	86.2234	2,143.07	87.213	2,143.07	84.3755	2,143.07	86.2501	2,143.07	80.6204	2,143.07	83.4404	2,143.07	75.8121	2,143.07	78.8787	2,143.07	72.4175	2,143.07	72.771	2,143.07	68.2708	2,143.07	70.0228	2,143.07	67.1961	2,143.07	71.5312	2,143.07	66.8597	2,143.07	70.6283	2,143.07	66.6961	2,143.07	70.0783	2,143.07	66.3849	2,143.07	69.8345	2,143.07	67.8774	2,143.07	68.368	2,143.07	69.5638	2,143.07	65.5904	2,143.07	64.6166	2,143.07	64.5219	2,143.07	59.0193	2,143.07	62.2297	2,143.07	63.9283	2,143.07	66.638	2,143.07	58.7739	2,143.07	71.8396	2,143.07	70.3107	2,143.07	72.4304	2,143.07	71.9088
2,219.24	86.9499	2,219.24	86.0165	2,219.24	86.8032	2,219.24	83.8841	2,219.24	85.3824	2,219.24	80.5188	2,219.24	82.8049	2,219.24	77.3091	2,219.24	78.3869	2,219.24	72.3641	2,219.24	72.2254	2,219.24	67.1804	2,219.24	72.7105	2,219.24	62.2782	2,219.24	74.3831	2,219.24	67.5885	2,219.24	73.6981	2,219.24	70.0706	2,219.24	72.8135	2,219.24	66.4205	2,219.24	71.9706	2,219.24	66.6979	2,219.24	71.0492	2,219.24	71.413	2,219.24	67.638	2,219.24	70.0931	2,219.24	68.5983	2,219.24	52.1866	2,219.24	67.4	2,219.24	66.8224	2,219.24	67.1797	2,219.24	50.92	2,219.24	71.1557	2,219.24	70.1695	2,219.24	70.9758	2,219.24	72.3119
2,296.88	87.996	2,296.88	86.4606	2,296.88	87.686	2,296.88	83.6667	2,296.88	85.0286	2,296.88	80.7039	2,296.88	81.1933	2,296.88	76.8766	2,296.88	77.5308	2,296.88	69.8951	2,296.88	74.4895	2,296.88	66.795	2,296.88	74.6312	2,296.88	71.5531	2,296.88	74.7258	2,296.88	71.9217	2,296.88	73.8616	2,296.88	68.4447	2,296.88	74.3165	2,296.88	67.6696	2,296.88	72.9183	2,296.88	63.2121	2,296.88	71.3251	2,296.88	70.7046	2,296.88	69.477	2,296.88	73.9188	2,296.88	69.9375	2,296.88	65.4547	2,296.88	70.3038	2,296.88	68.4229	2,296.88	63.2074	2,296.88	65.7927	2,296.88	69.3549	2,296.88	68.3938	2,296.88	74.0854	2,296.88	74.9632
2,378.91	87.785	2,378.91	86.635	2,378.91	88.0877	2,378.91	84.566	2,378.91	86.0753	2,378.91	81.5974	2,378.91	80.1895	2,378.91	76.0918	2,378.91	76.1894	2,378.91	71.2578	2,378.91	76.6674	2,378.91	73.0633	2,378.91	77.6278	2,378.91	66.6489	2,378.91	77.4236	2,378.91	69.7037	2,378.91	76.0602	2,378.91	74.3948	2,378.91	76.1844	2,378.91	70.0542	2,378.91	75.9301	2,378.91	66.3739	2,378.91	71.6188	2,378.91	66.8939	2,378.91	70.8899	2,378.91	73.0026	2,378.91	71.2906	2,378.91	70.2625	2,378.91	69.9121	2,378.91	64.6883	2,378.91	51.8621	2,378.91	68.6818	2,378.91	71.0908	2,378.91	61.2826	2,378.91	74.9352	2,378.91	73.8155
2,462.4	86.7328	2,462.4	86.0126	2,462.4	86.9166	2,462.4	84.6489	2,462.4	85.8345	2,462.4	81.2651	2,462.4	81.0393	2,462.4	75.1742	2,462.4	75.7154	2,462.4	74.0076	2,462.4	78.582	2,462.4	65.0115	2,462.4	79.7999	2,462.4	70.7993	2,462.4	78.7866	2,462.4	68.2931	2,462.4	75.3913	2,462.4	70.3065	2,462.4	72.704	2,462.4	73.9981	2,462.4	74.1242	2,462.4	69.7163	2,462.4	73.6987	2,462.4	65.5306	2,462.4	71.4047	2,462.4	72.005	2,462.4	71.6536	2,462.4	72.5382	2,462.4	68.0647	2,462.4	58.6303	2,462.4	60.3818	2,462.4	69.5098	2,462.4	72.4323	2,462.4	48.7764	2,462.4	74.5555	2,462.4	71.8138
2,548.83	87.7424	2,548.83	86.4655	2,548.83	87.495	2,548.83	83.9561	2,548.83	85.2039	2,548.83	79.4916	2,548.83	80.7737	2,548.83	77.8034	2,548.83	76.75	2,548.83	70.6841	2,548.83	79.3589	2,548.83	68.8393	2,548.83	80.0464	2,548.83	72.1003	2,548.83	79.6897	2,548.83	76.0189	2,548.83	79.501	2,548.83	75.6713	2,548.83	76.4856	2,548.83	73.624	2,548.83	66.552	2,548.83	72.4824	2,548.83	70.1734	2,548.83	67.0168	2,548.83	71.5308	2,548.83	71.5628	2,548.83	70.5452	2,548.83	74.0342	2,548.83	67.91	2,548.83	64.4394	2,548.83	64.4589	2,548.83	67.2587	2,548.83	73.5043	2,548.83	62.9085	2,548.83	74.3273	2,548.83	69.2848
2,639.65	87.8814	2,639.65	86.9582	2,639.65	88.0995	2,639.65	83.5507	2,639.65	86.1607	2,639.65	80.0605	2,639.65	80.8161	2,639.65	73.4422	2,639.65	77.9652	2,639.65	64.1782	2,639.65	81.0505	2,639.65	74.5356	2,639.65	81.6138	2,639.65	78.1659	2,639.65	81.1274	2,639.65	74.1149	2,639.65	79.6677	2,639.65	69.001	2,639.65	77.8209	2,639.65	74.8707	2,639.65	69.9646	2,639.65	76.8	2,639.65	66.4362	2,639.65	72.1739	2,639.65	67.9237	2,639.65	70.3259	2,639.65	70.3859	2,639.65	75.8327	2,639.65	67.5124	2,639.65	69.4261	2,639.65	64.5912	2,639.65	65.9416	2,639.65	74.2347	2,639.65	64.4493	2,639.65	73.2126	2,639.65	67.3465
2,731.93	87.1876	2,731.93	86.0732	2,731.93	87.0489	2,731.93	83.5687	2,731.93	85.8629	2,731.93	78.571	2,731.93	81.1341	2,731.93	63.9659	2,731.93	79.6144	2,731.93	74.9773	2,731.93	82.5158	2,731.93	77.2262	2,731.93	82.7983	2,731.93	77.1559	2,731.93	81.1551	2,731.93	78.7756	2,731.93	78.1	2,731.93	77.7952	2,731.93	72.9124	2,731.93	75.6075	2,731.93	72.4657	2,731.93	77.2421	2,731.93	70.1562	2,731.93	75.7562	2,731.93	72.4595	2,731.93	68.7836	2,731.93	70.6109	2,731.93	75.2182	2,731.93	71.7005	2,731.93	72.8806	2,731.93	68.5057	2,731.93	63.8591	2,731.93	74.846	2,731.93	67.6508	2,731.93	73.8877	2,731.93	69.1008
2,828.61	87.7821	2,828.61	86.261	2,828.61	86.6853	2,828.61	83.1095	2,828.61	85.3338	2,828.61	76.1758	2,828.61	81.3007	2,828.61	76.4662	2,828.61	79.3973	2,828.61	79.2202	2,828.61	82.3941	2,828.61	79.8328	2,828.61	83.3355	2,828.61	77.3442	2,828.61	82.8837	2,828.61	78.8024	2,828.61	80.0108	2,828.61	78.8177	2,828.61	72.6983	2,828.61	69.7748	2,828.61	78.0763	2,828.61	73.7018	2,828.61	73.6117	2,828.61	76.6099	2,828.61	73.5309	2,828.61	70.9077	2,828.61	62.6189	2,828.61	74.5341	2,828.61	68.5561	2,828.61	74.4967	2,828.61	68.1257	2,828.61	60.5057	2,828.61	74.0869	2,828.61	69.9533	2,828.61	73.2397	2,828.61	68.5795
2,928.22	88.4809	2,928.22	86.6461	2,928.22	87.7351	2,928.22	82.3197	2,928.22	84.4542	2,928.22	77.2252	2,928.22	81.2256	2,928.22	78.6975	2,928.22	81.5105	2,928.22	80.6838	2,928.22	83.2757	2,928.22	78.2825	2,928.22	83.1664	2,928.22	79.538	2,928.22	81.6905	2,928.22	77.6325	2,928.22	77.4088	2,928.22	72.0859	2,928.22	79.0068	2,928.22	76.344	2,928.22	80.2054	2,928.22	71.0356	2,928.22	77.8635	2,928.22	75.8999	2,928.22	63.8932	2,928.22	73.921	2,928.22	69.3741	2,928.22	71.2966	2,928.22	68.1921	2,928.22	74.736	2,928.22	69.0969	2,928.22	63.6884	2,928.22	73.4314	2,928.22	68.2697	2,928.22	74.7302	2,928.22	70.4276
3,030.76	87.9509	3,030.76	85.1049	3,030.76	87.9583	3,030.76	81.4937	3,030.76	85.3646	3,030.76	78.4906	3,030.76	80.2423	3,030.76	80.0809	3,030.76	82.1711	3,030.76	79.9228	3,030.76	84.1061	3,030.76	80.4025	3,030.76	82.7079	3,030.76	76.0738	3,030.76	81.0123	3,030.76	73.9137	3,030.76	77.7659	3,030.76	77.4575	3,030.76	80.1392	3,030.76	76.3668	3,030.76	80.0154	3,030.76	72.4677	3,030.76	74.838	3,030.76	73.3265	3,030.76	69.1181	3,030.76	76.0473	3,030.76	65.8506	3,030.76	68.3098	3,030.76	69.6508	3,030.76	73.5155	3,030.76	69.6372	3,030.76	64.6765	3,030.76	74.7398	3,030.76	67.364	3,030.76	75.0311	3,030.76	67.9793
3,137.7	86.9867	3,137.7	84.3893	3,137.7	87.9071	3,137.7	82.1063	3,137.7	85.6829	3,137.7	79.3788	3,137.7	81.0547	3,137.7	81.0068	3,137.7	81.7194	3,137.7	80.7535	3,137.7	85.6905	3,137.7	79.6	3,137.7	85.0809	3,137.7	78.1375	3,137.7	82.8413	3,137.7	80.0715	3,137.7	80.3405	3,137.7	77.3244	3,137.7	79.8291	3,137.7	73.4591	3,137.7	79.8985	3,137.7	73.9696	3,137.7	76.1829	3,137.7	71.4668	3,137.7	73.2376	3,137.7	75.6917	3,137.7	70.0022	3,137.7	72.4687	3,137.7	69.7683	3,137.7	72.8772	3,137.7	70.1064	3,137.7	68.289	3,137.7	74.9334	3,137.7	67.7154	3,137.7	74.154	3,137.7	58.2262
3,249.02	86.6753	3,249.02	85.8391	3,249.02	88.2999	3,249.02	82.3415	3,249.02	86.3595	3,249.02	81.3436	3,249.02	82.7589	3,249.02	81.8706	3,249.02	81.6137	3,249.02	82.0336	3,249.02	85.2842	3,249.02	79.2771	3,249.02	86.0499	3,249.02	80.9494	3,249.02	85.2938	3,249.02	76.8932	3,249.02	83.7459	3,249.02	72.6908	3,249.02	80.2782	3,249.02	75.6181	3,249.02	78.5926	3,249.02	75.0747	3,249.02	77.6617	3,249.02	72.7495	3,249.02	75.6819	3,249.02	75.3353	3,249.02	68.5654	3,249.02	72.6403	3,249.02	70.6827	3,249.02	72.5684	3,249.02	71.5291	3,249.02	68.25	3,249.02	75.3915	3,249.02	69.3669	3,249.02	72.7558	3,249.02	66.2403
3,363.28	86.8426	3,363.28	85.9601	3,363.28	87.712	3,363.28	82.864	3,363.28	86.9837	3,363.28	82.4874	3,363.28	83.1699	3,363.28	82.8154	3,363.28	83.5993	3,363.28	80.7397	3,363.28	85.4264	3,363.28	80.4041	3,363.28	86.9132	3,363.28	78.2135	3,363.28	86.2349	3,363.28	76.3211	3,363.28	84.4412	3,363.28	79.6969	3,363.28	79.3171	3,363.28	75.695	3,363.28	76.9463	3,363.28	73.263	3,363.28	77.7013	3,363.28	70.4532	3,363.28	76.2522	3,363.28	73.8775	3,363.28	67.4974	3,363.28	72.994	3,363.28	70.2261	3,363.28	71.7094	3,363.28	71.4807	3,363.28	69.4882	3,363.28	76.4524	3,363.28	68.7788	3,363.28	73.1025	3,363.28	67.855
3,481.93	87.1127	3,481.93	85.8574	3,481.93	87.09	3,481.93	82.6476	3,481.93	86.7	3,481.93	83.2355	3,481.93	83.5597	3,481.93	82.6785	3,481.93	83.0392	3,481.93	80.5828	3,481.93	86.2785	3,481.93	80.0147	3,481.93	86.6236	3,481.93	77.8841	3,481.93	86.456	3,481.93	79.8049	3,481.93	83.0842	3,481.93	75.4874	3,481.93	76.1245	3,481.93	73.31	3,481.93	74.8186	3,481.93	75.3601	3,481.93	75.8254	3,481.93	73.7596	3,481.93	74.9475	3,481.93	71.0444	3,481.93	64.5187	3,481.93	74.262	3,481.93	68.4162	3,481.93	68.3968	3,481.93	72.3175	3,481.93	71.6552	3,481.93	75.9615	3,481.93	63.7325	3,481.93	72.8393	3,481.93	67.9748
3,604.98	87.0862	3,604.98	85.8676	3,604.98	86.9731	3,604.98	82.9944	3,604.98	86.2565	3,604.98	84.4421	3,604.98	83.8558	3,604.98	81.1857	3,604.98	83.4575	3,604.98	80.6312	3,604.98	86.5264	3,604.98	79.6959	3,604.98	86.9043	3,604.98	79.202	3,604.98	85.2859	3,604.98	70.692	3,604.98	78.0734	3,604.98	76.3754	3,604.98	64.4978	3,604.98	77.4879	3,604.98	64.5817	3,604.98	72.2311	3,604.98	71.4116	3,604.98	75.7095	3,604.98	74.5403	3,604.98	71.1216	3,604.98	66.6427	3,604.98	75.4328	3,604.98	62.1867	3,604.98	69.4492	3,604.98	73.8841	3,604.98	71.9039	3,604.98	76.0123	3,604.98	58.0061	3,604.98	69.5625	3,604.98	69.7649
3,732.42	87.9264	3,732.42	85.0905	3,732.42	86.8917	3,732.42	85.5884	3,732.42	86.6495	3,732.42	83.8487	3,732.42	84.1152	3,732.42	80.9951	3,732.42	84.1559	3,732.42	80.6342	3,732.42	85.9456	3,732.42	80.4821	3,732.42	86.6627	3,732.42	76.9746	3,732.42	84.7942	3,732.42	77.9939	3,732.42	80.2886	3,732.42	75.5775	3,732.42	75.9213	3,732.42	73.8081	3,732.42	72.4451	3,732.42	74.9963	3,732.42	58.4056	3,732.42	74.8319	3,732.42	74.1567	3,732.42	73.3272	3,732.42	69.2197	3,732.42	73.607	3,732.42	66.0303	3,732.42	71.8354	3,732.42	73.5649	3,732.42	71.0864	3,732.42	76.1052	3,732.42	64.392	3,732.42	68.3915	3,732.42	69.9556
3,864.26	87.3999	3,864.26	85.3558	3,864.26	86.999	3,864.26	86.0292	3,864.26	87.1114	3,864.26	81.9989	3,864.26	85.0602	3,864.26	82.4261	3,864.26	83.6331	3,864.26	81.2787	3,864.26	86.0386	3,864.26	79.8976	3,864.26	86.1927	3,864.26	79.5415	3,864.26	84.264	3,864.26	79.4324	3,864.26	81.1836	3,864.26	74.6425	3,864.26	76.2471	3,864.26	76.4684	3,864.26	77.9696	3,864.26	74.9176	3,864.26	61.4968	3,864.26	74.5635	3,864.26	73.5172	3,864.26	75.3375	3,864.26	68.8001	3,864.26	73.7377	3,864.26	68.034	3,864.26	74.3505	3,864.26	75.3258	3,864.26	69.561	3,864.26	76.862	3,864.26	66.9385	3,864.26	67.7066	3,864.26	68.6252
4,000.49	87.5125	4,000.49	86.3235	4,000.49	87.3759	4,000.49	85.5531	4,000.49	86.8712	4,000.49	83.2899	4,000.49	85.9608	4,000.49	83.0797	4,000.49	84.0167	4,000.49	82.2563	4,000.49	85.4408	4,000.49	80.712	4,000.49	86.6575	4,000.49	80.3366	4,000.49	82.7065	4,000.49	77.0577	4,000.49	79.4535	4,000.49	79.3676	4,000.49	80.1333	4,000.49	76.7473	4,000.49	79.4979	4,000.49	77.2701	4,000.49	69.4851	4,000.49	74.6072	4,000.49	65.0324	4,000.49	75.9409	4,000.49	67.4143	4,000.49	73.5789	4,000.49	70.3389	4,000.49	75.2557	4,000.49	76.8436	4,000.49	69.7753	4,000.49	76.4285	4,000.49	68.6013	4,000.49	67.9687	4,000.49	68.397
4,141.11	86.7155	4,141.11	86.8409	4,141.11	87.2619	4,141.11	86.2113	4,141.11	86.1082	4,141.11	84.6455	4,141.11	85.1873	4,141.11	83.809	4,141.11	83.2413	4,141.11	81.6318	4,141.11	85.0502	4,141.11	82.5064	4,141.11	85.9354	4,141.11	80.8183	4,141.11	79.9867	4,141.11	80.379	4,141.11	83.1411	4,141.11	77.9762	4,141.11	82.5298	4,141.11	74.3981	4,141.11	75.6098	4,141.11	76.8186	4,141.11	57.4103	4,141.11	74.349	4,141.11	71.5811	4,141.11	75.3783	4,141.11	71.5808	4,141.11	74.8925	4,141.11	71.3678	4,141.11	75.8042	4,141.11	76.664	4,141.11	70.1949	4,141.11	76.0587	4,141.11	71.213	4,141.11	68.8636	4,141.11	66.2446
4,287.6	87.056	4,287.6	87.7358	4,287.6	87.6958	4,287.6	86.2075	4,287.6	86.4507	4,287.6	85.5505	4,287.6	85.4052	4,287.6	83.137	4,287.6	83.1838	4,287.6	84.2316	4,287.6	83.6778	4,287.6	81.7685	4,287.6	84.3505	4,287.6	81.5457	4,287.6	82.0599	4,287.6	77.281	4,287.6	85.2957	4,287.6	77.9329	4,287.6	78.447	4,287.6	78.963	4,287.6	62.4479	4,287.6	73.2963	4,287.6	67.1212	4,287.6	75.813	4,287.6	69.6909	4,287.6	72.9316	4,287.6	70.7235	4,287.6	74.7549	4,287.6	71.3132	4,287.6	73.6712	4,287.6	76.5649	4,287.6	73.1926	4,287.6	74.944	4,287.6	70.1182	4,287.6	70.3766	4,287.6	58.7722
4,438.48	86.1047	4,438.48	88.0509	4,438.48	87.9144	4,438.48	85.695	4,438.48	87.0391	4,438.48	85.647	4,438.48	85.7526	4,438.48	84.531	4,438.48	83.1421	4,438.48	83.5599	4,438.48	84.0065	4,438.48	83.0546	4,438.48	81.3733	4,438.48	79.4323	4,438.48	85.3438	4,438.48	79.6843	4,438.48	84.9207	4,438.48	74.0004	4,438.48	68.9494	4,438.48	72.7125	4,438.48	70.3638	4,438.48	76.0038	4,438.48	72.0848	4,438.48	73.2989	4,438.48	70.8422	4,438.48	73.6715	4,438.48	63.6454	4,438.48	74.3655	4,438.48	70.5727	4,438.48	72.4218	4,438.48	76.9895	4,438.48	72.946	4,438.48	74.2528	4,438.48	70.9777	4,438.48	71.6326	4,438.48	65.8377
4,595.21	87.2033	4,595.21	88.0437	4,595.21	86.4706	4,595.21	87.4302	4,595.21	87.4968	4,595.21	85.7137	4,595.21	85.9511	4,595.21	85.0872	4,595.21	83.2947	4,595.21	84.0558	4,595.21	84.4794	4,595.21	80.8808	4,595.21	84.2219	4,595.21	77.7945	4,595.21	87.4183	4,595.21	76.6811	4,595.21	80.5448	4,595.21	77.4576	4,595.21	77.43	4,595.21	76.9621	4,595.21	66.8769	4,595.21	75.5067	4,595.21	71.9285	4,595.21	73.355	4,595.21	69.745	4,595.21	72.9144	4,595.21	64.076	4,595.21	74.5583	4,595.21	66.2031	4,595.21	73.2579	4,595.21	75.7574	4,595.21	72.6959	4,595.21	74.8042	4,595.21	65.5373	4,595.21	71.4138	4,595.21	65.3588
4,756.35	88.0615	4,756.35	88.6166	4,756.35	85.5859	4,756.35	87.0271	4,756.35	86.4601	4,756.35	84.7655	4,756.35	86.4186	4,756.35	85.0007	4,756.35	82.7347	4,756.35	82.6894	4,756.35	84.0016	4,756.35	80.2768	4,756.35	87.3462	4,756.35	77.6762	4,756.35	88.3325	4,756.35	78.4271	4,756.35	81.1272	4,756.35	76.0217	4,756.35	82.8891	4,756.35	75.7758	4,756.35	49.4437	4,756.35	74.7973	4,756.35	68.6674	4,756.35	75.2232	4,756.35	70.4348	4,756.35	72.7407	4,756.35	69.2486	4,756.35	74.9049	4,756.35	68.8317	4,756.35	73.4031	4,756.35	77.7251	4,756.35	71.7381	4,756.35	73.1727	4,756.35	70.301	4,756.35	70.6059	4,756.35	58.2767
4,924.8	88.1402	4,924.8	88.8084	4,924.8	86.5904	4,924.8	87.1298	4,924.8	86.7956	4,924.8	85.7401	4,924.8	85.7207	4,924.8	84.9992	4,924.8	82.838	4,924.8	82.6567	4,924.8	82.7196	4,924.8	80.9705	4,924.8	87.2674	4,924.8	80.5223	4,924.8	86.2323	4,924.8	80.1467	4,924.8	81.4474	4,924.8	78.3679	4,924.8	82.4021	4,924.8	77.9383	4,924.8	67.5052	4,924.8	77.1404	4,924.8	59.0688	4,924.8	76.548	4,924.8	71.9848	4,924.8	75.0698	4,924.8	71.8676	4,924.8	75.1878	4,924.8	71.5493	4,924.8	74.6505	4,924.8	77.7072	4,924.8	73.4599	4,924.8	73.4915	4,924.8	69.687	4,924.8	71.6731	4,924.8	65.381
5,097.66	89.6939	5,097.66	89.4198	5,097.66	86.2572	5,097.66	86.8105	5,097.66	86.8752	5,097.66	86.062	5,097.66	86.8846	5,097.66	84.8939	5,097.66	81.7755	5,097.66	83.5734	5,097.66	81.2371	5,097.66	83.1974	5,097.66	87.0796	5,097.66	82.3354	5,097.66	82.1878	5,097.66	81.0412	5,097.66	82.0258	5,097.66	79.6288	5,097.66	78.9923	5,097.66	76.6162	5,097.66	68.5841	5,097.66	77.4142	5,097.66	61.5232	5,097.66	74.6554	5,097.66	71.3446	5,097.66	76.0422	5,097.66	67.7075	5,097.66	75.8596	5,097.66	69.7147	5,097.66	74.8939	5,097.66	74.6824	5,097.66	74.6361	5,097.66	73.996	5,097.66	71.9451	5,097.66	66.1035	5,097.66	58.4372
5,277.83	89.5157	5,277.83	88.2172	5,277.83	86.5403	5,277.83	86.9099	5,277.83	85.9115	5,277.83	87.3751	5,277.83	86.9029	5,277.83	85.5261	5,277.83	83.2608	5,277.83	84.9247	5,277.83	76.9365	5,277.83	83.9626	5,277.83	85.2603	5,277.83	83.3809	5,277.83	79.6507	5,277.83	79.5061	5,277.83	82.6593	5,277.83	79.2251	5,277.83	78.6199	5,277.83	76.5007	5,277.83	71.6083	5,277.83	76.3138	5,277.83	69.3856	5,277.83	75.6004	5,277.83	71.6001	5,277.83	74.8752	5,277.83	72.0718	5,277.83	75.0972	5,277.83	70.555	5,277.83	76.3464	5,277.83	75.4765	5,277.83	73.8549	5,277.83	74.6172	5,277.83	72.783	5,277.83	68.9598	5,277.83	65.8939
5,463.87	90.2101	5,463.87	88.515	5,463.87	88.1009	5,463.87	87.5259	5,463.87	86.8046	5,463.87	87.5529	5,463.87	85.9276	5,463.87	85.335	5,463.87	84.7664	5,463.87	85.4402	5,463.87	73.7488	5,463.87	84.4455	5,463.87	82.8762	5,463.87	81.3749	5,463.87	82.2481	5,463.87	81.0477	5,463.87	82.5427	5,463.87	77.3182	5,463.87	80.585	5,463.87	76.0697	5,463.87	77.7722	5,463.87	74.0062	5,463.87	71.6186	5,463.87	74.8551	5,463.87	68.7096	5,463.87	73.0964	5,463.87	72.4759	5,463.87	74.6502	5,463.87	64.7539	5,463.87	75.0686	5,463.87	74.9589	5,463.87	73.6588	5,463.87	74.1632	5,463.87	71.091	5,463.87	68.2584	5,463.87	65.8526
5,657.23	89.346	5,657.23	87.6001	5,657.23	87.7874	5,657.23	88.163	5,657.23	86.7686	5,657.23	87.9816	5,657.23	86.6114	5,657.23	85.8794	5,657.23	83.8928	5,657.23	85.6235	5,657.23	78.6266	5,657.23	83.8069	5,657.23	81.1641	5,657.23	81.4391	5,657.23	83.6677	5,657.23	77.9451	5,657.23	82.7032	5,657.23	78.134	5,657.23	82.1803	5,657.23	75.8098	5,657.23	77.3057	5,657.23	75.6169	5,657.23	71.6371	5,657.23	73.1686	5,657.23	54.6014	5,657.23	73.4684	5,657.23	69.3155	5,657.23	73.0849	5,657.23	63.4918	5,657.23	74.5972	5,657.23	76.6276	5,657.23	73.7707	5,657.23	72.6563	5,657.23	72.3318	5,657.23	66.1912	5,657.23	70.2927
5,856.45	89.2214	5,856.45	88.2773	5,856.45	87.9268	5,856.45	89.3356	5,856.45	87.0811	5,856.45	87.3362	5,856.45	88.0021	5,856.45	85.7982	5,856.45	85.2979	5,856.45	85.4936	5,856.45	79.9252	5,856.45	82.2114	5,856.45	81.2484	5,856.45	81.8317	5,856.45	84.5057	5,856.45	80.2073	5,856.45	82.7516	5,856.45	77.757	5,856.45	80.2329	5,856.45	76.5209	5,856.45	70.2027	5,856.45	75.7835	5,856.45	68.8914	5,856.45	75.6458	5,856.45	56.1233	5,856.45	73.903	5,856.45	72.5774	5,856.45	73.4625	5,856.45	69.4292	5,856.45	74.8715	5,856.45	76.4487	5,856.45	73.3137	5,856.45	73.27	5,856.45	72.6318	5,856.45	64.5676	5,856.45	69.7126
6,062.99	89.5647	6,062.99	89.103	6,062.99	87.9344	6,062.99	89.2813	6,062.99	85.9532	6,062.99	87.3808	6,062.99	88.257	6,062.99	86.7447	6,062.99	86.7931	6,062.99	84.9454	6,062.99	79.9999	6,062.99	84.4228	6,062.99	80.4795	6,062.99	83.0131	6,062.99	85.476	6,062.99	81.3121	6,062.99	84.0028	6,062.99	79.7039	6,062.99	79.1797	6,062.99	76.7523	6,062.99	69.4092	6,062.99	75.8264	6,062.99	65.7455	6,062.99	75.9962	6,062.99	62.7144	6,062.99	73.8579	6,062.99	68.3543	6,062.99	74.8764	6,062.99	64.5852	6,062.99	75.4184	6,062.99	74.8125	6,062.99	74.5729	6,062.99	73.977	6,062.99	72.9382	6,062.99	58.2272	6,062.99	67.4578
6,276.86	89.5461	6,276.86	89.2399	6,276.86	88.7898	6,276.86	88.8636	6,276.86	84.8253	6,276.86	87.8487	6,276.86	86.6433	6,276.86	86.566	6,276.86	87.4717	6,276.86	86.4861	6,276.86	81.8821	6,276.86	85.0156	6,276.86	78.6098	6,276.86	84.0499	6,276.86	86.4591	6,276.86	80.1024	6,276.86	83.5092	6,276.86	78.3647	6,276.86	77.8087	6,276.86	75.5781	6,276.86	77.3115	6,276.86	74.858	6,276.86	62.9667	6,276.86	73.9008	6,276.86	66.1715	6,276.86	74.048	6,276.86	68.3416	6,276.86	74.1563	6,276.86	67.3828	6,276.86	74.4236	6,276.86	75.4502	6,276.86	74.4277	6,276.86	74.1027	6,276.86	72.849	6,276.86	61.2457	6,276.86	65.6218
6,498.05	89.4232	6,498.05	88.82	6,498.05	89.7246	6,498.05	88.0846	6,498.05	87.2325	6,498.05	88.7685	6,498.05	85.99	6,498.05	87.2946	6,498.05	87.6393	6,498.05	86.703	6,498.05	84.7974	6,498.05	84.8812	6,498.05	80.893	6,498.05	82.4516	6,498.05	86.5366	6,498.05	80.6196	6,498.05	79.6733	6,498.05	76.2059	6,498.05	80.4088	6,498.05	75.461	6,498.05	76.9768	6,498.05	72.2134	6,498.05	72.0475	6,498.05	72.4997	6,498.05	66.3679	6,498.05	71.2858	6,498.05	68.2888	6,498.05	72.2704	6,498.05	67.1841	6,498.05	73.8602	6,498.05	75.7856	6,498.05	73.3697	6,498.05	74.1928	6,498.05	71.8773	6,498.05	62.2626	6,498.05	64.5623
6,726.56	88.2986	6,726.56	88.8039	6,726.56	89.4757	6,726.56	88.1194	6,726.56	87.9186	6,726.56	89.1555	6,726.56	87.0209	6,726.56	86.957	6,726.56	87.565	6,726.56	86.6886	6,726.56	85.4262	6,726.56	83.7487	6,726.56	83.089	6,726.56	81.0163	6,726.56	83.6189	6,726.56	78.8116	6,726.56	78.1982	6,726.56	74.6603	6,726.56	81.1864	6,726.56	72.8891	6,726.56	75.4551	6,726.56	71.792	6,726.56	73.6058	6,726.56	70.8665	6,726.56	60.8194	6,726.56	70.9912	6,726.56	60.946	6,726.56	68.5716	6,726.56	68.0489	6,726.56	71.5256	6,726.56	74.6137	6,726.56	71.1752	6,726.56	72.7064	6,726.56	70.5006	6,726.56	61.5687	6,726.56	66.9775
6,963.87	88.7195	6,963.87	88.5877	6,963.87	89.7023	6,963.87	89.3751	6,963.87	88.9653	6,963.87	89.1731	6,963.87	87.6036	6,963.87	87.5863	6,963.87	88.6345	6,963.87	85.277	6,963.87	86.6971	6,963.87	82.6839	6,963.87	81.9828	6,963.87	79.6985	6,963.87	80.7383	6,963.87	77.2347	6,963.87	81.9738	6,963.87	75.8381	6,963.87	76.5746	6,963.87	73.772	6,963.87	75.5154	6,963.87	72.1558	6,963.87	73.6519	6,963.87	71.1607	6,963.87	64.0044	6,963.87	71.3716	6,963.87	53.7695	6,963.87	68.6751	6,963.87	69.018	6,963.87	70.4033	6,963.87	72.6506	6,963.87	71.4986	6,963.87	74.1761	6,963.87	68.9045	6,963.87	56.8556	6,963.87	68.4541
7,209.96	89.2427	7,209.96	89.0688	7,209.96	88.5014	7,209.96	90.441	7,209.96	89.6771	7,209.96	89.3963	7,209.96	87.8874	7,209.96	87.0611	7,209.96	87.0473	7,209.96	85.7859	7,209.96	85.6731	7,209.96	81.5226	7,209.96	78.5622	7,209.96	81.3124	7,209.96	83.2857	7,209.96	78.0509	7,209.96	83.7971	7,209.96	76.6562	7,209.96	78.4166	7,209.96	74.3516	7,209.96	76.9261	7,209.96	72.0468	7,209.96	68.1299	7,209.96	72.2776	7,209.96	57.2161	7,209.96	72.1822	7,209.96	64.5376	7,209.96	70.6528	7,209.96	69.4912	7,209.96	71.5964	7,209.96	71.6107	7,209.96	69.4851	7,209.96	73.7165	7,209.96	67.2188	7,209.96	57.5163	7,209.96	68.6724
7,464.84	89.9906	7,464.84	89.2434	7,464.84	88.629	7,464.84	90.9105	7,464.84	90.0753	7,464.84	89.0739	7,464.84	88.6042	7,464.84	87.0259	7,464.84	87.468	7,464.84	85.6818	7,464.84	86.1051	7,464.84	82.3019	7,464.84	77.1715	7,464.84	81.8142	7,464.84	85.7868	7,464.84	78.3951	7,464.84	83.2755	7,464.84	75.1393	7,464.84	80.4088	7,464.84	73.3681	7,464.84	76.865	7,464.84	70.0294	7,464.84	65.2479	7,464.84	70.899	7,464.84	58.3268	7,464.84	71.3372	7,464.84	55.3827	7,464.84	71.398	7,464.84	67.8291	7,464.84	71.6737	7,464.84	72.9085	7,464.84	68.0707	7,464.84	71.8961	7,464.84	67.4363	7,464.84	54.7596	7,464.84	65.029
7,727.05	90.6271	7,727.05	89.7879	7,727.05	89.0338	7,727.05	90.8589	7,727.05	90.1045	7,727.05	88.6594	7,727.05	89.1833	7,727.05	87.3571	7,727.05	88.2173	7,727.05	85.1671	7,727.05	86.2889	7,727.05	82.4939	7,727.05	81.2682	7,727.05	79.7665	7,727.05	85.3389	7,727.05	76.8116	7,727.05	76.7172	7,727.05	73.4713	7,727.05	77.359	7,727.05	72.6823	7,727.05	73.1207	7,727.05	68.3993	7,727.05	64.8361	7,727.05	69.5222	7,727.05	66.7346	7,727.05	69.1698	7,727.05	60.7457	7,727.05	69.003	7,727.05	63.0415	7,727.05	71.0052	7,727.05	71.9454	7,727.05	68.8204	7,727.05	71.6763	7,727.05	66.7374	7,727.05	56.297	7,727.05	62.0864
7,999.51	90.7508	7,999.51	90.0258	7,999.51	89.6402	7,999.51	90.6152	7,999.51	90.3232	7,999.51	89.3928	7,999.51	89.1232	7,999.51	86.7104	7,999.51	88.8808	7,999.51	84.8569	7,999.51	86.4054	7,999.51	80.6224	7,999.51	82.7044	7,999.51	78.847	7,999.51	80.007	7,999.51	74.6389	7,999.51	81.2287	7,999.51	73.6847	7,999.51	76.3864	7,999.51	71.3958	7,999.51	76.0212	7,999.51	69.8072	7,999.51	67.8516	7,999.51	68.8653	7,999.51	68.2995	7,999.51	69.3472	7,999.51	60.2072	7,999.51	67.8524	7,999.51	54.4773	7,999.51	69.2138	7,999.51	70.8735	7,999.51	69.0479	7,999.51	72.5288	7,999.51	65.746	7,999.51	55.3751	7,999.51	64.7009
8,282.23	90.3863	8,282.23	90.5724	8,282.23	89.5527	8,282.23	90.4662	8,282.23	90.2431	8,282.23	89.923	8,282.23	88.9965	8,282.23	85.6566	8,282.23	88.3615	8,282.23	84.4965	8,282.23	87.1415	8,282.23	80.4151	8,282.23	79.6786	8,282.23	77.9763	8,282.23	76.5804	8,282.23	75.2025	8,282.23	82.3988	8,282.23	73.9612	8,282.23	77.4536	8,282.23	71.4317	8,282.23	75.6309	8,282.23	70.1387	8,282.23	64.9527	8,282.23	68.8412	8,282.23	65.0367	8,282.23	70.0363	8,282.23	64.1087	8,282.23	70.0298	8,282.23	65.1837	8,282.23	68.8459	8,282.23	69.7275	8,282.23	69.9303	8,282.23	70.5336	8,282.23	63.5248	8,282.23	52.372	8,282.23	63.5499
8,573.73	90.3934	8,573.73	90.1951	8,573.73	90.2418	8,573.73	90.8358	8,573.73	89.7976	8,573.73	89.4907	8,573.73	89.6309	8,573.73	85.8232	8,573.73	88.559	8,573.73	83.9706	8,573.73	87.1504	8,573.73	79.6685	8,573.73	74.3481	8,573.73	77.9599	8,573.73	78.1831	8,573.73	74.8688	8,573.73	81.0715	8,573.73	73.2897	8,573.73	76.5742	8,573.73	70.4997	8,573.73	74.6504	8,573.73	69.6942	8,573.73	56.9484	8,573.73	66.6337	8,573.73	59.8918	8,573.73	69.1781	8,573.73	55.288	8,573.73	69.4435	8,573.73	61.5266	8,573.73	70.6254	8,573.73	70.4174	8,573.73	69.6013	8,573.73	69.365	8,573.73	66.4991	8,573.73	49.0684	8,573.73	62.1959
8,876.95	90.3638	8,876.95	90.8178	8,876.95	90.7196	8,876.95	91.2052	8,876.95	89.5683	8,876.95	88.6437	8,876.95	89.8469	8,876.95	86.3189	8,876.95	87.5217	8,876.95	82.4901	8,876.95	86.2899	8,876.95	79.1	8,876.95	76.0041	8,876.95	77.2961	8,876.95	80.0012	8,876.95	73.317	8,876.95	78.2031	8,876.95	71.9962	8,876.95	75.0545	8,876.95	68.6377	8,876.95	70.4915	8,876.95	67.7911	8,876.95	60.4154	8,876.95	66.0614	8,876.95	60.8818	8,876.95	67.5815	8,876.95	52.58	8,876.95	65.0095	8,876.95	53.5742	8,876.95	70.3982	8,876.95	67.6826	8,876.95	69.2091	8,876.95	67.3746	8,876.95	66.197	8,876.95	48.5749	8,876.95	61.0093
9,188.96	90.4396	9,188.96	91.1759	9,188.96	90.3095	9,188.96	90.7782	9,188.96	89.2304	9,188.96	88.4841	9,188.96	89.6838	9,188.96	85.4908	9,188.96	86.2598	9,188.96	81.9651	9,188.96	85.7518	9,188.96	78.59	9,188.96	74.167	9,188.96	76.8389	9,188.96	76.749	9,188.96	73.169	9,188.96	75.2904	9,188.96	71.2655	9,188.96	75.7051	9,188.96	69.8646	9,188.96	70.7298	9,188.96	66.9292	9,188.96	67.2041	9,188.96	66.8898	9,188.96	58.32	9,188.96	68.2036	9,188.96	58.6318	9,188.96	67.3668	9,188.96	42.8876	9,188.96	68.5854	9,188.96	67.931	9,188.96	69.6378	9,188.96	66.0968	9,188.96	67.2801	9,188.96	59.3207	9,188.96	60.7613
9,514.16	90.6519	9,514.16	90.8409	9,514.16	90.4096	9,514.16	90.5125	9,514.16	88.5024	9,514.16	88.4508	9,514.16	89.106	9,514.16	84.2122	9,514.16	85.2057	9,514.16	82.3003	9,514.16	84.583	9,514.16	78.0581	9,514.16	70.8454	9,514.16	76.2209	9,514.16	72.5724	9,514.16	73.414	9,514.16	71.3391	9,514.16	71.2679	9,514.16	72.2594	9,514.16	69.7906	9,514.16	71.9103	9,514.16	65.3456	9,514.16	67.0371	9,514.16	66.5672	9,514.16	59.0981	9,514.16	67.3003	9,514.16	52.6227	9,514.16	68.342	9,514.16	58.2068	9,514.16	68.3408	9,514.16	67.3023	9,514.16	69.0725	9,514.16	64.6646	9,514.16	66.7223	9,514.16	58.7938	9,514.16	62.221
9,849.61	90.5388	9,849.61	90.7105	9,849.61	90.304	9,849.61	90.6887	9,849.61	88.6114	9,849.61	87.6615	9,849.61	88.1731	9,849.61	83.4659	9,849.61	84.5952	9,849.61	81.9105	9,849.61	83.4385	9,849.61	78.0972	9,849.61	72.4665	9,849.61	75.8514	9,849.61	72.4655	9,849.61	74.0862	9,849.61	70.4015	9,849.61	71.3326	9,849.61	66.8797	9,849.61	69.1401	9,849.61	65.7717	9,849.61	65.6786	9,849.61	64.065	9,849.61	66.1964	9,849.61	45.8123	9,849.61	66.5413	9,849.61	50.7529	9,849.61	67.6076	9,849.61	58.8776	9,849.61	69.1382	9,849.61	67.2459	9,849.61	68.2858	9,849.61	63.5103	9,849.61	66.2058	9,849.61	60.7823	9,849.61	60.5224
10,196.8	90.4158	10,196.8	90.8716	10,196.8	90.206	10,196.8	90.4175	10,196.8	89.0143	10,196.8	86.7605	10,196.8	87.2929	10,196.8	83.3315	10,196.8	83.9945	10,196.8	80.4515	10,196.8	82.656	10,196.8	78.7832	10,196.8	72.255	10,196.8	75.5506	10,196.8	69.0741	10,196.8	73.1077	10,196.8	73.324	10,196.8	71.0415	10,196.8	68.846	10,196.8	68.1371	10,196.8	64.5624	10,196.8	66.4359	10,196.8	61.0939	10,196.8	65.6009	10,196.8	46.2379	10,196.8	66.4062	10,196.8	55.4106	10,196.8	66.9145	10,196.8	57.7962	10,196.8	68.4163	10,196.8	65.6428	10,196.8	68.5443	10,196.8	62.5285	10,196.8	66.9749	10,196.8	60.7471	10,196.8	61.4792
10,555.7	90.6107	10,555.7	90.8274	10,555.7	90.2521	10,555.7	89.8274	10,555.7	89.1321	10,555.7	86.3648	10,555.7	86.8889	10,555.7	82.4789	10,555.7	83.156	10,555.7	79.8254	10,555.7	82.01	10,555.7	79.0762	10,555.7	74.5996	10,555.7	75.5038	10,555.7	68.6067	10,555.7	73.5208	10,555.7	71.1804	10,555.7	71.4855	10,555.7	69.6283	10,555.7	68.7309	10,555.7	67.1003	10,555.7	66.2043	10,555.7	62.9107	10,555.7	65.6677	10,555.7	54.684	10,555.7	66.2633	10,555.7	60.2718	10,555.7	67.8697	10,555.7	59.1234	10,555.7	68.6263	10,555.7	63.8879	10,555.7	68.8531	10,555.7	61.4682	10,555.7	67.2414	10,555.7	62.2393	10,555.7	62.944
10,927.7	90.7615	10,927.7	90.5564	10,927.7	90.3838	10,927.7	89.2589	10,927.7	89.123	10,927.7	85.8305	10,927.7	86.3149	10,927.7	81.1944	10,927.7	82.3181	10,927.7	80.7541	10,927.7	80.243	10,927.7	79.1984	10,927.7	77.4872	10,927.7	77.0241	10,927.7	65.7644	10,927.7	74.4497	10,927.7	70.9892	10,927.7	72.0123	10,927.7	64.0562	10,927.7	68.5279	10,927.7	64.9293	10,927.7	65.6448	10,927.7	63.1344	10,927.7	66.1468	10,927.7	54.2588	10,927.7	65.2758	10,927.7	57.0165	10,927.7	67.9991	10,927.7	61.0206	10,927.7	68.4144	10,927.7	61.3215	10,927.7	69.4272	10,927.7	58.977	10,927.7	66.2672	10,927.7	63.1506	10,927.7	63.3257
11,313	90.5895	11,313	90.1969	11,313	90.1301	11,313	88.7926	11,313	88.4441	11,313	84.5158	11,313	85.6085	11,313	82.0579	11,313	81.9346	11,313	80.6796	11,313	79.4759	11,313	80.5026	11,313	79.7072	11,313	77.1543	11,313	68.0003	11,313	73.4972	11,313	75.2574	11,313	71.2415	11,313	67.8359	11,313	67.2954	11,313	66.2953	11,313	65.1489	11,313	60.8346	11,313	65.0004	11,313	53.6254	11,313	65.3406	11,313	55.3297	11,313	66.2568	11,313	58.1231	11,313	67.698	11,313	61.9073	11,313	67.5577	11,313	61.2356	11,313	65.3232	11,313	62.0173	11,313	63.2289
11,712.9	91.086	11,712.9	90.7893	11,712.9	89.9787	11,712.9	88.7275	11,712.9	88.2509	11,712.9	84.3526	11,712.9	85.5196	11,712.9	82.4861	11,712.9	82.2118	11,712.9	80.7435	11,712.9	79.8614	11,712.9	80.5016	11,712.9	79.6898	11,712.9	76.4925	11,712.9	65.1563	11,712.9	73.0043	11,712.9	74.8826	11,712.9	70.8236	11,712.9	66.1528	11,712.9	66.4277	11,712.9	65.5677	11,712.9	63.4784	11,712.9	57.9917	11,712.9	64.8189	11,712.9	59.0158	11,712.9	63.7126	11,712.9	57.9285	11,712.9	67.0311	11,712.9	59.2929	11,712.9	67.3002	11,712.9	59.1532	11,712.9	66.9963	11,712.9	59.8527	11,712.9	62.6665	11,712.9	61.2518	11,712.9	61.7979
12,126	91.1092	12,126	90.5853	12,126	90.1603	12,126	87.8745	12,126	87.6672	12,126	84.2911	12,126	85.5022	12,126	82.1889	12,126	81.6645	12,126	81.5285	12,126	79.1341	12,126	79.7149	12,126	80.5125	12,126	76.5999	12,126	71.2063	12,126	72.3214	12,126	72.3985	12,126	68.8584	12,126	65.8737	12,126	65.9668	12,126	63.4386	12,126	62.019	12,126	66.0388	12,126	63.1283	12,126	59.379	12,126	59.8192	12,126	53.1293	12,126	66.4207	12,126	58.6936	12,126	67.2642	12,126	60.5173	12,126	65.8212	12,126	59.7207	12,126	63.2761	12,126	60.2259	12,126	59.7796
12,553.7	90.9036	12,553.7	89.8909	12,553.7	90.0897	12,553.7	87.8258	12,553.7	87.1941	12,553.7	83.4301	12,553.7	84.4361	12,553.7	83.2188	12,553.7	80.2293	12,553.7	80.7998	12,553.7	81.0593	12,553.7	79.0596	12,553.7	79.774	12,553.7	74.4837	12,553.7	72.1702	12,553.7	71.0701	12,553.7	72.1508	12,553.7	67.6823	12,553.7	71.4021	12,553.7	64.3236	12,553.7	65.1032	12,553.7	62.0876	12,553.7	65.7551	12,553.7	62.1973	12,553.7	57.76	12,553.7	59.147	12,553.7	57.0392	12,553.7	65.9914	12,553.7	57.5284	12,553.7	65.4562	12,553.7	58.6064	12,553.7	64.7872	12,553.7	58.7158	12,553.7	60.4934	12,553.7	56.5264	12,553.7	57.0586
12,996.1	90.5443	12,996.1	89.9654	12,996.1	89.8058	12,996.1	86.8272	12,996.1	87.134	12,996.1	84.0598	12,996.1	84.655	12,996.1	82.9376	12,996.1	80.1001	12,996.1	80.3134	12,996.1	79.3939	12,996.1	78.4143	12,996.1	80.0731	12,996.1	74.0495	12,996.1	71.8043	12,996.1	71.0395	12,996.1	73.1153	12,996.1	66.4357	12,996.1	68.1941	12,996.1	63.8943	12,996.1	64.0855	12,996.1	61.6016	12,996.1	66.5527	12,996.1	61.1057	12,996.1	61.8031	12,996.1	59.2934	12,996.1	52.8699	12,996.1	65.9228	12,996.1	60.844	12,996.1	65.1741	12,996.1	57.4389	12,996.1	65.2351	12,996.1	55.6341	12,996.1	61.3193	12,996.1	55.2824	12,996.1	58.2035
13,454.6	90.1998	13,454.6	89.2139	13,454.6	89.2043	13,454.6	86.1003	13,454.6	86.5128	13,454.6	83.8509	13,454.6	83.5582	13,454.6	82.8084	13,454.6	82.3732	13,454.6	79.9591	13,454.6	81.5384	13,454.6	77.8507	13,454.6	79.8596	13,454.6	73.5216	13,454.6	72.2571	13,454.6	70.3598	13,454.6	71.1948	13,454.6	66.8488	13,454.6	68.2323	13,454.6	63.0191	13,454.6	65.735	13,454.6	61.1231	13,454.6	69.1824	13,454.6	61.9665	13,454.6	58.2255	13,454.6	58.053	13,454.6	52.2838	13,454.6	64.2465	13,454.6	57.4883	13,454.6	64.2207	13,454.6	60.1239	13,454.6	64.5288	13,454.6	54.1628	13,454.6	65.0359	13,454.6	56.9081	13,454.6	59.9344
13,929.2	89.8577	13,929.2	88.302	13,929.2	88.6323	13,929.2	85.9943	13,929.2	85.5333	13,929.2	83.6083	13,929.2	82.257	13,929.2	82.8212	13,929.2	82.1903	13,929.2	79.6352	13,929.2	81.5394	13,929.2	77.9099	13,929.2	76.855	13,929.2	73.4293	13,929.2	71.5499	13,929.2	70.892	13,929.2	64.436	13,929.2	66.3102	13,929.2	67.8556	13,929.2	62.3775	13,929.2	58.8707	13,929.2	60.4057	13,929.2	66.153	13,929.2	60.0112	13,929.2	58.0992	13,929.2	58.1061	13,929.2	53.6601	13,929.2	64.1765	13,929.2	60.7834	13,929.2	64.2744	13,929.2	55.9069	13,929.2	65.3976	13,929.2	57.7864	13,929.2	63.87	13,929.2	49.4313	13,929.2	58.2811
14,419.9	89.3757	14,419.9	87.9464	14,419.9	88.1241	14,419.9	85.6748	14,419.9	84.8358	14,419.9	84.0109	14,419.9	82.8771	14,419.9	81.8997	14,419.9	82.3858	14,419.9	79.459	14,419.9	79.5185	14,419.9	77.8319	14,419.9	76.4837	14,419.9	72.6418	14,419.9	68.0543	14,419.9	69.6948	14,419.9	60.9187	14,419.9	65.6535	14,419.9	63.4064	14,419.9	60.9999	14,419.9	53.8882	14,419.9	59.964	14,419.9	66.5274	14,419.9	59.1023	14,419.9	54.7666	14,419.9	57.9697	14,419.9	41.8379	14,419.9	63.2622	14,419.9	56.7626	14,419.9	63.4963	14,419.9	55.127	14,419.9	62.6268	14,419.9	56.3183	14,419.9	64.2985	14,419.9	48.4195	14,419.9	57.7981
14,928.2	88.9902	14,928.2	87.3998	14,928.2	87.7403	14,928.2	85.8446	14,928.2	84.7381	14,928.2	83.1091	14,928.2	83.6514	14,928.2	82.0452	14,928.2	82.3919	14,928.2	78.9614	14,928.2	79.6226	14,928.2	77.5451	14,928.2	74.5627	14,928.2	72.3227	14,928.2	67.7229	14,928.2	69.6485	14,928.2	56.5116	14,928.2	64.4928	14,928.2	59.4683	14,928.2	60.3198	14,928.2	43.3628	14,928.2	57.3085	14,928.2	66.6334	14,928.2	58.126	14,928.2	55.105	14,928.2	56.9185	14,928.2	51.3399	14,928.2	62.6259	14,928.2	58.6848	14,928.2	62.4915	14,928.2	59.157	14,928.2	62.9169	14,928.2	53.3891	14,928.2	62.2301	14,928.2	50.5103	14,928.2	57.0796
15,455.6	88.3609	15,455.6	87.1675	15,455.6	87.384	15,455.6	85.6996	15,455.6	84.8045	15,455.6	83.4303	15,455.6	83.845	15,455.6	81.3737	15,455.6	82.638	15,455.6	78.1581	15,455.6	78.8002	15,455.6	77.0697	15,455.6	68.2215	15,455.6	70.6095	15,455.6	68.6068	15,455.6	67.7304	15,455.6	47.5754	15,455.6	63.092	15,455.6	53.1791	15,455.6	59.0401	15,455.6	58.5103	15,455.6	56.9	15,455.6	67.3933	15,455.6	54.8379	15,455.6	56.6705	15,455.6	56.3268	15,455.6	49.53	15,455.6	61.4136	15,455.6	57.2925	15,455.6	61.9057	15,455.6	54.6845	15,455.6	61.2594	15,455.6	54.4758	15,455.6	60.3577	15,455.6	49.3193	15,455.6	54.736
16,000.5	87.4897	16,000.5	86.5746	16,000.5	87.0265	16,000.5	86.1075	16,000.5	84.9944	16,000.5	83.3727	16,000.5	83.9656	16,000.5	81.1704	16,000.5	81.5139	16,000.5	77.4363	16,000.5	76.3006	16,000.5	75.754	16,000.5	71.1281	16,000.5	69.8943	16,000.5	69.355	16,000.5	66.5288	16,000.5	54.7407	16,000.5	59.8535	16,000.5	46.2965	16,000.5	56.4372	16,000.5	63.866	16,000.5	54.9027	16,000.5	68.9289	16,000.5	53.9902	16,000.5	57.4859	16,000.5	53.4229	16,000.5	40.6406	16,000.5	59.4659	16,000.5	56.7584	16,000.5	60.1847	16,000.5	53.9698	16,000.5	59.9012	16,000.5	51.6418	16,000.5	58.217	16,000.5	44.599	16,000.5	53.4478
16,564.5	86.6788	16,564.5	86.0654	16,564.5	86.4589	16,564.5	86.372	16,564.5	85.1559	16,564.5	83.3537	16,564.5	83.4078	16,564.5	80.7933	16,564.5	81.1117	16,564.5	76.3668	16,564.5	76.1766	16,564.5	75.2923	16,564.5	69.7241	16,564.5	67.8229	16,564.5	70.8382	16,564.5	64.3361	16,564.5	54.5615	16,564.5	58.337	16,564.5	51.7629	16,564.5	54.6968	16,564.5	66.0271	16,564.5	53.6659	16,564.5	69.3574	16,564.5	51.0409	16,564.5	56.5563	16,564.5	52.1061	16,564.5	40.7767	16,564.5	58.0116	16,564.5	57.031	16,564.5	58.4419	16,564.5	51.9301	16,564.5	58.5174	16,564.5	48.5566	16,564.5	55.4062	16,564.5	39.5479	16,564.5	49.0069
17,148.9	85.7605	17,148.9	85.8362	17,148.9	86.1448	17,148.9	86.3205	17,148.9	85.0276	17,148.9	83.0477	17,148.9	83.0775	17,148.9	80.4238	17,148.9	79.9252	17,148.9	75.9482	17,148.9	75.0703	17,148.9	74.1904	17,148.9	72.8529	17,148.9	66.9663	17,148.9	70.045	17,148.9	62.3437	17,148.9	60.0484	17,148.9	54.9492	17,148.9	52.452	17,148.9	53.1764	17,148.9	67.7774	17,148.9	53.1651	17,148.9	68.6417	17,148.9	50.0166	17,148.9	56.6066	17,148.9	52.6439	17,148.9	39.3278	17,148.9	56.2937	17,148.9	53.2574	17,148.9	57.2158	17,148.9	49.5316	17,148.9	57.1351	17,148.9	46.4449	17,148.9	53.6235	17,148.9	32.7924	17,148.9	47.1603
17,752.4	85.2553	17,752.4	85.8347	17,752.4	85.7529	17,752.4	86.2123	17,752.4	85.032	17,752.4	82.5171	17,752.4	82.7069	17,752.4	80.2224	17,752.4	79.4638	17,752.4	75.2951	17,752.4	76.0807	17,752.4	73.4593	17,752.4	71.8606	17,752.4	64.8245	17,752.4	69.5047	17,752.4	61.7814	17,752.4	56.6337	17,752.4	54.46	17,752.4	51.9413	17,752.4	53.1298	17,752.4	68.3802	17,752.4	51.6832	17,752.4	68.4126	17,752.4	49.996	17,752.4	56.7696	17,752.4	52.7165	17,752.4	39.2309	17,752.4	54.8896	17,752.4	51.5874	17,752.4	56.8641	17,752.4	46.4944	17,752.4	57.2986	17,752.4	46.9103	17,752.4	53.5292	17,752.4	33.6307	17,752.4	48.1153
18,379.4	85.0089	18,379.4	86.0156	18,379.4	85.6312	18,379.4	86.0902	18,379.4	85.1307	18,379.4	82.0999	18,379.4	82.6417	18,379.4	79.8506	18,379.4	78.7138	18,379.4	74.2963	18,379.4	74.9999	18,379.4	71.7625	18,379.4	71.1339	18,379.4	63.1544	18,379.4	67.9125	18,379.4	59.6458	18,379.4	54.8694	18,379.4	52.0294	18,379.4	51.6438	18,379.4	53.5284	18,379.4	68.6415	18,379.4	48.1892	18,379.4	67.1645	18,379.4	48.7499	18,379.4	57.0695	18,379.4	51.7059	18,379.4	41.0681	18,379.4	54.8651	18,379.4	52.0637	18,379.4	55.3228	18,379.4	43.2757	18,379.4	55.7095	18,379.4	39.9415	18,379.4	52.111	18,379.4	29.8777	18,379.4	47.4339
19,026.9	85.0473	19,026.9	85.9796	19,026.9	85.6801	19,026.9	85.9247	19,026.9	85.029	19,026.9	81.6191	19,026.9	82.3979	19,026.9	79.3486	19,026.9	78.2647	19,026.9	73.0383	19,026.9	74.8856	19,026.9	69.7775	19,026.9	68.9305	19,026.9	60.285	19,026.9	64.635	19,026.9	57.8623	19,026.9	46.952	19,026.9	49.8656	19,026.9	53.7577	19,026.9	51.6055	19,026.9	68.5848	19,026.9	46.0715	19,026.9	66.2504	19,026.9	47.3341	19,026.9	55.4165	19,026.9	50.907	19,026.9	44.9155	19,026.9	53.0786	19,026.9	52.0314	19,026.9	53.1624	19,026.9	43.1776	19,026.9	53.8811	19,026.9	35.0027	19,026.9	48.4904	19,026.9	24.6053	19,026.9	45.5166
19,697.8	84.9982	19,697.8	85.8198	19,697.8	85.8134	19,697.8	85.7021	19,697.8	84.8787	19,697.8	81.1574	19,697.8	82.0763	19,697.8	78.8156	19,697.8	77.8414	19,697.8	71.5967	19,697.8	73.693	19,697.8	67.0017	19,697.8	66.453	19,697.8	57.1317	19,697.8	58.7381	19,697.8	56.1069	19,697.8	52.7658	19,697.8	51.6307	19,697.8	57.0575	19,697.8	50.1397	19,697.8	69.1125	19,697.8	46.0717	19,697.8	65.5502	19,697.8	45.7035	19,697.8	54.7634	19,697.8	48.5491	19,697.8	43.2824	19,697.8	51.3022	19,697.8	50.9961	19,697.8	50.755	19,697.8	44.8095	19,697.8	51.5009	19,697.8	38.4029	19,697.8	44.5049	19,697.8	24.938	19,697.8	42.9327
19,999.5	85.1948	19,999.5	85.859	19,999.5	85.8677	19,999.5	85.654	19,999.5	84.9916	19,999.5	80.8663	19,999.5	82.2769	19,999.5	78.969	19,999.5	77.9426	19,999.5	70.4355	19,999.5	72.0837	19,999.5	65.3208	19,999.5	60.8741	19,999.5	56.3111	19,999.5	50.4968	19,999.5	56.5325	19,999.5	63.1253	19,999.5	51.9525	19,999.5	60.8848	19,999.5	44.1667	19,999.5	69.706	19,999.5	44.8308	19,999.5	64.6524	19,999.5	50.6018	19,999.5	53.4017	19,999.5	49.0425	19,999.5	47.2712	19,999.5	53.339	19,999.5	57.779	19,999.5	52.9647	19,999.5	55.4001	19,999.5	51.6695	19,999.5	48.2547	19,999.5	52.527	19,999.5	45.4676	19,999.5	49.7252
