"SPL Vertical"																																																																							
"On-Axis"		"10°"		"-10°"		"20°"		"-20°"		"30°"		"-30°"		"40°"		"-40°"		"50°"		"-50°"		"60°"		"-60°"		"70°"		"-70°"		"80°"		"-80°"		"90°"		"-90°"		"100°"		"-100°"		"110°"		"-110°"		"120°"		"-120°"		"130°"		"-130°"		"140°"		"-140°"		"150°"		"-150°"		"160°"		"-160°"		"170°"		"-170°"		"180°"	
"Frequency [Hz]"	"Sound Pessure Level [dB]  / [2.83V 1m] "	"Frequency [Hz]"	"Sound Pessure Level [dB]  / [2.83V 1m] "	"Frequency [Hz]"	"Sound Pessure Level [dB]  / [2.83V 1m] "	"Frequency [Hz]"	"Sound Pessure Level [dB]  / [2.83V 1m] "	"Frequency [Hz]"	"Sound Pessure Level [dB]  / [2.83V 1m] "	"Frequency [Hz]"	"Sound Pessure Level [dB]  / [2.83V 1m] "	"Frequency [Hz]"	"Sound Pessure Level [dB]  / [2.83V 1m] "	"Frequency [Hz]"	"Sound Pessure Level [dB]  / [2.83V 1m] "	"Frequency [Hz]"	"Sound Pessure Level [dB]  / [2.83V 1m] "	"Frequency [Hz]"	"Sound Pessure Level [dB]  / [2.83V 1m] "	"Frequency [Hz]"	"Sound Pessure Level [dB]  / [2.83V 1m] "	"Frequency [Hz]"	"Sound Pessure Level [dB]  / [2.83V 1m] "	"Frequency [Hz]"	"Sound Pessure Level [dB]  / [2.83V 1m] "	"Frequency [Hz]"	"Sound Pessure Level [dB]  / [2.83V 1m] "	"Frequency [Hz]"	"Sound Pessure Level [dB]  / [2.83V 1m] "	"Frequency [Hz]"	"Sound Pessure Level [dB]  / [2.83V 1m] "	"Frequency [Hz]"	"Sound Pessure Level [dB]  / [2.83V 1m] "	"Frequency [Hz]"	"Sound Pessure Level [dB]  / [2.83V 1m] "	"Frequency [Hz]"	"Sound Pessure Level [dB]  / [2.83V 1m] "	"Frequency [Hz]"	"Sound Pessure Level [dB]  / [2.83V 1m] "	"Frequency [Hz]"	"Sound Pessure Level [dB]  / [2.83V 1m] "	"Frequency [Hz]"	"Sound Pessure Level [dB]  / [2.83V 1m] "	"Frequency [Hz]"	"Sound Pessure Level [dB]  / [2.83V 1m] "	"Frequency [Hz]"	"Sound Pessure Level [dB]  / [2.83V 1m] "	"Frequency [Hz]"	"Sound Pessure Level [dB]  / [2.83V 1m] "	"Frequency [Hz]"	"Sound Pessure Level [dB]  / [2.83V 1m] "	"Frequency [Hz]"	"Sound Pessure Level [dB]  / [2.83V 1m] "	"Frequency [Hz]"	"Sound Pessure Level [dB]  / [2.83V 1m] "	"Frequency [Hz]"	"Sound Pessure Level [dB]  / [2.83V 1m] "	"Frequency [Hz]"	"Sound Pessure Level [dB]  / [2.83V 1m] "	"Frequency [Hz]"	"Sound Pessure Level [dB]  / [2.83V 1m] "	"Frequency [Hz]"	"Sound Pessure Level [dB]  / [2.83V 1m] "	"Frequency [Hz]"	"Sound Pessure Level [dB]  / [2.83V 1m] "	"Frequency [Hz]"	"Sound Pessure Level [dB]  / [2.83V 1m] "	"Frequency [Hz]"	"Sound Pessure Level [dB]  / [2.83V 1m] "	"Frequency [Hz]"	"Sound Pessure Level [dB]  / [2.83V 1m] "
20.5078	55.1865	20.5078	55.0065	20.5078	55.3704	20.5078	54.9106	20.5078	55.5018	20.5078	54.9929	20.5078	55.549	20.5078	55.3319	20.5078	55.506	20.5078	55.9544	20.5078	55.4012	20.5078	56.8215	20.5078	55.3159	20.5078	57.8532	20.5078	55.3991	20.5078	58.9641	20.5078	55.8353	20.5078	60.0855	20.5078	56.7276	20.5078	61.1693	20.5078	57.9988	20.5078	62.1823	20.5078	59.4519	20.5078	63.101	20.5078	60.8992	20.5078	63.9059	20.5078	62.2195	20.5078	64.5796	20.5078	63.349	20.5078	65.1049	20.5078	64.259	20.5078	65.4647	20.5078	64.9398	20.5078	65.6424	20.5078	65.3922	20.5078	65.6228
23.4375	58.9753	23.4375	58.8281	23.4375	59.1333	23.4375	58.7586	23.4375	59.2536	23.4375	58.8428	23.4375	59.3076	23.4375	59.1457	23.4375	59.2874	23.4375	59.6934	23.4375	59.2117	23.4375	60.462	23.4375	59.1376	23.4375	61.3902	23.4375	59.1732	23.4375	62.4063	23.4375	59.4652	23.4375	63.4472	23.4375	60.1306	23.4375	64.4646	23.4375	61.1658	23.4375	65.4234	23.4375	62.4406	23.4375	66.2971	23.4375	63.785	23.4375	67.0634	23.4375	65.0637	23.4375	67.7022	23.4375	66.1922	23.4375	68.1941	23.4375	67.1251	23.4375	68.52	23.4375	67.8411	23.4375	68.662	23.4375	68.3333	23.4375	68.6041
26.3672	62.3935	26.3672	62.325	26.3672	62.4875	26.3672	62.3285	26.3672	62.5718	26.3672	62.4542	26.3672	62.626	26.3672	62.7438	26.3672	62.6469	26.3672	63.2161	26.3672	62.6531	26.3672	63.8599	26.3672	62.6909	26.3672	64.6391	26.3672	62.836	26.3672	65.5051	26.3672	63.1798	26.3672	66.4095	26.3672	63.7893	26.3672	67.3102	26.3672	64.6628	26.3672	68.1728	26.3672	65.7226	26.3672	68.9692	26.3672	66.8554	26.3672	69.6749	26.3672	67.9559	26.3672	70.2678	26.3672	68.947	26.3672	70.7271	26.3672	69.7795	26.3672	71.0335	26.3672	70.4259	26.3672	71.1691	26.3672	70.8733	26.3672	71.1193
29.2969	66.2888	29.2969	66.2645	29.2969	66.346	29.2969	66.3019	29.2969	66.4132	29.2969	66.4317	29.2969	66.4773	29.2969	66.6793	29.2969	66.537	29.2969	67.0585	29.2969	66.6054	29.2969	67.5667	29.2969	66.7121	29.2969	68.1854	29.2969	66.9027	29.2969	68.8855	29.2969	67.2299	29.2969	69.6332	29.2969	67.7341	29.2969	70.3948	29.2969	68.4213	29.2969	71.1394	29.2969	69.2538	29.2969	71.839	29.2969	70.1622	29.2969	72.4681	29.2969	71.0688	29.2969	73.0032	29.2969	71.906	29.2969	73.4223	29.2969	72.6234	29.2969	73.7052	29.2969	73.1879	29.2969	73.8344	29.2969	73.581	29.2969	73.7959
32.2266	69.844	32.2266	69.8416	32.2266	69.8796	32.2266	69.8906	32.2266	69.9343	32.2266	70.0106	32.2266	69.9998	32.2266	70.2182	32.2266	70.0761	32.2266	70.5241	32.2266	70.1725	32.2266	70.9296	32.2266	70.3088	32.2266	71.4261	32.2266	70.5136	32.2266	71.9964	32.2266	70.8194	32.2266	72.6176	32.2266	71.2517	32.2266	73.2636	32.2266	71.8164	32.2266	73.9078	32.2266	72.4927	32.2266	74.524	32.2266	73.2359	32.2266	75.087	32.2266	73.9894	32.2266	75.5726	32.2266	74.6971	32.2266	75.9581	32.2266	75.3123	32.2266	76.2229	32.2266	75.801	32.2266	76.3495	32.2266	76.1419	32.2266	76.3249
35.1563	73.3003	35.1563	73.3044	35.1563	73.3292	35.1563	73.3531	35.1563	73.3822	35.1563	73.459	35.1563	73.4542	35.1563	73.6331	35.1563	73.5451	35.1563	73.8831	35.1563	73.661	35.1563	74.2114	35.1563	73.8141	35.1563	74.6141	35.1563	74.0219	35.1563	75.0812	35.1563	74.3038	35.1563	75.5971	35.1563	74.6756	35.1563	76.1426	35.1563	75.1424	35.1563	76.6958	35.1563	75.6927	35.1563	77.2337	35.1563	76.298	35.1563	77.7327	35.1563	76.9177	35.1563	78.1693	35.1563	77.5074	35.1563	78.521	35.1563	78.0262	35.1563	78.7674	35.1563	78.4411	35.1563	78.8915	35.1563	78.73	35.1563	78.8809
38.0859	76.3808	38.0859	76.3832	38.0859	76.4102	38.0859	76.4251	38.0859	76.4656	38.0859	76.5144	38.0859	76.5438	38.0859	76.6585	38.0859	76.6443	38.0859	76.8632	38.0859	76.7708	38.0859	77.1308	38.0859	76.9304	38.0859	77.4598	38.0859	77.1333	38.0859	77.8444	38.0859	77.3913	38.0859	78.2743	38.0859	77.7138	38.0859	78.7353	38.0859	78.1046	38.0859	79.2101	38.0859	78.5569	38.0859	79.6789	38.0859	79.0521	38.0859	80.1205	38.0859	79.5613	38.0859	80.5126	38.0859	80.0497	38.0859	80.8337	38.0859	80.4826	38.0859	81.0638	38.0859	80.8301	38.0859	81.1864	38.0859	81.0701	38.0859	81.1901
41.0156	78.9842	41.0156	78.987	41.0156	79.0127	41.0156	79.0256	41.0156	79.0688	41.0156	79.1051	41.0156	79.1505	41.0156	79.2301	41.0156	79.2573	41.0156	79.4043	41.0156	79.3909	41.0156	79.6296	41.0156	79.5552	41.0156	79.9053	41.0156	79.7557	41.0156	80.2281	41.0156	79.9984	41.0156	80.5909	41.0156	80.2887	41.0156	80.9837	41.0156	80.6278	41.0156	81.3928	41.0156	81.0109	41.0156	81.8021	41.0156	81.4248	41.0156	82.1926	41.0156	81.8483	41.0156	82.5445	41.0156	82.2545	41.0156	82.8373	41.0156	82.6148	41.0156	83.0522	41.0156	82.903	41.0156	83.1735	41.0156	83.099	41.0156	83.1904
43.9453	80.7986	43.9453	80.7987	43.9453	80.8284	43.9453	80.8314	43.9453	80.886	43.9453	80.8997	43.9453	80.9699	43.9453	81.0063	43.9453	81.0796	43.9453	81.1538	43.9453	81.2153	43.9453	81.3435	43.9453	81.3782	43.9453	81.5755	43.9453	81.5702	43.9453	81.8479	43.9453	81.7934	43.9453	82.1561	43.9453	82.0494	43.9453	82.4929	43.9453	82.338	43.9453	82.8476	43.9453	82.656	43.9453	83.2065	43.9453	82.9953	43.9453	83.5531	43.9453	83.3422	43.9453	83.8687	43.9453	83.6775	43.9453	84.1341	43.9453	83.9783	43.9453	84.3309	43.9453	84.2217	43.9453	84.4441	43.9453	84.3881	43.9453	84.4641
46.875	81.9888	46.875	81.9867	46.875	82.0199	46.875	82.0151	46.875	82.0789	46.875	82.0751	46.875	82.1647	46.875	82.1682	46.875	82.2766	46.875	82.2954	46.875	82.4138	46.875	82.4574	46.875	82.5757	46.875	82.6542	46.875	82.762	46.875	82.8844	46.875	82.9719	46.875	83.145	46.875	83.2049	46.875	83.4308	46.875	83.4591	46.875	83.7341	46.875	83.7315	46.875	84.0439	46.875	84.0157	46.875	84.3466	46.875	84.3018	46.875	84.6262	46.875	84.5752	46.875	84.8655	46.875	84.8183	46.875	85.0479	46.875	85.0122	46.875	85.1594	46.875	85.1404	46.875	85.1911
49.8047	82.5771	49.8047	82.5715	49.8047	82.6108	49.8047	82.5943	49.8047	82.672	49.8047	82.6457	49.8047	82.76	49.8047	82.7258	49.8047	82.8737	49.8047	82.8349	49.8047	83.0117	49.8047	82.9729	49.8047	83.1721	49.8047	83.1395	49.8047	83.3527	49.8047	83.3339	49.8047	83.5511	49.8047	83.554	49.8047	83.7647	49.8047	83.7963	49.8047	83.9907	49.8047	84.0552	49.8047	84.2253	49.8047	84.3223	49.8047	84.4636	49.8047	84.5866	49.8047	84.698	49.8047	84.8347	49.8047	84.9178	49.8047	85.0513	49.8047	85.1095	49.8047	85.2217	49.8047	85.2583	49.8047	85.333	49.8047	85.3507	49.8047	85.3769
52.7344	82.8255	52.7344	82.8181	52.7344	82.8602	52.7344	82.8375	52.7344	82.922	52.7344	82.883	52.7344	83.0105	52.7344	82.954	52.7344	83.1243	52.7344	83.0498	52.7344	83.2615	52.7344	83.1697	52.7344	83.4193	52.7344	83.3132	52.7344	83.5942	52.7344	83.4793	52.7344	83.7825	52.7344	83.6666	52.7344	83.9802	52.7344	83.8728	52.7344	84.1832	52.7344	84.0938	52.7344	84.3875	52.7344	84.3233	52.7344	84.5887	52.7344	84.5528	52.7344	84.7809	52.7344	84.7711	52.7344	84.9564	52.7344	84.9656	52.7344	85.1052	52.7344	85.123	52.7344	85.216	52.7344	85.2319	52.7344	85.2784	52.7344	85.2847
55.6641	82.9229	55.6641	82.914	55.6641	82.9582	55.6641	82.9305	55.6641	83.0203	55.6641	82.9711	55.6641	83.1086	55.6641	83.0344	55.6641	83.222	55.6641	83.119	55.6641	83.3579	55.6641	83.2237	55.6641	83.513	55.6641	83.3476	55.6641	83.6829	55.6641	83.4897	55.6641	83.8629	55.6641	83.649	55.6641	84.0477	55.6641	83.8238	55.6641	84.2326	55.6641	84.0116	55.6641	84.4128	55.6641	84.208	55.6641	84.584	55.6641	84.4065	55.6641	84.7414	55.6641	84.5984	55.6641	84.8794	55.6641	84.7731	55.6641	84.9908	55.6641	84.9195	55.6641	85.0676	55.6641	85.0273	55.6641	85.1022	55.6641	85.0893
58.5938	83.0074	58.5938	82.9935	58.5938	83.0473	58.5938	83.0041	58.5938	83.1135	58.5938	83.0375	58.5938	83.2057	58.5938	83.0918	58.5938	83.3224	58.5938	83.165	58.5938	83.4606	58.5938	83.2555	58.5938	83.6164	58.5938	83.3618	58.5938	83.7846	58.5938	83.4829	58.5938	83.9593	58.5938	83.618	58.5938	84.1345	58.5938	83.766	58.5938	84.3041	58.5938	83.9255	58.5938	84.4631	58.5938	84.0936	58.5938	84.6069	58.5938	84.266	58.5938	84.7317	58.5938	84.4361	58.5938	84.8333	58.5938	84.5955	58.5938	84.9076	58.5938	84.7349	58.5938	84.9495	58.5938	84.8453	58.5938	84.9545	58.5938	84.9197
61.5234	82.9754	61.5234	82.9592	61.5234	83.0166	61.5234	82.9663	61.5234	83.0835	61.5234	82.9947	61.5234	83.1755	61.5234	83.042	61.5234	83.2911	61.5234	83.1057	61.5234	83.4272	61.5234	83.1838	61.5234	83.5791	61.5234	83.2745	61.5234	83.7414	61.5234	83.3765	61.5234	83.9075	61.5234	83.4891	61.5234	84.0706	61.5234	83.6117	61.5234	84.2243	61.5234	83.7437	61.5234	84.3627	61.5234	83.8838	61.5234	84.4816	61.5234	84.0293	61.5234	84.5776	61.5234	84.1757	61.5234	84.6483	61.5234	84.317	61.5234	84.6914	61.5234	84.4456	61.5234	84.7046	61.5234	84.5539	61.5234	84.6862	61.5234	84.6355
64.4531	83.0175	64.4531	82.9966	64.4531	83.0618	64.4531	82.9975	64.4531	83.1302	64.4531	83.0178	64.4531	83.2224	64.4531	83.055	64.4531	83.3364	64.4531	83.1064	64.4531	83.469	64.4531	83.1695	64.4531	83.6157	64.4531	83.2426	64.4531	83.7704	64.4531	83.3242	64.4531	83.9263	64.4531	83.4137	64.4531	84.0763	64.4531	83.5111	64.4531	84.2132	64.4531	83.6164	64.4531	84.3311	64.4531	83.7296	64.4531	84.4255	64.4531	83.8498	64.4531	84.4934	64.4531	83.9746	64.4531	84.5337	64.4531	84.0998	64.4531	84.5458	64.4531	84.2199	64.4531	84.5301	64.4531	84.3283	64.4531	84.4873	64.4531	84.419
67.3828	83.1013	67.3828	83.0778	67.3828	83.1464	67.3828	83.0742	67.3828	83.2141	67.3828	83.0879	67.3828	83.3039	67.3828	83.116	67.3828	83.4143	67.3828	83.1558	67.3828	83.5419	67.3828	83.2046	67.3828	83.6821	67.3828	83.2603	67.3828	83.8288	67.3828	83.3217	67.3828	83.9748	67.3828	83.3884	67.3828	84.1126	67.3828	83.4609	67.3828	84.2347	67.3828	83.5402	67.3828	84.3347	67.3828	83.6275	67.3828	84.4076	67.3828	83.7236	67.3828	84.451	67.3828	83.8279	67.3828	84.4645	67.3828	83.9382	67.3828	84.4492	67.3828	84.0504	67.3828	84.4076	67.3828	84.1591	67.3828	84.3427	67.3828	84.2583
70.3125	83.169	70.3125	83.1402	70.3125	83.2195	70.3125	83.1313	70.3125	83.2922	70.3125	83.1398	70.3125	83.3865	70.3125	83.163	70.3125	83.5002	70.3125	83.1976	70.3125	83.6297	70.3125	83.2408	70.3125	83.77	70.3125	83.2903	70.3125	83.9148	70.3125	83.3444	70.3125	84.0569	70.3125	83.4025	70.3125	84.1885	70.3125	83.4649	70.3125	84.3019	70.3125	83.5327	70.3125	84.3906	70.3125	83.6075	70.3125	84.4498	70.3125	83.6909	70.3125	84.477	70.3125	83.7834	70.3125	84.4723	70.3125	83.8844	70.3125	84.4382	70.3125	83.9911	70.3125	84.3787	70.3125	84.0994	70.3125	84.2988	70.3125	84.2038
73.2422	83.2651	73.2422	83.238	73.2422	83.3138	73.2422	83.2308	73.2422	83.3849	73.2422	83.2409	73.2422	83.4776	73.2422	83.2652	73.2422	83.59	73.2422	83.3002	73.2422	83.7185	73.2422	83.3429	73.2422	83.8582	73.2422	83.3904	73.2422	84.0027	73.2422	83.4407	73.2422	84.1446	73.2422	83.4929	73.2422	84.2758	73.2422	83.5471	73.2422	84.388	73.2422	83.6045	73.2422	84.474	73.2422	83.6673	73.2422	84.5283	73.2422	83.7377	73.2422	84.548	73.2422	83.8178	73.2422	84.5332	73.2422	83.9083	73.2422	84.4872	73.2422	84.0081	73.2422	84.4154	73.2422	84.1143	73.2422	84.3245	73.2422	84.2218
76.1719	83.4366	76.1719	83.4063	76.1719	83.4876	76.1719	83.395	76.1719	83.5598	76.1719	83.4001	76.1719	83.6524	76.1719	83.4186	76.1719	83.7633	76.1719	83.447	76.1719	83.8888	76.1719	83.4818	76.1719	84.024	76.1719	83.5201	76.1719	84.1625	76.1719	83.5595	76.1719	84.2966	76.1719	83.599	76.1719	84.4181	76.1719	83.6385	76.1719	84.5186	76.1719	83.6796	76.1719	84.5907	76.1719	83.7248	76.1719	84.6288	76.1719	83.7775	76.1719	84.6303	76.1719	83.841	76.1719	84.5962	76.1719	83.9179	76.1719	84.5306	76.1719	84.0088	76.1719	84.4408	76.1719	84.1119	76.1719	84.3352	76.1719	84.2229
79.1016	83.4709	79.1016	83.4423	79.1016	83.5211	79.1016	83.4335	79.1016	83.5936	79.1016	83.4418	79.1016	83.6875	79.1016	83.4639	79.1016	83.8009	79.1016	83.4958	79.1016	83.9303	79.1016	83.534	79.1016	84.0706	79.1016	83.5751	79.1016	84.2153	79.1016	83.6166	79.1016	84.3568	79.1016	83.657	79.1016	84.4862	79.1016	83.6966	79.1016	84.5947	79.1016	83.7367	79.1016	84.6741	79.1016	83.7805	79.1016	84.718	79.1016	83.8317	79.1016	84.7229	79.1016	83.8946	79.1016	84.6891	79.1016	83.9723	79.1016	84.6208	79.1016	84.066	79.1016	84.5254	79.1016	84.1743	79.1016	84.4124	79.1016	84.2922
82.0313	83.7521	82.0313	83.7201	82.0313	83.8022	82.0313	83.7044	82.0313	83.8709	82.0313	83.7027	82.0313	83.9575	82.0313	83.7116	82.0313	84.0604	82.0313	83.7276	82.0313	84.1763	82.0313	83.747	82.0313	84.301	82.0313	83.7666	82.0313	84.4285	82.0313	83.7841	82.0313	84.5515	82.0313	83.7983	82.0313	84.6616	82.0313	83.8097	82.0313	84.7498	82.0313	83.8204	82.0313	84.8075	82.0313	83.8347	82.0313	84.8281	82.0313	83.8579	82.0313	84.8081	82.0313	83.8959	82.0313	84.7481	82.0313	83.9542	82.0313	84.6534	82.0313	84.036	82.0313	84.5332	82.0313	84.141	82.0313	84.3995	82.0313	84.2649
84.9609	84.063	84.9609	84.0256	84.9609	84.1131	84.9609	83.9995	84.9609	84.1766	84.9609	83.9822	84.9609	84.253	84.9609	83.9703	84.9609	84.3406	84.9609	83.9606	84.9609	84.4364	84.9609	83.9494	84.9609	84.5362	84.9609	83.9337	84.9609	84.6344	84.9609	83.9114	84.9609	84.7239	84.9609	83.8819	84.9609	84.7968	84.9609	83.8465	84.9609	84.8442	84.9609	83.8085	84.9609	84.8584	84.9609	83.7737	84.9609	84.8332	84.9609	83.7496	84.9609	84.7661	84.9609	83.7452	84.9609	84.6596	84.9609	83.7688	84.9609	84.5211	84.9609	83.8266	84.9609	84.3629	84.9609	83.9209	84.9609	84.2002	84.9609	84.0484
87.8906	83.902	87.8906	83.8695	87.8906	83.9537	87.8906	83.8541	87.8906	84.0252	87.8906	83.8527	87.8906	84.116	87.8906	83.8614	87.8906	84.2239	87.8906	83.8758	87.8906	84.3454	87.8906	83.8917	87.8906	84.4753	87.8906	83.9054	87.8906	84.6069	87.8906	83.9142	87.8906	84.7321	87.8906	83.9171	87.8906	84.8415	87.8906	83.9146	87.8906	84.9253	87.8906	83.9098	87.8906	84.9745	87.8906	83.9075	87.8906	84.9821	87.8906	83.9146	87.8906	84.9449	87.8906	83.9386	87.8906	84.8645	87.8906	83.9868	87.8906	84.7477	87.8906	84.0639	87.8906	84.6056	87.8906	84.1707	87.8906	84.4526	87.8906	84.3033
90.8203	83.8297	90.8203	83.7973	90.8203	83.8834	90.8203	83.7849	90.8203	83.9588	90.8203	83.7898	90.8203	84.055	90.8203	83.8085	90.8203	84.1699	90.8203	83.8366	90.8203	84.3003	90.8203	83.8697	90.8203	84.4417	90.8203	83.9035	90.8203	84.5877	90.8203	83.9346	90.8203	84.7306	90.8203	83.961	90.8203	84.8606	90.8203	83.9822	90.8203	84.9676	90.8203	84.0002	90.8203	85.0412	90.8203	84.0189	90.8203	85.0733	90.8203	84.0445	90.8203	85.059	90.8203	84.084	90.8203	84.9988	90.8203	84.1441	90.8203	84.8981	90.8203	84.2296	90.8203	84.7678	90.8203	84.3415	90.8203	84.6219	90.8203	84.4753
93.75	84.3053	93.75	84.2655	93.75	84.3591	93.75	84.2393	93.75	84.4266	93.75	84.225	93.75	84.507	93.75	84.2203	93.75	84.5988	93.75	84.222	93.75	84.6998	93.75	84.2265	93.75	84.8072	93.75	84.2302	93.75	84.9165	93.75	84.2301	93.75	85.0218	93.75	84.2246	93.75	85.1153	93.75	84.2137	93.75	85.1877	93.75	84.1995	93.75	85.2295	93.75	84.1867	93.75	85.2325	93.75	84.1821	93.75	85.1919	93.75	84.1939	93.75	85.1079	93.75	84.2306	93.75	84.9866	93.75	84.2983	93.75	84.8395	93.75	84.3995	93.75	84.682	93.75	84.5306
96.6797	84.451	96.6797	84.4088	96.6797	84.504	96.6797	84.3762	96.6797	84.5682	96.6797	84.351	96.6797	84.643	96.6797	84.3301	96.6797	84.727	96.6797	84.3098	96.6797	84.8178	96.6797	84.2864	96.6797	84.912	96.6797	84.2562	96.6797	85.0049	96.6797	84.2169	96.6797	85.0898	96.6797	84.1675	96.6797	85.1584	96.6797	84.1091	96.6797	85.201	96.6797	84.0458	96.6797	85.208	96.6797	83.9845	96.6797	85.1714	96.6797	83.9349	96.6797	85.0872	96.6797	83.9088	96.6797	84.9567	96.6797	83.9178	96.6797	84.7883	96.6797	83.9714	96.6797	84.5964	96.6797	84.0733	96.6797	84.4003	96.6797	84.2201
102.539	84.6889	102.539	84.646	102.539	84.7433	102.539	84.6139	102.539	84.8087	102.539	84.5911	102.539	84.884	102.539	84.5748	102.539	84.9674	102.539	84.5614	102.539	85.0569	102.539	84.5468	102.539	85.1493	102.539	84.527	102.539	85.2405	102.539	84.4988	102.539	85.3245	102.539	84.4607	102.539	85.3935	102.539	84.4129	102.539	85.4383	102.539	84.3588	102.539	85.4491	102.539	84.3046	102.539	85.4179	102.539	84.2593	102.539	85.3402	102.539	84.2341	102.539	85.2176	102.539	84.2409	102.539	85.058	102.539	84.289	102.539	84.8759	102.539	84.383	102.539	84.69	102.539	84.5201
105.469	84.8227	105.469	84.7789	105.469	84.8771	105.469	84.7455	105.469	84.9417	105.469	84.7209	105.469	85.0151	105.469	84.7025	105.469	85.0958	105.469	84.6866	105.469	85.1817	105.469	84.6691	105.469	85.2704	105.469	84.646	105.469	85.358	105.469	84.614	105.469	85.4392	105.469	84.5716	105.469	85.5064	105.469	84.5194	105.469	85.5503	105.469	84.4608	105.469	85.5611	105.469	84.4024	105.469	85.5301	105.469	84.3537	105.469	85.4525	105.469	84.3264	105.469	85.3291	105.469	84.3325	105.469	85.1676	105.469	84.3815	105.469	84.9825	105.469	84.478	105.469	84.7928	105.469	84.6188
108.398	84.9804	108.398	84.93	108.398	85.0407	108.398	84.8896	108.398	85.1097	108.398	84.8583	108.398	85.1858	108.398	84.8338	108.398	85.2674	108.398	84.8127	108.398	85.3523	108.398	84.7909	108.398	85.4385	108.398	84.7643	108.398	85.5225	108.398	84.7296	108.398	85.5995	108.398	84.685	108.398	85.6623	108.398	84.6308	108.398	85.702	108.398	84.5705	108.398	85.7088	108.398	84.5107	108.398	85.6739	108.398	84.4609	108.398	85.5923	108.398	84.433	108.398	85.4645	108.398	84.4394	108.398	85.2981	108.398	84.4899	108.398	85.1077	108.398	84.5891	108.398	84.9126	108.398	84.7338
111.328	85.1308	111.328	85.0753	111.328	85.1949	111.328	85.0287	111.328	85.2661	111.328	84.9905	111.328	85.3428	111.328	84.9587	111.328	85.4231	111.328	84.9303	111.328	85.5055	111.328	84.9014	111.328	85.5877	111.328	84.8679	111.328	85.6669	111.328	84.8267	111.328	85.7383	111.328	84.7758	111.328	85.7952	111.328	84.7158	111.328	85.8287	111.328	84.6499	111.328	85.8289	111.328	84.585	111.328	85.7873	111.328	84.5309	111.328	85.6984	111.328	84.4997	111.328	85.5629	111.328	84.5041	111.328	85.3886	111.328	84.5543	111.328	85.1904	111.328	84.6553	111.328	84.9884	111.328	84.8039
117.188	85.4008	117.188	85.3396	117.188	85.4684	117.188	85.286	117.188	85.5406	117.188	85.2402	117.188	85.6151	117.188	85.2008	117.188	85.6902	117.188	85.1649	117.188	85.7643	117.188	85.1289	117.188	85.8362	117.188	85.0888	117.188	85.9039	117.188	85.0414	117.188	85.9639	117.188	84.9848	117.188	86.0104	117.188	84.9196	117.188	86.0355	117.188	84.8493	117.188	86.0296	117.188	84.7808	117.188	85.984	117.188	84.7242	117.188	85.8931	117.188	84.6918	117.188	85.7569	117.188	84.6961	117.188	85.5827	117.188	84.7469	117.188	85.3848	117.188	84.8488	117.188	85.1829	117.188	84.998
120.117	85.6227	120.117	85.5568	120.117	85.6932	120.117	85.4972	120.117	85.7658	120.117	85.4448	120.117	85.8383	120.117	85.3986	120.117	85.9086	120.117	85.3566	120.117	85.9755	120.117	85.3155	120.117	86.0379	120.117	85.2714	120.117	86.0942	120.117	85.221	120.117	86.1417	120.117	85.1623	120.117	86.1751	120.117	85.0956	120.117	86.1873	120.117	85.0239	120.117	86.1695	120.117	84.9537	120.117	86.1138	120.117	84.8945	120.117	86.0153	120.117	84.858	120.117	85.8747	120.117	84.8562	120.117	85.6996	120.117	84.8993	120.117	85.5045	120.117	84.992	120.117	85.3085	120.117	85.132
125.977	85.8249	125.977	85.7593	125.977	85.8926	125.977	85.6971	125.977	85.9604	125.977	85.6387	125.977	86.0265	125.977	85.5833	125.977	86.0893	125.977	85.5285	125.977	86.1479	125.977	85.4711	125.977	86.2013	125.977	85.4073	125.977	86.2478	125.977	85.334	125.977	86.284	125.977	85.2493	125.977	86.3038	125.977	85.1539	125.977	86.299	125.977	85.0514	125.977	86.2599	125.977	84.9491	125.977	86.178	125.977	84.8581	125.977	86.0487	125.977	84.7921	125.977	85.8741	125.977	84.7658	125.977	85.6642	125.977	84.7919	125.977	85.4369	125.977	84.8778	125.977	85.2152	125.977	85.0225
128.906	85.7723	128.906	85.7084	128.906	85.8384	128.906	85.6478	128.906	85.9051	128.906	85.5904	128.906	85.9708	128.906	85.5348	128.906	86.0343	128.906	85.4784	128.906	86.0947	128.906	85.4175	128.906	86.1514	128.906	85.3483	128.906	86.2025	128.906	85.2677	128.906	86.2441	128.906	85.1741	128.906	86.2697	128.906	85.0688	128.906	86.2698	128.906	84.9562	128.906	86.2337	128.906	84.8446	128.906	86.1517	128.906	84.7462	128.906	86.0187	128.906	84.6757	128.906	85.8362	128.906	84.6487	128.906	85.6149	128.906	84.6786	128.906	85.3735	128.906	84.7728	128.906	85.1366	128.906	84.9294
134.766	85.7174	134.766	85.644	134.766	85.7945	134.766	85.5765	134.766	85.8725	134.766	85.5157	134.766	85.9491	134.766	85.4606	134.766	86.0227	134.766	85.4084	134.766	86.0929	134.766	85.3549	134.766	86.1601	134.766	85.2958	134.766	86.224	134.766	85.2274	134.766	86.2825	134.766	85.1477	134.766	86.3297	134.766	85.058	134.766	86.356	134.766	84.9632	134.766	86.3493	134.766	84.8721	134.766	86.2972	134.766	84.7973	134.766	86.1916	134.766	84.7538	134.766	86.0311	134.766	84.7563	134.766	85.8236	134.766	84.8166	134.766	85.5863	134.766	84.9393	134.766	85.343	134.766	85.1198
137.695	85.7838	137.695	85.7002	137.695	85.87	137.695	85.6226	137.695	85.9551	137.695	85.5532	137.695	86.0358	137.695	85.492	137.695	86.1104	137.695	85.4369	137.695	86.1788	137.695	85.3842	137.695	86.2418	137.695	85.3296	137.695	86.3004	137.695	85.269	137.695	86.3534	137.695	85.2003	137.695	86.3962	137.695	85.1238	137.695	86.4203	137.695	85.0438	137.695	86.4141	137.695	84.9681	137.695	86.3657	137.695	84.908	137.695	86.2667	137.695	84.8771	137.695	86.1156	137.695	84.8888	137.695	85.9196	137.695	84.9536	137.695	85.6949	137.695	85.0755	137.695	85.4636	137.695	85.2501
143.555	85.9866	143.555	85.8849	143.555	86.084	143.555	85.7839	143.555	86.1726	143.555	85.6874	143.555	86.2488	143.555	85.5974	143.555	86.3114	143.555	85.514	143.555	86.3612	143.555	85.435	143.555	86.4005	143.555	85.3572	143.555	86.4324	143.555	85.2775	143.555	86.458	143.555	85.1942	143.555	86.475	143.555	85.108	143.555	86.4763	143.555	85.0232	143.555	86.4515	143.555	84.9471	143.555	86.389	143.555	84.8905	143.555	86.2802	143.555	84.8655	143.555	86.123	143.555	84.8838	143.555	85.924	143.555	84.954	143.555	85.6986	143.555	85.0793	143.555	85.4679	143.555	85.2549
149.414	86.216	149.414	86.106	149.414	86.3156	149.414	85.9905	149.414	86.4005	149.414	85.8734	149.414	86.4676	149.414	85.7575	149.414	86.516	149.414	85.6432	149.414	86.5472	149.414	85.5295	149.414	86.5643	149.414	85.4146	149.414	86.5708	149.414	85.2965	149.414	86.5689	149.414	85.1753	149.414	86.557	149.414	85.0536	149.414	86.5291	149.414	84.9373	149.414	86.4754	149.414	84.8359	149.414	86.385	149.414	84.7613	149.414	86.2498	149.414	84.7261	149.414	86.0684	149.414	84.7413	149.414	85.8479	149.414	84.8144	149.414	85.6039	149.414	84.9466	149.414	85.3578	149.414	85.1322
155.273	86.4036	155.273	86.2912	155.273	86.5037	155.273	86.1717	155.273	86.5868	155.273	86.0492	155.273	86.6497	155.273	85.9262	155.273	86.6911	155.273	85.8029	155.273	86.7123	155.273	85.678	155.273	86.7165	155.273	85.5487	155.273	86.7074	155.273	85.4131	155.273	86.6875	155.273	85.2708	155.273	86.6557	155.273	85.1247	155.273	86.6065	155.273	84.9817	155.273	86.5305	155.273	84.8524	155.273	86.4169	155.273	84.7505	155.273	86.2584	155.273	84.6908	155.273	86.054	155.273	84.6861	155.273	85.8121	155.273	84.7452	155.273	85.5498	155.273	84.8706	155.273	85.2899	155.273	85.0567
158.203	86.4476	158.203	86.3316	158.203	86.5504	158.203	86.2077	158.203	86.6351	158.203	86.0802	158.203	86.6987	158.203	85.952	158.203	86.7403	158.203	85.8237	158.203	86.7616	158.203	85.6941	158.203	86.7664	158.203	85.5609	158.203	86.7591	158.203	85.4222	158.203	86.7424	158.203	85.2778	158.203	86.7153	158.203	85.131	158.203	86.6721	158.203	84.9889	158.203	86.6026	158.203	84.8629	158.203	86.4953	158.203	84.7668	158.203	86.3417	158.203	84.7153	158.203	86.1404	158.203	84.7212	158.203	85.8988	158.203	84.7922	158.203	85.6339	158.203	84.9295	158.203	85.3683	158.203	85.1265
164.063	86.492	164.063	86.3724	164.063	86.5976	164.063	86.2446	164.063	86.6836	164.063	86.1137	164.063	86.7465	164.063	85.9831	164.063	86.785	164.063	85.8536	164.063	86.8008	164.063	85.7241	164.063	86.7978	164.063	85.5921	164.063	86.7806	164.063	85.4554	164.063	86.7528	164.063	85.3133	164.063	86.7139	164.063	85.1688	164.063	86.659	164.063	85.0285	164.063	86.5791	164.063	84.9034	164.063	86.4638	164.063	84.8073	164.063	86.3059	164.063	84.7543	164.063	86.1048	164.063	84.7565	164.063	85.8686	164.063	84.8211	164.063	85.6137	164.063	84.9489	164.063	85.3613	164.063	85.1333
169.922	86.3967	169.922	86.2847	169.922	86.4939	169.922	86.1637	169.922	86.5708	169.922	86.039	169.922	86.6243	169.922	85.9143	169.922	86.6539	169.922	85.7907	169.922	86.6621	169.922	85.6672	169.922	86.6538	169.922	85.5416	169.922	86.6347	169.922	85.4117	169.922	86.6086	169.922	85.2772	169.922	86.5754	169.922	85.1409	169.922	86.5293	169.922	85.0098	169.922	86.4602	169.922	84.8943	169.922	86.3568	169.922	84.8069	169.922	86.2112	169.922	84.7604	169.922	86.023	169.922	84.7649	169.922	85.8009	169.922	84.8261	169.922	85.5616	169.922	84.9445	169.922	85.3261	169.922	85.1149
175.781	86.324	175.781	86.2005	175.781	86.4293	175.781	86.0658	175.781	86.5102	175.781	85.9265	175.781	86.5632	175.781	85.7873	175.781	86.5879	175.781	85.6502	175.781	86.5877	175.781	85.5151	175.781	86.5689	175.781	85.3801	175.781	86.5391	175.781	85.244	175.781	86.5042	175.781	85.1071	175.781	86.4655	175.781	84.9733	175.781	86.4182	175.781	84.8503	175.781	86.3518	175.781	84.7486	175.781	86.2542	175.781	84.6802	175.781	86.1168	175.781	84.6556	175.781	85.9382	175.781	84.6816	175.781	85.7266	175.781	84.7602	175.781	85.4975	175.781	84.8892	175.781	85.2701	175.781	85.0625
181.641	86.3434	181.641	86.2054	181.641	86.4589	181.641	86.0524	181.641	86.5458	181.641	85.8913	181.641	86.6004	181.641	85.7273	181.641	86.6227	181.641	85.563	181.641	86.6162	181.641	85.3984	181.641	86.5879	181.641	85.2323	181.641	86.5455	181.641	85.0638	181.641	86.4956	181.641	84.8946	181.641	86.4398	181.641	84.7301	181.641	86.3731	181.641	84.5804	181.641	86.2853	181.641	84.459	181.641	86.164	181.641	84.3797	181.641	86.0006	181.641	84.3539	181.641	85.7946	181.641	84.387	181.641	85.5553	181.641	84.4791	181.641	85.2997	181.641	84.6255	181.641	85.048	181.641	84.8185
190.43	86.3977	190.43	86.2702	190.43	86.5004	190.43	86.1254	190.43	86.5722	190.43	85.9699	190.43	86.6096	190.43	85.8083	190.43	86.6127	190.43	85.6423	190.43	86.5859	190.43	85.471	190.43	86.5372	190.43	85.292	190.43	86.4765	190.43	85.1039	190.43	86.4118	190.43	84.9081	190.43	86.3462	190.43	84.7112	190.43	86.275	190.43	84.5254	190.43	86.1865	190.43	84.3676	190.43	86.0665	190.43	84.2561	190.43	85.9038	190.43	84.2064	190.43	85.696	190.43	84.2267	190.43	85.4509	190.43	84.3171	190.43	85.1855	190.43	84.4708	190.43	84.9206	190.43	84.6767
196.289	86.3221	196.289	86.1897	196.289	86.4287	196.289	86.0407	196.289	86.5017	196.289	85.8838	196.289	86.5367	196.289	85.7253	196.289	86.5339	196.289	85.5682	196.289	86.4983	196.289	85.4117	196.289	86.4397	196.289	85.2529	196.289	86.3698	196.289	85.0892	196.289	86.2993	196.289	84.9206	196.289	86.2331	196.289	84.7522	196.289	86.1675	196.289	84.5946	196.289	86.091	196.289	84.4628	196.289	85.9887	196.289	84.3732	196.289	85.8489	196.289	84.3389	196.289	85.6684	196.289	84.366	196.289	85.4545	196.289	84.4531	196.289	85.2223	196.289	84.5931	196.289	84.9905	196.289	84.7761
202.148	86.3758	202.148	86.2296	202.148	86.4878	202.148	86.0596	202.148	86.5571	202.148	85.8765	202.148	86.5792	202.148	85.6888	202.148	86.5544	202.148	85.5022	202.148	86.4888	202.148	85.3184	202.148	86.3932	202.148	85.1367	202.148	86.2819	202.148	84.9559	202.148	86.1686	202.148	84.7769	202.148	86.0621	202.148	84.605	202.148	85.9626	202.148	84.4505	202.148	85.8618	202.148	84.3273	202.148	85.7471	202.148	84.2499	202.148	85.6075	202.148	84.2281	202.148	85.4394	202.148	84.2645	202.148	85.2478	202.148	84.354	202.148	85.0441	202.148	84.4869	202.148	84.8418	202.148	84.6527
210.938	86.313	210.938	86.1673	210.938	86.4225	210.938	85.9947	210.938	86.4881	210.938	85.8042	210.938	86.5054	210.938	85.6026	210.938	86.4746	210.938	85.3936	210.938	86.4013	210.938	85.1782	210.938	86.2963	210.938	84.9557	210.938	86.1736	210.938	84.7264	210.938	86.0471	210.938	84.4948	210.938	85.9254	210.938	84.271	210.938	85.8082	210.938	84.0717	210.938	85.6859	210.938	83.9169	210.938	85.5449	210.938	83.8247	210.938	85.3748	210.938	83.8049	210.938	85.1743	210.938	83.8552	210.938	84.9523	210.938	83.9638	210.938	84.7235	210.938	84.1153	210.938	84.5021	210.938	84.2973
216.797	86.1459	216.797	85.995	216.797	86.2617	216.797	85.82	216.797	86.333	216.797	85.6317	216.797	86.354	216.797	85.4381	216.797	86.3241	216.797	85.2432	216.797	86.249	216.797	85.0468	216.797	86.1399	216.797	84.8464	216.797	86.0121	216.797	84.6398	216.797	85.8815	216.797	84.4287	216.797	85.7586	216.797	84.221	216.797	85.645	216.797	84.0317	216.797	85.5322	216.797	83.8808	216.797	85.4063	216.797	83.7876	216.797	85.2553	216.797	83.7641	216.797	85.0755	216.797	83.8106	216.797	84.8726	216.797	83.9167	216.797	84.6587	216.797	84.0667	216.797	84.4468	216.797	84.2468
225.586	86.3105	225.586	86.1409	225.586	86.4324	225.586	85.9362	225.586	86.4959	225.586	85.7092	225.586	86.4944	225.586	85.4703	225.586	86.4271	225.586	85.226	225.586	86.2992	225.586	84.9789	225.586	86.1232	225.586	84.7292	225.586	85.9171	225.586	84.4773	225.586	85.7013	225.586	84.2278	225.586	85.4938	225.586	83.9916	225.586	85.3042	225.586	83.7868	225.586	85.1317	225.586	83.6347	225.586	84.9686	225.586	83.5532	225.586	84.8067	225.586	83.5491	225.586	84.6429	225.586	83.6139	225.586	84.4797	225.586	83.7278	225.586	84.321	225.586	83.8676	225.586	84.1675	225.586	84.0166
234.375	86.2635	234.375	86.0856	234.375	86.3983	234.375	85.8781	234.375	86.4782	234.375	85.6536	234.375	86.4948	234.375	85.4214	234.375	86.4451	234.375	85.1865	234.375	86.3326	234.375	84.949	234.375	86.1667	234.375	84.7069	234.375	85.9625	234.375	84.4592	234.375	85.7368	234.375	84.2094	234.375	85.5041	234.375	83.9681	234.375	85.2721	234.375	83.7534	234.375	85.0409	234.375	83.5868	234.375	84.8078	234.375	83.486	234.375	84.5741	234.375	83.4566	234.375	84.3496	234.375	83.4887	234.375	84.1496	234.375	83.5611	234.375	83.9855	234.375	83.652	234.375	83.8562	234.375	83.7494
240.234	86.1501	240.234	85.9424	240.234	86.3107	240.234	85.7029	240.234	86.4113	240.234	85.4466	240.234	86.4435	240.234	85.1854	240.234	86.4046	240.234	84.926	240.234	86.2986	240.234	84.67	240.234	86.1355	240.234	84.4157	240.234	85.93	240.234	84.1625	240.234	85.6991	240.234	83.9145	240.234	85.4568	240.234	83.6839	240.234	85.2111	240.234	83.4899	240.234	84.9636	240.234	83.3541	240.234	84.7139	240.234	83.2916	240.234	84.4664	240.234	83.3025	240.234	84.2346	240.234	83.3698	240.234	84.0357	240.234	83.4666	240.234	83.8801	240.234	83.5688	240.234	83.7627	240.234	83.6652
249.023	86.1861	249.023	85.9481	249.023	86.3658	249.023	85.6653	249.023	86.4762	249.023	85.3516	249.023	86.5111	249.023	85.0189	249.023	86.4701	249.023	84.6747	249.023	86.3587	249.023	84.3221	249.023	86.1887	249.023	83.9624	249.023	85.9755	249.023	83.5987	249.023	85.7352	249.023	83.2412	249.023	85.4786	249.023	82.9102	249.023	85.2067	249.023	82.6348	249.023	84.9117	249.023	82.4448	249.023	84.5834	249.023	82.3575	249.023	84.2221	249.023	82.3674	249.023	83.8466	249.023	82.4471	249.023	83.4931	249.023	82.5614	249.023	83.1984	249.023	82.6851	249.023	82.9777	249.023	82.8166
257.813	86.1839	257.813	85.9775	257.813	86.343	257.813	85.7379	257.813	86.4435	257.813	85.4782	257.813	86.4784	257.813	85.2074	257.813	86.4462	257.813	84.9276	257.813	86.3515	257.813	84.6347	257.813	86.2035	257.813	84.3209	257.813	86.0151	257.813	83.9813	257.813	85.7996	257.813	83.6206	257.813	85.5664	257.813	83.2583	257.813	85.319	257.813	82.9304	257.813	85.0545	257.813	82.6823	257.813	84.7693	257.813	82.5516	257.813	84.4659	257.813	82.549	257.813	84.1577	257.813	82.6516	257.813	83.8662	257.813	82.8163	257.813	83.6091	257.813	83.0033	257.813	83.3892	257.813	83.193
266.602	85.8646	266.602	85.5943	266.602	86.0728	266.602	85.2798	266.602	86.206	266.602	84.941	266.602	86.2577	266.602	84.596	266.602	86.2286	266.602	84.2561	266.602	86.126	266.602	83.9238	266.602	85.9636	266.602	83.594	266.602	85.7582	266.602	83.2591	266.602	85.526	266.602	82.9176	266.602	85.2767	266.602	82.5808	266.602	85.0092	266.602	82.2764	266.602	84.7134	266.602	82.0438	266.602	84.3792	266.602	81.9188	266.602	84.0088	266.602	81.9142	266.602	83.6247	266.602	82.0109	266.602	83.2645	266.602	82.1677	266.602	82.9613	266.602	82.3453	266.602	82.7222	266.602	82.5264
278.32	85.5958	278.32	85.4377	278.32	85.6929	278.32	85.2255	278.32	85.7262	278.32	84.9673	278.32	85.6982	278.32	84.6699	278.32	85.6182	278.32	84.3375	278.32	85.502	278.32	83.971	278.32	85.3695	278.32	83.571	278.32	85.2402	278.32	83.1434	278.32	85.1253	278.32	82.7065	278.32	85.0221	278.32	82.2975	278.32	84.913	278.32	81.971	278.32	84.7718	278.32	81.7844	278.32	84.5764	278.32	81.7689	278.32	84.3207	278.32	81.9091	278.32	84.0206	278.32	82.1495	278.32	83.7092	278.32	82.4246	278.32	83.4194	278.32	82.6888	278.32	83.1643	278.32	82.9299
287.109	85.7403	287.109	85.5897	287.109	85.8224	287.109	85.3837	287.109	85.8264	287.109	85.1357	287.109	85.7498	287.109	84.8548	287.109	85.5997	287.109	84.5432	287.109	85.3939	287.109	84.1957	287.109	85.1602	287.109	83.8028	287.109	84.9316	287.109	83.3577	287.109	84.736	287.109	82.8667	287.109	84.5838	287.109	82.36	287.109	84.4617	287.109	81.9001	287.109	84.3393	287.109	81.5728	287.109	84.1856	287.109	81.453	287.109	83.9858	287.109	81.5557	287.109	83.7487	287.109	81.823	287.109	83.4991	287.109	82.1612	287.109	83.2581	287.109	82.4921	287.109	83.0256	287.109	82.779
295.898	85.8791	295.898	85.6999	295.898	85.9871	295.898	85.469	295.898	86.007	295.898	85.2038	295.898	85.9285	295.898	84.9153	295.898	85.751	295.898	84.6052	295.898	85.4871	295.898	84.2652	295.898	85.1641	295.898	83.8808	295.898	84.8228	295.898	83.4373	295.898	84.5082	295.898	82.9288	295.898	84.2525	295.898	82.3688	295.898	84.0571	295.898	81.8024	295.898	83.8916	295.898	81.3113	295.898	83.7134	295.898	80.9957	295.898	83.4933	295.898	80.9239	295.898	83.231	295.898	81.0839	295.898	82.948	295.898	81.3907	295.898	82.6652	295.898	81.7447	295.898	82.3828	295.898	82.0811
307.617	85.6422	307.617	85.4042	307.617	85.8159	307.617	85.1273	307.617	85.905	307.617	84.8363	307.617	85.8972	307.617	84.5484	307.617	85.7888	307.617	84.2667	307.617	85.585	307.617	83.9803	307.617	85.3	307.617	83.6704	307.617	84.9562	307.617	83.3209	307.617	84.5817	307.617	82.9289	307.617	84.2035	307.617	82.5137	307.617	83.8395	307.617	82.1201	307.617	83.4944	307.617	81.8103	307.617	83.1667	307.617	81.6412	307.617	82.8633	307.617	81.6322	307.617	82.6075	307.617	81.75	307.617	82.4266	307.617	81.9255	307.617	82.3245	307.617	82.0897	307.617	82.2678	307.617	82.2029
319.336	85.5325	319.336	85.2977	319.336	85.6978	319.336	85.016	319.336	85.7774	319.336	84.7115	319.336	85.7636	319.336	84.403	319.336	85.6573	319.336	84.0959	319.336	85.4685	319.336	83.7798	319.336	85.2146	319.336	83.4312	319.336	84.918	319.336	83.0251	319.336	84.5993	319.336	82.5486	319.336	84.2701	319.336	82.017	319.336	83.9277	319.336	81.4862	319.336	83.5581	319.336	81.0519	319.336	83.1512	319.336	80.8144	319.336	82.7204	319.336	80.8137	319.336	82.3122	319.336	80.993	319.336	81.9896	319.336	81.2388	319.336	81.7879	319.336	81.4521	319.336	81.6798	319.336	81.5913
331.055	85.0799	331.055	84.8533	331.055	85.2403	331.055	84.5891	331.055	85.3156	331.055	84.3198	331.055	85.2997	331.055	84.0701	331.055	85.1988	331.055	83.8454	331.055	85.0307	331.055	83.627	331.055	84.8222	331.055	83.3785	331.055	84.6032	331.055	83.0603	331.055	84.396	331.055	82.6458	331.055	84.2022	331.055	82.1365	331.055	83.9975	331.055	81.5763	331.055	83.7408	331.055	81.0575	331.055	83.398	331.055	80.6999	331.055	82.9691	331.055	80.5878	331.055	82.5046	331.055	80.7065	331.055	82.0894	331.055	80.9531	331.055	81.7876	331.055	81.212	331.055	81.5888	331.055	81.4201
342.773	84.856	342.773	84.5597	342.773	85.0471	342.773	84.189	342.773	85.1163	342.773	83.7868	342.773	85.0601	342.773	83.3996	342.773	84.8878	342.773	83.0615	342.773	84.6231	342.773	82.7783	342.773	84.3043	342.773	82.5248	342.773	83.9816	342.773	82.2587	342.773	83.7032	342.773	81.9447	342.773	83.4918	342.773	81.5766	342.773	83.3273	342.773	81.1916	342.773	83.1541	342.773	80.8704	342.773	82.9149	342.773	80.7072	342.773	82.5907	342.773	80.7494	342.773	82.2246	342.773	80.9551	342.773	81.9066	342.773	81.2182	342.773	81.7101	342.773	81.4362	342.773	81.6241	342.773	81.562
354.492	85.0181	354.492	84.7563	354.492	85.1786	354.492	84.4215	354.492	85.2194	354.492	84.0494	354.492	85.1339	354.492	83.6742	354.492	84.9275	354.492	83.3168	354.492	84.6202	354.492	82.9738	354.492	84.2489	354.492	82.6173	354.492	83.8657	354.492	82.2071	354.492	83.5266	354.492	81.7112	354.492	83.2658	354.492	81.1294	354.492	83.0699	354.492	80.5168	354.492	82.88	354.492	79.9954	354.492	82.6267	354.492	79.7175	354.492	82.276	354.492	79.762	354.492	81.8619	354.492	80.0558	354.492	81.4778	354.492	80.4319	354.492	81.2119	354.492	80.7467	354.492	81.0648	354.492	80.9444
366.211	85.2501	366.211	84.965	366.211	85.4137	366.211	84.5894	366.211	85.4373	366.211	84.1642	366.211	85.3135	366.211	83.7339	366.211	85.0466	366.211	83.3319	366.211	84.6554	366.211	82.9643	366.211	84.179	366.211	82.6031	366.211	83.6808	366.211	82.1968	366.211	83.2409	366.211	81.6927	366.211	82.9225	366.211	81.0619	366.211	82.7251	366.211	80.3268	366.211	82.5693	366.211	79.5879	366.211	82.3407	366.211	79.024	366.211	81.9566	366.211	78.8033	366.211	81.4165	366.211	78.9324	366.211	80.8194	366.211	79.2436	366.211	80.3172	366.211	79.5511	366.211	79.9924	366.211	79.7804
377.93	85.1698	377.93	84.8584	377.93	85.3834	377.93	84.492	377.93	85.4699	377.93	84.122	377.93	85.4136	377.93	83.7934	377.93	85.2103	377.93	83.5261	377.93	84.8672	377.93	83.3028	377.93	84.4065	377.93	83.0756	377.93	83.873	377.93	82.7856	377.93	83.3398	377.93	82.3854	377.93	82.8982	377.93	81.8559	377.93	82.6167	377.93	81.2234	377.93	82.4905	377.93	80.576	377.93	82.4369	377.93	80.0599	377.93	82.3518	377.93	79.8181	377.93	82.1708	377.93	79.8859	377.93	81.8924	377.93	80.1655	377.93	81.5599	377.93	80.5219	377.93	81.2176	377.93	80.8762
392.578	84.7935	392.578	84.4385	392.578	85.0168	392.578	83.985	392.578	85.0965	392.578	83.4952	392.578	85.0332	392.578	83.0537	392.578	84.8351	392.578	82.7361	392.578	84.5163	392.578	82.5612	392.578	84.1001	392.578	82.4717	392.578	83.623	392.578	82.3677	392.578	83.1367	392.578	82.1577	392.578	82.6985	392.578	81.7938	392.578	82.3479	392.578	81.2886	392.578	82.0827	392.578	80.7285	392.578	81.8633	392.578	80.2681	392.578	81.6502	392.578	80.0649	392.578	81.4422	392.578	80.1623	392.578	81.2752	392.578	80.4493	392.578	81.1734	392.578	80.7601	392.578	81.1021	392.578	80.9835
407.227	85.0837	407.227	84.6946	407.227	85.315	407.227	84.1675	407.227	85.3812	407.227	83.5434	407.227	85.2827	407.227	82.8927	407.227	85.0253	407.227	82.3106	407.227	84.6208	407.227	81.8821	407.227	84.0896	407.227	81.6268	407.227	83.4662	407.227	81.48	407.227	82.807	407.227	81.3367	407.227	82.1906	407.227	81.1174	407.227	81.7006	407.227	80.8105	407.227	81.3856	407.227	80.4878	407.227	81.232	407.227	80.2845	407.227	81.1872	407.227	80.3189	407.227	81.21	407.227	80.5889	407.227	81.2872	407.227	80.9659	407.227	81.3997	407.227	81.2928	407.227	81.4887	407.227	81.4716
421.875	85.2753	421.875	84.9175	421.875	85.4896	421.875	84.4383	421.875	85.5555	421.875	83.8815	421.875	85.4802	421.875	83.3114	421.875	85.2785	421.875	82.799	421.875	84.9698	421.875	82.3906	421.875	84.5748	421.875	82.0795	421.875	84.1132	421.875	81.8069	421.875	83.6007	421.875	81.4956	421.875	83.0474	421.875	81.0922	421.875	82.4599	421.875	80.6007	421.875	81.85	421.875	80.1072	421.875	81.2528	421.875	79.7727	421.875	80.7441	421.875	79.7438	421.875	80.4303	421.875	80.0133	421.875	80.3801	421.875	80.4081	421.875	80.5409	421.875	80.7256	421.875	80.7514	421.875	80.844
436.523	85.2374	436.523	84.8857	436.523	85.4119	436.523	84.365	436.523	85.4111	436.523	83.704	436.523	85.2432	436.523	82.9647	436.523	84.9231	436.523	82.2492	436.523	84.4749	436.523	81.675	436.523	83.9364	436.523	81.3092	436.523	83.3616	436.523	81.1154	436.523	82.8137	436.523	80.9827	436.523	82.3433	436.523	80.8094	436.523	81.9612	436.523	80.5647	436.523	81.6336	436.523	80.309	436.523	81.3165	436.523	80.1679	436.523	81.0087	436.523	80.2454	436.523	80.7778	436.523	80.5216	436.523	80.7146	436.523	80.8568	436.523	80.8331	436.523	81.0952	436.523	81.0281	436.523	81.1492
451.172	85.284	451.172	84.9446	451.172	85.4562	451.172	84.4539	451.172	85.4588	451.172	83.8448	451.172	85.3	451.172	83.1695	451.172	84.9971	451.172	82.4955	451.172	84.5743	451.172	81.8865	451.172	84.0601	451.172	81.3709	451.172	83.485	451.172	80.9215	451.172	82.8763	451.172	80.4744	451.172	82.2513	451.172	79.9789	451.172	81.6117	451.172	79.4553	451.172	80.9507	451.172	79.0355	451.172	80.2859	451.172	78.9242	451.172	79.7172	451.172	79.2277	451.172	79.4418	451.172	79.8121	451.172	79.6044	451.172	80.4105	451.172	80.0879	451.172	80.8003	451.172	80.5908	451.172	80.8645
465.82	84.8925	465.82	84.6168	465.82	85.0031	465.82	84.1873	465.82	84.9505	465.82	83.6317	465.82	84.7478	465.82	83.0003	465.82	84.4199	465.82	82.3638	465.82	84.0025	465.82	81.7927	465.82	83.5379	465.82	81.3174	465.82	83.066	465.82	80.9029	465.82	82.609	465.82	80.4696	465.82	82.1586	465.82	79.951	465.82	81.675	465.82	79.3567	465.82	81.1095	465.82	78.8225	465.82	80.447	465.82	78.5868	465.82	79.7643	465.82	78.8021	465.82	79.2634	465.82	79.3401	465.82	79.1697	465.82	79.9014	465.82	79.4847	465.82	80.2412	465.82	79.942	465.82	80.2482
483.398	84.6545	483.398	84.3569	483.398	84.7752	483.398	83.902	483.398	84.7187	483.398	83.3324	483.398	84.5021	483.398	82.7151	483.398	84.1586	483.398	82.1326	483.398	83.7375	483.398	81.649	483.398	83.2997	483.398	81.2647	483.398	82.9018	483.398	80.8991	483.398	82.5639	483.398	80.4272	483.398	82.2406	483.398	79.7397	483.398	81.8251	483.398	78.8093	483.398	81.1939	483.398	77.7962	483.398	80.2806	483.398	77.1646	483.398	79.1951	483.398	77.406	483.398	78.3697	483.398	78.3435	483.398	78.3446	483.398	79.3522	483.398	79.0193	483.398	80.008	483.398	79.7676	483.398	80.149
500.977	85.0927	500.977	84.7154	500.977	85.2398	500.977	84.125	500.977	85.1526	500.977	83.3617	500.977	84.8396	500.977	82.5067	500.977	84.3268	500.977	81.6971	500.977	83.6714	500.977	81.092	500.977	82.9779	500.977	80.7617	500.977	82.3913	500.977	80.6021	500.977	82.0261	500.977	80.3983	500.977	81.8532	500.977	79.9504	500.977	81.6776	500.977	79.1456	500.977	81.2433	500.977	78.0227	500.977	80.345	500.977	76.929	500.977	78.934	500.977	76.5673	500.977	77.3748	500.977	77.2142	500.977	76.6988	500.977	78.2155	500.977	77.3749	500.977	78.9016	500.977	78.4038	500.977	78.9827
518.555	85.9904	518.555	85.5621	518.555	86.1256	518.555	84.8403	518.555	85.9697	518.555	83.8376	518.555	85.5266	518.555	82.6144	518.555	84.8095	518.555	81.3474	518.555	83.8626	518.555	80.3779	518.555	82.8061	518.555	80.0212	518.555	81.891	518.555	80.184	518.555	81.4334	518.555	80.4438	518.555	81.5037	518.555	80.432	518.555	81.7673	518.555	79.9428	518.555	81.7679	518.555	78.8809	518.555	81.152	518.555	77.274	518.555	79.6603	518.555	75.4925	518.555	77.1209	518.555	74.5235	518.555	73.9589	518.555	74.8666	518.555	72.8088	518.555	75.4865	518.555	74.2647	518.555	75.4001
536.133	86.068	536.133	85.7372	536.133	86.1674	536.133	85.1806	536.133	86.0228	536.133	84.3933	536.133	85.6188	536.133	83.3678	536.133	84.9398	536.133	82.1246	536.133	83.9734	536.133	80.7811	536.133	82.7289	536.133	79.6339	536.133	81.3073	536.133	79.0642	536.133	80.054	536.133	79.1284	536.133	79.5595	536.133	79.4542	536.133	79.9799	536.133	79.6533	536.133	80.6943	536.133	79.5375	536.133	81.0749	536.133	79.0858	536.133	80.8344	536.133	78.3936	536.133	79.9206	536.133	77.6338	536.133	78.4858	536.133	76.9639	536.133	76.9899	536.133	76.4272	536.133	76.1082	536.133	76.0502
553.711	85.0853	553.711	84.8339	553.711	85.1752	553.711	84.4197	553.711	85.1003	553.711	83.8316	553.711	84.8549	553.711	83.0479	553.711	84.4272	553.711	82.0533	553.711	83.7959	553.711	80.8815	553.711	82.9339	553.711	79.6824	553.711	81.8309	553.711	78.7497	553.711	80.5639	553.711	78.3405	553.711	79.4324	553.711	78.3806	553.711	78.9506	553.711	78.551	553.711	79.2572	553.711	78.6064	553.711	79.8006	553.711	78.4862	553.711	80.0073	553.711	78.2636	553.711	79.6545	553.711	78.0459	553.711	78.8425	553.711	77.8707	553.711	77.9646	553.711	77.6905	553.711	77.4931	553.711	77.4996
574.219	84.7503	574.219	84.433	574.219	84.8947	574.219	83.9658	574.219	84.8503	574.219	83.3727	574.219	84.6083	574.219	82.6679	574.219	84.1664	574.219	81.848	574.219	83.5273	574.219	80.9032	574.219	82.6992	574.219	79.854	574.219	81.7059	574.219	78.7992	574.219	80.6189	574.219	77.927	574.219	79.6108	574.219	77.4192	574.219	78.9454	574.219	77.2984	574.219	78.7603	574.219	77.4326	574.219	78.8611	574.219	77.6842	574.219	78.9199	574.219	77.9802	574.219	78.7768	574.219	78.2739	574.219	78.516	574.219	78.5019	574.219	78.352	574.219	78.595	574.219	78.3935	574.219	78.5318
594.727	84.5792	594.727	84.2703	594.727	84.675	594.727	83.7915	594.727	84.543	594.727	83.2096	594.727	84.1924	594.727	82.5903	594.727	83.6489	594.727	81.9564	594.727	82.9491	594.727	81.2644	594.727	82.14	594.727	80.4324	594.727	81.2818	594.727	79.4036	594.727	80.4458	594.727	78.219	594.727	79.6913	594.727	77.084	594.727	79.0279	594.727	76.3542	594.727	78.4179	594.727	76.2862	594.727	77.8657	594.727	76.7769	594.727	77.5131	594.727	77.5196	594.727	77.554	594.727	78.2619	594.727	77.9754	594.727	78.8488	594.727	78.5367	594.727	79.1884	594.727	79.0014	594.727	79.2375
615.234	84.3875	615.234	84.0132	615.234	84.5155	615.234	83.4188	615.234	84.4027	615.234	82.6758	615.234	84.0651	615.234	81.8914	615.234	83.5153	615.234	81.1613	615.234	82.7614	615.234	80.5141	615.234	81.8216	615.234	79.9081	615.234	80.7632	615.234	79.2836	615.234	79.7598	615.234	78.6116	615.234	79.0849	615.234	77.9134	615.234	78.8799	615.234	77.2749	615.234	78.9111	615.234	76.8661	615.234	78.7797	615.234	76.8899	615.234	78.3038	615.234	77.3925	615.234	77.749	615.234	78.1603	615.234	77.7232	615.234	78.8902	615.234	78.3516	615.234	79.3596	615.234	79.0689	615.234	79.4383
638.672	85.4024	638.672	84.9439	638.672	85.5525	638.672	84.1994	638.672	85.3974	638.672	83.2266	638.672	84.9592	638.672	82.1243	638.672	84.2729	638.672	81.0142	638.672	83.3793	638.672	79.9936	638.672	82.3188	638.672	79.1005	638.672	81.1416	638.672	78.3351	638.672	79.9459	638.672	77.7044	638.672	78.9181	638.672	77.2327	638.672	78.2533	638.672	76.9587	638.672	77.9141	638.672	76.9612	638.672	77.5959	638.672	77.3511	638.672	77.1073	638.672	78.14	638.672	76.8213	638.672	79.133	638.672	77.4651	638.672	80.0328	638.672	78.8214	638.672	80.5859	638.672	80.0147	638.672	80.6156
659.18	85.0012	659.18	84.6288	659.18	85.0796	659.18	83.9952	659.18	84.8642	659.18	83.1756	659.18	84.374	659.18	82.2766	659.18	83.6353	659.18	81.3913	659.18	82.6791	659.18	80.5475	659.18	81.559	659.18	79.7098	659.18	80.4011	659.18	78.8399	659.18	79.4519	659.18	77.9483	659.18	78.9458	659.18	77.0947	659.18	78.7675	659.18	76.3762	659.18	78.4495	659.18	75.9578	659.18	77.5601	659.18	76.067	659.18	76.0936	659.18	76.7714	659.18	75.1316	659.18	77.7996	659.18	76.0693	659.18	78.7632	659.18	77.7841	659.18	79.3884	659.18	79.0064	659.18	79.5117
682.617	85.4976	682.617	84.9574	682.617	85.6831	682.617	84.0989	682.617	85.53	682.617	83.0491	682.617	85.0731	682.617	82.0219	682.617	84.3359	682.617	81.185	682.617	83.3079	682.617	80.4795	682.617	81.955	682.617	79.6749	682.617	80.3259	682.617	78.6036	682.617	78.8468	682.617	77.3355	682.617	78.4143	682.617	76.259	682.617	79.0666	682.617	75.8804	682.617	79.6345	682.617	76.282	682.617	79.2132	682.617	77.1388	682.617	77.4108	682.617	78.1862	682.617	75.1006	682.617	79.2809	682.617	76.1441	682.617	80.2827	682.617	78.9428	682.617	81.013	682.617	80.6637	682.617	81.2402
706.055	86.6857	706.055	86.1074	706.055	86.8667	706.055	85.0886	706.055	86.7086	706.055	83.6637	706.055	86.2534	706.055	82.0725	706.055	85.5036	706.055	80.8336	706.055	84.4041	706.055	80.2852	706.055	82.831	706.055	80.0286	706.055	80.614	706.055	79.4295	706.055	77.8249	706.055	78.1095	706.055	76.1692	706.055	75.9758	706.055	77.5171	706.055	73.7212	706.055	79.0805	706.055	73.8127	706.055	78.9983	706.055	76.2751	706.055	76.3554	706.055	78.7821	706.055	69.9423	706.055	80.7352	706.055	74.246	706.055	82.1518	706.055	79.7777	706.055	83.0177	706.055	82.3007	706.055	83.1765
732.422	86.0532	732.422	85.9794	732.422	85.8135	732.422	85.4286	732.422	85.4229	732.422	84.2836	732.422	84.9986	732.422	82.5706	732.422	84.57	732.422	80.7162	732.422	84.0522	732.422	79.676	732.422	83.2389	732.422	79.726	732.422	81.7861	732.422	79.9098	732.422	79.121	732.422	79.4575	732.422	74.3427	732.422	78.0183	732.422	71.9758	732.422	75.3201	732.422	77.0164	732.422	71.6743	732.422	79.517	732.422	72.044	732.422	79.1022	732.422	76.1876	732.422	74.7453	732.422	79.41	732.422	58.3971	732.422	81.4794	732.422	76.0584	732.422	82.5331	732.422	80.7793	732.422	82.4573
758.789	85.3661	758.789	85.8506	758.789	84.6543	758.789	85.8802	758.789	83.9731	758.789	85.2906	758.789	83.5155	758.789	83.9881	758.789	83.3098	758.789	82.0216	758.789	83.2201	758.789	79.8706	758.789	83.0134	758.789	78.6702	758.789	82.3916	758.789	78.7485	758.789	80.945	758.789	78.9436	758.789	78.0178	758.789	78.3789	758.789	73.2726	758.789	76.6298	758.789	74.6333	758.789	73.3997	758.789	78.9324	758.789	70.7483	758.789	80.4197	758.789	74.0929	758.789	78.9691	758.789	77.8795	758.789	72.6261	758.789	80.1872	758.789	65.6103	758.789	81.1151	758.789	77.1775	758.789	80.4443
785.156	85.0456	785.156	85.655	785.156	84.2395	785.156	85.8527	785.156	83.4557	785.156	85.4849	785.156	82.8438	785.156	84.4899	785.156	82.4605	785.156	82.9621	785.156	82.2709	785.156	81.2997	785.156	82.1206	785.156	80.1663	785.156	81.717	785.156	79.7369	785.156	80.6183	785.156	79.3964	785.156	78.1241	785.156	78.5166	785.156	73.0779	785.156	76.7011	785.156	71.6435	785.156	73.6367	785.156	77.1962	785.156	70.2223	785.156	79.4176	785.156	72.0354	785.156	78.4805	785.156	76.0014	785.156	73.0228	785.156	78.613	785.156	59.9804	785.156	79.7114	785.156	75.4291	785.156	79.034
811.523	84.9783	811.523	85.6626	811.523	84.1771	811.523	85.9585	811.523	83.443	811.523	85.6213	811.523	82.8466	811.523	84.5047	811.523	82.442	811.523	82.6543	811.523	82.2757	811.523	80.6291	811.523	82.2581	811.523	79.6441	811.523	82.0914	811.523	79.8285	811.523	81.3113	811.523	79.9286	811.523	79.2553	811.523	79.1519	811.523	74.7501	811.523	77.1126	811.523	69.9752	811.523	73.3103	811.523	75.7679	811.523	68.4233	811.523	78.607	811.523	71.6628	811.523	78.0125	811.523	76.1685	811.523	73.0153	811.523	78.6603	811.523	57.4218	811.523	79.5074	811.523	74.5983	811.523	78.5535
840.82	85.0364	840.82	85.6268	840.82	84.4756	840.82	86.0641	840.82	83.8722	840.82	85.992	840.82	83.1182	840.82	85.0714	840.82	82.3261	840.82	83.0762	840.82	81.8993	840.82	80.2609	840.82	82.1809	840.82	78.8209	840.82	82.8596	840.82	80.1105	840.82	83.1655	840.82	81.3453	840.82	82.3058	840.82	81.3353	840.82	79.1174	840.82	79.839	840.82	68.6706	840.82	76.3638	840.82	73.0965	840.82	69.794	840.82	79.7103	840.82	70.9576	840.82	80.6901	840.82	76.6356	840.82	77.7739	840.82	79.3908	840.82	69.8098	840.82	80.2226	840.82	74.6131	840.82	79.0717
870.117	84.9345	870.117	84.8238	870.117	85.1499	870.117	85.1026	870.117	85.0319	870.117	85.4258	870.117	84.3441	870.117	85.1279	870.117	83.0205	870.117	83.6193	870.117	81.1955	870.117	80.256	870.117	79.7158	870.117	74.7473	870.117	80.1108	870.117	75.6054	870.117	81.6258	870.117	79.6196	870.117	82.3722	870.117	81.1787	870.117	81.265	870.117	80.6702	870.117	76.637	870.117	77.8693	870.117	66.8689	870.117	70.3361	870.117	78.3831	870.117	65.4098	870.117	81.952	870.117	76.049	870.117	81.6924	870.117	79.3221	870.117	77.9004	870.117	79.7024	870.117	72.6028	870.117	77.1764
902.344	85.9668	902.344	85.1851	902.344	86.3243	902.344	84.4237	902.344	86.1791	902.344	84.2668	902.344	85.6179	902.344	84.474	902.344	84.7219	902.344	84.1439	902.344	83.448	902.344	82.5353	902.344	81.7007	902.344	78.9317	902.344	79.8592	902.344	73.1631	902.344	79.4076	902.344	75.2479	902.344	80.4231	902.344	79.3667	902.344	80.7279	902.344	80.9535	902.344	78.3929	902.344	80.5756	902.344	67.1229	902.344	78.1536	902.344	75.7579	902.344	72.3028	902.344	82.2178	902.344	58.9582	902.344	83.4991	902.344	71.1525	902.344	81.1926	902.344	72.7499	902.344	73.8266	902.344	65.2582
931.641	86.3207	931.641	86.0204	931.641	86.1197	931.641	85.2008	931.641	85.5803	931.641	84.1574	931.641	84.8785	931.641	83.4163	931.641	84.0864	931.641	82.9634	931.641	83.0987	931.641	82.0426	931.641	81.6802	931.641	79.8413	931.641	79.6955	931.641	75.5955	931.641	77.9042	931.641	71.5141	931.641	78.2577	931.641	75.2502	931.641	79.5919	931.641	78.0871	931.641	79.309	931.641	78.6978	931.641	75.3187	931.641	77.4276	931.641	68.0976	931.641	74.0574	931.641	77.8463	931.641	68.8333	931.641	80.8785	931.641	69.2655	931.641	79.875	931.641	70.0318	931.641	74.9117	931.641	67.3864
966.797	86.2282	966.797	86.1609	966.797	85.8205	966.797	85.5417	966.797	85.1433	966.797	84.4647	966.797	84.4423	966.797	83.2047	966.797	83.8184	966.797	81.9935	966.797	83.1536	966.797	80.6518	966.797	82.2534	966.797	78.6678	966.797	80.9831	966.797	75.6678	966.797	79.3943	966.797	73.0169	966.797	78.0486	966.797	74.36	966.797	77.6276	966.797	76.6616	966.797	77.086	966.797	77.5867	966.797	74.3695	966.797	76.8428	966.797	71.4501	966.797	74.1445	966.797	76.4885	966.797	70.0797	966.797	78.9626	966.797	70.244	966.797	77.9244	966.797	71.5854	966.797	73.8464	966.797	70.8413
999.023	86.1889	999.023	86.1622	999.023	85.7185	999.023	85.5357	999.023	84.9624	999.023	84.364	999.023	84.1401	999.023	82.9084	999.023	83.3477	999.023	81.549	999.023	82.5485	999.023	80.347	999.023	81.6524	999.023	78.7907	999.023	80.5331	999.023	76.1909	999.023	79.1122	999.023	72.8419	999.023	77.7557	999.023	73.2739	999.023	77.2694	999.023	76.0967	999.023	76.9817	999.023	77.378	999.023	74.6969	999.023	76.815	999.023	68.5737	999.023	74.6222	999.023	72.9817	999.023	72.4067	999.023	76.8899	999.023	73.122	999.023	76.5502	999.023	74.035	999.023	73.7437	999.023	73.1763
1,034.18	85.9135	1,034.18	86.1664	1,034.18	85.4037	1,034.18	85.9219	1,034.18	84.8731	1,034.18	85.0883	1,034.18	84.351	1,034.18	83.8127	1,034.18	83.7109	1,034.18	82.4959	1,034.18	82.8987	1,034.18	81.3604	1,034.18	81.954	1,034.18	79.8914	1,034.18	80.8825	1,034.18	77.0476	1,034.18	79.668	1,034.18	71.1287	1,034.18	78.4966	1,034.18	66.808	1,034.18	77.7874	1,034.18	73.5492	1,034.18	77.2882	1,034.18	76.1341	1,034.18	75.6536	1,034.18	76.0006	1,034.18	72.317	1,034.18	73.7623	1,034.18	74.0001	1,034.18	71.1293	1,034.18	77.0481	1,034.18	72.3321	1,034.18	76.7354	1,034.18	73.8794	1,034.18	74.0107	1,034.18	73.3547
1,072.27	85.7904	1,072.27	85.9354	1,072.27	85.4832	1,072.27	85.7409	1,072.27	85.0955	1,072.27	85.0497	1,072.27	84.6015	1,072.27	83.8804	1,072.27	83.951	1,072.27	82.5314	1,072.27	83.1242	1,072.27	81.3614	1,072.27	82.084	1,072.27	80.2152	1,072.27	80.7063	1,072.27	78.4346	1,072.27	78.8199	1,072.27	75.3858	1,072.27	76.6363	1,072.27	71.5161	1,072.27	75.8267	1,072.27	71.2094	1,072.27	76.8558	1,072.27	73.0764	1,072.27	76.7345	1,072.27	73.6357	1,072.27	73.1664	1,072.27	73.0808	1,072.27	71.2475	1,072.27	72.9678	1,072.27	76.3119	1,072.27	74.4116	1,072.27	76.9866	1,072.27	75.0664	1,072.27	74.2547	1,072.27	73.5886
1,110.35	85.6403	1,110.35	85.7966	1,110.35	85.4609	1,110.35	85.8068	1,110.35	85.154	1,110.35	85.3337	1,110.35	84.6296	1,110.35	84.1206	1,110.35	83.8952	1,110.35	82.331	1,110.35	82.9497	1,110.35	80.7928	1,110.35	81.7629	1,110.35	80.0576	1,110.35	80.3539	1,110.35	79.2635	1,110.35	78.7818	1,110.35	77.4099	1,110.35	77.0853	1,110.35	74.285	1,110.35	75.4884	1,110.35	72.0347	1,110.35	74.7841	1,110.35	72.9494	1,110.35	74.8928	1,110.35	73.5707	1,110.35	74.3167	1,110.35	72.4207	1,110.35	73.9112	1,110.35	71.1481	1,110.35	75.5601	1,110.35	72.8053	1,110.35	76.2151	1,110.35	74.1276	1,110.35	74.8983	1,110.35	74.0035
1,148.44	85.7081	1,148.44	85.4245	1,148.44	85.6613	1,148.44	85.0127	1,148.44	85.2455	1,148.44	84.4454	1,148.44	84.5893	1,148.44	83.368	1,148.44	83.7626	1,148.44	81.5857	1,148.44	82.7724	1,148.44	79.596	1,148.44	81.6765	1,148.44	78.4655	1,148.44	80.4526	1,148.44	78.0016	1,148.44	78.776	1,148.44	76.9901	1,148.44	76.0313	1,148.44	75.1313	1,148.44	72.5765	1,148.44	73.6186	1,148.44	74.0857	1,148.44	73.4817	1,148.44	76.7913	1,148.44	73.2438	1,148.44	76.4156	1,148.44	71.7653	1,148.44	74.0411	1,148.44	71.1439	1,148.44	75.2138	1,148.44	73.58	1,148.44	76.1945	1,148.44	74.8306	1,148.44	74.6539	1,148.44	74.0948
1,189.45	85.7444	1,189.45	85.2058	1,189.45	85.8366	1,189.45	84.3833	1,189.45	85.4643	1,189.45	83.4764	1,189.45	84.732	1,189.45	82.5022	1,189.45	83.735	1,189.45	81.2142	1,189.45	82.5018	1,189.45	79.4442	1,189.45	81.1294	1,189.45	77.6761	1,189.45	79.8452	1,189.45	76.8298	1,189.45	78.6964	1,189.45	76.5225	1,189.45	77.1926	1,189.45	75.8455	1,189.45	74.4422	1,189.45	74.9526	1,189.45	70.5894	1,189.45	74.4563	1,189.45	71.2836	1,189.45	73.8913	1,189.45	73.0706	1,189.45	72.0887	1,189.45	73.3333	1,189.45	69.1985	1,189.45	74.361	1,189.45	70.126	1,189.45	74.7733	1,189.45	72.3372	1,189.45	73.5322	1,189.45	72.7312
1,230.47	85.6032	1,230.47	85.3384	1,230.47	85.5645	1,230.47	84.6391	1,230.47	85.2343	1,230.47	83.5069	1,230.47	84.5815	1,230.47	82.1871	1,230.47	83.5811	1,230.47	80.6882	1,230.47	82.1923	1,230.47	78.6079	1,230.47	80.579	1,230.47	76.1075	1,230.47	79.1909	1,230.47	74.8562	1,230.47	78.2307	1,230.47	74.8741	1,230.47	77.0806	1,230.47	74.6101	1,230.47	74.5496	1,230.47	74.6119	1,230.47	70.1349	1,230.47	75.4441	1,230.47	71.3356	1,230.47	75.9359	1,230.47	73.6826	1,230.47	74.8912	1,230.47	73.6399	1,230.47	72.0525	1,230.47	74.7767	1,230.47	70.7833	1,230.47	75.2822	1,230.47	72.2765	1,230.47	73.7315	1,230.47	72.7334
1,274.41	85.3112	1,274.41	84.8282	1,274.41	85.3816	1,274.41	83.9629	1,274.41	85.0722	1,274.41	82.8166	1,274.41	84.4152	1,274.41	81.6559	1,274.41	83.2719	1,274.41	80.4319	1,274.41	81.6167	1,274.41	78.5603	1,274.41	79.8304	1,274.41	75.9019	1,274.41	78.3885	1,274.41	73.8126	1,274.41	77.4039	1,274.41	72.8381	1,274.41	76.5284	1,274.41	71.3264	1,274.41	75.0619	1,274.41	70.5867	1,274.41	72.4144	1,274.41	72.7306	1,274.41	70.7233	1,274.41	74.4757	1,274.41	71.4156	1,274.41	74.0621	1,274.41	70.9835	1,274.41	71.403	1,274.41	72.8932	1,274.41	69.6956	1,274.41	74.4983	1,274.41	71.5181	1,274.41	73.619	1,274.41	72.5586
1,318.36	84.8293	1,318.36	84.3442	1,318.36	85.1157	1,318.36	83.5067	1,318.36	85.0382	1,318.36	82.125	1,318.36	84.3527	1,318.36	80.6935	1,318.36	83.0263	1,318.36	79.9611	1,318.36	81.2724	1,318.36	78.9039	1,318.36	79.2451	1,318.36	75.9646	1,318.36	76.9817	1,318.36	71.7154	1,318.36	75.0475	1,318.36	72.0725	1,318.36	74.2078	1,318.36	73.1746	1,318.36	73.6605	1,318.36	72.5891	1,318.36	71.5383	1,318.36	72.5591	1,318.36	68.2351	1,318.36	73.6801	1,318.36	70.703	1,318.36	73.7323	1,318.36	72.5066	1,318.36	71.8858	1,318.36	73.1065	1,318.36	70.1483	1,318.36	73.479	1,318.36	71.079	1,318.36	72.5112	1,318.36	71.7452
1,365.23	84.2184	1,365.23	83.844	1,365.23	84.6507	1,365.23	83.5221	1,365.23	84.5717	1,365.23	82.464	1,365.23	83.7302	1,365.23	80.4218	1,365.23	82.3125	1,365.23	78.9325	1,365.23	80.6159	1,365.23	78.4706	1,365.23	78.6447	1,365.23	76.5633	1,365.23	76.4261	1,365.23	71.6449	1,365.23	74.8842	1,365.23	67.4322	1,365.23	74.8813	1,365.23	70.0814	1,365.23	74.7871	1,365.23	71.114	1,365.23	71.9073	1,365.23	72.0821	1,365.23	67.0576	1,365.23	73.8752	1,365.23	71.0141	1,365.23	74.6247	1,365.23	70.477	1,365.23	73.2938	1,365.23	71.092	1,365.23	70.5118	1,365.23	73.2997	1,365.23	68.9676	1,365.23	71.0816	1,365.23	68.1563
1,415.04	83.8981	1,415.04	83.0507	1,415.04	84.2174	1,415.04	82.5706	1,415.04	83.6503	1,415.04	82.0033	1,415.04	82.5216	1,415.04	80.3437	1,415.04	81.0289	1,415.04	78.2941	1,415.04	79.1559	1,415.04	77.5215	1,415.04	77.1487	1,415.04	76.7554	1,415.04	75.2337	1,415.04	74.3743	1,415.04	73.728	1,415.04	70.2962	1,415.04	73.6154	1,415.04	66.7675	1,415.04	74.2777	1,415.04	66.4985	1,415.04	73.1715	1,415.04	68.9634	1,415.04	68.7839	1,415.04	71.6085	1,415.04	68.464	1,415.04	72.402	1,415.04	68.6	1,415.04	70.9667	1,415.04	68.3115	1,415.04	68.3251	1,415.04	71.4746	1,415.04	67.0835	1,415.04	71.1707	1,415.04	68.5928
1,464.84	84.1905	1,464.84	82.7557	1,464.84	84.3389	1,464.84	81.2167	1,464.84	83.5051	1,464.84	80.808	1,464.84	82.1336	1,464.84	79.8339	1,464.84	80.2272	1,464.84	77.8038	1,464.84	78.1197	1,464.84	76.9104	1,464.84	76.3623	1,464.84	76.9057	1,464.84	74.6493	1,464.84	75.4271	1,464.84	72.6691	1,464.84	72.0821	1,464.84	71.3923	1,464.84	68.1725	1,464.84	72.412	1,464.84	64.5475	1,464.84	72.7757	1,464.84	61.3559	1,464.84	67.8719	1,464.84	65.6557	1,464.84	62.7634	1,464.84	69.3868	1,464.84	69.0584	1,464.84	69.9345	1,464.84	68.5968	1,464.84	68.3678	1,464.84	70.7168	1,464.84	67.2074	1,464.84	71.4574	1,464.84	69.2604
1,514.65	84.2584	1,514.65	82.9921	1,514.65	84.363	1,514.65	80.609	1,514.65	83.7344	1,514.65	79.4568	1,514.65	82.1803	1,514.65	79.304	1,514.65	79.7526	1,514.65	77.7449	1,514.65	77.3143	1,514.65	76.1798	1,514.65	75.4386	1,514.65	76.371	1,514.65	74.3314	1,514.65	75.9487	1,514.65	73.8757	1,514.65	73.9346	1,514.65	72.9802	1,514.65	71.3793	1,514.65	71.7929	1,514.65	69.8092	1,514.65	71.791	1,514.65	68.6575	1,514.65	68.5517	1,514.65	67.373	1,514.65	56.6917	1,514.65	67.212	1,514.65	67.5543	1,514.65	67.374	1,514.65	65.0468	1,514.65	67.2809	1,514.65	69.1065	1,514.65	67.4315	1,514.65	71.0652	1,514.65	69.0122
1,570.31	84.0284	1,570.31	82.9145	1,570.31	84.285	1,570.31	80.3716	1,570.31	83.5266	1,570.31	77.3981	1,570.31	81.4163	1,570.31	77.5095	1,570.31	78.3639	1,570.31	77.2749	1,570.31	75.583	1,570.31	75.3195	1,570.31	74.1592	1,570.31	74.5177	1,570.31	73.7969	1,570.31	75.1331	1,570.31	73.5088	1,570.31	74.477	1,570.31	72.8572	1,570.31	72.4663	1,570.31	71.7838	1,570.31	71.1362	1,570.31	71.094	1,570.31	71.2934	1,570.31	69.6912	1,570.31	70.7318	1,570.31	63.6057	1,570.31	68.5265	1,570.31	58.1167	1,570.31	66.2497	1,570.31	60.3712	1,570.31	65.4542	1,570.31	67.5946	1,570.31	65.3264	1,570.31	69.8156	1,570.31	67.6443
1,623.05	83.8598	1,623.05	82.3816	1,623.05	84.3341	1,623.05	79.9786	1,623.05	83.3463	1,623.05	76.5588	1,623.05	80.7567	1,623.05	74.8551	1,623.05	76.9555	1,623.05	75.5272	1,623.05	73.7989	1,623.05	75.0149	1,623.05	73.2345	1,623.05	73.4135	1,623.05	73.5859	1,623.05	73.0752	1,623.05	73.9365	1,623.05	73.472	1,623.05	73.7143	1,623.05	72.5909	1,623.05	72.6812	1,623.05	70.8306	1,623.05	72.8439	1,623.05	70.4793	1,623.05	72.6758	1,623.05	71.4194	1,623.05	67.8917	1,623.05	70.5884	1,623.05	58.2298	1,623.05	67.4793	1,623.05	52.3573	1,623.05	64.0929	1,623.05	67.0422	1,623.05	63.0966	1,623.05	69.9805	1,623.05	67.3464
1,681.64	83.7657	1,681.64	82.0053	1,681.64	84.2257	1,681.64	79.5436	1,681.64	82.917	1,681.64	76.3948	1,681.64	79.9312	1,681.64	73.9973	1,681.64	75.7513	1,681.64	74.2632	1,681.64	72.541	1,681.64	74.7944	1,681.64	72.5964	1,681.64	74.1402	1,681.64	72.7915	1,681.64	72.7869	1,681.64	73.4898	1,681.64	72.6411	1,681.64	74.3432	1,681.64	72.6137	1,681.64	72.551	1,681.64	71.2467	1,681.64	69.5537	1,681.64	70.1641	1,681.64	72.3014	1,681.64	70.8822	1,681.64	68.9127	1,681.64	70.6779	1,681.64	57.3953	1,681.64	68.6287	1,681.64	59.1306	1,681.64	65.0237	1,681.64	62.344	1,681.64	61.4404	1,681.64	68.9714	1,681.64	66.566
1,740.23	84.2289	1,740.23	81.7383	1,740.23	84.2844	1,740.23	77.1756	1,740.23	82.3739	1,740.23	73.758	1,740.23	78.9597	1,740.23	73.5006	1,740.23	73.9023	1,740.23	75.1296	1,740.23	71.6244	1,740.23	76.8627	1,740.23	73.6293	1,740.23	76.555	1,740.23	73.6022	1,740.23	73.8909	1,740.23	72.5275	1,740.23	71.7571	1,740.23	72.6345	1,740.23	71.6117	1,740.23	71.6826	1,740.23	70.4949	1,740.23	67.9317	1,740.23	69.5698	1,740.23	70.8703	1,740.23	70.274	1,740.23	69.6459	1,740.23	69.6337	1,740.23	60.3624	1,740.23	65.7805	1,740.23	62.517	1,740.23	58.3799	1,740.23	58.9205	1,740.23	58.2741	1,740.23	68.9859	1,740.23	67.379
1,801.76	84.3372	1,801.76	81.918	1,801.76	84.2858	1,801.76	76.473	1,801.76	81.9796	1,801.76	70.8231	1,801.76	76.99	1,801.76	73.98	1,801.76	68.0631	1,801.76	75.3621	1,801.76	70.7122	1,801.76	76.2658	1,801.76	73.5603	1,801.76	76.6287	1,801.76	73.4794	1,801.76	74.4654	1,801.76	73.0164	1,801.76	70.6518	1,801.76	73.4149	1,801.76	70.0497	1,801.76	72.9807	1,801.76	69.7106	1,801.76	70.5795	1,801.76	67.6615	1,801.76	70.3531	1,801.76	70.2189	1,801.76	68.8554	1,801.76	71.8113	1,801.76	62.5407	1,801.76	69.2557	1,801.76	64.3204	1,801.76	63.015	1,801.76	60.7229	1,801.76	58.6437	1,801.76	70.6306	1,801.76	68.074
1,866.21	84.1342	1,866.21	81.8421	1,866.21	84.19	1,866.21	76.3973	1,866.21	81.8407	1,866.21	62.6486	1,866.21	75.9765	1,866.21	73.199	1,866.21	65.6618	1,866.21	76.9559	1,866.21	73.3033	1,866.21	77.261	1,866.21	75.1865	1,866.21	76.5535	1,866.21	74.6402	1,866.21	75.5694	1,866.21	73.9542	1,866.21	74.096	1,866.21	74.3269	1,866.21	72.9377	1,866.21	74.5999	1,866.21	72.3396	1,866.21	72.2634	1,866.21	70.2602	1,866.21	70.085	1,866.21	67.4766	1,866.21	70.5615	1,866.21	69.3991	1,866.21	62.2772	1,866.21	68.9719	1,866.21	62.4709	1,866.21	62.5047	1,866.21	57.8175	1,866.21	57.1506	1,866.21	69.078	1,866.21	68.2142
1,930.66	83.2169	1,930.66	81.1947	1,930.66	83.4119	1,930.66	76.5753	1,930.66	81.1526	1,930.66	65.7003	1,930.66	74.7778	1,930.66	74.822	1,930.66	67.9078	1,930.66	78.3207	1,930.66	75.25	1,930.66	78.9386	1,930.66	77.1766	1,930.66	78.3478	1,930.66	76.6123	1,930.66	76.613	1,930.66	74.951	1,930.66	74.3753	1,930.66	73.7153	1,930.66	73.5867	1,930.66	73.5117	1,930.66	73.632	1,930.66	71.3224	1,930.66	72.9121	1,930.66	67.0021	1,930.66	71.6659	1,930.66	70.4417	1,930.66	70.1276	1,930.66	65.9915	1,930.66	68.275	1,930.66	62.478	1,930.66	64.4319	1,930.66	49.5137	1,930.66	55.4708	1,930.66	69.4612	1,930.66	70.0119
2,000.98	84.2253	2,000.98	81.5111	2,000.98	84.0708	2,000.98	75.0883	2,000.98	80.9046	2,000.98	59.6744	2,000.98	73.0434	2,000.98	76.113	2,000.98	69.2506	2,000.98	78.5837	2,000.98	77.1182	2,000.98	78.1753	2,000.98	78.9933	2,000.98	77.5657	2,000.98	77.9411	2,000.98	76.7435	2,000.98	74.7941	2,000.98	75.1756	2,000.98	72.3794	2,000.98	73.9612	2,000.98	73.0734	2,000.98	73.0798	2,000.98	72.0292	2,000.98	72.1484	2,000.98	66.5674	2,000.98	72.0946	2,000.98	69.7866	2,000.98	70.4501	2,000.98	67.4038	2,000.98	66.0429	2,000.98	59.1849	2,000.98	64.4548	2,000.98	61.5458	2,000.98	54.7593	2,000.98	70.9197	2,000.98	69.5867
2,071.29	84.9101	2,071.29	82.396	2,071.29	84.3437	2,071.29	74.9238	2,071.29	80.8621	2,071.29	64.9047	2,071.29	71.6544	2,071.29	76.8974	2,071.29	71.6665	2,071.29	79.0767	2,071.29	78.686	2,071.29	78.7006	2,071.29	80.0623	2,071.29	78.2208	2,071.29	78.8188	2,071.29	77.2967	2,071.29	75.304	2,071.29	74.9729	2,071.29	72.1679	2,071.29	73.1509	2,071.29	73.347	2,071.29	72.0521	2,071.29	72.9463	2,071.29	69.2085	2,071.29	67.89	2,071.29	70.3431	2,071.29	69.7594	2,071.29	71.3593	2,071.29	65.5599	2,071.29	67.0415	2,071.29	61.7037	2,071.29	61.4731	2,071.29	63.315	2,071.29	65.834	2,071.29	72.6737	2,071.29	70.9756
2,144.53	84.4934	2,144.53	82.0367	2,144.53	84.0472	2,144.53	74.4655	2,144.53	80.45	2,144.53	71.5792	2,144.53	68.3265	2,144.53	77.8027	2,144.53	73.6751	2,144.53	79.5392	2,144.53	79.1749	2,144.53	79.4387	2,144.53	79.9383	2,144.53	78.0833	2,144.53	78.3819	2,144.53	75.9782	2,144.53	75.1764	2,144.53	73.1569	2,144.53	73.2836	2,144.53	70.5533	2,144.53	74.4938	2,144.53	69.6326	2,144.53	73.9328	2,144.53	68.5564	2,144.53	68.2288	2,144.53	68.081	2,144.53	68.2687	2,144.53	70.5312	2,144.53	63.4209	2,144.53	69.9152	2,144.53	61.8617	2,144.53	60.6415	2,144.53	61.1883	2,144.53	62.8737	2,144.53	71.6405	2,144.53	70.8774
2,217.77	83.5891	2,217.77	80.5868	2,217.77	83.4818	2,217.77	73.8481	2,217.77	79.8057	2,217.77	69.834	2,217.77	66.1251	2,217.77	77.5402	2,217.77	74.9439	2,217.77	80.5851	2,217.77	79.9113	2,217.77	80.7605	2,217.77	80.5053	2,217.77	78.6454	2,217.77	78.7157	2,217.77	74.8064	2,217.77	75.8126	2,217.77	71.521	2,217.77	73.6657	2,217.77	72.2558	2,217.77	73.8741	2,217.77	72.9583	2,217.77	74.3523	2,217.77	70.6982	2,217.77	70.9952	2,217.77	67.6529	2,217.77	66.9642	2,217.77	68.8069	2,217.77	60.1756	2,217.77	68.3869	2,217.77	58.8128	2,217.77	66.1481	2,217.77	59.9401	2,217.77	63.2757	2,217.77	71.7135	2,217.77	71.0633
2,296.88	84.3315	2,296.88	81.9354	2,296.88	83.6451	2,296.88	76.4706	2,296.88	79.4855	2,296.88	75.3989	2,296.88	67.4265	2,296.88	80.3644	2,296.88	76.0312	2,296.88	81.4632	2,296.88	80.7605	2,296.88	80.4886	2,296.88	81.523	2,296.88	78.9515	2,296.88	79.7174	2,296.88	78.1209	2,296.88	76.6249	2,296.88	77.3289	2,296.88	74.5619	2,296.88	74.8889	2,296.88	73.675	2,296.88	72.1602	2,296.88	72.3436	2,296.88	72.1077	2,296.88	72.1123	2,296.88	70.5912	2,296.88	70.3697	2,296.88	68.2381	2,296.88	65.1117	2,296.88	68.2719	2,296.88	57.9456	2,296.88	65.4694	2,296.88	67.1974	2,296.88	63.716	2,296.88	71.8235	2,296.88	68.5729
2,378.91	85.0822	2,378.91	82.7288	2,378.91	84.2344	2,378.91	75.5163	2,378.91	80.0467	2,378.91	76.2818	2,378.91	68.6177	2,378.91	80.9461	2,378.91	77.4897	2,378.91	81.112	2,378.91	81.476	2,378.91	78.7672	2,378.91	81.8664	2,378.91	76.9822	2,378.91	80.0125	2,378.91	76.1716	2,378.91	75.9417	2,378.91	75.262	2,378.91	72.0718	2,378.91	74.3172	2,378.91	74.0247	2,378.91	73.4129	2,378.91	72.0935	2,378.91	71.2491	2,378.91	70.3487	2,378.91	69.4634	2,378.91	72.8778	2,378.91	69.9094	2,378.91	68.6682	2,378.91	67.2532	2,378.91	65.4887	2,378.91	66.0595	2,378.91	66.8529	2,378.91	68.7691	2,378.91	72.0423	2,378.91	71.1141
2,460.94	84.3635	2,460.94	82.1304	2,460.94	83.6984	2,460.94	78.0257	2,460.94	79.9521	2,460.94	79.0946	2,460.94	73.8909	2,460.94	80.2782	2,460.94	78.1878	2,460.94	81.1631	2,460.94	81.7775	2,460.94	81.1554	2,460.94	82.4788	2,460.94	78.7411	2,460.94	80.7925	2,460.94	76.0967	2,460.94	76.8834	2,460.94	74.8338	2,460.94	71.1719	2,460.94	73.3576	2,460.94	71.1644	2,460.94	72.3897	2,460.94	73.6014	2,460.94	71.2121	2,460.94	70.806	2,460.94	69.1657	2,460.94	71.032	2,460.94	68.9806	2,460.94	67.7745	2,460.94	65.0091	2,460.94	60.6947	2,460.94	64.2254	2,460.94	66.5127	2,460.94	68.2049	2,460.94	71.8641	2,460.94	70.3439
2,548.83	84.0401	2,548.83	81.7528	2,548.83	83.4546	2,548.83	78.3703	2,548.83	79.7143	2,548.83	78.7191	2,548.83	75.6117	2,548.83	81.1761	2,548.83	79.1988	2,548.83	81.3072	2,548.83	81.9974	2,548.83	79.9359	2,548.83	82.6645	2,548.83	78.3642	2,548.83	81.3245	2,548.83	76.1111	2,548.83	77.9673	2,548.83	73.885	2,548.83	74.6637	2,548.83	73.3489	2,548.83	72.6253	2,548.83	72.6589	2,548.83	68.5231	2,548.83	71.4369	2,548.83	71.5821	2,548.83	70.155	2,548.83	73.1687	2,548.83	70.1425	2,548.83	70.8784	2,548.83	68.3604	2,548.83	63.9236	2,548.83	61.8061	2,548.83	66.7253	2,548.83	69.1164	2,548.83	71.3261	2,548.83	70.4732
2,639.65	84.774	2,639.65	82.8251	2,639.65	83.6349	2,639.65	78.5796	2,639.65	79.9589	2,639.65	78.9644	2,639.65	77.3991	2,639.65	81.9981	2,639.65	79.9994	2,639.65	82.2112	2,639.65	82.0273	2,639.65	81.1524	2,639.65	82.6346	2,639.65	80.489	2,639.65	81.3267	2,639.65	79.1708	2,639.65	76.9557	2,639.65	77.5683	2,639.65	70.547	2,639.65	76.2984	2,639.65	72.28	2,639.65	74.2933	2,639.65	71.2701	2,639.65	71.9158	2,639.65	69.2478	2,639.65	70.8145	2,639.65	72.438	2,639.65	71.0318	2,639.65	70.831	2,639.65	68.8292	2,639.65	65.2735	2,639.65	61.8709	2,639.65	65.7558	2,639.65	68.7929	2,639.65	72.4611	2,639.65	71.6598
2,733.4	84.4273	2,733.4	83.0733	2,733.4	83.4057	2,733.4	79.3961	2,733.4	80.5024	2,733.4	79.7489	2,733.4	78.5419	2,733.4	81.8889	2,733.4	80.4561	2,733.4	82.6342	2,733.4	82.1162	2,733.4	82.4299	2,733.4	82.3998	2,733.4	80.9812	2,733.4	81.3332	2,733.4	79.0331	2,733.4	78.138	2,733.4	77.2956	2,733.4	71.0465	2,733.4	75.6889	2,733.4	67.8512	2,733.4	74.2798	2,733.4	71.5128	2,733.4	72.6956	2,733.4	71.4724	2,733.4	70.6447	2,733.4	72.5887	2,733.4	70.8852	2,733.4	67.0309	2,733.4	70.3989	2,733.4	47.3858	2,733.4	61.692	2,733.4	66.0183	2,733.4	70.009	2,733.4	73.0897	2,733.4	71.5186
2,827.15	84.5371	2,827.15	83.2808	2,827.15	82.9405	2,827.15	79.2811	2,827.15	80.8651	2,827.15	80.3338	2,827.15	80.2828	2,827.15	82.7754	2,827.15	80.5925	2,827.15	83.2367	2,827.15	81.741	2,827.15	82.7978	2,827.15	82.321	2,827.15	81.3978	2,827.15	81.3694	2,827.15	78.6132	2,827.15	78.508	2,827.15	75.6244	2,827.15	73.5654	2,827.15	74.8184	2,827.15	66.9289	2,827.15	74.5958	2,827.15	67.4601	2,827.15	73.0902	2,827.15	70.2539	2,827.15	71.1813	2,827.15	73.7921	2,827.15	71.6787	2,827.15	71.3722	2,827.15	71.5867	2,827.15	61.0296	2,827.15	65.7468	2,827.15	67.7476	2,827.15	68.5912	2,827.15	73.1604	2,827.15	71.6739
2,926.76	84.5173	2,926.76	82.9158	2,926.76	82.5527	2,926.76	78.7433	2,926.76	81.0623	2,926.76	81.3715	2,926.76	81.6021	2,926.76	83.6134	2,926.76	81.0622	2,926.76	84.3661	2,926.76	81.4002	2,926.76	83.709	2,926.76	82.3901	2,926.76	81.3045	2,926.76	81.6148	2,926.76	79.013	2,926.76	78.8934	2,926.76	77.6834	2,926.76	75.9705	2,926.76	75.8971	2,926.76	72.5797	2,926.76	73.4671	2,926.76	71.637	2,926.76	71.7762	2,926.76	70.9599	2,926.76	70.2263	2,926.76	73.7019	2,926.76	69.4311	2,926.76	71.3576	2,926.76	69.6842	2,926.76	60.0491	2,926.76	64.9879	2,926.76	65.162	2,926.76	70.1421	2,926.76	71.9084	2,926.76	70.5078
3,032.23	84.3534	3,032.23	82.3673	3,032.23	82.1407	3,032.23	79.2617	3,032.23	81.1215	3,032.23	81.9891	3,032.23	82.9171	3,032.23	84.2923	3,032.23	82.0275	3,032.23	84.5059	3,032.23	80.9577	3,032.23	82.2189	3,032.23	82.4168	3,032.23	80.3118	3,032.23	82.1497	3,032.23	78.3475	3,032.23	80.0947	3,032.23	73.9126	3,032.23	78.5259	3,032.23	71.9766	3,032.23	73.9561	3,032.23	71.7516	3,032.23	68.9518	3,032.23	69.9074	3,032.23	70.4897	3,032.23	68.6123	3,032.23	72.3469	3,032.23	67.9722	3,032.23	70.7436	3,032.23	68.5072	3,032.23	58.8123	3,032.23	62.3768	3,032.23	68.1502	3,032.23	68.748	3,032.23	71.3919	3,032.23	68.5848
3,137.7	84.3189	3,137.7	82.7851	3,137.7	82.0404	3,137.7	80.2593	3,137.7	81.4132	3,137.7	82.562	3,137.7	83.7038	3,137.7	84.2956	3,137.7	82.8199	3,137.7	83.8469	3,137.7	80.7316	3,137.7	81.8356	3,137.7	82.3263	3,137.7	78.7619	3,137.7	82.8162	3,137.7	74.6342	3,137.7	80.9093	3,137.7	75.0278	3,137.7	79.1768	3,137.7	74.8149	3,137.7	76.8786	3,137.7	73.177	3,137.7	68.0686	3,137.7	70.5718	3,137.7	70.8044	3,137.7	69.2693	3,137.7	72.3577	3,137.7	67.2475	3,137.7	72.258	3,137.7	68.1366	3,137.7	56.19	3,137.7	62.7021	3,137.7	66.4728	3,137.7	67.3071	3,137.7	70.8776	3,137.7	67.8505
3,249.02	84.1866	3,249.02	82.3212	3,249.02	81.1359	3,249.02	80.7397	3,249.02	80.9185	3,249.02	83.4362	3,249.02	84.6526	3,249.02	84.1239	3,249.02	83.8182	3,249.02	82.723	3,249.02	80.5126	3,249.02	79.9552	3,249.02	82.6544	3,249.02	77.6991	3,249.02	83.7833	3,249.02	78.3678	3,249.02	81.971	3,249.02	77.5017	3,249.02	80.2816	3,249.02	74.1656	3,249.02	76.891	3,249.02	73.2099	3,249.02	71.4769	3,249.02	71.9229	3,249.02	70.6062	3,249.02	69.2342	3,249.02	72.0891	3,249.02	68.107	3,249.02	70.8616	3,249.02	64.1576	3,249.02	62.2655	3,249.02	63.1997	3,249.02	63.9462	3,249.02	66.8131	3,249.02	69.7805	3,249.02	68.8394
3,363.28	83.955	3,363.28	82.1292	3,363.28	80.3521	3,363.28	81.8512	3,363.28	80.0523	3,363.28	83.9975	3,363.28	84.7539	3,363.28	83.5954	3,363.28	84.653	3,363.28	81.7131	3,363.28	81.5278	3,363.28	80.3862	3,363.28	82.6615	3,363.28	80.5606	3,363.28	83.6054	3,363.28	77.6216	3,363.28	81.5343	3,363.28	74.5381	3,363.28	80.406	3,363.28	74.7757	3,363.28	78.6894	3,363.28	74.1987	3,363.28	73.2654	3,363.28	72.9125	3,363.28	70.5101	3,363.28	70.912	3,363.28	71.0308	3,363.28	70.4296	3,363.28	71.0732	3,363.28	68.6235	3,363.28	63.8873	3,363.28	63.9851	3,363.28	64.9749	3,363.28	64.9971	3,363.28	69.0903	3,363.28	68.0827
3,483.4	83.973	3,483.4	82.6956	3,483.4	81.2678	3,483.4	82.7048	3,483.4	78.806	3,483.4	83.2494	3,483.4	84.5763	3,483.4	83.3231	3,483.4	84.8075	3,483.4	81.4463	3,483.4	81.7026	3,483.4	81.505	3,483.4	83.558	3,483.4	79.5724	3,483.4	84.3046	3,483.4	79.0074	3,483.4	81.1699	3,483.4	79.1325	3,483.4	78.2447	3,483.4	75.5477	3,483.4	75.1144	3,483.4	72.9307	3,483.4	75.3615	3,483.4	72.2492	3,483.4	71.412	3,483.4	70.6045	3,483.4	71.3004	3,483.4	71.4258	3,483.4	69.5579	3,483.4	68.9647	3,483.4	61.2527	3,483.4	65.2025	3,483.4	63.413	3,483.4	63.0859	3,483.4	69.6882	3,483.4	69.1459
3,606.45	83.7999	3,606.45	83.3334	3,606.45	80.6028	3,606.45	82.8652	3,606.45	79.1554	3,606.45	83.6029	3,606.45	84.2731	3,606.45	82.3227	3,606.45	85.0439	3,606.45	82.382	3,606.45	82.7282	3,606.45	82.5224	3,606.45	84.0575	3,606.45	82.3384	3,606.45	84.6517	3,606.45	80.8083	3,606.45	80.9092	3,606.45	76.5043	3,606.45	75.2599	3,606.45	75.1494	3,606.45	71.9824	3,606.45	74.3725	3,606.45	72.322	3,606.45	73.1529	3,606.45	71.8093	3,606.45	70.7868	3,606.45	68.5092	3,606.45	71.1723	3,606.45	66.4088	3,606.45	70.586	3,606.45	59.3083	3,606.45	65.1707	3,606.45	66.2773	3,606.45	67.246	3,606.45	69.659	3,606.45	69.0985
3,732.42	83.8237	3,732.42	83.0485	3,732.42	80.387	3,732.42	83.0329	3,732.42	78.5744	3,732.42	82.9582	3,732.42	84.3804	3,732.42	83.0358	3,732.42	84.8764	3,732.42	82.5979	3,732.42	82.4914	3,732.42	83.0253	3,732.42	83.5292	3,732.42	82.0619	3,732.42	83.9661	3,732.42	76.549	3,732.42	80.9358	3,732.42	76.1762	3,732.42	74.3938	3,732.42	74.2555	3,732.42	64.2434	3,732.42	71.752	3,732.42	70.3552	3,732.42	71.4043	3,732.42	71.0609	3,732.42	69.6659	3,732.42	64.8145	3,732.42	69.9826	3,732.42	66.9416	3,732.42	70.2515	3,732.42	60.0619	3,732.42	65.2047	3,732.42	64.0577	3,732.42	65.852	3,732.42	69.679	3,732.42	67.1207
3,864.26	84.2679	3,864.26	83.7137	3,864.26	81.2316	3,864.26	82.5605	3,864.26	78.0824	3,864.26	83.1688	3,864.26	84.168	3,864.26	82.8621	3,864.26	85.0693	3,864.26	83.1922	3,864.26	82.3674	3,864.26	82.9516	3,864.26	82.4294	3,864.26	79.012	3,864.26	82.8987	3,864.26	79.5513	3,864.26	80.9956	3,864.26	77.1821	3,864.26	77.9237	3,864.26	74.4074	3,864.26	69.6752	3,864.26	71.8572	3,864.26	72.4262	3,864.26	71.0248	3,864.26	72.0958	3,864.26	68.6893	3,864.26	69.0568	3,864.26	69.2013	3,864.26	61.8825	3,864.26	70.1251	3,864.26	61.4921	3,864.26	65.4566	3,864.26	65.4661	3,864.26	61.996	3,864.26	69.2593	3,864.26	68.618
3,999.02	84.6406	3,999.02	83.6411	3,999.02	81.8854	3,999.02	83.0911	3,999.02	79.4429	3,999.02	83.4448	3,999.02	83.9239	3,999.02	82.9544	3,999.02	84.3419	3,999.02	83.1459	3,999.02	82.5857	3,999.02	80.1371	3,999.02	83.6046	3,999.02	80.3841	3,999.02	83.4231	3,999.02	76.8904	3,999.02	79.8979	3,999.02	74.3827	3,999.02	73.5034	3,999.02	74.8386	3,999.02	57.8311	3,999.02	72.6018	3,999.02	71.9255	3,999.02	72.4105	3,999.02	72.3687	3,999.02	71.0781	3,999.02	69.1813	3,999.02	68.6925	3,999.02	58.7942	3,999.02	70.3543	3,999.02	66.864	3,999.02	66.2643	3,999.02	68.4668	3,999.02	61.1048	3,999.02	69.4202	3,999.02	68.7682
4,139.65	84.5554	4,139.65	83.0816	4,139.65	82.2367	4,139.65	83.4586	4,139.65	78.605	4,139.65	83.7442	4,139.65	84.3873	4,139.65	83.8784	4,139.65	84.685	4,139.65	82.2481	4,139.65	82.0964	4,139.65	81.8771	4,139.65	83.1749	4,139.65	80.4032	4,139.65	82.8603	4,139.65	81.764	4,139.65	79.2182	4,139.65	80.7529	4,139.65	73.598	4,139.65	76.0295	4,139.65	68.0412	4,139.65	73.8125	4,139.65	70.6885	4,139.65	72.1498	4,139.65	73.6341	4,139.65	71.2165	4,139.65	65.7922	4,139.65	69.4101	4,139.65	63.2992	4,139.65	71.6408	4,139.65	67.1525	4,139.65	68.5597	4,139.65	65.6481	4,139.65	60.9676	4,139.65	67.5033	4,139.65	67.7736
4,286.13	84.9566	4,286.13	84.0757	4,286.13	84.0133	4,286.13	83.336	4,286.13	80.9767	4,286.13	83.8954	4,286.13	84.7563	4,286.13	83.7461	4,286.13	85.578	4,286.13	82.3751	4,286.13	82.8053	4,286.13	82.2688	4,286.13	83.5742	4,286.13	83.5576	4,286.13	83.2073	4,286.13	79.5904	4,286.13	79.1649	4,286.13	74.3669	4,286.13	78.9511	4,286.13	76.2727	4,286.13	76.1603	4,286.13	73.558	4,286.13	69.386	4,286.13	72.1179	4,286.13	72.7705	4,286.13	71.5312	4,286.13	68.6995	4,286.13	69.1837	4,286.13	63.2647	4,286.13	69.5979	4,286.13	69.5745	4,286.13	68.4595	4,286.13	64.7089	4,286.13	58.7707	4,286.13	69.6805	4,286.13	71.1923
4,438.48	85.4258	4,438.48	83.9715	4,438.48	84.2866	4,438.48	83.247	4,438.48	81.6202	4,438.48	84.5901	4,438.48	84.3815	4,438.48	83.08	4,438.48	85.1861	4,438.48	82.955	4,438.48	82.9775	4,438.48	84.0071	4,438.48	82.7124	4,438.48	80.2187	4,438.48	82.6277	4,438.48	79.562	4,438.48	81.4162	4,438.48	78.4594	4,438.48	78.9771	4,438.48	73.6011	4,438.48	76.177	4,438.48	72.9587	4,438.48	59.5587	4,438.48	70.3577	4,438.48	71.2335	4,438.48	70.169	4,438.48	68.0918	4,438.48	70.0089	4,438.48	64.1106	4,438.48	67.1858	4,438.48	64.0269	4,438.48	68.3793	4,438.48	62.9533	4,438.48	54.0897	4,438.48	67.5171	4,438.48	69.832
4,593.75	86.3051	4,593.75	84.2227	4,593.75	85.7821	4,593.75	83.3191	4,593.75	83.7184	4,593.75	85.0597	4,593.75	83.9097	4,593.75	83.1323	4,593.75	84.4744	4,593.75	83.8418	4,593.75	81.8495	4,593.75	81.6422	4,593.75	80.1261	4,593.75	80.9925	4,593.75	81.7702	4,593.75	76.2939	4,593.75	82.2725	4,593.75	75.0717	4,593.75	78.8829	4,593.75	74.8422	4,593.75	72.7309	4,593.75	72.027	4,593.75	65.6805	4,593.75	70.8163	4,593.75	63.6711	4,593.75	68.5197	4,593.75	68.8248	4,593.75	70.2332	4,593.75	67.4439	4,593.75	69.1635	4,593.75	65.6674	4,593.75	68.5127	4,593.75	63.4612	4,593.75	43.2409	4,593.75	67.8505	4,593.75	67.7993
4,757.81	87.001	4,757.81	83.6132	4,757.81	86.1086	4,757.81	84.443	4,757.81	84.8276	4,757.81	84.705	4,757.81	85.413	4,757.81	83.6994	4,757.81	84.3065	4,757.81	83.9103	4,757.81	82.823	4,757.81	81.3241	4,757.81	80.9841	4,757.81	78.8629	4,757.81	80.8637	4,757.81	79.6818	4,757.81	83.0231	4,757.81	78.0514	4,757.81	79.7222	4,757.81	72.2294	4,757.81	63.4063	4,757.81	72.9741	4,757.81	67.5813	4,757.81	69.3649	4,757.81	67.2386	4,757.81	70.5067	4,757.81	64.813	4,757.81	67.9556	4,757.81	66.8366	4,757.81	69.4789	4,757.81	64.1363	4,757.81	67.7242	4,757.81	65.7913	4,757.81	39.4532	4,757.81	65.5829	4,757.81	68.8665
4,924.8	87.0752	4,924.8	83.4827	4,924.8	86.9432	4,924.8	85.0335	4,924.8	84.2871	4,924.8	85.0216	4,924.8	85.0449	4,924.8	84.128	4,924.8	84.4253	4,924.8	83.2687	4,924.8	81.9828	4,924.8	81.2628	4,924.8	81.3906	4,924.8	80.37	4,924.8	82.5016	4,924.8	77.2897	4,924.8	83.784	4,924.8	76.1788	4,924.8	79.2251	4,924.8	74.3497	4,924.8	70.3425	4,924.8	72.0993	4,924.8	65.3181	4,924.8	71.4279	4,924.8	58.3414	4,924.8	70.7859	4,924.8	64.4229	4,924.8	67.3566	4,924.8	61.5784	4,924.8	69.2943	4,924.8	66.5302	4,924.8	67.0144	4,924.8	64.2045	4,924.8	48.4295	4,924.8	63.5927	4,924.8	65.2084
5,097.66	86.8504	5,097.66	84.2289	5,097.66	87.6372	5,097.66	85.2987	5,097.66	85.299	5,097.66	84.3618	5,097.66	84.6382	5,097.66	84.1319	5,097.66	83.7114	5,097.66	83.0231	5,097.66	81.8907	5,097.66	81.7434	5,097.66	82.2816	5,097.66	78.1587	5,097.66	83.593	5,097.66	79.9358	5,097.66	83.2663	5,097.66	75.6589	5,097.66	80.0359	5,097.66	73.3043	5,097.66	75.0959	5,097.66	71.9276	5,097.66	63.1259	5,097.66	70.4577	5,097.66	61.335	5,097.66	69.5017	5,097.66	55.2376	5,097.66	66.1269	5,097.66	55.51	5,097.66	69.1504	5,097.66	60.6335	5,097.66	66.8711	5,097.66	64.4033	5,097.66	53.7495	5,097.66	61.8826	5,097.66	63.3877
5,279.3	86.2336	5,279.3	84.4393	5,279.3	86.9712	5,279.3	85.3213	5,279.3	85.7123	5,279.3	84.3733	5,279.3	85.0615	5,279.3	84.3782	5,279.3	83.9812	5,279.3	83.283	5,279.3	82.8156	5,279.3	80.5179	5,279.3	83.2463	5,279.3	78.1755	5,279.3	82.7055	5,279.3	76.6997	5,279.3	80.7485	5,279.3	74.7283	5,279.3	78.4464	5,279.3	73.0132	5,279.3	76.2232	5,279.3	70.8296	5,279.3	64.9171	5,279.3	69.8198	5,279.3	62.5489	5,279.3	68.5847	5,279.3	56.1476	5,279.3	65.8178	5,279.3	60.7278	5,279.3	68.766	5,279.3	66.1867	5,279.3	66.6301	5,279.3	62.0703	5,279.3	54.3604	5,279.3	55.0642	5,279.3	64.6339
5,463.87	86.3254	5,463.87	85.0995	5,463.87	87.1088	5,463.87	85.1512	5,463.87	85.2876	5,463.87	84.3732	5,463.87	85.0695	5,463.87	84.7469	5,463.87	84.409	5,463.87	82.544	5,463.87	82.0219	5,463.87	79.7191	5,463.87	82.2091	5,463.87	78.6037	5,463.87	82.0012	5,463.87	77.2854	5,463.87	79.1726	5,463.87	72.6597	5,463.87	75.3791	5,463.87	72.6725	5,463.87	73.7212	5,463.87	69.7571	5,463.87	68.8812	5,463.87	69.5925	5,463.87	62.2715	5,463.87	66.6259	5,463.87	64.0811	5,463.87	65.7718	5,463.87	63.6981	5,463.87	69.0185	5,463.87	67.2826	5,463.87	65.5536	5,463.87	63.3705	5,463.87	59.9739	5,463.87	54.2643	5,463.87	59.2072
5,657.23	85.5643	5,657.23	85.05	5,657.23	86.1771	5,657.23	84.6045	5,657.23	85.4327	5,657.23	85.1341	5,657.23	84.7061	5,657.23	84.3405	5,657.23	84.1176	5,657.23	82.0651	5,657.23	82.4705	5,657.23	80.1831	5,657.23	80.9371	5,657.23	78.5926	5,657.23	80.3056	5,657.23	76.6813	5,657.23	77.9963	5,657.23	75.9717	5,657.23	77.5484	5,657.23	72.0057	5,657.23	73.3782	5,657.23	70.19	5,657.23	67.4141	5,657.23	68.518	5,657.23	68.9364	5,657.23	67.2376	5,657.23	62.5086	5,657.23	66.8915	5,657.23	65.5864	5,657.23	67.5002	5,657.23	65.5965	5,657.23	67.8179	5,657.23	58.1855	5,657.23	56.8535	5,657.23	61.0649	5,657.23	61.5774
5,856.45	86.0301	5,856.45	84.8691	5,856.45	85.8191	5,856.45	84.7762	5,856.45	84.8512	5,856.45	85.1662	5,856.45	84.9234	5,856.45	83.5419	5,856.45	84.4446	5,856.45	82.0571	5,856.45	83.1646	5,856.45	80.457	5,856.45	81.4908	5,856.45	79.8287	5,856.45	79.5987	5,856.45	76.9871	5,856.45	78.8591	5,856.45	75.7187	5,856.45	78.2708	5,856.45	72.6826	5,856.45	72.1448	5,856.45	70.6176	5,856.45	63.2016	5,856.45	68.2838	5,856.45	66.2369	5,856.45	67.7394	5,856.45	58.8789	5,856.45	65.2855	5,856.45	64.5889	5,856.45	67.7515	5,856.45	58.8966	5,856.45	66.7561	5,856.45	51.7099	5,856.45	61.5586	5,856.45	60.0729	5,856.45	55.8531
6,061.52	85.6137	6,061.52	84.2828	6,061.52	85.6259	6,061.52	85.2594	6,061.52	84.2213	6,061.52	84.8066	6,061.52	84.1244	6,061.52	83.2686	6,061.52	84.1546	6,061.52	81.9897	6,061.52	82.7686	6,061.52	81.491	6,061.52	80.4314	6,061.52	79.8489	6,061.52	78.5662	6,061.52	77.7286	6,061.52	79.4092	6,061.52	73.4156	6,061.52	77.8267	6,061.52	71.53	6,061.52	70.5832	6,061.52	69.4991	6,061.52	61.9997	6,061.52	67.2302	6,061.52	67.1005	6,061.52	65.6328	6,061.52	63.6583	6,061.52	65.1789	6,061.52	63.2774	6,061.52	65.9512	6,061.52	62.76	6,061.52	67.2543	6,061.52	56.5521	6,061.52	55.9648	6,061.52	58.8787	6,061.52	57.1192
6,275.39	85.4682	6,275.39	84.1972	6,275.39	85.6872	6,275.39	85.0815	6,275.39	84.1727	6,275.39	84.8852	6,275.39	83.8673	6,275.39	83.2739	6,275.39	83.5493	6,275.39	81.5342	6,275.39	82.0329	6,275.39	81.2594	6,275.39	80.3931	6,275.39	79.9649	6,275.39	78.7424	6,275.39	77.8948	6,275.39	77.8031	6,275.39	74.9408	6,275.39	75.2312	6,275.39	71.9314	6,275.39	71.7936	6,275.39	69.799	6,275.39	66.3941	6,275.39	68.0475	6,275.39	68.5379	6,275.39	66.4389	6,275.39	64.5752	6,275.39	64.9746	6,275.39	64.7874	6,275.39	67.5033	6,275.39	61.7041	6,275.39	65.1432	6,275.39	57.0633	6,275.39	60.6249	6,275.39	57.1392	6,275.39	55.9613
6,498.05	85.6104	6,498.05	84.054	6,498.05	85.7121	6,498.05	84.5832	6,498.05	84.0026	6,498.05	84.8535	6,498.05	84.0029	6,498.05	83.1695	6,498.05	84.2636	6,498.05	82.8653	6,498.05	82.8523	6,498.05	81.3159	6,498.05	80.6465	6,498.05	78.7356	6,498.05	76.9765	6,498.05	76.9443	6,498.05	74.6776	6,498.05	74.9956	6,498.05	72.3071	6,498.05	71.8915	6,498.05	69.6997	6,498.05	69.0978	6,498.05	68.9777	6,498.05	68.846	6,498.05	67.3483	6,498.05	66.3969	6,498.05	64.4029	6,498.05	64.1841	6,498.05	61.5038	6,498.05	67.8571	6,498.05	61.1427	6,498.05	66.2365	6,498.05	58.8737	6,498.05	60.8575	6,498.05	59.2153	6,498.05	55.5253
6,726.56	85.5372	6,726.56	84.4993	6,726.56	85.5491	6,726.56	84.6245	6,726.56	84.4375	6,726.56	83.9075	6,726.56	84.0344	6,726.56	83.4276	6,726.56	84.021	6,726.56	84.1613	6,726.56	82.9548	6,726.56	80.9872	6,726.56	80.7114	6,726.56	78.6321	6,726.56	75.9145	6,726.56	74.9398	6,726.56	75.3607	6,726.56	74.1132	6,726.56	71.1619	6,726.56	69.7974	6,726.56	65.152	6,726.56	68.8841	6,726.56	72.5528	6,726.56	66.1964	6,726.56	67.3455	6,726.56	66.0208	6,726.56	66.6501	6,726.56	62.622	6,726.56	63.4252	6,726.56	66.5886	6,726.56	66.9559	6,726.56	65.9908	6,726.56	58.2593	6,726.56	61.8827	6,726.56	57.3424	6,726.56	55.2201
6,963.87	85.497	6,963.87	84.9564	6,963.87	85.5019	6,963.87	84.4095	6,963.87	84.8848	6,963.87	82.5652	6,963.87	84.4134	6,963.87	84.5179	6,963.87	83.5993	6,963.87	83.7664	6,963.87	82.5811	6,963.87	80.9212	6,963.87	80.814	6,963.87	76.9072	6,963.87	76.6188	6,963.87	75.3357	6,963.87	78.354	6,963.87	73.1308	6,963.87	75.4502	6,963.87	70.2243	6,963.87	60.6788	6,963.87	68.5214	6,963.87	72.6765	6,963.87	67.9261	6,963.87	67.3312	6,963.87	65.4545	6,963.87	60.8676	6,963.87	63.4739	6,963.87	59.2665	6,963.87	63.7117	6,963.87	66.1	6,963.87	65.5895	6,963.87	61.3314	6,963.87	60.7852	6,963.87	55.5685	6,963.87	57.5129
7,209.96	84.9621	7,209.96	85.4782	7,209.96	84.9979	7,209.96	83.6158	7,209.96	84.9066	7,209.96	82.2147	7,209.96	84.3232	7,209.96	84.7571	7,209.96	83.7464	7,209.96	83.2409	7,209.96	82.5908	7,209.96	80.8991	7,209.96	79.9099	7,209.96	76.8289	7,209.96	77.943	7,209.96	75.8188	7,209.96	80.4804	7,209.96	72.516	7,209.96	76.7291	7,209.96	69.2071	7,209.96	67.9125	7,209.96	66.4158	7,209.96	69.4526	7,209.96	66.6033	7,209.96	64.3387	7,209.96	64.3868	7,209.96	64.5032	7,209.96	63.3503	7,209.96	54.2254	7,209.96	60.7764	7,209.96	64.578	7,209.96	65.0712	7,209.96	59.891	7,209.96	60.5331	7,209.96	57.682	7,209.96	57.0818
7,464.84	84.9308	7,464.84	85.8631	7,464.84	84.4512	7,464.84	83.1058	7,464.84	85.1561	7,464.84	82.7737	7,464.84	84.1295	7,464.84	84.4995	7,464.84	82.5644	7,464.84	83.123	7,464.84	81.7811	7,464.84	79.9718	7,464.84	80.3331	7,464.84	76.4378	7,464.84	79.2271	7,464.84	74.6435	7,464.84	79.647	7,464.84	72.7176	7,464.84	76.7765	7,464.84	68.7378	7,464.84	71.6954	7,464.84	65.4314	7,464.84	70.7386	7,464.84	64.6783	7,464.84	63.6615	7,464.84	62.617	7,464.84	65.3441	7,464.84	63.1111	7,464.84	47.6697	7,464.84	62.7302	7,464.84	58.9581	7,464.84	64.8726	7,464.84	55.6142	7,464.84	60.7001	7,464.84	56.2218	7,464.84	52.7116
7,728.52	85.177	7,728.52	85.9569	7,728.52	84.4549	7,728.52	83.6701	7,728.52	85.3079	7,728.52	83.3335	7,728.52	84.1958	7,728.52	84.0556	7,728.52	82.285	7,728.52	82.7321	7,728.52	81.2219	7,728.52	79.7076	7,728.52	79.5528	7,728.52	77.1326	7,728.52	78.2261	7,728.52	75.5883	7,728.52	77.4301	7,728.52	72.7658	7,728.52	74.2662	7,728.52	68.1637	7,728.52	71.5479	7,728.52	65.3082	7,728.52	64.8998	7,728.52	64.6666	7,728.52	60.8158	7,728.52	60.4401	7,728.52	65.6941	7,728.52	62.7849	7,728.52	55.6758	7,728.52	61.6314	7,728.52	60.1624	7,728.52	65.9195	7,728.52	59.7649	7,728.52	62.28	7,728.52	54.1142	7,728.52	56.5258
8,000.98	85.5831	8,000.98	86.0362	8,000.98	85.191	8,000.98	84.3896	8,000.98	85.5158	8,000.98	83.5562	8,000.98	84.3397	8,000.98	83.2885	8,000.98	82.5099	8,000.98	82.0375	8,000.98	81.3731	8,000.98	80.3382	8,000.98	79.7093	8,000.98	77.054	8,000.98	78.0224	8,000.98	74.3628	8,000.98	73.9803	8,000.98	71.3166	8,000.98	67.4408	8,000.98	68.0966	8,000.98	67.7135	8,000.98	64.3835	8,000.98	57.7908	8,000.98	64.5451	8,000.98	56.7018	8,000.98	61.0098	8,000.98	56.1776	8,000.98	63.1894	8,000.98	54.2967	8,000.98	59.4662	8,000.98	47.7102	8,000.98	66.1269	8,000.98	57.0567	8,000.98	61.7193	8,000.98	57.0478	8,000.98	55.6782
8,282.23	85.7153	8,282.23	85.7483	8,282.23	85.5748	8,282.23	84.9236	8,282.23	85.4332	8,282.23	83.4178	8,282.23	84.3907	8,282.23	82.2313	8,282.23	82.8515	8,282.23	81.6122	8,282.23	81.8489	8,282.23	79.8405	8,282.23	79.4151	8,282.23	76.3069	8,282.23	75.1069	8,282.23	74.8518	8,282.23	66.1526	8,282.23	70.8796	8,282.23	67.7622	8,282.23	67.77	8,282.23	62.6107	8,282.23	63.2762	8,282.23	59.8892	8,282.23	64.4861	8,282.23	56.9437	8,282.23	59.5386	8,282.23	58.8116	8,282.23	63.06	8,282.23	61.377	8,282.23	59.5914	8,282.23	58.8327	8,282.23	65.5649	8,282.23	58.7351	8,282.23	61.6742	8,282.23	55.8869	8,282.23	47.315
8,575.2	85.8245	8,575.2	85.3619	8,575.2	85.8237	8,575.2	85.141	8,575.2	85.0987	8,575.2	82.9509	8,575.2	84.5041	8,575.2	81.9995	8,575.2	83.1202	8,575.2	80.9817	8,575.2	81.3218	8,575.2	79.6687	8,575.2	78.6548	8,575.2	77.2355	8,575.2	75.3336	8,575.2	73.8715	8,575.2	72.4751	8,575.2	70.3824	8,575.2	68.9336	8,575.2	66.0746	8,575.2	54.1121	8,575.2	64.2904	8,575.2	65.4936	8,575.2	64.4722	8,575.2	54.7067	8,575.2	59.8771	8,575.2	57.0179	8,575.2	62.7449	8,575.2	58.1952	8,575.2	53.6618	8,575.2	62.145	8,575.2	64.5028	8,575.2	59.9847	8,575.2	60.2572	8,575.2	57.1543	8,575.2	51.6853
8,876.95	85.3588	8,876.95	85.0655	8,876.95	85.5315	8,876.95	84.7112	8,876.95	84.1451	8,876.95	82.7516	8,876.95	84.1491	8,876.95	81.5801	8,876.95	83.4918	8,876.95	80.7701	8,876.95	81.5912	8,876.95	79.792	8,876.95	78.9146	8,876.95	75.9964	8,876.95	77.7556	8,876.95	72.8355	8,876.95	76.345	8,876.95	69.1442	8,876.95	72.3804	8,876.95	65.646	8,876.95	55.0859	8,876.95	63.6186	8,876.95	63.9944	8,876.95	62.7751	8,876.95	54.1799	8,876.95	59.8808	8,876.95	56.9783	8,876.95	61.661	8,876.95	58.3639	8,876.95	44.509	8,876.95	64.441	8,876.95	64.6055	8,876.95	56.5288	8,876.95	59.6918	8,876.95	49.9591	8,876.95	50.9477
9,190.43	85.3932	9,190.43	84.9267	9,190.43	85.352	9,190.43	84.3272	9,190.43	83.971	9,190.43	82.7279	9,190.43	83.8289	9,190.43	81.012	9,190.43	82.5545	9,190.43	81.095	9,190.43	80.8564	9,190.43	78.1296	9,190.43	78.7333	9,190.43	76.0123	9,190.43	78.5413	9,190.43	72.4293	9,190.43	75.4763	9,190.43	68.9147	9,190.43	70.8816	9,190.43	65.2179	9,190.43	39.5311	9,190.43	61.1874	9,190.43	61.8885	9,190.43	60.7778	9,190.43	40.1173	9,190.43	59.5707	9,190.43	55.9771	9,190.43	61.4116	9,190.43	55.1177	9,190.43	53.4097	9,190.43	59.9634	9,190.43	64.2228	9,190.43	57.7787	9,190.43	57.9913	9,190.43	51.1831	9,190.43	50.0866
9,512.7	85.508	9,512.7	84.9806	9,512.7	85.4267	9,512.7	84.4017	9,512.7	84.2172	9,512.7	82.2673	9,512.7	83.698	9,512.7	81.5531	9,512.7	81.7199	9,512.7	80.5919	9,512.7	80.8372	9,512.7	78.0862	9,512.7	78.9752	9,512.7	74.8724	9,512.7	77.7491	9,512.7	72.4594	9,512.7	73.2241	9,512.7	68.762	9,512.7	68.1001	9,512.7	65.0663	9,512.7	58.8551	9,512.7	60.0991	9,512.7	62.9894	9,512.7	60.7372	9,512.7	52.3073	9,512.7	60.9404	9,512.7	57.3863	9,512.7	61.1535	9,512.7	53.8698	9,512.7	56.1054	9,512.7	58.1688	9,512.7	64.5168	9,512.7	52.7399	9,512.7	55.901	9,512.7	53.5256	9,512.7	45.2027
9,849.61	85.567	9,849.61	85.272	9,849.61	85.2531	9,849.61	84.4145	9,849.61	84.405	9,849.61	82.2569	9,849.61	83.4229	9,849.61	81.6172	9,849.61	81.3497	9,849.61	80.1212	9,849.61	80.2879	9,849.61	77.4423	9,849.61	78.9375	9,849.61	75.4848	9,849.61	76.4219	9,849.61	72.996	9,849.61	71.772	9,849.61	69.1451	9,849.61	63.5167	9,849.61	65.0202	9,849.61	63.185	9,849.61	60.5943	9,849.61	64.3372	9,849.61	60.8221	9,849.61	47.5854	9,849.61	62.4024	9,849.61	57.329	9,849.61	60.0788	9,849.61	50.148	9,849.61	57.8522	9,849.61	55.3441	9,849.61	64.969	9,849.61	55.8528	9,849.61	56.0886	9,849.61	51.7775	9,849.61	34.9187
10,195.3	85.8618	10,195.3	85.6574	10,195.3	85.3938	10,195.3	84.4433	10,195.3	84.4768	10,195.3	82.2461	10,195.3	83.2	10,195.3	81.5544	10,195.3	81.6237	10,195.3	79.3525	10,195.3	80.7027	10,195.3	77.5118	10,195.3	78.7201	10,195.3	75.7124	10,195.3	75.031	10,195.3	71.4643	10,195.3	71.2646	10,195.3	67.4259	10,195.3	64.1862	10,195.3	61.8841	10,195.3	61.0958	10,195.3	61.4015	10,195.3	63.35	10,195.3	56.9628	10,195.3	48.9581	10,195.3	61.8864	10,195.3	56.653	10,195.3	56.5989	10,195.3	49.8299	10,195.3	59.2802	10,195.3	57.4813	10,195.3	62.9136	10,195.3	49.9686	10,195.3	54.6156	10,195.3	53.8918	10,195.3	43.6801
10,555.7	85.8221	10,555.7	85.5589	10,555.7	85.6402	10,555.7	84.2206	10,555.7	84.5191	10,555.7	82.6862	10,555.7	82.9151	10,555.7	81.2007	10,555.7	81.8103	10,555.7	79.276	10,555.7	80.8565	10,555.7	77.107	10,555.7	77.4748	10,555.7	74.7325	10,555.7	74.4012	10,555.7	70.4755	10,555.7	68.9369	10,555.7	65.79	10,555.7	66.7791	10,555.7	59.9443	10,555.7	59.4162	10,555.7	61.1625	10,555.7	64.8496	10,555.7	52.3565	10,555.7	53.8004	10,555.7	59.8935	10,555.7	57.8138	10,555.7	52.0658	10,555.7	41.6671	10,555.7	59.2393	10,555.7	58.7923	10,555.7	60.1497	10,555.7	47.7642	10,555.7	55.025	10,555.7	50.4264	10,555.7	47.877
10,927.7	85.5388	10,927.7	85.2763	10,927.7	85.5672	10,927.7	84.0412	10,927.7	84.4907	10,927.7	82.9701	10,927.7	82.6636	10,927.7	80.9052	10,927.7	81.8208	10,927.7	79.4214	10,927.7	80.2676	10,927.7	75.7085	10,927.7	75.9952	10,927.7	73.8476	10,927.7	72.8617	10,927.7	68.3469	10,927.7	65.8671	10,927.7	64.3052	10,927.7	61.7608	10,927.7	58.5299	10,927.7	60.8936	10,927.7	59.7111	10,927.7	64.6173	10,927.7	49.8266	10,927.7	51.4888	10,927.7	57.6977	10,927.7	52.1356	10,927.7	49.6939	10,927.7	41.2857	10,927.7	57.7463	10,927.7	56.9319	10,927.7	56.9269	10,927.7	41.5538	10,927.7	53.1537	10,927.7	48.1898	10,927.7	46.817
11,314.5	85.401	11,314.5	85.2772	11,314.5	85.6768	11,314.5	84.3426	11,314.5	84.5617	11,314.5	83.0622	11,314.5	82.6351	11,314.5	81.0434	11,314.5	81.4693	11,314.5	78.9491	11,314.5	79.1259	11,314.5	75.5364	11,314.5	75.1778	11,314.5	71.2887	11,314.5	71.7011	11,314.5	67.1925	11,314.5	64.5415	11,314.5	63.2391	11,314.5	58.2971	11,314.5	56.0182	11,314.5	63.8695	11,314.5	58.4604	11,314.5	64.2786	11,314.5	44.5458	11,314.5	41.599	11,314.5	57.26	11,314.5	48.7677	11,314.5	49.2837	11,314.5	49.7013	11,314.5	56.1474	11,314.5	52.9832	11,314.5	52.8864	11,314.5	43.2688	11,314.5	50.2756	11,314.5	27.4787	11,314.5	50.4165
11,712.9	84.9042	11,712.9	85.1964	11,712.9	85.3753	11,712.9	84.4253	11,712.9	84.5443	11,712.9	82.7894	11,712.9	82.9157	11,712.9	80.6362	11,712.9	80.8	11,712.9	78.2892	11,712.9	78.0715	11,712.9	73.9197	11,712.9	74.6204	11,712.9	70.639	11,712.9	70.3961	11,712.9	67.3247	11,712.9	65.7958	11,712.9	64.2559	11,712.9	60.0858	11,712.9	56.3624	11,712.9	66.8034	11,712.9	59.2471	11,712.9	68.2091	11,712.9	48.9617	11,712.9	45.2042	11,712.9	57.1823	11,712.9	45.8655	11,712.9	45.5765	11,712.9	48.4959	11,712.9	53.5271	11,712.9	45.5306	11,712.9	49.6503	11,712.9	52.1992	11,712.9	51.1542	11,712.9	40.0256	11,712.9	51.2914
12,126	85.1263	12,126	85.1393	12,126	85.1432	12,126	84.3243	12,126	84.3191	12,126	82.5159	12,126	83.2704	12,126	80.3886	12,126	80.5766	12,126	77.0392	12,126	78.2076	12,126	72.9307	12,126	74.5385	12,126	71.5513	12,126	72.0105	12,126	68.6214	12,126	65.8427	12,126	64.2096	12,126	62.2543	12,126	57.2165	12,126	66.967	12,126	58.2039	12,126	69.655	12,126	49.8243	12,126	48.9849	12,126	57.2535	12,126	48.2892	12,126	43.3959	12,126	47.9821	12,126	54.1119	12,126	55.9157	12,126	52.9335	12,126	54.44	12,126	52.0969	12,126	50.4196	12,126	53.5143
12,553.7	85.3417	12,553.7	84.7401	12,553.7	85.2654	12,553.7	84.1096	12,553.7	84.2526	12,553.7	82.3004	12,553.7	83.058	12,553.7	80.3504	12,553.7	80.176	12,553.7	75.7597	12,553.7	77.879	12,553.7	72.8645	12,553.7	73.941	12,553.7	72.0397	12,553.7	71.2643	12,553.7	67.8329	12,553.7	64.6175	12,553.7	61.7197	12,553.7	60.6974	12,553.7	56.681	12,553.7	66.1595	12,553.7	55.8937	12,553.7	68.2145	12,553.7	50.91	12,553.7	49.9504	12,553.7	55.0264	12,553.7	55.1956	12,553.7	50.39	12,553.7	48.8558	12,553.7	53.6785	12,553.7	56.8504	12,553.7	54.0599	12,553.7	54.1863	12,553.7	52.2319	12,553.7	49.056	12,553.7	50.737
12,996.1	85.53	12,996.1	84.8707	12,996.1	85.322	12,996.1	83.8682	12,996.1	84.2242	12,996.1	82.0352	12,996.1	82.4534	12,996.1	79.6334	12,996.1	80.2491	12,996.1	75.5916	12,996.1	78.1353	12,996.1	73.3096	12,996.1	74.1389	12,996.1	70.661	12,996.1	70.9379	12,996.1	66.9334	12,996.1	63.9815	12,996.1	60.7222	12,996.1	65.4524	12,996.1	57.4236	12,996.1	67.7451	12,996.1	53.1127	12,996.1	67.4662	12,996.1	52.7767	12,996.1	42.4316	12,996.1	52.4514	12,996.1	55.909	12,996.1	52.548	12,996.1	38.9251	12,996.1	53.3877	12,996.1	53.4779	12,996.1	51.9879	12,996.1	54.9296	12,996.1	51.2497	12,996.1	46.8057	12,996.1	50.1498
13,453.1	85.3635	13,453.1	85.1253	13,453.1	85.0831	13,453.1	83.5336	13,453.1	84.1357	13,453.1	81.7662	13,453.1	81.7771	13,453.1	78.4855	13,453.1	79.848	13,453.1	76.7013	13,453.1	76.3419	13,453.1	71.8366	13,453.1	74.2674	13,453.1	70.493	13,453.1	68.9063	13,453.1	66.8902	13,453.1	66.7934	13,453.1	61.164	13,453.1	65.4068	13,453.1	57.8229	13,453.1	67.5296	13,453.1	50.2631	13,453.1	67.8136	13,453.1	53.9847	13,453.1	43.7764	13,453.1	48.9949	13,453.1	56.5631	13,453.1	52.1055	13,453.1	48.2849	13,453.1	50.0855	13,453.1	46.2443	13,453.1	46.1038	13,453.1	48.2462	13,453.1	50.2477	13,453.1	44.0702	13,453.1	50.4181
13,927.7	85.2413	13,927.7	85.1891	13,927.7	84.9345	13,927.7	83.1823	13,927.7	83.9856	13,927.7	81.3592	13,927.7	81.5716	13,927.7	78.1732	13,927.7	79.2329	13,927.7	77.1025	13,927.7	76.6558	13,927.7	71.5818	13,927.7	73.4701	13,927.7	70.5553	13,927.7	70.2496	13,927.7	68.0816	13,927.7	66.3747	13,927.7	61.8403	13,927.7	63.2165	13,927.7	57.4071	13,927.7	68.394	13,927.7	51.2552	13,927.7	68.8711	13,927.7	53.5817	13,927.7	45.9703	13,927.7	43.9257	13,927.7	55.522	13,927.7	52.2777	13,927.7	49.5807	13,927.7	45.0313	13,927.7	48.6721	13,927.7	50.4964	13,927.7	46.1138	13,927.7	52.1438	13,927.7	39.6674	13,927.7	50.4372
14,419.9	85.371	14,419.9	84.8164	14,419.9	84.9256	14,419.9	82.9274	14,419.9	83.3232	14,419.9	80.7612	14,419.9	81.2647	14,419.9	79.021	14,419.9	79.0215	14,419.9	76.4855	14,419.9	77.906	14,419.9	72.6445	14,419.9	74.0192	14,419.9	70.8466	14,419.9	70.4204	14,419.9	67.6489	14,419.9	64.4545	14,419.9	61.5112	14,419.9	64.4173	14,419.9	57.804	14,419.9	68.406	14,419.9	48.8097	14,419.9	70.3322	14,419.9	54.9227	14,419.9	53.5192	14,419.9	46.0185	14,419.9	56.6438	14,419.9	53.1633	14,419.9	52.5232	14,419.9	46.0112	14,419.9	54.6337	14,419.9	52.2396	14,419.9	50.7534	14,419.9	53.3422	14,419.9	46.2032	14,419.9	49.8634
14,929.7	85.8703	14,929.7	84.7509	14,929.7	85.1385	14,929.7	82.6534	14,929.7	82.7815	14,929.7	80.0926	14,929.7	80.8116	14,929.7	79.2243	14,929.7	79.2954	14,929.7	75.21	14,929.7	77.6864	14,929.7	71.9149	14,929.7	73.634	14,929.7	70.052	14,929.7	69.2772	14,929.7	65.9109	14,929.7	61.8093	14,929.7	58.492	14,929.7	64.5649	14,929.7	56.2508	14,929.7	67.1734	14,929.7	38.5044	14,929.7	69.4102	14,929.7	54.6096	14,929.7	55.5946	14,929.7	48.8519	14,929.7	54.0189	14,929.7	52.9288	14,929.7	50.9025	14,929.7	48.5945	14,929.7	55.9571	14,929.7	52.0704	14,929.7	51.9891	14,929.7	52.8711	14,929.7	48.1715	14,929.7	50.2994
15,454.1	86.1536	15,454.1	84.8899	15,454.1	85.1829	15,454.1	82.4964	15,454.1	82.7897	15,454.1	80.3477	15,454.1	80.848	15,454.1	78.9679	15,454.1	79.3785	15,454.1	74.645	15,454.1	76.7754	15,454.1	70.172	15,454.1	71.2875	15,454.1	67.5644	15,454.1	67.0832	15,454.1	64.0805	15,454.1	60.5869	15,454.1	56.9431	15,454.1	61.9118	15,454.1	57.8522	15,454.1	67.5053	15,454.1	36.275	15,454.1	69.1372	15,454.1	53.3322	15,454.1	56.035	15,454.1	50.5285	15,454.1	50.9721	15,454.1	52.0773	15,454.1	50.8245	15,454.1	46.9322	15,454.1	54.0896	15,454.1	49.8346	15,454.1	50.8865	15,454.1	52.8553	15,454.1	48.4962	15,454.1	53.6067
15,999	85.9418	15,999	85.0236	15,999	85.2306	15,999	82.7724	15,999	83.4726	15,999	81.2731	15,999	81.2843	15,999	78.4469	15,999	79.2569	15,999	74.5605	15,999	75.992	15,999	66.7732	15,999	69.7078	15,999	67.1269	15,999	66.4637	15,999	65.272	15,999	60.8269	15,999	57.9051	15,999	60.7917	15,999	58.5062	15,999	69.0276	15,999	45.4654	15,999	71.2612	15,999	52.7276	15,999	54.0993	15,999	52.7486	15,999	53.3161	15,999	52.8167	15,999	50.9542	15,999	47.8705	15,999	52.3513	15,999	47.2508	15,999	51.9371	15,999	55.944	15,999	49.7369	15,999	55.6772
16,564.5	86.2508	16,564.5	85.589	16,564.5	85.8182	16,564.5	83.8106	16,564.5	84.1999	16,564.5	82.088	16,564.5	81.9959	16,564.5	78.0728	16,564.5	79.0227	16,564.5	73.9731	16,564.5	75.4488	16,564.5	65.6442	16,564.5	69.0248	16,564.5	67.4391	16,564.5	63.4355	16,564.5	64.6596	16,564.5	60.2743	16,564.5	55.2526	16,564.5	58.2825	16,564.5	57.2967	16,564.5	68.3398	16,564.5	50.0251	16,564.5	71.7965	16,564.5	52.7356	16,564.5	53.4321	16,564.5	54.5673	16,564.5	53.6648	16,564.5	54.6396	16,564.5	51.5946	16,564.5	49.1403	16,564.5	52.9798	16,564.5	47.5965	16,564.5	51.915	16,564.5	56.618	16,564.5	51.9623	16,564.5	55.1609
17,147.5	86.3774	17,147.5	85.5687	17,147.5	85.7862	17,147.5	83.7869	17,147.5	83.957	17,147.5	81.3326	17,147.5	81.2729	17,147.5	76.8519	17,147.5	77.5896	17,147.5	70.9127	17,147.5	74.2271	17,147.5	64.7235	17,147.5	66.2346	17,147.5	66.5921	17,147.5	63.5706	17,147.5	62.6694	17,147.5	55.962	17,147.5	50.6258	17,147.5	55.6702	17,147.5	57.2844	17,147.5	65.9787	17,147.5	52.8185	17,147.5	70.7271	17,147.5	52.8544	17,147.5	55.8316	17,147.5	56.6881	17,147.5	50.5633	17,147.5	54.6662	17,147.5	53.5933	17,147.5	48.4184	17,147.5	54.5897	17,147.5	50.9214	17,147.5	53.528	17,147.5	58.1758	17,147.5	53.5342	17,147.5	55.1163
17,753.9	86.206	17,753.9	85.6357	17,753.9	85.7531	17,753.9	84.2274	17,753.9	84.3031	17,753.9	81.369	17,753.9	81.4489	17,753.9	77.2465	17,753.9	77.854	17,753.9	71.4839	17,753.9	74.484	17,753.9	62.6677	17,753.9	67.4972	17,753.9	67.6801	17,753.9	58.0253	17,753.9	64.096	17,753.9	60.6723	17,753.9	51.5981	17,753.9	56.9597	17,753.9	57.9289	17,753.9	66.6608	17,753.9	54.6394	17,753.9	70.9566	17,753.9	53.1624	17,753.9	55.9081	17,753.9	58.151	17,753.9	53.2212	17,753.9	53.6865	17,753.9	56.5936	17,753.9	53.5333	17,753.9	54.3892	17,753.9	52.6876	17,753.9	54.08	17,753.9	58.8924	17,753.9	54.0086	17,753.9	56.3898
18,377.9	86.2602	18,377.9	85.9077	18,377.9	85.9781	18,377.9	84.7846	18,377.9	84.8597	18,377.9	81.962	18,377.9	82.0584	18,377.9	77.2533	18,377.9	78.6211	18,377.9	73.0428	18,377.9	74.486	18,377.9	61.759	18,377.9	65.1133	18,377.9	67.2288	18,377.9	65.0583	18,377.9	64.3579	18,377.9	56.9031	18,377.9	50.3546	18,377.9	54.4227	18,377.9	57.996	18,377.9	67.5958	18,377.9	57.4568	18,377.9	71.2138	18,377.9	54.7828	18,377.9	53.605	18,377.9	59.1299	18,377.9	53.9661	18,377.9	50.4523	18,377.9	57.4618	18,377.9	55.9026	18,377.9	53.3979	18,377.9	51.6525	18,377.9	54.9681	18,377.9	59.6347	18,377.9	52.9488	18,377.9	61.1948
19,028.3	87.1067	19,028.3	86.5088	19,028.3	86.6747	19,028.3	85.188	19,028.3	85.3165	19,028.3	82.1355	19,028.3	82.565	19,028.3	77.0829	19,028.3	78.9403	19,028.3	72.8977	19,028.3	75.5838	19,028.3	64.6604	19,028.3	65.9223	19,028.3	66.554	19,028.3	62.2624	19,028.3	62.9489	19,028.3	42.7744	19,028.3	38.6185	19,028.3	55.8478	19,028.3	58.706	19,028.3	67.7948	19,028.3	60.1804	19,028.3	70.757	19,028.3	56.5621	19,028.3	57.7396	19,028.3	61.5052	19,028.3	50.2493	19,028.3	54.2131	19,028.3	56.8619	19,028.3	57.6464	19,028.3	56.1278	19,028.3	51.0702	19,028.3	56.7904	19,028.3	61.7887	19,028.3	55.999	19,028.3	62.4876
19,699.2	88.2956	19,699.2	87.2167	19,699.2	87.8439	19,699.2	85.149	19,699.2	85.9808	19,699.2	81.6476	19,699.2	82.7547	19,699.2	77.2444	19,699.2	78.9607	19,699.2	71.0786	19,699.2	75.0588	19,699.2	64.8732	19,699.2	61.8992	19,699.2	65.9317	19,699.2	60.2678	19,699.2	61.993	19,699.2	50.8811	19,699.2	48.7029	19,699.2	58.6153	19,699.2	58.6839	19,699.2	67.3254	19,699.2	60.5542	19,699.2	70.8737	19,699.2	56.3952	19,699.2	58.8044	19,699.2	61.826	19,699.2	48.8184	19,699.2	54.5468	19,699.2	58.5935	19,699.2	58.9906	19,699.2	58.6928	19,699.2	49.8643	19,699.2	58.2526	19,699.2	62.8285	19,699.2	56.5589	19,699.2	62.8951
19,998	88.634	19,998	87.5559	19,998	88.2042	19,998	85.3716	19,998	86.316	19,998	82.1978	19,998	82.7193	19,998	77.78	19,998	78.9663	19,998	71.2468	19,998	74.6885	19,998	65.0667	19,998	62.6732	19,998	65.9947	19,998	63.0579	19,998	62.7108	19,998	54.2234	19,998	52.3208	19,998	62.057	19,998	59.3367	19,998	67.7104	19,998	59.2659	19,998	70.0283	19,998	55.6548	19,998	61.498	19,998	62.8859	19,998	51.2678	19,998	55.8149	19,998	61.2644	19,998	60.5131	19,998	60.0956	19,998	51.6093	19,998	61.3547	19,998	62.3978	19,998	58.1333	19,998	64.0865
