"SPL Horizontal"																																																																							
"On-Axis"		"10°"		"-10°"		"20°"		"-20°"		"30°"		"-30°"		"40°"		"-40°"		"50°"		"-50°"		"60°"		"-60°"		"70°"		"-70°"		"80°"		"-80°"		"90°"		"-90°"		"100°"		"-100°"		"110°"		"-110°"		"120°"		"-120°"		"130°"		"-130°"		"140°"		"-140°"		"150°"		"-150°"		"160°"		"-160°"		"170°"		"-170°"		"180°"	
"Frequency [Hz]"	"Sound Pessure Level [dB]  / [2.83V 1m] "	"Frequency [Hz]"	"Sound Pessure Level [dB]  / [2.83V 1m] "	"Frequency [Hz]"	"Sound Pessure Level [dB]  / [2.83V 1m] "	"Frequency [Hz]"	"Sound Pessure Level [dB]  / [2.83V 1m] "	"Frequency [Hz]"	"Sound Pessure Level [dB]  / [2.83V 1m] "	"Frequency [Hz]"	"Sound Pessure Level [dB]  / [2.83V 1m] "	"Frequency [Hz]"	"Sound Pessure Level [dB]  / [2.83V 1m] "	"Frequency [Hz]"	"Sound Pessure Level [dB]  / [2.83V 1m] "	"Frequency [Hz]"	"Sound Pessure Level [dB]  / [2.83V 1m] "	"Frequency [Hz]"	"Sound Pessure Level [dB]  / [2.83V 1m] "	"Frequency [Hz]"	"Sound Pessure Level [dB]  / [2.83V 1m] "	"Frequency [Hz]"	"Sound Pessure Level [dB]  / [2.83V 1m] "	"Frequency [Hz]"	"Sound Pessure Level [dB]  / [2.83V 1m] "	"Frequency [Hz]"	"Sound Pessure Level [dB]  / [2.83V 1m] "	"Frequency [Hz]"	"Sound Pessure Level [dB]  / [2.83V 1m] "	"Frequency [Hz]"	"Sound Pessure Level [dB]  / [2.83V 1m] "	"Frequency [Hz]"	"Sound Pessure Level [dB]  / [2.83V 1m] "	"Frequency [Hz]"	"Sound Pessure Level [dB]  / [2.83V 1m] "	"Frequency [Hz]"	"Sound Pessure Level [dB]  / [2.83V 1m] "	"Frequency [Hz]"	"Sound Pessure Level [dB]  / [2.83V 1m] "	"Frequency [Hz]"	"Sound Pessure Level [dB]  / [2.83V 1m] "	"Frequency [Hz]"	"Sound Pessure Level [dB]  / [2.83V 1m] "	"Frequency [Hz]"	"Sound Pessure Level [dB]  / [2.83V 1m] "	"Frequency [Hz]"	"Sound Pessure Level [dB]  / [2.83V 1m] "	"Frequency [Hz]"	"Sound Pessure Level [dB]  / [2.83V 1m] "	"Frequency [Hz]"	"Sound Pessure Level [dB]  / [2.83V 1m] "	"Frequency [Hz]"	"Sound Pessure Level [dB]  / [2.83V 1m] "	"Frequency [Hz]"	"Sound Pessure Level [dB]  / [2.83V 1m] "	"Frequency [Hz]"	"Sound Pessure Level [dB]  / [2.83V 1m] "	"Frequency [Hz]"	"Sound Pessure Level [dB]  / [2.83V 1m] "	"Frequency [Hz]"	"Sound Pessure Level [dB]  / [2.83V 1m] "	"Frequency [Hz]"	"Sound Pessure Level [dB]  / [2.83V 1m] "	"Frequency [Hz]"	"Sound Pessure Level [dB]  / [2.83V 1m] "	"Frequency [Hz]"	"Sound Pessure Level [dB]  / [2.83V 1m] "	"Frequency [Hz]"	"Sound Pessure Level [dB]  / [2.83V 1m] "	"Frequency [Hz]"	"Sound Pessure Level [dB]  / [2.83V 1m] "
20.5078	55.1865	20.5078	55.16	20.5078	55.1593	20.5078	55.1008	20.5078	55.0835	20.5078	55.0587	20.5078	54.9913	20.5078	55.1141	20.5078	54.9463	20.5078	55.367	20.5078	55.0425	20.5078	55.9003	20.5078	55.3829	20.5078	56.7333	20.5078	56.0331	20.5078	57.8068	20.5078	56.9787	20.5078	59.0168	20.5078	58.1327	20.5078	60.2598	20.5078	59.3828	20.5078	61.4561	20.5078	60.6316	20.5078	62.5514	20.5078	61.8091	20.5078	63.5096	20.5078	62.8691	20.5078	64.3069	20.5078	63.7812	20.5078	64.9264	20.5078	64.5248	20.5078	65.3568	20.5078	65.0856	20.5078	65.5903	20.5078	65.4537	20.5078	65.6228
23.4375	58.9753	23.4375	58.9435	23.4375	58.9669	23.4375	58.8881	23.4375	58.9228	23.4375	58.8485	23.4375	58.8689	23.4375	58.8887	23.4375	58.8545	23.4375	59.0895	23.4375	58.9504	23.4375	59.5242	23.4375	59.236	23.4375	60.2232	23.4375	59.7696	23.4375	61.1544	23.4375	60.5573	23.4375	62.2389	23.4375	61.5473	23.4375	63.3853	23.4375	62.6552	23.4375	64.5145	23.4375	63.7947	23.4375	65.5674	23.4375	64.8956	23.4375	66.5018	23.4375	65.9062	23.4375	67.2879	23.4375	66.789	23.4375	67.9041	23.4375	67.5172	23.4375	68.3349	23.4375	68.0711	23.4375	68.57	23.4375	68.4363	23.4375	68.6041
26.3672	62.3935	26.3672	62.3978	26.3672	62.3786	26.3672	62.4044	26.3672	62.3565	26.3672	62.4424	26.3672	62.347	26.3672	62.5556	26.3672	62.3864	26.3672	62.7956	26.3672	62.5241	26.3672	63.2074	26.3672	62.8131	26.3672	63.8111	26.3672	63.2919	26.3672	64.5905	26.3672	63.9673	26.3672	65.4982	26.3672	64.8084	26.3672	66.4713	26.3672	65.758	26.3672	67.4478	26.3672	66.7507	26.3672	68.3744	26.3672	67.7261	26.3672	69.2092	26.3672	68.635	26.3672	69.9195	26.3672	69.4389	26.3672	70.4809	26.3672	70.1082	26.3672	70.8752	26.3672	70.621	26.3672	71.0902	26.3672	70.9614	26.3672	71.1193
29.2969	66.2888	29.2969	66.2993	29.2969	66.2882	29.2969	66.328	29.2969	66.2997	29.2969	66.3936	29.2969	66.3361	29.2969	66.5232	29.2969	66.4198	29.2969	66.7483	29.2969	66.5801	29.2969	67.0973	29.2969	66.8482	29.2969	67.5852	29.2969	67.2477	29.2969	68.2074	29.2969	67.7865	29.2969	68.9379	29.2969	68.4516	29.2969	69.7361	29.2969	69.2109	29.2969	70.5552	29.2969	70.021	29.2969	71.3495	29.2969	70.8355	29.2969	72.0785	29.2969	71.6106	29.2969	72.7084	29.2969	72.3083	29.2969	73.2123	29.2969	72.8972	29.2969	73.5697	29.2969	73.3525	29.2969	73.7668	29.2969	73.656	29.2969	73.7959
32.2266	69.844	32.2266	69.8633	32.2266	69.8439	32.2266	69.9075	32.2266	69.8645	32.2266	69.9887	32.2266	69.914	32.2266	70.1242	32.2266	70.0069	32.2266	70.3341	32.2266	70.1621	32.2266	70.6367	32.2266	70.3997	32.2266	71.0429	32.2266	70.7358	32.2266	71.5523	32.2266	71.1779	32.2266	72.1502	32.2266	71.7205	32.2266	72.8102	32.2266	72.3444	32.2266	73.4978	32.2266	73.0198	32.2266	74.1755	32.2266	73.7107	32.2266	74.8072	32.2266	74.3796	32.2266	75.3599	32.2266	74.991	32.2266	75.8064	32.2266	75.5138	32.2266	76.1249	32.2266	75.9222	32.2266	76.3005	32.2266	76.1968	32.2266	76.3249
35.1563	73.3003	35.1563	73.3236	35.1563	73.3014	35.1563	73.3751	35.1563	73.3281	35.1563	73.4623	35.1563	73.3854	35.1563	73.5961	35.1563	73.4825	35.1563	73.7891	35.1563	73.6313	35.1563	74.0528	35.1563	73.8442	35.1563	74.3951	35.1563	74.132	35.1563	74.8167	35.1563	74.5004	35.1563	75.3094	35.1563	74.9472	35.1563	75.8559	35.1563	75.4611	35.1563	76.4313	35.1563	76.022	35.1563	77.0061	35.1563	76.6031	35.1563	77.5491	35.1563	77.1738	35.1563	78.0301	35.1563	77.7026	35.1563	78.4223	35.1563	78.1604	35.1563	78.704	35.1563	78.5215	35.1563	78.8598	35.1563	78.7661	35.1563	78.8809
38.0859	76.3808	38.0859	76.4041	38.0859	76.384	38.0859	76.4562	38.0859	76.4143	38.0859	76.5419	38.0859	76.475	38.0859	76.668	38.0859	76.5716	38.0859	76.8423	38.0859	76.7116	38.0859	77.0725	38.0859	76.9028	38.0859	77.3637	38.0859	77.1521	38.0859	77.7171	38.0859	77.4635	38.0859	78.1277	38.0859	77.8363	38.0859	78.5841	38.0859	78.2635	38.0859	79.0681	38.0859	78.7314	38.0859	79.5564	38.0859	79.2202	38.0859	80.0228	38.0859	79.7053	38.0859	80.4404	38.0859	80.1599	38.0859	80.784	38.0859	80.5573	38.0859	81.0327	38.0859	80.8735	38.0859	81.1709	38.0859	81.0888	38.0859	81.1901
41.0156	78.9842	41.0156	79.0091	41.0156	78.9875	41.0156	79.0637	41.0156	79.0193	41.0156	79.1506	41.0156	79.0816	41.0156	79.2739	41.0156	79.1776	41.0156	79.438	41.0156	79.3116	41.0156	79.6474	41.0156	79.4882	41.0156	79.9049	41.0156	79.7115	41.0156	80.2108	41.0156	79.9837	41.0156	80.5618	41.0156	80.3042	41.0156	80.9495	41.0156	80.6683	41.0156	81.3606	41.0156	81.0659	41.0156	81.7769	41.0156	81.4822	41.0156	82.177	41.0156	81.8976	41.0156	82.5376	41.0156	82.2896	41.0156	82.8363	41.0156	82.6349	41.0156	83.0534	41.0156	82.9113	41.0156	83.1742	41.0156	83.1008	41.0156	83.1904
43.9453	80.7986	43.9453	80.8245	43.9453	80.801	43.9453	80.8794	43.9453	80.8318	43.9453	80.9648	43.9453	80.8922	43.9453	81.0825	43.9453	80.9836	43.9453	81.2349	43.9453	81.1082	43.9453	81.424	43.9453	81.2682	43.9453	81.6512	43.9453	81.4656	43.9453	81.9162	43.9453	81.7012	43.9453	82.2163	43.9453	81.9744	43.9453	82.5457	43.9453	82.2818	43.9453	82.8946	43.9453	82.6166	43.9453	83.2491	43.9453	82.9684	43.9453	83.592	43.9453	83.3225	43.9453	83.9031	43.9453	83.6608	43.9453	84.1622	43.9453	83.963	43.9453	84.3505	43.9453	84.2088	43.9453	84.4539	43.9453	84.3802	43.9453	84.4641
46.875	81.9888	46.875	82.0162	46.875	81.9897	46.875	82.0721	46.875	82.019	46.875	82.1569	46.875	82.0772	46.875	82.2709	46.875	82.1646	46.875	82.4146	46.875	82.2819	46.875	82.5885	46.875	82.4298	46.875	82.7922	46.875	82.6085	46.875	83.0249	46.875	82.8178	46.875	83.284	46.875	83.0564	46.875	83.565	46.875	83.3215	46.875	83.8606	46.875	83.608	46.875	84.1603	46.875	83.9077	46.875	84.4502	46.875	84.2094	46.875	84.7142	46.875	84.4982	46.875	84.9347	46.875	84.7573	46.875	85.0954	46.875	84.9691	46.875	85.1834	46.875	85.1177	46.875	85.1911
49.8047	82.5771	49.8047	82.6043	49.8047	82.5779	49.8047	82.6591	49.8047	82.6066	49.8047	82.7411	49.8047	82.6632	49.8047	82.8498	49.8047	82.7473	49.8047	82.9843	49.8047	82.8585	49.8047	83.1438	49.8047	82.9962	49.8047	83.327	49.8047	83.1594	49.8047	83.5324	49.8047	83.3469	49.8047	83.7575	49.8047	83.5569	49.8047	83.9984	49.8047	83.7868	49.8047	84.2498	49.8047	84.0322	49.8047	84.5034	49.8047	84.2872	49.8047	84.7485	49.8047	84.5427	49.8047	84.9718	49.8047	84.7873	49.8047	85.1589	49.8047	85.0071	49.8047	85.2956	49.8047	85.1873	49.8047	85.3705	49.8047	85.314	49.8047	85.3769
52.7344	82.8255	52.7344	82.852	52.7344	82.8266	52.7344	82.9055	52.7344	82.8551	52.7344	82.985	52.7344	82.9107	52.7344	83.0892	52.7344	82.9923	52.7344	83.2164	52.7344	83.0987	52.7344	83.3647	52.7344	83.2281	52.7344	83.5321	52.7344	83.3788	52.7344	83.7161	52.7344	83.5486	52.7344	83.9142	52.7344	83.7353	52.7344	84.123	52.7344	83.936	52.7344	84.3379	52.7344	84.1473	52.7344	84.5527	52.7344	84.3642	52.7344	84.7591	52.7344	84.5802	52.7344	84.9467	52.7344	84.7862	52.7344	85.1035	52.7344	84.9713	52.7344	85.2178	52.7344	85.1233	52.7344	85.2801	52.7344	85.2308	52.7344	85.2847
55.6641	82.9229	55.6641	82.9491	55.6641	82.9238	55.6641	83.0016	55.6641	82.9517	55.6641	83.079	55.6641	83.0058	55.6641	83.1795	55.6641	83.0846	55.6641	83.3007	55.6641	83.1864	55.6641	83.4398	55.6641	83.3086	55.6641	83.594	55.6641	83.4487	55.6641	83.7604	55.6641	83.6039	55.6641	83.936	55.6641	83.7714	55.6641	84.1176	55.6641	83.9483	55.6641	84.3015	55.6641	84.1313	55.6641	84.4828	55.6641	84.3165	55.6641	84.6554	55.6641	84.4989	55.6641	84.8111	55.6641	84.6717	55.6641	84.9409	55.6641	84.8265	55.6641	85.0353	55.6641	84.9537	55.6641	85.0863	55.6641	85.0437	55.6641	85.0893
58.5938	83.0074	58.5938	83.0314	58.5938	83.01	58.5938	83.0811	58.5938	83.039	58.5938	83.155	58.5938	83.0934	58.5938	83.2507	58.5938	83.1715	58.5938	83.3652	58.5938	83.2706	58.5938	83.4953	58.5938	83.3879	58.5938	83.6375	58.5938	83.5201	58.5938	83.7884	58.5938	83.6637	58.5938	83.9448	58.5938	83.8155	58.5938	84.1034	58.5938	83.9722	58.5938	84.2612	58.5938	84.1309	58.5938	84.4143	58.5938	84.2882	58.5938	84.5584	58.5938	84.4405	58.5938	84.6875	58.5938	84.5827	58.5938	84.7948	58.5938	84.7088	58.5938	84.873	58.5938	84.8116	58.5938	84.9159	58.5938	84.8839	58.5938	84.9197
61.5234	82.9754	61.5234	82.999	61.5234	82.9775	61.5234	83.0473	61.5234	83.0052	61.5234	83.1186	61.5234	83.0572	61.5234	83.2102	61.5234	83.1317	61.5234	83.3186	61.5234	83.2257	61.5234	83.4402	61.5234	83.3359	61.5234	83.571	61.5234	83.4585	61.5234	83.7071	61.5234	83.5896	61.5234	83.845	61.5234	83.7256	61.5234	83.9815	61.5234	83.8629	61.5234	84.1139	61.5234	83.9987	61.5234	84.2394	61.5234	84.1303	61.5234	84.355	61.5234	84.2547	61.5234	84.4569	61.5234	84.369	61.5234	84.5405	61.5234	84.469	61.5234	84.6008	61.5234	84.55	61.5234	84.6333	61.5234	84.6069	61.5234	84.6355
64.4531	83.0175	64.4531	83.0406	64.4531	83.0186	64.4531	83.087	64.4531	83.0438	64.4531	83.1546	64.4531	83.092	64.4531	83.2406	64.4531	83.1609	64.4531	83.3415	64.4531	83.2477	64.4531	83.4531	64.4531	83.3485	64.4531	83.5711	64.4531	83.4595	64.4531	83.6915	64.4531	83.5764	64.4531	83.8105	64.4531	83.6953	64.4531	83.9249	64.4531	83.8127	64.4531	84.0323	64.4531	83.9256	64.4531	84.1308	64.4531	84.0319	64.4531	84.2187	64.4531	84.1297	64.4531	84.2941	64.4531	84.2175	64.4531	84.3545	64.4531	84.2931	64.4531	84.397	64.4531	84.3538	64.4531	84.4191	64.4531	84.3967	64.4531	84.419
67.3828	83.1013	67.3828	83.1233	67.3828	83.1019	67.3828	83.1668	67.3828	83.1249	67.3828	83.2299	67.3828	83.1691	67.3828	83.3097	67.3828	83.2324	67.3828	83.4023	67.3828	83.3114	67.3828	83.5035	67.3828	83.4026	67.3828	83.6089	67.3828	83.5017	67.3828	83.714	67.3828	83.6044	67.3828	83.8152	67.3828	83.7065	67.3828	83.9091	67.3828	83.8046	67.3828	83.9937	67.3828	83.8958	67.3828	84.0677	67.3828	83.9786	67.3828	84.1307	67.3828	84.0519	67.3828	84.1821	67.3828	84.1154	67.3828	84.2216	67.3828	84.1688	67.3828	84.248	67.3828	84.2113	67.3828	84.2605	67.3828	84.2416	67.3828	84.2583
70.3125	83.169	70.3125	83.1831	70.3125	83.177	70.3125	83.2184	70.3125	83.2066	70.3125	83.2731	70.3125	83.2565	70.3125	83.3443	70.3125	83.3244	70.3125	83.4283	70.3125	83.4069	70.3125	83.5209	70.3125	83.5	70.3125	83.6176	70.3125	83.5992	70.3125	83.7138	70.3125	83.7	70.3125	83.8055	70.3125	83.7977	70.3125	83.8895	70.3125	83.8885	70.3125	83.9636	70.3125	83.9693	70.3125	84.0269	70.3125	84.038	70.3125	84.0795	70.3125	84.094	70.3125	84.1221	70.3125	84.1374	70.3125	84.1556	70.3125	84.1692	70.3125	84.1804	70.3125	84.1905	70.3125	84.1966	70.3125	84.2019	70.3125	84.2038
73.2422	83.2651	73.2422	83.2794	73.2422	83.2732	73.2422	83.3151	73.2422	83.3033	73.2422	83.3703	73.2422	83.3541	73.2422	83.442	73.2422	83.423	73.2422	83.5262	73.2422	83.5066	73.2422	83.6186	73.2422	83.6006	73.2422	83.7141	73.2422	83.7	73.2422	83.8079	73.2422	83.7999	73.2422	83.8957	73.2422	83.8952	73.2422	83.974	73.2422	83.9815	73.2422	84.0404	73.2422	84.0555	73.2422	84.094	73.2422	84.1152	73.2422	84.1355	73.2422	84.16	73.2422	84.1663	73.2422	84.1911	73.2422	84.1887	73.2422	84.2104	73.2422	84.2046	73.2422	84.2206	73.2422	84.2153	73.2422	84.2238	73.2422	84.2218
76.1719	83.4366	76.1719	83.4537	76.1719	83.4406	76.1719	83.4907	76.1719	83.4655	76.1719	83.5458	76.1719	83.5101	76.1719	83.6156	76.1719	83.5721	76.1719	83.6963	76.1719	83.6479	76.1719	83.7833	76.1719	83.7335	76.1719	83.8715	76.1719	83.824	76.1719	83.9559	76.1719	83.914	76.1719	84.032	76.1719	83.9986	76.1719	84.0961	76.1719	84.0731	76.1719	84.1461	76.1719	84.1341	76.1719	84.1814	76.1719	84.1796	76.1719	84.2033	76.1719	84.2095	76.1719	84.2146	76.1719	84.2257	76.1719	84.219	76.1719	84.2313	76.1719	84.22	76.1719	84.2303	76.1719	84.2208	76.1719	84.2265	76.1719	84.2229
79.1016	83.4709	79.1016	83.4891	79.1016	83.4747	79.1016	83.5282	79.1016	83.5002	79.1016	83.586	79.1016	83.5464	79.1016	83.6596	79.1016	83.6108	79.1016	83.7446	79.1016	83.69	79.1016	83.8365	79.1016	83.7798	79.1016	83.9299	79.1016	83.875	79.1016	84.0195	79.1016	83.9702	79.1016	84.1003	79.1016	84.0599	79.1016	84.1683	79.1016	84.1391	79.1016	84.2211	79.1016	84.2039	79.1016	84.2579	79.1016	84.2522	79.1016	84.2798	79.1016	84.2835	79.1016	84.2899	79.1016	84.2997	79.1016	84.2923	79.1016	84.3042	79.1016	84.2913	79.1016	84.3017	79.1016	84.2906	79.1016	84.2965	79.1016	84.2922
82.0313	83.7521	82.0313	83.7754	82.0313	83.747	82.0313	83.8158	82.0313	83.7602	82.0313	83.8711	82.0313	83.791	82.0313	83.9384	82.0313	83.8374	82.0313	84.0137	82.0313	83.8967	82.0313	84.0925	82.0313	83.965	82.0313	84.1697	82.0313	84.0377	82.0313	84.2402	82.0313	84.1098	82.0313	84.299	82.0313	84.1761	82.0313	84.3422	82.0313	84.2318	82.0313	84.3677	82.0313	84.2732	82.0313	84.3749	82.0313	84.2984	82.0313	84.3661	82.0313	84.3078	82.0313	84.3456	82.0313	84.3038	82.0313	84.3192	82.0313	84.2916	82.0313	84.2935	82.0313	84.2771	82.0313	84.2742	82.0313	84.2667	82.0313	84.2649
84.9609	84.063	84.9609	84.0914	84.9609	84.0475	84.9609	84.1316	84.9609	84.0453	84.9609	84.1815	84.9609	84.0556	84.9609	84.2381	84.9609	84.0769	84.9609	84.2974	84.9609	84.1065	84.9609	84.3548	84.9609	84.141	84.9609	84.4052	84.9609	84.1764	84.9609	84.4434	84.9609	84.2081	84.9609	84.4647	84.9609	84.2315	84.9609	84.4654	84.9609	84.2426	84.9609	84.4438	84.9609	84.2388	84.9609	84.4006	84.9609	84.2194	84.9609	84.3396	84.9609	84.1863	84.9609	84.2674	84.9609	84.1445	84.9609	84.193	84.9609	84.1012	84.9609	84.1261	84.9609	84.0655	84.9609	84.0759	84.9609	84.0457	84.9609	84.0484
87.8906	83.902	87.8906	83.9177	87.8906	83.9055	87.8906	83.9518	87.8906	83.9278	87.8906	84.0025	87.8906	83.9675	87.8906	84.0665	87.8906	84.0217	87.8906	84.1396	87.8906	84.0871	87.8906	84.2166	87.8906	84.1589	87.8906	84.2919	87.8906	84.2319	87.8906	84.3593	87.8906	84.3006	87.8906	84.4133	87.8906	84.3595	87.8906	84.4496	87.8906	84.4038	87.8906	84.4656	87.8906	84.4301	87.8906	84.4613	87.8906	84.4372	87.8906	84.4394	87.8906	84.4262	87.8906	84.4057	87.8906	84.4013	87.8906	84.3676	87.8906	84.3689	87.8906	84.3334	87.8906	84.3369	87.8906	84.3104	87.8906	84.3131	87.8906	84.3033
90.8203	83.8297	90.8203	83.8405	90.8203	83.8403	90.8203	83.872	90.8203	83.872	90.8203	83.9225	90.8203	83.9234	90.8203	83.9891	90.8203	83.9923	90.8203	84.0679	90.8203	84.075	90.8203	84.1539	90.8203	84.1669	90.8203	84.2415	90.8203	84.2625	90.8203	84.3244	90.8203	84.3557	90.8203	84.3968	90.8203	84.44	90.8203	84.4538	90.8203	84.5098	90.8203	84.4923	90.8203	84.5602	90.8203	84.5113	90.8203	84.5887	90.8203	84.5131	90.8203	84.5952	90.8203	84.5025	90.8203	84.5826	90.8203	84.4865	90.8203	84.5567	90.8203	84.4727	90.8203	84.5251	90.8203	84.4677	90.8203	84.4957	90.8203	84.4753
93.75	84.3053	93.75	84.3213	93.75	84.3033	93.75	84.3502	93.75	84.3157	93.75	84.3906	93.75	84.3423	93.75	84.4401	93.75	84.3819	93.75	84.4955	93.75	84.4325	93.75	84.5531	93.75	84.4909	93.75	84.6081	93.75	84.5529	93.75	84.6558	93.75	84.6134	93.75	84.6913	93.75	84.6667	93.75	84.7107	93.75	84.7074	93.75	84.7118	93.75	84.7307	93.75	84.6947	93.75	84.7341	93.75	84.6624	93.75	84.7174	93.75	84.6211	93.75	84.6837	93.75	84.5791	93.75	84.6392	93.75	84.5453	93.75	84.5928	93.75	84.5277	93.75	84.5539	93.75	84.5306
96.6797	84.451	96.6797	84.4777	96.6797	84.4352	96.6797	84.5146	96.6797	84.4305	96.6797	84.56	96.6797	84.4363	96.6797	84.6112	96.6797	84.451	96.6797	84.6647	96.6797	84.4725	96.6797	84.7158	96.6797	84.4975	96.6797	84.7592	96.6797	84.522	96.6797	84.7891	96.6797	84.5415	96.6797	84.8	96.6797	84.5512	96.6797	84.7875	96.6797	84.547	96.6797	84.7493	96.6797	84.5258	96.6797	84.686	96.6797	84.4869	96.6797	84.6017	96.6797	84.4327	96.6797	84.5045	96.6797	84.369	96.6797	84.4057	96.6797	84.305	96.6797	84.3181	96.6797	84.2518	96.6797	84.2534	96.6797	84.2207	96.6797	84.2201
102.539	84.6889	102.539	84.7	102.539	84.6887	102.539	84.7215	102.539	84.6993	102.539	84.7523	102.539	84.7199	102.539	84.7904	102.539	84.7492	102.539	84.8329	102.539	84.7848	102.539	84.8757	102.539	84.8235	102.539	84.9139	102.539	84.8612	102.539	84.942	102.539	84.8929	102.539	84.9546	102.539	84.9133	102.539	84.9471	102.539	84.9175	102.539	84.9171	102.539	84.9019	102.539	84.8651	102.539	84.8651	102.539	84.7952	102.539	84.8088	102.539	84.7153	102.539	84.7384	102.539	84.6365	102.539	84.663	102.539	84.571	102.539	84.594	102.539	84.5298	102.539	84.5431	102.539	84.5201
105.469	84.8227	105.469	84.8309	105.469	84.8247	105.469	84.8488	105.469	84.8369	105.469	84.8755	105.469	84.8587	105.469	84.9089	105.469	84.8887	105.469	84.9463	105.469	84.9249	105.469	84.9839	105.469	84.964	105.469	85.0169	105.469	85.0019	105.469	85.04	105.469	85.0334	105.469	85.048	105.469	85.0532	105.469	85.0366	105.469	85.0561	105.469	85.0035	105.469	85.0384	105.469	84.9495	105.469	84.9984	105.469	84.8787	105.469	84.9379	105.469	84.7992	105.469	84.8624	105.469	84.7222	105.469	84.781	105.469	84.6598	105.469	84.7054	105.469	84.623	105.469	84.648	105.469	84.6188
108.398	84.9804	108.398	84.9952	108.398	84.9747	108.398	85.0185	108.398	84.9782	108.398	85.0491	108.398	84.9907	108.398	85.0853	108.398	85.0113	108.398	85.1244	108.398	85.0384	108.398	85.1627	108.398	85.0693	108.398	85.1955	108.398	85.1002	108.398	85.2177	108.398	85.1261	108.398	85.2239	108.398	85.1418	108.398	85.2097	108.398	85.1423	108.398	85.1728	108.398	85.1236	108.398	85.1138	108.398	85.084	108.398	85.0368	108.398	85.0252	108.398	84.9499	108.398	84.9526	108.398	84.8643	108.398	84.8755	108.398	84.7929	108.398	84.8055	108.398	84.7469	108.398	84.755	108.398	84.7338
111.328	85.1308	111.328	85.145	111.328	85.1243	111.328	85.1665	111.328	85.1255	111.328	85.1944	111.328	85.1341	111.328	85.2273	111.328	85.1495	111.328	85.2629	111.328	85.1701	111.328	85.2976	111.328	85.1934	111.328	85.3269	111.328	85.2161	111.328	85.3455	111.328	85.2335	111.328	85.3481	111.328	85.2407	111.328	85.33	111.328	85.2328	111.328	85.2888	111.328	85.2063	111.328	85.2246	111.328	85.1599	111.328	85.1416	111.328	85.0954	111.328	85.0479	111.328	85.0188	111.328	84.9549	111.328	84.9394	111.328	84.876	111.328	84.8693	111.328	84.8229	111.328	84.8209	111.328	84.8039
117.188	85.4008	117.188	85.4046	117.188	85.4018	117.188	85.4135	117.188	85.4075	117.188	85.4272	117.188	85.4178	117.188	85.4453	117.188	85.4324	117.188	85.4662	117.188	85.4501	117.188	85.4872	117.188	85.4691	117.188	85.5046	117.188	85.4865	117.188	85.5134	117.188	85.4981	117.188	85.5087	117.188	85.4994	117.188	85.4858	117.188	85.4857	117.188	85.4422	117.188	85.4533	117.188	85.378	117.188	85.4009	117.188	85.2974	117.188	85.3302	117.188	85.2083	117.188	85.2468	117.188	85.122	117.188	85.1601	117.188	85.0512	117.188	85.0819	117.188	85.0074	117.188	85.0245	117.188	84.998
120.117	85.6227	120.117	85.6215	120.117	85.6259	120.117	85.6225	120.117	85.6311	120.117	85.6258	120.117	85.6383	120.117	85.6315	120.117	85.6476	120.117	85.6386	120.117	85.6586	120.117	85.6453	120.117	85.6699	120.117	85.6485	120.117	85.6793	120.117	85.6441	120.117	85.6833	120.117	85.6278	120.117	85.6776	120.117	85.5956	120.117	85.6579	120.117	85.5454	120.117	85.6208	120.117	85.4778	120.117	85.5645	120.117	85.397	120.117	85.4905	120.117	85.3109	120.117	85.4039	120.117	85.2304	120.117	85.3133	120.117	85.1674	120.117	85.2301	120.117	85.1325	120.117	85.1663	120.117	85.132
125.977	85.8249	125.977	85.8178	125.977	85.8325	125.977	85.8111	125.977	85.8405	125.977	85.8045	125.977	85.8491	125.977	85.7976	125.977	85.8579	125.977	85.7893	125.977	85.8662	125.977	85.7774	125.977	85.8719	125.977	85.7587	125.977	85.872	125.977	85.7295	125.977	85.8625	125.977	85.6857	125.977	85.8386	125.977	85.624	125.977	85.7956	125.977	85.5432	125.977	85.7301	125.977	85.4451	125.977	85.6412	125.977	85.3356	125.977	85.5314	125.977	85.2246	125.977	85.4077	125.977	85.1252	125.977	85.281	125.977	85.0511	125.977	85.1652	125.977	85.0146	125.977	85.075	125.977	85.0225
128.906	85.7723	128.906	85.7722	128.906	85.7736	128.906	85.7729	128.906	85.7764	128.906	85.7738	128.906	85.7811	128.906	85.7741	128.906	85.7874	128.906	85.7721	128.906	85.7946	128.906	85.765	128.906	85.8007	128.906	85.7492	128.906	85.8022	128.906	85.7203	128.906	85.7945	128.906	85.6737	128.906	85.7723	128.906	85.6062	128.906	85.7302	128.906	85.5165	128.906	85.6644	128.906	85.4072	128.906	85.5735	128.906	85.2849	128.906	85.4601	128.906	85.1609	128.906	85.3313	128.906	85.0495	128.906	85.1989	128.906	84.9661	128.906	85.0776	128.906	84.9236	128.906	84.9834	128.906	84.9294
134.766	85.7174	134.766	85.7381	134.766	85.6964	134.766	85.7585	134.766	85.6756	134.766	85.7792	134.766	85.6559	134.766	85.7999	134.766	85.6383	134.766	85.8201	134.766	85.6238	134.766	85.8376	134.766	85.6123	134.766	85.8489	134.766	85.6023	134.766	85.8492	134.766	85.591	134.766	85.8331	134.766	85.5743	134.766	85.7959	134.766	85.5475	134.766	85.7348	134.766	85.507	134.766	85.6501	134.766	85.4512	134.766	85.5463	134.766	85.3817	134.766	85.4321	134.766	85.304	134.766	85.3196	134.766	85.2274	134.766	85.2225	134.766	85.1637	134.766	85.1531	134.766	85.1247	134.766	85.1198
137.695	85.7838	137.695	85.7915	137.695	85.7744	137.695	85.7986	137.695	85.7633	137.695	85.8062	137.695	85.751	137.695	85.8155	137.695	85.7386	137.695	85.8268	137.695	85.7269	137.695	85.8387	137.695	85.7163	137.695	85.8485	137.695	85.706	137.695	85.8515	137.695	85.6937	137.695	85.8423	137.695	85.6761	137.695	85.8158	137.695	85.6493	137.695	85.7685	137.695	85.6102	137.695	85.6999	137.695	85.5575	137.695	85.6136	137.695	85.4928	137.695	85.5169	137.695	85.421	137.695	85.4208	137.695	85.3507	137.695	85.3374	137.695	85.2922	137.695	85.278	137.695	85.256	137.695	85.2501
143.555	85.9866	143.555	85.976	143.555	85.9888	143.555	85.9582	143.555	85.9829	143.555	85.935	143.555	85.9701	143.555	85.9087	143.555	85.9521	143.555	85.8815	143.555	85.9309	143.555	85.8546	143.555	85.9075	143.555	85.8275	143.555	85.882	143.555	85.7983	143.555	85.8528	143.555	85.7638	143.555	85.8174	143.555	85.7205	143.555	85.7725	143.555	85.6655	143.555	85.7155	143.555	85.5984	143.555	85.6456	143.555	85.5218	143.555	85.565	143.555	85.4413	143.555	85.479	143.555	85.3655	143.555	85.3958	143.555	85.3037	143.555	85.3251	143.555	85.2649	143.555	85.2759	143.555	85.2549
149.414	86.216	149.414	86.2059	149.414	86.2128	149.414	86.1832	149.414	86.1965	149.414	86.1497	149.414	86.1686	149.414	86.1074	149.414	86.1313	149.414	86.0584	149.414	86.0867	149.414	86.0039	149.414	86.037	149.414	85.9439	149.414	85.9829	149.414	85.8775	149.414	85.9241	149.414	85.803	149.414	85.8591	149.414	85.7187	149.414	85.7857	149.414	85.6247	149.414	85.7023	149.414	85.523	149.414	85.6088	149.414	85.4185	149.414	85.5078	149.414	85.3188	149.414	85.4045	149.414	85.2327	149.414	85.3068	149.414	85.1689	149.414	85.2235	149.414	85.1342	149.414	85.1632	149.414	85.1322
155.273	86.4036	155.273	86.3911	155.273	86.4018	155.273	86.3655	155.273	86.3858	155.273	86.3286	155.273	86.3565	155.273	86.2827	155.273	86.3155	155.273	86.2294	155.273	86.2646	155.273	86.1696	155.273	86.2052	155.273	86.1029	155.273	86.1377	155.273	86.0274	155.273	86.0614	155.273	85.9404	155.273	85.9746	155.273	85.8394	155.273	85.8755	155.273	85.724	155.273	85.7631	155.273	85.5963	155.273	85.6389	155.273	85.4623	155.273	85.507	155.273	85.3314	155.273	85.3752	155.273	85.2151	155.273	85.2538	155.273	85.1248	155.273	85.1539	155.273	85.0701	155.273	85.0858	155.273	85.0567
158.203	86.4476	158.203	86.4379	158.203	86.4423	158.203	86.4143	158.203	86.4221	158.203	86.3785	158.203	86.3883	158.203	86.3328	158.203	86.3427	158.203	86.2793	158.203	86.2875	158.203	86.2191	158.203	86.2245	158.203	86.152	158.203	86.1543	158.203	86.0765	158.203	86.0765	158.203	85.9903	158.203	85.9896	158.203	85.8915	158.203	85.8919	158.203	85.7794	158.203	85.7825	158.203	85.6562	158.203	85.6628	158.203	85.5274	158.203	85.537	158.203	85.4014	158.203	85.4127	158.203	85.2888	158.203	85.2998	158.203	85.2001	158.203	85.2087	158.203	85.1441	158.203	85.1488	158.203	85.1265
164.063	86.492	164.063	86.4788	164.063	86.489	164.063	86.4507	164.063	86.4696	164.063	86.4099	164.063	86.4348	164.063	86.3591	164.063	86.3865	164.063	86.3008	164.063	86.3268	164.063	86.2366	164.063	86.2572	164.063	86.1664	164.063	86.1788	164.063	86.089	164.063	86.0912	164.063	86.002	164.063	85.9935	164.063	85.9032	164.063	85.8849	164.063	85.7922	164.063	85.7657	164.063	85.6708	164.063	85.6385	164.063	85.5443	164.063	85.509	164.063	85.4204	164.063	85.3854	164.063	85.3089	164.063	85.2776	164.063	85.2189	164.063	85.1953	164.063	85.1586	164.063	85.1458	164.063	85.1333
169.922	86.3967	169.922	86.3726	169.922	86.4024	169.922	86.3314	169.922	86.3895	169.922	86.276	169.922	86.3597	169.922	86.2099	169.922	86.3154	169.922	86.1368	169.922	86.2596	169.922	86.0596	169.922	86.1945	169.922	85.9796	169.922	86.1216	169.922	85.8967	169.922	86.0407	169.922	85.8095	169.922	85.9507	169.922	85.7165	169.922	85.8503	169.922	85.6173	169.922	85.7392	169.922	85.5137	169.922	85.6196	169.922	85.41	169.922	85.4966	169.922	85.3122	169.922	85.378	169.922	85.2278	169.922	85.2733	169.922	85.1633	169.922	85.1908	169.922	85.1243	169.922	85.137	169.922	85.1149
175.781	86.324	175.781	86.3022	175.781	86.3237	175.781	86.2591	175.781	86.3019	175.781	86.1974	175.781	86.2612	175.781	86.1207	175.781	86.2053	175.781	86.0329	175.781	86.1382	175.781	85.9378	175.781	86.0639	175.781	85.8379	175.781	85.985	175.781	85.735	175.781	85.9026	175.781	85.6299	175.781	85.8163	175.781	85.5236	175.781	85.7248	175.781	85.418	175.781	85.6275	175.781	85.3168	175.781	85.5252	175.781	85.2253	175.781	85.421	175.781	85.1492	175.781	85.3204	175.781	85.093	175.781	85.2296	175.781	85.0596	175.781	85.154	175.781	85.0496	175.781	85.0977	175.781	85.0625
181.641	86.3434	181.641	86.3303	181.641	86.3306	181.641	86.2926	181.641	86.2925	181.641	86.2329	181.641	86.2311	181.641	86.1548	181.641	86.1501	181.641	86.062	181.641	86.0539	181.641	85.9575	181.641	85.947	181.641	85.8436	181.641	85.8332	181.641	85.7216	181.641	85.715	181.641	85.5925	181.641	85.5941	181.641	85.4581	181.641	85.4715	181.641	85.3221	181.641	85.3489	181.641	85.1904	181.641	85.2294	181.641	85.0707	181.641	85.1174	181.641	84.9703	181.641	85.0185	181.641	84.8945	181.641	84.9373	181.641	84.8451	181.641	84.8767	181.641	84.8206	181.641	84.8372	181.641	84.8185
190.43	86.3977	190.43	86.3744	190.43	86.3938	190.43	86.3266	190.43	86.3621	190.43	86.2585	190.43	86.3035	190.43	86.1748	190.43	86.2205	190.43	86.0804	190.43	86.1164	190.43	85.9788	190.43	85.9948	190.43	85.8716	190.43	85.8588	190.43	85.7586	190.43	85.7109	190.43	85.6382	190.43	85.5535	190.43	85.5095	190.43	85.3896	190.43	85.3735	190.43	85.2244	190.43	85.2341	190.43	85.0653	190.43	85.0982	190.43	84.9222	190.43	84.9734	190.43	84.805	190.43	84.8665	190.43	84.7214	190.43	84.7808	190.43	84.674	190.43	84.7174	190.43	84.6607	190.43	84.6767
196.289	86.3221	196.289	86.2811	196.289	86.3311	196.289	86.2105	196.289	86.3079	196.289	86.1157	196.289	86.2549	196.289	86.0036	196.289	86.1762	196.289	85.8819	196.289	86.0766	196.289	85.758	196.289	85.9612	196.289	85.6372	196.289	85.8339	196.289	85.5226	196.289	85.6976	196.289	85.4146	196.289	85.5541	196.289	85.3124	196.289	85.4056	196.289	85.2154	196.289	85.2561	196.289	85.124	196.289	85.1122	196.289	85.0402	196.289	84.9832	196.289	84.966	196.289	84.8788	196.289	84.9027	196.289	84.8065	196.289	84.8499	196.289	84.7683	196.289	84.8073	196.289	84.7606	196.289	84.7761
202.148	86.3758	202.148	86.3248	202.148	86.3878	202.148	86.2365	202.148	86.3616	202.148	86.1153	202.148	86.3001	202.148	85.9677	202.148	86.2081	202.148	85.802	202.148	86.0915	202.148	85.6273	202.148	85.9559	202.148	85.4523	202.148	85.8069	202.148	85.2846	202.148	85.6485	202.148	85.1305	202.148	85.4846	202.148	84.9945	202.148	85.319	202.148	84.8804	202.148	85.1571	202.148	84.7911	202.148	85.0065	202.148	84.7276	202.148	84.8764	202.148	84.6882	202.148	84.7749	202.148	84.6679	202.148	84.7065	202.148	84.6593	202.148	84.669	202.148	84.6552	202.148	84.6546	202.148	84.6527
210.938	86.313	210.938	86.2648	210.938	86.3219	210.938	86.1779	210.938	86.293	210.938	86.055	210.938	86.2295	210.938	85.9006	210.938	86.1361	210.938	85.7204	210.938	86.0178	210.938	85.5211	210.938	85.8797	210.938	85.31	210.938	85.7254	210.938	85.0948	210.938	85.5577	210.938	84.8841	210.938	85.3788	210.938	84.6877	210.938	85.1917	210.938	84.5166	210.938	85.0022	210.938	84.3814	210.938	84.8195	210.938	84.2897	210.938	84.6559	210.938	84.2425	210.938	84.5228	210.938	84.2327	210.938	84.4261	210.938	84.247	210.938	84.3636	210.938	84.2714	210.938	84.325	210.938	84.2973
216.797	86.1459	216.797	86.1087	216.797	86.1418	216.797	86.0299	216.797	86.0989	216.797	85.9115	216.797	86.0219	216.797	85.7576	216.797	85.9171	216.797	85.5739	216.797	85.7916	216.797	85.3675	216.797	85.6522	216.797	85.1466	216.797	85.5043	216.797	84.9206	216.797	85.3514	216.797	84.7005	216.797	85.1951	216.797	84.4985	216.797	85.0371	216.797	84.3281	216.797	84.8801	216.797	84.2014	216.797	84.7298	216.797	84.1257	216.797	84.5943	216.797	84.1002	216.797	84.4817	216.797	84.1151	216.797	84.396	216.797	84.1544	216.797	84.3347	216.797	84.2017	216.797	84.2887	216.797	84.2468
225.586	86.3105	225.586	86.2908	225.586	86.2808	225.586	86.2221	225.586	86.2032	225.586	86.1062	225.586	86.0811	225.586	85.9463	225.586	85.9199	225.586	85.7464	225.586	85.7264	225.586	85.5116	225.586	85.5082	225.586	85.2486	225.586	85.2734	225.586	84.9669	225.586	85.0303	225.586	84.6802	225.586	84.7878	225.586	84.4077	225.586	84.5565	225.586	84.1724	225.586	84.3492	225.586	83.9971	225.586	84.1801	225.586	83.8958	225.586	84.0612	225.586	83.8673	225.586	83.9972	225.586	83.8932	225.586	83.9812	225.586	83.9445	225.586	83.9949	225.586	83.992	225.586	84.0139	225.586	84.0166
234.375	86.2635	234.375	86.2251	234.375	86.2565	234.375	86.1455	234.375	86.202	234.375	86.0301	234.375	86.0996	234.375	85.8847	234.375	85.951	234.375	85.7144	234.375	85.7596	234.375	85.5227	234.375	85.5296	234.375	85.3116	234.375	85.2666	234.375	85.0827	234.375	84.9774	234.375	84.8398	234.375	84.6719	234.375	84.5915	234.375	84.3647	234.375	84.3531	234.375	84.0766	234.375	84.1448	234.375	83.8333	234.375	83.9859	234.375	83.6601	234.375	83.8852	234.375	83.5716	234.375	83.835	234.375	83.5636	234.375	83.8128	234.375	83.6126	234.375	83.791	234.375	83.6847	234.375	83.7494
240.234	86.1501	240.234	86.0799	240.234	86.1683	240.234	85.9601	240.234	86.1344	240.234	85.795	240.234	86.0506	240.234	85.5908	240.234	85.9204	240.234	85.3551	240.234	85.7481	240.234	85.0958	240.234	85.5381	240.234	84.8214	240.234	85.2942	240.234	84.5417	240.234	85.0206	240.234	84.2692	240.234	84.7233	240.234	84.0203	240.234	84.4134	240.234	83.815	240.234	84.1098	240.234	83.6722	240.234	83.8401	240.234	83.6015	240.234	83.6351	240.234	83.5962	240.234	83.5179	240.234	83.6314	240.234	83.4914	240.234	83.673	240.234	83.5332	240.234	83.6897	240.234	83.6044	240.234	83.6652
249.023	86.1861	249.023	86.1299	249.023	86.1882	249.023	86.0214	249.023	86.1358	249.023	85.8635	249.023	86.0301	249.023	85.6599	249.023	85.8737	249.023	85.4143	249.023	85.6698	249.023	85.1295	249.023	85.422	249.023	84.8083	249.023	85.1338	249.023	84.4548	249.023	84.8095	249.023	84.0772	249.023	84.4555	249.023	83.6926	249.023	84.0832	249.023	83.3296	249.023	83.712	249.023	83.0254	249.023	83.3704	249.023	82.8151	249.023	83.0918	249.023	82.7139	249.023	82.903	249.023	82.7054	249.023	82.81	249.023	82.7482	249.023	82.7916	249.023	82.7956	249.023	82.8074	249.023	82.8166
257.813	86.1839	257.813	86.1246	257.813	86.1959	257.813	86.0198	257.813	86.1608	257.813	85.8727	257.813	86.0804	257.813	85.6875	257.813	85.9573	257.813	85.4679	257.813	85.7938	257.813	85.2171	257.813	85.5913	257.813	84.9373	257.813	85.3496	257.813	84.6312	257.813	85.0681	257.813	84.3057	257.813	84.7485	257.813	83.9753	257.813	84.3989	257.813	83.6643	257.813	84.0381	257.813	83.405	257.813	83.6972	257.813	83.2265	257.813	83.4151	257.813	83.1404	257.813	83.2249	257.813	83.1315	257.813	83.137	257.813	83.1625	257.813	83.1308	257.813	83.1921	257.813	83.164	257.813	83.193
266.602	85.8646	266.602	85.7856	266.602	85.8883	266.602	85.6531	266.602	85.8566	266.602	85.4713	266.602	85.7712	266.602	85.2455	266.602	85.6351	266.602	84.9817	266.602	85.4509	266.602	84.6853	266.602	85.2205	266.602	84.3609	266.602	84.9439	266.602	84.0133	266.602	84.6207	266.602	83.6508	266.602	84.2524	266.602	83.2893	266.602	83.8474	266.602	82.9557	266.602	83.4266	266.602	82.6851	266.602	83.0268	266.602	82.5093	266.602	82.6971	266.602	82.4387	266.602	82.4811	266.602	82.4512	266.602	82.3942	266.602	82.5002	266.602	82.41	266.602	82.5356	266.602	82.4731	266.602	82.5264
278.32	85.5958	278.32	85.5802	278.32	85.5565	278.32	85.505	278.32	85.4715	278.32	85.3684	278.32	85.3529	278.32	85.1713	278.32	85.2137	278.32	84.916	278.32	85.0645	278.32	84.6054	278.32	84.9102	278.32	84.2439	278.32	84.7477	278.32	83.8406	278.32	84.5678	278.32	83.4135	278.32	84.3601	278.32	82.9951	278.32	84.1194	278.32	82.6337	278.32	83.8524	278.32	82.3836	278.32	83.581	278.32	82.2828	278.32	83.3388	278.32	82.3295	278.32	83.1582	278.32	82.4784	278.32	83.0531	278.32	82.6628	278.32	83.0075	278.32	82.824	278.32	82.9813	278.32	82.9299
287.109	85.7403	287.109	85.7446	287.109	85.6688	287.109	85.6851	287.109	85.5305	287.109	85.567	287.109	85.3316	287.109	85.3948	287.109	85.0847	287.109	85.1701	287.109	84.807	287.109	84.8907	287.109	84.5166	287.109	84.5523	287.109	84.2272	287.109	84.1525	287.109	83.9439	287.109	83.6982	287.109	83.6651	287.109	83.2154	287.109	83.3884	287.109	82.7566	287.109	83.1213	287.109	82.3964	287.109	82.8863	287.109	82.2037	287.109	82.7169	287.109	82.1996	287.109	82.6393	287.109	82.3376	287.109	82.6516	287.109	82.5302	287.109	82.7168	287.109	82.6939	287.109	82.777	287.109	82.779
295.898	85.8791	295.898	85.7973	295.898	85.8923	295.898	85.6579	295.898	85.8279	295.898	85.4728	295.898	85.6796	295.898	85.253	295.898	85.4451	295.898	85.0062	295.898	85.127	295.898	84.7345	295.898	84.7331	295.898	84.4329	295.898	84.2765	295.898	84.0916	295.898	83.7743	295.898	83.7025	295.898	83.247	295.898	83.2691	295.898	82.7205	295.898	82.8187	295.898	82.2305	295.898	82.4076	295.898	81.8264	295.898	82.1077	295.898	81.5643	295.898	81.9679	295.898	81.4817	295.898	81.9745	295.898	81.5668	295.898	82.0526	295.898	81.7534	295.898	82.1098	295.898	81.9504	295.898	82.0811
307.617	85.6422	307.617	85.5471	307.617	85.6856	307.617	85.4004	307.617	85.6789	307.617	85.2044	307.617	85.6244	307.617	84.9631	307.617	85.522	307.617	84.681	307.617	85.3684	307.617	84.3613	307.617	85.1561	307.617	84.0057	307.617	84.8751	307.617	83.6165	307.617	84.5157	307.617	83.2017	307.617	84.074	307.617	82.7822	307.617	83.5598	307.617	82.3974	307.617	83.0053	307.617	82.1016	307.617	82.4727	307.617	81.9434	307.617	82.0487	307.617	81.9341	307.617	81.812	307.617	82.0311	307.617	81.7843	307.617	82.1553	307.617	81.9077	307.617	82.2284	307.617	82.0787	307.617	82.2029
319.336	85.5325	319.336	85.4756	319.336	85.5254	319.336	85.353	319.336	85.46	319.336	85.1654	319.336	85.3452	319.336	84.9147	319.336	85.1912	319.336	84.6016	319.336	85.0058	319.336	84.2242	319.336	84.7906	319.336	83.7782	319.336	84.5383	319.336	83.2606	319.336	84.234	319.336	82.6783	319.336	83.8609	319.336	82.062	319.336	83.4105	319.336	81.4793	319.336	82.8952	319.336	81.033	319.336	82.3598	319.336	80.8198	319.336	81.8841	319.336	80.8612	319.336	81.5578	319.336	81.0762	319.336	81.4277	319.336	81.3336	319.336	81.4574	319.336	81.5231	319.336	81.5472	319.336	81.5913
331.055	85.0799	331.055	85.0418	331.055	85.0644	331.055	84.9498	331.055	85.0013	331.055	84.8084	331.055	84.9026	331.055	84.6228	331.055	84.7836	331.055	84.3955	331.055	84.6568	331.055	84.1215	331.055	84.5261	331.055	83.7876	331.055	84.3812	331.055	83.3755	331.055	84.1987	331.055	82.871	331.055	83.9487	331.055	82.28	331.055	83.606	331.055	81.6494	331.055	83.1645	331.055	81.0821	331.055	82.6508	331.055	80.7159	331.055	82.1334	331.055	80.6394	331.055	81.7112	331.055	80.81	331.055	81.4654	331.055	81.0818	331.055	81.398	331.055	81.31	331.055	81.4221	331.055	81.4201
342.773	84.856	342.773	84.8352	342.773	84.7858	342.773	84.7322	342.773	84.6225	342.773	84.5606	342.773	84.3727	342.773	84.3355	342.773	84.0526	342.773	84.0696	342.773	83.6876	342.773	83.7682	342.773	83.3081	342.773	83.4266	342.773	82.942	342.773	83.0317	342.773	82.6056	342.773	82.5699	342.773	82.2995	342.773	82.0419	342.773	82.0152	342.773	81.4832	342.773	81.7502	342.773	80.98	342.773	81.5218	342.773	80.6558	342.773	81.3672	342.773	80.6019	342.773	81.3214	342.773	80.796	342.773	81.383	342.773	81.1093	342.773	81.4988	342.773	81.3959	342.773	81.5841	342.773	81.562
354.492	85.0181	354.492	84.9312	354.492	85.0241	354.492	84.7723	354.492	84.9461	354.492	84.5547	354.492	84.7878	354.492	84.2937	354.492	84.5579	354.492	84.0011	354.492	84.2683	354.492	83.6802	354.492	83.9299	354.492	83.3219	354.492	83.547	354.492	82.9077	354.492	83.1145	354.492	82.4188	354.492	82.6204	354.492	81.8544	354.492	82.0569	354.492	81.2544	354.492	81.4401	354.492	80.716	354.492	80.834	354.492	80.3732	354.492	80.3575	354.492	80.3125	354.492	80.1389	354.492	80.488	354.492	80.2156	354.492	80.7464	354.492	80.4844	354.492	80.9301	354.492	80.774	354.492	80.9444
366.211	85.2501	366.211	85.1675	366.211	85.2487	366.211	85.0031	366.211	85.1665	366.211	84.7631	366.211	85.012	366.211	84.4569	366.211	84.799	366.211	84.0935	366.211	84.5438	366.211	83.6774	366.211	84.2601	366.211	83.2032	366.211	83.9513	366.211	82.6542	366.211	83.6046	366.211	82.0075	366.211	83.1913	366.211	81.252	366.211	82.6761	366.211	80.4191	366.211	82.0356	366.211	79.6219	366.211	81.2839	366.211	79.0594	366.211	80.5037	366.211	78.9013	366.211	79.8567	366.211	79.11	366.211	79.5129	366.211	79.458	366.211	79.5009	366.211	79.7187	366.211	79.6616	366.211	79.7804
377.93	85.1698	377.93	85.1202	377.93	85.1411	377.93	85.0007	377.93	85.0319	377.93	84.8237	377.93	84.8475	377.93	84.6027	377.93	84.6017	377.93	84.3477	377.93	84.315	377.93	84.0609	377.93	84.0104	377.93	83.7335	377.93	83.7058	377.93	83.3467	377.93	83.4059	377.93	82.8783	377.93	83.099	377.93	82.3162	377.93	82.7639	377.93	81.6784	377.93	82.3839	377.93	81.0362	377.93	81.9649	377.93	80.5187	377.93	81.548	377.93	80.2598	377.93	81.2036	377.93	80.2911	377.93	80.9945	377.93	80.5027	377.93	80.9233	377.93	80.7332	377.93	80.9176	377.93	80.8762
392.578	84.7935	392.578	84.7125	392.578	84.7787	392.578	84.5482	392.578	84.6651	392.578	84.321	392.578	84.4588	392.578	84.0568	392.578	84.1755	392.578	83.7798	392.578	83.8396	392.578	83.5029	392.578	83.4799	392.578	83.2194	392.578	83.1211	392.578	82.9031	392.578	82.7739	392.578	82.5191	392.578	82.4306	392.578	82.0432	392.578	82.0729	392.578	81.4869	392.578	81.6903	392.578	80.9212	392.578	81.3022	392.578	80.4783	392.578	80.9676	392.578	80.2903	392.578	80.7645	392.578	80.3797	392.578	80.7342	392.578	80.6273	392.578	80.8339	392.578	80.8662	392.578	80.9539	392.578	80.9835
407.227	85.0837	407.227	84.9744	407.227	85.0675	407.227	84.7455	407.227	84.9245	407.227	84.408	407.227	84.6578	407.227	83.9794	407.227	84.2766	407.227	83.4836	407.227	83.798	407.227	82.9476	407.227	83.2493	407.227	82.395	407.227	82.6671	407.227	81.839	407.227	82.0919	407.227	81.2842	407.227	81.5602	407.227	80.7423	407.227	81.0997	407.227	80.26	407.227	80.734	407.227	79.9358	407.227	80.4953	407.227	79.882	407.227	80.4242	407.227	80.1278	407.227	80.5411	407.227	80.5663	407.227	80.8085	407.227	81.022	407.227	81.1284	407.227	81.3491	407.227	81.3816	407.227	81.4716
421.875	85.2753	421.875	85.1912	421.875	85.27	421.875	85.0209	421.875	85.1761	421.875	84.7701	421.875	84.9971	421.875	84.4452	421.875	84.7385	421.875	84.0496	421.875	84.4039	421.875	83.5803	421.875	83.9926	421.875	83.0262	421.875	83.4969	421.875	82.3712	421.875	82.9027	421.875	81.6067	421.875	82.1961	421.875	80.7569	421.875	81.3788	421.875	79.9197	421.875	80.4977	421.875	79.2951	421.875	79.6861	421.875	79.1064	421.875	79.1681	421.875	79.3928	421.875	79.1302	421.875	79.9412	421.875	79.5246	421.875	80.474	421.875	80.096	421.875	80.8033	421.875	80.5874	421.875	80.844
436.523	85.2374	436.523	85.1265	436.523	85.2383	436.523	84.9111	436.523	85.131	436.523	84.6036	436.523	84.9245	436.523	84.2208	436.523	84.6335	436.523	83.7793	436.523	84.2743	436.523	83.2888	436.523	83.8579	436.523	82.7452	436.523	83.3829	436.523	82.1296	436.523	82.832	436.523	81.4187	436.523	82.1773	436.523	80.6126	436.523	81.3989	436.523	79.7854	436.523	80.5209	436.523	79.1381	436.523	79.6677	436.523	78.9487	436.523	79.0973	436.523	79.3143	436.523	79.0698	436.523	80.0008	436.523	79.5621	436.523	80.6673	436.523	80.262	436.523	81.0838	436.523	80.8521	436.523	81.1492
451.172	85.284	451.172	85.2032	451.172	85.2695	451.172	85.0382	451.172	85.1571	451.172	84.8056	451.172	84.9546	451.172	84.5211	451.172	84.6785	451.172	84.1895	451.172	84.35	451.172	83.7949	451.172	83.9856	451.172	83.2951	451.172	83.5849	451.172	82.625	451.172	83.1226	451.172	81.7094	451.172	82.5528	451.172	80.4924	451.172	81.8273	451.172	79.0172	451.172	80.9314	451.172	77.6273	451.172	79.9461	451.172	77.0959	451.172	79.1244	451.172	77.7978	451.172	78.8366	451.172	79.0372	451.172	79.2067	451.172	80.1034	451.172	79.9174	451.172	80.7276	451.172	80.5551	451.172	80.8645
465.82	84.8925	465.82	84.8133	465.82	84.871	465.82	84.6443	465.82	84.7508	465.82	84.4083	465.82	84.5449	465.82	84.1346	465.82	84.2738	465.82	83.848	465.82	83.9587	465.82	83.5527	465.82	83.612	465.82	83.22	465.82	83.2271	465.82	82.7888	465.82	82.774	465.82	82.1797	465.82	82.2054	465.82	81.3201	465.82	81.474	465.82	80.1874	465.82	80.5659	465.82	78.9049	465.82	79.5629	465.82	77.894	465.82	78.7213	465.82	77.738	465.82	78.4174	465.82	78.432	465.82	78.7709	465.82	79.3543	465.82	79.4479	465.82	80.0201	465.82	80.0244	465.82	80.2482
483.398	84.6545	483.398	84.5396	483.398	84.6346	483.398	84.3123	483.398	84.4808	483.398	84.0181	483.398	84.2172	483.398	83.7169	483.398	83.8888	483.398	83.4595	483.398	83.5512	483.398	83.2512	483.398	83.2468	483.398	83.0313	483.398	82.9732	483.398	82.6847	483.398	82.6679	483.398	82.0729	483.398	82.2239	483.398	81.0602	483.398	81.5224	483.398	79.5452	483.398	80.47	483.398	77.5975	483.398	79.0676	483.398	75.9398	483.398	77.6022	483.398	76.0187	483.398	76.8739	483.398	77.5471	483.398	77.4567	483.398	79.0513	483.398	78.6761	483.398	79.9465	483.398	79.6903	483.398	80.149
500.977	85.0927	500.977	84.8791	500.977	85.0934	500.977	84.4646	500.977	84.8875	500.977	83.8888	500.977	84.5005	500.977	83.2362	500.977	83.9868	500.977	82.6424	500.977	83.4376	500.977	82.2478	500.977	82.9667	500.977	82.0898	500.977	82.6517	500.977	82.0409	500.977	82.462	500.977	81.8773	500.977	82.2547	500.977	81.3792	500.977	81.8407	500.977	80.3726	500.977	81.0453	500.977	78.7628	500.977	79.7433	500.977	76.7522	500.977	77.9533	500.977	75.4803	500.977	76.2123	500.977	76.201	500.977	75.8569	500.977	77.7357	500.977	77.0411	500.977	78.7768	500.977	78.3423	500.977	78.9827
518.555	85.9904	518.555	85.7875	518.555	85.9244	518.555	85.313	518.555	85.5832	518.555	84.5611	518.555	84.9561	518.555	83.5465	518.555	84.0459	518.555	82.3577	518.555	82.9111	518.555	81.2383	518.555	81.7422	518.555	80.5673	518.555	80.9011	518.555	80.5119	518.555	80.6869	518.555	80.7555	518.555	80.9483	518.555	80.8155	518.555	81.2314	518.555	80.3425	518.555	81.1674	518.555	79.1062	518.555	80.5488	518.555	76.9434	518.555	79.2689	518.555	74.0374	518.555	77.3572	518.555	72.2982	518.555	75.3105	518.555	73.4704	518.555	74.4163	518.555	74.9483	518.555	74.9257	518.555	75.4001
536.133	86.068	536.133	85.9166	536.133	86.0845	536.133	85.6243	536.133	85.9511	536.133	85.1662	536.133	85.6325	536.133	84.5017	536.133	85.0759	536.133	83.582	536.133	84.2153	536.133	82.3647	536.133	82.9797	536.133	80.8514	536.133	81.3143	536.133	79.1819	536.133	79.263	536.133	77.7729	536.133	77.2229	536.133	77.1588	536.133	76.1713	536.133	77.2954	536.133	76.5371	536.133	77.5853	536.133	77.3843	536.133	77.5899	536.133	77.9393	536.133	77.2094	536.133	78.0087	536.133	76.595	536.133	77.6644	536.133	76.0576	536.133	77.0903	536.133	75.8655	536.133	76.4984	536.133	76.0502
553.711	85.0853	553.711	85.0158	553.711	85.0945	553.711	84.871	553.711	85.0496	553.711	84.6271	553.711	84.9451	553.711	84.2502	553.711	84.7595	553.711	83.6965	553.711	84.4537	553.711	82.9176	553.711	83.9737	553.711	81.8715	553.711	83.2575	553.711	80.5471	553.711	82.2423	553.711	79.0215	553.711	80.8762	553.711	77.5544	553.711	79.148	553.711	76.5867	553.711	77.1827	553.711	76.3629	553.711	75.4494	553.711	76.6201	553.711	74.7313	553.711	76.9718	553.711	75.1655	553.711	77.2448	553.711	76.0345	553.711	77.4258	553.711	76.7932	553.711	77.5238	553.711	77.2786	553.711	77.4996
574.219	84.7503	574.219	84.6311	574.219	84.7807	574.219	84.4434	574.219	84.716	574.219	84.2157	574.219	84.5618	574.219	83.9705	574.219	84.3293	574.219	83.7041	574.219	84.0231	574.219	83.3731	574.219	83.6294	574.219	82.8957	574.219	83.1097	574.219	82.164	574.219	82.4045	574.219	81.0574	574.219	81.4461	574.219	79.4539	574.219	80.1814	574.219	77.289	574.219	78.6232	574.219	74.873	574.219	76.9793	574.219	73.664	574.219	75.8265	574.219	74.7183	574.219	75.7708	574.219	76.4325	574.219	76.569	574.219	77.7062	574.219	77.5198	574.219	78.3845	574.219	78.2211	574.219	78.5318
594.727	84.5792	594.727	84.4321	594.727	84.5684	594.727	84.1392	594.727	84.41	594.727	83.7371	594.727	84.1347	594.727	83.286	594.727	83.7902	594.727	82.852	594.727	83.4269	594.727	82.4674	594.727	83.0704	594.727	82.0912	594.727	82.6919	594.727	81.6067	594.727	82.202	594.727	80.8602	594.727	81.4714	594.727	79.7106	594.727	80.3609	594.727	78.104	594.727	78.76	594.727	76.2984	594.727	76.7193	594.727	75.2688	594.727	74.9187	594.727	75.8722	594.727	74.8196	594.727	77.26	594.727	76.2633	594.727	78.4418	594.727	77.7882	594.727	79.114	594.727	78.8028	594.727	79.2375
615.234	84.3875	615.234	84.2244	615.234	84.4106	615.234	83.9382	615.234	84.2969	615.234	83.5663	615.234	84.0698	615.234	83.1613	615.234	83.7718	615.234	82.7692	615.234	83.4525	615.234	82.393	615.234	83.1382	615.234	81.9669	615.234	82.7962	615.234	81.3634	615.234	82.3243	615.234	80.4227	615.234	81.5724	615.234	78.9805	615.234	80.3715	615.234	76.9267	615.234	78.5652	615.234	74.5396	615.234	76.158	615.234	73.4401	615.234	74.0496	615.234	74.8491	615.234	74.3524	615.234	76.8796	615.234	76.32	615.234	78.3768	615.234	78.0361	615.234	79.213	615.234	79.0635	615.234	79.4383
638.672	85.4024	638.672	85.2209	638.672	85.3587	638.672	84.8197	638.672	85.1007	638.672	84.2325	638.672	84.6585	638.672	83.5435	638.672	84.0963	638.672	82.8962	638.672	83.5256	638.672	82.4355	638.672	83.0774	638.672	82.1766	638.672	82.8063	638.672	81.9424	638.672	82.6043	638.672	81.4494	638.672	82.236	638.672	80.3995	638.672	81.4324	638.672	78.4711	638.672	79.9283	638.672	75.302	638.672	77.4799	638.672	71.6201	638.672	74.3462	638.672	72.9586	638.672	73.5787	638.672	76.611	638.672	76.2561	638.672	79.0192	638.672	78.6979	638.672	80.2749	638.672	80.1137	638.672	80.6156
659.18	85.0012	659.18	84.8259	659.18	84.9702	659.18	84.4557	659.18	84.7401	659.18	83.9319	659.18	84.3431	659.18	83.3429	659.18	83.8554	659.18	82.8203	659.18	83.404	659.18	82.4684	659.18	83.1162	659.18	82.2542	659.18	83.0041	659.18	81.9846	659.18	82.9078	659.18	81.3944	659.18	82.5726	659.18	80.2116	659.18	81.7368	659.18	78.1443	659.18	80.1304	659.18	74.9034	659.18	77.4091	659.18	71.4225	659.18	73.3026	659.18	72.6097	659.18	70.9676	659.18	75.8734	659.18	74.3496	659.18	78.0739	659.18	77.3306	659.18	79.2258	659.18	78.9399	659.18	79.5117
682.617	85.4976	682.617	85.2874	682.617	85.4149	682.617	84.7896	682.617	85.0386	682.617	84.0441	682.617	84.3803	682.617	83.1923	682.617	83.5167	682.617	82.5283	682.617	82.681	682.617	82.3446	682.617	82.2607	682.617	82.5757	682.617	82.4425	682.617	82.8075	682.617	82.9021	682.617	82.6169	682.617	83.1298	682.617	81.6789	682.617	82.7453	682.617	79.6538	682.617	81.4499	682.617	76.0133	682.617	78.8485	682.617	71.0066	682.617	74.3329	682.617	72.9631	682.617	70.9543	682.617	77.2596	682.617	75.4128	682.617	79.7419	682.617	78.8606	682.617	80.9597	682.617	80.6178	682.617	81.2402
706.055	86.6857	706.055	86.4279	706.055	86.6415	706.055	85.8297	706.055	86.2833	706.055	84.8275	706.055	85.5506	706.055	83.4023	706.055	84.3691	706.055	81.7854	706.055	82.7653	706.055	80.7963	706.055	81.1929	706.055	81.1816	706.055	80.7275	706.055	82.1993	706.055	81.559	706.055	82.7885	706.055	82.4875	706.055	82.4202	706.055	82.6683	706.055	80.6848	706.055	81.6932	706.055	76.6537	706.055	79.0144	706.055	65.5932	706.055	72.8402	706.055	71.537	706.055	64.811	706.055	78.5128	706.055	76.0908	706.055	81.5468	706.055	80.4117	706.055	82.9123	706.055	82.4337	706.055	83.1765
732.422	86.0532	732.422	85.9882	732.422	85.9944	732.422	85.7159	732.422	85.7984	732.422	85.0874	732.422	85.3546	732.422	83.9321	732.422	84.4883	732.422	82.135	732.422	83.0123	732.422	79.9765	732.422	80.8712	732.422	78.9753	732.422	78.8118	732.422	80.1616	732.422	78.9281	732.422	81.6991	732.422	80.7109	732.422	82.3363	732.422	82.0296	732.422	81.677	732.422	82.1771	732.422	79.2383	732.422	80.8335	732.422	73.402	732.422	77.212	732.422	65.0472	732.422	67.8269	732.422	76.0072	732.422	71.4525	732.422	80.305	732.422	78.4624	732.422	82.1381	732.422	81.39	732.422	82.4573
758.789	85.3661	758.789	85.3983	758.789	85.3162	758.789	85.328	758.789	85.2507	758.789	85.0084	758.789	85.0752	758.789	84.2501	758.789	84.6081	758.789	82.8453	758.789	83.621	758.789	80.6692	758.789	81.8946	758.789	78.3405	758.789	79.4507	758.789	78.2873	758.789	77.6736	758.789	80.2727	758.789	78.7684	758.789	81.7563	758.789	80.7278	758.789	81.9609	758.789	81.7067	758.789	80.5889	758.789	81.2966	758.789	76.8935	758.789	79.131	758.789	68.3395	758.789	74.067	758.789	71.9571	758.789	66.3918	758.789	77.9227	758.789	74.585	758.789	80.2122	758.789	78.8316	758.789	80.4443
785.156	85.0456	785.156	85.0506	785.156	85.0073	785.156	84.9775	785.156	84.9492	785.156	84.731	785.156	84.8338	785.156	84.1531	785.156	84.5357	785.156	83.0437	785.156	83.8472	785.156	81.2261	785.156	82.5265	785.156	78.8694	785.156	80.3948	785.156	77.6139	785.156	77.8823	785.156	78.9521	785.156	77.3509	785.156	80.6714	785.156	79.2076	785.156	81.3107	785.156	80.727	785.156	80.4644	785.156	80.9419	785.156	77.5655	785.156	79.5265	785.156	70.5317	785.156	75.7176	785.156	67.6637	785.156	67.1926	785.156	75.8208	785.156	71.4742	785.156	78.7186	785.156	77.0437	785.156	79.034
811.523	84.9783	811.523	85.027	811.523	84.9154	811.523	85.0334	811.523	84.8572	811.523	84.91	811.523	84.7932	811.523	84.4795	811.523	84.6116	811.523	83.4953	811.523	84.0882	811.523	81.6695	811.523	82.94	811.523	78.8078	811.523	80.8797	811.523	76.159	811.523	77.9119	811.523	77.3865	811.523	76.1784	811.523	79.8346	811.523	78.0445	811.523	80.94	811.523	80.0329	811.523	80.3385	811.523	80.5713	811.523	77.5282	811.523	79.3674	811.523	70.1367	811.523	75.7116	811.523	65.9821	811.523	66.086	811.523	75.4428	811.523	69.5382	811.523	78.369	811.523	76.2591	811.523	78.5535
840.82	85.0364	840.82	84.9413	840.82	85.0542	840.82	84.8743	840.82	84.9836	840.82	84.8841	840.82	84.9142	840.82	84.8192	840.82	84.8831	840.82	84.3563	840.82	84.718	840.82	83.1017	840.82	84.0689	840.82	80.5964	840.82	82.5148	840.82	76.6488	840.82	79.6179	840.82	75.6055	840.82	75.9947	840.82	79.157	840.82	77.0044	840.82	81.3218	840.82	80.118	840.82	81.5025	840.82	81.5357	840.82	79.6098	840.82	81.0503	840.82	74.9449	840.82	78.3649	840.82	70.3261	840.82	72.65	840.82	75.6367	840.82	72.0528	840.82	78.6478	840.82	77.0897	840.82	79.0717
870.117	84.9345	870.117	84.6922	870.117	84.9141	870.117	84.3727	870.117	84.6386	870.117	84.2639	870.117	84.3172	870.117	84.4357	870.117	84.241	870.117	84.5266	870.117	84.4081	870.117	83.9843	870.117	84.3786	870.117	82.222	870.117	83.5778	870.117	78.3465	870.117	81.4018	870.117	72.164	870.117	77.0288	870.117	76.4873	870.117	73.4885	870.117	80.7886	870.117	78.3765	870.117	82.2687	870.117	81.5159	870.117	81.6322	870.117	82.3007	870.117	78.8712	870.117	81.0723	870.117	74.215	870.117	77.7878	870.117	74.0295	870.117	73.7948	870.117	76.8302	870.117	75.0789	870.117	77.1764
902.344	85.9668	902.344	85.5816	902.344	85.9262	902.344	84.8127	902.344	85.465	902.344	83.8868	902.344	84.6483	902.344	83.3251	902.344	83.7461	902.344	83.4345	902.344	83.2513	902.344	83.6871	902.344	83.296	902.344	83.2746	902.344	83.2806	902.344	81.5132	902.344	82.4629	902.344	77.4681	902.344	80.1805	902.344	71.4738	902.344	75.6283	902.344	76.2695	902.344	72.8608	902.344	80.1189	902.344	77.707	902.344	81.1318	902.344	80.4236	902.344	79.9157	902.344	80.7654	902.344	76.2602	902.344	78.9582	902.344	69.53	902.344	74.453	902.344	66.228	902.344	65.5295	902.344	65.2582
931.641	86.3207	931.641	86.1345	931.641	86.2407	931.641	85.6382	931.641	85.8944	931.641	84.8097	931.641	85.2476	931.641	83.7632	931.641	84.3128	931.641	82.8141	931.641	83.2559	931.641	82.2282	931.641	82.383	931.641	81.7745	931.641	81.8131	931.641	80.8702	931.641	81.216	931.641	79.0434	931.641	80.1094	931.641	76.4729	931.641	78.2878	931.641	75.5169	931.641	76.515	931.641	77.0507	931.641	76.6151	931.641	77.9758	931.641	77.7092	931.641	77.0653	931.641	77.8098	931.641	73.7918	931.641	76.1986	931.641	67.9184	931.641	72.5522	931.641	66.321	931.641	68.0449	931.641	67.3864
966.797	86.2282	966.797	86.0476	966.797	86.1562	966.797	85.602	966.797	85.8132	966.797	84.8815	966.797	85.1686	966.797	83.9463	966.797	84.2398	966.797	82.9706	966.797	83.1629	966.797	82.1336	966.797	82.1718	966.797	81.36	966.797	81.3746	966.797	80.2932	966.797	80.5497	966.797	78.6197	966.797	79.3278	966.797	76.6803	966.797	77.6196	966.797	76.1473	966.797	76.2231	966.797	77.132	966.797	76.2468	966.797	77.4609	966.797	76.6843	966.797	75.9212	966.797	76.0767	966.797	71.642	966.797	73.8035	966.797	66.4427	966.797	70.1295	966.797	69.6346	966.797	69.3121	966.797	70.8413
999.023	86.1889	999.023	86.0635	999.023	86.0926	999.023	85.6854	999.023	85.7805	999.023	85.0347	999.023	85.2329	999.023	84.1486	999.023	84.446	999.023	83.1396	999.023	83.4841	999.023	82.1264	999.023	82.4735	999.023	81.0888	999.023	81.473	999.023	79.8309	999.023	80.3343	999.023	78.2127	999.023	78.8021	999.023	76.7009	999.023	76.9272	999.023	76.4785	999.023	75.6799	999.023	77.1529	999.023	75.8593	999.023	77.0446	999.023	76.1372	999.023	75.1293	999.023	75.155	999.023	70.8919	999.023	72.2725	999.023	69.0777	999.023	68.9937	999.023	72.3395	999.023	71.1384	999.023	73.1763
1,034.18	85.9135	1,034.18	85.72	1,034.18	85.8603	1,034.18	85.2879	1,034.18	85.5538	1,034.18	84.6432	1,034.18	84.9855	1,034.18	83.8483	1,034.18	84.17	1,034.18	82.9994	1,034.18	83.1878	1,034.18	82.158	1,034.18	82.1795	1,034.18	81.2385	1,034.18	81.2068	1,034.18	80.0021	1,034.18	80.0965	1,034.18	78.2618	1,034.18	78.5464	1,034.18	76.4224	1,034.18	76.5562	1,034.18	75.8641	1,034.18	75.1322	1,034.18	76.4564	1,034.18	75.2841	1,034.18	76.3338	1,034.18	75.6349	1,034.18	74.3287	1,034.18	74.6492	1,034.18	69.6693	1,034.18	71.3903	1,034.18	68.199	1,034.18	67.4336	1,034.18	72.3387	1,034.18	70.9899	1,034.18	73.3547
1,072.27	85.7904	1,072.27	85.6098	1,072.27	85.7019	1,072.27	85.1554	1,072.27	85.3556	1,072.27	84.4574	1,072.27	84.766	1,072.27	83.607	1,072.27	83.9719	1,072.27	82.722	1,072.27	83.0583	1,072.27	81.814	1,072.27	82.124	1,072.27	80.6903	1,072.27	81.1658	1,072.27	79.0574	1,072.27	79.9944	1,072.27	76.8542	1,072.27	78.3393	1,072.27	75.0833	1,072.27	76.1966	1,072.27	75.2982	1,072.27	74.6498	1,072.27	76.0902	1,072.27	75.0768	1,072.27	75.6914	1,072.27	75.863	1,072.27	73.4109	1,072.27	75.147	1,072.27	69.4975	1,072.27	71.9067	1,072.27	70.0468	1,072.27	67.4213	1,072.27	73.0997	1,072.27	70.9805	1,072.27	73.5886
1,110.35	85.6403	1,110.35	85.3566	1,110.35	85.6559	1,110.35	84.8392	1,110.35	85.3506	1,110.35	84.0923	1,110.35	84.6927	1,110.35	83.1354	1,110.35	83.718	1,110.35	82.0757	1,110.35	82.5702	1,110.35	81.074	1,110.35	81.4733	1,110.35	80.1047	1,110.35	80.5419	1,110.35	78.8066	1,110.35	79.5809	1,110.35	76.7293	1,110.35	78.1907	1,110.35	74.1362	1,110.35	76.1221	1,110.35	73.6176	1,110.35	74.1257	1,110.35	75.184	1,110.35	74.2153	1,110.35	75.6092	1,110.35	75.2231	1,110.35	73.5492	1,110.35	74.8108	1,110.35	68.0821	1,110.35	71.8257	1,110.35	69.4594	1,110.35	66.5544	1,110.35	73.709	1,110.35	70.5763	1,110.35	74.0035
1,148.44	85.7081	1,148.44	85.4446	1,148.44	85.6624	1,148.44	84.8601	1,148.44	85.3177	1,148.44	83.9548	1,148.44	84.6706	1,148.44	82.7843	1,148.44	83.7196	1,148.44	81.544	1,148.44	82.5396	1,148.44	80.5375	1,148.44	81.3697	1,148.44	79.8169	1,148.44	80.4872	1,148.44	78.9456	1,148.44	79.7974	1,148.44	77.3356	1,148.44	78.7712	1,148.44	74.7519	1,148.44	76.8706	1,148.44	72.7116	1,148.44	74.1618	1,148.44	73.3972	1,148.44	72.6643	1,148.44	73.8343	1,148.44	73.2094	1,148.44	71.5797	1,148.44	72.7936	1,148.44	65.4962	1,148.44	69.7156	1,148.44	69.3325	1,148.44	66.3143	1,148.44	73.6469	1,148.44	71.2168	1,148.44	74.0948
1,189.45	85.7444	1,189.45	85.5339	1,189.45	85.6957	1,189.45	85.0528	1,189.45	85.4025	1,189.45	84.2819	1,189.45	84.8715	1,189.45	83.2092	1,189.45	84.0855	1,189.45	81.9057	1,189.45	83.0377	1,189.45	80.5963	1,189.45	81.8195	1,189.45	79.4957	1,189.45	80.6472	1,189.45	78.4243	1,189.45	79.6161	1,189.45	76.8676	1,189.45	78.4156	1,189.45	74.6993	1,189.45	76.637	1,189.45	73.4717	1,189.45	74.5961	1,189.45	74.1852	1,189.45	73.8441	1,189.45	74.1782	1,189.45	74.1348	1,189.45	71.3815	1,189.45	73.1461	1,189.45	62.1326	1,189.45	68.8147	1,189.45	66.2209	1,189.45	60.989	1,189.45	71.9371	1,189.45	69.6029	1,189.45	72.7312
1,230.47	85.6032	1,230.47	85.4299	1,230.47	85.5488	1,230.47	85.0163	1,230.47	85.2652	1,230.47	84.3179	1,230.47	84.7466	1,230.47	83.2871	1,230.47	83.9675	1,230.47	81.9631	1,230.47	82.9008	1,230.47	80.5554	1,230.47	81.6128	1,230.47	79.3171	1,230.47	80.3342	1,230.47	78.1333	1,230.47	79.245	1,230.47	76.4816	1,230.47	78.1283	1,230.47	74.2698	1,230.47	76.6239	1,230.47	73.4037	1,230.47	75.0336	1,230.47	74.5714	1,230.47	74.6615	1,230.47	74.7867	1,230.47	75.1675	1,230.47	72.2645	1,230.47	74.4193	1,230.47	63.7406	1,230.47	70.4709	1,230.47	65.2328	1,230.47	61.1365	1,230.47	71.7757	1,230.47	69.3943	1,230.47	72.7334
1,274.41	85.3112	1,274.41	85.121	1,274.41	85.2705	1,274.41	84.7214	1,274.41	84.9839	1,274.41	84.0995	1,274.41	84.4384	1,274.41	83.1884	1,274.41	83.5929	1,274.41	81.9491	1,274.41	82.4083	1,274.41	80.5592	1,274.41	80.9827	1,274.41	79.444	1,274.41	79.6575	1,274.41	78.6363	1,274.41	78.6887	1,274.41	77.315	1,274.41	77.6989	1,274.41	74.5051	1,274.41	75.981	1,274.41	71.2842	1,274.41	73.5562	1,274.41	73.0291	1,274.41	73.1804	1,274.41	74.7428	1,274.41	74.8527	1,274.41	73.2613	1,274.41	74.8378	1,274.41	66.1021	1,274.41	71.4893	1,274.41	63.4495	1,274.41	62.7545	1,274.41	71.5569	1,274.41	68.8164	1,274.41	72.5586
1,318.36	84.8293	1,318.36	84.6839	1,318.36	84.7522	1,318.36	84.3307	1,318.36	84.4563	1,318.36	83.7702	1,318.36	83.9401	1,318.36	82.9459	1,318.36	83.1529	1,318.36	81.7958	1,318.36	82.016	1,318.36	80.4425	1,318.36	80.5565	1,318.36	79.3148	1,318.36	79.0703	1,318.36	78.6222	1,318.36	77.9618	1,318.36	77.7097	1,318.36	77.0714	1,318.36	75.6199	1,318.36	75.6544	1,318.36	72.2578	1,318.36	73.4456	1,318.36	71.5899	1,318.36	72.3645	1,318.36	73.3097	1,318.36	73.2693	1,318.36	72.5167	1,318.36	72.8763	1,318.36	66.5576	1,318.36	68.9089	1,318.36	60.9907	1,318.36	58.1642	1,318.36	70.3977	1,318.36	68.2425	1,318.36	71.7452
1,365.23	84.2184	1,365.23	84.0814	1,365.23	84.1029	1,365.23	83.7297	1,365.23	83.7086	1,365.23	83.1525	1,365.23	83.0613	1,365.23	82.2826	1,365.23	82.1916	1,365.23	81.0697	1,365.23	81.064	1,365.23	79.6208	1,365.23	79.6455	1,365.23	78.2855	1,365.23	78.1399	1,365.23	77.3256	1,365.23	77.0442	1,365.23	76.3306	1,365.23	76.3433	1,365.23	74.5439	1,365.23	75.0957	1,365.23	72.1238	1,365.23	72.5824	1,365.23	71.9287	1,365.23	70.354	1,365.23	73.3762	1,365.23	71.3548	1,365.23	72.9182	1,365.23	72.0343	1,365.23	68.7201	1,365.23	69.8063	1,365.23	56.6381	1,365.23	60.5998	1,365.23	66.2905	1,365.23	62.2837	1,365.23	68.1563
1,415.04	83.8981	1,415.04	83.6836	1,415.04	83.8224	1,415.04	83.2267	1,415.04	83.4432	1,415.04	82.5547	1,415.04	82.8202	1,415.04	81.6466	1,415.04	82.0191	1,415.04	80.452	1,415.04	80.9849	1,415.04	78.9999	1,415.04	79.5717	1,415.04	77.5405	1,415.04	77.8218	1,415.04	76.3797	1,415.04	76.2923	1,415.04	75.282	1,415.04	75.4171	1,415.04	73.5929	1,415.04	74.3368	1,415.04	71.7052	1,415.04	72.0634	1,415.04	71.9672	1,415.04	69.781	1,415.04	72.9497	1,415.04	71.0076	1,415.04	71.8444	1,415.04	72.2524	1,415.04	67.1322	1,415.04	70.4518	1,415.04	61.7421	1,415.04	62.8	1,415.04	67.5119	1,415.04	63.6625	1,415.04	68.5928
1,464.84	84.1905	1,464.84	83.9447	1,464.84	84.1022	1,464.84	83.404	1,464.84	83.7225	1,464.84	82.6445	1,464.84	83.1412	1,464.84	81.6753	1,464.84	82.3949	1,464.84	80.3822	1,464.84	81.3997	1,464.84	78.678	1,464.84	80.0329	1,464.84	76.9064	1,464.84	78.3553	1,464.84	75.8727	1,464.84	76.8234	1,464.84	75.2693	1,464.84	75.8097	1,464.84	73.5717	1,464.84	74.6059	1,464.84	69.9308	1,464.84	72.1096	1,464.84	69.2942	1,464.84	69.3923	1,464.84	72.0954	1,464.84	71.2599	1,464.84	71.971	1,464.84	73.0615	1,464.84	67.5556	1,464.84	71.7388	1,464.84	61.9171	1,464.84	65.3466	1,464.84	68.496	1,464.84	63.6392	1,464.84	69.2604
1,514.65	84.2584	1,514.65	84.0618	1,514.65	84.1822	1,514.65	83.6064	1,514.65	83.8645	1,514.65	82.9562	1,514.65	83.356	1,514.65	82.1251	1,514.65	82.6798	1,514.65	80.9584	1,514.65	81.7503	1,514.65	79.2458	1,514.65	80.4019	1,514.65	77.1504	1,514.65	78.6125	1,514.65	75.7095	1,514.65	76.8618	1,514.65	75.2981	1,514.65	75.8004	1,514.65	74.1366	1,514.65	74.7563	1,514.65	70.5132	1,514.65	72.3501	1,514.65	67.2959	1,514.65	69.0053	1,514.65	70.998	1,514.65	70.4932	1,514.65	71.9572	1,514.65	72.6543	1,514.65	68.3428	1,514.65	71.6987	1,514.65	60.1798	1,514.65	66.2553	1,514.65	67.7566	1,514.65	64.2475	1,514.65	69.0122
1,570.31	84.0284	1,570.31	83.8392	1,570.31	83.9578	1,570.31	83.3767	1,570.31	83.5844	1,570.31	82.6997	1,570.31	82.884	1,570.31	81.9447	1,570.31	82.0391	1,570.31	81.0855	1,570.31	81.2671	1,570.31	79.8486	1,570.31	80.3657	1,570.31	78.0433	1,570.31	78.8201	1,570.31	76.1616	1,570.31	76.4956	1,570.31	75.3218	1,570.31	74.5518	1,570.31	74.795	1,570.31	74.0069	1,570.31	72.6312	1,570.31	73.0197	1,570.31	68.6323	1,570.31	69.9668	1,570.31	69.2177	1,570.31	68.5008	1,570.31	70.6551	1,570.31	71.4858	1,570.31	67.8674	1,570.31	71.3804	1,570.31	59.9241	1,570.31	66.1137	1,570.31	65.8746	1,570.31	63.293	1,570.31	67.6443
1,623.05	83.8598	1,623.05	83.6677	1,623.05	83.7242	1,623.05	83.1755	1,623.05	83.2398	1,623.05	82.453	1,623.05	82.4222	1,623.05	81.6023	1,623.05	81.4134	1,623.05	80.6366	1,623.05	80.4094	1,623.05	79.3811	1,623.05	79.3543	1,623.05	77.6367	1,623.05	77.888	1,623.05	75.7066	1,623.05	75.8591	1,623.05	74.6397	1,623.05	73.9781	1,623.05	74.0802	1,623.05	73.1296	1,623.05	72.2777	1,623.05	72.1964	1,623.05	69.5639	1,623.05	69.589	1,623.05	70.7801	1,623.05	68.0167	1,623.05	72.214	1,623.05	70.4259	1,623.05	70.0406	1,623.05	70.3968	1,623.05	62.9093	1,623.05	65.3751	1,623.05	65.9132	1,623.05	61.5542	1,623.05	67.3464
1,681.64	83.7657	1,681.64	83.5727	1,681.64	83.6529	1,681.64	82.9997	1,681.64	83.2533	1,681.64	82.0783	1,681.64	82.5207	1,681.64	81.0118	1,681.64	81.4936	1,681.64	80.008	1,681.64	80.3333	1,681.64	78.957	1,681.64	79.1242	1,681.64	77.4537	1,681.64	77.7105	1,681.64	75.3783	1,681.64	75.9441	1,681.64	73.5607	1,681.64	74.1295	1,681.64	72.6336	1,681.64	72.9086	1,681.64	71.3188	1,681.64	71.5429	1,681.64	69.2156	1,681.64	68.344	1,681.64	69.7411	1,681.64	65.6502	1,681.64	70.9865	1,681.64	68.846	1,681.64	69.234	1,681.64	70.0334	1,681.64	64.6506	1,681.64	66.6247	1,681.64	66.1767	1,681.64	61.3197	1,681.64	66.566
1,740.23	84.2289	1,740.23	84.0094	1,740.23	84.1776	1,740.23	83.4364	1,740.23	83.828	1,740.23	82.5001	1,740.23	83.0912	1,740.23	81.347	1,740.23	82.0384	1,740.23	80.1198	1,740.23	80.9289	1,740.23	78.7561	1,740.23	79.9112	1,740.23	77.0437	1,740.23	78.7728	1,740.23	75.0182	1,740.23	77.2028	1,740.23	73.38	1,740.23	75.2889	1,740.23	72.4659	1,740.23	73.6466	1,740.23	70.8549	1,740.23	72.1631	1,740.23	67.9013	1,740.23	69.6008	1,740.23	68.4639	1,740.23	67.2254	1,740.23	70.2742	1,740.23	69.567	1,740.23	68.7281	1,740.23	70.769	1,740.23	64.0839	1,740.23	68.3175	1,740.23	66.1591	1,740.23	65.1985	1,740.23	67.379
1,801.76	84.3372	1,801.76	84.2018	1,801.76	84.2591	1,801.76	83.8114	1,801.76	83.8953	1,801.76	83.0936	1,801.76	83.2021	1,801.76	82.0659	1,801.76	82.2616	1,801.76	80.8589	1,801.76	81.1424	1,801.76	79.5423	1,801.76	79.8241	1,801.76	77.927	1,801.76	78.3479	1,801.76	75.9072	1,801.76	76.8878	1,801.76	74.0676	1,801.76	75.5539	1,801.76	72.9626	1,801.76	74.287	1,801.76	71.3401	1,801.76	72.724	1,801.76	68.1705	1,801.76	70.152	1,801.76	67.781	1,801.76	67.5095	1,801.76	69.5554	1,801.76	69.0041	1,801.76	68.127	1,801.76	70.0269	1,801.76	64.1938	1,801.76	67.276	1,801.76	66.9596	1,801.76	64.9193	1,801.76	68.074
1,866.21	84.1342	1,866.21	83.935	1,866.21	84.0743	1,866.21	83.6129	1,866.21	83.6393	1,866.21	83.1142	1,866.21	82.8227	1,866.21	82.2586	1,866.21	81.6724	1,866.21	81.0141	1,866.21	80.3335	1,866.21	79.5984	1,866.21	79.0253	1,866.21	78.2238	1,866.21	77.7437	1,866.21	76.6979	1,866.21	76.1674	1,866.21	74.8661	1,866.21	74.2208	1,866.21	73.3471	1,866.21	72.6432	1,866.21	71.9108	1,866.21	71.6224	1,866.21	68.832	1,866.21	69.8116	1,866.21	67.946	1,866.21	67.2791	1,866.21	71.0255	1,866.21	68.9176	1,866.21	70.6646	1,866.21	70.447	1,866.21	67.0456	1,866.21	67.6512	1,866.21	67.9892	1,866.21	64.3324	1,866.21	68.2142
1,930.66	83.2169	1,930.66	83.2976	1,930.66	82.8518	1,930.66	82.8154	1,930.66	82.5479	1,930.66	81.8762	1,930.66	82.2268	1,930.66	80.7803	1,930.66	81.4919	1,930.66	79.7408	1,930.66	80.1427	1,930.66	78.6735	1,930.66	78.4817	1,930.66	77.3605	1,930.66	76.9614	1,930.66	75.8196	1,930.66	75.3331	1,930.66	74.4053	1,930.66	73.1006	1,930.66	73.4402	1,930.66	71.2238	1,930.66	72.4172	1,930.66	70.8816	1,930.66	70.283	1,930.66	69.8775	1,930.66	68.4839	1,930.66	66.6903	1,930.66	70.0401	1,930.66	66.8204	1,930.66	69.7644	1,930.66	68.7425	1,930.66	67.9645	1,930.66	67.2038	1,930.66	70.5043	1,930.66	65.8931	1,930.66	70.0119
2,000.98	84.2253	2,000.98	84.0343	2,000.98	84.1254	2,000.98	83.4943	2,000.98	83.9085	2,000.98	82.6293	2,000.98	83.5074	2,000.98	81.3977	2,000.98	82.6826	2,000.98	79.9138	2,000.98	81.4877	2,000.98	78.4562	2,000.98	80.2469	2,000.98	76.9853	2,000.98	79.0121	2,000.98	75.1676	2,000.98	77.4293	2,000.98	73.4097	2,000.98	75.3032	2,000.98	72.7717	2,000.98	73.1856	2,000.98	71.8772	2,000.98	71.8159	2,000.98	69.0128	2,000.98	70.8151	2,000.98	67.9714	2,000.98	69.2416	2,000.98	69.5256	2,000.98	68.695	2,000.98	67.605	2,000.98	69.8122	2,000.98	64.092	2,000.98	67.6806	2,000.98	69.0457	2,000.98	64.9741	2,000.98	69.5867
2,071.29	84.9101	2,071.29	84.7444	2,071.29	84.8604	2,071.29	84.4521	2,071.29	84.5135	2,071.29	83.8674	2,071.29	83.9348	2,071.29	82.7891	2,071.29	83.0903	2,071.29	81.2892	2,071.29	81.8822	2,071.29	79.6957	2,071.29	80.4757	2,071.29	78.2312	2,071.29	79.1544	2,071.29	76.6498	2,071.29	77.7667	2,071.29	74.6506	2,071.29	75.9398	2,071.29	72.6269	2,071.29	73.9384	2,071.29	71.116	2,071.29	72.4778	2,071.29	69.3333	2,071.29	71.2673	2,071.29	68.258	2,071.29	70.1406	2,071.29	69.9518	2,071.29	70.7347	2,071.29	69.3401	2,071.29	70.9969	2,071.29	66.2022	2,071.29	68.7226	2,071.29	69.8857	2,071.29	68.1903	2,071.29	70.9756
2,144.53	84.4934	2,144.53	84.5928	2,144.53	84.1944	2,144.53	84.2155	2,144.53	83.8544	2,144.53	83.476	2,144.53	83.3156	2,144.53	82.5896	2,144.53	82.4576	2,144.53	81.4507	2,144.53	81.3301	2,144.53	80.0476	2,144.53	80.0019	2,144.53	78.5423	2,144.53	78.5563	2,144.53	76.8605	2,144.53	76.9299	2,144.53	74.957	2,144.53	74.8444	2,144.53	73.472	2,144.53	72.6977	2,144.53	72.6399	2,144.53	71.7848	2,144.53	70.9982	2,144.53	70.6657	2,144.53	69.1151	2,144.53	67.655	2,144.53	70.2978	2,144.53	67.3877	2,144.53	69.4616	2,144.53	67.8734	2,144.53	64.2557	2,144.53	64.1114	2,144.53	68.9103	2,144.53	66.8468	2,144.53	70.8774
2,217.77	83.5891	2,217.77	83.2	2,217.77	83.688	2,217.77	82.8051	2,217.77	83.2911	2,217.77	82.4121	2,217.77	82.6925	2,217.77	81.818	2,217.77	82.1809	2,217.77	80.8104	2,217.77	81.3372	2,217.77	79.3395	2,217.77	79.729	2,217.77	77.6695	2,217.77	77.7544	2,217.77	76.2976	2,217.77	76.3915	2,217.77	74.9768	2,217.77	75.4921	2,217.77	73.2591	2,217.77	73.639	2,217.77	72.189	2,217.77	70.9468	2,217.77	71.1242	2,217.77	69.6204	2,217.77	68.2248	2,217.77	68.3619	2,217.77	69.9502	2,217.77	68.5317	2,217.77	71.3725	2,217.77	70.9851	2,217.77	67.8164	2,217.77	68.3212	2,217.77	69.8016	2,217.77	62.7926	2,217.77	71.0633
2,296.88	84.3315	2,296.88	84.0615	2,296.88	84.5089	2,296.88	83.6342	2,296.88	84.4468	2,296.88	83.0014	2,296.88	84.0875	2,296.88	82.111	2,296.88	83.42	2,296.88	80.8696	2,296.88	82.3612	2,296.88	79.5056	2,296.88	81.241	2,296.88	78.0158	2,296.88	80.3483	2,296.88	76.1274	2,296.88	78.9507	2,296.88	74.3623	2,296.88	76.5493	2,296.88	72.9508	2,296.88	74.7698	2,296.88	71.1613	2,296.88	73.9849	2,296.88	70.7777	2,296.88	71.7235	2,296.88	69.791	2,296.88	69.4427	2,296.88	69.3143	2,296.88	68.2192	2,296.88	71.0313	2,296.88	68.8119	2,296.88	67.0814	2,296.88	70.1209	2,296.88	67.9009	2,296.88	65.691	2,296.88	68.5729
2,378.91	85.0822	2,378.91	84.9876	2,378.91	84.966	2,378.91	84.4777	2,378.91	84.7447	2,378.91	83.7145	2,378.91	84.3191	2,378.91	82.937	2,378.91	83.6189	2,378.91	81.961	2,378.91	82.5974	2,378.91	80.5711	2,378.91	81.2355	2,378.91	78.8438	2,378.91	79.5709	2,378.91	77.0199	2,378.91	77.7024	2,378.91	75.478	2,378.91	76.0512	2,378.91	73.5916	2,378.91	74.9099	2,378.91	70.2063	2,378.91	73.6728	2,378.91	69.1454	2,378.91	72.0172	2,378.91	70.8953	2,378.91	70.6183	2,378.91	70.3391	2,378.91	70.3655	2,378.91	70.4452	2,378.91	71.0929	2,378.91	69.7712	2,378.91	69.3964	2,378.91	69.5779	2,378.91	67.9302	2,378.91	71.1141
2,460.94	84.3635	2,460.94	84.3297	2,460.94	84.2559	2,460.94	84.0346	2,460.94	84.0796	2,460.94	83.5292	2,460.94	83.6569	2,460.94	82.7331	2,460.94	83.0112	2,460.94	81.779	2,460.94	82.1397	2,460.94	80.7449	2,460.94	80.8995	2,460.94	79.2322	2,460.94	79.3131	2,460.94	77.1518	2,460.94	77.6563	2,460.94	75.2923	2,460.94	75.9068	2,460.94	74.0562	2,460.94	74.0691	2,460.94	72.6271	2,460.94	72.7585	2,460.94	71.2994	2,460.94	71.2232	2,460.94	70.3812	2,460.94	69.5245	2,460.94	70.4886	2,460.94	69.8745	2,460.94	71.5354	2,460.94	70.5348	2,460.94	69.1204	2,460.94	69.4917	2,460.94	71.058	2,460.94	65.7768	2,460.94	70.3439
2,548.83	84.0401	2,548.83	83.862	2,548.83	84.1428	2,548.83	83.5905	2,548.83	84.0446	2,548.83	83.0641	2,548.83	83.743	2,548.83	82.3833	2,548.83	83.208	2,548.83	81.5202	2,548.83	82.4153	2,548.83	80.2586	2,548.83	81.378	2,548.83	78.8229	2,548.83	80.0426	2,548.83	77.4391	2,548.83	78.4153	2,548.83	75.7389	2,548.83	76.6066	2,548.83	74.0128	2,548.83	74.8378	2,548.83	72.9378	2,548.83	73.3355	2,548.83	71.4834	2,548.83	72.1214	2,548.83	71.0254	2,548.83	70.3178	2,548.83	71.6367	2,548.83	68.8647	2,548.83	70.8381	2,548.83	70.1968	2,548.83	67.706	2,548.83	69.9294	2,548.83	68.4752	2,548.83	67.9654	2,548.83	70.4732
2,639.65	84.774	2,639.65	84.546	2,639.65	84.7059	2,639.65	84.1677	2,639.65	84.4433	2,639.65	83.7077	2,639.65	84.1484	2,639.65	83.122	2,639.65	83.666	2,639.65	82.2192	2,639.65	82.8915	2,639.65	80.9601	2,639.65	81.8255	2,639.65	79.5438	2,639.65	80.4866	2,639.65	77.9339	2,639.65	78.8918	2,639.65	76.0528	2,639.65	76.9617	2,639.65	74.2847	2,639.65	75.0927	2,639.65	72.4623	2,639.65	73.6719	2,639.65	70.6854	2,639.65	72.1092	2,639.65	70.5526	2,639.65	70.6926	2,639.65	70.7961	2,639.65	70.1463	2,639.65	71.6833	2,639.65	70.4871	2,639.65	69.7801	2,639.65	70.9344	2,639.65	70.7513	2,639.65	69.0145	2,639.65	71.6598
2,733.4	84.4273	2,733.4	84.334	2,733.4	84.3396	2,733.4	84.1689	2,733.4	84.0306	2,733.4	83.9452	2,733.4	83.7125	2,733.4	83.5161	2,733.4	83.4295	2,733.4	82.7612	2,733.4	82.773	2,733.4	81.7266	2,733.4	81.6489	2,733.4	80.3645	2,733.4	80.4329	2,733.4	78.7687	2,733.4	78.8254	2,733.4	76.9865	2,733.4	76.6457	2,733.4	75.0658	2,733.4	74.6065	2,733.4	73.3883	2,733.4	72.815	2,733.4	70.6819	2,733.4	70.8345	2,733.4	69.5663	2,733.4	69.7038	2,733.4	71.7673	2,733.4	68.9073	2,733.4	71.7585	2,733.4	69.7954	2,733.4	70.3104	2,733.4	70.7144	2,733.4	69.1799	2,733.4	69.2584	2,733.4	71.5186
2,827.15	84.5371	2,827.15	84.547	2,827.15	84.4617	2,827.15	84.3703	2,827.15	84.3493	2,827.15	84.0331	2,827.15	84.0628	2,827.15	83.6693	2,827.15	83.6406	2,827.15	83.1254	2,827.15	83.0767	2,827.15	82.1136	2,827.15	82.1545	2,827.15	80.6103	2,827.15	80.7912	2,827.15	78.771	2,827.15	79.3236	2,827.15	76.7624	2,827.15	77.7152	2,827.15	75.0243	2,827.15	75.5059	2,827.15	73.8016	2,827.15	73.9451	2,827.15	72.3186	2,827.15	72.7077	2,827.15	70.4227	2,827.15	70.6793	2,827.15	70.4723	2,827.15	71.368	2,827.15	71.7498	2,827.15	71.8752	2,827.15	69.9078	2,827.15	71.2625	2,827.15	71.6758	2,827.15	68.2495	2,827.15	71.6739
2,926.76	84.5173	2,926.76	84.6447	2,926.76	84.414	2,926.76	84.6005	2,926.76	84.2211	2,926.76	84.4231	2,926.76	83.8292	2,926.76	84.1356	2,926.76	83.4807	2,926.76	83.5928	2,926.76	83.0766	2,926.76	82.6531	2,926.76	82.3166	2,926.76	81.2222	2,926.76	81.1488	2,926.76	79.4794	2,926.76	79.7216	2,926.76	77.4502	2,926.76	77.9897	2,926.76	75.556	2,926.76	75.8914	2,926.76	74.6085	2,926.76	73.9877	2,926.76	73.0085	2,926.76	72.3261	2,926.76	70.6519	2,926.76	70.717	2,926.76	70.4221	2,926.76	69.1029	2,926.76	71.626	2,926.76	70.4689	2,926.76	69.8679	2,926.76	71.9985	2,926.76	66.9586	2,926.76	67.1002	2,926.76	70.5078
3,032.23	84.3534	3,032.23	84.2572	3,032.23	84.2212	3,032.23	84.309	3,032.23	84.0336	3,032.23	84.2511	3,032.23	84.1752	3,032.23	83.9263	3,032.23	84.0304	3,032.23	83.3567	3,032.23	83.5239	3,032.23	82.3962	3,032.23	82.9093	3,032.23	80.9387	3,032.23	81.587	3,032.23	79.2993	3,032.23	79.7921	3,032.23	77.227	3,032.23	78.0884	3,032.23	74.7069	3,032.23	75.9026	3,032.23	73.7069	3,032.23	73.9352	3,032.23	73.3822	3,032.23	73.3305	3,032.23	72.7592	3,032.23	72.2151	3,032.23	72.0531	3,032.23	71.5758	3,032.23	71.3466	3,032.23	70.2718	3,032.23	70.3327	3,032.23	70.6066	3,032.23	67.9555	3,032.23	68.5799	3,032.23	68.5848
3,137.7	84.3189	3,137.7	84.2938	3,137.7	84.2193	3,137.7	84.3208	3,137.7	84.1632	3,137.7	84.4282	3,137.7	84.3149	3,137.7	84.4168	3,137.7	84.2927	3,137.7	83.8651	3,137.7	84.0546	3,137.7	82.7097	3,137.7	83.3693	3,137.7	81.1949	3,137.7	82.0987	3,137.7	79.5217	3,137.7	80.7034	3,137.7	77.3792	3,137.7	79.1164	3,137.7	74.7672	3,137.7	76.9642	3,137.7	72.6415	3,137.7	74.6544	3,137.7	71.7358	3,137.7	73.0736	3,137.7	70.4414	3,137.7	71.7942	3,137.7	70.9748	3,137.7	72.0362	3,137.7	71.7959	3,137.7	72.4943	3,137.7	70.4247	3,137.7	72.966	3,137.7	65.8198	3,137.7	68.2225	3,137.7	67.8505
3,249.02	84.1866	3,249.02	84.4125	3,249.02	84.1292	3,249.02	84.4527	3,249.02	84.2121	3,249.02	84.609	3,249.02	84.2498	3,249.02	84.4985	3,249.02	84.5094	3,249.02	83.8902	3,249.02	84.2842	3,249.02	82.8594	3,249.02	83.4969	3,249.02	81.4326	3,249.02	82.5952	3,249.02	79.6553	3,249.02	81.1175	3,249.02	77.8052	3,249.02	79.0673	3,249.02	75.7529	3,249.02	76.5801	3,249.02	73.8451	3,249.02	73.8843	3,249.02	71.6609	3,249.02	72.3099	3,249.02	70.9314	3,249.02	71.2781	3,249.02	71.8766	3,249.02	71.2968	3,249.02	72.2646	3,249.02	71.1669	3,249.02	72.0668	3,249.02	71.8357	3,249.02	67.7259	3,249.02	69.7851	3,249.02	68.8394
3,363.28	83.955	3,363.28	84.3524	3,363.28	83.9025	3,363.28	84.6926	3,363.28	84.0363	3,363.28	84.9249	3,363.28	84.2315	3,363.28	84.6056	3,363.28	84.4822	3,363.28	83.8259	3,363.28	84.0715	3,363.28	82.7602	3,363.28	83.3057	3,363.28	81.2197	3,363.28	81.9763	3,363.28	79.4333	3,363.28	79.9063	3,363.28	77.6689	3,363.28	78.0774	3,363.28	75.2815	3,363.28	76.4067	3,363.28	73.1582	3,363.28	73.7645	3,363.28	72.541	3,363.28	72.2154	3,363.28	71.5724	3,363.28	70.5445	3,363.28	71.4837	3,363.28	70.7788	3,363.28	71.9851	3,363.28	71.5095	3,363.28	72.4346	3,363.28	72.4159	3,363.28	68.9971	3,363.28	70.4634	3,363.28	68.0827
3,483.4	83.973	3,483.4	84.3712	3,483.4	83.9827	3,483.4	84.8327	3,483.4	84.5472	3,483.4	85.0116	3,483.4	85.2047	3,483.4	84.6943	3,483.4	85.2006	3,483.4	83.7954	3,483.4	84.86	3,483.4	82.3844	3,483.4	83.8882	3,483.4	80.8311	3,483.4	82.4746	3,483.4	78.8221	3,483.4	81.0279	3,483.4	76.8642	3,483.4	78.8953	3,483.4	75.0033	3,483.4	76.7791	3,483.4	71.8528	3,483.4	75.3463	3,483.4	70.5516	3,483.4	73.813	3,483.4	70.7314	3,483.4	71.165	3,483.4	71.1922	3,483.4	71.8908	3,483.4	70.6663	3,483.4	73.2953	3,483.4	72.9537	3,483.4	73.9153	3,483.4	68.0482	3,483.4	72.4198	3,483.4	69.1459
3,606.45	83.7999	3,606.45	84.3684	3,606.45	83.8551	3,606.45	84.9651	3,606.45	84.6148	3,606.45	85.15	3,606.45	84.8713	3,606.45	84.756	3,606.45	84.7284	3,606.45	83.8852	3,606.45	84.1527	3,606.45	82.5352	3,606.45	82.9083	3,606.45	80.7629	3,606.45	81.9042	3,606.45	78.8894	3,606.45	80.237	3,606.45	77.2764	3,606.45	77.8692	3,606.45	74.4383	3,606.45	75.5063	3,606.45	71.5745	3,606.45	72.7449	3,606.45	70.3947	3,606.45	71.1919	3,606.45	68.6716	3,606.45	71.0724	3,606.45	71.1242	3,606.45	69.7876	3,606.45	70.4868	3,606.45	70.6907	3,606.45	71.8465	3,606.45	71.3883	3,606.45	67.3039	3,606.45	71.3282	3,606.45	69.0985
3,732.42	83.8237	3,732.42	84.3797	3,732.42	84.0895	3,732.42	85.041	3,732.42	84.6465	3,732.42	84.9643	3,732.42	85.0487	3,732.42	84.2018	3,732.42	84.9884	3,732.42	83.1527	3,732.42	84.0783	3,732.42	81.9957	3,732.42	82.86	3,732.42	80.0819	3,732.42	81.1457	3,732.42	78.0389	3,732.42	79.1038	3,732.42	76.2229	3,732.42	77.3682	3,732.42	73.9052	3,732.42	75.867	3,732.42	71.4634	3,732.42	72.5931	3,732.42	70.2926	3,732.42	68.6368	3,732.42	68.0121	3,732.42	68.0194	3,732.42	70.8518	3,732.42	67.5722	3,732.42	70.6755	3,732.42	68.8429	3,732.42	70.9976	3,732.42	71.1608	3,732.42	66.3049	3,732.42	70.8045	3,732.42	67.1207
3,864.26	84.2679	3,864.26	84.8853	3,864.26	84.4966	3,864.26	85.4826	3,864.26	85.1156	3,864.26	85.2379	3,864.26	85.2484	3,864.26	84.1749	3,864.26	84.4733	3,864.26	82.6134	3,864.26	83.4931	3,864.26	81.1876	3,864.26	82.0329	3,864.26	80.0019	3,864.26	80.4974	3,864.26	77.5783	3,864.26	78.9112	3,864.26	74.669	3,864.26	76.75	3,864.26	73.4224	3,864.26	74.4494	3,864.26	69.5489	3,864.26	73.3455	3,864.26	67.5944	3,864.26	72.0747	3,864.26	66.1336	3,864.26	68.866	3,864.26	68.0255	3,864.26	67.3397	3,864.26	69.5134	3,864.26	70.5937	3,864.26	72.7161	3,864.26	71.2478	3,864.26	68.8619	3,864.26	70.4324	3,864.26	68.618
3,999.02	84.6406	3,999.02	85.3223	3,999.02	84.8066	3,999.02	85.6016	3,999.02	85.6054	3,999.02	84.8794	3,999.02	85.4308	3,999.02	83.6638	3,999.02	84.4128	3,999.02	82.4513	3,999.02	82.8984	3,999.02	80.8681	3,999.02	81.2374	3,999.02	78.7085	3,999.02	80.3233	3,999.02	76.856	3,999.02	79.0292	3,999.02	75.4811	3,999.02	77.2671	3,999.02	72.9175	3,999.02	74.9345	3,999.02	70.1837	3,999.02	71.938	3,999.02	69.6333	3,999.02	69.7497	3,999.02	67.3247	3,999.02	70.6765	3,999.02	68.299	3,999.02	67.5896	3,999.02	70.4184	3,999.02	68.0854	3,999.02	72.5001	3,999.02	70.5685	3,999.02	69.3144	3,999.02	70.7589	3,999.02	68.7682
4,139.65	84.5554	4,139.65	85.3635	4,139.65	84.7388	4,139.65	85.9142	4,139.65	85.4284	4,139.65	85.1082	4,139.65	85.6619	4,139.65	83.8139	4,139.65	84.6581	4,139.65	82.8992	4,139.65	83.1742	4,139.65	82.3654	4,139.65	82.4079	4,139.65	81.2889	4,139.65	81.2129	4,139.65	79.5042	4,139.65	79.5024	4,139.65	77.138	4,139.65	77.8278	4,139.65	75.5653	4,139.65	76.2343	4,139.65	72.1807	4,139.65	73.5848	4,139.65	69.8402	4,139.65	70.3022	4,139.65	67.4516	4,139.65	67.994	4,139.65	67.9802	4,139.65	68.0596	4,139.65	69.5886	4,139.65	69.7285	4,139.65	71.6645	4,139.65	71.284	4,139.65	66.8855	4,139.65	71.1868	4,139.65	67.7736
4,286.13	84.9566	4,286.13	85.5219	4,286.13	84.9364	4,286.13	86.0329	4,286.13	85.8121	4,286.13	85.6066	4,286.13	86.1305	4,286.13	84.573	4,286.13	85.3455	4,286.13	83.7342	4,286.13	84.6842	4,286.13	82.5243	4,286.13	83.8775	4,286.13	81.4061	4,286.13	83.1393	4,286.13	80.3126	4,286.13	82.0995	4,286.13	78.6516	4,286.13	79.9631	4,286.13	76.2238	4,286.13	77.3695	4,286.13	73.6749	4,286.13	75.4572	4,286.13	71.6831	4,286.13	71.5627	4,286.13	70.4659	4,286.13	69.7293	4,286.13	68.5939	4,286.13	64.8258	4,286.13	71.9217	4,286.13	69.0621	4,286.13	73.0728	4,286.13	72.4309	4,286.13	71.0221	4,286.13	73.1479	4,286.13	71.1923
4,438.48	85.4258	4,438.48	85.6752	4,438.48	85.5677	4,438.48	86.0583	4,438.48	85.8799	4,438.48	85.5754	4,438.48	85.8922	4,438.48	85.2238	4,438.48	85.4556	4,438.48	85.0933	4,438.48	84.8813	4,438.48	84.4976	4,438.48	84.631	4,438.48	83.1837	4,438.48	83.7605	4,438.48	81.5248	4,438.48	81.9381	4,438.48	79.2447	4,438.48	80.0572	4,438.48	76.5679	4,438.48	78.9406	4,438.48	73.6946	4,438.48	75.5859	4,438.48	71.0519	4,438.48	72.8293	4,438.48	67.6854	4,438.48	72.0419	4,438.48	68.0417	4,438.48	68.5593	4,438.48	71.5776	4,438.48	68.435	4,438.48	71.4192	4,438.48	71.9191	4,438.48	68.7511	4,438.48	71.3255	4,438.48	69.832
4,593.75	86.3051	4,593.75	85.6668	4,593.75	86.2423	4,593.75	85.8716	4,593.75	85.8381	4,593.75	85.8514	4,593.75	86.0012	4,593.75	85.5505	4,593.75	85.9299	4,593.75	85.0468	4,593.75	86.0252	4,593.75	84.4079	4,593.75	85.4515	4,593.75	83.2371	4,593.75	84.2945	4,593.75	81.4955	4,593.75	83.0757	4,593.75	79.0186	4,593.75	81.2887	4,593.75	77.1233	4,593.75	78.1265	4,593.75	74.2975	4,593.75	76.5528	4,593.75	72.1657	4,593.75	73.0205	4,593.75	71.3637	4,593.75	71.0302	4,593.75	67.467	4,593.75	68.3112	4,593.75	72.2419	4,593.75	69.431	4,593.75	72.9764	4,593.75	71.9532	4,593.75	66.4443	4,593.75	72.5726	4,593.75	67.7993
4,757.81	87.001	4,757.81	85.9508	4,757.81	86.5244	4,757.81	85.4154	4,757.81	85.8085	4,757.81	85.7883	4,757.81	85.5503	4,757.81	86.0139	4,757.81	85.7829	4,757.81	85.728	4,757.81	85.9329	4,757.81	84.3828	4,757.81	85.3086	4,757.81	82.9872	4,757.81	84.2753	4,757.81	81.2442	4,757.81	82.5268	4,757.81	78.942	4,757.81	80.0195	4,757.81	76.8017	4,757.81	78.5661	4,757.81	75.2124	4,757.81	76.1745	4,757.81	72.3171	4,757.81	74.0343	4,757.81	70.0857	4,757.81	72.6081	4,757.81	66.9382	4,757.81	69.3021	4,757.81	70.5841	4,757.81	69.0961	4,757.81	72.9708	4,757.81	71.7446	4,757.81	67.4396	4,757.81	70.8365	4,757.81	68.8665
4,924.8	87.0752	4,924.8	85.452	4,924.8	86.6944	4,924.8	84.7611	4,924.8	84.6376	4,924.8	84.9744	4,924.8	84.8528	4,924.8	85.5348	4,924.8	85.9307	4,924.8	85.1859	4,924.8	85.9356	4,924.8	84.0657	4,924.8	85.1055	4,924.8	82.1946	4,924.8	83.5229	4,924.8	80.0739	4,924.8	81.5306	4,924.8	77.6157	4,924.8	79.6012	4,924.8	75.4072	4,924.8	76.9801	4,924.8	72.7786	4,924.8	75.8647	4,924.8	70.5012	4,924.8	72.6972	4,924.8	70.2028	4,924.8	71.1701	4,924.8	68.1708	4,924.8	67.0293	4,924.8	70.1889	4,924.8	68.007	4,924.8	70.8338	4,924.8	70.0719	4,924.8	64.7269	4,924.8	70.863	4,924.8	65.2084
5,097.66	86.8504	5,097.66	84.4543	5,097.66	86.205	5,097.66	83.2732	5,097.66	84.1714	5,097.66	84.3674	5,097.66	84.2793	5,097.66	85.0062	5,097.66	85.217	5,097.66	84.5276	5,097.66	85.2897	5,097.66	82.7422	5,097.66	84.2574	5,097.66	81.1621	5,097.66	82.759	5,097.66	79.7354	5,097.66	80.7616	5,097.66	77.4027	5,097.66	78.2223	5,097.66	74.5857	5,097.66	77.014	5,097.66	72.813	5,097.66	74.9715	5,097.66	69.6057	5,097.66	72.4574	5,097.66	68.8338	5,097.66	70.8301	5,097.66	64.7839	5,097.66	68.8569	5,097.66	69.6841	5,097.66	67.6509	5,097.66	70.3184	5,097.66	70.2389	5,097.66	61.0793	5,097.66	69.7759	5,097.66	63.3877
5,279.3	86.2336	5,279.3	83.5909	5,279.3	85.7545	5,279.3	82.0065	5,279.3	82.6761	5,279.3	83.6655	5,279.3	82.9464	5,279.3	85.1629	5,279.3	84.8914	5,279.3	84.3715	5,279.3	84.6765	5,279.3	82.8691	5,279.3	83.4187	5,279.3	81.3938	5,279.3	81.6801	5,279.3	79.542	5,279.3	79.7613	5,279.3	77.1888	5,279.3	77.876	5,279.3	73.9844	5,279.3	75.2219	5,279.3	71.3818	5,279.3	73.1964	5,279.3	68.2721	5,279.3	70.0081	5,279.3	68.4531	5,279.3	69.0195	5,279.3	68.62	5,279.3	64.2743	5,279.3	69.2654	5,279.3	67.5872	5,279.3	71.1226	5,279.3	68.4725	5,279.3	62.1495	5,279.3	69.6461	5,279.3	64.6339
5,463.87	86.3254	5,463.87	83.6924	5,463.87	85.3182	5,463.87	81.8479	5,463.87	82.3	5,463.87	83.5339	5,463.87	82.6454	5,463.87	84.3069	5,463.87	84.4256	5,463.87	83.4498	5,463.87	84.1883	5,463.87	81.7625	5,463.87	82.8756	5,463.87	80.1135	5,463.87	81.2051	5,463.87	78.283	5,463.87	79.5579	5,463.87	76.699	5,463.87	77.4933	5,463.87	74.0814	5,463.87	75.6173	5,463.87	71.5513	5,463.87	72.9577	5,463.87	69.0309	5,463.87	70.9019	5,463.87	66.3996	5,463.87	68.5999	5,463.87	67.6798	5,463.87	65.5746	5,463.87	69.2615	5,463.87	63.2538	5,463.87	69.7311	5,463.87	70.0699	5,463.87	55.2428	5,463.87	69.578	5,463.87	59.2072
5,657.23	85.5643	5,657.23	83.3882	5,657.23	85.3944	5,657.23	81.6512	5,657.23	83.2032	5,657.23	82.9504	5,657.23	82.809	5,657.23	84.2395	5,657.23	84.0778	5,657.23	83.3089	5,657.23	83.504	5,657.23	82.2313	5,657.23	82.442	5,657.23	80.9928	5,657.23	80.9779	5,657.23	79.2208	5,657.23	79.4314	5,657.23	76.8542	5,657.23	77.6809	5,657.23	73.9812	5,657.23	75.3694	5,657.23	71.5427	5,657.23	73.1446	5,657.23	66.7569	5,657.23	69.7475	5,657.23	64.6166	5,657.23	65.9095	5,657.23	62.7645	5,657.23	65.3264	5,657.23	67.4539	5,657.23	65.0922	5,657.23	69.1348	5,657.23	68.0623	5,657.23	58.3807	5,657.23	68.5249	5,657.23	61.5774
5,856.45	86.0301	5,856.45	84.5555	5,856.45	85.4634	5,856.45	82.7756	5,856.45	84.0299	5,856.45	83.2838	5,856.45	82.6499	5,856.45	83.7809	5,856.45	83.3357	5,856.45	83.3602	5,856.45	83.425	5,856.45	82.0126	5,856.45	82.5007	5,856.45	80.5894	5,856.45	81.0698	5,856.45	77.9537	5,856.45	79.793	5,856.45	75.8535	5,856.45	77.5291	5,856.45	73.9696	5,856.45	75.1932	5,856.45	70.6598	5,856.45	72.1694	5,856.45	67.3304	5,856.45	70.7884	5,856.45	64.346	5,856.45	66.689	5,856.45	64.389	5,856.45	63.9265	5,856.45	68.1877	5,856.45	65.1252	5,856.45	69.1408	5,856.45	68.1658	5,856.45	60.1431	5,856.45	67.3227	5,856.45	55.8531
6,061.52	85.6137	6,061.52	85.5651	6,061.52	85.6441	6,061.52	84.1321	6,061.52	85.0853	6,061.52	82.7245	6,061.52	82.9841	6,061.52	83.1282	6,061.52	82.6194	6,061.52	83.0524	6,061.52	82.9851	6,061.52	82.4992	6,061.52	82.9517	6,061.52	81.0185	6,061.52	81.6731	6,061.52	79.0577	6,061.52	80.1559	6,061.52	76.9157	6,061.52	77.7617	6,061.52	74.0767	6,061.52	75.1341	6,061.52	72.3329	6,061.52	73.3622	6,061.52	68.324	6,061.52	70.2885	6,061.52	65.7177	6,061.52	66.6783	6,061.52	62.837	6,061.52	65.4158	6,061.52	65.8726	6,061.52	63.9168	6,061.52	68.9193	6,061.52	67.2849	6,061.52	60.0416	6,061.52	67.8331	6,061.52	57.1192
6,275.39	85.4682	6,275.39	86.5154	6,275.39	85.9138	6,275.39	84.6881	6,275.39	86.2661	6,275.39	82.1915	6,275.39	83.2182	6,275.39	82.9684	6,275.39	82.3765	6,275.39	83.4502	6,275.39	83.358	6,275.39	82.6701	6,275.39	83.2915	6,275.39	81.3938	6,275.39	82.0192	6,275.39	79.3009	6,275.39	80.1501	6,275.39	77.0201	6,275.39	77.8049	6,275.39	74.3612	6,275.39	76.1083	6,275.39	72.3199	6,275.39	73.6737	6,275.39	68.6364	6,275.39	70.8957	6,275.39	64.8925	6,275.39	65.8202	6,275.39	65.2524	6,275.39	63.6013	6,275.39	64.4343	6,275.39	63.5683	6,275.39	68.4116	6,275.39	67.1499	6,275.39	57.0972	6,275.39	67.5203	6,275.39	55.9613
6,498.05	85.6104	6,498.05	87.0713	6,498.05	86.2046	6,498.05	84.9627	6,498.05	86.7751	6,498.05	82.4215	6,498.05	83.496	6,498.05	83.3352	6,498.05	82.5764	6,498.05	84.2737	6,498.05	84.0844	6,498.05	83.3976	6,498.05	84.2463	6,498.05	81.062	6,498.05	82.4182	6,498.05	78.7399	6,498.05	80.4214	6,498.05	76.483	6,498.05	78.2222	6,498.05	72.5967	6,498.05	76.2909	6,498.05	71.2857	6,498.05	72.3809	6,498.05	68.7631	6,498.05	69.5935	6,498.05	64.5732	6,498.05	67.6203	6,498.05	64.3802	6,498.05	66.9416	6,498.05	65.41	6,498.05	63.2282	6,498.05	68.5695	6,498.05	66.1909	6,498.05	56.3191	6,498.05	67.7207	6,498.05	55.5253
6,726.56	85.5372	6,726.56	87.3721	6,726.56	86.2465	6,726.56	85.3442	6,726.56	86.8104	6,726.56	83.1187	6,726.56	83.2798	6,726.56	83.7181	6,726.56	82.9299	6,726.56	84.3093	6,726.56	84.2136	6,726.56	83.1046	6,726.56	83.9664	6,726.56	80.6308	6,726.56	82.1368	6,726.56	78.4669	6,726.56	79.7483	6,726.56	75.6111	6,726.56	77.0396	6,726.56	73.0782	6,726.56	74.7062	6,726.56	71.7851	6,726.56	71.7225	6,726.56	69.2316	6,726.56	70.552	6,726.56	66.1704	6,726.56	66.9098	6,726.56	64.0271	6,726.56	63.6426	6,726.56	63.406	6,726.56	62.5727	6,726.56	68.4929	6,726.56	65.0024	6,726.56	56.6947	6,726.56	67.3613	6,726.56	55.2201
6,963.87	85.497	6,963.87	86.9964	6,963.87	85.8195	6,963.87	85.191	6,963.87	86.5337	6,963.87	83.7201	6,963.87	83.8538	6,963.87	83.1937	6,963.87	83.2192	6,963.87	83.5538	6,963.87	84.0033	6,963.87	82.4556	6,963.87	83.7145	6,963.87	80.3605	6,963.87	81.69	6,963.87	78.6228	6,963.87	79.4259	6,963.87	75.8398	6,963.87	77.6463	6,963.87	72.4133	6,963.87	74.6433	6,963.87	70.1429	6,963.87	71.5987	6,963.87	67.5253	6,963.87	70.1285	6,963.87	63.516	6,963.87	65.0301	6,963.87	59.568	6,963.87	62.1195	6,963.87	60.7041	6,963.87	61.9328	6,963.87	66.405	6,963.87	61.6601	6,963.87	51.4541	6,963.87	66.0541	6,963.87	57.5129
7,209.96	84.9621	7,209.96	86.0374	7,209.96	84.9642	7,209.96	85.2717	7,209.96	85.6466	7,209.96	84.118	7,209.96	84.2885	7,209.96	82.706	7,209.96	83.2039	7,209.96	82.8564	7,209.96	83.0394	7,209.96	81.8031	7,209.96	82.9693	7,209.96	80.0672	7,209.96	81.0648	7,209.96	77.8503	7,209.96	78.5637	7,209.96	74.6807	7,209.96	76.508	7,209.96	70.7303	7,209.96	72.6239	7,209.96	68.5452	7,209.96	71.2125	7,209.96	66.2783	7,209.96	70.3274	7,209.96	64.7143	7,209.96	64.8754	7,209.96	53.924	7,209.96	60.6868	7,209.96	62.351	7,209.96	62.3773	7,209.96	66.722	7,209.96	56.1448	7,209.96	58.1253	7,209.96	65.7174	7,209.96	57.0818
7,464.84	84.9308	7,464.84	85.3262	7,464.84	84.6144	7,464.84	85.4248	7,464.84	84.9155	7,464.84	84.0595	7,464.84	84.8441	7,464.84	82.0378	7,464.84	83.3018	7,464.84	82.0802	7,464.84	82.6109	7,464.84	81.213	7,464.84	82.4114	7,464.84	78.9633	7,464.84	80.6404	7,464.84	76.1138	7,464.84	77.7607	7,464.84	74.034	7,464.84	76.099	7,464.84	70.6572	7,464.84	72.3566	7,464.84	68.8438	7,464.84	70.2442	7,464.84	65.953	7,464.84	68.7056	7,464.84	61.1872	7,464.84	62.9163	7,464.84	45.3044	7,464.84	62.142	7,464.84	63.5462	7,464.84	58.5755	7,464.84	65.408	7,464.84	54.1358	7,464.84	56.6582	7,464.84	65.6812	7,464.84	52.7116
7,728.52	85.177	7,728.52	85.0969	7,728.52	84.4392	7,728.52	85.5428	7,728.52	84.5903	7,728.52	83.9615	7,728.52	85.1976	7,728.52	82.0808	7,728.52	83.0717	7,728.52	82.3255	7,728.52	82.3709	7,728.52	81.4578	7,728.52	82.453	7,728.52	78.9397	7,728.52	80.1562	7,728.52	74.9198	7,728.52	77.0476	7,728.52	72.6124	7,728.52	75.0826	7,728.52	70.3197	7,728.52	71.3685	7,728.52	66.9295	7,728.52	68.7001	7,728.52	66.2524	7,728.52	67.5054	7,728.52	62.0707	7,728.52	59.3851	7,728.52	57.1977	7,728.52	62.7997	7,728.52	63.3694	7,728.52	47.8852	7,728.52	65.1753	7,728.52	53.4321	7,728.52	56.2684	7,728.52	65.5399	7,728.52	56.5258
8,000.98	85.5831	8,000.98	85.1913	8,000.98	84.8808	8,000.98	86.0178	8,000.98	85.0358	8,000.98	84.3897	8,000.98	85.7484	8,000.98	82.6253	8,000.98	83.1706	8,000.98	82.4975	8,000.98	82.5381	8,000.98	81.6437	8,000.98	82.163	8,000.98	79.8287	8,000.98	79.8979	8,000.98	75.2634	8,000.98	76.6866	8,000.98	72.4793	8,000.98	74.2439	8,000.98	69.3927	8,000.98	70.8531	8,000.98	64.9679	8,000.98	67.0512	8,000.98	66.9911	8,000.98	66.4865	8,000.98	60.0449	8,000.98	57.1797	8,000.98	60.3207	8,000.98	62.9028	8,000.98	63.4123	8,000.98	39.4396	8,000.98	63.0018	8,000.98	57.6397	8,000.98	55.0025	8,000.98	65.3963	8,000.98	55.6782
8,282.23	85.7153	8,282.23	85.4722	8,282.23	85.3749	8,282.23	86.3673	8,282.23	85.7024	8,282.23	84.5882	8,282.23	86.0746	8,282.23	83.3809	8,282.23	83.5466	8,282.23	82.8524	8,282.23	83.0501	8,282.23	81.4727	8,282.23	81.996	8,282.23	79.5367	8,282.23	80.3355	8,282.23	74.9142	8,282.23	77.2979	8,282.23	73.3467	8,282.23	74.2337	8,282.23	70.6695	8,282.23	72.1563	8,282.23	66.7084	8,282.23	67.4328	8,282.23	66.4882	8,282.23	65.903	8,282.23	59.3493	8,282.23	63.1244	8,282.23	62.5658	8,282.23	63.2706	8,282.23	63.1428	8,282.23	53.4124	8,282.23	59.4261	8,282.23	62.7014	8,282.23	54.3644	8,282.23	65.0659	8,282.23	47.315
8,575.2	85.8245	8,575.2	85.2921	8,575.2	85.843	8,575.2	85.9422	8,575.2	85.6798	8,575.2	84.2321	8,575.2	85.7018	8,575.2	83.5053	8,575.2	83.7638	8,575.2	82.5206	8,575.2	82.9159	8,575.2	81.2712	8,575.2	81.9721	8,575.2	79.1928	8,575.2	81.0252	8,575.2	75.7282	8,575.2	78.0704	8,575.2	72.3548	8,575.2	74.5255	8,575.2	71.3256	8,575.2	72.9292	8,575.2	67.7819	8,575.2	68.0679	8,575.2	65.1093	8,575.2	65.6616	8,575.2	59.9158	8,575.2	64.5189	8,575.2	61.8223	8,575.2	62.645	8,575.2	62.8375	8,575.2	54.5944	8,575.2	59.6125	8,575.2	62.7021	8,575.2	51.6915	8,575.2	65.4202	8,575.2	51.6853
8,876.95	85.3588	8,876.95	84.9918	8,876.95	85.8012	8,876.95	85.1699	8,876.95	85.2108	8,876.95	83.9366	8,876.95	84.9769	8,876.95	83.1405	8,876.95	83.6247	8,876.95	82.0039	8,876.95	82.0525	8,876.95	81.3094	8,876.95	81.6007	8,876.95	79.7829	8,876.95	81.1332	8,876.95	76.7515	8,876.95	78.4991	8,876.95	71.0582	8,876.95	74.6925	8,876.95	71.3755	8,876.95	72.0707	8,876.95	67.0104	8,876.95	68.8192	8,876.95	62.3643	8,876.95	64.91	8,876.95	60.7843	8,876.95	64.3772	8,876.95	62.2473	8,876.95	61.6841	8,876.95	61.467	8,876.95	57.1982	8,876.95	58.6965	8,876.95	62.4739	8,876.95	46.5164	8,876.95	63.8346	8,876.95	50.9477
9,190.43	85.3932	9,190.43	84.9895	9,190.43	85.4499	9,190.43	84.4291	9,190.43	84.6292	9,190.43	83.7205	9,190.43	84.4078	9,190.43	82.2724	9,190.43	82.8724	9,190.43	81.58	9,190.43	80.9916	9,190.43	81.1737	9,190.43	81.2462	9,190.43	79.3737	9,190.43	80.7091	9,190.43	76.1674	9,190.43	78.1232	9,190.43	71.01	9,190.43	74.368	9,190.43	70.6397	9,190.43	70.7593	9,190.43	66.0964	9,190.43	68.8652	9,190.43	61.689	9,190.43	64.7138	9,190.43	60.5251	9,190.43	63.8112	9,190.43	59.5867	9,190.43	59.073	9,190.43	61.6155	9,190.43	58.1501	9,190.43	55.7184	9,190.43	61.3864	9,190.43	32.2913	9,190.43	62.6665	9,190.43	50.0866
9,512.7	85.508	9,512.7	84.6894	9,512.7	85.4041	9,512.7	84.2098	9,512.7	84.3884	9,512.7	83.2726	9,512.7	84.021	9,512.7	81.8416	9,512.7	82.2039	9,512.7	81.1275	9,512.7	80.9796	9,512.7	80.2641	9,512.7	81.0568	9,512.7	77.1452	9,512.7	79.9905	9,512.7	75.3244	9,512.7	77.091	9,512.7	70.0969	9,512.7	73.3793	9,512.7	68.8232	9,512.7	69.7426	9,512.7	64.4708	9,512.7	68.2108	9,512.7	61.6958	9,512.7	64.3109	9,512.7	59.5118	9,512.7	63.7553	9,512.7	56.87	9,512.7	59.9551	9,512.7	58.7414	9,512.7	55.6606	9,512.7	54.8815	9,512.7	59.8783	9,512.7	49.002	9,512.7	60.2699	9,512.7	45.2027
9,849.61	85.567	9,849.61	84.7033	9,849.61	85.7926	9,849.61	84.6024	9,849.61	84.6969	9,849.61	83.2494	9,849.61	84.0984	9,849.61	81.8329	9,849.61	82.0882	9,849.61	80.723	9,849.61	81.3925	9,849.61	79.3718	9,849.61	80.5095	9,849.61	76.3418	9,849.61	79.1456	9,849.61	74.7181	9,849.61	76.164	9,849.61	67.2798	9,849.61	72.8851	9,849.61	67.0986	9,849.61	69.4007	9,849.61	62.7803	9,849.61	66.3197	9,849.61	61.6699	9,849.61	63.3314	9,849.61	56.6327	9,849.61	60.8439	9,849.61	58.9863	9,849.61	57.7476	9,849.61	56.291	9,849.61	52.1771	9,849.61	51.5315	9,849.61	57.2879	9,849.61	47.8952	9,849.61	59.444	9,849.61	34.9187
10,195.3	85.8618	10,195.3	85.0733	10,195.3	85.667	10,195.3	84.7505	10,195.3	84.8654	10,195.3	83.197	10,195.3	84.2588	10,195.3	82.0798	10,195.3	82.1956	10,195.3	80.6496	10,195.3	81.6449	10,195.3	79.2843	10,195.3	79.9951	10,195.3	77.0389	10,195.3	78.9292	10,195.3	74.8621	10,195.3	76.0779	10,195.3	67.806	10,195.3	72.5814	10,195.3	66.4091	10,195.3	67.7423	10,195.3	62.6299	10,195.3	65.8377	10,195.3	58.8354	10,195.3	63.804	10,195.3	59.1721	10,195.3	58.0653	10,195.3	58.6996	10,195.3	51.324	10,195.3	53.6869	10,195.3	54.9359	10,195.3	48.8004	10,195.3	57.4726	10,195.3	52.3803	10,195.3	58.811	10,195.3	43.6801
10,555.7	85.8221	10,555.7	84.9898	10,555.7	85.6545	10,555.7	84.5104	10,555.7	84.9514	10,555.7	83.0899	10,555.7	84.2436	10,555.7	82.2389	10,555.7	82.849	10,555.7	80.2694	10,555.7	81.7516	10,555.7	78.8806	10,555.7	80.0575	10,555.7	76.5112	10,555.7	79.2886	10,555.7	74.2796	10,555.7	76.0802	10,555.7	68.1352	10,555.7	72.655	10,555.7	65.3251	10,555.7	66.4031	10,555.7	61.5598	10,555.7	65.3709	10,555.7	56.0342	10,555.7	62.4429	10,555.7	59.2006	10,555.7	60.4609	10,555.7	56.793	10,555.7	53.3382	10,555.7	51.2185	10,555.7	56.1044	10,555.7	44.3914	10,555.7	57.3273	10,555.7	50.0476	10,555.7	57.3885	10,555.7	47.877
10,927.7	85.5388	10,927.7	84.973	10,927.7	85.5236	10,927.7	84.2407	10,927.7	84.9631	10,927.7	83.093	10,927.7	84.3587	10,927.7	81.7126	10,927.7	83.2105	10,927.7	80.2283	10,927.7	81.3173	10,927.7	78.1682	10,927.7	80.107	10,927.7	75.6896	10,927.7	78.8692	10,927.7	73.1559	10,927.7	75.3382	10,927.7	67.6182	10,927.7	71.9621	10,927.7	64.1832	10,927.7	65.8095	10,927.7	60.2919	10,927.7	64.5027	10,927.7	57.0053	10,927.7	60.8482	10,927.7	58.04	10,927.7	60.2746	10,927.7	53.2598	10,927.7	52.9905	10,927.7	49.5603	10,927.7	55.3366	10,927.7	45.9406	10,927.7	57.9318	10,927.7	51.75	10,927.7	57.2582	10,927.7	46.817
11,314.5	85.401	11,314.5	84.8504	11,314.5	85.2658	11,314.5	83.9298	11,314.5	84.5868	11,314.5	82.9149	11,314.5	84.2178	11,314.5	81.2241	11,314.5	82.7134	11,314.5	80.0776	11,314.5	80.651	11,314.5	77.2208	11,314.5	79.4231	11,314.5	75.5681	11,314.5	77.574	11,314.5	72.0095	11,314.5	74.1073	11,314.5	69.2729	11,314.5	71.4651	11,314.5	62.6509	11,314.5	65.5951	11,314.5	59.4268	11,314.5	63.9955	11,314.5	58.0258	11,314.5	61.6485	11,314.5	55.6172	11,314.5	59.4525	11,314.5	51.8943	11,314.5	51.2127	11,314.5	47.177	11,314.5	56.439	11,314.5	51.9197	11,314.5	56.0942	11,314.5	54.5168	11,314.5	54.2287	11,314.5	50.4165
11,712.9	84.9042	11,712.9	84.6129	11,712.9	84.7472	11,712.9	83.9364	11,712.9	84.3777	11,712.9	82.7627	11,712.9	83.7808	11,712.9	80.913	11,712.9	82.007	11,712.9	79.0495	11,712.9	80.1621	11,712.9	76.1721	11,712.9	78.1584	11,712.9	74.625	11,712.9	76.2842	11,712.9	71.4557	11,712.9	73.1154	11,712.9	69.3729	11,712.9	71.2101	11,712.9	61.0383	11,712.9	65.9423	11,712.9	60.3712	11,712.9	63.8851	11,712.9	56.9792	11,712.9	61.2223	11,712.9	53.4096	11,712.9	55.9712	11,712.9	52.1856	11,712.9	53.6338	11,712.9	35.1111	11,712.9	53.3878	11,712.9	50.0605	11,712.9	54.0911	11,712.9	54.8003	11,712.9	48.5079	11,712.9	51.2914
12,126	85.1263	12,126	84.7259	12,126	85.009	12,126	84.2635	12,126	84.4933	12,126	82.7327	12,126	83.7883	12,126	80.7099	12,126	81.6152	12,126	78.3388	12,126	79.8361	12,126	75.8515	12,126	77.1285	12,126	74.8177	12,126	75.913	12,126	71.6509	12,126	72.8876	12,126	68.7672	12,126	70.8881	12,126	59.7394	12,126	66.7928	12,126	61.9466	12,126	63.1886	12,126	55.2025	12,126	60.9225	12,126	55.227	12,126	56.8792	12,126	52.2305	12,126	54.6022	12,126	43.4692	12,126	54.2959	12,126	52.6538	12,126	55.0273	12,126	56.7974	12,126	51.4904	12,126	53.5143
12,553.7	85.3417	12,553.7	85.0222	12,553.7	85.0861	12,553.7	84.5358	12,553.7	84.9222	12,553.7	82.7079	12,553.7	83.9142	12,553.7	80.9919	12,553.7	81.6146	12,553.7	77.7412	12,553.7	79.8024	12,553.7	76.3982	12,553.7	77.226	12,553.7	74.8163	12,553.7	76.1669	12,553.7	71.8908	12,553.7	73.4332	12,553.7	68.9699	12,553.7	71.6087	12,553.7	59.6237	12,553.7	67.361	12,553.7	61.8108	12,553.7	62.5914	12,553.7	56.1351	12,553.7	60.9908	12,553.7	56.5185	12,553.7	57.3941	12,553.7	48.6822	12,553.7	54.6127	12,553.7	41.3013	12,553.7	54.4064	12,553.7	52.1582	12,553.7	54.6595	12,553.7	57.17	12,553.7	52.6078	12,553.7	50.737
12,996.1	85.53	12,996.1	85.0797	12,996.1	85.3698	12,996.1	84.4586	12,996.1	84.9981	12,996.1	82.6254	12,996.1	83.7359	12,996.1	80.2769	12,996.1	81.5607	12,996.1	77.4907	12,996.1	79.3174	12,996.1	76.6748	12,996.1	77.6063	12,996.1	74.3341	12,996.1	76.4713	12,996.1	71.812	12,996.1	73.9096	12,996.1	68.6653	12,996.1	72.1374	12,996.1	59.6926	12,996.1	66.6438	12,996.1	60.8879	12,996.1	62.3001	12,996.1	55.5795	12,996.1	61.4411	12,996.1	56.1145	12,996.1	56.759	12,996.1	47.0499	12,996.1	55.292	12,996.1	40.8527	12,996.1	55.3437	12,996.1	53.2309	12,996.1	55.3984	12,996.1	58.938	12,996.1	51.6195	12,996.1	50.1498
13,453.1	85.3635	13,453.1	85.1	13,453.1	85.1716	13,453.1	84.2965	13,453.1	84.775	13,453.1	82.5827	13,453.1	83.2906	13,453.1	79.9334	13,453.1	81.0477	13,453.1	78.4178	13,453.1	79.3726	13,453.1	76.8966	13,453.1	77.7458	13,453.1	74.6663	13,453.1	76.912	13,453.1	72.0359	13,453.1	74.0384	13,453.1	69.3006	13,453.1	72.2232	13,453.1	60.4237	13,453.1	67.2788	13,453.1	60.6441	13,453.1	61.2439	13,453.1	54.138	13,453.1	61.5964	13,453.1	55.8061	13,453.1	53.323	13,453.1	49.8138	13,453.1	55.5361	13,453.1	46.6637	13,453.1	53.1397	13,453.1	53.1499	13,453.1	53.9672	13,453.1	58.666	13,453.1	46.0212	13,453.1	50.4181
13,927.7	85.2413	13,927.7	84.7139	13,927.7	84.9037	13,927.7	83.7849	13,927.7	84.2844	13,927.7	81.8103	13,927.7	82.7066	13,927.7	79.8483	13,927.7	80.5821	13,927.7	78.585	13,927.7	79.5074	13,927.7	77.1002	13,927.7	77.8284	13,927.7	74.9684	13,927.7	77.1581	13,927.7	71.9026	13,927.7	73.7103	13,927.7	69.2954	13,927.7	71.8448	13,927.7	57.8904	13,927.7	66.6381	13,927.7	58.8315	13,927.7	59.2639	13,927.7	53.8714	13,927.7	61.5106	13,927.7	55.1133	13,927.7	49.5915	13,927.7	51.8366	13,927.7	54.234	13,927.7	46.5232	13,927.7	48.9589	13,927.7	52.3369	13,927.7	51.3372	13,927.7	57.7844	13,927.7	47.7639	13,927.7	50.4372
14,419.9	85.371	14,419.9	84.3009	14,419.9	85.1181	14,419.9	83.0564	14,419.9	84.0837	14,419.9	81.0374	14,419.9	82.1991	14,419.9	79.8421	14,419.9	80.3265	14,419.9	78.8026	14,419.9	79.5352	14,419.9	76.4146	14,419.9	78.0024	14,419.9	74.3614	14,419.9	76.4734	14,419.9	70.7331	14,419.9	72.8692	14,419.9	68.6213	14,419.9	70.9317	14,419.9	56.9993	14,419.9	65.3471	14,419.9	57.6694	14,419.9	56.7342	14,419.9	55.1607	14,419.9	59.4111	14,419.9	53.4994	14,419.9	47.2221	14,419.9	52.6309	14,419.9	53.2752	14,419.9	49.7158	14,419.9	47.2137	14,419.9	52.8162	14,419.9	47.0592	14,419.9	57.4287	14,419.9	43.4051	14,419.9	49.8634
14,929.7	85.8703	14,929.7	84.4837	14,929.7	85.3689	14,929.7	82.745	14,929.7	83.9429	14,929.7	81.1844	14,929.7	81.9455	14,929.7	80.2649	14,929.7	80.8644	14,929.7	79.0122	14,929.7	80.0782	14,929.7	75.6342	14,929.7	78.332	14,929.7	74.6724	14,929.7	75.9247	14,929.7	70.1121	14,929.7	72.9741	14,929.7	69.4949	14,929.7	70.4871	14,929.7	58.363	14,929.7	66.1679	14,929.7	56.0311	14,929.7	57.5574	14,929.7	54.5558	14,929.7	58.7535	14,929.7	54.8794	14,929.7	49.0205	14,929.7	54.1762	14,929.7	53.6156	14,929.7	51.4478	14,929.7	43.0243	14,929.7	51.5943	14,929.7	48.0142	14,929.7	56.9597	14,929.7	36.7219	14,929.7	50.2994
15,454.1	86.1536	15,454.1	84.5992	15,454.1	85.6708	15,454.1	82.9765	15,454.1	83.8417	15,454.1	81.8535	15,454.1	82.1459	15,454.1	80.5979	15,454.1	81.3421	15,454.1	78.4131	15,454.1	80.3073	15,454.1	75.5351	15,454.1	77.7958	15,454.1	74.0495	15,454.1	75.5816	15,454.1	69.1553	15,454.1	72.3966	15,454.1	70.447	15,454.1	70.7017	15,454.1	61.5635	15,454.1	66.479	15,454.1	57.0528	15,454.1	58.9054	15,454.1	52.9101	15,454.1	57.9554	15,454.1	54.1658	15,454.1	54.2905	15,454.1	53.7424	15,454.1	56.4748	15,454.1	52.6875	15,454.1	42.8068	15,454.1	50.2685	15,454.1	49.3672	15,454.1	56.4654	15,454.1	48.1764	15,454.1	53.6067
15,999	85.9418	15,999	84.4874	15,999	85.5868	15,999	83.5015	15,999	83.8961	15,999	82.4423	15,999	82.5406	15,999	80.6256	15,999	81.4803	15,999	77.653	15,999	79.9408	15,999	75.337	15,999	77.1594	15,999	73.217	15,999	75.2014	15,999	68.5579	15,999	72.0901	15,999	70.836	15,999	70.9838	15,999	63.2593	15,999	67.1608	15,999	59.0166	15,999	60.42	15,999	55.0873	15,999	56.584	15,999	56.4168	15,999	55.852	15,999	51.832	15,999	58.4243	15,999	54.0317	15,999	46.6587	15,999	52.2323	15,999	49.0956	15,999	58.5333	15,999	50.0431	15,999	55.6772
16,564.5	86.2508	16,564.5	85.1856	16,564.5	86.3116	16,564.5	84.4971	16,564.5	84.8575	16,564.5	82.9631	16,564.5	83.3286	16,564.5	80.4563	16,564.5	81.522	16,564.5	76.8861	16,564.5	79.5746	16,564.5	74.4719	16,564.5	76.3779	16,564.5	71.8357	16,564.5	74.3286	16,564.5	68.034	16,564.5	71.4225	16,564.5	69.4699	16,564.5	70.4718	16,564.5	62.5212	16,564.5	66.9529	16,564.5	57.9357	16,564.5	59.1747	16,564.5	56.8101	16,564.5	56.8098	16,564.5	56.7167	16,564.5	54.0313	16,564.5	48.0491	16,564.5	58.9335	16,564.5	51.5866	16,564.5	48.2077	16,564.5	54.1272	16,564.5	43.9919	16,564.5	59.9182	16,564.5	50.144	16,564.5	55.1609
17,147.5	86.3774	17,147.5	85.5117	17,147.5	86.6767	17,147.5	84.672	17,147.5	85.0091	17,147.5	82.754	17,147.5	83.4777	17,147.5	79.4836	17,147.5	81.1582	17,147.5	75.4821	17,147.5	78.8989	17,147.5	73.4227	17,147.5	75.1957	17,147.5	70.9463	17,147.5	73.9668	17,147.5	67.4281	17,147.5	70.9565	17,147.5	68.5993	17,147.5	69.7947	17,147.5	61.8488	17,147.5	66.6746	17,147.5	53.918	17,147.5	58.8125	17,147.5	58.829	17,147.5	56.8808	17,147.5	58.1212	17,147.5	53.2268	17,147.5	50.9655	17,147.5	58.2178	17,147.5	49.4824	17,147.5	45.0774	17,147.5	54.714	17,147.5	40.4515	17,147.5	61.9183	17,147.5	53.6695	17,147.5	55.1163
17,753.9	86.206	17,753.9	85.896	17,753.9	86.6692	17,753.9	85.3239	17,753.9	85.2176	17,753.9	83.2631	17,753.9	83.9029	17,753.9	80.3499	17,753.9	81.539	17,753.9	76.3371	17,753.9	79.5149	17,753.9	74.6112	17,753.9	76.8004	17,753.9	71.3953	17,753.9	74.5111	17,753.9	68.5472	17,753.9	71.7835	17,753.9	69.5061	17,753.9	69.905	17,753.9	63.0586	17,753.9	67.3639	17,753.9	47.6823	17,753.9	60.3064	17,753.9	60.3942	17,753.9	57.7878	17,753.9	60.2822	17,753.9	52.6	17,753.9	55.701	17,753.9	58.8526	17,753.9	47.2066	17,753.9	42.2066	17,753.9	56.6291	17,753.9	40.197	17,753.9	64.4918	17,753.9	55.6968	17,753.9	56.3898
18,377.9	86.2602	18,377.9	86.1545	18,377.9	86.8879	18,377.9	85.6883	18,377.9	85.6255	18,377.9	83.3436	18,377.9	84.3253	18,377.9	80.3337	18,377.9	82.0522	18,377.9	76.3829	18,377.9	80.19	18,377.9	73.5871	18,377.9	77.4874	18,377.9	70.3109	18,377.9	74.1915	18,377.9	67.2718	18,377.9	71.3157	18,377.9	69.2106	18,377.9	69.655	18,377.9	63.7944	18,377.9	66.8863	18,377.9	37.6489	18,377.9	60.2102	18,377.9	61.9134	18,377.9	56.453	18,377.9	60.7542	18,377.9	55.864	18,377.9	59.0901	18,377.9	60.831	18,377.9	47.0155	18,377.9	46.0165	18,377.9	59.0228	18,377.9	44.6885	18,377.9	65.7985	18,377.9	56.791	18,377.9	61.1948
19,028.3	87.1067	19,028.3	87.0094	19,028.3	87.7731	19,028.3	86.1208	19,028.3	86.4749	19,028.3	83.4081	19,028.3	85.2161	19,028.3	79.885	19,028.3	82.8463	19,028.3	75.6077	19,028.3	80.8328	19,028.3	72.7571	19,028.3	77.1394	19,028.3	69.1612	19,028.3	73.3046	19,028.3	63.6747	19,028.3	69.3512	19,028.3	69.8486	19,028.3	68.7523	19,028.3	65.6689	19,028.3	64.6725	19,028.3	50.513	19,028.3	60.6205	19,028.3	63.4216	19,028.3	55.3805	19,028.3	61.0293	19,028.3	59.951	19,028.3	61.3502	19,028.3	61.1216	19,028.3	50.4144	19,028.3	47.0706	19,028.3	59.6982	19,028.3	47.1116	19,028.3	67.271	19,028.3	58.697	19,028.3	62.4876
19,699.2	88.2956	19,699.2	87.8512	19,699.2	88.9687	19,699.2	86.3788	19,699.2	87.4707	19,699.2	83.2336	19,699.2	86.2664	19,699.2	79.2348	19,699.2	83.849	19,699.2	74.2454	19,699.2	81.7305	19,699.2	70.3568	19,699.2	76.4264	19,699.2	66.2934	19,699.2	71.9642	19,699.2	59.4154	19,699.2	66.9541	19,699.2	69.7284	19,699.2	68.2353	19,699.2	66.3253	19,699.2	62.9595	19,699.2	55.5697	19,699.2	62.2577	19,699.2	63.3943	19,699.2	54.632	19,699.2	61.4444	19,699.2	62.805	19,699.2	62.5014	19,699.2	61.0489	19,699.2	48.6749	19,699.2	42.7792	19,699.2	59.1963	19,699.2	51.3368	19,699.2	68.3272	19,699.2	60.2657	19,699.2	62.8951
19,998	88.634	19,998	88.0631	19,998	89.2952	19,998	86.2586	19,998	87.8464	19,998	82.5506	19,998	86.6641	19,998	78.9562	19,998	84.2448	19,998	73.4266	19,998	81.8763	19,998	67.9942	19,998	75.8495	19,998	62.9021	19,998	70.6265	19,998	55.7054	19,998	66.1541	19,998	69.4156	19,998	69.2478	19,998	67.1014	19,998	63.6745	19,998	56.7355	19,998	63.6315	19,998	61.3437	19,998	54.562	19,998	63.233	19,998	64.4685	19,998	62.7183	19,998	59.2628	19,998	46.2296	19,998	56.4448	19,998	60.9667	19,998	48.741	19,998	69.227	19,998	59.8829	19,998	64.0865
