"Early Reflections"											
"Floor Bounce"		"Ceiling Bounce"		"Front Wall Bounce"		"Side Wall Bounce"		"Rear Wall Bounce"		"Total Early Reflection"	
"Frequency [Hz]"	"Sound Pessure Level [dB]   /  [ 	0.2	V at 	1	m]"	"Frequency [Hz]"	"Sound Pessure Level [dB]   /  [ 	0.2	V at 	1	m]"	"Frequency [Hz]"	"Sound Pessure Level [dB]   /  [ 	0.2	V at 	1	m]"	"Frequency [Hz]"	"Sound Pessure Level [dB]   /  [ 	0.2	V at 	1	m]"	"Frequency [Hz]"	"Sound Pessure Level [dB]   /  [ 	0.2	V at 	1	m]"	"Frequency [Hz]"	"Sound Pessure Level [dB]   /  [ 	0.2	V at 	1	m]"
20.5078	50.6722	20.5078	50.2791	20.5078	49.7908	20.5078	50.7215	20.5078	53.9167	20.5078	50.9787
21.2402	53.6611	21.2402	51.7936	21.2402	52.336	21.2402	52.8979	21.2402	54.7295	21.2402	53.0014
21.9727	53.9357	21.9727	51.1793	21.9727	52.1957	21.9727	52.4731	21.9727	53.6892	21.9727	52.6313
22.7051	53.2226	22.7051	49.138	22.7051	51.0297	22.7051	51.0732	22.7051	51.548	22.7051	51.2562
23.4375	56.5898	23.4375	52.8031	23.4375	54.7147	23.4375	54.8797	23.4375	55.509	23.4375	54.9648
24.1699	57.6129	24.1699	53.7045	24.1699	55.7528	24.1699	55.792	24.1699	55.8566	24.1699	55.8583
25.6348	59.6904	25.6348	55.0117	25.6348	57.567	25.6348	57.5566	25.6348	57.5199	25.6348	57.6499
26.3672	61.9772	26.3672	57.8668	26.3672	60.1022	26.3672	60.1131	26.3672	60.05	26.3672	60.1688
27.0996	63.377	27.0996	59.4588	27.0996	61.5774	27.0996	61.597	27.0996	61.5094	27.0996	61.6405
27.832	64.781	27.832	60.7829	27.832	62.9847	27.832	62.9544	27.832	62.7731	27.832	63.0066
29.2969	67.913	29.2969	64.0242	29.2969	66.1968	29.2969	66.1102	29.2969	65.7801	29.2969	66.1635
30.0293	69.5691	30.0293	65.8913	30.0293	67.9373	30.0293	67.871	30.0293	67.609	30.0293	67.9157
31.4941	72.4531	31.4941	69.1147	31.4941	70.9699	31.4941	70.9029	31.4941	70.6363	31.4941	70.937
32.2266	73.8167	32.2266	70.5791	32.2266	72.3689	32.2266	72.3058	32.2266	72.0552	32.2266	72.3388
33.6914	76.3778	33.6914	73.2431	33.6914	74.9784	33.6914	74.8966	33.6914	74.6273	33.6914	74.9335
34.4238	77.7436	34.4238	74.653	34.4238	76.3769	34.4238	76.2853	34.4238	75.9781	34.4238	76.3188
35.8887	80.2654	35.8887	77.2828	35.8887	78.9535	35.8887	78.8467	35.8887	78.5125	35.8887	78.8806
37.3535	82.6976	37.3535	79.8364	37.3535	81.4429	37.3535	81.3329	37.3535	81.0055	37.3535	81.3653
38.8184	84.8603	38.8184	82.0959	38.8184	83.6548	38.8184	83.5328	38.8184	83.1889	38.8184	83.5658
39.5508	85.8622	39.5508	83.1514	39.5508	84.6818	39.5508	84.5587	39.5508	84.2184	39.5508	84.5911
41.0156	87.6063	41.0156	84.9675	41.0156	86.4665	41.0156	86.3261	41.0156	85.9593	41.0156	86.361
42.4805	89.0654	42.4805	86.5453	42.4805	87.976	42.4805	87.8413	42.4805	87.4892	42.4805	87.8729
43.9453	90.0236	43.9453	87.5472	43.9453	88.9623	43.9453	88.816	43.9453	88.438	43.9453	88.8479
45.4102	90.7515	45.4102	88.3519	45.4102	89.7266	45.4102	89.5778	45.4102	89.2006	45.4102	89.609
47.6074	91.3615	47.6074	89.0502	47.6074	90.3784	47.6074	90.2253	47.6074	89.8533	47.6074	90.2571
49.0723	91.5522	49.0723	89.2835	49.0723	90.593	49.0723	90.4319	49.0723	90.0483	49.0723	90.4646
50.5371	91.6503	50.5371	89.4111	50.5371	90.7098	50.5371	90.5421	50.5371	90.1472	50.5371	90.5752
52.7344	91.7161	52.7344	89.5325	52.7344	90.8055	52.7344	90.6315	52.7344	90.2285	52.7344	90.6649
54.1992	91.6996	54.1992	89.5527	54.1992	90.8071	54.1992	90.6307	54.1992	90.2239	54.1992	90.6639
56.3965	91.648	56.3965	89.5437	56.3965	90.7784	56.3965	90.601	56.3965	90.1971	56.3965	90.6335
58.5938	91.6703	58.5938	89.6272	58.5938	90.8325	58.5938	90.645	58.5938	90.2292	58.5938	90.6795
60.0586	91.6408	60.0586	89.6205	60.0586	90.8151	60.0586	90.6223	60.0586	90.2011	60.0586	90.6581
62.2559	91.5751	62.2559	89.5534	62.2559	90.7543	62.2559	90.5577	62.2559	90.1283	62.2559	90.5934
64.4531	91.5268	64.4531	89.5229	64.4531	90.7197	64.4531	90.5159	64.4531	90.0768	64.4531	90.5527
66.6504	91.5391	66.6504	89.5401	66.6504	90.7426	66.6504	90.5244	66.6504	90.0512	66.6504	90.563
69.5801	91.5565	69.5801	89.5802	69.5801	90.7725	69.5801	90.5552	69.5801	90.0887	69.5801	90.5931
71.7773	91.5411	71.7773	89.6034	71.7773	90.7742	71.7773	90.5652	71.7773	90.1294	71.7773	90.6016
73.9746	91.5842	73.9746	89.6771	73.9746	90.8315	73.9746	90.6177	73.9746	90.1781	73.9746	90.6556
76.9043	91.5008	76.9043	89.6009	76.9043	90.7516	76.9043	90.5361	76.9043	90.1094	76.9043	90.5761
79.834	91.6163	79.834	89.7258	79.834	90.8863	79.834	90.6581	79.834	90.2503	79.834	90.703
82.7637	91.8359	82.7637	90.0056	82.7637	91.1421	82.7637	90.8651	82.7637	90.3077	82.7637	90.917
85.6934	91.9433	85.6934	90.112	85.6934	91.2615	85.6934	90.9567	85.6934	90.2869	85.6934	91.009
88.623	91.6796	88.623	89.7869	88.623	90.9299	88.623	90.7653	88.623	90.4168	88.623	90.7881
91.5527	91.6007	91.5527	89.7994	91.5527	90.8967	91.5527	90.6961	91.5527	90.447	91.5527	90.7457
94.4824	92.1395	94.4824	90.2534	94.4824	91.4448	94.4824	91.1374	94.4824	90.6232	94.4824	91.2044
98.1445	92.1924	98.1445	90.3455	98.1445	91.5092	98.1445	91.2201	98.1445	90.6513	98.1445	91.2731
101.807	92.2659	101.807	90.436	101.807	91.5862	101.807	91.3047	101.807	90.8024	101.807	91.3612
105.469	92.33	105.469	90.5147	105.469	91.6594	105.469	91.3733	105.469	90.8884	105.469	91.4332
109.131	92.4952	109.131	90.7102	109.131	91.8408	109.131	91.5464	109.131	91.0568	109.131	91.6091
112.793	92.6113	112.793	90.818	112.793	91.9578	112.793	91.6552	112.793	91.1601	112.793	91.7206
116.455	92.7329	116.455	90.9364	116.455	92.0855	116.455	91.7695	116.455	91.2516	116.455	91.8379
120.85	92.8593	120.85	91.1404	120.85	92.2412	120.85	91.9218	120.85	91.4447	120.85	91.9965
125.244	92.9379	125.244	91.1227	125.244	92.2865	125.244	91.957	125.244	91.5022	125.244	92.0379
129.639	93.0983	129.639	91.2815	129.639	92.4616	129.639	92.0984	129.639	91.5431	129.639	92.1832
134.033	93.1811	134.033	91.3526	134.033	92.541	134.033	92.1703	134.033	91.618	134.033	92.2591
138.428	93.2695	138.428	91.4069	138.428	92.6187	138.428	92.2409	138.428	91.7047	138.428	92.3343
143.555	93.4462	143.555	91.5053	143.555	92.775	143.555	92.3704	143.555	91.817	143.555	92.4737
148.682	93.5419	148.682	91.5989	148.682	92.8882	148.682	92.4613	148.682	91.8744	148.682	92.5687
153.809	93.6926	153.809	91.8297	153.809	93.0839	153.809	92.6381	153.809	91.9685	153.809	92.7442
159.668	93.7454	159.668	91.8773	159.668	93.1296	159.668	92.6912	159.668	92.0867	159.668	92.8009
164.795	93.8221	164.795	91.9601	164.795	93.2143	164.795	92.7675	164.795	92.1632	164.795	92.8803
170.654	93.7335	170.654	91.9003	170.654	93.1331	170.654	92.674	170.654	92.123	170.654	92.7995
176.514	93.7736	176.514	91.8654	176.514	93.1602	176.514	92.6535	176.514	92.0702	176.514	92.7971
183.105	93.8196	183.105	91.8553	183.105	93.2037	183.105	92.6668	183.105	91.994	183.105	92.8132
189.697	93.7677	189.697	91.9084	189.697	93.1946	189.697	92.6557	189.697	91.9558	189.697	92.8002
196.289	93.7659	196.289	91.9243	196.289	93.199	196.289	92.6397	196.289	92.0235	196.289	92.8032
202.881	93.7635	202.881	91.9127	202.881	93.2191	202.881	92.6073	202.881	91.9637	202.881	92.79
210.205	93.7275	210.205	91.8681	210.205	93.1826	210.205	92.5557	210.205	91.8519	210.205	92.7402
217.529	93.6732	217.529	91.8004	217.529	93.1245	217.529	92.4597	217.529	91.7965	217.529	92.668
225.586	93.7286	225.586	91.8321	225.586	93.2052	225.586	92.4731	225.586	91.7434	225.586	92.7033
232.91	93.8439	232.91	91.8241	232.91	93.2966	232.91	92.4891	232.91	91.6352	232.91	92.7433
241.699	93.8181	241.699	91.8066	241.699	93.2533	241.699	92.4471	241.699	91.4801	241.699	92.6956
249.756	93.9715	249.756	91.7401	249.756	93.3791	249.756	92.5147	249.756	91.4841	249.756	92.7762
258.545	94.0302	258.545	91.8995	258.545	93.4582	258.545	92.5901	258.545	91.5534	258.545	92.8574
268.066	93.963	268.066	91.5465	268.066	93.3027	268.066	92.4152	268.066	91.2059	268.066	92.6743
277.588	93.9115	277.588	91.7868	277.588	93.4152	277.588	92.4115	277.588	91.3783	277.588	92.7365
287.109	94.0566	287.109	92.1153	287.109	93.6326	287.109	92.6251	287.109	91.289	287.109	92.9271
297.363	94.0757	297.363	92.0642	297.363	93.559	297.363	92.5917	297.363	91.0594	297.363	92.872
307.617	94.0403	307.617	91.8243	307.617	93.4269	307.617	92.4904	307.617	91.1271	307.617	92.7711
318.604	93.9317	318.604	91.8211	318.604	93.3983	318.604	92.3968	318.604	90.8701	318.604	92.6916
329.59	93.9246	329.59	91.6544	329.59	93.2927	329.59	92.3944	329.59	90.8877	329.59	92.6421
341.309	93.6422	341.309	91.275	341.309	93.0081	341.309	92.0448	341.309	90.6451	341.309	92.329
353.76	93.6748	353.76	91.3927	353.76	93.1446	353.76	92.1415	353.76	90.5539	353.76	92.4158
366.211	93.8217	366.211	91.5565	366.211	93.2935	366.211	92.3167	366.211	90.6758	366.211	92.5733
378.662	93.8884	378.662	91.5661	378.662	93.2133	378.662	92.3839	378.662	90.6735	378.662	92.5836
392.578	93.3252	392.578	91.1589	392.578	92.6355	392.578	91.9899	392.578	90.4348	392.578	92.1177
405.762	93.104	405.762	90.651	405.762	92.3805	405.762	91.5469	405.762	90.3406	405.762	91.7886
420.41	93.2995	420.41	90.5285	420.41	92.5406	420.41	91.5987	420.41	90.3773	420.41	91.8804
435.059	94.2706	435.059	91.1607	435.059	93.8284	435.059	91.7932	435.059	90.6175	435.059	92.6091
450.439	93.5225	450.439	91.3223	450.439	92.9229	450.439	92.234	450.439	90.1941	450.439	92.3244
466.553	93.2328	466.553	90.8668	466.553	92.568	466.553	91.8487	466.553	90.1187	466.553	91.9794
482.666	92.9567	482.666	90.4503	482.666	92.3002	482.666	91.348	482.666	89.6477	482.666	91.5962
500.244	92.8204	500.244	90.2547	500.244	92.0879	500.244	91.0811	500.244	89.443	500.244	91.3783
517.822	92.4885	517.822	89.3893	517.822	91.8549	517.822	90.2343	517.822	88.6087	517.822	90.818
536.133	92.8231	536.133	89.2923	536.133	92.3409	536.133	90.4401	536.133	88.2012	536.133	91.0806
554.443	92.6434	554.443	89.3765	554.443	91.9585	554.443	90.7008	554.443	88.4977	554.443	91.0321
574.219	92.6062	574.219	88.9565	574.219	91.91	574.219	90.4317	574.219	88.3403	574.219	90.8725
594.727	92.6756	594.727	89.1233	594.727	92.126	594.727	90.302	594.727	88.1	594.727	90.9132
615.234	93.0209	615.234	89.5757	615.234	92.3312	615.234	90.9184	615.234	88.1467	615.234	91.2936
637.207	93.0045	637.207	89.1599	637.207	92.2648	637.207	90.7916	637.207	88.5511	637.207	91.2164
659.912	93.016	659.912	89.276	659.912	92.1688	659.912	91.0358	659.912	88.3541	659.912	91.2696
683.35	93.022	683.35	88.1545	683.35	91.9554	683.35	91.3066	683.35	89.1278	683.35	91.2813
706.787	93.4847	706.787	86.989	706.787	92.0036	706.787	90.9629	706.787	89.3924	706.787	91.2141
731.689	93.2569	731.689	84.3048	731.689	90.625	731.689	89.3261	731.689	87.9777	731.689	89.9476
758.057	87.3424	758.057	86.015	758.057	84.9019	758.057	82.1896	758.057	80.2273	758.057	84.2771
784.424	89.8705	784.424	89.5199	784.424	90.9805	784.424	88.3471	784.424	85.528	784.424	89.3288
812.256	91.545	812.256	89.4328	812.256	91.8062	812.256	89.0883	812.256	86.1937	812.256	90.1445
840.82	91.7479	840.82	89.7349	840.82	92.8068	840.82	89.7214	840.82	86.6412	840.82	90.8238
870.85	92.1482	870.85	89.8511	870.85	93.3581	870.85	90.0995	870.85	87.0815	870.85	91.2598
901.611	92.5882	901.611	91.0605	901.611	93.9383	901.611	90.856	901.611	87.4111	901.611	91.9184
933.105	93.2255	933.105	91.0035	933.105	94.3911	933.105	91.2211	933.105	87.3767	933.105	92.3056
966.064	93.9742	966.064	91.3798	966.064	95.1702	966.064	92.0121	966.064	87.3116	966.064	93.0222
999.756	93.9036	999.756	91.1579	999.756	95.0924	999.756	92.4076	999.756	86.9476	999.756	93.076
1,034.91	93.6224	1,034.91	90.545	1,034.91	94.6608	1,034.91	92.6816	1,034.91	87.7358	1,034.91	92.9349
1,071.53	93.9424	1,071.53	91.2464	1,071.53	94.3454	1,071.53	92.0963	1,071.53	87.4741	1,071.53	92.6945
1,109.62	94.1045	1,109.62	91.2299	1,109.62	94.5651	1,109.62	91.6093	1,109.62	86.9014	1,109.62	92.6339
1,148.44	93.7742	1,148.44	90.897	1,148.44	94.4641	1,148.44	91.2721	1,148.44	86.6871	1,148.44	92.4027
1,189.45	93.558	1,189.45	90.3399	1,189.45	94.1176	1,189.45	91.2117	1,189.45	86.5338	1,189.45	92.153
1,231.2	93.4589	1,231.2	90.0652	1,231.2	94.283	1,231.2	90.977	1,231.2	85.9717	1,231.2	92.1008
1,274.41	92.6821	1,274.41	91.6796	1,274.41	95.1431	1,274.41	91.5448	1,274.41	86.5768	1,274.41	92.7071
1,319.82	93.6113	1,319.82	92.0906	1,319.82	95.5935	1,319.82	92.1143	1,319.82	86.798	1,319.82	93.2404
1,365.97	94.2033	1,365.97	91.6738	1,365.97	95.6638	1,365.97	92.0603	1,365.97	86.7851	1,365.97	93.301
1,414.31	94.3823	1,414.31	89.9028	1,414.31	94.8886	1,414.31	90.9072	1,414.31	85.6389	1,414.31	92.4929
1,464.11	94.0025	1,464.11	87.9386	1,464.11	94.18	1,464.11	90.2999	1,464.11	85.0193	1,464.11	91.8054
1,515.38	93.8025	1,515.38	86.3897	1,515.38	93.7108	1,515.38	89.7712	1,515.38	84.4178	1,515.38	91.3248
1,568.85	94.0086	1,568.85	84.0096	1,568.85	93.2951	1,568.85	89.1143	1,568.85	83.6065	1,568.85	90.9151
1,624.51	94.1037	1,624.51	80.9343	1,624.51	92.4272	1,624.51	88.1306	1,624.51	82.1073	1,624.51	90.2151
1,681.64	93.3793	1,681.64	84.4386	1,681.64	91.5477	1,681.64	87.3792	1,681.64	81.9976	1,681.64	89.5251
1,740.97	92.377	1,740.97	84.1563	1,740.97	91.6082	1,740.97	87.4138	1,740.97	81.2585	1,740.97	89.278
1,802.49	90.6724	1,802.49	81.3376	1,802.49	92.4065	1,802.49	87.918	1,802.49	81.7678	1,802.49	89.4174
1,866.21	89.1858	1,866.21	74.6348	1,866.21	92.6369	1,866.21	87.94	1,866.21	81.5585	1,866.21	89.289
1,932.13	87.8461	1,932.13	77.0248	1,932.13	91.8506	1,932.13	87.2664	1,932.13	80.9119	1,932.13	88.4976
2,000.24	86.4981	2,000.24	77.9404	2,000.24	91.9117	2,000.24	87.2508	2,000.24	80.9722	2,000.24	88.4228
2,070.56	86.5583	2,070.56	79.3503	2,070.56	92.562	2,070.56	87.6237	2,070.56	80.778	2,070.56	88.9441
2,143.8	86.1675	2,143.8	80.5832	2,143.8	92.5433	2,143.8	87.4133	2,143.8	80.779	2,143.8	88.8667
2,219.24	86.5594	2,219.24	83.9352	2,219.24	92.4933	2,219.24	87.1819	2,219.24	80.1716	2,219.24	88.8753
2,297.61	87.1735	2,297.61	84.6309	2,297.61	93.1776	2,297.61	87.7723	2,297.61	81.6431	2,297.61	89.5446
2,378.17	87.5734	2,378.17	85.2156	2,378.17	93.7704	2,378.17	88.6329	2,378.17	81.1572	2,378.17	90.177
2,462.4	88.2394	2,462.4	87.3488	2,462.4	93.3386	2,462.4	87.8628	2,462.4	80.9241	2,462.4	89.8666
2,548.83	88.4393	2,548.83	87.4475	2,548.83	92.9837	2,548.83	87.4578	2,548.83	80.7559	2,548.83	89.5797
2,638.92	88.5339	2,638.92	87.6304	2,638.92	92.4915	2,638.92	87.1375	2,638.92	80.3082	2,638.92	89.2344
2,731.93	89.0016	2,731.93	87.8976	2,731.93	92.0063	2,731.93	86.7072	2,731.93	79.9306	2,731.93	88.9302
2,828.61	89.8851	2,828.61	86.9971	2,828.61	92.2256	2,828.61	86.693	2,828.61	79.9297	2,828.61	89.0879
2,928.22	90.6533	2,928.22	87.1605	2,928.22	92.3452	2,928.22	86.8963	2,928.22	80.1774	2,928.22	89.3266
3,031.49	91.4213	3,031.49	86.6596	3,031.49	92.1409	3,031.49	86.7179	3,031.49	80.5291	3,031.49	89.2839
3,138.43	91.8936	3,138.43	86.9983	3,138.43	92.031	3,138.43	86.8449	3,138.43	80.1816	3,138.43	89.3653
3,249.02	91.8915	3,249.02	87.6742	3,249.02	92.1426	3,249.02	87.2451	3,249.02	80.5913	3,249.02	89.5618
3,363.28	91.7293	3,363.28	88.767	3,363.28	91.2154	3,363.28	87.0705	3,363.28	80.1533	3,363.28	89.1526
3,481.93	91.5554	3,481.93	89.3068	3,481.93	91.5616	3,481.93	87.763	3,481.93	80.6201	3,481.93	89.5049
3,604.98	91.3404	3,604.98	89.2086	3,604.98	91.8841	3,604.98	88.1562	3,604.98	80.6317	3,604.98	89.7018
3,732.42	91.0948	3,732.42	89.0557	3,732.42	91.9271	3,732.42	88.0809	3,732.42	80.1796	3,732.42	89.6387
3,863.53	90.7344	3,863.53	88.4724	3,863.53	92.7615	3,863.53	88.2544	3,863.53	79.1978	3,863.53	89.9704
3,999.76	90.5838	3,999.76	88.2417	3,999.76	92.6614	3,999.76	88.0316	3,999.76	79.0999	3,999.76	89.8213
4,141.11	89.9616	4,141.11	87.7026	4,141.11	92.6308	4,141.11	87.5886	4,141.11	78.2023	4,141.11	89.5623
4,286.87	89.7293	4,286.87	87.5736	4,286.87	92.5223	4,286.87	87.5912	4,286.87	78.822	4,286.87	89.471
4,438.48	89.8634	4,438.48	86.3932	4,438.48	92.2988	4,438.48	87.5264	4,438.48	78.5859	4,438.48	89.2692
4,594.48	89.141	4,594.48	85.7867	4,594.48	92.4239	4,594.48	87.0996	4,594.48	78.3663	4,594.48	89.1064
4,757.08	89.3594	4,757.08	85.6167	4,757.08	92.1154	4,757.08	87.193	4,757.08	78.3633	4,757.08	88.9721
4,924.8	89.5636	4,924.8	86.1297	4,924.8	92.1892	4,924.8	86.7615	4,924.8	77.5263	4,924.8	88.9563
5,098.39	89.6295	5,098.39	86.1756	5,098.39	91.8926	5,098.39	86.9934	5,098.39	78.4489	5,098.39	88.8683
5,277.83	89.6738	5,277.83	85.7806	5,277.83	91.8518	5,277.83	87.0807	5,277.83	78.1911	5,277.83	88.8484
5,463.87	89.9814	5,463.87	85.1473	5,463.87	92.8483	5,463.87	88.0209	5,463.87	79.4023	5,463.87	89.6628
5,656.49	89.8927	5,656.49	86.1498	5,656.49	92.8996	5,656.49	88.499	5,656.49	79.3415	5,656.49	89.855
5,856.45	90.028	5,856.45	87.1711	5,856.45	93.2787	5,856.45	88.8628	5,856.45	79.6202	5,856.45	90.2352
6,062.99	90.5829	6,062.99	87.4884	6,062.99	93.285	6,062.99	88.7168	6,062.99	78.8988	6,062.99	90.2754
6,276.86	90.5894	6,276.86	87.0499	6,276.86	93.604	6,276.86	88.9835	6,276.86	78.3207	6,276.86	90.4929
6,498.05	90.6203	6,498.05	86.6553	6,498.05	93.6768	6,498.05	89.1937	6,498.05	78.2212	6,498.05	90.5744
6,727.29	90.9718	6,727.29	87.1695	6,727.29	93.7797	6,727.29	89.4051	6,727.29	78.6751	6,727.29	90.7597
6,964.6	91.6317	6,964.6	87.9835	6,964.6	93.7073	6,964.6	89.628	6,964.6	79.5873	6,964.6	90.9211
7,209.96	91.8891	7,209.96	87.8142	7,209.96	93.3662	7,209.96	89.455	7,209.96	79.5868	7,209.96	90.727
7,464.11	92.0326	7,464.11	87.3211	7,464.11	92.8768	7,464.11	88.9923	7,464.11	78.9424	7,464.11	90.3451
7,727.78	91.6295	7,727.78	87.2249	7,727.78	92.3858	7,727.78	88.661	7,727.78	78.6465	7,727.78	89.9396
8,000.24	91.272	8,000.24	86.8973	8,000.24	92.5283	8,000.24	88.5501	8,000.24	77.9931	8,000.24	89.8934
8,282.23	91.0356	8,282.23	86.262	8,282.23	92.8741	8,282.23	88.7152	8,282.23	77.9926	8,282.23	90.0452
8,574.46	91.3484	8,574.46	85.8059	8,574.46	92.861	8,574.46	89.2158	8,574.46	78.6092	8,574.46	90.2162
8,876.22	91.343	8,876.22	85.6726	8,876.22	92.7037	8,876.22	89.186	8,876.22	78.398	8,876.22	90.1217
9,189.7	90.7715	9,189.7	85.5741	9,189.7	91.9941	9,189.7	88.3265	9,189.7	77.5367	9,189.7	89.4139
9,513.43	90.0965	9,513.43	85.512	9,513.43	91.2315	9,513.43	87.3753	9,513.43	76.7147	9,513.43	88.6457
9,848.88	89.3734	9,848.88	85.6172	9,848.88	91.1317	9,848.88	87.0585	9,848.88	75.9911	9,848.88	88.3966
10,196.8	88.8386	10,196.8	85.0908	10,196.8	91.2937	10,196.8	87.4128	10,196.8	75.7953	10,196.8	88.4794
10,556.4	89.2642	10,556.4	84.6161	10,556.4	92.0639	10,556.4	88.3702	10,556.4	76.8373	10,556.4	89.2099
10,928.5	89.7199	10,928.5	84.6923	10,928.5	92.637	10,928.5	88.8198	10,928.5	77.0948	10,928.5	89.7095
11,313.7	90.0247	11,313.7	85.4865	11,313.7	92.9075	11,313.7	89.0295	11,313.7	77.4596	11,313.7	89.9858
11,712.9	90.686	11,712.9	86.1736	11,712.9	93.2936	11,712.9	89.416	11,712.9	77.6356	11,712.9	90.4164
12,126	90.9531	12,126	85.9626	12,126	93.4179	12,126	89.5755	12,126	77.6876	12,126	90.5548
12,553.7	90.9341	12,553.7	85.9477	12,553.7	93.3223	12,553.7	89.5581	12,553.7	78.0719	12,553.7	90.4993
12,996.1	90.0845	12,996.1	85.2799	12,996.1	92.5726	12,996.1	89.0229	12,996.1	77.5836	12,996.1	89.8098
13,454.6	89.0952	13,454.6	83.5479	13,454.6	91.1722	13,454.6	87.4142	13,454.6	76.1911	13,454.6	88.3841
13,928.5	90.0492	13,928.5	84.2047	13,928.5	92.0314	13,928.5	87.6898	13,928.5	75.8804	13,928.5	89.0703
14,419.9	89.5288	14,419.9	85.2187	14,419.9	92.5639	14,419.9	87.5219	14,419.9	74.9743	14,419.9	89.2879
14,928.2	90.1262	14,928.2	85.0421	14,928.2	92.9272	14,928.2	87.8624	14,928.2	75.5509	14,928.2	89.6527
15,454.8	90.1657	15,454.8	83.4161	15,454.8	92.2772	15,454.8	87.4479	15,454.8	74.7427	15,454.8	89.1232
15,999.8	88.8069	15,999.8	81.8163	15,999.8	90.6959	15,999.8	85.9864	15,999.8	73.0787	15,999.8	87.6058
16,564.5	86.763	16,564.5	81.1191	16,564.5	89.4699	16,564.5	84.202	16,564.5	70.7941	16,564.5	86.134
17,148.2	86.018	17,148.2	80.7157	17,148.2	89.1266	17,148.2	83.1999	17,148.2	70.096	17,148.2	85.5805
17,753.2	86.6543	17,753.2	81.7558	17,753.2	90.2699	17,753.2	83.9408	17,753.2	70.1569	17,753.2	86.5676
18,379.4	87.26	18,379.4	84.218	18,379.4	91.755	18,379.4	85.3571	18,379.4	70.7626	18,379.4	87.9837
19,027.6	87.9637	19,027.6	84.5731	19,027.6	91.7052	19,027.6	85.3489	19,027.6	71.823	19,027.6	88.045
19,698.5	88.7444	19,698.5	78.7077	19,698.5	90.1876	19,698.5	83.946	19,698.5	70.0409	19,698.5	86.7457
19,999.5	87.9814	19,999.5	73.7009	19,999.5	88.9896	19,999.5	82.534	19,999.5	69.0824	19,999.5	85.5438
