"SPL Vertical"																																																																							
"On-Axis"		"10°"		"-10°"		"20°"		"-20°"		"30°"		"-30°"		"40°"		"-40°"		"50°"		"-50°"		"60°"		"-60°"		"70°"		"-70°"		"80°"		"-80°"		"90°"		"-90°"		"100°"		"-100°"		"110°"		"-110°"		"120°"		"-120°"		"130°"		"-130°"		"140°"		"-140°"		"150°"		"-150°"		"160°"		"-160°"		"170°"		"-170°"		"180°"	
"Frequency [Hz]"	"Sound Pessure Level [dB]    /  [	0.2	V at 	1	m]"	"Frequency [Hz]"	"Sound Pessure Level [dB]    /  [	0.2	V at 	1	m]"	"Frequency [Hz]"	"Sound Pessure Level [dB]    /  [	0.2	V at 	1	m]"	"Frequency [Hz]"	"Sound Pessure Level [dB]    /  [	0.2	V at 	1	m]"	"Frequency [Hz]"	"Sound Pessure Level [dB]    /  [	0.2	V at 	1	m]"	"Frequency [Hz]"	"Sound Pessure Level [dB]    /  [	0.2	V at 	1	m]"	"Frequency [Hz]"	"Sound Pessure Level [dB]    /  [	0.2	V at 	1	m]"	"Frequency [Hz]"	"Sound Pessure Level [dB]    /  [	0.2	V at 	1	m]"	"Frequency [Hz]"	"Sound Pessure Level [dB]    /  [	0.2	V at 	1	m]"	"Frequency [Hz]"	"Sound Pessure Level [dB]    /  [	0.2	V at 	1	m]"	"Frequency [Hz]"	"Sound Pessure Level [dB]    /  [	0.2	V at 	1	m]"	"Frequency [Hz]"	"Sound Pessure Level [dB]    /  [	0.2	V at 	1	m]"	"Frequency [Hz]"	"Sound Pessure Level [dB]    /  [	0.2	V at 	1	m]"	"Frequency [Hz]"	"Sound Pessure Level [dB]    /  [	0.2	V at 	1	m]"	"Frequency [Hz]"	"Sound Pessure Level [dB]    /  [	0.2	V at 	1	m]"	"Frequency [Hz]"	"Sound Pessure Level [dB]    /  [	0.2	V at 	1	m]"	"Frequency [Hz]"	"Sound Pessure Level [dB]    /  [	0.2	V at 	1	m]"	"Frequency [Hz]"	"Sound Pessure Level [dB]    /  [	0.2	V at 	1	m]"	"Frequency [Hz]"	"Sound Pessure Level [dB]    /  [	0.2	V at 	1	m]"	"Frequency [Hz]"	"Sound Pessure Level [dB]    /  [	0.2	V at 	1	m]"	"Frequency [Hz]"	"Sound Pessure Level [dB]    /  [	0.2	V at 	1	m]"	"Frequency [Hz]"	"Sound Pessure Level [dB]    /  [	0.2	V at 	1	m]"	"Frequency [Hz]"	"Sound Pessure Level [dB]    /  [	0.2	V at 	1	m]"	"Frequency [Hz]"	"Sound Pessure Level [dB]    /  [	0.2	V at 	1	m]"	"Frequency [Hz]"	"Sound Pessure Level [dB]    /  [	0.2	V at 	1	m]"	"Frequency [Hz]"	"Sound Pessure Level [dB]    /  [	0.2	V at 	1	m]"	"Frequency [Hz]"	"Sound Pessure Level [dB]    /  [	0.2	V at 	1	m]"	"Frequency [Hz]"	"Sound Pessure Level [dB]    /  [	0.2	V at 	1	m]"	"Frequency [Hz]"	"Sound Pessure Level [dB]    /  [	0.2	V at 	1	m]"	"Frequency [Hz]"	"Sound Pessure Level [dB]    /  [	0.2	V at 	1	m]"	"Frequency [Hz]"	"Sound Pessure Level [dB]    /  [	0.2	V at 	1	m]"	"Frequency [Hz]"	"Sound Pessure Level [dB]    /  [	0.2	V at 	1	m]"	"Frequency [Hz]"	"Sound Pessure Level [dB]    /  [	0.2	V at 	1	m]"	"Frequency [Hz]"	"Sound Pessure Level [dB]    /  [	0.2	V at 	1	m]"	"Frequency [Hz]"	"Sound Pessure Level [dB]    /  [	0.2	V at 	1	m]"	"Frequency [Hz]"	"Sound Pessure Level [dB]    /  [	0.2	V at 	1	m]"
20.5078	49.6991	20.5078	49.601	20.5078	49.9101	20.5078	49.6147	20.5078	50.2272	20.5078	49.7335	20.5078	50.6347	20.5078	49.9475	20.5078	51.1097	20.5078	50.2458	20.5078	51.6255	20.5078	50.618	20.5078	52.1564	20.5078	51.0543	20.5078	52.6821	20.5078	51.5453	20.5078	53.1899	20.5078	52.0815	20.5078	53.6752	20.5078	52.6519	20.5078	54.1387	20.5078	53.2433	20.5078	54.5827	20.5078	53.8389	20.5078	55.0057	20.5078	54.4183	20.5078	55.399	20.5078	54.9581	20.5078	55.7467	20.5078	55.4337	20.5078	56.0275	20.5078	55.8219	20.5078	56.2192	20.5078	56.1035	20.5078	56.3026	20.5078	56.2653
21.2402	52.2794	21.2402	51.9811	21.2402	52.6661	21.2402	51.7804	21.2402	53.1249	21.2402	51.68	21.2402	53.6332	21.2402	51.6771	21.2402	54.1631	21.2402	51.765	21.2402	54.6847	21.2402	51.9348	21.2402	55.1693	21.2402	52.1764	21.2402	55.5925	21.2402	52.48	21.2402	55.9374	21.2402	52.836	21.2402	56.1967	21.2402	53.2351	21.2402	56.3735	21.2402	53.6672	21.2402	56.4805	21.2402	54.1198	21.2402	56.5363	21.2402	54.5772	21.2402	56.5598	21.2402	55.0204	21.2402	56.5639	21.2402	55.4291	21.2402	56.5506	21.2402	55.7844	21.2402	56.5108	21.2402	56.0721	21.2402	56.4281	21.2402	56.2857
21.9727	52.1748	21.9727	51.7619	21.9727	52.6826	21.9727	51.4544	21.9727	53.2662	21.9727	51.254	21.9727	53.8986	21.9727	51.1561	21.9727	54.5478	21.9727	51.1517	21.9727	55.1801	21.9727	51.2298	21.9727	55.763	21.9727	51.3786	21.9727	56.2677	21.9727	51.5861	21.9727	56.6706	21.9727	51.8404	21.9727	56.9541	21.9727	52.1299	21.9727	57.1071	21.9727	52.4442	21.9727	57.1255	21.9727	52.7742	21.9727	57.0134	21.9727	53.1121	21.9727	56.784	21.9727	53.4522	21.9727	56.4599	21.9727	53.7914	21.9727	56.0721	21.9727	54.1316	21.9727	55.6555	21.9727	54.4802	21.9727	55.2409	21.9727	54.8477
22.7051	51.0294	22.7051	50.4331	22.7051	51.7063	22.7051	49.9369	22.7051	52.4363	22.7051	49.551	22.7051	53.186	22.7051	49.2761	22.7051	53.9192	22.7051	49.1057	22.7051	54.5993	22.7051	49.0285	22.7051	55.1914	22.7051	49.031	22.7051	55.6647	22.7051	49.0995	22.7051	55.9943	22.7051	49.2215	22.7051	56.1626	22.7051	49.3867	22.7051	56.1609	22.7051	49.5876	22.7051	55.9906	22.7051	49.8209	22.7051	55.6638	22.7051	50.0876	22.7051	55.2038	22.7051	50.3931	22.7051	54.6433	22.7051	50.7455	22.7051	54.0209	22.7051	51.1536	22.7051	53.3768	22.7051	51.6235	22.7051	52.7464	22.7051	52.1566
23.4375	54.7005	23.4375	54.169	23.4375	55.2882	23.4375	53.7052	23.4375	55.9153	23.4375	53.3162	23.4375	56.5606	23.4375	53.0055	23.4375	57.199	23.4375	52.774	23.4375	57.803	23.4375	52.6212	23.4375	58.3446	23.4375	52.5459	23.4375	58.7976	23.4375	52.5465	23.4375	59.1396	23.4375	52.6209	23.4375	59.3537	23.4375	52.7668	23.4375	59.43	23.4375	52.9813	23.4375	59.366	23.4375	53.2619	23.4375	59.1673	23.4375	53.6065	23.4375	58.8464	23.4375	54.013	23.4375	58.4216	23.4375	54.4781	23.4375	57.9152	23.4375	54.9965	23.4375	57.3518	23.4375	55.5588	23.4375	56.7559	23.4375	56.1512
24.1699	55.7471	24.1699	55.2028	24.1699	56.3384	24.1699	54.7176	24.1699	56.9595	24.1699	54.2993	24.1699	57.589	24.1699	53.952	24.1699	58.2017	24.1699	53.6765	24.1699	58.77	24.1699	53.4717	24.1699	59.2655	24.1699	53.3349	24.1699	59.6613	24.1699	53.2627	24.1699	59.9338	24.1699	53.2515	24.1699	60.0649	24.1699	53.2983	24.1699	60.0435	24.1699	53.401	24.1699	59.8671	24.1699	53.5598	24.1699	59.5424	24.1699	53.777	24.1699	59.0859	24.1699	54.0575	24.1699	58.5232	24.1699	54.4076	24.1699	57.8875	24.1699	54.833	24.1699	57.2162	24.1699	55.3359	24.1699	56.5467	24.1699	55.9119
25.6348	57.567	25.6348	56.9225	25.6348	58.2517	25.6348	56.3329	25.6348	58.9579	25.6348	55.8083	25.6348	59.6629	25.6348	55.3554	25.6348	60.3406	25.6348	54.9773	25.6348	60.9631	25.6348	54.6755	25.6348	61.5022	25.6348	54.4497	25.6348	61.931	25.6348	54.2995	25.6348	62.2256	25.6348	54.2246	25.6348	62.3675	25.6348	54.2257	25.6348	62.3445	25.6348	54.3054	25.6348	62.1522	25.6348	54.4687	25.6348	61.7947	25.6348	54.7223	25.6348	61.2855	25.6348	55.0744	25.6348	60.6473	25.6348	55.5309	25.6348	59.9108	25.6348	56.0932	25.6348	59.1134	25.6348	56.7544	25.6348	58.2956	25.6348	57.4975
26.3672	60.0992	26.3672	59.5336	26.3672	60.7027	26.3672	59.0177	26.3672	61.328	26.3672	58.56	26.3672	61.9552	26.3672	58.1657	26.3672	62.5609	26.3672	57.8377	26.3672	63.1193	26.3672	57.5769	26.3672	63.6034	26.3672	57.3836	26.3672	63.9874	26.3672	57.2574	26.3672	64.248	26.3672	57.1978	26.3672	64.367	26.3672	57.2049	26.3672	64.3327	26.3672	57.2796	26.3672	64.1411	26.3672	57.4238	26.3672	63.7978	26.3672	57.6408	26.3672	63.3177	26.3672	57.9349	26.3672	62.7254	26.3672	58.3109	26.3672	62.0536	26.3672	58.7722	26.3672	61.3403	26.3672	59.3183	26.3672	60.6245	26.3672	59.9414
27.0996	61.5735	27.0996	61.0328	27.0996	62.1521	27.0996	60.5416	27.0996	62.7529	27.0996	60.1078	27.0996	63.3567	27.0996	59.7367	27.0996	63.9405	27.0996	59.4309	27.0996	64.4788	27.0996	59.1913	27.0996	64.9451	27.0996	59.0176	27.0996	65.3133	27.0996	58.9085	27.0996	65.5601	27.0996	58.8624	27.0996	65.6667	27.0996	58.8776	27.0996	65.6213	27.0996	58.9527	27.0996	65.42	27.0996	59.0874	27.0996	65.069	27.0996	59.283	27.0996	64.585	27.0996	59.543	27.0996	63.9948	27.0996	59.8728	27.0996	63.3345	27.0996	60.2789	27.0996	62.6446	27.0996	60.7657	27.0996	61.9657	27.0996	61.3317
27.832	62.9866	27.832	62.4388	27.832	63.567	27.832	61.9348	27.832	64.165	27.832	61.4828	27.832	64.7622	27.832	61.0884	27.832	65.3368	27.832	60.7549	27.832	65.8645	27.832	60.4842	27.832	66.3196	27.832	60.2772	27.832	66.6773	27.832	60.1341	27.832	66.9146	27.832	60.0546	27.832	67.0134	27.832	60.0388	27.832	66.9613	27.832	60.0873	27.832	66.7541	27.832	60.2017	27.832	66.3965	27.832	60.3852	27.832	65.9034	27.832	60.643	27.832	65.3	27.832	60.9818	27.832	64.6201	27.832	61.4075	27.832	63.9039	27.832	61.9229	27.832	63.1926	27.832	62.5231
29.2969	66.2052	29.2969	65.6767	29.2969	66.7609	29.2969	65.1855	29.2969	67.3305	29.2969	64.7389	29.2969	67.8971	29.2969	64.3419	29.2969	68.4406	29.2969	63.998	29.2969	68.9378	29.2969	63.7097	29.2969	69.3643	29.2969	63.4785	29.2969	69.6954	29.2969	63.3056	29.2969	69.9086	29.2969	63.192	29.2969	69.9851	29.2969	63.1389	29.2969	69.9123	29.2969	63.1478	29.2969	69.6852	29.2969	63.2214	29.2969	69.3082	29.2969	63.3641	29.2969	68.7959	29.2969	63.5827	29.2969	68.1739	29.2969	63.8856	29.2969	67.4774	29.2969	64.2815	29.2969	66.7484	29.2969	64.7752	29.2969	66.0308	29.2969	65.3635
30.0293	67.9437	30.0293	67.4426	30.0293	68.4718	30.0293	66.9782	30.0293	69.0142	30.0293	66.5576	30.0293	69.5547	30.0293	66.1858	30.0293	70.0737	30.0293	65.8664	30.0293	70.5492	30.0293	65.602	30.0293	70.9574	30.0293	65.3942	30.0293	71.2746	30.0293	65.2443	30.0293	71.4792	30.0293	65.1531	30.0293	71.5535	30.0293	65.1211	30.0293	71.4859	30.0293	65.1487	30.0293	71.2726	30.0293	65.2372	30.0293	70.9187	30.0293	65.3891	30.0293	70.4398	30.0293	65.6087	30.0293	69.861	30.0293	65.9021	30.0293	69.2165	30.0293	66.2759	30.0293	68.5454	30.0293	66.7344	30.0293	67.887	30.0293	67.2754
31.4941	70.9762	31.4941	70.5223	31.4941	71.4556	31.4941	70.102	31.4941	71.9488	31.4941	69.7214	31.4941	72.4414	31.4941	69.3843	31.4941	72.9154	31.4941	69.0933	31.4941	73.3502	31.4941	68.8499	31.4941	73.7236	31.4941	68.6553	31.4941	74.0134	31.4941	68.5102	31.4941	74.1993	31.4941	68.4157	31.4941	74.2647	31.4941	68.3729	31.4941	74.1988	31.4941	68.3836	31.4941	73.9981	31.4941	68.4506	31.4941	73.668	31.4941	68.5778	31.4941	73.2229	31.4941	68.7706	31.4941	72.6868	31.4941	69.035	31.4941	72.0909	31.4941	69.3769	31.4941	71.4711	31.4941	69.7992	31.4941	70.8634	31.4941	70.2987
32.2266	72.3749	32.2266	71.9335	32.2266	72.8422	32.2266	71.5262	32.2266	73.324	32.2266	71.159	32.2266	73.8056	32.2266	70.8355	32.2266	74.2691	32.2266	70.5583	32.2266	74.6942	32.2266	70.3286	32.2266	75.0588	32.2266	70.1473	32.2266	75.3407	32.2266	70.0148	32.2266	75.5199	32.2266	69.9315	32.2266	75.5801	32.2266	69.898	32.2266	75.5111	32.2266	69.9153	32.2266	75.3099	32.2266	69.9854	32.2266	74.9827	32.2266	70.1111	32.2266	74.5451	32.2266	70.2968	32.2266	74.0218	32.2266	70.5478	32.2266	73.4447	32.2266	70.8698	32.2266	72.8495	32.2266	71.2664	32.2266	72.2706	32.2266	71.7365
33.6914	74.9869	33.6914	74.559	33.6914	75.4389	33.6914	74.1637	33.6914	75.9041	33.6914	73.8068	33.6914	76.3681	33.6914	73.4924	33.6914	76.8137	33.6914	73.2229	33.6914	77.2211	33.6914	72.9999	33.6914	77.5689	33.6914	72.8241	33.6914	77.8357	33.6914	72.696	33.6914	78.002	33.6914	72.6156	33.6914	78.052	33.6914	72.5831	33.6914	77.976	33.6914	72.5992	33.6914	77.7716	33.6914	72.6651	33.6914	77.4456	33.6914	72.7833	33.6914	77.0143	33.6914	72.9574	33.6914	76.5027	33.6914	73.1926	33.6914	75.9428	33.6914	73.4944	33.6914	75.3698	33.6914	73.8669	33.6914	74.8168	33.6914	74.3101
34.4238	76.3865	34.4238	75.9656	34.4238	76.8294	34.4238	75.5748	34.4238	77.2835	34.4238	75.22	34.4238	77.735	34.4238	74.9053	34.4238	78.1673	34.4238	74.6334	34.4238	78.561	34.4238	74.4061	34.4238	78.8952	34.4238	74.2245	34.4238	79.1491	34.4238	74.0895	34.4238	79.3035	34.4238	74.0015	34.4238	79.3432	34.4238	73.961	34.4238	79.2584	34.4238	73.9687	34.4238	79.0473	34.4238	74.0259	34.4238	78.7168	34.4238	74.1349	34.4238	78.2832	34.4238	74.2992	34.4238	77.7719	34.4238	74.5237	34.4238	77.2152	34.4238	74.8141	34.4238	76.648	34.4238	75.175	34.4238	76.1033	34.4238	75.6069
35.8887	78.9651	35.8887	78.5594	35.8887	79.3908	35.8887	78.1816	35.8887	79.8262	35.8887	77.8373	35.8887	80.2583	35.8887	77.5306	35.8887	80.6708	35.8887	77.2641	35.8887	81.0454	35.8887	77.0399	35.8887	81.3619	35.8887	76.859	35.8887	81.6002	35.8887	76.7226	35.8887	81.7417	35.8887	76.631	35.8887	81.7717	35.8887	76.5851	35.8887	81.6809	35.8887	76.5855	35.8887	81.4676	35.8887	76.6335	35.8887	81.1389	35.8887	76.7314	35.8887	80.7114	35.8887	76.8826	35.8887	80.2105	35.8887	77.0919	35.8887	79.668	35.8887	77.3649	35.8887	79.1183	35.8887	77.7064	35.8887	78.5933	35.8887	78.1177
37.3535	81.4549	37.3535	81.0658	37.3535	81.8627	37.3535	80.7028	37.3535	82.2791	37.3535	80.3715	37.3535	82.6916	37.3535	80.0758	37.3535	83.0848	37.3535	79.8186	37.3535	83.441	37.3535	79.6018	37.3535	83.741	37.3535	79.4269	37.3535	83.9654	37.3535	79.295	37.3535	84.0966	37.3535	79.2066	37.3535	84.1205	37.3535	79.1626	37.3535	84.0288	37.3535	79.1637	37.3535	83.8201	37.3535	79.2111	37.3535	83.5022	37.3535	79.3064	37.3535	83.0914	37.3535	79.4527	37.3535	82.6126	37.3535	79.6538	37.3535	82.0964	37.3535	79.9146	37.3535	81.5752	37.3535	80.2392	37.3535	81.0785	37.3535	80.6288
38.8184	83.6684	38.8184	83.2926	38.8184	84.061	38.8184	82.941	38.8184	84.4608	38.8184	82.619	38.8184	84.8556	38.8184	82.3307	38.8184	85.2305	38.8184	82.0788	38.8184	85.5686	38.8184	81.8656	38.8184	85.8513	38.8184	81.6926	38.8184	86.0601	38.8184	81.561	38.8184	86.178	38.8184	81.4715	38.8184	86.1918	38.8184	81.425	38.8184	86.0938	38.8184	81.4223	38.8184	85.8834	38.8184	81.4644	38.8184	85.5687	38.8184	81.553	38.8184	85.1666	38.8184	81.6905	38.8184	84.7017	38.8184	81.8804	38.8184	84.204	38.8184	82.127	38.8184	83.7044	38.8184	82.4343	38.8184	83.2308	38.8184	82.8035
39.5508	84.6956	39.5508	84.3271	39.5508	85.0804	39.5508	83.9819	39.5508	85.4718	39.5508	83.6657	39.5508	85.8579	39.5508	83.3823	39.5508	86.2242	39.5508	83.1347	39.5508	86.554	39.5508	82.9252	39.5508	86.829	39.5508	82.7552	39.5508	87.0313	39.5508	82.6261	39.5508	87.1442	39.5508	82.5386	39.5508	87.1549	39.5508	82.4935	39.5508	87.0561	39.5508	82.4917	39.5508	86.8476	39.5508	82.5339	39.5508	86.5377	39.5508	82.6216	39.5508	86.1432	39.5508	82.757	39.5508	85.6886	39.5508	82.9431	39.5508	85.2031	39.5508	83.184	39.5508	84.717	39.5508	83.4831	39.5508	84.2568	39.5508	83.8419
41.0156	86.4826	41.0156	86.1242	41.0156	86.8551	41.0156	85.7871	41.0156	87.2325	41.0156	85.4766	41.0156	87.6032	41.0156	85.197	41.0156	87.9532	41.0156	84.9514	41.0156	88.2664	41.0156	84.7421	41.0156	88.5254	41.0156	84.5709	41.0156	88.7127	41.0156	84.4394	41.0156	88.8126	41.0156	84.3484	41.0156	88.8128	41.0156	84.299	41.0156	88.7065	41.0156	84.2917	41.0156	88.4941	41.0156	84.3276	41.0156	88.1842	41.0156	84.4079	41.0156	87.794	41.0156	84.5343	41.0156	87.348	41.0156	84.7098	41.0156	86.875	41.0156	84.9379	41.0156	86.4044	41.0156	85.2221	41.0156	85.9615	41.0156	85.5642
42.4805	87.9916	42.4805	87.6491	42.4805	88.3478	42.4805	87.327	42.4805	88.7086	42.4805	87.0307	42.4805	89.063	42.4805	86.7641	42.4805	89.3974	42.4805	86.5301	42.4805	89.6964	42.4805	86.331	42.4805	89.9431	42.4805	86.1684	42.4805	90.1207	42.4805	86.0436	42.4805	90.2143	42.4805	85.9576	42.4805	90.212	42.4805	85.911	42.4805	90.1076	42.4805	85.9045	42.4805	89.9018	42.4805	85.9388	42.4805	89.6033	42.4805	86.015	42.4805	89.229	42.4805	86.1348	42.4805	88.8025	42.4805	86.3008	42.4805	88.3517	42.4805	86.5164	42.4805	87.9045	42.4805	86.785	42.4805	87.4845	42.4805	87.1085
43.9453	88.9792	43.9453	88.643	43.9453	89.3272	43.9453	88.3257	43.9453	89.6785	43.9453	88.0322	43.9453	90.022	43.9453	87.7668	43.9453	90.3448	43.9453	87.5324	43.9453	90.6316	43.9453	87.3314	43.9453	90.8664	43.9453	87.1655	43.9453	91.0329	43.9453	87.0362	43.9453	91.1165	43.9453	86.9446	43.9453	91.1062	43.9453	86.8916	43.9453	90.9961	43.9453	86.8782	43.9453	90.7872	43.9453	86.9052	43.9453	90.4885	43.9453	86.9741	43.9453	90.1168	43.9453	87.0868	43.9453	89.6954	43.9453	87.2459	43.9453	89.2516	43.9453	87.4547	43.9453	88.8124	43.9453	87.7165	43.9453	88.4007	43.9453	88.0326
45.4102	89.7439	45.4102	89.4181	45.4102	90.0806	45.4102	89.11	45.4102	90.4197	45.4102	88.8247	45.4102	90.7506	45.4102	88.5662	45.4102	91.0605	45.4102	88.3377	45.4102	91.3349	45.4102	88.1414	45.4102	91.5581	45.4102	87.9792	45.4102	91.7144	45.4102	87.8526	45.4102	91.7899	45.4102	87.7626	45.4102	91.7741	45.4102	87.7103	45.4102	91.6618	45.4102	87.6964	45.4102	91.4546	45.4102	87.7219	45.4102	91.1618	45.4102	87.7879	45.4102	90.8002	45.4102	87.8962	45.4102	90.3929	45.4102	88.0489	45.4102	89.966	45.4102	88.2489	45.4102	89.5453	45.4102	88.499	45.4102	89.152	45.4102	88.8007
47.6074	90.3964	47.6074	90.0823	47.6074	90.7203	47.6074	89.7846	47.6074	91.0454	47.6074	89.5084	47.6074	91.3614	47.6074	89.258	47.6074	91.6562	47.6074	89.0365	47.6074	91.9155	47.6074	88.8464	47.6074	92.1245	47.6074	88.6895	47.6074	92.2684	47.6074	88.5675	47.6074	92.3339	47.6074	88.4815	47.6074	92.3114	47.6074	88.4322	47.6074	92.1965	47.6074	88.4203	47.6074	91.9915	47.6074	88.4465	47.6074	91.7062	47.6074	88.5114	47.6074	91.3576	47.6074	88.6161	47.6074	90.9683	47.6074	88.7621	47.6074	90.5635	47.6074	88.9515	47.6074	90.167	47.6074	89.1868	47.6074	89.7982	47.6074	89.4694
49.0723	90.612	49.0723	90.3038	49.0723	90.9288	49.0723	90.0108	49.0723	91.2457	49.0723	89.7382	49.0723	91.5528	49.0723	89.4902	49.0723	91.8379	49.0723	89.2701	49.0723	92.0875	49.0723	89.0806	49.0723	92.2868	49.0723	88.9235	49.0723	92.4216	49.0723	88.8007	49.0723	92.4793	49.0723	88.7133	49.0723	92.4505	49.0723	88.6622	49.0723	92.3315	49.0723	88.6482	49.0723	92.1248	49.0723	88.6717	49.0723	91.8406	49.0723	88.7333	49.0723	91.4962	49.0723	88.8339	49.0723	91.1138	49.0723	88.9747	49.0723	90.7183	49.0723	89.1575	49.0723	90.3327	49.0723	89.3846	49.0723	89.9752	49.0723	89.6574
50.5371	90.7297	50.5371	90.4257	50.5371	91.041	50.5371	90.1358	50.5371	91.3515	50.5371	89.8652	50.5371	91.6514	50.5371	89.6181	50.5371	91.9288	50.5371	89.398	50.5371	92.1704	50.5371	89.2075	50.5371	92.3621	50.5371	89.049	50.5371	92.4898	50.5371	88.9242	50.5371	92.5415	50.5371	88.8345	50.5371	92.5081	50.5371	88.781	50.5371	92.3862	50.5371	88.7645	50.5371	92.1785	50.5371	88.7854	50.5371	91.8955	50.5371	88.8444	50.5371	91.554	50.5371	88.9419	50.5371	91.1765	50.5371	89.0792	50.5371	90.7871	50.5371	89.2579	50.5371	90.4084	50.5371	89.48	50.5371	90.058	50.5371	89.7469
52.7344	90.8262	52.7344	90.53	52.7344	91.1286	52.7344	90.2465	52.7344	91.429	52.7344	89.9808	52.7344	91.7178	52.7344	89.7374	52.7344	91.9837	52.7344	89.5198	52.7344	92.2138	52.7344	89.3308	52.7344	92.3944	52.7344	89.1727	52.7344	92.5123	52.7344	89.0476	52.7344	92.5559	52.7344	88.9568	52.7344	92.517	52.7344	88.9015	52.7344	92.3923	52.7344	88.8824	52.7344	92.1853	52.7344	88.9003	52.7344	91.9063	52.7344	88.9555	52.7344	91.5722	52.7344	89.0486	52.7344	91.2048	52.7344	89.1805	52.7344	90.8274	52.7344	89.3526	52.7344	90.4615	52.7344	89.5665	52.7344	90.1235	52.7344	89.8237
54.1992	90.8282	54.1992	90.5369	54.1992	91.125	54.1992	90.2577	54.1992	91.4194	54.1992	89.9957	54.1992	91.7017	54.1992	89.7554	54.1992	91.9609	54.1992	89.5403	54.1992	92.1843	54.1992	89.3533	54.1992	92.3588	54.1992	89.1968	54.1992	92.4713	54.1992	89.0726	54.1992	92.5105	54.1992	88.9823	54.1992	92.4685	54.1992	88.9268	54.1992	92.3425	54.1992	88.9068	54.1992	92.1358	54.1992	88.9228	54.1992	91.859	54.1992	88.9753	54.1992	91.529	54.1992	89.0647	54.1992	91.1671	54.1992	89.1919	54.1992	90.7966	54.1992	89.3584	54.1992	90.4382	54.1992	89.5659	54.1992	90.1081	54.1992	89.816
56.3965	90.7998	56.3965	90.5143	56.3965	91.0898	56.3965	90.2398	56.3965	91.3765	56.3965	89.9817	56.3965	91.6505	56.3965	89.7444	56.3965	91.9011	56.3965	89.5315	56.3965	92.1159	56.3965	89.3461	56.3965	92.2824	56.3965	89.1907	56.3965	92.3881	56.3965	89.0672	56.3965	92.4222	56.3965	88.977	56.3965	92.3776	56.3965	88.9215	56.3965	92.2518	56.3965	88.9012	56.3965	92.0485	56.3965	88.9167	56.3965	91.7781	56.3965	88.9684	56.3965	91.457	56.3965	89.0567	56.3965	91.106	56.3965	89.1823	56.3965	90.747	56.3965	89.3463	56.3965	90.3997	56.3965	89.55	56.3965	90.0791	56.3965	89.7945
58.5938	90.8552	58.5938	90.5781	58.5938	91.1356	58.5938	90.3106	58.5938	91.4115	58.5938	90.0581	58.5938	91.6736	58.5938	89.8251	58.5938	91.9114	58.5938	89.6154	58.5938	92.1132	58.5938	89.4321	58.5938	92.2667	58.5938	89.2778	58.5938	92.3599	58.5938	89.1546	58.5938	92.383	58.5938	89.0641	58.5938	92.3294	58.5938	89.0075	58.5938	92.1974	58.5938	88.9854	58.5938	91.9916	58.5938	88.9982	58.5938	91.7229	58.5938	89.0459	58.5938	91.4082	58.5938	89.1288	58.5938	91.0679	58.5938	89.2469	58.5938	90.7233	58.5938	89.4011	58.5938	90.3927	58.5938	89.5924	58.5938	90.0897	58.5938	89.8219
60.0586	90.8387	60.0586	90.5646	60.0586	91.1153	60.0586	90.2996	60.0586	91.387	60.0586	90.0491	60.0586	91.6444	60.0586	89.8176	60.0586	91.8772	60.0586	89.6089	60.0586	92.0737	60.0586	89.4262	60.0586	92.222	60.0586	89.2722	60.0586	92.3104	60.0586	89.1489	60.0586	92.3293	60.0586	89.0581	60.0586	92.2724	60.0586	89.0009	60.0586	92.1384	60.0586	88.978	60.0586	91.9319	60.0586	88.9895	60.0586	91.664	60.0586	89.0356	60.0586	91.3517	60.0586	89.1161	60.0586	91.0152	60.0586	89.2313	60.0586	90.6755	60.0586	89.3816	60.0586	90.3508	60.0586	89.5681	60.0586	90.0539	60.0586	89.7922
62.2559	90.7783	62.2559	90.5041	62.2559	91.0542	62.2559	90.2382	62.2559	91.3242	62.2559	89.9862	62.2559	91.5791	62.2559	89.7527	62.2559	91.8087	62.2559	89.5418	62.2559	92.0015	62.2559	89.3568	62.2559	92.1459	62.2559	89.2003	62.2559	92.2307	62.2559	89.0748	62.2559	92.2463	62.2559	88.9819	62.2559	92.1869	62.2559	88.9228	62.2559	92.0513	62.2559	88.8982	62.2559	91.8442	62.2559	88.9085	62.2559	91.5768	62.2559	88.9538	62.2559	91.2656	62.2559	89.034	62.2559	90.9309	62.2559	89.1493	62.2559	90.5929	62.2559	89.3	62.2559	90.2695	62.2559	89.4872	62.2559	89.9734	62.2559	89.7117
64.4531	90.7446	64.4531	90.4731	64.4531	91.0167	64.4531	90.2088	64.4531	91.2819	64.4531	89.9573	64.4531	91.5312	64.4531	89.7235	64.4531	91.7546	64.4531	89.5114	64.4531	91.9411	64.4531	89.3246	64.4531	92.0793	64.4531	89.166	64.4531	92.1585	64.4531	89.038	64.4531	92.1696	64.4531	88.9425	64.4531	92.1071	64.4531	88.8807	64.4531	91.9699	64.4531	88.8536	64.4531	91.7631	64.4531	88.8616	64.4531	91.4976	64.4531	88.9048	64.4531	91.1897	64.4531	88.9833	64.4531	90.859	64.4531	89.097	64.4531	90.5254	64.4531	89.2464	64.4531	90.2062	64.4531	89.432	64.4531	89.9135	64.4531	89.6545
66.6504	90.7692	66.6504	90.4991	66.6504	91.0387	66.6504	90.2348	66.6504	91.2998	66.6504	89.9818	66.6504	91.544	66.6504	89.7451	66.6504	91.7613	66.6504	89.5288	66.6504	91.9409	66.6504	89.3366	66.6504	92.0718	66.6504	89.1715	66.6504	92.1434	66.6504	89.0361	66.6504	92.1469	66.6504	88.9325	66.6504	92.077	66.6504	88.8623	66.6504	91.9329	66.6504	88.8266	66.6504	91.7199	66.6504	88.8262	66.6504	91.4491	66.6504	88.8618	66.6504	91.1368	66.6504	88.9336	66.6504	90.8027	66.6504	89.042	66.6504	90.4665	66.6504	89.1875	66.6504	90.1454	66.6504	89.3708	66.6504	89.8516	66.6504	89.5924
69.5801	90.7991	69.5801	90.532	69.5801	91.065	69.5801	90.2702	69.5801	91.3221	69.5801	90.0193	69.5801	91.5617	69.5801	89.7842	69.5801	91.774	69.5801	89.5691	69.5801	91.9486	69.5801	89.3778	69.5801	92.0746	69.5801	89.2134	69.5801	92.1418	69.5801	89.0786	69.5801	92.1421	69.5801	88.9757	69.5801	92.0705	69.5801	88.9063	69.5801	91.9269	69.5801	88.8716	69.5801	91.7167	69.5801	88.8725	69.5801	91.4511	69.5801	88.9094	69.5801	91.1462	69.5801	88.9825	69.5801	90.8207	69.5801	89.0919	69.5801	90.4936	69.5801	89.2377	69.5801	90.1807	69.5801	89.4201	69.5801	89.8936	69.5801	89.639
71.7773	90.8001	71.7773	90.5378	71.7773	91.0608	71.7773	90.2804	71.7773	91.3124	71.7773	90.0338	71.7773	91.5464	71.7773	89.803	71.7773	91.7534	71.7773	89.5924	71.7773	91.9232	71.7773	89.4058	71.7773	92.0454	71.7773	89.2468	71.7773	92.1104	71.7773	89.1179	71.7773	92.1106	71.7773	89.0216	71.7773	92.0416	71.7773	88.9594	71.7773	91.9036	71.7773	88.9323	71.7773	91.7023	71.7773	88.9408	71.7773	91.4486	71.7773	88.9849	71.7773	91.1581	71.7773	89.0642	71.7773	90.8487	71.7773	89.1779	71.7773	90.5378	71.7773	89.3255	71.7773	90.24	71.7773	89.5063	71.7773	89.9654	71.7773	89.7199
73.9746	90.8581	73.9746	90.5997	73.9746	91.1144	73.9746	90.3459	73.9746	91.3611	73.9746	90.1024	73.9746	91.5898	73.9746	89.8743	73.9746	91.7909	73.9746	89.6662	73.9746	91.9545	73.9746	89.4819	73.9746	92.0704	73.9746	89.3248	73.9746	92.1292	73.9746	89.1976	73.9746	92.1236	73.9746	89.1025	73.9746	92.0497	73.9746	89.0409	73.9746	91.9082	73.9746	89.0138	73.9746	91.7053	73.9746	89.0214	73.9746	91.4524	73.9746	89.0635	73.9746	91.1652	73.9746	89.1395	73.9746	90.8616	73.9746	89.2486	73.9746	90.5585	73.9746	89.3902	73.9746	90.2699	73.9746	89.5637	73.9746	90.0049	73.9746	89.7688
76.9043	90.7787	76.9043	90.5208	76.9043	91.0343	76.9043	90.2673	76.9043	91.2798	76.9043	90.0242	76.9043	91.5067	76.9043	89.7969	76.9043	91.7056	76.9043	89.5899	76.9043	91.8664	76.9043	89.4072	76.9043	91.9794	76.9043	89.2524	76.9043	92.0356	76.9043	89.1281	76.9043	92.0281	76.9043	89.0365	76.9043	91.9535	76.9043	88.9791	76.9043	91.8129	76.9043	88.9565	76.9043	91.6129	76.9043	88.9688	76.9043	91.365	76.9043	89.0155	76.9043	91.0846	76.9043	89.0956	76.9043	90.7891	76.9043	89.2077	76.9043	90.4947	76.9043	89.3506	76.9043	90.2143	76.9043	89.5234	76.9043	89.9564	76.9043	89.7255
79.834	90.9156	79.834	90.6593	79.834	91.1667	79.834	90.4049	79.834	91.4053	79.834	90.1588	79.834	91.623	79.834	89.9268	79.834	91.8111	79.834	89.7146	79.834	91.9606	79.834	89.5269	79.834	92.0626	79.834	89.3682	79.834	92.1095	79.834	89.2422	79.834	92.0954	79.834	89.1516	79.834	92.0183	79.834	89.0984	79.834	91.8803	79.834	89.0835	79.834	91.6886	79.834	89.1067	79.834	91.4547	79.834	89.1666	79.834	91.1934	79.834	89.2609	79.834	90.9202	79.834	89.3867	79.834	90.6484	79.834	89.5407	79.834	90.3881	79.834	89.7197	79.834	90.1449	79.834	89.9216
82.7637	91.1766	82.7637	90.9306	82.7637	91.4157	82.7637	90.6841	82.7637	91.6407	82.7637	90.4428	82.7637	91.8435	82.7637	90.2119	82.7637	92.0153	82.7637	89.9959	82.7637	92.1466	82.7637	89.7991	82.7637	92.2283	82.7637	89.6252	82.7637	92.252	82.7637	89.4774	82.7637	92.2117	82.7637	89.3587	82.7637	92.1047	82.7637	89.2712	82.7637	91.9333	82.7637	89.2167	82.7637	91.7055	82.7637	89.1965	82.7637	91.4344	82.7637	89.211	82.7637	91.1371	82.7637	89.2603	82.7637	90.8318	82.7637	89.3441	82.7637	90.5351	82.7637	89.4616	82.7637	90.2592	82.7637	89.6122	82.7637	90.0116	82.7637	89.7956
85.6934	91.2985	85.6934	91.0537	85.6934	91.5346	85.6934	90.8065	85.6934	91.7551	85.6934	90.5625	85.6934	91.9517	85.6934	90.3266	85.6934	92.1156	85.6934	90.103	85.6934	92.2373	85.6934	89.8957	85.6934	92.3071	85.6934	89.7083	85.6934	92.3164	85.6934	89.544	85.6934	92.2586	85.6934	89.4054	85.6934	92.1308	85.6934	89.295	85.6934	91.9348	85.6934	89.2148	85.6934	91.6785	85.6934	89.1663	85.6934	91.3758	85.6934	89.1508	85.6934	91.0453	85.6934	89.1696	85.6934	90.7079	85.6934	89.2239	85.6934	90.3836	85.6934	89.3151	85.6934	90.088	85.6934	89.4453	85.6934	89.8309	85.6934	89.6166
88.623	90.9504	88.623	90.692	88.623	91.2074	88.623	90.4393	88.623	91.4551	88.623	90.1987	88.623	91.685	88.623	89.9758	88.623	91.8879	88.623	89.7754	88.623	92.0544	88.623	89.6016	88.623	92.1756	88.623	89.4575	88.623	92.2432	88.623	89.3455	88.623	92.2511	88.623	89.2671	88.623	92.1964	88.623	89.2234	88.623	92.0798	88.623	89.2145	88.623	91.9065	88.623	89.2405	88.623	91.6857	88.623	89.3009	88.623	91.4301	88.623	89.395	88.623	91.1537	88.623	89.5219	88.623	90.8704	88.623	89.6805	88.623	90.5923	88.623	89.8693	88.623	90.3288	88.623	90.0863
91.5527	90.9247	91.5527	90.6781	91.5527	91.1668	91.5527	90.4344	91.5527	91.397	91.5527	90.2005	91.5527	91.6071	91.5527	89.9829	91.5527	91.7891	91.5527	89.7877	91.5527	91.9347	91.5527	89.62	91.5527	92.0367	91.5527	89.4848	91.5527	92.0889	91.5527	89.3855	91.5527	92.0878	91.5527	89.3249	91.5527	92.0329	91.5527	89.3044	91.5527	91.9278	91.5527	89.3241	91.5527	91.7798	91.5527	89.3827	91.5527	91.5992	91.5527	89.4776	91.5527	91.3971	91.5527	89.6048	91.5527	91.1838	91.5527	89.7592	91.5527	90.9668	91.5527	89.935	91.5527	90.7505	91.5527	90.1265	91.5527	90.5372	91.5527	90.3285
94.4824	91.4845	94.4824	91.231	94.4824	91.727	94.4824	90.9734	94.4824	91.9509	94.4824	90.7185	94.4824	92.1485	94.4824	90.4728	94.4824	92.3115	94.4824	90.2426	94.4824	92.4315	94.4824	90.0338	94.4824	92.5007	94.4824	89.8519	94.4824	92.5125	94.4824	89.702	94.4824	92.4629	94.4824	89.5882	94.4824	92.3515	94.4824	89.5137	94.4824	92.1828	94.4824	89.4802	94.4824	91.9663	94.4824	89.4882	94.4824	91.7161	94.4824	89.5361	94.4824	91.4482	94.4824	89.621	94.4824	91.1782	94.4824	89.7387	94.4824	90.9178	94.4824	89.8842	94.4824	90.6738	94.4824	90.0529	94.4824	90.4483	94.4824	90.2414
98.1445	91.5455	98.1445	91.2977	98.1445	91.7837	98.1445	91.0468	98.1445	92.0048	98.1445	90.7992	98.1445	92.201	98.1445	90.5603	98.1445	92.3639	98.1445	90.3356	98.1445	92.4849	98.1445	90.1299	98.1445	92.5557	98.1445	89.9473	98.1445	92.5691	98.1445	89.7919	98.1445	92.5205	98.1445	89.6669	98.1445	92.4085	98.1445	89.5749	98.1445	92.2363	98.1445	89.518	98.1445	92.0122	98.1445	89.4977	98.1445	91.7488	98.1445	89.5146	98.1445	91.4616	98.1445	89.5688	98.1445	91.1667	98.1445	89.6597	98.1445	90.8781	98.1445	89.7858	98.1445	90.6062	98.1445	89.9454	98.1445	90.3578	98.1445	90.1367
101.807	91.6225	101.807	91.3759	101.807	91.8594	101.807	91.1267	101.807	92.0794	101.807	90.8813	101.807	92.2745	101.807	90.6457	101.807	92.4364	101.807	90.4257	101.807	92.557	101.807	90.2264	101.807	92.6283	101.807	90.0525	101.807	92.644	101.807	89.908	101.807	92.6	101.807	89.7963	101.807	92.496	101.807	89.72	101.807	92.336	101.807	89.6809	101.807	92.1284	101.807	89.6795	101.807	91.8858	101.807	89.7159	101.807	91.6227	101.807	89.7886	101.807	91.3532	101.807	89.8954	101.807	91.0888	101.807	90.0335	101.807	90.8375	101.807	90.1996	101.807	90.6038	101.807	90.3905
105.469	91.6966	105.469	91.4519	105.469	91.931	105.469	91.2038	105.469	92.1477	105.469	90.9591	105.469	92.3389	105.469	90.724	105.469	92.4965	105.469	90.5043	105.469	92.6124	105.469	90.3057	105.469	92.6793	105.469	90.1331	105.469	92.6913	105.469	89.9908	105.469	92.645	105.469	89.8824	105.469	92.5405	105.469	89.8106	105.469	92.3826	105.469	89.777	105.469	92.1804	105.469	89.7821	105.469	91.9464	105.469	89.8254	105.469	91.6946	105.469	89.9049	105.469	91.4383	105.469	90.0177	105.469	91.1874	105.469	90.1599	105.469	90.9482	105.469	90.3274	105.469	90.7239	105.469	90.5163
109.131	91.8791	109.131	91.6382	109.131	92.1089	109.131	91.3932	109.131	92.32	109.131	91.1509	109.131	92.5045	109.131	90.9178	109.131	92.6546	109.131	90.6999	109.131	92.7622	109.131	90.5028	109.131	92.8202	109.131	90.3316	109.131	92.8232	109.131	90.1906	109.131	92.7683	109.131	90.0835	109.131	92.6565	109.131	90.0127	109.131	92.4933	109.131	89.9799	109.131	92.2887	109.131	89.9854	109.131	92.056	109.131	90.0282	109.131	91.8096	109.131	90.1061	109.131	91.5623	109.131	90.2156	109.131	91.3233	109.131	90.3525	109.131	91.0974	109.131	90.5122	109.131	90.8865	109.131	90.691
112.793	91.9974	112.793	91.7553	112.793	92.2275	112.793	91.5085	112.793	92.438	112.793	91.2639	112.793	92.621	112.793	91.0281	112.793	92.7687	112.793	90.8076	112.793	92.8731	112.793	90.608	112.793	92.9273	112.793	90.4347	112.793	92.9261	112.793	90.2922	112.793	92.867	112.793	90.1843	112.793	92.7513	112.793	90.1135	112.793	92.585	112.793	90.0814	112.793	92.3785	112.793	90.0882	112.793	92.1454	112.793	90.1325	112.793	91.9003	112.793	90.212	112.793	91.6556	112.793	90.3228	112.793	91.4201	112.793	90.4603	112.793	91.198	112.793	90.6199	112.793	90.9904	112.793	90.7974
116.455	92.1269	116.455	91.8848	116.455	92.3558	116.455	91.6367	116.455	92.5638	116.455	91.3898	116.455	92.7431	116.455	91.1508	116.455	92.8858	116.455	90.9261	116.455	92.9842	116.455	90.7217	116.455	93.0318	116.455	90.543	116.455	93.0236	116.455	90.3948	116.455	92.9576	116.455	90.2809	116.455	92.8357	116.455	90.2042	116.455	92.6643	116.455	90.1665	116.455	92.4543	116.455	90.1682	116.455	92.2193	116.455	90.2085	116.455	91.9736	116.455	90.2851	116.455	91.7293	116.455	90.3942	116.455	91.4942	116.455	90.5312	116.455	91.2721	116.455	90.6913	116.455	91.0639	116.455	90.8698
120.85	92.2838	120.85	92.0506	120.85	92.5034	120.85	91.8112	120.85	92.7014	120.85	91.5733	120.85	92.87	120.85	91.344	120.85	93.0012	120.85	91.13	120.85	93.0878	120.85	90.9377	120.85	93.1233	120.85	90.7726	120.85	93.1036	120.85	90.6393	120.85	93.0278	120.85	90.5413	120.85	92.8992	120.85	90.4806	120.85	92.7259	120.85	90.4579	120.85	92.5206	120.85	90.4726	120.85	92.2985	120.85	90.5223	120.85	92.0742	120.85	90.6032	120.85	91.8589	120.85	90.7104	120.85	91.6582	120.85	90.8384	120.85	91.4725	120.85	90.9816	120.85	91.2993	120.85	91.1359
125.244	92.3308	125.244	92.0848	125.244	92.5621	125.244	91.832	125.244	92.7708	125.244	91.5803	125.244	92.9488	125.244	91.3375	125.244	93.0883	125.244	91.1113	125.244	93.182	125.244	90.9089	125.244	93.2236	125.244	90.737	125.244	93.2089	125.244	90.6014	125.244	93.137	125.244	90.5064	125.244	93.011	125.244	90.4545	125.244	92.8392	125.244	90.4463	125.244	92.6345	125.244	90.4801	125.244	92.4125	125.244	90.5518	125.244	92.1885	125.244	90.6557	125.244	91.9741	125.244	90.7845	125.244	91.7749	125.244	90.9306	125.244	91.5904	125.244	91.0872	125.244	91.4168	125.244	91.2498
129.639	92.5094	129.639	92.2657	129.639	92.7364	129.639	92.0126	129.639	92.939	129.639	91.7576	129.639	93.1097	129.639	91.508	129.639	93.2408	129.639	91.271	129.639	93.3253	129.639	91.0535	129.639	93.3569	129.639	90.8621	129.639	93.3316	129.639	90.7028	129.639	93.2481	129.639	90.5808	129.639	93.1096	129.639	90.4996	129.639	92.9238	129.639	90.4614	129.639	92.7032	129.639	90.4662	129.639	92.4631	129.639	90.5122	129.639	92.2187	129.639	90.5952	129.639	91.982	129.639	90.7097	129.639	91.7595	129.639	90.8489	129.639	91.5527	129.639	91.0066	129.639	91.3595	129.639	91.1776
134.033	92.5902	134.033	92.3445	134.033	92.8187	134.033	92.0892	134.033	93.0221	134.033	91.8321	134.033	93.1928	134.033	91.5805	134.033	93.3232	134.033	91.3419	134.033	93.4063	134.033	91.1234	134.033	93.436	134.033	90.9317	134.033	93.4087	134.033	90.7726	134.033	93.3235	134.033	90.6511	134.033	93.1842	134.033	90.5707	134.033	92.9989	134.033	90.5334	134.033	92.7805	134.033	90.5393	134.033	92.5441	134.033	90.5866	134.033	92.3041	134.033	90.6714	134.033	92.0717	134.033	90.7883	134.033	91.8522	134.033	90.9308	134.033	91.6462	134.033	91.0921	134.033	91.4517	134.033	91.2669
138.428	92.6692	138.428	92.4186	138.428	92.9019	138.428	92.1579	138.428	93.1087	138.428	91.8953	138.428	93.2815	138.428	91.6386	138.428	93.413	138.428	91.3956	138.428	93.496	138.428	91.1739	138.428	93.5249	138.428	90.9803	138.428	93.4962	138.428	90.8211	138.428	93.4101	138.428	90.7014	138.428	93.2707	138.428	90.6249	138.428	93.0872	138.428	90.5935	138.428	92.873	138.428	90.6072	138.428	92.6431	138.428	90.6639	138.428	92.4115	138.428	90.7593	138.428	92.1878	138.428	90.8873	138.428	91.9757	138.428	91.0404	138.428	91.7742	138.428	91.2109	138.428	91.5804	138.428	91.3924
143.555	92.8293	143.555	92.5684	143.555	93.0701	143.555	92.2959	143.555	93.2827	143.555	92.0201	143.555	93.459	143.555	91.7497	143.555	93.5914	143.555	91.4933	143.555	93.673	143.555	91.2592	143.555	93.6981	143.555	91.0554	143.555	93.6636	143.555	90.889	143.555	93.5696	143.555	90.7656	143.555	93.4211	143.555	90.6894	143.555	93.2281	143.555	90.6623	143.555	93.0051	143.555	90.6837	143.555	92.7685	143.555	90.7505	143.555	92.5332	143.555	90.8572	143.555	92.3089	143.555	90.9961	143.555	92.0987	143.555	91.1585	143.555	91.9002	143.555	91.3357	143.555	91.7085	143.555	91.5204
148.682	92.9452	148.682	92.6859	148.682	93.1817	148.682	92.4118	148.682	93.3876	148.682	92.1315	148.682	93.5554	148.682	91.8535	148.682	93.6778	148.682	91.587	148.682	93.7487	148.682	91.3409	148.682	93.7631	148.682	91.1241	148.682	93.7185	148.682	90.9449	148.682	93.6157	148.682	90.8101	148.682	93.4603	148.682	90.7248	148.682	93.2626	148.682	90.6918	148.682	93.0372	148.682	90.7106	148.682	92.8003	148.682	90.7778	148.682	92.5663	148.682	90.887	148.682	92.3443	148.682	91.0296	148.682	92.1367	148.682	91.1956	148.682	91.9403	148.682	91.3756	148.682	91.7499	148.682	91.5617
153.809	93.1424	153.809	92.8964	153.809	93.3642	153.809	92.6334	153.809	93.5544	153.809	92.3611	153.809	93.7063	153.809	92.0872	153.809	93.8131	153.809	91.8197	153.809	93.8688	153.809	91.5668	153.809	93.869	153.809	91.3367	153.809	93.8113	153.809	91.1377	153.809	93.6968	153.809	90.9772	153.809	93.5309	153.809	90.8616	153.809	93.3242	153.809	90.7957	153.809	93.0907	153.809	90.7816	153.809	92.8461	153.809	90.8185	153.809	92.6039	153.809	90.9024	153.809	92.3726	153.809	91.0265	153.809	92.154	153.809	91.1818	153.809	91.946	153.809	91.3586	153.809	91.7446	153.809	91.5481
159.668	93.1882	159.668	92.9393	159.668	93.413	159.668	92.6744	159.668	93.6059	159.668	92.4016	159.668	93.7595	159.668	92.1294	159.668	93.8668	159.668	91.8664	159.668	93.9218	159.668	91.6212	159.668	93.9202	159.668	91.4022	159.668	93.8605	159.668	91.2173	159.668	93.7452	159.668	91.0736	159.668	93.5817	159.668	90.9766	159.668	93.3822	159.668	90.93	159.668	93.1625	159.668	90.9347	159.668	92.9384	159.668	90.9891	159.668	92.7218	159.668	91.0884	159.668	92.5181	159.668	91.2253	159.668	92.3254	159.668	91.3899	159.668	92.1382	159.668	91.5718	159.668	91.9509	159.668	91.7611
164.795	93.274	164.795	93.0256	164.795	93.4973	164.795	92.7603	164.795	93.6873	164.795	92.4865	164.795	93.8368	164.795	92.2131	164.795	93.9386	164.795	91.949	164.795	93.9868	164.795	91.7031	164.795	93.9775	164.795	91.4842	164.795	93.9091	164.795	91.3003	164.795	93.7845	164.795	91.1587	164.795	93.6117	164.795	91.065	164.795	93.4042	164.795	91.0228	164.795	93.1791	164.795	91.0326	164.795	92.954	164.795	91.092	164.795	92.742	164.795	91.1955	164.795	92.5484	164.795	91.3342	164.795	92.3703	164.795	91.4974	164.795	92.1998	164.795	91.6737	164.795	92.0288	164.795	91.853
170.654	93.1958	170.654	92.9505	170.654	93.4157	170.654	92.6882	170.654	93.6024	170.654	92.4177	170.654	93.7482	170.654	92.1481	170.654	93.8464	170.654	91.8889	170.654	93.8914	170.654	91.6495	170.654	93.8793	170.654	91.4392	170.654	93.8094	170.654	91.2666	170.654	93.6852	170.654	91.1391	170.654	93.5158	170.654	91.0618	170.654	93.3155	170.654	91.0375	170.654	93.1023	170.654	91.0655	170.654	92.894	170.654	91.1416	170.654	92.7028	170.654	91.2584	170.654	92.5325	170.654	91.4059	170.654	92.3781	170.654	91.5722	170.654	92.2297	170.654	91.7456	170.654	92.0776	170.654	91.916
176.514	93.229	176.514	92.975	176.514	93.4547	176.514	92.7011	176.514	93.6439	176.514	92.4164	176.514	93.7893	176.514	92.1304	176.514	93.8842	176.514	91.8534	176.514	93.923	176.514	91.5958	176.514	93.9021	176.514	91.3682	176.514	93.8214	176.514	91.1808	176.514	93.685	176.514	91.0424	176.514	93.503	176.514	90.9595	176.514	93.2915	176.514	90.9357	176.514	93.0702	176.514	90.9701	176.514	92.858	176.514	91.0576	176.514	92.6678	176.514	91.1893	176.514	92.5023	176.514	91.3527	176.514	92.3542	176.514	91.5339	176.514	92.2112	176.514	91.7192	176.514	92.0611	176.514	91.8971
183.105	93.2752	183.105	93.0168	183.105	93.5028	183.105	92.7356	183.105	93.692	183.105	92.4402	183.105	93.8358	183.105	92.1396	183.105	93.9276	183.105	91.8438	183.105	93.9621	183.105	91.5633	183.105	93.9355	183.105	91.3094	183.105	93.8474	183.105	91.0933	183.105	93.7017	183.105	90.9259	183.105	93.5082	183.105	90.8161	183.105	93.2824	183.105	90.7695	183.105	93.044	183.105	90.7873	183.105	92.8123	183.105	90.8652	183.105	92.6012	183.105	90.9941	183.105	92.4143	183.105	91.1605	183.105	92.2457	183.105	91.3493	183.105	92.0836	183.105	91.5455	183.105	91.9162	183.105	91.7368
189.697	93.2667	189.697	93.0225	189.697	93.4799	189.697	92.7553	189.697	93.6547	189.697	92.4732	189.697	93.7841	189.697	92.1846	189.697	93.8619	189.697	91.8985	189.697	93.8831	189.697	91.624	189.697	93.845	189.697	91.3707	189.697	93.7483	189.697	91.1484	189.697	93.5983	189.697	90.9673	189.697	93.406	189.697	90.8363	189.697	93.1876	189.697	90.7628	189.697	92.9618	189.697	90.7509	189.697	92.7451	189.697	90.8003	189.697	92.5468	189.697	90.9057	189.697	92.3666	189.697	91.0571	189.697	92.196	189.697	91.2408	189.697	92.0237	189.697	91.4417	189.697	91.8409	189.697	91.6453
196.289	93.2759	196.289	93.0309	196.289	93.4883	196.289	92.7624	196.289	93.66	196.289	92.4798	196.289	93.7834	196.289	92.1932	196.289	93.8521	196.289	91.9129	196.289	93.8613	196.289	91.6498	196.289	93.809	196.289	91.4144	196.289	93.697	196.289	91.2171	196.289	93.533	196.289	91.067	196.289	93.3311	196.289	90.9713	196.289	93.1115	196.289	90.9342	196.289	92.8965	196.289	90.9563	196.289	92.7047	196.289	91.0339	196.289	92.5445	196.289	91.1589	196.289	92.4116	196.289	91.3194	196.289	92.2919	196.289	91.501	196.289	92.1686	196.289	91.6884	196.289	92.0289	196.289	91.8677
202.881	93.3022	202.881	93.0568	202.881	93.5105	202.881	92.7837	202.881	93.6733	202.881	92.4927	202.881	93.7829	202.881	92.1946	202.881	93.8329	202.881	91.9009	202.881	93.8185	202.881	91.6238	202.881	93.738	202.881	91.3758	202.881	93.5942	202.881	91.1693	202.881	93.3964	202.881	91.0155	202.881	93.1621	202.881	90.9228	202.881	92.9161	202.881	90.8956	202.881	92.6864	202.881	90.9333	202.881	92.4964	202.881	91.0292	202.881	92.3558	202.881	91.1716	202.881	92.2575	202.881	91.3446	202.881	92.181	202.881	91.5303	202.881	92.1023	202.881	91.7109	202.881	92.0022	202.881	91.8714
210.205	93.2668	210.205	93.0241	210.205	93.4731	210.205	92.7529	210.205	93.6352	210.205	92.4618	210.205	93.7461	210.205	92.1601	210.205	93.7996	210.205	91.8578	210.205	93.791	210.205	91.566	210.205	93.7179	210.205	91.2969	210.205	93.5825	210.205	91.0632	210.205	93.3929	210.205	90.8781	210.205	93.165	210.205	90.753	210.205	92.9217	210.205	90.6961	210.205	92.6892	210.205	90.7103	210.205	92.489	210.205	90.7916	210.205	92.3305	210.205	90.9295	210.205	92.2073	210.205	91.1078	210.205	92.1011	210.205	91.3076	210.205	91.9901	210.205	91.5094	210.205	91.8577	210.205	91.6965
217.529	93.2151	217.529	92.9665	217.529	93.425	217.529	92.6889	217.529	93.5872	217.529	92.3927	217.529	93.6937	217.529	92.0887	217.529	93.7375	217.529	91.7885	217.529	93.7139	217.529	91.5042	217.529	93.6212	217.529	91.2483	217.529	93.4629	217.529	91.0332	217.529	93.2501	217.529	90.8706	217.529	93.0026	217.529	90.7698	217.529	92.7485	217.529	90.7366	217.529	92.5188	217.529	90.7714	217.529	92.3374	217.529	90.8685	217.529	92.2119	217.529	91.0162	217.529	92.1303	217.529	91.1982	217.529	92.0674	217.529	91.3953	217.529	91.9958	217.529	91.5878	217.529	91.8956	217.529	91.7585
225.586	93.3031	225.586	93.0535	225.586	93.5085	225.586	92.7696	225.586	93.6606	225.586	92.4618	225.586	93.7512	225.586	92.1412	225.586	93.7731	225.586	91.8202	225.586	93.7211	225.586	91.512	225.586	93.5937	225.586	91.2312	225.586	93.3952	225.586	90.9927	225.586	93.1389	225.586	90.8112	225.586	92.8492	225.586	90.6987	225.586	92.5609	225.586	90.6624	225.586	92.3128	225.586	90.7027	225.586	92.1341	225.586	90.8121	225.586	92.0318	225.586	90.9755	225.586	91.9874	225.586	91.1726	225.586	91.966	225.586	91.3805	225.586	91.932	225.586	91.5765	225.586	91.8604	225.586	91.7409
232.91	93.4014	232.91	93.1377	232.91	93.6171	232.91	92.836	232.91	93.7757	232.91	92.5066	232.91	93.8683	232.91	92.1609	232.91	93.887	232.91	91.8115	232.91	93.8253	232.91	91.4726	232.91	93.6798	232.91	91.1602	232.91	93.4525	232.91	90.8918	232.91	93.1549	232.91	90.6849	232.91	92.8111	232.91	90.5547	232.91	92.4602	232.91	90.5105	232.91	92.1501	232.91	90.5527	232.91	91.9233	232.91	90.6718	232.91	91.7973	232.91	90.8488	232.91	91.7556	232.91	91.0586	232.91	91.757	232.91	91.2736	232.91	91.755	232.91	91.4675	232.91	91.7146	232.91	91.6188
241.699	93.3573	241.699	93.0935	241.699	93.5765	241.699	92.7949	241.699	93.7411	241.699	92.472	241.699	93.842	241.699	92.135	241.699	93.8703	241.699	91.795	241.699	93.8189	241.699	91.4638	241.699	93.6833	241.699	91.1544	241.699	93.4641	241.699	90.881	241.699	93.1703	241.699	90.6586	241.699	92.8228	241.699	90.5013	241.699	92.4558	241.699	90.4192	241.699	92.1133	241.699	90.4158	241.699	91.8368	241.699	90.4859	241.699	91.6488	241.699	90.6148	241.699	91.5423	241.699	90.7814	241.699	91.4863	241.699	90.9616	241.699	91.4416	241.699	91.132	241.699	91.3764	241.699	91.2738
249.756	93.4895	249.756	93.2011	249.756	93.7244	249.756	92.8692	249.756	93.8966	249.756	92.5047	249.756	93.9975	249.756	92.1192	249.756	94.0194	249.756	91.726	249.756	93.956	249.756	91.3401	249.756	93.804	249.756	90.9788	249.756	93.5652	249.756	90.6612	249.756	93.2504	249.756	90.4074	249.756	92.8831	249.756	90.2356	249.756	92.5014	249.756	90.158	249.756	92.1532	249.756	90.1772	249.756	91.8819	249.756	90.2843	249.756	91.7074	249.756	90.4599	249.756	91.6161	249.756	90.6775	249.756	91.569	249.756	90.9086	249.756	91.5213	249.756	91.1259	249.756	91.4395	249.756	91.3074
258.545	93.5683	258.545	93.2926	258.545	93.7938	258.545	92.9764	258.545	93.9595	258.545	92.6296	258.545	94.0559	258.545	92.2628	258.545	94.0743	258.545	91.8874	258.545	94.0066	258.545	91.5162	258.545	93.8474	258.545	91.1645	258.545	93.5965	258.545	90.8502	258.545	93.2625	258.545	90.593	258.545	92.8686	258.545	90.4124	258.545	92.4552	258.545	90.3232	258.545	92.0772	258.545	90.3309	258.545	91.788	258.545	90.4289	258.545	91.6158	258.545	90.5977	258.545	91.5479	258.545	90.8094	258.545	91.5389	258.545	91.032	258.545	91.5346	258.545	91.235	258.545	91.4931	258.545	91.3935
268.066	93.4135	268.066	93.1042	268.066	93.67	268.066	92.7515	268.066	93.8646	268.066	92.3652	268.066	93.9887	268.066	91.9553	268.066	94.0338	268.066	91.5328	268.066	93.9922	268.066	91.1104	268.066	93.8579	268.066	90.7034	268.066	93.6289	268.066	90.3306	268.066	93.3102	268.066	90.0144	268.066	92.9193	268.066	89.7785	268.066	92.4893	268.066	89.6432	268.066	92.068	268.066	89.6195	268.066	91.707	268.066	89.7034	268.066	91.441	268.066	89.8755	268.066	91.271	268.066	90.1052	268.066	91.1649	268.066	90.3575	268.066	91.0759	268.066	90.5994	268.066	90.9637	268.066	90.8059
277.588	93.5454	277.588	93.2841	277.588	93.7454	277.588	92.9679	277.588	93.8779	277.588	92.6043	277.588	93.9374	277.588	92.2027	277.588	93.919	277.588	91.7754	277.588	93.819	277.588	91.3395	277.588	93.6367	277.588	90.9177	277.588	93.3769	277.588	90.539	277.588	93.0533	277.588	90.2364	277.588	92.6923	277.588	90.0409	277.588	92.3338	277.588	89.9728	277.588	92.0243	277.588	90.0338	277.588	91.8021	277.588	90.2046	277.588	91.6796	277.588	90.4508	277.588	91.6366	277.588	90.7317	277.588	91.6308	277.588	91.0088	277.588	91.6163	277.588	91.2512	277.588	91.5582	277.588	91.4376
287.109	93.7524	287.109	93.5152	287.109	93.9322	287.109	93.2275	287.109	94.046	287.109	92.895	287.109	94.0847	287.109	92.5218	287.109	94.0391	287.109	92.1117	287.109	93.9015	287.109	91.6707	287.109	93.6675	287.109	91.2095	287.109	93.3398	287.109	90.7475	287.109	92.9336	287.109	90.3155	287.109	92.4829	287.109	89.955	287.109	92.043	287.109	89.7114	287.109	91.6805	287.109	89.6192	287.109	91.4466	287.109	89.6864	287.109	91.3477	287.109	89.8885	287.109	91.3403	287.109	90.1781	287.109	91.3564	287.109	90.5007	287.109	91.3357	287.109	90.8079	287.109	91.2416	287.109	91.0628
297.363	93.6712	297.363	93.4098	297.363	93.8829	297.363	93.1103	297.363	94.0321	297.363	92.782	297.363	94.1053	297.363	92.4309	297.363	94.0893	297.363	92.0596	297.363	93.9714	297.363	91.6688	297.363	93.7411	297.363	91.2591	297.363	93.3935	297.363	90.8355	297.363	92.9354	297.363	90.4114	297.363	92.3951	297.363	90.0117	297.363	91.8306	297.363	89.6739	297.363	91.3277	297.363	89.4411	297.363	90.9708	297.363	89.3487	297.363	90.7937	297.363	89.408	297.363	90.7549	297.363	89.5982	297.363	90.7659	297.363	89.872	297.363	90.7432	297.363	90.1713	297.363	90.6382	297.363	90.4407
307.617	93.5403	307.617	93.2431	307.617	93.7861	307.617	92.908	307.617	93.9671	307.617	92.5489	307.617	94.0703	307.617	92.179	307.617	94.0826	307.617	91.8104	307.617	93.9911	307.617	91.4532	307.617	93.783	307.617	91.1159	307.617	93.449	307.617	90.8067	307.617	92.9883	307.617	90.5346	307.617	92.4184	307.617	90.3109	307.617	91.7875	307.617	90.149	307.617	91.1822	307.617	90.061	307.617	90.7119	307.617	90.0537	307.617	90.4571	307.617	90.1225	307.617	90.414	307.617	90.2495	307.617	90.4988	307.617	90.404	307.617	90.6075	307.617	90.5481	307.617	90.6661	307.617	90.6446
318.604	93.5162	318.604	93.2465	318.604	93.7322	318.604	92.933	318.604	93.884	318.604	92.5845	318.604	93.9606	318.604	92.2088	318.604	93.9502	318.604	91.8128	318.604	93.841	318.604	91.4045	318.604	93.6218	318.604	90.9939	318.604	93.2843	318.604	90.596	318.604	92.828	318.604	90.232	318.604	92.2687	318.604	89.9287	318.604	91.6484	318.604	89.7138	318.604	91.0425	318.604	89.6079	318.604	90.5482	318.604	89.6148	318.604	90.2444	318.604	89.7173	318.604	90.1424	318.604	89.8801	318.604	90.1798	318.604	90.0591	318.604	90.264	318.604	90.2115	318.604	90.3188	318.604	90.3037
329.59	93.3955	329.59	93.0976	329.59	93.6452	329.59	92.7633	329.59	93.8346	329.59	92.4035	329.59	93.952	329.59	92.0278	329.59	93.9858	329.59	91.6437	329.59	93.9241	329.59	91.2574	329.59	93.7556	329.59	90.8758	329.59	93.4708	329.59	90.5085	329.59	93.0657	329.59	90.1708	329.59	92.5492	329.59	89.884	329.59	91.9525	329.59	89.6727	329.59	91.3368	329.59	89.5577	329.59	90.7904	329.59	89.5468	329.59	90.3987	329.59	89.6283	329.59	90.1977	329.59	89.7718	329.59	90.1513	329.59	89.9366	329.59	90.1788	329.59	90.0813	329.59	90.2024	329.59	90.1744
341.309	93.1242	341.309	92.8141	341.309	93.378	341.309	92.4603	341.309	93.5638	341.309	92.0754	341.309	93.6711	341.309	91.6719	341.309	93.6907	341.309	91.261	341.309	93.6142	341.309	90.8535	341.309	93.4349	341.309	90.4609	341.309	93.1492	341.309	90.0974	341.309	92.7605	341.309	89.7814	341.309	92.2856	341.309	89.5349	341.309	91.7607	341.309	89.3796	341.309	91.2444	341.309	89.3289	341.309	90.8066	341.309	89.381	341.309	90.5019	341.309	89.5159	341.309	90.3407	341.309	89.7001	341.309	90.2858	341.309	89.8948	341.309	90.2756	341.309	90.0655	341.309	90.2547	341.309	90.1883
353.76	93.2592	353.76	92.9732	353.76	93.483	353.76	92.6345	353.76	93.6348	353.76	92.2517	353.76	93.7051	353.76	91.8325	353.76	93.6842	353.76	91.3838	353.76	93.5628	353.76	90.913	353.76	93.3327	353.76	90.431	353.76	92.9893	353.76	89.9556	353.76	92.5368	353.76	89.5151	353.76	91.9968	353.76	89.1478	353.76	91.4172	353.76	88.8962	353.76	90.8739	353.76	88.7924	353.76	90.452	353.76	88.8422	353.76	90.2042	353.76	89.0199	353.76	90.1173	353.76	89.2759	353.76	90.1228	353.76	89.5545	353.76	90.1393	353.76	89.8065	353.76	90.107	353.76	89.9968
366.211	93.4008	366.211	93.1107	366.211	93.6303	366.211	92.7722	366.211	93.7861	366.211	92.3952	366.211	93.8549	366.211	91.9865	366.211	93.8238	366.211	91.5496	366.211	93.6798	366.211	91.0869	366.211	93.4117	366.211	90.6031	366.211	93.012	366.211	90.1107	366.211	92.4845	366.211	89.6346	366.211	91.8558	366.211	89.2149	366.211	91.1896	366.211	88.9022	366.211	90.5913	366.211	88.7424	366.211	90.1761	366.211	88.7558	366.211	90.0007	366.211	88.9242	366.211	90.0181	366.211	89.1969	366.211	90.1152	366.211	89.5104	366.211	90.1847	366.211	89.805	366.211	90.1639	366.211	90.0335
378.662	93.2969	378.662	92.9836	378.662	93.5679	378.662	92.6434	378.662	93.7804	378.662	92.289	378.662	93.918	378.662	91.9274	378.662	93.9645	378.662	91.5593	378.662	93.9025	378.662	91.1795	378.662	93.7126	378.662	90.781	378.662	93.3749	378.662	90.3613	378.662	92.8726	378.662	89.9289	378.662	92.2025	378.662	89.5094	378.662	91.3938	378.662	89.1466	378.662	90.5354	378.662	88.8949	378.662	89.7889	378.662	88.7988	378.662	89.3345	378.662	88.8679	378.662	89.2371	378.662	89.0658	378.662	89.384	378.662	89.3224	378.662	89.5893	378.662	89.5579	378.662	89.7151	378.662	89.7034
392.578	92.7088	392.578	92.4084	392.578	92.976	392.578	92.0907	392.578	93.1943	392.578	91.77	392.578	93.3494	392.578	91.4557	392.578	93.4286	392.578	91.1503	392.578	93.4192	392.578	90.8496	392.578	93.3072	392.578	90.5457	392.578	93.0776	392.578	90.2319	392.578	92.7155	392.578	89.9079	392.578	92.2119	392.578	89.5845	392.578	91.5726	392.578	89.2847	392.578	90.8328	392.578	89.0397	392.578	90.0717	392.578	88.8784	392.578	89.4098	392.578	88.8126	392.578	88.9656	392.578	88.8272	392.578	88.7794	392.578	88.8823	392.578	88.7843	392.578	88.928	392.578	88.8638	392.578	88.9248
405.762	92.5054	405.762	92.1531	405.762	92.7973	405.762	91.7639	405.762	93.011	405.762	91.3646	405.762	93.1352	405.762	90.9804	405.762	93.1644	405.762	90.6291	405.762	93.097	405.762	90.3183	405.762	92.9345	405.762	90.0457	405.762	92.6807	405.762	89.8049	405.762	92.3435	405.762	89.5919	405.762	91.9364	405.762	89.41	405.762	91.4816	405.762	89.2702	405.762	91.0097	405.762	89.1863	405.762	90.5577	405.762	89.1661	405.762	90.1638	405.762	89.2039	405.762	89.8591	405.762	89.2793	405.762	89.6574	405.762	89.3633	405.762	89.5488	405.762	89.4309	405.762	89.5009	405.762	89.4725
420.41	92.6831	420.41	92.2885	420.41	92.997	420.41	91.8367	420.41	93.216	420.41	91.3608	420.41	93.3334	420.41	90.8998	420.41	93.3478	420.41	90.4916	420.41	93.2616	420.41	90.1626	420.41	93.0799	420.41	89.9208	420.41	92.8117	420.41	89.756	420.41	92.4708	420.41	89.6481	420.41	92.0778	420.41	89.5772	420.41	91.6587	420.41	89.5298	420.41	91.2399	420.41	89.4993	420.41	90.842	420.41	89.4832	420.41	90.4779	420.41	89.4785	420.41	90.1574	420.41	89.4802	420.41	89.8928	420.41	89.4839	420.41	89.6971	420.41	89.4909	420.41	89.5747	420.41	89.5137
435.059	94.0462	435.059	93.7145	435.059	94.2594	435.059	93.2623	435.059	94.3517	435.059	92.6848	435.059	94.3161	435.059	91.9764	435.059	94.1411	435.059	91.1372	435.059	93.8097	435.059	90.185	435.059	93.3018	435.059	89.1803	435.059	92.6003	435.059	88.2595	435.059	91.7125	435.059	87.6463	435.059	90.7193	435.059	87.5544	435.059	89.8564	435.059	88.0039	435.059	89.5069	435.059	88.8004	435.059	89.8785	435.059	89.711	435.059	90.7189	435.059	90.584	435.059	91.6156	435.059	91.3489	435.059	92.3164	435.059	91.9788	435.059	92.7358	435.059	92.459	435.059	92.8749	435.059	92.7688
450.439	92.978	450.439	92.6832	450.439	93.2327	450.439	92.3659	450.439	93.429	450.439	92.0373	450.439	93.551	450.439	91.6963	450.439	93.586	450.439	91.3278	450.439	93.5217	450.439	90.907	450.439	93.3429	450.439	90.4073	450.439	93.0288	450.439	89.8119	450.439	92.5522	450.439	89.1275	450.439	91.8838	450.439	88.4013	450.439	91.004	450.439	87.7372	450.439	89.9319	450.439	87.2878	450.439	88.7798	450.439	87.1829	450.439	87.8141	450.439	87.4237	450.439	87.3737	450.439	87.8663	450.439	87.5393	450.439	88.3177	450.439	88.0176	450.439	88.6209	450.439	88.4614	450.439	88.6798
466.553	92.6529	466.553	92.3238	466.553	92.9315	466.553	91.9667	466.553	93.1399	466.553	91.6009	466.553	93.2635	466.553	91.2349	466.553	93.2934	466.553	90.8633	466.553	93.2232	466.553	90.4685	466.553	93.046	466.553	90.0301	466.553	92.7531	466.553	89.5364	466.553	92.3341	466.553	88.9977	466.553	91.7821	466.553	88.4572	466.553	91.1036	466.553	87.9942	466.553	90.3327	466.553	87.7044	466.553	89.5475	466.553	87.6505	466.553	88.8725	466.553	87.8134	466.553	88.4387	466.553	88.0967	466.553	88.2981	466.553	88.38	466.553	88.3762	466.553	88.5681	466.553	88.5253	466.553	88.6134
482.666	92.4217	482.666	92.0825	482.666	92.6962	482.666	91.6995	482.666	92.889	482.666	91.293	482.666	92.9891	482.666	90.875	482.666	92.9913	482.666	90.444	482.666	92.8932	482.666	89.9865	482.666	92.6936	482.666	89.4844	482.666	92.3914	482.666	88.9289	482.666	91.9878	482.666	88.3363	482.666	91.4899	482.666	87.7631	482.666	90.9165	482.666	87.3089	482.666	90.3027	482.666	87.087	482.666	89.7021	482.666	87.1548	482.666	89.1839	482.666	87.4615	482.666	88.8173	482.666	87.8771	482.666	88.6381	482.666	88.2661	482.666	88.6163	482.666	88.5377	482.666	88.6597	482.666	88.6599
500.244	92.2373	500.244	91.8395	500.244	92.5589	500.244	91.4073	500.244	92.7735	500.244	90.9838	500.244	92.8639	500.244	90.5968	500.244	92.8234	500.244	90.2444	500.244	92.6524	500.244	89.8947	500.244	92.3549	500.244	89.5009	500.244	91.9396	500.244	89.0235	500.244	91.4254	500.244	88.45	500.244	90.8503	500.244	87.8139	500.244	90.2753	500.244	87.2086	500.244	89.7705	500.244	86.7804	500.244	89.3827	500.244	86.6618	500.244	89.1114	500.244	86.8694	500.244	88.9238	500.244	87.2837	500.244	88.7864	500.244	87.7409	500.244	88.6752	500.244	88.1246	500.244	88.5593	500.244	88.3917
517.822	92.0983	517.822	91.6651	517.822	92.3933	517.822	91.1179	517.822	92.5398	517.822	90.5008	517.822	92.5362	517.822	89.8791	517.822	92.3879	517.822	89.3282	517.822	92.108	517.822	88.9054	517.822	91.7212	517.822	88.6188	517.822	91.269	517.822	88.4239	517.822	90.8108	517.822	88.2522	517.822	90.4101	517.822	88.0496	517.822	90.099	517.822	87.8006	517.822	89.8478	517.822	87.5371	517.822	89.5806	517.822	87.328	517.822	89.2371	517.822	87.2453	517.822	88.8273	517.822	87.3143	517.822	88.4349	517.822	87.4902	517.822	88.1491	517.822	87.6889	517.822	87.9783	517.822	87.8492
536.133	92.5489	536.133	92.112	536.133	92.8298	536.133	91.5343	536.133	92.9438	536.133	90.8381	536.133	92.8821	536.133	90.0562	536.133	92.6375	536.133	89.2354	536.133	92.207	536.133	88.4342	536.133	91.5973	536.133	87.7137	536.133	90.8395	536.133	87.1217	536.133	90.0132	536.133	86.6849	536.133	89.2643	536.133	86.4179	536.133	88.7659	536.133	86.3408	536.133	88.5944	536.133	86.4802	536.133	88.6593	536.133	86.8406	536.133	88.8084	536.133	87.3731	536.133	88.9581	536.133	87.9783	536.133	89.0998	536.133	88.5428	536.133	89.2279	536.133	88.9752	536.133	89.2936	536.133	89.2254
554.443	92.1164	554.443	91.6819	554.443	92.4396	554.443	91.1568	554.443	92.6362	554.443	90.5692	554.443	92.6937	554.443	89.9532	554.443	92.5996	554.443	89.3415	554.443	92.3399	554.443	88.7517	554.443	91.9001	554.443	88.1756	554.443	91.2695	554.443	87.5795	554.443	90.4544	554.443	86.9215	554.443	89.5061	554.443	86.1863	554.443	88.5612	554.443	85.4325	554.443	87.8415	554.443	84.8422	554.443	87.5208	554.443	84.6806	554.443	87.553	554.443	85.0713	554.443	87.7367	554.443	85.8318	554.443	87.9081	554.443	86.6523	554.443	87.9948	554.443	87.3184	554.443	87.9586	554.443	87.7502
574.219	92.1113	574.219	91.6532	574.219	92.436	574.219	91.0739	574.219	92.6192	574.219	90.3948	574.219	92.656	574.219	89.6511	574.219	92.5426	574.219	88.8972	574.219	92.2761	574.219	88.2001	574.219	91.8535	574.219	87.6151	574.219	91.2726	574.219	87.1518	574.219	90.5363	574.219	86.7629	574.219	89.664	574.219	86.3758	574.219	88.7167	574.219	85.9493	574.219	87.8304	574.219	85.5292	574.219	87.2177	574.219	85.2718	574.219	87.0535	574.219	85.3709	574.219	87.297	574.219	85.8743	574.219	87.7054	574.219	86.6096	574.219	88.0231	574.219	87.3305	574.219	88.0926	574.219	87.8556
594.727	92.3656	594.727	91.9465	594.727	92.6365	594.727	91.3882	594.727	92.7557	594.727	90.7066	594.727	92.7239	594.727	89.9251	594.727	92.5442	594.727	89.0757	594.727	92.219	594.727	88.1983	594.727	91.7478	594.727	87.3352	594.727	91.1261	594.727	86.5189	594.727	90.3471	594.727	85.7638	594.727	89.4145	594.727	85.0774	594.727	88.3767	594.727	84.5043	594.727	87.3863	594.727	84.1772	594.727	86.7251	594.727	84.2847	594.727	86.6306	594.727	84.8924	594.727	87.0206	594.727	85.8201	594.727	87.5728	594.727	86.7808	594.727	88.01	594.727	87.5574	594.727	88.1853	594.727	88.038
615.234	92.4931	615.234	92.0614	615.234	92.8114	615.234	91.5322	615.234	93.005	615.234	90.9251	615.234	93.0666	615.234	90.2593	615.234	92.9907	615.234	89.5485	615.234	92.7713	615.234	88.7965	615.234	92.4011	615.234	87.9945	615.234	91.8702	615.234	87.122	615.234	91.17	615.234	86.1477	615.234	90.2996	615.234	85.0407	615.234	89.2764	615.234	83.8127	615.234	88.1474	615.234	82.6452	615.234	87.0176	615.234	82.0664	615.234	86.1289	615.234	82.6337	615.234	85.8622	615.234	84.0638	615.234	86.322	615.234	85.6016	615.234	87.0477	615.234	86.7866	615.234	87.5073	615.234	87.4393
637.207	92.4722	637.207	91.9793	637.207	92.8169	637.207	91.3609	637.207	93.0059	637.207	90.6502	637.207	93.0472	637.207	89.8861	637.207	92.9599	637.207	89.1077	637.207	92.7647	637.207	88.3505	637.207	92.4698	637.207	87.6391	637.207	92.0584	637.207	86.9719	637.207	91.4857	637.207	86.3038	637.207	90.6931	637.207	85.5441	637.207	89.6462	637.207	84.5877	637.207	88.3982	637.207	83.403	637.207	87.1613	637.207	82.2552	637.207	86.2887	637.207	81.9494	637.207	86.0514	637.207	83.0136	637.207	86.3808	637.207	84.6891	637.207	86.9017	637.207	86.1178	637.207	87.1912	637.207	86.9676
659.912	92.2918	659.912	91.7431	659.912	92.7057	659.912	91.0986	659.912	92.965	659.912	90.4182	659.912	93.0654	659.912	89.7727	659.912	93.0171	659.912	89.2202	659.912	92.8452	659.912	88.7778	659.912	92.5891	659.912	88.4106	659.912	92.2936	659.912	88.0438	659.912	91.9845	659.912	87.5793	659.912	91.6311	659.912	86.901	659.912	91.1222	659.912	85.8704	659.912	90.2811	659.912	84.3341	659.912	88.933	659.912	82.2351	659.912	87.0868	659.912	80.2461	659.912	85.4013	659.912	80.5039	659.912	85.1106	659.912	82.7565	659.912	85.8682	659.912	84.8277	659.912	86.3615	659.912	86.0487
683.35	92.0788	683.35	91.4017	683.35	92.5925	683.35	90.5932	683.35	92.9281	683.35	89.7095	683.35	93.0815	683.35	88.8326	683.35	93.0548	683.35	88.0583	683.35	92.8548	683.35	87.4636	683.35	92.4973	683.35	87.0722	683.35	92.0253	683.35	86.8455	683.35	91.5378	683.35	86.7003	683.35	91.1899	683.35	86.5214	683.35	91.0719	683.35	86.166	683.35	91.0313	683.35	85.4816	683.35	90.7138	683.35	84.3693	683.35	89.8077	683.35	82.9986	683.35	88.3047	683.35	82.2493	683.35	86.8269	683.35	83.0735	683.35	86.2724	683.35	84.6576	683.35	86.2679	683.35	85.8397
706.787	92.24	706.787	91.4013	706.787	92.8837	706.787	90.3865	706.787	93.322	706.787	89.2301	706.787	93.5514	706.787	88.0004	706.787	93.5762	706.787	86.8238	706.787	93.4055	706.787	85.8827	706.787	93.0527	706.787	85.3309	706.787	92.5418	706.787	85.16	706.787	91.9306	706.787	85.184	706.787	91.334	706.787	85.1541	706.787	90.8784	706.787	84.8427	706.787	90.559	706.787	84.0597	706.787	90.1817	706.787	82.6964	706.787	89.5444	706.787	81.0449	706.787	88.682	706.787	80.6048	706.787	87.9363	706.787	82.4088	706.787	87.5515	706.787	84.7104	706.787	87.2014	706.787	86.3509
731.689	90.9002	731.689	89.7105	731.689	91.9063	731.689	88.378	731.689	92.7088	731.689	86.9601	731.689	93.3051	731.689	85.5216	731.689	93.7	731.689	84.1283	731.689	93.8945	731.689	82.8568	731.689	93.8809	731.689	81.8216	731.689	93.651	731.689	81.179	731.689	93.2213	731.689	81.0175	731.689	92.6671	731.689	81.1892	731.689	92.1169	731.689	81.3213	731.689	91.6414	731.689	80.9535	731.689	91.1356	731.689	79.5261	731.689	90.4327	731.689	76.1364	731.689	89.5719	731.689	72.0863	731.689	88.8418	731.689	78.0914	731.689	88.3259	731.689	83.157	731.689	87.5913	731.689	86.0536
758.057	85.3831	758.057	85.6078	758.057	85.4773	758.057	85.8634	758.057	86.1231	758.057	86.0151	758.057	87.2108	758.057	86.0612	758.057	88.3963	758.057	86.0387	758.057	89.3936	758.057	85.9443	758.057	90.0619	758.057	85.7256	758.057	90.377	758.057	85.3514	758.057	90.4123	758.057	84.9174	758.057	90.3098	758.057	84.6799	758.057	90.1553	758.057	84.8283	758.057	89.8277	758.057	85.1544	758.057	89.0832	758.057	85.1732	758.057	87.8507	758.057	84.4123	758.057	86.4445	758.057	82.3707	758.057	85.2638	758.057	78.1122	758.057	84.0199	758.057	71.5285	758.057	81.768	758.057	77.1424
784.424	91.3852	784.424	91.4332	784.424	91.0635	784.424	91.2053	784.424	90.518	784.424	90.7428	784.424	89.8429	784.424	90.1267	784.424	89.1419	784.424	89.4679	784.424	88.461	784.424	88.8745	784.424	87.7543	784.424	88.401	784.424	86.9725	784.424	88.0313	784.424	86.2584	784.424	87.7305	784.424	85.971	784.424	87.5056	784.424	86.1181	784.424	87.3838	784.424	86.0468	784.424	87.3063	784.424	85.0952	784.424	87.0759	784.424	83.1373	784.424	86.4302	784.424	81.3298	784.424	85.1443	784.424	81.3347	784.424	83.1719	784.424	81.7784	784.424	81.1239	784.424	81.359	784.424	80.5671
812.256	92.2347	812.256	92.1205	812.256	92.1046	812.256	91.7022	812.256	91.8341	812.256	90.9924	812.256	91.5323	812.256	90.1129	812.256	91.249	812.256	89.3024	812.256	90.9157	812.256	88.778	812.256	90.3446	812.256	88.4914	812.256	89.2949	812.256	88.1631	812.256	87.6339	812.256	87.5847	812.256	85.8913	812.256	86.8504	812.256	85.7271	812.256	86.3944	812.256	86.8981	812.256	86.5318	812.256	87.3905	812.256	86.9143	812.256	86.2792	812.256	86.962	812.256	83.336	812.256	86.3681	812.256	80.4036	812.256	85.1732	812.256	81.406	812.256	83.8878	812.256	82.7867	812.256	83.2324
840.82	93.2555	840.82	93.204	840.82	92.9686	840.82	92.7816	840.82	92.4064	840.82	91.9765	840.82	91.6943	840.82	90.8291	840.82	91.0345	840.82	89.5332	840.82	90.6108	840.82	88.5362	840.82	90.3898	840.82	88.2374	840.82	90.0682	840.82	88.3872	840.82	89.2312	840.82	88.3734	840.82	87.5302	840.82	87.8228	840.82	85.2173	840.82	86.7512	840.82	84.6169	840.82	85.6988	840.82	86.2029	840.82	85.5023	840.82	87.0332	840.82	86.0434	840.82	86.2506	840.82	86.4514	840.82	84.39	840.82	86.2907	840.82	83.2382	840.82	85.617	840.82	83.7216	840.82	84.6926
870.85	93.7747	870.85	93.7217	870.85	93.4944	870.85	93.3098	870.85	92.9192	870.85	92.514	870.85	92.1219	870.85	91.308	870.85	91.2425	870.85	89.6985	870.85	90.4722	870.85	87.8855	870.85	89.8999	870.85	86.5874	870.85	89.347	870.85	86.6335	870.85	88.4793	870.85	87.5234	870.85	87.1693	870.85	88.2307	870.85	86.0252	870.85	88.2974	870.85	86.0783	870.85	87.6577	870.85	86.7118	870.85	86.4971	870.85	86.6983	870.85	85.3734	870.85	85.8171	870.85	85.0631	870.85	84.8928	870.85	85.6001	870.85	85.0953	870.85	86.2519	870.85	85.962	870.85	86.4426
901.611	94.2979	901.611	94.2294	901.611	94.0356	901.611	93.8524	901.611	93.4392	901.611	93.185	901.611	92.5617	901.611	92.2318	901.611	91.5623	901.611	90.9974	901.611	90.7124	901.611	89.5413	901.611	90.221	901.611	88.0864	901.611	89.9433	901.611	87.072	901.611	89.3979	901.611	86.8233	901.611	88.0502	901.611	87.1061	901.611	85.6744	901.611	87.4193	901.611	83.8956	901.611	87.4183	901.611	85.2082	901.611	86.9488	901.611	86.5659	901.611	86.0296	901.611	86.2631	901.611	85.0242	901.611	85.027	901.611	84.7765	901.611	85.0694	901.611	85.5483	901.611	86.0871	901.611	86.2908
933.105	94.7671	933.105	94.5998	933.105	94.5851	933.105	94.1005	933.105	94.0595	933.105	93.2986	933.105	93.2292	933.105	92.2227	933.105	92.1877	933.105	90.9075	933.105	91.106	933.105	89.4405	933.105	90.1905	933.105	88.0428	933.105	89.5052	933.105	87.0594	933.105	88.8403	933.105	86.6977	933.105	87.8764	933.105	86.8096	933.105	86.5487	933.105	87.0754	933.105	85.4848	933.105	87.2017	933.105	85.5433	933.105	86.9585	933.105	86.0772	933.105	86.2568	933.105	85.9714	933.105	85.3852	933.105	85.199	933.105	85.1435	933.105	84.9942	933.105	85.7499	933.105	85.7737	933.105	86.1946
966.064	95.4744	966.064	95.2584	966.064	95.3395	966.064	94.7101	966.064	94.8423	966.064	93.8515	966.064	93.9926	966.064	92.7011	966.064	92.8645	966.064	91.2749	966.064	91.6545	966.064	89.6291	966.064	90.6307	966.064	87.9903	966.064	89.8587	966.064	86.8707	966.064	89.0304	966.064	86.6686	966.064	87.6877	966.064	87.0539	966.064	85.637	966.064	87.4257	966.064	84.0421	966.064	87.4478	966.064	84.9987	966.064	86.9866	966.064	86.477	966.064	86.0075	966.064	86.5422	966.064	84.7986	966.064	85.4955	966.064	84.4927	966.064	85.4633	966.064	85.6524	966.064	86.547	966.064	86.7182
999.756	95.3323	999.756	95.1299	999.756	95.1859	999.756	94.5933	999.756	94.6994	999.756	93.7437	999.756	93.9128	999.756	92.5783	999.756	92.9171	999.756	91.0587	999.756	91.8866	999.756	89.1903	999.756	91.0571	999.756	87.2897	999.756	90.5259	999.756	86.2177	999.756	90.0184	999.756	86.3682	999.756	89.0178	999.756	86.9345	999.756	87.1778	999.756	87.3348	999.756	85.1292	999.756	87.5416	999.756	84.9077	999.756	87.4929	999.756	85.7438	999.756	86.8489	999.756	85.684	999.756	85.3952	999.756	84.9277	999.756	84.0717	999.756	85.0081	999.756	84.6796	999.756	85.8388	999.756	85.8279
1,034.91	94.9001	1,034.91	94.5517	1,034.91	94.9214	1,034.91	93.9139	1,034.91	94.5444	1,034.91	93.0134	1,034.91	93.6877	1,034.91	91.8731	1,034.91	92.3635	1,034.91	90.4769	1,034.91	90.8533	1,034.91	88.7261	1,034.91	89.8006	1,034.91	86.4586	1,034.91	89.6261	1,034.91	83.698	1,034.91	89.7754	1,034.91	81.6772	1,034.91	89.3955	1,034.91	82.5322	1,034.91	88.0691	1,034.91	84.7828	1,034.91	86.3453	1,034.91	86.7065	1,034.91	86.3336	1,034.91	87.9124	1,034.91	87.6418	1,034.91	88.2358	1,034.91	87.8095	1,034.91	87.5612	1,034.91	86.2715	1,034.91	86.1935	1,034.91	85.1217	1,034.91	85.6109	1,034.91	86.0349	1,034.91	86.2312
1,071.53	94.7915	1,071.53	94.4658	1,071.53	94.8502	1,071.53	93.8978	1,071.53	94.6033	1,071.53	93.1266	1,071.53	94.0108	1,071.53	92.2221	1,071.53	93.0792	1,071.53	91.2216	1,071.53	91.9181	1,071.53	90.0187	1,071.53	90.7941	1,071.53	88.3552	1,071.53	90.0437	1,071.53	86.0054	1,071.53	89.635	1,071.53	83.3622	1,071.53	89.0206	1,071.53	82.2208	1,071.53	87.7449	1,071.53	82.8417	1,071.53	86.0526	1,071.53	83.4389	1,071.53	84.9351	1,071.53	83.6836	1,071.53	84.7573	1,071.53	83.8651	1,071.53	85.0409	1,071.53	83.9314	1,071.53	85.403	1,071.53	84.0705	1,071.53	85.7366	1,071.53	84.9228	1,071.53	86.1086	1,071.53	85.9211
1,109.62	95.0504	1,109.62	94.7257	1,109.62	95.0837	1,109.62	94.1303	1,109.62	94.7965	1,109.62	93.2808	1,109.62	94.1675	1,109.62	92.2344	1,109.62	93.2036	1,109.62	91.123	1,109.62	91.9772	1,109.62	90.0613	1,109.62	90.7046	1,109.62	88.9727	1,109.62	89.7214	1,109.62	87.6315	1,109.62	89.0676	1,109.62	85.9843	1,109.62	88.2564	1,109.62	84.5158	1,109.62	86.8423	1,109.62	83.998	1,109.62	85.1119	1,109.62	84.3236	1,109.62	84.5792	1,109.62	84.7565	1,109.62	85.4356	1,109.62	84.7471	1,109.62	85.3061	1,109.62	83.9062	1,109.62	82.9297	1,109.62	82.5113	1,109.62	81.4455	1,109.62	82.6516	1,109.62	83.5673	1,109.62	83.9728
1,148.44	94.9388	1,148.44	94.5844	1,148.44	94.931	1,148.44	93.9183	1,148.44	94.5548	1,148.44	93.0342	1,148.44	93.819	1,148.44	92.0006	1,148.44	92.7656	1,148.44	90.8213	1,148.44	91.5435	1,148.44	89.5179	1,148.44	90.4607	1,148.44	88.2456	1,148.44	89.7693	1,148.44	87.2047	1,148.44	89.1335	1,148.44	86.3549	1,148.44	87.7111	1,148.44	85.4928	1,148.44	85.075	1,148.44	84.6757	1,148.44	83.537	1,148.44	84.2703	1,148.44	85.3287	1,148.44	84.3392	1,148.44	86.4974	1,148.44	84.2954	1,148.44	85.7056	1,148.44	83.435	1,148.44	82.9122	1,148.44	81.5237	1,148.44	79.3951	1,148.44	79.9144	1,148.44	79.4735	1,148.44	80.027
1,189.45	94.5585	1,189.45	94.0893	1,189.45	94.6383	1,189.45	93.2942	1,189.45	94.3166	1,189.45	92.3005	1,189.45	93.6145	1,189.45	91.2664	1,189.45	92.5675	1,189.45	90.275	1,189.45	91.2383	1,189.45	89.2443	1,189.45	89.8566	1,189.45	88.0198	1,189.45	89.0018	1,189.45	86.6393	1,189.45	88.9022	1,189.45	85.5304	1,189.45	88.6343	1,189.45	85.1254	1,189.45	87.1825	1,189.45	85.2217	1,189.45	84.1142	1,189.45	85.4156	1,189.45	81.7627	1,189.45	85.5648	1,189.45	84.2086	1,189.45	85.5111	1,189.45	85.9161	1,189.45	84.9218	1,189.45	84.9091	1,189.45	83.6873	1,189.45	81.9886	1,189.45	82.5393	1,189.45	81.2524	1,189.45	82.0651
1,231.2	94.8028	1,231.2	94.4417	1,231.2	94.7317	1,231.2	93.6441	1,231.2	94.2837	1,231.2	92.5035	1,231.2	93.5013	1,231.2	91.1989	1,231.2	92.3857	1,231.2	89.9133	1,231.2	90.9407	1,231.2	88.7344	1,231.2	89.4192	1,231.2	87.6539	1,231.2	88.7325	1,231.2	86.6723	1,231.2	89.1079	1,231.2	85.8712	1,231.2	88.989	1,231.2	85.3731	1,231.2	87.1387	1,231.2	85.2895	1,231.2	83.8816	1,231.2	85.6861	1,231.2	84.3592	1,231.2	86.3473	1,231.2	86.8537	1,231.2	86.6649	1,231.2	87.4921	1,231.2	85.9612	1,231.2	85.9892	1,231.2	83.9135	1,231.2	83.3464	1,231.2	82.0085	1,231.2	82.9276	1,231.2	82.6599
1,274.41	95.7196	1,274.41	95.8733	1,274.41	95.0142	1,274.41	95.4237	1,274.41	93.8962	1,274.41	94.4363	1,274.41	92.5548	1,274.41	93.072	1,274.41	91.1722	1,274.41	91.5095	1,274.41	89.7783	1,274.41	89.8779	1,274.41	88.2785	1,274.41	88.3466	1,274.41	87.2308	1,274.41	87.1905	1,274.41	87.7097	1,274.41	86.3858	1,274.41	88.3564	1,274.41	85.5471	1,274.41	87.3885	1,274.41	84.8334	1,274.41	84.4402	1,274.41	85.2039	1,274.41	82.2824	1,274.41	86.4645	1,274.41	84.0024	1,274.41	87.3213	1,274.41	85.3789	1,274.41	87.0906	1,274.41	84.5687	1,274.41	85.6334	1,274.41	81.3167	1,274.41	83.3953	1,274.41	79.9733	1,274.41	81.5315
1,319.82	96.1109	1,319.82	96.2318	1,319.82	95.5464	1,319.82	95.8405	1,319.82	94.6329	1,319.82	94.9236	1,319.82	93.5293	1,319.82	93.5754	1,319.82	92.3823	1,319.82	91.9442	1,319.82	91.0869	1,319.82	90.0532	1,319.82	89.2626	1,319.82	87.8209	1,319.82	86.7208	1,319.82	85.7159	1,319.82	84.606	1,319.82	85.0214	1,319.82	84.3429	1,319.82	85.3928	1,319.82	84.0259	1,319.82	85.513	1,319.82	81.9248	1,319.82	85.4292	1,319.82	78.5392	1,319.82	85.9022	1,319.82	81.4875	1,319.82	86.6122	1,319.82	85.2914	1,319.82	86.5248	1,319.82	85.6974	1,319.82	85.3143	1,319.82	82.7054	1,319.82	83.7901	1,319.82	80.7468	1,319.82	82.5967
1,365.97	96.2153	1,365.97	96.2219	1,365.97	95.8461	1,365.97	95.7569	1,365.97	95.1644	1,365.97	94.729	1,365.97	94.1957	1,365.97	93.2003	1,365.97	92.9775	1,365.97	91.4502	1,365.97	91.4628	1,365.97	89.6603	1,365.97	89.4141	1,365.97	87.4339	1,365.97	86.5632	1,365.97	84.3672	1,365.97	83.7909	1,365.97	82.3643	1,365.97	83.7322	1,365.97	83.5684	1,365.97	84.2699	1,365.97	84.6914	1,365.97	82.1672	1,365.97	84.7343	1,365.97	77.6259	1,365.97	84.8749	1,365.97	82.3069	1,365.97	85.8387	1,365.97	85.0828	1,365.97	86.4421	1,365.97	85.2378	1,365.97	85.8694	1,365.97	84.0463	1,365.97	84.5221	1,365.97	82.8348	1,365.97	83.3273
1,414.31	95.4511	1,414.31	95.1087	1,414.31	95.4724	1,414.31	94.41	1,414.31	95.1231	1,414.31	93.242	1,414.31	94.4221	1,414.31	91.5852	1,414.31	93.4391	1,414.31	89.6295	1,414.31	92.1191	1,414.31	87.5957	1,414.31	90.3004	1,414.31	85.268	1,414.31	88.0184	1,414.31	82.1157	1,414.31	86.0469	1,414.31	78.4798	1,414.31	85.3372	1,414.31	77.8855	1,414.31	85.026	1,414.31	80.0662	1,414.31	83.7328	1,414.31	81.6338	1,414.31	80.5646	1,414.31	82.688	1,414.31	79.6168	1,414.31	83.6412	1,414.31	83.7765	1,414.31	83.8215	1,414.31	84.9708	1,414.31	82.811	1,414.31	83.56	1,414.31	81.9626	1,414.31	82.6955	1,414.31	82.4811
1,464.11	94.7454	1,464.11	93.9913	1,464.11	95.0561	1,464.11	92.9757	1,464.11	94.7752	1,464.11	91.6259	1,464.11	94.0203	1,464.11	89.7392	1,464.11	93.0397	1,464.11	87.4481	1,464.11	91.9173	1,464.11	85.6697	1,464.11	90.4504	1,464.11	84.7828	1,464.11	88.3468	1,464.11	83.4602	1,464.11	85.7798	1,464.11	80.4357	1,464.11	84.1856	1,464.11	75.802	1,464.11	84.6551	1,464.11	75.8762	1,464.11	85.2189	1,464.11	78.1595	1,464.11	83.1221	1,464.11	80.0336	1,464.11	77.0936	1,464.11	82.034	1,464.11	82.5449	1,464.11	82.8744	1,464.11	84.062	1,464.11	81.6151	1,464.11	80.7278	1,464.11	79.1443	1,464.11	78.9672	1,464.11	79.1762
1,515.38	94.3096	1,515.38	92.9986	1,515.38	94.9606	1,515.38	91.5058	1,515.38	94.7636	1,515.38	90.1437	1,515.38	93.847	1,515.38	88.5252	1,515.38	92.5065	1,515.38	85.9762	1,515.38	91.0731	1,515.38	82.9769	1,515.38	89.6103	1,515.38	81.8686	1,515.38	87.693	1,515.38	81.8536	1,515.38	85.0659	1,515.38	80.7351	1,515.38	82.9356	1,515.38	78.4222	1,515.38	82.7042	1,515.38	77.1763	1,515.38	82.9971	1,515.38	76.4847	1,515.38	82.4449	1,515.38	74.4554	1,515.38	80.1143	1,515.38	76.8761	1,515.38	81.2114	1,515.38	80.3106	1,515.38	83.2681	1,515.38	80.5359	1,515.38	80.6336	1,515.38	77.4996	1,515.38	75.5935	1,515.38	74.45
1,568.85	93.8977	1,568.85	92.4521	1,568.85	94.7566	1,568.85	90.6778	1,568.85	94.8638	1,568.85	88.7861	1,568.85	94.1803	1,568.85	86.6156	1,568.85	92.7126	1,568.85	83.4059	1,568.85	90.6679	1,568.85	78.8884	1,568.85	88.5541	1,568.85	76.4145	1,568.85	86.5204	1,568.85	77.7211	1,568.85	84.1205	1,568.85	77.7223	1,568.85	81.569	1,568.85	76.2551	1,568.85	80.8926	1,568.85	78.0184	1,568.85	81.7471	1,568.85	79.3258	1,568.85	81.5466	1,568.85	77.1683	1,568.85	80.0735	1,568.85	72.827	1,568.85	80.702	1,568.85	76.992	1,568.85	82.6838	1,568.85	78.8425	1,568.85	81.3788	1,568.85	76.7569	1,568.85	77.1558	1,568.85	74.539
1,624.51	93.0199	1,624.51	91.2112	1,624.51	94.2728	1,624.51	88.8045	1,624.51	94.7906	1,624.51	85.6582	1,624.51	94.3875	1,624.51	82.4395	1,624.51	92.9181	1,624.51	80.5607	1,624.51	90.4614	1,624.51	79.1835	1,624.51	87.7426	1,624.51	75.2742	1,624.51	85.87	1,624.51	74.2779	1,624.51	84.7271	1,624.51	77.1647	1,624.51	83.5688	1,624.51	74.0372	1,624.51	82.8997	1,624.51	70.8713	1,624.51	83.3217	1,624.51	77.4454	1,624.51	82.895	1,624.51	78.6516	1,624.51	79.8978	1,624.51	74.5729	1,624.51	79.7666	1,624.51	68.1707	1,624.51	82.756	1,624.51	73.7698	1,624.51	81.4965	1,624.51	74.2262	1,624.51	77.0225	1,624.51	73.4303
1,681.64	92.2504	1,681.64	90.9053	1,681.64	93.1467	1,681.64	89.1323	1,681.64	93.703	1,681.64	87.264	1,681.64	93.7001	1,681.64	85.5885	1,681.64	92.6525	1,681.64	84.2215	1,681.64	90.2625	1,681.64	83.1637	1,681.64	86.8177	1,681.64	80.9989	1,681.64	84.0157	1,681.64	76.8843	1,681.64	83.6181	1,681.64	77.137	1,681.64	83.7177	1,681.64	77.5844	1,681.64	82.7048	1,681.64	73.217	1,681.64	82.4375	1,681.64	73.6322	1,681.64	83.3763	1,681.64	77.9143	1,681.64	80.2194	1,681.64	78.2838	1,681.64	78.0979	1,681.64	75.0716	1,681.64	81.3092	1,681.64	71.3551	1,681.64	79.9206	1,681.64	73.554	1,681.64	76.3284	1,681.64	74.4616
1,740.97	92.2569	1,740.97	91.0198	1,740.97	92.9005	1,740.97	89.4742	1,740.97	93.0132	1,740.97	87.9656	1,740.97	92.6054	1,740.97	86.1408	1,740.97	91.3435	1,740.97	83.5577	1,740.97	88.7969	1,740.97	81.5562	1,740.97	84.7074	1,740.97	80.5769	1,740.97	79.5522	1,740.97	78.6459	1,740.97	76.9773	1,740.97	77.6449	1,740.97	78.2386	1,740.97	78.1802	1,740.97	78.9689	1,740.97	76.3104	1,740.97	78.0408	1,740.97	72.9007	1,740.97	78.7582	1,740.97	74.6479	1,740.97	77.293	1,740.97	77.3069	1,740.97	76.8334	1,740.97	76.9892	1,740.97	79.0515	1,740.97	73.7139	1,740.97	78.4183	1,740.97	69.2278	1,740.97	74.3354	1,740.97	68.7013
1,802.49	93.1041	1,802.49	92.2331	1,802.49	92.9416	1,802.49	90.2192	1,802.49	92.0428	1,802.49	87.3602	1,802.49	90.6507	1,802.49	84.1425	1,802.49	88.6934	1,802.49	80.2468	1,802.49	85.6265	1,802.49	76.3134	1,802.49	80.4986	1,802.49	76.4205	1,802.49	72.5017	1,802.49	77.529	1,802.49	66.0604	1,802.49	78.0087	1,802.49	66.0461	1,802.49	78.3592	1,802.49	71.7107	1,802.49	77.7773	1,802.49	71.496	1,802.49	75.6095	1,802.49	67.7145	1,802.49	72.8797	1,802.49	65.1305	1,802.49	72.3781	1,802.49	69.9769	1,802.49	71.2252	1,802.49	74.2328	1,802.49	70.6284	1,802.49	75.9447	1,802.49	73.8867	1,802.49	75.2832	1,802.49	75.0772
1,866.21	93.3359	1,866.21	92.4221	1,866.21	93.0246	1,866.21	89.9604	1,866.21	91.5814	1,866.21	85.5883	1,866.21	88.7924	1,866.21	78.9338	1,866.21	84.6338	1,866.21	67.7079	1,866.21	81.0321	1,866.21	64.8947	1,866.21	79.3874	1,866.21	73.5321	1,866.21	77.058	1,866.21	76.3577	1,866.21	75.5571	1,866.21	77.5256	1,866.21	75.6969	1,866.21	78.1256	1,866.21	74.8278	1,866.21	78.1072	1,866.21	73.673	1,866.21	77.0963	1,866.21	73.0187	1,866.21	74.8154	1,866.21	71.5095	1,866.21	70.4182	1,866.21	68.4467	1,866.21	58.7457	1,866.21	70.6096	1,866.21	65.1706	1,866.21	75.3874	1,866.21	72.9287	1,866.21	77.0756	1,866.21	76.1154
1,932.13	92.4723	1,932.13	91.5773	1,932.13	92.1483	1,932.13	89.5802	1,932.13	90.4844	1,932.13	86.3994	1,932.13	87.2851	1,932.13	81.2806	1,932.13	82.4003	1,932.13	71.7948	1,932.13	80.0865	1,932.13	62.5682	1,932.13	82.1416	1,932.13	73.0344	1,932.13	81.7106	1,932.13	76.1316	1,932.13	78.7041	1,932.13	76.8751	1,932.13	78.6048	1,932.13	76.9094	1,932.13	80.0579	1,932.13	76.0633	1,932.13	78.585	1,932.13	74.6179	1,932.13	75.6373	1,932.13	74.0099	1,932.13	74.5797	1,932.13	71.3515	1,932.13	73.5938	1,932.13	48.0634	1,932.13	70.3125	1,932.13	70.1184	1,932.13	70.3173	1,932.13	73.1391	1,932.13	75.4385	1,932.13	74.8416
2,000.24	92.578	2,000.24	91.7253	2,000.24	92.0163	2,000.24	89.8263	2,000.24	89.5548	2,000.24	86.6733	2,000.24	84.9227	2,000.24	81.0683	2,000.24	81.0123	2,000.24	72.8916	2,000.24	83.038	2,000.24	75.9503	2,000.24	84.9234	2,000.24	77.6223	2,000.24	84.4926	2,000.24	77.0836	2,000.24	81.7223	2,000.24	75.8268	2,000.24	80.032	2,000.24	74.9931	2,000.24	80.5801	2,000.24	74.4239	2,000.24	80.4259	2,000.24	73.7863	2,000.24	79.6881	2,000.24	74.7356	2,000.24	76.8347	2,000.24	74.5051	2,000.24	75.2692	2,000.24	66.4306	2,000.24	70.6296	2,000.24	69.1027	2,000.24	68.59	2,000.24	75.5288	2,000.24	76.5641	2,000.24	76.8105
2,070.56	93.389	2,070.56	92.8555	2,070.56	92.461	2,070.56	90.8538	2,070.56	89.6319	2,070.56	87.0301	2,070.56	84.5003	2,070.56	81.1083	2,070.56	81.9752	2,070.56	77.4204	2,070.56	84.6669	2,070.56	78.6942	2,070.56	86.1067	2,070.56	78.9319	2,070.56	85.779	2,070.56	78.7026	2,070.56	83.5363	2,070.56	78.3155	2,070.56	80.877	2,070.56	78.1353	2,070.56	80.2582	2,070.56	78.1346	2,070.56	79.7646	2,070.56	76.0787	2,070.56	80.0739	2,070.56	71.9061	2,070.56	78.0797	2,070.56	72.7191	2,070.56	74.3393	2,070.56	72.3951	2,070.56	68.8596	2,070.56	70.4859	2,070.56	71.9594	2,070.56	73.7372	2,070.56	78.5707	2,070.56	77.2182
2,143.8	93.3074	2,143.8	92.9197	2,143.8	92.0736	2,143.8	90.6576	2,143.8	88.8237	2,143.8	86.0423	2,143.8	83.0794	2,143.8	80.4277	2,143.8	84.3991	2,143.8	80.2553	2,143.8	87.5312	2,143.8	81.0282	2,143.8	87.9137	2,143.8	80.611	2,143.8	86.7681	2,143.8	80.1802	2,143.8	84.3795	2,143.8	80.0524	2,143.8	81.586	2,143.8	79.647	2,143.8	81.3582	2,143.8	79.0333	2,143.8	80.424	2,143.8	78.0172	2,143.8	78.2259	2,143.8	77.1944	2,143.8	77.763	2,143.8	76.5587	2,143.8	71.8545	2,143.8	72.914	2,143.8	70.0414	2,143.8	73.9846	2,143.8	70.3677	2,143.8	76.7485	2,143.8	78.0705	2,143.8	76.4439
2,219.24	93.2818	2,219.24	92.6782	2,219.24	92.1337	2,219.24	90.2188	2,219.24	88.9031	2,219.24	86.7263	2,219.24	83.4375	2,219.24	85.0299	2,219.24	85.5754	2,219.24	83.9644	2,219.24	89.245	2,219.24	82.4266	2,219.24	89.7721	2,219.24	81.9134	2,219.24	87.7716	2,219.24	82.7185	2,219.24	84.2991	2,219.24	82.8825	2,219.24	81.8539	2,219.24	80.4553	2,219.24	81.762	2,219.24	78.1153	2,219.24	82.615	2,219.24	79.2533	2,219.24	81.654	2,219.24	78.5709	2,219.24	77.0232	2,219.24	76.6482	2,219.24	71.1794	2,219.24	74.9516	2,219.24	65.9746	2,219.24	71.1397	2,219.24	68.4603	2,219.24	75.7579	2,219.24	74.849	2,219.24	75.8026
2,297.61	94.1159	2,297.61	92.966	2,297.61	92.9707	2,297.61	90.3605	2,297.61	89.0362	2,297.61	88.1218	2,297.61	84.3159	2,297.61	86.6185	2,297.61	86.9349	2,297.61	84.1416	2,297.61	89.6633	2,297.61	81.8422	2,297.61	90.8403	2,297.61	81.7437	2,297.61	90.3161	2,297.61	82.6136	2,297.61	87.1591	2,297.61	83.3763	2,297.61	81.0809	2,297.61	83.0153	2,297.61	82.0046	2,297.61	80.8958	2,297.61	83.2946	2,297.61	77.524	2,297.61	83.8834	2,297.61	79.0485	2,297.61	82.5539	2,297.61	80.4159	2,297.61	67.0427	2,297.61	76.9359	2,297.61	68.4474	2,297.61	74.242	2,297.61	73.2334	2,297.61	76.6014	2,297.61	78.9627	2,297.61	76.834
2,378.17	94.5894	2,378.17	93.5869	2,378.17	93.4786	2,378.17	91.4227	2,378.17	89.3413	2,378.17	88.6768	2,378.17	84.1388	2,378.17	85.4361	2,378.17	87.761	2,378.17	84.4736	2,378.17	90.1878	2,378.17	85.6493	2,378.17	90.6778	2,378.17	85.3571	2,378.17	89.9311	2,378.17	83.3046	2,378.17	87.5073	2,378.17	80.6499	2,378.17	82.6972	2,378.17	79.504	2,378.17	80.8617	2,378.17	80.1793	2,378.17	82.2184	2,378.17	79.8422	2,378.17	83.1291	2,378.17	76.5657	2,378.17	83.8826	2,378.17	77.631	2,378.17	74.5093	2,378.17	78.7809	2,378.17	63.3012	2,378.17	75.4226	2,378.17	75.3448	2,378.17	77.8495	2,378.17	79.3864	2,378.17	78.0616
2,462.4	94.2613	2,462.4	93.9216	2,462.4	92.9875	2,462.4	91.3655	2,462.4	89.9395	2,462.4	88.3717	2,462.4	85.8261	2,462.4	88.2544	2,462.4	88.004	2,462.4	87.6161	2,462.4	90.5539	2,462.4	85.8288	2,462.4	90.8685	2,462.4	84.5793	2,462.4	89.5547	2,462.4	84.1608	2,462.4	86.444	2,462.4	83.2574	2,462.4	81.3429	2,462.4	81.1411	2,462.4	82.0119	2,462.4	80.2586	2,462.4	83.0534	2,462.4	80.2906	2,462.4	83.5279	2,462.4	78.522	2,462.4	82.2376	2,462.4	79.0877	2,462.4	75.7344	2,462.4	78.9552	2,462.4	67.6619	2,462.4	76.1991	2,462.4	72.8095	2,462.4	78.049	2,462.4	77.9076	2,462.4	77.3112
2,548.83	93.9254	2,548.83	92.4788	2,548.83	92.9717	2,548.83	90.5074	2,548.83	89.2919	2,548.83	90.0154	2,548.83	86.6943	2,548.83	89.0896	2,548.83	88.908	2,548.83	87.0667	2,548.83	90.5	2,548.83	85.4022	2,548.83	90.5545	2,548.83	83.8542	2,548.83	89.2471	2,548.83	81.6232	2,548.83	86.5191	2,548.83	80.1787	2,548.83	82.0752	2,548.83	79.67	2,548.83	80.4456	2,548.83	79.1842	2,548.83	80.7577	2,548.83	79.1719	2,548.83	81.7858	2,548.83	77.8874	2,548.83	82.6702	2,548.83	78.0189	2,548.83	74.9957	2,548.83	78.3118	2,548.83	68.3512	2,548.83	74.9975	2,548.83	73.0369	2,548.83	76.2214	2,548.83	78.5077	2,548.83	77.1201
2,638.92	93.3246	2,638.92	92.2116	2,638.92	92.925	2,638.92	91.1701	2,638.92	89.8048	2,638.92	90.2059	2,638.92	86.3638	2,638.92	88.7793	2,638.92	88.7594	2,638.92	87.4358	2,638.92	90.1923	2,638.92	86.3285	2,638.92	90.048	2,638.92	84.9982	2,638.92	88.8448	2,638.92	83.4229	2,638.92	85.2709	2,638.92	82.2263	2,638.92	76.7499	2,638.92	80.8414	2,638.92	76.9471	2,638.92	78.3865	2,638.92	79.8331	2,638.92	77.8954	2,638.92	79.3919	2,638.92	77.423	2,638.92	80.4919	2,638.92	76.9914	2,638.92	75.5189	2,638.92	78.1044	2,638.92	55.5142	2,638.92	75.7403	2,638.92	72.2497	2,638.92	76.1324	2,638.92	77.3956	2,638.92	75.4186
2,731.93	92.8203	2,731.93	92.5865	2,731.93	92.6464	2,731.93	91.6614	2,731.93	90.6088	2,731.93	89.9867	2,731.93	87.1079	2,731.93	89.0193	2,731.93	88.5708	2,731.93	88.1561	2,731.93	90.0309	2,731.93	85.9864	2,731.93	89.4764	2,731.93	83.2987	2,731.93	88.518	2,731.93	81.4804	2,731.93	86.0653	2,731.93	79.9861	2,731.93	79.0182	2,731.93	78.7306	2,731.93	68.1962	2,731.93	77.5963	2,731.93	75.3111	2,731.93	76.6572	2,731.93	79.3723	2,731.93	75.609	2,731.93	78.373	2,731.93	75.1081	2,731.93	70.5615	2,731.93	76.9465	2,731.93	58.5213	2,731.93	75.4923	2,731.93	74.6361	2,731.93	76.0874	2,731.93	75.874	2,731.93	75.7103
2,828.61	93.206	2,828.61	92.7696	2,828.61	92.7051	2,828.61	91.5868	2,828.61	91.3942	2,828.61	90.6923	2,828.61	88.9446	2,828.61	89.0672	2,828.61	88.8016	2,828.61	86.3222	2,828.61	90.1805	2,828.61	84.2662	2,828.61	89.376	2,828.61	82.2387	2,828.61	87.3199	2,828.61	79.0348	2,828.61	84.931	2,828.61	77.7111	2,828.61	80.7275	2,828.61	78.5231	2,828.61	71.5851	2,828.61	78.4168	2,828.61	75.8943	2,828.61	77.6835	2,828.61	79.3247	2,828.61	76.6274	2,828.61	79.4508	2,828.61	75.5864	2,828.61	69.7502	2,828.61	76.5947	2,828.61	66.6799	2,828.61	75.8118	2,828.61	74.6584	2,828.61	76.1088	2,828.61	75.7167	2,828.61	76.3068
2,928.22	93.2987	2,928.22	92.5228	2,928.22	92.9557	2,928.22	91.8529	2,928.22	91.85	2,928.22	91.2242	2,928.22	90.3602	2,928.22	89.3299	2,928.22	89.3924	2,928.22	86.7132	2,928.22	89.8167	2,928.22	83.6915	2,928.22	89.0624	2,928.22	81.6754	2,928.22	86.5048	2,928.22	82.2605	2,928.22	84.5276	2,928.22	82.0133	2,928.22	83.7961	2,928.22	80.7484	2,928.22	79.2045	2,928.22	78.4756	2,928.22	75.9461	2,928.22	77.0508	2,928.22	78.5551	2,928.22	76.4352	2,928.22	77.8502	2,928.22	74.7366	2,928.22	72.652	2,928.22	76.0467	2,928.22	71.651	2,928.22	73.7554	2,928.22	76.0719	2,928.22	74.2649	2,928.22	75.5783	2,928.22	76.676
3,031.49	93.0211	3,031.49	92.4508	3,031.49	93.3408	3,031.49	92.1688	3,031.49	92.4011	3,031.49	91.1889	3,031.49	91.0654	3,031.49	89.2032	3,031.49	90.5889	3,031.49	85.4836	3,031.49	90.4992	3,031.49	83.1042	3,031.49	89.5171	3,031.49	84.4701	3,031.49	87.0935	3,031.49	83.6218	3,031.49	84.9414	3,031.49	80.5272	3,031.49	84.4114	3,031.49	79.8229	3,031.49	80.8324	3,031.49	80.1861	3,031.49	70.516	3,031.49	79.4298	3,031.49	76.3454	3,031.49	78.2764	3,031.49	75.4912	3,031.49	76.2035	3,031.49	71.9738	3,031.49	76.617	3,031.49	70.7762	3,031.49	76.5576	3,031.49	74.3102	3,031.49	74.5389	3,031.49	75.6046	3,031.49	77.0275
3,138.43	92.9156	3,138.43	93.1039	3,138.43	93.3485	3,138.43	92.6972	3,138.43	93.2509	3,138.43	90.941	3,138.43	91.471	3,138.43	87.8636	3,138.43	90.502	3,138.43	86.3912	3,138.43	91.2137	3,138.43	86.5887	3,138.43	90.664	3,138.43	84.7849	3,138.43	88.346	3,138.43	83.1918	3,138.43	85.3249	3,138.43	82.679	3,138.43	84.0434	3,138.43	81.7142	3,138.43	82.308	3,138.43	80.5563	3,138.43	75.9652	3,138.43	79.1974	3,138.43	72.2473	3,138.43	79.5371	3,138.43	75.6697	3,138.43	78.087	3,138.43	75.7115	3,138.43	77.4909	3,138.43	69.4351	3,138.43	77.0897	3,138.43	73.1834	3,138.43	74.8847	3,138.43	76.7897	3,138.43	76.4301
3,249.02	92.9655	3,249.02	92.8777	3,249.02	92.9407	3,249.02	92.8431	3,249.02	93.0542	3,249.02	91.2323	3,249.02	92.0811	3,249.02	88.361	3,249.02	90.0097	3,249.02	87.7606	3,249.02	90.0858	3,249.02	86.7515	3,249.02	90.3156	3,249.02	85.5319	3,249.02	88.9191	3,249.02	85.5319	3,249.02	86.6068	3,249.02	84.6402	3,249.02	83.865	3,249.02	82.6304	3,249.02	81.8837	3,249.02	81.3398	3,249.02	77.8044	3,249.02	79.5128	3,249.02	76.7603	3,249.02	78.6521	3,249.02	75.6482	3,249.02	78.3126	3,249.02	72.9861	3,249.02	77.5324	3,249.02	66.5348	3,249.02	76.4414	3,249.02	73.6297	3,249.02	75.7866	3,249.02	77.4849	3,249.02	76.9281
3,363.28	91.8823	3,363.28	93.0106	3,363.28	92.8336	3,363.28	93.309	3,363.28	92.9408	3,363.28	90.7365	3,363.28	91.6957	3,363.28	89.3699	3,363.28	90.0921	3,363.28	88.9925	3,363.28	89.8319	3,363.28	87.7857	3,363.28	89.8638	3,363.28	86.9135	3,363.28	88.2627	3,363.28	84.5503	3,363.28	85.289	3,363.28	81.0764	3,363.28	83.3881	3,363.28	79.8174	3,363.28	82.1527	3,363.28	80.2956	3,363.28	77.0889	3,363.28	79.7392	3,363.28	76.6932	3,363.28	78.4652	3,363.28	76.4204	3,363.28	77.9072	3,363.28	68.2587	3,363.28	77.9405	3,363.28	60.4352	3,363.28	77.4159	3,363.28	72.872	3,363.28	75.2125	3,363.28	76.6589	3,363.28	76.2137
3,481.93	92.0932	3,481.93	93.6142	3,481.93	92.2206	3,481.93	92.4479	3,481.93	93.0801	3,481.93	90.4795	3,481.93	91.5458	3,481.93	90.2696	3,481.93	89.2015	3,481.93	89.3367	3,481.93	89.2632	3,481.93	88.028	3,481.93	89.8234	3,481.93	84.7598	3,481.93	88.534	3,481.93	81.5529	3,481.93	85.1146	3,481.93	81.663	3,481.93	81.182	3,481.93	80.4731	3,481.93	79.5228	3,481.93	79.173	3,481.93	75.5459	3,481.93	78.1941	3,481.93	75.1511	3,481.93	77.7194	3,481.93	76.2501	3,481.93	77.6052	3,481.93	64.7412	3,481.93	77.7187	3,481.93	66.6607	3,481.93	76.9527	3,481.93	71.938	3,481.93	74.6129	3,481.93	74.369	3,481.93	75.5935
3,604.98	92.2853	3,604.98	93.4761	3,604.98	91.7161	3,604.98	92.3725	3,604.98	93.0127	3,604.98	91.0397	3,604.98	91.5526	3,604.98	90.3563	3,604.98	88.1545	3,604.98	89.609	3,604.98	88.0601	3,604.98	86.9968	3,604.98	89.1382	3,604.98	83.974	3,604.98	88.158	3,604.98	82.9792	3,604.98	84.1853	3,604.98	80.7498	3,604.98	78.6574	3,604.98	79.0237	3,604.98	77.6826	3,604.98	78.4916	3,604.98	71.2301	3,604.98	77.4106	3,604.98	69.2638	3,604.98	76.0272	3,604.98	74.4403	3,604.98	76.2793	3,604.98	68.8993	3,604.98	76.3707	3,604.98	68.2276	3,604.98	75.7285	3,604.98	71.8243	3,604.98	74.4205	3,604.98	74.4833	3,604.98	74.9005
3,732.42	92.1482	3,732.42	93.3292	3,732.42	90.7209	3,732.42	92.0015	3,732.42	92.492	3,732.42	91.0867	3,732.42	91.4839	3,732.42	91.0345	3,732.42	88.3113	3,732.42	89.0289	3,732.42	88.0735	3,732.42	85.3805	3,732.42	87.8753	3,732.42	83.3742	3,732.42	86.9024	3,732.42	80.971	3,732.42	84.114	3,732.42	78.7588	3,732.42	75.8447	3,732.42	78.5039	3,732.42	78.7907	3,732.42	78.4566	3,732.42	77.892	3,732.42	77.1166	3,732.42	46.3809	3,732.42	76.1316	3,732.42	67.1341	3,732.42	74.8284	3,732.42	67.5848	3,732.42	76.1446	3,732.42	69.1917	3,732.42	74.9	3,732.42	70.8589	3,732.42	71.8672	3,732.42	72.9545	3,732.42	73.1917
3,863.53	93.121	3,863.53	93.1655	3,863.53	91.0207	3,863.53	91.5897	3,863.53	92.0479	3,863.53	91.533	3,863.53	91.5177	3,863.53	90.6223	3,863.53	87.2588	3,863.53	87.865	3,863.53	87.7325	3,863.53	85.3739	3,863.53	88.4746	3,863.53	82.1793	3,863.53	86.0728	3,863.53	81.1441	3,863.53	82.7088	3,863.53	80.9566	3,863.53	76.1287	3,863.53	78.4303	3,863.53	77.0902	3,863.53	77.639	3,863.53	80.0541	3,863.53	77.1536	3,863.53	70.985	3,863.53	75.366	3,863.53	68.9434	3,863.53	75.9072	3,863.53	65.437	3,863.53	76.0949	3,863.53	68.0798	3,863.53	76.1082	3,863.53	68.8478	3,863.53	71.5359	3,863.53	72.0754	3,863.53	73.1685
3,999.76	92.9626	3,999.76	93.0819	3,999.76	91.3769	3,999.76	92.043	3,999.76	91.9548	3,999.76	91.771	3,999.76	91.3464	3,999.76	90.4899	3,999.76	86.9871	3,999.76	87.9303	3,999.76	86.4522	3,999.76	84.1649	3,999.76	88.6061	3,999.76	83.502	3,999.76	86.7366	3,999.76	84.3478	3,999.76	82.1307	3,999.76	81.7029	3,999.76	76.3182	3,999.76	79.8313	3,999.76	66.2672	3,999.76	78.7354	3,999.76	75.269	3,999.76	77.1714	3,999.76	65.8624	3,999.76	75.5782	3,999.76	72.0006	3,999.76	74.5726	3,999.76	60.6568	3,999.76	75.8598	3,999.76	71.751	3,999.76	74.6954	3,999.76	71.1456	3,999.76	72.9711	3,999.76	70.6761	3,999.76	73.1982
4,141.11	93.0952	4,141.11	92.1353	4,141.11	90.8747	4,141.11	91.8528	4,141.11	91.2408	4,141.11	92.385	4,141.11	90.9414	4,141.11	89.7519	4,141.11	86.0297	4,141.11	86.2904	4,141.11	85.9922	4,141.11	85.9929	4,141.11	88.5528	4,141.11	84.8866	4,141.11	86.6895	4,141.11	79.944	4,141.11	81.1059	4,141.11	78.4767	4,141.11	76.8318	4,141.11	77.8884	4,141.11	76.9179	4,141.11	77.5687	4,141.11	79.6417	4,141.11	76.2249	4,141.11	69.9373	4,141.11	75.4329	4,141.11	66.6956	4,141.11	73.6481	4,141.11	69.0681	4,141.11	75.6975	4,141.11	68.8757	4,141.11	74.7441	4,141.11	66.6683	4,141.11	72.7231	4,141.11	71.6384	4,141.11	72.6062
4,286.87	92.8892	4,286.87	92.0687	4,286.87	91.5646	4,286.87	92.3439	4,286.87	90.457	4,286.87	91.7439	4,286.87	90.9488	4,286.87	89.1451	4,286.87	86.6614	4,286.87	87.1368	4,286.87	84.6958	4,286.87	85.767	4,286.87	89.1304	4,286.87	82.338	4,286.87	87.4892	4,286.87	82.634	4,286.87	83.2971	4,286.87	81.072	4,286.87	83.1994	4,286.87	77.5889	4,286.87	73.3295	4,286.87	77.0218	4,286.87	77.7239	4,286.87	75.1756	4,286.87	70.444	4,286.87	74.351	4,286.87	69.5431	4,286.87	73.1264	4,286.87	67.9948	4,286.87	73.9002	4,286.87	60.3842	4,286.87	74.7972	4,286.87	61.9525	4,286.87	71.1627	4,286.87	71.132	4,286.87	72.2587
4,438.48	92.5276	4,438.48	91.9296	4,438.48	91.8497	4,438.48	93.133	4,438.48	90.5797	4,438.48	91.3352	4,438.48	90.798	4,438.48	87.4019	4,438.48	87.5017	4,438.48	86.833	4,438.48	82.8894	4,438.48	84.4	4,438.48	87.4774	4,438.48	82.6731	4,438.48	87.0553	4,438.48	77.1534	4,438.48	84.0997	4,438.48	71.7209	4,438.48	82.2604	4,438.48	75.6394	4,438.48	76.7916	4,438.48	74.5622	4,438.48	68.9487	4,438.48	73.3975	4,438.48	71.1176	4,438.48	73.0757	4,438.48	72.5648	4,438.48	71.4465	4,438.48	62.1009	4,438.48	71.299	4,438.48	58.728	4,438.48	72.9365	4,438.48	63.0142	4,438.48	67.5952	4,438.48	69.9636	4,438.48	71.9783
4,594.48	92.7842	4,594.48	92.422	4,594.48	92.2636	4,594.48	93.0068	4,594.48	89.7796	4,594.48	90.3016	4,594.48	89.927	4,594.48	87.7235	4,594.48	87.2245	4,594.48	85.6502	4,594.48	82.1463	4,594.48	82.4977	4,594.48	85.7421	4,594.48	77.9731	4,594.48	86.1976	4,594.48	80.4533	4,594.48	85.3694	4,594.48	79.6999	4,594.48	83.112	4,594.48	76.2141	4,594.48	75.2323	4,594.48	77.1241	4,594.48	65.5404	4,594.48	75.5405	4,594.48	67.748	4,594.48	73.8914	4,594.48	70.4577	4,594.48	72.5202	4,594.48	65.5039	4,594.48	72.6965	4,594.48	61.66	4,594.48	72.6056	4,594.48	68.4148	4,594.48	69.0512	4,594.48	71.0097	4,594.48	69.62
4,757.08	92.3765	4,757.08	93.1476	4,757.08	92.7222	4,757.08	93.0036	4,757.08	90.7676	4,757.08	89.2358	4,757.08	89.587	4,757.08	87.7464	4,757.08	86.866	4,757.08	85.5301	4,757.08	81.3858	4,757.08	81.4916	4,757.08	85.833	4,757.08	82.4165	4,757.08	86.008	4,757.08	80.489	4,757.08	83.3317	4,757.08	76.9361	4,757.08	82.8371	4,757.08	77.8019	4,757.08	79.3364	4,757.08	76.8781	4,757.08	72.3417	4,757.08	76.3288	4,757.08	70.3478	4,757.08	76.0046	4,757.08	63.9132	4,757.08	73.4705	4,757.08	60.6797	4,757.08	72.6788	4,757.08	68.556	4,757.08	74.0036	4,757.08	64.1596	4,757.08	67.814	4,757.08	71.7911	4,757.08	72.2795
4,924.8	92.5504	4,924.8	93.2551	4,924.8	92.5782	4,924.8	92.0882	4,924.8	90.5426	4,924.8	89.0724	4,924.8	89.7995	4,924.8	88.3284	4,924.8	87.9605	4,924.8	84.1575	4,924.8	80.9987	4,924.8	84.6173	4,924.8	85.5151	4,924.8	82.9735	4,924.8	86.762	4,924.8	82.7754	4,924.8	84.1234	4,924.8	80.2926	4,924.8	81.3323	4,924.8	77.5522	4,924.8	79.0854	4,924.8	76.9206	4,924.8	77.6247	4,924.8	75.4006	4,924.8	69.617	4,924.8	75.4932	4,924.8	52.9757	4,924.8	73.985	4,924.8	56.9411	4,924.8	73.835	4,924.8	70.8508	4,924.8	73.2764	4,924.8	64.8913	4,924.8	68.4708	4,924.8	68.7859	4,924.8	70.4699
5,098.39	92.1642	5,098.39	93.0356	5,098.39	92.5875	5,098.39	91.0858	5,098.39	90.3875	5,098.39	89.4725	5,098.39	89.1415	5,098.39	88.1102	5,098.39	89.2465	5,098.39	85.2383	5,098.39	83.2206	5,098.39	84.1891	5,098.39	84.5219	5,098.39	83.7782	5,098.39	88.6956	5,098.39	81.3173	5,098.39	86.0805	5,098.39	75.625	5,098.39	81.8701	5,098.39	76.6784	5,098.39	79.9109	5,098.39	73.3775	5,098.39	74.2175	5,098.39	74.0053	5,098.39	70.1202	5,098.39	73.6515	5,098.39	63.1717	5,098.39	71.5227	5,098.39	60.9326	5,098.39	73.657	5,098.39	69.2108	5,098.39	71.6023	5,098.39	55.4616	5,098.39	68.388	5,098.39	71.3564	5,098.39	70.5413
5,277.83	91.962	5,277.83	92.7466	5,277.83	92.6826	5,277.83	91.0111	5,277.83	91.5131	5,277.83	90.0321	5,277.83	88.3765	5,277.83	86.9442	5,277.83	88.3125	5,277.83	85.7052	5,277.83	84.5892	5,277.83	84.2928	5,277.83	82.8146	5,277.83	81.2213	5,277.83	88.8498	5,277.83	78.452	5,277.83	85.6917	5,277.83	77.4491	5,277.83	78.3667	5,277.83	75.9396	5,277.83	80.9154	5,277.83	72.611	5,277.83	75.5106	5,277.83	74.2831	5,277.83	73.4253	5,277.83	72.8272	5,277.83	62.4748	5,277.83	71.2448	5,277.83	63.3207	5,277.83	72.0579	5,277.83	68.9318	5,277.83	72.6404	5,277.83	53.0226	5,277.83	67.2416	5,277.83	71.0128	5,277.83	71.9047
5,463.87	92.9447	5,463.87	93.1517	5,463.87	92.3769	5,463.87	91.5981	5,463.87	91.6701	5,463.87	90.3952	5,463.87	89.0905	5,463.87	86.527	5,463.87	88.4953	5,463.87	85.8754	5,463.87	85.3336	5,463.87	81.6168	5,463.87	82.299	5,463.87	80.883	5,463.87	88.475	5,463.87	77.1778	5,463.87	85.2357	5,463.87	78.899	5,463.87	74.7565	5,463.87	76.5783	5,463.87	78.287	5,463.87	74.731	5,463.87	74.9456	5,463.87	75.0809	5,463.87	74.3269	5,463.87	72.6611	5,463.87	63.2881	5,463.87	73.0467	5,463.87	63.2718	5,463.87	71.9097	5,463.87	68.5834	5,463.87	73.6544	5,463.87	56.8336	5,463.87	68.9161	5,463.87	69.2343	5,463.87	69.2764
5,656.49	93.0506	5,656.49	93.0159	5,656.49	92.6309	5,656.49	92.5241	5,656.49	91.3713	5,656.49	89.7012	5,656.49	89.1995	5,656.49	87.4894	5,656.49	88.5962	5,656.49	86.6907	5,656.49	86.0576	5,656.49	83.1919	5,656.49	81.016	5,656.49	83.1184	5,656.49	87.0472	5,656.49	81.7902	5,656.49	84.7911	5,656.49	81.9633	5,656.49	78.9376	5,656.49	78.0559	5,656.49	78.1811	5,656.49	77.2029	5,656.49	69.4343	5,656.49	76.5829	5,656.49	73.4725	5,656.49	74.9726	5,656.49	71.1462	5,656.49	74.5481	5,656.49	65.503	5,656.49	72.6091	5,656.49	61.708	5,656.49	75.8633	5,656.49	67.7926	5,656.49	69.9055	5,656.49	68.9176	5,656.49	69.537
5,856.45	93.3685	5,856.45	93.6385	5,856.45	92.5641	5,856.45	91.7495	5,856.45	91.6233	5,856.45	89.0951	5,856.45	89.4846	5,856.45	89.046	5,856.45	88.3129	5,856.45	86.3387	5,856.45	85.7426	5,856.45	85.1959	5,856.45	81.4571	5,856.45	84.5365	5,856.45	85.831	5,856.45	80.5874	5,856.45	85.3181	5,856.45	80.6005	5,856.45	81.0069	5,856.45	77.3328	5,856.45	79.8119	5,856.45	76.5011	5,856.45	70.7595	5,856.45	75.9778	5,856.45	46.3523	5,856.45	73.8288	5,856.45	68.8547	5,856.45	75.2675	5,856.45	63.4905	5,856.45	71.7452	5,856.45	63.2475	5,856.45	74.7308	5,856.45	67.0209	5,856.45	69.7852	5,856.45	68.2634	5,856.45	70.5679
6,062.99	93.7613	6,062.99	93.2362	6,062.99	93.285	6,062.99	91.2035	6,062.99	91.701	6,062.99	89.8529	6,062.99	90.2089	6,062.99	89.1013	6,062.99	89.5532	6,062.99	86.2063	6,062.99	86.97	6,062.99	86.5513	6,062.99	82.5656	6,062.99	82.7243	6,062.99	85.3662	6,062.99	79.9653	6,062.99	84.852	6,062.99	77.2976	6,062.99	78.8923	6,062.99	73.7907	6,062.99	77.8461	6,062.99	75.4387	6,062.99	77.6474	6,062.99	72.1379	6,062.99	71.8304	6,062.99	73.7643	6,062.99	58.3546	6,062.99	73.4193	6,062.99	64.9369	6,062.99	71.1552	6,062.99	62.2892	6,062.99	74.0836	6,062.99	62.8215	6,062.99	68.7938	6,062.99	63.4994	6,062.99	67.4445
6,276.86	94.1651	6,276.86	93.2568	6,276.86	93.5516	6,276.86	90.8485	6,276.86	91.7358	6,276.86	90.6738	6,276.86	89.8791	6,276.86	88.6091	6,276.86	89.8775	6,276.86	86.8823	6,276.86	87.7314	6,276.86	84.8743	6,276.86	83.0064	6,276.86	81.0294	6,276.86	84.7171	6,276.86	78.6915	6,276.86	83.5399	6,276.86	76.7494	6,276.86	79.8905	6,276.86	75.8617	6,276.86	72.0498	6,276.86	74.4686	6,276.86	77.136	6,276.86	75.035	6,276.86	73.7486	6,276.86	73.0172	6,276.86	37.1816	6,276.86	72.8431	6,276.86	66.1102	6,276.86	72.2782	6,276.86	65.5576	6,276.86	73.1642	6,276.86	62.2241	6,276.86	67.5306	6,276.86	65.1182	6,276.86	66.0788
6,498.05	94.3017	6,498.05	93.0128	6,498.05	94.1608	6,498.05	92.0825	6,498.05	92.4657	6,498.05	91.1973	6,498.05	89.7539	6,498.05	88.1104	6,498.05	88.7588	6,498.05	87.3224	6,498.05	87.2106	6,498.05	83.0498	6,498.05	83.1819	6,498.05	82.0452	6,498.05	83.4242	6,498.05	80.9826	6,498.05	81.9861	6,498.05	78.1232	6,498.05	78.6852	6,498.05	75.0647	6,498.05	70.7686	6,498.05	73.7837	6,498.05	71.9225	6,498.05	74.3314	6,498.05	74.2473	6,498.05	74.4481	6,498.05	60.2191	6,498.05	73.2798	6,498.05	62.9806	6,498.05	72.3275	6,498.05	62.0231	6,498.05	74.8532	6,498.05	59.8152	6,498.05	69.084	6,498.05	65.6409	6,498.05	67.3351
6,727.29	94.2678	6,727.29	93.2636	6,727.29	94.5211	6,727.29	93.0248	6,727.29	93.001	6,727.29	90.6236	6,727.29	90.3091	6,727.29	88.944	6,727.29	88.3434	6,727.29	87.0765	6,727.29	86.9106	6,727.29	84.3003	6,727.29	82.7091	6,727.29	83.3638	6,727.29	81.1901	6,727.29	80.6334	6,727.29	81.2784	6,727.29	79.4646	6,727.29	77.2532	6,727.29	76.0359	6,727.29	64.2154	6,727.29	75.4206	6,727.29	68.5635	6,727.29	74.1311	6,727.29	74.7815	6,727.29	74.8177	6,727.29	67.9208	6,727.29	75.0286	6,727.29	68.8588	6,727.29	72.8105	6,727.29	63.5047	6,727.29	74.8147	6,727.29	57.595	6,727.29	70.2426	6,727.29	64.3138	6,727.29	67.9736
6,964.6	94.2567	6,964.6	93.7036	6,964.6	94.7449	6,964.6	93.085	6,964.6	93.3987	6,964.6	90.5242	6,964.6	91.1046	6,964.6	90.0954	6,964.6	89.5007	6,964.6	87.0676	6,964.6	88.1838	6,964.6	85.4954	6,964.6	82.9431	6,964.6	82.7194	6,964.6	78.8185	6,964.6	80.5124	6,964.6	83.232	6,964.6	78.2356	6,964.6	82.0923	6,964.6	75.1856	6,964.6	69.4027	6,964.6	74.1925	6,964.6	53.6814	6,964.6	72.2117	6,964.6	71.9687	6,964.6	73.8871	6,964.6	64.4028	6,964.6	74.4945	6,964.6	68.8392	6,964.6	72.358	6,964.6	60.322	6,964.6	74.9062	6,964.6	60.8136	6,964.6	68.8569	6,964.6	64.1125	6,964.6	65.6133
7,209.96	94.0111	7,209.96	93.7995	7,209.96	94.9441	7,209.96	92.4168	7,209.96	93.8911	7,209.96	91.6455	7,209.96	91.1614	7,209.96	90.2167	7,209.96	89.4377	7,209.96	86.8096	7,209.96	87.7744	7,209.96	84.514	7,209.96	82.8742	7,209.96	80.4966	7,209.96	79.896	7,209.96	79.3499	7,209.96	84.8811	7,209.96	74.7152	7,209.96	83.9067	7,209.96	74.9254	7,209.96	74.4045	7,209.96	74.8023	7,209.96	56.0093	7,209.96	73.0514	7,209.96	65.2225	7,209.96	72.6537	7,209.96	62.7358	7,209.96	72.7478	7,209.96	64.1354	7,209.96	72.8952	7,209.96	63.2683	7,209.96	73.1735	7,209.96	62.1061	7,209.96	68.7215	7,209.96	63.168	7,209.96	61.2585
7,464.11	93.4495	7,464.11	93.5341	7,464.11	94.2216	7,464.11	92.7802	7,464.11	93.8082	7,464.11	92.3237	7,464.11	91.6893	7,464.11	89.6001	7,464.11	89.5986	7,464.11	86.9408	7,464.11	87.9716	7,464.11	83.2739	7,464.11	82.4902	7,464.11	81.9196	7,464.11	80.167	7,464.11	78.3969	7,464.11	83.7268	7,464.11	77.6527	7,464.11	82.3322	7,464.11	76.0164	7,464.11	78.068	7,464.11	71.781	7,464.11	66.0883	7,464.11	74.7269	7,464.11	61.4533	7,464.11	72.5965	7,464.11	62.8559	7,464.11	73.8842	7,464.11	54.2198	7,464.11	73.1544	7,464.11	59.6319	7,464.11	75.4669	7,464.11	56.5144	7,464.11	70.2339	7,464.11	66.4227	7,464.11	60.8515
7,727.78	92.6867	7,727.78	93.2161	7,727.78	93.1137	7,727.78	92.9765	7,727.78	93.3	7,727.78	91.9886	7,727.78	91.4364	7,727.78	89.1586	7,727.78	89.2218	7,727.78	87.289	7,727.78	87.5312	7,727.78	83.5011	7,727.78	81.1956	7,727.78	81.9451	7,727.78	77.4813	7,727.78	79.08	7,727.78	82.3444	7,727.78	78.7727	7,727.78	81.705	7,727.78	75.9693	7,727.78	80.0928	7,727.78	72.1757	7,727.78	75.5199	7,727.78	72.6306	7,727.78	64.1356	7,727.78	72.6448	7,727.78	57.5523	7,727.78	73.5812	7,727.78	60.2716	7,727.78	72.3633	7,727.78	62.3359	7,727.78	74.9822	7,727.78	48.6419	7,727.78	69.6778	7,727.78	63.9953	7,727.78	63.418
8,000.24	92.7431	8,000.24	93.103	8,000.24	92.4497	8,000.24	92.4614	8,000.24	92.9454	8,000.24	90.8759	8,000.24	91.2704	8,000.24	89.3856	8,000.24	88.517	8,000.24	86.0808	8,000.24	86.5776	8,000.24	82.8952	8,000.24	80.7437	8,000.24	82.3347	8,000.24	74.7531	8,000.24	79.1042	8,000.24	78.8192	8,000.24	77.0956	8,000.24	77.6186	8,000.24	74.304	8,000.24	78.828	8,000.24	72.8823	8,000.24	74.8931	8,000.24	69.9456	8,000.24	51.8458	8,000.24	71.1901	8,000.24	55.0344	8,000.24	71.4618	8,000.24	58.2256	8,000.24	71.4725	8,000.24	64.6913	8,000.24	73.037	8,000.24	57.6354	8,000.24	70.272	8,000.24	61.2392	8,000.24	61.9528
8,282.23	93.2042	8,282.23	93.1861	8,282.23	92.2138	8,282.23	92.4578	8,282.23	92.2676	8,282.23	90.9269	8,282.23	91.5673	8,282.23	88.6653	8,282.23	88.3737	8,282.23	83.5263	8,282.23	84.1409	8,282.23	84.8847	8,282.23	80.9382	8,282.23	80.9921	8,282.23	71.7985	8,282.23	76.9394	8,282.23	72.0404	8,282.23	73.023	8,282.23	75.4912	8,282.23	72.5016	8,282.23	75.3778	8,282.23	71.1171	8,282.23	74.8351	8,282.23	69.9069	8,282.23	65.282	8,282.23	70.5153	8,282.23	56.5672	8,282.23	71.2874	8,282.23	64.7783	8,282.23	71.2411	8,282.23	61.2376	8,282.23	73.6008	8,282.23	55.2336	8,282.23	69.2314	8,282.23	60.3367	8,282.23	61.2557
8,574.46	93.1155	8,574.46	93.0217	8,574.46	92.8158	8,574.46	92.4657	8,574.46	92.4646	8,574.46	90.1568	8,574.46	91.7458	8,574.46	86.6006	8,574.46	89.2094	8,574.46	86.1466	8,574.46	84.7432	8,574.46	84.3647	8,574.46	81.309	8,574.46	79.1385	8,574.46	74.1103	8,574.46	78.7603	8,574.46	63.6887	8,574.46	74.2881	8,574.46	74.2507	8,574.46	74.2988	8,574.46	72.6923	8,574.46	69.1901	8,574.46	74.997	8,574.46	69.1636	8,574.46	70.9295	8,574.46	70.2066	8,574.46	53.8622	8,574.46	69.2581	8,574.46	58.443	8,574.46	71.1344	8,574.46	53.531	8,574.46	71.9682	8,574.46	48.1353	8,574.46	67.7643	8,574.46	61.9229	8,574.46	59.9013
8,876.22	92.9376	8,876.22	92.9751	8,876.22	92.6852	8,876.22	91.7862	8,876.22	92.613	8,876.22	89.1557	8,876.22	91.6618	8,876.22	87.1646	8,876.22	89.0084	8,876.22	86.3291	8,876.22	84.5821	8,876.22	81.9754	8,876.22	81.1848	8,876.22	81.479	8,876.22	75.9875	8,876.22	75.5669	8,876.22	75.0014	8,876.22	73.9063	8,876.22	70.5918	8,876.22	70.2625	8,876.22	71.6719	8,876.22	67.856	8,876.22	73.9291	8,876.22	67.7142	8,876.22	71.7839	8,876.22	65.9412	8,876.22	57.494	8,876.22	66.8344	8,876.22	55.5719	8,876.22	69.9981	8,876.22	59.6667	8,876.22	68.1388	8,876.22	51.6107	8,876.22	65.6617	8,876.22	61.4972	8,876.22	55.846
9,189.7	92.1895	9,189.7	92.1714	9,189.7	91.7277	9,189.7	91.3688	9,189.7	91.7032	9,189.7	88.7905	9,189.7	91.2522	9,189.7	87.7607	9,189.7	88.8579	9,189.7	84.2925	9,189.7	85.2139	9,189.7	83.3632	9,189.7	80.1633	9,189.7	78.4416	9,189.7	73.8367	9,189.7	73.9295	9,189.7	74.7222	9,189.7	71.5951	9,189.7	68.2145	9,189.7	69.2781	9,189.7	65.2455	9,189.7	69.0937	9,189.7	71.374	9,189.7	68.5363	9,189.7	66.1721	9,189.7	66.5125	9,189.7	44.757	9,189.7	67.8012	9,189.7	54.0048	9,189.7	68.9359	9,189.7	60.1816	9,189.7	70.5029	9,189.7	53.8139	9,189.7	66.3912	9,189.7	60.745	9,189.7	58.94
9,513.43	91.3872	9,513.43	91.5096	9,513.43	91.1061	9,513.43	90.5152	9,513.43	90.9195	9,513.43	89.0374	9,513.43	90.4777	9,513.43	87.8456	9,513.43	88.545	9,513.43	85.0985	9,513.43	85.7679	9,513.43	81.3026	9,513.43	79.4603	9,513.43	76.9493	9,513.43	74.9993	9,513.43	75.7036	9,513.43	72.8388	9,513.43	72.4149	9,513.43	67.659	9,513.43	70.8222	9,513.43	67.9289	9,513.43	67.662	9,513.43	66.7487	9,513.43	68.7406	9,513.43	46.1531	9,513.43	67.2535	9,513.43	55.362	9,513.43	67.8581	9,513.43	59.1182	9,513.43	68.3472	9,513.43	63.7014	9,513.43	69.21	9,513.43	58.6476	9,513.43	64.7185	9,513.43	56.5708	9,513.43	59.4719
9,848.88	91.3072	9,848.88	91.5985	9,848.88	90.8765	9,848.88	90.1207	9,848.88	90.1983	9,848.88	88.8443	9,848.88	89.4224	9,848.88	88.3189	9,848.88	88.2912	9,848.88	85.2689	9,848.88	86.0271	9,848.88	78.9264	9,848.88	80.4415	9,848.88	76.9986	9,848.88	76.8996	9,848.88	74.1175	9,848.88	71.6143	9,848.88	71.8879	9,848.88	62.1626	9,848.88	69.2521	9,848.88	68.3306	9,848.88	65.9893	9,848.88	68.4125	9,848.88	67.107	9,848.88	66.8956	9,848.88	67.2935	9,848.88	61.6428	9,848.88	67.1897	9,848.88	54.2396	9,848.88	67.9484	9,848.88	60.9586	9,848.88	68.4812	9,848.88	55.0029	9,848.88	64.4535	9,848.88	60.5838	9,848.88	56.1896
10,196.8	91.5112	10,196.8	91.7636	10,196.8	90.6072	10,196.8	89.5468	10,196.8	89.9333	10,196.8	88.933	10,196.8	88.755	10,196.8	88.0087	10,196.8	87.4859	10,196.8	83.7087	10,196.8	85.674	10,196.8	80.0691	10,196.8	80.4317	10,196.8	77.0926	10,196.8	77.1917	10,196.8	74.4886	10,196.8	72.8283	10,196.8	72.4125	10,196.8	62.9424	10,196.8	67.8423	10,196.8	65.7378	10,196.8	67.524	10,196.8	69.2716	10,196.8	65.5165	10,196.8	68.8361	10,196.8	67.1564	10,196.8	59.8924	10,196.8	67.0007	10,196.8	59.3038	10,196.8	68.3675	10,196.8	63.3458	10,196.8	68.7908	10,196.8	55.1926	10,196.8	66.6973	10,196.8	61.8694	10,196.8	59.575
10,556.4	92.1619	10,556.4	91.7023	10,556.4	91.5092	10,556.4	89.8942	10,556.4	90.422	10,556.4	89.6497	10,556.4	89.072	10,556.4	87.1953	10,556.4	87.9433	10,556.4	83.5451	10,556.4	85.8582	10,556.4	80.7177	10,556.4	81.6656	10,556.4	77.7086	10,556.4	77.3133	10,556.4	75.1028	10,556.4	70.4486	10,556.4	71.2845	10,556.4	65.4837	10,556.4	68.7425	10,556.4	65.2902	10,556.4	66.735	10,556.4	67.7711	10,556.4	65.5002	10,556.4	68.6118	10,556.4	66.0782	10,556.4	56.1048	10,556.4	66.9392	10,556.4	60.094	10,556.4	67.6049	10,556.4	66.1171	10,556.4	69.2264	10,556.4	48.2794	10,556.4	67.0519	10,556.4	63.7537	10,556.4	62.3321
10,928.5	92.7828	10,928.5	91.3405	10,928.5	92.6081	10,928.5	90.5581	10,928.5	91.0894	10,928.5	90.2584	10,928.5	89.4221	10,928.5	87.2694	10,928.5	88.1434	10,928.5	83.4557	10,928.5	86.2545	10,928.5	81.1032	10,928.5	82.8076	10,928.5	79.2175	10,928.5	78.0097	10,928.5	76.0813	10,928.5	68.741	10,928.5	73.2818	10,928.5	62.7428	10,928.5	71.0088	10,928.5	68.5481	10,928.5	64.5399	10,928.5	69.2158	10,928.5	66.3631	10,928.5	68.4369	10,928.5	65.3722	10,928.5	55.2312	10,928.5	67.7207	10,928.5	50.3919	10,928.5	67.2619	10,928.5	66.344	10,928.5	69.6142	10,928.5	56.8252	10,928.5	67.1367	10,928.5	61.8361	10,928.5	62.9762
11,313.7	93.1574	11,313.7	91.6764	11,313.7	93.3517	11,313.7	91.9885	11,313.7	91.6234	11,313.7	91.042	11,313.7	89.6797	11,313.7	87.9319	11,313.7	88.0275	11,313.7	84.0642	11,313.7	86.2786	11,313.7	82.6734	11,313.7	82.264	11,313.7	80.0654	11,313.7	78.4999	11,313.7	75.3911	11,313.7	72.0407	11,313.7	72.4658	11,313.7	65.8398	11,313.7	69.4192	11,313.7	68.9579	11,313.7	65.3302	11,313.7	65.2038	11,313.7	66.426	11,313.7	63.9253	11,313.7	65.1732	11,313.7	54.701	11,313.7	67.6531	11,313.7	57.5431	11,313.7	67.1282	11,313.7	64.2025	11,313.7	69.9856	11,313.7	59.0948	11,313.7	66.791	11,313.7	60.6062	11,313.7	60.5787
11,712.9	93.2681	11,712.9	92.5253	11,712.9	94.0306	11,712.9	93.1086	11,712.9	92.5257	11,712.9	91.7103	11,712.9	89.9955	11,712.9	88.5086	11,712.9	88.607	11,712.9	85.2959	11,712.9	87.4514	11,712.9	82.9038	11,712.9	83.6359	11,712.9	78.0582	11,712.9	79.8338	11,712.9	75.6412	11,712.9	71.5023	11,712.9	72.3184	11,712.9	66.6868	11,712.9	70.146	11,712.9	70.2466	11,712.9	66.9871	11,712.9	68.8106	11,712.9	65.3826	11,712.9	61.2626	11,712.9	64.9462	11,712.9	58.4568	11,712.9	68.7963	11,712.9	56.7811	11,712.9	66.7712	11,712.9	62.9477	11,712.9	70.9377	11,712.9	61.0661	11,712.9	67.0722	11,712.9	63.7113	11,712.9	59.7208
12,126	93.3446	12,126	93.0579	12,126	93.9115	12,126	93.0806	12,126	92.671	12,126	91.2256	12,126	90.1783	12,126	88.3815	12,126	89.2667	12,126	85.4365	12,126	88.0052	12,126	81.6296	12,126	85.3809	12,126	78.8673	12,126	81.648	12,126	74.3176	12,126	75.0114	12,126	70.2803	12,126	64.6591	12,126	68.0113	12,126	67.6694	12,126	66.0623	12,126	68.1143	12,126	64.8706	12,126	61.9021	12,126	61.8522	12,126	55.7452	12,126	68.0014	12,126	57.1815	12,126	65.5205	12,126	66.052	12,126	70.9859	12,126	59.1988	12,126	65.8003	12,126	62.1319	12,126	61.6345
12,553.7	93.2197	12,553.7	92.8713	12,553.7	93.7047	12,553.7	92.3183	12,553.7	92.4643	12,553.7	90.3253	12,553.7	90.4701	12,553.7	88.5925	12,553.7	89.2524	12,553.7	84.9418	12,553.7	87.2491	12,553.7	81.6084	12,553.7	84.183	12,553.7	75.7132	12,553.7	81.8005	12,553.7	74.2537	12,553.7	74.0516	12,553.7	71.4672	12,553.7	64.7616	12,553.7	68.7632	12,553.7	69.5483	12,553.7	67.7898	12,553.7	70.7206	12,553.7	64.0668	12,553.7	46.3535	12,553.7	65.3732	12,553.7	50.3046	12,553.7	68.2005	12,553.7	60.716	12,553.7	66.442	12,553.7	65.9468	12,553.7	70.6263	12,553.7	59.5	12,553.7	65.0291	12,553.7	58.6483	12,553.7	59.552
12,996.1	92.5808	12,996.1	92.7409	12,996.1	93.1045	12,996.1	91.6465	12,996.1	91.6656	12,996.1	89.9596	12,996.1	89.9022	12,996.1	87.8131	12,996.1	87.8802	12,996.1	84.9037	12,996.1	86.4233	12,996.1	79.9198	12,996.1	83.6225	12,996.1	77.4681	12,996.1	79.8413	12,996.1	73.6663	12,996.1	67.6083	12,996.1	71.2903	12,996.1	64.6842	12,996.1	66.8756	12,996.1	62.6331	12,996.1	66.1825	12,996.1	66.4412	12,996.1	62.4215	12,996.1	55.2254	12,996.1	65.1804	12,996.1	56.3616	12,996.1	66.8614	12,996.1	61.7475	12,996.1	65.0243	12,996.1	66.8661	12,996.1	69.1055	12,996.1	57.303	12,996.1	65.4213	12,996.1	59.8832	12,996.1	55.8838
13,454.6	91.2366	13,454.6	91.6251	13,454.6	91.4786	13,454.6	90.1275	13,454.6	90.8191	13,454.6	88.685	13,454.6	89.1133	13,454.6	86.2168	13,454.6	86.1585	13,454.6	82.4857	13,454.6	84.7405	13,454.6	79.2078	13,454.6	80.6824	13,454.6	75.3021	13,454.6	77.4926	13,454.6	72.5691	13,454.6	68.8973	13,454.6	70.2598	13,454.6	64.6927	13,454.6	66.5486	13,454.6	63.1996	13,454.6	64.9432	13,454.6	61.2105	13,454.6	60.2463	13,454.6	45.164	13,454.6	60.9918	13,454.6	54.6891	13,454.6	65.99	13,454.6	55.5213	13,454.6	63.8478	13,454.6	67.8248	13,454.6	68.4568	13,454.6	58.4872	13,454.6	65.4966	13,454.6	58.0543	13,454.6	54.4009
13,928.5	92.361	13,928.5	92.4277	13,928.5	92.0834	13,928.5	91.0601	13,928.5	91.7485	13,928.5	89.7543	13,928.5	90.0658	13,928.5	86.8512	13,928.5	87.1867	13,928.5	83.162	13,928.5	84.7884	13,928.5	79.9351	13,928.5	81.3691	13,928.5	76.1416	13,928.5	78.2037	13,928.5	72.6584	13,928.5	70.0629	13,928.5	68.7958	13,928.5	56.0138	13,928.5	65.0316	13,928.5	58.6762	13,928.5	63.5481	13,928.5	65.0956	13,928.5	58.395	13,928.5	49.6583	13,928.5	60.5357	13,928.5	60.4144	13,928.5	66.4436	13,928.5	57.4909	13,928.5	64.6814	13,928.5	66.5502	13,928.5	69.147	13,928.5	58.2359	13,928.5	65.9649	13,928.5	57.1695	13,928.5	54.7519
14,419.9	93.2688	14,419.9	92.9782	14,419.9	92.1264	14,419.9	91.8752	14,419.9	91.0596	14,419.9	90.6227	14,419.9	89.7237	14,419.9	87.8498	14,419.9	86.7842	14,419.9	84.4482	14,419.9	82.8866	14,419.9	80.4011	14,419.9	80.0823	14,419.9	77.1272	14,419.9	79.1663	14,419.9	72.2231	14,419.9	66.6362	14,419.9	70.5395	14,419.9	63.9141	14,419.9	64.3326	14,419.9	52.6068	14,419.9	65.8393	14,419.9	65.7218	14,419.9	54.8243	14,419.9	52.4406	14,419.9	61.4866	14,419.9	52.0339	14,419.9	66.7913	14,419.9	50.9309	14,419.9	65.3476	14,419.9	62.3343	14,419.9	68.0913	14,419.9	56.9887	14,419.9	64.9396	14,419.9	49.0645	14,419.9	54.3129
14,928.2	93.3691	14,928.2	92.9133	14,928.2	92.5226	14,928.2	91.7596	14,928.2	91.5938	14,928.2	90.6378	14,928.2	90.4176	14,928.2	87.4688	14,928.2	87.357	14,928.2	84.8715	14,928.2	84.3479	14,928.2	79.6664	14,928.2	79.2747	14,928.2	76.059	14,928.2	74.8001	14,928.2	71.6629	14,928.2	68.0139	14,928.2	69.3749	14,928.2	66.6828	14,928.2	64.0267	14,928.2	62.0483	14,928.2	63.6758	14,928.2	65.0106	14,928.2	53.3408	14,928.2	57.2862	14,928.2	63.3829	14,928.2	57.5611	14,928.2	66.3863	14,928.2	61.59	14,928.2	62.551	14,928.2	65.5824	14,928.2	67.6911	14,928.2	55.1388	14,928.2	62.803	14,928.2	51.5748	14,928.2	53.0295
15,454.8	92.9551	15,454.8	92.4457	15,454.8	92.3808	15,454.8	90.6543	15,454.8	91.8361	15,454.8	88.963	15,454.8	90.2487	15,454.8	85.7732	15,454.8	87.2556	15,454.8	83.3647	15,454.8	85.1032	15,454.8	78.0561	15,454.8	79.2207	15,454.8	74.2751	15,454.8	76.5539	15,454.8	70.1449	15,454.8	70.0897	15,454.8	67.6987	15,454.8	64.1326	15,454.8	61.0462	15,454.8	62.1645	15,454.8	61.1378	15,454.8	56.8678	15,454.8	52.5264	15,454.8	48.4662	15,454.8	62.8708	15,454.8	56.6248	15,454.8	62.7934	15,454.8	60.4598	15,454.8	61.5262	15,454.8	67.4603	15,454.8	66.1779	15,454.8	53.5771	15,454.8	61.8599	15,454.8	41.4983	15,454.8	45.984
15,999.8	91.3049	15,999.8	90.8014	15,999.8	90.8913	15,999.8	89.3159	15,999.8	90.31	15,999.8	87.0958	15,999.8	88.8693	15,999.8	84.6931	15,999.8	86.3809	15,999.8	80.5842	15,999.8	83.9932	15,999.8	76.6953	15,999.8	77.9616	15,999.8	71.0642	15,999.8	75.9305	15,999.8	67.8079	15,999.8	64.3742	15,999.8	64.3489	15,999.8	64.3111	15,999.8	59.1786	15,999.8	50.8543	15,999.8	55.8129	15,999.8	57.0937	15,999.8	51.5708	15,999.8	43.0532	15,999.8	57.7687	15,999.8	56.0742	15,999.8	59.8413	15,999.8	57.9985	15,999.8	59.5842	15,999.8	64.1184	15,999.8	61.9044	15,999.8	55.2715	15,999.8	58.6728	15,999.8	40.4366	15,999.8	50.2229
16,564.5	90.0665	16,564.5	89.5936	16,564.5	89.0448	16,564.5	88.4154	16,564.5	88.2015	16,564.5	86.5392	16,564.5	86.6848	16,564.5	84.1101	16,564.5	84.7229	16,564.5	79.9803	16,564.5	81.1848	16,564.5	74.9125	16,564.5	75.9947	16,564.5	70.4137	16,564.5	71.3819	16,564.5	65.7462	16,564.5	65.5355	16,564.5	64.3839	16,564.5	61.0348	16,564.5	56.9349	16,564.5	53.9814	16,564.5	54.3748	16,564.5	58.7287	16,564.5	52.7982	16,564.5	55.5427	16,564.5	57.8806	16,564.5	49.5202	16,564.5	59.4529	16,564.5	52.3773	16,564.5	54.011	16,564.5	57.265	16,564.5	60.6007	16,564.5	50.402	16,564.5	60.3465	16,564.5	49.8647	16,564.5	51.7044
17,148.2	89.9166	17,148.2	89.6375	17,148.2	88.8422	17,148.2	87.9073	17,148.2	87.711	17,148.2	86.5718	17,148.2	85.6765	17,148.2	83.5728	17,148.2	83.7912	17,148.2	80.0384	17,148.2	79.7159	17,148.2	74.0143	17,148.2	75.0188	17,148.2	69.129	17,148.2	67.9741	17,148.2	65.6908	17,148.2	66.4491	17,148.2	63.2718	17,148.2	57.183	17,148.2	56.2041	17,148.2	56.2275	17,148.2	51.5512	17,148.2	63.9614	17,148.2	53.9256	17,148.2	57.0986	17,148.2	57.9789	17,148.2	47.3505	17,148.2	56.7668	17,148.2	51.6267	17,148.2	56.6495	17,148.2	61.4189	17,148.2	61.933	17,148.2	52.7401	17,148.2	60.6153	17,148.2	51.0263	17,148.2	54.2565
17,753.2	91.1798	17,753.2	90.9245	17,753.2	89.9011	17,753.2	89.1751	17,753.2	88.6827	17,753.2	87.5276	17,753.2	86.1933	17,753.2	84.9017	17,753.2	83.6906	17,753.2	80.2773	17,753.2	79.6669	17,753.2	75.2796	17,753.2	75.3254	17,753.2	69.7754	17,753.2	70.234	17,753.2	66.845	17,753.2	68.2755	17,753.2	63.5989	17,753.2	50.4982	17,753.2	58.2767	17,753.2	58.5019	17,753.2	53.2555	17,753.2	61.0677	17,753.2	56.2185	17,753.2	62.445	17,753.2	56.9981	17,753.2	46.5608	17,753.2	52.9415	17,753.2	56.7367	17,753.2	58.4617	17,753.2	62.7668	17,753.2	63.8259	17,753.2	55.0858	17,753.2	63.3582	17,753.2	54.1864	17,753.2	57.2381
18,379.4	92.6813	18,379.4	92.9243	18,379.4	91.0223	18,379.4	91.7519	18,379.4	89.5254	18,379.4	90.176	18,379.4	86.4439	18,379.4	87.6491	18,379.4	84.1309	18,379.4	81.9426	18,379.4	78.9783	18,379.4	77.3202	18,379.4	76.4885	18,379.4	73.0548	18,379.4	69.0788	18,379.4	67.6359	18,379.4	68.5396	18,379.4	63.569	18,379.4	54.1977	18,379.4	62.4899	18,379.4	63.0941	18,379.4	57.6649	18,379.4	70.1552	18,379.4	60.3766	18,379.4	67.1079	18,379.4	60.9032	18,379.4	41.1835	18,379.4	58.983	18,379.4	54.7091	18,379.4	58.5012	18,379.4	62.9025	18,379.4	67.1041	18,379.4	56.1667	18,379.4	66.4488	18,379.4	56.8667	18,379.4	61.019
19,027.6	92.8065	19,027.6	93.1523	19,027.6	91.2614	19,027.6	91.9103	19,027.6	89.7643	19,027.6	90.3426	19,027.6	87.6408	19,027.6	87.9845	19,027.6	85.4292	19,027.6	82.456	19,027.6	81.784	19,027.6	77.4126	19,027.6	78.2595	19,027.6	73.5606	19,027.6	69.0897	19,027.6	67.4903	19,027.6	73.643	19,027.6	62.9399	19,027.6	60.7883	19,027.6	62.6721	19,027.6	65.2624	19,027.6	53.336	19,027.6	74.7694	19,027.6	61.1532	19,027.6	68.5716	19,027.6	62.2703	19,027.6	51.5326	19,027.6	57.7473	19,027.6	55.5857	19,027.6	59.0167	19,027.6	61.8554	19,027.6	68.084	19,027.6	58.6165	19,027.6	67.7506	19,027.6	55.9431	19,027.6	63.3811
19,698.5	91.3702	19,698.5	89.8714	19,698.5	91.0978	19,698.5	86.0125	19,698.5	90.2674	19,698.5	84.5738	19,698.5	88.7956	19,698.5	82.7377	19,698.5	86.2886	19,698.5	74.1716	19,698.5	83.1966	19,698.5	69.4575	19,698.5	79.0321	19,698.5	66.785	19,698.5	72.6872	19,698.5	59.3874	19,698.5	73.2045	19,698.5	53.2323	19,698.5	65.9907	19,698.5	56.3648	19,698.5	60.6939	19,698.5	42.4141	19,698.5	73.0613	19,698.5	55.7791	19,698.5	67.2498	19,698.5	57.2161	19,698.5	56.8057	19,698.5	51.4273	19,698.5	55.5408	19,698.5	52.0411	19,698.5	61.1848	19,698.5	63.7639	19,698.5	57.9268	19,698.5	61.1913	19,698.5	53.158	19,698.5	62.8083
19,999.5	90.2155	19,999.5	87.3814	19,999.5	90.7141	19,999.5	81.4268	19,999.5	89.7161	19,999.5	80.9726	19,999.5	87.989	19,999.5	77.8233	19,999.5	85.0341	19,999.5	66.0928	19,999.5	82.6433	19,999.5	67.5542	19,999.5	77.8502	19,999.5	60.5185	19,999.5	70.2968	19,999.5	54.8417	19,999.5	71.5351	19,999.5	48.2622	19,999.5	67.4093	19,999.5	55.0795	19,999.5	49.5962	19,999.5	46.4236	19,999.5	70.8492	19,999.5	55.2952	19,999.5	62.8397	19,999.5	56.0666	19,999.5	51.3138	19,999.5	54.5693	19,999.5	59.2786	19,999.5	50.6295	19,999.5	59.4144	19,999.5	60.0043	19,999.5	58.4132	19,999.5	40.0562	19,999.5	52.9628	19,999.5	64.1413
