"SPL Horizontal"																																																																							
"On-Axis"		"10°"		"-10°"		"20°"		"-20°"		"30°"		"-30°"		"40°"		"-40°"		"50°"		"-50°"		"60°"		"-60°"		"70°"		"-70°"		"80°"		"-80°"		"90°"		"-90°"		"100°"		"-100°"		"110°"		"-110°"		"120°"		"-120°"		"130°"		"-130°"		"140°"		"-140°"		"150°"		"-150°"		"160°"		"-160°"		"170°"		"-170°"		"180°"	
"Frequency [Hz]"	"Sound Pessure Level [dB]    /  [	0.2	V at 	1	m]"	"Frequency [Hz]"	"Sound Pessure Level [dB]    /  [	0.2	V at 	1	m]"	"Frequency [Hz]"	"Sound Pessure Level [dB]    /  [	0.2	V at 	1	m]"	"Frequency [Hz]"	"Sound Pessure Level [dB]    /  [	0.2	V at 	1	m]"	"Frequency [Hz]"	"Sound Pessure Level [dB]    /  [	0.2	V at 	1	m]"	"Frequency [Hz]"	"Sound Pessure Level [dB]    /  [	0.2	V at 	1	m]"	"Frequency [Hz]"	"Sound Pessure Level [dB]    /  [	0.2	V at 	1	m]"	"Frequency [Hz]"	"Sound Pessure Level [dB]    /  [	0.2	V at 	1	m]"	"Frequency [Hz]"	"Sound Pessure Level [dB]    /  [	0.2	V at 	1	m]"	"Frequency [Hz]"	"Sound Pessure Level [dB]    /  [	0.2	V at 	1	m]"	"Frequency [Hz]"	"Sound Pessure Level [dB]    /  [	0.2	V at 	1	m]"	"Frequency [Hz]"	"Sound Pessure Level [dB]    /  [	0.2	V at 	1	m]"	"Frequency [Hz]"	"Sound Pessure Level [dB]    /  [	0.2	V at 	1	m]"	"Frequency [Hz]"	"Sound Pessure Level [dB]    /  [	0.2	V at 	1	m]"	"Frequency [Hz]"	"Sound Pessure Level [dB]    /  [	0.2	V at 	1	m]"	"Frequency [Hz]"	"Sound Pessure Level [dB]    /  [	0.2	V at 	1	m]"	"Frequency [Hz]"	"Sound Pessure Level [dB]    /  [	0.2	V at 	1	m]"	"Frequency [Hz]"	"Sound Pessure Level [dB]    /  [	0.2	V at 	1	m]"	"Frequency [Hz]"	"Sound Pessure Level [dB]    /  [	0.2	V at 	1	m]"	"Frequency [Hz]"	"Sound Pessure Level [dB]    /  [	0.2	V at 	1	m]"	"Frequency [Hz]"	"Sound Pessure Level [dB]    /  [	0.2	V at 	1	m]"	"Frequency [Hz]"	"Sound Pessure Level [dB]    /  [	0.2	V at 	1	m]"	"Frequency [Hz]"	"Sound Pessure Level [dB]    /  [	0.2	V at 	1	m]"	"Frequency [Hz]"	"Sound Pessure Level [dB]    /  [	0.2	V at 	1	m]"	"Frequency [Hz]"	"Sound Pessure Level [dB]    /  [	0.2	V at 	1	m]"	"Frequency [Hz]"	"Sound Pessure Level [dB]    /  [	0.2	V at 	1	m]"	"Frequency [Hz]"	"Sound Pessure Level [dB]    /  [	0.2	V at 	1	m]"	"Frequency [Hz]"	"Sound Pessure Level [dB]    /  [	0.2	V at 	1	m]"	"Frequency [Hz]"	"Sound Pessure Level [dB]    /  [	0.2	V at 	1	m]"	"Frequency [Hz]"	"Sound Pessure Level [dB]    /  [	0.2	V at 	1	m]"	"Frequency [Hz]"	"Sound Pessure Level [dB]    /  [	0.2	V at 	1	m]"	"Frequency [Hz]"	"Sound Pessure Level [dB]    /  [	0.2	V at 	1	m]"	"Frequency [Hz]"	"Sound Pessure Level [dB]    /  [	0.2	V at 	1	m]"	"Frequency [Hz]"	"Sound Pessure Level [dB]    /  [	0.2	V at 	1	m]"	"Frequency [Hz]"	"Sound Pessure Level [dB]    /  [	0.2	V at 	1	m]"	"Frequency [Hz]"	"Sound Pessure Level [dB]    /  [	0.2	V at 	1	m]"
20.5078	49.6991	20.5078	49.8548	20.5078	49.5833	20.5078	50.0522	20.5078	49.5083	20.5078	50.2951	20.5078	49.4783	20.5078	50.5882	20.5078	49.5009	20.5078	50.9367	20.5078	49.5864	20.5078	51.3446	20.5078	49.7473	20.5078	51.8137	20.5078	49.9963	20.5078	52.3418	20.5078	50.3443	20.5078	52.9205	20.5078	50.7972	20.5078	53.534	20.5078	51.3539	20.5078	54.1586	20.5078	52.0033	20.5078	54.7644	20.5078	52.7227	20.5078	55.318	20.5078	53.4779	20.5078	55.7857	20.5078	54.2252	20.5078	56.1365	20.5078	54.9174	20.5078	56.3447	20.5078	55.5103	20.5078	56.391	20.5078	55.9678	20.5078	56.2653
21.2402	52.2794	21.2402	52.3055	21.2402	52.2806	21.2402	52.3655	21.2402	52.3043	21.2402	52.4665	21.2402	52.3473	21.2402	52.6151	21.2402	52.4088	21.2402	52.8169	21.2402	52.4906	21.2402	53.0748	21.2402	52.5968	21.2402	53.3883	21.2402	52.734	21.2402	53.7525	21.2402	52.9102	21.2402	54.1577	21.2402	53.1332	21.2402	54.5883	21.2402	53.409	21.2402	55.0238	21.2402	53.7386	21.2402	55.4397	21.2402	54.1164	21.2402	55.8098	21.2402	54.529	21.2402	56.1094	21.2402	54.9558	21.2402	56.3175	21.2402	55.3712	21.2402	56.4195	21.2402	55.7479	21.2402	56.4085	21.2402	56.0601	21.2402	56.2857
21.9727	52.1748	21.9727	52.1719	21.9727	52.1872	21.9727	52.1767	21.9727	52.2128	21.9727	52.189	21.9727	52.2565	21.9727	52.2104	21.9727	52.3246	21.9727	52.245	21.9727	52.4242	21.9727	52.2994	21.9727	52.5622	21.9727	52.3827	21.9727	52.7443	21.9727	52.5053	21.9727	52.9725	21.9727	52.6757	21.9727	53.2431	21.9727	52.8969	21.9727	53.5454	21.9727	53.1628	21.9727	53.8619	21.9727	53.4582	21.9727	54.1705	21.9727	53.7623	21.9727	54.4474	21.9727	54.0545	21.9727	54.6715	21.9727	54.3184	21.9727	54.8274	21.9727	54.5433	21.9727	54.9077	21.9727	54.722	21.9727	54.9124	21.9727	54.8477
22.7051	51.0294	22.7051	51.1321	22.7051	50.924	22.7051	51.2305	22.7051	50.8185	22.7051	51.3233	22.7051	50.7163	22.7051	51.4095	22.7051	50.6229	22.7051	51.4888	22.7051	50.5455	22.7051	51.5609	22.7051	50.4936	22.7051	51.6266	22.7051	50.4782	22.7051	51.6871	22.7051	50.5099	22.7051	51.7447	22.7051	50.5965	22.7051	51.8017	22.7051	50.7395	22.7051	51.8603	22.7051	50.932	22.7051	51.9218	22.7051	51.1588	22.7051	51.9856	22.7051	51.3989	22.7051	52.0489	22.7051	51.6297	22.7051	52.1065	22.7051	51.8314	22.7051	52.1505	22.7051	51.9899	22.7051	52.1708	22.7051	52.0983	22.7051	52.1566
23.4375	54.7005	23.4375	54.7028	23.4375	54.705	23.4375	54.7128	23.4375	54.7159	23.4375	54.7321	23.4375	54.7339	23.4375	54.7627	23.4375	54.7609	23.4375	54.8068	23.4375	54.7999	23.4375	54.8663	23.4375	54.8545	23.4375	54.943	23.4375	54.9288	23.4375	55.0379	23.4375	55.0258	23.4375	55.1506	23.4375	55.1463	23.4375	55.2795	23.4375	55.2879	23.4375	55.4204	23.4375	55.4443	23.4375	55.5673	23.4375	55.6061	23.4375	55.7125	23.4375	55.7624	23.4375	55.8477	23.4375	55.9023	23.4375	55.9653	23.4375	56.0166	23.4375	56.0585	23.4375	56.0983	23.4375	56.1219	23.4375	56.1436	23.4375	56.1512
24.1699	55.7471	24.1699	55.7848	24.1699	55.712	24.1699	55.8252	24.1699	55.6794	24.1699	55.8678	24.1699	55.649	24.1699	55.9119	24.1699	55.6209	24.1699	55.9561	24.1699	55.5955	24.1699	55.9987	24.1699	55.5737	24.1699	56.0377	24.1699	55.5565	24.1699	56.0711	24.1699	55.5455	24.1699	56.0973	24.1699	55.5423	24.1699	56.1152	24.1699	55.5483	24.1699	56.124	24.1699	55.5644	24.1699	56.123	24.1699	55.591	24.1699	56.112	24.1699	55.6279	24.1699	56.0907	24.1699	55.6744	24.1699	56.0592	24.1699	55.7287	24.1699	56.0181	24.1699	55.7887	24.1699	55.9685	24.1699	55.8509	24.1699	55.9119
25.6348	57.567	25.6348	57.537	25.6348	57.5968	25.6348	57.5075	25.6348	57.6258	25.6348	57.4787	25.6348	57.6533	25.6348	57.4503	25.6348	57.6783	25.6348	57.4222	25.6348	57.7003	25.6348	57.3935	25.6348	57.7184	25.6348	57.364	25.6348	57.7324	25.6348	57.3338	25.6348	57.7419	25.6348	57.3041	25.6348	57.7468	25.6348	57.2773	25.6348	57.7471	25.6348	57.2573	25.6348	57.7426	25.6348	57.2484	25.6348	57.7325	25.6348	57.2543	25.6348	57.7158	25.6348	57.2775	25.6348	57.691	25.6348	57.3175	25.6348	57.6568	25.6348	57.3711	25.6348	57.6125	25.6348	57.4332	25.6348	57.5586	25.6348	57.4975
26.3672	60.0992	26.3672	60.0948	26.3672	60.1053	26.3672	60.0921	26.3672	60.1124	26.3672	60.0914	26.3672	60.1199	26.3672	60.0921	26.3672	60.127	26.3672	60.0936	26.3672	60.1329	26.3672	60.0947	26.3672	60.1365	26.3672	60.094	26.3672	60.1368	26.3672	60.0902	26.3672	60.1331	26.3672	60.0821	26.3672	60.1245	26.3672	60.069	26.3672	60.1107	26.3672	60.0511	26.3672	60.0919	26.3672	60.0295	26.3672	60.0687	26.3672	60.0058	26.3672	60.0424	26.3672	59.9827	26.3672	60.0152	26.3672	59.9626	26.3672	59.9892	26.3672	59.948	26.3672	59.9669	26.3672	59.9406	26.3672	59.9504	26.3672	59.9414
27.0996	61.5735	27.0996	61.5795	27.0996	61.5696	27.0996	61.5877	27.0996	61.5672	27.0996	61.5983	27.0996	61.5658	27.0996	61.611	27.0996	61.5644	27.0996	61.6254	27.0996	61.562	27.0996	61.6407	27.0996	61.5573	27.0996	61.6556	27.0996	61.5486	27.0996	61.6683	27.0996	61.5344	27.0996	61.6761	27.0996	61.5134	27.0996	61.6764	27.0996	61.4849	27.0996	61.6661	27.0996	61.4493	27.0996	61.643	27.0996	61.4088	27.0996	61.6061	27.0996	61.3673	27.0996	61.5565	27.0996	61.3302	27.0996	61.4978	27.0996	61.3037	27.0996	61.436	27.0996	61.2932	27.0996	61.3781	27.0996	61.3024	27.0996	61.3317
27.832	62.9866	27.832	62.9739	27.832	62.9985	27.832	62.9603	27.832	63.0092	27.832	62.9454	27.832	63.0185	27.832	62.9288	27.832	63.0256	27.832	62.91	27.832	63.0294	27.832	62.8884	27.832	63.0287	27.832	62.8635	27.832	63.0218	27.832	62.8347	27.832	63.0069	27.832	62.8016	27.832	62.9823	27.832	62.7643	27.832	62.9468	27.832	62.7231	27.832	62.8999	27.832	62.6791	27.832	62.8429	27.832	62.6343	27.832	62.7786	27.832	62.5916	27.832	62.7112	27.832	62.5549	27.832	62.6464	27.832	62.5287	27.832	62.5903	27.832	62.5171	27.832	62.548	27.832	62.5231
29.2969	66.2052	29.2969	66.1821	29.2969	66.2242	29.2969	66.1549	29.2969	66.2386	29.2969	66.1234	29.2969	66.2481	29.2969	66.0872	29.2969	66.2515	29.2969	66.0457	29.2969	66.2478	29.2969	65.9983	29.2969	66.2353	29.2969	65.9444	29.2969	66.2122	29.2969	65.8836	29.2969	66.1768	29.2969	65.816	29.2969	66.1272	29.2969	65.7423	29.2969	66.0624	29.2969	65.6643	29.2969	65.9825	29.2969	65.5848	29.2969	65.8891	29.2969	65.5082	29.2969	65.7861	29.2969	65.4399	29.2969	65.6793	29.2969	65.3858	29.2969	65.5759	29.2969	65.3521	29.2969	65.484	29.2969	65.3437	29.2969	65.4113	29.2969	65.3635
30.0293	67.9437	30.0293	67.9239	30.0293	67.9604	30.0293	67.9008	30.0293	67.9737	30.0293	67.8744	30.0293	67.9833	30.0293	67.8442	30.0293	67.9885	30.0293	67.8098	30.0293	67.9883	30.0293	67.7708	30.0293	67.9815	30.0293	67.7268	30.0293	67.9665	30.0293	67.6774	30.0293	67.9419	30.0293	67.6227	30.0293	67.9059	30.0293	67.5632	30.0293	67.8574	30.0293	67.5002	30.0293	67.7961	30.0293	67.4361	30.0293	67.7229	30.0293	67.3746	30.0293	67.6403	30.0293	67.3204	30.0293	67.5525	30.0293	67.2788	30.0293	67.4655	30.0293	67.2551	30.0293	67.386	30.0293	67.2533	30.0293	67.3208	30.0293	67.2754
31.4941	70.9762	31.4941	70.9662	31.4941	70.9832	31.4941	70.9533	31.4941	70.9867	31.4941	70.9376	31.4941	70.986	31.4941	70.9189	31.4941	70.9801	31.4941	70.8968	31.4941	70.9679	31.4941	70.8706	31.4941	70.9482	31.4941	70.8396	31.4941	70.9196	31.4941	70.8029	31.4941	70.881	31.4941	70.7596	31.4941	70.8317	31.4941	70.7091	31.4941	70.7717	31.4941	70.6515	31.4941	70.7021	31.4941	70.5878	31.4941	70.6255	31.4941	70.5206	31.4941	70.546	31.4941	70.4538	31.4941	70.4687	31.4941	70.3926	31.4941	70.3998	31.4941	70.3428	31.4941	70.3454	31.4941	70.3101	31.4941	70.3107	31.4941	70.2987
32.2266	72.3749	32.2266	72.3645	32.2266	72.3824	32.2266	72.3513	32.2266	72.3867	32.2266	72.335	32.2266	72.3872	32.2266	72.3155	32.2266	72.3833	32.2266	72.2924	32.2266	72.374	32.2266	72.2651	32.2266	72.3583	32.2266	72.233	32.2266	72.3348	32.2266	72.1954	32.2266	72.3024	32.2266	72.1518	32.2266	72.26	32.2266	72.1018	32.2266	72.2072	32.2266	72.046	32.2266	72.1445	32.2266	71.9854	32.2266	72.0736	32.2266	71.9227	32.2266	71.998	32.2266	71.8616	32.2266	71.9223	32.2266	71.8073	32.2266	71.8527	32.2266	71.7651	32.2266	71.7951	32.2266	71.7403	32.2266	71.7551	32.2266	71.7365
33.6914	74.9869	33.6914	74.9698	33.6914	74.9998	33.6914	74.9486	33.6914	75.0082	33.6914	74.9231	33.6914	75.0118	33.6914	74.8932	33.6914	75.0099	33.6914	74.8584	33.6914	75.0017	33.6914	74.8184	33.6914	74.9863	33.6914	74.7728	33.6914	74.9628	33.6914	74.7213	33.6914	74.9303	33.6914	74.6642	33.6914	74.8881	33.6914	74.6024	33.6914	74.8359	33.6914	74.5375	33.6914	74.7742	33.6914	74.4724	33.6914	74.7041	33.6914	74.4109	33.6914	74.6282	33.6914	74.3576	33.6914	74.5499	33.6914	74.3173	33.6914	74.4737	33.6914	74.2943	33.6914	74.405	33.6914	74.2915	33.6914	74.349	33.6914	74.3101
34.4238	76.3865	34.4238	76.3689	34.4238	76.3992	34.4238	76.3467	34.4238	76.407	34.4238	76.3196	34.4238	76.4094	34.4238	76.2873	34.4238	76.4059	34.4238	76.2496	34.4238	76.3957	34.4238	76.2058	34.4238	76.3778	34.4238	76.1555	34.4238	76.3511	34.4238	76.0984	34.4238	76.3146	34.4238	76.0345	34.4238	76.2673	34.4238	75.9646	34.4238	76.2085	34.4238	75.8904	34.4238	76.1385	34.4238	75.8147	34.4238	76.0585	34.4238	75.7419	34.4238	75.9712	34.4238	75.6773	34.4238	75.8806	34.4238	75.6268	34.4238	75.7925	34.4238	75.5959	34.4238	75.7134	34.4238	75.5886	34.4238	75.6496	34.4238	75.6069
35.8887	78.9651	35.8887	78.9478	35.8887	78.9766	35.8887	78.9247	35.8887	78.9823	35.8887	78.896	35.8887	78.9816	35.8887	78.8612	35.8887	78.9739	35.8887	78.8202	35.8887	78.9586	35.8887	78.7727	35.8887	78.9348	35.8887	78.7184	35.8887	78.9014	35.8887	78.6573	35.8887	78.8574	35.8887	78.5896	35.8887	78.8021	35.8887	78.5161	35.8887	78.7352	35.8887	78.4385	35.8887	78.6572	35.8887	78.3594	35.8887	78.57	35.8887	78.2827	35.8887	78.4768	35.8887	78.2136	35.8887	78.3824	35.8887	78.1576	35.8887	78.2929	35.8887	78.1203	35.8887	78.215	35.8887	78.1062	35.8887	78.1549	35.8887	78.1177
37.3535	81.4549	37.3535	81.4367	37.3535	81.4672	37.3535	81.4125	37.3535	81.4731	37.3535	81.3824	37.3535	81.4724	37.3535	81.3463	37.3535	81.4644	37.3535	81.304	37.3535	81.4486	37.3535	81.2554	37.3535	81.424	37.3535	81.2004	37.3535	81.3899	37.3535	81.1389	37.3535	81.3455	37.3535	81.0716	37.3535	81.2902	37.3535	80.9992	37.3535	81.2242	37.3535	80.9236	37.3535	81.148	37.3535	80.8476	37.3535	81.0636	37.3535	80.775	37.3535	80.9741	37.3535	80.7105	37.3535	80.8839	37.3535	80.6594	37.3535	80.7984	37.3535	80.6264	37.3535	80.7238	37.3535	80.6156	37.3535	80.6658	37.3535	80.6288
38.8184	83.6684	38.8184	83.6502	38.8184	83.6798	38.8184	83.6252	38.8184	83.6842	38.8184	83.5935	38.8184	83.6812	38.8184	83.5551	38.8184	83.6704	38.8184	83.5096	38.8184	83.6511	38.8184	83.4572	38.8184	83.6227	38.8184	83.3978	38.8184	83.5845	38.8184	83.3317	38.8184	83.5359	38.8184	83.2596	38.8184	83.4767	38.8184	83.1827	38.8184	83.407	38.8184	83.1032	38.8184	83.3278	38.8184	83.0242	38.8184	83.241	38.8184	82.9495	38.8184	83.15	38.8184	82.884	38.8184	83.059	38.8184	82.8326	38.8184	82.9733	38.8184	82.8001	38.8184	82.8987	38.8184	82.7898	38.8184	82.8407	38.8184	82.8035
39.5508	84.6956	39.5508	84.6778	39.5508	84.7065	39.5508	84.6532	39.5508	84.7103	39.5508	84.6218	39.5508	84.7066	39.5508	84.5835	39.5508	84.6949	39.5508	84.5382	39.5508	84.6748	39.5508	84.4859	39.5508	84.6456	39.5508	84.4267	39.5508	84.6067	39.5508	84.361	39.5508	84.5577	39.5508	84.2894	39.5508	84.4983	39.5508	84.2134	39.5508	84.4289	39.5508	84.1351	39.5508	84.3505	39.5508	84.0575	39.5508	84.2653	39.5508	83.9846	39.5508	84.1763	39.5508	83.9208	39.5508	84.0878	39.5508	83.8709	39.5508	84.0049	39.5508	83.8392	39.5508	83.933	39.5508	83.829	39.5508	83.8773	39.5508	83.8419
41.0156	86.4826	41.0156	86.463	41.0156	86.4942	41.0156	86.4353	41.0156	86.4976	41.0156	86.3997	41.0156	86.4924	41.0156	86.356	41.0156	86.4785	41.0156	86.3044	41.0156	86.4552	41.0156	86.2448	41.0156	86.4221	41.0156	86.1778	41.0156	86.3788	41.0156	86.104	41.0156	86.3249	41.0156	86.0246	41.0156	86.2604	41.0156	85.9415	41.0156	86.1858	41.0156	85.8572	41.0156	86.1022	41.0156	85.7752	41.0156	86.0119	41.0156	85.6995	41.0156	85.9182	41.0156	85.6347	41.0156	85.8252	41.0156	85.5854	41.0156	85.7382	41.0156	85.5556	41.0156	85.6625	41.0156	85.5481	41.0156	85.6031	41.0156	85.5642
42.4805	87.9916	42.4805	87.9754	42.4805	88.0001	42.4805	87.9514	42.4805	88.0005	42.4805	87.92	42.4805	87.9927	42.4805	87.881	42.4805	87.9762	42.4805	87.8346	42.4805	87.9508	42.4805	87.7808	42.4805	87.9161	42.4805	87.7201	42.4805	87.8718	42.4805	87.6528	42.4805	87.8177	42.4805	87.5797	42.4805	87.7542	42.4805	87.5022	42.4805	87.6817	42.4805	87.4222	42.4805	87.6015	42.4805	87.3427	42.4805	87.5158	42.4805	87.2675	42.4805	87.4276	42.4805	87.201	42.4805	87.341	42.4805	87.1481	42.4805	87.2609	42.4805	87.1131	42.4805	87.1923	42.4805	87.0993	42.4805	87.1402	42.4805	87.1085
43.9453	88.9792	43.9453	88.9648	43.9453	88.9851	43.9453	88.9422	43.9453	88.9825	43.9453	88.9113	43.9453	88.9708	43.9453	88.8721	43.9453	88.95	43.9453	88.8248	43.9453	88.9194	43.9453	88.7693	43.9453	88.8789	43.9453	88.7058	43.9453	88.8281	43.9453	88.6349	43.9453	88.7671	43.9453	88.5574	43.9453	88.6962	43.9453	88.4747	43.9453	88.6165	43.9453	88.3891	43.9453	88.5295	43.9453	88.3036	43.9453	88.438	43.9453	88.2222	43.9453	88.3455	43.9453	88.1494	43.9453	88.2564	43.9453	88.0901	43.9453	88.1757	43.9453	88.0487	43.9453	88.1087	43.9453	88.0289	43.9453	88.0598	43.9453	88.0326
45.4102	89.7439	45.4102	89.7289	45.4102	89.7502	45.4102	89.7055	45.4102	89.7477	45.4102	89.6737	45.4102	89.736	45.4102	89.6336	45.4102	89.7148	45.4102	89.5853	45.4102	89.6838	45.4102	89.5289	45.4102	89.6426	45.4102	89.4648	45.4102	89.5911	45.4102	89.3935	45.4102	89.5293	45.4102	89.316	45.4102	89.4578	45.4102	89.2338	45.4102	89.3777	45.4102	89.1492	45.4102	89.2906	45.4102	89.0651	45.4102	89.1994	45.4102	88.9854	45.4102	89.1076	45.4102	88.9144	45.4102	89.0196	45.4102	88.8567	45.4102	88.9404	45.4102	88.8165	45.4102	88.8747	45.4102	88.7972	45.4102	88.8271	45.4102	88.8007
47.6074	90.3964	47.6074	90.3804	47.6074	90.4034	47.6074	90.3556	47.6074	90.4011	47.6074	90.3222	47.6074	90.3893	47.6074	90.2802	47.6074	90.3677	47.6074	90.2301	47.6074	90.3359	47.6074	90.1721	47.6074	90.2938	47.6074	90.1068	47.6074	90.2415	47.6074	90.035	47.6074	90.1791	47.6074	89.9578	47.6074	90.1074	47.6074	89.877	47.6074	90.0276	47.6074	89.7948	47.6074	89.9417	47.6074	89.7143	47.6074	89.8525	47.6074	89.6388	47.6074	89.7634	47.6074	89.5724	47.6074	89.6786	47.6074	89.519	47.6074	89.6028	47.6074	89.4824	47.6074	89.5402	47.6074	89.4653	47.6074	89.4948	47.6074	89.4694
49.0723	90.612	49.0723	90.5949	49.0723	90.6196	49.0723	90.5684	49.0723	90.6174	49.0723	90.5328	49.0723	90.6051	49.0723	90.4883	49.0723	90.5824	49.0723	90.4352	49.0723	90.5492	49.0723	90.3739	49.0723	90.5054	49.0723	90.3051	49.0723	90.4509	49.0723	90.2298	49.0723	90.3861	49.0723	90.1492	49.0723	90.312	49.0723	90.0654	49.0723	90.2297	49.0723	89.9807	49.0723	90.1415	49.0723	89.8984	49.0723	90.0501	49.0723	89.822	49.0723	89.9591	49.0723	89.7555	49.0723	89.8726	49.0723	89.7027	49.0723	89.7953	49.0723	89.6673	49.0723	89.7313	49.0723	89.6517	49.0723	89.6844	49.0723	89.6574
50.5371	90.7297	50.5371	90.7107	50.5371	90.7386	50.5371	90.682	50.5371	90.7372	50.5371	90.6438	50.5371	90.7254	50.5371	90.5964	50.5371	90.7027	50.5371	90.5402	50.5371	90.669	50.5371	90.4756	50.5371	90.6242	50.5371	90.4034	50.5371	90.5683	50.5371	90.3248	50.5371	90.5019	50.5371	90.2411	50.5371	90.4257	50.5371	90.1545	50.5371	90.3411	50.5371	90.0676	50.5371	90.2503	50.5371	89.9836	50.5371	90.1561	50.5371	89.9062	50.5371	90.0623	50.5371	89.8394	50.5371	89.973	50.5371	89.7872	50.5371	89.8928	50.5371	89.7529	50.5371	89.8259	50.5371	89.739	50.5371	89.7764	50.5371	89.7469
52.7344	90.8262	52.7344	90.8052	52.7344	90.8368	52.7344	90.774	52.7344	90.8366	52.7344	90.7329	52.7344	90.8255	52.7344	90.6822	52.7344	90.8032	52.7344	90.6223	52.7344	90.7696	52.7344	90.5538	52.7344	90.7246	52.7344	90.4777	52.7344	90.6684	52.7344	90.3952	52.7344	90.6014	52.7344	90.308	52.7344	90.5246	52.7344	90.2184	52.7344	90.4393	52.7344	90.1292	52.7344	90.3476	52.7344	90.0439	52.7344	90.2523	52.7344	89.9665	52.7344	90.1569	52.7344	89.901	52.7344	90.0654	52.7344	89.8513	52.7344	89.9822	52.7344	89.8206	52.7344	89.9118	52.7344	89.8111	52.7344	89.8579	52.7344	89.8237
54.1992	90.8282	54.1992	90.8072	54.1992	90.8386	54.1992	90.7758	54.1992	90.8381	54.1992	90.7343	54.1992	90.8265	54.1992	90.683	54.1992	90.8036	54.1992	90.6225	54.1992	90.7692	54.1992	90.5534	54.1992	90.7234	54.1992	90.4765	54.1992	90.6663	54.1992	90.3933	54.1992	90.5984	54.1992	90.3054	54.1992	90.5206	54.1992	90.2151	54.1992	90.4345	54.1992	90.1253	54.1992	90.342	54.1992	90.0395	54.1992	90.2459	54.1992	89.9615	54.1992	90.1499	54.1992	89.8954	54.1992	90.0579	54.1992	89.8451	54.1992	89.9744	54.1992	89.8138	54.1992	89.9037	54.1992	89.8038	54.1992	89.8499	54.1992	89.816
56.3965	90.7998	56.3965	90.7775	56.3965	90.8113	56.3965	90.7447	56.3965	90.8118	56.3965	90.7018	56.3965	90.8009	56.3965	90.6494	56.3965	90.7785	56.3965	90.5879	56.3965	90.7444	56.3965	90.5182	56.3965	90.6986	56.3965	90.4413	56.3965	90.6415	56.3965	90.3585	56.3965	90.5736	56.3965	90.2717	56.3965	90.4958	56.3965	90.1829	56.3965	90.4096	56.3965	90.0951	56.3965	90.3171	56.3965	90.0115	56.3965	90.2212	56.3965	89.9357	56.3965	90.1254	56.3965	89.8716	56.3965	90.0339	56.3965	89.8227	56.3965	89.951	56.3965	89.7923	56.3965	89.881	56.3965	89.7826	56.3965	89.8279	56.3965	89.7945
58.5938	90.8552	58.5938	90.8331	58.5938	90.866	58.5938	90.7997	58.5938	90.8649	58.5938	90.7557	58.5938	90.8519	58.5938	90.7015	58.5938	90.8266	58.5938	90.6378	58.5938	90.7892	58.5938	90.5655	58.5938	90.7398	58.5938	90.4858	58.5938	90.6787	58.5938	90.4003	58.5938	90.6067	58.5938	90.311	58.5938	90.525	58.5938	90.2202	58.5938	90.4353	58.5938	90.1308	58.5938	90.34	58.5938	90.0461	58.5938	90.2421	58.5938	89.9696	58.5938	90.1454	58.5938	89.9048	58.5938	90.0539	58.5938	89.8551	58.5938	89.972	58.5938	89.8235	58.5938	89.9038	58.5938	89.8121	58.5938	89.853	58.5938	89.8219
60.0586	90.8387	60.0586	90.816	60.0586	90.8495	60.0586	90.7817	60.0586	90.8481	60.0586	90.7365	60.0586	90.8344	60.0586	90.6808	60.0586	90.8081	60.0586	90.6156	60.0586	90.7692	60.0586	90.5417	60.0586	90.7181	60.0586	90.4607	60.0586	90.6551	60.0586	90.3741	60.0586	90.581	60.0586	90.2842	60.0586	90.4971	60.0586	90.1932	60.0586	90.4053	60.0586	90.1041	60.0586	90.3082	60.0586	90.0198	60.0586	90.2088	60.0586	89.9437	60.0586	90.1112	60.0586	89.8791	60.0586	90.0194	60.0586	89.8291	60.0586	89.9379	60.0586	89.7967	60.0586	89.8708	60.0586	89.784	60.0586	89.8215	60.0586	89.7922
62.2559	90.7783	62.2559	90.7533	62.2559	90.7912	62.2559	90.7165	62.2559	90.7916	62.2559	90.6687	62.2559	90.7793	62.2559	90.6103	62.2559	90.754	62.2559	90.5422	62.2559	90.7158	62.2559	90.4656	62.2559	90.6648	62.2559	90.3819	62.2559	90.6015	62.2559	90.2928	62.2559	90.5265	62.2559	90.2004	62.2559	90.4413	62.2559	90.1072	62.2559	90.3478	62.2559	90.0162	62.2559	90.2485	62.2559	89.9307	62.2559	90.1466	62.2559	89.8541	62.2559	90.0462	62.2559	89.7898	62.2559	89.9515	62.2559	89.7411	62.2559	89.867	62.2559	89.7107	62.2559	89.7967	62.2559	89.7005	62.2559	89.7442	62.2559	89.7117
64.4531	90.7446	64.4531	90.7179	64.4531	90.7586	64.4531	90.679	64.4531	90.7597	64.4531	90.6284	64.4531	90.7476	64.4531	90.567	64.4531	90.7222	64.4531	90.4955	64.4531	90.6834	64.4531	90.4151	64.4531	90.6316	64.4531	90.3275	64.4531	90.5671	64.4531	90.2346	64.4531	90.4909	64.4531	90.1386	64.4531	90.4043	64.4531	90.0423	64.4531	90.3093	64.4531	89.9491	64.4531	90.2084	64.4531	89.8622	64.4531	90.1048	64.4531	89.7853	64.4531	90.0025	64.4531	89.7218	64.4531	89.9057	64.4531	89.6749	64.4531	89.8188	64.4531	89.6471	64.4531	89.7458	64.4531	89.64	64.4531	89.6902	64.4531	89.6545
66.6504	90.7692	66.6504	90.7396	66.6504	90.7853	66.6504	90.6969	66.6504	90.7876	66.6504	90.6417	66.6504	90.7756	66.6504	90.5749	66.6504	90.7493	66.6504	90.4973	66.6504	90.7086	66.6504	90.4103	66.6504	90.6537	66.6504	90.3156	66.6504	90.5852	66.6504	90.2151	66.6504	90.5037	66.6504	90.1115	66.6504	90.4108	66.6504	90.0076	66.6504	90.3083	66.6504	89.907	66.6504	90.199	66.6504	89.8133	66.6504	90.0865	66.6504	89.7305	66.6504	89.975	66.6504	89.6623	66.6504	89.8691	66.6504	89.6121	66.6504	89.7738	66.6504	89.5827	66.6504	89.6935	66.6504	89.5758	66.6504	89.6321	66.6504	89.5924
69.5801	90.7991	69.5801	90.7667	69.5801	90.818	69.5801	90.721	69.5801	90.8231	69.5801	90.6628	69.5801	90.814	69.5801	90.5928	69.5801	90.7908	69.5801	90.512	69.5801	90.7535	69.5801	90.4217	69.5801	90.7023	69.5801	90.3237	69.5801	90.6379	69.5801	90.2202	69.5801	90.5611	69.5801	90.114	69.5801	90.4731	69.5801	90.0082	69.5801	90.3756	69.5801	89.9068	69.5801	90.271	69.5801	89.8138	69.5801	90.162	69.5801	89.7336	69.5801	90.0523	69.5801	89.6703	69.5801	89.9457	69.5801	89.6274	69.5801	89.8468	69.5801	89.6072	69.5801	89.76	69.5801	89.6111	69.5801	89.6895	69.5801	89.639
71.7773	90.8001	71.7773	90.7684	71.7773	90.8186	71.7773	90.7238	71.7773	90.8237	71.7773	90.667	71.7773	90.8153	71.7773	90.5987	71.7773	90.7935	71.7773	90.52	71.7773	90.7585	71.7773	90.4321	71.7773	90.7107	71.7773	90.337	71.7773	90.6507	71.7773	90.2369	71.7773	90.5797	71.7773	90.1348	71.7773	90.4988	71.7773	90.0339	71.7773	90.4096	71.7773	89.9382	71.7773	90.3142	71.7773	89.8519	71.7773	90.215	71.7773	89.7792	71.7773	90.1147	71.7773	89.724	71.7773	90.0167	71.7773	89.6892	71.7773	89.9244	71.7773	89.6769	71.7773	89.8417	71.7773	89.6874	71.7773	89.7723	71.7773	89.7199
73.9746	90.8581	73.9746	90.8286	73.9746	90.8741	73.9746	90.7859	73.9746	90.8764	73.9746	90.7308	73.9746	90.8646	73.9746	90.6641	73.9746	90.839	73.9746	90.5871	73.9746	90.7999	73.9746	90.5011	73.9746	90.7476	73.9746	90.4081	73.9746	90.683	73.9746	90.3104	73.9746	90.6073	73.9746	90.2108	73.9746	90.5219	73.9746	90.1124	73.9746	90.4289	73.9746	90.0188	73.9746	90.3305	73.9746	89.9337	73.9746	90.2297	73.9746	89.8606	73.9746	90.1297	73.9746	89.8031	73.9746	90.0343	73.9746	89.7637	73.9746	89.947	73.9746	89.7444	73.9746	89.8716	73.9746	89.7461	73.9746	89.8113	73.9746	89.7688
76.9043	90.7787	76.9043	90.7443	76.9043	90.7993	76.9043	90.6965	76.9043	90.8057	76.9043	90.6362	76.9043	90.7979	76.9043	90.5642	76.9043	90.776	76.9043	90.4821	76.9043	90.7403	76.9043	90.3916	76.9043	90.6914	76.9043	90.295	76.9043	90.6301	76.9043	90.1949	76.9043	90.5577	76.9043	90.0946	76.9043	90.4758	76.9043	89.9976	76.9043	90.3863	76.9043	89.9078	76.9043	90.2915	76.9043	89.8289	76.9043	90.1941	76.9043	89.7644	76.9043	90.097	76.9043	89.7172	76.9043	90.0034	76.9043	89.6892	76.9043	89.9165	76.9043	89.6815	76.9043	89.8392	76.9043	89.6939	76.9043	89.7747	76.9043	89.7255
79.834	90.9156	79.834	90.8883	79.834	90.928	79.834	90.8466	79.834	90.9253	79.834	90.7914	79.834	90.9076	79.834	90.7238	79.834	90.8751	79.834	90.6456	79.834	90.8287	79.834	90.5586	79.834	90.7695	79.834	90.4655	79.834	90.6992	79.834	90.3693	79.834	90.6199	79.834	90.2734	79.834	90.5342	79.834	90.1816	79.834	90.4451	79.834	90.0979	79.834	90.3558	79.834	90.0258	79.834	90.2694	79.834	89.9681	79.834	90.1885	79.834	89.9267	79.834	90.1154	79.834	89.9023	79.834	90.0515	79.834	89.8942	79.834	89.9975	79.834	89.9012	79.834	89.954	79.834	89.9216
82.7637	91.1766	82.7637	91.1495	82.7637	91.1863	82.7637	91.1054	82.7637	91.1782	82.7637	91.0451	82.7637	91.1521	82.7637	90.9697	82.7637	91.1082	82.7637	90.8806	82.7637	91.047	82.7637	90.7795	82.7637	90.9692	82.7637	90.6687	82.7637	90.8763	82.7637	90.5508	82.7637	90.7701	82.7637	90.4293	82.7637	90.6533	82.7637	90.3077	82.7637	90.5293	82.7637	90.1903	82.7637	90.402	82.7637	90.0813	82.7637	90.276	82.7637	89.9849	82.7637	90.1563	82.7637	89.9048	82.7637	90.0475	82.7637	89.8441	82.7637	89.9541	82.7637	89.8049	82.7637	89.8795	82.7637	89.7885	82.7637	89.8262	82.7637	89.7956
85.6934	91.2985	85.6934	91.2679	85.6934	91.3103	85.6934	91.2192	85.6934	91.3031	85.6934	91.1529	85.6934	91.2763	85.6934	91.0699	85.6934	91.2299	85.6934	90.9713	85.6934	91.1637	85.6934	90.8583	85.6934	91.0781	85.6934	90.7327	85.6934	90.9739	85.6934	90.597	85.6934	90.8524	85.6934	90.454	85.6934	90.7158	85.6934	90.3076	85.6934	90.5673	85.6934	90.1621	85.6934	90.4111	85.6934	90.0229	85.6934	90.2526	85.6934	89.8953	85.6934	90.0982	85.6934	89.7853	85.6934	89.9547	85.6934	89.6984	85.6934	89.8293	85.6934	89.6391	85.6934	89.728	85.6934	89.6111	85.6934	89.6561	85.6934	89.6166
88.623	90.9504	88.623	90.915	88.623	90.9752	88.623	90.8699	88.623	90.9889	88.623	90.816	88.623	90.991	88.623	90.7543	88.623	90.9813	88.623	90.6861	88.623	90.9595	88.623	90.6128	88.623	90.9258	88.623	90.5362	88.623	90.8804	88.623	90.4581	88.623	90.8239	88.623	90.3806	88.623	90.7573	88.623	90.3059	88.623	90.6819	88.623	90.2363	88.623	90.5998	88.623	90.1744	88.623	90.5133	88.623	90.1226	88.623	90.4254	88.623	90.0833	88.623	90.3396	88.623	90.0587	88.623	90.2593	88.623	90.0505	88.623	90.1883	88.623	90.0596	88.623	90.1298	88.623	90.0863
91.5527	90.9247	91.5527	90.8806	91.5527	90.9541	91.5527	90.8227	91.5527	90.9687	91.5527	90.7525	91.5527	90.9689	91.5527	90.6721	91.5527	90.9557	91.5527	90.5844	91.5527	90.9303	91.5527	90.4932	91.5527	90.8948	91.5527	90.4029	91.5527	90.8515	91.5527	90.3182	91.5527	90.8027	91.5527	90.2442	91.5527	90.7512	91.5527	90.1855	91.5527	90.6992	91.5527	90.1456	91.5527	90.6486	91.5527	90.1265	91.5527	90.6005	91.5527	90.1281	91.5527	90.555	91.5527	90.1482	91.5527	90.5115	91.5527	90.183	91.5527	90.4684	91.5527	90.2278	91.5527	90.4243	91.5527	90.2776	91.5527	90.3777	91.5527	90.3285
94.4824	91.4845	94.4824	91.4502	94.4824	91.4985	94.4824	91.3962	94.4824	91.4921	94.4824	91.3235	94.4824	91.4656	94.4824	91.2336	94.4824	91.4198	94.4824	91.1288	94.4824	91.3558	94.4824	91.0119	94.4824	91.2757	94.4824	90.8868	94.4824	91.1818	94.4824	90.758	94.4824	91.0776	94.4824	90.6311	94.4824	90.9668	94.4824	90.5119	94.4824	90.8539	94.4824	90.4062	94.4824	90.7434	94.4824	90.3191	94.4824	90.6393	94.4824	90.2542	94.4824	90.5448	94.4824	90.2128	94.4824	90.4618	94.4824	90.194	94.4824	90.3907	94.4824	90.1949	94.4824	90.3309	94.4824	90.2118	94.4824	90.2813	94.4824	90.2414
98.1445	91.5455	98.1445	91.5111	98.1445	91.5614	98.1445	91.4588	98.1445	91.5586	98.1445	91.3894	98.1445	91.5369	98.1445	91.3041	98.1445	91.4966	98.1445	91.2047	98.1445	91.4384	98.1445	91.0932	98.1445	91.3631	98.1445	90.9723	98.1445	91.2723	98.1445	90.8454	98.1445	91.1677	98.1445	90.7163	98.1445	91.0521	98.1445	90.5894	98.1445	90.9284	98.1445	90.4693	98.1445	90.8005	98.1445	90.3608	98.1445	90.6726	98.1445	90.2682	98.1445	90.549	98.1445	90.1953	98.1445	90.4343	98.1445	90.1447	98.1445	90.3325	98.1445	90.1178	98.1445	90.2472	98.1445	90.1153	98.1445	90.1812	98.1445	90.1367
101.807	91.6225	101.807	91.5869	101.807	91.6395	101.807	91.5333	101.807	91.6378	101.807	91.463	101.807	91.6175	101.807	91.3772	101.807	91.5791	101.807	91.2781	101.807	91.5238	101.807	91.1683	101.807	91.4531	101.807	91.0509	101.807	91.3691	101.807	90.9299	101.807	91.2743	101.807	90.8097	101.807	91.1718	101.807	90.695	101.807	91.0648	101.807	90.5907	101.807	90.9569	101.807	90.5011	101.807	90.851	101.807	90.4302	101.807	90.7502	101.807	90.3801	101.807	90.6567	101.807	90.3521	101.807	90.5724	101.807	90.3455	101.807	90.499	101.807	90.359	101.807	90.4378	101.807	90.3905
105.469	91.6966	105.469	91.6569	105.469	91.7173	105.469	91.5988	105.469	91.7186	105.469	91.5234	105.469	91.7008	105.469	91.4326	105.469	91.6645	105.469	91.3286	105.469	91.6109	105.469	91.2146	105.469	91.5414	105.469	91.0942	105.469	91.4585	105.469	90.9721	105.469	91.3648	105.469	90.853	105.469	91.2636	105.469	90.7424	105.469	91.1586	105.469	90.6453	105.469	91.0535	105.469	90.5659	105.469	90.9517	105.469	90.5071	105.469	90.8561	105.469	90.4704	105.469	90.7687	105.469	90.4551	105.469	90.6906	105.469	90.4594	105.469	90.6223	105.469	90.4808	105.469	90.564	105.469	90.5163
109.131	91.8791	109.131	91.8461	109.131	91.8926	109.131	91.7941	109.131	91.8862	109.131	91.7245	109.131	91.8603	109.131	91.639	109.131	91.8154	109.131	91.5399	109.131	91.7529	109.131	91.4302	109.131	91.6748	109.131	91.3136	109.131	91.5834	109.131	91.1945	109.131	91.4822	109.131	91.0777	109.131	91.3748	109.131	90.9683	109.131	91.2657	109.131	90.8712	109.131	91.1591	109.131	90.7904	109.131	91.0589	109.131	90.7286	109.131	90.9683	109.131	90.6869	109.131	90.8894	109.131	90.6644	109.131	90.8226	109.131	90.6593	109.131	90.7678	109.131	90.669	109.131	90.7241	109.131	90.691
112.793	91.9974	112.793	91.9655	112.793	92.009	112.793	91.9143	112.793	92.0001	112.793	91.8452	112.793	91.9707	112.793	91.7601	112.793	91.9216	112.793	91.6617	112.793	91.8539	112.793	91.5531	112.793	91.7698	112.793	91.4383	112.793	91.672	112.793	91.3216	112.793	91.564	112.793	91.2079	112.793	91.4502	112.793	91.102	112.793	91.3353	112.793	91.0082	112.793	91.2244	112.793	90.9299	112.793	91.1221	112.793	90.8689	112.793	91.0321	112.793	90.8256	112.793	90.9567	112.793	90.7988	112.793	90.8967	112.793	90.7866	112.793	90.8512	112.793	90.7866	112.793	90.8186	112.793	90.7974
116.455	92.1269	116.455	92.0848	116.455	92.1477	116.455	92.0225	116.455	92.1469	116.455	91.9415	116.455	92.1244	116.455	91.8439	116.455	92.081	116.455	91.7327	116.455	92.0179	116.455	91.6116	116.455	91.9369	116.455	91.485	116.455	91.8407	116.455	91.358	116.455	91.7325	116.455	91.2361	116.455	91.6167	116.455	91.1246	116.455	91.4976	116.455	91.0282	116.455	91.3804	116.455	90.9506	116.455	91.2695	116.455	90.8933	116.455	91.169	116.455	90.8564	116.455	91.0816	116.455	90.8381	116.455	91.0086	116.455	90.8358	116.455	90.9497	116.455	90.847	116.455	90.9039	116.455	90.8698
120.85	92.2838	120.85	92.2385	120.85	92.3072	120.85	92.1719	120.85	92.3086	120.85	92.0856	120.85	92.2883	120.85	91.9819	120.85	92.2475	120.85	91.864	120.85	92.188	120.85	91.736	120.85	92.1122	120.85	91.6033	120.85	92.0233	120.85	91.4719	120.85	91.9248	120.85	91.3484	120.85	91.8212	120.85	91.2393	120.85	91.7167	120.85	91.1504	120.85	91.6155	120.85	91.0854	120.85	91.5211	120.85	91.0461	120.85	91.4357	120.85	91.0312	120.85	91.3602	120.85	91.0373	120.85	91.294	120.85	91.0599	120.85	91.2356	120.85	91.0941	120.85	91.1832	120.85	91.1359
125.244	92.3308	125.244	92.2905	125.244	92.3483	125.244	92.2281	125.244	92.343	125.244	92.1452	125.244	92.3155	125.244	92.0441	125.244	92.2672	125.244	91.928	125.244	92.2004	125.244	91.8014	125.244	92.1181	125.244	91.6697	125.244	92.0241	125.244	91.5391	125.244	91.923	125.244	91.4168	125.244	91.8199	125.244	91.3098	125.244	91.7199	125.244	91.2244	125.244	91.6277	125.244	91.1649	125.244	91.5464	125.244	91.1328	125.244	91.4776	125.244	91.1265	125.244	91.4206	125.244	91.1415	125.244	91.3728	125.244	91.1712	125.244	91.3306	125.244	91.2091	125.244	91.2903	125.244	91.2498
129.639	92.5094	129.639	92.4682	129.639	92.5261	129.639	92.4035	129.639	92.5179	129.639	92.3168	129.639	92.4851	129.639	92.2107	129.639	92.4287	129.639	92.0882	129.639	92.3507	129.639	91.9536	129.639	92.2536	129.639	91.8119	129.639	92.1413	129.639	91.669	129.639	92.0185	129.639	91.5317	129.639	91.8908	129.639	91.4067	129.639	91.7641	129.639	91.3003	129.639	91.6444	129.639	91.2172	129.639	91.5366	129.639	91.1599	129.639	91.4439	129.639	91.1281	129.639	91.3671	129.639	91.1188	129.639	91.305	129.639	91.1273	129.639	91.2547	129.639	91.1483	129.639	91.213	129.639	91.1776
134.033	92.5902	134.033	92.5528	134.033	92.6024	134.033	92.4911	134.033	92.5892	134.033	92.4072	134.033	92.5507	134.033	92.3033	134.033	92.4883	134.033	92.1833	134.033	92.4038	134.033	92.0513	134.033	92.3003	134.033	91.913	134.033	92.1816	134.033	91.7745	134.033	92.0529	134.033	91.6425	134.033	91.9201	134.033	91.5235	134.033	91.7898	134.033	91.423	134.033	91.6683	134.033	91.3449	134.033	91.5613	134.033	91.2903	134.033	91.4723	134.033	91.2578	134.033	91.4026	134.033	91.2438	134.033	91.3509	134.033	91.2434	134.033	91.3136	134.033	91.2522	134.033	91.2868	134.033	91.2669
138.428	92.6692	138.428	92.6269	138.428	92.6855	138.428	92.56	138.428	92.6754	138.428	92.4706	138.428	92.6389	138.428	92.3617	138.428	92.5773	138.428	92.2374	138.428	92.4925	138.428	92.1028	138.428	92.3875	138.428	91.964	138.428	92.2665	138.428	91.8278	138.428	92.1349	138.428	91.7014	138.428	91.9991	138.428	91.5914	138.428	91.8663	138.428	91.5027	138.428	91.7438	138.428	91.4381	138.428	91.6378	138.428	91.3972	138.428	91.5527	138.428	91.3767	138.428	91.4896	138.428	91.3713	138.428	91.4468	138.428	91.375	138.428	91.4201	138.428	91.3829	138.428	91.4036	138.428	91.3924
143.555	92.8293	143.555	92.7777	143.555	92.8529	143.555	92.6991	143.555	92.8483	143.555	92.5953	143.555	92.8162	143.555	92.4694	143.555	92.7582	143.555	92.3255	143.555	92.6765	143.555	92.1695	143.555	92.5746	143.555	92.0086	143.555	92.4568	143.555	91.8513	143.555	92.3284	143.555	91.7067	143.555	92.1957	143.555	91.5839	143.555	92.0657	143.555	91.4898	143.555	91.9448	143.555	91.4284	143.555	91.8386	143.555	91.3995	143.555	91.7507	143.555	91.3987	143.555	91.6818	143.555	91.4182	143.555	91.6293	143.555	91.4496	143.555	91.5886	143.555	91.4852	143.555	91.554	143.555	91.5204
148.682	92.9452	148.682	92.895	148.682	92.9661	148.682	92.8163	148.682	92.9577	148.682	92.7109	148.682	92.9205	148.682	92.5818	148.682	92.8563	148.682	92.4329	148.682	92.7675	148.682	92.2699	148.682	92.6579	148.682	92.1	148.682	92.5322	148.682	91.9317	148.682	92.3963	148.682	91.7749	148.682	92.2572	148.682	91.6392	148.682	92.1221	148.682	91.5331	148.682	91.9981	148.682	91.4618	148.682	91.8905	148.682	91.4262	148.682	91.8025	148.682	91.4226	148.682	91.7337	148.682	91.4434	148.682	91.681	148.682	91.4789	148.682	91.6387	148.682	91.5204	148.682	91.6005	148.682	91.5617
153.809	93.1424	153.809	93.0951	153.809	93.1597	153.809	93.0186	153.809	93.147	153.809	92.9143	153.809	93.105	153.809	92.7846	153.809	93.035	153.809	92.6329	153.809	92.9397	153.809	92.4642	153.809	92.8223	153.809	92.2845	153.809	92.6877	153.809	92.1019	153.809	92.5415	153.809	91.9255	153.809	92.3908	153.809	91.7653	153.809	92.2427	153.809	91.6306	153.809	92.104	153.809	91.5289	153.809	91.9803	153.809	91.4639	153.809	91.8746	153.809	91.4349	153.809	91.787	153.809	91.4367	153.809	91.7148	153.809	91.4616	153.809	91.6536	153.809	91.5011	153.809	91.599	153.809	91.5481
159.668	93.1882	159.668	93.148	159.668	93.1983	159.668	93.0789	159.668	93.1783	159.668	92.9827	159.668	93.1288	159.668	92.8625	159.668	93.0513	159.668	92.7222	159.668	92.9488	159.668	92.5675	159.668	92.825	159.668	92.4049	159.668	92.6854	159.668	92.2425	159.668	92.5368	159.668	92.0892	159.668	92.3871	159.668	91.9537	159.668	92.2448	159.668	91.8435	159.668	92.1178	159.668	91.7635	159.668	92.012	159.668	91.715	159.668	91.9305	159.668	91.6952	159.668	91.8722	159.668	91.6976	159.668	91.8327	159.668	91.7144	159.668	91.8053	159.668	91.7375	159.668	91.7832	159.668	91.7611
164.795	93.274	164.795	93.2319	164.795	93.2855	164.795	93.1606	164.795	93.2658	164.795	93.0623	164.795	93.2153	164.795	92.9406	164.795	93.1354	164.795	92.7999	164.795	93.0285	164.795	92.6462	164.795	92.8985	164.795	92.4868	164.795	92.7509	164.795	92.33	164.795	92.5927	164.795	92.1844	164.795	92.4326	164.795	92.0585	164.795	92.2802	164.795	91.9586	164.795	92.1449	164.795	91.8883	164.795	92.0342	164.795	91.8467	164.795	91.9525	164.795	91.8295	164.795	91.8997	164.795	91.8292	164.795	91.8713	164.795	91.8374	164.795	91.8596	164.795	91.8468	164.795	91.8559	164.795	91.853
170.654	93.1958	170.654	93.1404	170.654	93.2187	170.654	93.0542	170.654	93.2089	170.654	92.9397	170.654	93.167	170.654	92.8009	170.654	93.0948	170.654	92.6434	170.654	92.9954	170.654	92.4748	170.654	92.8732	170.654	92.304	170.654	92.734	170.654	92.1416	170.654	92.5854	170.654	91.9983	170.654	92.4363	170.654	91.8839	170.654	92.2962	170.654	91.8053	170.654	92.174	170.654	91.7647	170.654	92.0768	170.654	91.7589	170.654	92.0078	170.654	91.7798	170.654	91.9658	170.654	91.8163	170.654	91.9449	170.654	91.8568	170.654	91.936	170.654	91.8918	170.654	91.9292	170.654	91.916
176.514	93.229	176.514	93.1745	176.514	93.2481	176.514	93.0854	176.514	93.2319	176.514	92.9638	176.514	93.1817	176.514	92.8134	176.514	93.0997	176.514	92.6395	176.514	92.9897	176.514	92.45	176.514	92.8567	176.514	92.2547	176.514	92.7076	176.514	92.0662	176.514	92.5508	176.514	91.898	176.514	92.3963	176.514	91.7635	176.514	92.2544	176.514	91.6727	176.514	92.1346	176.514	91.6303	176.514	92.0435	176.514	91.6334	176.514	91.9832	176.514	91.6723	176.514	91.9505	176.514	91.7323	176.514	91.9369	176.514	91.7978	176.514	91.931	176.514	91.8555	176.514	91.9208	176.514	91.8971
183.105	93.2752	183.105	93.2312	183.105	93.2826	183.105	93.1516	183.105	93.2533	183.105	93.0384	183.105	93.1884	183.105	92.8947	183.105	93.0898	183.105	92.7253	183.105	92.9607	183.105	92.5367	183.105	92.8064	183.105	92.338	183.105	92.6337	183.105	92.1403	183.105	92.4518	183.105	91.9566	183.105	92.2718	183.105	91.8001	183.105	92.1058	183.105	91.6822	183.105	91.9651	183.105	91.6095	183.105	91.8584	183.105	91.582	183.105	91.789	183.105	91.5923	183.105	91.7538	183.105	91.6271	183.105	91.7437	183.105	91.6712	183.105	91.7459	183.105	91.7107	183.105	91.747	183.105	91.7368
189.697	93.2667	189.697	93.2265	189.697	93.27	189.697	93.151	189.697	93.236	189.697	93.0424	189.697	93.1654	189.697	92.9046	189.697	93.0601	189.697	92.7424	189.697	92.9234	189.697	92.5627	189.697	92.7603	189.697	92.3737	189.697	92.5779	189.697	92.1857	189.697	92.3856	189.697	92.0098	189.697	92.1944	189.697	91.8573	189.697	92.0169	189.697	91.7376	189.697	91.8649	189.697	91.6561	189.697	91.7478	189.697	91.6126	189.697	91.67	189.697	91.6007	189.697	91.6298	189.697	91.6097	189.697	91.6193	189.697	91.6269	189.697	91.6265	189.697	91.641	189.697	91.6386	189.697	91.6453
196.289	93.2759	196.289	93.2183	196.289	93.2937	196.289	93.1231	196.289	93.2712	196.289	92.9935	196.289	93.2092	196.289	92.835	196.289	93.1097	196.289	92.6547	196.289	92.9767	196.289	92.462	196.289	92.816	196.289	92.2684	196.289	92.6358	196.289	92.0871	196.289	92.4466	196.289	91.9313	196.289	92.2613	196.289	91.8121	196.289	92.0934	196.289	91.7367	196.289	91.9558	196.289	91.7057	196.289	91.8578	196.289	91.7131	196.289	91.8028	196.289	91.7468	196.289	91.787	196.289	91.792	196.289	91.8001	196.289	91.8339	196.289	91.8274	196.289	91.8612	196.289	91.8541	196.289	91.8677
202.881	93.3022	202.881	93.2334	202.881	93.328	202.881	93.1232	202.881	93.3105	202.881	92.9747	202.881	93.2505	202.881	92.7929	202.881	93.1503	202.881	92.5852	202.881	93.0134	202.881	92.3619	202.881	92.8458	202.881	92.1369	202.881	92.6556	202.881	91.9266	202.881	92.4539	202.881	91.7487	202.881	92.2547	202.881	91.6191	202.881	92.0735	202.881	91.5479	202.881	91.9256	202.881	91.5363	202.881	91.8226	202.881	91.575	202.881	91.7692	202.881	91.6465	202.881	91.7612	202.881	91.7296	202.881	91.7858	202.881	91.8037	202.881	91.8247	202.881	91.8535	202.881	91.8586	202.881	91.8714
210.205	93.2668	210.205	93.1986	210.205	93.2916	210.205	93.0875	210.205	93.2735	210.205	92.9353	210.205	93.214	210.205	92.7456	210.205	93.116	210.205	92.5244	210.205	92.9839	210.205	92.2807	210.205	92.8235	210.205	92.0273	210.205	92.6431	210.205	91.7809	210.205	92.4529	210.205	91.5617	210.205	92.2651	210.205	91.3897	210.205	92.093	210.205	91.2812	210.205	91.9488	210.205	91.2432	210.205	91.8414	210.205	91.2704	210.205	91.7738	210.205	91.3464	210.205	91.7416	210.205	91.448	210.205	91.7336	210.205	91.5514	210.205	91.734	210.205	91.6378	210.205	91.7262	210.205	91.6965
217.529	93.2151	217.529	93.1605	217.529	93.2231	217.529	93.06	217.529	93.1853	217.529	92.9158	217.529	93.1036	217.529	92.7318	217.529	92.9817	217.529	92.5143	217.529	92.8252	217.529	92.2729	217.529	92.6424	217.529	92.0209	217.529	92.4443	217.529	91.7755	217.529	92.2447	217.529	91.5569	217.529	92.0593	217.529	91.386	217.529	91.9037	217.529	91.2793	217.529	91.7904	217.529	91.2448	217.529	91.7255	217.529	91.2782	217.529	91.7064	217.529	91.3635	217.529	91.7215	217.529	91.4773	217.529	91.7529	217.529	91.5942	217.529	91.7805	217.529	91.6927	217.529	91.7865	217.529	91.7585
225.586	93.3031	225.586	93.251	225.586	93.3051	225.586	93.1502	225.586	93.2567	225.586	93.0033	225.586	93.1588	225.586	92.8148	225.586	93.014	225.586	92.5911	225.586	92.827	225.586	92.3424	225.586	92.6058	225.586	92.0825	225.586	92.3624	225.586	91.8298	225.586	92.1134	225.586	91.6057	225.586	91.8794	225.586	91.4321	225.586	91.6829	225.586	91.326	225.586	91.5437	225.586	91.2944	225.586	91.4733	225.586	91.331	225.586	91.4702	225.586	91.417	225.586	91.5195	225.586	91.5259	225.586	91.5968	225.586	91.6302	225.586	91.6744	225.586	91.7068	225.586	91.7279	225.586	91.7409
232.91	93.4014	232.91	93.3449	232.91	93.4045	232.91	93.2369	232.91	93.3529	232.91	93.0802	232.91	93.2461	232.91	92.8791	232.91	93.0851	232.91	92.6397	232.91	92.8729	232.91	92.3717	232.91	92.6161	232.91	92.0887	232.91	92.3263	232.91	91.8099	232.91	92.0215	232.91	91.5586	232.91	91.7265	232.91	91.3599	232.91	91.4712	232.91	91.2345	232.91	91.2847	232.91	91.1923	232.91	91.1873	232.91	91.227	232.91	91.1819	232.91	91.317	232.91	91.2514	232.91	91.4309	232.91	91.364	232.91	91.5358	232.91	91.4829	232.91	91.6041	232.91	91.5753	232.91	91.6188
241.699	93.3573	241.699	93.2732	241.699	93.3878	241.699	93.1366	241.699	93.3645	241.699	92.9493	241.699	93.2877	241.699	92.7152	241.699	93.1584	241.699	92.4409	241.699	92.9788	241.699	92.137	241.699	92.7532	241.699	91.8195	241.699	92.489	241.699	91.5104	241.699	92.198	241.699	91.2367	241.699	91.8976	241.699	91.0257	241.699	91.6108	241.699	90.8986	241.699	91.3643	241.699	90.8621	241.699	91.1824	241.699	90.9046	241.699	91.0806	241.699	90.9992	241.699	91.0579	241.699	91.1112	241.699	91.0966	241.699	91.2081	241.699	91.1667	241.699	91.2659	241.699	91.235	241.699	91.2738
249.756	93.4895	249.756	93.4315	249.756	93.4912	249.756	93.3179	249.756	93.4367	249.756	93.1499	249.756	93.3264	249.756	92.9301	249.756	93.162	249.756	92.6632	249.756	92.9464	249.756	92.3576	249.756	92.6853	249.756	92.0265	249.756	92.3886	249.756	91.69	249.756	92.0718	249.756	91.3744	249.756	91.7567	249.756	91.1107	249.756	91.471	249.756	90.9273	249.756	91.244	249.756	90.8414	249.756	91.0987	249.756	90.8514	249.756	91.0433	249.756	90.9351	249.756	91.0662	249.756	91.0572	249.756	91.1388	249.756	91.1793	249.756	91.2245	249.756	91.2692	249.756	91.2889	249.756	91.3074
258.545	93.5683	258.545	93.4964	258.545	93.584	258.545	93.3694	258.545	93.5427	258.545	93.1891	258.545	93.4441	258.545	92.9588	258.545	93.2886	258.545	92.6843	258.545	93.0779	258.545	92.375	258.545	92.8159	258.545	92.046	258.545	92.5104	258.545	91.7188	258.545	92.1752	258.545	91.4213	258.545	91.8313	258.545	91.1841	258.545	91.5078	258.545	91.033	258.545	91.239	258.545	90.9799	258.545	91.0566	258.545	91.0162	258.545	90.9784	258.545	91.1142	258.545	90.9997	258.545	91.235	258.545	91.0927	258.545	91.3396	258.545	91.2159	258.545	91.3978	258.545	91.327	258.545	91.3935
268.066	93.4135	268.066	93.3329	268.066	93.4373	268.066	93.1948	268.066	93.4055	268.066	92.9991	268.066	93.3191	268.066	92.747	268.066	93.1788	268.066	92.4429	268.066	92.9855	268.066	92.0957	268.066	92.7408	268.066	91.7214	268.066	92.4482	268.066	91.3446	268.066	92.1149	268.066	90.9988	268.066	91.7542	268.066	90.7215	268.066	91.3879	268.066	90.5442	268.066	91.047	268.066	90.4796	268.066	90.7675	268.066	90.5137	268.066	90.5816	268.066	90.6099	268.066	90.5048	268.066	90.7217	268.066	90.527	268.066	90.8071	268.066	90.6143	268.066	90.8382	268.066	90.7215	268.066	90.8059
277.588	93.5454	277.588	93.4922	277.588	93.5323	277.588	93.372	277.588	93.4542	277.588	93.185	277.588	93.3135	277.588	92.9321	277.588	93.1149	277.588	92.6162	277.588	92.866	277.588	92.2443	277.588	92.579	277.588	91.8297	277.588	92.271	277.588	91.3963	277.588	91.9649	277.588	90.9809	277.588	91.6872	277.588	90.6327	277.588	91.4645	277.588	90.4031	277.588	91.3173	277.588	90.3272	277.588	91.2533	277.588	90.4056	277.588	91.2642	277.588	90.6007	277.588	91.3266	277.588	90.8532	277.588	91.4077	277.588	91.1035	277.588	91.4724	277.588	91.3067	277.588	91.4897	277.588	91.4376
287.109	93.7524	287.109	93.6817	287.109	93.7627	287.109	93.5524	287.109	93.7098	287.109	93.3656	287.109	93.5902	287.109	93.1222	287.109	93.401	287.109	92.8236	287.109	93.1404	287.109	92.4742	287.109	92.8104	287.109	92.0829	287.109	92.4187	287.109	91.6674	287.109	91.9832	287.109	91.2563	287.109	91.5348	287.109	90.8894	287.109	91.1187	287.109	90.6118	287.109	90.7885	287.109	90.4601	287.109	90.5899	287.109	90.4452	287.109	90.5398	287.109	90.5444	287.109	90.6152	287.109	90.7086	287.109	90.7622	287.109	90.8803	287.109	90.9177	287.109	91.0093	287.109	91.0289	287.109	91.0628
297.363	93.6712	297.363	93.6035	297.363	93.6823	297.363	93.4798	297.363	93.6355	297.363	93.2997	297.363	93.5283	297.363	93.0628	297.363	93.3573	297.363	92.7695	297.363	93.1187	297.363	92.4222	297.363	92.8098	297.363	92.0282	297.363	92.4309	297.363	91.6024	297.363	91.9884	297.363	91.1707	297.363	91.5	297.363	90.7708	297.363	90.9991	297.363	90.4479	297.363	90.5366	297.363	90.2411	297.363	90.1743	297.363	90.166	297.363	89.9645	297.363	90.2029	297.363	89.9227	297.363	90.303	297.363	90.0161	297.363	90.4066	297.363	90.1781	297.363	90.4626	297.363	90.3374	297.363	90.4407
307.617	93.5403	307.617	93.4419	307.617	93.5804	307.617	93.2856	307.617	93.5616	307.617	93.072	307.617	93.483	307.617	92.8025	307.617	93.3433	307.617	92.4806	307.617	93.1412	307.617	92.1131	307.617	92.8764	307.617	91.713	307.617	92.5504	307.617	91.3016	307.617	92.1696	307.617	90.9103	307.617	91.7486	307.617	90.5784	307.617	91.3134	307.617	90.345	307.617	90.9035	307.617	90.2349	307.617	90.5678	307.617	90.2451	307.617	90.3511	307.617	90.3432	307.617	90.2735	307.617	90.478	307.617	90.3173	307.617	90.5966	307.617	90.433	307.617	90.6586	307.617	90.5593	307.617	90.6446
318.604	93.5162	318.604	93.4374	318.604	93.5353	318.604	93.2969	318.604	93.4958	318.604	93.0921	318.604	93.3977	318.604	92.8203	318.604	93.2404	318.604	92.4803	318.604	93.0226	318.604	92.0745	318.604	92.7441	318.604	91.6118	318.604	92.4067	318.604	91.1122	318.604	92.0171	318.604	90.6111	318.604	91.5896	318.604	90.1604	318.604	91.1502	318.604	89.8209	318.604	90.7371	318.604	89.6409	318.604	90.3973	318.604	89.6314	318.604	90.1722	318.604	89.7558	318.604	90.0793	318.604	89.9462	318.604	90.0995	318.604	90.1316	318.604	90.1827	318.604	90.2593	318.604	90.2681	318.604	90.3037
329.59	93.3955	329.59	93.3429	329.59	93.3966	329.59	93.235	329.59	93.3486	329.59	93.0672	329.59	93.2533	329.59	92.834	329.59	93.111	329.59	92.5307	329.59	92.921	329.59	92.1542	329.59	92.6821	329.59	91.7072	329.59	92.3934	329.59	91.2026	329.59	92.0571	329.59	90.6701	329.59	91.6808	329.59	90.161	329.59	91.282	329.59	89.7449	329.59	90.8901	329.59	89.4895	329.59	90.545	329.59	89.4268	329.59	90.2876	329.59	89.5306	329.59	90.1431	329.59	89.7285	329.59	90.1053	329.59	89.938	329.59	90.1352	329.59	90.0965	329.59	90.1761	329.59	90.1744
341.309	93.1242	341.309	93.102	341.309	93.0879	341.309	93.0232	341.309	92.9908	341.309	92.8887	341.309	92.8314	341.309	92.6981	341.309	92.6094	341.309	92.4502	341.309	92.3268	341.309	92.1434	341.309	91.9896	341.309	91.7785	341.309	91.609	341.309	91.3618	341.309	91.2039	341.309	90.9108	341.309	90.8019	341.309	90.4583	341.309	90.4391	341.309	90.0541	341.309	90.1543	341.309	89.7561	341.309	89.9783	341.309	89.6088	341.309	89.92	341.309	89.6186	341.309	89.9601	341.309	89.7461	341.309	90.0555	341.309	89.9245	341.309	90.1537	341.309	90.0874	341.309	90.208	341.309	90.1883
353.76	93.2592	353.76	93.183	353.76	93.2777	353.76	93.0525	353.76	93.2338	353.76	92.8699	353.76	93.122	353.76	92.6364	353.76	92.9364	353.76	92.3524	353.76	92.6714	353.76	92.0191	353.76	92.3226	353.76	91.6407	353.76	91.8896	353.76	91.2278	353.76	91.3798	353.76	90.8015	353.76	90.8141	353.76	90.396	353.76	90.235	353.76	90.0564	353.76	89.71	353.76	89.8274	353.76	89.3228	353.76	89.7333	353.76	89.1414	353.76	89.7618	353.76	89.1763	353.76	89.8646	353.76	89.3695	353.76	89.9756	353.76	89.625	353.76	90.0334	353.76	89.8535	353.76	89.9968
366.211	93.4008	366.211	93.2869	366.211	93.4598	366.211	93.1161	366.211	93.464	366.211	92.8846	366.211	93.4109	366.211	92.5886	366.211	93.2956	366.211	92.2254	366.211	93.1109	366.211	91.7965	366.211	92.8488	366.211	91.3118	366.211	92.5016	366.211	90.7949	366.211	92.0663	366.211	90.2888	366.211	91.5491	366.211	89.8549	366.211	90.9734	366.211	89.56	366.211	90.3878	366.211	89.4473	366.211	89.8691	366.211	89.5087	366.211	89.5068	366.211	89.6843	366.211	89.3624	366.211	89.8891	366.211	89.4285	366.211	90.0452	366.211	89.6285	366.211	90.1002	366.211	89.8591	366.211	90.0335
378.662	93.2969	378.662	93.2245	378.662	93.3277	378.662	93.1083	378.662	93.3167	378.662	92.9436	378.662	93.2618	378.662	92.7225	378.662	93.1584	378.662	92.4344	378.662	92.9995	378.662	92.0673	378.662	92.7766	378.662	91.6111	378.662	92.4807	378.662	91.0639	378.662	92.1051	378.662	90.4416	378.662	91.6502	378.662	89.7915	378.662	91.1299	378.662	89.2032	378.662	90.5799	378.662	88.7963	378.662	90.0627	378.662	88.6642	378.662	89.6598	378.662	88.8008	378.662	89.4398	378.662	89.096	378.662	89.4137	378.662	89.4072	378.662	89.518	378.662	89.6261	378.662	89.6474	378.662	89.7034
392.578	92.7088	392.578	92.6924	392.578	92.6881	392.578	92.6391	392.578	92.6306	392.578	92.5487	392.578	92.5373	392.578	92.4187	392.578	92.4097	392.578	92.2431	392.578	92.2477	392.578	92.0125	392.578	92.0484	392.578	91.7155	392.578	91.806	392.578	91.3424	392.578	91.5132	392.578	90.8911	392.578	91.1642	392.578	90.3751	392.578	90.7609	392.578	89.8321	392.578	90.3186	392.578	89.3272	392.578	89.8716	392.578	88.9403	392.578	89.4717	392.578	88.7296	392.578	89.1728	392.578	88.6927	392.578	89.0036	392.578	88.7653	392.578	88.9454	392.578	88.8626	392.578	88.9404	392.578	88.9248
405.762	92.5054	405.762	92.435	405.762	92.5099	405.762	92.3083	405.762	92.4441	405.762	92.1384	405.762	92.31	405.762	91.9386	405.762	92.1164	405.762	91.7189	405.762	91.8772	405.762	91.4834	405.762	91.6099	405.762	91.2295	405.762	91.3317	405.762	90.9506	405.762	91.0563	405.762	90.641	405.762	90.7919	405.762	90.3039	405.762	90.5423	405.762	89.9574	405.762	90.3095	405.762	89.637	405.762	90.0981	405.762	89.3885	405.762	89.9166	405.762	89.2484	405.762	89.7743	405.762	89.223	405.762	89.6736	405.762	89.2828	405.762	89.6044	405.762	89.3795	405.762	89.5448	405.762	89.4725
420.41	92.6831	420.41	92.5452	420.41	92.7441	420.41	92.3394	420.41	92.7249	420.41	92.081	420.41	92.6264	420.41	91.7917	420.41	92.4532	420.41	91.4976	420.41	92.2134	420.41	91.2242	420.41	91.9182	420.41	90.9897	420.41	91.5822	420.41	90.7986	420.41	91.223	420.41	90.6411	420.41	90.8606	420.41	90.4985	420.41	90.5156	420.41	90.3525	420.41	90.2075	420.41	90.1935	420.41	89.9518	420.41	90.0249	420.41	89.7577	420.41	89.8611	420.41	89.6255	420.41	89.7204	420.41	89.5475	420.41	89.6157	420.41	89.5105	420.41	89.5491	420.41	89.5015	420.41	89.5137
435.059	94.0462	435.059	93.9081	435.059	94.0753	435.059	93.6505	435.059	93.9977	435.059	93.2564	435.059	93.8078	435.059	92.705	435.059	93.4926	435.059	91.9772	435.059	93.0343	435.059	91.0676	435.059	92.4141	435.059	90.0106	435.059	91.6204	435.059	88.9344	435.059	90.6661	435.059	88.1233	435.059	89.6258	435.059	87.9406	435.059	88.6935	435.059	88.4885	435.059	88.1928	435.059	89.4753	435.059	88.3723	435.059	90.5406	435.059	89.1285	435.059	91.4717	435.059	90.1259	435.059	92.1799	435.059	91.0905	435.059	92.6358	435.059	91.8838	435.059	92.8319	435.059	92.45	435.059	92.7688
450.439	92.978	450.439	92.9366	450.439	92.9926	450.439	92.8675	450.439	92.9795	450.439	92.7651	450.439	92.9364	450.439	92.6167	450.439	92.8581	450.439	92.4006	450.439	92.7333	450.439	92.0863	450.439	92.5436	450.439	91.6378	450.439	92.2627	450.439	91.0193	450.439	91.86	450.439	90.2057	450.439	91.3057	450.439	89.2045	450.439	90.5809	450.439	88.105	450.439	89.6973	450.439	87.1476	450.439	88.7335	450.439	86.6965	450.439	87.8811	450.439	86.9228	450.439	87.4168	450.439	87.5645	450.439	87.4889	450.439	88.2164	450.439	87.9287	450.439	88.6204	450.439	88.4091	450.439	88.6798
466.553	92.6529	466.553	92.5824	466.553	92.6789	466.553	92.4693	466.553	92.6615	466.553	92.3168	466.553	92.6028	466.553	92.1276	466.553	92.5033	466.553	91.8996	466.553	92.3589	466.553	91.6241	466.553	92.1583	466.553	91.2865	466.553	91.8839	466.553	90.8703	466.553	91.5149	466.553	90.3662	466.553	91.0329	466.553	89.7856	466.553	90.4311	466.553	89.1765	466.553	89.7294	466.553	88.6345	466.553	88.9945	466.553	88.2803	466.553	88.3545	466.553	88.1873	466.553	87.9678	466.553	88.3117	466.553	87.918	466.553	88.5132	466.553	88.1277	466.553	88.6437	466.553	88.4142	466.553	88.6134
482.666	92.4217	482.666	92.3654	482.666	92.4151	482.666	92.2469	482.666	92.3477	482.666	92.0688	482.666	92.2248	482.666	91.8325	482.666	92.0531	482.666	91.5364	482.666	91.8378	482.666	91.1749	482.666	91.5791	482.666	90.7399	482.666	91.271	482.666	90.2256	482.666	90.9019	482.666	89.638	482.666	90.46	482.666	89.0094	482.666	89.9431	482.666	88.4134	482.666	89.3715	482.666	87.9643	482.666	88.8042	482.666	87.7719	482.666	88.3419	482.666	87.86	482.666	88.0935	482.666	88.132	482.666	88.1011	482.666	88.4327	482.666	88.292	482.666	88.6312	482.666	88.5224	482.666	88.6599
500.244	92.2373	500.244	92.1151	500.244	92.2785	500.244	91.9202	500.244	92.2385	500.244	91.666	500.244	92.1267	500.244	91.3647	500.244	91.9592	500.244	91.022	500.244	91.7531	500.244	90.6339	500.244	91.5187	500.244	90.1887	500.244	91.2537	500.244	89.675	500.244	90.9411	500.244	89.0953	500.244	90.5554	500.244	88.4851	500.244	90.0735	500.244	87.9288	500.244	89.4924	500.244	87.5519	500.244	88.8508	500.244	87.4587	500.244	88.249	500.244	87.6426	500.244	87.836	500.244	87.973	500.244	87.7257	500.244	88.2801	500.244	87.8909	500.244	88.4372	500.244	88.1721	500.244	88.3917
517.822	92.0983	517.822	91.9957	517.822	92.0736	517.822	91.7686	517.822	91.924	517.822	91.4254	517.822	91.6573	517.822	90.9831	517.822	91.2897	517.822	90.4699	517.822	90.8509	517.822	89.9244	517.822	90.3863	517.822	89.3907	517.822	89.953	517.822	88.9059	517.822	89.6024	517.822	88.4893	517.822	89.3552	517.822	88.1405	517.822	89.1874	517.822	87.8538	517.822	89.043	517.822	87.6358	517.822	88.8659	517.822	87.5102	517.822	88.6306	517.822	87.4969	517.822	88.358	517.822	87.5807	517.822	88.1083	517.822	87.7045	517.822	87.9428	517.822	87.8032	517.822	87.8731	517.822	87.8492
536.133	92.5489	536.133	92.4548	536.133	92.5387	536.133	92.2587	536.133	92.418	536.133	91.9576	536.133	92.1774	536.133	91.5432	536.133	91.8045	536.133	91.002	536.133	91.2848	536.133	90.3187	536.133	90.6045	536.133	89.4846	536.133	89.7571	536.133	88.5135	536.133	88.7598	536.133	87.4733	536.133	87.687	536.133	86.5311	536.133	86.7193	536.133	85.9567	536.133	86.1435	536.133	85.9664	536.133	86.1751	536.133	86.5005	536.133	86.7266	536.133	87.2818	536.133	87.4993	536.133	88.0532	536.133	88.2357	536.133	88.6696	536.133	88.7994	536.133	89.0681	536.133	89.135	536.133	89.2254
554.443	92.1164	554.443	92.0357	554.443	92.1149	554.443	91.8719	554.443	92.0357	554.443	91.6262	554.443	91.8874	554.443	91.2981	554.443	91.68	554.443	90.8817	554.443	91.4196	554.443	90.3626	554.443	91.1021	554.443	89.7191	554.443	90.7076	554.443	88.9284	554.443	90.1999	554.443	87.9855	554.443	89.5336	554.443	86.9424	554.443	88.6692	554.443	85.973	554.443	87.6077	554.443	85.3941	554.443	86.4603	554.443	85.4624	554.443	85.543	554.443	86.066	554.443	85.2893	554.443	86.8357	554.443	85.7802	554.443	87.4647	554.443	86.604	554.443	87.7917	554.443	87.3322	554.443	87.7502
574.219	92.1113	574.219	91.9718	574.219	92.1443	574.219	91.7421	574.219	92.0604	574.219	91.4443	574.219	91.8536	574.219	91.1035	574.219	91.5235	574.219	90.7385	574.219	91.0772	574.219	90.3468	574.219	90.5327	574.219	89.8933	574.219	89.9182	574.219	89.3126	574.219	89.266	574.219	88.5266	574.219	88.6006	574.219	87.4828	574.219	87.9299	574.219	86.233	574.219	87.26	574.219	85.0896	574.219	86.6373	574.219	84.6676	574.219	86.1943	574.219	85.2442	574.219	86.1127	574.219	86.2917	574.219	86.4507	574.219	87.2143	574.219	87.031	574.219	87.7522	574.219	87.573	574.219	87.8556
594.727	92.3656	594.727	92.2302	594.727	92.3768	594.727	91.9736	594.727	92.2618	594.727	91.6009	594.727	92.0214	594.727	91.1206	594.727	91.6598	594.727	90.5491	594.727	91.1857	594.727	89.9123	594.727	90.6118	594.727	89.2409	594.727	89.9521	594.727	88.5529	594.727	89.2169	594.727	87.8348	594.727	88.4077	594.727	87.0497	594.727	87.5205	594.727	86.2006	594.727	86.5736	594.727	85.4492	594.727	85.6739	594.727	85.1706	594.727	85.0913	594.727	85.628	594.727	85.1519	594.727	86.5535	594.727	85.8565	594.727	87.445	594.727	86.8133	594.727	87.9801	594.727	87.6176	594.727	88.038
615.234	92.4931	615.234	92.3254	615.234	92.5744	615.234	92.0779	615.234	92.5649	615.234	91.761	615.234	92.4604	615.234	91.3858	615.234	92.2529	615.234	90.9569	615.234	91.9279	615.234	90.4632	615.234	91.4616	615.234	89.8698	615.234	90.8181	615.234	89.1172	615.234	89.9451	615.234	88.1281	615.234	88.771	615.234	86.8304	615.234	87.21	615.234	85.2242	615.234	85.2124	615.234	83.5952	615.234	83.0274	615.234	82.8119	615.234	81.8585	615.234	83.5328	615.234	82.8424	615.234	85.0007	615.234	84.7046	615.234	86.3176	615.234	86.231	615.234	87.1553	615.234	87.1423	615.234	87.4393
637.207	92.4722	637.207	92.3197	637.207	92.5152	637.207	92.0465	637.207	92.462	637.207	91.647	637.207	92.3262	637.207	91.1267	637.207	92.1202	637.207	90.5097	637.207	91.8542	637.207	89.8401	637.207	91.5358	637.207	89.1688	637.207	91.167	637.207	88.5179	637.207	90.7324	637.207	87.8444	637.207	90.1818	637.207	87.0454	637.207	89.4139	637.207	86.027	637.207	88.2738	637.207	84.8521	637.207	86.5782	637.207	83.9744	637.207	84.2558	637.207	84.0983	637.207	82.0868	637.207	85.1458	637.207	82.3431	637.207	86.2982	637.207	84.4082	637.207	86.9856	637.207	86.1208	637.207	86.9676
659.912	92.2918	659.912	92.235	659.912	92.286	659.912	92.1112	659.912	92.2231	659.912	91.9124	659.912	92.1099	659.912	91.6235	659.912	91.9516	659.912	91.2219	659.912	91.7458	659.912	90.684	659.912	91.4791	659.912	89.9916	659.912	91.127	659.912	89.1327	659.912	90.6572	659.912	88.0871	659.912	90.0317	659.912	86.8083	659.912	89.2035	659.912	85.2365	659.912	88.108	659.912	83.4487	659.912	86.6656	659.912	82.1077	659.912	84.859	659.912	82.3822	659.912	83.0714	659.912	83.9014	659.912	82.5314	659.912	85.3404	659.912	83.694	659.912	86.1042	659.912	85.1727	659.912	86.0487
683.35	92.0788	683.35	92.0547	683.35	92.0322	683.35	91.9733	683.35	91.919	683.35	91.8547	683.35	91.7661	683.35	91.7101	683.35	91.619	683.35	91.5268	683.35	91.5205	683.35	91.2604	683.35	91.4767	683.35	90.8397	683.35	91.4345	683.35	90.1802	683.35	91.2921	683.35	89.1953	683.35	90.9329	683.35	87.8055	683.35	90.2527	683.35	85.9698	683.35	89.1714	683.35	83.8416	683.35	87.641	683.35	82.2282	683.35	85.7062	683.35	82.3751	683.35	83.7773	683.35	83.7839	683.35	82.9849	683.35	85.127	683.35	83.8228	683.35	85.8567	683.35	85.0804	683.35	85.8397
706.787	92.24	706.787	92.0853	706.787	92.2635	706.787	91.8228	706.787	92.1505	706.787	91.4961	706.787	91.9157	706.787	91.1706	706.787	91.5986	706.787	90.9199	706.787	91.2644	706.787	90.7842	706.787	90.9868	706.787	90.721	706.787	90.8046	706.787	90.6005	706.787	90.6766	706.787	90.2526	706.787	90.4799	706.787	89.5142	706.787	90.0516	706.787	88.2506	706.787	89.2311	706.787	86.3995	706.787	87.8938	706.787	84.2265	706.787	86.0464	706.787	82.9878	706.787	84.1786	706.787	83.7891	706.787	83.5739	706.787	85.2655	706.787	84.5273	706.787	86.2085	706.787	85.7191	706.787	86.3509
731.689	90.9002	731.689	90.8269	731.689	90.8229	731.689	90.6198	731.689	90.5974	731.689	90.3141	731.689	90.249	731.689	89.9559	731.689	89.8341	731.689	89.5886	731.689	89.448	731.689	89.237	731.689	89.2028	731.689	88.8941	731.689	89.1566	731.689	88.5109	731.689	89.2451	731.689	87.9868	731.689	89.2996	731.689	87.1693	731.689	89.1233	731.689	85.8818	731.689	88.5371	731.689	84.0442	731.689	87.3852	731.689	82.1797	731.689	85.5732	731.689	82.023	731.689	83.3666	731.689	83.7037	731.689	82.2316	731.689	85.3423	731.689	83.3556	731.689	86.1618	731.689	85.0384	731.689	86.0536
758.057	85.3831	758.057	85.0826	758.057	85.4184	758.057	84.5415	758.057	85.1811	758.057	83.8099	758.057	84.6775	758.057	82.9869	758.057	83.9266	758.057	82.2466	758.057	82.9672	758.057	81.8011	758.057	81.8972	758.057	81.7301	758.057	80.9512	758.057	81.846	758.057	80.4676	758.057	81.8116	758.057	80.5142	758.057	81.3192	758.057	80.6658	758.057	80.1264	758.057	80.3877	758.057	77.9937	758.057	79.3289	758.057	74.648	758.057	77.3742	758.057	70.8226	758.057	75.0081	758.057	71.6682	758.057	74.0792	758.057	74.8252	758.057	75.2308	758.057	76.652	758.057	76.57	758.057	77.1424
784.424	91.3852	784.424	91.1554	784.424	91.4006	784.424	90.7166	784.424	91.1979	784.424	90.0827	784.424	90.7757	784.424	89.292	784.424	90.1448	784.424	88.4336	784.424	89.3452	784.424	87.6666	784.424	88.4657	784.424	87.1699	784.424	87.6458	784.424	86.99	784.424	87.0272	784.424	86.9508	784.424	86.6449	784.424	86.7584	784.424	86.3628	784.424	86.1272	784.424	85.9388	784.424	84.8099	784.424	85.1261	784.424	82.6329	784.424	83.7161	784.424	79.8927	784.424	81.6058	784.424	78.5243	784.424	79.2364	784.424	79.5385	784.424	78.3995	784.424	80.5794	784.424	79.5272	784.424	80.5671
812.256	92.2347	812.256	92.018	812.256	92.2194	812.256	91.5844	812.256	91.9724	812.256	90.9662	812.256	91.5061	812.256	90.2119	812.256	90.8452	812.256	89.3834	812.256	90.0352	812.256	88.5602	812.256	89.1598	812.256	87.845	812.256	88.3456	812.256	87.3338	812.256	87.7125	812.256	87.0203	812.256	87.2817	812.256	86.739	812.256	86.9404	812.256	86.2542	812.256	86.505	812.256	85.3986	812.256	85.8055	812.256	84.1779	812.256	84.7626	812.256	82.9128	812.256	83.5172	812.256	82.2739	812.256	82.575	812.256	82.5376	812.256	82.4601	812.256	83.0674	812.256	82.9097	812.256	83.2324
840.82	93.2555	840.82	92.9971	840.82	93.2751	840.82	92.5096	840.82	93.0479	840.82	91.8094	840.82	92.5689	840.82	90.9348	840.82	91.8437	840.82	89.9629	840.82	90.9018	840.82	89.0141	840.82	89.8255	840.82	88.2097	840.82	88.7915	840.82	87.583	840.82	88.0438	840.82	87.0228	840.82	87.6783	840.82	86.3204	840.82	87.4635	840.82	85.2845	840.82	87.0293	840.82	83.909	840.82	86.1234	840.82	82.6577	840.82	84.7078	840.82	82.4013	840.82	83.1199	840.82	83.1725	840.82	82.3348	840.82	84.1226	840.82	82.9564	840.82	84.6994	840.82	84.0387	840.82	84.6926
870.85	93.7747	870.85	93.5123	870.85	93.8196	870.85	93.0233	870.85	93.6467	870.85	92.296	870.85	93.2411	870.85	91.3293	870.85	92.5762	870.85	90.1686	870.85	91.6323	870.85	88.9735	870.85	90.4401	870.85	88.043	870.85	89.151	870.85	87.5676	870.85	88.0696	870.85	87.2898	870.85	87.4466	870.85	86.7005	870.85	87.1057	870.85	85.4359	870.85	86.528	870.85	83.5239	870.85	85.261	870.85	81.9854	870.85	83.3091	870.85	82.4772	870.85	82.0566	870.85	84.1375	870.85	83.1357	870.85	85.5142	870.85	84.8805	870.85	86.2749	870.85	86.0104	870.85	86.4426
901.611	94.2979	901.611	94.0821	901.611	94.3305	901.611	93.6672	901.611	94.1822	901.611	93.0275	901.611	93.839	901.611	92.14	901.611	93.2685	901.611	91.0158	901.611	92.4282	901.611	89.7594	901.611	91.3036	901.611	88.6228	901.611	90.0003	901.611	87.8942	901.611	88.8441	901.611	87.5345	901.611	88.1976	901.611	87.0618	901.611	87.9174	901.611	85.8467	901.611	87.3825	901.611	83.2603	901.611	85.966	901.611	79.2068	901.611	83.044	901.611	79.1695	901.611	78.1333	901.611	83.0071	901.611	77.7557	901.611	85.3905	901.611	82.3921	901.611	86.3776	901.611	85.1043	901.611	86.2908
933.105	94.7671	933.105	94.5351	933.105	94.8038	933.105	94.0995	933.105	94.646	933.105	93.4472	933.105	94.2854	933.105	92.5634	933.105	93.7013	933.105	91.4433	933.105	92.8608	933.105	90.1382	933.105	91.7279	933.105	88.8729	933.105	90.3114	933.105	88.0985	933.105	88.8016	933.105	88.0092	933.105	87.7172	933.105	88.0569	933.105	87.455	933.105	87.4761	933.105	87.5039	933.105	85.6653	933.105	86.9691	933.105	82.0685	933.105	85.1706	933.105	78.2335	933.105	81.703	933.105	81.2786	933.105	79.0907	933.105	84.6553	933.105	82.0325	933.105	86.1644	933.105	84.8695	933.105	86.1946
966.064	95.4744	966.064	95.2929	966.064	95.5046	966.064	94.9502	966.064	95.3783	966.064	94.4146	966.064	95.0767	966.064	93.6262	966.064	94.5613	966.064	92.5046	966.064	93.7657	966.064	90.9922	966.064	92.5968	966.064	89.2076	966.064	90.9833	966.064	87.779	966.064	89.0732	966.064	87.525	966.064	87.635	966.064	87.9059	966.064	87.522	966.064	87.6614	966.064	87.9567	966.064	85.9375	966.064	87.6481	966.064	81.9148	966.064	85.7837	966.064	77.0967	966.064	81.3593	966.064	81.3808	966.064	75.4742	966.064	85.0334	966.064	81.2989	966.064	86.6255	966.064	85.2164	966.064	86.7182
999.756	95.3323	999.756	95.2347	999.756	95.3098	999.756	95.016	999.756	95.1644	999.756	94.6516	999.756	94.8958	999.756	94.0738	999.756	94.4912	999.756	93.1665	999.756	93.8968	999.756	91.7879	999.756	93.0039	999.756	89.8654	999.756	91.6777	999.756	87.7593	999.756	89.8688	999.756	86.7865	999.756	87.964	999.756	87.3848	999.756	87.142	999.756	87.8812	999.756	87.6779	999.756	87.0399	999.756	88.0695	999.756	83.9842	999.756	87.1537	999.756	77.1683	999.756	84.0723	999.756	77.9774	999.756	77.6903	999.756	83.5408	999.756	78.8515	999.756	85.7221	999.756	83.8809	999.756	85.8279
1,034.91	94.9001	1,034.91	94.8498	1,034.91	94.8168	1,034.91	94.665	1,034.91	94.6266	1,034.91	94.3618	1,034.91	94.3722	1,034.91	93.9472	1,034.91	94.0836	1,034.91	93.376	1,034.91	93.7311	1,034.91	92.5255	1,034.91	93.1897	1,034.91	91.2357	1,034.91	92.2584	1,034.91	89.4801	1,034.91	90.7619	1,034.91	87.7848	1,034.91	88.8128	1,034.91	87.1822	1,034.91	87.2792	1,034.91	87.2875	1,034.91	87.0154	1,034.91	86.5931	1,034.91	87.0205	1,034.91	84.0963	1,034.91	85.9718	1,034.91	79.7191	1,034.91	82.9633	1,034.91	79.9025	1,034.91	77.4679	1,034.91	83.7832	1,034.91	79.8625	1,034.91	85.9142	1,034.91	84.488	1,034.91	86.2312
1,071.53	94.7915	1,071.53	94.5256	1,071.53	94.7901	1,071.53	94.0656	1,071.53	94.5178	1,071.53	93.5521	1,071.53	94.0322	1,071.53	93.1146	1,071.53	93.448	1,071.53	92.7201	1,071.53	92.8925	1,071.53	92.1279	1,071.53	92.3892	1,071.53	91.0138	1,071.53	91.7613	1,071.53	89.1595	1,071.53	90.6951	1,071.53	86.9794	1,071.53	88.961	1,071.53	86.3074	1,071.53	86.9661	1,071.53	87.1687	1,071.53	86.3064	1,071.53	87.1013	1,071.53	86.8989	1,071.53	84.5781	1,071.53	86.6078	1,071.53	77.6722	1,071.53	84.0176	1,071.53	78.9745	1,071.53	76.8988	1,071.53	84.6281	1,071.53	76.3945	1,071.53	86.3997	1,071.53	83.2738	1,071.53	85.9211
1,109.62	95.0504	1,109.62	94.7627	1,109.62	95.0753	1,109.62	94.219	1,109.62	94.836	1,109.62	93.4495	1,109.62	94.3397	1,109.62	92.5495	1,109.62	93.6248	1,109.62	91.6841	1,109.62	92.7932	1,109.62	90.9403	1,109.62	91.9931	1,109.62	90.1101	1,109.62	91.2498	1,109.62	88.7727	1,109.62	90.292	1,109.62	86.7822	1,109.62	88.7128	1,109.62	85.2703	1,109.62	86.5294	1,109.62	85.6863	1,109.62	85.2028	1,109.62	86.2033	1,109.62	85.7141	1,109.62	84.9259	1,109.62	85.8608	1,109.62	80.2084	1,109.62	84.003	1,109.62	70.2106	1,109.62	78.4906	1,109.62	80.7894	1,109.62	69.0954	1,109.62	84.2509	1,109.62	80.1937	1,109.62	83.9728
1,148.44	94.9388	1,148.44	94.6543	1,148.44	94.9641	1,148.44	94.103	1,148.44	94.7496	1,148.44	93.3003	1,148.44	94.3075	1,148.44	92.2972	1,148.44	93.6313	1,148.44	91.2156	1,148.44	92.7185	1,148.44	90.2518	1,148.44	91.6362	1,148.44	89.4785	1,148.44	90.5729	1,148.44	88.6177	1,148.44	89.7005	1,148.44	87.2263	1,148.44	88.8672	1,148.44	85.1658	1,148.44	87.6411	1,148.44	83.3547	1,148.44	85.8608	1,148.44	82.9704	1,148.44	84.3679	1,148.44	82.3933	1,148.44	83.8637	1,148.44	79.609	1,148.44	82.6961	1,148.44	75.3846	1,148.44	78.9542	1,148.44	78.0792	1,148.44	72.4564	1,148.44	80.4765	1,148.44	76.501	1,148.44	80.027
1,189.45	94.5585	1,189.45	94.2865	1,189.45	94.5839	1,189.45	93.7927	1,189.45	94.3661	1,189.45	93.1228	1,189.45	93.9317	1,189.45	92.3189	1,189.45	93.3221	1,189.45	91.3924	1,189.45	92.5822	1,189.45	90.3302	1,189.45	91.7477	1,189.45	89.1411	1,189.45	90.8286	1,189.45	87.8934	1,189.45	89.7881	1,189.45	86.7141	1,189.45	88.5756	1,189.45	85.7703	1,189.45	87.3	1,189.45	85.0598	1,189.45	86.3522	1,189.45	84.0474	1,189.45	85.8334	1,189.45	81.7732	1,189.45	85.0199	1,189.45	77.1585	1,189.45	82.9151	1,189.45	74.0703	1,189.45	78.2551	1,189.45	78.8179	1,189.45	74.2164	1,189.45	81.6423	1,189.45	79.684	1,189.45	82.0651
1,231.2	94.8028	1,231.2	94.5153	1,231.2	94.8017	1,231.2	93.9587	1,231.2	94.5164	1,231.2	93.1833	1,231.2	93.975	1,231.2	92.2588	1,231.2	93.2349	1,231.2	91.2332	1,231.2	92.3752	1,231.2	90.1009	1,231.2	91.4547	1,231.2	88.8132	1,231.2	90.4504	1,231.2	87.3372	1,231.2	89.2683	1,231.2	85.8417	1,231.2	87.9114	1,231.2	84.9573	1,231.2	86.709	1,231.2	84.9408	1,231.2	86.0871	1,231.2	84.5856	1,231.2	85.8199	1,231.2	82.3243	1,231.2	85.1499	1,231.2	75.9614	1,231.2	83.14	1,231.2	73.3372	1,231.2	77.9343	1,231.2	80.3978	1,231.2	71.111	1,231.2	82.796	1,231.2	79.6643	1,231.2	82.6599
1,274.41	95.7196	1,274.41	95.4459	1,274.41	95.6777	1,274.41	94.8585	1,274.41	95.3349	1,274.41	93.9801	1,274.41	94.7244	1,274.41	92.8816	1,274.41	93.8921	1,274.41	91.716	1,274.41	92.8914	1,274.41	90.6529	1,274.41	91.8065	1,274.41	89.6605	1,274.41	90.7636	1,274.41	88.4775	1,274.41	89.7782	1,274.41	86.9887	1,274.41	88.5841	1,274.41	85.6745	1,274.41	86.9722	1,274.41	85.3007	1,274.41	85.6548	1,274.41	85.4232	1,274.41	85.7374	1,274.41	84.627	1,274.41	86.0241	1,274.41	81.2246	1,274.41	84.7809	1,274.41	69.3956	1,274.41	80.7223	1,274.41	76.7112	1,274.41	71.0527	1,274.41	81.7502	1,274.41	76.7722	1,274.41	81.5315
1,319.82	96.1109	1,319.82	95.8343	1,319.82	96.1013	1,319.82	95.3014	1,319.82	95.8006	1,319.82	94.5508	1,319.82	95.2415	1,319.82	93.6109	1,319.82	94.4788	1,319.82	92.4954	1,319.82	93.5407	1,319.82	91.2631	1,319.82	92.424	1,319.82	90.0526	1,319.82	91.158	1,319.82	88.8968	1,319.82	89.8034	1,319.82	87.5886	1,319.82	88.3218	1,319.82	86.138	1,319.82	86.6513	1,319.82	85.3211	1,319.82	85.3551	1,319.82	85.2938	1,319.82	85.5314	1,319.82	84.541	1,319.82	86.2189	1,319.82	81.4924	1,319.82	85.49	1,319.82	75.4034	1,319.82	81.8833	1,319.82	78.9028	1,319.82	73.4496	1,319.82	82.627	1,319.82	78.5301	1,319.82	82.5967
1,365.97	96.2153	1,365.97	95.9485	1,365.97	96.1852	1,365.97	95.3902	1,365.97	95.8565	1,365.97	94.5691	1,365.97	95.2435	1,365.97	93.5558	1,365.97	94.3929	1,365.97	92.4556	1,365.97	93.3668	1,365.97	91.3697	1,365.97	92.2263	1,365.97	90.29	1,365.97	91.0327	1,365.97	89.0085	1,365.97	89.7679	1,365.97	87.3618	1,365.97	88.2678	1,365.97	85.9124	1,365.97	86.4738	1,365.97	85.6476	1,365.97	85.0953	1,365.97	85.724	1,365.97	85.1226	1,365.97	84.6471	1,365.97	85.3994	1,365.97	81.4604	1,365.97	84.2275	1,365.97	76.2456	1,365.97	80.3155	1,365.97	79.1324	1,365.97	74.7643	1,365.97	82.8499	1,365.97	80.3741	1,365.97	83.3273
1,414.31	95.4511	1,414.31	95.1691	1,414.31	95.4344	1,414.31	94.6064	1,414.31	95.0996	1,414.31	93.7845	1,414.31	94.4245	1,414.31	92.7147	1,414.31	93.4192	1,414.31	91.4426	1,414.31	92.1604	1,414.31	90.132	1,414.31	90.811	1,414.31	88.92	1,414.31	89.5941	1,414.31	87.5963	1,414.31	88.5562	1,414.31	85.8123	1,414.31	87.3296	1,414.31	84.2269	1,414.31	85.4528	1,414.31	84.5838	1,414.31	83.3859	1,414.31	85.2472	1,414.31	83.3126	1,414.31	83.7533	1,414.31	84.4633	1,414.31	77.757	1,414.31	84.1379	1,414.31	67.3231	1,414.31	80.4625	1,414.31	79.8333	1,414.31	62.1682	1,414.31	82.8149	1,414.31	77.908	1,414.31	82.4811
1,464.11	94.7454	1,464.11	94.418	1,464.11	94.7559	1,464.11	93.7999	1,464.11	94.4545	1,464.11	92.9422	1,464.11	93.8618	1,464.11	91.8732	1,464.11	93.0067	1,464.11	90.5862	1,464.11	91.897	1,464.11	89.1766	1,464.11	90.5136	1,464.11	87.9781	1,464.11	88.9947	1,464.11	87.0757	1,464.11	87.7886	1,464.11	85.7547	1,464.11	86.9367	1,464.11	83.4264	1,464.11	85.5242	1,464.11	82	1,464.11	82.7892	1,464.11	83.1778	1,464.11	80.7456	1,464.11	83.3688	1,464.11	82.3725	1,464.11	80.5379	1,464.11	83.3939	1,464.11	70.2718	1,464.11	81.5254	1,464.11	72.9851	1,464.11	73.6374	1,464.11	79.4307	1,464.11	70.8915	1,464.11	79.1762
1,515.38	94.3096	1,515.38	93.9475	1,515.38	94.3205	1,515.38	93.3001	1,515.38	93.9875	1,515.38	92.4345	1,515.38	93.3701	1,515.38	91.3426	1,515.38	92.5233	1,515.38	89.9827	1,515.38	91.4557	1,515.38	88.433	1,515.38	90.1343	1,515.38	87.085	1,515.38	88.6383	1,515.38	86.3304	1,515.38	87.3435	1,515.38	85.5338	1,515.38	86.4758	1,515.38	83.5611	1,515.38	85.3748	1,515.38	81.3602	1,515.38	83.2568	1,515.38	82.2244	1,515.38	81.3913	1,515.38	83.1289	1,515.38	82.5009	1,515.38	81.529	1,515.38	83.5866	1,515.38	75.6166	1,515.38	82.331	1,515.38	56.9965	1,515.38	77.1383	1,515.38	74.2853	1,515.38	64.865	1,515.38	74.45
1,568.85	93.8977	1,568.85	93.5443	1,568.85	93.9236	1,568.85	92.9463	1,568.85	93.5568	1,568.85	92.1158	1,568.85	92.7855	1,568.85	90.9821	1,568.85	91.7053	1,568.85	89.556	1,568.85	90.5181	1,568.85	88.0191	1,568.85	89.3046	1,568.85	86.6226	1,568.85	87.9565	1,568.85	85.6412	1,568.85	86.5761	1,568.85	84.8559	1,568.85	85.4893	1,568.85	83.2869	1,568.85	84.4801	1,568.85	81.1788	1,568.85	82.8936	1,568.85	81.6684	1,568.85	81.1428	1,568.85	82.9336	1,568.85	81.5536	1,568.85	81.4476	1,568.85	82.9136	1,568.85	75.2238	1,568.85	81.747	1,568.85	66.1881	1,568.85	75.2706	1,568.85	73.8137	1,568.85	67.1859	1,568.85	74.539
1,624.51	93.0199	1,624.51	92.7052	1,624.51	93.0197	1,624.51	92.0956	1,624.51	92.6838	1,624.51	91.1836	1,624.51	91.9849	1,624.51	90.0002	1,624.51	90.8856	1,624.51	88.7024	1,624.51	89.4646	1,624.51	87.4276	1,624.51	87.9664	1,624.51	86.0722	1,624.51	86.5291	1,624.51	84.5837	1,624.51	85.1764	1,624.51	83.2106	1,624.51	84.0806	1,624.51	81.7678	1,624.51	82.919	1,624.51	80.0147	1,624.51	80.8789	1,624.51	80.344	1,624.51	78.7252	1,624.51	82.2583	1,624.51	79.5726	1,624.51	81.8246	1,624.51	81.1542	1,624.51	77.4092	1,624.51	80.372	1,624.51	67.7294	1,624.51	75.6414	1,624.51	73.1191	1,624.51	66.1659	1,624.51	73.4303
1,681.64	92.2504	1,681.64	91.7856	1,681.64	92.2834	1,681.64	90.9739	1,681.64	91.9021	1,681.64	89.9297	1,681.64	91.2478	1,681.64	88.8061	1,681.64	90.3622	1,681.64	87.6506	1,681.64	89.1099	1,681.64	86.2876	1,681.64	87.5381	1,681.64	84.7825	1,681.64	85.9934	1,681.64	83.8719	1,681.64	84.6373	1,681.64	83.5516	1,681.64	83.4386	1,681.64	82.3401	1,681.64	82.4429	1,681.64	79.1487	1,681.64	81.0767	1,681.64	77.8588	1,681.64	78.625	1,681.64	80.1366	1,681.64	78.1376	1,681.64	80.0045	1,681.64	79.9779	1,681.64	76.0447	1,681.64	79.3819	1,681.64	71.234	1,681.64	75.2213	1,681.64	75.638	1,681.64	66.3979	1,681.64	74.4616
1,740.97	92.2569	1,740.97	91.7804	1,740.97	92.3514	1,740.97	90.9904	1,740.97	92.0475	1,740.97	89.9653	1,740.97	91.3989	1,740.97	88.7274	1,740.97	90.509	1,740.97	87.2607	1,740.97	89.4458	1,740.97	85.6188	1,740.97	88.1819	1,740.97	83.9081	1,740.97	86.6759	1,740.97	82.494	1,740.97	85.0368	1,740.97	82.0808	1,740.97	83.654	1,740.97	81.8375	1,740.97	82.9468	1,740.97	80.1076	1,740.97	82.4015	1,740.97	77.8956	1,740.97	80.845	1,740.97	78.9317	1,740.97	79.0934	1,740.97	78.7016	1,740.97	80.019	1,740.97	74.0144	1,740.97	80.5321	1,740.97	67.84	1,740.97	77.6917	1,740.97	70.8548	1,740.97	68.8587	1,740.97	68.7013
1,802.49	93.1041	1,802.49	92.7028	1,802.49	93.1063	1,802.49	91.9098	1,802.49	92.7408	1,802.49	90.7897	1,802.49	92.0404	1,802.49	89.4305	1,802.49	91.0303	1,802.49	87.9124	1,802.49	89.7751	1,802.49	86.2971	1,802.49	88.425	1,802.49	84.554	1,802.49	87.0865	1,802.49	82.7779	1,802.49	85.6885	1,802.49	81.7488	1,802.49	84.2967	1,802.49	81.4478	1,802.49	83.2608	1,802.49	80.5167	1,802.49	82.3179	1,802.49	79.6538	1,802.49	80.9438	1,802.49	80.3221	1,802.49	80.3098	1,802.49	79.9866	1,802.49	81.3074	1,802.49	76.9762	1,802.49	81.4307	1,802.49	72.0398	1,802.49	79.2276	1,802.49	74.2021	1,802.49	75.3602	1,802.49	75.0772
1,866.21	93.3359	1,866.21	92.9814	1,866.21	93.3188	1,866.21	92.2589	1,866.21	92.9027	1,866.21	91.1592	1,866.21	92.0892	1,866.21	89.7827	1,866.21	90.9315	1,866.21	88.3257	1,866.21	89.5398	1,866.21	86.8701	1,866.21	88.0327	1,866.21	85.3635	1,866.21	86.4586	1,866.21	83.8368	1,866.21	84.8104	1,866.21	82.6008	1,866.21	83.1518	1,866.21	81.7719	1,866.21	81.9371	1,866.21	80.4259	1,866.21	81.3913	1,866.21	78.9943	1,866.21	80.3977	1,866.21	80.2376	1,866.21	79.5094	1,866.21	80.9315	1,866.21	80.7758	1,866.21	78.3818	1,866.21	80.9103	1,866.21	73.8877	1,866.21	77.9274	1,866.21	75.6154	1,866.21	74.2451	1,866.21	76.1154
1,932.13	92.4723	1,932.13	92.141	1,932.13	92.4879	1,932.13	91.4212	1,932.13	92.2015	1,932.13	90.3191	1,932.13	91.517	1,932.13	89.0055	1,932.13	90.3356	1,932.13	87.6372	1,932.13	88.8319	1,932.13	86.1508	1,932.13	87.3867	1,932.13	84.5553	1,932.13	85.9439	1,932.13	83.159	1,932.13	84.204	1,932.13	82.0744	1,932.13	82.5133	1,932.13	81.2136	1,932.13	81.2829	1,932.13	80.3459	1,932.13	80.0347	1,932.13	79.1535	1,932.13	78.5317	1,932.13	79.2071	1,932.13	77.8044	1,932.13	79.6797	1,932.13	79.1837	1,932.13	77.1916	1,932.13	79.9283	1,932.13	73.4497	1,932.13	77.5112	1,932.13	76.0246	1,932.13	72.2647	1,932.13	74.8416
2,000.24	92.578	2,000.24	92.1373	2,000.24	92.6383	2,000.24	91.2688	2,000.24	92.3866	2,000.24	90.0541	2,000.24	91.7742	2,000.24	88.5786	2,000.24	90.7613	2,000.24	86.8897	2,000.24	89.4427	2,000.24	85.1205	2,000.24	87.921	2,000.24	83.3087	2,000.24	86.3024	2,000.24	81.5399	2,000.24	84.7831	2,000.24	80.7809	2,000.24	83.1721	2,000.24	80.5368	2,000.24	81.2454	2,000.24	78.9114	2,000.24	80.1088	2,000.24	77.6693	2,000.24	79.6498	2,000.24	78.8722	2,000.24	78.7188	2,000.24	78.4682	2,000.24	79.556	2,000.24	75.1703	2,000.24	80.203	2,000.24	74.4922	2,000.24	78.4644	2,000.24	76.8579	2,000.24	76.4613	2,000.24	76.8105
2,070.56	93.389	2,070.56	92.8327	2,070.56	93.4302	2,070.56	91.8372	2,070.56	92.9962	2,070.56	90.6315	2,070.56	92.1626	2,070.56	89.3199	2,070.56	91.0091	2,070.56	87.7295	2,070.56	89.6092	2,070.56	85.8192	2,070.56	88.0892	2,070.56	83.8812	2,070.56	86.4661	2,070.56	81.9256	2,070.56	84.6711	2,070.56	79.9128	2,070.56	83.1836	2,070.56	79.2659	2,070.56	82.1883	2,070.56	78.825	2,070.56	80.7892	2,070.56	76.7425	2,070.56	79.2467	2,070.56	78.2019	2,070.56	78.3818	2,070.56	79.3779	2,070.56	78.6523	2,070.56	75.4887	2,070.56	79.2331	2,070.56	70.0671	2,070.56	76.9537	2,070.56	75.6823	2,070.56	75.1868	2,070.56	77.2182
2,143.8	93.3074	2,143.8	92.8532	2,143.8	93.3579	2,143.8	92.0468	2,143.8	92.9027	2,143.8	90.9756	2,143.8	91.8478	2,143.8	89.6834	2,143.8	90.4496	2,143.8	88.2179	2,143.8	88.9865	2,143.8	86.6126	2,143.8	87.1182	2,143.8	84.791	2,143.8	84.9948	2,143.8	82.9491	2,143.8	83.6255	2,143.8	81.5583	2,143.8	82.3473	2,143.8	80.332	2,143.8	80.5898	2,143.8	79.1136	2,143.8	79.589	2,143.8	78.0658	2,143.8	78.0797	2,143.8	78.1098	2,143.8	77.6197	2,143.8	79.6034	2,143.8	79.908	2,143.8	78.6442	2,143.8	79.605	2,143.8	74.7195	2,143.8	76.254	2,143.8	76.9025	2,143.8	73.5685	2,143.8	76.4439
2,219.24	93.2818	2,219.24	92.7821	2,219.24	93.2739	2,219.24	91.8719	2,219.24	92.8911	2,219.24	90.6374	2,219.24	92.1331	2,219.24	88.9036	2,219.24	90.7135	2,219.24	87.0709	2,219.24	88.6998	2,219.24	86.0283	2,219.24	86.9491	2,219.24	84.9581	2,219.24	85.7003	2,219.24	82.9579	2,219.24	83.8323	2,219.24	81.468	2,219.24	81.2657	2,219.24	81.0191	2,219.24	79.7293	2,219.24	79.8358	2,219.24	79.7263	2,219.24	78.0963	2,219.24	78.793	2,219.24	78.8201	2,219.24	75.5953	2,219.24	80.0219	2,219.24	78.4045	2,219.24	77.9314	2,219.24	79.8927	2,219.24	74.1133	2,219.24	76.1794	2,219.24	76.7863	2,219.24	72.297	2,219.24	75.8026
2,297.61	94.1159	2,297.61	93.3915	2,297.61	94.2038	2,297.61	92.2212	2,297.61	93.6843	2,297.61	90.9191	2,297.61	92.8214	2,297.61	89.3469	2,297.61	91.8337	2,297.61	87.0295	2,297.61	90.3855	2,297.61	84.3634	2,297.61	88.1792	2,297.61	82.8397	2,297.61	86.0243	2,297.61	82.1066	2,297.61	85.0308	2,297.61	80.6198	2,297.61	84.3835	2,297.61	79.2085	2,297.61	82.6345	2,297.61	79.2419	2,297.61	80.2167	2,297.61	77.8547	2,297.61	79.9477	2,297.61	76.9573	2,297.61	78.6951	2,297.61	80.7981	2,297.61	77.2412	2,297.61	80.113	2,297.61	80.6942	2,297.61	74.4271	2,297.61	80.3399	2,297.61	77.2643	2,297.61	75.7807	2,297.61	76.834
2,378.17	94.5894	2,378.17	94.0845	2,378.17	94.6699	2,378.17	93.2713	2,378.17	94.0765	2,378.17	91.9819	2,378.17	93.1172	2,378.17	90.3093	2,378.17	92.3028	2,378.17	88.6893	2,378.17	91.1278	2,378.17	87.0633	2,378.17	88.953	2,378.17	84.9198	2,378.17	86.3762	2,378.17	82.4486	2,378.17	84.4023	2,378.17	81.08	2,378.17	82.9967	2,378.17	80.2874	2,378.17	82.1162	2,378.17	78.8675	2,378.17	81.0158	2,378.17	78.2766	2,378.17	79.9211	2,378.17	77.1203	2,378.17	78.9623	2,378.17	77.4604	2,378.17	77.8497	2,378.17	77.4689	2,378.17	79.8434	2,378.17	72.5244	2,378.17	79.9956	2,378.17	75.7351	2,378.17	78.4636	2,378.17	78.0616
2,462.4	94.2613	2,462.4	93.7924	2,462.4	94.2226	2,462.4	92.7939	2,462.4	93.6479	2,462.4	91.495	2,462.4	92.4629	2,462.4	90.0339	2,462.4	90.977	2,462.4	88.3988	2,462.4	89.4426	2,462.4	86.7683	2,462.4	87.7185	2,462.4	85.2571	2,462.4	85.9014	2,462.4	83.8451	2,462.4	83.9529	2,462.4	82.3519	2,462.4	81.6264	2,462.4	80.7118	2,462.4	79.9256	2,462.4	80.2769	2,462.4	78.9363	2,462.4	79.8285	2,462.4	78.2688	2,462.4	78.6714	2,462.4	77.9411	2,462.4	79.3297	2,462.4	76.2588	2,462.4	78.5652	2,462.4	77.8279	2,462.4	75.3855	2,462.4	78.1454	2,462.4	76.1468	2,462.4	74.9582	2,462.4	77.3112
2,548.83	93.9254	2,548.83	93.3917	2,548.83	93.9101	2,548.83	92.2731	2,548.83	93.4002	2,548.83	90.737	2,548.83	92.4079	2,548.83	89.0358	2,548.83	91.0628	2,548.83	87.2614	2,548.83	89.5725	2,548.83	85.5876	2,548.83	87.8757	2,548.83	84.1112	2,548.83	85.8745	2,548.83	82.5509	2,548.83	84.0266	2,548.83	81.2492	2,548.83	82.36	2,548.83	80.0295	2,548.83	80.5339	2,548.83	78.4832	2,548.83	79.3683	2,548.83	77.9749	2,548.83	78.0942	2,548.83	77.4829	2,548.83	77.6176	2,548.83	78.9996	2,548.83	77.9716	2,548.83	79.5924	2,548.83	78.4414	2,548.83	76.884	2,548.83	78.964	2,548.83	78.4117	2,548.83	75.6728	2,548.83	77.1201
2,638.92	93.3246	2,638.92	92.7832	2,638.92	93.4303	2,638.92	91.782	2,638.92	93.0009	2,638.92	90.2909	2,638.92	92.0413	2,638.92	88.5929	2,638.92	90.7242	2,638.92	86.9106	2,638.92	89.2253	2,638.92	85.0338	2,638.92	87.6443	2,638.92	83.1289	2,638.92	86.0991	2,638.92	81.4335	2,638.92	84.6064	2,638.92	79.8086	2,638.92	82.8228	2,638.92	78.5732	2,638.92	80.8573	2,638.92	77.432	2,638.92	79.5401	2,638.92	76.4401	2,638.92	78.5684	2,638.92	76.2132	2,638.92	77.6152	2,638.92	77.6341	2,638.92	77.4102	2,638.92	77.5812	2,638.92	78.552	2,638.92	73.5755	2,638.92	78.2944	2,638.92	74.0947	2,638.92	75.3902	2,638.92	75.4186
2,731.93	92.8203	2,731.93	92.2922	2,731.93	92.8841	2,731.93	91.3684	2,731.93	92.4503	2,731.93	89.975	2,731.93	91.5698	2,731.93	88.4309	2,731.93	90.1786	2,731.93	86.9565	2,731.93	88.5193	2,731.93	85.1656	2,731.93	86.9313	2,731.93	83.2696	2,731.93	85.2104	2,731.93	81.4942	2,731.93	83.6545	2,731.93	79.5427	2,731.93	82.2531	2,731.93	78.4989	2,731.93	79.9171	2,731.93	77.3024	2,731.93	78.6319	2,731.93	76.2928	2,731.93	77.8332	2,731.93	76.2826	2,731.93	76.2602	2,731.93	77.279	2,731.93	77.9668	2,731.93	78.2842	2,731.93	78.7663	2,731.93	75.5159	2,731.93	78.2203	2,731.93	76.9657	2,731.93	74.748	2,731.93	75.7103
2,828.61	93.206	2,828.61	92.5854	2,828.61	93.2114	2,828.61	91.4501	2,828.61	92.6283	2,828.61	90.0138	2,828.61	91.6254	2,828.61	88.396	2,828.61	90.2849	2,828.61	86.7159	2,828.61	88.5494	2,828.61	84.9848	2,828.61	86.8606	2,828.61	83.1633	2,828.61	85.3551	2,828.61	81.7464	2,828.61	83.5215	2,828.61	79.9526	2,828.61	81.8623	2,828.61	77.8785	2,828.61	80.4497	2,828.61	77.7844	2,828.61	78.5657	2,828.61	76.8288	2,828.61	78.1751	2,828.61	76.7563	2,828.61	77.2849	2,828.61	77.4575	2,828.61	75.6983	2,828.61	77.1223	2,828.61	78.0103	2,828.61	74.0301	2,828.61	78.1982	2,828.61	74.1628	2,828.61	76.0765	2,828.61	76.3068
2,928.22	93.2987	2,928.22	92.6922	2,928.22	93.2999	2,928.22	91.6088	2,928.22	92.7196	2,928.22	90.2608	2,928.22	91.7533	2,928.22	88.6334	2,928.22	90.4765	2,928.22	86.8952	2,928.22	88.8304	2,928.22	85.4631	2,928.22	86.9775	2,928.22	83.9249	2,928.22	85.0723	2,928.22	82.1786	2,928.22	83.2331	2,928.22	80.6806	2,928.22	81.7326	2,928.22	78.8798	2,928.22	80.3633	2,928.22	77.7915	2,928.22	78.9464	2,928.22	77.8529	2,928.22	78.3771	2,928.22	77.4177	2,928.22	77.6266	2,928.22	78.3888	2,928.22	77.0521	2,928.22	78.9686	2,928.22	77.1263	2,928.22	76.9395	2,928.22	78.6088	2,928.22	77.3417	2,928.22	77.316	2,928.22	76.676
3,031.49	93.0211	3,031.49	92.4846	3,031.49	93.1066	3,031.49	91.4044	3,031.49	92.6513	3,031.49	89.9917	3,031.49	91.5142	3,031.49	88.4695	3,031.49	90.0893	3,031.49	86.7212	3,031.49	88.6846	3,031.49	84.8871	3,031.49	86.9375	3,031.49	83.4184	3,031.49	85.1856	3,031.49	82.155	3,031.49	83.9463	3,031.49	80.7728	3,031.49	82.2777	3,031.49	79.2687	3,031.49	80.3651	3,031.49	77.7215	3,031.49	78.5703	3,031.49	77.0918	3,031.49	77.2188	3,031.49	77.3557	3,031.49	77.4639	3,031.49	78.6057	3,031.49	75.8033	3,031.49	79.237	3,031.49	76.8583	3,031.49	76.43	3,031.49	78.4409	3,031.49	75.2354	3,031.49	77.1132	3,031.49	77.0275
3,138.43	92.9156	3,138.43	92.4422	3,138.43	92.8757	3,138.43	91.4241	3,138.43	92.3596	3,138.43	90.1646	3,138.43	91.382	3,138.43	88.736	3,138.43	90.1719	3,138.43	87.056	3,138.43	88.7476	3,138.43	85.0898	3,138.43	87.1699	3,138.43	83.1362	3,138.43	85.5262	3,138.43	81.6363	3,138.43	83.7725	3,138.43	80.063	3,138.43	82.2373	3,138.43	78.6924	3,138.43	80.7069	3,138.43	77.2666	3,138.43	78.9981	3,138.43	75.8679	3,138.43	77.6935	3,138.43	75.7533	3,138.43	76.3908	3,138.43	76.7833	3,138.43	76.9496	3,138.43	78.5807	3,138.43	77.3478	3,138.43	76.5927	3,138.43	78.3018	3,138.43	76.8163	3,138.43	76.9043	3,138.43	76.4301
3,249.02	92.9655	3,249.02	92.4689	3,249.02	92.9244	3,249.02	91.5121	3,249.02	92.487	3,249.02	90.3887	3,249.02	91.6894	3,249.02	89.0737	3,249.02	90.4856	3,249.02	87.5386	3,249.02	89.0676	3,249.02	85.8391	3,249.02	87.6138	3,249.02	83.9135	3,249.02	85.7995	3,249.02	82.1319	3,249.02	84.0126	3,249.02	80.6751	3,249.02	82.4954	3,249.02	79.204	3,249.02	80.7911	3,249.02	78.2432	3,249.02	79.2424	3,249.02	76.9081	3,249.02	78.1041	3,249.02	76.0978	3,249.02	77.2155	3,249.02	77.0785	3,249.02	76.1055	3,249.02	78.6104	3,249.02	77.234	3,249.02	77.2069	3,249.02	79.3224	3,249.02	75.4567	3,249.02	77.5232	3,249.02	76.9281
3,363.28	91.8823	3,363.28	91.3817	3,363.28	91.9413	3,363.28	90.7181	3,363.28	91.4941	3,363.28	89.8877	3,363.28	90.8456	3,363.28	88.8317	3,363.28	89.9482	3,363.28	87.6237	3,363.28	88.8175	3,363.28	86.1071	3,363.28	87.4078	3,363.28	84.1002	3,363.28	85.7533	3,363.28	82.1682	3,363.28	83.8902	3,363.28	80.7092	3,363.28	81.7962	3,363.28	79.3029	3,363.28	80.1352	3,363.28	78.1366	3,363.28	78.7104	3,363.28	77.4381	3,363.28	77.9415	3,363.28	77.3226	3,363.28	77.3268	3,363.28	77.0385	3,363.28	76.6109	3,363.28	77.9234	3,363.28	76.1071	3,363.28	76.6162	3,363.28	77.7233	3,363.28	76.5441	3,363.28	76.8235	3,363.28	76.2137
3,481.93	92.0932	3,481.93	91.7271	3,481.93	92.104	3,481.93	91.0779	3,481.93	91.9071	3,481.93	90.3358	3,481.93	91.4129	3,481.93	89.3881	3,481.93	90.6528	3,481.93	88.0483	3,481.93	89.73	3,481.93	86.2267	3,481.93	88.4564	3,481.93	84.2452	3,481.93	86.9355	3,481.93	82.3905	3,481.93	84.9514	3,481.93	80.4116	3,481.93	83.007	3,481.93	78.7964	3,481.93	81.208	3,481.93	77.834	3,481.93	79.199	3,481.93	76.6532	3,481.93	78.6236	3,481.93	76.4598	3,481.93	78.2167	3,481.93	76.6717	3,481.93	77.4851	3,481.93	77.5732	3,481.93	77.4891	3,481.93	76.4074	3,481.93	77.922	3,481.93	75.3514	3,481.93	77.0465	3,481.93	75.5935
3,604.98	92.2853	3,604.98	92.0786	3,604.98	92.3079	3,604.98	91.6296	3,604.98	92.1153	3,604.98	91.0335	3,604.98	91.5924	3,604.98	90.0156	3,604.98	91.1136	3,604.98	88.6504	3,604.98	90.0944	3,604.98	87.0573	3,604.98	88.5206	3,604.98	84.9346	3,604.98	86.7376	3,604.98	82.6674	3,604.98	84.8096	3,604.98	80.9569	3,604.98	82.8198	3,604.98	78.701	3,604.98	80.8205	3,604.98	77.2122	3,604.98	78.8096	3,604.98	76.0711	3,604.98	77.3426	3,604.98	75.8352	3,604.98	77.5046	3,604.98	77.4204	3,604.98	77.2039	3,604.98	77.717	3,604.98	76.4133	3,604.98	75.5467	3,604.98	77.7402	3,604.98	72.6122	3,604.98	75.8266	3,604.98	74.9005
3,732.42	92.1482	3,732.42	92.078	3,732.42	92.2199	3,732.42	91.8025	3,732.42	92.1175	3,732.42	91.0807	3,732.42	91.9411	3,732.42	89.8775	3,732.42	91.291	3,732.42	88.328	3,732.42	90.1195	3,732.42	86.7284	3,732.42	88.582	3,732.42	84.6796	3,732.42	86.5855	3,732.42	82.3137	3,732.42	84.6189	3,732.42	80.7561	3,732.42	82.3754	3,732.42	79.0906	3,732.42	80.7858	3,732.42	77.8768	3,732.42	79.4678	3,732.42	76.8973	3,732.42	77.3864	3,732.42	75.3848	3,732.42	75.5094	3,732.42	76.95	3,732.42	75.8457	3,732.42	77.925	3,732.42	76.909	3,732.42	75.4054	3,732.42	77.7629	3,732.42	73.5815	3,732.42	75.5278	3,732.42	73.1917
3,863.53	93.121	3,863.53	92.9725	3,863.53	93.0657	3,863.53	92.5836	3,863.53	93.01	3,863.53	91.659	3,863.53	92.7475	3,863.53	90.313	3,863.53	91.7727	3,863.53	88.4766	3,863.53	90.4933	3,863.53	86.1925	3,863.53	88.6909	3,863.53	84.2168	3,863.53	86.5896	3,863.53	81.8092	3,863.53	84.1376	3,863.53	79.3792	3,863.53	81.5224	3,863.53	78.404	3,863.53	79.8687	3,863.53	76.9455	3,863.53	78.7029	3,863.53	76.4079	3,863.53	77.8811	3,863.53	75.8241	3,863.53	76.4701	3,863.53	75.4415	3,863.53	75.9467	3,863.53	76.9711	3,863.53	77.4866	3,863.53	76.4236	3,863.53	77.5422	3,863.53	75.1992	3,863.53	75.2949	3,863.53	73.1685
3,999.76	92.9626	3,999.76	92.8186	3,999.76	93.0213	3,999.76	92.3871	3,999.76	93.0545	3,999.76	91.4844	3,999.76	92.6992	3,999.76	90.1072	3,999.76	91.8875	3,999.76	88.2004	3,999.76	90.3797	3,999.76	85.7105	3,999.76	88.3387	3,999.76	83.215	3,999.76	86.0681	3,999.76	81.1144	3,999.76	83.7338	3,999.76	79.0874	3,999.76	81.5202	3,999.76	77.5359	3,999.76	79.1714	3,999.76	77.021	3,999.76	77.1722	3,999.76	75.9411	3,999.76	76.13	3,999.76	76.197	3,999.76	76.678	3,999.76	75.9825	3,999.76	76.4741	3,999.76	77.1402	3,999.76	75.8358	3,999.76	75.7494	3,999.76	76.5494	3,999.76	73.5363	3,999.76	76.4031	3,999.76	73.1982
4,141.11	93.0952	4,141.11	92.8574	4,141.11	93.1575	4,141.11	92.3619	4,141.11	92.8897	4,141.11	91.3832	4,141.11	92.4212	4,141.11	89.8648	4,141.11	91.3476	4,141.11	87.9193	4,141.11	89.7207	4,141.11	86.0233	4,141.11	87.8872	4,141.11	83.1318	4,141.11	85.3822	4,141.11	80.0748	4,141.11	82.5852	4,141.11	79.0208	4,141.11	80.0121	4,141.11	76.2532	4,141.11	79.3375	4,141.11	75.5627	4,141.11	77.3023	4,141.11	76.1399	4,141.11	74.5932	4,141.11	74.3542	4,141.11	74.4689	4,141.11	75.495	4,141.11	76.0063	4,141.11	76.5198	4,141.11	76.333	4,141.11	74.738	4,141.11	76.2412	4,141.11	71.2333	4,141.11	74.8979	4,141.11	72.6062
4,286.87	92.8892	4,286.87	92.6574	4,286.87	92.9245	4,286.87	92.3072	4,286.87	92.8282	4,286.87	91.2711	4,286.87	92.5606	4,286.87	89.5336	4,286.87	91.5631	4,286.87	87.0511	4,286.87	90.29	4,286.87	84.3562	4,286.87	88.1556	4,286.87	82.5335	4,286.87	85.7126	4,286.87	80.7244	4,286.87	83.7766	4,286.87	78.4463	4,286.87	81.5224	4,286.87	78.0213	4,286.87	78.0437	4,286.87	75.2111	4,286.87	77.4054	4,286.87	75.1766	4,286.87	76.2249	4,286.87	75.4908	4,286.87	74.1748	4,286.87	76.0168	4,286.87	72.9895	4,286.87	76.6212	4,286.87	75.9764	4,286.87	75.2894	4,286.87	76.4803	4,286.87	72.0852	4,286.87	76.3779	4,286.87	72.2587
4,438.48	92.5276	4,438.48	92.4308	4,438.48	92.5103	4,438.48	92.1253	4,438.48	92.6836	4,438.48	91.4032	4,438.48	92.2897	4,438.48	89.9426	4,438.48	91.2185	4,438.48	88.0137	4,438.48	89.6143	4,438.48	85.5588	4,438.48	87.5557	4,438.48	83.145	4,438.48	85.2124	4,438.48	81.3342	4,438.48	82.9078	4,438.48	79.1388	4,438.48	80.7498	4,438.48	76.412	4,438.48	79.6221	4,438.48	74.9844	4,438.48	77.3655	4,438.48	73.2467	4,438.48	74.1456	4,438.48	73.9609	4,438.48	74.959	4,438.48	74.1256	4,438.48	73.3398	4,438.48	75.6184	4,438.48	74.9515	4,438.48	75.9268	4,438.48	75.6063	4,438.48	72.6721	4,438.48	75.7625	4,438.48	71.9783
4,594.48	92.7842	4,594.48	92.7045	4,594.48	92.923	4,594.48	92.2723	4,594.48	92.7169	4,594.48	90.8448	4,594.48	92.3992	4,594.48	89.0634	4,594.48	91.369	4,594.48	86.6839	4,594.48	89.5504	4,594.48	84.2162	4,594.48	87.3645	4,594.48	81.8746	4,594.48	85.2447	4,594.48	79.5348	4,594.48	82.9324	4,594.48	78.5713	4,594.48	80.9628	4,594.48	76.9799	4,594.48	79.0574	4,594.48	74.6641	4,594.48	77.6142	4,594.48	75.4131	4,594.48	75.3098	4,594.48	74.0207	4,594.48	75.2995	4,594.48	75.3901	4,594.48	73.0079	4,594.48	76.1366	4,594.48	72.9551	4,594.48	74.1481	4,594.48	76.0238	4,594.48	66.5614	4,594.48	75.3076	4,594.48	69.62
4,757.08	92.3765	4,757.08	92.2431	4,757.08	92.3911	4,757.08	91.9421	4,757.08	92.4842	4,757.08	91.0508	4,757.08	92.1608	4,757.08	89.1887	4,757.08	91.051	4,757.08	87.0749	4,757.08	89.3393	4,757.08	85.1782	4,757.08	87.4354	4,757.08	83.4731	4,757.08	85.1087	4,757.08	81.568	4,757.08	82.8731	4,757.08	78.167	4,757.08	80.9107	4,757.08	76.4177	4,757.08	78.1112	4,757.08	72.8332	4,757.08	77.1486	4,757.08	71.4991	4,757.08	75.1403	4,757.08	72.2733	4,757.08	73.2813	4,757.08	73.3554	4,757.08	74.829	4,757.08	75.3619	4,757.08	74.3419	4,757.08	77.0762	4,757.08	75.7806	4,757.08	72.0657	4,757.08	77.0568	4,757.08	72.2795
4,924.8	92.5504	4,924.8	92.5548	4,924.8	92.4907	4,924.8	92.1071	4,924.8	92.4429	4,924.8	91.0634	4,924.8	91.9225	4,924.8	89.2045	4,924.8	90.765	4,924.8	86.9144	4,924.8	88.8291	4,924.8	84.3064	4,924.8	86.8372	4,924.8	81.8472	4,924.8	84.8176	4,924.8	79.2232	4,924.8	82.3446	4,924.8	77.7085	4,924.8	79.9819	4,924.8	76.6417	4,924.8	79.0055	4,924.8	76.2364	4,924.8	76.9275	4,924.8	74.6688	4,924.8	75.115	4,924.8	73.9287	4,924.8	74.5134	4,924.8	74.3013	4,924.8	71.8778	4,924.8	76.1299	4,924.8	73.9499	4,924.8	75.39	4,924.8	75.4766	4,924.8	69.6182	4,924.8	75.5066	4,924.8	70.4699
5,098.39	92.1642	5,098.39	92.0852	5,098.39	92.3369	5,098.39	91.6667	5,098.39	92.304	5,098.39	90.2885	5,098.39	92.0734	5,098.39	88.5781	5,098.39	90.8961	5,098.39	86.6598	5,098.39	89.3849	5,098.39	84.8184	5,098.39	87.5996	5,098.39	82.9592	5,098.39	85.1265	5,098.39	81.1136	5,098.39	82.8294	5,098.39	78.5404	5,098.39	81.042	5,098.39	77.0859	5,098.39	78.3629	5,098.39	74.3033	5,098.39	77.1154	5,098.39	73.4795	5,098.39	74.4998	5,098.39	71.659	5,098.39	72.9484	5,098.39	74.4422	5,098.39	73.9611	5,098.39	76.1388	5,098.39	74.1537	5,098.39	76.5104	5,098.39	76.4266	5,098.39	68.7793	5,098.39	76.1796	5,098.39	70.5413
5,277.83	91.962	5,277.83	92.1063	5,277.83	91.7544	5,277.83	91.8945	5,277.83	92.1721	5,277.83	91.2992	5,277.83	91.716	5,277.83	89.4105	5,277.83	90.5906	5,277.83	87.4834	5,277.83	89.0511	5,277.83	85.5528	5,277.83	87.1257	5,277.83	83.1036	5,277.83	85.2357	5,277.83	80.3882	5,277.83	83.022	5,277.83	78.2312	5,277.83	80.6353	5,277.83	76.1328	5,277.83	78.6309	5,277.83	74.0335	5,277.83	75.8228	5,277.83	72.7983	5,277.83	75.089	5,277.83	71.6992	5,277.83	73.5421	5,277.83	72.6876	5,277.83	72.2203	5,277.83	75.1947	5,277.83	73.0111	5,277.83	76.384	5,277.83	73.9619	5,277.83	71.4079	5,277.83	76.1092	5,277.83	71.9047
5,463.87	92.9447	5,463.87	93.2039	5,463.87	93.0883	5,463.87	92.9638	5,463.87	93.1584	5,463.87	91.5723	5,463.87	92.8002	5,463.87	89.8019	5,463.87	91.9186	5,463.87	87.8572	5,463.87	90.3555	5,463.87	85.4125	5,463.87	88.5658	5,463.87	83.3231	5,463.87	86.4435	5,463.87	81.7412	5,463.87	84.178	5,463.87	79.8404	5,463.87	81.947	5,463.87	78.2785	5,463.87	79.712	5,463.87	76.9469	5,463.87	78.1752	5,463.87	75.5265	5,463.87	75.9125	5,463.87	72.887	5,463.87	74.7824	5,463.87	73.2268	5,463.87	73.8526	5,463.87	75.8125	5,463.87	74.6409	5,463.87	77.0884	5,463.87	75.8225	5,463.87	69.3133	5,463.87	75.2344	5,463.87	69.2764
5,656.49	93.0506	5,656.49	93.2885	5,656.49	92.7728	5,656.49	93.0076	5,656.49	93.154	5,656.49	92.095	5,656.49	92.8263	5,656.49	90.2027	5,656.49	91.8815	5,656.49	88.8677	5,656.49	90.5561	5,656.49	87.5583	5,656.49	88.7472	5,656.49	85.3263	5,656.49	86.7388	5,656.49	82.5739	5,656.49	84.2757	5,656.49	80.3316	5,656.49	81.4881	5,656.49	77.366	5,656.49	79.4589	5,656.49	74.2134	5,656.49	77.7423	5,656.49	74.2282	5,656.49	76.6998	5,656.49	73.4721	5,656.49	75.0995	5,656.49	73.2375	5,656.49	74.047	5,656.49	75.5792	5,656.49	73.5667	5,656.49	77.0682	5,656.49	75.4592	5,656.49	72.5961	5,656.49	75.5947	5,656.49	69.537
5,856.45	93.3685	5,856.45	93.6127	5,856.45	93.5351	5,856.45	93.4881	5,856.45	93.4564	5,856.45	92.2981	5,856.45	93.0525	5,856.45	91.2725	5,856.45	92.2719	5,856.45	89.642	5,856.45	90.7651	5,856.45	86.9191	5,856.45	89.3135	5,856.45	84.0832	5,856.45	87.1572	5,856.45	81.6241	5,856.45	84.5975	5,856.45	79.3386	5,856.45	82.4946	5,856.45	78.2427	5,856.45	80.1455	5,856.45	76.7193	5,856.45	77.9655	5,856.45	75.5302	5,856.45	75.9011	5,856.45	74.2887	5,856.45	74.2656	5,856.45	74.0883	5,856.45	74.4792	5,856.45	75.0631	5,856.45	75.0876	5,856.45	75.8109	5,856.45	74.6793	5,856.45	71.189	5,856.45	75.8173	5,856.45	70.5679
6,062.99	93.7613	6,062.99	93.7698	6,062.99	93.4815	6,062.99	93.2368	6,062.99	93.3686	6,062.99	92.2962	6,062.99	92.899	6,062.99	90.7656	6,062.99	92.0981	6,062.99	89.2442	6,062.99	90.8852	6,062.99	87.3376	6,062.99	89.2594	6,062.99	84.6145	6,062.99	86.836	6,062.99	81.9937	6,062.99	83.9168	6,062.99	79.7899	6,062.99	81.2051	6,062.99	77.1936	6,062.99	79.3825	6,062.99	75.9178	6,062.99	76.471	6,062.99	74.536	6,062.99	75.3289	6,062.99	74.7185	6,062.99	73.3822	6,062.99	73.4872	6,062.99	71.5295	6,062.99	75.2405	6,062.99	73.7793	6,062.99	75.8922	6,062.99	74.2883	6,062.99	69.3531	6,062.99	74.7754	6,062.99	67.4445
6,276.86	94.1651	6,276.86	93.9093	6,276.86	94.2247	6,276.86	93.2012	6,276.86	93.8336	6,276.86	92.0949	6,276.86	93.4422	6,276.86	91.1932	6,276.86	92.6999	6,276.86	89.436	6,276.86	91.339	6,276.86	86.534	6,276.86	89.5423	6,276.86	83.8558	6,276.86	87.117	6,276.86	81.5626	6,276.86	83.878	6,276.86	78.942	6,276.86	80.8408	6,276.86	77.1383	6,276.86	78.3279	6,276.86	75.062	6,276.86	76.0415	6,276.86	74.0367	6,276.86	74.9408	6,276.86	73.4162	6,276.86	74.8472	6,276.86	74.6855	6,276.86	75.0031	6,276.86	74.4638	6,276.86	74.1636	6,276.86	76.2307	6,276.86	74.7855	6,276.86	67.9176	6,276.86	75.0059	6,276.86	66.0788
6,498.05	94.3017	6,498.05	93.8303	6,498.05	94.2049	6,498.05	93.0689	6,498.05	93.9995	6,498.05	92.5398	6,498.05	93.5166	6,498.05	91.2975	6,498.05	92.9239	6,498.05	89.5411	6,498.05	91.7924	6,498.05	87.0846	6,498.05	89.8703	6,498.05	84.0812	6,498.05	86.8633	6,498.05	80.9296	6,498.05	83.7845	6,498.05	77.9462	6,498.05	81.1874	6,498.05	75.452	6,498.05	79.0036	6,498.05	75.2631	6,498.05	76.411	6,498.05	73.8545	6,498.05	75.4348	6,498.05	72.9401	6,498.05	72.8788	6,498.05	73.7518	6,498.05	71.4252	6,498.05	75.5147	6,498.05	73.2177	6,498.05	76.6045	6,498.05	75.4887	6,498.05	68.1467	6,498.05	76.4563	6,498.05	67.3351
6,727.29	94.2678	6,727.29	93.9592	6,727.29	94.1838	6,727.29	93.5496	6,727.29	93.8606	6,727.29	92.9999	6,727.29	93.5037	6,727.29	92.0233	6,727.29	93.0226	6,727.29	89.8822	6,727.29	91.8311	6,727.29	86.8427	6,727.29	89.8722	6,727.29	84.0386	6,727.29	87.085	6,727.29	81.3353	6,727.29	84.2852	6,727.29	78.6551	6,727.29	81.5071	6,727.29	76.7181	6,727.29	78.3382	6,727.29	75.7202	6,727.29	76.3248	6,727.29	74.5185	6,727.29	74.9345	6,727.29	74.8388	6,727.29	73.0176	6,727.29	75.354	6,727.29	74.2522	6,727.29	75.3252	6,727.29	74.5217	6,727.29	76.6095	6,727.29	75.8761	6,727.29	68.2836	6,727.29	75.7472	6,727.29	67.9736
6,964.6	94.2567	6,964.6	93.8743	6,964.6	94.159	6,964.6	93.3721	6,964.6	93.7337	6,964.6	93.056	6,964.6	93.3629	6,964.6	92.034	6,964.6	93.2543	6,964.6	89.8301	6,964.6	92.2584	6,964.6	87.0191	6,964.6	90.1078	6,964.6	84.5123	6,964.6	87.2513	6,964.6	82.628	6,964.6	84.7308	6,964.6	80.1861	6,964.6	82.1692	6,964.6	77.254	6,964.6	79.7782	6,964.6	75.9572	6,964.6	77.3855	6,964.6	73.4173	6,964.6	76.4897	6,964.6	73.0471	6,964.6	73.4425	6,964.6	74.3696	6,964.6	73.6408	6,964.6	75.7938	6,964.6	74.4156	6,964.6	76.153	6,964.6	75.9244	6,964.6	67.5638	6,964.6	76.4713	6,964.6	65.6133
7,209.96	94.0111	7,209.96	93.1854	7,209.96	94.1249	7,209.96	92.927	7,209.96	93.2332	7,209.96	92.8719	7,209.96	93.022	7,209.96	91.9894	7,209.96	92.9493	7,209.96	89.7588	7,209.96	91.8695	7,209.96	87.0612	7,209.96	89.8469	7,209.96	84.5398	7,209.96	87.4679	7,209.96	82.2621	7,209.96	84.7566	7,209.96	79.9402	7,209.96	82.3755	7,209.96	76.7597	7,209.96	80.3724	7,209.96	75.2632	7,209.96	76.8057	7,209.96	73.5103	7,209.96	76.0172	7,209.96	74.7386	7,209.96	73.8905	7,209.96	73.9937	7,209.96	74.3426	7,209.96	75.4514	7,209.96	74.0328	7,209.96	74.4939	7,209.96	75.7724	7,209.96	64.9137	7,209.96	74.6767	7,209.96	61.2585
7,464.11	93.4495	7,464.11	92.7171	7,464.11	93.3448	7,464.11	92.4719	7,464.11	92.6656	7,464.11	92.6443	7,464.11	92.7446	7,464.11	91.5737	7,464.11	92.6952	7,464.11	89.1034	7,464.11	91.3432	7,464.11	86.5972	7,464.11	89.2149	7,464.11	84.0761	7,464.11	87.0684	7,464.11	81.2831	7,464.11	84.2468	7,464.11	79.1688	7,464.11	81.8001	7,464.11	76.9615	7,464.11	80.2672	7,464.11	75.397	7,464.11	77.4133	7,464.11	73.2676	7,464.11	74.7907	7,464.11	73.6549	7,464.11	72.4721	7,464.11	74.5049	7,464.11	73.8085	7,464.11	76.1531	7,464.11	73.0673	7,464.11	74.41	7,464.11	75.5794	7,464.11	62.9196	7,464.11	74.5408	7,464.11	60.8515
7,727.78	92.6867	7,727.78	92.0058	7,727.78	92.7472	7,727.78	92.1738	7,727.78	92.2009	7,727.78	92.5064	7,727.78	92.3264	7,727.78	91.0689	7,727.78	92.2427	7,727.78	88.7539	7,727.78	91.0074	7,727.78	86.7869	7,727.78	89.0126	7,727.78	84.2256	7,727.78	86.5183	7,727.78	81.3161	7,727.78	84.1137	7,727.78	79.1201	7,727.78	81.3293	7,727.78	76.258	7,727.78	78.4654	7,727.78	74.5764	7,727.78	76.0738	7,727.78	71.5491	7,727.78	74.3495	7,727.78	73.179	7,727.78	71.6053	7,727.78	72.9156	7,727.78	72.0009	7,727.78	75.4151	7,727.78	70.9462	7,727.78	74.8013	7,727.78	74.1093	7,727.78	61.4941	7,727.78	75.0079	7,727.78	63.418
8,000.24	92.7431	8,000.24	92.1481	8,000.24	92.8756	8,000.24	92.5202	8,000.24	92.4247	8,000.24	92.5581	8,000.24	92.3891	8,000.24	90.8447	8,000.24	92.107	8,000.24	88.7159	8,000.24	90.9166	8,000.24	86.6726	8,000.24	88.9572	8,000.24	84.0465	8,000.24	86.7511	8,000.24	81.1631	8,000.24	83.6971	8,000.24	78.1123	8,000.24	80.8874	8,000.24	76.7225	8,000.24	77.6595	8,000.24	75.0455	8,000.24	75.2167	8,000.24	70.1763	8,000.24	74.5238	8,000.24	70.4126	8,000.24	71.2396	8,000.24	70.8073	8,000.24	71.5365	8,000.24	74.3707	8,000.24	71.177	8,000.24	73.1025	8,000.24	73.0977	8,000.24	62.6616	8,000.24	72.8928	8,000.24	61.9528
8,282.23	93.2042	8,282.23	92.5256	8,282.23	93.3605	8,282.23	92.7779	8,282.23	92.8158	8,282.23	92.5257	8,282.23	92.8387	8,282.23	91.0628	8,282.23	92.3159	8,282.23	89.0698	8,282.23	91.0851	8,282.23	86.4425	8,282.23	89.1761	8,282.23	83.6288	8,282.23	87.0548	8,282.23	81.0724	8,282.23	83.6568	8,282.23	78.2596	8,282.23	80.8152	8,282.23	74.8609	8,282.23	78.2508	8,282.23	73.6854	8,282.23	75.6103	8,282.23	70.9928	8,282.23	73.5205	8,282.23	71.1187	8,282.23	71.6983	8,282.23	70.4384	8,282.23	71.0598	8,282.23	74.0488	8,282.23	71.6511	8,282.23	72.7445	8,282.23	73.5631	8,282.23	57.7559	8,282.23	72.4202	8,282.23	61.2557
8,574.46	93.1155	8,574.46	92.6472	8,574.46	93.1526	8,574.46	92.7286	8,574.46	92.9922	8,574.46	92.3447	8,574.46	92.988	8,574.46	91.0824	8,574.46	92.5652	8,574.46	89.5556	8,574.46	91.3797	8,574.46	87.669	8,574.46	90.196	8,574.46	84.9666	8,574.46	87.8349	8,574.46	81.7241	8,574.46	84.5062	8,574.46	78.7966	8,574.46	81.4926	8,574.46	75.5481	8,574.46	78.8433	8,574.46	74.116	8,574.46	76.1692	8,574.46	71.4694	8,574.46	73.4679	8,574.46	72.4049	8,574.46	73.8508	8,574.46	70.9676	8,574.46	70.6371	8,574.46	74.2787	8,574.46	72.84	8,574.46	73.6454	8,574.46	73.4656	8,574.46	59.1416	8,574.46	73.166	8,574.46	59.9013
8,876.22	92.9376	8,876.22	92.4937	8,876.22	93.2854	8,876.22	92.7214	8,876.22	92.7239	8,876.22	91.987	8,876.22	92.6686	8,876.22	91.2083	8,876.22	92.2708	8,876.22	89.8161	8,876.22	91.4878	8,876.22	87.8083	8,876.22	90.284	8,876.22	84.1725	8,876.22	87.6977	8,876.22	81.1337	8,876.22	84.2334	8,876.22	78.1227	8,876.22	81.528	8,876.22	74.8004	8,876.22	78.3713	8,876.22	72.7884	8,876.22	76.2184	8,876.22	70.8902	8,876.22	73.6433	8,876.22	71.2977	8,876.22	72.9567	8,876.22	70.9466	8,876.22	69.9233	8,876.22	74.4153	8,876.22	72.4848	8,876.22	73.3747	8,876.22	72.5825	8,876.22	55.4478	8,876.22	72.858	8,876.22	55.846
9,189.7	92.1895	9,189.7	92.2815	9,189.7	92.2386	9,189.7	91.824	9,189.7	92.1454	9,189.7	91.321	9,189.7	91.8806	9,189.7	90.6489	9,189.7	91.1212	9,189.7	89.345	9,189.7	90.9866	9,189.7	86.5521	9,189.7	89.234	9,189.7	83.2683	9,189.7	86.1838	9,189.7	80.5324	9,189.7	83.0211	9,189.7	77.5023	9,189.7	80.5341	9,189.7	74.3362	9,189.7	77.2025	9,189.7	72.0675	9,189.7	75.4596	9,189.7	70.2535	9,189.7	73.4966	9,189.7	68.822	9,189.7	72.5797	9,189.7	69.3436	9,189.7	67.6364	9,189.7	72.5893	9,189.7	70.0597	9,189.7	72.8923	9,189.7	71.0881	9,189.7	58.6003	9,189.7	71.5848	9,189.7	58.94
9,513.43	91.3872	9,513.43	91.5704	9,513.43	91.3245	9,513.43	91.0529	9,513.43	91.5898	9,513.43	90.4865	9,513.43	91.1108	9,513.43	90.0234	9,513.43	90.4527	9,513.43	88.2386	9,513.43	90.0467	9,513.43	84.816	9,513.43	88.0084	9,513.43	81.9157	9,513.43	85.2633	9,513.43	79.5259	9,513.43	81.9078	9,513.43	76.6511	9,513.43	79.7156	9,513.43	74.232	9,513.43	76.9339	9,513.43	71.9454	9,513.43	74.99	9,513.43	69.8397	9,513.43	72.4109	9,513.43	67.8355	9,513.43	72.1862	9,513.43	68.0078	9,513.43	66.7692	9,513.43	70.8744	9,513.43	68.9337	9,513.43	71.1725	9,513.43	70.896	9,513.43	51.105	9,513.43	69.5846	9,513.43	59.4719
9,848.88	91.3072	9,848.88	91.5726	9,848.88	91.2053	9,848.88	90.798	9,848.88	91.6153	9,848.88	90.2833	9,848.88	90.9923	9,848.88	89.7543	9,848.88	90.4701	9,848.88	87.4426	9,848.88	89.695	9,848.88	84.188	9,848.88	87.8209	9,848.88	81.0308	9,848.88	85.1271	9,848.88	78.2758	9,848.88	81.6436	9,848.88	75.5151	9,848.88	79.1995	9,848.88	73.0437	9,848.88	76.4625	9,848.88	70.8782	9,848.88	74.237	9,848.88	68.924	9,848.88	70.9733	9,848.88	67.7474	9,848.88	71.1609	9,848.88	67.3691	9,848.88	67.6981	9,848.88	70.0913	9,848.88	69.4356	9,848.88	69.7752	9,848.88	71.3597	9,848.88	48.1669	9,848.88	69.6326	9,848.88	56.1896
10,196.8	91.5112	10,196.8	91.6535	10,196.8	91.5322	10,196.8	90.7911	10,196.8	91.6372	10,196.8	90.6748	10,196.8	91.1417	10,196.8	90.1466	10,196.8	90.8806	10,196.8	87.6262	10,196.8	90.0791	10,196.8	84.6909	10,196.8	88.0887	10,196.8	81.7022	10,196.8	85.4191	10,196.8	78.6582	10,196.8	81.6768	10,196.8	74.7559	10,196.8	79.1977	10,196.8	72.9308	10,196.8	75.4299	10,196.8	70.4419	10,196.8	72.4961	10,196.8	68.9297	10,196.8	69.3935	10,196.8	66.5224	10,196.8	69.8239	10,196.8	66.7672	10,196.8	65.4968	10,196.8	70.0842	10,196.8	69.0363	10,196.8	69.914	10,196.8	70.1784	10,196.8	55.0408	10,196.8	69.7013	10,196.8	59.575
10,556.4	92.1619	10,556.4	92.4694	10,556.4	92.1257	10,556.4	91.5407	10,556.4	92.427	10,556.4	91.6912	10,556.4	91.9477	10,556.4	90.7197	10,556.4	91.6987	10,556.4	88.6684	10,556.4	90.9518	10,556.4	86.2179	10,556.4	89.0376	10,556.4	83.8938	10,556.4	86.5709	10,556.4	80.5975	10,556.4	82.9528	10,556.4	76.1998	10,556.4	80.0617	10,556.4	74.3388	10,556.4	76.0275	10,556.4	70.8195	10,556.4	73.6975	10,556.4	69.9306	10,556.4	71.5354	10,556.4	66.1239	10,556.4	70.4302	10,556.4	67.1473	10,556.4	64.299	10,556.4	71.007	10,556.4	69.9404	10,556.4	71.3481	10,556.4	69.4805	10,556.4	57.7037	10,556.4	70.2916	10,556.4	62.3321
10,928.5	92.7828	10,928.5	93.0329	10,928.5	92.6422	10,928.5	91.9778	10,928.5	93.1344	10,928.5	92.2586	10,928.5	92.5145	10,928.5	91.1488	10,928.5	92.1252	10,928.5	89.3312	10,928.5	91.0987	10,928.5	86.8237	10,928.5	89.6334	10,928.5	84.1924	10,928.5	87.3954	10,928.5	80.5485	10,928.5	83.3453	10,928.5	77.0632	10,928.5	80.0362	10,928.5	74.5684	10,928.5	77.3914	10,928.5	71.0229	10,928.5	74.4146	10,928.5	69.5819	10,928.5	73.4493	10,928.5	66.709	10,928.5	71.6286	10,928.5	67.7341	10,928.5	65.6191	10,928.5	70.6217	10,928.5	70.5941	10,928.5	71.8924	10,928.5	69.8436	10,928.5	56.9882	10,928.5	69.2954	10,928.5	62.9762
11,313.7	93.1574	11,313.7	93.2651	11,313.7	92.9269	11,313.7	92.5519	11,313.7	93.0658	11,313.7	92.5996	11,313.7	92.7322	11,313.7	91.3414	11,313.7	92.3654	11,313.7	89.5726	11,313.7	91.2984	11,313.7	87.2545	11,313.7	90.0494	11,313.7	83.2986	11,313.7	87.6726	11,313.7	80.0693	11,313.7	83.2923	11,313.7	76.9442	11,313.7	80.664	11,313.7	74.7936	11,313.7	78.273	11,313.7	71.5477	11,313.7	74.6777	11,313.7	71.3135	11,313.7	73.6514	11,313.7	66.5475	11,313.7	71.5173	11,313.7	68.8976	11,313.7	68.5354	11,313.7	70.3274	11,313.7	70.3757	11,313.7	71.3396	11,313.7	70.014	11,313.7	55.0376	11,313.7	68.8149	11,313.7	60.5787
11,712.9	93.2681	11,712.9	93.1163	11,712.9	93.5775	11,712.9	93.2941	11,712.9	93.3303	11,712.9	93.0864	11,712.9	93.3639	11,712.9	91.4948	11,712.9	92.6756	11,712.9	90.1531	11,712.9	92.0058	11,712.9	87.5704	11,712.9	90.4378	11,712.9	83.9597	11,712.9	87.5509	11,712.9	81.1924	11,712.9	83.605	11,712.9	76.2144	11,712.9	81.1823	11,712.9	74.6232	11,712.9	78.0869	11,712.9	72.0145	11,712.9	74.3988	11,712.9	70.4266	11,712.9	74.7986	11,712.9	67.1508	11,712.9	71.2175	11,712.9	68.7286	11,712.9	67.6272	11,712.9	70.0198	11,712.9	70.8324	11,712.9	71.683	11,712.9	68.9566	11,712.9	56.8002	11,712.9	69.151	11,712.9	59.7208
12,126	93.3446	12,126	93.3312	12,126	93.588	12,126	93.5302	12,126	93.5107	12,126	92.9281	12,126	93.652	12,126	91.8655	12,126	92.8423	12,126	90.5066	12,126	92.215	12,126	87.6537	12,126	90.0857	12,126	84.7627	12,126	87.3557	12,126	81.3907	12,126	83.7168	12,126	77.9618	12,126	80.498	12,126	75.6214	12,126	78.6495	12,126	72.2792	12,126	73.8237	12,126	70.6092	12,126	74.4068	12,126	67.0204	12,126	72.013	12,126	68.297	12,126	67.6508	12,126	70.04	12,126	71.2878	12,126	71.1783	12,126	68.9381	12,126	53.5511	12,126	65.7592	12,126	61.6345
12,553.7	93.2197	12,553.7	93.243	12,553.7	93.4187	12,553.7	93.3286	12,553.7	93.497	12,553.7	92.4238	12,553.7	93.9797	12,553.7	91.7475	12,553.7	93.0211	12,553.7	89.7854	12,553.7	92.4068	12,553.7	86.9494	12,553.7	90.3449	12,553.7	83.1146	12,553.7	88.2522	12,553.7	79.6723	12,553.7	84.7061	12,553.7	77.4867	12,553.7	81.3188	12,553.7	74.1556	12,553.7	78.7765	12,553.7	71.568	12,553.7	74.4521	12,553.7	70.3964	12,553.7	73.9342	12,553.7	67.3916	12,553.7	71.4139	12,553.7	66.3132	12,553.7	68.352	12,553.7	67.6663	12,553.7	70.4371	12,553.7	69.8354	12,553.7	68.1464	12,553.7	57.6755	12,553.7	66.9928	12,553.7	59.552
12,996.1	92.5808	12,996.1	92.1933	12,996.1	92.9835	12,996.1	92.2194	12,996.1	92.999	12,996.1	90.9658	12,996.1	93.5992	12,996.1	90.7954	12,996.1	92.673	12,996.1	88.1062	12,996.1	92.2697	12,996.1	86.0025	12,996.1	90.0947	12,996.1	81.9655	12,996.1	87.9933	12,996.1	79.4824	12,996.1	84.8338	12,996.1	76.0878	12,996.1	81.1717	12,996.1	72.8781	12,996.1	78.5469	12,996.1	70.5857	12,996.1	74.7384	12,996.1	69.7248	12,996.1	73.5017	12,996.1	66.7452	12,996.1	69.6074	12,996.1	66.0725	12,996.1	68.6214	12,996.1	63.9638	12,996.1	69.7419	12,996.1	66.9753	12,996.1	65.1575	12,996.1	54.7979	12,996.1	66.5784	12,996.1	55.8838
13,454.6	91.2366	13,454.6	91.0426	13,454.6	91.5921	13,454.6	90.6161	13,454.6	91.4817	13,454.6	89.8161	13,454.6	92.0625	13,454.6	88.8875	13,454.6	91.1765	13,454.6	86.4361	13,454.6	90.7368	13,454.6	84.3639	13,454.6	88.2651	13,454.6	81.9417	13,454.6	86.4192	13,454.6	77.9479	13,454.6	83.0566	13,454.6	74.798	13,454.6	79.7471	13,454.6	70.8292	13,454.6	76.8307	13,454.6	68.8544	13,454.6	73.3074	13,454.6	67.4576	13,454.6	72.3116	13,454.6	65.9712	13,454.6	68.3283	13,454.6	65.063	13,454.6	66.1226	13,454.6	61.9027	13,454.6	66.6816	13,454.6	65.7135	13,454.6	64.3833	13,454.6	54.8603	13,454.6	65.4677	13,454.6	54.4009
13,928.5	92.361	13,928.5	92.3215	13,928.5	92.2258	13,928.5	91.5381	13,928.5	92.3109	13,928.5	91.0194	13,928.5	92.2641	13,928.5	89.52	13,928.5	91.2835	13,928.5	87.5325	13,928.5	90.5934	13,928.5	85.5639	13,928.5	88.3796	13,928.5	82.3098	13,928.5	86.5291	13,928.5	78.3285	13,928.5	82.6894	13,928.5	75.6	13,928.5	79.0081	13,928.5	71.6527	13,928.5	75.7768	13,928.5	70.3552	13,928.5	72.8873	13,928.5	67.6445	13,928.5	71.5325	13,928.5	66.3172	13,928.5	68.0329	13,928.5	64.7407	13,928.5	64.6122	13,928.5	63.5865	13,928.5	66.2026	13,928.5	66.9202	13,928.5	66.4941	13,928.5	57.3851	13,928.5	64.8725	13,928.5	54.7519
14,419.9	93.2688	14,419.9	92.8964	14,419.9	92.939	14,419.9	92.4956	14,419.9	92.5091	14,419.9	91.8421	14,419.9	91.782	14,419.9	90.5253	14,419.9	91.0003	14,419.9	88.7398	14,419.9	89.3611	14,419.9	86.3103	14,419.9	87.5464	14,419.9	82.307	14,419.9	84.7391	14,419.9	78.4406	14,419.9	80.7659	14,419.9	75.4884	14,419.9	77.6829	14,419.9	72.6313	14,419.9	73.4615	14,419.9	70.4347	14,419.9	71.1166	14,419.9	69.0687	14,419.9	69.2241	14,419.9	67.4713	14,419.9	63.7759	14,419.9	64.2461	14,419.9	59.9627	14,419.9	62.5508	14,419.9	64.7229	14,419.9	67.4495	14,419.9	64.3799	14,419.9	58.2757	14,419.9	62.1988	14,419.9	54.3129
14,928.2	93.3691	14,928.2	92.907	14,928.2	93.5731	14,928.2	92.3527	14,928.2	93.3041	14,928.2	91.7145	14,928.2	92.9883	14,928.2	89.7655	14,928.2	91.9737	14,928.2	88.1372	14,928.2	90.6802	14,928.2	84.4069	14,928.2	88.4486	14,928.2	82.1034	14,928.2	85.8767	14,928.2	78.2641	14,928.2	82.4903	14,928.2	74.5086	14,928.2	78.9904	14,928.2	72.0336	14,928.2	74.5725	14,928.2	69.2512	14,928.2	72.4238	14,928.2	68.4729	14,928.2	70.8016	14,928.2	65.801	14,928.2	62.9892	14,928.2	59.4814	14,928.2	61.6088	14,928.2	61.678	14,928.2	62.2574	14,928.2	66.8039	14,928.2	65.6347	14,928.2	57.1352	14,928.2	62.0406	14,928.2	53.0295
15,454.8	92.9551	15,454.8	92.0248	15,454.8	93.0894	15,454.8	91.0607	15,454.8	93.1187	15,454.8	89.6498	15,454.8	92.9452	15,454.8	87.9863	15,454.8	92.0481	15,454.8	85.6947	15,454.8	91.0544	15,454.8	82.6995	15,454.8	88.5767	15,454.8	79.9275	15,454.8	86.4007	15,454.8	76.211	15,454.8	82.9114	15,454.8	71.3291	15,454.8	78.7962	15,454.8	69.2594	15,454.8	74.1668	15,454.8	67.1397	15,454.8	72.5866	15,454.8	66.3461	15,454.8	71.5274	15,454.8	63.2796	15,454.8	65.5562	15,454.8	58.862	15,454.8	64.2316	15,454.8	62.7433	15,454.8	62.4699	15,454.8	65.7746	15,454.8	65.6835	15,454.8	56.8054	15,454.8	62.463	15,454.8	45.984
15,999.8	91.3049	15,999.8	90.1821	15,999.8	91.7288	15,999.8	89.4646	15,999.8	91.5027	15,999.8	87.6805	15,999.8	91.6157	15,999.8	86.369	15,999.8	90.9458	15,999.8	82.7381	15,999.8	89.746	15,999.8	80.4412	15,999.8	87.1777	15,999.8	77.5434	15,999.8	85.0887	15,999.8	73.1103	15,999.8	81.0749	15,999.8	69.3743	15,999.8	77.1758	15,999.8	67.1468	15,999.8	72.3896	15,999.8	65.7506	15,999.8	71.722	15,999.8	63.0768	15,999.8	69.1928	15,999.8	58.989	15,999.8	61.9878	15,999.8	57.8404	15,999.8	62.4299	15,999.8	61.0539	15,999.8	58.0248	15,999.8	62.1195	15,999.8	60.2122	15,999.8	52.0732	15,999.8	61.3163	15,999.8	50.2229
16,564.5	90.0665	16,564.5	89.2898	16,564.5	90.3344	16,564.5	88.4511	16,564.5	90.0403	16,564.5	87.3759	16,564.5	89.9793	16,564.5	85.089	16,564.5	88.8855	16,564.5	82.8558	16,564.5	87.7443	16,564.5	79.8892	16,564.5	84.953	16,564.5	77.2688	16,564.5	82.8109	16,564.5	73.2576	16,564.5	78.5315	16,564.5	70.2754	16,564.5	74.0168	16,564.5	66.073	16,564.5	69.976	16,564.5	65.8276	16,564.5	68.8397	16,564.5	63.1153	16,564.5	67.0001	16,564.5	58.2933	16,564.5	56.2634	16,564.5	56.9918	16,564.5	57.4648	16,564.5	59.5533	16,564.5	57.2251	16,564.5	62.4608	16,564.5	61.4523	16,564.5	56.8708	16,564.5	62.4133	16,564.5	51.7044
17,148.2	89.9166	17,148.2	89.3652	17,148.2	89.8005	17,148.2	88.9008	17,148.2	89.1236	17,148.2	87.6353	17,148.2	88.7558	17,148.2	85.4831	17,148.2	87.4453	17,148.2	83.4999	17,148.2	86.0317	17,148.2	80.4891	17,148.2	83.0925	17,148.2	78.1376	17,148.2	80.4197	17,148.2	73.8846	17,148.2	76.0363	17,148.2	70.6236	17,148.2	72.7554	17,148.2	66.6867	17,148.2	67.0727	17,148.2	64.7145	17,148.2	66.9506	17,148.2	59.7095	17,148.2	64.5474	17,148.2	58.045	17,148.2	49.8296	17,148.2	56.2541	17,148.2	53.9554	17,148.2	57.3684	17,148.2	56.6493	17,148.2	58.4866	17,148.2	60.2357	17,148.2	49.2852	17,148.2	59.6787	17,148.2	54.2565
17,753.2	91.1798	17,753.2	90.7678	17,753.2	90.8682	17,753.2	90.5851	17,753.2	89.7544	17,753.2	89.4532	17,753.2	88.7572	17,753.2	87.8072	17,753.2	86.9824	17,753.2	85.9678	17,753.2	84.9976	17,753.2	83.279	17,753.2	82.4539	17,753.2	80.4486	17,753.2	79.0306	17,753.2	75.8212	17,753.2	76.6392	17,753.2	71.3775	17,753.2	72.2639	17,753.2	68.6476	17,753.2	65.2543	17,753.2	66.8067	17,753.2	66.6993	17,753.2	63.7896	17,753.2	63.8592	17,753.2	58.2757	17,753.2	54.9831	17,753.2	55.7356	17,753.2	37.8869	17,753.2	57.9894	17,753.2	55.1493	17,753.2	59.6431	17,753.2	60.5891	17,753.2	50.7854	17,753.2	62.5729	17,753.2	57.2381
18,379.4	92.6813	18,379.4	92.3107	18,379.4	91.9993	18,379.4	92.2266	18,379.4	91.11	18,379.4	91.4741	18,379.4	89.9098	18,379.4	89.9352	18,379.4	88.021	18,379.4	87.8452	18,379.4	85.7334	18,379.4	84.8444	18,379.4	82.5387	18,379.4	81.8007	18,379.4	79.6507	18,379.4	77.6154	18,379.4	76.5234	18,379.4	72.8111	18,379.4	71.8726	18,379.4	71.2386	18,379.4	68.1715	18,379.4	68.5435	18,379.4	67.2331	18,379.4	65.0607	18,379.4	62.9684	18,379.4	62.0352	18,379.4	59.6185	18,379.4	58.72	18,379.4	59.3987	18,379.4	55.2135	18,379.4	51.7818	18,379.4	61.707	18,379.4	57.0433	18,379.4	55.675	18,379.4	61.9758	18,379.4	61.019
19,027.6	92.8065	19,027.6	92.0314	19,027.6	92.089	19,027.6	91.9925	19,027.6	91.2237	19,027.6	91.0301	19,027.6	90.2879	19,027.6	89.6192	19,027.6	88.4919	19,027.6	87.311	19,027.6	86.2297	19,027.6	84.2979	19,027.6	83.2801	19,027.6	81.2386	19,027.6	80.8347	19,027.6	77.1456	19,027.6	77.6464	19,027.6	72.4224	19,027.6	74.15	19,027.6	71.1489	19,027.6	67.4125	19,027.6	67.325	19,027.6	69.5024	19,027.6	64.1637	19,027.6	59.8426	19,027.6	64.0181	19,027.6	56.5997	19,027.6	61.2738	19,027.6	61.2282	19,027.6	51.3714	19,027.6	52.8143	19,027.6	63.5143	19,027.6	56.4231	19,027.6	62.0742	19,027.6	63.7269	19,027.6	63.3811
19,698.5	91.3702	19,698.5	90.0161	19,698.5	90.7945	19,698.5	89.3844	19,698.5	90.6502	19,698.5	87.9249	19,698.5	90.3509	19,698.5	86.313	19,698.5	88.5483	19,698.5	83.8529	19,698.5	86.6396	19,698.5	80.056	19,698.5	84.1174	19,698.5	77.3226	19,698.5	81.0191	19,698.5	72.9348	19,698.5	78.6686	19,698.5	65.9193	19,698.5	73.8858	19,698.5	66.0716	19,698.5	64.9076	19,698.5	60.3542	19,698.5	68.5636	19,698.5	58.0322	19,698.5	57.8963	19,698.5	60.7355	19,698.5	60.9993	19,698.5	60.9584	19,698.5	63.1825	19,698.5	57.553	19,698.5	50.7713	19,698.5	60.2295	19,698.5	58.7612	19,698.5	64.4724	19,698.5	65.0711	19,698.5	62.8083
19,999.5	90.2155	19,999.5	88.916	19,999.5	89.5818	19,999.5	87.8328	19,999.5	89.6763	19,999.5	86.0012	19,999.5	89.4218	19,999.5	84.1963	19,999.5	87.5427	19,999.5	81.287	19,999.5	85.6853	19,999.5	77.8831	19,999.5	83.4362	19,999.5	74.8927	19,999.5	79.2768	19,999.5	69.313	19,999.5	77.0502	19,999.5	64.5893	19,999.5	72.7449	19,999.5	63.4502	19,999.5	57.4433	19,999.5	55.3678	19,999.5	68.0864	19,999.5	57.1324	19,999.5	56.6645	19,999.5	60.084	19,999.5	62.1287	19,999.5	63.2943	19,999.5	61.7057	19,999.5	60.9167	19,999.5	36.5625	19,999.5	55.6011	19,999.5	56.8707	19,999.5	62.9247	19,999.5	64.3885	19,999.5	64.1413
