"Horizontal Reflections"							
"Front"		"Side"		"Rear"		"Total Horizontal Reflection"	
"Frequency [Hz]"	"Sound Pessure Level [dB]  / [2.83V 1m] "	"Frequency [Hz]"	"Sound Pessure Level [dB]  / [2.83V 1m] "	"Frequency [Hz]"	"Sound Pessure Level [dB]  / [2.83V 1m] "	"Frequency [Hz]"	"Sound Pessure Level [dB]  / [2.83V 1m] "
20.5078	57.0914	20.5078	57.2717	20.5078	57.7849	20.5078	57.5177
21.2402	53.1816	21.2402	53.0736	21.2402	52.9406	21.2402	53.0255
21.9727	49.5869	21.9727	49.2341	21.9727	48.3225	21.9727	48.8556
22.7051	48.3212	22.7051	47.6993	22.7051	45.8401	22.7051	46.9737
23.4375	47.2257	23.4375	46.4329	23.4375	43.6577	23.4375	45.4077
24.1699	48.5071	24.1699	47.7678	24.1699	45.3282	24.1699	46.8487
25.6348	52.8139	25.6348	52.4454	25.6348	51.3096	25.6348	51.9674
26.3672	54.0586	26.3672	53.7397	26.3672	52.8894	26.3672	53.3821
27.0996	56.1278	27.0996	55.9388	27.0996	55.4598	27.0996	55.7321
27.832	56.8117	27.832	56.6713	27.832	56.3036	27.832	56.51
29.2969	59.1959	29.2969	59.0105	29.2969	58.5068	29.2969	58.7909
30.0293	60.3944	30.0293	60.2018	30.0293	59.6992	30.0293	59.9842
31.4941	63.2424	31.4941	63.1324	31.4941	62.872	31.4941	63.0192
32.2266	63.9094	32.2266	63.7652	32.2266	63.4184	32.2266	63.6152
33.6914	66.3608	33.6914	66.247	33.6914	65.9626	33.6914	66.1223
34.4238	67.3984	34.4238	67.2952	34.4238	67.0471	34.4238	67.1869
35.8887	69.2584	35.8887	69.149	35.8887	68.8924	35.8887	69.0376
37.3535	70.9866	37.3535	70.8719	37.3535	70.6004	37.3535	70.754
38.8184	72.6444	38.8184	72.5317	38.8184	72.2788	38.8184	72.4229
39.5508	73.4074	39.5508	73.2851	39.5508	73.0085	39.5508	73.1662
41.0156	74.9865	41.0156	74.8672	41.0156	74.5921	41.0156	74.7484
42.4805	76.233	42.4805	76.1073	42.4805	75.823	42.4805	75.9852
43.9453	77.424	43.9453	77.2936	43.9453	77.0007	43.9453	77.1681
45.4102	78.4033	45.4102	78.2675	45.4102	77.9585	45.4102	78.1349
47.6074	79.5566	47.6074	79.4229	47.6074	79.126	47.6074	79.296
49.0723	80.0884	49.0723	79.9497	49.0723	79.6487	49.0723	79.8218
50.5371	80.4724	50.5371	80.3252	50.5371	80.0019	50.5371	80.1877
52.7344	80.8533	52.7344	80.7085	52.7344	80.3976	52.7344	80.5768
54.1992	81.0084	54.1992	80.8605	54.1992	80.5489	54.1992	80.7291
56.3965	81.2075	56.3965	81.0608	56.3965	80.7647	56.3965	80.937
58.5938	81.1944	58.5938	81.036	58.5938	80.7318	58.5938	80.9105
60.0586	81.3264	60.0586	81.1465	60.0586	80.7771	60.0586	80.9926
62.2559	81.5619	62.2559	81.3936	62.2559	81.0554	62.2559	81.253
64.4531	81.5648	64.4531	81.3958	64.4531	81.0667	64.4531	81.26
66.6504	81.7244	66.6504	81.55	66.6504	81.2163	66.6504	81.413
69.5801	81.8429	69.5801	81.6498	69.5801	81.2693	69.5801	81.4931
71.7773	82.0206	71.7773	81.8378	71.7773	81.4852	71.7773	81.6929
73.9746	82.0762	73.9746	81.8959	73.9746	81.5638	73.9746	81.7609
76.9043	82.2966	76.9043	82.1092	76.9043	81.772	76.9043	81.9731
79.834	82.3862	79.834	82.2109	79.834	81.9325	79.834	82.102
82.7637	82.6903	82.7637	82.4836	82.7637	82.1519	82.7637	82.3543
85.6934	82.922	85.6934	82.6804	85.6934	82.2375	85.6934	82.5029
88.623	83.0323	88.623	82.8415	88.623	82.4495	88.623	82.6786
91.5527	82.8893	91.5527	82.7452	91.5527	82.6251	91.5527	82.711
94.4824	83.3544	94.4824	83.1165	94.4824	82.8157	94.4824	83.0094
98.1445	83.52	98.1445	83.279	98.1445	82.8572	98.1445	83.1119
101.807	83.6837	101.807	83.4603	101.807	83.1337	101.807	83.3371
105.469	83.8413	105.469	83.6051	105.469	83.3111	105.469	83.501
109.131	84.1621	109.131	83.8986	109.131	83.5278	109.131	83.7617
112.793	84.3212	112.793	84.0601	112.793	83.6955	112.793	83.9258
116.455	84.4321	116.455	84.1729	116.455	83.8394	116.455	84.0537
120.85	84.6296	120.85	84.3522	120.85	84.0446	120.85	84.25
125.244	84.7579	125.244	84.4551	125.244	84.1275	125.244	84.3482
129.639	84.9072	129.639	84.5865	129.639	84.2104	129.639	84.4592
134.033	85.0085	134.033	84.6752	134.033	84.2985	134.033	84.5504
138.428	85.1212	138.428	84.7743	138.428	84.3996	138.428	84.6534
143.555	85.2219	143.555	84.8384	143.555	84.4295	143.555	84.7085
148.682	85.3241	148.682	84.9091	148.682	84.4524	148.682	84.7625
153.809	85.4947	153.809	85.0586	153.809	84.5019	153.809	84.8679
159.668	85.5503	159.668	85.1127	159.668	84.6368	159.668	84.9617
164.795	85.6608	164.795	85.2016	164.795	84.6765	164.795	85.0314
170.654	85.6064	170.654	85.1347	170.654	84.6759	170.654	84.9997
176.514	85.6027	176.514	85.0833	176.514	84.6004	176.514	84.9473
183.105	85.5889	183.105	85.0232	183.105	84.4401	183.105	84.8493
189.697	85.6907	189.697	85.0969	189.697	84.3989	189.697	84.8747
196.289	85.7191	196.289	85.1052	196.289	84.4842	196.289	84.9243
202.881	85.7279	202.881	85.0564	202.881	84.408	202.881	84.876
210.205	85.7526	210.205	85.0404	210.205	84.2792	210.205	84.8167
217.529	85.6251	217.529	84.8974	217.529	84.2445	217.529	84.7282
225.586	85.7642	225.586	84.9144	225.586	84.0702	225.586	84.6861
232.91	85.8392	232.91	84.9585	232.91	83.9504	232.91	84.6638
241.699	85.6989	241.699	84.8206	241.699	83.692	241.699	84.4716
249.756	85.8207	249.756	84.8524	249.756	83.5412	249.756	84.4477
258.545	85.8365	258.545	84.9197	258.545	83.5456	258.545	84.4744
268.066	85.5329	268.066	84.6098	268.066	83.1721	268.066	84.1392
277.588	85.6407	277.588	84.6449	277.588	83.2914	277.588	84.2295
287.109	85.6245	287.109	84.6332	287.109	83.2149	287.109	84.1892
297.363	85.6025	297.363	84.5572	297.363	82.8705	297.363	84.0171
307.617	85.5926	307.617	84.4937	307.617	83.054	307.617	84.0701
318.604	85.7761	318.604	84.5026	318.604	82.5344	318.604	83.9174
329.59	85.4671	329.59	84.3747	329.59	82.5669	329.59	83.7993
341.309	85.2854	341.309	84.018	341.309	82.3713	341.309	83.5573
353.76	85.5404	353.76	84.2015	353.76	81.9989	353.76	83.5478
366.211	85.7523	366.211	84.5346	366.211	81.8205	366.211	83.6603
378.662	85.6213	378.662	84.4986	378.662	82.2531	378.662	83.7635
392.578	85.2079	392.578	84.0533	392.578	81.7831	392.578	83.3186
405.762	85.2208	405.762	83.9171	405.762	81.558	405.762	83.1953
420.41	85.2738	420.41	84.3195	420.41	81.2848	420.41	83.2539
435.059	85.1339	435.059	83.9991	435.059	81.403	435.059	83.1404
450.439	85.0383	450.439	84.049	450.439	81.0164	450.439	82.995
466.553	84.8205	466.553	83.8935	466.553	81.0499	466.553	82.8846
482.666	84.8676	482.666	83.5699	482.666	80.6063	482.666	82.6369
500.244	86.1908	500.244	83.8481	500.244	79.3122	500.244	82.8626
517.822	85.8648	517.822	84.0637	517.822	79.2787	517.822	82.7999
536.133	85.7936	536.133	84.0009	536.133	78.8129	536.133	82.6425
554.443	85.5389	554.443	84.481	554.443	78.2212	554.443	82.615
574.219	84.9791	574.219	84.5406	574.219	79.0248	574.219	82.6098
594.727	83.5468	594.727	83.1351	594.727	79.2351	594.727	81.6266
615.234	84.4542	615.234	82.9763	615.234	80.1003	615.234	82.1315
637.207	85.275	637.207	83.062	637.207	79.6508	637.207	82.3154
659.912	85.1966	659.912	83.2268	659.912	79.7315	659.912	82.364
683.35	86.3034	683.35	83.9564	683.35	80.5422	683.35	83.261
706.787	87.3098	706.787	84.7976	706.787	81.0831	706.787	84.0863
731.689	87.5048	731.689	84.8268	731.689	80.9459	731.689	84.1413
758.057	87.2714	758.057	84.3835	758.057	80.7756	758.057	83.8569
784.424	87.3854	784.424	84.1539	784.424	79.7959	784.424	83.6011
812.256	87.1098	812.256	84.0041	812.256	79.2388	812.256	83.3058
840.82	86.9876	840.82	83.7389	840.82	78.5105	840.82	83.0175
870.85	86.884	870.85	83.9492	870.85	78.2634	870.85	82.9935
901.611	87.243	901.611	84.4353	901.611	78.5326	901.611	83.3813
933.105	87.7443	933.105	84.8573	933.105	79.2162	933.105	83.887
966.064	87.5321	966.064	84.9585	966.064	78.4335	966.064	83.6914
999.756	86.9021	999.756	84.4557	999.756	77.9199	999.756	83.1274
1,034.91	86.231	1,034.91	83.7618	1,034.91	77.372	1,034.91	82.4676
1,071.53	85.3903	1,071.53	82.4502	1,071.53	76.1349	1,071.53	81.3918
1,109.62	84.178	1,109.62	80.6968	1,109.62	74.0928	1,109.62	79.8696
1,148.44	82.823	1,148.44	78.9451	1,148.44	72.7829	1,148.44	78.3918
1,189.45	86.2782	1,189.45	81.9051	1,189.45	74.9711	1,189.45	81.5285
1,231.2	87.057	1,231.2	83.9859	1,231.2	77.0407	1,231.2	82.9001
1,274.41	86.8394	1,274.41	83.3796	1,274.41	77.0285	1,274.41	82.5774
1,319.82	86.3199	1,319.82	82.5644	1,319.82	76.3068	1,319.82	81.9315
1,365.97	85.7046	1,365.97	81.7122	1,365.97	75.72	1,365.97	81.2458
1,414.31	85.6552	1,414.31	81.3391	1,414.31	75.053	1,414.31	81.0108
1,464.11	85.2027	1,464.11	80.8935	1,464.11	74.119	1,464.11	80.4989
1,515.38	83.8254	1,515.38	79.1845	1,515.38	72.7689	1,515.38	79.0268
1,568.85	83.2623	1,568.85	79.0791	1,568.85	71.8319	1,568.85	78.557
1,624.51	82.7983	1,624.51	78.3503	1,624.51	71.5067	1,624.51	78.0279
1,681.64	83.0108	1,681.64	78.1435	1,681.64	71.2095	1,681.64	78.0605
1,740.97	83.8263	1,740.97	78.9445	1,740.97	71.0939	1,740.97	78.7796
1,802.49	84.2736	1,802.49	79.3264	1,802.49	71.5744	1,802.49	79.2111
1,866.21	84.233	1,866.21	79.0078	1,866.21	71.0658	1,866.21	79.0517
1,932.13	83.7771	1,932.13	78.8129	1,932.13	70.5215	1,932.13	78.6619
2,000.24	84.5121	2,000.24	79.3782	2,000.24	71.6455	2,000.24	79.382
2,070.56	84.6991	2,070.56	79.7983	2,070.56	70.7835	2,070.56	79.5526
2,143.8	83.8494	2,143.8	78.9467	2,143.8	70.8104	2,143.8	78.7699
2,219.24	83.2591	2,219.24	78.6917	2,219.24	70.4074	2,219.24	78.2951
2,297.61	84.2157	2,297.61	79.2222	2,297.61	70.4353	2,297.61	79.0518
2,378.17	84.5228	2,378.17	79.655	2,378.17	70.7024	2,378.17	79.3928
2,462.4	83.9108	2,462.4	79.5518	2,462.4	70.1162	2,462.4	78.939
2,548.83	84.1906	2,548.83	79.7088	2,548.83	69.4408	2,548.83	79.1195
2,638.92	84.2367	2,638.92	79.5606	2,638.92	68.9602	2,638.92	79.0761
2,731.93	84.3364	2,731.93	80.0507	2,731.93	69.1343	2,731.93	79.3046
2,828.61	84.7261	2,828.61	80.4822	2,828.61	69.3061	2,828.61	79.6973
2,928.22	84.2557	2,928.22	80.0739	2,928.22	68.1275	2,928.22	79.2162
3,031.49	84.1365	3,031.49	79.7389	3,031.49	67.7678	3,031.49	79.0154
3,138.43	84.2484	3,138.43	79.7462	3,138.43	67.1236	3,138.43	79.0655
3,249.02	84.343	3,249.02	79.3066	3,249.02	66.3103	3,249.02	78.9648
3,363.28	84.16	3,363.28	78.6874	3,363.28	65.162	3,363.28	78.6297
3,481.93	84.3447	3,481.93	78.7104	3,481.93	64.7841	3,481.93	78.7568
3,604.98	83.6484	3,604.98	77.9058	3,604.98	63.9312	3,604.98	78.0277
3,732.42	84.0174	3,732.42	77.9056	3,732.42	63.398	3,732.42	78.2829
3,863.53	84.4965	3,863.53	78.1717	3,863.53	63.4361	3,863.53	78.7014
3,999.76	84.4887	3,999.76	77.9046	3,999.76	62.9694	3,999.76	78.6244
4,141.11	84.6871	4,141.11	77.6319	4,141.11	61.6731	4,141.11	78.6977
4,286.87	85.5039	4,286.87	77.3873	4,286.87	60.9683	4,286.87	79.2908
4,438.48	85.5604	4,438.48	77.0902	4,438.48	59.6545	4,438.48	79.2767
4,594.48	86.1746	4,594.48	76.8093	4,594.48	59.6827	4,594.48	79.7497
4,757.08	86.0678	4,757.08	76.4851	4,757.08	59.906	4,757.08	79.6147
4,924.8	86.1504	4,924.8	76.4404	4,924.8	59.6827	4,924.8	79.6786
5,098.39	86.1444	5,098.39	76.3555	5,098.39	61.0132	5,098.39	79.6706
5,277.83	85.873	5,277.83	76.8037	5,277.83	61.3285	5,277.83	79.5037
5,463.87	86.062	5,463.87	76.6762	5,463.87	61.957	5,463.87	79.6507
5,656.49	85.8497	5,656.49	76.8215	5,656.49	62.5111	5,656.49	79.4977
5,856.45	85.9	5,856.45	77.0067	5,856.45	62.752	5,856.45	79.5706
6,062.99	86.0492	6,062.99	77.2186	6,062.99	63.1627	6,062.99	79.7324
6,276.86	86.4169	6,276.86	77.6049	6,276.86	63.0779	6,276.86	80.098
6,498.05	86.225	6,498.05	78.0686	6,498.05	63.5223	6,498.05	80.0225
6,727.29	86.2014	6,727.29	78.2352	6,727.29	63.4252	6,727.29	80.0323
6,964.6	86.2464	6,964.6	78.3712	6,964.6	64.105	6,964.6	80.1021
7,209.96	85.9364	7,209.96	78.2845	7,209.96	64.0349	7,209.96	79.8378
7,464.11	85.5221	7,464.11	78.2618	7,464.11	64.2242	7,464.11	79.5112
7,727.78	84.7159	7,727.78	78.4216	7,727.78	64.6276	7,727.78	78.9454
8,000.24	84.4582	8,000.24	78.5125	8,000.24	64.3144	8,000.24	78.7751
8,282.23	84.9647	8,282.23	78.1333	8,282.23	63.0192	8,282.23	79.0375
8,574.46	86.1804	8,574.46	77.1545	8,574.46	59.4901	8,574.46	79.804
8,876.22	86.3706	8,876.22	77.0796	8,876.22	59.9628	8,876.22	79.9567
9,189.7	85.4793	9,189.7	77.806	9,189.7	60.4345	9,189.7	79.3454
9,513.43	84.9974	9,513.43	77.6801	9,513.43	59.4334	9,513.43	78.9319
9,848.88	85.5393	9,848.88	77.833	9,848.88	59.6412	9,848.88	79.3937
10,196.8	86.0275	10,196.8	78.195	10,196.8	59.0181	10,196.8	79.8522
10,556.4	85.9571	10,556.4	78.2404	10,556.4	59.278	10,556.4	79.8055
10,928.5	85.8219	10,928.5	78.4866	10,928.5	60.154	10,928.5	79.752
11,313.7	85.852	11,313.7	78.5389	11,313.7	60.1183	11,313.7	79.7864
11,712.9	85.5465	11,712.9	78.1407	11,712.9	58.6711	11,712.9	79.456
12,126	84.8439	12,126	77.4858	12,126	58.1362	12,126	78.764
12,553.7	85.2539	12,553.7	78.2095	12,553.7	59.9601	12,553.7	79.2483
12,996.1	85.8732	12,996.1	78.6363	12,996.1	60.2635	12,996.1	79.8243
13,454.6	85.6958	13,454.6	78.3505	13,454.6	59.3931	13,454.6	79.6205
13,928.5	85.1376	13,928.5	78.0745	13,928.5	59.2406	13,928.5	79.1244
14,419.9	84.7603	14,419.9	77.8765	14,419.9	59.476	14,419.9	78.7904
14,928.2	84.7446	14,928.2	77.853	14,928.2	59.2098	14,928.2	78.7714
15,454.8	84.5275	15,454.8	77.7564	15,454.8	59.4433	15,454.8	78.5844
15,999.8	83.9042	15,999.8	77.4792	15,999.8	60.1804	15,999.8	78.0531
16,564.5	83.8892	16,564.5	77.0468	16,564.5	59.8524	16,564.5	77.9376
17,148.2	83.7004	17,148.2	76.9472	17,148.2	60.0667	17,148.2	77.7725
17,753.2	83.1004	17,753.2	76.8252	17,753.2	61.4617	17,753.2	77.3091
18,379.4	82.2825	18,379.4	75.7723	18,379.4	61.0259	18,379.4	76.4395
19,027.6	81.8948	19,027.6	74.755	19,027.6	60.8642	19,027.6	75.9135
19,698.5	81.3637	19,698.5	73.8497	19,698.5	61.489	19,698.5	75.3277
19,999.5	80.8784	19,999.5	73.206	19,999.5	61.9101	19,999.5	74.8336
