"SPL Vertical"																																																																							
"On-Axis"		"10°"		"-10°"		"20°"		"-20°"		"30°"		"-30°"		"40°"		"-40°"		"50°"		"-50°"		"60°"		"-60°"		"70°"		"-70°"		"80°"		"-80°"		"90°"		"-90°"		"100°"		"-100°"		"110°"		"-110°"		"120°"		"-120°"		"130°"		"-130°"		"140°"		"-140°"		"150°"		"-150°"		"160°"		"-160°"		"170°"		"-170°"		"180°"	
"Frequency [Hz]"	"Sound Pessure Level [dB]  / [2.83V 1m] "	"Frequency [Hz]"	"Sound Pessure Level [dB]  / [2.83V 1m] "	"Frequency [Hz]"	"Sound Pessure Level [dB]  / [2.83V 1m] "	"Frequency [Hz]"	"Sound Pessure Level [dB]  / [2.83V 1m] "	"Frequency [Hz]"	"Sound Pessure Level [dB]  / [2.83V 1m] "	"Frequency [Hz]"	"Sound Pessure Level [dB]  / [2.83V 1m] "	"Frequency [Hz]"	"Sound Pessure Level [dB]  / [2.83V 1m] "	"Frequency [Hz]"	"Sound Pessure Level [dB]  / [2.83V 1m] "	"Frequency [Hz]"	"Sound Pessure Level [dB]  / [2.83V 1m] "	"Frequency [Hz]"	"Sound Pessure Level [dB]  / [2.83V 1m] "	"Frequency [Hz]"	"Sound Pessure Level [dB]  / [2.83V 1m] "	"Frequency [Hz]"	"Sound Pessure Level [dB]  / [2.83V 1m] "	"Frequency [Hz]"	"Sound Pessure Level [dB]  / [2.83V 1m] "	"Frequency [Hz]"	"Sound Pessure Level [dB]  / [2.83V 1m] "	"Frequency [Hz]"	"Sound Pessure Level [dB]  / [2.83V 1m] "	"Frequency [Hz]"	"Sound Pessure Level [dB]  / [2.83V 1m] "	"Frequency [Hz]"	"Sound Pessure Level [dB]  / [2.83V 1m] "	"Frequency [Hz]"	"Sound Pessure Level [dB]  / [2.83V 1m] "	"Frequency [Hz]"	"Sound Pessure Level [dB]  / [2.83V 1m] "	"Frequency [Hz]"	"Sound Pessure Level [dB]  / [2.83V 1m] "	"Frequency [Hz]"	"Sound Pessure Level [dB]  / [2.83V 1m] "	"Frequency [Hz]"	"Sound Pessure Level [dB]  / [2.83V 1m] "	"Frequency [Hz]"	"Sound Pessure Level [dB]  / [2.83V 1m] "	"Frequency [Hz]"	"Sound Pessure Level [dB]  / [2.83V 1m] "	"Frequency [Hz]"	"Sound Pessure Level [dB]  / [2.83V 1m] "	"Frequency [Hz]"	"Sound Pessure Level [dB]  / [2.83V 1m] "	"Frequency [Hz]"	"Sound Pessure Level [dB]  / [2.83V 1m] "	"Frequency [Hz]"	"Sound Pessure Level [dB]  / [2.83V 1m] "	"Frequency [Hz]"	"Sound Pessure Level [dB]  / [2.83V 1m] "	"Frequency [Hz]"	"Sound Pessure Level [dB]  / [2.83V 1m] "	"Frequency [Hz]"	"Sound Pessure Level [dB]  / [2.83V 1m] "	"Frequency [Hz]"	"Sound Pessure Level [dB]  / [2.83V 1m] "	"Frequency [Hz]"	"Sound Pessure Level [dB]  / [2.83V 1m] "	"Frequency [Hz]"	"Sound Pessure Level [dB]  / [2.83V 1m] "	"Frequency [Hz]"	"Sound Pessure Level [dB]  / [2.83V 1m] "	"Frequency [Hz]"	"Sound Pessure Level [dB]  / [2.83V 1m] "
20.5078	57.0692	20.5078	56.9508	20.5078	57.2067	20.5078	56.8541	20.5078	57.36	20.5078	56.7803	20.5078	57.5248	20.5078	56.7301	20.5078	57.696	20.5078	56.7032	20.5078	57.8681	20.5078	56.6989	20.5078	58.0353	20.5078	56.7159	20.5078	58.1915	20.5078	56.7532	20.5078	58.3305	20.5078	56.8095	20.5078	58.4463	20.5078	56.8838	20.5078	58.5333	20.5078	56.9752	20.5078	58.5867	20.5078	57.0831	20.5078	58.6031	20.5078	57.2068	20.5078	58.5809	20.5078	57.3451	20.5078	58.5207	20.5078	57.4963	20.5078	58.4257	20.5078	57.6578	20.5078	58.3013	20.5078	57.8253	20.5078	58.1545	20.5078	57.9932
21.2402	53.1973	21.2402	52.6015	21.2402	53.7731	21.2402	52.0042	21.2402	54.3127	21.2402	51.4263	21.2402	54.8024	21.2402	50.8903	21.2402	55.2305	21.2402	50.4194	21.2402	55.5871	21.2402	50.035	21.2402	55.8644	21.2402	49.7548	21.2402	56.0562	21.2402	49.5901	21.2402	56.1584	21.2402	49.5454	21.2402	56.1693	21.2402	49.6179	21.2402	56.0891	21.2402	49.7991	21.2402	55.9208	21.2402	50.0767	21.2402	55.6694	21.2402	50.4361	21.2402	55.3423	21.2402	50.8624	21.2402	54.9487	21.2402	51.3404	21.2402	54.4995	21.2402	51.8555	21.2402	54.0065	21.2402	52.3934	21.2402	53.4824	21.2402	52.9402
21.9727	49.6316	21.9727	48.8091	21.9727	50.3902	21.9727	47.9414	21.9727	51.07	21.9727	47.0531	21.9727	51.6596	21.9727	46.175	21.9727	52.1497	21.9727	45.3447	21.9727	52.5329	21.9727	44.6047	21.9727	52.8036	21.9727	43.9979	21.9727	52.9578	21.9727	43.5619	21.9727	52.9937	21.9727	43.322	21.9727	52.9112	21.9727	43.2875	21.9727	52.7129	21.9727	43.452	21.9727	52.4037	21.9727	43.7963	21.9727	51.9907	21.9727	44.2926	21.9727	51.4835	21.9727	44.9088	21.9727	50.8931	21.9727	45.6124	21.9727	50.2322	21.9727	46.3732	21.9727	49.5141	21.9727	47.1648	21.9727	48.7531	21.9727	47.9644
22.7051	48.3973	22.7051	47.3577	22.7051	49.3222	22.7051	46.2131	22.7051	50.126	22.7051	44.9785	22.7051	50.8037	22.7051	43.679	22.7051	51.3511	22.7051	42.3546	22.7051	51.7641	22.7051	41.0665	22.7051	52.0392	22.7051	39.8987	22.7051	52.1734	22.7051	38.9491	22.7051	52.1648	22.7051	38.307	22.7051	52.0125	22.7051	38.0267	22.7051	51.7173	22.7051	38.1167	22.7051	51.282	22.7051	38.5488	22.7051	50.7113	22.7051	39.2718	22.7051	50.0121	22.7051	40.2209	22.7051	49.1931	22.7051	41.3257	22.7051	48.2649	22.7051	42.519	22.7051	47.2398	22.7051	43.7446	22.7051	46.1321	22.7051	44.9594
23.4375	47.3196	23.4375	46.155	23.4375	48.3418	23.4375	44.853	23.4375	49.2186	23.4375	43.4237	23.4375	49.9479	23.4375	41.8867	23.4375	50.5271	23.4375	40.2781	23.4375	50.9537	23.4375	38.657	23.4375	51.2245	23.4375	37.1072	23.4375	51.3363	23.4375	35.7256	23.4375	51.2863	23.4375	34.597	23.4375	51.0719	23.4375	33.7817	23.4375	50.692	23.4375	33.3431	23.4375	50.1464	23.4375	33.3837	23.4375	49.4364	23.4375	34.0037	23.4375	48.5648	23.4375	35.1829	23.4375	47.5358	23.4375	36.7504	23.4375	46.3545	23.4375	38.4954	23.4375	45.0267	23.4375	40.2627	23.4375	43.56	23.4375	41.9652
24.1699	48.5957	24.1699	47.4868	24.1699	49.59	24.1699	46.2841	24.1699	50.4573	24.1699	45.0212	24.1699	51.1894	24.1699	43.7505	24.1699	51.7808	24.1699	42.5434	24.1699	52.2265	24.1699	41.4794	24.1699	52.5225	24.1699	40.6191	24.1699	52.665	24.1699	39.9752	24.1699	52.6507	24.1699	39.5104	24.1699	52.4768	24.1699	39.1685	24.1699	52.1417	24.1699	38.9173	24.1699	51.6447	24.1699	38.779	24.1699	50.9867	24.1699	38.8409	24.1699	50.1698	24.1699	39.2244	24.1699	49.1982	24.1699	40.0067	24.1699	48.0788	24.1699	41.1512	24.1699	46.8228	24.1699	42.529	24.1699	45.4503	24.1699	43.9974
25.6348	52.8589	25.6348	52.2619	25.6348	53.4468	25.6348	51.6836	25.6348	53.9998	25.6348	51.1507	25.6348	54.4951	25.6348	50.6845	25.6348	54.914	25.6348	50.2976	25.6348	55.2414	25.6348	49.9917	25.6348	55.4655	25.6348	49.7593	25.6348	55.5778	25.6348	49.5875	25.6348	55.573	25.6348	49.4629	25.6348	55.449	25.6348	49.3757	25.6348	55.2076	25.6348	49.3224	25.6348	54.8543	25.6348	49.3072	25.6348	54.3998	25.6348	49.3409	25.6348	53.8594	25.6348	49.4397	25.6348	53.2544	25.6348	49.6212	25.6348	52.6111	25.6348	49.9002	25.6348	51.9604	25.6348	50.2839	25.6348	51.3352	25.6348	50.7677
26.3672	54.099	26.3672	53.5621	26.3672	54.6371	26.3672	53.0531	26.3672	55.1508	26.3672	52.5958	26.3672	55.6173	26.3672	52.2082	26.3672	56.017	26.3672	51.8989	26.3672	56.3345	26.3672	51.6662	26.3672	56.5575	26.3672	51.5005	26.3672	56.6776	26.3672	51.3879	26.3672	56.6894	26.3672	51.3148	26.3672	56.5913	26.3672	51.2713	26.3672	56.3854	26.3672	51.253	26.3672	56.0779	26.3672	51.2627	26.3672	55.6796	26.3672	51.3088	26.3672	55.206	26.3672	51.4047	26.3672	54.6776	26.3672	51.5657	26.3672	54.1189	26.3672	51.8051	26.3672	53.5578	26.3672	52.1304	26.3672	53.0228	26.3672	52.5402
27.0996	56.152	27.0996	55.7552	27.0996	56.5622	27.0996	55.3899	27.0996	56.9655	27.0996	55.0705	27.0996	57.3421	27.0996	54.8053	27.0996	57.6736	27.0996	54.5965	27.0996	57.9444	27.0996	54.4405	27.0996	58.1418	27.0996	54.3301	27.0996	58.2569	27.0996	54.2571	27.0996	58.284	27.0996	54.2142	27.0996	58.2218	27.0996	54.1966	27.0996	58.0729	27.0996	54.2028	27.0996	57.8439	27.0996	54.2349	27.0996	57.546	27.0996	54.2975	27.0996	57.194	27.0996	54.3969	27.0996	56.8058	27.0996	54.5402	27.0996	56.401	27.0996	54.7329	27.0996	55.9995	27.0996	54.9782	27.0996	55.6194	27.0996	55.2755
27.832	56.8298	27.832	56.5217	27.832	57.1651	27.832	56.2567	27.832	57.5076	27.832	56.0452	27.832	57.836	27.832	55.8899	27.832	58.1301	27.832	55.7869	27.832	58.3722	27.832	55.7272	27.832	58.5478	27.832	55.6993	27.832	58.6464	27.832	55.6917	27.832	58.6619	27.832	55.6948	27.832	58.5927	27.832	55.7018	27.832	58.4425	27.832	55.7096	27.832	58.2199	27.832	55.7184	27.832	57.9388	27.832	55.7316	27.832	57.6178	27.832	55.7559	27.832	57.2786	27.832	55.7999	27.832	56.9441	27.832	55.874	27.832	56.6352	27.832	55.9885	27.832	56.3679	27.832	56.1517
29.2969	59.2194	29.2969	58.909	29.2969	59.5434	29.2969	58.6255	29.2969	59.8652	29.2969	58.3787	29.2969	60.1681	29.2969	58.1736	29.2969	60.4359	29.2969	58.0107	29.2969	60.6541	29.2969	57.8866	29.2969	60.8106	29.2969	57.7955	29.2969	60.8961	29.2969	57.731	29.2969	60.905	29.2969	57.6871	29.2969	60.8353	29.2969	57.6599	29.2969	60.6893	29.2969	57.6474	29.2969	60.4739	29.2969	57.6506	29.2969	60.2001	29.2969	57.673	29.2969	59.8831	29.2969	57.7202	29.2969	59.541	29.2969	57.7994	29.2969	59.1936	29.2969	57.9178	29.2969	58.8599	29.2969	58.0818	29.2969	58.5565	29.2969	58.295
30.0293	60.4191	30.0293	60.1132	30.0293	60.7367	30.0293	59.8317	30.0293	61.0514	30.0293	59.5839	30.0293	61.3474	30.0293	59.3747	30.0293	61.6095	30.0293	59.2051	30.0293	61.8238	30.0293	59.0725	30.0293	61.9787	30.0293	58.972	30.0293	62.0652	30.0293	58.8981	30.0293	62.0776	30.0293	58.8457	30.0293	62.0139	30.0293	58.8117	30.0293	61.8758	30.0293	58.7948	30.0293	61.6695	30.0293	58.7967	30.0293	61.405	30.0293	58.8213	30.0293	61.0963	30.0293	58.8743	30.0293	60.76	30.0293	58.9627	30.0293	60.4148	30.0293	59.0931	30.0293	60.0788	30.0293	59.2705	30.0293	59.7685	30.0293	59.4965
31.4941	63.2567	31.4941	63.0341	31.4941	63.4925	31.4941	62.8331	31.4941	63.731	31.4941	62.6593	31.4941	63.9601	31.4941	62.5151	31.4941	64.1676	31.4941	62.4005	31.4941	64.3417	31.4941	62.3132	31.4941	64.4723	31.4941	62.2501	31.4941	64.5515	31.4941	62.2075	31.4941	64.5742	31.4941	62.1824	31.4941	64.5386	31.4941	62.1727	31.4941	64.4464	31.4941	62.1777	31.4941	64.303	31.4941	62.1981	31.4941	64.1171	31.4941	62.2356	31.4941	63.8999	31.4941	62.293	31.4941	63.6643	31.4941	62.3735	31.4941	63.4235	31.4941	62.4802	31.4941	63.1897	31.4941	62.6154	31.4941	62.9729	31.4941	62.7801
32.2266	63.9282	32.2266	63.697	32.2266	64.17	32.2266	63.4852	32.2266	64.4114	32.2266	63.299	32.2266	64.6407	32.2266	63.1416	32.2266	64.8454	32.2266	63.0136	32.2266	65.014	32.2266	62.9134	32.2266	65.1367	32.2266	62.8382	32.2266	65.2057	32.2266	62.7844	32.2266	65.216	32.2266	62.7492	32.2266	65.1663	32.2266	62.7303	32.2266	65.0585	32.2266	62.7268	32.2266	64.8985	32.2266	62.7392	32.2266	64.6955	32.2266	62.7692	32.2266	64.4616	32.2266	62.8196	32.2266	64.2105	32.2266	62.894	32.2266	63.9564	32.2266	62.9959	32.2266	63.7124	32.2266	63.1283	32.2266	63.4887	32.2266	63.2928
33.6914	66.3755	33.6914	66.1724	33.6914	66.5867	33.6914	65.9842	33.6914	66.7974	33.6914	65.816	33.6914	66.9979	33.6914	65.6706	33.6914	67.1781	33.6914	65.549	33.6914	67.3283	33.6914	65.4508	33.6914	67.44	33.6914	65.3746	33.6914	67.5062	33.6914	65.3188	33.6914	67.5225	33.6914	65.2817	33.6914	67.4871	33.6914	65.2626	33.6914	67.4013	33.6914	65.2611	33.6914	67.2696	33.6914	65.2779	33.6914	67.0994	33.6914	65.3143	33.6914	66.9005	33.6914	65.3723	33.6914	66.6839	33.6914	65.4538	33.6914	66.4611	33.6914	65.5607	33.6914	66.243	33.6914	65.6942	33.6914	66.0384	33.6914	65.854
34.4238	67.4119	34.4238	67.2236	34.4238	67.6079	34.4238	67.0494	34.4238	67.8038	34.4238	66.8938	34.4238	67.9905	34.4238	66.7596	34.4238	68.1586	34.4238	66.6478	34.4238	68.2992	34.4238	66.5579	34.4238	68.404	34.4238	66.4889	34.4238	68.4667	34.4238	66.4392	34.4238	68.4829	34.4238	66.4074	34.4238	68.451	34.4238	66.3927	34.4238	68.3726	34.4238	66.3946	34.4238	68.2517	34.4238	66.4135	34.4238	68.0956	34.4238	66.4505	34.4238	67.9131	34.4238	66.507	34.4238	67.7148	34.4238	66.5845	34.4238	67.5111	34.4238	66.6847	34.4238	67.3117	34.4238	66.8085	34.4238	67.1246	34.4238	66.9556
35.8887	69.2727	35.8887	69.106	35.8887	69.4453	35.8887	68.9508	35.8887	69.6169	35.8887	68.8111	35.8887	69.7797	35.8887	68.6892	35.8887	69.9253	35.8887	68.5863	35.8887	70.0457	35.8887	68.5021	35.8887	70.1336	35.8887	68.4361	35.8887	70.1831	35.8887	68.3871	35.8887	70.1906	35.8887	68.3541	35.8887	70.1548	35.8887	68.3363	35.8887	70.0773	35.8887	68.3337	35.8887	69.9623	35.8887	68.3463	35.8887	69.8169	35.8887	68.375	35.8887	69.6495	35.8887	68.421	35.8887	69.47	35.8887	68.4855	35.8887	69.2878	35.8887	68.5699	35.8887	69.1115	35.8887	68.6752	35.8887	68.9478	35.8887	68.8015
37.3535	71.0016	37.3535	70.8462	37.3535	71.1613	37.3535	70.7002	37.3535	71.3192	37.3535	70.5672	37.3535	71.4681	37.3535	70.4497	37.3535	71.6005	37.3535	70.3489	37.3535	71.709	37.3535	70.2648	37.3535	71.7869	37.3535	70.1973	37.3535	71.8289	37.3535	70.1455	37.3535	71.8317	37.3535	70.1089	37.3535	71.794	37.3535	70.0871	37.3535	71.7173	37.3535	70.0798	37.3535	71.6059	37.3535	70.0875	37.3535	71.4661	37.3535	70.1109	37.3535	71.3061	37.3535	70.1511	37.3535	71.1351	37.3535	70.2094	37.3535	70.962	37.3535	70.287	37.3535	70.7951	37.3535	70.3848	37.3535	70.6406	37.3535	70.503
38.8184	72.6594	38.8184	72.517	38.8184	72.8047	38.8184	72.3823	38.8184	72.9475	38.8184	72.2588	38.8184	73.0812	38.8184	72.1487	38.8184	73.1991	38.8184	72.0535	38.8184	73.2948	38.8184	71.9737	38.8184	73.3622	38.8184	71.9093	38.8184	73.3967	38.8184	71.86	38.8184	73.3955	38.8184	71.8254	38.8184	73.3578	38.8184	71.8052	38.8184	73.2855	38.8184	71.7993	38.8184	73.1824	38.8184	71.808	38.8184	73.0549	38.8184	71.8314	38.8184	72.9103	38.8184	71.8704	38.8184	72.7569	38.8184	71.9255	38.8184	72.6026	38.8184	71.9974	38.8184	72.454	38.8184	72.0867	38.8184	72.3164	38.8184	72.1933
39.5508	73.4236	39.5508	73.2843	39.5508	73.5647	39.5508	73.1515	39.5508	73.7022	39.5508	73.0286	39.5508	73.8299	39.5508	72.9182	39.5508	73.9414	39.5508	72.8217	39.5508	74.0304	39.5508	72.7399	39.5508	74.0912	39.5508	72.673	39.5508	74.1196	39.5508	72.621	39.5508	74.1128	39.5508	72.5834	39.5508	74.0704	39.5508	72.5602	39.5508	73.9942	39.5508	72.5511	39.5508	73.8885	39.5508	72.5563	39.5508	73.7596	39.5508	72.576	39.5508	73.6149	39.5508	72.6109	39.5508	73.4628	39.5508	72.6616	39.5508	73.3108	39.5508	72.7287	39.5508	73.1657	39.5508	72.8129	39.5508	73.0325	39.5508	72.9143
41.0156	75.0023	41.0156	74.872	41.0156	75.1332	41.0156	74.7464	41.0156	75.2598	41.0156	74.6289	41.0156	75.3766	41.0156	74.5219	41.0156	75.4779	41.0156	74.4269	41.0156	75.5581	41.0156	74.3452	41.0156	75.6122	41.0156	74.2772	41.0156	75.6363	41.0156	74.2231	41.0156	75.6281	41.0156	74.1831	41.0156	75.5873	41.0156	74.1574	41.0156	75.5154	41.0156	74.1459	41.0156	75.4165	41.0156	74.1491	41.0156	75.2959	41.0156	74.1672	41.0156	75.1606	41.0156	74.2008	41.0156	75.018	41.0156	74.2502	41.0156	74.8748	41.0156	74.3158	41.0156	74.7373	41.0156	74.398	41.0156	74.6101	41.0156	74.4964
42.4805	76.2497	42.4805	76.1287	42.4805	76.3698	42.4805	76.0109	42.4805	76.4846	42.4805	75.8995	42.4805	76.589	42.4805	75.797	42.4805	76.6777	42.4805	75.7052	42.4805	76.7457	42.4805	75.6254	42.4805	76.7887	42.4805	75.5584	42.4805	76.8033	42.4805	75.5046	42.4805	76.7876	42.4805	75.4643	42.4805	76.7419	42.4805	75.4377	42.4805	76.6681	42.4805	75.4247	42.4805	76.5703	42.4805	75.4255	42.4805	76.4542	42.4805	75.4401	42.4805	76.3266	42.4805	75.4687	42.4805	76.1943	42.4805	75.5114	42.4805	76.0636	42.4805	75.5685	42.4805	75.9398	42.4805	75.6401	42.4805	75.8265	42.4805	75.7263
43.9453	77.4413	43.9453	77.325	43.9453	77.5555	43.9453	77.2103	43.9453	77.6633	43.9453	77.1004	43.9453	77.7601	43.9453	76.998	43.9453	77.8412	43.9453	76.9051	43.9453	77.9021	43.9453	76.8232	43.9453	77.9389	43.9453	76.7536	43.9453	77.9488	43.9453	76.697	43.9453	77.9301	43.9453	76.654	43.9453	77.8832	43.9453	76.6249	43.9453	77.8102	43.9453	76.6099	43.9453	77.715	43.9453	76.6091	43.9453	77.6028	43.9453	76.6225	43.9453	77.48	43.9453	76.6501	43.9453	77.3529	43.9453	76.6919	43.9453	77.2274	43.9453	76.7478	43.9453	77.1082	43.9453	76.8178	43.9453	76.9989	43.9453	76.9017
45.4102	78.4212	45.4102	78.3143	45.4102	78.5248	45.4102	78.2074	45.4102	78.6212	45.4102	78.1037	45.4102	78.7062	45.4102	78.0057	45.4102	78.7757	45.4102	77.9153	45.4102	78.8257	45.4102	77.8344	45.4102	78.8529	45.4102	77.7641	45.4102	78.8548	45.4102	77.7055	45.4102	78.8304	45.4102	77.6593	45.4102	78.7803	45.4102	77.6262	45.4102	78.7065	45.4102	77.6065	45.4102	78.6131	45.4102	77.6004	45.4102	78.5052	45.4102	77.6081	45.4102	78.3885	45.4102	77.6296	45.4102	78.2691	45.4102	77.6649	45.4102	78.152	45.4102	77.7139	45.4102	78.0417	45.4102	77.7765	45.4102	77.9412	45.4102	77.8524
47.6074	79.5744	47.6074	79.4775	47.6074	79.667	47.6074	79.3794	47.6074	79.7518	47.6074	79.2832	47.6074	79.825	47.6074	79.1913	47.6074	79.8831	47.6074	79.1058	47.6074	79.9228	47.6074	79.0287	47.6074	79.9413	47.6074	78.9614	47.6074	79.9369	47.6074	78.9051	47.6074	79.909	47.6074	78.8606	47.6074	79.8586	47.6074	78.8286	47.6074	79.7879	47.6074	78.8095	47.6074	79.701	47.6074	78.8033	47.6074	79.6025	47.6074	78.81	47.6074	79.4977	47.6074	78.8294	47.6074	79.3917	47.6074	78.8611	47.6074	79.2888	47.6074	78.9049	47.6074	79.1923	47.6074	78.9603	47.6074	79.1046	47.6074	79.027
49.0723	80.1069	49.0723	80.0155	49.0723	80.1929	49.0723	79.9219	49.0723	80.2703	49.0723	79.8289	49.0723	80.3355	49.0723	79.7392	49.0723	80.3855	49.0723	79.6551	49.0723	80.4173	49.0723	79.5786	49.0723	80.4286	49.0723	79.5113	49.0723	80.418	49.0723	79.4546	49.0723	80.3856	49.0723	79.4096	49.0723	80.3325	49.0723	79.3768	49.0723	80.2615	49.0723	79.3567	49.0723	80.1763	49.0723	79.3494	49.0723	80.0817	49.0723	79.3545	49.0723	79.9828	49.0723	79.3717	49.0723	79.8839	49.0723	79.4004	49.0723	79.7891	49.0723	79.4402	49.0723	79.701	49.0723	79.4905	49.0723	79.6213	49.0723	79.5509
50.5371	80.492	50.5371	80.4059	50.5371	80.5716	50.5371	80.3162	50.5371	80.6417	50.5371	80.2259	50.5371	80.699	50.5371	80.1374	50.5371	80.7408	50.5371	80.0532	50.5371	80.7644	50.5371	79.9755	50.5371	80.7681	50.5371	79.9059	50.5371	80.7509	50.5371	79.8462	50.5371	80.7128	50.5371	79.7975	50.5371	80.6556	50.5371	79.7606	50.5371	80.5819	50.5371	79.7361	50.5371	80.4958	50.5371	79.724	50.5371	80.4019	50.5371	79.7243	50.5371	80.305	50.5371	79.7366	50.5371	80.2094	50.5371	79.7604	50.5371	80.1187	50.5371	79.7951	50.5371	80.0353	50.5371	79.8402	50.5371	79.9606	50.5371	79.8955
52.7344	80.8727	52.7344	80.7949	52.7344	80.9433	52.7344	80.7127	52.7344	81.0038	52.7344	80.6287	52.7344	81.0516	52.7344	80.5457	52.7344	81.0842	52.7344	80.466	52.7344	81.0996	52.7344	80.3919	52.7344	81.0965	52.7344	80.3253	52.7344	81.0744	52.7344	80.2679	52.7344	81.0339	52.7344	80.2209	52.7344	80.9769	52.7344	80.1852	52.7344	80.9063	52.7344	80.1613	52.7344	80.8261	52.7344	80.1493	52.7344	80.7405	52.7344	80.1488	52.7344	80.6537	52.7344	80.1594	52.7344	80.5694	52.7344	80.1802	52.7344	80.4903	52.7344	80.2106	52.7344	80.4182	52.7344	80.25	52.7344	80.3539	52.7344	80.2978
54.1992	81.0283	54.1992	80.9547	54.1992	81.094	54.1992	80.8759	54.1992	81.1491	54.1992	80.7947	54.1992	81.1912	54.1992	80.7137	54.1992	81.2179	54.1992	80.6353	54.1992	81.2278	54.1992	80.562	54.1992	81.2197	54.1992	80.4958	54.1992	81.1935	54.1992	80.4384	54.1992	81.1501	54.1992	80.3912	54.1992	81.0918	54.1992	80.3552	54.1992	81.0215	54.1992	80.3307	54.1992	80.9432	54.1992	80.3179	54.1992	80.861	54.1992	80.3163	54.1992	80.7789	54.1992	80.3254	54.1992	80.7001	54.1992	80.3442	54.1992	80.627	54.1992	80.3718	54.1992	80.5609	54.1992	80.4077	54.1992	80.5023	54.1992	80.4512
56.3965	81.2274	56.3965	81.1575	56.3965	81.2888	56.3965	81.0816	56.3965	81.3392	56.3965	81.0027	56.3965	81.3762	56.3965	80.9233	56.3965	81.398	56.3965	80.8462	56.3965	81.4034	56.3965	80.774	56.3965	81.3918	56.3965	80.7088	56.3965	81.3635	56.3965	80.6526	56.3965	81.3198	56.3965	80.6069	56.3965	81.263	56.3965	80.5726	56.3965	81.1962	56.3965	80.5503	56.3965	81.1233	56.3965	80.5397	56.3965	81.0479	56.3965	80.5405	56.3965	80.9735	56.3965	80.5516	56.3965	80.9028	56.3965	80.5719	56.3965	80.8373	56.3965	80.6002	56.3965	80.7777	56.3965	80.6354	56.3965	80.7243	56.3965	80.6769
58.5938	81.2162	58.5938	81.1502	58.5938	81.2721	58.5938	81.0767	58.5938	81.3156	58.5938	80.9985	58.5938	81.3449	58.5938	80.9185	58.5938	81.3584	58.5938	80.8396	58.5938	81.3555	58.5938	80.7646	58.5938	81.3362	58.5938	80.6962	58.5938	81.3013	58.5938	80.6367	58.5938	81.2529	58.5938	80.5878	58.5938	81.1935	58.5938	80.551	58.5938	81.1266	58.5938	80.5268	58.5938	81.056	58.5938	80.5153	58.5938	80.9851	58.5938	80.5157	58.5938	80.9168	58.5938	80.5269	58.5938	80.853	58.5938	80.5474	58.5938	80.7944	58.5938	80.5755	58.5938	80.7412	58.5938	80.6098	58.5938	80.6929	58.5938	80.6491
60.0586	81.3508	60.0586	81.29	60.0586	81.3997	60.0586	81.22	60.0586	81.4348	60.0586	81.1434	60.0586	81.4542	60.0586	81.0631	60.0586	81.4568	60.0586	80.9819	60.0586	81.4421	60.0586	80.9028	60.0586	81.4105	60.0586	80.8285	60.0586	81.3632	60.0586	80.7614	60.0586	81.3024	60.0586	80.7035	60.0586	81.2315	60.0586	80.6563	60.0586	81.1542	60.0586	80.6208	60.0586	81.0746	60.0586	80.5973	60.0586	80.9967	60.0586	80.5854	60.0586	80.9235	60.0586	80.5844	60.0586	80.8571	60.0586	80.5932	60.0586	80.7984	60.0586	80.6104	60.0586	80.7473	60.0586	80.635	60.0586	80.7034	60.0586	80.6661
62.2559	81.5849	62.2559	81.5285	62.2559	81.6297	62.2559	81.463	62.2559	81.6611	62.2559	81.3911	62.2559	81.6774	62.2559	81.3155	62.2559	81.6776	62.2559	81.2393	62.2559	81.6616	62.2559	81.1653	62.2559	81.6298	62.2559	81.0961	62.2559	81.5838	62.2559	81.0341	62.2559	81.5258	62.2559	80.9812	62.2559	81.4593	62.2559	80.9389	62.2559	81.3877	62.2559	80.9077	62.2559	81.3151	62.2559	80.888	62.2559	81.2449	62.2559	80.879	62.2559	81.1799	62.2559	80.8799	62.2559	81.1217	62.2559	80.8894	62.2559	81.0707	62.2559	80.9059	62.2559	81.0267	62.2559	80.9284	62.2559	80.9887	62.2559	80.9561
64.4531	81.588	64.4531	81.5351	64.4531	81.6287	64.4531	81.4724	64.4531	81.6555	64.4531	81.4027	64.4531	81.667	64.4531	81.3288	64.4531	81.6625	64.4531	81.2537	64.4531	81.6421	64.4531	81.1804	64.4531	81.6068	64.4531	81.1119	64.4531	81.5583	64.4531	81.0505	64.4531	81.4995	64.4531	80.9984	64.4531	81.4336	64.4531	80.9569	64.4531	81.3645	64.4531	80.9268	64.4531	81.2959	64.4531	80.9082	64.4531	81.2311	64.4531	80.9003	64.4531	81.1722	64.4531	80.902	64.4531	81.1204	64.4531	80.9118	64.4531	81.0756	64.4531	80.9281	64.4531	81.0371	64.4531	80.9493	64.4531	81.0038	64.4531	80.9746
66.6504	81.7485	66.6504	81.6986	66.6504	81.7853	66.6504	81.6379	66.6504	81.8075	66.6504	81.5691	66.6504	81.8139	66.6504	81.4952	66.6504	81.8042	66.6504	81.4192	66.6504	81.7788	66.6504	81.3444	66.6504	81.7391	66.6504	81.2738	66.6504	81.6873	66.6504	81.2102	66.6504	81.6263	66.6504	81.1559	66.6504	81.5599	66.6504	81.1125	66.6504	81.4916	66.6504	81.0808	66.6504	81.4253	66.6504	81.0611	66.6504	81.3637	66.6504	81.0526	66.6504	81.3086	66.6504	81.0541	66.6504	81.2608	66.6504	81.0639	66.6504	81.2197	66.6504	81.0801	66.6504	81.1843	66.6504	81.1011	66.6504	81.1533	66.6504	81.1256
69.5801	81.8694	69.5801	81.8227	69.5801	81.9015	69.5801	81.7634	69.5801	81.9174	69.5801	81.6941	69.5801	81.9165	69.5801	81.6178	69.5801	81.8986	69.5801	81.5377	69.5801	81.8646	69.5801	81.4571	69.5801	81.8163	69.5801	81.3793	69.5801	81.7561	69.5801	81.3074	69.5801	81.6875	69.5801	81.2439	69.5801	81.6144	69.5801	81.191	69.5801	81.5407	69.5801	81.1501	69.5801	81.4701	69.5801	81.1217	69.5801	81.4053	69.5801	81.1055	69.5801	81.348	69.5801	81.1007	69.5801	81.2985	69.5801	81.1056	69.5801	81.2563	69.5801	81.1185	69.5801	81.2201	69.5801	81.1374	69.5801	81.1886	69.5801	81.161
71.7773	82.0458	71.7773	82.0032	71.7773	82.0741	71.7773	81.9484	71.7773	82.0867	71.7773	81.8838	71.7773	82.083	71.7773	81.8125	71.7773	82.063	71.7773	81.7374	71.7773	82.0279	71.7773	81.662	71.7773	81.9796	71.7773	81.5895	71.7773	81.9207	71.7773	81.5226	71.7773	81.8548	71.7773	81.464	71.7773	81.7857	71.7773	81.4156	71.7773	81.7172	71.7773	81.3784	71.7773	81.6529	71.7773	81.353	71.7773	81.595	71.7773	81.3388	71.7773	81.5448	71.7773	81.3348	71.7773	81.5024	71.7773	81.3395	71.7773	81.4669	71.7773	81.3509	71.7773	81.4367	71.7773	81.3674	71.7773	81.4106	71.7773	81.3875
73.9746	82.1013	73.9746	82.0633	73.9746	82.1247	73.9746	82.0127	73.9746	82.1321	73.9746	81.9518	73.9746	82.1233	73.9746	81.8837	73.9746	82.0986	73.9746	81.8115	73.9746	82.0594	73.9746	81.7388	73.9746	82.0082	73.9746	81.6688	73.9746	81.9479	73.9746	81.6044	73.9746	81.8824	73.9746	81.5483	73.9746	81.8158	73.9746	81.5024	73.9746	81.7518	73.9746	81.4677	73.9746	81.6937	73.9746	81.4446	73.9746	81.6434	73.9746	81.4324	73.9746	81.6017	73.9746	81.43	73.9746	81.568	73.9746	81.4354	73.9746	81.5406	73.9746	81.4466	73.9746	81.5176	73.9746	81.4615	73.9746	81.4974	73.9746	81.4787
76.9043	82.3228	76.9043	82.2864	76.9043	82.3438	76.9043	82.2365	76.9043	82.3483	76.9043	82.1757	76.9043	82.3359	76.9043	82.107	76.9043	82.3073	76.9043	82.0339	76.9043	82.2641	76.9043	81.9599	76.9043	82.209	76.9043	81.8883	76.9043	82.1454	76.9043	81.8225	76.9043	82.0773	76.9043	81.765	76.9043	82.0091	76.9043	81.7178	76.9043	81.9447	76.9043	81.6822	76.9043	81.8873	76.9043	81.6585	76.9043	81.8388	76.9043	81.6459	76.9043	81.7996	76.9043	81.6432	76.9043	81.7687	76.9043	81.6483	76.9043	81.7442	76.9043	81.659	76.9043	81.724	76.9043	81.6732	76.9043	81.706	76.9043	81.6892
79.834	82.4113	79.834	82.3761	79.834	82.4313	79.834	82.3275	79.834	82.4351	79.834	82.2683	79.834	82.4225	79.834	82.2015	79.834	82.3946	79.834	82.1309	79.834	82.3534	79.834	82.0602	79.834	82.3019	79.834	81.9931	79.834	82.2439	79.834	81.9329	79.834	82.1834	79.834	81.8825	79.834	82.1249	79.834	81.8438	79.834	82.0718	79.834	81.8177	79.834	82.0268	79.834	81.8042	79.834	81.9908	79.834	81.8022	79.834	81.9635	79.834	81.8095	79.834	81.9431	79.834	81.8238	79.834	81.927	79.834	81.842	79.834	81.9125	79.834	81.8616	79.834	81.8974	79.834	81.8804
82.7637	82.7197	82.7637	82.688	82.7637	82.7335	82.7637	82.6403	82.7637	82.7288	82.7637	82.5791	82.7637	82.7058	82.7637	82.5077	82.7637	82.6661	82.7637	82.43	82.7637	82.6123	82.7637	82.3501	82.7637	82.5479	82.7637	82.2722	82.7637	82.4776	82.7637	82.2004	82.7637	82.4062	82.7637	82.1382	82.7637	82.3386	82.7637	82.0883	82.7637	82.2788	82.7637	82.0524	82.7637	82.2296	82.7637	82.0308	82.7637	82.192	82.7637	82.0226	82.7637	82.165	82.7637	82.0259	82.7637	82.1463	82.7637	82.0377	82.7637	82.1325	82.7637	82.0546	82.7637	82.1202	82.7637	82.0733	82.7637	82.107	82.7637	82.0913
85.6934	82.9554	85.6934	82.9289	85.6934	82.9621	85.6934	82.884	85.6934	82.9484	85.6934	82.8233	85.6934	82.9147	85.6934	82.7497	85.6934	82.8627	85.6934	82.6669	85.6934	82.7952	85.6934	82.5789	85.6934	82.7159	85.6934	82.4898	85.6934	82.6297	85.6934	82.4037	85.6934	82.5419	85.6934	82.3245	85.6934	82.4575	85.6934	82.2554	85.6934	82.3812	85.6934	82.1988	85.6934	82.3162	85.6934	82.1559	85.6934	82.264	85.6934	82.127	85.6934	82.2243	85.6934	82.111	85.6934	82.1951	85.6934	82.1059	85.6934	82.1736	85.6934	82.109	85.6934	82.1568	85.6934	82.1176	85.6934	82.1424	85.6934	82.1292
88.623	83.0583	88.623	83.0274	88.623	83.0723	88.623	82.9814	88.623	83.0687	88.623	82.9227	88.623	83.0477	88.623	82.8541	88.623	83.0105	88.623	82.779	88.623	82.9593	88.623	82.701	88.623	82.8971	88.623	82.6235	88.623	82.8277	88.623	82.5498	88.623	82.7552	88.623	82.4828	88.623	82.6836	88.623	82.4248	88.623	82.6164	88.623	82.3775	88.623	82.5562	88.623	82.3416	88.623	82.5042	88.623	82.3172	88.623	82.4607	88.623	82.3037	88.623	82.4247	88.623	82.2998	88.623	82.3947	88.623	82.3039	88.623	82.3695	88.623	82.3142	88.623	82.3477	88.623	82.3292
91.5527	82.912	91.5527	82.894	91.5527	82.9149	91.5527	82.8622	91.5527	82.9024	91.5527	82.819	91.5527	82.8757	91.5527	82.7678	91.5527	82.8373	91.5527	82.7125	91.5527	82.7909	91.5527	82.6572	91.5527	82.741	91.5527	82.6061	91.5527	82.6927	91.5527	82.5629	91.5527	82.651	91.5527	82.5305	91.5527	82.6196	91.5527	82.5109	91.5527	82.6011	91.5527	82.5047	91.5527	82.5958	91.5527	82.5112	91.5527	82.6019	91.5527	82.5285	91.5527	82.6159	91.5527	82.5533	91.5527	82.6331	91.5527	82.582	91.5527	82.6488	91.5527	82.6105	91.5527	82.6588	91.5527	82.635	91.5527	82.6604	91.5527	82.6523
94.4824	83.3895	94.4824	83.3684	94.4824	83.389	94.4824	83.3274	94.4824	83.3669	94.4824	83.2689	94.4824	83.3247	94.4824	83.1968	94.4824	83.2652	94.4824	83.1155	94.4824	83.1929	94.4824	83.0303	94.4824	83.1133	94.4824	82.9465	94.4824	83.0328	94.4824	82.8693	94.4824	82.9579	94.4824	82.8034	94.4824	82.8943	94.4824	82.7524	94.4824	82.8462	94.4824	82.7185	94.4824	82.8153	94.4824	82.7022	94.4824	82.8005	94.4824	82.702	94.4824	82.7985	94.4824	82.7148	94.4824	82.8042	94.4824	82.7363	94.4824	82.812	94.4824	82.7614	94.4824	82.8166	94.4824	82.7853	94.4824	82.8144	94.4824	82.8038
98.1445	83.5537	98.1445	83.539	98.1445	83.547	98.1445	83.504	98.1445	83.519	98.1445	83.4508	98.1445	83.471	98.1445	83.3826	98.1445	83.4059	98.1445	83.303	98.1445	83.3276	98.1445	83.2163	98.1445	83.2413	98.1445	83.1268	98.1445	83.1527	98.1445	83.0392	98.1445	83.0679	98.1445	82.9577	98.1445	82.9918	98.1445	82.8859	98.1445	82.9284	98.1445	82.8268	98.1445	82.8793	98.1445	82.7822	98.1445	82.8444	98.1445	82.7525	98.1445	82.8211	98.1445	82.7369	98.1445	82.8061	98.1445	82.7333	98.1445	82.7953	98.1445	82.7385	98.1445	82.7855	98.1445	82.7493	98.1445	82.7746	98.1445	82.7621
101.807	83.7162	101.807	83.7091	101.807	83.7023	101.807	83.6822	101.807	83.6677	101.807	83.6378	101.807	83.6141	101.807	83.5792	101.807	83.5445	101.807	83.5104	101.807	83.4638	101.807	83.4356	101.807	83.3778	101.807	83.3594	101.807	83.293	101.807	83.2862	101.807	83.2157	101.807	83.22	101.807	83.1515	101.807	83.1638	101.807	83.104	101.807	83.1198	101.807	83.0742	101.807	83.0891	101.807	83.0607	101.807	83.0712	101.807	83.06	101.807	83.0645	101.807	83.0671	101.807	83.0663	101.807	83.0769	101.807	83.0731	101.807	83.085	101.807	83.0812	101.807	83.0888	101.807	83.0872
105.469	83.8764	105.469	83.8712	105.469	83.8591	105.469	83.8451	105.469	83.8197	105.469	83.8006	105.469	83.7599	105.469	83.7415	105.469	83.6832	105.469	83.6721	105.469	83.595	105.469	83.5973	105.469	83.5018	105.469	83.5223	105.469	83.4111	105.469	83.4517	105.469	83.3303	105.469	83.3897	105.469	83.2658	105.469	83.3395	105.469	83.2218	105.469	83.303	105.469	83.1994	105.469	83.2806	105.469	83.1968	105.469	83.2712	105.469	83.2096	105.469	83.272	105.469	83.2316	105.469	83.2795	105.469	83.2562	105.469	83.2893	105.469	83.2779	105.469	83.297	105.469	83.2927	105.469	83.2989
109.131	84.2002	109.131	84.1903	109.131	84.1861	109.131	84.1578	109.131	84.1479	109.131	84.1053	109.131	84.0875	109.131	84.0367	109.131	84.0083	109.131	83.9565	109.131	83.9157	109.131	83.8699	109.131	83.8161	109.131	83.7822	109.131	83.7171	109.131	83.6985	109.131	83.6263	109.131	83.6234	109.131	83.5503	109.131	83.5608	109.131	83.4936	109.131	83.513	109.131	83.4582	109.131	83.4809	109.131	83.4426	109.131	83.4639	109.131	83.4429	109.131	83.4595	109.131	83.4533	109.131	83.4642	109.131	83.4677	109.131	83.4736	109.131	83.4805	109.131	83.483	109.131	83.488	109.131	83.4887
112.793	84.3591	112.793	84.3501	112.793	84.3438	112.793	84.3181	112.793	84.3044	112.793	84.2657	112.793	84.2428	112.793	84.1969	112.793	84.1629	112.793	84.1162	112.793	84.07	112.793	84.0289	112.793	83.9712	112.793	83.9405	112.793	83.8739	112.793	83.8561	112.793	83.7858	112.793	83.7805	112.793	83.7132	112.793	83.7176	112.793	83.6603	112.793	83.6698	112.793	83.6284	112.793	83.6381	112.793	83.6156	112.793	83.6219	112.793	83.6177	112.793	83.6189	112.793	83.6287	112.793	83.6253	112.793	83.6425	112.793	83.6368	112.793	83.6537	112.793	83.6487	112.793	83.659	112.793	83.657
116.455	84.4704	116.455	84.4663	116.455	84.4498	116.455	84.4388	116.455	84.4052	116.455	84.3905	116.455	84.3389	116.455	84.3253	116.455	84.255	116.455	84.2477	116.455	84.1597	116.455	84.1632	116.455	84.0603	116.455	84.0772	116.455	83.9648	116.455	83.9952	116.455	83.881	116.455	83.9219	116.455	83.8151	116.455	83.8613	116.455	83.7709	116.455	83.816	116.455	83.7489	116.455	83.7868	116.455	83.7463	116.455	83.7733	116.455	83.7578	116.455	83.7728	116.455	83.7768	116.455	83.7817	116.455	83.7966	116.455	83.7954	116.455	83.812	116.455	83.809	116.455	83.8194	116.455	83.818
120.85	84.6712	120.85	84.6719	120.85	84.6439	120.85	84.6475	120.85	84.5903	120.85	84.6011	120.85	84.5129	120.85	84.5372	120.85	84.4163	120.85	84.461	120.85	84.3073	120.85	84.3785	120.85	84.1944	120.85	84.2956	120.85	84.087	120.85	84.2179	120.85	83.9945	120.85	84.1504	120.85	83.9245	120.85	84.0967	120.85	83.8817	120.85	84.0586	120.85	83.8668	120.85	84.0366	120.85	83.8767	120.85	84.0287	120.85	83.9049	120.85	84.0319	120.85	83.9432	120.85	84.0414	120.85	83.9834	120.85	84.052	120.85	84.0183	120.85	84.0586	120.85	84.0434	120.85	84.0566
125.244	84.803	125.244	84.7977	125.244	84.7798	125.244	84.7654	125.244	84.7285	125.244	84.7092	125.244	84.6518	125.244	84.6338	125.244	84.5546	125.244	84.5448	125.244	84.4437	125.244	84.4489	125.244	84.3281	125.244	84.3529	125.244	84.2175	125.244	84.2636	125.244	84.1215	125.244	84.187	125.244	84.0482	125.244	84.1277	125.244	84.0025	125.244	84.0883	125.244	83.9854	125.244	84.0694	125.244	83.9937	125.244	84.0688	125.244	84.0206	125.244	84.0822	125.244	84.0576	125.244	84.1037	125.244	84.0957	125.244	84.1268	125.244	84.1272	125.244	84.1448	125.244	84.147	125.244	84.1527
129.639	84.9545	129.639	84.9528	129.639	84.9268	129.639	84.9228	129.639	84.8702	129.639	84.8675	129.639	84.7877	129.639	84.7912	129.639	84.6845	129.639	84.6996	129.639	84.5677	129.639	84.5989	129.639	84.4463	129.639	84.4959	129.639	84.3304	129.639	84.3976	129.639	84.2296	129.639	84.3104	129.639	84.152	129.639	84.2393	129.639	84.1023	129.639	84.1881	129.639	84.0814	129.639	84.158	129.639	84.0857	129.639	84.1478	129.639	84.1086	129.639	84.1539	129.639	84.1412	129.639	84.1707	129.639	84.1747	129.639	84.1916	129.639	84.2018	129.639	84.2099	129.639	84.2174	129.639	84.2198
134.033	85.0579	134.033	85.0558	134.033	85.0291	134.033	85.0241	134.033	84.9704	134.033	84.966	134.033	84.8848	134.033	84.8859	134.033	84.7779	134.033	84.7898	134.033	84.6576	134.033	84.6843	134.033	84.5335	134.033	84.5766	134.033	84.4162	134.033	84.474	134.033	84.3159	134.033	84.3831	134.033	84.2406	134.033	84.3095	134.033	84.1949	134.033	84.2571	134.033	84.1788	134.033	84.2273	134.033	84.188	134.033	84.2189	134.033	84.2145	134.033	84.2283	134.033	84.2492	134.033	84.2498	134.033	84.2827	134.033	84.2763	134.033	84.3077	134.033	84.3006	134.033	84.3194	134.033	84.3164
138.428	85.1728	138.428	85.1708	138.428	85.1428	138.428	85.1379	138.428	85.0814	138.428	85.0774	138.428	84.9923	138.428	84.9941	138.428	84.8812	138.428	84.8941	138.428	84.7566	138.428	84.7845	138.428	84.6289	138.428	84.6728	138.428	84.5092	138.428	84.5665	138.428	84.4085	138.428	84.4727	138.428	84.3349	138.428	84.3973	138.428	84.2928	138.428	84.3444	138.428	84.2818	138.428	84.3156	138.428	84.2966	138.428	84.3097	138.428	84.3284	138.428	84.323	138.428	84.3671	138.428	84.3494	138.428	84.4028	138.428	84.3813	138.428	84.428	138.428	84.4109	138.428	84.4379	138.428	84.4315
143.555	85.2787	143.555	85.274	143.555	85.2487	143.555	85.2362	143.555	85.185	143.555	85.1687	143.555	85.091	143.555	85.0765	143.555	84.9729	143.555	84.9663	143.555	84.8394	143.555	84.8454	143.555	84.7016	143.555	84.7222	143.555	84.5716	143.555	84.6049	143.555	84.4613	143.555	84.5015	143.555	84.3798	143.555	84.4186	143.555	84.3325	143.555	84.3609	143.555	84.3189	143.555	84.3303	143.555	84.3337	143.555	84.3257	143.555	84.3673	143.555	84.3427	143.555	84.4085	143.555	84.3745	143.555	84.4465	143.555	84.4124	143.555	84.4726	143.555	84.4477	143.555	84.4818	143.555	84.4727
148.682	85.385	148.682	85.384	148.682	85.3492	148.682	85.3471	148.682	85.2778	148.682	85.2777	148.682	85.1747	148.682	85.1808	148.682	85.0466	148.682	85.063	148.682	84.903	148.682	84.9321	148.682	84.7555	148.682	84.7969	148.682	84.6168	148.682	84.6665	148.682	84.4993	148.682	84.5499	148.682	84.4125	148.682	84.4549	148.682	84.3615	148.682	84.3872	148.682	84.346	148.682	84.3495	148.682	84.3601	148.682	84.341	148.682	84.3938	148.682	84.3569	148.682	84.4353	148.682	84.3898	148.682	84.4735	148.682	84.4302	148.682	84.4994	148.682	84.4685	148.682	84.5074	148.682	84.4963
153.809	85.5575	153.809	85.5669	153.809	85.5096	153.809	85.5385	153.809	85.4248	153.809	85.4753	153.809	85.3074	153.809	85.3818	153.809	85.1646	153.809	85.264	153.809	85.0066	153.809	85.1291	153.809	84.8455	153.809	84.9852	153.809	84.6947	153.809	84.8412	153.809	84.5669	153.809	84.7059	153.809	84.4715	153.809	84.588	153.809	84.4134	153.809	84.4946	153.809	84.3916	153.809	84.4304	153.809	84.3995	153.809	84.3967	153.809	84.4266	153.809	84.3913	153.809	84.461	153.809	84.4078	153.809	84.4918	153.809	84.4376	153.809	84.5106	153.809	84.4709	153.809	84.5128	153.809	84.4983
159.668	85.6146	159.668	85.6218	159.668	85.5675	159.668	85.5904	159.668	85.4819	159.668	85.5238	159.668	85.3625	159.668	85.4274	159.668	85.2171	159.668	85.308	159.668	85.0567	159.668	85.1737	159.668	84.8949	159.668	85.0332	159.668	84.7466	159.668	84.8959	159.668	84.6255	159.668	84.7707	159.668	84.5419	159.668	84.6659	159.668	84.5002	159.668	84.5882	159.668	84.498	159.668	84.5412	159.668	84.5266	159.668	84.5252	159.668	84.5736	159.668	84.5365	159.668	84.6251	159.668	84.5681	159.668	84.6688	159.668	84.6104	159.668	84.6958	159.668	84.6529	159.668	84.7015	159.668	84.6858
164.795	85.7277	164.795	85.7309	164.795	85.6834	164.795	85.6942	164.795	85.5991	164.795	85.6212	164.795	85.4795	164.795	85.5173	164.795	85.3321	164.795	85.3895	164.795	85.1681	164.795	85.2457	164.795	85.0011	164.795	85.0951	164.795	84.8464	164.795	84.9469	164.795	84.7181	164.795	84.8108	164.795	84.6271	164.795	84.6956	164.795	84.5784	164.795	84.6086	164.795	84.5699	164.795	84.5544	164.795	84.5931	164.795	84.534	164.795	84.635	164.795	84.5442	164.795	84.6814	164.795	84.5779	164.795	84.7196	164.795	84.625	164.795	84.7401	164.795	84.6743	164.795	84.7385	164.795	84.7149
170.654	85.6763	170.654	85.6877	170.654	85.6224	170.654	85.6578	170.654	85.5278	170.654	85.5903	170.654	85.3974	170.654	85.4909	170.654	85.24	170.654	85.3667	170.654	85.0679	170.654	85.2265	170.654	84.8964	170.654	85.0796	170.654	84.7418	170.654	84.936	170.654	84.6195	170.654	84.8056	170.654	84.5404	170.654	84.6974	170.654	84.5088	170.654	84.6188	170.654	84.5208	170.654	84.5738	170.654	84.5659	170.654	84.563	170.654	84.629	170.654	84.5823	170.654	84.6945	170.654	84.6237	170.654	84.7485	170.654	84.6763	170.654	84.7811	170.654	84.7282	170.654	84.7876	170.654	84.7683
176.514	85.6793	176.514	85.6903	176.514	85.6225	176.514	85.6567	176.514	85.5217	176.514	85.5822	176.514	85.3821	176.514	85.4728	176.514	85.2131	176.514	85.3362	176.514	85.0275	176.514	85.1816	176.514	84.8417	176.514	85.0195	176.514	84.6735	176.514	84.8612	176.514	84.5399	176.514	84.7182	176.514	84.4534	176.514	84.6011	176.514	84.4191	176.514	84.5185	176.514	84.4335	176.514	84.4752	176.514	84.4851	176.514	84.4711	176.514	84.5577	176.514	84.501	176.514	84.6335	176.514	84.5547	176.514	84.6969	176.514	84.6192	176.514	84.7366	176.514	84.6805	176.514	84.7464	176.514	84.7261
183.105	85.6707	183.105	85.6858	183.105	85.6073	183.105	85.653	183.105	85.4982	183.105	85.5752	183.105	85.3496	183.105	85.4576	183.105	85.1716	183.105	85.3073	183.105	84.978	183.105	85.133	183.105	84.7859	183.105	84.9453	183.105	84.6136	183.105	84.7563	183.105	84.4778	183.105	84.5794	183.105	84.3903	183.105	84.4283	183.105	84.3552	183.105	84.3151	183.105	84.3674	183.105	84.2486	183.105	84.4145	183.105	84.2315	183.105	84.4793	183.105	84.2597	183.105	84.5437	183.105	84.3223	183.105	84.5919	183.105	84.4037	183.105	84.6128	183.105	84.4871	183.105	84.6009	183.105	84.5568
189.697	85.7756	189.697	85.8088	189.697	85.6916	189.697	85.7921	189.697	85.5594	189.697	85.7287	189.697	85.3854	189.697	85.624	189.697	85.1806	189.697	85.4844	189.697	84.9607	189.697	85.3179	189.697	84.7448	189.697	85.1333	189.697	84.5539	189.697	84.9405	189.697	84.4065	189.697	84.7508	189.697	84.315	189.697	84.5762	189.697	84.2821	189.697	84.4293	189.697	84.2999	189.697	84.321	189.697	84.3523	189.697	84.2586	189.697	84.4193	189.697	84.2435	189.697	84.4813	189.697	84.2702	189.697	84.5228	189.697	84.3267	189.697	84.5343	189.697	84.397	189.697	84.5134	189.697	84.4641
196.289	85.8086	196.289	85.8479	196.289	85.7153	196.289	85.8349	196.289	85.5701	196.289	85.7738	196.289	85.3795	196.289	85.6711	196.289	85.1551	196.289	85.5348	196.289	84.9138	196.289	85.374	196.289	84.6772	196.289	85.1986	196.289	84.4692	196.289	85.0194	196.289	84.3118	196.289	84.8473	196.289	84.22	196.289	84.6936	196.289	84.1975	196.289	84.5686	196.289	84.2355	196.289	84.4805	196.289	84.3154	196.289	84.4338	196.289	84.4141	196.289	84.4276	196.289	84.5092	196.289	84.4552	196.289	84.5834	196.289	84.5046	196.289	84.6257	196.289	84.5607	196.289	84.6327	196.289	84.6079
202.881	85.8253	202.881	85.8577	202.881	85.7339	202.881	85.8335	202.881	85.5843	202.881	85.7582	202.881	85.3824	202.881	85.6394	202.881	85.139	202.881	85.4864	202.881	84.8715	202.881	85.3098	202.881	84.6029	202.881	85.1212	202.881	84.3599	202.881	84.9328	202.881	84.169	202.881	84.7572	202.881	84.0502	202.881	84.6063	202.881	84.0115	202.881	84.4903	202.881	84.0462	202.881	84.4162	202.881	84.1351	202.881	84.3857	202.881	84.2527	202.881	84.3946	202.881	84.3732	202.881	84.4329	202.881	84.4756	202.881	84.4862	202.881	84.5459	202.881	84.538	202.881	84.5779	202.881	84.5727
210.205	85.8534	210.205	85.8877	210.205	85.7583	210.205	85.8634	210.205	85.6038	210.205	85.7851	210.205	85.3958	210.205	85.6595	210.205	85.1456	210.205	85.4947	210.205	84.8707	210.205	85.3002	210.205	84.5947	210.205	85.0867	210.205	84.3451	210.205	84.8666	210.205	84.149	210.205	84.6536	210.205	84.0268	210.205	84.463	210.205	83.9862	210.205	84.3094	210.205	84.0195	210.205	84.2053	210.205	84.1061	210.205	84.157	210.205	84.2188	210.205	84.1629	210.205	84.33	210.205	84.2127	210.205	84.4177	210.205	84.2889	210.205	84.4674	210.205	84.3706	210.205	84.4731	210.205	84.4374
217.529	85.7303	217.529	85.7652	217.529	85.6326	217.529	85.7403	217.529	85.4732	217.529	85.6615	217.529	85.2578	217.529	85.5368	217.529	84.9982	217.529	85.3756	217.529	84.7132	217.529	85.1887	217.529	84.4284	217.529	84.9877	217.529	84.1741	217.529	84.7851	217.529	83.98	217.529	84.5942	217.529	83.8683	217.529	84.4283	217.529	83.8467	217.529	84.2997	217.529	83.9054	217.529	84.218	217.529	84.0205	217.529	84.1873	217.529	84.1614	217.529	84.2048	217.529	84.2985	217.529	84.2598	217.529	84.4082	217.529	84.3358	217.529	84.476	217.529	84.4129	217.529	84.4962	217.529	84.4717
225.586	85.8824	225.586	85.9262	225.586	85.766	225.586	85.9017	225.586	85.5765	225.586	85.8157	225.586	85.3185	225.586	85.6766	225.586	85.0034	225.586	85.4945	225.586	84.6513	225.586	85.28	225.586	84.2917	225.586	85.0452	225.586	83.9625	225.586	84.8035	225.586	83.7046	225.586	84.57	225.586	83.5511	225.586	84.3612	225.586	83.5164	225.586	84.194	225.586	83.5898	225.586	84.0824	225.586	83.7398	225.586	84.0341	225.586	83.9252	225.586	84.0471	225.586	84.1063	225.586	84.1088	225.586	84.2529	225.586	84.1977	225.586	84.3462	225.586	84.2883	225.586	84.3791	225.586	84.3555
232.91	85.9586	232.91	85.9716	232.91	85.8713	232.91	85.9161	232.91	85.7074	232.91	85.7998	232.91	85.4689	232.91	85.632	232.91	85.1635	232.91	85.4235	232.91	84.8068	232.91	85.1857	232.91	84.4238	232.91	84.9315	232.91	84.0495	232.91	84.6748	232.91	83.7262	232.91	84.4312	232.91	83.4949	232.91	84.2174	232.91	83.3833	232.91	84.0497	232.91	83.3948	232.91	83.9412	232.91	83.5066	232.91	83.8978	232.91	83.6782	232.91	83.9153	232.91	83.8652	232.91	83.9789	232.91	84.0299	232.91	84.0652	232.91	84.1467	232.91	84.1473	232.91	84.2034	232.91	84.1999
241.699	85.8167	241.699	85.8142	241.699	85.7484	241.699	85.7458	241.699	85.6073	241.699	85.6187	241.699	85.3953	241.699	85.4415	241.699	85.1198	241.699	85.2239	241.699	84.7945	241.699	84.9764	241.699	84.4412	241.699	84.7107	241.699	84.0897	241.699	84.4397	241.699	83.7756	241.699	84.1786	241.699	83.5342	241.699	83.9442	241.699	83.391	241.699	83.7544	241.699	83.3533	241.699	83.6244	241.699	83.4064	241.699	83.5631	241.699	83.5192	241.699	83.5686	241.699	83.6537	241.699	83.6268	241.699	83.7755	241.699	83.7144	241.699	83.8589	241.699	83.8037	241.699	83.8906	241.699	83.8689
249.756	85.9483	249.756	85.9449	249.756	85.8743	249.756	85.8683	249.756	85.7218	249.756	85.7246	249.756	85.4939	249.756	85.522	249.756	85.1991	249.756	85.2694	249.756	84.853	249.756	84.9774	249.756	84.4796	249.756	84.6583	249.756	84.111	249.756	84.3272	249.756	83.7853	249.756	84.0027	249.756	83.5389	249.756	83.7076	249.756	83.3968	249.756	83.4671	249.756	83.3629	249.756	83.3044	249.756	83.4186	249.756	83.2336	249.756	83.5287	249.756	83.2536	249.756	83.6528	249.756	83.3463	249.756	83.7551	249.756	83.4809	249.756	83.8099	249.756	83.622	249.756	83.8042	249.756	83.7376
258.545	85.956	258.545	85.9501	258.545	85.8892	258.545	85.8765	258.545	85.7473	258.545	85.7419	258.545	85.5319	258.545	85.5539	258.545	85.2495	258.545	85.3211	258.545	84.9131	258.545	85.0521	258.545	84.5442	258.545	84.7564	258.545	84.1723	258.545	84.4455	258.545	83.8343	258.545	84.1336	258.545	83.5675	258.545	83.8392	258.545	83.4003	258.545	83.5849	258.545	83.3417	258.545	83.3942	258.545	83.3769	258.545	83.2855	258.545	83.4726	258.545	83.2652	258.545	83.5878	258.545	83.3223	258.545	83.6848	258.545	83.4309	258.545	83.7366	258.545	83.5563	258.545	83.7296	258.545	83.6646
268.066	85.6519	268.066	85.6366	268.066	85.5963	268.066	85.5543	268.066	85.4686	268.066	85.4108	268.066	85.271	268.066	85.2132	268.066	85.0101	268.066	84.9694	268.066	84.6984	268.066	84.6879	268.066	84.355	268.066	84.3782	268.066	84.0063	268.066	84.0514	268.066	83.6844	268.066	83.7218	268.066	83.4226	268.066	83.4084	268.066	83.2474	268.066	83.1352	268.066	83.1691	268.066	82.9287	268.066	83.1773	268.066	82.8112	268.066	83.2434	268.066	82.7922	268.066	83.3293	268.066	82.8624	268.066	83.3979	268.066	82.9939	268.066	83.4212	268.066	83.1485	268.066	83.3845	268.066	83.2884
277.588	85.7753	277.588	85.8296	277.588	85.6433	277.588	85.8058	277.588	85.4382	277.588	85.7067	277.588	85.1694	277.588	85.5373	277.588	84.8527	277.588	85.3041	277.588	84.5099	277.588	85.0156	277.588	84.1684	277.588	84.6823	277.588	83.8581	277.588	84.3187	277.588	83.607	277.588	83.9445	277.588	83.4348	277.588	83.5864	277.588	83.3478	277.588	83.277	277.588	83.3377	277.588	83.0493	277.588	83.3839	277.588	82.9278	277.588	83.4592	277.588	82.9178	277.588	83.5353	277.588	83.0018	277.588	83.5868	277.588	83.1447	277.588	83.5949	277.588	83.3055	277.588	83.5489	277.588	83.4485
287.109	85.7518	287.109	85.8213	287.109	85.5971	287.109	85.8107	287.109	85.3568	287.109	85.7269	287.109	85.037	287.109	85.577	287.109	84.6533	287.109	85.367	287.109	84.2332	287.109	85.1018	287.109	83.817	287.109	84.7853	287.109	83.4538	287.109	84.4235	287.109	83.191	287.109	84.0279	287.109	83.0596	287.109	83.6199	287.109	83.0609	287.109	83.2346	287.109	83.1664	287.109	82.919	287.109	83.3293	287.109	82.7214	287.109	83.5	287.109	82.6717	287.109	83.6366	287.109	82.7649	287.109	83.7089	287.109	82.9606	287.109	83.6993	287.109	83.2006	287.109	83.6031	287.109	83.4287
297.363	85.7361	297.363	85.7541	297.363	85.6286	297.363	85.6957	297.363	85.4224	297.363	85.5757	297.363	85.1144	297.363	85.4085	297.363	84.7106	297.363	85.2062	297.363	84.2302	297.363	84.9762	297.363	83.7104	297.363	84.7211	297.363	83.2098	297.363	84.4392	297.363	82.8032	297.363	84.1278	297.363	82.5604	297.363	83.7881	297.363	82.5142	297.363	83.4311	297.363	82.6391	297.363	83.0832	297.363	82.8641	297.363	82.7863	297.363	83.1053	297.363	82.59	297.363	83.2933	297.363	82.5316	297.363	83.3846	297.363	82.6144	297.363	83.3621	297.363	82.8012	297.363	83.2335	297.363	83.0294
307.617	85.7414	307.617	85.7464	307.617	85.6433	307.617	85.6665	307.617	85.4475	307.617	85.513	307.617	85.1544	307.617	85.2994	307.617	84.7702	307.617	85.0411	307.617	84.3102	307.617	84.7543	307.617	83.8019	307.617	84.4548	307.617	83.2882	307.617	84.1571	307.617	82.8279	307.617	83.8744	307.617	82.4856	307.617	83.6185	307.617	82.3115	307.617	83.4011	307.617	82.3168	307.617	83.2334	307.617	82.4666	307.617	83.1253	307.617	82.696	307.617	83.0816	307.617	82.9369	307.617	83.0981	307.617	83.1371	307.617	83.1588	307.617	83.2668	307.617	83.2369	307.617	83.3179	307.617	83.3003
318.604	85.9369	318.604	85.9457	318.604	85.8261	318.604	85.864	318.604	85.6044	318.604	85.705	318.604	85.2684	318.604	85.4815	318.604	84.8221	318.604	85.2045	318.604	84.2811	318.604	84.8829	318.604	83.6775	318.604	84.5238	318.604	83.0647	318.604	84.1341	318.604	82.5169	318.604	83.724	318.604	82.1157	318.604	83.3111	318.604	81.9196	318.604	82.9239	318.604	81.9332	318.604	82.6012	318.604	82.1042	318.604	82.3836	318.604	82.3517	318.604	82.2975	318.604	82.5981	318.604	82.3395	318.604	82.7875	318.604	82.474	318.604	82.8878	318.604	82.6459	318.604	82.8887	318.604	82.799
329.59	85.6022	329.59	85.5595	329.59	85.5568	329.59	85.4406	329.59	85.414	329.59	85.2594	329.59	85.169	329.59	85.03	329.59	84.8231	329.59	84.7651	329.59	84.386	329.59	84.4749	329.59	83.8801	329.59	84.1662	329.59	83.344	329.59	83.8436	329.59	82.8353	329.59	83.512	329.59	82.4243	329.59	83.1806	329.59	82.1746	329.59	82.8674	329.59	82.114	329.59	82.6006	329.59	82.2177	329.59	82.4138	329.59	82.4193	329.59	82.3348	329.59	82.6412	329.59	82.3692	329.59	82.819	329.59	82.4933	329.59	82.9128	329.59	82.6596	329.59	82.908	329.59	82.8135
341.309	85.4479	341.309	85.4416	341.309	85.3532	341.309	85.3449	341.309	85.1509	341.309	85.1706	341.309	84.84	341.309	84.933	341.309	84.4277	341.309	84.6458	341.309	83.9323	341.309	84.321	341.309	83.3876	341.309	83.9689	341.309	82.8473	341.309	83.5987	341.309	82.3823	341.309	83.2215	341.309	82.0668	341.309	82.8541	341.309	81.9496	341.309	82.5234	341.309	82.0274	341.309	82.2656	341.309	82.245	341.309	82.1187	341.309	82.5219	341.309	82.1069	341.309	82.7819	341.309	82.2242	341.309	82.9693	341.309	82.432	341.309	83.052	341.309	82.6717	341.309	83.0201	341.309	82.8835
353.76	85.699	353.76	85.679	353.76	85.611	353.76	85.5637	353.76	85.4051	353.76	85.3667	353.76	85.0756	353.76	85.1013	353.76	84.6237	353.76	84.7792	353.76	84.061	353.76	84.4093	353.76	83.4156	353.76	83.9982	353.76	82.7403	353.76	83.5524	353.76	82.1171	353.76	83.0823	353.76	81.6488	353.76	82.6088	353.76	81.4224	353.76	82.1691	353.76	81.4595	353.76	81.8176	353.76	81.6997	353.76	81.6136	353.76	82.0359	353.76	81.594	353.76	82.3645	353.76	81.7475	353.76	82.6108	353.76	82.0143	353.76	82.7324	353.76	82.3118	353.76	82.7139	353.76	82.5634
366.211	85.8877	366.211	85.8811	366.211	85.7864	366.211	85.7828	366.211	85.5638	366.211	85.6092	366.211	85.2108	366.211	85.3754	366.211	84.7255	366.211	85.0918	366.211	84.1168	366.211	84.7632	366.211	83.4107	366.211	84.3881	366.211	82.6601	366.211	83.9615	366.211	81.9529	366.211	83.4792	366.211	81.4054	366.211	82.9462	366.211	81.1227	366.211	82.3866	366.211	81.1355	366.211	81.8537	366.211	81.3747	366.211	81.4299	366.211	81.7156	366.211	81.2025	366.211	82.0392	366.211	81.2139	366.211	82.263	366.211	81.4265	366.211	82.3426	366.211	81.7413	366.211	82.2655	366.211	82.0489
378.662	85.7533	378.662	85.6863	378.662	85.7191	378.662	85.5396	378.662	85.565	378.662	85.336	378.662	85.2769	378.662	85.0965	378.662	84.8471	378.662	84.8374	378.662	84.2781	378.662	84.5664	378.662	83.5894	378.662	84.2822	378.662	82.8298	378.662	83.9755	378.662	82.0917	378.662	83.6344	378.662	81.5119	378.662	83.2524	378.662	81.2282	378.662	82.8385	378.662	81.2912	378.662	82.4262	378.662	81.6184	378.662	82.0771	378.662	82.0534	378.662	81.8669	378.662	82.4537	378.662	81.8481	378.662	82.7282	378.662	82.0117	378.662	82.8355	378.662	82.2853	378.662	82.7726	378.662	82.5688
392.578	85.3373	392.578	85.2289	392.578	85.3528	392.578	85.0484	392.578	85.2563	392.578	84.818	392.578	85.0306	392.578	84.559	392.578	84.6619	392.578	84.2898	392.578	84.1415	392.578	84.0219	392.578	83.4712	392.578	83.7583	392.578	82.6738	392.578	83.493	392.578	81.8129	392.578	83.215	392.578	81.0164	392.578	82.9157	392.578	80.4733	392.578	82.5977	392.578	80.3446	392.578	82.283	392.578	80.6265	392.578	82.016	392.578	81.1448	392.578	81.853	392.578	81.6918	392.578	81.8346	392.578	82.1251	392.578	81.9552	392.578	82.3785	392.578	82.1555	392.578	82.442	392.578	82.3466
405.762	85.3693	405.762	85.2918	405.762	85.3373	405.762	85.121	405.762	85.182	405.762	84.8745	405.762	84.8925	405.762	84.5701	405.762	84.4611	405.762	84.2233	405.762	83.8862	405.762	83.845	405.762	83.1768	405.762	83.4412	405.762	82.3634	405.762	83.0139	405.762	81.5158	405.762	82.5664	405.762	80.7633	405.762	82.1127	405.762	80.2833	405.762	81.6868	405.762	80.2139	405.762	81.348	405.762	80.5374	405.762	81.1693	405.762	81.0869	405.762	81.2006	405.762	81.6675	405.762	81.4297	405.762	82.1403	405.762	81.7779	405.762	82.4321	405.762	82.1363	405.762	82.5177	405.762	82.4062
420.41	85.3638	420.41	85.2031	420.41	85.4418	420.41	84.9786	420.41	85.4194	420.41	84.7105	420.41	85.2798	420.41	84.4196	420.41	85.0064	420.41	84.123	420.41	84.5834	420.41	83.8296	420.41	83.9985	420.41	83.5365	420.41	83.2474	420.41	83.229	420.41	82.3475	420.41	82.8862	420.41	81.3626	420.41	82.4908	420.41	80.4415	420.41	82.0429	420.41	79.8231	420.41	81.5746	420.41	79.7109	420.41	81.159	420.41	80.0704	420.41	80.897	420.41	80.6503	420.41	80.8635	420.41	81.1952	420.41	81.044	420.41	81.5557	420.41	81.3304	420.41	81.6793	420.41	81.5811
435.059	85.2645	435.059	85.2034	435.059	85.2174	435.059	85.0452	435.059	85.0567	435.059	84.8059	435.059	84.7825	435.059	84.5039	435.059	84.399	435.059	84.1568	435.059	83.9148	435.059	83.7767	435.059	83.3438	435.059	83.3678	435.059	82.7088	435.059	82.9272	435.059	82.0486	435.059	82.4513	435.059	81.4272	435.059	81.9465	435.059	80.9364	435.059	81.4443	435.059	80.675	435.059	81.0131	435.059	80.6964	435.059	80.7495	435.059	80.962	435.059	80.7323	435.059	81.3548	435.059	80.9587	435.059	81.7392	435.059	81.3317	435.059	82.0084	435.059	81.7154	435.059	82.0999	435.059	81.9945
450.439	85.1446	450.439	85.0411	450.439	85.1393	450.439	84.8455	450.439	85.0144	450.439	84.5803	450.439	84.7641	450.439	84.2702	450.439	84.386	450.439	83.9365	450.439	83.8811	450.439	83.5892	450.439	83.2555	450.439	83.2226	450.439	82.5265	450.439	82.8157	450.439	81.7362	450.439	82.3397	450.439	80.9715	450.439	81.7725	450.439	80.3769	450.439	81.1207	450.439	80.1171	450.439	80.4505	450.439	80.2646	450.439	79.9143	450.439	80.7182	450.439	79.7149	450.439	81.2723	450.439	79.955	450.439	81.7381	450.439	80.5182	450.439	81.994	450.439	81.1645	450.439	81.9812	450.439	81.6904
466.553	84.941	466.553	84.7896	466.553	84.9699	466.553	84.5368	466.553	84.8629	466.553	84.2119	466.553	84.6129	466.553	83.849	466.553	84.2174	466.553	83.4791	466.553	83.6784	466.553	83.1196	466.553	83.0048	466.553	82.7662	466.553	82.2203	466.553	82.3931	466.553	81.3785	466.553	81.962	466.553	80.5847	466.553	81.4402	466.553	80.0048	466.553	80.8247	466.553	79.8082	466.553	80.1751	466.553	80.0396	466.553	79.6444	466.553	80.5599	466.553	79.4463	466.553	81.1485	466.553	79.6986	466.553	81.622	466.553	80.2877	466.553	81.869	466.553	80.9656	466.553	81.8374	466.553	81.5214
482.666	85.0796	482.666	84.9413	482.666	85.0721	482.666	84.6789	482.666	84.9062	482.666	84.3248	482.666	84.5764	482.666	83.9199	482.666	84.0814	482.666	83.5045	482.666	83.4234	482.666	83.1053	482.666	82.6102	482.666	82.7212	482.666	81.6634	482.666	82.3189	482.666	80.6396	482.666	81.8414	482.666	79.6695	482.666	81.2259	482.666	78.9888	482.666	80.4305	482.666	78.8543	482.666	79.4812	482.666	79.3063	482.666	78.5583	482.666	80.0933	482.666	78.0573	482.666	80.8944	482.666	78.3353	482.666	81.4885	482.666	79.2418	482.666	81.7581	482.666	80.2964	482.666	81.649	482.666	81.1486
500.244	86.5308	500.244	86.3461	500.244	86.5673	500.244	86.0394	500.244	86.4351	500.244	85.6434	500.244	86.1164	500.244	85.1959	500.244	85.5937	500.244	84.7327	500.244	84.847	500.244	84.2764	500.244	83.8516	500.244	83.823	500.244	82.5766	500.244	83.3363	500.244	80.9936	500.244	82.7511	500.244	79.121	500.244	81.9829	500.244	77.1891	500.244	80.9407	500.244	75.954	500.244	79.5483	500.244	76.2415	500.244	77.8225	500.244	77.5459	500.244	76.132	500.244	78.8785	500.244	75.4982	500.244	79.7962	500.244	76.4504	500.244	80.1822	500.244	77.9932	500.244	80.008	500.244	79.2656
517.822	86.0571	517.822	85.8396	517.822	86.1624	517.822	85.5227	517.822	86.1582	517.822	85.1403	517.822	86.0532	517.822	84.7464	517.822	85.8521	517.822	84.4037	517.822	85.5473	517.822	84.1583	517.822	85.1153	517.822	84.0135	517.822	84.5175	517.822	83.9193	517.822	83.7054	517.822	83.7869	517.822	82.6309	517.822	83.5125	517.822	81.2732	517.822	82.996	517.822	79.7226	517.822	82.1525	517.822	78.3584	517.822	80.9352	517.822	77.8407	517.822	79.4141	517.822	78.3094	517.822	77.9785	517.822	79.0843	517.822	77.4064	517.822	79.5576	517.822	77.9545	517.822	79.4896	517.822	78.874
536.133	85.9835	536.133	85.6986	536.133	86.0662	536.133	85.227	536.133	85.9508	536.133	84.6052	536.133	85.6613	536.133	83.8945	536.133	85.2389	536.133	83.1845	536.133	84.731	536.133	82.585	536.133	84.1716	536.133	82.1863	536.133	83.5605	536.133	81.9974	536.133	82.8572	536.133	81.9204	536.133	82.0018	536.133	81.7927	536.133	80.9649	536.133	81.4511	536.133	79.8464	536.133	80.7733	536.133	79.0078	536.133	79.7216	536.133	78.9365	536.133	78.4694	536.133	79.6032	536.133	77.6291	536.133	80.424	536.133	77.9256	536.133	80.9107	536.133	79.0658	536.133	80.8484	536.133	80.1935
554.443	85.6263	554.443	85.3037	554.443	85.7962	554.443	84.8422	554.443	85.8176	554.443	84.2772	554.443	85.7073	554.443	83.6695	554.443	85.4858	554.443	83.1032	554.443	85.1667	554.443	82.6687	554.443	84.745	554.443	82.4219	554.443	84.1908	554.443	82.3416	554.443	83.4513	554.443	82.3237	554.443	82.4603	554.443	82.2184	554.443	81.1628	554.443	81.8707	554.443	79.5869	554.443	81.1367	554.443	78.0285	554.443	79.8876	554.443	77.1937	554.443	78.0501	554.443	77.4652	554.443	75.8674	554.443	78.1706	554.443	74.6142	554.443	78.5376	554.443	75.4971	554.443	78.2154	554.443	77.1161
574.219	85.0445	574.219	84.5618	574.219	85.3599	574.219	83.9322	574.219	85.5066	574.219	83.1986	574.219	85.5002	574.219	82.4336	574.219	85.3693	574.219	81.7473	574.219	85.1452	574.219	81.2734	574.219	84.8449	574.219	81.1077	574.219	84.4547	574.219	81.2268	574.219	83.923	574.219	81.4793	574.219	83.1684	574.219	81.6622	574.219	82.1015	574.219	81.5895	574.219	80.6747	574.219	81.1091	574.219	79.0183	574.219	80.0947	574.219	77.6936	574.219	78.4678	574.219	77.4353	574.219	76.3978	574.219	77.966	574.219	74.9458	574.219	78.3586	574.219	75.5001	574.219	78.0823	574.219	77.0128
594.727	83.7536	594.727	83.4045	594.727	83.9084	594.727	82.8227	594.727	83.9305	594.727	81.9968	594.727	83.9005	594.727	80.9597	594.727	83.9001	594.727	79.8455	594.727	83.9785	594.727	78.9858	594.727	84.1228	594.727	78.8451	594.727	84.2564	594.727	79.5352	594.727	84.2672	594.727	80.6149	594.727	84.0382	594.727	81.5901	594.727	83.4649	594.727	82.1796	594.727	82.4685	594.727	82.2431	594.727	81.0335	594.727	81.6884	594.727	79.3134	594.727	80.4333	594.727	77.7722	594.727	78.4403	594.727	76.907	594.727	75.9865	594.727	76.4851	594.727	74.3741	594.727	75.8327	594.727	74.7763
615.234	84.8057	615.234	84.7952	615.234	84.5846	615.234	84.5513	615.234	84.1485	615.234	84.073	615.234	83.54	615.234	83.3473	615.234	82.8348	615.234	82.3446	615.234	82.1417	615.234	81.0367	615.234	81.5896	615.234	79.478	615.234	81.2901	615.234	78.0302	615.234	81.2731	615.234	77.5204	615.234	81.4473	615.234	78.3033	615.234	81.6427	615.234	79.568	615.234	81.6973	615.234	80.5546	615.234	81.5165	615.234	80.9883	615.234	81.0926	615.234	80.8326	615.234	80.4957	615.234	80.1744	615.234	79.8308	615.234	79.2534	615.234	79.1778	615.234	78.4948	615.234	78.6045	615.234	78.2851
637.207	85.6873	637.207	85.5648	637.207	85.5795	637.207	85.2343	637.207	85.2295	637.207	84.7199	637.207	84.6446	637.207	84.0386	637.207	83.8607	637.207	83.196	637.207	82.9554	637.207	82.1958	637.207	82.0534	637.207	81.0731	637.207	81.2988	637.207	79.9584	637.207	80.7749	637.207	79.1239	637.207	80.4451	637.207	78.8336	637.207	80.2112	637.207	79.0134	637.207	80.0368	637.207	79.2812	637.207	80.0013	637.207	79.3043	637.207	80.2023	637.207	78.9815	637.207	80.5782	637.207	78.5017	637.207	80.897	637.207	78.337	637.207	80.9191	637.207	78.8347	637.207	80.5171	637.207	79.7294
659.912	85.5708	659.912	85.4847	659.912	85.4259	659.912	85.176	659.912	85.0654	659.912	84.6731	659.912	84.5277	659.912	84.0164	659.912	83.8651	659.912	83.2509	659.912	83.1338	659.912	82.4201	659.912	82.3898	659.912	81.5688	659.912	81.6861	659.912	80.7609	659.912	81.0493	659.912	80.1041	659.912	80.4442	659.912	79.724	659.912	79.7897	659.912	79.6433	659.912	79.0749	659.912	79.6943	659.912	78.5194	659.912	79.6192	659.912	78.503	659.912	79.2486	659.912	79.0426	659.912	78.6358	659.912	79.6586	659.912	78.1521	659.912	79.9084	659.912	78.2749	659.912	79.6338	659.912	78.9505
683.35	86.6694	683.35	86.5649	683.35	86.5244	683.35	86.2366	683.35	86.1205	683.35	85.715	683.35	85.4732	683.35	85.024	683.35	84.6253	683.35	84.175	683.35	83.6489	683.35	83.1718	683.35	82.6545	683.35	82.0345	683.35	81.7997	683.35	80.8554	683.35	81.2358	683.35	79.8716	683.35	80.9631	683.35	79.406	683.35	80.7762	683.35	79.5145	683.35	80.4348	683.35	79.8218	683.35	79.8958	683.35	79.8853	683.35	79.4672	683.35	79.5016	683.35	79.6065	683.35	78.8467	683.35	80.2378	683.35	78.5695	683.35	80.7752	683.35	79.1711	683.35	80.7786	683.35	80.1497
706.787	87.7085	706.787	87.4411	706.787	87.6977	706.787	86.938	706.787	87.3887	706.787	86.2536	706.787	86.7908	706.787	85.4434	706.787	85.9428	706.787	84.5559	706.787	84.9117	706.787	83.6302	706.787	83.8051	706.787	82.6982	706.787	82.7939	706.787	81.7957	706.787	82.0741	706.787	80.9805	706.787	81.6933	706.787	80.3424	706.787	81.4545	706.787	79.9568	706.787	81.1232	706.787	79.7706	706.787	80.7185	706.787	79.5574	706.787	80.5945	706.787	79.0705	706.787	81.0071	706.787	78.3378	706.787	81.6141	706.787	78.0056	706.787	81.8609	706.787	78.8348	706.787	81.4311	706.787	80.2958
731.689	87.8682	731.689	87.6132	731.689	87.8912	731.689	87.1479	731.689	87.6637	731.689	86.4917	731.689	87.1757	731.689	85.6662	731.689	86.4235	731.689	84.7116	731.689	85.4095	731.689	83.7016	731.689	84.1727	731.689	82.7306	731.689	82.8754	731.689	81.8738	731.689	81.872	731.689	81.1773	731.689	81.452	731.689	80.7148	731.689	81.3939	731.689	80.5782	731.689	81.211	731.689	80.6767	731.689	80.7238	731.689	80.6419	731.689	80.3037	731.689	80.047	731.689	80.5222	731.689	78.6918	731.689	81.1664	731.689	77.1912	731.689	81.4604	731.689	77.4845	731.689	80.9015	731.689	79.3747
758.057	87.6489	758.057	87.363	758.057	87.7041	758.057	86.8672	758.057	87.5359	758.057	86.2057	758.057	87.1636	758.057	85.4314	758.057	86.5812	758.057	84.5894	758.057	85.7292	758.057	83.7003	758.057	84.5207	758.057	82.7448	758.057	82.9509	758.057	81.6632	758.057	81.319	758.057	80.4063	758.057	80.3381	758.057	79.1117	758.057	80.3078	758.057	78.3438	758.057	80.5479	758.057	78.5924	758.057	80.4901	758.057	79.2643	758.057	80.23	758.057	79.46	758.057	80.2647	758.057	78.8419	758.057	80.7145	758.057	77.8853	758.057	81.0254	758.057	78.0248	758.057	80.6437	758.057	79.4302
784.424	87.8096	784.424	87.4733	784.424	87.8072	784.424	86.8098	784.424	87.5145	784.424	85.8653	784.424	87.0465	784.424	84.707	784.424	86.5259	784.424	83.4445	784.424	85.9695	784.424	82.2875	784.424	85.2521	784.424	81.5315	784.424	84.222	784.424	81.2836	784.424	82.8573	784.424	81.2354	784.424	81.3591	784.424	80.9574	784.424	80.0704	784.424	80.287	784.424	79.2182	784.424	79.4775	784.424	78.9192	784.424	78.9322	784.424	79.2883	784.424	78.4669	784.424	80.0744	784.424	77.4384	784.424	80.6982	784.424	75.9007	784.424	80.6936	784.424	75.8432	784.424	79.7859	784.424	77.9014
812.256	87.467	812.256	87.0208	812.256	87.5839	812.256	86.3029	812.256	87.3317	812.256	85.3543	812.256	86.7426	812.256	84.1853	812.256	85.9615	812.256	82.7743	812.256	85.1816	812.256	81.0921	812.256	84.4485	812.256	79.2354	812.256	83.6088	812.256	77.7651	812.256	82.5649	812.256	77.5265	812.256	81.4925	812.256	78.1958	812.256	80.6135	812.256	78.8213	812.256	79.7168	812.256	79.1607	812.256	78.4686	812.256	79.3813	812.256	77.4627	812.256	79.3717	812.256	78.1061	812.256	78.7126	812.256	79.6438	812.256	77.4151	812.256	80.4986	812.256	77.0205	812.256	80.1244	812.256	78.5862
840.82	87.4001	840.82	86.8572	840.82	87.5682	840.82	85.9738	840.82	87.3801	840.82	84.8436	840.82	86.8903	840.82	83.6045	840.82	86.1633	840.82	82.3844	840.82	85.2502	840.82	81.241	840.82	84.1931	840.82	80.1796	840.82	83.062	840.82	79.2452	840.82	81.9728	840.82	78.5077	840.82	81.0307	840.82	77.8935	840.82	80.2621	840.82	77.2723	840.82	79.6543	840.82	76.902	840.82	79.2548	840.82	77.2136	840.82	79.2168	840.82	77.719	840.82	79.6413	840.82	77.5194	840.82	80.2395	840.82	76.5385	840.82	80.4189	840.82	76.3443	840.82	79.7025	840.82	78.0106
870.85	87.187	870.85	86.4621	870.85	87.5185	870.85	85.4637	870.85	87.393	870.85	84.3508	870.85	86.8388	870.85	83.2778	870.85	86.0126	870.85	82.296	870.85	85.1183	870.85	81.283	870.85	84.1694	870.85	80.0164	870.85	82.9724	870.85	78.3978	870.85	81.5794	870.85	76.8251	870.85	80.6557	870.85	76.1695	870.85	80.4955	870.85	76.3997	870.85	80.2162	870.85	76.7652	870.85	79.2836	870.85	77.194	870.85	78.5998	870.85	77.6625	870.85	79.4567	870.85	77.5022	870.85	80.731	870.85	76.2126	870.85	81.0562	870.85	75.3295	870.85	79.9804	870.85	77.5094
901.611	87.5295	901.611	86.8031	901.611	87.841	901.611	85.7262	901.611	87.7581	901.611	84.4839	901.611	87.3514	901.611	83.3421	901.611	86.7298	901.611	82.4896	901.611	85.9927	901.611	81.8964	901.611	85.1103	901.611	81.3472	901.611	83.9088	901.611	80.5995	901.611	82.3856	901.611	79.5419	901.611	81.2376	901.611	78.2794	901.611	81.193	901.611	77.1227	901.611	81.3427	901.611	76.5184	901.611	80.5997	901.611	76.7498	901.611	79.1746	901.611	77.335	901.611	79.1232	901.611	77.3425	901.611	80.5605	901.611	76.2796	901.611	81.1265	901.611	75.3637	901.611	79.9917	901.611	77.3575
933.105	88.0664	933.105	87.2018	933.105	88.4725	933.105	86.0745	933.105	88.3707	933.105	84.9877	933.105	87.7957	933.105	84.0959	933.105	86.8495	933.105	83.2216	933.105	85.7574	933.105	82.0862	933.105	84.7868	933.105	80.656	933.105	83.857	933.105	79.3286	933.105	82.5033	933.105	78.6361	933.105	80.6022	933.105	78.4447	933.105	79.3322	933.105	78.19	933.105	79.6532	933.105	77.7385	933.105	80.0005	933.105	77.5758	933.105	79.6574	933.105	78.0804	933.105	79.6691	933.105	78.6558	933.105	80.3993	933.105	78.4799	933.105	80.4199	933.105	77.4754	933.105	79.0303	933.105	77.2879
966.064	87.8257	966.064	86.8833	966.064	88.3695	966.064	85.7839	966.064	88.4012	966.064	84.799	966.064	87.9318	966.064	84.0333	966.064	87.0988	966.064	83.3671	966.064	86.1403	966.064	82.5587	966.064	85.1786	966.064	81.3405	966.064	83.982	966.064	79.6313	966.064	82.221	966.064	78.1415	966.064	80.2504	966.064	78.1517	966.064	79.5171	966.064	78.8868	966.064	79.7535	966.064	78.9308	966.064	79.143	966.064	78.1686	966.064	77.4911	966.064	77.4632	966.064	77.5444	966.064	77.3423	966.064	79.6519	966.064	77.2187	966.064	80.7234	966.064	77.2677	966.064	80.151	966.064	78.5111
999.756	87.2887	999.756	86.2783	999.756	87.93	999.756	85.29	999.756	88.0201	999.756	84.6905	999.756	87.5435	999.756	84.4467	999.756	86.6051	999.756	84.2727	999.756	85.4731	999.756	83.9518	999.756	84.5118	999.756	83.3078	999.756	83.735	999.756	82.1091	999.756	82.6703	999.756	80.1293	999.756	81.0311	999.756	77.3737	999.756	79.4477	999.756	74.6928	999.756	78.8776	999.756	73.9645	999.756	78.5136	999.756	75.1545	999.756	77.512	999.756	76.526	999.756	77.5247	999.756	76.9776	999.756	79.4112	999.756	76.2999	999.756	80.6105	999.756	76.074	999.756	80.116	999.756	78.0941
1,034.91	86.7151	1,034.91	85.6997	1,034.91	87.5141	1,034.91	84.8266	1,034.91	87.8272	1,034.91	84.2109	1,034.91	87.5563	1,034.91	83.6607	1,034.91	86.7034	1,034.91	83.0305	1,034.91	85.3881	1,034.91	82.3994	1,034.91	83.9539	1,034.91	81.895	1,034.91	82.7289	1,034.91	81.4087	1,034.91	81.4463	1,034.91	80.6679	1,034.91	79.7679	1,034.91	79.6346	1,034.91	78.7462	1,034.91	78.6192	1,034.91	79.3903	1,034.91	77.5998	1,034.91	79.7471	1,034.91	75.9493	1,034.91	78.5577	1,034.91	74.1753	1,034.91	77.3979	1,034.91	74.5033	1,034.91	79.1052	1,034.91	75.2295	1,034.91	80.6197	1,034.91	75.4888	1,034.91	80.0856	1,034.91	77.6703
1,071.53	86.002	1,071.53	84.8147	1,071.53	87.1815	1,071.53	84.0561	1,071.53	87.8314	1,071.53	83.6543	1,071.53	87.6771	1,071.53	83.2382	1,071.53	86.7277	1,071.53	82.5121	1,071.53	85.3397	1,071.53	81.4119	1,071.53	84.1038	1,071.53	80.3271	1,071.53	83.053	1,071.53	79.9713	1,071.53	81.5396	1,071.53	80.1859	1,071.53	79.5049	1,071.53	80.0433	1,071.53	78.6031	1,071.53	79.1321	1,071.53	79.2451	1,071.53	77.907	1,071.53	79.2591	1,071.53	77.2182	1,071.53	78.1248	1,071.53	76.8443	1,071.53	77.924	1,071.53	75.9316	1,071.53	79.5743	1,071.53	74.1317	1,071.53	80.3223	1,071.53	72.6953	1,071.53	78.9828	1,071.53	75.5458
1,109.62	84.7536	1,109.62	83.1903	1,109.62	86.3225	1,109.62	82.2783	1,109.62	87.4648	1,109.62	82.2288	1,109.62	87.9701	1,109.62	82.6153	1,109.62	87.6745	1,109.62	82.8498	1,109.62	86.5268	1,109.62	82.4149	1,109.62	84.9205	1,109.62	81.1177	1,109.62	83.709	1,109.62	79.6217	1,109.62	82.7204	1,109.62	79.0727	1,109.62	80.5281	1,109.62	78.7893	1,109.62	76.8585	1,109.62	77.9378	1,109.62	77.8075	1,109.62	77.9331	1,109.62	80.2467	1,109.62	78.9687	1,109.62	79.6499	1,109.62	78.7166	1,109.62	77.0538	1,109.62	76.3997	1,109.62	78.2794	1,109.62	73.661	1,109.62	79.6625	1,109.62	72.6528	1,109.62	77.7846	1,109.62	73.8238
1,148.44	83.6173	1,148.44	84.2	1,148.44	85.0137	1,148.44	85.6154	1,148.44	86.9289	1,148.44	86.5676	1,148.44	88.1244	1,148.44	86.9412	1,148.44	88.3114	1,148.44	86.9344	1,148.44	87.5475	1,148.44	86.3744	1,148.44	86.2472	1,148.44	84.7178	1,148.44	85.2547	1,148.44	81.705	1,148.44	84.75	1,148.44	79.3606	1,148.44	83.5784	1,148.44	80.2364	1,148.44	80.7659	1,148.44	80.6457	1,148.44	78.6095	1,148.44	79.5017	1,148.44	80.509	1,148.44	79.3313	1,148.44	81.3213	1,148.44	80.647	1,148.44	80.3297	1,148.44	80.626	1,148.44	80.4342	1,148.44	78.6902	1,148.44	80.6863	1,148.44	75.4866	1,148.44	78.1028	1,148.44	73.8741
1,189.45	86.8285	1,189.45	88.0723	1,189.45	85.6738	1,189.45	88.7482	1,189.45	85.5705	1,189.45	88.699	1,189.45	86.3572	1,189.45	88.0572	1,189.45	86.9272	1,189.45	87.1111	1,189.45	86.6532	1,189.45	85.9682	1,189.45	85.6249	1,189.45	84.2534	1,189.45	84.6015	1,189.45	81.3505	1,189.45	83.969	1,189.45	77.3303	1,189.45	82.635	1,189.45	76.2761	1,189.45	79.6479	1,189.45	77.7132	1,189.45	77.8614	1,189.45	77.2796	1,189.45	79.5163	1,189.45	76.5513	1,189.45	79.3436	1,189.45	78.682	1,189.45	77.873	1,189.45	80.1367	1,189.45	79.4628	1,189.45	79.3377	1,189.45	79.9936	1,189.45	76.791	1,189.45	77.4389	1,189.45	74.8026
1,231.2	87.483	1,231.2	88.1967	1,231.2	86.2699	1,231.2	88.1969	1,231.2	85.054	1,231.2	87.4382	1,231.2	84.4283	1,231.2	86.0757	1,231.2	84.3219	1,231.2	84.644	1,231.2	84.1107	1,231.2	83.7303	1,231.2	83.5513	1,231.2	83.0007	1,231.2	83.0304	1,231.2	81.5081	1,231.2	82.7658	1,231.2	78.368	1,231.2	81.9473	1,231.2	73.8762	1,231.2	79.5291	1,231.2	74.0955	1,231.2	75.9762	1,231.2	75.2002	1,231.2	75.7934	1,231.2	73.7036	1,231.2	75.9201	1,231.2	75.5114	1,231.2	72.9755	1,231.2	78.9253	1,231.2	73.6561	1,231.2	79.5941	1,231.2	75.2319	1,231.2	77.4528	1,231.2	72.9346	1,231.2	73.001
1,274.41	87.4021	1,274.41	87.6732	1,274.41	86.5366	1,274.41	87.3071	1,274.41	85.1663	1,274.41	86.1709	1,274.41	83.7089	1,274.41	84.1911	1,274.41	82.5844	1,274.41	81.7556	1,274.41	81.4055	1,274.41	79.9797	1,274.41	79.8259	1,274.41	79.1415	1,274.41	79.0712	1,274.41	77.9303	1,274.41	79.7986	1,274.41	75.1247	1,274.41	79.9033	1,274.41	70.6396	1,274.41	78.0897	1,274.41	71.1455	1,274.41	75.3499	1,274.41	73.1143	1,274.41	75.6685	1,274.41	71.6594	1,274.41	76.0407	1,274.41	70.8277	1,274.41	73.5279	1,274.41	74.7859	1,274.41	70.5407	1,274.41	76.8237	1,274.41	70.77	1,274.41	76.4766	1,274.41	71.3406	1,274.41	74.1798
1,319.82	86.8622	1,319.82	86.8179	1,319.82	86.3611	1,319.82	86.0357	1,319.82	85.3813	1,319.82	84.2975	1,319.82	83.9516	1,319.82	81.4578	1,319.82	82.2437	1,319.82	77.6077	1,319.82	80.3865	1,319.82	73.9395	1,319.82	78.2346	1,319.82	73.4694	1,319.82	76.5818	1,319.82	75.0583	1,319.82	76.8805	1,319.82	75.3325	1,319.82	77.0095	1,319.82	72.6638	1,319.82	74.9838	1,319.82	65.7855	1,319.82	71.8438	1,319.82	68.1747	1,319.82	72.8899	1,319.82	70.4483	1,319.82	73.7947	1,319.82	67.8275	1,319.82	71.6091	1,319.82	70.2222	1,319.82	69.6997	1,319.82	74.1463	1,319.82	70.908	1,319.82	74.9909	1,319.82	72.4398	1,319.82	74.0889
1,365.97	86.2748	1,365.97	85.8846	1,365.97	86.2751	1,365.97	84.916	1,365.97	85.8853	1,365.97	83.2897	1,365.97	84.8932	1,365.97	81.1852	1,365.97	83.2837	1,365.97	78.9341	1,365.97	81.4645	1,365.97	76.4054	1,365.97	79.5093	1,365.97	72.8026	1,365.97	76.773	1,365.97	72.0506	1,365.97	74.6583	1,365.97	75.4839	1,365.97	75.5868	1,365.97	76.4268	1,365.97	75.3569	1,365.97	74.2683	1,365.97	71.7869	1,365.97	70.9327	1,365.97	67.7934	1,365.97	71.5068	1,365.97	71.1153	1,365.97	69.0224	1,365.97	72.3139	1,365.97	63.092	1,365.97	72.0121	1,365.97	72.6911	1,365.97	72.6623	1,365.97	74.9739	1,365.97	73.3695	1,365.97	74.2301
1,414.31	86.1766	1,414.31	85.2894	1,414.31	86.4837	1,414.31	83.6184	1,414.31	86.3006	1,414.31	81.2542	1,414.31	85.4991	1,414.31	79.0665	1,414.31	83.9762	1,414.31	78.1346	1,414.31	81.8447	1,414.31	78.0185	1,414.31	79.2266	1,414.31	77.3933	1,414.31	76.2629	1,414.31	75.5254	1,414.31	74.7446	1,414.31	73.4531	1,414.31	75.3131	1,414.31	73.2303	1,414.31	74.8011	1,414.31	73.1404	1,414.31	72.0838	1,414.31	72.4014	1,414.31	69.5048	1,414.31	72.7434	1,414.31	69.6816	1,414.31	72.1428	1,414.31	69.1392	1,414.31	67.622	1,414.31	70.7644	1,414.31	67.76	1,414.31	73.4409	1,414.31	72.2772	1,414.31	74.2896	1,414.31	73.842
1,464.11	85.9263	1,464.11	84.212	1,464.11	86.7083	1,464.11	81.7496	1,464.11	86.7661	1,464.11	79.8558	1,464.11	86.1469	1,464.11	79.3883	1,464.11	84.6596	1,464.11	79.0331	1,464.11	82.2015	1,464.11	78.2907	1,464.11	79.1033	1,464.11	77.5022	1,464.11	76.0788	1,464.11	76.5679	1,464.11	73.5749	1,464.11	75.184	1,464.11	72.5142	1,464.11	73.8545	1,464.11	72.8691	1,464.11	73.7536	1,464.11	72.9439	1,464.11	74.623	1,464.11	72.743	1,464.11	75.0567	1,464.11	72.4045	1,464.11	73.8499	1,464.11	71.0534	1,464.11	70.4104	1,464.11	71.5046	1,464.11	67.7525	1,464.11	74.1399	1,464.11	69.8092	1,464.11	74.439	1,464.11	72.4872
1,515.38	84.457	1,515.38	82.8332	1,515.38	85.888	1,515.38	82.218	1,515.38	86.4602	1,515.38	82.2881	1,515.38	86.2103	1,515.38	82.0299	1,515.38	85.2616	1,515.38	81.1829	1,515.38	83.5634	1,515.38	79.9722	1,515.38	80.9138	1,515.38	78.7776	1,515.38	77.2286	1,515.38	77.4908	1,515.38	74.1218	1,515.38	75.6496	1,515.38	73.8964	1,515.38	73.3043	1,515.38	73.2624	1,515.38	71.1441	1,515.38	71.2799	1,515.38	71.768	1,515.38	71.9329	1,515.38	74.4869	1,515.38	74.0288	1,515.38	74.9122	1,515.38	73.2414	1,515.38	72.3416	1,515.38	72.4848	1,515.38	71.8377	1,515.38	74.4693	1,515.38	72.5585	1,515.38	72.7122	1,515.38	70.1812
1,568.85	83.8708	1,568.85	83.3959	1,568.85	84.9876	1,568.85	83.4524	1,568.85	85.6917	1,568.85	83.3966	1,568.85	85.5302	1,568.85	83.0218	1,568.85	84.7815	1,568.85	81.9935	1,568.85	83.6065	1,568.85	80.2104	1,568.85	81.6462	1,568.85	78.2941	1,568.85	78.48	1,568.85	76.7491	1,568.85	74.6023	1,568.85	75.4805	1,568.85	72.4466	1,568.85	74.8316	1,568.85	72.0291	1,568.85	74.0268	1,568.85	71.1714	1,568.85	70.4243	1,568.85	71.1913	1,568.85	69.7469	1,568.85	74.2012	1,568.85	73.4642	1,568.85	75.1388	1,568.85	72.4838	1,568.85	74.014	1,568.85	70.4071	1,568.85	73.6845	1,568.85	72.3225	1,568.85	71.5385	1,568.85	71.2029
1,624.51	83.6519	1,624.51	84.0474	1,624.51	83.9585	1,624.51	84.4302	1,624.51	84.8095	1,624.51	84.5902	1,624.51	84.8644	1,624.51	84.0273	1,624.51	83.8152	1,624.51	82.211	1,624.51	82.398	1,624.51	79.3958	1,624.51	80.7399	1,624.51	77.4561	1,624.51	77.494	1,624.51	77.7178	1,624.51	72.1957	1,624.51	77.5992	1,624.51	72.1501	1,624.51	75.6109	1,624.51	73.7248	1,624.51	74.0934	1,624.51	71.9941	1,624.51	73.8332	1,624.51	71.2105	1,624.51	71.9467	1,624.51	74.0082	1,624.51	72.3801	1,624.51	73.079	1,624.51	73.2302	1,624.51	71.3109	1,624.51	71.0614	1,624.51	72.2678	1,624.51	71.2224	1,624.51	70.8862	1,624.51	71.1814
1,681.64	83.9129	1,681.64	84.5856	1,681.64	83.6775	1,681.64	85.1307	1,681.64	84.2983	1,681.64	85.1746	1,681.64	84.572	1,681.64	84.3239	1,681.64	83.5531	1,681.64	82.632	1,681.64	81.6407	1,681.64	80.5882	1,681.64	79.7286	1,681.64	78.5519	1,681.64	77.3736	1,681.64	77.4202	1,681.64	73.7426	1,681.64	77.2196	1,681.64	71.9757	1,681.64	76.0423	1,681.64	73.0316	1,681.64	74.493	1,681.64	72.4305	1,681.64	74.763	1,681.64	71.7561	1,681.64	73.9391	1,681.64	73.2417	1,681.64	72.1242	1,681.64	72.3894	1,681.64	73.3768	1,681.64	71.2066	1,681.64	72.9902	1,681.64	71.5536	1,681.64	71.4834	1,681.64	70.6254	1,681.64	71.2614
1,740.97	84.7286	1,740.97	85.3651	1,740.97	83.9943	1,740.97	85.4278	1,740.97	83.9574	1,740.97	84.5394	1,740.97	84.3763	1,740.97	82.8132	1,740.97	83.8978	1,740.97	81.0677	1,740.97	82.1588	1,740.97	79.7301	1,740.97	79.8462	1,740.97	77.7679	1,740.97	77.6694	1,740.97	75.1074	1,740.97	74.55	1,740.97	74.416	1,740.97	71.064	1,740.97	74.5165	1,740.97	72.8502	1,740.97	73.2391	1,740.97	74.1896	1,740.97	72.9646	1,740.97	73.216	1,740.97	73.9882	1,740.97	73.854	1,740.97	72.3321	1,740.97	72.3764	1,740.97	67.2558	1,740.97	69.4994	1,740.97	69.4	1,740.97	71.3717	1,740.97	71.7361	1,740.97	70.3699	1,740.97	70.2307
1,802.49	85.1333	1,802.49	85.5865	1,802.49	84.2672	1,802.49	85.2165	1,802.49	83.6178	1,802.49	83.6028	1,802.49	83.6872	1,802.49	81.2408	1,802.49	83.415	1,802.49	79.8209	1,802.49	81.978	1,802.49	79.1444	1,802.49	79.6444	1,802.49	77.7985	1,802.49	77.0989	1,802.49	75.6436	1,802.49	73.5553	1,802.49	73.4618	1,802.49	69.646	1,802.49	72.2065	1,802.49	73.6477	1,802.49	71.2	1,802.49	75.4041	1,802.49	69.1152	1,802.49	72.781	1,802.49	70.6426	1,802.49	72.7074	1,802.49	73.0938	1,802.49	71.8902	1,802.49	71.119	1,802.49	69.0594	1,802.49	68.3907	1,802.49	70.7647	1,802.49	73.0804	1,802.49	67.695	1,802.49	72.2832
1,866.21	85.2059	1,866.21	85.7714	1,866.21	84.2449	1,866.21	85.0307	1,866.21	83.5301	1,866.21	83.155	1,866.21	83.2338	1,866.21	82.209	1,866.21	82.9387	1,866.21	82.3089	1,866.21	81.7738	1,866.21	81.427	1,866.21	79.4667	1,866.21	79.1582	1,866.21	77.0678	1,866.21	76.75	1,866.21	74.9651	1,866.21	75.5784	1,866.21	71.5437	1,866.21	75.4297	1,866.21	72.4577	1,866.21	75.3018	1,866.21	74.3653	1,866.21	73.1203	1,866.21	71.6436	1,866.21	68.6044	1,866.21	72.0175	1,866.21	71.4869	1,866.21	72.6506	1,866.21	72.0923	1,866.21	67.0817	1,866.21	69.5658	1,866.21	66.5085	1,866.21	72.4885	1,866.21	67.7557	1,866.21	72.1096
1,932.13	84.5014	1,932.13	84.8946	1,932.13	83.5329	1,932.13	84.1379	1,932.13	83.1715	1,932.13	83.3319	1,932.13	83.0639	1,932.13	82.8538	1,932.13	82.6496	1,932.13	81.7588	1,932.13	81.7932	1,932.13	80.0226	1,932.13	80.0999	1,932.13	78.0009	1,932.13	77.5262	1,932.13	76.2234	1,932.13	74.396	1,932.13	75.2219	1,932.13	69.3944	1,932.13	74.2748	1,932.13	68.7504	1,932.13	73.8245	1,932.13	72.575	1,932.13	73.9338	1,932.13	70.9681	1,932.13	71.2489	1,932.13	72.2867	1,932.13	69.351	1,932.13	73.8021	1,932.13	72.0625	1,932.13	69.9435	1,932.13	70.9815	1,932.13	67.4122	1,932.13	71.167	1,932.13	67.6074	1,932.13	71.0618
2,000.24	85.0325	2,000.24	85.0161	2,000.24	83.846	2,000.24	84.1732	2,000.24	82.7343	2,000.24	83.3573	2,000.24	82.575	2,000.24	82.2356	2,000.24	82.2471	2,000.24	80.7433	2,000.24	81.3511	2,000.24	79.3948	2,000.24	79.6883	2,000.24	77.7593	2,000.24	77.0853	2,000.24	76.0869	2,000.24	73.81	2,000.24	75.974	2,000.24	68.4261	2,000.24	75.0293	2,000.24	66.9468	2,000.24	73.1259	2,000.24	72.4532	2,000.24	74.0303	2,000.24	70.1074	2,000.24	72.8129	2,000.24	69.6778	2,000.24	70.2416	2,000.24	73.0311	2,000.24	72.1347	2,000.24	69.9699	2,000.24	71.2217	2,000.24	68.8877	2,000.24	73.3822	2,000.24	69.0726	2,000.24	73.684
2,070.56	85.4835	2,070.56	85.3295	2,070.56	84.4455	2,070.56	84.8887	2,070.56	82.5583	2,070.56	84.2683	2,070.56	81.7159	2,070.56	82.812	2,070.56	81.7616	2,070.56	80.8631	2,070.56	81.1505	2,070.56	79.4189	2,070.56	79.3016	2,070.56	78.0473	2,070.56	76.4759	2,070.56	75.3158	2,070.56	73.5061	2,070.56	72.8818	2,070.56	70.051	2,070.56	72.3876	2,070.56	65.0415	2,070.56	69.6845	2,070.56	70.3941	2,070.56	70.0383	2,070.56	70.1712	2,070.56	71.6209	2,070.56	67.017	2,070.56	70.2383	2,070.56	70.706	2,070.56	71.6302	2,070.56	66.7594	2,070.56	69.4182	2,070.56	63.4339	2,070.56	69.9907	2,070.56	67.1334	2,070.56	72.9521
2,143.8	84.8284	2,143.8	85.0901	2,143.8	84.0932	2,143.8	84.7902	2,143.8	82.7674	2,143.8	83.9224	2,143.8	81.6565	2,143.8	82.9347	2,143.8	81.429	2,143.8	81.7569	2,143.8	80.871	2,143.8	80.1367	2,143.8	79.2165	2,143.8	78.2683	2,143.8	77.0063	2,143.8	75.9287	2,143.8	74.6749	2,143.8	73.304	2,143.8	71.5425	2,143.8	71.8715	2,143.8	66.9826	2,143.8	70.3179	2,143.8	69.2081	2,143.8	68.7729	2,143.8	70.03	2,143.8	69.4384	2,143.8	66.9692	2,143.8	68.9744	2,143.8	69.8659	2,143.8	70.8583	2,143.8	65.7971	2,143.8	70.5386	2,143.8	59.107	2,143.8	70.0886	2,143.8	68.2706	2,143.8	72.9373
2,219.24	83.9824	2,219.24	83.8048	2,219.24	83.55	2,219.24	83.4514	2,219.24	82.5198	2,219.24	83.2112	2,219.24	81.7608	2,219.24	82.7617	2,219.24	81.6876	2,219.24	81.6501	2,219.24	81.185	2,219.24	79.6852	2,219.24	79.4723	2,219.24	76.6834	2,219.24	76.8558	2,219.24	73.3213	2,219.24	74.5113	2,219.24	72.0226	2,219.24	72.2064	2,219.24	72.301	2,219.24	66.7821	2,219.24	71.0615	2,219.24	68.5675	2,219.24	69.0117	2,219.24	69.8565	2,219.24	68.5598	2,219.24	65.1809	2,219.24	69.0481	2,219.24	66.9387	2,219.24	71.5273	2,219.24	63.8239	2,219.24	71.042	2,219.24	63.2492	2,219.24	69.6731	2,219.24	70.2922	2,219.24	72.3357
2,297.61	85.0261	2,297.61	84.4346	2,297.61	84.7138	2,297.61	84.002	2,297.61	83.2558	2,297.61	84.0695	2,297.61	82.0437	2,297.61	83.9625	2,297.61	81.7523	2,297.61	82.624	2,297.61	81.429	2,297.61	79.9457	2,297.61	80.6487	2,297.61	77.0176	2,297.61	78.7407	2,297.61	74.8286	2,297.61	75.1149	2,297.61	73.1568	2,297.61	71.9927	2,297.61	72.5183	2,297.61	67.1354	2,297.61	71.1208	2,297.61	65.727	2,297.61	69.9933	2,297.61	71.1072	2,297.61	71.2769	2,297.61	66.2533	2,297.61	69.5252	2,297.61	66.5852	2,297.61	69.6396	2,297.61	67.542	2,297.61	71.5096	2,297.61	63.3419	2,297.61	70.2073	2,297.61	68.4711	2,297.61	71.2224
2,378.17	85.2523	2,378.17	84.8383	2,378.17	84.9676	2,378.17	84.6333	2,378.17	83.7217	2,378.17	84.5469	2,378.17	82.5627	2,378.17	83.6649	2,378.17	82.2346	2,378.17	81.3688	2,378.17	81.798	2,378.17	77.9668	2,378.17	80.7672	2,378.17	75.2412	2,378.17	79.0483	2,378.17	74.0617	2,378.17	75.7918	2,378.17	72.7669	2,378.17	71.299	2,378.17	70.7194	2,378.17	68.2977	2,378.17	68.9693	2,378.17	62.9245	2,378.17	67.1011	2,378.17	70.1986	2,378.17	68.8974	2,378.17	70.7927	2,378.17	70.3956	2,378.17	65.5156	2,378.17	70.2747	2,378.17	66.5111	2,378.17	71.116	2,378.17	65.392	2,378.17	71.481	2,378.17	70.8238	2,378.17	73.1712
2,462.4	84.3704	2,462.4	84.8851	2,462.4	84.5237	2,462.4	85.4039	2,462.4	84.105	2,462.4	84.5267	2,462.4	83.002	2,462.4	82.7795	2,462.4	82.632	2,462.4	81.3893	2,462.4	82.6445	2,462.4	79.3651	2,462.4	81.2975	2,462.4	76.017	2,462.4	78.4857	2,462.4	73.4517	2,462.4	75.6753	2,462.4	71.6483	2,462.4	72.7389	2,462.4	70.2528	2,462.4	69.05	2,462.4	69.8917	2,462.4	68.1691	2,462.4	66.7577	2,462.4	69.9136	2,462.4	66.9709	2,462.4	70.3366	2,462.4	67.8979	2,462.4	69.7748	2,462.4	68.1588	2,462.4	67.87	2,462.4	70.9044	2,462.4	64.4546	2,462.4	69.936	2,462.4	68.9814	2,462.4	71.663
2,548.83	84.8875	2,548.83	84.7779	2,548.83	84.3066	2,548.83	84.4948	2,548.83	83.5897	2,548.83	84.1918	2,548.83	83.1323	2,548.83	82.947	2,548.83	82.7554	2,548.83	80.4893	2,548.83	82.4079	2,548.83	77.5249	2,548.83	81.3814	2,548.83	74.5084	2,548.83	78.8198	2,548.83	71.9047	2,548.83	74.967	2,548.83	69.9452	2,548.83	71.8927	2,548.83	66.8689	2,548.83	68.6388	2,548.83	66.566	2,548.83	67.3276	2,548.83	66.34	2,548.83	71.7576	2,548.83	64.1381	2,548.83	71.4781	2,548.83	67.2739	2,548.83	69.5407	2,548.83	66.1224	2,548.83	67.0681	2,548.83	69.5454	2,548.83	63.0496	2,548.83	69.6176	2,548.83	65.7596	2,548.83	69.657
2,638.92	84.7422	2,638.92	84.4822	2,638.92	84.4123	2,638.92	84.3959	2,638.92	83.4275	2,638.92	84.1013	2,638.92	83.1124	2,638.92	82.8035	2,638.92	82.9332	2,638.92	79.8545	2,638.92	82.0687	2,638.92	76.8872	2,638.92	80.9681	2,638.92	75.3391	2,638.92	78.8796	2,638.92	73.3278	2,638.92	73.9363	2,638.92	71.6605	2,638.92	67.5242	2,638.92	70.356	2,638.92	64.0443	2,638.92	67.5809	2,638.92	59.0196	2,638.92	66.4945	2,638.92	67.4786	2,638.92	65.8909	2,638.92	69.3122	2,638.92	66.2472	2,638.92	68.2265	2,638.92	64.565	2,638.92	61.7865	2,638.92	66.5612	2,638.92	45.8744	2,638.92	67.9889	2,638.92	64.6905	2,638.92	69.5095
2,731.93	84.8949	2,731.93	84.9109	2,731.93	84.73	2,731.93	84.7159	2,731.93	83.6327	2,731.93	83.7288	2,731.93	82.753	2,731.93	82.0497	2,731.93	83.1708	2,731.93	80.3557	2,731.93	82.5305	2,731.93	78.4364	2,731.93	80.5865	2,731.93	75.656	2,731.93	78.879	2,731.93	73.2458	2,731.93	75.2476	2,731.93	71.4676	2,731.93	66.3444	2,731.93	70.7957	2,731.93	64.5759	2,731.93	69.0461	2,731.93	60.4249	2,731.93	65.6835	2,731.93	68.0095	2,731.93	64.7482	2,731.93	69.1111	2,731.93	66.7831	2,731.93	67.9082	2,731.93	66.157	2,731.93	64.3753	2,731.93	65.9705	2,731.93	53.5421	2,731.93	67.0796	2,731.93	67.2024	2,731.93	69.2102
2,828.61	85.1703	2,828.61	85.0376	2,828.61	85.1858	2,828.61	85.053	2,828.61	84.2972	2,828.61	84.2685	2,828.61	83.0516	2,828.61	82.372	2,828.61	83.0212	2,828.61	80.0586	2,828.61	82.9816	2,828.61	78.0387	2,828.61	80.9978	2,828.61	76.1681	2,828.61	77.7954	2,828.61	73.0608	2,828.61	74.621	2,828.61	68.7571	2,828.61	69.2521	2,828.61	65.5238	2,828.61	61.3426	2,828.61	66.8106	2,828.61	63.778	2,828.61	66.6321	2,828.61	65.7406	2,828.61	63.5102	2,828.61	70.4676	2,828.61	65.5762	2,828.61	66.0113	2,828.61	65.5773	2,828.61	65.6675	2,828.61	67.0479	2,828.61	58.3451	2,828.61	66.9486	2,828.61	65.2403	2,828.61	68.7802
2,928.22	84.6379	2,928.22	84.9648	2,928.22	84.8811	2,928.22	85.0065	2,928.22	84.4606	2,928.22	83.8469	2,928.22	83.2417	2,928.22	81.6956	2,928.22	82.9523	2,928.22	79.9053	2,928.22	82.7709	2,928.22	78.6629	2,928.22	80.6957	2,928.22	75.9147	2,928.22	77.2884	2,928.22	71.9176	2,928.22	74.3998	2,928.22	70.2085	2,928.22	71.9985	2,928.22	69.3973	2,928.22	66.8853	2,928.22	68.2337	2,928.22	67.237	2,928.22	68.1088	2,928.22	63.3726	2,928.22	63.861	2,928.22	68.1122	2,928.22	65.5727	2,928.22	67.8142	2,928.22	65.9485	2,928.22	65.0869	2,928.22	67.4314	2,928.22	57.0829	2,928.22	66.9618	2,928.22	63.5529	2,928.22	67.0974
3,031.49	84.3314	3,031.49	84.8606	3,031.49	84.2077	3,031.49	84.5233	3,031.49	84.1234	3,031.49	83.0853	3,031.49	83.1511	3,031.49	81.9684	3,031.49	82.6715	3,031.49	81.2691	3,031.49	82.4922	3,031.49	78.1274	3,031.49	80.4741	3,031.49	74.64	3,031.49	77.0126	3,031.49	73.9261	3,031.49	74.7465	3,031.49	71.6944	3,031.49	72.9906	3,031.49	68.7415	3,031.49	67.0245	3,031.49	65.043	3,031.49	64.2848	3,031.49	64.3431	3,031.49	66.1413	3,031.49	63.1639	3,031.49	66.4764	3,031.49	63.319	3,031.49	67.3607	3,031.49	64.6613	3,031.49	65.7683	3,031.49	64.6988	3,031.49	58.6182	3,031.49	65.645	3,031.49	62.6065	3,031.49	64.9767
3,138.43	84.2936	3,138.43	85.1972	3,138.43	84.0349	3,138.43	84.5245	3,138.43	84.1155	3,138.43	82.6783	3,138.43	83.0155	3,138.43	82.0146	3,138.43	82.2513	3,138.43	80.4638	3,138.43	82.4359	3,138.43	77.6791	3,138.43	80.9197	3,138.43	75.8761	3,138.43	77.4789	3,138.43	71.8103	3,138.43	74.6063	3,138.43	64.7767	3,138.43	73.2598	3,138.43	64.4535	3,138.43	68.7514	3,138.43	65.0916	3,138.43	63.4228	3,138.43	63.977	3,138.43	63.5541	3,138.43	63.0672	3,138.43	67.5703	3,138.43	60.7926	3,138.43	67.0811	3,138.43	62.6938	3,138.43	64.4762	3,138.43	63.7586	3,138.43	54.1523	3,138.43	66.2084	3,138.43	61.6801	3,138.43	65.6926
3,249.02	84.5221	3,249.02	84.8798	3,249.02	83.7901	3,249.02	83.8973	3,249.02	83.8946	3,249.02	83.0879	3,249.02	83.0464	3,249.02	81.7	3,249.02	81.9207	3,249.02	79.5226	3,249.02	81.8137	3,249.02	77.8785	3,249.02	80.6828	3,249.02	74.2219	3,249.02	77.9502	3,249.02	70.7669	3,249.02	74.9147	3,249.02	70.2592	3,249.02	72.5435	3,249.02	67.3926	3,249.02	68.0857	3,249.02	65.8016	3,249.02	62.5409	3,249.02	65.0644	3,249.02	64.8009	3,249.02	63.3351	3,249.02	65.9502	3,249.02	60.6729	3,249.02	66.8642	3,249.02	62.975	3,249.02	63.439	3,249.02	62.0345	3,249.02	48.0618	3,249.02	63.6624	3,249.02	59.0448	3,249.02	64.213
3,363.28	84.553	3,363.28	84.5541	3,363.28	83.5772	3,363.28	83.554	3,363.28	83.7601	3,363.28	83.0699	3,363.28	83.2727	3,363.28	81.5887	3,363.28	81.9796	3,363.28	79.9537	3,363.28	81.6863	3,363.28	77.3837	3,363.28	80.5747	3,363.28	74.0171	3,363.28	77.8499	3,363.28	73.0918	3,363.28	74.8714	3,363.28	70.3061	3,363.28	72.1957	3,363.28	66.5322	3,363.28	68.7416	3,363.28	63.8517	3,363.28	64.6837	3,363.28	62.6311	3,363.28	65.3201	3,363.28	62.1417	3,363.28	66.61	3,363.28	60.9194	3,363.28	65.8295	3,363.28	62.3499	3,363.28	63.3831	3,363.28	61.8346	3,363.28	38.5836	3,363.28	63.0748	3,363.28	56.2412	3,363.28	63.217
3,481.93	84.6019	3,481.93	84.0771	3,481.93	84.0159	3,481.93	83.7669	3,481.93	83.2722	3,481.93	82.8806	3,481.93	82.7755	3,481.93	81.4639	3,481.93	82.1597	3,481.93	79.8539	3,481.93	81.9856	3,481.93	76.7625	3,481.93	80.7505	3,481.93	75.1875	3,481.93	77.778	3,481.93	71.6981	3,481.93	73.9746	3,481.93	66.1555	3,481.93	69.3765	3,481.93	65.0333	3,481.93	65.4605	3,481.93	65.0791	3,481.93	64.0433	3,481.93	62.9269	3,481.93	65.9898	3,481.93	62.5744	3,481.93	66.5082	3,481.93	58.9744	3,481.93	63.6327	3,481.93	61.8417	3,481.93	61.7084	3,481.93	61.2018	3,481.93	44.3609	3,481.93	62.8003	3,481.93	57.0027	3,481.93	62.0209
3,604.98	83.993	3,604.98	84.3746	3,604.98	84.0781	3,604.98	83.7108	3,604.98	83.9608	3,604.98	82.6109	3,604.98	82.4874	3,604.98	81.5116	3,604.98	80.768	3,604.98	78.8511	3,604.98	80.7918	3,604.98	77.3469	3,604.98	80.4399	3,604.98	74.1117	3,604.98	77.6499	3,604.98	69.9271	3,604.98	72.0693	3,604.98	69.4456	3,604.98	65.847	3,604.98	66.9832	3,604.98	53.829	3,604.98	63.6006	3,604.98	57.3266	3,604.98	62.69	3,604.98	63.0015	3,604.98	63.3275	3,604.98	67.5242	3,604.98	60.9555	3,604.98	61.5074	3,604.98	62.1332	3,604.98	59.1892	3,604.98	60.0225	3,604.98	51.8912	3,604.98	61.3217	3,604.98	56.6315	3,604.98	61.4432
3,732.42	84.4758	3,732.42	84.2238	3,732.42	83.7166	3,732.42	83.3855	3,732.42	84.0225	3,732.42	83.1312	3,732.42	83.2575	3,732.42	81.2224	3,732.42	80.8457	3,732.42	79.2021	3,732.42	79.7007	3,732.42	76.6983	3,732.42	78.7728	3,732.42	73.4826	3,732.42	76.2027	3,732.42	72.8996	3,732.42	71.7518	3,732.42	68.303	3,732.42	63.8282	3,732.42	63.1119	3,732.42	43.0738	3,732.42	64.0336	3,732.42	47.8309	3,732.42	61.6415	3,732.42	57.3731	3,732.42	61.0513	3,732.42	64.6914	3,732.42	58.0257	3,732.42	61.9568	3,732.42	60.4706	3,732.42	58.1657	3,732.42	60.2949	3,732.42	51.5247	3,732.42	61.0955	3,732.42	52.281	3,732.42	60.3462
3,863.53	85.159	3,863.53	84.1884	3,863.53	84.6747	3,863.53	83.4018	3,863.53	83.8441	3,863.53	82.9311	3,863.53	83.0289	3,863.53	81.1717	3,863.53	81.4098	3,863.53	78.7833	3,863.53	79.8695	3,863.53	76.3788	3,863.53	77.8882	3,863.53	74.6206	3,863.53	74.5966	3,863.53	70.1521	3,863.53	70.263	3,863.53	65.8738	3,863.53	63.2447	3,863.53	63.5231	3,863.53	51.3091	3,863.53	62.7579	3,863.53	50.9633	3,863.53	62.0466	3,863.53	51.301	3,863.53	60.1223	3,863.53	60.5638	3,863.53	58.187	3,863.53	60.5723	3,863.53	60.0594	3,863.53	56.9855	3,863.53	60.2921	3,863.53	52.233	3,863.53	61.9533	3,863.53	54.7651	3,863.53	59.1161
3,999.76	85.217	3,999.76	84.1842	3,999.76	85.1872	3,999.76	83.9484	3,999.76	84.3102	3,999.76	82.819	3,999.76	83.0582	3,999.76	80.6176	3,999.76	80.8029	3,999.76	78.5108	3,999.76	79.7024	3,999.76	76.3482	3,999.76	77.8	3,999.76	72.3316	3,999.76	73.5158	3,999.76	69.7586	3,999.76	67.7885	3,999.76	68.4631	3,999.76	61.902	3,999.76	64.0626	3,999.76	57.0665	3,999.76	60.819	3,999.76	50.3827	3,999.76	58.1665	3,999.76	59.0993	3,999.76	60.771	3,999.76	61.7321	3,999.76	55.8742	3,999.76	59.1785	3,999.76	58.5853	3,999.76	50.2869	3,999.76	57.8658	3,999.76	50.4602	3,999.76	60.7328	3,999.76	51.2086	3,999.76	59.1516
4,141.11	85.604	4,141.11	84.6046	4,141.11	85.8445	4,141.11	83.9576	4,141.11	84.7773	4,141.11	82.9021	4,141.11	83.1614	4,141.11	80.6219	4,141.11	80.7944	4,141.11	78.2587	4,141.11	78.7505	4,141.11	74.7666	4,141.11	77.6377	4,141.11	71.7536	4,141.11	73.6791	4,141.11	71.5783	4,141.11	64.6373	4,141.11	65.6433	4,141.11	65.2304	4,141.11	59.103	4,141.11	63.4131	4,141.11	60.0141	4,141.11	57.4087	4,141.11	57.3054	4,141.11	53.4719	4,141.11	57.0558	4,141.11	60.6936	4,141.11	56.9771	4,141.11	54.1136	4,141.11	58.7516	4,141.11	56.4563	4,141.11	59.6798	4,141.11	52.4418	4,141.11	58.657	4,141.11	53.4929	4,141.11	57.5352
4,286.87	86.5801	4,286.87	85.5574	4,286.87	86.4906	4,286.87	84.2817	4,286.87	85.173	4,286.87	82.443	4,286.87	83.0499	4,286.87	80.5757	4,286.87	80.1872	4,286.87	77.7976	4,286.87	78.1133	4,286.87	73.9589	4,286.87	76.6485	4,286.87	70.8058	4,286.87	72.8878	4,286.87	65.0658	4,286.87	66.3438	4,286.87	66.6133	4,286.87	66.7413	4,286.87	63.5594	4,286.87	63.7802	4,286.87	57.0719	4,286.87	53.7	4,286.87	56.3357	4,286.87	55.2529	4,286.87	53.9266	4,286.87	57.7482	4,286.87	54.5374	4,286.87	56.2455	4,286.87	56.2558	4,286.87	56.9693	4,286.87	57.5336	4,286.87	47.3718	4,286.87	57.0901	4,286.87	44.9592	4,286.87	57.7071
4,438.48	86.8531	4,438.48	85.8815	4,438.48	87.1648	4,438.48	84.8343	4,438.48	85.5195	4,438.48	82.6533	4,438.48	82.9645	4,438.48	80.3323	4,438.48	79.7503	4,438.48	76.7623	4,438.48	77.2789	4,438.48	73.0426	4,438.48	75.7878	4,438.48	68.7739	4,438.48	71.7252	4,438.48	69.6085	4,438.48	67.7259	4,438.48	65.5094	4,438.48	67.7785	4,438.48	58.4074	4,438.48	60.2447	4,438.48	57.3783	4,438.48	52.4524	4,438.48	51.8008	4,438.48	57.855	4,438.48	52.5927	4,438.48	53.2581	4,438.48	50.9994	4,438.48	57.3499	4,438.48	55.8607	4,438.48	51.3227	4,438.48	55.723	4,438.48	38.5613	4,438.48	58.4215	4,438.48	48.7441	4,438.48	55.4653
4,594.48	87.6071	4,594.48	86.4902	4,594.48	87.4111	4,594.48	84.5853	4,594.48	85.946	4,594.48	82.9142	4,594.48	82.9987	4,594.48	80.2201	4,594.48	79.3998	4,594.48	76.5809	4,594.48	76.396	4,594.48	72.489	4,594.48	74.0187	4,594.48	70.0721	4,594.48	70.4463	4,594.48	63.0589	4,594.48	67.8003	4,594.48	61.8322	4,594.48	66.8148	4,594.48	61.8086	4,594.48	61.7443	4,594.48	56.981	4,594.48	58.2581	4,594.48	56.8738	4,594.48	56.3825	4,594.48	51.9207	4,594.48	57.0726	4,594.48	44.7486	4,594.48	50.5493	4,594.48	55.0005	4,594.48	47.9364	4,594.48	55.2238	4,594.48	48.1756	4,594.48	57.1928	4,594.48	50.8935	4,594.48	54.8308
4,757.08	87.4931	4,757.08	86.5816	4,757.08	87.2861	4,757.08	84.993	4,757.08	85.5948	4,757.08	82.7391	4,757.08	82.8203	4,757.08	80.2354	4,757.08	78.7398	4,757.08	76.2091	4,757.08	75.0585	4,757.08	72.3367	4,757.08	72.9001	4,757.08	66.7849	4,757.08	69.9535	4,757.08	68.1341	4,757.08	68.2275	4,757.08	64.5482	4,757.08	67.2254	4,757.08	59.504	4,757.08	63.3582	4,757.08	57.7601	4,757.08	59.7261	4,757.08	56.1805	4,757.08	57.3122	4,757.08	52.8922	4,757.08	53.3705	4,757.08	51.3512	4,757.08	51.8711	4,757.08	53.4277	4,757.08	45.2296	4,757.08	56.7792	4,757.08	49.553	4,757.08	55.8679	4,757.08	44.2595	4,757.08	54.5311
4,924.8	87.6453	4,924.8	86.6907	4,924.8	87.4627	4,924.8	85.0361	4,924.8	85.8197	4,924.8	82.9879	4,924.8	82.5618	4,924.8	79.8169	4,924.8	78.2487	4,924.8	76.4249	4,924.8	74.5943	4,924.8	71.5415	4,924.8	73.6027	4,924.8	69.8792	4,924.8	71.6422	4,924.8	65.0502	4,924.8	69.6116	4,924.8	62.0629	4,924.8	67.6465	4,924.8	62.3732	4,924.8	65.2468	4,924.8	58.3897	4,924.8	61.4987	4,924.8	58.3555	4,924.8	60.3207	4,924.8	55.3942	4,924.8	55.9062	4,924.8	48.042	4,924.8	52.9241	4,924.8	52.3671	4,924.8	50.2107	4,924.8	54.639	4,924.8	50.8533	4,924.8	56.7156	4,924.8	46.5129	4,924.8	52.3023
5,098.39	87.8263	5,098.39	86.884	5,098.39	87.5709	5,098.39	85.1509	5,098.39	86.062	5,098.39	82.5902	5,098.39	83.206	5,098.39	79.754	5,098.39	78.8676	5,098.39	76.3109	5,098.39	75.1683	5,098.39	72.3612	5,098.39	74.1509	5,098.39	68.4189	5,098.39	72.6692	5,098.39	67.5531	5,098.39	70.3464	5,098.39	65.297	5,098.39	66.9174	5,098.39	60.721	5,098.39	63.5586	5,098.39	58.7852	5,098.39	62.6641	5,098.39	57.1734	5,098.39	58.7742	5,098.39	53.0029	5,098.39	54.1955	5,098.39	54.4389	5,098.39	53.4368	5,098.39	54.3749	5,098.39	52.3045	5,098.39	55.9396	5,098.39	53.3127	5,098.39	56.1295	5,098.39	46.984	5,098.39	54.2556
5,277.83	87.6145	5,277.83	86.6775	5,277.83	87.3071	5,277.83	85.0284	5,277.83	86.0424	5,277.83	82.767	5,277.83	83.6729	5,277.83	79.6374	5,277.83	79.9098	5,277.83	76.5414	5,277.83	75.8901	5,277.83	72.6592	5,277.83	74.6709	5,277.83	70.2961	5,277.83	73.4763	5,277.83	65.4732	5,277.83	71.125	5,277.83	62.7853	5,277.83	65.3196	5,277.83	61.6122	5,277.83	59.6783	5,277.83	57.4054	5,277.83	62.0244	5,277.83	59.3006	5,277.83	61.685	5,277.83	54.8988	5,277.83	55.9053	5,277.83	51.9053	5,277.83	45.2924	5,277.83	51.4645	5,277.83	36.5731	5,277.83	56.764	5,277.83	55.9795	5,277.83	56.5186	5,277.83	43.9796	5,277.83	52.4898
5,463.87	87.9352	5,463.87	86.7872	5,463.87	87.6357	5,463.87	85.129	5,463.87	85.9446	5,463.87	82.5677	5,463.87	83.6763	5,463.87	80.2775	5,463.87	80.5201	5,463.87	76.9115	5,463.87	76.6333	5,463.87	73.6018	5,463.87	75.1814	5,463.87	69.8008	5,463.87	74.3596	5,463.87	67.7624	5,463.87	70.0488	5,463.87	66.5733	5,463.87	62.1465	5,463.87	62.9412	5,463.87	59.9317	5,463.87	57.7038	5,463.87	59.5637	5,463.87	59.3751	5,463.87	59.5759	5,463.87	55.1535	5,463.87	53.0004	5,463.87	55.3439	5,463.87	27.1946	5,463.87	54.5931	5,463.87	42.9345	5,463.87	55.6262	5,463.87	55.1474	5,463.87	58.2437	5,463.87	49.6386	5,463.87	52.6672
5,656.49	87.7811	5,656.49	86.696	5,656.49	87.5491	5,656.49	85.04	5,656.49	85.9551	5,656.49	82.9535	5,656.49	83.7464	5,656.49	80.22	5,656.49	80.5053	5,656.49	77.0324	5,656.49	77.1203	5,656.49	73.7913	5,656.49	75.6381	5,656.49	71.3573	5,656.49	74.0722	5,656.49	67.3291	5,656.49	68.6964	5,656.49	65.929	5,656.49	64.0965	5,656.49	63.8135	5,656.49	57.182	5,656.49	59.8396	5,656.49	57.461	5,656.49	58.9375	5,656.49	51.9144	5,656.49	56.2949	5,656.49	51.678	5,656.49	54.6607	5,656.49	47.5354	5,656.49	56.0163	5,656.49	56.3116	5,656.49	57.7089	5,656.49	54.1708	5,656.49	56.046	5,656.49	47.1484	5,656.49	52.4367
5,856.45	87.8546	5,856.45	86.9639	5,856.45	87.3625	5,856.45	85.2745	5,856.45	85.7318	5,856.45	82.8206	5,856.45	83.7603	5,856.45	80.7249	5,856.45	80.8079	5,856.45	77.4853	5,856.45	77.9821	5,856.45	74.4419	5,856.45	76.2791	5,856.45	72.7001	5,856.45	73.1749	5,856.45	70.0772	5,856.45	69.7525	5,856.45	66.7243	5,856.45	68.4191	5,856.45	64.6152	5,856.45	59.2859	5,856.45	60.144	5,856.45	42.6462	5,856.45	61.9927	5,856.45	53.8272	5,856.45	53.2939	5,856.45	54.0418	5,856.45	57.557	5,856.45	53.6029	5,856.45	52.2948	5,856.45	52.2025	5,856.45	56.8532	5,856.45	53.1541	5,856.45	60.3081	5,856.45	49.1298	5,856.45	54.3718
6,062.99	87.9665	6,062.99	87.1985	6,062.99	87.3333	6,062.99	85.2501	6,062.99	85.452	6,062.99	83.1746	6,062.99	83.2277	6,062.99	80.3802	6,062.99	80.6949	6,062.99	77.6186	6,062.99	77.6237	6,062.99	75.1923	6,062.99	74.9662	6,062.99	73.227	6,062.99	73.0388	6,062.99	69.3798	6,062.99	70.5619	6,062.99	65.9279	6,062.99	67.5086	6,062.99	63.785	6,062.99	62.0782	6,062.99	59.3351	6,062.99	57.8363	6,062.99	59.337	6,062.99	59.5677	6,062.99	55.2681	6,062.99	43.1411	6,062.99	55.5911	6,062.99	39.9334	6,062.99	54.2029	6,062.99	52.0374	6,062.99	56.8714	6,062.99	55.1696	6,062.99	57.4605	6,062.99	49.2541	6,062.99	48.4753
6,276.86	88.3617	6,276.86	87.436	6,276.86	87.3541	6,276.86	85.3998	6,276.86	85.1999	6,276.86	82.5542	6,276.86	82.8822	6,276.86	80.4688	6,276.86	79.6591	6,276.86	78.0579	6,276.86	76.4012	6,276.86	74.8776	6,276.86	74.6863	6,276.86	72.5062	6,276.86	72.7998	6,276.86	69.468	6,276.86	70.0067	6,276.86	64.8037	6,276.86	67.3907	6,276.86	62.9512	6,276.86	57.5376	6,276.86	60.5368	6,276.86	53.5388	6,276.86	59.6071	6,276.86	52.8305	6,276.86	57.0037	6,276.86	46.4674	6,276.86	57.7193	6,276.86	51.7491	6,276.86	52.0303	6,276.86	50.3059	6,276.86	57.0048	6,276.86	56.8327	6,276.86	59.1022	6,276.86	48.456	6,276.86	52.4933
6,498.05	88.1404	6,498.05	87.4435	6,498.05	87.3577	6,498.05	85.1207	6,498.05	85.4527	6,498.05	82.4091	6,498.05	83.0873	6,498.05	80.6105	6,498.05	80.2131	6,498.05	77.9712	6,498.05	77.747	6,498.05	74.593	6,498.05	75.2766	6,498.05	71.8588	6,498.05	71.6901	6,498.05	69.2973	6,498.05	67.7142	6,498.05	66.9548	6,498.05	65.4103	6,498.05	63.9042	6,498.05	60.2168	6,498.05	60.7949	6,498.05	47.4838	6,498.05	58.3786	6,498.05	50.4626	6,498.05	58.13	6,498.05	51.8149	6,498.05	58.0599	6,498.05	53.7494	6,498.05	55.7377	6,498.05	45.4857	6,498.05	57.5912	6,498.05	52.7809	6,498.05	56.5902	6,498.05	42.0251	6,498.05	49.6333
6,727.29	87.9934	6,727.29	87.4211	6,727.29	87.3538	6,727.29	84.9231	6,727.29	85.7125	6,727.29	82.2145	6,727.29	83.2791	6,727.29	80.5713	6,727.29	80.9236	6,727.29	78.2479	6,727.29	78.9528	6,727.29	73.9105	6,727.29	75.5931	6,727.29	72.2316	6,727.29	70.8451	6,727.29	70.3512	6,727.29	68.3424	6,727.29	67.7879	6,727.29	63.2237	6,727.29	64.2207	6,727.29	49.0786	6,727.29	62.5118	6,727.29	51.9093	6,727.29	59.4813	6,727.29	54.1084	6,727.29	60.4169	6,727.29	51.5349	6,727.29	58.2329	6,727.29	44.2405	6,727.29	56.1975	6,727.29	43.6307	6,727.29	58.0709	6,727.29	53.8664	6,727.29	58.2122	6,727.29	46.7695	6,727.29	48.1182
6,964.6	88.2317	6,964.6	87.5009	6,964.6	87.2541	6,964.6	84.8303	6,964.6	85.8484	6,964.6	82.1615	6,964.6	83.6761	6,964.6	80.6769	6,964.6	80.6281	6,964.6	77.4984	6,964.6	77.9592	6,964.6	75.4907	6,964.6	75.5002	6,964.6	73.4953	6,964.6	71.8566	6,964.6	71.1575	6,964.6	70.1571	6,964.6	68.1499	6,964.6	67.8458	6,964.6	64.9377	6,964.6	53.7773	6,964.6	62.4828	6,964.6	58.3865	6,964.6	57.7237	6,964.6	59.9828	6,964.6	60.2594	6,964.6	55.6775	6,964.6	58.5973	6,964.6	50.9743	6,964.6	55.9886	6,964.6	32.7507	6,964.6	59.009	6,964.6	55.9833	6,964.6	57.3077	6,964.6	36.5863	6,964.6	54.9223
7,209.96	87.9672	7,209.96	87.2334	7,209.96	86.9035	7,209.96	85.0085	7,209.96	85.8504	7,209.96	82.7392	7,209.96	84.6561	7,209.96	80.3421	7,209.96	82.1351	7,209.96	77.7605	7,209.96	78.761	7,209.96	77.0126	7,209.96	75.4611	7,209.96	73.3246	7,209.96	74.4162	7,209.96	69.8851	7,209.96	74.9096	7,209.96	67.479	7,209.96	69.7691	7,209.96	64.325	7,209.96	62.6552	7,209.96	61.4951	7,209.96	58.8047	7,209.96	57.0451	7,209.96	61.5866	7,209.96	59.4482	7,209.96	50.6429	7,209.96	57.891	7,209.96	51.4123	7,209.96	56.1102	7,209.96	52.1948	7,209.96	59.0968	7,209.96	56.7448	7,209.96	59.8523	7,209.96	48.71	7,209.96	53.039
7,464.11	87.5404	7,464.11	86.8971	7,464.11	86.1717	7,464.11	85.3588	7,464.11	84.9909	7,464.11	83.1273	7,464.11	84.2342	7,464.11	80.1654	7,464.11	82.4967	7,464.11	79.5078	7,464.11	79.9093	7,464.11	76.7143	7,464.11	77.8646	7,464.11	72.5763	7,464.11	76.9265	7,464.11	69.459	7,464.11	75.9767	7,464.11	66.6975	7,464.11	71.2897	7,464.11	63.3655	7,464.11	66.0945	7,464.11	61.2031	7,464.11	60.8469	7,464.11	57.6706	7,464.11	60.5283	7,464.11	59.4301	7,464.11	51.6934	7,464.11	59.2731	7,464.11	56.3229	7,464.11	54.3912	7,464.11	57.1515	7,464.11	57.8656	7,464.11	55.1678	7,464.11	58.0683	7,464.11	48.4314	7,464.11	52.124
7,727.78	86.2945	7,727.78	86.1981	7,727.78	85.2088	7,727.78	85.3957	7,727.78	84.1115	7,727.78	82.8117	7,727.78	82.6033	7,727.78	81.5375	7,727.78	80.8804	7,727.78	80.0793	7,727.78	79.5548	7,727.78	76.1524	7,727.78	78.8249	7,727.78	73.2648	7,727.78	77.338	7,727.78	69.935	7,727.78	74.1738	7,727.78	66.2193	7,727.78	68.9929	7,727.78	63.4065	7,727.78	67.7193	7,727.78	61.772	7,727.78	58.4234	7,727.78	58.8752	7,727.78	59.5519	7,727.78	59.2396	7,727.78	45.0619	7,727.78	59.3411	7,727.78	57.3333	7,727.78	54.8351	7,727.78	56.9302	7,727.78	54.0532	7,727.78	57.3889	7,727.78	55.7339	7,727.78	50.5171	7,727.78	47.2725
8,000.24	85.5376	8,000.24	86.0103	8,000.24	84.7139	8,000.24	84.9268	8,000.24	83.6356	8,000.24	82.5779	8,000.24	81.5514	8,000.24	82.0896	8,000.24	79.9448	8,000.24	79.6585	8,000.24	79.0755	8,000.24	76.5686	8,000.24	78.163	8,000.24	73.4362	8,000.24	75.6352	8,000.24	70.3192	8,000.24	70.4736	8,000.24	67.4274	8,000.24	66.2874	8,000.24	62.8089	8,000.24	65.2828	8,000.24	60.326	8,000.24	55.5567	8,000.24	57.713	8,000.24	61.9625	8,000.24	57.7385	8,000.24	49.3917	8,000.24	59.1739	8,000.24	54.0778	8,000.24	55.3841	8,000.24	51.5328	8,000.24	56.5202	8,000.24	56.1254	8,000.24	56.8605	8,000.24	34.9372	8,000.24	49.3486
8,282.23	86.1541	8,282.23	86.1622	8,282.23	85.8077	8,282.23	84.3604	8,282.23	84.2902	8,282.23	81.8608	8,282.23	81.6455	8,282.23	81.0578	8,282.23	79.9617	8,282.23	78.9396	8,282.23	78.9948	8,282.23	76.0717	8,282.23	77.6266	8,282.23	73.1599	8,282.23	73.4733	8,282.23	70.1088	8,282.23	63.1842	8,282.23	66.811	8,282.23	61.7019	8,282.23	61.2578	8,282.23	61.4507	8,282.23	58.0028	8,282.23	59.0933	8,282.23	58.8448	8,282.23	61.3533	8,282.23	56.9241	8,282.23	40.7798	8,282.23	57.4051	8,282.23	52.7413	8,282.23	54.1661	8,282.23	49.013	8,282.23	55.8253	8,282.23	57.5468	8,282.23	56.2408	8,282.23	41.7721	8,282.23	48.9129
8,574.46	87.8948	8,574.46	86.9929	8,574.46	87.8316	8,574.46	84.6839	8,574.46	85.9943	8,574.46	81.8082	8,574.46	83.2024	8,574.46	79.887	8,574.46	80.5668	8,574.46	76.7773	8,574.46	78.0426	8,574.46	73.3801	8,574.46	74.7352	8,574.46	69.9932	8,574.46	67.6314	8,574.46	65.2122	8,574.46	66.9185	8,574.46	61.6426	8,574.46	65.3462	8,574.46	55.4588	8,574.46	58.3601	8,574.46	54.951	8,574.46	58.4237	8,574.46	55.2887	8,574.46	63.8193	8,574.46	53.3552	8,574.46	49.3112	8,574.46	51.5422	8,574.46	53.0968	8,574.46	50.2326	8,574.46	53.1318	8,574.46	52.8076	8,574.46	54.0999	8,574.46	53.7186	8,574.46	41.7496	8,574.46	47.6102
8,876.22	87.6293	8,876.22	86.7054	8,876.22	88.2093	8,876.22	85.1658	8,876.22	86.6657	8,876.22	83.0008	8,876.22	83.5462	8,876.22	80.0215	8,876.22	80.2607	8,876.22	76.1132	8,876.22	76.9265	8,876.22	73.6965	8,876.22	72.4069	8,876.22	70.2375	8,876.22	68.9078	8,876.22	64.3586	8,876.22	70.4298	8,876.22	60.9492	8,876.22	67.1716	8,876.22	56.0312	8,876.22	64.1883	8,876.22	54.4529	8,876.22	63.6245	8,876.22	51.0778	8,876.22	66.3928	8,876.22	54.3171	8,876.22	48.9169	8,876.22	49.9089	8,876.22	50.9168	8,876.22	53.4555	8,876.22	53.2161	8,876.22	54.1892	8,876.22	53.4234	8,876.22	53.1751	8,876.22	39.1099	8,876.22	47.6899
9,189.7	85.7925	9,189.7	85.5865	9,189.7	87.1371	9,189.7	85.3226	9,189.7	86.2437	9,189.7	83.2888	9,189.7	83.6181	9,189.7	79.8444	9,189.7	80.1772	9,189.7	77.7201	9,189.7	77.412	9,189.7	75.0536	9,189.7	73.8784	9,189.7	70.596	9,189.7	72.3112	9,189.7	65.5508	9,189.7	70.1849	9,189.7	61.6979	9,189.7	67.1825	9,189.7	58.1215	9,189.7	66.46	9,189.7	53.3933	9,189.7	65.9749	9,189.7	49.0587	9,189.7	66.9872	9,189.7	54.9236	9,189.7	52.5399	9,189.7	51.3336	9,189.7	53.0202	9,189.7	53.9102	9,189.7	56.3014	9,189.7	54.0178	9,189.7	54.0781	9,189.7	51.509	9,189.7	13.7647	9,189.7	51.312
9,513.43	85.3803	9,513.43	85.9587	9,513.43	85.9978	9,513.43	85.5435	9,513.43	85.2924	9,513.43	83.1589	9,513.43	83.2755	9,513.43	80.4394	9,513.43	80.5136	9,513.43	78.4574	9,513.43	78.885	9,513.43	74.0857	9,513.43	76.0703	9,513.43	69.6936	9,513.43	72.8769	9,513.43	65.1499	9,513.43	67.2828	9,513.43	61.4116	9,513.43	63.0541	9,513.43	57.4469	9,513.43	65.1267	9,513.43	54.293	9,513.43	65.852	9,513.43	50.7693	9,513.43	66.449	9,513.43	53.6562	9,513.43	50.1886	9,513.43	49.98	9,513.43	54.5111	9,513.43	52.7411	9,513.43	54.1599	9,513.43	53.8759	9,513.43	51.5823	9,513.43	50.8246	9,513.43	43.6571	9,513.43	52.3411
9,848.88	86.6494	9,848.88	86.7425	9,848.88	86.3375	9,848.88	85.0806	9,848.88	85.2803	9,848.88	82.6551	9,848.88	83.2578	9,848.88	80.6194	9,848.88	80.7479	9,848.88	78.2336	9,848.88	78.992	9,848.88	73.0879	9,848.88	74.6955	9,848.88	68.6926	9,848.88	70.6143	9,848.88	64.7312	9,848.88	65.3698	9,848.88	61.0774	9,848.88	61.4899	9,848.88	56.7993	9,848.88	65.3807	9,848.88	54.6932	9,848.88	66.2981	9,848.88	48.2736	9,848.88	66.9027	9,848.88	52.5169	9,848.88	46.0868	9,848.88	47.5943	9,848.88	53.6848	9,848.88	52.0264	9,848.88	50.7888	9,848.88	53.8684	9,848.88	50.0043	9,848.88	50.0666	9,848.88	43.3935	9,848.88	51.8693
10,196.8	87.5499	10,196.8	87.0522	10,196.8	86.6855	10,196.8	84.641	10,196.8	85.2369	10,196.8	82.4856	10,196.8	83.2195	10,196.8	81.0633	10,196.8	81.3079	10,196.8	78.0281	10,196.8	79.3214	10,196.8	72.748	10,196.8	74.4177	10,196.8	68.0142	10,196.8	70.2711	10,196.8	64.3524	10,196.8	65.7692	10,196.8	60.3594	10,196.8	60.8551	10,196.8	56.944	10,196.8	67.0243	10,196.8	50.1119	10,196.8	67.6824	10,196.8	50.3386	10,196.8	68.2737	10,196.8	51.463	10,196.8	49.9745	10,196.8	44.8874	10,196.8	52.757	10,196.8	51.7856	10,196.8	51.6548	10,196.8	53.7654	10,196.8	48.6201	10,196.8	48.8416	10,196.8	44.6385	10,196.8	49.9005
10,556.4	87.0434	10,556.4	86.8491	10,556.4	86.3554	10,556.4	85.1346	10,556.4	85.5329	10,556.4	83.2025	10,556.4	83.7143	10,556.4	81.112	10,556.4	81.4207	10,556.4	77.5187	10,556.4	78.454	10,556.4	72.4743	10,556.4	72.5897	10,556.4	70.2444	10,556.4	70.5466	10,556.4	64.695	10,556.4	64.6502	10,556.4	62.3666	10,556.4	59.1121	10,556.4	58.1202	10,556.4	66.8579	10,556.4	45.0847	10,556.4	68.9218	10,556.4	51.3612	10,556.4	69.5594	10,556.4	50.333	10,556.4	54.6333	10,556.4	48.2911	10,556.4	46.196	10,556.4	52.2156	10,556.4	51.0559	10,556.4	56.0708	10,556.4	53.6528	10,556.4	47.2172	10,556.4	49.7573	10,556.4	50.8236
10,928.5	86.9549	10,928.5	86.5576	10,928.5	86.7682	10,928.5	84.9718	10,928.5	85.6987	10,928.5	82.7963	10,928.5	83.4364	10,928.5	80.8019	10,928.5	81.3261	10,928.5	77.1119	10,928.5	77.8664	10,928.5	72.9254	10,928.5	73.7896	10,928.5	71.1694	10,928.5	70.7126	10,928.5	65.1737	10,928.5	62.0711	10,928.5	63.6444	10,928.5	59.4199	10,928.5	58.4089	10,928.5	67.6415	10,928.5	51.1036	10,928.5	71.0097	10,928.5	53.0005	10,928.5	69.5693	10,928.5	45.6593	10,928.5	53.5438	10,928.5	51.2643	10,928.5	52.6359	10,928.5	50.8885	10,928.5	55.8844	10,928.5	56.4602	10,928.5	53.4969	10,928.5	47.4618	10,928.5	52.2362	10,928.5	52.6524
11,313.7	87.2221	11,313.7	86.5725	11,313.7	87.2898	11,313.7	85.088	11,313.7	85.6872	11,313.7	82.8242	11,313.7	83.1863	11,313.7	80.8076	11,313.7	81.2354	11,313.7	77.4967	11,313.7	78.2994	11,313.7	73.2319	11,313.7	73.6799	11,313.7	71.5375	11,313.7	67.601	11,313.7	65.711	11,313.7	65.9829	11,313.7	63.0053	11,313.7	57.6176	11,313.7	56.1374	11,313.7	67.0761	11,313.7	54.2165	11,313.7	70.7476	11,313.7	52.8053	11,313.7	70.2728	11,313.7	42.5133	11,313.7	52.5156	11,313.7	53.0252	11,313.7	54.0878	11,313.7	49.5399	11,313.7	52.918	11,313.7	56.1689	11,313.7	54.4973	11,313.7	45.6504	11,313.7	52.3217	11,313.7	52.1574
11,712.9	87.0873	11,712.9	86.464	11,712.9	86.9847	11,712.9	84.8889	11,712.9	85.1589	11,712.9	83.4729	11,712.9	83.374	11,712.9	81.3288	11,712.9	81.792	11,712.9	77.5572	11,712.9	78.6845	11,712.9	71.7953	11,712.9	72.9017	11,712.9	68.5745	11,712.9	69.3301	11,712.9	64.2028	11,712.9	66.7488	11,712.9	59.2732	11,712.9	51.979	11,712.9	50.5306	11,712.9	67.0135	11,712.9	54.2225	11,712.9	70.153	11,712.9	45.8457	11,712.9	70.6339	11,712.9	45.7677	11,712.9	53.1168	11,712.9	51.3762	11,712.9	48.2942	11,712.9	43.9523	11,712.9	52.3862	11,712.9	50.1851	11,712.9	49.6169	11,712.9	42.8247	11,712.9	50.7345	11,712.9	47.8956
12,126	85.7499	12,126	85.4555	12,126	85.0743	12,126	84.2608	12,126	84.0045	12,126	83.1299	12,126	82.9905	12,126	80.3138	12,126	81.1908	12,126	74.882	12,126	76.431	12,126	68.5632	12,126	71.1514	12,126	66.0609	12,126	70.5124	12,126	62.7353	12,126	66.9443	12,126	52.5134	12,126	57.9177	12,126	55.2978	12,126	65.7596	12,126	53.3243	12,126	68.8143	12,126	46.3147	12,126	69.1674	12,126	49.5829	12,126	53.3413	12,126	48.1225	12,126	36.0397	12,126	43.1016	12,126	48.4092	12,126	52.8767	12,126	49.925	12,126	46.6948	12,126	48.0781	12,126	45.5788
12,553.7	86.0701	12,553.7	85.2137	12,553.7	85.3597	12,553.7	83.1793	12,553.7	83.6214	12,553.7	81.2459	12,553.7	81.5965	12,553.7	77.5684	12,553.7	78.5094	12,553.7	73.7635	12,553.7	74.8127	12,553.7	70.9768	12,553.7	72.9238	12,553.7	68.4257	12,553.7	70.2303	12,553.7	63.5136	12,553.7	65.6868	12,553.7	55.7425	12,553.7	53.8327	12,553.7	57.9504	12,553.7	65.6772	12,553.7	48.2355	12,553.7	69.1212	12,553.7	52.6693	12,553.7	70.0505	12,553.7	48.093	12,553.7	51.8163	12,553.7	45.7035	12,553.7	48.3314	12,553.7	40.9836	12,553.7	54.5741	12,553.7	55.3446	12,553.7	45.3017	12,553.7	47.3814	12,553.7	44.2186	12,553.7	42.0463
12,996.1	87.1248	12,996.1	85.9889	12,996.1	86.544	12,996.1	83.4158	12,996.1	84.2903	12,996.1	81.4716	12,996.1	81.5841	12,996.1	78.4188	12,996.1	78.2019	12,996.1	75.8666	12,996.1	76.6184	12,996.1	72.7875	12,996.1	73.5038	12,996.1	68.5438	12,996.1	68.3813	12,996.1	61.4187	12,996.1	64.6073	12,996.1	59.1032	12,996.1	49.4909	12,996.1	56.6674	12,996.1	67.3824	12,996.1	46.0785	12,996.1	70.0329	12,996.1	53.788	12,996.1	71.1447	12,996.1	46.0986	12,996.1	56.2026	12,996.1	43.4189	12,996.1	38.1494	12,996.1	43.7845	12,996.1	47.2663	12,996.1	53.1311	12,996.1	47.2848	12,996.1	45.4615	12,996.1	40.4933	12,996.1	39.0248
13,454.6	87.1364	13,454.6	86.2858	13,454.6	86.5121	13,454.6	84.0395	13,454.6	84.4638	13,454.6	82.3872	13,454.6	82.212	13,454.6	79.7184	13,454.6	79.4053	13,454.6	76.8327	13,454.6	77.0354	13,454.6	72.5269	13,454.6	73.9529	13,454.6	68.7074	13,454.6	64.8591	13,454.6	63.2863	13,454.6	66.1792	13,454.6	59.5391	13,454.6	57.2565	13,454.6	54.959	13,454.6	64.9675	13,454.6	51.8763	13,454.6	69.846	13,454.6	54.2821	13,454.6	71.17	13,454.6	43.0021	13,454.6	53.778	13,454.6	43.9643	13,454.6	40.3601	13,454.6	45.694	13,454.6	47.8643	13,454.6	53.3875	13,454.6	49.6691	13,454.6	47.4929	13,454.6	30.7288	13,454.6	41.0482
13,928.5	86.3296	13,928.5	85.7818	13,928.5	85.6265	13,928.5	84.2998	13,928.5	84.058	13,928.5	82.8772	13,928.5	82.7056	13,928.5	79.968	13,928.5	80.4402	13,928.5	76.3302	13,928.5	77.4264	13,928.5	70.5121	13,928.5	72.1121	13,928.5	68.5234	13,928.5	66.7377	13,928.5	63.1247	13,928.5	65.3532	13,928.5	59.3791	13,928.5	59.2765	13,928.5	54.1581	13,928.5	63.0678	13,928.5	52.5182	13,928.5	69.2936	13,928.5	53.0636	13,928.5	70.9822	13,928.5	44.9498	13,928.5	56.1063	13,928.5	44.3177	13,928.5	45.1779	13,928.5	46.5209	13,928.5	49.8815	13,928.5	48.5619	13,928.5	45.9645	13,928.5	48.3156	13,928.5	38.5608	13,928.5	45.9496
14,419.9	85.9711	14,419.9	85.1885	14,419.9	84.8815	14,419.9	84.1051	14,419.9	83.76	14,419.9	82.5845	14,419.9	82.2201	14,419.9	79.8618	14,419.9	79.5019	14,419.9	76.1307	14,419.9	76.4564	14,419.9	70.7054	14,419.9	70.6265	14,419.9	68.966	14,419.9	67.9538	14,419.9	64.1155	14,419.9	63.6581	14,419.9	58.2751	14,419.9	60.4928	14,419.9	55.9855	14,419.9	60.8182	14,419.9	50.5106	14,419.9	68.3556	14,419.9	52.4306	14,419.9	70.5963	14,419.9	48.7462	14,419.9	55.9587	14,419.9	46.9391	14,419.9	45.4298	14,419.9	52.1859	14,419.9	53.0532	14,419.9	50.3433	14,419.9	45.4615	14,419.9	51.1325	14,419.9	46.0028	14,419.9	51.145
14,928.2	86.0964	14,928.2	85.0783	14,928.2	85.0628	14,928.2	83.959	14,928.2	84.1269	14,928.2	82.2221	14,928.2	81.7481	14,928.2	79.699	14,928.2	79.189	14,928.2	75.7066	14,928.2	76.8127	14,928.2	70.8415	14,928.2	70.9298	14,928.2	68.9753	14,928.2	66.8695	14,928.2	64.0056	14,928.2	66.5419	14,928.2	58.3652	14,928.2	62.3519	14,928.2	54.7185	14,928.2	57.611	14,928.2	51.9132	14,928.2	67.7327	14,928.2	54.4942	14,928.2	70.2198	14,928.2	52.0339	14,928.2	52.5251	14,928.2	49.326	14,928.2	27.5913	14,928.2	55.7254	14,928.2	53.7467	14,928.2	54.496	14,928.2	49.5341	14,928.2	54.0863	14,928.2	48.6896	14,928.2	53.7456
15,454.8	85.7729	15,454.8	84.8309	15,454.8	84.9845	15,454.8	83.9015	15,454.8	84.1697	15,454.8	81.6765	15,454.8	81.2818	15,454.8	79.6182	15,454.8	79.2287	15,454.8	75.0678	15,454.8	76.3016	15,454.8	71.1466	15,454.8	70.9146	15,454.8	68.4313	15,454.8	67.9083	15,454.8	64.3525	15,454.8	65.1682	15,454.8	58.495	15,454.8	61.2992	15,454.8	54.7141	15,454.8	55.9503	15,454.8	54.3979	15,454.8	64.8136	15,454.8	55.088	15,454.8	69.7198	15,454.8	54.0966	15,454.8	52.0108	15,454.8	50.0887	15,454.8	42.0506	15,454.8	55.6374	15,454.8	50.6707	15,454.8	53.7574	15,454.8	51.8331	15,454.8	56.6822	15,454.8	52.0967	15,454.8	57.3968
15,999.8	85.0156	15,999.8	84.6264	15,999.8	84.5413	15,999.8	83.8599	15,999.8	83.7177	15,999.8	81.7125	15,999.8	81.1377	15,999.8	79.1318	15,999.8	79.4675	15,999.8	75.0404	15,999.8	76.1427	15,999.8	70.5674	15,999.8	72.0535	15,999.8	67.7229	15,999.8	65.8105	15,999.8	64.3139	15,999.8	62.2626	15,999.8	58.8295	15,999.8	63.0423	15,999.8	52.3651	15,999.8	54.4811	15,999.8	55.758	15,999.8	61.296	15,999.8	54.6384	15,999.8	68.6971	15,999.8	55.561	15,999.8	49.0926	15,999.8	50.9615	15,999.8	42.2115	15,999.8	56.1692	15,999.8	51.6637	15,999.8	55.2799	15,999.8	54.6648	15,999.8	55.4363	15,999.8	56.1259	15,999.8	59.9466
16,564.5	85.0769	16,564.5	84.7249	16,564.5	84.645	16,564.5	83.6844	16,564.5	83.3705	16,564.5	81.4512	16,564.5	80.4108	16,564.5	78.7789	16,564.5	78.5555	16,564.5	74.602	16,564.5	74.9716	16,564.5	69.9834	16,564.5	70.401	16,564.5	66.8046	16,564.5	63.9624	16,564.5	63.7999	16,564.5	62.2878	16,564.5	57.7997	16,564.5	61.6306	16,564.5	51.1837	16,564.5	56.5962	16,564.5	56.4514	16,564.5	58.4874	16,564.5	54.3632	16,564.5	69.3757	16,564.5	57.1928	16,564.5	49.6235	16,564.5	52.2974	16,564.5	43.2508	16,564.5	57.6372	16,564.5	51.4561	16,564.5	58.2806	16,564.5	56.7199	16,564.5	55.5029	16,564.5	58.9887	16,564.5	61.6321
17,148.2	84.4016	17,148.2	84.3835	17,148.2	84.3544	17,148.2	83.0634	17,148.2	82.9989	17,148.2	81.2201	17,148.2	80.1549	17,148.2	77.9737	17,148.2	77.8903	17,148.2	73.5752	17,148.2	74.7527	17,148.2	68.7289	17,148.2	69.7701	17,148.2	65.8555	17,148.2	64.4744	17,148.2	63.6342	17,148.2	61.6199	17,148.2	57.9949	17,148.2	61.5199	17,148.2	50.7318	17,148.2	54.2737	17,148.2	57.1636	17,148.2	54.7629	17,148.2	54.396	17,148.2	69.3957	17,148.2	58.1655	17,148.2	48.4343	17,148.2	53.5093	17,148.2	46.6124	17,148.2	59.2351	17,148.2	53.764	17,148.2	60.2619	17,148.2	58.809	17,148.2	55.1093	17,148.2	60.0233	17,148.2	62.7337
17,753.2	82.809	17,753.2	83.7732	17,753.2	83.5325	17,753.2	82.646	17,753.2	82.4293	17,753.2	80.8039	17,753.2	80.4819	17,753.2	76.9469	17,753.2	77.4735	17,753.2	72.093	17,753.2	74.6022	17,753.2	67.8601	17,753.2	69.1687	17,753.2	66.4736	17,753.2	65.649	17,753.2	63.8377	17,753.2	59.7926	17,753.2	59.6198	17,753.2	62.1251	17,753.2	52.5061	17,753.2	51.2331	17,753.2	57.1662	17,753.2	56.8377	17,753.2	54.4659	17,753.2	68.9856	17,753.2	58.9877	17,753.2	42.9188	17,753.2	53.3704	17,753.2	46.0623	17,753.2	58.84	17,753.2	50.2156	17,753.2	59.5708	17,753.2	58.3101	17,753.2	54.5236	17,753.2	59.2428	17,753.2	63.9716
18,379.4	81.3876	18,379.4	83.4287	18,379.4	83.0313	18,379.4	82.2481	18,379.4	81.5917	18,379.4	80.0489	18,379.4	80.3281	18,379.4	76.2501	18,379.4	76.7253	18,379.4	71.2147	18,379.4	73.324	18,379.4	67.1776	18,379.4	69.4559	18,379.4	66.7405	18,379.4	65.3244	18,379.4	63.5145	18,379.4	55.189	18,379.4	59.7273	18,379.4	59.8483	18,379.4	53.1821	18,379.4	47.345	18,379.4	56.5606	18,379.4	57.9221	18,379.4	53.4901	18,379.4	68.5187	18,379.4	58.8909	18,379.4	46.2839	18,379.4	52.0947	18,379.4	47.0246	18,379.4	56.6687	18,379.4	49.6371	18,379.4	60.0481	18,379.4	58.5006	18,379.4	53.2138	18,379.4	59.4559	18,379.4	64.328
19,027.6	81.1336	19,027.6	83.3302	19,027.6	82.6379	19,027.6	81.5968	19,027.6	80.7162	19,027.6	79.0767	19,027.6	79.3725	19,027.6	75.7863	19,027.6	75.6503	19,027.6	70.5432	19,027.6	71.9408	19,027.6	65.9301	19,027.6	68.0499	19,027.6	65.8062	19,027.6	60.6355	19,027.6	61.7656	19,027.6	55.7782	19,027.6	58.9748	19,027.6	58.9315	19,027.6	54.2467	19,027.6	47.9812	19,027.6	56.6695	19,027.6	61.2499	19,027.6	53.6469	19,027.6	68.0609	19,027.6	59.319	19,027.6	48.5329	19,027.6	52.9277	19,027.6	49.5653	19,027.6	55.8019	19,027.6	51.2794	19,027.6	61.3333	19,027.6	58.6868	19,027.6	53.9273	19,027.6	60.5409	19,027.6	64.725
19,698.5	80.3773	19,698.5	82.1128	19,698.5	81.842	19,698.5	79.5142	19,698.5	78.8398	19,698.5	77.3196	19,698.5	77.4317	19,698.5	75.3813	19,698.5	75.0931	19,698.5	68.4477	19,698.5	70.904	19,698.5	64.2327	19,698.5	65.1889	19,698.5	63.5824	19,698.5	59.4184	19,698.5	60.5121	19,698.5	56.673	19,698.5	58.1588	19,698.5	58.4888	19,698.5	54.7957	19,698.5	45.3601	19,698.5	55.7811	19,698.5	63.0046	19,698.5	53.3475	19,698.5	67.1413	19,698.5	59.3708	19,698.5	49.2256	19,698.5	53.5361	19,698.5	50.5575	19,698.5	54.9602	19,698.5	52.4916	19,698.5	61.3231	19,698.5	58.6116	19,698.5	54.7426	19,698.5	60.9488	19,698.5	65.1582
19,999.5	79.7283	19,999.5	81.419	19,999.5	80.8327	19,999.5	78.9259	19,999.5	77.7091	19,999.5	77.1048	19,999.5	77.3154	19,999.5	74.8748	19,999.5	75.3241	19,999.5	67.6904	19,999.5	69.8504	19,999.5	63.3549	19,999.5	63.4969	19,999.5	62.7108	19,999.5	61.6814	19,999.5	60.3876	19,999.5	59.0693	19,999.5	57.7399	19,999.5	57.2844	19,999.5	55.3967	19,999.5	50.7614	19,999.5	55.4179	19,999.5	63.2263	19,999.5	53.3605	19,999.5	66.905	19,999.5	59.9994	19,999.5	51.627	19,999.5	52.4579	19,999.5	52.6304	19,999.5	55.1318	19,999.5	53.8849	19,999.5	62.0155	19,999.5	59.7492	19,999.5	56.3172	19,999.5	60.8304	19,999.5	65.3008
